#wls	flux	fluxerr
1.600000E+03	1.870828E-14	2.702660E-14
1.640000E+03	1.888641E-14	2.714280E-14
1.680000E+03	1.907596E-14	2.726096E-14
1.720000E+03	1.928299E-14	2.738820E-14
1.760000E+03	1.950501E-14	2.751922E-14
1.800000E+03	1.974819E-14	2.766081E-14
1.840000E+03	2.001304E-14	2.781140E-14
1.880000E+03	2.030588E-14	2.797725E-14
1.920000E+03	2.062450E-14	2.815238E-14
1.960000E+03	2.097831E-14	2.834639E-14
2.000000E+03	2.137111E-14	2.856053E-14
2.040000E+03	2.180977E-14	2.879944E-14
2.080000E+03	2.230135E-14	2.906718E-14
2.120000E+03	2.284727E-14	2.935950E-14
2.160000E+03	2.346093E-14	2.968662E-14
2.200000E+03	2.414726E-14	3.004644E-14
2.240000E+03	2.491144E-14	3.043593E-14
2.280000E+03	2.576501E-14	3.085827E-14
2.320000E+03	2.671093E-14	3.130443E-14
2.360000E+03	2.775857E-14	3.177121E-14
2.400000E+03	2.891168E-14	3.224683E-14
2.440000E+03	3.018050E-14	3.272471E-14
2.480000E+03	3.157271E-14	3.319278E-14
2.520000E+03	3.309014E-14	3.363035E-14
2.560000E+03	3.474104E-14	3.402109E-14
2.600000E+03	3.653389E-14	3.434594E-14
2.640000E+03	3.848038E-14	3.458566E-14
2.680000E+03	4.058236E-14	3.470894E-14
2.720000E+03	4.285056E-14	3.468981E-14
2.760000E+03	4.529131E-14	3.449565E-14
2.800000E+03	4.790887E-14	3.409031E-14
2.840000E+03	5.069768E-14	3.343010E-14
2.880000E+03	5.365085E-14	3.247253E-14
2.920000E+03	5.676230E-14	3.117935E-14
2.960000E+03	6.001830E-14	2.951424E-14
3.000000E+03	6.340981E-14	2.745313E-14
3.010000E+03	6.427833E-14	2.687454E-14
3.020000E+03	6.515297E-14	2.626972E-14
3.030000E+03	6.603296E-14	2.563857E-14
3.040000E+03	6.692103E-14	2.498238E-14
3.050000E+03	6.781277E-14	2.429984E-14
3.060000E+03	6.871440E-14	2.359363E-14
3.070000E+03	6.961788E-14	2.286148E-14
3.080000E+03	7.052586E-14	2.210505E-14
3.090000E+03	7.144094E-14	2.132597E-14
3.100000E+03	7.235863E-14	2.052383E-14
3.110000E+03	7.328157E-14	1.970056E-14
3.120000E+03	7.420887E-14	1.885722E-14
3.130000E+03	7.513970E-14	1.799511E-14
3.140000E+03	7.606974E-14	1.711505E-14
3.150000E+03	7.700908E-14	1.622139E-14
3.160000E+03	7.795010E-14	1.531471E-14
3.170000E+03	7.889609E-14	1.439839E-14
3.180000E+03	7.984706E-14	1.347549E-14
3.190000E+03	8.080686E-14	1.255020E-14
3.200000E+03	8.177265E-14	1.162616E-14
3.210000E+03	8.274920E-14	1.070897E-14
3.220000E+03	8.373834E-14	9.804647E-15
3.230000E+03	8.474262E-14	8.920469E-15
3.240000E+03	8.576903E-14	8.065664E-15
3.250000E+03	8.682200E-14	7.251007E-15
3.260000E+03	8.791072E-14	6.489922E-15
3.270000E+03	8.903856E-14	5.797792E-15
3.280000E+03	9.021734E-14	5.192451E-15
3.290000E+03	9.145676E-14	4.691107E-15
3.300000E+03	9.277150E-14	4.306168E-15
3.310000E+03	9.417095E-14	4.039034E-15
3.320000E+03	9.567708E-14	3.878237E-15
3.330000E+03	9.730729E-14	3.801908E-15
3.340000E+03	9.907847E-14	3.784807E-15
3.350000E+03	1.010211E-13	3.804958E-15
3.360000E+03	1.031566E-13	3.846140E-15
3.370000E+03	1.055162E-13	3.898926E-15
3.380000E+03	1.081150E-13	3.958300E-15
3.390000E+03	1.109594E-13	4.022282E-15
3.400000E+03	1.140439E-13	4.090125E-15
3.410000E+03	1.173283E-13	4.160065E-15
3.420000E+03	1.207583E-13	4.229387E-15
3.430000E+03	1.242637E-13	4.293900E-15
3.440000E+03	1.277743E-13	4.348203E-15
3.450000E+03	1.312328E-13	4.386437E-15
3.460000E+03	1.346128E-13	4.403263E-15
3.470000E+03	1.379151E-13	4.394189E-15
3.480000E+03	1.411800E-13	4.357049E-15
3.490000E+03	1.444608E-13	4.292221E-15
3.500000E+03	1.478246E-13	4.203249E-15
3.510000E+03	1.513327E-13	4.096026E-15
3.520000E+03	1.550409E-13	3.976661E-15
3.530000E+03	1.589675E-13	3.848834E-15
3.540000E+03	1.630986E-13	3.715254E-15
3.550000E+03	1.673503E-13	3.577592E-15
3.560000E+03	1.715503E-13	3.438274E-15
3.570000E+03	1.754452E-13	3.307383E-15
3.580000E+03	1.786985E-13	3.201264E-15
3.590000E+03	1.810137E-13	3.135059E-15
3.600000E+03	1.823051E-13	3.117438E-15
3.610000E+03	1.829052E-13	3.138249E-15
3.620000E+03	1.834442E-13	3.172856E-15
3.630000E+03	1.845881E-13	3.207656E-15
3.640000E+03	1.869101E-13	3.242557E-15
3.650000E+03	1.908185E-13	3.278133E-15
3.660000E+03	1.965669E-13	3.321071E-15
3.670000E+03	2.042119E-13	3.380650E-15
3.680000E+03	2.135505E-13	3.457077E-15
3.690000E+03	2.241067E-13	3.551722E-15
3.700000E+03	2.351008E-13	3.663415E-15
3.710000E+03	2.454849E-13	3.773236E-15
3.720000E+03	2.540190E-13	3.862243E-15
3.730000E+03	2.595121E-13	3.917243E-15
3.740000E+03	2.610874E-13	3.918067E-15
3.750000E+03	2.583623E-13	3.859486E-15
3.760000E+03	2.516171E-13	3.752112E-15
3.770000E+03	2.417963E-13	3.602104E-15
3.780000E+03	2.302557E-13	3.428039E-15
3.790000E+03	2.184907E-13	3.255622E-15
3.800000E+03	2.079417E-13	3.097214E-15
3.810000E+03	1.998311E-13	2.968517E-15
3.820000E+03	1.951134E-13	2.887964E-15
3.830000E+03	1.945118E-13	2.862422E-15
3.840000E+03	1.985974E-13	2.901935E-15
3.850000E+03	2.077796E-13	3.018139E-15
3.860000E+03	2.222062E-13	3.207950E-15
3.870000E+03	2.416688E-13	3.467863E-15
3.880000E+03	2.654439E-13	3.793059E-15
3.890000E+03	2.920670E-13	4.154765E-15
3.900000E+03	3.192777E-13	4.519778E-15
3.910000E+03	3.444122E-13	4.859975E-15
3.920000E+03	3.650920E-13	5.135473E-15
3.930000E+03	3.797467E-13	5.328641E-15
3.940000E+03	3.880826E-13	5.447008E-15
3.950000E+03	3.912581E-13	5.486073E-15
3.960000E+03	3.913487E-13	5.461638E-15
3.970000E+03	3.905659E-13	5.409264E-15
3.980000E+03	3.907404E-13	5.346556E-15
3.990000E+03	3.930159E-13	5.300250E-15
4.000000E+03	3.975892E-13	5.293869E-15
4.010000E+03	4.036395E-13	5.309321E-15
4.020000E+03	4.096874E-13	5.336356E-15
4.030000E+03	4.142403E-13	5.374241E-15
4.040000E+03	4.163391E-13	5.387948E-15
4.050000E+03	4.156486E-13	5.362900E-15
4.060000E+03	4.124177E-13	5.311913E-15
4.070000E+03	4.073443E-13	5.227485E-15
4.080000E+03	4.012202E-13	5.122752E-15
4.090000E+03	3.945657E-13	5.021536E-15
4.100000E+03	3.874678E-13	4.908867E-15
4.110000E+03	3.796207E-13	4.779999E-15
4.120000E+03	3.705107E-13	4.641994E-15
4.130000E+03	3.596731E-13	4.474823E-15
4.140000E+03	3.468394E-13	4.279766E-15
4.150000E+03	3.321954E-13	4.075834E-15
4.160000E+03	3.165137E-13	3.858591E-15
4.170000E+03	3.009425E-13	3.646894E-15
4.180000E+03	2.868361E-13	3.471807E-15
4.190000E+03	2.756385E-13	3.331120E-15
4.200000E+03	2.685375E-13	3.233417E-15
4.210000E+03	2.661671E-13	3.195788E-15
4.220000E+03	2.685574E-13	3.206613E-15
4.230000E+03	2.752626E-13	3.265005E-15
4.240000E+03	2.854685E-13	3.378535E-15
4.250000E+03	2.980652E-13	3.521586E-15
4.260000E+03	3.117655E-13	3.682566E-15
4.270000E+03	3.254013E-13	3.868084E-15
4.280000E+03	3.382302E-13	4.050039E-15
4.290000E+03	3.498890E-13	4.214409E-15
4.300000E+03	3.601788E-13	4.370817E-15
4.310000E+03	3.688632E-13	4.499464E-15
4.320000E+03	3.755449E-13	4.593774E-15
4.330000E+03	3.795891E-13	4.662729E-15
4.340000E+03	3.801962E-13	4.682080E-15
4.350000E+03	3.766226E-13	4.642947E-15
4.360000E+03	3.685710E-13	4.555480E-15
4.370000E+03	3.564953E-13	4.403489E-15
4.380000E+03	3.415171E-13	4.192594E-15
4.390000E+03	3.251942E-13	3.952409E-15
4.400000E+03	3.092755E-13	3.696603E-15
4.410000E+03	2.953916E-13	3.454560E-15
4.420000E+03	2.847672E-13	3.257098E-15
4.430000E+03	2.781459E-13	3.106657E-15
4.440000E+03	2.758936E-13	3.028255E-15
4.450000E+03	2.780140E-13	3.046449E-15
4.460000E+03	2.841101E-13	3.125504E-15
4.470000E+03	2.935246E-13	3.242564E-15
4.480000E+03	3.054530E-13	3.400717E-15
4.490000E+03	3.190309E-13	3.566360E-15
4.500000E+03	3.334178E-13	3.721170E-15
4.510000E+03	3.479380E-13	3.873443E-15
4.520000E+03	3.621474E-13	4.003451E-15
4.530000E+03	3.758696E-13	4.124581E-15
4.540000E+03	3.889875E-13	4.270552E-15
4.550000E+03	4.012223E-13	4.407489E-15
4.560000E+03	4.121898E-13	4.520725E-15
4.570000E+03	4.213137E-13	4.627652E-15
4.580000E+03	4.277469E-13	4.693081E-15
4.590000E+03	4.306124E-13	4.717072E-15
4.600000E+03	4.292401E-13	4.729685E-15
4.610000E+03	4.231781E-13	4.689769E-15
4.620000E+03	4.124185E-13	4.586959E-15
4.630000E+03	3.974097E-13	4.451706E-15
4.640000E+03	3.789133E-13	4.268785E-15
4.650000E+03	3.580421E-13	4.058422E-15
4.660000E+03	3.362377E-13	3.867172E-15
4.670000E+03	3.150411E-13	3.689419E-15
4.680000E+03	2.959584E-13	3.539238E-15
4.690000E+03	2.802835E-13	3.448893E-15
4.700000E+03	2.689699E-13	3.406672E-15
4.710000E+03	2.625884E-13	3.401542E-15
4.720000E+03	2.612093E-13	3.436489E-15
4.730000E+03	2.642780E-13	3.495738E-15
4.740000E+03	2.707612E-13	3.565805E-15
4.750000E+03	2.793651E-13	3.640147E-15
4.760000E+03	2.886509E-13	3.700478E-15
4.770000E+03	2.973298E-13	3.747097E-15
4.780000E+03	3.045992E-13	3.792683E-15
4.790000E+03	3.103861E-13	3.829019E-15
4.800000E+03	3.151723E-13	3.869533E-15
4.810000E+03	3.194230E-13	3.938228E-15
4.820000E+03	3.231207E-13	4.013646E-15
4.830000E+03	3.258990E-13	4.079652E-15
4.840000E+03	3.273572E-13	4.138329E-15
4.850000E+03	3.272366E-13	4.166855E-15
4.860000E+03	3.256175E-13	4.159110E-15
4.870000E+03	3.230362E-13	4.131959E-15
4.880000E+03	3.204446E-13	4.087271E-15
4.890000E+03	3.189909E-13	4.045004E-15
4.900000E+03	3.196302E-13	4.033423E-15
4.910000E+03	3.228362E-13	4.046835E-15
4.920000E+03	3.285681E-13	4.088282E-15
4.930000E+03	3.362087E-13	4.166499E-15
4.940000E+03	3.444475E-13	4.249831E-15
4.950000E+03	3.514447E-13	4.317303E-15
4.960000E+03	3.552634E-13	4.363791E-15
4.970000E+03	3.543299E-13	4.353108E-15
4.980000E+03	3.478498E-13	4.276157E-15
4.990000E+03	3.361884E-13	4.153800E-15
5.000000E+03	3.208997E-13	3.983104E-15
5.010000E+03	3.042069E-13	3.785044E-15
5.020000E+03	2.883142E-13	3.598382E-15
5.030000E+03	2.749870E-13	3.431943E-15
5.040000E+03	2.654288E-13	3.302512E-15
5.050000E+03	2.601531E-13	3.229533E-15
5.060000E+03	2.589677E-13	3.200459E-15
5.070000E+03	2.611803E-13	3.210004E-15
5.080000E+03	2.658267E-13	3.259698E-15
5.090000E+03	2.717491E-13	3.321473E-15
5.100000E+03	2.777166E-13	3.379195E-15
5.110000E+03	2.826711E-13	3.433207E-15
5.120000E+03	2.859531E-13	3.462213E-15
5.130000E+03	2.873703E-13	3.466572E-15
5.140000E+03	2.871555E-13	3.465039E-15
5.150000E+03	2.859142E-13	3.447167E-15
5.160000E+03	2.844709E-13	3.419038E-15
5.170000E+03	2.836348E-13	3.402885E-15
5.180000E+03	2.840545E-13	3.392325E-15
5.190000E+03	2.861858E-13	3.396122E-15
5.200000E+03	2.902406E-13	3.433528E-15
5.210000E+03	2.960990E-13	3.486092E-15
5.220000E+03	3.033827E-13	3.549185E-15
5.230000E+03	3.115688E-13	3.633610E-15
5.240000E+03	3.200717E-13	3.713676E-15
5.250000E+03	3.282745E-13	3.783632E-15
5.260000E+03	3.356337E-13	3.857905E-15
5.270000E+03	3.417694E-13	3.909869E-15
5.280000E+03	3.464890E-13	3.937746E-15
5.290000E+03	3.497615E-13	3.964044E-15
5.300000E+03	3.516594E-13	3.966422E-15
5.310000E+03	3.523373E-13	3.950366E-15
5.320000E+03	3.519586E-13	3.943225E-15
5.330000E+03	3.505949E-13	3.915873E-15
5.340000E+03	3.482745E-13	3.863322E-15
5.350000E+03	3.450632E-13	3.808494E-15
5.360000E+03	3.410754E-13	3.732145E-15
5.370000E+03	3.365474E-13	3.652718E-15
5.380000E+03	3.318747E-13	3.610482E-15
5.390000E+03	3.275985E-13	3.582071E-15
5.400000E+03	3.242812E-13	3.574321E-15
5.410000E+03	3.223121E-13	3.621651E-15
5.420000E+03	3.217368E-13	3.690663E-15
5.430000E+03	3.223023E-13	3.753175E-15
5.440000E+03	3.235692E-13	3.811635E-15
5.450000E+03	3.249945E-13	3.843172E-15
5.460000E+03	3.259797E-13	3.840410E-15
5.470000E+03	3.260136E-13	3.814136E-15
5.480000E+03	3.248863E-13	3.752342E-15
5.490000E+03	3.226182E-13	3.670035E-15
5.500000E+03	3.194187E-13	3.595096E-15
5.510000E+03	3.156591E-13	3.512874E-15
5.520000E+03	3.117443E-13	3.438630E-15
5.530000E+03	3.079518E-13	3.402886E-15
5.540000E+03	3.043072E-13	3.374336E-15
5.550000E+03	3.006292E-13	3.342230E-15
5.560000E+03	2.966341E-13	3.323264E-15
5.570000E+03	2.919985E-13	3.290697E-15
5.580000E+03	2.864273E-13	3.239506E-15
5.590000E+03	2.797798E-13	3.188769E-15
5.600000E+03	2.721773E-13	3.120036E-15
5.610000E+03	2.639497E-13	3.035425E-15
5.620000E+03	2.555700E-13	2.957889E-15
5.630000E+03	2.476164E-13	2.877788E-15
5.640000E+03	2.406171E-13	2.801448E-15
5.650000E+03	2.348862E-13	2.748429E-15
5.660000E+03	2.304638E-13	2.705118E-15
5.670000E+03	2.272011E-13	2.670496E-15
5.680000E+03	2.248861E-13	2.656927E-15
5.690000E+03	2.233203E-13	2.648414E-15
5.700000E+03	2.223868E-13	2.643139E-15
5.710000E+03	2.220993E-13	2.655134E-15
5.720000E+03	2.226609E-13	2.674618E-15
5.730000E+03	2.243552E-13	2.705796E-15
5.740000E+03	2.273873E-13	2.765731E-15
5.750000E+03	2.317756E-13	2.842234E-15
5.760000E+03	2.373589E-13	2.931055E-15
5.770000E+03	2.438418E-13	3.040735E-15
5.780000E+03	2.508464E-13	3.153773E-15
5.790000E+03	2.579150E-13	3.259901E-15
5.800000E+03	2.645740E-13	3.363274E-15
5.810000E+03	2.704052E-13	3.448881E-15
5.820000E+03	2.750669E-13	3.515437E-15
5.830000E+03	2.782945E-13	3.575929E-15
5.840000E+03	2.799277E-13	3.620474E-15
5.850000E+03	2.799535E-13	3.652517E-15
5.860000E+03	2.785398E-13	3.687035E-15
5.870000E+03	2.760477E-13	3.708954E-15
5.880000E+03	2.729315E-13	3.708946E-15
5.890000E+03	2.696150E-13	3.693331E-15
5.900000E+03	2.663718E-13	3.655221E-15
5.910000E+03	2.633445E-13	3.598568E-15
5.920000E+03	2.605327E-13	3.536422E-15
5.930000E+03	2.577868E-13	3.466007E-15
5.940000E+03	2.549091E-13	3.396127E-15
5.950000E+03	2.517633E-13	3.340604E-15
5.960000E+03	2.483225E-13	3.287954E-15
5.970000E+03	2.446723E-13	3.236076E-15
5.980000E+03	2.409511E-13	3.193623E-15
5.990000E+03	2.373037E-13	3.150388E-15
6.000000E+03	2.338721E-13	3.106375E-15
6.010000E+03	2.307678E-13	3.071515E-15
6.020000E+03	2.280372E-13	3.037842E-15
6.030000E+03	2.256814E-13	3.006269E-15
6.040000E+03	2.236746E-13	2.985728E-15
6.050000E+03	2.219680E-13	2.966723E-15
6.060000E+03	2.205111E-13	2.948060E-15
6.070000E+03	2.192726E-13	2.937477E-15
6.080000E+03	2.182422E-13	2.926460E-15
6.090000E+03	2.174297E-13	2.915212E-15
6.100000E+03	2.168319E-13	2.911964E-15
6.110000E+03	2.164025E-13	2.907669E-15
6.120000E+03	2.160344E-13	2.900454E-15
6.130000E+03	2.155505E-13	2.895787E-15
6.140000E+03	2.146984E-13	2.882257E-15
6.150000E+03	2.131881E-13	2.856580E-15
6.160000E+03	2.107929E-13	2.824399E-15
6.170000E+03	2.074171E-13	2.776871E-15
6.180000E+03	2.031158E-13	2.715788E-15
6.190000E+03	1.980953E-13	2.651985E-15
6.200000E+03	1.926999E-13	2.580933E-15
6.210000E+03	1.873376E-13	2.506547E-15
6.220000E+03	1.823600E-13	2.440109E-15
6.230000E+03	1.779903E-13	2.378431E-15
6.240000E+03	1.743361E-13	2.325151E-15
6.250000E+03	1.713852E-13	2.288112E-15
6.260000E+03	1.690007E-13	2.258320E-15
6.270000E+03	1.669928E-13	2.232614E-15
6.280000E+03	1.652386E-13	2.215219E-15
6.290000E+03	1.637404E-13	2.198337E-15
6.300000E+03	1.626275E-13	2.182219E-15
6.310000E+03	1.621604E-13	2.176265E-15
6.320000E+03	1.627393E-13	2.181050E-15
6.330000E+03	1.648201E-13	2.205330E-15
6.340000E+03	1.688290E-13	2.262992E-15
6.350000E+03	1.750940E-13	2.351485E-15
6.360000E+03	1.838187E-13	2.471858E-15
6.370000E+03	1.950373E-13	2.630570E-15
6.380000E+03	2.085424E-13	2.816361E-15
6.390000E+03	2.238473E-13	3.020439E-15
6.400000E+03	2.402274E-13	3.240606E-15
6.410000E+03	2.568243E-13	3.457576E-15
6.420000E+03	2.726916E-13	3.661142E-15
6.430000E+03	2.869157E-13	3.852520E-15
6.440000E+03	2.988259E-13	4.012408E-15
6.450000E+03	3.080456E-13	4.135346E-15
6.460000E+03	3.144609E-13	4.232212E-15
6.470000E+03	3.182422E-13	4.292111E-15
6.480000E+03	3.197709E-13	4.319098E-15
6.490000E+03	3.195527E-13	4.332589E-15
6.500000E+03	3.181277E-13	4.326922E-15
6.510000E+03	3.160248E-13	4.308793E-15
6.520000E+03	3.136932E-13	4.296794E-15
6.530000E+03	3.114739E-13	4.283266E-15
6.540000E+03	3.095711E-13	4.270333E-15
6.550000E+03	3.080700E-13	4.271086E-15
6.560000E+03	3.069274E-13	4.274099E-15
6.570000E+03	3.059951E-13	4.277395E-15
6.580000E+03	3.050311E-13	4.289051E-15
6.590000E+03	3.037839E-13	4.294513E-15
6.600000E+03	3.019892E-13	4.288538E-15
6.610000E+03	2.993975E-13	4.277292E-15
6.620000E+03	2.958720E-13	4.248823E-15
6.630000E+03	2.913583E-13	4.201860E-15
6.640000E+03	2.858837E-13	4.146231E-15
6.650000E+03	2.796015E-13	4.075204E-15
6.660000E+03	2.727179E-13	3.991438E-15
6.670000E+03	2.654514E-13	3.906472E-15
6.680000E+03	2.580092E-13	3.815386E-15
6.690000E+03	2.505825E-13	3.720736E-15
6.700000E+03	2.432989E-13	3.631718E-15
6.710000E+03	2.362613E-13	3.543043E-15
6.720000E+03	2.295384E-13	3.455644E-15
6.730000E+03	2.231600E-13	3.376385E-15
6.740000E+03	2.171686E-13	3.300040E-15
6.750000E+03	2.115800E-13	3.226848E-15
6.760000E+03	2.063966E-13	3.162561E-15
6.770000E+03	2.016202E-13	3.102216E-15
6.780000E+03	1.972389E-13	3.045936E-15
6.790000E+03	1.932167E-13	2.998733E-15
6.800000E+03	1.895201E-13	2.956229E-15
6.810000E+03	1.861008E-13	2.918429E-15
6.820000E+03	1.829134E-13	2.889487E-15
6.830000E+03	1.799373E-13	2.864197E-15
6.840000E+03	1.771514E-13	2.840373E-15
6.850000E+03	1.745675E-13	2.820232E-15
6.860000E+03	1.722110E-13	2.798510E-15
6.870000E+03	1.701218E-13	2.773641E-15
6.880000E+03	1.683390E-13	2.749051E-15
6.890000E+03	1.668937E-13	2.723788E-15
6.900000E+03	1.657960E-13	2.701112E-15
6.910000E+03	1.650344E-13	2.686552E-15
6.920000E+03	1.645711E-13	2.677311E-15
6.930000E+03	1.643444E-13	2.672722E-15
6.940000E+03	1.642787E-13	2.674758E-15
6.950000E+03	1.642963E-13	2.678404E-15
6.960000E+03	1.643097E-13	2.681598E-15
6.970000E+03	1.642606E-13	2.686181E-15
6.980000E+03	1.640994E-13	2.687780E-15
6.990000E+03	1.638028E-13	2.685687E-15
7.000000E+03	1.633633E-13	2.682857E-15
7.010000E+03	1.627890E-13	2.676385E-15
7.020000E+03	1.620834E-13	2.666455E-15
7.030000E+03	1.612665E-13	2.656601E-15
7.040000E+03	1.603482E-13	2.643955E-15
7.050000E+03	1.593452E-13	2.628742E-15
7.060000E+03	1.582720E-13	2.614186E-15
7.070000E+03	1.571472E-13	2.597629E-15
7.080000E+03	1.559944E-13	2.579499E-15
7.090000E+03	1.548324E-13	2.563108E-15
7.100000E+03	1.536793E-13	2.546006E-15
7.110000E+03	1.525566E-13	2.528711E-15
7.120000E+03	1.514855E-13	2.514594E-15
7.130000E+03	1.504958E-13	2.501575E-15
7.140000E+03	1.496219E-13	2.490503E-15
7.150000E+03	1.489013E-13	2.485145E-15
7.160000E+03	1.483615E-13	2.483594E-15
7.170000E+03	1.480210E-13	2.486090E-15
7.180000E+03	1.478622E-13	2.494334E-15
7.190000E+03	1.478433E-13	2.503571E-15
7.200000E+03	1.478871E-13	2.510464E-15
7.210000E+03	1.479174E-13	2.514797E-15
7.220000E+03	1.478718E-13	2.512722E-15
7.230000E+03	1.476982E-13	2.504025E-15
7.240000E+03	1.473790E-13	2.492000E-15
7.250000E+03	1.469182E-13	2.475452E-15
7.260000E+03	1.463559E-13	2.456501E-15
7.270000E+03	1.457289E-13	2.439212E-15
7.280000E+03	1.450801E-13	2.421752E-15
7.290000E+03	1.444540E-13	2.404734E-15
7.300000E+03	1.438760E-13	2.390885E-15
7.310000E+03	1.433573E-13	2.377148E-15
7.320000E+03	1.428903E-13	2.362954E-15
7.330000E+03	1.424715E-13	2.350613E-15
7.340000E+03	1.420731E-13	2.336858E-15
7.350000E+03	1.416789E-13	2.321607E-15
7.360000E+03	1.412723E-13	2.307469E-15
7.370000E+03	1.408404E-13	2.291592E-15
7.380000E+03	1.403845E-13	2.274280E-15
7.390000E+03	1.398987E-13	2.258333E-15
7.400000E+03	1.393706E-13	2.240703E-15
7.410000E+03	1.387956E-13	2.221470E-15
7.420000E+03	1.381604E-13	2.203283E-15
7.430000E+03	1.374489E-13	2.182876E-15
7.440000E+03	1.366455E-13	2.160135E-15
7.450000E+03	1.357434E-13	2.137971E-15
7.460000E+03	1.347330E-13	2.113438E-15
7.470000E+03	1.336132E-13	2.087121E-15
7.480000E+03	1.323904E-13	2.062701E-15
7.490000E+03	1.310783E-13	2.038091E-15
7.500000E+03	1.296905E-13	2.014770E-15
7.510000E+03	1.282521E-13	1.997522E-15
7.520000E+03	1.267669E-13	1.984968E-15
7.530000E+03	1.252401E-13	1.979865E-15
7.540000E+03	1.236610E-13	1.988692E-15
7.550000E+03	1.220020E-13	2.011279E-15
7.560000E+03	1.202533E-13	2.047847E-15
7.570000E+03	1.184393E-13	2.096036E-15
7.580000E+03	1.166447E-13	2.140939E-15
7.590000E+03	1.149939E-13	2.165906E-15
7.600000E+03	1.136171E-13	2.161349E-15
7.610000E+03	1.126342E-13	2.123226E-15
7.620000E+03	1.121486E-13	2.054716E-15
7.630000E+03	1.122130E-13	1.965356E-15
7.640000E+03	1.128271E-13	1.869003E-15
7.650000E+03	1.139417E-13	1.784383E-15
7.660000E+03	1.154407E-13	1.723972E-15
7.670000E+03	1.171612E-13	1.683973E-15
7.680000E+03	1.189100E-13	1.658578E-15
7.690000E+03	1.205018E-13	1.643544E-15
7.700000E+03	1.218016E-13	1.628575E-15
7.710000E+03	1.227324E-13	1.611622E-15
7.720000E+03	1.232810E-13	1.596471E-15
7.730000E+03	1.234814E-13	1.577555E-15
7.740000E+03	1.234121E-13	1.556030E-15
7.750000E+03	1.231905E-13	1.538237E-15
7.760000E+03	1.229169E-13	1.518607E-15
