#wls	flux	fluxerr
1.600000E+03	3.685098E-15	5.303725E-15
1.640000E+03	3.667561E-15	5.249607E-15
1.680000E+03	3.651704E-15	5.195836E-15
1.720000E+03	3.636085E-15	5.140202E-15
1.760000E+03	3.620699E-15	5.082554E-15
1.800000E+03	3.606956E-15	5.024703E-15
1.840000E+03	3.594840E-15	4.966424E-15
1.880000E+03	3.583644E-15	4.906529E-15
1.920000E+03	3.573375E-15	4.844821E-15
1.960000E+03	3.565427E-15	4.782954E-15
2.000000E+03	3.559113E-15	4.719724E-15
2.040000E+03	3.555139E-15	4.655776E-15
2.080000E+03	3.552847E-15	4.589927E-15
2.120000E+03	3.553641E-15	4.523644E-15
2.160000E+03	3.556217E-15	4.454874E-15
2.200000E+03	3.562004E-15	4.385009E-15
2.240000E+03	3.571093E-15	4.313677E-15
2.280000E+03	3.583607E-15	4.240500E-15
2.320000E+03	3.599048E-15	4.164337E-15
2.360000E+03	3.618284E-15	4.085618E-15
2.400000E+03	3.642229E-15	4.004686E-15
2.440000E+03	3.671193E-15	3.921098E-15
2.480000E+03	3.704266E-15	3.833063E-15
2.520000E+03	3.743879E-15	3.742221E-15
2.560000E+03	3.789964E-15	3.647422E-15
2.600000E+03	3.843875E-15	3.548797E-15
2.640000E+03	3.905821E-15	3.445217E-15
2.680000E+03	3.978126E-15	3.337259E-15
2.720000E+03	4.061382E-15	3.223699E-15
2.760000E+03	4.158366E-15	3.104821E-15
2.800000E+03	4.270846E-15	2.979692E-15
2.840000E+03	4.401564E-15	2.847693E-15
2.880000E+03	4.553628E-15	2.707955E-15
2.920000E+03	4.731200E-15	2.559679E-15
2.960000E+03	4.938138E-15	2.401280E-15
3.000000E+03	5.179225E-15	2.231126E-15
3.010000E+03	5.245940E-15	2.186740E-15
3.020000E+03	5.315055E-15	2.141395E-15
3.030000E+03	5.385895E-15	2.094768E-15
3.040000E+03	5.459931E-15	2.047383E-15
3.050000E+03	5.537208E-15	1.999170E-15
3.060000E+03	5.617034E-15	1.949808E-15
3.070000E+03	5.699425E-15	1.899255E-15
3.080000E+03	5.785129E-15	1.847707E-15
3.090000E+03	5.873404E-15	1.794872E-15
3.100000E+03	5.964981E-15	1.740936E-15
3.110000E+03	6.059074E-15	1.685631E-15
3.120000E+03	6.156384E-15	1.629136E-15
3.130000E+03	6.256841E-15	1.571409E-15
3.140000E+03	6.359568E-15	1.512232E-15
3.150000E+03	6.465980E-15	1.451963E-15
3.160000E+03	6.574351E-15	1.390241E-15
3.170000E+03	6.685249E-15	1.327267E-15
3.180000E+03	6.799219E-15	1.263234E-15
3.190000E+03	6.914364E-15	1.197915E-15
3.200000E+03	7.031933E-15	1.131715E-15
3.210000E+03	7.150711E-15	1.064659E-15
3.220000E+03	7.270229E-15	9.969831E-16
3.230000E+03	7.390782E-15	9.291109E-16
3.240000E+03	7.510964E-15	8.613443E-16
3.250000E+03	7.630973E-15	7.943258E-16
3.260000E+03	7.749292E-15	7.286720E-16
3.270000E+03	7.866044E-15	6.653810E-16
3.280000E+03	7.980504E-15	6.055995E-16
3.290000E+03	8.091972E-15	5.507238E-16
3.300000E+03	8.199911E-15	5.022718E-16
3.310000E+03	8.304308E-15	4.614644E-16
3.320000E+03	8.405985E-15	4.287964E-16
3.330000E+03	8.507223E-15	4.041512E-16
3.340000E+03	8.608863E-15	3.867408E-16
3.350000E+03	8.712719E-15	3.752480E-16
3.360000E+03	8.821427E-15	3.682649E-16
3.370000E+03	8.936407E-15	3.645086E-16
3.380000E+03	9.058394E-15	3.628558E-16
3.390000E+03	9.186571E-15	3.625044E-16
3.400000E+03	9.321624E-15	3.630769E-16
3.410000E+03	9.460148E-15	3.641776E-16
3.420000E+03	9.599335E-15	3.656543E-16
3.430000E+03	9.733120E-15	3.673647E-16
3.440000E+03	9.859195E-15	3.692047E-16
3.450000E+03	9.971140E-15	3.709496E-16
3.460000E+03	1.006663E-14	3.725547E-16
3.470000E+03	1.014504E-14	3.738799E-16
3.480000E+03	1.020789E-14	3.748967E-16
3.490000E+03	1.025833E-14	3.756802E-16
3.500000E+03	1.030185E-14	3.762571E-16
3.510000E+03	1.034397E-14	3.767280E-16
3.520000E+03	1.038934E-14	3.772422E-16
3.530000E+03	1.044353E-14	3.778715E-16
3.540000E+03	1.051066E-14	3.787321E-16
3.550000E+03	1.059419E-14	3.800268E-16
3.560000E+03	1.069757E-14	3.818670E-16
3.570000E+03	1.082207E-14	3.843843E-16
3.580000E+03	1.096934E-14	3.878069E-16
3.590000E+03	1.114233E-14	3.922569E-16
3.600000E+03	1.134095E-14	3.977720E-16
3.610000E+03	1.156888E-14	4.045201E-16
3.620000E+03	1.182846E-14	4.124184E-16
3.630000E+03	1.212313E-14	4.214735E-16
3.640000E+03	1.245648E-14	4.317879E-16
3.650000E+03	1.283011E-14	4.432583E-16
3.660000E+03	1.324339E-14	4.557903E-16
3.670000E+03	1.369117E-14	4.691916E-16
3.680000E+03	1.416169E-14	4.827941E-16
3.690000E+03	1.463845E-14	4.957751E-16
3.700000E+03	1.510136E-14	5.072088E-16
3.710000E+03	1.552907E-14	5.158510E-16
3.720000E+03	1.590438E-14	5.206341E-16
3.730000E+03	1.621227E-14	5.206511E-16
3.740000E+03	1.645081E-14	5.152470E-16
3.750000E+03	1.662501E-14	5.042543E-16
3.760000E+03	1.674593E-14	4.881380E-16
3.770000E+03	1.683261E-14	4.678828E-16
3.780000E+03	1.690709E-14	4.453902E-16
3.790000E+03	1.699348E-14	4.235922E-16
3.800000E+03	1.711373E-14	4.057710E-16
3.810000E+03	1.729350E-14	3.952905E-16
3.820000E+03	1.755667E-14	3.943948E-16
3.830000E+03	1.792586E-14	4.034879E-16
3.840000E+03	1.842302E-14	4.222770E-16
3.850000E+03	1.907074E-14	4.504868E-16
3.860000E+03	1.988301E-14	4.872535E-16
3.870000E+03	2.086683E-14	5.315278E-16
3.880000E+03	2.201431E-14	5.819892E-16
3.890000E+03	2.329360E-14	6.363227E-16
3.900000E+03	2.465167E-14	6.916436E-16
3.910000E+03	2.602986E-14	7.449006E-16
3.920000E+03	2.738275E-14	7.929237E-16
3.930000E+03	2.867719E-14	8.331035E-16
3.940000E+03	2.990764E-14	8.642810E-16
3.950000E+03	3.110276E-14	8.866989E-16
3.960000E+03	3.231983E-14	9.023415E-16
3.970000E+03	3.362615E-14	9.139831E-16
3.980000E+03	3.509449E-14	9.240022E-16
3.990000E+03	3.678722E-14	9.348276E-16
4.000000E+03	3.872938E-14	9.488023E-16
4.010000E+03	4.089263E-14	9.673286E-16
4.020000E+03	4.318653E-14	9.910644E-16
4.030000E+03	4.547289E-14	1.018998E-15
4.040000E+03	4.758077E-14	1.046831E-15
4.050000E+03	4.932475E-14	1.069365E-15
4.060000E+03	5.054386E-14	1.082980E-15
4.070000E+03	5.113684E-14	1.085881E-15
4.080000E+03	5.107363E-14	1.079207E-15
4.090000E+03	5.038920E-14	1.064987E-15
4.100000E+03	4.917094E-14	1.043006E-15
4.110000E+03	4.753431E-14	1.012661E-15
4.120000E+03	4.558799E-14	9.738256E-16
4.130000E+03	4.341686E-14	9.261613E-16
4.140000E+03	4.109742E-14	8.713923E-16
4.150000E+03	3.869949E-14	8.131906E-16
4.160000E+03	3.630552E-14	7.557173E-16
4.170000E+03	3.400442E-14	7.035225E-16
4.180000E+03	3.189393E-14	6.600454E-16
4.190000E+03	3.007762E-14	6.261499E-16
4.200000E+03	2.864840E-14	6.019396E-16
4.210000E+03	2.767812E-14	5.874925E-16
4.220000E+03	2.721528E-14	5.822170E-16
4.230000E+03	2.728780E-14	5.857260E-16
4.240000E+03	2.789642E-14	5.977490E-16
4.250000E+03	2.900183E-14	6.172275E-16
4.260000E+03	3.052792E-14	6.432370E-16
4.270000E+03	3.236852E-14	6.750428E-16
4.280000E+03	3.438779E-14	7.109084E-16
4.290000E+03	3.643172E-14	7.489028E-16
4.300000E+03	3.834827E-14	7.863885E-16
4.310000E+03	4.001510E-14	8.184363E-16
4.320000E+03	4.134883E-14	8.396423E-16
4.330000E+03	4.229199E-14	8.455014E-16
4.340000E+03	4.281073E-14	8.326710E-16
4.350000E+03	4.289522E-14	8.017342E-16
4.360000E+03	4.255494E-14	7.582496E-16
4.370000E+03	4.182604E-14	7.115335E-16
4.380000E+03	4.077281E-14	6.731180E-16
4.390000E+03	3.949075E-14	6.502798E-16
4.400000E+03	3.810752E-14	6.401146E-16
4.410000E+03	3.677656E-14	6.347505E-16
4.420000E+03	3.564535E-14	6.289796E-16
4.430000E+03	3.482200E-14	6.222273E-16
4.440000E+03	3.438035E-14	6.179574E-16
4.450000E+03	3.437730E-14	6.203622E-16
4.460000E+03	3.486249E-14	6.313454E-16
4.470000E+03	3.588690E-14	6.519598E-16
4.480000E+03	3.750420E-14	6.826711E-16
4.490000E+03	3.976213E-14	7.217829E-16
4.500000E+03	4.269540E-14	7.674566E-16
4.510000E+03	4.630163E-14	8.186498E-16
4.520000E+03	5.051557E-14	8.739140E-16
4.530000E+03	5.518760E-14	9.328850E-16
4.540000E+03	6.008730E-14	9.953757E-16
4.550000E+03	6.491426E-14	1.058088E-15
4.560000E+03	6.933059E-14	1.117975E-15
4.570000E+03	7.301787E-14	1.173279E-15
4.580000E+03	7.573725E-14	1.221004E-15
4.590000E+03	7.736393E-14	1.261935E-15
4.600000E+03	7.788632E-14	1.299330E-15
4.610000E+03	7.739263E-14	1.331052E-15
4.620000E+03	7.602827E-14	1.352946E-15
4.630000E+03	7.395338E-14	1.362649E-15
4.640000E+03	7.131361E-14	1.358397E-15
4.650000E+03	6.825269E-14	1.342061E-15
4.660000E+03	6.493097E-14	1.318375E-15
4.670000E+03	6.153951E-14	1.291256E-15
4.680000E+03	5.828182E-14	1.264389E-15
4.690000E+03	5.536503E-14	1.240464E-15
4.700000E+03	5.298575E-14	1.219324E-15
4.710000E+03	5.130226E-14	1.199929E-15
4.720000E+03	5.040582E-14	1.181255E-15
4.730000E+03	5.031021E-14	1.161605E-15
4.740000E+03	5.096489E-14	1.139840E-15
4.750000E+03	5.225297E-14	1.116378E-15
4.760000E+03	5.398086E-14	1.093880E-15
4.770000E+03	5.589988E-14	1.078497E-15
4.780000E+03	5.775772E-14	1.076083E-15
4.790000E+03	5.934815E-14	1.086552E-15
4.800000E+03	6.053831E-14	1.106782E-15
4.810000E+03	6.127431E-14	1.132267E-15
4.820000E+03	6.158746E-14	1.155714E-15
4.830000E+03	6.156237E-14	1.171763E-15
4.840000E+03	6.128437E-14	1.178620E-15
4.850000E+03	6.081427E-14	1.175501E-15
4.860000E+03	6.019670E-14	1.164089E-15
4.870000E+03	5.949875E-14	1.147855E-15
4.880000E+03	5.881995E-14	1.128902E-15
4.890000E+03	5.829779E-14	1.109994E-15
4.900000E+03	5.810036E-14	1.094478E-15
4.910000E+03	5.841992E-14	1.084394E-15
4.920000E+03	5.943798E-14	1.082677E-15
4.930000E+03	6.127136E-14	1.092955E-15
4.940000E+03	6.391498E-14	1.117104E-15
4.950000E+03	6.723645E-14	1.157678E-15
4.960000E+03	7.095575E-14	1.215304E-15
4.970000E+03	7.463134E-14	1.282922E-15
4.980000E+03	7.772044E-14	1.350670E-15
4.990000E+03	7.972611E-14	1.409645E-15
5.000000E+03	8.034544E-14	1.450411E-15
5.010000E+03	7.952628E-14	1.468532E-15
5.020000E+03	7.746139E-14	1.465465E-15
5.030000E+03	7.452505E-14	1.443641E-15
5.040000E+03	7.117481E-14	1.408598E-15
5.050000E+03	6.784430E-14	1.367199E-15
5.060000E+03	6.488844E-14	1.323379E-15
5.070000E+03	6.256296E-14	1.280680E-15
5.080000E+03	6.101533E-14	1.242177E-15
5.090000E+03	6.028208E-14	1.208006E-15
5.100000E+03	6.032263E-14	1.178189E-15
5.110000E+03	6.103174E-14	1.152775E-15
5.120000E+03	6.222989E-14	1.129798E-15
5.130000E+03	6.368878E-14	1.108803E-15
5.140000E+03	6.517786E-14	1.090764E-15
5.150000E+03	6.650160E-14	1.074776E-15
5.160000E+03	6.752422E-14	1.061821E-15
5.170000E+03	6.818759E-14	1.053568E-15
5.180000E+03	6.852199E-14	1.048149E-15
5.190000E+03	6.862933E-14	1.046349E-15
5.200000E+03	6.864544E-14	1.050685E-15
5.210000E+03	6.871865E-14	1.058855E-15
5.220000E+03	6.899022E-14	1.069375E-15
5.230000E+03	6.957048E-14	1.083189E-15
5.240000E+03	7.052992E-14	1.099153E-15
5.250000E+03	7.189633E-14	1.118054E-15
5.260000E+03	7.365074E-14	1.141736E-15
5.270000E+03	7.571468E-14	1.167457E-15
5.280000E+03	7.796646E-14	1.193339E-15
5.290000E+03	8.026766E-14	1.219152E-15
5.300000E+03	8.248739E-14	1.241308E-15
5.310000E+03	8.452183E-14	1.259095E-15
5.320000E+03	8.631054E-14	1.274733E-15
5.330000E+03	8.784796E-14	1.287263E-15
5.340000E+03	8.916094E-14	1.299074E-15
5.350000E+03	9.027364E-14	1.313916E-15
5.360000E+03	9.117770E-14	1.328043E-15
5.370000E+03	9.182671E-14	1.338741E-15
5.380000E+03	9.215421E-14	1.346153E-15
5.390000E+03	9.208499E-14	1.345797E-15
5.400000E+03	9.157269E-14	1.336366E-15
5.410000E+03	9.064909E-14	1.320642E-15
5.420000E+03	8.944147E-14	1.298327E-15
5.430000E+03	8.815358E-14	1.272696E-15
5.440000E+03	8.702557E-14	1.248696E-15
5.450000E+03	8.630567E-14	1.225172E-15
5.460000E+03	8.620884E-14	1.203575E-15
5.470000E+03	8.688123E-14	1.190054E-15
5.480000E+03	8.836159E-14	1.188904E-15
5.490000E+03	9.055123E-14	1.206539E-15
5.500000E+03	9.318881E-14	1.245508E-15
5.510000E+03	9.586916E-14	1.294140E-15
5.520000E+03	9.809381E-14	1.338412E-15
5.530000E+03	9.941562E-14	1.369700E-15
5.540000E+03	9.958906E-14	1.381583E-15
5.550000E+03	9.860609E-14	1.378279E-15
5.560000E+03	9.666798E-14	1.369363E-15
5.570000E+03	9.412760E-14	1.355525E-15
5.580000E+03	9.136819E-14	1.337152E-15
5.590000E+03	8.867321E-14	1.317309E-15
5.600000E+03	8.616675E-14	1.295185E-15
5.610000E+03	8.381041E-14	1.272480E-15
5.620000E+03	8.142690E-14	1.252617E-15
5.630000E+03	7.873080E-14	1.233875E-15
5.640000E+03	7.542697E-14	1.215754E-15
5.650000E+03	7.132403E-14	1.197434E-15
5.660000E+03	6.642110E-14	1.171202E-15
5.670000E+03	6.090441E-14	1.130430E-15
5.680000E+03	5.511926E-14	1.074806E-15
5.690000E+03	4.949987E-14	1.008038E-15
5.700000E+03	4.444616E-14	9.376152E-16
5.710000E+03	4.025217E-14	8.721437E-16
5.720000E+03	3.710767E-14	8.182430E-16
5.730000E+03	3.511774E-14	7.809750E-16
5.740000E+03	3.433396E-14	7.637554E-16
5.750000E+03	3.478701E-14	7.678978E-16
5.760000E+03	3.652609E-14	7.945814E-16
5.770000E+03	3.962384E-14	8.453633E-16
5.780000E+03	4.414565E-14	9.211592E-16
5.790000E+03	5.011411E-14	1.023243E-15
5.800000E+03	5.747190E-14	1.152483E-15
5.810000E+03	6.603075E-14	1.305981E-15
5.820000E+03	7.542890E-14	1.478445E-15
5.830000E+03	8.513344E-14	1.662964E-15
5.840000E+03	9.450609E-14	1.848552E-15
5.850000E+03	1.028934E-13	2.024053E-15
5.860000E+03	1.097414E-13	2.178471E-15
5.870000E+03	1.147186E-13	2.296440E-15
5.880000E+03	1.177410E-13	2.365048E-15
5.890000E+03	1.189357E-13	2.378958E-15
5.900000E+03	1.185849E-13	2.338343E-15
5.910000E+03	1.170426E-13	2.252156E-15
5.920000E+03	1.146581E-13	2.136145E-15
5.930000E+03	1.117304E-13	2.006497E-15
5.940000E+03	1.084938E-13	1.880444E-15
5.950000E+03	1.051197E-13	1.769901E-15
5.960000E+03	1.017376E-13	1.675417E-15
5.970000E+03	9.843021E-14	1.595687E-15
5.980000E+03	9.525595E-14	1.529776E-15
5.990000E+03	9.225328E-14	1.472794E-15
6.000000E+03	8.945076E-14	1.423274E-15
6.010000E+03	8.686885E-14	1.382323E-15
6.020000E+03	8.453005E-14	1.347492E-15
6.030000E+03	8.245670E-14	1.318465E-15
6.040000E+03	8.067029E-14	1.296596E-15
6.050000E+03	7.919375E-14	1.279230E-15
6.060000E+03	7.803723E-14	1.264860E-15
6.070000E+03	7.718736E-14	1.254114E-15
6.080000E+03	7.660405E-14	1.245615E-15
6.090000E+03	7.622148E-14	1.239904E-15
6.100000E+03	7.595837E-14	1.238502E-15
6.110000E+03	7.573329E-14	1.239104E-15
6.120000E+03	7.548048E-14	1.240244E-15
6.130000E+03	7.517363E-14	1.241709E-15
6.140000E+03	7.484080E-14	1.240383E-15
6.150000E+03	7.454829E-14	1.235004E-15
6.160000E+03	7.437942E-14	1.227945E-15
6.170000E+03	7.441251E-14	1.221981E-15
6.180000E+03	7.469728E-14	1.222089E-15
6.190000E+03	7.522765E-14	1.231671E-15
6.200000E+03	7.592705E-14	1.246628E-15
6.210000E+03	7.665845E-14	1.261206E-15
6.220000E+03	7.725150E-14	1.272010E-15
6.230000E+03	7.752662E-14	1.276316E-15
6.240000E+03	7.731862E-14	1.275097E-15
6.250000E+03	7.650504E-14	1.270276E-15
6.260000E+03	7.502870E-14	1.258733E-15
6.270000E+03	7.290457E-14	1.237046E-15
6.280000E+03	7.023028E-14	1.204208E-15
6.290000E+03	6.717857E-14	1.159601E-15
6.300000E+03	6.397870E-14	1.106772E-15
6.310000E+03	6.089249E-14	1.052940E-15
6.320000E+03	5.820544E-14	1.005311E-15
6.330000E+03	5.618697E-14	9.720806E-16
6.340000E+03	5.507055E-14	9.598563E-16
6.350000E+03	5.505310E-14	9.700823E-16
6.360000E+03	5.630876E-14	1.003247E-15
6.370000E+03	5.896665E-14	1.059601E-15
6.380000E+03	6.307616E-14	1.135842E-15
6.390000E+03	6.859614E-14	1.227860E-15
6.400000E+03	7.536231E-14	1.332148E-15
6.410000E+03	8.303494E-14	1.444032E-15
6.420000E+03	9.107643E-14	1.561193E-15
6.430000E+03	9.880975E-14	1.681554E-15
6.440000E+03	1.055356E-13	1.796157E-15
6.450000E+03	1.106415E-13	1.896179E-15
6.460000E+03	1.137070E-13	1.975331E-15
6.470000E+03	1.146098E-13	2.023563E-15
6.480000E+03	1.135182E-13	2.034708E-15
6.490000E+03	1.108531E-13	2.010251E-15
6.500000E+03	1.072114E-13	1.954166E-15
6.510000E+03	1.032439E-13	1.877107E-15
6.520000E+03	9.954205E-14	1.795132E-15
6.530000E+03	9.658500E-14	1.722330E-15
6.540000E+03	9.468778E-14	1.669904E-15
6.550000E+03	9.399060E-14	1.643841E-15
6.560000E+03	9.447926E-14	1.642997E-15
6.570000E+03	9.602058E-14	1.665437E-15
6.580000E+03	9.838178E-14	1.708047E-15
6.590000E+03	1.012468E-13	1.762198E-15
6.600000E+03	1.042355E-13	1.819855E-15
6.610000E+03	1.069613E-13	1.875341E-15
6.620000E+03	1.090974E-13	1.921055E-15
6.630000E+03	1.104049E-13	1.952685E-15
6.640000E+03	1.107535E-13	1.969586E-15
6.650000E+03	1.101362E-13	1.969236E-15
6.660000E+03	1.086411E-13	1.951845E-15
6.670000E+03	1.064164E-13	1.920427E-15
6.680000E+03	1.036446E-13	1.875718E-15
6.690000E+03	1.005124E-13	1.820687E-15
6.700000E+03	9.718572E-14	1.760380E-15
6.710000E+03	9.380086E-14	1.697475E-15
6.720000E+03	9.046129E-14	1.635935E-15
6.730000E+03	8.724186E-14	1.579687E-15
6.740000E+03	8.418875E-14	1.528267E-15
6.750000E+03	8.132064E-14	1.481319E-15
6.760000E+03	7.863243E-14	1.438836E-15
6.770000E+03	7.609901E-14	1.397918E-15
6.780000E+03	7.367367E-14	1.357137E-15
6.790000E+03	7.129761E-14	1.317857E-15
6.800000E+03	6.890622E-14	1.281683E-15
6.810000E+03	6.645166E-14	1.252555E-15
6.820000E+03	6.392080E-14	1.233565E-15
6.830000E+03	6.134427E-14	1.221613E-15
6.840000E+03	5.879379E-14	1.211235E-15
6.850000E+03	5.637088E-14	1.197880E-15
6.860000E+03	5.419606E-14	1.177795E-15
6.870000E+03	5.239071E-14	1.150345E-15
6.880000E+03	5.106259E-14	1.117851E-15
6.890000E+03	5.030356E-14	1.083638E-15
6.900000E+03	5.018375E-14	1.052867E-15
6.910000E+03	5.074281E-14	1.032064E-15
6.920000E+03	5.198096E-14	1.027339E-15
6.930000E+03	5.386178E-14	1.044632E-15
6.940000E+03	5.631174E-14	1.086586E-15
6.950000E+03	5.920685E-14	1.148564E-15
6.960000E+03	6.238147E-14	1.222511E-15
6.970000E+03	6.564984E-14	1.300275E-15
6.980000E+03	6.882704E-14	1.372991E-15
6.990000E+03	7.174376E-14	1.433862E-15
7.000000E+03	7.427101E-14	1.479628E-15
7.010000E+03	7.632732E-14	1.508829E-15
7.020000E+03	7.788150E-14	1.523345E-15
7.030000E+03	7.893866E-14	1.526772E-15
7.040000E+03	7.953633E-14	1.521121E-15
7.050000E+03	7.973022E-14	1.509166E-15
7.060000E+03	7.958151E-14	1.493794E-15
7.070000E+03	7.916699E-14	1.475379E-15
7.080000E+03	7.855930E-14	1.455131E-15
7.090000E+03	7.782521E-14	1.435094E-15
7.100000E+03	7.703312E-14	1.415140E-15
7.110000E+03	7.624613E-14	1.396237E-15
7.120000E+03	7.551822E-14	1.380173E-15
7.130000E+03	7.489984E-14	1.366542E-15
7.140000E+03	7.443465E-14	1.356779E-15
7.150000E+03	7.416195E-14	1.355279E-15
7.160000E+03	7.410545E-14	1.367070E-15
7.170000E+03	7.427974E-14	1.401020E-15
7.180000E+03	7.468301E-14	1.465413E-15
7.190000E+03	7.528870E-14	1.557791E-15
7.200000E+03	7.605516E-14	1.666941E-15
7.210000E+03	7.692779E-14	1.779228E-15
7.220000E+03	7.784310E-14	1.882050E-15
7.230000E+03	7.873203E-14	1.968189E-15
7.240000E+03	7.952760E-14	2.035367E-15
7.250000E+03	8.016040E-14	2.082677E-15
7.260000E+03	8.056992E-14	2.112311E-15
7.270000E+03	8.070763E-14	2.128080E-15
7.280000E+03	8.054888E-14	2.131932E-15
7.290000E+03	8.008432E-14	2.126324E-15
7.300000E+03	7.932903E-14	2.114159E-15
7.310000E+03	7.832135E-14	2.095829E-15
7.320000E+03	7.711362E-14	2.072392E-15
7.330000E+03	7.576722E-14	2.045760E-15
7.340000E+03	7.434096E-14	2.015909E-15
7.350000E+03	7.289640E-14	1.984194E-15
7.360000E+03	7.148222E-14	1.952650E-15
7.370000E+03	7.013539E-14	1.921190E-15
7.380000E+03	6.888385E-14	1.890680E-15
7.390000E+03	6.774298E-14	1.862554E-15
7.400000E+03	6.671845E-14	1.836051E-15
7.410000E+03	6.580636E-14	1.811127E-15
7.420000E+03	6.499430E-14	1.788338E-15
7.430000E+03	6.426688E-14	1.766265E-15
7.440000E+03	6.360106E-14	1.744269E-15
7.450000E+03	6.297441E-14	1.722757E-15
7.460000E+03	6.236325E-14	1.700548E-15
7.470000E+03	6.174546E-14	1.677610E-15
7.480000E+03	6.110071E-14	1.654782E-15
7.490000E+03	6.041524E-14	1.631144E-15
7.500000E+03	5.968069E-14	1.606791E-15
7.510000E+03	5.889126E-14	1.582638E-15
7.520000E+03	5.804668E-14	1.557874E-15
7.530000E+03	5.715060E-14	1.532903E-15
7.540000E+03	5.620677E-14	1.509423E-15
7.550000E+03	5.522172E-14	1.487887E-15
7.560000E+03	5.420166E-14	1.469483E-15
7.570000E+03	5.316008E-14	1.455159E-15
7.580000E+03	5.211459E-14	1.442375E-15
7.590000E+03	5.108842E-14	1.428406E-15
7.600000E+03	5.011135E-14	1.411744E-15
7.610000E+03	4.922194E-14	1.390621E-15
7.620000E+03	4.846252E-14	1.364847E-15
7.630000E+03	4.787473E-14	1.335989E-15
7.640000E+03	4.750177E-14	1.305930E-15
7.650000E+03	4.738180E-14	1.278014E-15
7.660000E+03	4.754410E-14	1.256284E-15
7.670000E+03	4.800584E-14	1.243520E-15
7.680000E+03	4.877092E-14	1.243094E-15
7.690000E+03	4.982361E-14	1.257392E-15
7.700000E+03	5.111827E-14	1.284159E-15
7.710000E+03	5.258491E-14	1.319972E-15
7.720000E+03	5.414198E-14	1.361432E-15
7.730000E+03	5.569991E-14	1.402500E-15
7.740000E+03	5.716603E-14	1.437649E-15
7.750000E+03	5.845653E-14	1.462998E-15
7.760000E+03	5.950920E-14	1.474188E-15
