#wls	flux	fluxerr
1.600000E+03	2.125791E-15	3.047834E-15
1.640000E+03	2.121198E-15	3.023795E-15
1.680000E+03	2.116941E-15	2.998946E-15
1.720000E+03	2.113386E-15	2.973718E-15
1.760000E+03	2.109792E-15	2.946968E-15
1.800000E+03	2.106901E-15	2.919642E-15
1.840000E+03	2.104718E-15	2.891629E-15
1.880000E+03	2.102887E-15	2.862325E-15
1.920000E+03	2.101787E-15	2.832129E-15
1.960000E+03	2.101440E-15	2.800936E-15
2.000000E+03	2.102227E-15	2.769108E-15
2.040000E+03	2.103828E-15	2.736062E-15
2.080000E+03	2.106641E-15	2.702151E-15
2.120000E+03	2.110721E-15	2.667259E-15
2.160000E+03	2.116140E-15	2.631273E-15
2.200000E+03	2.123327E-15	2.594505E-15
2.240000E+03	2.132386E-15	2.556825E-15
2.280000E+03	2.143445E-15	2.518109E-15
2.320000E+03	2.156998E-15	2.478626E-15
2.360000E+03	2.173232E-15	2.438232E-15
2.400000E+03	2.192376E-15	2.396790E-15
2.440000E+03	2.215368E-15	2.354865E-15
2.480000E+03	2.242211E-15	2.311920E-15
2.520000E+03	2.273311E-15	2.267790E-15
2.560000E+03	2.310138E-15	2.223247E-15
2.600000E+03	2.352630E-15	2.177402E-15
2.640000E+03	2.402488E-15	2.130895E-15
2.680000E+03	2.460266E-15	2.083088E-15
2.720000E+03	2.527696E-15	2.034149E-15
2.760000E+03	2.605774E-15	1.983345E-15
2.800000E+03	2.697469E-15	1.931125E-15
2.840000E+03	2.804169E-15	1.876294E-15
2.880000E+03	2.929468E-15	1.818717E-15
2.920000E+03	3.076660E-15	1.757364E-15
2.960000E+03	3.250682E-15	1.691402E-15
3.000000E+03	3.457808E-15	1.619663E-15
3.010000E+03	3.515247E-15	1.600460E-15
3.020000E+03	3.575617E-15	1.580879E-15
3.030000E+03	3.639075E-15	1.560876E-15
3.040000E+03	3.705396E-15	1.540246E-15
3.050000E+03	3.774749E-15	1.518954E-15
3.060000E+03	3.847710E-15	1.497115E-15
3.070000E+03	3.924086E-15	1.474527E-15
3.080000E+03	4.004087E-15	1.451150E-15
3.090000E+03	4.088352E-15	1.427081E-15
3.100000E+03	4.177142E-15	1.402262E-15
3.110000E+03	4.270319E-15	1.376496E-15
3.120000E+03	4.368600E-15	1.349862E-15
3.130000E+03	4.471884E-15	1.322165E-15
3.140000E+03	4.580951E-15	1.293472E-15
3.150000E+03	4.696191E-15	1.263711E-15
3.160000E+03	4.817572E-15	1.232689E-15
3.170000E+03	4.946453E-15	1.200568E-15
3.180000E+03	5.082413E-15	1.167042E-15
3.190000E+03	5.225960E-15	1.132049E-15
3.200000E+03	5.378629E-15	1.095727E-15
3.210000E+03	5.540075E-15	1.057807E-15
3.220000E+03	5.711965E-15	1.018429E-15
3.230000E+03	5.894018E-15	9.773703E-16
3.240000E+03	6.088053E-15	9.347972E-16
3.250000E+03	6.293856E-15	8.905704E-16
3.260000E+03	6.513410E-15	8.449361E-16
3.270000E+03	6.746567E-15	7.979140E-16
3.280000E+03	6.995485E-15	7.499327E-16
3.290000E+03	7.260676E-15	7.013739E-16
3.300000E+03	7.543267E-15	6.529247E-16
3.310000E+03	7.844424E-15	6.055894E-16
3.320000E+03	8.166005E-15	5.608320E-16
3.328830E+03	8.714310E-15	8.724053E-16
3.333340E+03	8.827981E-15	8.807808E-16
3.337850E+03	8.901844E-15	8.854821E-16
3.342380E+03	9.018852E-15	8.940550E-16
3.346900E+03	8.970306E-15	8.775854E-16
3.351440E+03	8.912203E-15	8.748006E-16
3.355980E+03	8.798336E-15	8.424860E-16
3.360520E+03	8.689951E-15	8.377373E-16
3.365080E+03	8.531493E-15	8.154482E-16
3.369640E+03	8.438471E-15	8.138619E-16
3.374200E+03	8.361069E-15	8.652912E-16
3.378770E+03	8.271594E-15	8.611794E-16
3.383350E+03	8.257190E-15	8.616832E-16
3.387930E+03	8.426483E-15	8.827470E-16
3.392520E+03	8.590306E-15	8.946963E-16
3.397120E+03	8.745404E-15	8.973036E-16
3.401720E+03	8.989708E-15	8.968711E-16
3.406330E+03	9.266455E-15	9.379563E-16
3.410940E+03	9.560926E-15	9.639039E-16
3.415560E+03	9.807098E-15	1.015621E-15
3.420190E+03	1.011541E-14	1.037963E-15
3.424820E+03	1.062129E-14	1.073859E-15
3.429460E+03	1.099408E-14	1.072745E-15
3.434110E+03	1.145919E-14	1.071180E-15
3.438760E+03	1.208680E-14	1.128444E-15
3.443420E+03	1.286477E-14	1.162170E-15
3.448090E+03	1.349661E-14	1.214623E-15
3.452760E+03	1.417646E-14	1.269559E-15
3.457430E+03	1.451693E-14	1.324385E-15
3.462120E+03	1.482801E-14	1.342672E-15
3.466810E+03	1.507436E-14	1.449131E-15
3.471500E+03	1.538875E-14	1.496430E-15
3.476210E+03	1.573707E-14	1.538473E-15
3.480920E+03	1.603522E-14	1.557996E-15
3.485630E+03	1.626090E-14	1.625815E-15
3.490350E+03	1.648686E-14	1.642817E-15
3.495080E+03	1.662031E-14	1.588703E-15
3.499820E+03	1.661967E-14	1.540171E-15
3.504560E+03	1.638625E-14	1.534804E-15
3.509310E+03	1.587454E-14	1.491047E-15
3.514060E+03	1.516606E-14	1.361157E-15
3.518820E+03	1.442419E-14	1.297075E-15
3.523590E+03	1.374741E-14	1.238417E-15
3.528360E+03	1.312767E-14	1.196865E-15
3.533140E+03	1.251921E-14	1.166621E-15
3.537930E+03	1.211031E-14	1.187535E-15
3.542720E+03	1.165847E-14	1.142611E-15
3.547520E+03	1.139363E-14	1.135510E-15
3.552330E+03	1.107224E-14	1.102530E-15
3.557140E+03	1.083085E-14	1.054986E-15
3.561960E+03	1.081231E-14	1.032383E-15
3.566780E+03	1.093446E-14	9.605061E-16
3.571620E+03	1.111142E-14	9.657954E-16
3.576450E+03	1.144211E-14	9.600939E-16
3.581300E+03	1.192762E-14	1.004180E-15
3.586150E+03	1.265041E-14	1.055689E-15
3.591010E+03	1.353343E-14	1.125768E-15
3.595870E+03	1.424622E-14	1.185823E-15
3.600750E+03	1.503650E-14	1.241153E-15
3.605620E+03	1.588732E-14	1.307498E-15
3.610510E+03	1.665874E-14	1.358381E-15
3.615400E+03	1.720563E-14	1.386621E-15
3.620300E+03	1.742954E-14	1.402547E-15
3.625200E+03	1.727230E-14	1.440789E-15
3.630110E+03	1.681524E-14	1.391663E-15
3.635030E+03	1.605431E-14	1.339961E-15
3.639960E+03	1.519929E-14	1.346961E-15
3.644890E+03	1.438104E-14	1.349030E-15
3.649820E+03	1.384117E-14	1.314917E-15
3.654770E+03	1.363266E-14	1.193838E-15
3.659720E+03	1.377310E-14	1.213423E-15
3.664680E+03	1.413577E-14	1.329398E-15
3.669640E+03	1.467954E-14	1.304635E-15
3.674610E+03	1.539369E-14	1.266468E-15
3.679590E+03	1.618286E-14	1.319066E-15
3.684580E+03	1.680323E-14	1.361372E-15
3.689570E+03	1.725219E-14	1.368962E-15
3.694570E+03	1.755851E-14	1.328854E-15
3.699570E+03	1.778199E-14	1.345939E-15
3.704580E+03	1.814373E-14	1.364216E-15
3.709600E+03	1.863606E-14	1.376907E-15
3.714630E+03	1.936763E-14	1.469205E-15
3.719660E+03	2.039424E-14	1.548131E-15
3.724700E+03	2.146485E-14	1.592169E-15
3.729740E+03	2.257656E-14	1.710999E-15
3.734800E+03	2.338597E-14	1.786303E-15
3.739860E+03	2.389093E-14	1.856041E-15
3.744920E+03	2.398841E-14	1.798222E-15
3.750000E+03	2.350735E-14	1.768646E-15
3.755080E+03	2.242800E-14	1.713454E-15
3.760160E+03	2.089572E-14	1.592551E-15
3.765260E+03	1.905110E-14	1.464713E-15
3.770360E+03	1.705466E-14	1.252473E-15
3.775470E+03	1.523686E-14	1.129086E-15
3.780580E+03	1.366718E-14	1.011813E-15
3.785700E+03	1.243750E-14	9.159162E-16
3.790830E+03	1.143214E-14	8.336948E-16
3.795970E+03	1.059948E-14	7.613998E-16
3.801110E+03	9.825072E-15	7.099953E-16
3.806260E+03	9.146480E-15	6.309457E-16
3.811420E+03	8.673289E-15	6.106371E-16
3.816580E+03	8.376800E-15	6.179046E-16
3.821750E+03	8.272089E-15	6.124842E-16
3.826930E+03	8.171810E-15	6.048340E-16
3.832110E+03	8.107109E-15	6.189961E-16
3.837300E+03	8.034784E-15	6.526345E-16
3.842500E+03	7.955803E-15	6.330020E-16
3.847710E+03	7.922750E-15	6.288726E-16
3.852920E+03	7.924345E-15	6.789615E-16
3.858140E+03	7.909369E-15	6.700243E-16
3.863370E+03	7.896909E-15	6.797315E-16
3.868600E+03	7.973491E-15	8.027600E-16
3.873840E+03	8.145197E-15	8.280357E-16
3.879090E+03	8.528445E-15	8.199332E-16
3.884340E+03	9.268765E-15	8.802592E-16
3.889610E+03	1.089551E-14	1.042109E-15
3.894870E+03	1.320799E-14	1.143968E-15
3.900150E+03	1.586065E-14	1.089159E-15
3.905430E+03	1.895253E-14	1.302491E-15
3.910730E+03	2.240106E-14	1.692821E-15
3.916020E+03	2.594547E-14	1.849428E-15
3.921330E+03	2.931709E-14	2.208130E-15
3.926640E+03	3.228355E-14	2.325530E-15
3.931960E+03	3.421615E-14	2.434928E-15
3.937290E+03	3.505007E-14	2.454799E-15
3.942620E+03	3.493132E-14	2.349722E-15
3.947960E+03	3.379122E-14	2.266805E-15
3.953310E+03	3.190671E-14	1.885101E-15
3.958670E+03	2.971310E-14	1.861558E-15
3.964030E+03	2.751893E-14	1.693012E-15
3.969400E+03	2.573641E-14	1.573847E-15
3.974780E+03	2.460796E-14	1.533114E-15
3.980160E+03	2.413184E-14	1.435065E-15
3.985550E+03	2.490430E-14	1.528385E-15
3.990950E+03	2.649380E-14	1.564745E-15
3.996360E+03	2.843734E-14	1.725340E-15
4.001770E+03	3.074673E-14	1.812564E-15
4.007190E+03	3.295874E-14	1.836924E-15
4.012620E+03	3.478787E-14	1.910013E-15
4.018060E+03	3.623010E-14	1.973383E-15
4.023500E+03	3.746129E-14	2.006299E-15
4.028950E+03	3.817434E-14	1.956614E-15
4.034410E+03	3.859992E-14	1.976579E-15
4.039880E+03	3.901372E-14	1.977353E-15
4.045350E+03	3.932184E-14	1.986925E-15
4.050830E+03	3.935212E-14	1.969080E-15
4.056320E+03	3.920621E-14	1.947187E-15
4.061810E+03	3.875496E-14	1.910746E-15
4.067320E+03	3.833875E-14	1.864195E-15
4.072830E+03	3.823547E-14	1.887658E-15
4.078340E+03	3.812422E-14	1.859769E-15
4.083870E+03	3.795219E-14	1.916611E-15
4.089400E+03	3.754909E-14	1.990831E-15
4.094940E+03	3.698142E-14	2.040783E-15
4.100490E+03	3.639988E-14	1.974504E-15
4.106040E+03	3.590821E-14	2.104471E-15
4.111610E+03	3.559255E-14	2.180110E-15
4.117180E+03	3.557822E-14	2.121334E-15
4.122750E+03	3.591222E-14	2.011497E-15
4.128340E+03	3.655739E-14	1.882919E-15
4.133930E+03	3.762338E-14	2.012463E-15
4.139530E+03	3.881264E-14	1.892517E-15
4.145140E+03	3.972380E-14	1.756146E-15
4.150750E+03	3.998486E-14	1.698106E-15
4.156380E+03	3.963101E-14	1.672836E-15
4.162010E+03	3.866420E-14	1.753969E-15
4.167650E+03	3.732131E-14	1.878637E-15
4.173290E+03	3.592345E-14	1.801685E-15
4.178950E+03	3.414954E-14	1.993548E-15
4.184610E+03	3.200743E-14	2.235183E-15
4.190280E+03	2.965181E-14	2.228901E-15
4.195950E+03	2.752912E-14	2.148371E-15
4.201640E+03	2.580382E-14	2.235107E-15
4.207330E+03	2.481068E-14	2.601859E-15
4.213030E+03	2.434607E-14	2.384507E-15
4.218740E+03	2.440603E-14	2.239111E-15
4.224450E+03	2.485348E-14	2.467979E-15
4.230180E+03	2.572362E-14	2.512632E-15
4.235910E+03	2.694787E-14	2.194874E-15
4.241640E+03	2.829129E-14	1.702991E-15
4.247390E+03	2.939175E-14	1.749970E-15
4.253150E+03	3.003595E-14	1.656166E-15
4.258910E+03	3.041182E-14	1.251905E-15
4.264680E+03	3.073467E-14	1.113809E-15
4.270450E+03	3.150543E-14	1.152689E-15
4.276240E+03	3.295486E-14	1.134170E-15
4.282030E+03	3.457803E-14	1.181638E-15
4.287830E+03	3.596796E-14	1.276280E-15
4.293640E+03	3.688409E-14	1.318057E-15
4.299460E+03	3.738522E-14	1.307915E-15
4.305280E+03	3.740887E-14	1.371484E-15
4.311120E+03	3.713898E-14	1.466762E-15
4.316960E+03	3.636449E-14	1.449299E-15
4.322800E+03	3.538471E-14	1.376016E-15
4.328660E+03	3.448511E-14	1.301023E-15
4.334520E+03	3.393346E-14	1.212900E-15
4.340400E+03	3.371985E-14	1.196141E-15
4.346280E+03	3.382268E-14	1.158311E-15
4.352160E+03	3.408158E-14	1.236758E-15
4.358060E+03	3.406477E-14	1.372973E-15
4.363960E+03	3.356337E-14	1.424643E-15
4.369880E+03	3.226516E-14	1.347633E-15
4.375800E+03	3.053372E-14	1.282248E-15
4.381720E+03	2.857038E-14	1.232365E-15
4.387660E+03	2.658022E-14	1.338686E-15
4.393600E+03	2.483846E-14	1.137736E-15
4.399560E+03	2.356936E-14	8.771061E-16
4.405520E+03	2.306334E-14	9.755060E-16
4.411480E+03	2.331020E-14	1.038059E-15
4.417460E+03	2.434066E-14	1.081248E-15
4.423450E+03	2.569411E-14	9.304568E-16
4.429440E+03	2.714815E-14	8.887872E-16
4.435440E+03	2.856625E-14	9.339848E-16
4.441450E+03	2.980036E-14	9.674500E-16
4.447460E+03	3.086422E-14	9.792808E-16
4.453490E+03	3.171703E-14	9.370506E-16
4.459520E+03	3.242902E-14	9.689291E-16
4.465560E+03	3.302558E-14	1.006883E-15
4.471610E+03	3.349123E-14	1.012291E-15
4.477670E+03	3.371131E-14	9.827361E-16
4.483740E+03	3.395047E-14	1.009603E-15
4.489810E+03	3.410180E-14	1.031491E-15
4.495890E+03	3.423530E-14	1.021296E-15
4.501980E+03	3.458995E-14	1.005789E-15
4.508080E+03	3.515584E-14	1.032404E-15
4.514190E+03	3.606864E-14	1.070181E-15
4.520310E+03	3.735711E-14	1.116731E-15
4.526430E+03	3.897821E-14	1.160709E-15
4.532560E+03	4.076474E-14	1.217762E-15
4.538700E+03	4.267772E-14	1.280282E-15
4.544850E+03	4.460651E-14	1.342617E-15
4.551010E+03	4.630112E-14	1.400408E-15
4.557170E+03	4.780248E-14	1.432880E-15
4.563350E+03	4.892484E-14	1.474514E-15
4.569530E+03	4.973642E-14	1.508351E-15
4.575720E+03	5.030911E-14	1.559253E-15
4.581920E+03	5.068957E-14	1.617179E-15
4.588130E+03	5.093988E-14	1.626071E-15
4.594340E+03	5.118970E-14	1.635722E-15
4.600570E+03	5.119751E-14	1.723075E-15
4.606800E+03	5.079188E-14	1.786147E-15
4.613040E+03	4.997136E-14	1.775996E-15
4.619290E+03	4.879244E-14	1.690295E-15
4.625550E+03	4.747349E-14	1.735594E-15
4.631810E+03	4.609953E-14	1.804474E-15
4.638090E+03	4.458585E-14	1.721326E-15
4.644370E+03	4.304056E-14	1.632377E-15
4.650660E+03	4.194678E-14	1.585630E-15
4.656960E+03	4.160976E-14	1.592108E-15
4.663270E+03	4.181887E-14	1.725574E-15
4.669590E+03	4.231965E-14	1.727687E-15
4.675920E+03	4.248545E-14	2.030520E-15
4.682250E+03	4.139709E-14	2.580300E-15
4.688590E+03	3.885876E-14	2.670127E-15
4.694940E+03	3.519297E-14	2.571928E-15
4.701300E+03	3.104373E-14	2.612174E-15
4.707670E+03	2.722811E-14	3.273581E-15
4.714050E+03	2.422253E-14	3.447183E-15
4.720440E+03	2.245648E-14	2.795940E-15
4.726830E+03	2.210787E-14	2.731255E-15
4.733240E+03	2.329679E-14	3.110097E-15
4.739650E+03	2.585072E-14	3.148440E-15
4.746070E+03	2.908549E-14	2.504271E-15
4.752500E+03	3.220773E-14	1.594226E-15
4.758940E+03	3.464521E-14	1.879004E-15
4.765380E+03	3.628274E-14	1.939779E-15
4.771840E+03	3.725499E-14	1.774388E-15
4.778300E+03	3.782025E-14	1.590090E-15
4.784780E+03	3.836559E-14	1.695712E-15
4.791260E+03	3.922971E-14	1.845323E-15
4.797750E+03	3.997852E-14	1.890913E-15
4.804250E+03	4.049060E-14	1.850530E-15
4.810760E+03	4.061824E-14	1.759146E-15
4.817280E+03	4.024635E-14	1.737976E-15
4.823800E+03	3.960161E-14	1.743495E-15
4.830340E+03	3.905786E-14	1.754072E-15
4.836880E+03	3.874383E-14	1.735393E-15
4.843430E+03	3.850192E-14	1.715588E-15
4.849990E+03	3.828281E-14	1.833522E-15
4.856560E+03	3.813751E-14	2.089068E-15
4.863140E+03	3.797330E-14	2.096674E-15
4.869730E+03	3.766180E-14	2.240957E-15
4.876330E+03	3.707876E-14	2.365365E-15
4.882940E+03	3.610401E-14	2.342363E-15
4.889550E+03	3.469691E-14	2.369903E-15
4.896170E+03	3.296000E-14	2.218197E-15
4.902810E+03	3.103321E-14	2.125333E-15
4.909450E+03	2.927064E-14	1.896913E-15
4.916100E+03	2.805915E-14	1.712597E-15
4.922760E+03	2.775640E-14	1.794199E-15
4.929430E+03	2.830800E-14	1.635767E-15
4.936110E+03	2.944393E-14	1.530673E-15
4.942790E+03	3.113113E-14	1.670262E-15
4.949490E+03	3.378235E-14	1.851228E-15
4.956200E+03	3.730945E-14	1.930508E-15
4.962910E+03	4.122237E-14	2.181418E-15
4.969630E+03	4.507159E-14	2.395792E-15
4.976370E+03	4.836778E-14	2.560240E-15
4.983110E+03	5.068287E-14	2.813048E-15
4.989860E+03	5.177457E-14	2.943301E-15
4.996620E+03	5.168653E-14	2.946584E-15
5.003390E+03	5.068392E-14	2.838019E-15
5.010170E+03	4.923590E-14	3.059605E-15
5.016950E+03	4.770430E-14	3.170697E-15
5.023750E+03	4.621929E-14	2.903853E-15
5.030550E+03	4.474378E-14	2.748720E-15
5.037370E+03	4.334073E-14	2.896676E-15
5.044190E+03	4.224001E-14	3.010765E-15
5.051030E+03	4.115555E-14	2.671725E-15
5.057870E+03	3.970606E-14	2.333016E-15
5.064720E+03	3.774804E-14	2.307706E-15
5.071580E+03	3.563392E-14	2.277660E-15
5.078450E+03	3.373715E-14	2.084642E-15
5.085330E+03	3.235440E-14	1.816111E-15
5.092220E+03	3.196212E-14	1.725938E-15
5.099120E+03	3.267223E-14	1.950397E-15
5.106030E+03	3.443610E-14	2.129231E-15
5.112950E+03	3.701756E-14	2.233327E-15
5.119870E+03	3.991835E-14	2.363939E-15
5.126810E+03	4.260124E-14	2.417943E-15
5.133750E+03	4.483923E-14	2.533239E-15
5.140710E+03	4.658192E-14	2.604087E-15
5.147670E+03	4.773164E-14	2.632744E-15
5.154650E+03	4.834281E-14	2.695342E-15
5.161630E+03	4.854306E-14	2.712955E-15
5.168620E+03	4.853442E-14	2.726346E-15
5.175620E+03	4.835393E-14	2.731521E-15
5.182640E+03	4.808408E-14	2.711166E-15
5.189660E+03	4.779450E-14	2.705547E-15
5.196690E+03	4.765826E-14	2.702689E-15
5.203730E+03	4.768590E-14	2.710712E-15
5.210780E+03	4.784611E-14	2.736290E-15
5.217840E+03	4.808402E-14	2.769705E-15
5.224910E+03	4.819789E-14	2.784973E-15
5.231980E+03	4.821712E-14	2.793779E-15
5.239070E+03	4.826148E-14	2.788768E-15
5.246170E+03	4.827843E-14	2.788616E-15
5.253280E+03	4.819024E-14	2.792085E-15
5.260390E+03	4.801892E-14	2.777084E-15
5.267520E+03	4.792537E-14	2.780296E-15
5.274660E+03	4.801774E-14	2.793656E-15
5.281800E+03	4.842907E-14	2.827780E-15
5.288960E+03	4.907732E-14	2.867310E-15
5.296120E+03	4.969197E-14	2.919285E-15
5.303300E+03	5.016863E-14	2.963944E-15
5.310480E+03	5.056531E-14	2.996955E-15
5.317670E+03	5.081570E-14	3.018669E-15
5.324880E+03	5.084838E-14	3.037063E-15
5.332090E+03	5.068196E-14	3.044851E-15
5.339320E+03	5.044579E-14	3.035859E-15
5.346550E+03	5.024038E-14	3.018034E-15
5.353790E+03	5.014604E-14	3.012411E-15
5.361050E+03	5.030889E-14	3.029373E-15
5.368310E+03	5.073907E-14	3.057676E-15
5.375580E+03	5.133418E-14	3.097222E-15
5.382860E+03	5.191565E-14	3.143662E-15
5.390160E+03	5.230191E-14	3.188012E-15
5.397460E+03	5.243135E-14	3.203466E-15
5.404770E+03	5.222822E-14	3.201630E-15
5.412090E+03	5.175198E-14	3.183165E-15
5.419420E+03	5.097853E-14	3.144865E-15
5.426770E+03	4.997065E-14	3.089105E-15
5.434120E+03	4.884771E-14	3.014855E-15
5.441480E+03	4.773022E-14	2.950612E-15
5.448850E+03	4.673482E-14	2.895039E-15
5.456230E+03	4.601656E-14	2.853922E-15
5.463620E+03	4.577577E-14	2.843637E-15
5.471030E+03	4.621378E-14	2.894793E-15
5.478440E+03	4.736761E-14	2.985933E-15
5.485860E+03	4.919129E-14	3.103348E-15
5.493290E+03	5.164785E-14	3.263460E-15
5.500730E+03	5.456698E-14	3.475217E-15
5.508180E+03	5.765971E-14	3.697658E-15
5.515650E+03	6.059596E-14	3.875677E-15
5.523120E+03	6.302603E-14	4.019830E-15
5.530600E+03	6.479376E-14	4.132797E-15
5.538090E+03	6.568767E-14	4.200069E-15
5.545600E+03	6.563322E-14	4.200157E-15
5.553110E+03	6.453718E-14	4.125403E-15
5.560630E+03	6.253480E-14	4.011238E-15
5.568170E+03	5.985141E-14	3.851701E-15
5.575710E+03	5.674483E-14	3.661572E-15
5.583260E+03	5.347693E-14	3.473366E-15
5.590830E+03	5.032253E-14	3.307169E-15
5.598400E+03	4.753829E-14	3.143159E-15
5.605980E+03	4.536936E-14	2.999084E-15
5.613580E+03	4.393351E-14	2.899216E-15
5.621180E+03	4.305234E-14	2.876277E-15
5.628800E+03	4.255132E-14	2.862486E-15
5.636420E+03	4.235007E-14	2.818848E-15
5.644060E+03	4.222846E-14	2.800955E-15
5.651710E+03	4.202942E-14	2.811088E-15
5.659360E+03	4.148965E-14	2.802455E-15
5.667030E+03	4.047745E-14	2.724130E-15
5.674710E+03	3.887381E-14	2.645789E-15
5.682390E+03	3.668211E-14	2.548795E-15
5.690090E+03	3.382324E-14	2.376413E-15
5.697800E+03	3.042769E-14	2.145973E-15
5.705520E+03	2.673166E-14	1.922627E-15
5.713250E+03	2.299105E-14	1.770022E-15
5.720990E+03	1.946420E-14	1.542282E-15
5.728740E+03	1.637847E-14	1.258461E-15
5.736500E+03	1.396496E-14	1.156434E-15
5.744270E+03	1.237633E-14	1.173103E-15
5.752050E+03	1.179686E-14	1.103525E-15
5.759840E+03	1.224336E-14	1.052481E-15
5.767650E+03	1.367843E-14	1.158736E-15
5.775460E+03	1.598264E-14	1.323097E-15
5.783290E+03	1.897970E-14	1.435260E-15
5.791120E+03	2.251849E-14	1.640507E-15
5.798970E+03	2.651323E-14	1.952245E-15
5.806820E+03	3.084420E-14	2.227297E-15
5.814690E+03	3.540214E-14	2.521911E-15
5.822570E+03	4.015771E-14	2.870049E-15
5.830450E+03	4.479640E-14	3.196756E-15
5.838350E+03	4.897945E-14	3.468561E-15
5.846260E+03	5.234925E-14	3.713861E-15
5.854180E+03	5.472962E-14	3.941553E-15
5.862110E+03	5.620404E-14	4.034227E-15
5.870050E+03	5.699682E-14	4.078609E-15
5.878010E+03	5.714169E-14	4.185059E-15
5.885970E+03	5.679489E-14	4.219074E-15
5.893940E+03	5.610852E-14	4.136900E-15
5.901930E+03	5.525088E-14	4.045395E-15
5.909920E+03	5.448680E-14	3.987569E-15
5.917930E+03	5.397130E-14	3.949838E-15
5.925950E+03	5.366367E-14	3.851754E-15
5.933970E+03	5.334827E-14	3.777551E-15
5.942010E+03	5.284505E-14	3.748993E-15
5.950060E+03	5.187829E-14	3.664576E-15
5.958120E+03	5.035116E-14	3.549377E-15
5.966200E+03	4.844298E-14	3.418515E-15
5.974280E+03	4.635744E-14	3.276175E-15
5.982370E+03	4.421606E-14	3.124138E-15
5.990480E+03	4.204215E-14	2.977647E-15
5.998590E+03	3.990045E-14	2.823248E-15
6.006720E+03	3.793798E-14	2.677416E-15
6.014850E+03	3.633109E-14	2.567320E-15
6.023000E+03	3.501598E-14	2.478066E-15
6.031160E+03	3.403474E-14	2.414322E-15
6.039330E+03	3.333538E-14	2.365711E-15
6.047520E+03	3.276891E-14	2.323631E-15
6.055710E+03	3.232684E-14	2.292841E-15
6.063910E+03	3.201862E-14	2.274321E-15
