#wls	flux	fluxerr
1.600000E+03	2.052891E-15	2.942772E-15
1.640000E+03	2.048867E-15	2.920106E-15
1.680000E+03	2.045179E-15	2.896668E-15
1.720000E+03	2.041827E-15	2.872373E-15
1.760000E+03	2.038816E-15	2.847134E-15
1.800000E+03	2.036504E-15	2.821354E-15
1.840000E+03	2.034546E-15	2.794447E-15
1.880000E+03	2.032960E-15	2.766332E-15
1.920000E+03	2.032458E-15	2.737859E-15
1.960000E+03	2.032372E-15	2.707992E-15
2.000000E+03	2.033421E-15	2.677555E-15
2.040000E+03	2.035300E-15	2.645992E-15
2.080000E+03	2.038398E-15	2.613645E-15
2.120000E+03	2.042773E-15	2.580404E-15
2.160000E+03	2.048498E-15	2.546164E-15
2.200000E+03	2.055994E-15	2.511229E-15
2.240000E+03	2.065040E-15	2.475084E-15
2.280000E+03	2.076421E-15	2.438406E-15
2.320000E+03	2.089970E-15	2.400683E-15
2.360000E+03	2.106202E-15	2.362171E-15
2.400000E+03	2.125346E-15	2.322738E-15
2.440000E+03	2.147998E-15	2.282594E-15
2.480000E+03	2.174492E-15	2.241581E-15
2.520000E+03	2.205547E-15	2.199855E-15
2.560000E+03	2.241647E-15	2.157218E-15
2.600000E+03	2.283383E-15	2.113463E-15
2.640000E+03	2.332416E-15	2.069209E-15
2.680000E+03	2.388987E-15	2.023570E-15
2.720000E+03	2.454800E-15	1.976746E-15
2.760000E+03	2.531495E-15	1.928555E-15
2.800000E+03	2.621041E-15	1.878705E-15
2.840000E+03	2.725502E-15	1.826556E-15
2.880000E+03	2.848148E-15	1.771783E-15
2.920000E+03	2.992338E-15	1.713436E-15
2.960000E+03	3.162762E-15	1.650576E-15
3.000000E+03	3.366239E-15	1.582330E-15
3.010000E+03	3.423140E-15	1.564229E-15
3.020000E+03	3.482654E-15	1.545616E-15
3.030000E+03	3.545311E-15	1.526623E-15
3.040000E+03	3.610527E-15	1.506887E-15
3.050000E+03	3.679242E-15	1.486695E-15
3.060000E+03	3.751663E-15	1.465998E-15
3.070000E+03	3.827228E-15	1.444448E-15
3.080000E+03	3.906951E-15	1.422302E-15
3.090000E+03	3.991098E-15	1.399506E-15
3.100000E+03	4.079138E-15	1.375722E-15
3.110000E+03	4.172599E-15	1.351313E-15
3.120000E+03	4.270573E-15	1.325810E-15
3.130000E+03	4.374681E-15	1.299546E-15
3.140000E+03	4.484041E-15	1.272067E-15
3.150000E+03	4.600382E-15	1.243677E-15
3.160000E+03	4.722856E-15	1.213937E-15
3.170000E+03	4.853319E-15	1.183123E-15
3.180000E+03	4.991434E-15	1.150922E-15
3.190000E+03	5.138280E-15	1.117363E-15
3.200000E+03	5.294055E-15	1.082263E-15
3.210000E+03	5.460474E-15	1.045742E-15
3.220000E+03	5.637367E-15	1.007533E-15
3.230000E+03	5.825593E-15	9.675890E-16
3.240000E+03	6.027158E-15	9.260514E-16
3.250000E+03	6.242064E-15	8.827486E-16
3.260000E+03	6.472551E-15	8.378897E-16
3.270000E+03	6.718759E-15	7.914482E-16
3.280000E+03	6.982597E-15	7.437360E-16
3.290000E+03	7.265532E-15	6.951427E-16
3.300000E+03	7.569140E-15	6.462770E-16
3.310000E+03	7.895765E-15	5.980939E-16
3.320000E+03	8.245911E-15	5.517658E-16
3.330000E+03	8.622848E-15	5.090188E-16
3.340000E+03	9.027359E-15	4.714651E-16
3.350000E+03	9.463340E-15	4.405678E-16
3.360000E+03	9.932522E-15	4.173315E-16
3.370000E+03	1.043647E-14	4.023569E-16
3.380000E+03	1.097592E-14	3.955608E-16
3.390000E+03	1.154832E-14	3.962201E-16
3.400000E+03	1.214960E-14	4.031656E-16
3.410000E+03	1.277302E-14	4.147831E-16
3.420000E+03	1.340739E-14	4.293885E-16
3.430000E+03	1.403516E-14	4.454104E-16
3.440000E+03	1.463836E-14	4.615024E-16
3.450000E+03	1.519020E-14	4.764395E-16
3.460000E+03	1.566531E-14	4.893186E-16
3.470000E+03	1.604189E-14	4.992654E-16
3.480000E+03	1.630307E-14	5.056713E-16
3.490000E+03	1.644181E-14	5.083807E-16
3.500000E+03	1.646341E-14	5.075268E-16
3.510000E+03	1.638436E-14	5.036796E-16
3.520000E+03	1.623407E-14	4.978323E-16
3.530000E+03	1.604837E-14	4.909383E-16
3.540000E+03	1.586510E-14	4.840673E-16
3.550000E+03	1.571738E-14	4.782739E-16
3.560000E+03	1.563007E-14	4.743048E-16
3.570000E+03	1.561590E-14	4.726658E-16
3.580000E+03	1.568073E-14	4.736823E-16
3.590000E+03	1.581957E-14	4.770890E-16
3.600000E+03	1.601883E-14	4.823671E-16
3.610000E+03	1.626412E-14	4.889806E-16
3.620000E+03	1.654173E-14	4.961365E-16
3.630000E+03	1.684095E-14	5.031173E-16
3.640000E+03	1.715210E-14	5.092041E-16
3.650000E+03	1.746914E-14	5.134668E-16
3.660000E+03	1.778644E-14	5.150612E-16
3.670000E+03	1.809103E-14	5.132398E-16
3.680000E+03	1.835833E-14	5.071575E-16
3.690000E+03	1.855616E-14	4.963809E-16
3.700000E+03	1.864973E-14	4.810795E-16
3.710000E+03	1.860518E-14	4.618978E-16
3.719660E+03	1.160841E-14	7.846570E-16
3.724700E+03	1.218127E-14	8.139302E-16
3.729740E+03	1.293181E-14	8.531570E-16
3.734800E+03	1.378903E-14	8.983185E-16
3.739860E+03	1.466637E-14	9.339194E-16
3.744920E+03	1.544672E-14	9.632568E-16
3.750000E+03	1.608965E-14	9.726916E-16
3.755080E+03	1.650636E-14	1.005654E-15
3.760160E+03	1.664716E-14	1.001649E-15
3.765260E+03	1.651624E-14	9.869502E-16
3.770360E+03	1.618336E-14	9.631388E-16
3.775470E+03	1.569978E-14	9.304387E-16
3.780580E+03	1.520736E-14	8.983385E-16
3.785700E+03	1.466336E-14	8.585626E-16
3.790830E+03	1.404663E-14	8.177879E-16
3.795970E+03	1.340015E-14	7.784822E-16
3.801110E+03	1.277073E-14	7.448607E-16
3.806260E+03	1.217137E-14	7.060897E-16
3.811420E+03	1.161202E-14	6.872527E-16
3.816580E+03	1.117649E-14	6.684446E-16
3.821750E+03	1.082945E-14	6.474449E-16
3.826930E+03	1.052457E-14	6.396892E-16
3.832110E+03	1.029320E-14	6.249446E-16
3.837300E+03	1.008418E-14	6.120161E-16
3.842500E+03	9.906429E-15	5.747538E-16
3.847710E+03	9.809677E-15	5.619338E-16
3.852920E+03	9.806969E-15	5.639924E-16
3.858140E+03	9.872850E-15	5.539057E-16
3.863370E+03	1.005352E-14	5.489862E-16
3.868600E+03	1.035669E-14	5.709426E-16
3.873840E+03	1.079900E-14	6.157079E-16
3.879090E+03	1.153491E-14	6.378858E-16
3.884340E+03	1.266409E-14	7.075242E-16
3.889610E+03	1.421200E-14	7.985933E-16
3.894870E+03	1.616913E-14	9.203636E-16
3.900150E+03	1.851472E-14	1.010024E-15
3.905430E+03	2.116976E-14	1.167381E-15
3.910730E+03	2.403989E-14	1.306740E-15
3.916020E+03	2.694149E-14	1.428997E-15
3.921330E+03	2.963338E-14	1.538192E-15
3.926640E+03	3.193504E-14	1.607255E-15
3.931960E+03	3.361371E-14	1.673604E-15
3.937290E+03	3.455663E-14	1.689463E-15
3.942620E+03	3.468168E-14	1.682984E-15
3.947960E+03	3.407799E-14	1.640113E-15
3.953310E+03	3.293195E-14	1.573131E-15
3.958670E+03	3.154513E-14	1.502156E-15
3.964030E+03	3.011694E-14	1.433980E-15
3.969400E+03	2.879832E-14	1.375378E-15
3.974780E+03	2.787333E-14	1.312384E-15
3.980160E+03	2.748285E-14	1.288285E-15
3.985550E+03	2.767062E-14	1.294316E-15
3.990950E+03	2.838821E-14	1.322665E-15
3.996360E+03	2.952063E-14	1.358921E-15
4.001770E+03	3.089136E-14	1.373766E-15
4.007190E+03	3.233405E-14	1.427883E-15
4.012620E+03	3.374629E-14	1.478048E-15
4.018060E+03	3.499489E-14	1.519821E-15
4.023500E+03	3.601572E-14	1.551278E-15
4.028950E+03	3.678310E-14	1.569210E-15
4.034410E+03	3.734561E-14	1.580710E-15
4.039880E+03	3.764681E-14	1.579841E-15
4.045350E+03	3.775837E-14	1.572248E-15
4.050830E+03	3.771097E-14	1.556573E-15
4.056320E+03	3.751225E-14	1.535452E-15
4.061810E+03	3.719037E-14	1.508929E-15
4.067320E+03	3.682732E-14	1.480528E-15
4.072830E+03	3.647437E-14	1.452005E-15
4.078340E+03	3.612638E-14	1.425349E-15
4.083870E+03	3.576800E-14	1.398386E-15
4.089400E+03	3.539919E-14	1.375179E-15
4.094940E+03	3.500715E-14	1.353799E-15
4.100490E+03	3.460213E-14	1.325987E-15
4.106040E+03	3.425851E-14	1.307092E-15
4.111610E+03	3.406867E-14	1.305382E-15
4.117180E+03	3.407880E-14	1.307433E-15
4.122750E+03	3.433769E-14	1.293816E-15
4.128340E+03	3.477869E-14	1.287676E-15
4.133930E+03	3.527609E-14	1.312662E-15
4.139530E+03	3.574009E-14	1.327060E-15
4.145140E+03	3.607316E-14	1.308498E-15
4.150750E+03	3.616492E-14	1.273996E-15
4.156380E+03	3.591268E-14	1.262489E-15
4.162010E+03	3.528300E-14	1.239332E-15
4.167650E+03	3.429638E-14	1.182624E-15
4.173290E+03	3.300924E-14	1.119237E-15
4.178950E+03	3.153965E-14	1.062233E-15
4.184610E+03	2.996459E-14	1.010059E-15
4.190280E+03	2.839447E-14	9.376313E-16
4.195950E+03	2.697818E-14	8.887824E-16
4.201640E+03	2.584925E-14	8.735243E-16
4.207330E+03	2.509321E-14	8.538402E-16
4.213030E+03	2.473190E-14	8.147967E-16
4.218740E+03	2.476406E-14	8.077818E-16
4.224450E+03	2.515941E-14	8.660978E-16
4.230180E+03	2.583554E-14	8.853945E-16
4.235910E+03	2.665201E-14	8.669576E-16
4.241640E+03	2.749405E-14	8.507091E-16
4.247390E+03	2.826923E-14	8.550451E-16
4.253150E+03	2.897239E-14	8.730603E-16
4.258910E+03	2.962407E-14	8.592231E-16
4.264680E+03	3.034492E-14	8.517227E-16
4.270450E+03	3.118114E-14	8.577610E-16
4.276240E+03	3.212757E-14	8.777518E-16
4.282030E+03	3.315595E-14	9.153443E-16
4.287830E+03	3.412508E-14	9.408001E-16
4.293640E+03	3.490660E-14	9.503593E-16
4.299460E+03	3.543636E-14	9.390955E-16
4.305280E+03	3.567074E-14	9.336605E-16
4.311120E+03	3.562518E-14	9.281577E-16
4.316960E+03	3.534850E-14	9.099081E-16
4.322800E+03	3.491257E-14	8.826621E-16
4.328660E+03	3.444318E-14	8.464480E-16
4.334520E+03	3.406348E-14	8.273414E-16
4.340400E+03	3.382477E-14	8.137848E-16
4.346280E+03	3.367316E-14	8.034812E-16
4.352160E+03	3.347266E-14	8.018751E-16
4.358060E+03	3.313607E-14	8.137782E-16
4.363960E+03	3.254548E-14	8.014776E-16
4.369880E+03	3.166761E-14	7.611962E-16
4.375800E+03	3.052822E-14	7.421161E-16
4.381720E+03	2.921202E-14	7.345590E-16
4.387660E+03	2.788571E-14	7.193089E-16
4.393600E+03	2.673130E-14	6.735273E-16
4.399560E+03	2.590507E-14	6.030672E-16
4.405520E+03	2.551377E-14	5.792332E-16
4.411480E+03	2.562358E-14	5.964947E-16
4.417460E+03	2.621402E-14	6.158218E-16
4.423450E+03	2.713965E-14	6.299903E-16
4.429440E+03	2.824664E-14	6.299094E-16
4.435440E+03	2.938125E-14	6.395017E-16
4.441450E+03	3.048967E-14	6.645053E-16
4.447460E+03	3.151304E-14	6.980189E-16
4.453490E+03	3.241041E-14	7.176652E-16
4.459520E+03	3.314861E-14	7.310381E-16
4.465560E+03	3.373537E-14	7.489096E-16
4.471610E+03	3.420659E-14	7.696738E-16
4.477670E+03	3.458790E-14	7.795995E-16
4.483740E+03	3.492280E-14	7.826793E-16
4.489810E+03	3.525224E-14	7.932682E-16
4.495890E+03	3.562985E-14	8.073651E-16
4.501980E+03	3.613734E-14	8.187639E-16
4.508080E+03	3.680782E-14	8.258324E-16
4.514190E+03	3.767434E-14	8.498567E-16
4.520310E+03	3.881587E-14	8.809085E-16
4.526430E+03	4.021689E-14	9.163659E-16
4.532560E+03	4.180317E-14	9.581822E-16
4.538700E+03	4.346484E-14	1.002923E-15
4.544850E+03	4.506413E-14	1.051581E-15
4.551010E+03	4.655518E-14	1.100130E-15
4.557170E+03	4.786672E-14	1.138244E-15
4.563350E+03	4.895043E-14	1.173092E-15
4.569530E+03	4.977090E-14	1.209196E-15
4.575720E+03	5.032578E-14	1.236558E-15
4.581920E+03	5.068659E-14	1.255403E-15
4.588130E+03	5.088402E-14	1.263691E-15
4.594340E+03	5.091064E-14	1.275648E-15
4.600570E+03	5.072587E-14	1.291040E-15
4.606800E+03	5.029949E-14	1.306420E-15
4.613040E+03	4.962917E-14	1.303638E-15
4.619290E+03	4.871518E-14	1.289936E-15
4.625550E+03	4.756033E-14	1.276647E-15
4.631810E+03	4.626900E-14	1.266624E-15
4.638090E+03	4.497579E-14	1.250506E-15
4.644370E+03	4.383295E-14	1.218719E-15
4.650660E+03	4.293668E-14	1.190094E-15
4.656960E+03	4.232219E-14	1.180273E-15
4.663270E+03	4.193090E-14	1.187976E-15
4.669590E+03	4.153969E-14	1.238045E-15
4.675920E+03	4.082199E-14	1.300457E-15
4.682250E+03	3.946950E-14	1.323416E-15
4.688590E+03	3.738179E-14	1.240774E-15
4.694940E+03	3.469127E-14	1.146627E-15
4.701300E+03	3.168434E-14	1.268429E-15
4.707670E+03	2.878839E-14	1.404691E-15
4.714050E+03	2.645536E-14	1.346285E-15
4.720440E+03	2.502182E-14	1.125021E-15
4.726830E+03	2.466377E-14	1.063911E-15
4.733240E+03	2.539944E-14	1.249385E-15
4.739650E+03	2.695113E-14	1.356127E-15
4.746070E+03	2.902542E-14	1.249271E-15
4.752500E+03	3.123874E-14	1.146434E-15
4.758940E+03	3.322080E-14	1.223480E-15
4.765380E+03	3.482345E-14	1.335914E-15
4.771840E+03	3.604464E-14	1.371560E-15
4.778300E+03	3.699553E-14	1.325248E-15
4.784780E+03	3.777697E-14	1.309546E-15
4.791260E+03	3.845956E-14	1.363782E-15
4.797750E+03	3.901579E-14	1.425445E-15
4.804250E+03	3.938563E-14	1.433843E-15
4.810760E+03	3.953423E-14	1.421532E-15
4.817280E+03	3.943435E-14	1.440233E-15
4.823800E+03	3.914401E-14	1.459689E-15
4.830340E+03	3.874608E-14	1.466233E-15
4.836880E+03	3.834090E-14	1.429762E-15
4.843430E+03	3.799350E-14	1.422780E-15
4.849990E+03	3.770130E-14	1.439103E-15
4.856560E+03	3.736175E-14	1.443218E-15
4.863140E+03	3.701242E-14	1.429866E-15
4.869730E+03	3.655345E-14	1.405471E-15
4.876330E+03	3.586029E-14	1.388756E-15
4.882940E+03	3.489591E-14	1.365728E-15
4.889550E+03	3.366080E-14	1.326412E-15
4.896170E+03	3.224256E-14	1.294796E-15
4.902810E+03	3.078836E-14	1.247723E-15
4.909450E+03	2.953224E-14	1.217999E-15
4.916100E+03	2.867030E-14	1.213032E-15
4.922760E+03	2.838334E-14	1.222902E-15
4.929430E+03	2.877969E-14	1.235032E-15
4.936110E+03	2.989046E-14	1.251985E-15
4.942790E+03	3.170950E-14	1.342620E-15
4.949490E+03	3.415865E-14	1.454290E-15
4.956200E+03	3.711042E-14	1.573495E-15
4.962910E+03	4.033608E-14	1.711855E-15
4.969630E+03	4.348852E-14	1.853781E-15
4.976370E+03	4.618680E-14	1.991063E-15
4.983110E+03	4.815732E-14	2.106842E-15
4.989860E+03	4.922833E-14	2.172221E-15
4.996620E+03	4.942614E-14	2.188463E-15
5.003390E+03	4.889297E-14	2.193611E-15
5.010170E+03	4.784475E-14	2.226448E-15
5.016950E+03	4.650926E-14	2.206663E-15
5.023750E+03	4.505693E-14	2.108061E-15
5.030550E+03	4.360380E-14	2.045989E-15
5.037370E+03	4.220394E-14	2.048497E-15
5.044190E+03	4.087455E-14	2.036486E-15
5.051030E+03	3.948766E-14	1.929074E-15
5.057870E+03	3.797224E-14	1.790354E-15
5.064720E+03	3.633831E-14	1.733330E-15
5.071580E+03	3.472350E-14	1.705553E-15
5.078450E+03	3.333858E-14	1.654921E-15
5.085330E+03	3.243303E-14	1.579720E-15
5.092220E+03	3.223608E-14	1.545954E-15
5.099120E+03	3.285158E-14	1.594933E-15
5.106030E+03	3.421928E-14	1.686711E-15
5.112950E+03	3.616424E-14	1.782227E-15
5.119870E+03	3.841429E-14	1.870677E-15
5.126810E+03	4.067349E-14	1.963908E-15
5.133750E+03	4.268823E-14	2.069623E-15
5.140710E+03	4.431510E-14	2.158160E-15
5.147670E+03	4.550136E-14	2.224338E-15
5.154650E+03	4.623317E-14	2.272225E-15
5.161630E+03	4.659178E-14	2.300793E-15
5.168620E+03	4.668485E-14	2.315316E-15
5.175620E+03	4.658821E-14	2.320215E-15
5.182640E+03	4.640899E-14	2.320454E-15
5.189660E+03	4.624207E-14	2.323153E-15
5.196690E+03	4.613829E-14	2.327796E-15
5.203730E+03	4.614841E-14	2.338300E-15
5.210780E+03	4.624071E-14	2.354259E-15
5.217840E+03	4.634731E-14	2.370847E-15
5.224910E+03	4.642705E-14	2.386420E-15
5.231980E+03	4.644623E-14	2.393442E-15
5.239070E+03	4.642902E-14	2.398797E-15
5.246170E+03	4.637313E-14	2.408695E-15
5.253280E+03	4.630276E-14	2.415899E-15
5.260390E+03	4.624448E-14	2.420789E-15
5.267520E+03	4.627283E-14	2.428501E-15
5.274660E+03	4.642617E-14	2.445448E-15
5.281800E+03	4.675477E-14	2.471953E-15
5.288960E+03	4.718372E-14	2.503767E-15
5.296120E+03	4.764804E-14	2.537424E-15
5.303300E+03	4.806121E-14	2.569292E-15
5.310480E+03	4.835867E-14	2.594424E-15
5.317670E+03	4.851427E-14	2.612249E-15
5.324880E+03	4.850671E-14	2.623821E-15
5.332090E+03	4.839146E-14	2.627691E-15
5.339320E+03	4.815909E-14	2.624688E-15
5.346550E+03	4.789596E-14	2.619185E-15
5.353790E+03	4.768089E-14	2.616103E-15
5.361050E+03	4.757816E-14	2.618940E-15
5.368310E+03	4.764247E-14	2.632287E-15
5.375580E+03	4.785437E-14	2.653760E-15
5.382860E+03	4.815163E-14	2.682526E-15
5.390160E+03	4.844361E-14	2.710301E-15
5.397460E+03	4.864959E-14	2.733478E-15
5.404770E+03	4.869128E-14	2.744562E-15
5.412090E+03	4.851919E-14	2.741774E-15
5.419420E+03	4.809580E-14	2.725637E-15
5.426770E+03	4.744768E-14	2.698407E-15
5.434120E+03	4.664650E-14	2.661719E-15
5.441480E+03	4.578249E-14	2.620723E-15
5.448850E+03	4.498119E-14	2.583876E-15
5.456230E+03	4.440088E-14	2.559851E-15
5.463620E+03	4.427026E-14	2.562330E-15
5.471030E+03	4.472764E-14	2.603574E-15
5.478440E+03	4.588274E-14	2.689612E-15
5.485860E+03	4.771754E-14	2.804136E-15
5.493290E+03	5.010338E-14	2.955507E-15
5.500730E+03	5.290021E-14	3.145858E-15
5.508180E+03	5.582953E-14	3.339785E-15
5.515650E+03	5.852427E-14	3.507785E-15
5.523120E+03	6.069373E-14	3.633306E-15
5.530600E+03	6.215348E-14	3.726735E-15
5.538090E+03	6.274081E-14	3.776283E-15
5.545600E+03	6.231216E-14	3.762534E-15
5.553110E+03	6.090258E-14	3.686946E-15
5.560630E+03	5.866156E-14	3.568490E-15
5.568170E+03	5.587855E-14	3.413388E-15
5.575710E+03	5.285403E-14	3.247657E-15
5.583260E+03	4.987346E-14	3.089575E-15
5.590830E+03	4.716315E-14	2.943043E-15
5.598400E+03	4.493024E-14	2.816338E-15
5.605980E+03	4.331356E-14	2.713045E-15
5.613580E+03	4.229778E-14	2.666989E-15
5.621180E+03	4.177233E-14	2.656494E-15
5.628800E+03	4.148950E-14	2.639672E-15
5.636420E+03	4.139308E-14	2.628287E-15
5.644060E+03	4.126654E-14	2.626191E-15
5.651710E+03	4.085696E-14	2.622223E-15
5.659360E+03	3.999562E-14	2.575202E-15
5.667030E+03	3.864630E-14	2.492900E-15
5.674710E+03	3.671972E-14	2.406231E-15
5.682390E+03	3.421018E-14	2.260502E-15
5.690090E+03	3.119054E-14	2.073576E-15
5.697800E+03	2.782142E-14	1.856494E-15
5.705520E+03	2.428835E-14	1.653976E-15
5.713250E+03	2.085855E-14	1.484030E-15
5.720990E+03	1.778186E-14	1.238274E-15
5.728740E+03	1.524359E-14	1.067700E-15
5.736500E+03	1.336378E-14	9.917114E-16
5.744270E+03	1.230266E-14	9.548365E-16
5.752050E+03	1.218345E-14	9.307157E-16
5.759840E+03	1.300348E-14	9.406884E-16
5.767650E+03	1.461077E-14	1.085348E-15
5.775460E+03	1.701541E-14	1.244611E-15
5.783290E+03	2.004962E-14	1.430027E-15
5.791120E+03	2.357112E-14	1.682516E-15
5.798970E+03	2.746066E-14	1.945439E-15
5.806820E+03	3.167675E-14	2.227799E-15
5.814690E+03	3.606081E-14	2.519831E-15
5.822570E+03	4.045934E-14	2.842757E-15
5.830450E+03	4.458679E-14	3.130637E-15
5.838350E+03	4.816968E-14	3.388117E-15
5.846260E+03	5.095140E-14	3.622570E-15
5.854180E+03	5.287889E-14	3.777417E-15
5.862110E+03	5.401772E-14	3.858388E-15
5.870050E+03	5.443782E-14	3.903273E-15
5.878010E+03	5.424758E-14	3.935051E-15
5.885970E+03	5.363022E-14	3.909288E-15
5.893940E+03	5.282514E-14	3.829117E-15
5.901930E+03	5.198479E-14	3.762964E-15
5.909920E+03	5.125226E-14	3.728294E-15
5.917930E+03	5.074286E-14	3.702042E-15
5.925950E+03	5.035875E-14	3.662694E-15
5.933970E+03	4.994577E-14	3.630252E-15
5.942010E+03	4.933195E-14	3.598099E-15
5.950060E+03	4.838436E-14	3.539420E-15
5.958120E+03	4.703591E-14	3.450407E-15
5.966200E+03	4.542286E-14	3.341343E-15
5.974280E+03	4.360676E-14	3.218045E-15
5.982370E+03	4.170524E-14	3.087234E-15
5.990480E+03	3.980630E-14	2.960056E-15
5.998590E+03	3.800682E-14	2.834776E-15
6.006720E+03	3.638978E-14	2.721572E-15
6.014850E+03	3.499983E-14	2.624972E-15
6.023000E+03	3.385891E-14	2.549211E-15
6.031160E+03	3.297776E-14	2.492289E-15
6.039330E+03	3.232667E-14	2.445664E-15
6.047520E+03	3.181769E-14	2.411413E-15
6.055710E+03	3.142370E-14	2.388293E-15
6.063910E+03	3.113100E-14	2.373403E-15
6.072130E+03	3.095949E-14	2.367316E-15
6.080350E+03	3.096263E-14	2.374355E-15
6.088590E+03	3.117575E-14	2.398072E-15
6.096840E+03	3.157612E-14	2.434177E-15
6.105100E+03	3.205178E-14	2.480168E-15
6.113370E+03	3.255129E-14	2.534611E-15
6.121650E+03	3.293200E-14	2.571586E-15
6.129940E+03	3.312068E-14	2.588811E-15
6.138250E+03	3.316666E-14	2.592415E-15
6.146560E+03	3.297022E-14	2.583710E-15
6.154890E+03	3.256959E-14	2.558549E-15
6.163230E+03	3.218060E-14	2.530531E-15
6.171580E+03	3.197409E-14	2.519515E-15
6.179940E+03	3.229558E-14	2.560268E-15
6.188310E+03	3.338327E-14	2.692405E-15
6.196690E+03	3.531750E-14	2.850083E-15
6.205090E+03	3.802124E-14	3.064233E-15
6.213500E+03	4.124967E-14	3.343179E-15
6.221910E+03	4.462168E-14	3.681960E-15
6.230340E+03	4.770632E-14	3.940696E-15
6.238780E+03	5.025044E-14	4.087855E-15
6.247230E+03	5.221769E-14	4.246179E-15
6.255700E+03	5.352329E-14	4.417448E-15
6.264170E+03	5.423917E-14	4.532384E-15
6.272660E+03	5.443907E-14	4.499964E-15
6.281160E+03	5.415711E-14	4.462604E-15
6.289670E+03	5.355909E-14	4.463065E-15
6.298190E+03	5.250294E-14	4.415740E-15
6.306720E+03	5.083822E-14	4.272033E-15
6.315260E+03	4.836006E-14	3.995552E-15
6.323820E+03	4.508547E-14	3.705268E-15
6.332380E+03	4.139503E-14	3.442825E-15
6.340960E+03	3.780814E-14	3.234440E-15
6.349550E+03	3.496971E-14	3.075501E-15
6.358150E+03	3.333488E-14	2.887590E-15
6.366770E+03	3.317843E-14	2.885359E-15
6.375390E+03	3.446678E-14	3.114668E-15
6.384030E+03	3.687631E-14	3.395475E-15
6.392680E+03	4.005168E-14	3.591172E-15
6.401340E+03	4.357755E-14	3.756788E-15
6.410010E+03	4.696139E-14	3.984161E-15
6.418700E+03	4.992730E-14	4.244625E-15
6.427390E+03	5.236974E-14	4.423223E-15
