#wls	flux	fluxerr
1.600000E+03	1.573621E-15	2.252543E-15
1.640000E+03	1.571797E-15	2.236720E-15
1.680000E+03	1.570409E-15	2.220524E-15
1.720000E+03	1.569208E-15	2.203530E-15
1.760000E+03	1.568489E-15	2.186080E-15
1.800000E+03	1.568013E-15	2.167761E-15
1.840000E+03	1.568082E-15	2.148908E-15
1.880000E+03	1.568998E-15	2.129838E-15
1.920000E+03	1.570278E-15	2.109794E-15
1.960000E+03	1.572501E-15	2.089450E-15
2.000000E+03	1.575464E-15	2.068415E-15
2.040000E+03	1.579239E-15	2.046661E-15
2.080000E+03	1.584164E-15	2.024492E-15
2.120000E+03	1.590332E-15	2.001867E-15
2.160000E+03	1.597850E-15	1.978750E-15
2.200000E+03	1.606839E-15	1.955107E-15
2.240000E+03	1.617445E-15	1.930910E-15
2.280000E+03	1.629831E-15	1.906131E-15
2.320000E+03	1.644445E-15	1.881036E-15
2.360000E+03	1.661510E-15	1.855586E-15
2.400000E+03	1.681033E-15	1.829461E-15
2.440000E+03	1.703828E-15	1.803183E-15
2.480000E+03	1.730256E-15	1.776687E-15
2.520000E+03	1.760231E-15	1.749399E-15
2.560000E+03	1.795030E-15	1.722033E-15
2.600000E+03	1.835004E-15	1.694248E-15
2.640000E+03	1.880887E-15	1.665950E-15
2.680000E+03	1.933832E-15	1.637256E-15
2.720000E+03	1.994938E-15	1.608012E-15
2.760000E+03	2.065841E-15	1.578245E-15
2.800000E+03	2.147694E-15	1.547300E-15
2.840000E+03	2.243493E-15	1.515510E-15
2.880000E+03	2.355742E-15	1.482295E-15
2.920000E+03	2.488352E-15	1.447373E-15
2.960000E+03	2.645769E-15	1.409959E-15
3.000000E+03	2.834978E-15	1.369625E-15
3.010000E+03	2.888229E-15	1.358985E-15
3.020000E+03	2.943956E-15	1.347989E-15
3.030000E+03	3.002679E-15	1.336780E-15
3.040000E+03	3.064596E-15	1.325332E-15
3.050000E+03	3.129551E-15	1.313467E-15
3.060000E+03	3.197757E-15	1.301162E-15
3.070000E+03	3.269823E-15	1.288544E-15
3.080000E+03	3.346018E-15	1.275583E-15
3.090000E+03	3.426636E-15	1.262245E-15
3.100000E+03	3.511594E-15	1.248352E-15
3.110000E+03	3.601216E-15	1.233875E-15
3.120000E+03	3.696269E-15	1.218918E-15
3.130000E+03	3.797162E-15	1.203441E-15
3.140000E+03	3.904339E-15	1.187398E-15
3.150000E+03	4.017838E-15	1.170615E-15
3.160000E+03	4.138153E-15	1.153050E-15
3.170000E+03	4.266758E-15	1.134911E-15
3.180000E+03	4.403346E-15	1.115895E-15
3.190000E+03	4.548554E-15	1.095959E-15
3.200000E+03	4.704083E-15	1.075291E-15
3.210000E+03	4.869719E-15	1.053605E-15
3.220000E+03	5.046266E-15	1.030863E-15
3.230000E+03	5.235694E-15	1.007245E-15
3.240000E+03	5.437886E-15	9.825019E-16
3.250000E+03	5.653824E-15	9.566224E-16
3.260000E+03	5.885764E-15	9.298110E-16
3.270000E+03	6.133646E-15	9.019008E-16
3.280000E+03	6.399241E-15	8.730635E-16
3.290000E+03	6.683066E-15	8.433420E-16
3.300000E+03	6.986945E-15	8.130372E-16
3.310000E+03	7.312025E-15	7.824591E-16
3.320000E+03	7.659361E-15	7.520462E-16
3.330000E+03	8.029848E-15	7.223892E-16
3.340000E+03	8.423299E-15	6.941739E-16
3.350000E+03	8.840760E-15	6.683823E-16
3.360000E+03	9.281069E-15	6.459596E-16
3.370000E+03	9.745013E-15	6.280470E-16
3.380000E+03	1.022874E-14	6.153919E-16
3.390000E+03	1.072987E-14	6.086216E-16
3.400000E+03	1.124347E-14	6.078477E-16
3.410000E+03	1.176164E-14	6.125989E-16
3.420000E+03	1.227783E-14	6.220832E-16
3.430000E+03	1.277923E-14	6.349062E-16
3.440000E+03	1.325512E-14	6.496585E-16
3.450000E+03	1.369204E-14	6.648099E-16
3.460000E+03	1.408110E-14	6.791754E-16
3.470000E+03	1.441062E-14	6.916091E-16
3.480000E+03	1.467638E-14	7.015103E-16
3.490000E+03	1.487759E-14	7.086047E-16
3.500000E+03	1.501870E-14	7.129889E-16
3.510000E+03	1.510925E-14	7.150758E-16
3.520000E+03	1.516173E-14	7.154488E-16
3.530000E+03	1.519419E-14	7.149551E-16
3.540000E+03	1.522451E-14	7.144180E-16
3.550000E+03	1.527006E-14	7.146156E-16
3.560000E+03	1.534625E-14	7.162164E-16
3.570000E+03	1.546555E-14	7.197372E-16
3.580000E+03	1.563557E-14	7.254605E-16
3.590000E+03	1.586281E-14	7.336131E-16
3.600000E+03	1.614878E-14	7.441865E-16
3.610000E+03	1.649140E-14	7.570053E-16
3.620000E+03	1.688504E-14	7.717289E-16
3.630000E+03	1.732026E-14	7.878475E-16
3.640000E+03	1.778190E-14	8.046056E-16
3.650000E+03	1.825255E-14	8.211831E-16
3.660000E+03	1.870757E-14	8.364986E-16
3.670000E+03	1.911605E-14	8.492812E-16
3.680000E+03	1.944122E-14	8.581072E-16
3.690000E+03	1.964240E-14	8.614780E-16
3.700000E+03	1.967726E-14	8.578900E-16
3.710000E+03	1.951363E-14	8.463001E-16
3.720000E+03	1.912556E-14	8.258987E-16
3.730000E+03	1.851038E-14	7.967960E-16
3.740000E+03	1.768532E-14	7.598306E-16
3.750000E+03	1.669439E-14	7.168452E-16
3.760000E+03	1.559535E-14	6.701367E-16
3.770000E+03	1.445572E-14	6.223276E-16
3.780000E+03	1.334489E-14	5.760933E-16
3.790000E+03	1.232235E-14	5.337157E-16
3.800000E+03	1.143335E-14	4.969353E-16
3.810000E+03	1.071135E-14	4.670682E-16
3.820000E+03	1.017437E-14	4.448296E-16
3.830000E+03	9.834433E-15	4.307140E-16
3.840000E+03	9.698308E-15	4.249932E-16
3.850000E+03	9.770813E-15	4.278340E-16
3.860000E+03	1.005870E-14	4.394503E-16
3.870000E+03	1.056892E-14	4.600217E-16
3.880000E+03	1.130802E-14	4.896693E-16
3.890000E+03	1.227843E-14	5.283083E-16
3.900000E+03	1.347777E-14	5.756315E-16
3.910000E+03	1.488781E-14	6.306545E-16
3.920000E+03	1.648107E-14	6.920158E-16
3.930000E+03	1.821010E-14	7.575343E-16
3.940000E+03	2.001833E-14	8.246937E-16
3.950000E+03	2.184112E-14	8.907110E-16
3.960000E+03	2.362034E-14	9.531790E-16
3.970000E+03	2.530035E-14	1.009941E-15
3.980000E+03	2.684857E-14	1.059954E-15
3.990000E+03	2.823905E-14	1.102618E-15
4.000000E+03	2.946072E-14	1.138076E-15
4.010000E+03	3.051232E-14	1.166930E-15
4.020000E+03	3.139529E-14	1.189873E-15
4.030000E+03	3.211155E-14	1.207520E-15
4.040000E+03	3.266682E-14	1.220475E-15
4.050000E+03	3.307112E-14	1.229325E-15
4.060000E+03	3.333502E-14	1.234514E-15
4.070000E+03	3.346932E-14	1.236364E-15
4.080000E+03	3.348802E-14	1.235227E-15
4.090000E+03	3.340670E-14	1.231485E-15
4.100000E+03	3.323519E-14	1.225342E-15
4.110000E+03	3.298450E-14	1.217155E-15
4.120000E+03	3.265933E-14	1.207189E-15
4.130000E+03	3.226543E-14	1.195842E-15
4.140000E+03	3.181186E-14	1.183600E-15
4.150000E+03	3.130645E-14	1.170696E-15
4.160000E+03	3.077042E-14	1.157511E-15
4.170000E+03	3.022811E-14	1.144155E-15
4.180000E+03	2.970629E-14	1.130513E-15
4.190000E+03	2.924151E-14	1.116713E-15
4.200000E+03	2.886487E-14	1.102776E-15
4.210000E+03	2.860358E-14	1.088886E-15
4.220000E+03	2.848247E-14	1.075593E-15
4.230000E+03	2.851403E-14	1.063487E-15
4.240000E+03	2.869714E-14	1.053121E-15
4.250000E+03	2.902371E-14	1.045118E-15
4.260000E+03	2.947217E-14	1.039673E-15
4.270000E+03	3.000938E-14	1.036316E-15
4.280000E+03	3.059231E-14	1.033649E-15
4.290000E+03	3.117146E-14	1.029245E-15
4.300000E+03	3.169579E-14	1.019784E-15
4.310000E+03	3.211850E-14	1.001446E-15
4.320000E+03	3.240078E-14	9.704852E-16
4.330000E+03	3.252197E-14	9.242047E-16
4.340000E+03	3.246943E-14	8.615319E-16
4.350000E+03	3.224864E-14	7.845217E-16
4.360000E+03	3.187415E-14	6.998116E-16
4.370000E+03	3.136748E-14	6.206627E-16
4.380000E+03	3.076199E-14	5.669606E-16
4.390000E+03	3.010107E-14	5.555632E-16
4.400000E+03	2.943963E-14	5.836676E-16
4.410000E+03	2.884072E-14	6.323215E-16
4.420000E+03	2.835768E-14	6.846589E-16
4.430000E+03	2.802569E-14	7.323238E-16
4.440000E+03	2.786333E-14	7.730914E-16
4.450000E+03	2.787612E-14	8.077388E-16
4.460000E+03	2.805944E-14	8.380912E-16
4.470000E+03	2.840366E-14	8.661236E-16
4.480000E+03	2.890030E-14	8.936669E-16
4.490000E+03	2.954327E-14	9.222576E-16
4.500000E+03	3.032351E-14	9.529160E-16
4.510000E+03	3.123106E-14	9.862208E-16
4.520000E+03	3.224530E-14	1.022060E-15
4.530000E+03	3.333540E-14	1.059729E-15
4.540000E+03	3.445707E-14	1.097928E-15
4.550000E+03	3.555505E-14	1.134944E-15
4.560000E+03	3.656261E-14	1.168712E-15
4.570000E+03	3.741303E-14	1.197244E-15
4.580000E+03	3.804807E-14	1.218953E-15
4.590000E+03	3.841913E-14	1.232730E-15
4.600000E+03	3.850453E-14	1.238530E-15
4.610000E+03	3.830043E-14	1.237062E-15
4.620000E+03	3.782672E-14	1.229897E-15
4.630000E+03	3.712168E-14	1.219120E-15
4.640000E+03	3.623815E-14	1.206969E-15
4.650000E+03	3.523124E-14	1.195175E-15
4.660000E+03	3.416214E-14	1.184924E-15
4.670000E+03	3.308888E-14	1.176562E-15
4.680000E+03	3.205935E-14	1.169569E-15
4.690000E+03	3.111922E-14	1.163202E-15
4.700000E+03	3.029996E-14	1.156436E-15
4.710000E+03	2.962868E-14	1.148621E-15
4.720000E+03	2.911742E-14	1.139256E-15
4.730000E+03	2.877172E-14	1.128368E-15
4.740000E+03	2.858694E-14	1.116343E-15
4.750000E+03	2.854513E-14	1.103712E-15
4.760000E+03	2.862281E-14	1.091303E-15
4.770000E+03	2.878861E-14	1.079935E-15
4.780000E+03	2.900164E-14	1.070112E-15
4.790000E+03	2.922113E-14	1.062131E-15
4.800000E+03	2.940531E-14	1.055847E-15
4.810000E+03	2.951675E-14	1.050753E-15
4.820000E+03	2.952566E-14	1.046093E-15
4.830000E+03	2.941853E-14	1.041213E-15
4.840000E+03	2.919272E-14	1.035467E-15
4.850000E+03	2.886682E-14	1.028681E-15
4.860000E+03	2.847016E-14	1.020910E-15
4.870000E+03	2.804766E-14	1.012737E-15
4.880000E+03	2.765039E-14	1.005072E-15
4.890000E+03	2.733116E-14	9.991045E-16
4.900000E+03	2.713781E-14	9.961332E-16
4.910000E+03	2.711222E-14	9.975525E-16
4.920000E+03	2.727844E-14	1.004393E-15
4.930000E+03	2.764705E-14	1.017436E-15
4.940000E+03	2.820356E-14	1.036730E-15
4.950000E+03	2.891367E-14	1.061714E-15
4.960000E+03	2.971937E-14	1.090980E-15
4.970000E+03	3.054295E-14	1.122275E-15
4.980000E+03	3.130052E-14	1.152840E-15
4.990000E+03	3.190719E-14	1.179456E-15
5.000000E+03	3.229998E-14	1.199243E-15
5.010000E+03	3.244558E-14	1.210045E-15
5.020000E+03	3.234764E-14	1.210940E-15
5.030000E+03	3.204529E-14	1.202452E-15
5.040000E+03	3.160478E-14	1.186461E-15
5.050000E+03	3.110612E-14	1.165780E-15
5.060000E+03	3.063519E-14	1.143803E-15
5.070000E+03	3.026505E-14	1.123663E-15
5.080000E+03	3.005681E-14	1.108101E-15
5.090000E+03	3.005080E-14	1.099025E-15
5.100000E+03	3.026570E-14	1.097435E-15
5.110000E+03	3.069823E-14	1.103425E-15
5.120000E+03	3.132292E-14	1.116224E-15
5.130000E+03	3.209954E-14	1.134521E-15
5.140000E+03	3.296975E-14	1.156388E-15
5.150000E+03	3.387326E-14	1.179868E-15
5.160000E+03	3.474615E-14	1.202902E-15
5.170000E+03	3.553723E-14	1.223858E-15
5.180000E+03	3.620897E-14	1.241513E-15
5.190000E+03	3.674149E-14	1.255158E-15
5.200000E+03	3.713179E-14	1.264565E-15
5.210000E+03	3.739039E-14	1.269899E-15
5.220000E+03	3.753659E-14	1.271604E-15
5.230000E+03	3.759373E-14	1.270299E-15
5.240000E+03	3.758506E-14	1.266679E-15
5.250000E+03	3.752952E-14	1.261383E-15
5.260000E+03	3.744526E-14	1.255100E-15
5.270000E+03	3.734068E-14	1.248241E-15
5.280000E+03	3.721845E-14	1.241036E-15
5.290000E+03	3.708013E-14	1.233662E-15
5.300000E+03	3.691808E-14	1.225946E-15
5.310000E+03	3.672781E-14	1.217768E-15
5.320000E+03	3.650033E-14	1.208803E-15
5.330000E+03	3.622761E-14	1.198696E-15
5.340000E+03	3.590722E-14	1.187209E-15
5.350000E+03	3.553362E-14	1.173912E-15
5.360000E+03	3.510861E-14	1.158489E-15
5.370000E+03	3.463278E-14	1.140415E-15
5.380000E+03	3.411159E-14	1.119113E-15
5.390000E+03	3.355441E-14	1.093911E-15
5.400000E+03	3.298108E-14	1.064267E-15
5.410000E+03	3.241599E-14	1.029639E-15
5.420000E+03	3.189303E-14	9.897484E-16
5.430000E+03	3.145406E-14	9.446947E-16
5.440000E+03	3.114152E-14	8.950284E-16
5.450000E+03	3.100118E-14	8.424008E-16
5.460000E+03	3.107428E-14	7.903695E-16
5.470000E+03	3.138970E-14	7.458403E-16
5.480000E+03	3.196618E-14	7.205947E-16
5.490000E+03	3.279648E-14	7.288194E-16
5.500000E+03	3.383890E-14	7.775614E-16
5.510000E+03	3.500868E-14	8.591811E-16
5.520000E+03	3.618812E-14	9.576744E-16
5.530000E+03	3.724589E-14	1.057400E-15
5.540000E+03	3.805909E-14	1.146454E-15
5.550000E+03	3.852879E-14	1.216981E-15
5.560000E+03	3.859818E-14	1.264922E-15
5.570000E+03	3.825604E-14	1.289359E-15
5.580000E+03	3.753233E-14	1.291770E-15
5.590000E+03	3.647933E-14	1.274969E-15
5.600000E+03	3.516489E-14	1.242619E-15
5.610000E+03	3.364995E-14	1.198305E-15
5.620000E+03	3.198745E-14	1.145380E-15
5.630000E+03	3.021647E-14	1.086645E-15
5.640000E+03	2.836974E-14	1.024483E-15
5.650000E+03	2.647851E-14	9.609144E-16
5.660000E+03	2.457819E-14	8.977152E-16
5.670000E+03	2.271192E-14	8.365510E-16
5.680000E+03	2.092722E-14	7.789356E-16
5.690000E+03	1.927540E-14	7.263504E-16
5.700000E+03	1.780314E-14	6.800896E-16
5.710000E+03	1.655026E-14	6.412928E-16
5.720000E+03	1.554655E-14	6.108818E-16
5.730000E+03	1.481253E-14	5.895841E-16
5.740000E+03	1.436003E-14	5.779108E-16
5.750000E+03	1.419733E-14	5.763042E-16
5.760000E+03	1.432966E-14	5.851168E-16
5.770000E+03	1.476201E-14	6.047009E-16
5.780000E+03	1.549853E-14	6.353862E-16
5.790000E+03	1.653828E-14	6.773202E-16
5.800000E+03	1.787279E-14	7.303920E-16
5.810000E+03	1.947814E-14	7.939247E-16
5.820000E+03	2.131119E-14	8.665250E-16
5.830000E+03	2.330653E-14	9.459301E-16
5.840000E+03	2.537572E-14	1.028912E-15
5.850000E+03	2.741250E-14	1.111406E-15
5.860000E+03	2.930480E-14	1.188924E-15
5.870000E+03	3.094809E-14	1.257064E-15
5.880000E+03	3.225479E-14	1.311941E-15
5.890000E+03	3.316780E-14	1.350848E-15
5.900000E+03	3.366025E-14	1.372379E-15
5.910000E+03	3.373898E-14	1.376669E-15
5.920000E+03	3.343607E-14	1.365072E-15
5.930000E+03	3.280162E-14	1.339823E-15
5.940000E+03	3.189881E-14	1.303737E-15
5.950000E+03	3.079707E-14	1.259838E-15
5.960000E+03	2.956450E-14	1.210995E-15
5.970000E+03	2.826407E-14	1.159761E-15
5.980000E+03	2.695395E-14	1.108414E-15
5.990000E+03	2.568162E-14	1.058772E-15
6.000000E+03	2.448694E-14	1.012353E-15
6.010000E+03	2.339911E-14	9.702767E-16
6.020000E+03	2.243743E-14	9.333047E-16
6.030000E+03	2.161483E-14	9.019794E-16
6.040000E+03	2.093602E-14	8.765367E-16
6.050000E+03	2.040292E-14	8.571195E-16
6.060000E+03	2.001030E-14	8.435847E-16
6.070000E+03	1.975540E-14	8.358982E-16
6.080000E+03	1.963132E-14	8.338552E-16
6.090000E+03	1.963404E-14	8.373753E-16
6.100000E+03	1.975992E-14	8.464022E-16
6.110000E+03	2.000936E-14	8.610649E-16
6.120000E+03	2.038529E-14	8.816185E-16
6.130000E+03	2.089327E-14	9.084503E-16
6.140000E+03	2.154412E-14	9.421891E-16
6.150000E+03	2.234688E-14	9.833863E-16
6.160000E+03	2.331552E-14	1.032787E-15
6.170000E+03	2.445782E-14	1.090813E-15
6.180000E+03	2.577940E-14	1.157711E-15
6.190000E+03	2.727207E-14	1.233011E-15
6.200000E+03	2.892007E-14	1.315802E-15
6.210000E+03	3.068651E-14	1.404142E-15
6.220000E+03	3.251958E-14	1.495389E-15
6.230000E+03	3.434962E-14	1.586133E-15
6.240000E+03	3.609428E-14	1.672497E-15
6.250000E+03	3.766634E-14	1.750524E-15
6.260000E+03	3.898260E-14	1.816584E-15
6.270000E+03	3.997929E-14	1.868037E-15
6.280000E+03	4.061785E-14	1.903416E-15
6.290000E+03	4.089062E-14	1.922612E-15
6.300000E+03	4.082757E-14	1.927114E-15
6.310000E+03	4.048121E-14	1.919271E-15
6.320000E+03	3.992835E-14	1.902365E-15
6.330000E+03	3.925349E-14	1.879860E-15
6.340000E+03	3.853999E-14	1.855036E-15
6.350000E+03	3.786176E-14	1.830669E-15
6.360000E+03	3.727761E-14	1.808845E-15
6.370000E+03	3.682716E-14	1.790836E-15
6.380000E+03	3.653420E-14	1.777330E-15
6.390000E+03	3.640493E-14	1.768380E-15
6.400000E+03	3.642566E-14	1.763313E-15
6.410000E+03	3.657321E-14	1.761231E-15
6.420000E+03	3.681208E-14	1.760846E-15
6.430000E+03	3.709893E-14	1.760641E-15
6.440000E+03	3.738481E-14	1.758909E-15
6.450000E+03	3.762478E-14	1.754153E-15
6.460000E+03	3.777422E-14	1.744868E-15
6.470000E+03	3.779732E-14	1.729950E-15
6.480000E+03	3.767506E-14	1.709112E-15
6.490000E+03	3.739914E-14	1.682674E-15
6.500000E+03	3.697675E-14	1.651833E-15
6.510000E+03	3.643311E-14	1.618762E-15
6.520000E+03	3.579823E-14	1.585863E-15
6.530000E+03	3.511077E-14	1.555531E-15
6.540000E+03	3.440653E-14	1.529022E-15
6.550000E+03	3.371039E-14	1.506100E-15
6.560000E+03	3.304535E-14	1.486187E-15
6.570000E+03	3.242219E-14	1.468420E-15
6.580000E+03	3.184883E-14	1.452213E-15
6.590000E+03	3.132042E-14	1.436792E-15
6.600000E+03	3.082957E-14	1.421581E-15
6.610000E+03	3.035815E-14	1.405730E-15
6.620000E+03	2.988839E-14	1.388548E-15
6.630000E+03	2.939577E-14	1.369105E-15
6.640000E+03	2.886036E-14	1.346707E-15
6.650000E+03	2.826109E-14	1.320597E-15
6.660000E+03	2.758108E-14	1.290183E-15
6.670000E+03	2.681220E-14	1.255239E-15
6.680000E+03	2.594954E-14	1.215655E-15
6.690000E+03	2.499592E-14	1.171643E-15
6.700000E+03	2.396046E-14	1.123685E-15
6.710000E+03	2.285862E-14	1.072537E-15
6.720000E+03	2.170740E-14	1.019015E-15
6.730000E+03	2.052932E-14	9.641804E-16
6.740000E+03	1.934797E-14	9.091452E-16
6.750000E+03	1.818457E-14	8.549072E-16
6.760000E+03	1.706193E-14	8.025425E-16
6.770000E+03	1.599781E-14	7.528945E-16
6.780000E+03	1.500967E-14	7.068005E-16
6.790000E+03	1.410996E-14	6.648670E-16
6.800000E+03	1.330871E-14	6.275924E-16
6.810000E+03	1.261373E-14	5.953737E-16
6.820000E+03	1.202920E-14	5.684378E-16
6.830000E+03	1.155928E-14	5.470114E-16
6.840000E+03	1.120720E-14	5.312792E-16
6.850000E+03	1.097467E-14	5.213560E-16
6.860000E+03	1.086545E-14	5.174566E-16
6.870000E+03	1.088271E-14	5.197692E-16
6.880000E+03	1.103090E-14	5.285417E-16
6.890000E+03	1.131523E-14	5.440495E-16
6.900000E+03	1.174126E-14	5.665673E-16
6.910000E+03	1.231457E-14	5.963425E-16
6.920000E+03	1.303777E-14	6.334365E-16
6.930000E+03	1.391174E-14	6.777760E-16
6.940000E+03	1.493258E-14	7.290041E-16
6.950000E+03	1.608861E-14	7.863399E-16
6.960000E+03	1.736034E-14	8.486011E-16
6.970000E+03	1.871914E-14	9.141714E-16
6.980000E+03	2.012744E-14	9.810550E-16
6.990000E+03	2.154039E-14	1.046999E-15
7.000000E+03	2.290897E-14	1.109671E-15
7.010000E+03	2.418418E-14	1.166875E-15
7.020000E+03	2.532277E-14	1.216803E-15
7.030000E+03	2.628765E-14	1.258022E-15
7.040000E+03	2.705803E-14	1.289911E-15
7.050000E+03	2.762403E-14	1.312349E-15
7.060000E+03	2.798938E-14	1.325812E-15
7.070000E+03	2.817310E-14	1.331414E-15
7.080000E+03	2.820005E-14	1.330456E-15
7.090000E+03	2.810214E-14	1.324475E-15
7.100000E+03	2.791415E-14	1.315048E-15
7.110000E+03	2.767112E-14	1.303679E-15
7.120000E+03	2.740644E-14	1.291729E-15
7.130000E+03	2.715053E-14	1.280373E-15
7.140000E+03	2.693003E-14	1.270591E-15
7.150000E+03	2.676744E-14	1.263177E-15
7.160000E+03	2.668079E-14	1.258750E-15
7.170000E+03	2.668351E-14	1.257764E-15
7.180000E+03	2.678420E-14	1.260507E-15
7.190000E+03	2.698631E-14	1.267093E-15
7.200000E+03	2.728774E-14	1.277444E-15
7.210000E+03	2.768036E-14	1.291268E-15
7.220000E+03	2.814963E-14	1.308032E-15
7.230000E+03	2.867435E-14	1.326951E-15
7.240000E+03	2.922696E-14	1.346975E-15
7.250000E+03	2.977318E-14	1.366751E-15
7.260000E+03	3.027839E-14	1.384881E-15
7.270000E+03	3.070300E-14	1.399679E-15
7.280000E+03	3.100901E-14	1.409459E-15
7.290000E+03	3.116722E-14	1.412866E-15
7.300000E+03	3.115180E-14	1.408655E-15
7.310000E+03	3.095144E-14	1.396234E-15
7.320000E+03	3.056568E-14	1.375524E-15
7.330000E+03	3.000591E-14	1.347030E-15
7.340000E+03	2.929365E-14	1.311756E-15
7.350000E+03	2.845769E-14	1.271065E-15
7.360000E+03	2.752953E-14	1.226450E-15
7.370000E+03	2.654438E-14	1.179551E-15
7.380000E+03	2.553028E-14	1.131661E-15
7.390000E+03	2.451379E-14	1.083969E-15
7.400000E+03	2.351432E-14	1.037322E-15
7.410000E+03	2.254500E-14	9.922692E-16
7.420000E+03	2.161224E-14	9.490603E-16
7.430000E+03	2.071946E-14	9.078206E-16
7.440000E+03	1.986554E-14	8.684885E-16
7.450000E+03	1.904720E-14	8.309204E-16
7.460000E+03	1.826037E-14	7.949450E-16
7.470000E+03	1.750066E-14	7.603773E-16
7.480000E+03	1.676658E-14	7.271493E-16
7.490000E+03	1.605792E-14	6.952339E-16
7.500000E+03	1.537682E-14	6.646915E-16
7.510000E+03	1.472719E-14	6.356453E-16
7.520000E+03	1.411622E-14	6.083557E-16
7.530000E+03	1.355194E-14	5.831221E-16
7.540000E+03	1.304271E-14	5.602705E-16
7.550000E+03	1.259825E-14	5.402029E-16
7.560000E+03	1.222745E-14	5.233042E-16
7.570000E+03	1.193811E-14	5.099275E-16
7.580000E+03	1.173877E-14	5.004644E-16
7.590000E+03	1.163520E-14	4.951838E-16
7.600000E+03	1.163341E-14	4.943501E-16
7.610000E+03	1.173907E-14	4.981893E-16
7.620000E+03	1.195648E-14	5.068346E-16
7.630000E+03	1.228810E-14	5.203066E-16
7.640000E+03	1.273601E-14	5.385709E-16
7.650000E+03	1.329677E-14	5.613294E-16
7.660000E+03	1.396606E-14	5.882274E-16
7.670000E+03	1.473130E-14	6.185652E-16
7.680000E+03	1.557402E-14	6.514330E-16
7.690000E+03	1.646921E-14	6.857188E-16
7.700000E+03	1.738017E-14	7.199376E-16
7.710000E+03	1.826690E-14	7.526064E-16
7.720000E+03	1.908056E-14	7.820151E-16
7.730000E+03	1.977308E-14	8.065837E-16
7.740000E+03	2.029820E-14	8.248259E-16
7.750000E+03	2.062008E-14	8.356027E-16
7.760000E+03	2.071457E-14	8.380891E-16
