#wls	flux	fluxerr
1.580871E+03	5.993885E-04	5.023240E-06
1.620393E+03	6.313100E-04	5.290762E-06
1.659915E+03	6.589199E-04	5.522149E-06
1.699437E+03	6.812632E-04	5.709399E-06
1.738959E+03	6.973100E-04	5.843881E-06
1.778480E+03	7.049811E-04	5.908170E-06
1.818002E+03	7.018595E-04	5.882009E-06
1.857524E+03	6.855566E-04	5.745381E-06
1.897046E+03	6.544126E-04	5.484375E-06
1.936568E+03	6.087013E-04	5.101286E-06
1.976089E+03	5.522066E-04	4.627826E-06
2.015611E+03	4.929582E-04	4.131288E-06
2.055133E+03	4.424892E-04	3.708328E-06
2.094655E+03	4.123333E-04	3.455603E-06
2.134176E+03	4.109024E-04	3.443611E-06
2.173698E+03	4.423510E-04	3.707169E-06
2.213220E+03	5.069760E-04	4.248766E-06
2.252742E+03	6.019026E-04	5.044308E-06
2.292264E+03	7.216631E-04	6.047973E-06
2.331785E+03	8.595287E-04	7.203370E-06
2.371307E+03	1.009101E-03	8.456881E-06
2.410829E+03	1.165232E-03	9.765351E-06
2.450351E+03	1.324280E-03	1.109827E-05
2.489873E+03	1.483816E-03	1.243528E-05
2.529394E+03	1.642473E-03	1.376492E-05
2.568916E+03	1.799713E-03	1.508268E-05
2.608438E+03	1.955294E-03	1.638655E-05
2.647960E+03	2.109343E-03	1.767757E-05
2.687481E+03	2.261916E-03	1.895622E-05
2.727003E+03	2.413163E-03	2.022376E-05
2.766525E+03	2.563675E-03	2.148514E-05
2.806047E+03	2.713649E-03	2.274202E-05
2.845569E+03	2.863554E-03	2.399831E-05
2.885090E+03	3.013784E-03	2.525733E-05
2.924612E+03	3.164578E-03	2.652107E-05
2.964134E+03	3.316247E-03	2.779215E-05
2.974014E+03	3.354361E-03	2.811157E-05
2.983895E+03	3.392527E-03	2.843142E-05
2.993775E+03	3.430829E-03	2.875241E-05
3.003656E+03	3.469339E-03	2.907515E-05
3.013536E+03	3.508620E-03	2.940435E-05
3.023417E+03	3.549242E-03	2.974479E-05
3.033297E+03	3.591134E-03	3.009586E-05
3.043178E+03	3.634078E-03	3.045577E-05
3.053058E+03	3.678014E-03	3.082397E-05
3.062938E+03	3.722673E-03	3.119824E-05
3.072819E+03	3.768165E-03	3.157949E-05
3.082699E+03	3.814168E-03	3.196503E-05
3.092580E+03	3.860736E-03	3.235529E-05
3.102460E+03	3.907707E-03	3.274894E-05
3.112341E+03	3.955004E-03	3.314531E-05
3.122221E+03	4.002628E-03	3.354444E-05
3.132102E+03	4.050446E-03	3.394518E-05
3.141982E+03	4.098396E-03	3.434703E-05
3.151862E+03	4.146432E-03	3.474960E-05
3.161743E+03	4.194512E-03	3.515253E-05
3.171623E+03	4.242671E-03	3.555614E-05
3.181504E+03	4.290733E-03	3.595893E-05
3.191384E+03	4.338820E-03	3.636193E-05
3.201265E+03	4.386769E-03	3.676376E-05
3.211145E+03	4.434716E-03	3.716559E-05
3.221026E+03	4.482505E-03	3.756609E-05
3.230906E+03	4.530213E-03	3.796591E-05
3.240786E+03	4.577848E-03	3.836512E-05
3.250667E+03	4.625424E-03	3.876384E-05
3.260547E+03	4.672889E-03	3.916162E-05
3.270428E+03	4.720340E-03	3.955929E-05
3.280308E+03	4.767743E-03	3.995656E-05
3.290189E+03	4.815138E-03	4.035375E-05
3.300069E+03	4.862650E-03	4.075193E-05
3.309950E+03	4.910264E-03	4.115097E-05
3.319830E+03	4.958051E-03	4.155145E-05
3.329711E+03	5.006158E-03	4.195462E-05
3.339591E+03	5.054519E-03	4.235991E-05
3.349471E+03	5.103233E-03	4.276816E-05
3.359352E+03	5.152555E-03	4.318151E-05
3.369232E+03	5.202437E-03	4.359955E-05
3.379113E+03	5.253078E-03	4.402396E-05
3.388993E+03	5.304430E-03	4.445431E-05
3.398874E+03	5.356838E-03	4.489352E-05
3.408754E+03	5.410172E-03	4.534049E-05
3.418635E+03	5.464587E-03	4.579652E-05
3.428515E+03	5.520180E-03	4.626243E-05
3.438395E+03	5.577001E-03	4.673862E-05
3.448276E+03	5.635483E-03	4.722874E-05
3.458156E+03	5.695976E-03	4.773570E-05
3.468037E+03	5.758944E-03	4.826341E-05
3.477917E+03	5.824562E-03	4.881333E-05
3.487798E+03	5.893242E-03	4.938891E-05
3.491280E+03	6.161337E-03	5.163571E-05
3.493150E+03	6.351025E-03	5.322541E-05
3.495030E+03	6.602632E-03	5.533403E-05
3.496910E+03	6.782795E-03	5.684390E-05
3.498780E+03	6.794807E-03	5.694457E-05
3.500660E+03	6.765054E-03	5.669522E-05
3.502530E+03	6.846848E-03	5.738070E-05
3.504410E+03	6.930679E-03	5.808325E-05
3.506290E+03	6.882818E-03	5.768215E-05
3.508160E+03	6.822775E-03	5.717895E-05
3.510041E+03	6.821830E-03	5.717104E-05
3.511920E+03	6.887881E-03	5.772458E-05
3.513790E+03	6.936567E-03	5.813260E-05
3.515670E+03	7.019383E-03	5.882665E-05
3.517540E+03	7.075637E-03	5.929810E-05
3.519420E+03	7.040528E-03	5.900386E-05
3.521300E+03	7.150978E-03	5.992950E-05
3.523170E+03	7.345016E-03	6.155565E-05
3.525050E+03	7.562452E-03	6.337790E-05
3.526930E+03	7.737046E-03	6.484109E-05
3.528801E+03	7.941404E-03	6.655374E-05
3.530680E+03	8.150371E-03	6.830500E-05
3.532550E+03	8.181036E-03	6.856200E-05
3.534430E+03	8.280075E-03	6.939201E-05
3.536310E+03	8.436470E-03	7.070269E-05
3.538180E+03	8.568577E-03	7.180982E-05
3.540060E+03	8.658152E-03	7.256052E-05
3.541930E+03	8.792794E-03	7.368890E-05
3.543810E+03	9.068721E-03	7.600134E-05
3.545690E+03	9.313897E-03	7.805606E-05
3.547560E+03	9.490588E-03	7.953683E-05
3.549440E+03	9.528456E-03	7.985419E-05
3.551310E+03	9.544085E-03	7.998517E-05
3.553190E+03	9.640731E-03	8.079512E-05
3.555070E+03	9.748583E-03	8.169899E-05
3.556940E+03	9.862075E-03	8.265012E-05
3.558820E+03	9.945467E-03	8.334899E-05
3.560701E+03	1.001989E-02	8.397266E-05
3.562570E+03	1.006820E-02	8.437753E-05
3.564450E+03	9.994955E-03	8.376373E-05
3.566320E+03	9.900293E-03	8.297040E-05
3.568200E+03	9.874677E-03	8.275573E-05
3.570080E+03	9.930340E-03	8.322222E-05
3.571950E+03	1.002476E-02	8.401353E-05
3.573830E+03	1.004052E-02	8.414561E-05
3.575710E+03	9.982227E-03	8.365706E-05
3.577580E+03	9.887060E-03	8.285950E-05
3.579460E+03	9.800536E-03	8.213438E-05
3.581330E+03	9.809477E-03	8.220931E-05
3.583210E+03	9.871604E-03	8.272997E-05
3.585090E+03	9.805759E-03	8.217815E-05
3.586960E+03	9.673049E-03	8.106597E-05
3.588840E+03	9.590112E-03	8.037091E-05
3.590710E+03	9.481395E-03	7.945978E-05
3.592590E+03	9.358630E-03	7.843094E-05
3.594470E+03	9.291548E-03	7.786876E-05
3.596340E+03	9.251233E-03	7.753089E-05
3.598220E+03	9.235881E-03	7.740224E-05
3.600090E+03	9.272107E-03	7.770583E-05
3.601970E+03	9.410384E-03	7.886467E-05
3.603850E+03	9.556908E-03	8.009264E-05
3.605720E+03	9.618706E-03	8.061054E-05
3.607600E+03	9.609989E-03	8.053749E-05
3.609480E+03	9.586613E-03	8.034157E-05
3.611350E+03	9.632338E-03	8.072478E-05
3.613230E+03	9.722745E-03	8.148245E-05
3.615100E+03	9.797914E-03	8.211240E-05
3.616980E+03	9.810447E-03	8.221744E-05
3.618860E+03	9.819858E-03	8.229632E-05
3.620730E+03	9.851476E-03	8.256129E-05
3.622610E+03	9.861041E-03	8.264145E-05
3.624480E+03	9.878380E-03	8.278676E-05
3.626360E+03	9.967282E-03	8.353182E-05
3.628240E+03	9.970370E-03	8.355770E-05
3.630110E+03	9.844877E-03	8.250599E-05
3.631990E+03	9.759073E-03	8.178690E-05
3.633870E+03	9.686036E-03	8.117480E-05
3.635740E+03	9.634460E-03	8.074256E-05
3.637620E+03	9.676487E-03	8.109477E-05
3.639490E+03	9.715005E-03	8.141758E-05
3.641370E+03	9.701868E-03	8.130748E-05
3.643250E+03	9.647717E-03	8.085366E-05
3.645120E+03	9.621521E-03	8.063412E-05
3.647000E+03	9.604929E-03	8.049508E-05
3.648870E+03	9.556717E-03	8.009103E-05
3.650750E+03	9.387531E-03	7.867315E-05
3.652630E+03	9.171679E-03	7.686418E-05
3.654501E+03	9.094136E-03	7.621433E-05
3.656380E+03	9.101333E-03	7.627464E-05
3.658260E+03	9.044484E-03	7.579821E-05
3.660130E+03	8.936144E-03	7.489026E-05
3.662010E+03	8.875886E-03	7.438525E-05
3.663880E+03	8.848895E-03	7.415905E-05
3.665760E+03	8.772958E-03	7.352266E-05
3.667640E+03	8.723977E-03	7.311217E-05
3.669510E+03	8.769250E-03	7.349158E-05
3.671390E+03	8.775857E-03	7.354695E-05
3.673260E+03	8.748149E-03	7.331474E-05
3.675140E+03	8.778398E-03	7.356825E-05
3.677020E+03	8.768752E-03	7.348741E-05
3.678890E+03	8.709343E-03	7.298952E-05
3.680770E+03	8.695085E-03	7.287004E-05
3.682650E+03	8.734418E-03	7.319967E-05
3.684520E+03	8.810074E-03	7.383372E-05
3.686400E+03	8.893851E-03	7.453581E-05
3.688270E+03	8.967356E-03	7.515183E-05
3.690150E+03	9.041717E-03	7.577502E-05
3.692030E+03	9.100710E-03	7.626942E-05
3.693900E+03	9.092205E-03	7.619814E-05
3.695780E+03	9.083722E-03	7.612705E-05
3.697660E+03	9.155854E-03	7.673156E-05
3.699530E+03	9.248874E-03	7.751112E-05
3.701410E+03	9.290975E-03	7.786395E-05
3.703280E+03	9.295098E-03	7.789850E-05
3.705160E+03	9.318708E-03	7.809637E-05
3.707040E+03	9.364499E-03	7.848012E-05
3.708910E+03	9.377257E-03	7.858705E-05
3.710790E+03	9.378909E-03	7.860090E-05
3.712660E+03	9.445039E-03	7.915510E-05
3.714540E+03	9.544871E-03	7.999176E-05
3.716420E+03	9.606296E-03	8.050653E-05
3.718290E+03	9.667497E-03	8.101943E-05
3.720170E+03	9.718892E-03	8.145015E-05
3.722040E+03	9.770834E-03	8.188545E-05
3.723920E+03	9.831977E-03	8.239788E-05
3.725800E+03	9.881218E-03	8.281054E-05
3.727670E+03	9.882873E-03	8.282441E-05
3.729550E+03	9.831515E-03	8.239400E-05
3.731430E+03	9.760400E-03	8.179801E-05
3.733300E+03	9.687791E-03	8.118951E-05
3.735180E+03	9.627526E-03	8.068445E-05
3.737050E+03	9.605878E-03	8.050303E-05
3.738930E+03	9.586691E-03	8.034223E-05
3.740810E+03	9.542706E-03	7.997361E-05
3.742680E+03	9.514680E-03	7.973874E-05
3.744560E+03	9.524261E-03	7.981903E-05
3.746430E+03	9.495309E-03	7.957639E-05
3.748309E+03	9.445273E-03	7.915706E-05
3.750190E+03	9.424702E-03	7.898466E-05
3.752060E+03	9.467925E-03	7.934690E-05
3.753940E+03	9.514843E-03	7.974010E-05
3.755820E+03	9.550015E-03	8.003486E-05
3.757690E+03	9.610100E-03	8.053841E-05
3.759570E+03	9.691286E-03	8.121879E-05
3.761440E+03	9.779790E-03	8.196051E-05
3.763320E+03	9.826997E-03	8.235614E-05
3.765200E+03	9.813598E-03	8.224385E-05
3.767070E+03	9.805361E-03	8.217481E-05
3.768950E+03	9.843825E-03	8.249716E-05
3.770820E+03	9.900776E-03	8.297445E-05
3.772700E+03	9.946886E-03	8.336088E-05
3.774580E+03	1.001973E-02	8.397137E-05
3.776450E+03	1.010136E-02	8.465549E-05
3.778330E+03	1.018375E-02	8.534596E-05
3.780209E+03	1.025866E-02	8.597375E-05
3.782080E+03	1.032019E-02	8.648942E-05
3.783960E+03	1.036198E-02	8.683960E-05
3.785830E+03	1.040679E-02	8.721514E-05
3.787710E+03	1.048812E-02	8.789673E-05
3.789590E+03	1.057006E-02	8.858347E-05
3.791460E+03	1.067848E-02	8.949209E-05
3.793340E+03	1.077029E-02	9.026146E-05
3.795210E+03	1.087617E-02	9.114886E-05
3.797090E+03	1.098534E-02	9.206373E-05
3.798970E+03	1.105938E-02	9.268422E-05
3.800840E+03	1.113097E-02	9.328421E-05
3.802720E+03	1.119926E-02	9.385653E-05
3.804600E+03	1.125740E-02	9.434375E-05
3.806470E+03	1.133368E-02	9.498301E-05
3.808350E+03	1.140220E-02	9.555725E-05
3.810220E+03	1.143803E-02	9.585759E-05
3.812100E+03	1.143884E-02	9.586435E-05
3.813980E+03	1.145189E-02	9.597372E-05
3.815850E+03	1.150508E-02	9.641945E-05
3.817730E+03	1.158231E-02	9.706672E-05
3.819600E+03	1.164656E-02	9.760515E-05
3.821480E+03	1.170683E-02	9.811023E-05
3.823360E+03	1.174263E-02	9.841030E-05
3.825230E+03	1.176762E-02	9.861975E-05
3.827110E+03	1.181764E-02	9.903891E-05
3.828990E+03	1.187867E-02	9.955039E-05
3.830860E+03	1.192639E-02	9.995031E-05
3.832740E+03	1.196997E-02	1.003155E-04
3.834610E+03	1.201198E-02	1.006676E-04
3.836490E+03	1.203688E-02	1.008763E-04
3.838370E+03	1.203095E-02	1.008266E-04
3.840240E+03	1.200499E-02	1.006090E-04
3.842120E+03	1.199535E-02	1.005282E-04
3.843990E+03	1.200065E-02	1.005727E-04
3.845870E+03	1.199791E-02	1.005497E-04
3.847750E+03	1.197354E-02	1.003454E-04
3.849620E+03	1.194446E-02	1.001017E-04
3.851500E+03	1.192975E-02	9.997847E-05
3.853380E+03	1.192314E-02	9.992309E-05
3.855249E+03	1.189668E-02	9.970131E-05
3.857130E+03	1.185546E-02	9.935586E-05
3.859000E+03	1.182376E-02	9.909019E-05
3.860880E+03	1.181218E-02	9.899318E-05
3.862760E+03	1.182672E-02	9.911503E-05
3.864630E+03	1.186139E-02	9.940558E-05
3.866510E+03	1.188466E-02	9.960060E-05
3.868380E+03	1.188883E-02	9.963557E-05
3.870260E+03	1.188611E-02	9.961273E-05
3.872140E+03	1.186388E-02	9.942644E-05
3.874009E+03	1.182461E-02	9.909735E-05
3.875890E+03	1.181425E-02	9.901051E-05
3.877770E+03	1.183399E-02	9.917595E-05
3.879640E+03	1.182869E-02	9.913153E-05
3.881520E+03	1.180921E-02	9.896829E-05
3.883390E+03	1.180042E-02	9.889461E-05
3.885270E+03	1.179340E-02	9.883573E-05
3.887149E+03	1.178623E-02	9.877572E-05
3.889020E+03	1.176978E-02	9.863784E-05
3.890900E+03	1.173306E-02	9.833010E-05
3.892769E+03	1.168955E-02	9.796547E-05
3.894650E+03	1.169701E-02	9.802797E-05
3.896530E+03	1.173193E-02	9.832060E-05
3.898400E+03	1.173078E-02	9.831099E-05
3.900280E+03	1.169397E-02	9.800245E-05
3.902160E+03	1.166197E-02	9.773435E-05
3.904030E+03	1.166215E-02	9.773582E-05
3.905909E+03	1.166061E-02	9.772292E-05
3.907780E+03	1.163447E-02	9.750388E-05
3.909660E+03	1.158511E-02	9.709021E-05
3.911540E+03	1.154503E-02	9.675432E-05
3.913410E+03	1.153449E-02	9.666594E-05
3.915290E+03	1.152492E-02	9.658579E-05
3.917160E+03	1.151085E-02	9.646785E-05
3.919040E+03	1.151468E-02	9.649992E-05
3.920920E+03	1.154277E-02	9.673533E-05
3.922790E+03	1.157412E-02	9.699804E-05
3.924670E+03	1.159198E-02	9.714772E-05
3.926550E+03	1.157755E-02	9.702681E-05
3.928420E+03	1.154909E-02	9.678834E-05
3.930300E+03	1.155937E-02	9.687448E-05
3.932170E+03	1.158920E-02	9.712449E-05
3.934050E+03	1.159504E-02	9.717335E-05
3.935930E+03	1.159979E-02	9.721316E-05
3.937800E+03	1.163065E-02	9.747187E-05
3.939680E+03	1.166610E-02	9.776892E-05
3.941550E+03	1.171246E-02	9.815743E-05
3.943430E+03	1.175031E-02	9.847468E-05
3.945310E+03	1.176405E-02	9.858984E-05
3.947180E+03	1.176809E-02	9.862362E-05
3.949060E+03	1.176970E-02	9.863717E-05
3.950940E+03	1.179552E-02	9.885354E-05
3.952810E+03	1.182175E-02	9.907332E-05
3.954690E+03	1.181424E-02	9.901040E-05
3.956560E+03	1.180833E-02	9.896089E-05
3.958440E+03	1.179931E-02	9.888527E-05
3.960320E+03	1.179439E-02	9.884407E-05
3.962190E+03	1.183182E-02	9.915777E-05
3.964070E+03	1.188648E-02	9.961581E-05
3.965940E+03	1.187457E-02	9.951606E-05
3.967820E+03	1.185541E-02	9.935547E-05
3.969700E+03	1.186881E-02	9.946772E-05
3.971570E+03	1.189952E-02	9.972514E-05
3.973450E+03	1.194613E-02	1.001158E-04
3.975331E+03	1.198950E-02	1.004792E-04
3.977200E+03	1.203039E-02	1.008219E-04
3.979080E+03	1.208530E-02	1.012821E-04
3.980950E+03	1.214644E-02	1.017944E-04
3.982830E+03	1.218133E-02	1.020868E-04
3.984710E+03	1.221115E-02	1.023368E-04
3.986580E+03	1.226930E-02	1.028241E-04
3.988460E+03	1.233902E-02	1.034084E-04
3.990330E+03	1.238997E-02	1.038354E-04
3.992210E+03	1.241432E-02	1.040395E-04
3.994091E+03	1.244174E-02	1.042692E-04
3.995960E+03	1.247801E-02	1.045732E-04
3.997840E+03	1.252187E-02	1.049407E-04
3.999720E+03	1.256979E-02	1.053424E-04
4.001590E+03	1.258289E-02	1.054522E-04
4.003470E+03	1.257522E-02	1.053879E-04
4.005340E+03	1.261336E-02	1.057075E-04
4.007220E+03	1.270190E-02	1.064495E-04
4.009100E+03	1.279473E-02	1.072275E-04
4.010970E+03	1.286452E-02	1.078124E-04
4.012850E+03	1.292286E-02	1.083013E-04
4.014720E+03	1.298277E-02	1.088034E-04
4.016600E+03	1.302452E-02	1.091533E-04
4.018480E+03	1.305391E-02	1.093996E-04
4.020350E+03	1.310729E-02	1.098470E-04
4.022230E+03	1.316149E-02	1.103011E-04
4.024110E+03	1.320428E-02	1.106598E-04
4.025980E+03	1.324973E-02	1.110407E-04
4.027860E+03	1.329906E-02	1.114541E-04
4.029730E+03	1.336184E-02	1.119803E-04
4.031610E+03	1.341984E-02	1.124663E-04
4.033490E+03	1.346487E-02	1.128437E-04
4.035360E+03	1.349728E-02	1.131153E-04
4.037240E+03	1.352009E-02	1.133065E-04
4.039110E+03	1.354247E-02	1.134940E-04
4.040990E+03	1.356364E-02	1.136715E-04
4.042870E+03	1.357248E-02	1.137455E-04
4.044740E+03	1.358338E-02	1.138369E-04
4.046620E+03	1.361391E-02	1.140927E-04
4.048500E+03	1.363574E-02	1.142756E-04
4.050371E+03	1.363092E-02	1.142353E-04
4.052250E+03	1.362514E-02	1.141869E-04
4.054120E+03	1.363526E-02	1.142717E-04
4.056000E+03	1.362948E-02	1.142233E-04
4.057880E+03	1.360647E-02	1.140304E-04
4.059750E+03	1.359059E-02	1.138973E-04
4.061630E+03	1.358887E-02	1.138829E-04
4.063500E+03	1.359856E-02	1.139641E-04
4.065380E+03	1.361850E-02	1.141312E-04
4.067260E+03	1.362868E-02	1.142165E-04
4.069131E+03	1.362381E-02	1.141757E-04
4.071010E+03	1.361699E-02	1.141185E-04
4.072890E+03	1.360519E-02	1.140197E-04
4.074760E+03	1.359234E-02	1.139120E-04
4.076640E+03	1.358761E-02	1.138723E-04
4.078510E+03	1.357032E-02	1.137274E-04
4.080390E+03	1.354637E-02	1.135267E-04
4.082271E+03	1.353534E-02	1.134343E-04
4.084140E+03	1.354203E-02	1.134904E-04
4.086020E+03	1.353639E-02	1.134431E-04
4.087891E+03	1.351929E-02	1.132998E-04
4.089770E+03	1.350391E-02	1.131709E-04
4.091650E+03	1.349452E-02	1.130922E-04
4.093520E+03	1.348692E-02	1.130285E-04
4.095400E+03	1.348492E-02	1.130117E-04
4.097280E+03	1.349477E-02	1.130943E-04
4.099150E+03	1.351604E-02	1.132725E-04
4.101031E+03	1.353236E-02	1.134093E-04
4.102900E+03	1.356210E-02	1.136585E-04
4.104780E+03	1.358791E-02	1.138749E-04
4.106660E+03	1.361618E-02	1.141118E-04
4.108530E+03	1.365376E-02	1.144267E-04
4.110410E+03	1.367348E-02	1.145920E-04
4.112280E+03	1.369347E-02	1.147595E-04
4.114160E+03	1.374469E-02	1.151887E-04
4.116040E+03	1.380545E-02	1.156980E-04
4.117910E+03	1.385718E-02	1.161315E-04
4.119791E+03	1.390742E-02	1.165525E-04
4.121670E+03	1.395843E-02	1.169800E-04
4.123540E+03	1.401478E-02	1.174523E-04
4.125420E+03	1.408897E-02	1.180740E-04
4.127290E+03	1.417329E-02	1.187807E-04
4.129170E+03	1.422686E-02	1.192296E-04
4.131050E+03	1.425665E-02	1.194793E-04
4.132920E+03	1.428324E-02	1.197021E-04
4.134800E+03	1.431120E-02	1.199365E-04
4.136670E+03	1.434276E-02	1.202009E-04
4.138551E+03	1.439423E-02	1.206323E-04
4.140430E+03	1.444719E-02	1.210761E-04
4.142300E+03	1.447466E-02	1.213063E-04
4.144180E+03	1.449755E-02	1.214982E-04
4.146060E+03	1.451146E-02	1.216147E-04
4.147930E+03	1.451386E-02	1.216349E-04
4.149810E+03	1.451064E-02	1.216079E-04
4.151680E+03	1.452349E-02	1.217156E-04
4.153560E+03	1.454935E-02	1.219322E-04
4.155440E+03	1.455324E-02	1.219649E-04
4.157310E+03	1.452053E-02	1.216908E-04
4.159190E+03	1.446787E-02	1.212494E-04
4.161060E+03	1.442631E-02	1.209011E-04
4.162940E+03	1.438358E-02	1.205430E-04
4.164820E+03	1.435012E-02	1.202626E-04
4.166690E+03	1.432986E-02	1.200928E-04
4.168570E+03	1.428273E-02	1.196978E-04
4.170450E+03	1.422456E-02	1.192103E-04
4.172320E+03	1.418486E-02	1.188776E-04
4.174200E+03	1.414601E-02	1.185521E-04
4.176070E+03	1.409843E-02	1.181533E-04
4.177950E+03	1.405098E-02	1.177556E-04
4.179830E+03	1.400185E-02	1.173439E-04
4.181700E+03	1.393882E-02	1.168156E-04
4.183580E+03	1.386281E-02	1.161787E-04
4.185450E+03	1.378008E-02	1.154853E-04
4.187330E+03	1.369433E-02	1.147667E-04
4.189210E+03	1.361068E-02	1.140657E-04
4.191080E+03	1.354616E-02	1.135250E-04
4.192960E+03	1.350927E-02	1.132158E-04
4.194840E+03	1.348161E-02	1.129840E-04
4.196710E+03	1.343794E-02	1.126180E-04
4.198590E+03	1.337789E-02	1.121147E-04
4.200460E+03	1.331890E-02	1.116203E-04
4.202340E+03	1.326680E-02	1.111838E-04
4.204220E+03	1.322882E-02	1.108654E-04
4.206090E+03	1.321143E-02	1.107197E-04
4.207970E+03	1.320322E-02	1.106509E-04
4.209840E+03	1.318000E-02	1.104563E-04
4.211720E+03	1.314805E-02	1.101885E-04
4.213600E+03	1.313842E-02	1.101078E-04
4.215470E+03	1.315080E-02	1.102116E-04
4.217350E+03	1.317984E-02	1.104550E-04
4.219230E+03	1.321824E-02	1.107768E-04
4.221100E+03	1.325515E-02	1.110861E-04
4.222980E+03	1.328663E-02	1.113500E-04
4.224850E+03	1.331439E-02	1.115825E-04
4.226730E+03	1.333594E-02	1.117631E-04
4.228610E+03	1.334412E-02	1.118317E-04
4.230480E+03	1.335642E-02	1.119348E-04
4.232360E+03	1.339408E-02	1.122505E-04
4.234230E+03	1.347123E-02	1.128970E-04
4.236110E+03	1.354013E-02	1.134744E-04
4.237990E+03	1.357792E-02	1.137911E-04
4.239860E+03	1.360688E-02	1.140338E-04
4.241740E+03	1.363619E-02	1.142795E-04
4.243620E+03	1.365582E-02	1.144439E-04
4.245490E+03	1.367300E-02	1.145880E-04
4.247370E+03	1.371149E-02	1.149105E-04
4.249240E+03	1.377885E-02	1.154750E-04
4.251120E+03	1.385844E-02	1.161421E-04
4.253000E+03	1.393120E-02	1.167518E-04
4.254870E+03	1.395376E-02	1.169409E-04
4.256750E+03	1.396227E-02	1.170122E-04
4.258620E+03	1.398663E-02	1.172163E-04
4.260500E+03	1.400174E-02	1.173430E-04
4.262380E+03	1.403352E-02	1.176093E-04
4.264250E+03	1.408993E-02	1.180821E-04
4.266130E+03	1.411605E-02	1.183010E-04
4.268010E+03	1.412788E-02	1.184001E-04
4.269880E+03	1.419071E-02	1.189267E-04
4.271760E+03	1.428391E-02	1.197077E-04
4.273630E+03	1.436178E-02	1.203603E-04
4.275510E+03	1.441321E-02	1.207913E-04
4.277390E+03	1.445184E-02	1.211151E-04
4.279260E+03	1.449544E-02	1.214804E-04
4.281140E+03	1.455074E-02	1.219439E-04
4.283010E+03	1.461555E-02	1.224871E-04
