#wls	flux	fluxerr
1.590679E+03	1.570835E-03	7.429735E-06
1.630446E+03	1.568374E-03	7.418091E-06
1.670213E+03	1.566240E-03	7.407997E-06
1.709980E+03	1.564481E-03	7.399682E-06
1.749746E+03	1.563196E-03	7.393600E-06
1.789513E+03	1.563376E-03	7.394452E-06
1.829280E+03	1.564419E-03	7.399384E-06
1.869047E+03	1.567478E-03	7.413853E-06
1.908814E+03	1.572549E-03	7.437841E-06
1.948581E+03	1.580989E-03	7.477759E-06
1.988348E+03	1.593426E-03	7.536581E-06
2.028115E+03	1.610175E-03	7.615803E-06
2.067882E+03	1.632913E-03	7.723346E-06
2.107649E+03	1.662559E-03	7.863569E-06
2.147416E+03	1.700095E-03	8.041108E-06
2.187183E+03	1.746511E-03	8.260645E-06
2.226950E+03	1.803642E-03	8.530860E-06
2.266717E+03	1.872369E-03	8.855928E-06
2.306484E+03	1.952950E-03	9.237061E-06
2.346251E+03	2.046796E-03	9.680929E-06
2.386018E+03	2.154158E-03	1.018873E-05
2.425785E+03	2.275493E-03	1.076262E-05
2.465552E+03	2.410467E-03	1.140102E-05
2.505319E+03	2.560026E-03	1.210841E-05
2.545086E+03	2.722783E-03	1.287822E-05
2.584853E+03	2.898729E-03	1.371040E-05
2.624620E+03	3.087198E-03	1.460182E-05
2.664387E+03	3.288698E-03	1.555488E-05
2.704154E+03	3.502032E-03	1.656390E-05
2.743921E+03	3.727888E-03	1.763216E-05
2.783688E+03	3.965830E-03	1.875757E-05
2.823455E+03	4.216127E-03	1.994143E-05
2.863222E+03	4.479786E-03	2.118848E-05
2.902988E+03	4.757909E-03	2.250395E-05
2.942755E+03	5.050312E-03	2.388695E-05
2.982522E+03	5.359520E-03	2.534945E-05
2.992464E+03	5.440178E-03	2.573094E-05
3.002406E+03	5.520935E-03	2.611291E-05
3.012348E+03	5.603132E-03	2.650168E-05
3.022289E+03	5.686756E-03	2.689721E-05
3.032231E+03	5.771794E-03	2.729942E-05
3.042173E+03	5.857555E-03	2.770505E-05
3.052115E+03	5.944703E-03	2.811724E-05
3.062056E+03	6.033226E-03	2.853594E-05
3.071998E+03	6.123109E-03	2.896107E-05
3.081940E+03	6.214337E-03	2.939256E-05
3.091882E+03	6.306897E-03	2.983035E-05
3.101823E+03	6.400773E-03	3.027436E-05
3.111765E+03	6.496626E-03	3.072773E-05
3.121707E+03	6.593085E-03	3.118396E-05
3.131649E+03	6.691486E-03	3.164938E-05
3.141590E+03	6.791805E-03	3.212386E-05
3.151532E+03	6.893358E-03	3.260419E-05
3.161474E+03	6.996113E-03	3.309020E-05
3.171416E+03	7.100731E-03	3.358502E-05
3.181357E+03	7.207186E-03	3.408853E-05
3.191299E+03	7.314769E-03	3.459738E-05
3.201241E+03	7.424813E-03	3.511786E-05
3.211182E+03	7.535927E-03	3.564341E-05
3.221124E+03	7.649433E-03	3.618027E-05
3.231066E+03	7.763948E-03	3.672190E-05
3.241008E+03	7.880772E-03	3.727446E-05
3.250949E+03	7.998528E-03	3.783142E-05
3.260891E+03	8.119179E-03	3.840208E-05
3.270833E+03	8.240668E-03	3.897669E-05
3.280775E+03	8.364276E-03	3.956134E-05
3.290716E+03	8.489948E-03	4.015574E-05
3.300658E+03	8.616952E-03	4.075644E-05
3.310600E+03	8.745892E-03	4.136630E-05
3.320542E+03	8.876691E-03	4.198495E-05
3.330483E+03	9.009280E-03	4.261207E-05
3.340425E+03	9.143574E-03	4.324726E-05
3.350367E+03	9.279492E-03	4.389012E-05
3.360309E+03	9.417598E-03	4.454333E-05
3.370250E+03	9.556505E-03	4.520034E-05
3.380192E+03	9.697415E-03	4.586681E-05
3.390134E+03	9.840244E-03	4.654236E-05
3.400076E+03	9.984247E-03	4.722347E-05
3.410017E+03	1.012933E-02	4.790970E-05
3.419959E+03	1.027671E-02	4.860674E-05
3.429901E+03	1.042499E-02	4.930808E-05
3.439843E+03	1.057475E-02	5.001643E-05
3.449784E+03	1.072592E-02	5.073141E-05
3.453761E+03	1.099712E-02	5.201414E-05
3.455222E+03	1.104841E-02	5.225673E-05
3.456684E+03	1.111745E-02	5.258330E-05
3.458145E+03	1.121581E-02	5.304852E-05
3.459607E+03	1.128563E-02	5.337874E-05
3.461068E+03	1.133617E-02	5.361779E-05
3.462530E+03	1.141448E-02	5.398820E-05
3.463991E+03	1.146658E-02	5.423459E-05
3.465452E+03	1.151018E-02	5.444082E-05
3.466914E+03	1.154375E-02	5.459962E-05
3.468375E+03	1.157039E-02	5.472560E-05
3.469837E+03	1.160706E-02	5.489902E-05
3.471298E+03	1.165222E-02	5.511262E-05
3.472760E+03	1.167963E-02	5.524227E-05
3.474221E+03	1.170473E-02	5.536100E-05
3.475683E+03	1.174449E-02	5.554906E-05
3.477144E+03	1.177577E-02	5.569701E-05
3.478605E+03	1.181013E-02	5.585955E-05
3.480067E+03	1.184991E-02	5.604766E-05
3.481528E+03	1.188582E-02	5.621751E-05
3.482990E+03	1.191556E-02	5.635819E-05
3.484451E+03	1.194375E-02	5.649153E-05
3.485913E+03	1.196346E-02	5.658477E-05
3.487374E+03	1.197314E-02	5.663052E-05
3.488835E+03	1.199054E-02	5.671281E-05
3.490297E+03	1.200175E-02	5.676587E-05
3.491758E+03	1.199907E-02	5.675318E-05
3.493220E+03	1.200875E-02	5.679897E-05
3.494681E+03	1.202692E-02	5.688488E-05
3.496143E+03	1.202424E-02	5.687223E-05
3.497604E+03	1.200921E-02	5.680115E-05
3.499065E+03	1.200267E-02	5.677019E-05
3.500527E+03	1.200153E-02	5.676483E-05
3.501988E+03	1.199113E-02	5.671563E-05
3.503450E+03	1.198923E-02	5.670661E-05
3.504911E+03	1.199581E-02	5.673775E-05
3.506373E+03	1.199158E-02	5.671776E-05
3.507834E+03	1.199199E-02	5.671970E-05
3.509296E+03	1.199858E-02	5.675083E-05
3.510757E+03	1.199126E-02	5.671623E-05
3.512218E+03	1.197853E-02	5.665604E-05
3.513680E+03	1.196195E-02	5.657758E-05
3.515141E+03	1.194458E-02	5.649546E-05
3.516603E+03	1.193495E-02	5.644988E-05
3.518064E+03	1.189595E-02	5.626543E-05
3.519526E+03	1.191103E-02	5.633677E-05
3.520987E+03	1.192534E-02	5.640443E-05
3.522448E+03	1.193578E-02	5.645382E-05
3.523910E+03	1.195782E-02	5.655806E-05
3.525371E+03	1.198758E-02	5.669882E-05
3.526833E+03	1.200189E-02	5.676652E-05
3.528294E+03	1.203011E-02	5.689998E-05
3.529756E+03	1.203283E-02	5.691286E-05
3.531217E+03	1.204791E-02	5.698419E-05
3.532679E+03	1.207459E-02	5.711037E-05
3.534140E+03	1.211750E-02	5.731332E-05
3.535601E+03	1.216659E-02	5.754552E-05
3.537063E+03	1.218864E-02	5.764979E-05
3.538524E+03	1.221068E-02	5.775406E-05
3.539986E+03	1.228142E-02	5.808864E-05
3.541447E+03	1.233517E-02	5.834284E-05
3.542909E+03	1.233171E-02	5.832648E-05
3.544370E+03	1.232980E-02	5.831744E-05
3.545831E+03	1.235726E-02	5.844735E-05
3.547293E+03	1.235380E-02	5.843100E-05
3.548754E+03	1.230474E-02	5.819893E-05
3.550216E+03	1.231055E-02	5.822643E-05
3.551677E+03	1.233957E-02	5.836366E-05
3.553139E+03	1.239100E-02	5.860692E-05
3.554600E+03	1.243547E-02	5.881728E-05
3.556061E+03	1.244826E-02	5.887773E-05
3.557523E+03	1.247727E-02	5.901497E-05
3.558984E+03	1.253722E-02	5.929851E-05
3.560446E+03	1.259330E-02	5.956378E-05
3.561907E+03	1.265713E-02	5.986566E-05
3.563369E+03	1.271554E-02	6.014192E-05
3.564830E+03	1.274302E-02	6.027191E-05
3.566292E+03	1.275581E-02	6.033238E-05
3.567753E+03	1.277556E-02	6.042580E-05
3.569214E+03	1.281465E-02	6.061069E-05
3.570676E+03	1.281197E-02	6.059802E-05
3.572137E+03	1.277680E-02	6.043168E-05
3.573599E+03	1.273545E-02	6.023610E-05
3.575060E+03	1.267552E-02	5.995266E-05
3.576522E+03	1.268212E-02	5.998386E-05
3.577983E+03	1.269259E-02	6.003337E-05
3.579444E+03	1.269068E-02	6.002433E-05
3.580906E+03	1.266091E-02	5.988354E-05
3.582367E+03	1.265668E-02	5.986352E-05
3.583829E+03	1.263929E-02	5.978128E-05
3.585290E+03	1.258321E-02	5.951606E-05
3.586752E+03	1.252868E-02	5.925814E-05
3.588213E+03	1.251051E-02	5.917218E-05
3.589675E+03	1.250627E-02	5.915212E-05
3.591136E+03	1.252523E-02	5.924181E-05
3.592597E+03	1.247533E-02	5.900581E-05
3.594059E+03	1.245639E-02	5.891619E-05
3.595520E+03	1.243124E-02	5.879727E-05
3.596982E+03	1.240919E-02	5.869298E-05
3.598443E+03	1.241346E-02	5.871314E-05
3.599905E+03	1.237979E-02	5.855391E-05
3.601366E+03	1.240572E-02	5.867655E-05
3.602827E+03	1.243088E-02	5.879553E-05
3.604289E+03	1.244443E-02	5.885962E-05
3.605750E+03	1.247423E-02	5.900058E-05
3.607212E+03	1.248158E-02	5.903537E-05
3.608673E+03	1.246417E-02	5.895299E-05
3.610135E+03	1.245527E-02	5.891089E-05
3.611596E+03	1.247733E-02	5.901526E-05
3.613057E+03	1.246998E-02	5.898048E-05
3.614519E+03	1.245333E-02	5.890174E-05
3.615980E+03	1.245527E-02	5.891089E-05
3.617442E+03	1.245487E-02	5.890903E-05
3.618903E+03	1.246222E-02	5.894379E-05
3.620365E+03	1.247964E-02	5.902619E-05
3.621826E+03	1.248235E-02	5.903899E-05
3.623288E+03	1.249590E-02	5.910306E-05
3.624749E+03	1.250789E-02	5.915978E-05
3.626210E+03	1.250440E-02	5.914329E-05
3.627672E+03	1.249007E-02	5.907549E-05
3.629133E+03	1.247806E-02	5.901870E-05
3.630595E+03	1.249780E-02	5.911204E-05
3.632056E+03	1.250747E-02	5.915779E-05
3.633518E+03	1.249701E-02	5.910831E-05
3.634979E+03	1.249971E-02	5.912108E-05
3.636440E+03	1.252099E-02	5.922177E-05
3.637902E+03	1.252369E-02	5.923454E-05
3.639363E+03	1.251632E-02	5.919968E-05
3.640825E+03	1.251902E-02	5.921244E-05
3.642286E+03	1.253179E-02	5.927282E-05
3.643748E+03	1.250272E-02	5.913534E-05
3.645209E+03	1.245817E-02	5.892460E-05
3.646671E+03	1.242057E-02	5.874680E-05
3.648132E+03	1.241009E-02	5.869722E-05
3.649593E+03	1.239729E-02	5.863666E-05
3.651055E+03	1.235427E-02	5.843320E-05
3.652516E+03	1.232829E-02	5.831032E-05
3.653978E+03	1.231393E-02	5.824241E-05
3.655439E+03	1.229414E-02	5.814880E-05
3.656901E+03	1.226894E-02	5.802959E-05
3.658362E+03	1.222900E-02	5.784069E-05
3.659823E+03	1.220611E-02	5.773241E-05
3.661285E+03	1.218709E-02	5.764247E-05
3.662746E+03	1.216729E-02	5.754882E-05
3.664208E+03	1.216145E-02	5.752118E-05
3.665669E+03	1.214630E-02	5.744952E-05
3.667131E+03	1.214975E-02	5.746585E-05
3.668592E+03	1.220590E-02	5.773142E-05
3.670053E+03	1.222795E-02	5.783571E-05
3.671515E+03	1.227248E-02	5.804632E-05
3.672976E+03	1.231313E-02	5.823860E-05
3.674438E+03	1.233053E-02	5.832091E-05
3.675899E+03	1.235026E-02	5.841424E-05
3.677361E+03	1.239014E-02	5.860286E-05
3.678822E+03	1.241453E-02	5.871820E-05
3.680284E+03	1.248930E-02	5.907184E-05
3.681745E+03	1.256794E-02	5.944383E-05
3.683206E+03	1.261792E-02	5.968018E-05
3.684668E+03	1.266478E-02	5.990186E-05
3.686129E+03	1.270468E-02	6.009056E-05
3.687591E+03	1.275155E-02	6.031224E-05
3.689052E+03	1.282169E-02	6.064398E-05
3.690514E+03	1.288252E-02	6.093170E-05
3.691975E+03	1.293870E-02	6.119745E-05
3.693436E+03	1.304529E-02	6.170160E-05
3.694898E+03	1.317127E-02	6.229745E-05
3.696359E+03	1.326856E-02	6.275761E-05
3.697821E+03	1.337827E-02	6.327649E-05
3.699282E+03	1.353683E-02	6.402647E-05
3.700744E+03	1.370316E-02	6.481318E-05
3.702205E+03	1.387726E-02	6.563661E-05
3.703667E+03	1.404050E-02	6.640870E-05
3.705128E+03	1.421770E-02	6.724686E-05
3.706589E+03	1.441897E-02	6.819882E-05
3.708051E+03	1.463188E-02	6.920582E-05
3.709512E+03	1.484557E-02	7.021655E-05
3.710974E+03	1.505772E-02	7.121998E-05
3.712435E+03	1.527687E-02	7.225652E-05
3.713897E+03	1.549835E-02	7.330407E-05
3.715358E+03	1.573226E-02	7.441041E-05
3.716819E+03	1.594213E-02	7.540302E-05
3.718281E+03	1.614115E-02	7.634437E-05
3.719742E+03	1.633862E-02	7.727838E-05
3.721204E+03	1.655550E-02	7.830418E-05
3.722665E+03	1.678015E-02	7.936672E-05
3.724127E+03	1.698464E-02	8.033392E-05
3.725588E+03	1.721320E-02	8.141493E-05
3.727049E+03	1.742236E-02	8.240423E-05
3.728511E+03	1.762920E-02	8.338257E-05
3.729972E+03	1.785702E-02	8.446007E-05
3.731434E+03	1.809104E-02	8.556694E-05
3.732895E+03	1.831188E-02	8.661149E-05
3.734357E+03	1.853119E-02	8.764875E-05
3.735818E+03	1.875515E-02	8.870807E-05
3.737280E+03	1.900241E-02	8.987756E-05
3.738741E+03	1.924969E-02	9.104711E-05
3.740202E+03	1.948533E-02	9.216168E-05
3.741664E+03	1.968994E-02	9.312945E-05
3.743125E+03	1.991474E-02	9.419270E-05
3.744587E+03	2.013257E-02	9.522296E-05
3.746048E+03	2.035195E-02	9.626060E-05
3.747510E+03	2.053254E-02	9.711474E-05
3.748971E+03	2.071314E-02	9.796894E-05
3.750432E+03	2.092712E-02	9.898102E-05
3.751894E+03	2.110462E-02	9.982059E-05
3.753355E+03	2.130155E-02	1.007520E-04
3.754817E+03	2.151711E-02	1.017716E-04
3.756278E+03	2.170551E-02	1.026627E-04
3.757740E+03	2.190867E-02	1.036236E-04
3.759201E+03	2.209476E-02	1.045037E-04
3.760663E+03	2.226144E-02	1.052921E-04
3.762124E+03	2.239553E-02	1.059263E-04
3.763585E+03	2.252807E-02	1.065532E-04
3.765047E+03	2.266295E-02	1.071912E-04
3.766508E+03	2.277687E-02	1.077300E-04
3.767970E+03	2.288691E-02	1.082504E-04
3.769431E+03	2.299773E-02	1.087746E-04
3.770893E+03	2.308991E-02	1.092106E-04
3.772354E+03	2.315260E-02	1.095071E-04
3.773815E+03	2.320597E-02	1.097595E-04
3.775277E+03	2.322517E-02	1.098503E-04
3.776738E+03	2.323971E-02	1.099191E-04
3.778200E+03	2.326280E-02	1.100283E-04
3.779661E+03	2.329365E-02	1.101742E-04
3.781123E+03	2.326470E-02	1.100373E-04
3.782584E+03	2.322332E-02	1.098416E-04
3.784045E+03	2.320602E-02	1.097598E-04
3.785507E+03	2.316619E-02	1.095714E-04
3.786968E+03	2.306422E-02	1.090891E-04
3.788430E+03	2.298865E-02	1.087317E-04
3.789891E+03	2.289289E-02	1.082787E-04
3.791353E+03	2.274896E-02	1.075980E-04
3.792814E+03	2.258094E-02	1.068033E-04
3.794276E+03	2.242612E-02	1.060710E-04
3.795737E+03	2.226508E-02	1.053093E-04
3.797198E+03	2.209858E-02	1.045218E-04
3.798660E+03	2.190412E-02	1.036021E-04
3.800121E+03	2.170421E-02	1.026565E-04
3.801583E+03	2.150428E-02	1.017109E-04
3.803044E+03	2.129036E-02	1.006991E-04
3.804506E+03	2.106556E-02	9.963582E-05
3.805967E+03	2.082443E-02	9.849532E-05
3.807428E+03	2.058172E-02	9.734739E-05
3.808890E+03	2.035300E-02	9.626556E-05
3.810351E+03	2.009085E-02	9.502565E-05
3.811813E+03	1.983179E-02	9.380037E-05
3.813274E+03	1.959138E-02	9.266324E-05
3.814736E+03	1.933307E-02	9.144150E-05
3.816197E+03	1.909651E-02	9.032264E-05
3.817659E+03	1.886072E-02	8.920739E-05
3.819120E+03	1.861093E-02	8.802592E-05
3.820581E+03	1.836423E-02	8.685910E-05
3.822043E+03	1.809421E-02	8.558194E-05
3.823504E+03	1.781795E-02	8.427531E-05
3.824966E+03	1.755490E-02	8.303113E-05
3.826427E+03	1.729261E-02	8.179055E-05
3.827889E+03	1.704197E-02	8.060505E-05
3.829350E+03	1.678975E-02	7.941212E-05
3.830811E+03	1.651188E-02	7.809786E-05
3.832273E+03	1.623632E-02	7.679453E-05
3.833734E+03	1.595920E-02	7.548379E-05
3.835196E+03	1.569218E-02	7.422081E-05
3.836657E+03	1.545233E-02	7.308641E-05
3.838119E+03	1.526068E-02	7.217994E-05
3.839580E+03	1.509622E-02	7.140206E-05
3.841041E+03	1.492553E-02	7.059474E-05
3.842503E+03	1.476105E-02	6.981679E-05
3.843964E+03	1.458258E-02	6.897265E-05
3.845426E+03	1.439321E-02	6.807697E-05
3.846887E+03	1.420694E-02	6.719594E-05
3.848349E+03	1.403854E-02	6.639945E-05
3.849810E+03	1.387947E-02	6.564707E-05
3.851272E+03	1.374293E-02	6.500126E-05
3.852733E+03	1.359006E-02	6.427822E-05
3.854194E+03	1.348539E-02	6.378314E-05
3.855656E+03	1.341180E-02	6.343510E-05
3.857117E+03	1.333122E-02	6.305399E-05
3.858579E+03	1.324441E-02	6.264339E-05
3.860040E+03	1.315916E-02	6.224014E-05
3.861502E+03	1.311200E-02	6.201709E-05
3.862963E+03	1.305084E-02	6.172782E-05
3.864424E+03	1.300445E-02	6.150842E-05
3.865886E+03	1.295650E-02	6.128164E-05
3.867347E+03	1.294199E-02	6.121301E-05
3.868809E+03	1.295859E-02	6.129150E-05
3.870270E+03	1.295652E-02	6.128170E-05
3.871732E+03	1.294589E-02	6.123144E-05
3.873193E+03	1.296793E-02	6.133567E-05
3.874655E+03	1.302418E-02	6.160174E-05
3.876116E+03	1.308743E-02	6.190090E-05
3.877577E+03	1.319814E-02	6.242451E-05
3.879039E+03	1.332206E-02	6.301064E-05
3.880500E+03	1.344132E-02	6.357472E-05
3.881962E+03	1.357302E-02	6.419766E-05
3.883423E+03	1.371329E-02	6.486109E-05
3.884885E+03	1.385979E-02	6.555399E-05
3.886346E+03	1.404752E-02	6.644191E-05
3.887807E+03	1.424303E-02	6.736663E-05
3.889269E+03	1.443388E-02	6.826932E-05
3.890730E+03	1.459517E-02	6.903222E-05
3.892192E+03	1.478292E-02	6.992022E-05
3.893653E+03	1.501035E-02	7.099591E-05
3.895115E+03	1.526735E-02	7.221146E-05
3.896576E+03	1.553836E-02	7.349327E-05
3.898038E+03	1.581249E-02	7.478985E-05
3.899499E+03	1.608818E-02	7.609383E-05
3.900960E+03	1.636622E-02	7.740890E-05
3.902422E+03	1.670572E-02	7.901469E-05
3.903883E+03	1.703824E-02	8.058744E-05
3.905345E+03	1.736299E-02	8.212342E-05
3.906806E+03	1.771109E-02	8.376986E-05
3.908268E+03	1.804364E-02	8.534278E-05
3.909729E+03	1.838165E-02	8.694148E-05
3.911190E+03	1.873990E-02	8.863592E-05
3.912652E+03	1.911605E-02	9.041506E-05
3.914113E+03	1.949533E-02	9.220897E-05
3.915575E+03	1.988474E-02	9.405079E-05
3.917036E+03	2.029361E-02	9.598467E-05
3.918498E+03	2.069628E-02	9.788919E-05
3.919959E+03	2.109817E-02	9.979007E-05
3.921420E+03	2.148918E-02	1.016395E-04
3.922882E+03	2.188722E-02	1.035221E-04
3.924343E+03	2.227203E-02	1.053422E-04
3.925805E+03	2.266931E-02	1.072212E-04
3.927266E+03	2.305414E-02	1.090414E-04
3.928728E+03	2.345066E-02	1.109169E-04
3.930189E+03	2.382930E-02	1.127078E-04
3.931651E+03	2.421495E-02	1.145318E-04
3.933112E+03	2.458816E-02	1.162970E-04
3.934573E+03	2.495204E-02	1.180181E-04
3.936035E+03	2.531437E-02	1.197318E-04
3.937496E+03	2.567282E-02	1.214272E-04
3.938958E+03	2.598381E-02	1.228981E-04
3.940419E+03	2.629713E-02	1.243801E-04
3.941881E+03	2.660269E-02	1.258253E-04
3.943342E+03	2.688100E-02	1.271417E-04
3.944803E+03	2.715543E-02	1.284397E-04
3.946265E+03	2.742053E-02	1.296936E-04
3.947726E+03	2.768252E-02	1.309327E-04
3.949188E+03	2.791961E-02	1.320541E-04
3.950649E+03	2.812400E-02	1.330208E-04
3.952111E+03	2.833230E-02	1.340060E-04
3.953572E+03	2.852970E-02	1.349397E-04
3.955034E+03	2.870609E-02	1.357740E-04
3.956495E+03	2.887937E-02	1.365936E-04
3.957956E+03	2.903863E-02	1.373468E-04
3.959418E+03	2.919556E-02	1.380891E-04
3.960879E+03	2.935717E-02	1.388535E-04
3.962341E+03	2.949854E-02	1.395221E-04
3.963802E+03	2.960487E-02	1.400250E-04
3.965264E+03	2.972288E-02	1.405832E-04
3.966725E+03	2.984012E-02	1.411377E-04
3.968186E+03	2.992700E-02	1.415486E-04
3.969648E+03	3.003100E-02	1.420405E-04
3.971109E+03	3.011242E-02	1.424256E-04
3.972571E+03	3.018994E-02	1.427923E-04
3.974032E+03	3.022465E-02	1.429565E-04
3.975494E+03	3.026403E-02	1.431427E-04
3.976955E+03	3.030573E-02	1.433400E-04
3.978416E+03	3.032253E-02	1.434194E-04
3.979878E+03	3.034087E-02	1.435062E-04
3.981339E+03	3.033819E-02	1.434935E-04
3.982801E+03	3.033006E-02	1.434550E-04
3.984262E+03	3.031491E-02	1.433834E-04
3.985724E+03	3.031534E-02	1.433854E-04
3.987185E+03	3.032277E-02	1.434206E-04
3.988647E+03	3.029438E-02	1.432863E-04
3.990108E+03	3.025118E-02	1.430820E-04
3.991569E+03	3.018074E-02	1.427488E-04
3.993031E+03	3.009704E-02	1.423529E-04
3.994492E+03	3.002735E-02	1.420233E-04
3.995954E+03	2.996078E-02	1.417084E-04
3.997415E+03	2.990900E-02	1.414635E-04
3.998877E+03	2.981828E-02	1.410344E-04
4.000338E+03	2.975169E-02	1.407195E-04
4.001799E+03	2.969756E-02	1.404635E-04
4.003261E+03	2.965901E-02	1.402811E-04
4.004722E+03	2.960097E-02	1.400066E-04
4.006184E+03	2.955617E-02	1.397947E-04
4.007645E+03	2.953942E-02	1.397155E-04
4.009107E+03	2.953746E-02	1.397062E-04
4.010568E+03	2.955262E-02	1.397779E-04
4.012030E+03	2.953663E-02	1.397023E-04
4.013491E+03	2.956581E-02	1.398403E-04
4.014952E+03	2.959889E-02	1.399967E-04
4.016414E+03	2.965222E-02	1.402490E-04
4.017875E+03	2.971645E-02	1.405528E-04
4.019337E+03	2.977912E-02	1.408492E-04
4.020798E+03	2.986593E-02	1.412598E-04
4.022260E+03	2.998235E-02	1.418105E-04
4.023721E+03	3.010188E-02	1.423758E-04
4.025182E+03	3.021128E-02	1.428933E-04
4.026644E+03	3.036588E-02	1.436244E-04
4.028105E+03	3.048307E-02	1.441788E-04
4.029567E+03	3.061195E-02	1.447883E-04
4.031028E+03	3.074472E-02	1.454163E-04
4.032490E+03	3.090009E-02	1.461512E-04
4.033951E+03	3.103909E-02	1.468086E-04
4.035412E+03	3.120693E-02	1.476024E-04
4.036874E+03	3.135061E-02	1.482820E-04
4.038335E+03	3.146702E-02	1.488327E-04
4.039797E+03	3.162395E-02	1.495749E-04
4.041258E+03	3.180892E-02	1.504497E-04
4.042720E+03	3.194715E-02	1.511036E-04
4.044181E+03	3.207525E-02	1.517094E-04
4.045643E+03	3.219867E-02	1.522932E-04
4.047104E+03	3.230262E-02	1.527848E-04
4.048565E+03	3.241202E-02	1.533023E-04
4.050027E+03	3.250895E-02	1.537607E-04
4.051488E+03	3.262613E-02	1.543150E-04
4.052950E+03	3.271761E-02	1.547476E-04
4.054411E+03	3.279506E-02	1.551140E-04
4.055873E+03	3.283432E-02	1.552997E-04
4.057334E+03	3.285645E-02	1.554043E-04
4.058795E+03	3.290272E-02	1.556232E-04
4.060257E+03	3.293496E-02	1.557757E-04
4.061718E+03	3.295085E-02	1.558508E-04
4.063180E+03	3.298153E-02	1.559960E-04
4.064641E+03	3.298571E-02	1.560157E-04
4.066103E+03	3.298678E-02	1.560208E-04
4.067564E+03	3.297304E-02	1.559558E-04
4.069026E+03	3.295150E-02	1.558539E-04
4.070487E+03	3.290659E-02	1.556415E-04
4.071948E+03	3.286478E-02	1.554437E-04
4.073410E+03	3.281674E-02	1.552165E-04
4.074871E+03	3.275154E-02	1.549082E-04
4.076333E+03	3.267778E-02	1.545593E-04
4.077794E+03	3.257907E-02	1.540924E-04
4.079256E+03	3.247723E-02	1.536107E-04
