#wls	flux	fluxerr
1.590679E+03	7.001247E-04	8.685179E-05
1.630446E+03	7.097667E-04	8.739872E-05
1.670213E+03	7.205665E-04	8.805554E-05
1.709980E+03	7.323006E-04	8.879104E-05
1.749746E+03	7.450599E-04	8.961260E-05
1.789513E+03	7.592696E-04	9.056695E-05
1.829280E+03	7.747345E-04	9.162560E-05
1.869047E+03	7.919150E-04	9.283753E-05
1.908814E+03	8.106371E-04	9.417591E-05
1.948581E+03	8.317312E-04	9.573000E-05
1.988348E+03	8.550556E-04	9.747443E-05
2.028115E+03	8.811519E-04	9.946121E-05
2.067882E+03	9.095409E-04	1.016255E-04
2.107649E+03	9.414858E-04	1.040971E-04
2.147416E+03	9.768732E-04	1.068487E-04
2.187183E+03	1.015559E-03	1.098498E-04
2.226950E+03	1.058497E-03	1.131874E-04
2.266717E+03	1.105908E-03	1.168662E-04
2.306484E+03	1.157599E-03	1.208453E-04
2.346251E+03	1.213710E-03	1.251189E-04
2.386018E+03	1.274750E-03	1.297174E-04
2.425785E+03	1.340798E-03	1.346242E-04
2.465552E+03	1.411435E-03	1.397729E-04
2.505319E+03	1.487482E-03	1.452190E-04
2.545086E+03	1.568864E-03	1.509270E-04
2.584853E+03	1.654964E-03	1.568094E-04
2.624620E+03	1.746496E-03	1.629059E-04
2.664387E+03	1.843205E-03	1.691621E-04
2.704154E+03	1.944764E-03	1.755179E-04
2.743921E+03	2.051799E-03	1.819993E-04
2.783688E+03	2.163900E-03	1.885370E-04
2.823455E+03	2.280577E-03	1.950571E-04
2.863222E+03	2.402344E-03	2.015723E-04
2.902988E+03	2.529148E-03	2.080448E-04
2.942755E+03	2.660314E-03	2.143865E-04
2.982522E+03	2.796188E-03	2.205935E-04
2.992464E+03	2.830970E-03	2.221265E-04
3.002406E+03	2.866050E-03	2.236487E-04
3.012348E+03	2.901413E-03	2.251584E-04
3.022289E+03	2.937044E-03	2.266541E-04
3.032231E+03	2.972928E-03	2.281339E-04
3.042173E+03	3.009049E-03	2.295963E-04
3.052115E+03	3.045389E-03	2.310394E-04
3.062056E+03	3.081932E-03	2.324615E-04
3.071998E+03	3.119226E-03	2.339035E-04
3.081940E+03	3.156689E-03	2.353206E-04
3.091882E+03	3.194300E-03	2.367111E-04
3.101823E+03	3.232040E-03	2.380732E-04
3.111765E+03	3.269892E-03	2.394052E-04
3.121707E+03	3.308400E-03	2.407467E-04
3.131649E+03	3.347546E-03	2.420951E-04
3.141590E+03	3.386741E-03	2.434070E-04
3.151532E+03	3.425962E-03	2.446809E-04
3.161474E+03	3.465756E-03	2.459552E-04
3.171416E+03	3.505532E-03	2.471873E-04
3.181357E+03	3.545835E-03	2.484154E-04
3.191299E+03	3.586640E-03	2.496368E-04
3.201241E+03	3.627359E-03	2.508101E-04
3.211182E+03	3.668532E-03	2.519723E-04
3.221124E+03	3.710136E-03	2.531211E-04
3.231066E+03	3.752145E-03	2.542540E-04
3.241008E+03	3.794534E-03	2.553686E-04
3.250949E+03	3.837280E-03	2.564627E-04
3.260891E+03	3.880356E-03	2.575340E-04
3.270833E+03	3.923740E-03	2.585804E-04
3.280775E+03	3.967408E-03	2.595997E-04
3.290716E+03	4.011894E-03	2.606261E-04
3.300658E+03	4.056618E-03	2.616210E-04
3.310600E+03	4.101561E-03	2.625826E-04
3.320542E+03	4.147257E-03	2.635444E-04
3.330483E+03	4.193134E-03	2.644694E-04
3.340425E+03	4.240277E-03	2.654247E-04
3.350367E+03	4.287571E-03	2.663395E-04
3.360309E+03	4.335009E-03	2.672130E-04
3.370250E+03	4.383672E-03	2.681108E-04
3.380192E+03	4.433011E-03	2.689978E-04
3.390134E+03	4.483022E-03	2.698728E-04
3.400076E+03	4.533711E-03	2.707349E-04
3.410017E+03	4.585622E-03	2.716153E-04
3.419959E+03	4.638230E-03	2.724813E-04
3.429901E+03	4.692087E-03	2.733640E-04
3.439843E+03	4.747214E-03	2.742627E-04
3.449784E+03	4.803115E-03	2.751469E-04
3.459726E+03	4.860877E-03	2.760773E-04
3.469668E+03	4.919496E-03	2.769944E-04
3.479609E+03	4.980065E-03	2.779579E-04
3.489551E+03	5.042119E-03	2.789391E-04
3.499493E+03	5.106237E-03	2.799676E-04
3.509435E+03	5.171975E-03	2.810160E-04
3.519376E+03	5.240430E-03	2.821409E-04
3.529318E+03	5.310663E-03	2.832881E-04
3.539260E+03	5.383776E-03	2.845132E-04
3.549202E+03	5.458851E-03	2.857637E-04
3.559143E+03	5.537495E-03	2.871199E-04
3.569085E+03	5.618800E-03	2.885299E-04
3.579027E+03	5.702874E-03	2.899951E-04
3.588969E+03	5.790806E-03	2.915660E-04
3.598910E+03	5.882196E-03	2.932170E-04
3.608852E+03	5.977137E-03	2.949473E-04
3.618794E+03	6.076215E-03	2.967801E-04
3.628736E+03	6.179028E-03	2.986899E-04
3.638677E+03	6.285677E-03	3.006757E-04
3.648619E+03	6.397235E-03	3.027824E-04
3.658561E+03	6.513300E-03	3.049838E-04
3.668503E+03	6.633468E-03	3.072544E-04
3.678444E+03	6.759295E-03	3.096588E-04
3.688386E+03	6.889403E-03	3.121260E-04
3.698328E+03	7.025345E-03	3.147189E-04
3.708270E+03	7.166235E-03	3.173890E-04
3.718211E+03	7.312657E-03	3.201545E-04
3.728153E+03	7.464701E-03	3.230106E-04
3.738095E+03	7.622952E-03	3.259734E-04
3.748037E+03	7.787030E-03	3.290175E-04
3.757978E+03	7.957521E-03	3.321581E-04
3.767920E+03	8.134050E-03	3.353699E-04
3.777862E+03	8.317680E-03	3.386868E-04
3.787803E+03	8.508020E-03	3.420822E-04
3.797745E+03	8.705152E-03	3.455488E-04
3.807687E+03	8.909125E-03	3.490782E-04
3.817629E+03	9.120935E-03	3.526983E-04
3.827570E+03	9.339596E-03	3.563595E-04
3.837512E+03	9.565035E-03	3.600484E-04
3.847454E+03	9.798587E-03	3.638043E-04
3.857396E+03	1.003856E-02	3.675530E-04
3.867337E+03	1.028564E-02	3.713094E-04
3.877279E+03	1.053894E-02	3.750311E-04
3.887221E+03	1.079843E-02	3.787075E-04
3.897163E+03	1.106347E-02	3.823083E-04
3.907104E+03	1.133332E-02	3.857989E-04
3.917046E+03	1.160709E-02	3.891434E-04
3.926988E+03	1.188429E-02	3.923198E-04
3.936930E+03	1.216278E-02	3.952543E-04
3.946871E+03	1.244236E-02	3.979389E-04
3.956813E+03	1.272171E-02	4.003319E-04
3.966755E+03	1.299947E-02	4.023919E-04
3.976697E+03	1.327370E-02	4.040642E-04
3.986638E+03	1.354348E-02	4.053277E-04
3.996580E+03	1.380738E-02	4.061488E-04
4.006522E+03	1.406403E-02	4.064983E-04
4.016464E+03	1.431214E-02	4.063531E-04
4.026405E+03	1.455052E-02	4.056949E-04
4.036347E+03	1.477864E-02	4.045260E-04
4.046289E+03	1.499463E-02	4.028148E-04
4.056230E+03	1.519835E-02	4.005785E-04
4.066172E+03	1.538985E-02	3.978397E-04
4.076114E+03	1.556796E-02	3.945906E-04
4.086056E+03	1.573370E-02	3.908801E-04
4.095997E+03	1.588645E-02	3.867150E-04
4.105939E+03	1.602726E-02	3.821436E-04
4.115881E+03	1.615694E-02	3.772073E-04
4.125823E+03	1.627655E-02	3.719508E-04
4.135764E+03	1.638690E-02	3.664119E-04
4.145706E+03	1.648946E-02	3.606414E-04
4.155648E+03	1.658583E-02	3.546902E-04
4.165590E+03	1.667771E-02	3.486089E-04
4.175531E+03	1.676645E-02	3.424378E-04
4.185473E+03	1.685430E-02	3.362330E-04
4.195415E+03	1.694262E-02	3.300296E-04
4.205357E+03	1.703276E-02	3.238608E-04
4.215298E+03	1.712675E-02	3.177706E-04
4.225240E+03	1.722532E-02	3.117765E-04
4.235182E+03	1.733022E-02	3.059139E-04
4.245124E+03	1.744221E-02	3.001993E-04
4.255065E+03	1.756227E-02	2.946527E-04
4.265007E+03	1.769041E-02	2.892780E-04
4.274949E+03	1.782754E-02	2.840953E-04
4.284891E+03	1.797363E-02	2.791105E-04
4.294832E+03	1.812847E-02	2.743290E-04
4.304774E+03	1.829206E-02	2.697612E-04
4.314716E+03	1.846388E-02	2.654133E-04
4.324658E+03	1.864334E-02	2.612932E-04
4.334599E+03	1.883014E-02	2.574161E-04
4.344541E+03	1.902327E-02	2.537910E-04
4.354483E+03	1.922241E-02	2.504397E-04
4.364424E+03	1.942697E-02	2.473835E-04
4.374366E+03	1.963684E-02	2.446525E-04
4.384308E+03	1.985104E-02	2.422687E-04
4.394250E+03	2.007040E-02	2.402779E-04
4.404191E+03	2.029376E-02	2.387035E-04
4.414133E+03	2.052171E-02	2.375903E-04
4.424075E+03	2.075416E-02	2.369753E-04
4.434017E+03	2.099067E-02	2.368907E-04
4.443958E+03	2.123141E-02	2.373741E-04
4.453900E+03	2.147612E-02	2.384559E-04
4.463842E+03	2.172439E-02	2.401564E-04
4.473784E+03	2.197536E-02	2.424702E-04
4.483725E+03	2.222930E-02	2.453971E-04
4.493667E+03	2.248500E-02	2.489152E-04
4.503609E+03	2.274172E-02	2.530035E-04
4.513551E+03	2.299854E-02	2.576353E-04
4.523492E+03	2.325410E-02	2.627747E-04
4.533434E+03	2.350760E-02	2.683889E-04
4.543376E+03	2.375720E-02	2.744304E-04
4.553318E+03	2.400235E-02	2.808645E-04
4.563259E+03	2.424126E-02	2.876395E-04
4.573201E+03	2.447322E-02	2.947152E-04
4.583143E+03	2.469702E-02	3.020443E-04
4.593085E+03	2.491198E-02	3.095852E-04
4.603026E+03	2.511762E-02	3.172987E-04
4.612968E+03	2.531406E-02	3.251537E-04
4.622910E+03	2.550104E-02	3.331144E-04
4.632851E+03	2.567852E-02	3.411494E-04
4.642793E+03	2.584769E-02	3.492446E-04
4.652735E+03	2.600897E-02	3.573777E-04
4.662677E+03	2.616324E-02	3.655345E-04
4.672618E+03	2.631183E-02	3.737092E-04
4.682560E+03	2.645543E-02	3.818894E-04
4.692502E+03	2.659540E-02	3.900740E-04
4.702444E+03	2.673230E-02	3.982532E-04
4.712385E+03	2.686725E-02	4.064264E-04
4.722327E+03	2.700110E-02	4.145915E-04
4.732269E+03	2.713385E-02	4.227347E-04
4.742211E+03	2.726548E-02	4.308429E-04
4.752152E+03	2.739599E-02	4.389042E-04
4.762094E+03	2.752504E-02	4.469016E-04
4.772036E+03	2.765100E-02	4.547977E-04
4.781978E+03	2.777320E-02	4.625703E-04
4.791919E+03	2.788973E-02	4.701765E-04
4.801861E+03	2.799877E-02	4.775738E-04
4.811803E+03	2.809801E-02	4.847111E-04
4.821745E+03	2.818568E-02	4.915451E-04
4.831686E+03	2.825934E-02	4.980204E-04
4.841628E+03	2.831694E-02	5.040878E-04
4.851570E+03	2.835688E-02	5.097053E-04
4.861512E+03	2.837685E-02	5.148181E-04
4.871453E+03	2.837606E-02	5.193988E-04
4.881395E+03	2.835289E-02	5.234047E-04
4.891337E+03	2.830700E-02	5.268178E-04
4.901279E+03	2.823853E-02	5.296294E-04
4.911220E+03	2.814713E-02	5.318229E-04
4.921162E+03	2.803412E-02	5.334148E-04
4.931104E+03	2.790038E-02	5.344141E-04
4.941045E+03	2.774747E-02	5.348450E-04
4.950987E+03	2.757761E-02	5.347462E-04
4.960929E+03	2.739272E-02	5.341525E-04
4.970871E+03	2.719560E-02	5.331168E-04
4.980812E+03	2.698887E-02	5.316914E-04
4.990754E+03	2.677530E-02	5.299326E-04
5.000696E+03	2.655770E-02	5.278986E-04
5.010638E+03	2.633912E-02	5.256546E-04
5.020579E+03	2.612201E-02	5.232539E-04
5.030521E+03	2.590946E-02	5.207646E-04
5.040463E+03	2.570361E-02	5.182355E-04
5.050405E+03	2.550661E-02	5.157168E-04
5.060346E+03	2.532066E-02	5.132597E-04
5.070288E+03	2.514740E-02	5.109039E-04
5.080230E+03	2.498842E-02	5.086891E-04
5.090172E+03	2.484450E-02	5.066374E-04
5.100113E+03	2.471691E-02	5.047810E-04
5.110055E+03	2.460582E-02	5.031294E-04
5.119997E+03	2.451137E-02	5.016912E-04
5.129939E+03	2.443397E-02	5.004799E-04
5.139880E+03	2.437323E-02	4.994923E-04
5.149822E+03	2.432832E-02	4.987161E-04
5.159764E+03	2.429871E-02	4.981444E-04
5.169706E+03	2.428372E-02	4.977672E-04
5.179647E+03	2.428230E-02	4.975663E-04
5.189589E+03	2.429331E-02	4.975220E-04
5.199531E+03	2.431579E-02	4.976179E-04
5.209472E+03	2.434852E-02	4.978323E-04
5.219414E+03	2.439055E-02	4.981488E-04
5.229356E+03	2.444045E-02	4.985413E-04
5.239298E+03	2.449758E-02	4.990002E-04
5.249239E+03	2.456064E-02	4.995024E-04
5.259181E+03	2.462891E-02	5.000366E-04
5.269123E+03	2.470151E-02	5.005888E-04
5.279065E+03	2.477788E-02	5.011517E-04
5.289006E+03	2.485734E-02	5.017157E-04
5.298948E+03	2.493930E-02	5.022729E-04
5.308890E+03	2.502348E-02	5.028223E-04
5.318832E+03	2.510920E-02	5.033549E-04
5.328773E+03	2.519684E-02	5.038834E-04
5.338715E+03	2.528531E-02	5.043911E-04
5.348657E+03	2.537510E-02	5.048930E-04
5.358599E+03	2.546572E-02	5.053846E-04
5.368540E+03	2.555691E-02	5.058669E-04
5.378482E+03	2.564872E-02	5.063461E-04
5.388424E+03	2.574117E-02	5.068288E-04
5.398366E+03	2.583352E-02	5.073063E-04
5.408307E+03	2.592596E-02	5.077885E-04
5.418249E+03	2.601796E-02	5.082712E-04
5.428191E+03	2.610916E-02	5.087520E-04
5.438133E+03	2.619840E-02	5.092134E-04
5.448074E+03	2.628560E-02	5.096586E-04
5.458016E+03	2.637018E-02	5.100813E-04
5.467958E+03	2.645165E-02	5.104766E-04
5.477900E+03	2.652937E-02	5.108371E-04
5.487841E+03	2.660362E-02	5.111672E-04
5.497783E+03	2.667365E-02	5.114482E-04
5.507725E+03	2.673989E-02	5.116836E-04
5.517666E+03	2.680182E-02	5.118581E-04
5.527608E+03	2.685979E-02	5.119736E-04
5.537550E+03	2.691400E-02	5.120284E-04
5.547492E+03	2.696445E-02	5.120173E-04
5.557433E+03	2.701179E-02	5.119470E-04
5.567375E+03	2.705590E-02	5.118097E-04
5.577317E+03	2.709781E-02	5.116193E-04
5.587259E+03	2.713778E-02	5.113752E-04
5.597200E+03	2.717610E-02	5.110771E-04
5.607142E+03	2.721336E-02	5.107304E-04
5.617084E+03	2.725044E-02	5.103462E-04
5.627026E+03	2.728741E-02	5.099199E-04
5.636967E+03	2.732517E-02	5.094629E-04
5.646909E+03	2.736405E-02	5.089756E-04
5.656851E+03	2.740467E-02	5.084643E-04
5.666793E+03	2.744764E-02	5.079345E-04
5.676734E+03	2.749327E-02	5.073867E-04
5.686676E+03	2.754213E-02	5.068258E-04
5.696618E+03	2.759478E-02	5.062565E-04
5.706560E+03	2.765146E-02	5.056781E-04
5.716501E+03	2.771264E-02	5.050936E-04
5.726443E+03	2.777848E-02	5.045006E-04
5.736385E+03	2.784961E-02	5.039053E-04
5.746327E+03	2.792606E-02	5.033025E-04
5.756268E+03	2.800752E-02	5.026815E-04
5.766210E+03	2.809464E-02	5.020487E-04
5.776152E+03	2.818721E-02	5.013951E-04
5.786093E+03	2.828462E-02	5.007047E-04
5.796035E+03	2.838727E-02	4.999795E-04
5.805977E+03	2.849408E-02	4.991957E-04
5.815919E+03	2.860528E-02	4.983525E-04
5.825860E+03	2.871987E-02	4.974284E-04
5.835802E+03	2.883738E-02	4.964105E-04
5.845744E+03	2.895723E-02	4.952856E-04
5.855686E+03	2.907853E-02	4.940349E-04
5.865627E+03	2.920067E-02	4.926449E-04
5.875569E+03	2.932296E-02	4.911015E-04
5.885511E+03	2.944420E-02	4.893829E-04
5.895453E+03	2.956402E-02	4.874813E-04
5.905394E+03	2.968121E-02	4.853765E-04
5.915336E+03	2.979578E-02	4.830681E-04
5.925278E+03	2.990660E-02	4.805386E-04
5.935220E+03	3.001289E-02	4.777767E-04
5.945161E+03	3.011449E-02	4.747821E-04
5.955103E+03	3.021073E-02	4.715467E-04
5.965045E+03	3.030096E-02	4.680640E-04
5.974987E+03	3.038516E-02	4.643381E-04
5.984928E+03	3.046248E-02	4.603607E-04
5.994870E+03	3.053295E-02	4.561383E-04
6.004812E+03	3.059601E-02	4.516693E-04
6.014754E+03	3.065113E-02	4.469532E-04
6.024695E+03	3.069802E-02	4.419944E-04
6.034637E+03	3.073667E-02	4.368019E-04
6.044579E+03	3.076582E-02	4.313683E-04
6.054521E+03	3.078565E-02	4.257076E-04
6.064462E+03	3.079507E-02	4.198170E-04
6.074404E+03	3.079379E-02	4.137065E-04
6.084346E+03	3.078054E-02	4.073741E-04
6.094287E+03	3.075515E-02	4.008339E-04
6.104229E+03	3.071615E-02	3.940846E-04
6.114171E+03	3.066229E-02	3.871295E-04
6.124113E+03	3.059311E-02	3.799840E-04
6.134054E+03	3.050720E-02	3.726530E-04
6.143996E+03	3.040309E-02	3.651429E-04
6.153938E+03	3.027987E-02	3.574688E-04
6.163880E+03	3.013608E-02	3.496409E-04
6.173821E+03	2.997086E-02	3.416784E-04
6.183763E+03	2.978315E-02	3.335996E-04
6.193705E+03	2.957236E-02	3.254276E-04
6.203647E+03	2.933793E-02	3.171819E-04
6.213588E+03	2.908114E-02	3.089011E-04
6.223530E+03	2.880452E-02	3.006364E-04
6.233472E+03	2.851114E-02	2.924434E-04
6.243414E+03	2.820453E-02	2.843805E-04
6.253355E+03	2.788802E-02	2.765022E-04
6.263297E+03	2.756510E-02	2.688625E-04
6.273239E+03	2.723934E-02	2.615146E-04
6.283181E+03	2.691437E-02	2.545106E-04
6.293122E+03	2.659416E-02	2.479037E-04
6.303064E+03	2.628212E-02	2.417407E-04
6.313006E+03	2.598245E-02	2.360737E-04
6.322948E+03	2.569846E-02	2.309455E-04
6.332889E+03	2.543363E-02	2.263995E-04
6.342831E+03	2.519151E-02	2.224788E-04
6.352773E+03	2.497521E-02	2.192220E-04
6.362714E+03	2.478756E-02	2.166649E-04
6.372656E+03	2.463108E-02	2.148409E-04
6.382598E+03	2.450825E-02	2.137828E-04
6.392540E+03	2.442059E-02	2.135160E-04
6.402481E+03	2.436967E-02	2.140670E-04
6.412423E+03	2.435604E-02	2.154505E-04
6.422365E+03	2.437972E-02	2.176577E-04
6.432307E+03	2.444005E-02	2.206665E-04
6.442248E+03	2.453527E-02	2.244463E-04
6.452190E+03	2.466217E-02	2.289535E-04
6.462132E+03	2.481734E-02	2.341427E-04
6.472074E+03	2.499594E-02	2.399543E-04
6.482015E+03	2.519140E-02	2.463095E-04
6.491957E+03	2.539701E-02	2.531250E-04
6.501899E+03	2.560636E-02	2.603161E-04
6.511841E+03	2.581739E-02	2.678388E-04
6.521782E+03	2.602724E-02	2.756396E-04
6.531724E+03	2.623209E-02	2.836526E-04
6.541666E+03	2.642799E-02	2.918079E-04
6.551608E+03	2.661076E-02	3.000300E-04
6.561549E+03	2.677588E-02	3.082365E-04
6.571491E+03	2.691973E-02	3.163516E-04
6.581433E+03	2.703812E-02	3.242904E-04
6.591375E+03	2.712878E-02	3.319878E-04
6.601316E+03	2.718882E-02	3.393700E-04
6.611258E+03	2.721716E-02	3.463845E-04
6.621200E+03	2.721290E-02	3.529807E-04
6.631142E+03	2.717660E-02	3.591283E-04
6.641083E+03	2.710931E-02	3.648049E-04
6.651025E+03	2.701209E-02	3.699908E-04
6.660967E+03	2.688791E-02	3.746954E-04
6.670908E+03	2.673923E-02	3.789250E-04
6.680850E+03	2.656920E-02	3.826994E-04
6.690792E+03	2.638118E-02	3.860458E-04
6.700734E+03	2.617862E-02	3.889971E-04
6.710675E+03	2.596465E-02	3.915858E-04
6.720617E+03	2.574330E-02	3.938615E-04
6.730559E+03	2.551708E-02	3.958552E-04
6.740501E+03	2.528929E-02	3.976129E-04
6.750442E+03	2.506229E-02	3.991694E-04
6.760384E+03	2.483879E-02	4.005672E-04
6.770326E+03	2.462086E-02	4.018414E-04
6.780268E+03	2.440996E-02	4.030185E-04
6.790209E+03	2.420753E-02	4.041267E-04
6.800151E+03	2.401507E-02	4.051954E-04
6.810093E+03	2.383314E-02	4.062400E-04
6.820035E+03	2.366237E-02	4.072770E-04
6.829976E+03	2.350318E-02	4.083196E-04
6.839918E+03	2.335604E-02	4.093824E-04
6.849860E+03	2.322035E-02	4.104609E-04
6.859802E+03	2.309625E-02	4.115632E-04
6.869743E+03	2.298345E-02	4.126895E-04
6.879685E+03	2.288152E-02	4.138373E-04
6.889627E+03	2.278993E-02	4.150017E-04
6.899569E+03	2.270778E-02	4.161707E-04
6.909510E+03	2.263471E-02	4.173413E-04
6.919452E+03	2.256972E-02	4.184984E-04
6.929394E+03	2.251207E-02	4.196313E-04
6.939335E+03	2.246134E-02	4.207346E-04
6.949277E+03	2.241650E-02	4.217911E-04
6.959219E+03	2.237684E-02	4.227896E-04
6.969161E+03	2.234201E-02	4.237248E-04
6.979102E+03	2.231078E-02	4.245749E-04
6.989044E+03	2.228290E-02	4.253363E-04
6.998986E+03	2.225788E-02	4.260005E-04
7.008928E+03	2.223498E-02	4.265547E-04
7.018869E+03	2.221446E-02	4.270043E-04
7.028811E+03	2.219511E-02	4.273271E-04
7.038753E+03	2.217732E-02	4.275317E-04
7.048695E+03	2.216092E-02	4.276153E-04
7.058636E+03	2.214550E-02	4.275712E-04
7.068578E+03	2.213099E-02	4.273987E-04
7.078520E+03	2.211737E-02	4.270987E-04
7.088462E+03	2.210462E-02	4.266716E-04
7.098403E+03	2.209276E-02	4.261190E-04
7.108345E+03	2.208150E-02	4.254365E-04
7.118287E+03	2.207148E-02	4.246375E-04
7.128229E+03	2.206209E-02	4.237115E-04
7.138170E+03	2.205363E-02	4.226657E-04
7.148112E+03	2.204578E-02	4.214952E-04
7.158054E+03	2.203848E-02	4.202004E-04
7.167996E+03	2.203165E-02	4.187813E-04
7.177937E+03	2.202550E-02	4.172432E-04
7.187879E+03	2.201958E-02	4.155797E-04
7.197821E+03	2.201371E-02	4.137890E-04
7.207763E+03	2.200740E-02	4.118637E-04
7.217704E+03	2.200103E-02	4.098134E-04
7.227646E+03	2.199342E-02	4.076181E-04
7.237588E+03	2.198523E-02	4.052925E-04
7.247529E+03	2.197552E-02	4.028223E-04
7.257471E+03	2.196401E-02	4.002048E-04
7.267413E+03	2.195066E-02	3.974430E-04
7.277355E+03	2.193483E-02	3.945285E-04
7.287296E+03	2.191589E-02	3.914538E-04
7.297238E+03	2.189413E-02	3.882284E-04
7.307180E+03	2.186892E-02	3.848452E-04
7.317122E+03	2.183963E-02	3.812982E-04
7.327063E+03	2.180630E-02	3.775929E-04
7.337005E+03	2.176868E-02	3.737306E-04
7.346947E+03	2.172618E-02	3.697070E-04
7.356889E+03	2.167864E-02	3.655253E-04
7.366830E+03	2.162616E-02	3.611940E-04
7.376772E+03	2.156863E-02	3.567176E-04
7.386714E+03	2.150530E-02	3.520906E-04
7.396656E+03	2.143674E-02	3.473297E-04
7.406597E+03	2.136228E-02	3.424318E-04
7.416539E+03	2.128255E-02	3.374143E-04
7.426481E+03	2.119727E-02	3.322808E-04
7.436423E+03	2.110650E-02	3.270403E-04
7.446364E+03	2.101032E-02	3.217019E-04
7.456306E+03	2.090887E-02	3.162760E-04
7.466248E+03	2.080258E-02	3.107773E-04
7.476190E+03	2.069162E-02	3.052161E-04
7.486131E+03	2.057585E-02	2.995976E-04
7.496073E+03	2.045579E-02	2.939313E-04
7.506015E+03	2.033169E-02	2.882217E-04
7.515956E+03	2.020383E-02	2.824734E-04
7.525898E+03	2.007246E-02	2.766913E-04
7.535840E+03	1.993788E-02	2.708806E-04
7.545782E+03	1.980096E-02	2.650548E-04
7.555723E+03	1.966135E-02	2.592106E-04
7.565665E+03	1.951961E-02	2.533578E-04
7.575607E+03	1.937567E-02	2.474980E-04
7.585549E+03	1.923070E-02	2.416487E-04
7.595490E+03	1.908400E-02	2.358046E-04
7.605432E+03	1.893639E-02	2.299795E-04
7.615374E+03	1.878778E-02	2.241770E-04
7.625316E+03	1.863895E-02	2.184113E-04
7.635257E+03	1.848948E-02	2.126832E-04
7.645199E+03	1.833982E-02	2.070049E-04
7.655141E+03	1.819016E-02	2.013856E-04
7.665083E+03	1.804090E-02	1.958387E-04
7.675024E+03	1.789190E-02	1.903721E-04
7.684966E+03	1.774330E-02	1.849981E-04
7.694908E+03	1.759577E-02	1.797360E-04
7.704850E+03	1.744888E-02	1.745949E-04
7.714791E+03	1.730272E-02	1.695910E-04
