#wls	flux	fluxerr
1.593911E+03	3.937277E-02	5.733772E-04
1.633759E+03	4.229098E-02	6.131256E-04
1.673607E+03	4.530556E-02	6.538576E-04
1.713455E+03	4.839789E-02	6.952826E-04
1.753302E+03	5.154075E-02	7.369919E-04
1.793150E+03	5.468326E-02	7.782478E-04
1.832998E+03	5.775596E-02	8.180635E-04
1.872846E+03	6.066904E-02	8.551845E-04
1.912694E+03	6.331839E-02	8.881815E-04
1.952541E+03	6.560206E-02	9.156848E-04
1.992389E+03	6.746502E-02	9.370060E-04
2.032237E+03	6.896948E-02	9.530928E-04
2.072085E+03	7.036581E-02	9.674642E-04
2.111932E+03	7.206475E-02	9.857631E-04
2.151780E+03	7.444311E-02	1.013055E-03
2.191628E+03	7.760832E-02	1.050648E-03
2.231476E+03	8.130731E-02	1.094963E-03
2.271324E+03	8.507363E-02	1.139632E-03
2.311171E+03	8.847958E-02	1.178936E-03
2.351019E+03	9.127079E-02	1.209567E-03
2.390867E+03	9.336158E-02	1.230519E-03
2.430715E+03	9.478603E-02	1.242376E-03
2.470562E+03	9.564635E-02	1.246607E-03
2.510410E+03	9.607172E-02	1.244999E-03
2.550258E+03	9.619156E-02	1.239309E-03
2.590106E+03	9.611544E-02	1.230999E-03
2.629954E+03	9.589107E-02	1.220715E-03
2.669801E+03	9.553388E-02	1.208680E-03
2.709649E+03	9.505375E-02	1.195043E-03
2.749497E+03	9.445824E-02	1.179922E-03
2.789345E+03	9.375402E-02	1.163426E-03
2.829192E+03	9.294721E-02	1.145652E-03
2.869040E+03	9.204265E-02	1.126683E-03
2.908888E+03	9.104329E-02	1.106581E-03
2.948736E+03	8.995059E-02	1.085385E-03
2.988584E+03	8.876364E-02	1.063112E-03
2.998546E+03	8.845204E-02	1.057377E-03
3.008508E+03	8.813419E-02	1.051572E-03
3.018469E+03	8.781044E-02	1.045703E-03
3.028431E+03	8.748086E-02	1.039770E-03
3.038393E+03	8.714876E-02	1.033813E-03
3.048355E+03	8.681635E-02	1.027859E-03
3.058317E+03	8.648243E-02	1.021893E-03
3.068279E+03	8.614611E-02	1.015906E-03
3.078241E+03	8.580662E-02	1.009888E-03
3.088203E+03	8.546278E-02	1.003825E-03
3.098165E+03	8.511420E-02	9.977143E-04
3.108127E+03	8.476011E-02	9.915465E-04
3.118089E+03	8.439955E-02	9.853108E-04
3.128051E+03	8.403235E-02	9.790061E-04
3.138013E+03	8.365791E-02	9.726258E-04
3.147975E+03	8.327569E-02	9.661643E-04
3.157937E+03	8.288543E-02	9.596193E-04
3.167899E+03	8.248671E-02	9.529865E-04
3.177861E+03	8.207957E-02	9.462672E-04
3.187823E+03	8.166318E-02	9.394527E-04
3.197784E+03	8.123794E-02	9.325481E-04
3.207746E+03	8.080330E-02	9.255482E-04
3.217708E+03	8.035949E-02	9.184564E-04
3.227670E+03	7.990630E-02	9.112710E-04
3.237632E+03	7.944354E-02	9.039907E-04
3.247594E+03	7.897124E-02	8.966169E-04
3.257556E+03	7.848982E-02	8.891550E-04
3.267518E+03	7.799939E-02	8.816074E-04
3.277480E+03	7.749966E-02	8.739714E-04
3.287442E+03	7.699109E-02	8.662531E-04
3.297404E+03	7.647392E-02	8.584562E-04
3.307366E+03	7.594867E-02	8.505873E-04
3.317328E+03	7.541546E-02	8.426485E-04
3.327290E+03	7.487464E-02	8.346445E-04
3.337252E+03	7.432689E-02	8.265839E-04
3.347214E+03	7.377289E-02	8.184747E-04
3.357176E+03	7.321295E-02	8.103212E-04
3.367138E+03	7.264790E-02	8.021332E-04
3.377099E+03	7.207859E-02	7.939205E-04
3.387061E+03	7.150597E-02	7.856943E-04
3.397023E+03	7.093057E-02	7.774609E-04
3.406985E+03	7.035345E-02	7.692323E-04
3.416947E+03	6.977597E-02	7.610236E-04
3.426909E+03	6.919864E-02	7.528406E-04
3.436871E+03	6.862267E-02	7.446967E-04
3.446833E+03	6.804890E-02	7.366011E-04
3.456795E+03	6.747800E-02	7.285612E-04
3.466757E+03	6.691110E-02	7.205889E-04
3.476719E+03	6.634870E-02	7.126895E-04
3.486681E+03	6.579171E-02	7.048727E-04
3.496643E+03	6.524077E-02	6.971452E-04
3.506605E+03	6.469653E-02	6.895133E-04
3.516567E+03	6.415995E-02	6.819872E-04
3.526529E+03	6.363095E-02	6.745655E-04
3.536491E+03	6.311021E-02	6.672549E-04
3.546453E+03	6.259777E-02	6.600554E-04
3.556414E+03	6.209389E-02	6.529691E-04
3.566376E+03	6.159768E-02	6.459863E-04
3.576338E+03	6.110909E-02	6.391060E-04
3.586300E+03	6.062738E-02	6.323199E-04
3.596262E+03	6.015127E-02	6.256145E-04
3.606224E+03	5.967955E-02	6.189767E-04
3.616186E+03	5.921093E-02	6.123932E-04
3.626148E+03	5.874402E-02	6.058495E-04
3.636110E+03	5.827687E-02	5.993256E-04
3.646072E+03	5.780815E-02	5.928081E-04
3.656034E+03	5.733592E-02	5.862774E-04
3.665996E+03	5.685896E-02	5.797217E-04
3.675958E+03	5.637603E-02	5.731289E-04
3.685920E+03	5.588594E-02	5.664878E-04
3.695882E+03	5.538798E-02	5.597919E-04
3.705844E+03	5.488197E-02	5.530404E-04
3.715806E+03	5.436771E-02	5.462323E-04
3.725768E+03	5.384559E-02	5.393722E-04
3.735730E+03	5.331676E-02	5.324727E-04
3.745691E+03	5.278187E-02	5.255411E-04
3.755653E+03	5.224276E-02	5.185962E-04
3.765615E+03	5.170086E-02	5.116529E-04
3.775577E+03	5.115837E-02	5.047334E-04
3.785539E+03	5.061704E-02	4.978550E-04
3.795501E+03	5.007898E-02	4.910387E-04
3.805463E+03	4.954609E-02	4.843027E-04
3.815425E+03	4.902028E-02	4.776656E-04
3.825387E+03	4.850324E-02	4.711432E-04
3.835349E+03	4.799600E-02	4.647449E-04
3.845311E+03	4.749984E-02	4.584823E-04
3.855273E+03	4.701514E-02	4.523583E-04
3.865235E+03	4.654242E-02	4.463769E-04
3.875197E+03	4.608162E-02	4.405367E-04
3.885159E+03	4.563199E-02	4.348295E-04
3.895121E+03	4.519281E-02	4.292477E-04
3.905083E+03	4.476303E-02	4.237805E-04
3.915045E+03	4.434120E-02	4.184135E-04
3.925006E+03	4.392603E-02	4.131339E-04
3.934968E+03	4.351556E-02	4.079231E-04
3.944930E+03	4.310818E-02	4.027656E-04
3.954892E+03	4.270243E-02	3.976476E-04
3.964854E+03	4.229618E-02	3.925495E-04
3.974816E+03	4.188840E-02	3.874617E-04
3.984778E+03	4.147748E-02	3.823700E-04
3.994740E+03	4.106241E-02	3.772653E-04
4.004702E+03	4.064247E-02	3.721416E-04
4.014664E+03	4.021702E-02	3.669936E-04
4.024626E+03	3.978612E-02	3.618225E-04
4.034588E+03	3.934946E-02	3.566262E-04
4.044550E+03	3.890790E-02	3.514131E-04
4.054512E+03	3.846193E-02	3.461881E-04
4.064474E+03	3.801270E-02	3.409621E-04
4.074436E+03	3.756143E-02	3.357465E-04
4.084398E+03	3.710996E-02	3.305578E-04
4.094360E+03	3.665975E-02	3.254093E-04
4.104321E+03	3.621281E-02	3.203185E-04
4.114283E+03	3.577121E-02	3.153037E-04
4.124245E+03	3.533675E-02	3.103802E-04
4.134207E+03	3.491178E-02	3.055678E-04
4.144169E+03	3.449818E-02	3.008824E-04
4.154131E+03	3.409778E-02	2.963387E-04
4.164093E+03	3.371228E-02	2.919505E-04
4.174055E+03	3.334332E-02	2.877305E-04
4.184017E+03	3.299208E-02	2.836873E-04
4.193979E+03	3.265993E-02	2.798312E-04
4.203941E+03	3.234754E-02	2.761662E-04
4.213903E+03	3.205543E-02	2.726951E-04
4.223865E+03	3.178411E-02	2.694203E-04
4.233827E+03	3.153346E-02	2.663390E-04
4.243789E+03	3.130349E-02	2.634494E-04
4.253751E+03	3.109348E-02	2.607438E-04
4.263713E+03	3.090317E-02	2.582181E-04
4.273675E+03	3.073159E-02	2.558627E-04
4.283637E+03	3.057799E-02	2.536698E-04
4.293598E+03	3.044121E-02	2.516282E-04
4.303560E+03	3.031993E-02	2.497255E-04
4.313522E+03	3.021286E-02	2.479499E-04
4.323484E+03	3.011805E-02	2.462841E-04
4.333446E+03	3.003291E-02	2.447057E-04
4.343408E+03	2.995457E-02	2.431905E-04
4.353370E+03	2.987940E-02	2.417084E-04
4.363332E+03	2.980331E-02	2.402262E-04
4.373294E+03	2.972323E-02	2.387189E-04
4.383256E+03	2.963901E-02	2.371859E-04
4.393218E+03	2.955314E-02	2.356472E-04
4.403180E+03	2.946904E-02	2.341300E-04
4.413142E+03	2.938941E-02	2.326554E-04
4.423104E+03	2.931596E-02	2.312365E-04
4.433066E+03	2.925010E-02	2.298837E-04
4.443028E+03	2.919197E-02	2.285974E-04
4.452990E+03	2.914161E-02	2.273772E-04
4.462952E+03	2.909887E-02	2.262211E-04
4.472913E+03	2.906298E-02	2.251227E-04
4.482875E+03	2.903305E-02	2.240741E-04
4.492837E+03	2.900801E-02	2.230668E-04
4.502799E+03	2.898730E-02	2.220960E-04
4.512761E+03	2.896925E-02	2.211484E-04
4.522723E+03	2.895335E-02	2.202199E-04
4.532685E+03	2.893855E-02	2.193024E-04
4.542647E+03	2.892360E-02	2.183863E-04
4.552609E+03	2.890830E-02	2.174701E-04
4.562571E+03	2.889203E-02	2.165491E-04
4.572533E+03	2.887423E-02	2.156191E-04
4.582495E+03	2.885506E-02	2.146815E-04
4.592457E+03	2.883471E-02	2.137377E-04
4.602419E+03	2.881338E-02	2.127894E-04
4.612381E+03	2.879196E-02	2.118430E-04
4.622343E+03	2.877081E-02	2.109013E-04
4.632305E+03	2.875131E-02	2.099742E-04
4.642267E+03	2.873433E-02	2.090680E-04
4.652228E+03	2.872041E-02	2.081864E-04
4.662190E+03	2.871101E-02	2.073396E-04
4.672152E+03	2.870690E-02	2.065328E-04
4.682114E+03	2.870876E-02	2.057705E-04
4.692076E+03	2.871726E-02	2.050570E-04
4.702038E+03	2.873285E-02	2.043949E-04
4.712000E+03	2.875528E-02	2.037820E-04
4.721962E+03	2.878465E-02	2.032184E-04
4.731924E+03	2.882055E-02	2.027007E-04
4.741886E+03	2.886162E-02	2.022189E-04
4.751848E+03	2.890719E-02	2.017680E-04
4.761810E+03	2.895536E-02	2.013343E-04
4.771772E+03	2.900472E-02	2.009081E-04
4.781734E+03	2.905309E-02	2.004742E-04
4.791696E+03	2.909853E-02	2.000194E-04
4.801658E+03	2.913859E-02	1.995272E-04
4.811620E+03	2.917147E-02	1.989860E-04
4.821582E+03	2.919457E-02	1.983786E-04
4.831544E+03	2.920584E-02	1.976919E-04
4.841505E+03	2.920383E-02	1.969174E-04
4.851467E+03	2.918630E-02	1.960409E-04
4.861429E+03	2.915258E-02	1.950593E-04
4.871391E+03	2.910104E-02	1.939632E-04
4.881353E+03	2.903148E-02	1.927526E-04
4.891315E+03	2.894318E-02	1.914242E-04
4.901277E+03	2.883669E-02	1.899833E-04
4.911239E+03	2.871196E-02	1.884309E-04
4.921201E+03	2.856968E-02	1.867730E-04
4.931163E+03	2.841110E-02	1.850193E-04
4.941125E+03	2.823698E-02	1.831759E-04
4.951087E+03	2.804891E-02	1.812543E-04
4.961049E+03	2.784844E-02	1.792657E-04
4.971011E+03	2.763696E-02	1.772198E-04
4.980973E+03	2.741610E-02	1.751282E-04
4.990935E+03	2.718727E-02	1.730005E-04
5.000897E+03	2.695235E-02	1.708491E-04
5.010859E+03	2.671284E-02	1.686842E-04
5.020820E+03	2.646998E-02	1.665139E-04
5.030782E+03	2.622485E-02	1.643452E-04
5.040744E+03	2.597887E-02	1.621873E-04
5.050706E+03	2.573311E-02	1.600468E-04
5.060668E+03	2.548801E-02	1.579267E-04
5.070630E+03	2.524479E-02	1.558342E-04
5.080592E+03	2.500364E-02	1.537707E-04
5.090554E+03	2.476523E-02	1.517400E-04
5.100516E+03	2.452998E-02	1.497446E-04
5.110478E+03	2.429768E-02	1.477830E-04
5.120440E+03	2.406892E-02	1.458587E-04
5.130402E+03	2.384335E-02	1.439693E-04
5.140364E+03	2.362122E-02	1.421162E-04
5.150326E+03	2.340250E-02	1.402989E-04
5.160288E+03	2.318687E-02	1.385155E-04
5.170250E+03	2.297427E-02	1.367654E-04
5.180212E+03	2.276478E-02	1.350489E-04
5.190174E+03	2.255790E-02	1.333628E-04
5.200135E+03	2.235393E-02	1.317089E-04
5.210097E+03	2.215260E-02	1.300854E-04
5.220059E+03	2.195362E-02	1.284904E-04
5.230021E+03	2.175718E-02	1.269250E-04
5.239983E+03	2.156349E-02	1.253902E-04
5.249945E+03	2.137212E-02	1.238834E-04
5.259907E+03	2.118335E-02	1.224062E-04
5.269869E+03	2.099705E-02	1.209576E-04
5.279831E+03	2.081369E-02	1.195401E-04
5.289793E+03	2.063314E-02	1.181530E-04
5.299755E+03	2.045552E-02	1.167968E-04
5.309717E+03	2.028112E-02	1.154729E-04
5.319679E+03	2.010963E-02	1.141795E-04
5.329641E+03	1.994144E-02	1.129186E-04
5.339603E+03	1.977643E-02	1.116892E-04
5.349565E+03	1.961434E-02	1.104900E-04
5.359527E+03	1.945531E-02	1.093214E-04
5.369489E+03	1.929899E-02	1.081813E-04
5.379450E+03	1.914494E-02	1.070673E-04
5.389412E+03	1.899246E-02	1.059751E-04
5.399374E+03	1.884110E-02	1.049018E-04
5.409336E+03	1.868988E-02	1.038415E-04
5.419298E+03	1.853783E-02	1.027886E-04
5.429260E+03	1.838394E-02	1.017370E-04
5.439222E+03	1.822669E-02	1.006782E-04
5.449184E+03	1.806445E-02	9.960271E-05
5.459146E+03	1.789553E-02	9.850115E-05
5.469108E+03	1.771797E-02	9.736261E-05
5.479070E+03	1.753154E-02	9.618555E-05
5.489032E+03	1.733791E-02	9.497911E-05
5.498994E+03	1.713918E-02	9.375454E-05
5.508956E+03	1.693794E-02	9.252572E-05
5.518918E+03	1.673620E-02	9.130329E-05
5.528880E+03	1.653537E-02	9.009463E-05
5.538842E+03	1.633655E-02	8.890531E-05
5.548804E+03	1.614108E-02	8.774222E-05
5.558766E+03	1.594957E-02	8.660841E-05
5.568727E+03	1.576271E-02	8.550703E-05
5.578689E+03	1.558085E-02	8.443977E-05
5.588651E+03	1.540478E-02	8.341048E-05
5.598613E+03	1.523455E-02	8.241909E-05
5.608575E+03	1.507065E-02	8.146788E-05
5.618537E+03	1.491334E-02	8.055792E-05
5.628499E+03	1.476300E-02	7.969092E-05
5.638461E+03	1.461962E-02	7.886661E-05
5.648423E+03	1.448333E-02	7.808533E-05
5.658385E+03	1.435420E-02	7.734724E-05
5.668347E+03	1.423240E-02	7.665302E-05
5.678309E+03	1.411808E-02	7.600316E-05
5.688271E+03	1.401083E-02	7.539532E-05
5.698233E+03	1.391067E-02	7.482943E-05
5.708195E+03	1.381743E-02	7.430431E-05
5.718157E+03	1.373101E-02	7.381932E-05
5.728119E+03	1.365112E-02	7.337272E-05
5.738081E+03	1.357726E-02	7.296172E-05
5.748042E+03	1.350920E-02	7.258494E-05
5.758004E+03	1.344666E-02	7.224079E-05
5.767966E+03	1.338902E-02	7.192587E-05
5.777928E+03	1.333580E-02	7.163751E-05
5.787890E+03	1.328666E-02	7.137377E-05
5.797852E+03	1.324108E-02	7.113187E-05
5.807814E+03	1.319842E-02	7.090827E-05
5.817776E+03	1.315865E-02	7.070277E-05
5.827738E+03	1.312084E-02	7.051038E-05
5.837700E+03	1.308487E-02	7.033041E-05
5.847662E+03	1.305020E-02	7.015992E-05
5.857624E+03	1.301679E-02	6.999865E-05
5.867586E+03	1.298403E-02	6.984335E-05
5.877548E+03	1.295197E-02	6.969431E-05
5.887510E+03	1.292028E-02	6.954965E-05
5.897472E+03	1.288879E-02	6.940860E-05
5.907434E+03	1.285758E-02	6.927145E-05
5.917396E+03	1.282659E-02	6.913798E-05
5.927357E+03	1.279567E-02	6.900732E-05
5.937319E+03	1.276500E-02	6.888053E-05
5.947281E+03	1.273466E-02	6.875799E-05
5.957243E+03	1.270459E-02	6.863945E-05
5.967205E+03	1.267523E-02	6.852732E-05
5.977167E+03	1.264641E-02	6.842073E-05
5.987129E+03	1.261847E-02	6.832148E-05
5.997091E+03	1.259141E-02	6.822972E-05
6.007053E+03	1.256558E-02	6.814737E-05
6.017015E+03	1.254087E-02	6.807384E-05
6.026977E+03	1.251778E-02	6.801198E-05
6.036939E+03	1.249603E-02	6.796033E-05
6.046901E+03	1.247598E-02	6.792093E-05
6.056863E+03	1.245765E-02	6.789401E-05
6.066825E+03	1.244092E-02	6.787895E-05
6.076787E+03	1.242612E-02	6.787774E-05
6.086749E+03	1.241296E-02	6.788878E-05
6.096711E+03	1.240159E-02	6.791315E-05
6.106673E+03	1.239186E-02	6.795005E-05
6.116634E+03	1.238358E-02	6.799866E-05
6.126596E+03	1.237675E-02	6.805900E-05
6.136558E+03	1.237150E-02	6.813195E-05
6.146520E+03	1.236795E-02	6.821840E-05
6.156482E+03	1.236657E-02	6.832101E-05
6.166444E+03	1.236766E-02	6.844158E-05
6.176406E+03	1.237166E-02	6.858283E-05
6.186368E+03	1.237887E-02	6.874661E-05
6.196330E+03	1.238958E-02	6.893474E-05
6.206292E+03	1.240427E-02	6.915008E-05
6.216254E+03	1.242304E-02	6.939360E-05
6.226216E+03	1.244622E-02	6.966729E-05
6.236178E+03	1.247428E-02	6.997419E-05
6.246140E+03	1.250721E-02	7.031451E-05
6.256102E+03	1.254532E-02	7.069043E-05
6.266064E+03	1.258897E-02	7.110434E-05
6.276026E+03	1.263833E-02	7.155766E-05
6.285988E+03	1.269361E-02	7.205193E-05
6.295949E+03	1.275518E-02	7.258976E-05
6.305911E+03	1.282343E-02	7.317393E-05
6.315873E+03	1.289818E-02	7.380391E-05
6.325835E+03	1.297999E-02	7.448348E-05
6.335797E+03	1.306901E-02	7.521412E-05
6.345759E+03	1.316534E-02	7.599707E-05
6.355721E+03	1.326921E-02	7.683439E-05
6.365683E+03	1.338039E-02	7.772535E-05
6.375645E+03	1.349891E-02	7.867089E-05
6.385607E+03	1.362423E-02	7.966874E-05
6.395569E+03	1.375610E-02	8.071801E-05
6.405531E+03	1.389380E-02	8.181537E-05
6.415493E+03	1.403616E-02	8.295462E-05
6.425455E+03	1.418214E-02	8.413029E-05
6.435417E+03	1.433013E-02	8.533342E-05
6.445379E+03	1.447761E-02	8.654955E-05
6.455341E+03	1.462274E-02	8.776782E-05
6.465303E+03	1.476171E-02	8.896522E-05
6.475264E+03	1.489125E-02	9.012161E-05
6.485226E+03	1.500702E-02	9.120996E-05
6.495188E+03	1.510388E-02	9.219783E-05
6.505150E+03	1.517840E-02	9.306264E-05
6.515112E+03	1.522849E-02	9.378977E-05
6.525074E+03	1.525587E-02	9.438770E-05
6.535036E+03	1.526258E-02	9.486706E-05
6.544998E+03	1.525158E-02	9.524433E-05
6.554960E+03	1.522526E-02	9.553277E-05
6.564922E+03	1.518537E-02	9.574186E-05
6.574884E+03	1.513386E-02	9.588246E-05
6.584846E+03	1.507189E-02	9.596063E-05
6.594808E+03	1.500070E-02	9.598301E-05
6.604770E+03	1.492162E-02	9.595703E-05
6.614732E+03	1.483537E-02	9.588628E-05
6.624694E+03	1.474286E-02	9.577569E-05
6.634656E+03	1.464494E-02	9.562994E-05
6.644618E+03	1.454245E-02	9.545359E-05
6.654580E+03	1.443617E-02	9.525113E-05
6.664541E+03	1.432663E-02	9.502534E-05
6.674503E+03	1.421509E-02	9.478401E-05
6.684465E+03	1.410176E-02	9.452804E-05
6.694427E+03	1.398760E-02	9.426341E-05
6.704389E+03	1.387301E-02	9.399249E-05
6.714351E+03	1.375886E-02	9.372093E-05
6.724313E+03	1.364549E-02	9.345079E-05
6.734275E+03	1.353368E-02	9.318728E-05
6.744237E+03	1.342367E-02	9.293194E-05
6.754199E+03	1.331588E-02	9.268776E-05
6.764161E+03	1.321094E-02	9.245913E-05
6.774123E+03	1.310868E-02	9.224495E-05
6.784085E+03	1.300987E-02	9.205076E-05
6.794047E+03	1.291448E-02	9.187651E-05
6.804009E+03	1.282243E-02	9.172188E-05
6.813971E+03	1.273433E-02	9.159144E-05
6.823933E+03	1.264975E-02	9.148242E-05
6.833895E+03	1.256899E-02	9.139710E-05
6.843856E+03	1.249200E-02	9.133562E-05
6.853818E+03	1.241852E-02	9.129617E-05
6.863780E+03	1.234870E-02	9.128022E-05
6.873742E+03	1.228219E-02	9.128544E-05
6.883704E+03	1.221909E-02	9.131290E-05
6.893666E+03	1.215902E-02	9.135991E-05
6.903628E+03	1.210180E-02	9.142552E-05
6.913590E+03	1.204726E-02	9.150853E-05
6.923552E+03	1.199545E-02	9.160958E-05
6.933514E+03	1.194594E-02	9.172562E-05
6.943476E+03	1.189830E-02	9.185353E-05
6.953438E+03	1.185283E-02	9.199566E-05
6.963400E+03	1.180887E-02	9.214712E-05
6.973362E+03	1.176649E-02	9.230848E-05
6.983324E+03	1.172551E-02	9.247852E-05
6.993286E+03	1.168555E-02	9.265432E-05
7.003248E+03	1.164671E-02	9.283659E-05
7.013210E+03	1.160862E-02	9.302251E-05
7.023171E+03	1.157139E-02	9.321300E-05
7.033133E+03	1.153469E-02	9.340533E-05
7.043095E+03	1.149840E-02	9.359867E-05
7.053057E+03	1.146246E-02	9.379233E-05
7.063019E+03	1.142701E-02	9.398756E-05
7.072981E+03	1.139152E-02	9.417991E-05
7.082943E+03	1.135616E-02	9.437078E-05
7.092905E+03	1.132112E-02	9.456168E-05
7.102867E+03	1.128565E-02	9.474630E-05
7.112829E+03	1.125043E-02	9.493017E-05
7.122791E+03	1.121495E-02	9.510910E-05
7.132753E+03	1.117944E-02	9.528486E-05
7.142715E+03	1.114366E-02	9.545529E-05
7.152677E+03	1.110760E-02	9.562034E-05
7.162639E+03	1.107151E-02	9.578209E-05
7.172601E+03	1.103496E-02	9.593659E-05
7.182563E+03	1.099843E-02	9.608816E-05
7.192525E+03	1.096176E-02	9.623506E-05
7.202487E+03	1.092497E-02	9.637774E-05
7.212448E+03	1.088793E-02	9.651468E-05
7.222410E+03	1.085092E-02	9.664855E-05
7.232372E+03	1.081404E-02	9.678007E-05
7.242334E+03	1.077715E-02	9.690797E-05
7.252296E+03	1.074058E-02	9.703523E-05
7.262258E+03	1.070418E-02	9.716059E-05
7.272220E+03	1.066808E-02	9.728506E-05
7.282182E+03	1.063238E-02	9.740957E-05
7.292144E+03	1.059741E-02	9.753724E-05
7.302106E+03	1.056278E-02	9.766466E-05
7.312068E+03	1.052885E-02	9.779493E-05
7.322030E+03	1.049544E-02	9.792663E-05
7.331992E+03	1.046288E-02	9.806275E-05
7.341954E+03	1.043097E-02	9.820170E-05
7.351916E+03	1.040003E-02	9.834631E-05
7.361878E+03	1.036961E-02	9.849257E-05
7.371840E+03	1.033998E-02	9.864310E-05
7.381802E+03	1.031094E-02	9.879591E-05
7.391763E+03	1.028247E-02	9.895112E-05
7.401725E+03	1.025460E-02	9.910885E-05
7.411687E+03	1.022732E-02	9.926916E-05
7.421649E+03	1.020015E-02	9.942737E-05
7.431611E+03	1.017332E-02	9.958574E-05
7.441573E+03	1.014680E-02	9.974410E-05
7.451535E+03	1.012083E-02	9.990475E-05
7.461497E+03	1.009515E-02	1.000652E-04
7.471459E+03	1.007023E-02	1.002302E-04
7.481421E+03	1.004607E-02	1.003996E-04
7.491383E+03	1.002241E-02	1.005712E-04
7.501345E+03	9.999734E-03	1.007498E-04
7.511307E+03	9.977807E-03	1.009330E-04
7.521269E+03	9.956860E-03	1.011233E-04
7.531231E+03	9.936892E-03	1.013209E-04
7.541193E+03	9.917908E-03	1.015259E-04
7.551155E+03	9.899898E-03	1.017383E-04
7.561117E+03	9.883093E-03	1.019606E-04
7.571078E+03	9.867231E-03	1.021901E-04
7.581040E+03	9.852533E-03	1.024294E-04
7.591002E+03	9.838716E-03	1.026756E-04
7.600964E+03	9.826229E-03	1.029335E-04
7.610926E+03	9.814523E-03	1.031974E-04
7.620888E+03	9.803777E-03	1.034694E-04
7.630850E+03	9.794161E-03	1.037513E-04
7.640812E+03	9.785087E-03	1.040370E-04
7.650774E+03	9.777210E-03	1.043336E-04
7.660736E+03	9.769665E-03	1.046319E-04
7.670698E+03	9.762845E-03	1.049362E-04
7.680660E+03	9.756626E-03	1.052453E-04
7.690622E+03	9.750635E-03	1.055551E-04
7.700584E+03	9.745000E-03	1.058670E-04
7.710546E+03	9.739337E-03	1.061769E-04
7.720508E+03	9.733785E-03	1.064864E-04
7.730470E+03	9.728490E-03	1.067970E-04
