#wls	flux	fluxerr
1.593911E+03	6.664297E-05	4.655145E-06
1.633759E+03	6.745476E-05	4.700844E-06
1.673607E+03	6.818040E-05	4.740058E-06
1.713455E+03	6.884062E-05	4.774258E-06
1.753302E+03	6.939676E-05	4.800798E-06
1.793150E+03	6.984153E-05	4.819220E-06
1.832998E+03	7.012985E-05	4.826477E-06
1.872846E+03	7.020795E-05	4.818960E-06
1.912694E+03	6.999488E-05	4.791242E-06
1.952541E+03	6.950384E-05	4.744390E-06
1.992389E+03	6.870297E-05	4.676401E-06
2.032237E+03	6.777409E-05	4.599805E-06
2.072085E+03	6.698640E-05	4.532905E-06
2.111932E+03	6.676262E-05	4.504144E-06
2.151780E+03	6.749793E-05	4.539761E-06
2.191628E+03	6.938788E-05	4.652265E-06
2.231476E+03	7.229707E-05	4.831865E-06
2.271324E+03	7.593389E-05	5.058456E-06
2.311171E+03	8.001505E-05	5.312725E-06
2.351019E+03	8.431755E-05	5.579591E-06
2.390867E+03	8.869286E-05	5.849080E-06
2.430715E+03	9.312073E-05	6.119780E-06
2.470562E+03	9.757740E-05	6.390072E-06
2.510410E+03	1.021189E-04	6.663564E-06
2.550258E+03	1.067879E-04	6.942955E-06
2.590106E+03	1.116039E-04	7.229388E-06
2.629954E+03	1.166769E-04	7.529836E-06
2.669801E+03	1.220012E-04	7.843742E-06
2.709649E+03	1.276628E-04	8.176413E-06
2.749497E+03	1.337215E-04	8.531406E-06
2.789345E+03	1.402417E-04	8.912515E-06
2.829192E+03	1.473275E-04	9.325981E-06
2.869040E+03	1.550595E-04	9.776472E-06
2.908888E+03	1.635630E-04	1.027138E-05
2.948736E+03	1.729801E-04	1.081903E-05
2.988584E+03	1.833945E-04	1.142396E-05
2.998546E+03	1.861778E-04	1.158555E-05
3.008508E+03	1.890612E-04	1.175300E-05
3.018469E+03	1.920083E-04	1.192405E-05
3.028431E+03	1.950229E-04	1.209892E-05
3.038393E+03	1.981538E-04	1.228060E-05
3.048355E+03	2.014107E-04	1.246970E-05
3.058317E+03	2.047551E-04	1.266380E-05
3.068279E+03	2.082290E-04	1.286549E-05
3.078241E+03	2.117936E-04	1.307234E-05
3.088203E+03	2.154919E-04	1.328699E-05
3.098165E+03	2.193273E-04	1.350962E-05
3.108127E+03	2.232598E-04	1.373775E-05
3.118089E+03	2.273348E-04	1.397416E-05
3.128051E+03	2.315560E-04	1.421905E-05
3.138013E+03	2.359273E-04	1.447263E-05
3.147975E+03	2.404080E-04	1.473238E-05
3.157937E+03	2.450919E-04	1.500401E-05
3.167899E+03	2.498930E-04	1.528225E-05
3.177861E+03	2.548613E-04	1.557012E-05
3.187823E+03	2.600019E-04	1.586790E-05
3.197784E+03	2.653201E-04	1.617590E-05
3.207746E+03	2.708217E-04	1.649443E-05
3.217708E+03	2.765128E-04	1.682382E-05
3.227670E+03	2.823994E-04	1.716442E-05
3.237632E+03	2.884883E-04	1.751661E-05
3.247594E+03	2.947861E-04	1.788075E-05
3.257556E+03	3.013515E-04	1.826036E-05
3.267518E+03	3.081419E-04	1.865282E-05
3.277480E+03	3.151653E-04	1.905858E-05
3.287442E+03	3.224833E-04	1.948131E-05
3.297404E+03	3.300524E-04	1.991835E-05
3.307366E+03	3.378816E-04	2.037020E-05
3.317328E+03	3.460359E-04	2.084073E-05
3.327290E+03	3.545275E-04	2.133061E-05
3.337252E+03	3.633114E-04	2.183711E-05
3.347214E+03	3.724566E-04	2.236429E-05
3.357176E+03	3.819173E-04	2.290938E-05
3.367138E+03	3.918253E-04	2.348019E-05
3.377099E+03	4.020758E-04	2.407041E-05
3.387061E+03	4.127429E-04	2.468440E-05
3.397023E+03	4.239053E-04	2.532681E-05
3.406985E+03	4.354545E-04	2.599107E-05
3.416947E+03	4.474689E-04	2.668180E-05
3.426909E+03	4.600317E-04	2.740390E-05
3.436871E+03	4.730973E-04	2.815455E-05
3.446833E+03	4.866834E-04	2.893475E-05
3.456795E+03	5.008783E-04	2.974965E-05
3.466757E+03	5.156345E-04	3.059635E-05
3.476719E+03	5.310428E-04	3.148014E-05
3.486681E+03	5.471269E-04	3.240233E-05
3.496643E+03	5.638369E-04	3.335988E-05
3.506605E+03	5.812682E-04	3.435833E-05
3.516567E+03	5.994451E-04	3.539902E-05
3.526529E+03	6.183917E-04	3.648325E-05
3.536491E+03	6.382112E-04	3.761702E-05
3.546453E+03	6.587698E-04	3.879230E-05
3.556414E+03	6.802505E-04	4.001979E-05
3.566376E+03	7.025957E-04	4.129594E-05
3.576338E+03	7.259110E-04	4.262688E-05
3.586300E+03	7.501325E-04	4.400869E-05
3.596262E+03	7.753603E-04	4.544715E-05
3.606224E+03	8.016061E-04	4.694280E-05
3.616186E+03	8.287862E-04	4.849062E-05
3.626148E+03	8.570865E-04	5.010137E-05
3.636110E+03	8.864166E-04	5.176963E-05
3.646072E+03	9.167712E-04	5.349495E-05
3.656034E+03	9.481395E-04	5.527661E-05
3.665996E+03	9.806048E-04	5.711934E-05
3.675958E+03	1.014150E-03	5.902200E-05
3.685920E+03	1.048645E-03	6.097699E-05
3.695882E+03	1.084160E-03	6.298818E-05
3.705844E+03	1.120654E-03	6.505315E-05
3.715806E+03	1.158078E-03	6.716901E-05
3.725768E+03	1.196376E-03	6.933233E-05
3.735730E+03	1.235480E-03	7.153916E-05
3.745691E+03	1.275429E-03	7.379160E-05
3.755653E+03	1.316140E-03	7.608483E-05
3.765615E+03	1.357405E-03	7.840679E-05
3.775577E+03	1.399237E-03	8.075807E-05
3.785539E+03	1.441521E-03	8.313213E-05
3.795501E+03	1.484256E-03	8.552878E-05
3.805463E+03	1.527067E-03	8.792651E-05
3.815425E+03	1.570054E-03	9.033099E-05
3.825387E+03	1.613067E-03	9.273359E-05
3.835349E+03	1.655821E-03	9.511809E-05
3.845311E+03	1.698273E-03	9.748197E-05
3.855273E+03	1.740370E-03	9.982232E-05
3.865235E+03	1.781685E-03	1.021147E-04
3.875197E+03	1.822280E-03	1.043628E-04
3.885159E+03	1.861969E-03	1.065561E-04
3.895121E+03	1.900434E-03	1.086766E-04
3.905083E+03	1.937613E-03	1.107207E-04
3.915045E+03	1.973318E-03	1.126781E-04
3.925006E+03	2.007367E-03	1.145386E-04
3.934968E+03	2.039711E-03	1.162994E-04
3.944930E+03	2.070056E-03	1.179442E-04
3.954892E+03	2.098375E-03	1.194716E-04
3.964854E+03	2.124526E-03	1.208738E-04
3.974816E+03	2.148385E-03	1.221440E-04
3.984778E+03	2.169847E-03	1.232765E-04
3.994740E+03	2.188948E-03	1.242737E-04
4.004702E+03	2.205505E-03	1.251254E-04
4.014664E+03	2.219600E-03	1.258366E-04
4.024626E+03	2.231217E-03	1.264067E-04
4.034588E+03	2.240482E-03	1.268430E-04
4.044550E+03	2.247210E-03	1.271355E-04
4.054512E+03	2.251686E-03	1.273004E-04
4.064474E+03	2.254001E-03	1.273432E-04
4.074436E+03	2.254264E-03	1.272703E-04
4.084398E+03	2.252615E-03	1.270897E-04
4.094360E+03	2.249212E-03	1.268106E-04
4.104321E+03	2.244233E-03	1.264433E-04
4.114283E+03	2.237971E-03	1.260042E-04
4.124245E+03	2.230629E-03	1.255052E-04
4.134207E+03	2.222429E-03	1.249586E-04
4.144169E+03	2.213510E-03	1.243724E-04
4.154131E+03	2.204285E-03	1.237699E-04
4.164093E+03	2.194987E-03	1.231642E-04
4.174055E+03	2.185695E-03	1.225595E-04
4.184017E+03	2.176892E-03	1.219832E-04
4.193979E+03	2.168659E-03	1.214394E-04
4.203941E+03	2.161308E-03	1.209458E-04
4.213903E+03	2.155070E-03	1.205150E-04
4.223865E+03	2.150177E-03	1.201599E-04
4.233827E+03	2.146844E-03	1.198923E-04
4.243789E+03	2.145360E-03	1.197282E-04
4.253751E+03	2.145867E-03	1.196751E-04
4.263713E+03	2.148570E-03	1.197445E-04
4.273675E+03	2.153676E-03	1.199474E-04
4.283637E+03	2.161445E-03	1.202981E-04
4.293598E+03	2.172013E-03	1.208039E-04
4.303560E+03	2.185633E-03	1.214784E-04
4.313522E+03	2.202439E-03	1.223288E-04
4.323484E+03	2.222624E-03	1.233653E-04
4.333446E+03	2.246384E-03	1.245985E-04
4.343408E+03	2.273909E-03	1.260384E-04
4.353370E+03	2.305392E-03	1.276953E-04
4.363332E+03	2.340967E-03	1.295762E-04
4.373294E+03	2.380880E-03	1.316940E-04
4.383256E+03	2.425258E-03	1.340555E-04
4.393218E+03	2.474222E-03	1.366667E-04
4.403180E+03	2.527999E-03	1.395395E-04
4.413142E+03	2.586683E-03	1.426786E-04
4.423104E+03	2.650351E-03	1.460876E-04
4.433066E+03	2.719113E-03	1.497720E-04
4.443028E+03	2.793047E-03	1.537354E-04
4.452990E+03	2.872081E-03	1.579731E-04
4.462952E+03	2.956264E-03	1.624874E-04
4.472913E+03	3.045423E-03	1.672680E-04
4.482875E+03	3.139378E-03	1.723045E-04
4.492837E+03	3.238006E-03	1.775893E-04
4.502799E+03	3.340925E-03	1.831011E-04
4.512761E+03	3.447865E-03	1.888244E-04
4.522723E+03	3.558287E-03	1.947292E-04
4.532685E+03	3.671696E-03	2.007880E-04
4.542647E+03	3.787657E-03	2.069765E-04
4.552609E+03	3.905403E-03	2.132525E-04
4.562571E+03	4.024305E-03	2.195815E-04
4.572533E+03	4.143621E-03	2.259226E-04
4.582495E+03	4.262442E-03	2.322264E-04
4.592457E+03	4.380043E-03	2.384532E-04
4.602419E+03	4.495645E-03	2.445608E-04
4.612381E+03	4.608351E-03	2.505006E-04
4.622343E+03	4.717450E-03	2.562343E-04
4.632305E+03	4.822237E-03	2.617240E-04
4.642267E+03	4.922087E-03	2.669361E-04
4.652228E+03	5.016557E-03	2.718475E-04
4.662190E+03	5.105240E-03	2.764365E-04
4.672152E+03	5.187787E-03	2.806850E-04
4.682114E+03	5.264117E-03	2.845893E-04
4.692076E+03	5.334196E-03	2.881483E-04
4.702038E+03	5.398040E-03	2.913636E-04
4.712000E+03	5.455834E-03	2.942461E-04
4.721962E+03	5.507936E-03	2.968156E-04
4.731924E+03	5.554550E-03	2.990839E-04
4.741886E+03	5.596160E-03	3.010777E-04
4.751848E+03	5.633067E-03	3.028138E-04
4.761810E+03	5.665801E-03	3.043214E-04
4.771772E+03	5.694827E-03	3.056257E-04
4.781734E+03	5.720446E-03	3.067436E-04
4.791696E+03	5.743078E-03	3.076978E-04
4.801658E+03	5.763102E-03	3.085091E-04
4.811620E+03	5.780775E-03	3.091916E-04
4.821582E+03	5.796517E-03	3.097679E-04
4.831544E+03	5.810345E-03	3.102394E-04
4.841505E+03	5.822709E-03	3.106300E-04
4.851467E+03	5.833593E-03	3.109395E-04
4.861429E+03	5.843214E-03	3.111792E-04
4.871391E+03	5.851614E-03	3.113518E-04
4.881353E+03	5.858941E-03	3.114652E-04
4.891315E+03	5.865195E-03	3.115196E-04
4.901277E+03	5.870365E-03	3.115146E-04
4.911239E+03	5.874636E-03	3.114600E-04
4.921201E+03	5.878010E-03	3.113562E-04
4.931163E+03	5.880568E-03	3.112075E-04
4.941125E+03	5.882484E-03	3.110233E-04
4.951087E+03	5.883771E-03	3.108043E-04
4.961049E+03	5.884727E-03	3.105663E-04
4.971011E+03	5.885500E-03	3.103173E-04
4.980973E+03	5.886399E-03	3.100735E-04
4.990935E+03	5.887710E-03	3.098499E-04
5.000897E+03	5.889750E-03	3.096632E-04
5.010859E+03	5.892927E-03	3.095347E-04
5.020820E+03	5.897555E-03	3.094807E-04
5.030782E+03	5.904150E-03	3.095280E-04
5.040744E+03	5.913112E-03	3.096974E-04
5.050706E+03	5.924792E-03	3.100066E-04
5.060668E+03	5.939718E-03	3.104831E-04
5.070630E+03	5.958281E-03	3.111466E-04
5.080592E+03	5.980919E-03	3.120195E-04
5.090554E+03	6.007979E-03	3.131193E-04
5.100516E+03	6.039775E-03	3.144615E-04
5.110478E+03	6.076699E-03	3.160658E-04
5.120440E+03	6.119040E-03	3.179464E-04
5.130402E+03	6.166907E-03	3.201081E-04
5.140364E+03	6.220470E-03	3.225588E-04
5.150326E+03	6.279912E-03	3.253071E-04
5.160288E+03	6.345216E-03	3.283511E-04
5.170250E+03	6.416367E-03	3.316891E-04
5.180212E+03	6.493222E-03	3.353128E-04
5.190174E+03	6.575630E-03	3.392133E-04
5.200135E+03	6.663446E-03	3.433824E-04
5.210097E+03	6.756259E-03	3.477978E-04
5.220059E+03	6.853800E-03	3.524451E-04
5.230021E+03	6.955679E-03	3.573032E-04
5.239983E+03	7.061377E-03	3.623448E-04
5.249945E+03	7.170400E-03	3.675440E-04
5.259907E+03	7.282210E-03	3.728725E-04
5.269869E+03	7.396233E-03	3.783006E-04
5.279831E+03	7.511791E-03	3.837932E-04
5.289793E+03	7.628329E-03	3.893216E-04
5.299755E+03	7.745131E-03	3.948493E-04
5.309717E+03	7.861546E-03	4.003429E-04
5.319679E+03	7.976842E-03	4.057653E-04
5.329641E+03	8.090461E-03	4.110882E-04
5.339603E+03	8.201785E-03	4.162806E-04
5.349565E+03	8.310059E-03	4.213046E-04
5.359527E+03	8.414725E-03	4.261324E-04
5.369489E+03	8.515356E-03	4.307429E-04
5.379450E+03	8.611494E-03	4.351139E-04
5.389412E+03	8.702486E-03	4.392130E-04
5.399374E+03	8.788166E-03	4.430328E-04
5.409336E+03	8.868182E-03	4.465565E-04
5.419298E+03	8.942335E-03	4.497750E-04
5.429260E+03	9.010324E-03	4.526743E-04
5.439222E+03	9.072179E-03	4.552569E-04
5.449184E+03	9.127822E-03	4.575202E-04
5.459146E+03	9.177334E-03	4.594690E-04
5.469108E+03	9.220758E-03	4.611068E-04
5.479070E+03	9.258082E-03	4.624341E-04
5.489032E+03	9.289548E-03	4.634639E-04
5.498994E+03	9.315250E-03	4.642022E-04
5.508956E+03	9.335419E-03	4.646613E-04
5.518918E+03	9.350145E-03	4.648468E-04
5.528880E+03	9.359646E-03	4.647703E-04
5.538842E+03	9.364276E-03	4.644504E-04
5.548804E+03	9.364321E-03	4.639020E-04
5.558766E+03	9.360096E-03	4.631413E-04
5.568727E+03	9.351844E-03	4.621812E-04
5.578689E+03	9.339917E-03	4.610397E-04
5.588651E+03	9.324778E-03	4.597401E-04
5.598613E+03	9.306714E-03	4.582972E-04
5.608575E+03	9.286114E-03	4.567305E-04
5.618537E+03	9.263286E-03	4.550556E-04
5.628499E+03	9.238727E-03	4.532973E-04
5.638461E+03	9.212681E-03	4.514677E-04
5.648423E+03	9.185665E-03	4.495925E-04
5.658385E+03	9.158134E-03	4.476938E-04
5.668347E+03	9.130372E-03	4.457858E-04
5.678309E+03	9.102865E-03	4.438921E-04
5.688271E+03	9.076205E-03	4.420415E-04
5.698233E+03	9.050731E-03	4.402502E-04
5.708195E+03	9.026968E-03	4.385435E-04
5.718157E+03	9.005351E-03	4.369423E-04
5.728119E+03	8.986395E-03	4.354709E-04
5.738081E+03	8.970594E-03	4.341529E-04
5.748042E+03	8.958231E-03	4.330012E-04
5.758004E+03	8.949799E-03	4.320391E-04
5.767966E+03	8.945463E-03	4.312736E-04
5.777928E+03	8.945488E-03	4.307168E-04
5.787890E+03	8.950034E-03	4.303756E-04
5.797852E+03	8.958998E-03	4.302440E-04
5.807814E+03	8.972412E-03	4.303227E-04
5.817776E+03	8.989941E-03	4.305948E-04
5.827738E+03	9.011300E-03	4.310460E-04
5.837700E+03	9.036092E-03	4.316562E-04
5.847662E+03	9.063646E-03	4.323931E-04
5.857624E+03	9.093363E-03	4.332273E-04
5.867586E+03	9.124493E-03	4.341227E-04
5.877548E+03	9.156311E-03	4.350445E-04
5.887510E+03	9.187886E-03	4.359486E-04
5.897472E+03	9.218546E-03	4.368028E-04
5.907434E+03	9.247456E-03	4.375680E-04
5.917396E+03	9.273749E-03	4.382034E-04
5.927357E+03	9.296875E-03	4.386836E-04
5.937319E+03	9.316198E-03	4.389791E-04
5.947281E+03	9.331102E-03	4.390617E-04
5.957243E+03	9.341329E-03	4.389202E-04
5.967205E+03	9.346579E-03	4.385414E-04
5.977167E+03	9.346662E-03	4.379172E-04
5.987129E+03	9.341589E-03	4.370494E-04
5.997091E+03	9.331305E-03	4.359364E-04
6.007053E+03	9.316103E-03	4.345928E-04
6.017015E+03	9.296185E-03	4.330291E-04
6.026977E+03	9.271816E-03	4.312587E-04
6.036939E+03	9.243394E-03	4.293008E-04
6.046901E+03	9.211259E-03	4.271721E-04
6.056863E+03	9.175853E-03	4.248940E-04
6.066825E+03	9.137535E-03	4.224837E-04
6.076787E+03	9.096816E-03	4.199654E-04
6.086749E+03	9.053861E-03	4.173472E-04
6.096711E+03	9.009215E-03	4.146548E-04
6.106673E+03	8.962977E-03	4.118932E-04
6.116634E+03	8.915702E-03	4.090881E-04
6.126596E+03	8.867335E-03	4.062372E-04
6.136558E+03	8.818272E-03	4.033591E-04
6.146520E+03	8.768703E-03	4.004625E-04
6.156482E+03	8.718555E-03	3.975444E-04
6.166444E+03	8.668199E-03	3.946217E-04
6.176406E+03	8.617513E-03	3.916889E-04
6.186368E+03	8.566676E-03	3.887545E-04
6.196330E+03	8.515775E-03	3.858223E-04
6.206292E+03	8.464825E-03	3.828932E-04
6.216254E+03	8.414007E-03	3.799753E-04
6.226216E+03	8.363443E-03	3.770743E-04
6.236178E+03	8.313279E-03	3.741966E-04
6.246140E+03	8.263851E-03	3.713574E-04
6.256102E+03	8.215614E-03	3.685770E-04
6.266064E+03	8.168842E-03	3.658673E-04
6.276026E+03	8.124013E-03	3.632496E-04
6.285988E+03	8.081588E-03	3.607440E-04
6.295949E+03	8.042159E-03	3.583764E-04
6.305911E+03	8.006222E-03	3.561682E-04
6.315873E+03	7.974629E-03	3.541566E-04
6.325835E+03	7.947821E-03	3.523602E-04
6.335797E+03	7.926650E-03	3.508156E-04
6.345759E+03	7.911849E-03	3.495540E-04
6.355721E+03	7.904150E-03	3.486062E-04
6.365683E+03	7.904208E-03	3.479994E-04
6.375645E+03	7.912801E-03	3.477662E-04
6.385607E+03	7.930666E-03	3.479368E-04
6.395569E+03	7.958168E-03	3.485252E-04
6.405531E+03	7.996045E-03	3.495614E-04
6.415493E+03	8.044465E-03	3.510503E-04
6.425455E+03	8.103859E-03	3.530082E-04
6.435417E+03	8.174184E-03	3.554307E-04
6.445379E+03	8.255393E-03	3.583133E-04
6.455341E+03	8.347083E-03	3.616357E-04
6.465303E+03	8.448979E-03	3.653837E-04
6.475264E+03	8.560174E-03	3.695154E-04
6.485226E+03	8.679880E-03	3.739948E-04
6.495188E+03	8.806747E-03	3.787614E-04
6.505150E+03	8.939563E-03	3.837616E-04
6.515112E+03	9.076589E-03	3.889192E-04
6.525074E+03	9.215999E-03	3.941551E-04
6.535036E+03	9.355531E-03	3.993720E-04
6.544998E+03	9.493321E-03	4.044902E-04
6.554960E+03	9.626873E-03	4.094041E-04
6.564922E+03	9.754217E-03	4.140307E-04
6.574884E+03	9.873261E-03	4.182830E-04
6.584846E+03	9.981964E-03	4.220765E-04
6.594808E+03	1.007859E-02	4.253403E-04
6.604770E+03	1.016177E-02	4.280198E-04
6.614732E+03	1.023034E-02	4.300691E-04
6.624694E+03	1.028336E-02	4.314522E-04
6.634656E+03	1.032044E-02	4.321570E-04
6.644618E+03	1.034146E-02	4.321821E-04
6.654580E+03	1.034652E-02	4.315352E-04
6.664541E+03	1.033624E-02	4.302470E-04
6.674503E+03	1.031145E-02	4.283549E-04
6.684465E+03	1.027319E-02	4.259061E-04
6.694427E+03	1.022258E-02	4.229504E-04
6.704389E+03	1.016113E-02	4.195530E-04
6.714351E+03	1.009031E-02	4.157773E-04
6.724313E+03	1.001163E-02	4.116883E-04
6.734275E+03	9.926518E-03	4.073462E-04
6.744237E+03	9.836562E-03	4.028178E-04
6.754199E+03	9.743189E-03	3.981628E-04
6.764161E+03	9.647611E-03	3.934316E-04
6.774123E+03	9.551160E-03	3.886789E-04
6.784085E+03	9.454927E-03	3.839496E-04
6.794047E+03	9.359768E-03	3.792782E-04
6.804009E+03	9.266621E-03	3.747025E-04
6.813971E+03	9.176077E-03	3.702459E-04
6.823933E+03	9.088709E-03	3.659310E-04
6.833895E+03	9.005072E-03	3.617792E-04
6.843856E+03	8.925291E-03	3.577947E-04
6.853818E+03	8.849806E-03	3.539943E-04
6.863780E+03	8.778658E-03	3.503784E-04
6.873742E+03	8.711895E-03	3.469480E-04
6.883704E+03	8.649396E-03	3.436972E-04
6.893666E+03	8.591288E-03	3.406300E-04
6.903628E+03	8.537125E-03	3.377276E-04
6.913590E+03	8.487034E-03	3.349942E-04
6.923552E+03	8.440596E-03	3.324122E-04
6.933514E+03	8.397569E-03	3.299712E-04
6.943476E+03	8.357797E-03	3.276644E-04
6.953438E+03	8.320810E-03	3.254725E-04
6.963400E+03	8.286538E-03	3.233922E-04
6.973362E+03	8.254619E-03	3.214087E-04
6.983324E+03	8.224697E-03	3.195077E-04
6.993286E+03	8.196737E-03	3.176873E-04
7.003248E+03	8.170224E-03	3.159274E-04
7.013210E+03	8.145272E-03	3.142318E-04
7.023171E+03	8.121414E-03	3.125825E-04
7.033133E+03	8.098717E-03	3.109817E-04
7.043095E+03	8.077079E-03	3.094253E-04
7.053057E+03	8.056215E-03	3.079024E-04
7.063019E+03	8.036171E-03	3.064145E-04
7.072981E+03	8.016910E-03	3.049601E-04
7.082943E+03	7.998415E-03	3.035385E-04
7.092905E+03	7.980679E-03	3.021494E-04
7.102867E+03	7.963595E-03	3.007887E-04
7.112829E+03	7.947265E-03	2.994601E-04
7.122791E+03	7.931585E-03	2.981597E-04
7.132753E+03	7.916542E-03	2.968869E-04
7.142715E+03	7.902112E-03	2.956409E-04
7.152677E+03	7.888250E-03	2.944199E-04
7.162639E+03	7.875001E-03	2.932255E-04
7.172601E+03	7.862088E-03	2.920477E-04
7.182563E+03	7.849512E-03	2.908863E-04
7.192525E+03	7.837057E-03	2.897336E-04
7.202487E+03	7.824691E-03	2.885884E-04
7.212448E+03	7.812260E-03	2.874452E-04
7.222410E+03	7.799506E-03	2.862949E-04
7.232372E+03	7.786251E-03	2.851310E-04
7.242334E+03	7.772321E-03	2.839477E-04
7.252296E+03	7.757530E-03	2.827384E-04
7.262258E+03	7.741706E-03	2.814972E-04
7.272220E+03	7.724675E-03	2.802185E-04
7.282182E+03	7.706278E-03	2.788968E-04
7.292144E+03	7.686274E-03	2.775241E-04
7.302106E+03	7.664635E-03	2.760999E-04
7.312068E+03	7.641168E-03	2.746179E-04
7.322030E+03	7.615900E-03	2.730797E-04
7.331992E+03	7.588585E-03	2.714771E-04
7.341954E+03	7.559416E-03	2.698178E-04
7.351916E+03	7.528212E-03	2.680959E-04
7.361878E+03	7.495134E-03	2.663178E-04
7.371840E+03	7.460163E-03	2.644835E-04
7.381802E+03	7.423523E-03	2.626016E-04
7.391763E+03	7.385260E-03	2.606742E-04
7.401725E+03	7.345452E-03	2.587045E-04
7.411687E+03	7.304495E-03	2.567072E-04
7.421649E+03	7.262310E-03	2.546797E-04
7.431611E+03	7.219329E-03	2.526377E-04
7.441573E+03	7.175603E-03	2.505832E-04
7.451535E+03	7.131479E-03	2.485287E-04
7.461497E+03	7.087313E-03	2.464867E-04
7.471459E+03	7.043255E-03	2.444627E-04
7.481421E+03	6.999651E-03	2.424687E-04
7.491383E+03	6.956729E-03	2.405127E-04
7.501345E+03	6.914804E-03	2.386055E-04
7.511307E+03	6.874166E-03	2.367570E-04
7.521269E+03	6.834895E-03	2.349699E-04
7.531231E+03	6.797142E-03	2.332492E-04
7.541193E+03	6.761215E-03	2.316054E-04
7.551155E+03	6.727110E-03	2.300382E-04
7.561117E+03	6.694887E-03	2.285493E-04
7.571078E+03	6.664669E-03	2.271429E-04
7.581040E+03	6.636359E-03	2.258154E-04
7.591002E+03	6.610106E-03	2.245717E-04
7.600964E+03	6.585752E-03	2.234065E-04
7.610926E+03	6.563201E-03	2.223163E-04
7.620888E+03	6.542423E-03	2.213000E-04
7.630850E+03	6.523182E-03	2.203496E-04
7.640812E+03	6.505402E-03	2.194626E-04
7.650774E+03	6.488806E-03	2.186295E-04
7.660736E+03	6.473390E-03	2.178505E-04
7.670698E+03	6.458851E-03	2.171153E-04
7.680660E+03	6.444987E-03	2.164173E-04
7.690622E+03	6.431682E-03	2.157527E-04
7.700584E+03	6.418545E-03	2.151087E-04
7.710546E+03	6.405669E-03	2.144886E-04
7.720508E+03	6.392682E-03	2.138801E-04
7.730470E+03	6.379414E-03	2.132779E-04
