#wls	flux	fluxerr
1.593911E+03	3.876610E-05	3.879986E-06
1.633759E+03	3.953265E-05	3.945793E-06
1.673607E+03	4.024002E-05	4.005004E-06
1.713455E+03	4.091820E-05	4.060625E-06
1.753302E+03	4.153598E-05	4.109576E-06
1.793150E+03	4.208327E-05	4.150892E-06
1.832998E+03	4.251992E-05	4.180677E-06
1.872846E+03	4.283421E-05	4.197866E-06
1.912694E+03	4.296708E-05	4.196796E-06
1.952541E+03	4.291456E-05	4.177251E-06
1.992389E+03	4.266290E-05	4.138077E-06
2.032237E+03	4.231374E-05	4.089306E-06
2.072085E+03	4.203934E-05	4.047625E-06
2.111932E+03	4.209772E-05	4.037705E-06
2.151780E+03	4.277417E-05	4.086423E-06
2.191628E+03	4.415688E-05	4.201448E-06
2.231476E+03	4.620152E-05	4.377715E-06
2.271324E+03	4.872778E-05	4.597366E-06
2.311171E+03	5.153022E-05	4.840445E-06
2.351019E+03	5.447409E-05	5.093919E-06
2.390867E+03	5.747657E-05	5.349814E-06
2.430715E+03	6.050366E-05	5.604807E-06
2.470562E+03	6.355165E-05	5.858432E-06
2.510410E+03	6.664598E-05	6.112894E-06
2.550258E+03	6.979430E-05	6.368727E-06
2.590106E+03	7.303281E-05	6.629037E-06
2.629954E+03	7.638563E-05	6.895765E-06
2.669801E+03	7.989075E-05	7.172039E-06
2.709649E+03	8.355777E-05	7.458370E-06
2.749497E+03	8.743929E-05	7.759051E-06
2.789345E+03	9.154471E-05	8.074444E-06
2.829192E+03	9.589788E-05	8.406139E-06
2.869040E+03	1.005550E-04	8.758477E-06
2.908888E+03	1.055435E-04	9.133159E-06
2.948736E+03	1.108918E-04	9.531903E-06
2.988584E+03	1.166643E-04	9.959400E-06
2.998546E+03	1.181708E-04	1.007040E-05
3.008508E+03	1.196966E-04	1.018252E-05
3.018469E+03	1.212772E-04	1.029875E-05
3.028431E+03	1.228794E-04	1.041624E-05
3.038393E+03	1.245076E-04	1.053537E-05
3.048355E+03	1.261842E-04	1.065801E-05
3.058317E+03	1.279089E-04	1.078409E-05
3.068279E+03	1.296634E-04	1.091207E-05
3.078241E+03	1.314654E-04	1.104340E-05
3.088203E+03	1.332967E-04	1.117654E-05
3.098165E+03	1.351753E-04	1.131298E-05
3.108127E+03	1.371014E-04	1.145270E-05
3.118089E+03	1.390751E-04	1.159569E-05
3.128051E+03	1.410781E-04	1.174039E-05
3.138013E+03	1.431291E-04	1.188835E-05
3.147975E+03	1.452286E-04	1.203958E-05
3.157937E+03	1.473578E-04	1.219249E-05
3.167899E+03	1.495365E-04	1.234869E-05
3.177861E+03	1.517651E-04	1.250820E-05
3.187823E+03	1.540443E-04	1.267106E-05
3.197784E+03	1.563551E-04	1.283564E-05
3.207746E+03	1.587380E-04	1.300528E-05
3.217708E+03	1.611539E-04	1.317671E-05
3.227670E+03	1.636237E-04	1.335163E-05
3.237632E+03	1.661486E-04	1.353011E-05
3.247594E+03	1.687087E-04	1.371049E-05
3.257556E+03	1.713468E-04	1.389623E-05
3.267518E+03	1.740224E-04	1.408398E-05
3.277480E+03	1.767789E-04	1.427725E-05
3.287442E+03	1.795754E-04	1.447269E-05
3.297404E+03	1.824561E-04	1.467383E-05
3.307366E+03	1.853797E-04	1.487729E-05
3.317328E+03	1.883693E-04	1.508491E-05
3.327290E+03	1.914268E-04	1.529680E-05
3.337252E+03	1.945763E-04	1.551483E-05
3.347214E+03	1.977756E-04	1.573559E-05
3.357176E+03	2.010716E-04	1.596278E-05
3.367138E+03	2.044216E-04	1.619294E-05
3.377099E+03	2.078734E-04	1.642984E-05
3.387061E+03	2.114071E-04	1.667183E-05
3.397023E+03	2.150019E-04	1.691724E-05
3.406985E+03	2.187312E-04	1.717177E-05
3.416947E+03	2.225275E-04	1.743007E-05
3.426909E+03	2.264180E-04	1.769422E-05
3.436871E+03	2.304299E-04	1.796628E-05
3.446833E+03	2.345433E-04	1.824462E-05
3.456795E+03	2.387621E-04	1.852949E-05
3.466757E+03	2.430901E-04	1.882112E-05
3.476719E+03	2.475569E-04	1.912171E-05
3.486681E+03	2.521423E-04	1.942964E-05
3.496643E+03	2.568509E-04	1.974518E-05
3.506605E+03	2.617132E-04	2.007059E-05
3.516567E+03	2.667091E-04	2.040424E-05
3.526529E+03	2.718433E-04	2.074640E-05
3.536491E+03	2.771482E-04	2.109945E-05
3.546453E+03	2.826294E-04	2.146372E-05
3.556414E+03	2.882390E-04	2.183546E-05
3.566376E+03	2.940640E-04	2.222115E-05
3.576338E+03	3.000279E-04	2.261492E-05
3.586300E+03	3.062190E-04	2.302329E-05
3.596262E+03	3.125565E-04	2.344007E-05
3.606224E+03	3.191262E-04	2.387158E-05
3.616186E+03	3.258726E-04	2.431354E-05
3.626148E+03	3.327958E-04	2.476583E-05
3.636110E+03	3.399250E-04	2.523052E-05
3.646072E+03	3.472604E-04	2.570747E-05
3.656034E+03	3.548018E-04	2.619654E-05
3.665996E+03	3.625177E-04	2.669527E-05
3.675958E+03	3.704370E-04	2.720568E-05
3.685920E+03	3.785267E-04	2.772519E-05
3.695882E+03	3.868154E-04	2.825580E-05
3.705844E+03	3.953330E-04	2.879954E-05
3.715806E+03	4.039800E-04	2.934902E-05
3.725768E+03	4.128504E-04	2.991096E-05
3.735730E+03	4.218749E-04	3.048020E-05
3.745691E+03	4.311164E-04	3.106115E-05
3.755653E+03	4.405039E-04	3.164858E-05
3.765615E+03	4.500665E-04	3.224444E-05
3.775577E+03	4.597999E-04	3.284831E-05
3.785539E+03	4.696994E-04	3.345972E-05
3.795501E+03	4.797250E-04	3.407571E-05
3.805463E+03	4.899425E-04	3.470084E-05
3.815425E+03	5.003117E-04	3.533212E-05
3.825387E+03	5.108277E-04	3.596910E-05
3.835349E+03	5.214480E-04	3.660868E-05
3.845311E+03	5.322416E-04	3.725560E-05
3.855273E+03	5.431669E-04	3.790682E-05
3.865235E+03	5.541803E-04	3.855919E-05
3.875197E+03	5.653534E-04	3.921762E-05
3.885159E+03	5.766438E-04	3.987902E-05
3.895121E+03	5.880467E-04	4.054299E-05
3.905083E+03	5.995583E-04	4.120915E-05
3.915045E+03	6.111746E-04	4.187713E-05
3.925006E+03	6.228922E-04	4.254661E-05
3.934968E+03	6.347486E-04	4.322006E-05
3.944930E+03	6.466605E-04	4.389169E-05
3.954892E+03	6.587073E-04	4.456682E-05
3.964854E+03	6.708468E-04	4.524248E-05
3.974816E+03	6.830781E-04	4.591853E-05
3.984778E+03	6.954009E-04	4.659485E-05
3.994740E+03	7.078157E-04	4.727141E-05
4.004702E+03	7.203665E-04	4.795102E-05
4.014664E+03	7.330128E-04	4.863088E-05
4.024626E+03	7.457572E-04	4.931108E-05
4.034588E+03	7.586035E-04	4.999177E-05
4.044550E+03	7.715558E-04	5.067311E-05
4.054512E+03	7.846635E-04	5.135826E-05
4.064474E+03	7.978444E-04	5.204170E-05
4.074436E+03	8.111942E-04	5.272957E-05
4.084398E+03	8.247212E-04	5.342228E-05
4.094360E+03	8.383443E-04	5.411443E-05
4.104321E+03	8.521178E-04	5.480943E-05
4.114283E+03	8.660975E-04	5.551070E-05
4.124245E+03	8.802492E-04	5.621591E-05
4.134207E+03	8.945847E-04	5.692564E-05
4.144169E+03	9.091630E-04	5.764348E-05
4.154131E+03	9.239046E-04	5.836420E-05
4.164093E+03	9.389164E-04	5.909439E-05
4.174055E+03	9.541666E-04	5.983184E-05
4.184017E+03	9.696698E-04	6.057725E-05
4.193979E+03	9.854417E-04	6.133140E-05
4.203941E+03	1.001498E-03	6.209501E-05
4.213903E+03	1.017855E-03	6.286887E-05
4.223865E+03	1.034529E-03	6.365375E-05
4.233827E+03	1.051584E-03	6.445335E-05
4.243789E+03	1.068942E-03	6.526250E-05
4.253751E+03	1.086716E-03	6.608788E-05
4.263713E+03	1.104825E-03	6.692425E-05
4.273675E+03	1.123385E-03	6.777826E-05
4.283637E+03	1.142312E-03	6.864461E-05
4.293598E+03	1.161672E-03	6.952692E-05
4.303560E+03	1.181533E-03	7.042882E-05
4.313522E+03	1.201808E-03	7.134484E-05
4.323484E+03	1.222564E-03	7.227853E-05
4.333446E+03	1.243816E-03	7.323040E-05
4.343408E+03	1.265526E-03	7.419783E-05
4.353370E+03	1.287760E-03	7.518428E-05
4.363332E+03	1.310584E-03	7.619317E-05
4.373294E+03	1.333853E-03	7.721564E-05
4.383256E+03	1.357739E-03	7.826118E-05
4.393218E+03	1.382148E-03	7.932393E-05
4.403180E+03	1.407144E-03	8.040720E-05
4.413142E+03	1.432687E-03	8.150805E-05
4.423104E+03	1.458840E-03	8.262975E-05
4.433066E+03	1.485559E-03	8.376925E-05
4.443028E+03	1.512852E-03	8.492655E-05
4.452990E+03	1.540783E-03	8.610478E-05
4.462952E+03	1.569361E-03	8.730389E-05
4.472913E+03	1.598537E-03	8.852057E-05
4.482875E+03	1.628315E-03	8.975463E-05
4.492837E+03	1.658700E-03	9.100583E-05
4.502799E+03	1.689697E-03	9.227388E-05
4.512761E+03	1.721367E-03	9.356167E-05
4.522723E+03	1.753595E-03	9.486235E-05
4.532685E+03	1.786504E-03	9.618213E-05
4.542647E+03	1.819971E-03	9.751381E-05
4.552609E+03	1.854122E-03	9.886370E-05
4.562571E+03	1.888835E-03	1.002247E-04
4.572533E+03	1.924234E-03	1.016029E-04
4.582495E+03	1.960192E-03	1.029911E-04
4.592457E+03	1.996712E-03	1.043890E-04
4.602419E+03	2.033919E-03	1.058025E-04
4.612381E+03	2.071684E-03	1.072246E-04
4.622343E+03	2.110074E-03	1.086580E-04
4.632305E+03	2.149022E-03	1.100990E-04
4.642267E+03	2.188594E-03	1.115503E-04
4.652228E+03	2.228724E-03	1.130081E-04
4.662190E+03	2.269411E-03	1.144720E-04
4.672152E+03	2.310721E-03	1.159448E-04
4.682114E+03	2.352586E-03	1.174226E-04
4.692076E+03	2.395004E-03	1.189048E-04
4.702038E+03	2.438044E-03	1.203944E-04
4.712000E+03	2.481629E-03	1.218872E-04
4.721962E+03	2.525683E-03	1.233790E-04
4.731924E+03	2.570341E-03	1.248759E-04
4.741886E+03	2.615519E-03	1.263735E-04
4.751848E+03	2.661208E-03	1.278708E-04
4.761810E+03	2.707308E-03	1.293629E-04
4.771772E+03	2.753879E-03	1.308521E-04
4.781734E+03	2.800885E-03	1.323365E-04
4.791696E+03	2.848300E-03	1.338145E-04
4.801658E+03	2.896084E-03	1.352840E-04
4.811620E+03	2.944110E-03	1.367389E-04
4.821582E+03	2.992408E-03	1.381802E-04
4.831544E+03	3.040836E-03	1.396015E-04
4.841505E+03	3.089406E-03	1.410032E-04
4.851467E+03	3.137965E-03	1.423783E-04
4.861429E+03	3.186512E-03	1.437269E-04
4.871391E+03	3.234878E-03	1.450414E-04
4.881353E+03	3.282971E-03	1.463181E-04
4.891315E+03	3.330774E-03	1.475566E-04
4.901277E+03	3.378109E-03	1.487492E-04
4.911239E+03	3.424873E-03	1.498921E-04
4.921201E+03	3.470969E-03	1.509816E-04
4.931163E+03	3.516385E-03	1.520178E-04
4.941125E+03	3.560861E-03	1.529902E-04
4.951087E+03	3.604486E-03	1.539037E-04
4.961049E+03	3.647018E-03	1.547487E-04
4.971011E+03	3.688569E-03	1.555310E-04
4.980973E+03	3.729011E-03	1.562462E-04
4.990935E+03	3.768228E-03	1.568906E-04
5.000897E+03	3.806302E-03	1.574687E-04
5.010859E+03	3.843336E-03	1.579859E-04
5.020820E+03	3.879183E-03	1.584372E-04
5.030782E+03	3.913984E-03	1.588295E-04
5.040744E+03	3.947818E-03	1.591670E-04
5.050706E+03	3.980682E-03	1.594506E-04
5.060668E+03	4.012868E-03	1.596929E-04
5.070630E+03	4.044317E-03	1.598924E-04
5.080592E+03	4.075164E-03	1.600553E-04
5.090554E+03	4.105735E-03	1.601949E-04
5.100516E+03	4.135991E-03	1.603102E-04
5.110478E+03	4.166081E-03	1.604076E-04
5.120440E+03	4.196331E-03	1.604998E-04
5.130402E+03	4.226696E-03	1.605855E-04
5.140364E+03	4.257301E-03	1.606695E-04
5.150326E+03	4.288350E-03	1.607596E-04
5.160288E+03	4.319938E-03	1.608594E-04
5.170250E+03	4.352053E-03	1.609684E-04
5.180212E+03	4.384845E-03	1.610921E-04
5.190174E+03	4.418258E-03	1.612283E-04
5.200135E+03	4.452397E-03	1.613808E-04
5.210097E+03	4.487166E-03	1.615459E-04
5.220059E+03	4.522531E-03	1.617225E-04
5.230021E+03	4.558634E-03	1.619156E-04
5.239983E+03	4.595121E-03	1.621127E-04
5.249945E+03	4.632093E-03	1.623174E-04
5.259907E+03	4.669350E-03	1.625231E-04
5.269869E+03	4.706872E-03	1.627292E-04
5.279831E+03	4.744430E-03	1.629284E-04
5.289793E+03	4.781979E-03	1.631195E-04
5.299755E+03	4.819275E-03	1.632949E-04
5.309717E+03	4.856167E-03	1.634503E-04
5.319679E+03	4.892598E-03	1.635845E-04
5.329641E+03	4.928318E-03	1.636903E-04
5.339603E+03	4.963178E-03	1.637637E-04
5.349565E+03	4.997140E-03	1.638047E-04
5.359527E+03	5.029972E-03	1.638070E-04
5.369489E+03	5.061557E-03	1.637680E-04
5.379450E+03	5.091887E-03	1.636890E-04
5.389412E+03	5.120774E-03	1.635652E-04
5.399374E+03	5.148137E-03	1.633959E-04
5.409336E+03	5.173908E-03	1.631802E-04
5.419298E+03	5.198130E-03	1.629211E-04
5.429260E+03	5.220652E-03	1.626155E-04
5.439222E+03	5.241425E-03	1.622633E-04
5.449184E+03	5.260394E-03	1.618645E-04
5.459146E+03	5.277493E-03	1.614188E-04
5.469108E+03	5.292745E-03	1.609282E-04
5.479070E+03	5.306019E-03	1.603905E-04
5.489032E+03	5.317425E-03	1.598105E-04
5.498994E+03	5.327089E-03	1.591935E-04
5.508956E+03	5.335216E-03	1.585468E-04
5.518918E+03	5.341712E-03	1.578686E-04
5.528880E+03	5.346761E-03	1.571647E-04
5.538842E+03	5.350539E-03	1.564405E-04
5.548804E+03	5.353033E-03	1.556960E-04
5.558766E+03	5.354220E-03	1.549306E-04
5.568727E+03	5.354375E-03	1.541525E-04
5.578689E+03	5.353492E-03	1.533616E-04
5.588651E+03	5.351571E-03	1.525578E-04
5.598613E+03	5.348905E-03	1.517495E-04
5.608575E+03	5.345513E-03	1.509370E-04
5.618537E+03	5.341434E-03	1.501213E-04
5.628499E+03	5.336991E-03	1.493113E-04
5.638461E+03	5.332153E-03	1.485056E-04
5.648423E+03	5.327183E-03	1.477115E-04
5.658385E+03	5.322260E-03	1.469333E-04
5.668347E+03	5.317580E-03	1.461760E-04
5.678309E+03	5.313354E-03	1.454449E-04
5.688271E+03	5.309710E-03	1.447427E-04
5.698233E+03	5.306970E-03	1.440777E-04
5.708195E+03	5.305365E-03	1.434555E-04
5.718157E+03	5.305131E-03	1.428814E-04
5.728119E+03	5.306406E-03	1.423585E-04
5.738081E+03	5.309497E-03	1.418941E-04
5.748042E+03	5.314520E-03	1.414904E-04
5.758004E+03	5.321821E-03	1.411556E-04
5.767966E+03	5.331274E-03	1.408854E-04
5.777928E+03	5.343154E-03	1.406862E-04
5.787890E+03	5.357518E-03	1.405584E-04
5.797852E+03	5.374269E-03	1.404985E-04
5.807814E+03	5.393441E-03	1.405066E-04
5.817776E+03	5.414818E-03	1.405761E-04
5.827738E+03	5.438312E-03	1.407039E-04
5.837700E+03	5.463583E-03	1.408806E-04
5.847662E+03	5.490332E-03	1.410978E-04
5.857624E+03	5.518296E-03	1.413483E-04
5.867586E+03	5.546988E-03	1.416190E-04
5.877548E+03	5.575975E-03	1.418988E-04
5.887510E+03	5.604802E-03	1.421759E-04
5.897472E+03	5.633099E-03	1.424407E-04
5.907434E+03	5.660317E-03	1.426796E-04
5.917396E+03	5.686011E-03	1.428815E-04
5.927357E+03	5.709864E-03	1.430387E-04
5.937319E+03	5.731319E-03	1.431376E-04
5.947281E+03	5.750243E-03	1.431755E-04
5.957243E+03	5.766287E-03	1.431441E-04
5.967205E+03	5.779255E-03	1.430391E-04
5.977167E+03	5.789016E-03	1.428581E-04
5.987129E+03	5.795508E-03	1.426001E-04
5.997091E+03	5.798738E-03	1.422660E-04
6.007053E+03	5.798854E-03	1.418600E-04
6.017015E+03	5.795792E-03	1.413813E-04
6.026977E+03	5.789799E-03	1.408365E-04
6.036939E+03	5.781075E-03	1.402310E-04
6.046901E+03	5.769940E-03	1.395733E-04
6.056863E+03	5.756459E-03	1.388653E-04
6.066825E+03	5.740975E-03	1.381159E-04
6.076787E+03	5.723852E-03	1.373341E-04
6.086749E+03	5.705167E-03	1.365223E-04
6.096711E+03	5.685265E-03	1.356890E-04
6.106673E+03	5.664397E-03	1.348406E-04
6.116634E+03	5.642884E-03	1.339849E-04
6.126596E+03	5.620763E-03	1.331230E-04
6.136558E+03	5.598328E-03	1.322622E-04
6.146520E+03	5.575765E-03	1.314069E-04
6.156482E+03	5.553248E-03	1.305615E-04
6.166444E+03	5.530934E-03	1.297298E-04
6.176406E+03	5.508971E-03	1.289154E-04
6.186368E+03	5.487584E-03	1.281237E-04
6.196330E+03	5.466736E-03	1.273539E-04
6.206292E+03	5.446642E-03	1.266111E-04
6.216254E+03	5.427436E-03	1.258986E-04
6.226216E+03	5.409253E-03	1.252196E-04
6.236178E+03	5.392325E-03	1.245795E-04
6.246140E+03	5.376635E-03	1.239781E-04
6.256102E+03	5.362525E-03	1.234232E-04
6.266064E+03	5.350095E-03	1.229174E-04
6.276026E+03	5.339550E-03	1.224654E-04
6.285988E+03	5.331119E-03	1.220725E-04
6.295949E+03	5.325050E-03	1.217445E-04
6.305911E+03	5.321613E-03	1.214877E-04
6.315873E+03	5.321176E-03	1.213105E-04
6.325835E+03	5.323963E-03	1.212183E-04
6.335797E+03	5.330372E-03	1.212201E-04
6.345759E+03	5.340552E-03	1.213195E-04
6.355721E+03	5.354999E-03	1.215280E-04
6.365683E+03	5.374024E-03	1.218529E-04
6.375645E+03	5.397833E-03	1.222990E-04
6.385607E+03	5.426696E-03	1.228730E-04
6.395569E+03	5.460921E-03	1.235821E-04
6.405531E+03	5.500681E-03	1.244308E-04
6.415493E+03	5.545992E-03	1.254200E-04
6.425455E+03	5.596870E-03	1.265509E-04
6.435417E+03	5.653337E-03	1.278246E-04
6.445379E+03	5.715200E-03	1.292378E-04
6.455341E+03	5.782148E-03	1.307844E-04
6.465303E+03	5.853627E-03	1.324527E-04
6.475264E+03	5.929219E-03	1.342337E-04
6.485226E+03	6.007965E-03	1.361056E-04
6.495188E+03	6.089021E-03	1.380495E-04
6.505150E+03	6.171290E-03	1.400402E-04
6.515112E+03	6.253551E-03	1.420501E-04
6.525074E+03	6.334960E-03	1.440597E-04
6.535036E+03	6.414281E-03	1.460406E-04
6.544998E+03	6.490319E-03	1.479649E-04
6.554960E+03	6.561850E-03	1.498041E-04
6.564922E+03	6.627657E-03	1.515295E-04
6.574884E+03	6.686699E-03	1.531160E-04
6.584846E+03	6.737690E-03	1.545329E-04
6.594808E+03	6.779923E-03	1.557624E-04
6.604770E+03	6.812526E-03	1.567827E-04
6.614732E+03	6.835043E-03	1.575813E-04
6.624694E+03	6.846997E-03	1.581453E-04
6.634656E+03	6.848356E-03	1.584716E-04
6.644618E+03	6.839074E-03	1.585570E-04
6.654580E+03	6.819425E-03	1.584056E-04
6.664541E+03	6.789985E-03	1.580285E-04
6.674503E+03	6.751373E-03	1.574379E-04
6.684465E+03	6.704247E-03	1.566471E-04
6.694427E+03	6.649584E-03	1.556770E-04
6.704389E+03	6.588333E-03	1.545481E-04
6.714351E+03	6.521379E-03	1.532793E-04
6.724313E+03	6.449840E-03	1.518956E-04
6.734275E+03	6.374729E-03	1.504196E-04
6.744237E+03	6.297019E-03	1.488731E-04
6.754199E+03	6.217648E-03	1.472776E-04
6.764161E+03	6.137490E-03	1.456528E-04
6.774123E+03	6.057349E-03	1.440175E-04
6.784085E+03	5.977857E-03	1.423863E-04
6.794047E+03	5.899868E-03	1.407792E-04
6.804009E+03	5.823850E-03	1.392073E-04
6.813971E+03	5.750300E-03	1.376824E-04
6.823933E+03	5.679634E-03	1.362146E-04
6.833895E+03	5.612203E-03	1.348124E-04
6.843856E+03	5.548287E-03	1.334827E-04
6.853818E+03	5.488199E-03	1.322332E-04
6.863780E+03	5.431916E-03	1.310637E-04
6.873742E+03	5.379738E-03	1.299816E-04
6.883704E+03	5.331733E-03	1.289889E-04
6.893666E+03	5.287748E-03	1.280821E-04
6.903628E+03	5.247953E-03	1.272655E-04
6.913590E+03	5.212312E-03	1.265385E-04
6.923552E+03	5.180576E-03	1.258953E-04
6.933514E+03	5.152834E-03	1.253382E-04
6.943476E+03	5.128973E-03	1.248646E-04
6.953438E+03	5.108774E-03	1.244694E-04
6.963400E+03	5.092087E-03	1.241488E-04
6.973362E+03	5.078846E-03	1.239014E-04
6.983324E+03	5.068880E-03	1.237229E-04
6.993286E+03	5.061926E-03	1.236070E-04
7.003248E+03	5.057799E-03	1.235491E-04
7.013210E+03	5.056409E-03	1.235469E-04
7.023171E+03	5.057563E-03	1.235955E-04
7.033133E+03	5.060986E-03	1.236882E-04
7.043095E+03	5.066584E-03	1.238224E-04
7.053057E+03	5.074080E-03	1.239912E-04
7.063019E+03	5.083473E-03	1.241944E-04
7.072981E+03	5.094311E-03	1.244208E-04
7.082943E+03	5.106680E-03	1.246723E-04
7.092905E+03	5.120222E-03	1.249399E-04
7.102867E+03	5.134844E-03	1.252211E-04
7.112829E+03	5.150272E-03	1.255091E-04
7.122791E+03	5.166410E-03	1.258013E-04
7.132753E+03	5.183066E-03	1.260928E-04
7.142715E+03	5.200042E-03	1.263787E-04
7.152677E+03	5.217040E-03	1.266517E-04
7.162639E+03	5.233943E-03	1.269086E-04
7.172601E+03	5.250533E-03	1.271443E-04
7.182563E+03	5.266586E-03	1.273531E-04
7.192525E+03	5.281776E-03	1.275274E-04
7.202487E+03	5.296066E-03	1.276661E-04
7.212448E+03	5.309029E-03	1.277591E-04
7.222410E+03	5.320531E-03	1.278034E-04
7.232372E+03	5.330246E-03	1.277914E-04
7.242334E+03	5.338156E-03	1.277230E-04
7.252296E+03	5.343857E-03	1.275889E-04
7.262258E+03	5.347262E-03	1.273874E-04
7.272220E+03	5.348202E-03	1.271152E-04
7.282182E+03	5.346535E-03	1.267694E-04
7.292144E+03	5.342042E-03	1.263456E-04
7.302106E+03	5.334840E-03	1.258473E-04
7.312068E+03	5.324676E-03	1.252693E-04
7.322030E+03	5.311634E-03	1.246145E-04
7.331992E+03	5.295731E-03	1.238842E-04
7.341954E+03	5.277024E-03	1.230809E-04
7.351916E+03	5.255503E-03	1.222052E-04
7.361878E+03	5.231494E-03	1.212658E-04
7.371840E+03	5.204956E-03	1.202629E-04
7.381802E+03	5.176274E-03	1.192063E-04
7.391763E+03	5.145463E-03	1.180975E-04
7.401725E+03	5.112856E-03	1.169451E-04
7.411687E+03	5.078705E-03	1.157559E-04
7.421649E+03	5.043274E-03	1.145370E-04
7.431611E+03	5.006836E-03	1.132954E-04
7.441573E+03	4.969565E-03	1.120359E-04
7.451535E+03	4.931935E-03	1.107702E-04
7.461497E+03	4.894012E-03	1.095003E-04
7.471459E+03	4.856152E-03	1.082351E-04
7.481421E+03	4.818597E-03	1.069805E-04
7.491383E+03	4.781666E-03	1.057442E-04
7.501345E+03	4.745275E-03	1.045250E-04
7.511307E+03	4.709889E-03	1.033335E-04
7.521269E+03	4.675568E-03	1.021716E-04
7.531231E+03	4.642436E-03	1.010424E-04
7.541193E+03	4.610500E-03	9.994651E-05
7.551155E+03	4.580012E-03	9.888976E-05
7.561117E+03	4.550828E-03	9.786943E-05
7.571078E+03	4.523135E-03	9.688999E-05
7.581040E+03	4.496735E-03	9.594761E-05
7.591002E+03	4.471671E-03	9.504365E-05
7.600964E+03	4.447867E-03	9.417697E-05
7.610926E+03	4.425228E-03	9.334611E-05
7.620888E+03	4.403635E-03	9.254910E-05
7.630850E+03	4.382948E-03	9.178360E-05
7.640812E+03	4.363018E-03	9.104719E-05
7.650774E+03	4.343594E-03	9.033536E-05
7.660736E+03	4.324682E-03	8.964896E-05
7.670698E+03	4.305930E-03	8.898156E-05
7.680660E+03	4.287349E-03	8.833422E-05
7.690622E+03	4.268589E-03	8.770065E-05
7.700584E+03	4.249587E-03	8.708049E-05
7.710546E+03	4.230284E-03	8.647344E-05
7.720508E+03	4.210376E-03	8.587423E-05
7.730470E+03	4.189841E-03	8.528341E-05
