#wls	flux	fluxerr
1.593911E+03	5.955346E-06	5.103935E-08
1.633759E+03	6.139521E-06	5.261779E-08
1.673607E+03	6.324349E-06	5.420183E-08
1.713455E+03	6.507090E-06	5.576799E-08
1.753302E+03	6.691282E-06	5.734658E-08
1.793150E+03	6.866598E-06	5.884910E-08
1.832998E+03	7.035407E-06	6.029584E-08
1.872846E+03	7.186983E-06	6.159490E-08
1.912694E+03	7.319535E-06	6.273092E-08
1.952541E+03	7.422813E-06	6.361605E-08
1.992389E+03	7.497102E-06	6.425273E-08
2.032237E+03	7.560396E-06	6.479518E-08
2.072085E+03	7.640421E-06	6.548102E-08
2.111932E+03	7.790253E-06	6.676513E-08
2.151780E+03	8.061954E-06	6.909370E-08
2.191628E+03	8.485433E-06	7.272306E-08
2.231476E+03	9.057496E-06	7.762583E-08
2.271324E+03	9.751622E-06	8.357473E-08
2.311171E+03	1.053630E-05	9.029968E-08
2.351019E+03	1.138428E-05	9.756717E-08
2.390867E+03	1.228927E-05	1.053233E-07
2.430715E+03	1.324482E-05	1.135127E-07
2.470562E+03	1.425400E-05	1.221616E-07
2.510410E+03	1.532378E-05	1.313300E-07
2.550258E+03	1.646351E-05	1.410979E-07
2.590106E+03	1.768392E-05	1.515572E-07
2.629954E+03	1.900195E-05	1.628532E-07
2.669801E+03	2.042050E-05	1.750106E-07
2.709649E+03	2.196376E-05	1.882369E-07
2.749497E+03	2.364135E-05	2.026145E-07
2.789345E+03	2.547555E-05	2.183341E-07
2.829192E+03	2.747763E-05	2.354926E-07
2.869040E+03	2.966582E-05	2.542462E-07
2.908888E+03	3.205962E-05	2.747619E-07
2.948736E+03	3.468799E-05	2.972879E-07
2.988584E+03	3.756552E-05	3.219493E-07
2.998546E+03	3.832960E-05	3.284977E-07
3.008508E+03	3.911056E-05	3.351909E-07
3.018469E+03	3.990876E-05	3.420317E-07
3.028431E+03	4.072492E-05	3.490264E-07
3.038393E+03	4.156066E-05	3.561890E-07
3.048355E+03	4.241778E-05	3.635348E-07
3.058317E+03	4.330624E-05	3.711492E-07
3.068279E+03	4.420643E-05	3.788642E-07
3.078241E+03	4.513845E-05	3.868519E-07
3.088203E+03	4.608203E-05	3.949387E-07
3.098165E+03	4.705801E-05	4.033032E-07
3.108127E+03	4.805624E-05	4.118583E-07
3.118089E+03	4.907683E-05	4.206051E-07
3.128051E+03	5.011994E-05	4.295450E-07
3.138013E+03	5.118571E-05	4.386790E-07
3.147975E+03	5.227431E-05	4.480086E-07
3.157937E+03	5.338589E-05	4.575352E-07
3.167899E+03	5.453258E-05	4.673628E-07
3.177861E+03	5.569078E-05	4.772890E-07
3.187823E+03	5.688488E-05	4.875228E-07
3.197784E+03	5.809038E-05	4.978544E-07
3.207746E+03	5.933255E-05	5.085002E-07
3.217708E+03	6.059911E-05	5.193550E-07
3.227670E+03	6.189023E-05	5.304203E-07
3.237632E+03	6.320608E-05	5.416976E-07
3.247594E+03	6.454682E-05	5.531882E-07
3.257556E+03	6.591258E-05	5.648933E-07
3.267518E+03	6.731780E-05	5.769365E-07
3.277480E+03	6.873430E-05	5.890764E-07
3.287442E+03	7.019101E-05	6.015609E-07
3.297404E+03	7.165877E-05	6.141401E-07
3.307366E+03	7.316748E-05	6.270702E-07
3.317328E+03	7.470246E-05	6.402255E-07
3.327290E+03	7.626382E-05	6.536070E-07
3.337252E+03	7.785165E-05	6.672151E-07
3.347214E+03	7.946601E-05	6.810507E-07
3.357176E+03	8.112352E-05	6.952562E-07
3.367138E+03	8.279136E-05	7.095501E-07
3.377099E+03	8.448586E-05	7.240726E-07
3.387061E+03	8.622444E-05	7.389728E-07
3.397023E+03	8.799027E-05	7.541066E-07
3.406985E+03	8.976538E-05	7.693198E-07
3.416947E+03	9.158538E-05	7.849179E-07
3.426909E+03	9.343258E-05	8.007490E-07
3.436871E+03	9.530694E-05	8.168130E-07
3.446833E+03	9.720838E-05	8.331089E-07
3.456795E+03	9.915634E-05	8.498036E-07
3.466757E+03	1.011121E-04	8.665648E-07
3.476719E+03	1.031147E-04	8.837284E-07
3.486681E+03	1.051244E-04	9.009518E-07
3.496643E+03	1.071814E-04	9.185811E-07
3.506605E+03	1.092656E-04	9.364430E-07
3.516567E+03	1.113767E-04	9.545364E-07
3.526529E+03	1.135148E-04	9.728602E-07
3.536491E+03	1.156795E-04	9.914128E-07
3.546453E+03	1.178708E-04	1.010192E-06
3.556414E+03	1.200883E-04	1.029198E-06
3.566376E+03	1.223549E-04	1.048623E-06
3.576338E+03	1.246244E-04	1.068074E-06
3.586300E+03	1.269429E-04	1.087944E-06
3.596262E+03	1.292626E-04	1.107825E-06
3.606224E+03	1.316302E-04	1.128116E-06
3.616186E+03	1.340210E-04	1.148605E-06
3.626148E+03	1.364338E-04	1.169284E-06
3.636110E+03	1.388673E-04	1.190140E-06
3.646072E+03	1.413203E-04	1.211163E-06
3.656034E+03	1.438173E-04	1.232564E-06
3.665996E+03	1.463052E-04	1.253886E-06
3.675958E+03	1.488349E-04	1.275565E-06
3.685920E+03	1.513514E-04	1.297133E-06
3.695882E+03	1.539071E-04	1.319036E-06
3.705844E+03	1.564734E-04	1.341030E-06
3.715806E+03	1.590484E-04	1.363099E-06
3.725768E+03	1.616303E-04	1.385227E-06
3.735730E+03	1.642171E-04	1.407396E-06
3.745691E+03	1.668067E-04	1.429590E-06
3.755653E+03	1.693972E-04	1.451791E-06
3.765615E+03	1.720160E-04	1.474236E-06
3.775577E+03	1.746018E-04	1.496397E-06
3.785539E+03	1.772123E-04	1.518770E-06
3.795501E+03	1.798151E-04	1.541077E-06
3.805463E+03	1.823769E-04	1.563032E-06
3.815425E+03	1.849571E-04	1.585145E-06
3.825387E+03	1.875221E-04	1.607128E-06
3.835349E+03	1.900697E-04	1.628962E-06
3.845311E+03	1.926296E-04	1.650901E-06
3.855273E+03	1.951342E-04	1.672366E-06
3.865235E+03	1.976133E-04	1.693613E-06
3.875197E+03	2.000971E-04	1.714901E-06
3.885159E+03	2.025164E-04	1.735635E-06
3.895121E+03	2.049353E-04	1.756366E-06
3.905083E+03	2.073173E-04	1.776780E-06
3.915045E+03	2.096253E-04	1.796560E-06
3.925006E+03	2.119241E-04	1.816262E-06
3.934968E+03	2.141769E-04	1.835569E-06
3.944930E+03	2.163803E-04	1.854453E-06
3.954892E+03	2.185662E-04	1.873187E-06
3.964854E+03	2.206613E-04	1.891143E-06
3.974816E+03	2.226971E-04	1.908590E-06
3.984619E+03	4.100379E-04	3.514164E-06
3.989112E+03	4.165058E-04	3.569596E-06
3.993604E+03	4.213026E-04	3.610707E-06
3.998097E+03	4.272416E-04	3.661605E-06
4.002590E+03	4.370622E-04	3.745772E-06
4.007093E+03	4.418236E-04	3.786578E-06
4.011586E+03	4.350993E-04	3.728949E-06
4.016079E+03	4.219698E-04	3.616425E-06
4.020571E+03	4.159461E-04	3.564800E-06
4.025064E+03	4.136988E-04	3.545539E-06
4.029557E+03	4.094955E-04	3.509516E-06
4.034050E+03	3.918065E-04	3.357915E-06
4.038543E+03	3.701855E-04	3.172616E-06
4.043036E+03	3.606388E-04	3.090797E-06
4.047538E+03	3.500038E-04	2.999651E-06
4.052031E+03	3.417915E-04	2.929269E-06
4.056524E+03	3.486124E-04	2.987727E-06
4.061017E+03	3.750404E-04	3.214223E-06
4.065510E+03	3.921567E-04	3.360917E-06
4.070003E+03	3.837038E-04	3.288472E-06
4.074495E+03	3.665554E-04	3.141504E-06
4.078988E+03	3.575254E-04	3.064115E-06
4.083481E+03	3.521258E-04	3.017838E-06
4.087984E+03	3.402070E-04	2.915690E-06
4.092477E+03	3.253423E-04	2.788294E-06
4.096970E+03	3.197895E-04	2.740705E-06
4.101462E+03	3.041529E-04	2.606694E-06
4.105955E+03	2.758867E-04	2.364442E-06
4.110448E+03	2.590774E-04	2.220382E-06
4.114941E+03	2.503260E-04	2.145379E-06
4.119434E+03	2.357353E-04	2.020331E-06
4.123927E+03	2.352158E-04	2.015879E-06
4.128429E+03	2.303195E-04	1.973916E-06
4.132922E+03	2.173633E-04	1.862877E-06
4.137415E+03	2.135564E-04	1.830251E-06
4.141908E+03	2.242134E-04	1.921585E-06
4.146401E+03	2.466724E-04	2.114066E-06
4.150894E+03	2.647768E-04	2.269227E-06
4.155386E+03	2.703592E-04	2.317070E-06
4.159879E+03	2.739557E-04	2.347894E-06
4.164372E+03	2.886456E-04	2.473791E-06
4.168875E+03	3.076128E-04	2.636346E-06
4.173368E+03	3.158517E-04	2.706957E-06
4.177861E+03	3.049946E-04	2.613908E-06
4.182353E+03	2.940433E-04	2.520051E-06
4.186846E+03	2.919222E-04	2.501873E-06
4.191339E+03	2.831938E-04	2.427067E-06
4.195832E+03	2.816763E-04	2.414062E-06
4.200325E+03	2.898204E-04	2.483860E-06
4.204818E+03	2.925010E-04	2.506833E-06
4.209320E+03	2.901212E-04	2.486437E-06
4.213813E+03	2.801871E-04	2.401299E-06
4.218306E+03	2.719194E-04	2.330442E-06
4.222799E+03	2.788155E-04	2.389544E-06
4.227292E+03	2.863917E-04	2.454474E-06
4.231785E+03	2.852052E-04	2.444305E-06
4.236277E+03	2.982021E-04	2.555694E-06
4.240770E+03	3.084009E-04	2.643100E-06
4.245263E+03	3.007022E-04	2.577120E-06
4.249756E+03	2.919383E-04	2.502011E-06
4.254259E+03	2.871337E-04	2.460833E-06
4.258752E+03	2.877583E-04	2.466187E-06
4.263244E+03	2.811652E-04	2.409682E-06
4.267737E+03	2.645111E-04	2.266950E-06
4.272230E+03	2.403931E-04	2.060251E-06
4.276723E+03	2.193757E-04	1.880124E-06
4.281216E+03	2.058004E-04	1.763779E-06
4.285709E+03	2.020733E-04	1.731837E-06
4.290201E+03	2.033368E-04	1.742666E-06
4.294704E+03	2.057814E-04	1.763616E-06
4.299197E+03	2.113196E-04	1.811080E-06
4.303690E+03	2.195775E-04	1.881854E-06
4.308183E+03	2.369213E-04	2.030496E-06
4.312676E+03	2.590613E-04	2.220243E-06
4.317168E+03	2.695130E-04	2.309818E-06
4.321661E+03	2.712600E-04	2.324790E-06
4.326154E+03	2.726723E-04	2.336894E-06
4.330647E+03	2.790101E-04	2.391211E-06
4.335150E+03	2.856337E-04	2.447978E-06
4.339643E+03	2.939015E-04	2.518835E-06
4.344135E+03	2.996159E-04	2.567810E-06
4.348628E+03	3.005655E-04	2.575948E-06
4.353121E+03	3.005460E-04	2.575781E-06
4.357614E+03	2.957590E-04	2.534755E-06
4.362107E+03	2.906974E-04	2.491376E-06
4.366600E+03	2.862907E-04	2.453609E-06
4.371092E+03	2.792344E-04	2.393134E-06
4.375595E+03	2.757695E-04	2.363439E-06
4.380088E+03	2.760732E-04	2.366041E-06
4.384581E+03	2.670690E-04	2.288872E-06
4.389074E+03	2.547426E-04	2.183230E-06
4.393567E+03	2.460240E-04	2.108509E-06
4.398059E+03	2.404751E-04	2.060954E-06
4.402552E+03	2.410670E-04	2.066026E-06
4.407045E+03	2.401017E-04	2.057753E-06
4.411538E+03	2.328905E-04	1.995950E-06
4.416041E+03	2.257236E-04	1.934528E-06
4.420534E+03	2.236713E-04	1.916939E-06
4.425026E+03	2.170070E-04	1.859824E-06
4.429519E+03	2.084435E-04	1.786432E-06
4.434012E+03	1.991019E-04	1.706371E-06
4.438505E+03	1.961269E-04	1.680874E-06
4.442998E+03	2.041058E-04	1.749256E-06
4.447491E+03	2.139814E-04	1.833894E-06
4.451983E+03	2.261030E-04	1.937780E-06
4.456486E+03	2.367375E-04	2.028921E-06
4.460979E+03	2.422194E-04	2.075903E-06
4.465472E+03	2.461945E-04	2.109970E-06
4.469965E+03	2.504317E-04	2.146284E-06
4.474458E+03	2.552726E-04	2.187773E-06
4.478950E+03	2.550456E-04	2.185827E-06
4.483443E+03	2.516049E-04	2.156339E-06
4.487936E+03	2.438439E-04	2.089825E-06
4.492429E+03	2.342074E-04	2.007237E-06
4.496932E+03	2.265428E-04	1.941549E-06
4.501425E+03	2.201726E-04	1.886954E-06
4.505917E+03	2.168704E-04	1.858653E-06
4.510410E+03	2.131492E-04	1.826761E-06
4.514903E+03	2.161697E-04	1.852648E-06
4.519396E+03	2.243104E-04	1.922416E-06
4.523889E+03	2.318871E-04	1.987351E-06
4.528382E+03	2.377196E-04	2.037338E-06
4.532874E+03	2.451369E-04	2.100906E-06
4.537377E+03	2.529375E-04	2.167761E-06
4.541870E+03	2.654966E-04	2.275396E-06
4.546363E+03	2.794158E-04	2.394689E-06
4.550856E+03	2.943169E-04	2.522396E-06
4.555349E+03	3.110121E-04	2.665480E-06
4.559841E+03	3.262103E-04	2.795733E-06
4.564334E+03	3.328995E-04	2.853061E-06
4.568827E+03	3.331632E-04	2.855321E-06
4.573320E+03	3.316051E-04	2.841968E-06
4.577823E+03	3.310773E-04	2.837445E-06
4.582316E+03	3.341539E-04	2.863813E-06
4.586808E+03	3.375760E-04	2.893141E-06
4.591301E+03	3.323252E-04	2.848140E-06
4.595794E+03	3.222038E-04	2.761396E-06
4.600287E+03	3.159230E-04	2.707567E-06
4.604780E+03	3.125086E-04	2.678304E-06
4.609273E+03	3.103813E-04	2.660073E-06
4.613765E+03	3.145437E-04	2.695746E-06
4.618258E+03	3.212505E-04	2.753226E-06
4.622761E+03	3.251219E-04	2.786405E-06
4.627254E+03	3.252878E-04	2.787827E-06
4.631747E+03	3.220556E-04	2.760126E-06
4.636240E+03	3.185501E-04	2.730083E-06
4.640732E+03	3.154601E-04	2.703600E-06
4.645225E+03	3.157670E-04	2.706231E-06
4.649718E+03	3.159775E-04	2.708035E-06
4.654211E+03	3.159438E-04	2.707745E-06
4.658704E+03	3.169755E-04	2.716588E-06
4.663207E+03	3.153702E-04	2.702830E-06
4.667699E+03	3.117172E-04	2.671522E-06
4.672192E+03	3.076703E-04	2.636839E-06
4.676685E+03	3.055589E-04	2.618743E-06
4.681178E+03	3.030354E-04	2.597116E-06
4.685671E+03	3.025052E-04	2.592572E-06
4.690164E+03	3.019202E-04	2.587559E-06
4.694656E+03	3.006778E-04	2.576911E-06
4.699149E+03	3.016550E-04	2.585285E-06
4.703652E+03	3.033204E-04	2.599559E-06
4.708145E+03	3.052327E-04	2.615948E-06
4.712638E+03	3.054399E-04	2.617723E-06
4.717131E+03	3.037737E-04	2.603444E-06
4.721623E+03	3.069262E-04	2.630461E-06
4.726116E+03	3.116721E-04	2.671136E-06
4.730609E+03	3.167915E-04	2.715011E-06
4.735102E+03	3.193479E-04	2.736920E-06
4.739595E+03	3.229651E-04	2.767920E-06
4.744098E+03	3.287313E-04	2.817339E-06
4.748590E+03	3.319125E-04	2.844603E-06
4.753083E+03	3.335969E-04	2.859039E-06
4.757576E+03	3.394118E-04	2.908875E-06
4.762069E+03	3.437231E-04	2.945824E-06
4.766562E+03	3.427388E-04	2.937388E-06
4.771055E+03	3.352885E-04	2.873536E-06
4.775547E+03	3.222675E-04	2.761942E-06
4.780040E+03	3.102156E-04	2.658653E-06
4.784543E+03	2.947327E-04	2.525959E-06
4.789036E+03	2.716947E-04	2.328516E-06
4.793529E+03	2.485829E-04	2.130440E-06
4.798022E+03	2.308559E-04	1.978514E-06
4.802514E+03	2.225819E-04	1.907603E-06
4.807007E+03	2.213167E-04	1.896759E-06
4.811500E+03	2.271646E-04	1.946878E-06
4.815993E+03	2.413193E-04	2.068189E-06
4.820486E+03	2.610710E-04	2.237467E-06
4.824989E+03	2.831317E-04	2.426535E-06
4.829481E+03	3.131200E-04	2.683544E-06
4.833974E+03	3.480513E-04	2.982918E-06
4.838467E+03	3.779130E-04	3.238843E-06
4.842960E+03	4.043622E-04	3.465521E-06
4.847453E+03	4.287575E-04	3.674597E-06
4.851946E+03	4.473993E-04	3.834364E-06
4.856438E+03	4.563626E-04	3.911182E-06
4.860931E+03	4.538771E-04	3.889881E-06
4.865434E+03	4.473526E-04	3.833964E-06
4.869927E+03	4.373110E-04	3.747904E-06
4.874420E+03	4.306431E-04	3.690757E-06
4.878913E+03	4.277054E-04	3.665581E-06
4.883405E+03	4.175149E-04	3.578245E-06
4.887898E+03	4.029757E-04	3.453639E-06
4.892391E+03	3.885599E-04	3.330090E-06
4.896884E+03	3.822833E-04	3.276298E-06
4.901377E+03	3.845504E-04	3.295727E-06
4.905880E+03	3.917998E-04	3.357857E-06
4.910372E+03	4.036509E-04	3.459425E-06
4.914865E+03	4.137223E-04	3.545741E-06
4.919358E+03	4.241702E-04	3.635283E-06
4.923851E+03	4.459344E-04	3.821810E-06
4.928344E+03	4.557689E-04	3.906094E-06
4.932837E+03	4.369891E-04	3.745145E-06
4.937329E+03	4.027495E-04	3.451700E-06
4.941822E+03	3.693965E-04	3.165853E-06
4.946325E+03	3.502680E-04	3.001915E-06
4.950818E+03	3.389677E-04	2.905069E-06
4.955311E+03	3.314480E-04	2.840622E-06
4.959804E+03	3.261108E-04	2.794881E-06
4.964296E+03	3.269854E-04	2.802376E-06
4.968789E+03	3.339914E-04	2.862420E-06
4.973282E+03	3.489957E-04	2.991012E-06
4.977775E+03	3.681451E-04	3.155129E-06
4.982268E+03	3.890137E-04	3.333979E-06
4.986761E+03	4.141461E-04	3.549373E-06
4.991263E+03	4.427715E-04	3.794702E-06
4.995756E+03	4.654103E-04	3.988725E-06
5.000249E+03	4.808888E-04	4.121380E-06
5.004742E+03	4.913638E-04	4.211155E-06
5.009235E+03	4.989403E-04	4.276088E-06
5.013728E+03	5.041823E-04	4.321013E-06
5.018220E+03	5.066641E-04	4.342284E-06
5.022713E+03	5.020560E-04	4.302791E-06
5.027206E+03	4.833021E-04	4.142063E-06
5.031709E+03	4.589439E-04	3.933305E-06
5.036202E+03	4.345769E-04	3.724472E-06
5.040695E+03	4.119412E-04	3.530476E-06
5.045187E+03	3.863515E-04	3.311163E-06
5.049680E+03	3.605930E-04	3.090405E-06
5.054173E+03	3.430070E-04	2.939686E-06
5.058666E+03	3.319087E-04	2.844571E-06
5.063159E+03	3.326391E-04	2.850830E-06
5.067652E+03	3.483188E-04	2.985211E-06
5.072154E+03	3.556482E-04	3.048026E-06
5.076647E+03	3.454258E-04	2.960417E-06
5.081140E+03	3.262003E-04	2.795647E-06
5.085633E+03	3.120908E-04	2.674724E-06
5.090126E+03	3.091028E-04	2.649116E-06
5.094619E+03	3.068945E-04	2.630190E-06
5.099111E+03	3.012622E-04	2.581919E-06
5.103604E+03	2.973023E-04	2.547982E-06
5.108097E+03	2.959521E-04	2.536410E-06
5.112600E+03	2.892397E-04	2.478882E-06
5.117093E+03	2.796836E-04	2.396984E-06
5.121586E+03	2.699540E-04	2.313597E-06
5.126078E+03	2.623984E-04	2.248844E-06
5.130571E+03	2.553482E-04	2.188420E-06
5.135064E+03	2.522594E-04	2.161949E-06
5.139557E+03	2.480073E-04	2.125507E-06
5.144050E+03	2.457165E-04	2.105874E-06
5.148543E+03	2.481229E-04	2.126497E-06
5.153045E+03	2.549964E-04	2.185406E-06
5.157538E+03	2.647063E-04	2.268623E-06
5.162031E+03	2.736829E-04	2.345555E-06
5.166524E+03	2.851310E-04	2.443669E-06
5.171017E+03	2.988825E-04	2.561525E-06
5.175510E+03	3.143718E-04	2.694273E-06
5.180002E+03	3.299076E-04	2.827420E-06
5.184495E+03	3.412929E-04	2.924996E-06
5.188988E+03	3.497055E-04	2.997095E-06
5.193491E+03	3.530217E-04	3.025516E-06
5.197984E+03	3.515261E-04	3.012698E-06
5.202477E+03	3.499303E-04	2.999022E-06
5.206969E+03	3.497741E-04	2.997683E-06
5.211462E+03	3.523158E-04	3.019466E-06
5.215955E+03	3.564857E-04	3.055203E-06
5.220448E+03	3.646793E-04	3.125425E-06
5.224941E+03	3.775482E-04	3.235716E-06
5.229434E+03	3.909957E-04	3.350966E-06
5.233936E+03	4.056154E-04	3.476261E-06
5.238429E+03	4.201089E-04	3.600476E-06
5.242922E+03	4.306323E-04	3.690665E-06
5.247415E+03	4.387667E-04	3.760380E-06
5.251908E+03	4.395668E-04	3.767237E-06
5.256401E+03	4.327578E-04	3.708882E-06
5.260893E+03	4.284196E-04	3.671701E-06
5.265386E+03	4.282750E-04	3.670462E-06
5.269879E+03	4.267976E-04	3.657801E-06
5.274382E+03	4.224492E-04	3.620533E-06
5.278875E+03	4.177960E-04	3.580654E-06
5.283368E+03	4.139185E-04	3.547422E-06
5.287860E+03	4.115208E-04	3.526873E-06
5.292353E+03	4.043012E-04	3.464999E-06
5.296846E+03	3.969280E-04	3.401808E-06
5.301339E+03	3.895669E-04	3.338721E-06
5.305832E+03	3.848711E-04	3.298476E-06
5.310325E+03	3.855016E-04	3.303879E-06
5.314827E+03	3.901595E-04	3.343799E-06
5.319320E+03	3.961046E-04	3.394751E-06
5.323813E+03	4.015875E-04	3.441741E-06
5.328306E+03	4.068675E-04	3.486993E-06
5.332799E+03	4.113398E-04	3.525322E-06
5.337292E+03	4.075784E-04	3.493086E-06
5.341784E+03	3.980953E-04	3.411812E-06
5.346277E+03	3.882558E-04	3.327484E-06
5.350770E+03	3.750520E-04	3.214323E-06
5.355273E+03	3.612452E-04	3.095994E-06
5.359766E+03	3.519893E-04	3.016668E-06
5.364259E+03	3.487004E-04	2.988480E-06
5.368751E+03	3.502897E-04	3.002102E-06
5.373244E+03	3.504763E-04	3.003701E-06
5.377737E+03	3.561421E-04	3.052259E-06
5.382230E+03	3.693401E-04	3.165370E-06
5.386723E+03	3.802112E-04	3.258539E-06
5.391216E+03	3.873574E-04	3.319784E-06
5.395708E+03	3.921352E-04	3.360732E-06
5.400211E+03	3.976561E-04	3.408048E-06
5.404704E+03	4.059389E-04	3.479034E-06
5.409197E+03	4.166513E-04	3.570843E-06
5.413690E+03	4.260123E-04	3.651070E-06
5.418183E+03	4.331828E-04	3.712523E-06
5.422675E+03	4.389382E-04	3.761850E-06
5.427168E+03	4.438822E-04	3.804221E-06
5.431661E+03	4.445720E-04	3.810133E-06
5.436154E+03	4.412160E-04	3.781371E-06
5.440657E+03	4.389983E-04	3.762365E-06
5.445150E+03	4.354216E-04	3.731711E-06
5.449642E+03	4.323641E-04	3.705507E-06
5.454135E+03	4.308143E-04	3.692225E-06
5.458628E+03	4.296549E-04	3.682288E-06
5.463121E+03	4.292719E-04	3.679006E-06
5.467614E+03	4.289224E-04	3.676010E-06
5.472107E+03	4.314059E-04	3.697295E-06
5.476599E+03	4.375965E-04	3.750350E-06
5.481102E+03	4.428743E-04	3.795583E-06
5.485595E+03	4.467177E-04	3.828522E-06
5.490088E+03	4.547703E-04	3.897536E-06
5.494581E+03	4.654389E-04	3.988969E-06
5.499074E+03	4.765610E-04	4.084290E-06
5.503566E+03	4.904067E-04	4.202952E-06
5.508059E+03	5.023869E-04	4.305626E-06
5.512552E+03	5.079753E-04	4.353520E-06
5.517045E+03	5.074402E-04	4.348935E-06
5.521548E+03	5.050066E-04	4.328078E-06
5.526041E+03	4.985727E-04	4.272937E-06
5.530533E+03	4.881568E-04	4.183670E-06
5.535026E+03	4.773334E-04	4.090910E-06
5.539519E+03	4.671283E-04	4.003448E-06
5.544012E+03	4.569151E-04	3.915917E-06
5.548505E+03	4.462309E-04	3.824350E-06
5.552998E+03	4.368673E-04	3.744101E-06
5.557490E+03	4.287703E-04	3.674707E-06
5.561993E+03	4.219287E-04	3.616072E-06
5.566486E+03	4.168575E-04	3.572610E-06
5.570979E+03	4.123131E-04	3.533663E-06
5.575472E+03	4.065497E-04	3.484268E-06
5.579965E+03	4.008852E-04	3.435722E-06
5.584457E+03	3.969065E-04	3.401624E-06
5.588950E+03	3.924558E-04	3.363480E-06
5.593443E+03	3.862168E-04	3.310009E-06
5.597936E+03	3.788908E-04	3.247223E-06
5.602439E+03	3.727633E-04	3.194708E-06
5.606932E+03	3.659115E-04	3.135986E-06
5.611424E+03	3.581158E-04	3.069174E-06
5.615917E+03	3.524146E-04	3.020312E-06
5.620410E+03	3.507826E-04	3.006325E-06
5.624903E+03	3.480044E-04	2.982516E-06
5.629396E+03	3.448829E-04	2.955764E-06
5.633889E+03	3.474228E-04	2.977531E-06
5.638381E+03	3.515284E-04	3.012718E-06
5.642884E+03	3.584439E-04	3.071986E-06
5.647377E+03	3.688660E-04	3.161307E-06
5.651870E+03	3.815798E-04	3.270268E-06
5.656363E+03	3.944067E-04	3.380200E-06
5.660856E+03	4.049505E-04	3.470563E-06
5.665348E+03	4.129528E-04	3.539146E-06
5.669841E+03	4.192896E-04	3.593454E-06
5.674334E+03	4.268068E-04	3.657879E-06
