#wls	flux	fluxerr
1.588878E+03	5.357809E-02	2.239042E-04
1.628600E+03	5.575664E-02	2.330076E-04
1.668322E+03	5.785596E-02	2.417800E-04
1.708044E+03	5.982717E-02	2.500169E-04
1.747766E+03	6.161891E-02	2.575038E-04
1.787488E+03	6.316895E-02	2.639805E-04
1.827210E+03	6.441872E-02	2.692025E-04
1.866931E+03	6.529690E-02	2.728715E-04
1.906653E+03	6.574013E-02	2.747230E-04
1.946375E+03	6.567487E-02	2.744494E-04
1.986097E+03	6.505948E-02	2.718770E-04
2.025819E+03	6.385259E-02	2.668327E-04
2.065541E+03	6.210702E-02	2.595375E-04
2.105263E+03	6.001590E-02	2.507982E-04
2.144985E+03	5.788055E-02	2.418742E-04
2.184707E+03	5.610349E-02	2.344475E-04
2.224429E+03	5.510743E-02	2.302845E-04
2.264151E+03	5.531521E-02	2.311522E-04
2.303873E+03	5.676955E-02	2.372290E-04
2.343595E+03	5.926928E-02	2.476742E-04
2.383317E+03	6.266281E-02	2.618544E-04
2.423039E+03	6.679808E-02	2.791341E-04
2.462761E+03	7.149880E-02	2.987766E-04
2.502483E+03	7.653205E-02	3.198086E-04
2.542205E+03	8.160135E-02	3.409911E-04
2.581927E+03	8.640614E-02	3.610682E-04
2.621648E+03	9.075338E-02	3.792332E-04
2.661370E+03	9.442677E-02	3.945824E-04
2.701092E+03	9.725700E-02	4.064081E-04
2.740814E+03	9.927476E-02	4.148388E-04
2.780536E+03	1.005978E-01	4.203662E-04
2.820258E+03	1.013656E-01	4.235740E-04
2.859980E+03	1.017417E-01	4.251444E-04
2.899702E+03	1.018867E-01	4.257495E-04
2.939424E+03	1.019671E-01	4.260843E-04
2.979146E+03	1.021370E-01	4.267934E-04
2.989076E+03	1.022106E-01	4.271009E-04
2.999007E+03	1.023034E-01	4.274883E-04
3.008937E+03	1.024176E-01	4.279656E-04
3.018868E+03	1.025530E-01	4.285311E-04
3.028798E+03	1.027147E-01	4.292064E-04
3.038729E+03	1.029024E-01	4.299904E-04
3.048659E+03	1.031239E-01	4.309160E-04
3.058590E+03	1.033765E-01	4.319712E-04
3.068520E+03	1.036654E-01	4.331780E-04
3.078451E+03	1.039905E-01	4.345364E-04
3.088381E+03	1.043573E-01	4.360687E-04
3.098312E+03	1.047710E-01	4.377974E-04
3.108242E+03	1.052294E-01	4.397128E-04
3.118173E+03	1.057380E-01	4.418378E-04
3.128103E+03	1.062975E-01	4.441754E-04
3.138034E+03	1.069160E-01	4.467597E-04
3.147964E+03	1.075919E-01	4.495837E-04
3.157895E+03	1.083338E-01	4.526836E-04
3.167825E+03	1.091404E-01	4.560539E-04
3.177756E+03	1.100190E-01	4.597246E-04
3.187686E+03	1.109783E-01	4.637332E-04
3.197617E+03	1.120262E-01	4.681116E-04
3.207547E+03	1.131873E-01	4.729634E-04
3.217478E+03	1.144893E-01	4.784033E-04
3.227408E+03	1.159583E-01	4.845415E-04
3.237339E+03	1.176148E-01	4.914632E-04
3.247269E+03	1.194746E-01	4.992343E-04
3.257200E+03	1.215462E-01	5.078905E-04
3.267130E+03	1.238398E-01	5.174739E-04
3.277061E+03	1.263525E-01	5.279733E-04
3.286991E+03	1.290775E-01	5.393599E-04
3.296922E+03	1.320068E-01	5.515999E-04
3.306852E+03	1.351247E-01	5.646279E-04
3.316783E+03	1.383932E-01	5.782854E-04
3.326713E+03	1.417578E-01	5.923442E-04
3.336643E+03	1.451501E-01	6.065190E-04
3.346574E+03	1.484760E-01	6.204161E-04
3.356504E+03	1.516352E-01	6.336168E-04
3.366435E+03	1.545172E-01	6.456589E-04
3.376365E+03	1.570162E-01	6.561007E-04
3.386296E+03	1.590555E-01	6.646217E-04
3.396226E+03	1.605789E-01	6.709871E-04
3.406157E+03	1.615796E-01	6.751683E-04
3.416087E+03	1.621122E-01	6.773936E-04
3.426018E+03	1.622786E-01	6.780887E-04
3.435948E+03	1.622319E-01	6.778932E-04
3.445879E+03	1.621766E-01	6.776617E-04
3.450840E+03	1.317913E-01	5.506953E-04
3.452300E+03	1.316461E-01	5.500887E-04
3.453760E+03	1.315863E-01	5.498387E-04
3.455220E+03	1.317849E-01	5.506687E-04
3.456680E+03	1.316608E-01	5.501500E-04
3.458140E+03	1.311201E-01	5.478906E-04
3.459600E+03	1.307894E-01	5.465088E-04
3.461060E+03	1.308809E-01	5.468910E-04
3.462520E+03	1.312607E-01	5.484778E-04
3.463980E+03	1.311208E-01	5.478935E-04
3.465440E+03	1.308966E-01	5.469566E-04
3.466900E+03	1.308077E-01	5.465850E-04
3.468360E+03	1.309946E-01	5.473660E-04
3.469820E+03	1.310268E-01	5.475004E-04
3.471280E+03	1.308498E-01	5.467607E-04
3.472740E+03	1.309236E-01	5.470692E-04
3.474200E+03	1.311766E-01	5.481263E-04
3.475660E+03	1.315652E-01	5.497498E-04
3.477120E+03	1.318567E-01	5.509681E-04
3.478580E+03	1.319515E-01	5.513640E-04
3.480040E+03	1.323440E-01	5.530042E-04
3.481500E+03	1.327255E-01	5.545981E-04
3.482960E+03	1.327680E-01	5.547760E-04
3.484420E+03	1.326230E-01	5.541698E-04
3.485880E+03	1.324214E-01	5.533275E-04
3.487340E+03	1.326505E-01	5.542848E-04
3.488800E+03	1.330058E-01	5.557694E-04
3.490260E+03	1.332736E-01	5.568883E-04
3.491720E+03	1.331210E-01	5.562505E-04
3.493180E+03	1.332601E-01	5.568320E-04
3.494640E+03	1.336427E-01	5.584304E-04
3.496100E+03	1.340313E-01	5.600544E-04
3.497560E+03	1.343276E-01	5.612924E-04
3.499020E+03	1.347470E-01	5.630448E-04
3.500480E+03	1.348398E-01	5.634326E-04
3.501940E+03	1.347042E-01	5.628657E-04
3.503400E+03	1.344730E-01	5.618998E-04
3.504860E+03	1.343448E-01	5.613639E-04
3.506320E+03	1.342287E-01	5.608787E-04
3.507780E+03	1.342640E-01	5.610263E-04
3.509240E+03	1.342208E-01	5.608459E-04
3.510700E+03	1.343932E-01	5.615660E-04
3.512160E+03	1.344886E-01	5.619649E-04
3.513610E+03	1.346511E-01	5.626437E-04
3.515070E+03	1.345711E-01	5.623094E-04
3.516530E+03	1.347831E-01	5.631951E-04
3.517990E+03	1.349309E-01	5.638125E-04
3.519450E+03	1.349237E-01	5.637824E-04
3.520910E+03	1.345316E-01	5.621441E-04
3.522370E+03	1.341566E-01	5.605771E-04
3.523830E+03	1.337517E-01	5.588851E-04
3.525290E+03	1.334027E-01	5.574268E-04
3.526750E+03	1.332145E-01	5.566406E-04
3.528210E+03	1.328135E-01	5.549647E-04
3.529670E+03	1.327483E-01	5.546925E-04
3.531130E+03	1.327846E-01	5.548438E-04
3.532590E+03	1.327330E-01	5.546284E-04
3.534050E+03	1.328469E-01	5.551043E-04
3.535510E+03	1.327652E-01	5.547629E-04
3.536970E+03	1.326051E-01	5.540939E-04
3.538430E+03	1.322386E-01	5.525622E-04
3.539890E+03	1.321327E-01	5.521198E-04
3.541351E+03	1.321112E-01	5.520297E-04
3.542810E+03	1.319220E-01	5.512394E-04
3.544270E+03	1.316327E-01	5.500304E-04
3.545730E+03	1.315933E-01	5.498659E-04
3.547190E+03	1.318179E-01	5.508042E-04
3.548649E+03	1.322486E-01	5.526039E-04
3.550110E+03	1.326150E-01	5.541348E-04
3.551570E+03	1.326732E-01	5.543778E-04
3.553030E+03	1.327984E-01	5.549011E-04
3.554490E+03	1.331548E-01	5.563903E-04
3.555950E+03	1.330764E-01	5.560626E-04
3.557410E+03	1.330525E-01	5.559626E-04
3.558870E+03	1.334192E-01	5.574949E-04
3.560330E+03	1.339575E-01	5.597444E-04
3.561789E+03	1.339877E-01	5.598705E-04
3.563250E+03	1.344475E-01	5.617919E-04
3.564710E+03	1.350119E-01	5.641498E-04
3.566170E+03	1.354461E-01	5.659644E-04
3.567630E+03	1.358178E-01	5.675175E-04
3.569090E+03	1.359469E-01	5.680566E-04
3.570550E+03	1.362430E-01	5.692942E-04
3.572010E+03	1.365140E-01	5.704264E-04
3.573470E+03	1.365456E-01	5.705585E-04
3.574929E+03	1.364582E-01	5.701932E-04
3.576390E+03	1.367410E-01	5.713749E-04
3.577840E+03	1.368923E-01	5.720072E-04
3.579310E+03	1.363528E-01	5.697526E-04
3.580760E+03	1.361600E-01	5.689469E-04
3.582220E+03	1.363357E-01	5.696813E-04
3.583680E+03	1.363003E-01	5.695331E-04
3.585140E+03	1.361476E-01	5.688950E-04
3.586600E+03	1.360821E-01	5.686213E-04
3.588060E+03	1.356415E-01	5.667804E-04
3.589520E+03	1.353211E-01	5.654415E-04
3.590980E+03	1.349412E-01	5.638539E-04
3.592440E+03	1.346189E-01	5.625071E-04
3.593900E+03	1.337513E-01	5.588817E-04
3.595360E+03	1.327228E-01	5.545841E-04
3.596820E+03	1.318020E-01	5.507367E-04
3.598280E+03	1.310653E-01	5.476584E-04
3.599740E+03	1.304598E-01	5.451282E-04
3.601200E+03	1.299665E-01	5.430670E-04
3.602660E+03	1.291375E-01	5.396030E-04
3.604120E+03	1.281585E-01	5.355120E-04
3.605580E+03	1.266877E-01	5.293664E-04
3.607040E+03	1.256150E-01	5.248839E-04
3.608500E+03	1.250043E-01	5.223321E-04
3.609960E+03	1.243092E-01	5.194275E-04
3.611420E+03	1.232894E-01	5.151662E-04
3.612880E+03	1.218498E-01	5.091508E-04
3.614340E+03	1.207067E-01	5.043745E-04
3.615800E+03	1.197291E-01	5.002893E-04
3.617260E+03	1.189137E-01	4.968822E-04
3.618720E+03	1.178002E-01	4.922295E-04
3.620180E+03	1.166337E-01	4.873554E-04
3.621641E+03	1.159072E-01	4.843194E-04
3.623100E+03	1.151619E-01	4.812054E-04
3.624560E+03	1.141374E-01	4.769244E-04
3.626020E+03	1.129133E-01	4.718093E-04
3.627480E+03	1.119138E-01	4.676330E-04
3.628940E+03	1.109019E-01	4.634046E-04
3.630400E+03	1.096514E-01	4.581793E-04
3.631860E+03	1.080798E-01	4.516125E-04
3.633320E+03	1.066909E-01	4.458087E-04
3.634781E+03	1.055841E-01	4.411839E-04
3.636240E+03	1.047330E-01	4.376276E-04
3.637700E+03	1.035920E-01	4.328601E-04
3.639160E+03	1.023218E-01	4.275525E-04
3.640620E+03	1.011047E-01	4.224667E-04
3.642080E+03	1.004096E-01	4.195623E-04
3.643540E+03	9.958212E-02	4.161046E-04
3.645000E+03	9.853192E-02	4.117163E-04
3.646450E+03	9.740555E-02	4.070097E-04
3.647910E+03	9.629168E-02	4.023554E-04
3.649370E+03	9.492563E-02	3.966473E-04
3.650830E+03	9.376842E-02	3.918119E-04
3.652290E+03	9.285109E-02	3.879788E-04
3.653750E+03	9.213776E-02	3.849981E-04
3.655210E+03	9.145406E-02	3.821412E-04
3.656670E+03	9.088556E-02	3.797657E-04
3.658130E+03	9.026260E-02	3.771627E-04
3.659590E+03	8.979842E-02	3.752231E-04
3.661050E+03	8.917084E-02	3.726007E-04
3.662510E+03	8.861175E-02	3.702645E-04
3.663970E+03	8.795936E-02	3.675385E-04
3.665430E+03	8.754809E-02	3.658200E-04
3.666890E+03	8.680556E-02	3.627173E-04
3.668350E+03	8.597913E-02	3.592641E-04
3.669810E+03	8.516834E-02	3.558761E-04
3.671270E+03	8.470744E-02	3.539502E-04
3.672730E+03	8.429320E-02	3.522193E-04
3.674190E+03	8.387274E-02	3.504624E-04
3.675650E+03	8.346471E-02	3.487574E-04
3.677110E+03	8.304271E-02	3.469941E-04
3.678570E+03	8.279319E-02	3.459514E-04
3.680030E+03	8.259646E-02	3.451294E-04
3.681490E+03	8.211541E-02	3.431193E-04
3.682950E+03	8.153655E-02	3.407005E-04
3.684410E+03	8.097173E-02	3.383404E-04
3.685870E+03	8.039299E-02	3.359221E-04
3.687330E+03	8.015588E-02	3.349313E-04
3.688789E+03	8.003982E-02	3.344463E-04
3.690250E+03	7.980727E-02	3.334746E-04
3.691710E+03	7.969888E-02	3.330217E-04
3.693170E+03	7.974869E-02	3.332298E-04
3.694630E+03	7.983875E-02	3.336061E-04
3.696090E+03	8.006055E-02	3.345328E-04
3.697550E+03	8.033805E-02	3.356924E-04
3.699010E+03	8.034398E-02	3.357171E-04
3.700470E+03	8.015756E-02	3.349382E-04
3.701929E+03	8.018971E-02	3.350725E-04
3.703390E+03	8.040002E-02	3.359512E-04
3.704850E+03	8.040716E-02	3.359811E-04
3.706310E+03	8.039096E-02	3.359133E-04
3.707770E+03	8.066600E-02	3.370626E-04
3.709230E+03	8.083706E-02	3.377773E-04
3.710690E+03	8.092589E-02	3.381485E-04
3.712150E+03	8.129961E-02	3.397101E-04
3.713600E+03	8.133561E-02	3.398605E-04
3.715060E+03	8.158667E-02	3.409095E-04
3.716520E+03	8.166725E-02	3.412462E-04
3.717980E+03	8.150936E-02	3.405864E-04
3.719440E+03	8.192872E-02	3.423387E-04
3.720900E+03	8.231228E-02	3.439414E-04
3.722359E+03	8.224386E-02	3.436555E-04
3.723820E+03	8.250021E-02	3.447266E-04
3.725280E+03	8.267755E-02	3.454676E-04
3.726740E+03	8.282999E-02	3.461045E-04
3.728200E+03	8.310137E-02	3.472385E-04
3.729660E+03	8.343749E-02	3.486429E-04
3.731120E+03	8.375025E-02	3.499498E-04
3.732580E+03	8.397629E-02	3.508943E-04
3.734040E+03	8.427170E-02	3.521286E-04
3.735500E+03	8.441243E-02	3.527166E-04
3.736960E+03	8.421163E-02	3.518776E-04
3.738420E+03	8.421161E-02	3.518775E-04
3.739880E+03	8.429645E-02	3.522319E-04
3.741340E+03	8.442441E-02	3.527666E-04
3.742800E+03	8.448276E-02	3.530104E-04
3.744260E+03	8.443914E-02	3.528281E-04
3.745720E+03	8.447881E-02	3.529939E-04
3.747180E+03	8.453226E-02	3.532172E-04
3.748641E+03	8.473370E-02	3.540589E-04
3.750100E+03	8.476379E-02	3.541846E-04
3.751560E+03	8.506520E-02	3.554440E-04
3.753020E+03	8.556225E-02	3.575209E-04
3.754480E+03	8.605904E-02	3.595967E-04
3.755940E+03	8.667887E-02	3.621866E-04
3.757400E+03	8.714122E-02	3.641185E-04
3.758860E+03	8.771117E-02	3.665001E-04
3.760320E+03	8.843953E-02	3.695435E-04
3.761781E+03	8.961879E-02	3.744710E-04
3.763240E+03	9.055118E-02	3.783669E-04
3.764700E+03	9.172794E-02	3.832840E-04
3.766160E+03	9.297347E-02	3.884884E-04
3.767620E+03	9.414766E-02	3.933947E-04
3.769080E+03	9.537670E-02	3.985302E-04
3.770540E+03	9.696524E-02	4.051679E-04
3.772000E+03	9.840696E-02	4.111921E-04
3.773460E+03	9.998340E-02	4.177792E-04
3.774920E+03	1.016837E-01	4.248839E-04
3.776380E+03	1.033894E-01	4.320111E-04
3.777840E+03	1.049207E-01	4.384098E-04
3.779300E+03	1.067249E-01	4.459482E-04
3.780750E+03	1.081765E-01	4.520138E-04
3.782211E+03	1.098624E-01	4.590581E-04
3.783670E+03	1.117488E-01	4.669406E-04
3.785130E+03	1.135591E-01	4.745049E-04
3.786590E+03	1.154438E-01	4.823801E-04
3.788050E+03	1.175902E-01	4.913486E-04
3.789510E+03	1.199888E-01	5.013711E-04
3.790970E+03	1.222912E-01	5.109915E-04
3.792430E+03	1.246647E-01	5.209093E-04
3.793890E+03	1.273900E-01	5.322968E-04
3.795350E+03	1.302919E-01	5.444226E-04
3.796810E+03	1.330102E-01	5.557806E-04
3.798270E+03	1.356888E-01	5.669730E-04
3.799730E+03	1.383709E-01	5.781802E-04
3.801190E+03	1.411575E-01	5.898239E-04
3.802650E+03	1.438907E-01	6.012444E-04
3.804110E+03	1.464940E-01	6.121225E-04
3.805570E+03	1.493244E-01	6.239491E-04
3.807030E+03	1.522024E-01	6.359747E-04
3.808490E+03	1.551786E-01	6.484106E-04
3.809950E+03	1.580233E-01	6.602974E-04
3.811410E+03	1.608208E-01	6.719865E-04
3.812870E+03	1.637088E-01	6.840538E-04
3.814330E+03	1.664426E-01	6.954767E-04
3.815790E+03	1.687468E-01	7.051049E-04
3.817250E+03	1.710958E-01	7.149203E-04
3.818710E+03	1.736577E-01	7.256247E-04
3.820170E+03	1.761877E-01	7.361965E-04
3.821630E+03	1.783498E-01	7.452307E-04
3.823090E+03	1.804192E-01	7.538778E-04
3.824550E+03	1.824265E-01	7.622652E-04
3.826010E+03	1.845244E-01	7.710310E-04
3.827470E+03	1.862702E-01	7.783258E-04
3.828930E+03	1.877861E-01	7.846598E-04
3.830390E+03	1.894232E-01	7.915004E-04
3.831850E+03	1.909832E-01	7.980187E-04
3.833310E+03	1.922984E-01	8.035143E-04
3.834770E+03	1.935517E-01	8.087513E-04
3.836230E+03	1.950178E-01	8.148772E-04
3.837690E+03	1.964527E-01	8.208728E-04
3.839150E+03	1.975210E-01	8.253367E-04
3.840610E+03	1.984820E-01	8.293521E-04
3.842071E+03	1.991683E-01	8.322197E-04
3.843530E+03	1.996257E-01	8.341311E-04
3.844990E+03	2.001285E-01	8.362316E-04
3.846450E+03	2.003265E-01	8.370589E-04
3.847900E+03	2.002201E-01	8.366143E-04
3.849359E+03	2.002350E-01	8.366768E-04
3.850820E+03	2.002194E-01	8.366113E-04
3.852280E+03	2.000363E-01	8.358464E-04
3.853740E+03	1.996859E-01	8.343823E-04
3.855200E+03	1.992748E-01	8.326644E-04
3.856660E+03	1.990004E-01	8.315175E-04
3.858120E+03	1.986197E-01	8.299267E-04
3.859580E+03	1.982541E-01	8.283994E-04
3.861040E+03	1.978278E-01	8.266179E-04
3.862500E+03	1.973864E-01	8.247735E-04
3.863960E+03	1.970664E-01	8.234365E-04
3.865420E+03	1.965190E-01	8.211488E-04
3.866880E+03	1.960473E-01	8.191781E-04
3.868340E+03	1.958489E-01	8.183489E-04
3.869800E+03	1.953925E-01	8.164419E-04
3.871260E+03	1.948149E-01	8.140285E-04
3.872720E+03	1.944800E-01	8.126290E-04
3.874180E+03	1.940390E-01	8.107861E-04
3.875640E+03	1.934920E-01	8.085005E-04
3.877100E+03	1.928695E-01	8.058991E-04
3.878560E+03	1.921713E-01	8.029819E-04
3.880020E+03	1.917307E-01	8.011407E-04
3.881480E+03	1.913658E-01	7.996161E-04
3.882940E+03	1.907286E-01	7.969536E-04
3.884400E+03	1.900160E-01	7.939757E-04
3.885860E+03	1.893641E-01	7.912516E-04
3.887320E+03	1.888786E-01	7.892230E-04
3.888780E+03	1.882421E-01	7.865635E-04
3.890240E+03	1.877115E-01	7.843463E-04
3.891700E+03	1.873472E-01	7.828242E-04
3.893160E+03	1.868471E-01	7.807344E-04
3.894620E+03	1.865585E-01	7.795283E-04
3.896080E+03	1.863603E-01	7.787004E-04
3.897540E+03	1.862528E-01	7.782511E-04
3.899000E+03	1.863414E-01	7.786210E-04
3.900460E+03	1.865352E-01	7.794310E-04
3.901920E+03	1.865479E-01	7.794841E-04
3.903380E+03	1.864851E-01	7.792216E-04
3.904840E+03	1.865276E-01	7.793993E-04
3.906300E+03	1.866755E-01	7.800170E-04
3.907760E+03	1.869287E-01	7.810749E-04
3.909219E+03	1.872869E-01	7.825717E-04
3.910680E+03	1.877654E-01	7.845710E-04
3.912140E+03	1.877466E-01	7.844925E-04
3.913590E+03	1.879689E-01	7.854213E-04
3.915050E+03	1.881604E-01	7.862215E-04
3.916510E+03	1.882916E-01	7.867696E-04
3.917970E+03	1.885880E-01	7.880079E-04
3.919430E+03	1.889141E-01	7.893706E-04
3.920890E+03	1.890747E-01	7.900414E-04
3.922351E+03	1.893250E-01	7.910876E-04
3.923810E+03	1.893198E-01	7.910658E-04
3.925270E+03	1.892995E-01	7.909806E-04
3.926730E+03	1.892489E-01	7.907694E-04
3.928190E+03	1.891233E-01	7.902445E-04
3.929649E+03	1.887724E-01	7.887783E-04
3.931110E+03	1.887067E-01	7.885035E-04
3.932570E+03	1.886858E-01	7.884163E-04
3.934030E+03	1.884398E-01	7.873885E-04
3.935490E+03	1.884188E-01	7.873007E-04
3.936950E+03	1.883826E-01	7.871492E-04
3.938410E+03	1.883463E-01	7.869974E-04
3.939870E+03	1.881751E-01	7.862820E-04
3.941330E+03	1.883631E-01	7.870678E-04
3.942790E+03	1.883863E-01	7.871646E-04
3.944250E+03	1.880801E-01	7.858852E-04
3.945710E+03	1.874897E-01	7.834181E-04
3.947170E+03	1.870790E-01	7.817021E-04
3.948630E+03	1.866983E-01	7.801111E-04
3.950090E+03	1.863474E-01	7.786450E-04
3.951550E+03	1.858772E-01	7.766800E-04
3.953010E+03	1.854817E-01	7.750277E-04
3.954470E+03	1.851312E-01	7.735629E-04
3.955930E+03	1.846762E-01	7.716616E-04
3.957390E+03	1.842960E-01	7.700728E-04
3.958850E+03	1.837964E-01	7.679853E-04
3.960310E+03	1.832522E-01	7.657116E-04
3.961770E+03	1.826486E-01	7.631893E-04
3.963230E+03	1.819705E-01	7.603558E-04
3.964690E+03	1.813226E-01	7.576485E-04
3.966150E+03	1.807643E-01	7.553158E-04
3.967610E+03	1.802509E-01	7.531705E-04
3.969071E+03	1.794696E-01	7.499057E-04
3.970530E+03	1.787184E-01	7.467668E-04
3.971990E+03	1.780568E-01	7.440022E-04
3.973450E+03	1.773210E-01	7.409278E-04
3.974910E+03	1.767194E-01	7.384138E-04
3.976370E+03	1.758503E-01	7.347824E-04
3.977830E+03	1.750114E-01	7.312770E-04
3.979280E+03	1.742920E-01	7.282712E-04
3.980750E+03	1.733494E-01	7.243324E-04
3.982200E+03	1.727049E-01	7.216396E-04
3.983660E+03	1.720604E-01	7.189465E-04
3.985120E+03	1.713123E-01	7.158204E-04
3.986580E+03	1.703121E-01	7.116413E-04
3.988040E+03	1.691195E-01	7.066581E-04
3.989500E+03	1.679720E-01	7.018629E-04
3.990960E+03	1.668102E-01	6.970086E-04
3.992420E+03	1.656786E-01	6.922800E-04
3.993880E+03	1.643401E-01	6.866871E-04
3.995340E+03	1.632393E-01	6.820878E-04
3.996800E+03	1.621243E-01	6.774286E-04
3.998260E+03	1.609506E-01	6.725241E-04
3.999720E+03	1.598958E-01	6.681169E-04
4.001180E+03	1.587528E-01	6.633410E-04
4.002641E+03	1.576844E-01	6.588763E-04
4.004100E+03	1.567644E-01	6.550323E-04
4.005560E+03	1.557117E-01	6.506336E-04
4.007020E+03	1.547926E-01	6.467933E-04
4.008480E+03	1.540956E-01	6.438809E-04
4.009940E+03	1.534580E-01	6.412165E-04
4.011400E+03	1.527320E-01	6.381831E-04
4.012860E+03	1.520507E-01	6.353361E-04
4.014320E+03	1.511484E-01	6.315659E-04
4.015780E+03	1.505710E-01	6.291531E-04
4.017240E+03	1.500676E-01	6.270497E-04
4.018700E+03	1.492842E-01	6.237765E-04
4.020160E+03	1.487667E-01	6.216139E-04
4.021620E+03	1.484555E-01	6.203138E-04
4.023080E+03	1.480414E-01	6.185832E-04
4.024540E+03	1.475684E-01	6.166070E-04
4.026000E+03	1.470810E-01	6.145704E-04
4.027460E+03	1.466791E-01	6.128911E-04
4.028920E+03	1.463260E-01	6.114153E-04
4.030380E+03	1.458552E-01	6.094482E-04
4.031840E+03	1.454200E-01	6.076297E-04
4.033300E+03	1.451672E-01	6.065734E-04
4.034760E+03	1.447395E-01	6.047864E-04
4.036220E+03	1.443738E-01	6.032582E-04
4.037680E+03	1.442079E-01	6.025649E-04
4.039140E+03	1.441241E-01	6.022149E-04
4.040600E+03	1.440654E-01	6.019694E-04
4.042060E+03	1.440534E-01	6.019193E-04
4.043520E+03	1.440913E-01	6.020776E-04
4.044980E+03	1.439134E-01	6.013344E-04
4.046440E+03	1.436579E-01	6.002668E-04
4.047890E+03	1.435377E-01	5.997643E-04
4.049350E+03	1.433673E-01	5.990522E-04
4.050810E+03	1.431353E-01	5.980828E-04
4.052270E+03	1.430395E-01	5.976825E-04
4.053730E+03	1.428998E-01	5.970987E-04
4.055190E+03	1.426928E-01	5.962338E-04
4.056650E+03	1.425151E-01	5.954912E-04
4.058110E+03	1.422599E-01	5.944249E-04
4.059570E+03	1.420969E-01	5.937437E-04
4.061030E+03	1.419280E-01	5.930380E-04
4.062490E+03	1.416861E-01	5.920272E-04
4.063950E+03	1.413012E-01	5.904188E-04
4.065410E+03	1.409091E-01	5.887803E-04
4.066870E+03	1.406208E-01	5.875758E-04
4.068330E+03	1.403224E-01	5.863288E-04
4.069790E+03	1.399466E-01	5.847588E-04
4.071250E+03	1.394313E-01	5.826055E-04
4.072710E+03	1.389423E-01	5.805624E-04
4.074170E+03	1.385206E-01	5.788003E-04
4.075630E+03	1.380278E-01	5.767408E-04
