#wls	flux	fluxerr
1.588878E+03	1.116124E-02	4.212818E-04
1.628600E+03	1.127871E-02	4.241977E-04
1.668322E+03	1.134645E-02	4.251809E-04
1.708044E+03	1.136090E-02	4.241178E-04
1.747766E+03	1.131588E-02	4.208003E-04
1.787488E+03	1.120930E-02	4.151765E-04
1.827210E+03	1.103929E-02	4.072055E-04
1.866931E+03	1.080896E-02	3.970315E-04
1.906653E+03	1.052037E-02	3.847596E-04
1.946375E+03	1.018302E-02	3.707658E-04
1.986097E+03	9.806851E-03	3.554377E-04
2.025819E+03	9.408052E-03	3.393823E-04
2.065541E+03	9.002572E-03	3.231877E-04
2.105263E+03	8.609675E-03	3.075497E-04
2.144985E+03	8.247353E-03	2.931052E-04
2.184707E+03	7.930997E-03	2.803856E-04
2.224429E+03	7.671595E-03	2.697550E-04
2.264151E+03	7.474122E-03	2.613575E-04
2.303873E+03	7.339254E-03	2.551827E-04
2.343595E+03	7.261880E-03	2.510179E-04
2.383317E+03	7.231820E-03	2.484790E-04
2.423039E+03	7.237854E-03	2.471532E-04
2.462761E+03	7.265199E-03	2.465156E-04
2.502483E+03	7.299798E-03	2.460780E-04
2.542205E+03	7.327542E-03	2.453621E-04
2.581927E+03	7.335877E-03	2.439545E-04
2.621648E+03	7.314982E-03	2.415438E-04
2.661370E+03	7.259119E-03	2.379625E-04
2.701092E+03	7.165602E-03	2.331489E-04
2.740814E+03	7.036133E-03	2.271866E-04
2.780536E+03	6.875178E-03	2.202471E-04
2.820258E+03	6.688803E-03	2.125492E-04
2.859980E+03	6.484702E-03	2.043577E-04
2.899702E+03	6.270773E-03	1.959363E-04
2.939424E+03	6.054986E-03	1.875426E-04
2.979146E+03	5.845931E-03	1.794450E-04
2.989076E+03	5.795268E-03	1.774834E-04
2.999007E+03	5.746020E-03	1.755705E-04
3.008937E+03	5.697394E-03	1.736816E-04
3.018868E+03	5.650365E-03	1.718466E-04
3.028798E+03	5.604445E-03	1.700501E-04
3.038729E+03	5.559731E-03	1.682951E-04
3.048659E+03	5.516877E-03	1.666009E-04
3.058590E+03	5.475407E-03	1.649530E-04
3.068520E+03	5.435687E-03	1.633621E-04
3.078451E+03	5.397534E-03	1.618223E-04
3.088381E+03	5.361299E-03	1.603438E-04
3.098312E+03	5.327327E-03	1.589365E-04
3.108242E+03	5.295169E-03	1.575866E-04
3.118173E+03	5.265167E-03	1.563039E-04
3.128103E+03	5.237398E-03	1.550901E-04
3.138034E+03	5.211936E-03	1.539472E-04
3.147964E+03	5.188855E-03	1.528766E-04
3.157895E+03	5.168224E-03	1.518799E-04
3.167825E+03	5.150115E-03	1.509588E-04
3.177756E+03	5.134835E-03	1.501216E-04
3.187686E+03	5.121965E-03	1.493554E-04
3.197617E+03	5.112048E-03	1.486757E-04
3.207547E+03	5.105144E-03	1.480833E-04
3.217478E+03	5.100840E-03	1.475657E-04
3.227408E+03	5.099669E-03	1.471377E-04
3.237339E+03	5.101458E-03	1.467936E-04
3.247269E+03	5.106505E-03	1.465413E-04
3.257200E+03	5.114650E-03	1.463753E-04
3.267130E+03	5.126201E-03	1.463038E-04
3.277061E+03	5.141248E-03	1.463285E-04
3.286991E+03	5.159670E-03	1.464451E-04
3.296922E+03	5.181820E-03	1.466629E-04
3.306852E+03	5.207620E-03	1.469788E-04
3.316783E+03	5.237699E-03	1.474094E-04
3.326713E+03	5.271815E-03	1.479472E-04
3.336643E+03	5.310437E-03	1.486040E-04
3.346574E+03	5.353849E-03	1.493868E-04
3.356504E+03	5.402369E-03	1.503032E-04
3.366435E+03	5.456357E-03	1.513620E-04
3.376365E+03	5.516201E-03	1.525724E-04
3.386296E+03	5.582548E-03	1.539509E-04
3.396226E+03	5.655368E-03	1.554951E-04
3.406157E+03	5.735548E-03	1.572274E-04
3.416087E+03	5.823497E-03	1.591574E-04
3.426018E+03	5.919114E-03	1.612802E-04
3.435948E+03	6.023162E-03	1.636146E-04
3.445879E+03	6.135853E-03	1.661642E-04
3.455809E+03	6.257045E-03	1.689228E-04
3.465740E+03	6.386712E-03	1.718877E-04
3.475670E+03	6.525190E-03	1.750655E-04
3.485601E+03	6.671711E-03	1.784334E-04
3.495531E+03	6.825869E-03	1.819785E-04
3.505462E+03	6.987686E-03	1.856993E-04
3.515392E+03	7.156353E-03	1.895724E-04
3.525323E+03	7.331006E-03	1.935730E-04
3.535253E+03	7.511311E-03	1.976907E-04
3.545184E+03	7.696984E-03	2.019165E-04
3.555114E+03	7.887272E-03	2.062292E-04
3.565045E+03	8.081513E-03	2.106103E-04
3.574975E+03	8.280045E-03	2.150674E-04
3.584906E+03	8.482819E-03	2.195980E-04
3.594836E+03	8.689383E-03	2.241893E-04
3.604767E+03	8.900667E-03	2.288640E-04
3.614697E+03	9.117233E-03	2.336352E-04
3.624628E+03	9.339215E-03	2.385048E-04
3.634558E+03	9.568485E-03	2.435189E-04
3.644489E+03	9.805518E-03	2.486876E-04
3.654419E+03	1.005153E-02	2.540393E-04
3.664350E+03	1.030847E-02	2.596206E-04
3.674280E+03	1.057698E-02	2.654451E-04
3.684211E+03	1.085837E-02	2.715415E-04
3.694141E+03	1.115445E-02	2.779520E-04
3.704071E+03	1.146554E-02	2.846802E-04
3.714002E+03	1.179273E-02	2.917490E-04
3.723932E+03	1.213642E-02	2.991636E-04
3.733863E+03	1.249662E-02	3.069201E-04
3.743793E+03	1.287286E-02	3.150021E-04
3.753724E+03	1.326414E-02	3.233810E-04
3.763654E+03	1.366890E-02	3.320143E-04
3.773585E+03	1.408453E-02	3.408351E-04
3.783515E+03	1.450902E-02	3.497924E-04
3.793446E+03	1.493856E-02	3.587914E-04
3.803376E+03	1.536870E-02	3.677248E-04
3.813307E+03	1.579584E-02	3.765062E-04
3.823237E+03	1.621467E-02	3.850100E-04
3.833168E+03	1.662006E-02	3.931175E-04
3.843098E+03	1.700635E-02	4.006987E-04
3.853029E+03	1.736935E-02	4.076604E-04
3.862959E+03	1.770377E-02	4.138854E-04
3.872890E+03	1.800527E-02	4.192804E-04
3.882820E+03	1.827019E-02	4.237696E-04
3.892751E+03	1.849567E-02	4.272972E-04
3.902681E+03	1.867983E-02	4.298307E-04
3.912612E+03	1.882177E-02	4.313607E-04
3.922542E+03	1.892163E-02	4.319027E-04
3.932473E+03	1.898007E-02	4.314831E-04
3.942403E+03	1.900011E-02	4.301816E-04
3.952334E+03	1.898409E-02	4.280625E-04
3.962264E+03	1.893508E-02	4.252042E-04
3.972195E+03	1.885753E-02	4.217156E-04
3.982125E+03	1.875573E-02	4.177006E-04
3.992056E+03	1.863420E-02	4.132661E-04
4.001986E+03	1.849703E-02	4.085080E-04
4.011917E+03	1.834912E-02	4.035388E-04
4.021847E+03	1.819438E-02	3.984472E-04
4.031778E+03	1.803738E-02	3.933345E-04
4.041708E+03	1.788197E-02	3.882856E-04
4.051639E+03	1.773102E-02	3.833620E-04
4.061569E+03	1.758871E-02	3.786525E-04
4.071500E+03	1.745815E-02	3.742214E-04
4.081430E+03	1.734149E-02	3.701117E-04
4.091360E+03	1.724174E-02	3.663838E-04
4.101291E+03	1.716170E-02	3.630918E-04
4.111221E+03	1.710288E-02	3.602625E-04
4.121152E+03	1.706764E-02	3.579395E-04
4.131082E+03	1.705749E-02	3.561479E-04
4.141013E+03	1.707440E-02	3.549219E-04
4.150943E+03	1.711984E-02	3.542846E-04
4.160874E+03	1.719476E-02	3.542478E-04
4.170804E+03	1.730025E-02	3.548258E-04
4.180735E+03	1.743719E-02	3.560282E-04
4.190665E+03	1.760615E-02	3.578583E-04
4.200596E+03	1.780744E-02	3.603136E-04
4.210526E+03	1.804062E-02	3.633766E-04
4.220457E+03	1.830544E-02	3.670338E-04
4.230387E+03	1.860079E-02	3.712545E-04
4.240318E+03	1.892453E-02	3.759884E-04
4.250248E+03	1.927378E-02	3.811708E-04
4.260179E+03	1.964584E-02	3.867421E-04
4.270109E+03	2.003610E-02	3.926062E-04
4.280040E+03	2.043911E-02	3.986520E-04
4.289970E+03	2.084893E-02	4.047613E-04
4.299901E+03	2.125943E-02	4.108143E-04
4.309831E+03	2.166354E-02	4.166753E-04
4.319762E+03	2.205500E-02	4.222268E-04
4.329692E+03	2.242897E-02	4.273801E-04
4.339623E+03	2.278552E-02	4.321422E-04
4.349553E+03	2.312986E-02	4.366160E-04
4.359484E+03	2.346864E-02	4.409308E-04
4.369414E+03	2.380635E-02	4.451723E-04
4.379345E+03	2.414107E-02	4.493056E-04
4.389275E+03	2.447032E-02	4.532861E-04
4.399206E+03	2.479076E-02	4.570539E-04
4.409136E+03	2.509983E-02	4.605650E-04
4.419067E+03	2.539378E-02	4.637540E-04
4.428997E+03	2.567034E-02	4.665834E-04
4.438928E+03	2.592563E-02	4.689877E-04
4.448858E+03	2.615657E-02	4.709170E-04
4.458788E+03	2.636062E-02	4.723320E-04
4.468719E+03	2.653509E-02	4.731916E-04
4.478649E+03	2.667693E-02	4.734490E-04
4.488580E+03	2.678430E-02	4.730802E-04
4.498510E+03	2.685676E-02	4.720857E-04
4.508441E+03	2.689291E-02	4.704502E-04
4.518371E+03	2.689286E-02	4.681841E-04
4.528302E+03	2.685731E-02	4.653089E-04
4.538232E+03	2.678802E-02	4.618635E-04
4.548163E+03	2.668618E-02	4.578765E-04
4.558093E+03	2.655427E-02	4.533981E-04
4.568024E+03	2.639589E-02	4.484969E-04
4.577954E+03	2.621320E-02	4.432155E-04
4.587885E+03	2.601038E-02	4.376302E-04
4.597815E+03	2.579070E-02	4.318004E-04
4.607746E+03	2.555753E-02	4.257863E-04
4.617676E+03	2.531522E-02	4.196627E-04
4.627607E+03	2.506666E-02	4.134797E-04
4.637537E+03	2.481527E-02	4.072944E-04
4.647468E+03	2.456451E-02	4.011640E-04
4.657398E+03	2.431698E-02	3.951302E-04
4.667329E+03	2.407526E-02	3.892336E-04
4.677259E+03	2.384159E-02	3.835089E-04
4.687190E+03	2.361793E-02	3.779851E-04
4.697120E+03	2.340592E-02	3.726857E-04
4.707051E+03	2.320660E-02	3.676240E-04
4.716981E+03	2.302132E-02	3.628183E-04
4.726912E+03	2.285059E-02	3.582731E-04
4.736842E+03	2.269502E-02	3.539938E-04
4.746773E+03	2.255524E-02	3.499868E-04
4.756703E+03	2.243118E-02	3.462469E-04
4.766634E+03	2.232287E-02	3.427708E-04
4.776564E+03	2.223023E-02	3.395532E-04
4.786495E+03	2.215330E-02	3.365908E-04
4.796425E+03	2.209122E-02	3.338671E-04
4.806356E+03	2.204382E-02	3.313756E-04
4.816286E+03	2.201056E-02	3.291046E-04
4.826216E+03	2.199077E-02	3.270410E-04
4.836147E+03	2.198369E-02	3.251702E-04
4.846077E+03	2.198840E-02	3.234756E-04
4.856008E+03	2.200390E-02	3.219396E-04
4.865938E+03	2.202906E-02	3.205435E-04
4.875869E+03	2.206266E-02	3.192671E-04
4.885799E+03	2.210319E-02	3.180868E-04
4.895730E+03	2.214987E-02	3.169898E-04
4.905660E+03	2.220097E-02	3.159503E-04
4.915591E+03	2.225590E-02	3.149587E-04
4.925521E+03	2.231323E-02	3.139943E-04
4.935452E+03	2.237279E-02	3.130542E-04
4.945382E+03	2.243374E-02	3.121261E-04
4.955313E+03	2.249649E-02	3.112159E-04
4.965243E+03	2.256109E-02	3.103237E-04
4.975174E+03	2.262813E-02	3.094574E-04
4.985104E+03	2.269871E-02	3.086316E-04
4.995035E+03	2.277360E-02	3.078560E-04
5.004965E+03	2.285391E-02	3.071448E-04
5.014896E+03	2.294106E-02	3.065161E-04
5.024826E+03	2.303595E-02	3.059801E-04
5.034757E+03	2.313989E-02	3.055530E-04
5.044687E+03	2.325362E-02	3.052423E-04
5.054618E+03	2.337849E-02	3.050640E-04
5.064548E+03	2.351477E-02	3.050191E-04
5.074479E+03	2.366334E-02	3.051169E-04
5.084409E+03	2.382497E-02	3.053647E-04
5.094340E+03	2.399954E-02	3.057585E-04
5.104270E+03	2.418750E-02	3.063015E-04
5.114201E+03	2.438915E-02	3.069947E-04
5.124131E+03	2.460429E-02	3.078335E-04
5.134062E+03	2.483199E-02	3.088034E-04
5.143992E+03	2.507234E-02	3.099036E-04
5.153923E+03	2.532386E-02	3.111136E-04
5.163853E+03	2.558553E-02	3.124193E-04
5.173784E+03	2.585584E-02	3.138009E-04
5.183714E+03	2.613264E-02	3.152314E-04
5.193644E+03	2.641434E-02	3.166910E-04
5.203575E+03	2.669821E-02	3.181473E-04
5.213505E+03	2.698183E-02	3.195721E-04
5.223436E+03	2.726199E-02	3.209285E-04
5.233366E+03	2.753559E-02	3.221823E-04
5.243297E+03	2.779981E-02	3.233031E-04
5.253227E+03	2.805161E-02	3.242590E-04
5.263158E+03	2.828795E-02	3.250188E-04
5.273088E+03	2.850718E-02	3.255681E-04
5.283019E+03	2.870751E-02	3.258913E-04
5.292949E+03	2.888808E-02	3.259839E-04
5.302880E+03	2.905012E-02	3.258647E-04
5.312810E+03	2.919560E-02	3.255607E-04
5.322741E+03	2.932760E-02	3.251107E-04
5.332671E+03	2.945094E-02	3.245716E-04
5.342602E+03	2.957207E-02	3.240169E-04
5.352532E+03	2.969812E-02	3.235260E-04
5.362463E+03	2.983679E-02	3.231827E-04
5.372393E+03	2.999541E-02	3.230648E-04
5.382324E+03	3.018126E-02	3.232483E-04
5.392254E+03	3.039853E-02	3.237744E-04
5.402185E+03	3.064803E-02	3.246476E-04
5.412115E+03	3.092554E-02	3.258199E-04
5.422046E+03	3.122248E-02	3.271985E-04
5.431976E+03	3.152736E-02	3.286622E-04
5.441907E+03	3.182599E-02	3.300650E-04
5.451837E+03	3.210463E-02	3.312680E-04
5.461768E+03	3.235205E-02	3.321610E-04
5.471698E+03	3.256158E-02	3.326827E-04
5.481629E+03	3.273028E-02	3.328108E-04
5.491559E+03	3.285747E-02	3.325459E-04
5.501490E+03	3.294180E-02	3.318817E-04
5.511420E+03	3.298489E-02	3.308403E-04
5.521351E+03	3.298793E-02	3.294385E-04
5.531281E+03	3.295443E-02	3.277159E-04
5.541212E+03	3.288916E-02	3.257234E-04
5.551142E+03	3.279803E-02	3.235222E-04
5.561072E+03	3.268900E-02	3.211927E-04
5.571003E+03	3.257060E-02	3.188191E-04
5.580933E+03	3.245281E-02	3.164990E-04
5.590864E+03	3.234550E-02	3.143269E-04
5.600794E+03	3.225894E-02	3.124003E-04
5.610725E+03	3.220346E-02	3.108156E-04
5.620655E+03	3.218838E-02	3.096588E-04
5.630586E+03	3.222144E-02	3.089996E-04
5.640516E+03	3.231048E-02	3.089079E-04
5.650447E+03	3.246088E-02	3.094300E-04
5.660377E+03	3.267679E-02	3.105999E-04
5.670308E+03	3.296060E-02	3.124349E-04
5.680238E+03	3.331253E-02	3.149322E-04
5.690169E+03	3.373190E-02	3.180805E-04
5.700099E+03	3.421511E-02	3.218421E-04
5.710030E+03	3.475668E-02	3.261617E-04
5.719960E+03	3.534994E-02	3.309741E-04
5.729891E+03	3.598588E-02	3.361930E-04
5.739821E+03	3.665466E-02	3.417253E-04
5.749752E+03	3.734453E-02	3.474611E-04
5.759682E+03	3.804350E-02	3.532894E-04
5.769613E+03	3.873797E-02	3.590851E-04
5.779543E+03	3.941567E-02	3.647363E-04
5.789474E+03	4.006343E-02	3.701236E-04
5.799404E+03	4.066913E-02	3.751380E-04
5.809335E+03	4.122160E-02	3.796797E-04
5.819265E+03	4.171088E-02	3.836603E-04
5.829196E+03	4.212801E-02	3.870011E-04
5.839126E+03	4.246672E-02	3.896480E-04
5.849057E+03	4.272021E-02	3.915419E-04
5.858987E+03	4.288518E-02	3.926559E-04
5.868918E+03	4.295898E-02	3.929685E-04
5.878848E+03	4.293989E-02	3.924666E-04
5.888779E+03	4.282805E-02	3.911536E-04
5.898709E+03	4.262501E-02	3.890453E-04
5.908640E+03	4.233415E-02	3.861739E-04
5.918570E+03	4.195905E-02	3.825729E-04
5.928500E+03	4.150633E-02	3.783030E-04
5.938431E+03	4.098226E-02	3.734211E-04
5.948361E+03	4.039540E-02	3.680047E-04
5.958292E+03	3.975475E-02	3.621352E-04
5.968222E+03	3.906992E-02	3.558985E-04
5.978153E+03	3.835041E-02	3.493801E-04
5.988083E+03	3.760653E-02	3.426720E-04
5.998014E+03	3.684759E-02	3.358576E-04
6.007944E+03	3.608326E-02	3.290231E-04
6.017875E+03	3.532190E-02	3.222431E-04
6.027805E+03	3.457189E-02	3.155925E-04
6.037736E+03	3.384013E-02	3.091328E-04
6.047666E+03	3.313306E-02	3.029215E-04
6.057597E+03	3.245613E-02	2.970076E-04
6.067527E+03	3.181410E-02	2.914337E-04
6.077458E+03	3.121022E-02	2.862293E-04
6.087388E+03	3.064583E-02	2.814064E-04
6.097319E+03	3.012196E-02	2.769746E-04
6.107249E+03	2.963709E-02	2.729201E-04
6.117180E+03	2.918815E-02	2.692152E-04
6.127110E+03	2.877052E-02	2.658179E-04
6.137041E+03	2.837729E-02	2.626644E-04
6.146971E+03	2.800043E-02	2.596799E-04
6.156902E+03	2.763145E-02	2.567840E-04
6.166832E+03	2.726158E-02	2.538928E-04
6.176763E+03	2.688388E-02	2.509395E-04
6.186693E+03	2.649359E-02	2.478765E-04
6.196624E+03	2.608860E-02	2.446811E-04
6.206554E+03	2.567045E-02	2.413647E-04
6.216485E+03	2.524222E-02	2.379532E-04
6.226415E+03	2.481020E-02	2.345030E-04
6.236346E+03	2.438241E-02	2.310882E-04
6.246276E+03	2.396716E-02	2.277860E-04
6.256207E+03	2.357268E-02	2.246741E-04
6.266137E+03	2.320636E-02	2.218232E-04
6.276068E+03	2.287363E-02	2.192860E-04
6.285998E+03	2.257878E-02	2.171052E-04
6.295929E+03	2.232459E-02	2.153097E-04
6.305859E+03	2.211187E-02	2.139095E-04
6.315789E+03	2.194105E-02	2.129115E-04
6.325720E+03	2.181173E-02	2.123145E-04
6.335650E+03	2.172251E-02	2.121076E-04
6.345581E+03	2.167195E-02	2.122798E-04
6.355511E+03	2.165794E-02	2.128131E-04
6.365442E+03	2.167881E-02	2.136935E-04
6.375372E+03	2.173189E-02	2.148973E-04
6.385303E+03	2.181509E-02	2.164062E-04
6.395233E+03	2.192626E-02	2.182011E-04
6.405164E+03	2.206278E-02	2.202577E-04
6.415094E+03	2.222217E-02	2.225532E-04
6.425025E+03	2.240197E-02	2.250644E-04
6.434955E+03	2.260007E-02	2.277714E-04
6.444886E+03	2.281341E-02	2.306445E-04
6.454816E+03	2.303931E-02	2.336575E-04
6.464747E+03	2.327549E-02	2.367877E-04
6.474677E+03	2.351890E-02	2.400045E-04
6.484608E+03	2.376640E-02	2.432759E-04
6.494538E+03	2.401553E-02	2.465766E-04
6.504469E+03	2.426304E-02	2.498727E-04
6.514399E+03	2.450593E-02	2.531325E-04
6.524330E+03	2.474141E-02	2.563262E-04
6.534260E+03	2.496624E-02	2.594190E-04
6.544191E+03	2.517749E-02	2.623789E-04
6.554121E+03	2.537259E-02	2.651775E-04
6.564052E+03	2.554865E-02	2.677825E-04
6.573982E+03	2.570349E-02	2.701690E-04
6.583913E+03	2.583501E-02	2.723126E-04
6.593843E+03	2.594118E-02	2.741895E-04
6.603774E+03	2.602095E-02	2.757861E-04
6.613704E+03	2.607352E-02	2.770914E-04
6.623635E+03	2.609833E-02	2.780969E-04
6.633565E+03	2.609623E-02	2.788095E-04
6.643496E+03	2.606761E-02	2.792305E-04
6.653426E+03	2.601421E-02	2.793769E-04
6.663357E+03	2.593811E-02	2.792687E-04
6.673287E+03	2.584191E-02	2.789325E-04
6.683217E+03	2.572866E-02	2.783995E-04
6.693148E+03	2.560183E-02	2.777064E-04
6.703078E+03	2.546518E-02	2.768930E-04
6.713009E+03	2.532269E-02	2.760023E-04
6.722939E+03	2.517846E-02	2.750789E-04
6.732870E+03	2.503690E-02	2.741710E-04
6.742800E+03	2.490150E-02	2.733177E-04
6.752731E+03	2.477670E-02	2.725686E-04
6.762661E+03	2.466588E-02	2.719619E-04
6.772592E+03	2.457237E-02	2.715359E-04
6.782522E+03	2.449913E-02	2.713252E-04
6.792453E+03	2.444872E-02	2.713597E-04
6.802383E+03	2.442349E-02	2.716678E-04
6.812314E+03	2.442477E-02	2.722665E-04
6.822244E+03	2.445394E-02	2.731735E-04
6.832175E+03	2.451109E-02	2.743922E-04
6.842105E+03	2.459686E-02	2.759320E-04
6.852036E+03	2.471058E-02	2.777882E-04
6.861966E+03	2.485167E-02	2.799564E-04
6.871897E+03	2.501852E-02	2.824209E-04
6.881827E+03	2.520967E-02	2.851676E-04
6.891758E+03	2.542240E-02	2.881678E-04
6.901688E+03	2.565508E-02	2.914052E-04
6.911619E+03	2.590404E-02	2.948400E-04
6.921549E+03	2.616680E-02	2.984458E-04
6.931480E+03	2.644009E-02	3.021869E-04
6.941410E+03	2.672022E-02	3.060226E-04
6.951341E+03	2.700367E-02	3.099139E-04
6.961271E+03	2.728723E-02	3.138249E-04
6.971202E+03	2.756706E-02	3.177123E-04
6.981132E+03	2.784003E-02	3.215408E-04
6.991063E+03	2.810283E-02	3.252725E-04
7.000993E+03	2.835197E-02	3.288675E-04
7.010924E+03	2.858448E-02	3.322912E-04
7.020854E+03	2.879796E-02	3.355155E-04
7.030785E+03	2.898991E-02	3.385111E-04
7.040715E+03	2.915779E-02	3.412476E-04
7.050645E+03	2.929962E-02	3.437013E-04
7.060576E+03	2.941437E-02	3.458591E-04
7.070506E+03	2.949959E-02	3.476911E-04
7.080437E+03	2.955508E-02	3.491936E-04
7.090367E+03	2.957914E-02	3.503452E-04
7.100298E+03	2.957093E-02	3.511343E-04
7.110228E+03	2.953013E-02	3.515552E-04
7.120159E+03	2.945616E-02	3.515991E-04
7.130089E+03	2.934858E-02	3.512585E-04
7.140020E+03	2.920669E-02	3.505225E-04
7.149950E+03	2.903019E-02	3.493852E-04
7.159881E+03	2.881959E-02	3.478498E-04
7.169811E+03	2.857411E-02	3.459037E-04
7.179742E+03	2.829379E-02	3.435443E-04
7.189672E+03	2.797947E-02	3.407783E-04
7.199603E+03	2.763085E-02	3.375982E-04
7.209533E+03	2.724849E-02	3.340071E-04
7.219464E+03	2.683389E-02	3.300190E-04
7.229394E+03	2.638751E-02	3.256355E-04
7.239325E+03	2.591111E-02	3.208738E-04
7.249255E+03	2.540616E-02	3.157474E-04
7.259186E+03	2.487508E-02	3.102821E-04
7.269116E+03	2.432034E-02	3.045040E-04
7.279047E+03	2.374477E-02	2.984439E-04
7.288977E+03	2.315118E-02	2.921330E-04
7.298908E+03	2.254328E-02	2.856138E-04
7.308838E+03	2.192467E-02	2.789283E-04
7.318769E+03	2.129890E-02	2.721182E-04
7.328699E+03	2.067012E-02	2.652332E-04
7.338630E+03	2.004223E-02	2.583213E-04
7.348560E+03	1.941910E-02	2.514297E-04
7.358491E+03	1.880423E-02	2.446015E-04
7.368421E+03	1.820164E-02	2.378871E-04
7.378352E+03	1.761393E-02	2.313202E-04
7.388282E+03	1.704476E-02	2.249485E-04
7.398213E+03	1.649635E-02	2.188021E-04
7.408143E+03	1.597118E-02	2.129156E-04
7.418073E+03	1.547119E-02	2.073168E-04
7.428004E+03	1.499773E-02	2.020268E-04
7.437934E+03	1.455223E-02	1.970682E-04
7.447865E+03	1.413543E-02	1.924548E-04
7.457795E+03	1.374832E-02	1.882045E-04
7.467726E+03	1.339080E-02	1.843206E-04
7.477656E+03	1.306359E-02	1.808181E-04
7.487587E+03	1.276624E-02	1.776962E-04
7.497517E+03	1.249916E-02	1.749662E-04
7.507448E+03	1.226181E-02	1.726262E-04
7.517378E+03	1.205379E-02	1.706767E-04
7.527309E+03	1.187462E-02	1.691171E-04
7.537239E+03	1.172316E-02	1.679369E-04
7.547170E+03	1.159795E-02	1.671216E-04
7.557100E+03	1.149661E-02	1.666424E-04
7.567031E+03	1.141703E-02	1.664742E-04
7.576961E+03	1.135761E-02	1.665983E-04
7.586892E+03	1.131706E-02	1.670009E-04
7.596822E+03	1.129325E-02	1.676546E-04
7.606753E+03	1.128356E-02	1.685246E-04
7.616683E+03	1.128523E-02	1.695727E-04
7.626614E+03	1.129504E-02	1.707532E-04
7.636544E+03	1.130987E-02	1.720205E-04
7.646475E+03	1.132680E-02	1.733310E-04
7.656405E+03	1.134267E-02	1.746367E-04
7.666336E+03	1.135477E-02	1.758946E-04
7.676266E+03	1.136022E-02	1.770589E-04
7.686197E+03	1.135649E-02	1.780876E-04
7.696127E+03	1.134126E-02	1.789410E-04
7.706058E+03	1.131245E-02	1.795828E-04
