#wls	flux	fluxerr
1.588878E+03	2.300543E-03	9.547293E-05
1.628600E+03	2.296990E-03	9.518944E-05
1.668322E+03	2.287271E-03	9.464761E-05
1.708044E+03	2.271310E-03	9.384538E-05
1.747766E+03	2.248916E-03	9.277602E-05
1.787488E+03	2.221212E-03	9.148706E-05
1.827210E+03	2.188087E-03	8.997509E-05
1.866931E+03	2.150204E-03	8.826843E-05
1.906653E+03	2.109125E-03	8.643227E-05
1.946375E+03	2.065272E-03	8.448466E-05
1.986097E+03	2.020136E-03	8.248728E-05
2.025819E+03	1.974543E-03	8.047429E-05
2.065541E+03	1.929756E-03	7.849727E-05
2.105263E+03	1.886740E-03	7.659546E-05
2.144985E+03	1.846705E-03	7.481766E-05
2.184707E+03	1.810093E-03	7.318111E-05
2.224429E+03	1.777681E-03	7.171647E-05
2.264151E+03	1.749468E-03	7.042278E-05
2.303873E+03	1.725565E-03	6.930344E-05
2.343595E+03	1.705983E-03	6.835782E-05
2.383317E+03	1.690052E-03	6.755798E-05
2.423039E+03	1.677246E-03	6.688197E-05
2.462761E+03	1.667043E-03	6.630814E-05
2.502483E+03	1.658569E-03	6.580101E-05
2.542205E+03	1.650951E-03	6.532556E-05
2.581927E+03	1.643761E-03	6.486452E-05
2.621648E+03	1.636162E-03	6.438489E-05
2.661370E+03	1.627857E-03	6.387513E-05
2.701092E+03	1.618506E-03	6.332217E-05
2.740814E+03	1.608330E-03	6.273500E-05
2.780536E+03	1.597334E-03	6.211418E-05
2.820258E+03	1.586185E-03	6.148580E-05
2.859980E+03	1.575548E-03	6.087575E-05
2.899702E+03	1.566208E-03	6.031403E-05
2.939424E+03	1.559423E-03	5.984849E-05
2.979146E+03	1.556449E-03	5.952611E-05
2.989076E+03	1.556462E-03	5.947387E-05
2.999007E+03	1.556831E-03	5.943494E-05
3.008937E+03	1.557579E-03	5.941019E-05
3.018868E+03	1.558735E-03	5.940064E-05
3.028798E+03	1.560321E-03	5.940711E-05
3.038729E+03	1.562447E-03	5.943373E-05
3.048659E+03	1.564979E-03	5.947535E-05
3.058590E+03	1.568026E-03	5.953609E-05
3.068520E+03	1.571699E-03	5.962006E-05
3.078451E+03	1.575950E-03	5.972538E-05
3.088381E+03	1.580811E-03	5.985322E-05
3.098312E+03	1.586317E-03	6.000485E-05
3.108242E+03	1.592580E-03	6.018440E-05
3.118173E+03	1.599561E-03	6.039030E-05
3.128103E+03	1.607300E-03	6.062398E-05
3.138034E+03	1.615912E-03	6.088974E-05
3.147964E+03	1.625365E-03	6.118619E-05
3.157895E+03	1.635702E-03	6.151492E-05
3.167825E+03	1.647047E-03	6.188046E-05
3.177756E+03	1.659449E-03	6.228452E-05
3.187686E+03	1.672884E-03	6.272608E-05
3.197617E+03	1.687407E-03	6.320707E-05
3.207547E+03	1.703148E-03	6.373224E-05
3.217478E+03	1.720169E-03	6.430378E-05
3.227408E+03	1.738458E-03	6.492104E-05
3.237339E+03	1.758157E-03	6.558917E-05
3.247269E+03	1.779260E-03	6.630778E-05
3.257200E+03	1.801916E-03	6.708225E-05
3.267130E+03	1.826205E-03	6.791532E-05
3.277061E+03	1.852206E-03	6.880980E-05
3.286991E+03	1.880008E-03	6.976872E-05
3.296922E+03	1.909622E-03	7.079230E-05
3.306852E+03	1.941224E-03	7.188677E-05
3.316783E+03	1.974913E-03	7.305558E-05
3.326713E+03	2.010874E-03	7.430526E-05
3.336643E+03	2.049061E-03	7.563387E-05
3.346574E+03	2.089670E-03	7.704832E-05
3.356504E+03	2.132824E-03	7.855279E-05
3.366435E+03	2.178650E-03	8.015169E-05
3.376365E+03	2.227286E-03	8.184967E-05
3.386296E+03	2.278871E-03	8.365151E-05
3.396226E+03	2.333640E-03	8.556540E-05
3.406157E+03	2.391576E-03	8.759030E-05
3.416087E+03	2.453013E-03	8.973800E-05
3.426018E+03	2.518034E-03	9.201108E-05
3.435948E+03	2.586906E-03	9.441875E-05
3.445879E+03	2.659627E-03	9.696049E-05
3.455809E+03	2.736573E-03	9.964939E-05
3.465740E+03	2.817847E-03	1.024886E-04
3.475670E+03	2.903750E-03	1.054886E-04
3.485601E+03	2.994396E-03	1.086527E-04
3.495531E+03	3.090103E-03	1.119919E-04
3.505462E+03	3.190996E-03	1.155099E-04
3.515392E+03	3.297299E-03	1.192142E-04
3.525323E+03	3.409355E-03	1.231162E-04
3.535253E+03	3.527409E-03	1.272242E-04
3.545184E+03	3.651592E-03	1.315419E-04
3.555114E+03	3.782148E-03	1.360772E-04
3.565045E+03	3.919563E-03	1.408467E-04
3.574975E+03	4.063850E-03	1.458498E-04
3.584906E+03	4.215252E-03	1.510943E-04
3.594836E+03	4.374270E-03	1.565970E-04
3.604767E+03	4.540889E-03	1.623563E-04
3.614697E+03	4.715473E-03	1.683841E-04
3.624628E+03	4.898104E-03	1.746821E-04
3.634558E+03	5.089129E-03	1.812615E-04
3.644489E+03	5.288741E-03	1.881279E-04
3.654419E+03	5.497114E-03	1.952861E-04
3.664350E+03	5.714393E-03	2.027400E-04
3.674280E+03	5.940694E-03	2.104924E-04
3.684211E+03	6.175925E-03	2.185385E-04
3.694141E+03	6.420280E-03	2.268840E-04
3.704071E+03	6.673746E-03	2.355269E-04
3.714002E+03	6.936248E-03	2.444631E-04
3.723932E+03	7.207651E-03	2.536865E-04
3.733863E+03	7.487545E-03	2.631813E-04
3.743793E+03	7.776021E-03	2.729492E-04
3.753724E+03	8.072291E-03	2.829614E-04
3.763654E+03	8.376267E-03	2.932134E-04
3.773585E+03	8.686917E-03	3.036679E-04
3.783515E+03	9.003703E-03	3.143049E-04
3.793446E+03	9.325507E-03	3.250846E-04
3.803376E+03	9.651733E-03	3.359851E-04
3.813307E+03	9.980692E-03	3.469471E-04
3.823237E+03	1.031145E-02	3.579373E-04
3.833168E+03	1.064189E-02	3.688825E-04
3.843098E+03	1.097044E-02	3.797274E-04
3.853029E+03	1.129475E-02	3.903916E-04
3.862959E+03	1.161310E-02	4.008157E-04
3.872890E+03	1.192249E-02	4.108971E-04
3.882820E+03	1.222029E-02	4.205466E-04
3.892751E+03	1.250428E-02	4.296897E-04
3.902681E+03	1.277114E-02	4.382145E-04
3.912612E+03	1.301838E-02	4.460377E-04
3.922542E+03	1.324302E-02	4.530604E-04
3.932473E+03	1.344282E-02	4.592096E-04
3.942403E+03	1.361527E-02	4.644035E-04
3.952334E+03	1.375880E-02	4.685925E-04
3.962264E+03	1.387181E-02	4.717265E-04
3.972195E+03	1.395396E-02	4.737990E-04
3.982125E+03	1.400517E-02	4.748119E-04
3.992056E+03	1.402649E-02	4.748056E-04
4.001986E+03	1.401974E-02	4.738458E-04
4.011917E+03	1.398766E-02	4.720303E-04
4.021847E+03	1.393300E-02	4.694549E-04
4.031778E+03	1.385905E-02	4.662343E-04
4.041708E+03	1.376903E-02	4.624797E-04
4.051639E+03	1.366699E-02	4.583293E-04
4.061569E+03	1.355613E-02	4.538927E-04
4.071500E+03	1.343964E-02	4.492774E-04
4.081430E+03	1.332129E-02	4.446108E-04
4.091360E+03	1.320348E-02	4.399728E-04
4.101291E+03	1.308990E-02	4.354866E-04
4.111221E+03	1.298281E-02	4.312262E-04
4.121152E+03	1.288476E-02	4.272750E-04
4.131082E+03	1.279827E-02	4.237159E-04
4.141013E+03	1.272520E-02	4.206079E-04
4.150943E+03	1.266743E-02	4.180108E-04
4.160874E+03	1.262658E-02	4.159759E-04
4.170804E+03	1.260407E-02	4.145472E-04
4.180735E+03	1.260118E-02	4.137633E-04
4.190665E+03	1.261892E-02	4.136548E-04
4.200596E+03	1.265793E-02	4.142389E-04
4.210526E+03	1.271898E-02	4.155370E-04
4.220457E+03	1.280230E-02	4.175536E-04
4.230387E+03	1.290740E-02	4.202684E-04
4.240318E+03	1.303421E-02	4.236760E-04
4.250248E+03	1.318185E-02	4.277439E-04
4.260179E+03	1.334857E-02	4.324121E-04
4.270109E+03	1.353277E-02	4.376257E-04
4.280040E+03	1.373189E-02	4.432990E-04
4.289970E+03	1.394341E-02	4.493484E-04
4.299901E+03	1.416332E-02	4.556425E-04
4.309831E+03	1.438735E-02	4.620431E-04
4.319762E+03	1.461083E-02	4.683998E-04
4.329692E+03	1.482799E-02	4.745273E-04
4.339623E+03	1.503383E-02	4.802679E-04
4.349553E+03	1.522302E-02	4.854529E-04
4.359484E+03	1.539232E-02	4.899822E-04
4.369414E+03	1.554255E-02	4.938850E-04
4.379345E+03	1.567851E-02	4.973171E-04
4.389275E+03	1.580669E-02	5.004861E-04
4.399206E+03	1.593384E-02	5.036071E-04
4.409136E+03	1.606657E-02	5.068885E-04
4.419067E+03	1.620975E-02	5.104830E-04
4.428997E+03	1.636740E-02	5.145147E-04
4.438928E+03	1.654233E-02	5.190699E-04
4.448858E+03	1.673577E-02	5.241836E-04
4.458788E+03	1.694731E-02	5.298401E-04
4.468719E+03	1.717531E-02	5.359850E-04
4.478649E+03	1.741746E-02	5.425435E-04
4.488580E+03	1.767022E-02	5.494031E-04
4.498510E+03	1.792928E-02	5.564280E-04
4.508441E+03	1.818951E-02	5.634587E-04
4.518371E+03	1.844564E-02	5.703313E-04
4.528302E+03	1.869181E-02	5.768662E-04
4.538232E+03	1.892260E-02	5.828981E-04
4.548163E+03	1.913143E-02	5.882269E-04
4.558093E+03	1.931236E-02	5.926746E-04
4.568024E+03	1.945902E-02	5.960508E-04
4.577954E+03	1.956662E-02	5.982149E-04
4.587885E+03	1.963073E-02	5.990382E-04
4.597815E+03	1.964868E-02	5.984477E-04
4.607746E+03	1.961943E-02	5.964194E-04
4.617676E+03	1.954395E-02	5.929909E-04
4.627607E+03	1.942500E-02	5.882541E-04
4.637537E+03	1.926608E-02	5.823224E-04
4.647468E+03	1.907166E-02	5.753374E-04
4.657398E+03	1.884750E-02	5.674791E-04
4.667329E+03	1.859890E-02	5.589120E-04
4.677259E+03	1.833189E-02	5.498212E-04
4.687190E+03	1.805282E-02	5.403998E-04
4.697120E+03	1.776765E-02	5.308282E-04
4.707051E+03	1.748225E-02	5.212829E-04
4.716981E+03	1.720287E-02	5.119496E-04
4.726912E+03	1.693462E-02	5.029794E-04
4.736842E+03	1.668283E-02	4.945280E-04
4.746773E+03	1.645203E-02	4.867270E-04
4.756703E+03	1.624583E-02	4.796791E-04
4.766634E+03	1.606794E-02	4.734895E-04
4.776564E+03	1.592073E-02	4.682231E-04
4.786495E+03	1.580603E-02	4.639281E-04
4.796425E+03	1.572510E-02	4.606356E-04
4.806356E+03	1.567798E-02	4.583414E-04
4.816286E+03	1.566440E-02	4.570313E-04
4.826216E+03	1.568380E-02	4.566839E-04
4.836147E+03	1.573454E-02	4.572447E-04
4.846077E+03	1.581424E-02	4.586404E-04
4.856008E+03	1.592018E-02	4.607865E-04
4.865938E+03	1.604837E-02	4.635636E-04
4.875869E+03	1.619421E-02	4.668353E-04
4.885799E+03	1.635205E-02	4.704358E-04
4.895730E+03	1.651531E-02	4.741746E-04
4.905660E+03	1.667714E-02	4.778541E-04
4.915591E+03	1.683089E-02	4.812848E-04
4.925521E+03	1.696929E-02	4.842607E-04
4.935452E+03	1.708668E-02	4.866233E-04
4.945382E+03	1.717828E-02	4.882407E-04
4.955313E+03	1.724080E-02	4.890239E-04
4.965243E+03	1.727330E-02	4.889515E-04
4.975174E+03	1.727671E-02	4.880550E-04
4.985104E+03	1.725345E-02	4.864078E-04
4.995035E+03	1.720832E-02	4.841498E-04
5.004965E+03	1.714619E-02	4.814212E-04
5.014896E+03	1.707271E-02	4.783835E-04
5.024826E+03	1.699318E-02	4.751871E-04
5.034757E+03	1.691226E-02	4.719627E-04
5.044687E+03	1.683432E-02	4.688328E-04
5.054618E+03	1.676294E-02	4.658959E-04
5.064548E+03	1.670097E-02	4.632307E-04
5.074479E+03	1.665060E-02	4.608958E-04
5.084409E+03	1.661332E-02	4.589307E-04
5.094340E+03	1.659008E-02	4.573592E-04
5.104270E+03	1.658139E-02	4.561933E-04
5.114201E+03	1.658765E-02	4.554417E-04
5.124131E+03	1.660853E-02	4.550927E-04
5.134062E+03	1.664434E-02	4.551529E-04
5.143992E+03	1.669419E-02	4.555953E-04
5.153923E+03	1.675784E-02	4.564115E-04
5.163853E+03	1.683456E-02	4.575791E-04
5.173784E+03	1.692321E-02	4.590654E-04
5.183714E+03	1.702280E-02	4.608419E-04
5.193644E+03	1.713187E-02	4.628676E-04
5.203575E+03	1.724867E-02	4.650939E-04
5.213505E+03	1.737110E-02	4.674630E-04
5.223436E+03	1.749686E-02	4.699130E-04
5.233366E+03	1.762275E-02	4.723573E-04
5.243297E+03	1.774600E-02	4.747222E-04
5.253227E+03	1.786321E-02	4.769179E-04
5.263158E+03	1.797146E-02	4.788671E-04
5.273088E+03	1.806760E-02	4.804882E-04
5.283019E+03	1.814917E-02	4.817178E-04
5.292949E+03	1.821391E-02	4.824988E-04
5.302880E+03	1.826015E-02	4.827894E-04
5.312810E+03	1.828685E-02	4.825656E-04
5.322741E+03	1.829379E-02	4.818246E-04
5.332671E+03	1.828167E-02	4.805879E-04
5.342602E+03	1.825238E-02	4.789083E-04
5.352532E+03	1.820849E-02	4.768556E-04
5.362463E+03	1.815393E-02	4.745348E-04
5.372393E+03	1.809308E-02	4.720620E-04
5.382324E+03	1.803126E-02	4.695768E-04
5.392254E+03	1.797390E-02	4.672204E-04
5.402185E+03	1.792547E-02	4.651083E-04
5.412115E+03	1.789015E-02	4.633476E-04
5.422046E+03	1.787080E-02	4.620104E-04
5.431976E+03	1.786907E-02	4.611374E-04
5.441907E+03	1.788473E-02	4.607204E-04
5.451837E+03	1.791630E-02	4.607184E-04
5.461768E+03	1.795773E-02	4.609743E-04
5.471698E+03	1.799440E-02	4.611122E-04
5.481629E+03	1.801043E-02	4.607267E-04
5.491559E+03	1.799186E-02	4.594635E-04
5.501490E+03	1.792762E-02	4.570452E-04
5.511420E+03	1.781074E-02	4.533005E-04
5.521351E+03	1.763727E-02	4.481351E-04
5.531281E+03	1.740595E-02	4.415245E-04
5.541212E+03	1.711900E-02	4.335317E-04
5.551142E+03	1.678081E-02	4.242742E-04
5.561072E+03	1.639783E-02	4.139212E-04
5.571003E+03	1.597894E-02	4.027007E-04
5.580933E+03	1.553461E-02	3.908809E-04
5.590864E+03	1.507665E-02	3.787601E-04
5.600794E+03	1.461728E-02	3.666466E-04
5.610725E+03	1.416826E-02	3.548340E-04
5.620655E+03	1.374030E-02	3.435889E-04
5.630586E+03	1.334288E-02	3.331443E-04
5.640516E+03	1.298373E-02	3.236894E-04
5.650447E+03	1.266940E-02	3.153825E-04
5.660377E+03	1.240524E-02	3.083510E-04
5.670308E+03	1.219532E-02	3.026904E-04
5.680238E+03	1.204262E-02	2.984680E-04
5.690169E+03	1.194968E-02	2.957405E-04
5.700099E+03	1.191798E-02	2.945380E-04
5.710030E+03	1.194887E-02	2.948873E-04
5.719960E+03	1.204309E-02	2.968003E-04
5.729891E+03	1.220096E-02	3.002785E-04
5.739821E+03	1.242173E-02	3.052971E-04
5.749752E+03	1.270424E-02	3.118216E-04
5.759682E+03	1.304596E-02	3.197843E-04
5.769613E+03	1.344284E-02	3.290808E-04
5.779543E+03	1.388928E-02	3.395694E-04
5.789474E+03	1.437782E-02	3.510638E-04
5.799404E+03	1.489844E-02	3.633161E-04
5.809335E+03	1.543899E-02	3.760287E-04
5.819265E+03	1.598405E-02	3.888246E-04
5.829196E+03	1.651594E-02	4.012754E-04
5.839126E+03	1.701549E-02	4.129173E-04
5.849057E+03	1.746235E-02	4.232605E-04
5.858987E+03	1.783714E-02	4.318415E-04
5.868918E+03	1.812319E-02	4.382632E-04
5.878848E+03	1.830811E-02	4.422345E-04
5.888779E+03	1.838510E-02	4.435999E-04
5.898709E+03	1.835328E-02	4.423468E-04
5.908640E+03	1.821750E-02	4.386011E-04
5.918570E+03	1.798682E-02	4.325883E-04
5.928500E+03	1.767481E-02	4.246414E-04
5.938431E+03	1.729628E-02	4.151218E-04
5.948361E+03	1.686815E-02	4.044395E-04
5.958292E+03	1.640700E-02	3.929946E-04
5.968222E+03	1.592826E-02	3.811583E-04
5.978153E+03	1.544600E-02	3.692673E-04
5.988083E+03	1.497251E-02	3.576150E-04
5.998014E+03	1.451798E-02	3.464433E-04
6.007944E+03	1.409063E-02	3.359463E-04
6.017875E+03	1.369728E-02	3.262842E-04
6.027805E+03	1.334303E-02	3.175755E-04
6.037736E+03	1.303200E-02	3.099157E-04
6.047666E+03	1.276718E-02	3.033725E-04
6.057597E+03	1.255056E-02	2.979905E-04
6.067527E+03	1.238357E-02	2.938003E-04
6.077458E+03	1.226727E-02	2.908244E-04
6.087388E+03	1.220166E-02	2.890598E-04
6.097319E+03	1.218632E-02	2.884942E-04
6.107249E+03	1.222010E-02	2.890975E-04
6.117180E+03	1.230054E-02	2.908097E-04
6.127110E+03	1.242359E-02	2.935328E-04
6.137041E+03	1.258387E-02	2.971383E-04
6.146971E+03	1.277465E-02	3.014660E-04
6.156902E+03	1.298823E-02	3.063332E-04
6.166832E+03	1.321599E-02	3.115365E-04
6.176763E+03	1.344962E-02	3.168793E-04
6.186693E+03	1.368154E-02	3.221834E-04
6.196624E+03	1.390530E-02	3.272972E-04
6.206554E+03	1.411695E-02	3.321282E-04
6.216485E+03	1.431506E-02	3.366437E-04
6.226415E+03	1.449924E-02	3.408348E-04
6.236346E+03	1.466951E-02	3.447027E-04
6.246276E+03	1.482558E-02	3.482407E-04
6.256207E+03	1.496646E-02	3.514267E-04
6.266137E+03	1.509039E-02	3.542195E-04
6.276068E+03	1.519467E-02	3.565562E-04
6.285998E+03	1.527650E-02	3.583716E-04
6.295929E+03	1.533274E-02	3.595923E-04
6.305859E+03	1.536097E-02	3.601623E-04
6.315789E+03	1.535912E-02	3.600336E-04
6.325720E+03	1.532680E-02	3.591972E-04
6.335650E+03	1.526501E-02	3.576767E-04
6.345581E+03	1.517525E-02	3.555081E-04
6.355511E+03	1.506107E-02	3.527741E-04
6.365442E+03	1.492571E-02	3.495508E-04
6.375372E+03	1.477376E-02	3.459457E-04
6.385303E+03	1.460988E-02	3.420679E-04
6.395233E+03	1.443863E-02	3.380239E-04
6.405164E+03	1.426495E-02	3.339289E-04
6.415094E+03	1.409324E-02	3.298862E-04
6.425025E+03	1.392733E-02	3.259845E-04
6.434955E+03	1.377016E-02	3.222928E-04
6.444886E+03	1.362442E-02	3.188736E-04
6.454816E+03	1.349135E-02	3.157556E-04
6.464747E+03	1.337238E-02	3.129724E-04
6.474677E+03	1.326760E-02	3.105257E-04
6.484608E+03	1.317685E-02	3.084114E-04
6.494538E+03	1.309894E-02	3.066020E-04
6.504469E+03	1.303219E-02	3.050578E-04
6.514399E+03	1.297386E-02	3.037145E-04
6.524330E+03	1.292025E-02	3.024857E-04
6.534260E+03	1.286674E-02	3.012630E-04
6.544191E+03	1.280863E-02	2.999361E-04
6.554121E+03	1.274063E-02	2.983815E-04
6.564052E+03	1.265885E-02	2.965073E-04
6.573982E+03	1.256077E-02	2.942545E-04
6.583913E+03	1.244503E-02	2.915908E-04
6.593843E+03	1.231147E-02	2.885124E-04
6.603774E+03	1.216071E-02	2.850332E-04
6.613704E+03	1.199385E-02	2.811787E-04
6.623635E+03	1.181175E-02	2.769689E-04
6.633565E+03	1.161491E-02	2.724146E-04
6.643496E+03	1.140389E-02	2.675290E-04
6.653426E+03	1.117905E-02	2.623198E-04
6.663357E+03	1.094092E-02	2.567992E-04
6.673287E+03	1.069028E-02	2.509850E-04
6.683217E+03	1.042842E-02	2.449072E-04
6.693148E+03	1.015677E-02	2.385985E-04
6.703078E+03	9.877772E-03	2.321162E-04
6.713009E+03	9.594402E-03	2.255298E-04
6.722939E+03	9.310194E-03	2.189221E-04
6.732870E+03	9.029452E-03	2.123940E-04
6.742800E+03	8.756703E-03	2.060519E-04
6.752731E+03	8.496540E-03	2.000038E-04
6.762661E+03	8.253328E-03	1.943529E-04
6.772592E+03	8.030925E-03	1.891900E-04
6.782522E+03	7.832515E-03	1.845907E-04
6.792453E+03	7.660667E-03	1.806162E-04
6.802383E+03	7.517175E-03	1.773092E-04
6.812314E+03	7.403113E-03	1.746961E-04
6.822244E+03	7.319215E-03	1.727948E-04
6.832175E+03	7.265692E-03	1.716113E-04
6.842105E+03	7.242368E-03	1.711425E-04
6.852036E+03	7.248732E-03	1.713773E-04
6.861966E+03	7.284021E-03	1.722986E-04
6.871897E+03	7.346857E-03	1.738751E-04
6.881827E+03	7.435869E-03	1.760752E-04
6.891758E+03	7.549187E-03	1.788558E-04
6.901688E+03	7.684544E-03	1.821643E-04
6.911619E+03	7.839702E-03	1.859486E-04
6.921549E+03	8.011892E-03	1.901440E-04
6.931480E+03	8.198499E-03	1.946892E-04
6.941410E+03	8.396671E-03	1.995175E-04
6.951341E+03	8.603309E-03	2.045557E-04
6.961271E+03	8.815068E-03	2.097251E-04
6.971202E+03	9.027938E-03	2.149306E-04
6.981132E+03	9.237499E-03	2.200673E-04
6.991063E+03	9.438866E-03	2.250188E-04
7.000993E+03	9.626717E-03	2.296580E-04
7.010924E+03	9.795599E-03	2.338544E-04
7.020854E+03	9.940819E-03	2.374951E-04
7.030785E+03	1.005808E-02	2.404764E-04
7.040715E+03	1.014492E-02	2.427381E-04
7.050645E+03	1.020049E-02	2.442581E-04
7.060576E+03	1.022591E-02	2.450620E-04
7.070506E+03	1.022371E-02	2.452088E-04
7.080437E+03	1.019786E-02	2.447921E-04
7.090367E+03	1.015335E-02	2.439303E-04
7.100298E+03	1.009520E-02	2.427433E-04
7.110228E+03	1.002848E-02	2.413522E-04
7.120159E+03	9.958034E-03	2.398728E-04
7.130089E+03	9.887967E-03	2.384042E-04
7.140020E+03	9.821692E-03	2.370286E-04
7.149950E+03	9.761778E-03	2.358083E-04
7.159881E+03	9.709723E-03	2.347800E-04
7.169811E+03	9.666371E-03	2.339646E-04
7.179742E+03	9.631141E-03	2.333488E-04
7.189672E+03	9.603014E-03	2.329084E-04
7.199603E+03	9.580273E-03	2.326023E-04
7.209533E+03	9.560444E-03	2.323708E-04
7.219464E+03	9.540699E-03	2.321455E-04
7.229394E+03	9.518562E-03	2.318660E-04
7.239325E+03	9.490834E-03	2.314542E-04
7.249255E+03	9.455243E-03	2.308542E-04
7.259186E+03	9.409526E-03	2.300100E-04
7.269116E+03	9.352005E-03	2.288797E-04
7.279047E+03	9.281447E-03	2.274320E-04
7.288977E+03	9.196729E-03	2.256382E-04
7.298908E+03	9.097203E-03	2.234809E-04
7.308838E+03	8.982237E-03	2.209431E-04
7.318769E+03	8.851619E-03	2.180181E-04
7.328699E+03	8.705658E-03	2.147116E-04
7.338630E+03	8.545140E-03	2.110414E-04
7.348560E+03	8.371427E-03	2.070395E-04
7.358491E+03	8.186682E-03	2.027578E-04
7.368421E+03	7.993799E-03	1.982667E-04
7.378352E+03	7.795950E-03	1.936437E-04
7.388282E+03	7.596788E-03	1.889788E-04
7.398213E+03	7.400177E-03	1.843679E-04
7.408143E+03	7.210132E-03	1.799110E-04
7.418073E+03	7.030335E-03	1.757006E-04
7.428004E+03	6.864164E-03	1.718221E-04
7.437934E+03	6.714858E-03	1.683580E-04
7.447865E+03	6.584822E-03	1.653705E-04
7.457795E+03	6.476241E-03	1.629165E-04
7.467726E+03	6.390684E-03	1.610380E-04
7.477656E+03	6.329048E-03	1.597603E-04
7.487587E+03	6.291723E-03	1.590962E-04
7.497517E+03	6.278138E-03	1.590344E-04
7.507448E+03	6.287089E-03	1.595473E-04
7.517378E+03	6.316271E-03	1.605793E-04
7.527309E+03	6.362895E-03	1.620623E-04
7.537239E+03	6.423200E-03	1.639027E-04
7.547170E+03	6.493494E-03	1.660081E-04
7.557100E+03	6.569987E-03	1.682829E-04
7.567031E+03	6.650070E-03	1.706612E-04
7.576961E+03	6.732466E-03	1.731105E-04
7.586892E+03	6.816870E-03	1.756237E-04
7.596822E+03	6.903458E-03	1.782054E-04
7.606753E+03	6.992326E-03	1.808587E-04
7.616683E+03	7.083649E-03	1.835884E-04
7.626614E+03	7.177072E-03	1.863858E-04
7.636544E+03	7.272103E-03	1.892385E-04
7.646475E+03	7.368084E-03	1.921296E-04
7.656405E+03	7.463601E-03	1.950223E-04
7.666336E+03	7.557213E-03	1.978790E-04
7.676266E+03	7.646992E-03	2.006487E-04
7.686197E+03	7.730901E-03	2.032774E-04
7.696127E+03	7.806774E-03	2.057070E-04
7.706058E+03	7.872387E-03	2.078774E-04
