#wls	flux	fluxerr
1.588878E+03	9.681930E-04	5.717585E-05
1.628600E+03	9.581709E-04	5.654328E-05
1.668322E+03	9.470997E-04	5.584858E-05
1.708044E+03	9.351655E-04	5.510286E-05
1.747766E+03	9.223431E-04	5.430477E-05
1.787488E+03	9.088328E-04	5.346623E-05
1.827210E+03	8.946298E-04	5.258710E-05
1.866931E+03	8.799420E-04	5.167971E-05
1.906653E+03	8.648260E-04	5.074748E-05
1.946375E+03	8.493451E-04	4.979423E-05
1.986097E+03	8.337021E-04	4.883194E-05
2.025819E+03	8.179114E-04	4.786151E-05
2.065541E+03	8.021633E-04	4.689414E-05
2.105263E+03	7.864671E-04	4.593041E-05
2.144985E+03	7.709954E-04	4.498043E-05
2.184707E+03	7.557484E-04	4.404420E-05
2.224429E+03	7.408410E-04	4.312844E-05
2.264151E+03	7.263395E-04	4.223698E-05
2.303873E+03	7.123034E-04	4.137325E-05
2.343595E+03	6.987864E-04	4.054031E-05
2.383317E+03	6.858037E-04	3.973898E-05
2.423039E+03	6.734366E-04	3.897391E-05
2.462761E+03	6.617286E-04	3.824751E-05
2.502483E+03	6.507236E-04	3.756222E-05
2.542205E+03	6.404370E-04	3.691880E-05
2.581927E+03	6.309490E-04	3.632175E-05
2.621648E+03	6.222844E-04	3.577233E-05
2.661370E+03	6.145326E-04	3.527550E-05
2.701092E+03	6.077611E-04	3.483492E-05
2.740814E+03	6.020186E-04	3.445317E-05
2.780536E+03	5.973922E-04	3.413495E-05
2.820258E+03	5.939796E-04	3.388555E-05
2.859980E+03	5.919153E-04	3.371230E-05
2.899702E+03	5.912942E-04	3.362021E-05
2.939424E+03	5.922511E-04	3.361650E-05
2.979146E+03	5.949601E-04	3.371056E-05
2.989076E+03	5.959097E-04	3.374920E-05
2.999007E+03	5.970036E-04	3.379588E-05
3.008937E+03	5.981947E-04	3.384791E-05
3.018868E+03	5.995356E-04	3.390828E-05
3.028798E+03	6.010047E-04	3.397573E-05
3.038729E+03	6.025796E-04	3.404900E-05
3.048659E+03	6.043136E-04	3.413108E-05
3.058590E+03	6.061847E-04	3.422073E-05
3.068520E+03	6.081964E-04	3.431812E-05
3.078451E+03	6.103519E-04	3.442343E-05
3.088381E+03	6.126545E-04	3.453682E-05
3.098312E+03	6.151077E-04	3.465849E-05
3.108242E+03	6.177152E-04	3.478862E-05
3.118173E+03	6.205057E-04	3.492882E-05
3.128103E+03	6.234328E-04	3.507646E-05
3.138034E+03	6.265253E-04	3.523315E-05
3.147964E+03	6.298126E-04	3.540052E-05
3.157895E+03	6.332480E-04	3.557594E-05
3.167825E+03	6.368865E-04	3.576247E-05
3.177756E+03	6.406812E-04	3.595747E-05
3.187686E+03	6.446878E-04	3.616405E-05
3.197617E+03	6.488592E-04	3.637954E-05
3.207547E+03	6.532517E-04	3.660708E-05
3.217478E+03	6.578180E-04	3.684401E-05
3.227408E+03	6.626150E-04	3.709349E-05
3.237339E+03	6.676215E-04	3.735431E-05
3.247269E+03	6.728428E-04	3.762674E-05
3.257200E+03	6.782838E-04	3.791105E-05
3.267130E+03	6.839231E-04	3.820602E-05
3.277061E+03	6.898194E-04	3.851489E-05
3.286991E+03	6.959519E-04	3.883648E-05
3.296922E+03	7.023260E-04	3.917108E-05
3.306852E+03	7.089477E-04	3.951898E-05
3.316783E+03	7.158230E-04	3.988050E-05
3.326713E+03	7.229579E-04	4.025595E-05
3.336643E+03	7.303589E-04	4.064566E-05
3.346574E+03	7.380323E-04	4.104995E-05
3.356504E+03	7.459850E-04	4.146918E-05
3.366435E+03	7.542524E-04	4.190528E-05
3.376365E+03	7.627842E-04	4.235543E-05
3.386296E+03	7.716162E-04	4.282158E-05
3.396226E+03	7.807558E-04	4.330412E-05
3.406157E+03	7.902106E-04	4.380343E-05
3.416087E+03	7.999884E-04	4.431990E-05
3.426018E+03	8.101280E-04	4.485566E-05
3.435948E+03	8.205767E-04	4.540774E-05
3.445879E+03	8.313733E-04	4.597825E-05
3.455809E+03	8.425266E-04	4.656765E-05
3.465740E+03	8.540776E-04	4.717817E-05
3.475670E+03	8.659722E-04	4.780675E-05
3.485601E+03	8.782514E-04	4.845563E-05
3.495531E+03	8.909253E-04	4.912532E-05
3.505462E+03	9.040375E-04	4.981818E-05
3.515392E+03	9.175321E-04	5.053108E-05
3.525323E+03	9.314527E-04	5.126637E-05
3.535253E+03	9.458458E-04	5.202657E-05
3.545184E+03	9.606536E-04	5.280843E-05
3.555114E+03	9.759223E-04	5.361446E-05
3.565045E+03	9.916645E-04	5.444528E-05
3.574975E+03	1.007930E-03	5.530355E-05
3.584906E+03	1.024658E-03	5.618592E-05
3.594836E+03	1.041898E-03	5.709507E-05
3.604767E+03	1.059666E-03	5.803171E-05
3.614697E+03	1.077975E-03	5.899655E-05
3.624628E+03	1.096880E-03	5.999254E-05
3.634558E+03	1.116318E-03	6.101612E-05
3.644489E+03	1.136343E-03	6.207025E-05
3.654419E+03	1.156973E-03	6.315572E-05
3.664350E+03	1.178223E-03	6.427340E-05
3.674280E+03	1.200110E-03	6.542411E-05
3.684211E+03	1.222653E-03	6.660878E-05
3.694141E+03	1.245872E-03	6.782837E-05
3.704071E+03	1.269781E-03	6.908368E-05
3.714002E+03	1.294404E-03	7.037582E-05
3.723932E+03	1.319758E-03	7.170567E-05
3.733863E+03	1.345864E-03	7.307425E-05
3.743793E+03	1.372742E-03	7.448256E-05
3.753724E+03	1.400413E-03	7.593168E-05
3.763654E+03	1.428898E-03	7.742258E-05
3.773585E+03	1.458220E-03	7.895641E-05
3.783515E+03	1.488399E-03	8.053424E-05
3.793446E+03	1.519404E-03	8.215417E-05
3.803376E+03	1.551364E-03	8.382311E-05
3.813307E+03	1.584249E-03	8.553926E-05
3.823237E+03	1.618025E-03	8.730076E-05
3.833168E+03	1.652824E-03	8.911456E-05
3.843098E+03	1.688558E-03	9.097581E-05
3.853029E+03	1.725364E-03	9.289168E-05
3.862959E+03	1.763146E-03	9.485696E-05
3.872890E+03	1.801985E-03	9.687582E-05
3.882820E+03	1.841968E-03	9.895275E-05
3.892751E+03	1.882988E-03	1.010820E-04
3.902681E+03	1.925131E-03	1.032679E-04
3.912612E+03	1.968419E-03	1.055115E-04
3.922542E+03	2.012872E-03	1.078138E-04
3.932473E+03	2.058512E-03	1.101757E-04
3.942403E+03	2.105362E-03	1.125984E-04
3.952334E+03	2.153441E-03	1.150826E-04
3.962264E+03	2.202775E-03	1.176297E-04
3.972195E+03	2.253311E-03	1.202365E-04
3.982125E+03	2.305225E-03	1.229123E-04
3.992056E+03	2.358472E-03	1.256546E-04
4.001986E+03	2.413002E-03	1.284604E-04
4.011917E+03	2.468923E-03	1.313353E-04
4.021847E+03	2.526362E-03	1.342859E-04
4.031778E+03	2.585189E-03	1.373052E-04
4.041708E+03	2.645535E-03	1.403997E-04
4.051639E+03	2.707449E-03	1.435719E-04
4.061569E+03	2.770984E-03	1.468245E-04
4.071500E+03	2.836198E-03	1.501602E-04
4.081430E+03	2.903147E-03	1.535817E-04
4.091360E+03	2.971896E-03	1.570923E-04
4.101291E+03	3.042502E-03	1.606947E-04
4.111221E+03	3.114920E-03	1.643863E-04
4.121152E+03	3.189407E-03	1.681803E-04
4.131082E+03	3.265800E-03	1.720678E-04
4.141013E+03	3.344233E-03	1.760558E-04
4.150943E+03	3.424838E-03	1.801507E-04
4.160874E+03	3.507386E-03	1.843403E-04
4.170804E+03	3.591959E-03	1.886285E-04
4.180735E+03	3.678496E-03	1.930119E-04
4.190665E+03	3.766774E-03	1.974786E-04
4.200596E+03	3.856890E-03	2.020333E-04
4.210526E+03	3.948532E-03	2.066593E-04
4.220457E+03	4.041320E-03	2.113367E-04
4.230387E+03	4.135198E-03	2.160623E-04
4.240318E+03	4.229517E-03	2.208020E-04
4.250248E+03	4.323951E-03	2.255388E-04
4.260179E+03	4.417957E-03	2.302443E-04
4.270109E+03	4.510908E-03	2.348859E-04
4.280040E+03	4.602087E-03	2.394264E-04
4.289970E+03	4.690533E-03	2.438160E-04
4.299901E+03	4.775639E-03	2.480236E-04
4.309831E+03	4.856116E-03	2.519827E-04
4.319762E+03	4.931202E-03	2.556545E-04
4.329692E+03	4.999483E-03	2.589664E-04
4.339623E+03	5.060017E-03	2.618706E-04
4.349553E+03	5.111831E-03	2.643177E-04
4.359484E+03	5.154071E-03	2.662649E-04
4.369414E+03	5.186787E-03	2.677161E-04
4.379345E+03	5.209982E-03	2.686728E-04
4.389275E+03	5.223980E-03	2.691528E-04
4.399206E+03	5.229613E-03	2.692005E-04
4.409136E+03	5.227628E-03	2.688553E-04
4.419067E+03	5.218798E-03	2.681581E-04
4.428997E+03	5.203876E-03	2.671485E-04
4.438928E+03	5.183590E-03	2.658646E-04
4.448858E+03	5.158456E-03	2.643337E-04
4.458788E+03	5.129416E-03	2.626047E-04
4.468719E+03	5.096717E-03	2.606908E-04
4.478649E+03	5.061023E-03	2.586266E-04
4.488580E+03	5.022777E-03	2.564349E-04
4.498510E+03	4.982363E-03	2.541359E-04
4.508441E+03	4.939961E-03	2.517390E-04
4.518371E+03	4.896160E-03	2.492745E-04
4.528302E+03	4.850900E-03	2.467396E-04
4.538232E+03	4.804542E-03	2.441528E-04
4.548163E+03	4.757268E-03	2.415236E-04
4.558093E+03	4.709237E-03	2.388601E-04
4.568024E+03	4.660458E-03	2.361630E-04
4.577954E+03	4.611356E-03	2.334540E-04
4.587885E+03	4.561791E-03	2.307259E-04
4.597815E+03	4.512043E-03	2.279931E-04
4.607746E+03	4.462257E-03	2.252628E-04
4.617676E+03	4.412587E-03	2.225430E-04
4.627607E+03	4.363191E-03	2.198415E-04
4.637537E+03	4.314106E-03	2.171602E-04
4.647468E+03	4.265641E-03	2.145146E-04
4.657398E+03	4.217976E-03	2.119137E-04
4.667329E+03	4.171297E-03	2.093667E-04
4.677259E+03	4.125797E-03	2.068832E-04
4.687190E+03	4.081668E-03	2.044726E-04
4.697120E+03	4.038987E-03	2.021386E-04
4.707051E+03	3.998069E-03	1.998969E-04
4.716981E+03	3.959109E-03	1.977567E-04
4.726912E+03	3.922294E-03	1.957273E-04
4.736842E+03	3.887806E-03	1.938174E-04
4.746773E+03	3.855702E-03	1.920295E-04
4.756703E+03	3.826261E-03	1.903771E-04
4.766634E+03	3.799627E-03	1.888672E-04
4.776564E+03	3.775933E-03	1.875057E-04
4.786495E+03	3.755288E-03	1.862978E-04
4.796425E+03	3.737675E-03	1.852422E-04
4.806356E+03	3.723275E-03	1.843474E-04
4.816286E+03	3.712140E-03	1.836155E-04
4.826216E+03	3.704296E-03	1.830474E-04
4.836147E+03	3.699755E-03	1.826431E-04
4.846077E+03	3.698400E-03	1.823965E-04
4.856008E+03	3.700421E-03	1.823163E-04
4.865938E+03	3.705565E-03	1.823898E-04
4.875869E+03	3.713779E-03	1.826139E-04
4.885799E+03	3.725218E-03	1.829957E-04
4.895730E+03	3.739600E-03	1.835210E-04
4.905660E+03	3.756958E-03	1.841909E-04
4.915591E+03	3.777216E-03	1.850014E-04
4.925521E+03	3.800300E-03	1.859484E-04
4.935452E+03	3.826135E-03	1.870277E-04
4.945382E+03	3.854540E-03	1.882304E-04
4.955313E+03	3.885562E-03	1.895582E-04
4.965243E+03	3.919145E-03	1.910081E-04
4.975174E+03	3.955239E-03	1.925773E-04
4.985104E+03	3.993693E-03	1.942582E-04
4.995035E+03	4.034586E-03	1.960542E-04
5.004965E+03	4.077895E-03	1.979639E-04
5.014896E+03	4.123595E-03	1.999858E-04
5.024826E+03	4.171550E-03	2.021130E-04
5.034757E+03	4.221967E-03	2.043552E-04
5.044687E+03	4.274571E-03	2.066988E-04
5.054618E+03	4.329301E-03	2.091407E-04
5.064548E+03	4.386326E-03	2.116886E-04
5.074479E+03	4.445287E-03	2.143250E-04
5.084409E+03	4.506287E-03	2.170547E-04
5.094340E+03	4.568756E-03	2.198499E-04
5.104270E+03	4.632840E-03	2.227175E-04
5.114201E+03	4.697997E-03	2.256314E-04
5.124131E+03	4.764165E-03	2.285883E-04
5.134062E+03	4.830702E-03	2.315576E-04
5.143992E+03	4.897198E-03	2.345195E-04
5.153923E+03	4.963483E-03	2.374661E-04
5.163853E+03	5.028822E-03	2.403622E-04
5.173784E+03	5.092882E-03	2.431921E-04
5.183714E+03	5.155191E-03	2.459336E-04
5.193644E+03	5.215145E-03	2.485581E-04
5.203575E+03	5.272446E-03	2.510520E-04
5.213505E+03	5.326687E-03	2.533962E-04
5.223436E+03	5.377491E-03	2.555732E-04
5.233366E+03	5.424372E-03	2.575607E-04
5.243297E+03	5.467335E-03	2.593593E-04
5.253227E+03	5.505670E-03	2.609359E-04
5.263158E+03	5.539610E-03	2.623024E-04
5.273088E+03	5.568821E-03	2.634435E-04
5.283019E+03	5.592989E-03	2.643451E-04
5.292949E+03	5.612134E-03	2.650088E-04
5.302880E+03	5.625985E-03	2.654226E-04
5.312810E+03	5.634749E-03	2.655968E-04
5.322741E+03	5.638021E-03	2.655132E-04
5.332671E+03	5.635866E-03	2.651755E-04
5.342602E+03	5.628200E-03	2.645806E-04
5.352532E+03	5.614783E-03	2.637177E-04
5.362463E+03	5.595689E-03	2.625912E-04
5.372393E+03	5.570842E-03	2.611983E-04
5.382324E+03	5.540021E-03	2.595292E-04
5.392254E+03	5.503479E-03	2.575966E-04
5.402185E+03	5.460878E-03	2.553854E-04
5.412115E+03	5.412364E-03	2.529030E-04
5.422046E+03	5.357822E-03	2.501449E-04
5.431976E+03	5.297482E-03	2.471223E-04
5.441907E+03	5.231485E-03	2.438426E-04
5.451837E+03	5.160055E-03	2.403167E-04
5.461768E+03	5.083519E-03	2.365605E-04
5.471698E+03	5.002188E-03	2.325888E-04
5.481629E+03	4.916741E-03	2.284337E-04
5.491559E+03	4.827649E-03	2.241174E-04
5.501490E+03	4.735820E-03	2.196823E-04
5.511420E+03	4.641672E-03	2.151481E-04
5.521351E+03	4.546033E-03	2.105533E-04
5.531281E+03	4.449490E-03	2.059250E-04
5.541212E+03	4.352880E-03	2.013020E-04
5.551142E+03	4.256905E-03	1.967166E-04
5.561072E+03	4.162255E-03	1.922006E-04
5.571003E+03	4.069483E-03	1.877791E-04
5.580933E+03	3.979440E-03	1.834913E-04
5.590864E+03	3.892394E-03	1.793490E-04
5.600794E+03	3.809202E-03	1.753913E-04
5.610725E+03	3.730136E-03	1.716303E-04
5.620655E+03	3.655713E-03	1.680893E-04
5.630586E+03	3.586279E-03	1.647836E-04
5.640516E+03	3.522108E-03	1.617254E-04
5.650447E+03	3.463306E-03	1.589188E-04
5.660377E+03	3.410092E-03	1.563734E-04
5.670308E+03	3.362427E-03	1.540868E-04
5.680238E+03	3.320472E-03	1.520659E-04
5.690169E+03	3.283954E-03	1.502975E-04
5.700099E+03	3.252800E-03	1.487780E-04
5.710030E+03	3.226697E-03	1.474924E-04
5.719960E+03	3.205436E-03	1.464308E-04
5.729891E+03	3.188659E-03	1.455764E-04
5.739821E+03	3.175946E-03	1.449097E-04
5.749752E+03	3.166734E-03	1.444046E-04
5.759682E+03	3.160572E-03	1.440403E-04
5.769613E+03	3.156877E-03	1.437900E-04
5.779543E+03	3.155019E-03	1.436249E-04
5.789474E+03	3.154254E-03	1.435109E-04
5.799404E+03	3.153981E-03	1.434207E-04
5.809335E+03	3.153513E-03	1.433230E-04
5.819265E+03	3.152090E-03	1.431833E-04
5.829196E+03	3.149156E-03	1.429765E-04
5.839126E+03	3.144133E-03	1.426764E-04
5.849057E+03	3.136439E-03	1.422568E-04
5.858987E+03	3.125772E-03	1.417042E-04
5.868918E+03	3.111870E-03	1.410069E-04
5.878848E+03	3.094621E-03	1.401600E-04
5.888779E+03	3.073979E-03	1.391617E-04
5.898709E+03	3.050227E-03	1.380249E-04
5.908640E+03	3.023710E-03	1.367654E-04
5.918570E+03	2.994917E-03	1.354055E-04
5.928500E+03	2.964375E-03	1.339690E-04
5.938431E+03	2.932869E-03	1.324916E-04
5.948361E+03	2.901105E-03	1.310051E-04
5.958292E+03	2.870066E-03	1.295539E-04
5.968222E+03	2.840459E-03	1.281698E-04
5.978153E+03	2.813229E-03	1.268953E-04
5.988083E+03	2.789166E-03	1.257659E-04
5.998014E+03	2.769193E-03	1.248230E-04
6.007944E+03	2.754136E-03	1.241037E-04
6.017875E+03	2.744796E-03	1.236437E-04
6.027805E+03	2.741883E-03	1.234749E-04
6.037736E+03	2.746233E-03	1.236346E-04
6.047666E+03	2.758599E-03	1.241564E-04
6.057597E+03	2.779663E-03	1.250708E-04
6.067527E+03	2.810257E-03	1.264149E-04
6.077458E+03	2.851164E-03	1.282237E-04
6.087388E+03	2.903191E-03	1.305330E-04
6.097319E+03	2.967103E-03	1.333773E-04
6.107249E+03	3.043860E-03	1.367992E-04
6.117180E+03	3.134383E-03	1.408401E-04
6.127110E+03	3.239548E-03	1.455390E-04
6.137041E+03	3.360417E-03	1.509435E-04
6.146971E+03	3.497972E-03	1.570977E-04
6.156902E+03	3.653164E-03	1.640440E-04
6.166832E+03	3.826750E-03	1.718164E-04
6.176763E+03	4.019494E-03	1.804492E-04
6.186693E+03	4.231743E-03	1.899581E-04
6.196624E+03	4.463154E-03	2.003277E-04
6.206554E+03	4.712674E-03	2.115108E-04
6.216485E+03	4.977959E-03	2.234025E-04
6.226415E+03	5.255473E-03	2.358444E-04
6.236346E+03	5.540437E-03	2.486223E-04
6.246276E+03	5.827373E-03	2.614909E-04
6.256207E+03	6.109882E-03	2.741635E-04
6.266137E+03	6.380864E-03	2.863218E-04
6.276068E+03	6.633322E-03	2.976524E-04
6.285998E+03	6.860277E-03	3.078423E-04
6.295929E+03	7.055128E-03	3.165956E-04
6.305859E+03	7.212761E-03	3.236830E-04
6.315789E+03	7.328584E-03	3.288984E-04
6.325720E+03	7.399855E-03	3.321185E-04
6.335650E+03	7.425818E-03	3.333090E-04
6.345581E+03	7.406530E-03	3.324720E-04
6.355511E+03	7.344090E-03	3.297012E-04
6.365442E+03	7.241466E-03	3.251292E-04
6.375372E+03	7.103173E-03	3.189579E-04
6.385303E+03	6.933645E-03	3.113856E-04
6.395233E+03	6.738078E-03	3.026449E-04
6.405164E+03	6.522109E-03	2.929882E-04
6.415094E+03	6.290531E-03	2.826302E-04
6.425025E+03	6.048337E-03	2.717945E-04
6.434955E+03	5.799889E-03	2.606766E-04
6.444886E+03	5.548874E-03	2.494416E-04
6.454816E+03	5.298711E-03	2.382431E-04
6.464747E+03	5.052095E-03	2.272017E-04
6.474677E+03	4.811057E-03	2.164086E-04
6.484608E+03	4.577397E-03	2.059447E-04
6.494538E+03	4.352339E-03	1.958649E-04
6.504469E+03	4.136730E-03	1.862074E-04
6.514399E+03	3.931000E-03	1.769915E-04
6.524330E+03	3.735636E-03	1.682392E-04
6.534260E+03	3.550417E-03	1.599407E-04
6.544191E+03	3.375552E-03	1.521056E-04
6.554121E+03	3.210659E-03	1.447168E-04
6.564052E+03	3.055550E-03	1.377661E-04
6.573982E+03	2.909885E-03	1.312382E-04
6.583913E+03	2.773294E-03	1.251167E-04
6.593843E+03	2.645320E-03	1.193813E-04
6.603774E+03	2.525644E-03	1.140176E-04
6.613704E+03	2.413873E-03	1.090083E-04
6.623635E+03	2.309565E-03	1.043336E-04
6.633565E+03	2.212416E-03	9.997984E-05
6.643496E+03	2.122070E-03	9.593133E-05
6.653426E+03	2.038192E-03	9.217310E-05
6.663357E+03	1.960409E-03	8.868855E-05
6.673287E+03	1.888481E-03	8.546693E-05
6.683217E+03	1.822125E-03	8.249574E-05
6.693148E+03	1.761034E-03	7.976128E-05
6.703078E+03	1.705063E-03	7.725716E-05
6.713009E+03	1.653897E-03	7.496936E-05
6.722939E+03	1.607378E-03	7.289090E-05
6.732870E+03	1.565280E-03	7.101175E-05
6.742800E+03	1.527477E-03	6.932639E-05
6.752731E+03	1.493817E-03	6.782814E-05
6.762661E+03	1.464164E-03	6.651107E-05
6.772592E+03	1.438400E-03	6.536995E-05
6.782522E+03	1.416378E-03	6.439841E-05
6.792453E+03	1.398048E-03	6.359428E-05
6.802383E+03	1.383331E-03	6.295417E-05
6.812314E+03	1.372123E-03	6.247367E-05
6.822244E+03	1.364407E-03	6.215213E-05
6.832175E+03	1.360140E-03	6.198784E-05
6.842105E+03	1.359287E-03	6.197946E-05
6.852036E+03	1.361789E-03	6.212445E-05
6.861966E+03	1.367700E-03	6.242558E-05
6.871897E+03	1.376940E-03	6.287935E-05
6.881827E+03	1.389503E-03	6.348579E-05
6.891758E+03	1.405462E-03	6.424845E-05
6.901688E+03	1.424744E-03	6.516426E-05
6.911619E+03	1.447388E-03	6.623525E-05
6.921549E+03	1.473395E-03	6.746172E-05
6.931480E+03	1.502720E-03	6.884194E-05
6.941410E+03	1.535394E-03	7.037754E-05
6.951341E+03	1.571397E-03	7.206786E-05
6.961271E+03	1.610700E-03	7.391193E-05
6.971202E+03	1.653258E-03	7.590793E-05
6.981132E+03	1.698969E-03	7.805143E-05
6.991063E+03	1.747796E-03	8.034104E-05
7.000993E+03	1.799637E-03	8.277239E-05
7.010924E+03	1.854322E-03	8.533791E-05
7.020854E+03	1.911796E-03	8.803537E-05
7.030785E+03	1.971786E-03	9.085243E-05
7.040715E+03	2.034080E-03	9.377956E-05
7.050645E+03	2.098546E-03	9.681092E-05
7.060576E+03	2.164804E-03	9.992929E-05
7.070506E+03	2.232663E-03	1.031260E-04
7.080437E+03	2.301664E-03	1.063799E-04
7.090367E+03	2.371420E-03	1.096735E-04
7.100298E+03	2.441635E-03	1.129930E-04
7.110228E+03	2.511716E-03	1.163112E-04
7.120159E+03	2.581221E-03	1.196076E-04
7.130089E+03	2.649601E-03	1.228567E-04
7.140020E+03	2.716199E-03	1.260280E-04
7.149950E+03	2.780533E-03	1.290991E-04
7.159881E+03	2.841806E-03	1.320327E-04
7.169811E+03	2.899419E-03	1.348008E-04
7.179742E+03	2.952615E-03	1.373678E-04
7.189672E+03	3.000872E-03	1.397091E-04
7.199603E+03	3.043377E-03	1.417864E-04
7.209533E+03	3.079588E-03	1.435739E-04
7.219464E+03	3.108937E-03	1.450443E-04
7.229394E+03	3.130840E-03	1.461701E-04
7.239325E+03	3.145045E-03	1.469385E-04
7.249255E+03	3.151065E-03	1.473260E-04
7.259186E+03	3.148770E-03	1.473259E-04
7.269116E+03	3.138065E-03	1.469326E-04
7.279047E+03	3.118894E-03	1.461429E-04
7.288977E+03	3.091502E-03	1.449672E-04
7.298908E+03	3.056175E-03	1.434182E-04
7.308838E+03	3.013335E-03	1.415147E-04
7.318769E+03	2.963521E-03	1.392812E-04
7.328699E+03	2.907311E-03	1.367442E-04
7.338630E+03	2.845618E-03	1.339460E-04
7.348560E+03	2.779125E-03	1.309180E-04
7.358491E+03	2.708806E-03	1.277055E-04
7.368421E+03	2.635522E-03	1.243487E-04
7.378352E+03	2.560353E-03	1.208982E-04
7.388282E+03	2.484083E-03	1.173909E-04
7.398213E+03	2.407660E-03	1.138712E-04
7.408143E+03	2.331896E-03	1.103776E-04
7.418073E+03	2.257523E-03	1.069449E-04
7.428004E+03	2.185121E-03	1.036004E-04
7.437934E+03	2.115287E-03	1.003728E-04
7.447865E+03	2.048451E-03	9.728274E-05
7.457795E+03	1.984942E-03	9.434605E-05
7.467726E+03	1.924986E-03	9.157394E-05
7.477656E+03	1.868724E-03	8.897333E-05
7.487587E+03	1.816160E-03	8.654492E-05
7.497517E+03	1.767329E-03	8.429074E-05
7.507448E+03	1.722152E-03	8.220740E-05
7.517378E+03	1.680493E-03	8.028889E-05
7.527309E+03	1.642135E-03	7.852515E-05
7.537239E+03	1.606958E-03	7.691085E-05
7.547170E+03	1.574651E-03	7.543144E-05
7.557100E+03	1.545034E-03	7.407859E-05
7.567031E+03	1.517910E-03	7.284325E-05
7.576961E+03	1.493090E-03	7.171661E-05
7.586892E+03	1.470540E-03	7.069722E-05
7.596822E+03	1.450066E-03	6.977612E-05
7.606753E+03	1.431591E-03	6.894980E-05
7.616683E+03	1.414989E-03	6.821249E-05
7.626614E+03	1.400122E-03	6.755764E-05
7.636544E+03	1.386843E-03	6.697849E-05
7.646475E+03	1.374957E-03	6.646575E-05
7.656405E+03	1.364344E-03	6.601373E-05
7.666336E+03	1.354834E-03	6.561447E-05
7.676266E+03	1.346262E-03	6.526008E-05
7.686197E+03	1.338461E-03	6.494249E-05
7.696127E+03	1.331266E-03	6.465385E-05
7.706058E+03	1.324481E-03	6.438471E-05
