#wls	flux	fluxerr
1.588878E+03	5.217233E-04	3.474771E-05
1.628600E+03	5.155685E-04	3.431422E-05
1.668322E+03	5.090422E-04	3.385594E-05
1.708044E+03	5.021783E-04	3.337520E-05
1.747766E+03	4.949817E-04	3.287238E-05
1.787488E+03	4.875250E-04	3.235236E-05
1.827210E+03	4.798194E-04	3.181594E-05
1.866931E+03	4.719393E-04	3.126811E-05
1.906653E+03	4.638996E-04	3.070990E-05
1.946375E+03	4.558025E-04	3.014811E-05
1.986097E+03	4.476073E-04	2.958007E-05
2.025819E+03	4.394138E-04	2.901245E-05
2.065541E+03	4.312634E-04	2.844796E-05
2.105263E+03	4.231700E-04	2.788755E-05
2.144985E+03	4.151977E-04	2.733547E-05
2.184707E+03	4.073576E-04	2.679242E-05
2.224429E+03	3.996845E-04	2.626071E-05
2.264151E+03	3.922341E-04	2.574397E-05
2.303873E+03	3.850349E-04	2.524406E-05
2.343595E+03	3.780708E-04	2.475989E-05
2.383317E+03	3.714130E-04	2.429610E-05
2.423039E+03	3.650862E-04	2.385425E-05
2.462761E+03	3.590942E-04	2.343453E-05
2.502483E+03	3.534623E-04	2.303855E-05
2.542205E+03	3.482162E-04	2.266789E-05
2.581927E+03	3.434012E-04	2.232545E-05
2.621648E+03	3.390252E-04	2.201162E-05
2.661370E+03	3.351170E-04	2.172818E-05
2.701092E+03	3.317260E-04	2.147823E-05
2.740814E+03	3.288491E-04	2.126142E-05
2.780536E+03	3.265588E-04	2.108230E-05
2.820258E+03	3.248763E-04	2.094208E-05
2.859980E+03	3.238445E-04	2.084333E-05
2.899702E+03	3.235100E-04	2.078886E-05
2.939424E+03	3.239236E-04	2.078171E-05
2.979146E+03	3.251407E-04	2.082515E-05
2.989076E+03	3.255731E-04	2.084406E-05
2.999007E+03	3.260775E-04	2.086750E-05
3.008937E+03	3.266209E-04	2.089336E-05
3.018868E+03	3.272212E-04	2.092278E-05
3.028798E+03	3.278966E-04	2.095691E-05
3.038729E+03	3.286139E-04	2.099364E-05
3.048659E+03	3.293916E-04	2.103413E-05
3.058590E+03	3.302477E-04	2.107953E-05
3.068520E+03	3.311491E-04	2.112772E-05
3.078451E+03	3.321142E-04	2.117988E-05
3.088381E+03	3.331442E-04	2.123606E-05
3.098312E+03	3.342575E-04	2.129744E-05
3.108242E+03	3.354208E-04	2.136189E-05
3.118173E+03	3.366528E-04	2.143059E-05
3.128103E+03	3.379720E-04	2.150472E-05
3.138034E+03	3.393451E-04	2.158215E-05
3.147964E+03	3.407909E-04	2.166405E-05
3.157895E+03	3.423106E-04	2.175052E-05
3.167825E+03	3.439232E-04	2.184275E-05
3.177756E+03	3.455953E-04	2.193860E-05
3.187686E+03	3.473457E-04	2.203927E-05
3.197617E+03	3.491760E-04	2.214484E-05
3.207547E+03	3.510877E-04	2.225540E-05
3.217478E+03	3.531002E-04	2.237218E-05
3.227408E+03	3.551797E-04	2.249302E-05
3.237339E+03	3.573453E-04	2.261912E-05
3.247269E+03	3.595989E-04	2.275060E-05
3.257200E+03	3.619422E-04	2.288756E-05
3.267130E+03	3.643953E-04	2.303125E-05
3.277061E+03	3.669235E-04	2.317946E-05
3.286991E+03	3.695467E-04	2.333347E-05
3.296922E+03	3.722669E-04	2.349336E-05
3.306852E+03	3.750862E-04	2.365927E-05
3.316783E+03	3.780062E-04	2.383128E-05
3.326713E+03	3.810291E-04	2.400953E-05
3.336643E+03	3.841570E-04	2.419413E-05
3.346574E+03	3.873920E-04	2.438521E-05
3.356504E+03	3.907360E-04	2.458287E-05
3.366435E+03	3.941915E-04	2.478725E-05
3.376365E+03	3.977605E-04	2.499847E-05
3.386296E+03	4.014455E-04	2.521668E-05
3.396226E+03	4.052486E-04	2.544198E-05
3.406157E+03	4.091722E-04	2.567453E-05
3.416087E+03	4.132189E-04	2.591446E-05
3.426018E+03	4.173910E-04	2.616191E-05
3.435948E+03	4.216910E-04	2.641701E-05
3.445879E+03	4.261216E-04	2.667993E-05
3.455809E+03	4.306852E-04	2.695080E-05
3.465740E+03	4.353846E-04	2.722976E-05
3.475670E+03	4.402010E-04	2.751564E-05
3.485601E+03	4.451798E-04	2.781125E-05
3.495531E+03	4.503026E-04	2.811543E-05
3.505462E+03	4.555721E-04	2.842833E-05
3.515392E+03	4.609690E-04	2.874872E-05
3.525323E+03	4.665404E-04	2.907953E-05
3.535253E+03	4.722673E-04	2.941954E-05
3.545184E+03	4.781527E-04	2.976893E-05
3.555114E+03	4.841760E-04	3.012639E-05
3.565045E+03	4.903868E-04	3.049499E-05
3.574975E+03	4.967411E-04	3.087198E-05
3.584906E+03	5.032893E-04	3.126045E-05
3.594836E+03	5.099864E-04	3.165761E-05
3.604767E+03	5.168843E-04	3.206663E-05
3.614697E+03	5.239363E-04	3.248462E-05
3.624628E+03	5.311957E-04	3.291483E-05
3.634558E+03	5.386144E-04	3.335427E-05
3.644489E+03	5.462468E-04	3.380629E-05
3.654419E+03	5.540439E-04	3.426783E-05
3.664350E+03	5.620340E-04	3.474060E-05
3.674280E+03	5.702468E-04	3.522643E-05
3.684211E+03	5.786311E-04	3.572212E-05
3.694141E+03	5.872160E-04	3.622943E-05
3.704071E+03	5.960037E-04	3.674849E-05
3.714002E+03	6.050248E-04	3.728114E-05
3.723932E+03	6.142246E-04	3.782399E-05
3.733863E+03	6.236326E-04	3.837882E-05
3.743793E+03	6.332505E-04	3.894572E-05
3.753724E+03	6.430791E-04	3.952469E-05
3.763654E+03	6.531193E-04	4.011577E-05
3.773585E+03	6.633714E-04	4.071895E-05
3.783515E+03	6.738355E-04	4.133420E-05
3.793446E+03	6.845111E-04	4.196145E-05
3.803376E+03	6.953974E-04	4.260063E-05
3.813307E+03	7.064929E-04	4.325162E-05
3.823237E+03	7.177620E-04	4.391220E-05
3.833168E+03	7.292686E-04	4.458626E-05
3.843098E+03	7.409764E-04	4.527154E-05
3.853029E+03	7.528812E-04	4.596776E-05
3.862959E+03	7.649427E-04	4.667243E-05
3.872890E+03	7.772258E-04	4.738947E-05
3.882820E+03	7.896520E-04	4.811408E-05
3.892751E+03	8.022864E-04	4.885019E-05
3.902681E+03	8.150466E-04	4.959275E-05
3.912612E+03	8.279976E-04	5.034570E-05
3.922542E+03	8.410524E-04	5.110372E-05
3.932473E+03	8.542757E-04	5.187072E-05
3.942403E+03	8.675763E-04	5.264113E-05
3.952334E+03	8.809776E-04	5.341636E-05
3.962264E+03	8.944640E-04	5.419545E-05
3.972195E+03	9.080594E-04	5.497982E-05
3.982125E+03	9.216637E-04	5.576340E-05
3.992056E+03	9.352995E-04	5.654755E-05
4.001986E+03	9.489495E-04	5.733121E-05
4.011917E+03	9.625989E-04	5.811348E-05
4.021847E+03	9.762360E-04	5.889364E-05
4.031778E+03	9.898537E-04	5.967127E-05
4.041708E+03	1.003451E-03	6.044628E-05
4.051639E+03	1.016983E-03	6.121606E-05
4.061569E+03	1.030550E-03	6.198653E-05
4.071500E+03	1.044113E-03	6.275535E-05
4.081430E+03	1.057634E-03	6.352028E-05
4.091360E+03	1.071223E-03	6.428791E-05
4.101291E+03	1.084849E-03	6.505631E-05
4.111221E+03	1.098485E-03	6.582393E-05
4.121152E+03	1.112255E-03	6.659820E-05
4.131082E+03	1.126096E-03	6.737521E-05
4.141013E+03	1.140090E-03	6.815998E-05
4.150943E+03	1.154327E-03	6.895776E-05
4.160874E+03	1.168735E-03	6.976427E-05
4.170804E+03	1.183390E-03	7.058399E-05
4.180735E+03	1.198310E-03	7.141799E-05
4.190665E+03	1.213505E-03	7.226676E-05
4.200596E+03	1.228973E-03	7.313019E-05
4.210526E+03	1.244705E-03	7.400768E-05
4.220457E+03	1.260682E-03	7.489806E-05
4.230387E+03	1.276877E-03	7.579966E-05
4.240318E+03	1.293255E-03	7.671042E-05
4.250248E+03	1.309772E-03	7.762767E-05
4.260179E+03	1.326320E-03	7.854501E-05
4.270109E+03	1.342962E-03	7.946613E-05
4.280040E+03	1.359518E-03	8.038039E-05
4.289970E+03	1.376045E-03	8.129113E-05
4.299901E+03	1.392354E-03	8.218720E-05
4.309831E+03	1.408498E-03	8.307183E-05
4.319762E+03	1.424288E-03	8.393381E-05
4.329692E+03	1.439719E-03	8.477289E-05
4.339623E+03	1.454730E-03	8.558561E-05
4.349553E+03	1.469329E-03	8.637247E-05
4.359484E+03	1.483338E-03	8.712300E-05
4.369414E+03	1.496776E-03	8.783848E-05
4.379345E+03	1.509613E-03	8.851721E-05
4.389275E+03	1.521771E-03	8.915473E-05
4.399206E+03	1.533400E-03	8.975989E-05
4.409136E+03	1.544472E-03	9.033110E-05
4.419067E+03	1.555041E-03	9.087163E-05
4.428997E+03	1.565107E-03	9.138156E-05
4.438928E+03	1.574876E-03	9.187302E-05
4.448858E+03	1.584283E-03	9.234220E-05
4.458788E+03	1.593527E-03	9.280076E-05
4.468719E+03	1.602521E-03	9.324368E-05
4.478649E+03	1.611368E-03	9.367693E-05
4.488580E+03	1.620147E-03	9.410524E-05
4.498510E+03	1.628712E-03	9.452007E-05
4.508441E+03	1.637105E-03	9.492382E-05
4.518371E+03	1.645282E-03	9.531409E-05
4.528302E+03	1.653186E-03	9.568761E-05
4.538232E+03	1.660686E-03	9.603675E-05
4.548163E+03	1.667857E-03	9.636599E-05
4.558093E+03	1.674569E-03	9.666780E-05
4.568024E+03	1.680764E-03	9.693901E-05
4.577954E+03	1.686326E-03	9.717296E-05
4.587885E+03	1.691368E-03	9.737627E-05
4.597815E+03	1.695730E-03	9.753978E-05
4.607746E+03	1.699487E-03	9.766794E-05
4.617676E+03	1.702732E-03	9.776626E-05
4.627607E+03	1.705361E-03	9.782869E-05
4.637537E+03	1.707495E-03	9.786241E-05
4.647468E+03	1.709203E-03	9.787145E-05
4.657398E+03	1.710560E-03	9.786007E-05
4.667329E+03	1.711650E-03	9.783318E-05
4.677259E+03	1.712564E-03	9.779602E-05
4.687190E+03	1.713322E-03	9.774979E-05
4.697120E+03	1.714174E-03	9.770880E-05
4.707051E+03	1.715086E-03	9.767101E-05
4.716981E+03	1.716323E-03	9.765154E-05
4.726912E+03	1.717875E-03	9.764975E-05
4.736842E+03	1.720033E-03	9.768217E-05
4.746773E+03	1.722805E-03	9.774916E-05
4.756703E+03	1.726425E-03	9.786386E-05
4.766634E+03	1.731051E-03	9.803512E-05
4.776564E+03	1.736837E-03	9.827147E-05
4.786495E+03	1.743919E-03	9.858041E-05
4.796425E+03	1.752415E-03	9.896847E-05
4.806356E+03	1.762417E-03	9.944058E-05
4.816286E+03	1.773917E-03	9.999606E-05
4.826216E+03	1.787105E-03	1.006454E-04
4.836147E+03	1.801852E-03	1.013810E-04
4.846077E+03	1.818318E-03	1.022117E-04
4.856008E+03	1.836341E-03	1.031282E-04
4.865938E+03	1.855984E-03	1.041336E-04
4.875869E+03	1.877296E-03	1.052306E-04
4.885799E+03	1.900089E-03	1.064083E-04
4.895730E+03	1.924399E-03	1.076685E-04
4.905660E+03	1.950181E-03	1.090084E-04
4.915591E+03	1.977302E-03	1.104206E-04
4.925521E+03	2.005871E-03	1.119107E-04
4.935452E+03	2.035752E-03	1.134710E-04
4.945382E+03	2.066805E-03	1.150935E-04
4.955313E+03	2.099155E-03	1.167850E-04
4.965243E+03	2.132595E-03	1.185339E-04
4.975174E+03	2.167191E-03	1.203435E-04
4.985104E+03	2.203033E-03	1.222188E-04
4.995035E+03	2.239960E-03	1.241507E-04
5.004965E+03	2.278103E-03	1.261462E-04
5.014896E+03	2.317531E-03	1.282090E-04
5.024826E+03	2.358234E-03	1.303383E-04
5.034757E+03	2.400518E-03	1.325510E-04
5.044687E+03	2.444413E-03	1.348483E-04
5.054618E+03	2.489946E-03	1.372316E-04
5.064548E+03	2.537430E-03	1.397179E-04
5.074479E+03	2.586737E-03	1.422998E-04
5.084409E+03	2.638097E-03	1.449898E-04
5.094340E+03	2.691246E-03	1.477731E-04
5.104270E+03	2.746168E-03	1.506486E-04
5.114201E+03	2.802660E-03	1.536048E-04
5.124131E+03	2.860442E-03	1.566263E-04
5.134062E+03	2.919155E-03	1.596933E-04
5.143992E+03	2.978248E-03	1.627756E-04
5.153923E+03	3.037468E-03	1.658592E-04
5.163853E+03	3.096035E-03	1.689018E-04
5.173784E+03	3.153639E-03	1.718865E-04
5.183714E+03	3.209474E-03	1.747696E-04
5.193644E+03	3.263150E-03	1.775303E-04
5.203575E+03	3.314219E-03	1.801445E-04
5.213505E+03	3.362441E-03	1.825998E-04
5.223436E+03	3.407113E-03	1.848583E-04
5.233366E+03	3.448422E-03	1.869308E-04
5.243297E+03	3.486075E-03	1.888020E-04
5.253227E+03	3.519963E-03	1.904665E-04
5.263158E+03	3.549884E-03	1.919141E-04
5.273088E+03	3.576094E-03	1.931592E-04
5.283019E+03	3.598300E-03	1.941864E-04
5.292949E+03	3.616659E-03	1.950050E-04
5.302880E+03	3.631194E-03	1.956168E-04
5.312810E+03	3.641934E-03	1.960238E-04
5.322741E+03	3.648902E-03	1.962280E-04
5.332671E+03	3.652117E-03	1.962308E-04
5.342602E+03	3.651588E-03	1.960333E-04
5.352532E+03	3.647317E-03	1.956362E-04
5.362463E+03	3.639149E-03	1.950317E-04
5.372393E+03	3.627368E-03	1.942355E-04
5.382324E+03	3.611665E-03	1.932317E-04
5.392254E+03	3.592178E-03	1.920281E-04
5.402185E+03	3.568901E-03	1.906250E-04
5.412115E+03	3.541839E-03	1.890231E-04
5.422046E+03	3.510997E-03	1.872232E-04
5.431976E+03	3.476390E-03	1.852266E-04
5.441907E+03	3.438042E-03	1.830351E-04
5.451837E+03	3.395868E-03	1.806445E-04
5.461768E+03	3.350262E-03	1.780764E-04
5.471698E+03	3.301149E-03	1.753271E-04
5.481629E+03	3.249055E-03	1.724249E-04
5.491559E+03	3.194016E-03	1.693721E-04
5.501490E+03	3.136490E-03	1.661931E-04
5.511420E+03	3.076820E-03	1.629066E-04
5.521351E+03	3.015366E-03	1.595317E-04
5.531281E+03	2.952515E-03	1.560889E-04
5.541212E+03	2.888574E-03	1.525947E-04
5.551142E+03	2.824255E-03	1.490867E-04
5.561072E+03	2.759876E-03	1.455816E-04
5.571003E+03	2.696252E-03	1.421223E-04
5.580933E+03	2.633794E-03	1.387303E-04
5.590864E+03	2.573254E-03	1.354450E-04
5.600794E+03	2.515256E-03	1.322990E-04
5.610725E+03	2.460389E-03	1.293228E-04
5.620655E+03	2.409180E-03	1.265438E-04
5.630586E+03	2.361993E-03	1.239806E-04
5.640516E+03	2.319388E-03	1.216620E-04
5.650447E+03	2.281462E-03	1.195927E-04
5.660377E+03	2.248596E-03	1.177920E-04
5.670308E+03	2.220731E-03	1.162563E-04
5.680238E+03	2.198003E-03	1.149922E-04
5.690169E+03	2.180392E-03	1.139982E-04
5.700099E+03	2.167817E-03	1.132693E-04
5.710030E+03	2.160130E-03	1.127975E-04
5.719960E+03	2.157127E-03	1.125715E-04
5.729891E+03	2.158458E-03	1.125727E-04
5.739821E+03	2.163958E-03	1.127921E-04
5.749752E+03	2.173059E-03	1.131997E-04
5.759682E+03	2.185461E-03	1.137796E-04
5.769613E+03	2.200449E-03	1.144943E-04
5.779543E+03	2.217487E-03	1.153158E-04
5.789474E+03	2.235872E-03	1.162072E-04
5.799404E+03	2.254820E-03	1.171279E-04
5.809335E+03	2.273383E-03	1.180287E-04
5.819265E+03	2.290816E-03	1.188708E-04
5.829196E+03	2.306062E-03	1.195996E-04
5.839126E+03	2.318052E-03	1.201601E-04
5.849057E+03	2.325936E-03	1.205082E-04
5.858987E+03	2.328876E-03	1.206011E-04
5.868918E+03	2.326211E-03	1.204049E-04
5.878848E+03	2.317546E-03	1.198996E-04
5.888779E+03	2.302810E-03	1.190819E-04
5.898709E+03	2.282254E-03	1.179653E-04
5.908640E+03	2.256431E-03	1.165788E-04
5.918570E+03	2.226052E-03	1.149592E-04
5.928500E+03	2.192271E-03	1.131667E-04
5.938431E+03	2.156006E-03	1.112485E-04
5.948361E+03	2.118487E-03	1.092684E-04
5.958292E+03	2.080855E-03	1.072851E-04
5.968222E+03	2.044220E-03	1.053559E-04
5.978153E+03	2.009635E-03	1.035349E-04
5.988083E+03	1.978092E-03	1.018730E-04
5.998014E+03	1.950433E-03	1.004133E-04
6.007944E+03	1.927662E-03	9.920725E-05
6.017875E+03	1.910425E-03	9.828781E-05
6.027805E+03	1.899542E-03	9.769684E-05
6.037736E+03	1.895724E-03	9.747061E-05
6.047666E+03	1.899740E-03	9.764832E-05
6.057597E+03	1.912066E-03	9.825406E-05
6.067527E+03	1.933649E-03	9.933613E-05
6.077458E+03	1.965185E-03	1.009300E-04
6.087388E+03	2.007529E-03	1.030792E-04
6.097319E+03	2.061550E-03	1.058280E-04
6.107249E+03	2.128399E-03	1.092353E-04
6.117180E+03	2.209372E-03	1.133671E-04
6.127110E+03	2.305653E-03	1.182839E-04
6.137041E+03	2.418821E-03	1.240666E-04
6.146971E+03	2.550501E-03	1.307980E-04
6.156902E+03	2.702416E-03	1.385665E-04
6.166832E+03	2.876236E-03	1.474573E-04
6.176763E+03	3.073935E-03	1.575716E-04
6.186693E+03	3.296831E-03	1.689768E-04
6.196624E+03	3.546096E-03	1.817330E-04
6.206554E+03	3.821001E-03	1.958027E-04
6.216485E+03	4.119151E-03	2.110635E-04
6.226415E+03	4.435851E-03	2.272750E-04
6.236346E+03	4.764314E-03	2.440898E-04
6.246276E+03	5.095793E-03	2.610604E-04
6.256207E+03	5.419689E-03	2.776443E-04
6.266137E+03	5.724954E-03	2.932762E-04
6.276068E+03	5.999459E-03	3.073353E-04
6.285998E+03	6.232669E-03	3.192824E-04
6.295929E+03	6.414838E-03	3.286187E-04
6.305859E+03	6.539545E-03	3.350154E-04
6.315789E+03	6.603243E-03	3.382906E-04
6.325720E+03	6.605615E-03	3.384281E-04
6.335650E+03	6.549378E-03	3.355663E-04
6.345581E+03	6.439501E-03	3.299594E-04
6.355511E+03	6.283487E-03	3.219910E-04
6.365442E+03	6.088906E-03	3.120481E-04
6.375372E+03	5.864691E-03	3.005877E-04
6.385303E+03	5.618672E-03	2.880104E-04
6.395233E+03	5.358795E-03	2.747227E-04
6.405164E+03	5.091891E-03	2.610741E-04
6.415094E+03	4.823734E-03	2.473602E-04
6.425025E+03	4.558807E-03	2.338103E-04
6.434955E+03	4.301062E-03	2.206269E-04
6.444886E+03	4.052937E-03	2.079348E-04
6.454816E+03	3.816069E-03	1.958178E-04
6.464747E+03	3.591721E-03	1.843408E-04
6.474677E+03	3.380443E-03	1.735319E-04
6.484608E+03	3.182365E-03	1.633979E-04
6.494538E+03	2.997296E-03	1.539293E-04
6.504469E+03	2.824815E-03	1.451043E-04
6.514399E+03	2.664332E-03	1.368931E-04
6.524330E+03	2.515156E-03	1.292601E-04
6.534260E+03	2.376445E-03	1.221624E-04
6.544191E+03	2.247622E-03	1.155705E-04
6.554121E+03	2.127764E-03	1.094372E-04
6.564052E+03	2.016274E-03	1.037319E-04
6.573982E+03	1.912526E-03	9.842271E-05
6.583913E+03	1.815969E-03	9.348131E-05
6.593843E+03	1.726110E-03	8.888263E-05
6.603774E+03	1.642519E-03	8.460467E-05
6.613704E+03	1.564744E-03	8.062434E-05
6.623635E+03	1.492551E-03	7.692981E-05
6.633565E+03	1.425490E-03	7.349797E-05
6.643496E+03	1.363312E-03	7.031623E-05
6.653426E+03	1.305777E-03	6.737233E-05
6.663357E+03	1.252518E-03	6.464756E-05
6.673287E+03	1.203341E-03	6.213204E-05
6.683217E+03	1.157980E-03	5.981223E-05
6.693148E+03	1.116323E-03	5.768244E-05
6.703078E+03	1.078136E-03	5.573086E-05
6.713009E+03	1.043217E-03	5.394709E-05
6.722939E+03	1.011499E-03	5.232789E-05
6.732870E+03	9.827731E-04	5.086255E-05
6.742800E+03	9.569659E-04	4.954748E-05
6.752731E+03	9.339794E-04	4.837774E-05
6.762661E+03	9.137301E-04	4.734917E-05
6.772592E+03	8.961447E-04	4.645811E-05
6.782522E+03	8.811598E-04	4.570144E-05
6.792453E+03	8.686879E-04	4.507479E-05
6.802383E+03	8.587511E-04	4.457945E-05
6.812314E+03	8.512477E-04	4.421031E-05
6.822244E+03	8.462176E-04	4.396961E-05
6.832175E+03	8.435785E-04	4.385325E-05
6.842105E+03	8.433545E-04	4.386265E-05
6.852036E+03	8.455445E-04	4.399793E-05
6.861966E+03	8.501530E-04	4.425951E-05
6.871897E+03	8.571899E-04	4.464809E-05
6.881827E+03	8.666359E-04	4.516287E-05
6.891758E+03	8.785754E-04	4.580843E-05
6.901688E+03	8.929617E-04	4.658256E-05
6.911619E+03	9.098854E-04	4.749019E-05
6.921549E+03	9.292982E-04	4.852902E-05
6.931480E+03	9.512512E-04	4.970195E-05
6.941410E+03	9.757573E-04	5.100987E-05
6.951341E+03	1.002821E-03	5.245328E-05
6.961271E+03	1.032439E-03	5.403222E-05
6.971202E+03	1.064596E-03	5.574613E-05
6.981132E+03	1.099215E-03	5.759130E-05
6.991063E+03	1.136334E-03	5.956989E-05
7.000993E+03	1.175796E-03	6.167392E-05
7.010924E+03	1.217553E-03	6.390115E-05
7.020854E+03	1.261540E-03	6.624842E-05
7.030785E+03	1.307530E-03	6.870407E-05
7.040715E+03	1.355421E-03	7.126288E-05
7.050645E+03	1.404997E-03	7.391383E-05
7.060576E+03	1.456195E-03	7.665365E-05
7.070506E+03	1.508775E-03	7.947003E-05
7.080437E+03	1.562485E-03	8.234983E-05
7.090367E+03	1.617230E-03	8.528822E-05
7.100298E+03	1.672654E-03	8.826649E-05
7.110228E+03	1.728616E-03	9.127741E-05
7.120159E+03	1.784679E-03	9.429789E-05
7.130089E+03	1.840546E-03	9.731239E-05
7.140020E+03	1.895801E-03	1.002989E-04
7.149950E+03	1.949962E-03	1.032318E-04
7.159881E+03	2.002407E-03	1.060783E-04
7.169811E+03	2.052687E-03	1.088142E-04
7.179742E+03	2.100076E-03	1.114010E-04
7.189672E+03	2.143816E-03	1.137981E-04
7.199603E+03	2.183308E-03	1.159734E-04
7.209533E+03	2.217986E-03	1.178963E-04
7.219464E+03	2.247074E-03	1.195251E-04
7.229394E+03	2.270125E-03	1.208354E-04
7.239325E+03	2.286700E-03	1.218031E-04
7.249255E+03	2.296446E-03	1.224088E-04
7.259186E+03	2.299015E-03	1.226332E-04
7.269116E+03	2.294415E-03	1.224757E-04
7.279047E+03	2.282452E-03	1.219253E-04
7.288977E+03	2.263011E-03	1.209750E-04
7.298908E+03	2.236232E-03	1.196312E-04
7.308838E+03	2.202352E-03	1.179059E-04
7.318769E+03	2.161480E-03	1.158040E-04
7.328699E+03	2.114130E-03	1.133522E-04
7.338630E+03	2.060901E-03	1.105818E-04
7.348560E+03	2.002562E-03	1.075333E-04
7.358491E+03	1.939956E-03	1.042514E-04
7.368421E+03	1.874266E-03	1.007991E-04
7.378352E+03	1.806512E-03	9.723082E-05
7.388282E+03	1.737732E-03	9.360220E-05
7.398213E+03	1.669130E-03	8.997788E-05
7.408143E+03	1.601550E-03	8.640343E-05
7.418073E+03	1.535912E-03	8.292853E-05
7.428004E+03	1.472913E-03	7.959109E-05
7.437934E+03	1.413091E-03	7.642037E-05
7.447865E+03	1.356819E-03	7.343699E-05
7.457795E+03	1.304329E-03	7.065392E-05
7.467726E+03	1.255723E-03	6.807712E-05
7.477656E+03	1.210951E-03	6.570433E-05
7.487587E+03	1.170027E-03	6.353678E-05
7.497517E+03	1.132713E-03	6.156210E-05
7.507448E+03	1.098909E-03	5.977521E-05
7.517378E+03	1.068300E-03	5.815940E-05
7.527309E+03	1.040675E-03	5.670368E-05
7.537239E+03	1.015762E-03	5.539355E-05
7.547170E+03	9.932856E-04	5.421430E-05
7.557100E+03	9.729797E-04	5.315176E-05
7.567031E+03	9.546208E-04	5.219398E-05
7.576961E+03	9.380472E-04	5.133237E-05
7.586892E+03	9.231011E-04	5.055853E-05
7.596822E+03	9.097516E-04	4.987097E-05
7.606753E+03	8.978557E-04	4.926207E-05
7.616683E+03	8.872692E-04	4.872411E-05
7.626614E+03	8.779113E-04	4.825283E-05
7.636544E+03	8.696601E-04	4.784167E-05
7.646475E+03	8.624214E-04	4.748562E-05
7.656405E+03	8.559954E-04	4.717380E-05
7.666336E+03	8.502479E-04	4.689892E-05
7.676266E+03	8.451091E-04	4.665722E-05
7.686197E+03	8.404088E-04	4.643937E-05
7.696127E+03	8.360126E-04	4.623801E-05
7.706058E+03	8.317572E-04	4.604412E-05
