#wls	flux	fluxerr
1.596966E+03	2.596773E-16	1.298228E-17
1.636890E+03	2.704484E-16	1.337124E-17
1.676814E+03	2.800147E-16	1.368740E-17
1.716738E+03	2.882242E-16	1.392528E-17
1.756662E+03	2.948083E-16	1.407421E-17
1.796586E+03	2.991971E-16	1.411005E-17
1.836511E+03	3.006232E-16	1.400083E-17
1.876435E+03	2.983644E-16	1.371859E-17
1.916359E+03	2.916217E-16	1.323373E-17
1.956283E+03	2.801755E-16	1.254467E-17
1.996207E+03	2.648257E-16	1.169554E-17
2.036131E+03	2.479685E-16	1.079818E-17
2.076055E+03	2.336145E-16	1.002787E-17
2.115980E+03	2.268308E-16	9.594547E-18
2.155904E+03	2.322914E-16	9.678917E-18
2.195828E+03	2.529522E-16	1.037909E-17
2.235752E+03	2.897817E-16	1.170506E-17
2.275676E+03	3.421161E-16	1.359915E-17
2.315600E+03	4.081946E-16	1.596224E-17
2.355525E+03	4.859372E-16	1.868732E-17
2.395449E+03	5.735830E-16	2.168462E-17
2.435373E+03	6.694896E-16	2.487326E-17
2.475297E+03	7.722005E-16	2.818338E-17
2.515221E+03	8.788598E-16	3.149879E-17
2.555145E+03	9.837504E-16	3.461019E-17
2.595069E+03	1.073512E-15	3.705967E-17
2.634994E+03	1.129969E-15	3.826166E-17
2.674918E+03	1.152372E-15	3.825757E-17
2.714842E+03	1.156032E-15	3.761359E-17
2.754766E+03	1.153231E-15	3.675891E-17
2.794690E+03	1.151090E-15	3.592913E-17
2.834614E+03	1.154641E-15	3.527730E-17
2.874538E+03	1.167608E-15	3.490407E-17
2.914463E+03	1.193785E-15	3.490253E-17
2.954387E+03	1.237558E-15	3.537296E-17
2.994311E+03	1.304579E-15	3.643956E-17
3.004292E+03	1.325852E-15	3.681871E-17
3.014273E+03	1.349118E-15	3.724624E-17
3.024254E+03	1.374591E-15	3.772706E-17
3.034235E+03	1.402550E-15	3.826776E-17
3.044216E+03	1.433320E-15	3.887595E-17
3.054197E+03	1.467238E-15	3.955940E-17
3.064178E+03	1.504557E-15	4.032335E-17
3.074159E+03	1.545486E-15	4.117177E-17
3.084140E+03	1.590262E-15	4.210925E-17
3.094121E+03	1.639228E-15	4.314295E-17
3.104102E+03	1.692610E-15	4.427684E-17
3.114083E+03	1.750897E-15	4.552152E-17
3.124064E+03	1.814308E-15	4.688035E-17
3.134045E+03	1.883491E-15	4.836756E-17
3.144026E+03	1.958654E-15	4.998578E-17
3.154007E+03	2.040532E-15	5.175079E-17
3.163988E+03	2.129564E-15	5.367059E-17
3.173969E+03	2.226393E-15	5.575786E-17
3.183950E+03	2.331496E-15	5.802092E-17
3.193932E+03	2.445536E-15	6.047227E-17
3.203913E+03	2.569162E-15	6.312377E-17
3.213894E+03	2.702778E-15	6.598079E-17
3.223875E+03	2.846903E-15	6.905135E-17
3.233856E+03	3.001935E-15	7.234023E-17
3.243837E+03	3.168019E-15	7.584587E-17
3.253818E+03	3.344964E-15	7.955873E-17
3.263799E+03	3.532712E-15	8.347249E-17
3.273780E+03	3.730736E-15	8.756991E-17
3.283761E+03	3.938097E-15	9.182451E-17
3.293742E+03	4.734741E-15	1.096647E-16
3.295738E+03	4.716233E-15	1.090898E-16
3.297734E+03	4.716002E-15	1.089382E-16
3.299731E+03	4.711120E-15	1.086795E-16
3.301727E+03	4.712243E-15	1.085594E-16
3.303723E+03	4.719742E-15	1.085860E-16
3.305719E+03	4.716659E-15	1.083691E-16
3.307715E+03	4.727679E-15	1.084761E-16
3.309712E+03	4.746886E-15	1.087700E-16
3.311708E+03	4.777990E-15	1.093350E-16
3.313704E+03	4.831143E-15	1.104021E-16
3.315700E+03	4.871476E-15	1.111733E-16
3.317696E+03	4.905045E-15	1.117880E-16
3.319693E+03	4.942812E-15	1.124963E-16
3.321689E+03	4.994697E-15	1.135231E-16
3.323685E+03	5.047946E-15	1.145778E-16
3.325681E+03	5.105070E-15	1.157171E-16
3.327677E+03	5.153154E-15	1.166483E-16
3.329674E+03	5.186540E-15	1.172444E-16
3.331670E+03	5.220066E-15	1.178417E-16
3.333666E+03	5.265845E-15	1.187132E-16
3.335662E+03	5.314418E-15	1.196448E-16
3.337658E+03	5.358223E-15	1.204664E-16
3.339655E+03	5.404586E-15	1.213428E-16
3.341651E+03	5.448454E-15	1.221605E-16
3.343647E+03	5.507881E-15	1.233239E-16
3.345643E+03	5.548926E-15	1.240728E-16
3.347639E+03	5.595784E-15	1.249490E-16
3.349636E+03	5.633623E-15	1.256213E-16
3.351632E+03	5.669549E-15	1.262488E-16
3.353628E+03	5.714674E-15	1.270787E-16
3.355624E+03	5.754264E-15	1.277831E-16
3.357621E+03	5.787826E-15	1.283514E-16
3.359617E+03	5.817528E-15	1.288323E-16
3.361613E+03	5.827129E-15	1.288670E-16
3.363609E+03	5.839618E-15	1.289649E-16
3.365605E+03	5.865793E-15	1.293640E-16
3.367602E+03	5.881534E-15	1.295318E-16
3.369598E+03	5.922762E-15	1.302592E-16
3.371594E+03	5.943596E-15	1.305364E-16
3.373590E+03	5.972690E-15	1.309935E-16
3.375586E+03	6.012736E-15	1.316888E-16
3.377583E+03	6.086274E-15	1.331143E-16
3.379579E+03	6.166204E-15	1.346751E-16
3.381575E+03	6.224622E-15	1.357619E-16
3.383571E+03	6.293200E-15	1.370665E-16
3.385567E+03	6.351821E-15	1.381505E-16
3.387564E+03	6.435384E-15	1.397728E-16
3.389560E+03	6.528904E-15	1.416060E-16
3.391556E+03	6.596952E-15	1.428821E-16
3.393552E+03	6.668956E-15	1.442397E-16
3.395548E+03	6.741132E-15	1.455967E-16
3.397545E+03	6.825477E-15	1.472120E-16
3.399541E+03	6.924824E-15	1.491454E-16
3.401537E+03	7.014932E-15	1.508742E-16
3.403533E+03	7.104735E-15	1.525912E-16
3.405529E+03	7.221227E-15	1.548752E-16
3.407526E+03	7.361507E-15	1.576618E-16
3.409522E+03	7.496002E-15	1.603164E-16
3.411518E+03	7.613151E-15	1.625925E-16
3.413514E+03	7.726941E-15	1.647902E-16
3.415511E+03	7.839215E-15	1.669488E-16
3.417507E+03	7.974952E-15	1.695997E-16
3.419503E+03	8.119660E-15	1.724332E-16
3.421499E+03	8.271992E-15	1.754198E-16
3.423495E+03	8.393738E-15	1.777497E-16
3.425492E+03	8.524448E-15	1.802620E-16
3.427488E+03	8.657100E-15	1.828077E-16
3.429484E+03	8.803792E-15	1.856416E-16
3.431480E+03	8.930820E-15	1.880529E-16
3.433476E+03	9.046560E-15	1.902194E-16
3.435473E+03	9.176959E-15	1.926869E-16
3.437469E+03	9.304471E-15	1.950863E-16
3.439465E+03	9.392210E-15	1.966455E-16
3.441461E+03	9.448913E-15	1.975508E-16
3.443457E+03	9.511693E-15	1.985797E-16
3.445454E+03	9.587625E-15	1.998793E-16
3.447450E+03	9.628871E-15	2.004525E-16
3.449446E+03	9.661424E-15	2.008427E-16
3.451442E+03	9.674114E-15	2.008189E-16
3.453438E+03	9.690992E-15	2.008813E-16
3.455435E+03	9.725728E-15	2.013125E-16
3.457431E+03	9.755607E-15	2.016415E-16
3.459427E+03	9.780996E-15	2.018762E-16
3.461423E+03	9.806114E-15	2.021041E-16
3.463420E+03	9.811060E-15	2.019155E-16
3.465416E+03	9.806759E-15	2.015369E-16
3.467412E+03	9.814616E-15	2.014081E-16
3.469408E+03	9.800020E-15	2.008191E-16
3.471404E+03	9.766302E-15	1.998398E-16
3.473401E+03	9.730154E-15	1.988131E-16
3.475397E+03	9.664632E-15	1.971893E-16
3.477393E+03	9.595525E-15	1.954967E-16
3.479389E+03	9.535936E-15	1.940019E-16
3.481385E+03	9.489874E-15	1.927857E-16
3.483382E+03	9.424631E-15	1.911833E-16
3.485378E+03	9.358677E-15	1.895705E-16
3.487374E+03	9.302636E-15	1.881623E-16
3.489370E+03	9.233140E-15	1.864859E-16
3.491366E+03	9.169437E-15	1.849306E-16
3.493363E+03	9.087384E-15	1.830097E-16
3.495359E+03	9.006117E-15	1.811095E-16
3.497355E+03	8.927511E-15	1.792678E-16
3.499351E+03	8.865101E-15	1.777557E-16
3.501347E+03	8.801489E-15	1.762233E-16
3.503344E+03	8.729653E-15	1.745304E-16
3.505340E+03	8.669395E-15	1.730731E-16
3.507336E+03	8.613206E-15	1.717006E-16
3.509332E+03	8.549296E-15	1.701779E-16
3.511328E+03	8.525353E-15	1.694535E-16
3.513325E+03	8.517558E-15	1.690512E-16
3.515321E+03	8.498800E-15	1.684323E-16
3.517317E+03	8.475858E-15	1.677319E-16
3.519313E+03	8.439296E-15	1.667639E-16
3.521310E+03	8.432980E-15	1.663950E-16
3.523306E+03	8.433546E-15	1.661623E-16
3.525302E+03	8.435847E-15	1.659639E-16
3.527298E+03	8.448437E-15	1.659677E-16
3.529294E+03	8.448418E-15	1.657236E-16
3.531291E+03	8.431378E-15	1.651464E-16
3.533287E+03	8.429912E-15	1.648749E-16
3.535283E+03	8.443789E-15	1.649034E-16
3.537279E+03	8.443911E-15	1.646630E-16
3.539275E+03	8.435057E-15	1.642481E-16
3.541272E+03	8.425035E-15	1.638111E-16
3.543268E+03	8.416116E-15	1.633964E-16
3.545264E+03	8.415238E-15	1.631382E-16
3.547260E+03	8.413324E-15	1.628603E-16
3.549256E+03	8.418198E-15	1.627139E-16
3.551253E+03	8.430747E-15	1.627155E-16
3.553249E+03	8.457802E-15	1.629961E-16
3.555245E+03	8.488002E-15	1.633360E-16
3.557241E+03	8.491279E-15	1.631570E-16
3.559237E+03	8.482020E-15	1.627375E-16
3.561234E+03	8.481455E-15	1.624853E-16
3.563230E+03	8.469613E-15	1.620176E-16
3.565226E+03	8.448631E-15	1.613762E-16
3.567222E+03	8.435459E-15	1.608852E-16
3.569218E+03	8.405682E-15	1.600788E-16
3.571215E+03	8.363211E-15	1.590330E-16
3.573211E+03	8.351453E-15	1.585729E-16
3.575207E+03	8.340551E-15	1.581300E-16
3.577203E+03	8.321643E-15	1.575362E-16
3.579200E+03	8.306121E-15	1.570078E-16
3.581196E+03	8.280175E-15	1.562837E-16
3.583192E+03	8.252802E-15	1.555343E-16
3.585188E+03	8.238193E-15	1.550269E-16
3.587184E+03	8.189828E-15	1.538862E-16
3.589181E+03	8.134574E-15	1.526191E-16
3.591177E+03	8.106665E-15	1.518677E-16
3.593173E+03	8.069967E-15	1.509535E-16
3.595169E+03	8.019526E-15	1.497850E-16
3.597165E+03	7.973992E-15	1.487110E-16
3.599162E+03	7.935016E-15	1.477618E-16
3.601158E+03	7.920374E-15	1.472674E-16
3.603154E+03	7.896813E-15	1.466085E-16
3.605150E+03	7.889095E-15	1.462448E-16
3.607146E+03	7.888842E-15	1.460198E-16
3.609143E+03	7.894664E-15	1.459073E-16
3.611139E+03	7.906183E-15	1.458998E-16
3.613135E+03	7.897346E-15	1.455167E-16
3.615131E+03	7.910089E-15	1.455314E-16
3.617127E+03	7.907938E-15	1.452719E-16
3.619124E+03	7.923560E-15	1.453387E-16
3.621120E+03	7.951118E-15	1.456234E-16
3.623116E+03	7.976112E-15	1.458599E-16
3.625112E+03	8.003128E-15	1.461321E-16
3.627108E+03	8.040302E-15	1.465882E-16
3.629105E+03	8.081026E-15	1.471070E-16
3.631101E+03	8.122753E-15	1.476420E-16
3.633097E+03	8.176557E-15	1.483940E-16
3.635093E+03	8.225511E-15	1.490554E-16
3.637090E+03	8.259430E-15	1.494422E-16
3.639086E+03	8.308867E-15	1.501076E-16
3.641082E+03	8.366565E-15	1.509195E-16
3.643078E+03	8.428707E-15	1.518085E-16
3.645074E+03	8.514404E-15	1.531178E-16
3.647071E+03	8.580471E-15	1.540700E-16
3.649067E+03	8.644618E-15	1.549845E-16
3.651063E+03	8.719325E-15	1.560846E-16
3.653059E+03	8.792113E-15	1.571465E-16
3.655055E+03	8.854944E-15	1.580268E-16
3.657052E+03	8.944144E-15	1.593738E-16
3.659048E+03	9.076799E-15	1.614892E-16
3.661044E+03	9.203076E-15	1.634843E-16
3.663040E+03	9.315454E-15	1.652260E-16
3.665036E+03	9.424381E-15	1.669008E-16
3.667033E+03	9.556503E-15	1.689798E-16
3.669029E+03	9.669237E-15	1.707096E-16
3.671025E+03	9.784002E-15	1.724693E-16
3.673021E+03	9.898242E-15	1.742136E-16
3.675017E+03	9.996659E-15	1.756738E-16
3.677014E+03	1.007350E-14	1.767503E-16
3.679010E+03	1.012966E-14	1.774605E-16
3.681006E+03	1.018847E-14	1.782143E-16
3.683002E+03	1.023476E-14	1.787463E-16
3.684999E+03	1.025743E-14	1.788641E-16
3.686995E+03	1.026488E-14	1.787160E-16
3.688991E+03	1.027052E-14	1.785361E-16
3.690987E+03	1.027690E-14	1.783689E-16
3.692983E+03	1.025135E-14	1.776483E-16
3.694980E+03	1.020382E-14	1.765489E-16
3.696976E+03	1.014961E-14	1.753370E-16
3.698972E+03	1.007075E-14	1.737029E-16
3.700968E+03	9.975003E-15	1.717825E-16
3.702964E+03	9.880503E-15	1.698888E-16
3.704961E+03	9.756867E-15	1.675002E-16
3.706957E+03	9.612901E-15	1.647700E-16
3.708953E+03	9.460352E-15	1.619008E-16
3.710949E+03	9.266924E-15	1.583415E-16
3.712945E+03	9.062866E-15	1.546114E-16
3.714942E+03	8.844098E-15	1.506419E-16
3.716938E+03	8.604618E-15	1.463320E-16
3.718934E+03	8.360005E-15	1.419479E-16
3.720930E+03	8.113705E-15	1.375485E-16
3.722926E+03	7.833040E-15	1.325808E-16
3.724923E+03	7.553628E-15	1.276494E-16
3.726919E+03	7.282876E-15	1.228792E-16
3.728915E+03	6.993084E-15	1.178028E-16
3.730911E+03	6.698680E-15	1.126645E-16
3.732907E+03	6.420218E-15	1.078097E-16
3.734904E+03	6.122465E-15	1.026465E-16
3.736900E+03	5.828278E-15	9.755893E-17
3.738896E+03	5.553745E-15	9.281558E-17
3.740892E+03	5.281119E-15	8.811879E-17
3.742889E+03	5.018446E-15	8.360239E-17
3.744885E+03	4.767259E-15	7.929108E-17
3.746881E+03	4.527431E-15	7.518184E-17
3.748877E+03	4.305987E-15	7.139020E-17
3.750873E+03	4.086073E-15	6.763573E-17
3.752870E+03	3.890416E-15	6.429385E-17
3.754866E+03	3.704331E-15	6.112037E-17
3.756862E+03	3.521825E-15	5.801575E-17
3.758858E+03	3.367275E-15	5.538065E-17
3.760854E+03	3.221024E-15	5.289006E-17
3.762851E+03	3.112681E-15	5.102870E-17
3.764847E+03	3.015442E-15	4.935488E-17
3.766843E+03	2.930331E-15	4.788442E-17
3.768839E+03	2.866912E-15	4.677240E-17
3.770835E+03	2.806938E-15	4.571989E-17
3.772832E+03	2.747730E-15	4.468304E-17
3.774828E+03	2.716338E-15	4.410095E-17
3.776824E+03	2.699999E-15	4.376455E-17
3.778820E+03	2.691948E-15	4.356320E-17
3.780816E+03	2.689379E-15	4.345087E-17
3.782813E+03	2.687826E-15	4.335509E-17
3.784809E+03	2.687288E-15	4.327580E-17
3.786805E+03	2.706515E-15	4.351435E-17
3.788801E+03	2.729816E-15	4.381733E-17
3.790797E+03	2.754767E-15	4.414556E-17
3.792794E+03	2.775247E-15	4.440099E-17
3.794790E+03	2.785900E-15	4.449842E-17
3.796786E+03	2.808659E-15	4.478840E-17
3.798782E+03	2.837785E-15	4.517859E-17
3.800779E+03	2.868686E-15	4.559552E-17
3.802775E+03	2.917552E-15	4.629594E-17
3.804771E+03	2.998657E-15	4.750456E-17
3.806767E+03	3.090961E-15	4.888614E-17
3.808763E+03	3.157881E-15	4.986213E-17
3.810760E+03	3.220579E-15	5.076812E-17
3.812756E+03	3.296261E-15	5.187523E-17
3.814752E+03	3.386830E-15	5.321233E-17
3.816748E+03	3.483495E-15	5.464041E-17
3.818744E+03	3.600520E-15	5.638232E-17
3.820741E+03	3.704906E-15	5.792062E-17
3.822737E+03	3.798823E-15	5.929014E-17
3.824733E+03	3.901378E-15	6.078944E-17
3.826729E+03	4.008870E-15	6.236027E-17
3.828725E+03	4.124232E-15	6.404780E-17
3.830722E+03	4.253698E-15	6.594807E-17
3.832718E+03	4.375747E-15	6.772690E-17
3.834714E+03	4.492036E-15	6.941048E-17
3.836710E+03	4.616820E-15	7.121914E-17
3.838706E+03	4.745645E-15	7.308367E-17
3.840703E+03	4.869597E-15	7.486667E-17
3.842699E+03	4.998735E-15	7.672294E-17
3.844695E+03	5.143228E-15	7.880790E-17
3.846691E+03	5.293916E-15	8.098026E-17
3.848687E+03	5.449906E-15	8.322589E-17
3.850684E+03	5.634088E-15	8.589335E-17
3.852680E+03	5.838819E-15	8.886416E-17
3.854676E+03	6.067020E-15	9.218112E-17
3.856672E+03	6.301512E-15	9.558187E-17
3.858669E+03	6.520173E-15	9.873094E-17
3.860665E+03	6.763816E-15	1.022465E-16
3.862661E+03	7.041577E-15	1.062646E-16
3.864657E+03	7.326501E-15	1.103764E-16
3.866653E+03	7.608547E-15	1.144304E-16
3.868650E+03	7.898132E-15	1.185833E-16
3.870646E+03	8.189789E-15	1.227526E-16
3.872642E+03	8.488347E-15	1.270103E-16
3.874638E+03	8.785797E-15	1.312363E-16
3.876634E+03	9.067916E-15	1.352186E-16
3.878631E+03	9.339531E-15	1.390304E-16
3.880627E+03	9.615125E-15	1.428875E-16
3.882623E+03	9.878699E-15	1.465524E-16
3.884619E+03	1.012569E-14	1.499585E-16
3.886615E+03	1.037398E-14	1.533714E-16
3.888612E+03	1.063387E-14	1.569430E-16
3.890608E+03	1.089455E-14	1.605132E-16
3.892604E+03	1.111963E-14	1.635467E-16
3.894600E+03	1.133359E-14	1.664058E-16
3.896596E+03	1.154963E-14	1.692846E-16
3.898593E+03	1.177840E-14	1.723389E-16
3.900589E+03	1.200771E-14	1.753898E-16
3.902585E+03	1.222844E-14	1.783042E-16
3.904581E+03	1.243351E-14	1.809796E-16
3.906578E+03	1.264331E-14	1.837136E-16
3.908574E+03	1.285480E-14	1.864618E-16
3.910570E+03	1.305797E-14	1.890791E-16
3.912566E+03	1.323953E-14	1.913739E-16
3.914562E+03	1.341468E-14	1.935675E-16
3.916559E+03	1.359356E-14	1.958060E-16
3.918555E+03	1.375844E-14	1.978346E-16
3.920551E+03	1.392198E-14	1.998359E-16
3.922547E+03	1.408291E-14	2.017919E-16
3.924543E+03	1.424125E-14	2.037030E-16
3.926540E+03	1.439951E-14	2.056053E-16
3.928536E+03	1.454884E-14	2.073727E-16
3.930532E+03	1.468294E-14	2.089161E-16
3.932528E+03	1.481317E-14	2.103982E-16
3.934524E+03	1.494587E-14	2.119091E-16
3.936521E+03	1.508229E-14	2.134663E-16
3.938517E+03	1.521106E-14	2.149090E-16
3.940513E+03	1.533725E-14	2.163091E-16
3.942509E+03	1.546336E-14	2.177022E-16
3.944505E+03	1.558184E-14	2.189820E-16
3.946502E+03	1.569394E-14	2.201668E-16
3.948498E+03	1.580598E-14	2.213456E-16
3.950494E+03	1.590912E-14	2.223947E-16
3.952490E+03	1.602104E-14	2.235615E-16
3.954486E+03	1.614299E-14	2.248629E-16
3.956483E+03	1.624595E-14	2.258946E-16
3.958479E+03	1.634129E-14	2.268157E-16
3.960475E+03	1.644035E-14	2.277840E-16
3.962471E+03	1.654313E-14	2.287994E-16
3.964468E+03	1.663578E-14	2.296701E-16
3.966464E+03	1.673214E-14	2.305879E-16
3.968460E+03	1.681585E-14	2.313272E-16
3.970456E+03	1.689446E-14	2.319929E-16
3.972452E+03	1.697932E-14	2.327407E-16
3.974449E+03	1.704524E-14	2.332256E-16
3.976445E+03	1.710229E-14	2.335866E-16
3.978441E+03	1.714042E-14	2.336873E-16
3.980437E+03	1.715208E-14	2.334262E-16
3.982433E+03	1.715113E-14	2.329938E-16
3.984430E+03	1.713757E-14	2.323910E-16
3.986426E+03	1.711520E-14	2.316698E-16
3.988422E+03	1.707898E-14	2.307632E-16
3.990418E+03	1.702515E-14	2.296213E-16
3.992414E+03	1.696127E-14	2.283471E-16
3.994411E+03	1.686723E-14	2.266712E-16
3.996407E+03	1.677321E-14	2.250006E-16
3.998403E+03	1.669931E-14	2.236045E-16
4.000399E+03	1.662290E-14	2.221789E-16
4.002395E+03	1.653270E-14	2.205735E-16
4.004392E+03	1.642620E-14	2.187558E-16
4.006388E+03	1.632223E-14	2.169773E-16
4.008384E+03	1.624338E-14	2.155378E-16
4.010380E+03	1.618087E-14	2.143189E-16
4.012376E+03	1.608951E-14	2.127221E-16
4.014373E+03	1.598312E-14	2.109318E-16
4.016369E+03	1.589306E-14	2.093623E-16
4.018365E+03	1.579926E-14	2.077484E-16
4.020361E+03	1.568920E-14	2.059259E-16
4.022358E+03	1.556162E-14	2.038798E-16
4.024354E+03	1.542280E-14	2.016933E-16
4.026350E+03	1.528403E-14	1.995145E-16
4.028346E+03	1.515282E-14	1.974414E-16
4.030342E+03	1.500413E-14	1.951476E-16
4.032339E+03	1.485173E-14	1.928132E-16
4.034335E+03	1.470188E-14	1.905197E-16
4.036331E+03	1.455459E-14	1.882668E-16
4.038327E+03	1.439235E-14	1.858283E-16
4.040323E+03	1.422016E-14	1.832698E-16
4.042320E+03	1.407054E-14	1.810103E-16
4.044316E+03	1.394097E-14	1.790157E-16
4.046312E+03	1.381769E-14	1.771085E-16
4.048308E+03	1.368571E-14	1.750961E-16
4.050304E+03	1.356378E-14	1.732187E-16
4.052301E+03	1.344063E-14	1.713322E-16
4.054297E+03	1.332752E-14	1.695795E-16
4.056293E+03	1.322194E-14	1.679282E-16
4.058289E+03	1.310641E-14	1.661563E-16
4.060285E+03	1.300838E-14	1.646117E-16
4.062282E+03	1.292661E-14	1.632775E-16
4.064278E+03	1.284236E-14	1.619164E-16
4.066274E+03	1.275565E-14	1.605287E-16
4.068270E+03	1.267271E-14	1.591928E-16
4.070266E+03	1.260350E-14	1.580335E-16
4.072263E+03	1.254427E-14	1.570029E-16
4.074259E+03	1.247634E-14	1.558667E-16
4.076255E+03	1.239885E-14	1.546150E-16
4.078251E+03	1.233408E-14	1.535257E-16
4.080248E+03	1.227256E-14	1.524803E-16
4.082244E+03	1.221479E-14	1.514847E-16
4.084240E+03	1.215505E-14	1.504679E-16
4.086236E+03	1.208712E-14	1.493531E-16
4.088232E+03	1.201138E-14	1.481457E-16
4.090229E+03	1.193542E-14	1.469395E-16
4.092225E+03	1.187104E-14	1.458795E-16
4.094221E+03	1.180308E-14	1.447791E-16
4.096217E+03	1.174656E-14	1.438225E-16
4.098213E+03	1.168497E-14	1.428069E-16
4.100210E+03	1.162774E-14	1.418479E-16
4.102206E+03	1.157004E-14	1.408862E-16
4.104202E+03	1.149809E-14	1.397545E-16
4.106198E+03	1.142133E-14	1.385681E-16
4.108194E+03	1.136158E-14	1.375918E-16
4.110191E+03	1.130383E-14	1.366429E-16
4.112187E+03	1.124809E-14	1.357213E-16
4.114183E+03	1.121788E-14	1.351102E-16
4.116179E+03	1.118941E-14	1.345220E-16
4.118175E+03	1.116824E-14	1.340233E-16
4.120172E+03	1.116379E-14	1.337263E-16
4.122168E+03	1.115227E-14	1.333456E-16
4.124164E+03	1.114483E-14	1.330147E-16
4.126160E+03	1.114579E-14	1.327848E-16
4.128157E+03	1.115081E-14	1.326038E-16
4.130153E+03	1.116287E-14	1.325068E-16
4.132149E+03	1.118256E-14	1.325003E-16
4.134145E+03	1.120681E-14	1.325474E-16
4.136141E+03	1.122423E-14	1.325137E-16
4.138138E+03	1.124558E-14	1.325261E-16
4.140134E+03	1.126802E-14	1.325511E-16
4.142130E+03	1.129377E-14	1.326146E-16
4.144126E+03	1.134440E-14	1.329694E-16
4.146122E+03	1.139574E-14	1.333310E-16
4.148119E+03	1.143531E-14	1.335538E-16
4.150115E+03	1.148065E-14	1.338428E-16
4.152111E+03	1.153592E-14	1.342463E-16
4.154107E+03	1.159386E-14	1.346791E-16
4.156103E+03	1.165052E-14	1.350955E-16
4.158100E+03	1.172708E-14	1.357406E-16
4.160096E+03	1.179286E-14	1.362588E-16
4.162092E+03	1.186426E-14	1.368398E-16
4.164088E+03	1.195737E-14	1.376687E-16
4.166084E+03	1.204746E-14	1.384598E-16
4.168081E+03	1.212199E-14	1.390696E-16
4.170077E+03	1.219057E-14	1.396090E-16
4.172073E+03	1.226733E-14	1.402399E-16
4.174069E+03	1.235102E-14	1.409478E-16
4.176065E+03	1.243072E-14	1.416076E-16
4.178062E+03	1.249195E-14	1.420551E-16
4.180058E+03	1.255067E-14	1.424727E-16
4.182054E+03	1.259708E-14	1.427492E-16
4.184050E+03	1.263240E-14	1.428995E-16
