#wls	flux	fluxerr
1.596966E+03	1.060364E-17	1.869943E-19
1.636890E+03	1.070979E-17	1.885814E-19
1.676814E+03	1.074484E-17	1.889056E-19
1.716738E+03	1.070908E-17	1.879775E-19
1.756662E+03	1.059721E-17	1.857098E-19
1.796586E+03	1.039501E-17	1.818608E-19
1.836511E+03	1.008586E-17	1.761482E-19
1.876435E+03	9.653941E-18	1.683066E-19
1.916359E+03	9.091696E-18	1.582166E-19
1.956283E+03	8.406787E-18	1.460249E-19
1.996207E+03	7.636659E-18	1.323941E-19
2.036131E+03	6.863314E-18	1.187532E-19
2.076055E+03	6.201665E-18	1.070887E-19
2.115980E+03	5.774454E-18	9.950556E-20
2.155904E+03	5.665168E-18	9.741519E-20
2.195828E+03	5.903518E-18	1.012928E-19
2.235752E+03	6.465054E-18	1.106799E-19
2.275676E+03	7.289528E-18	1.245088E-19
2.315600E+03	8.304177E-18	1.415063E-19
2.355525E+03	9.440293E-18	1.604786E-19
2.395449E+03	1.064876E-17	1.805747E-19
2.435373E+03	1.190383E-17	2.013459E-19
2.475297E+03	1.319492E-17	2.226045E-19
2.515221E+03	1.452888E-17	2.444569E-19
2.555145E+03	1.592038E-17	2.671390E-19
2.595069E+03	1.738805E-17	2.909506E-19
2.634994E+03	1.896308E-17	3.163964E-19
2.674918E+03	2.067348E-17	3.439221E-19
2.714842E+03	2.255396E-17	3.740779E-19
2.754766E+03	2.464366E-17	4.074793E-19
2.794690E+03	2.699061E-17	4.448790E-19
2.834614E+03	2.964152E-17	4.869961E-19
2.874538E+03	3.265689E-17	5.347643E-19
2.914463E+03	3.610041E-17	5.891533E-19
2.954387E+03	4.003684E-17	6.511333E-19
2.994311E+03	4.455227E-17	7.220028E-19
3.004292E+03	4.577788E-17	7.411975E-19
3.014273E+03	4.704394E-17	7.610075E-19
3.024254E+03	4.835800E-17	7.815527E-19
3.034235E+03	4.971692E-17	8.027802E-19
3.044216E+03	5.112707E-17	8.247902E-19
3.054197E+03	5.260411E-17	8.478327E-19
3.064178E+03	5.414159E-17	8.718007E-19
3.074159E+03	5.573965E-17	8.966930E-19
3.084140E+03	5.739833E-17	9.225074E-19
3.094121E+03	5.912531E-17	9.493641E-19
3.104102E+03	6.091350E-17	9.771459E-19
3.114083E+03	6.276294E-17	1.005850E-18
3.124064E+03	6.467365E-17	1.035474E-18
3.134045E+03	6.665400E-17	1.066148E-18
3.144026E+03	6.869595E-17	1.097740E-18
3.154007E+03	7.079932E-17	1.130244E-18
3.163988E+03	7.296385E-17	1.163653E-18
3.173969E+03	7.519864E-17	1.198107E-18
3.183950E+03	7.749434E-17	1.233455E-18
3.193932E+03	7.985042E-17	1.269685E-18
3.203913E+03	8.227640E-17	1.306944E-18
3.213894E+03	8.476190E-17	1.345064E-18
3.223875E+03	8.730604E-17	1.384028E-18
3.233856E+03	8.990780E-17	1.423815E-18
3.243837E+03	9.257722E-17	1.464582E-18
3.253818E+03	9.530237E-17	1.506136E-18
3.263799E+03	9.808181E-17	1.548450E-18
3.273780E+03	1.009260E-16	1.591688E-18
3.283761E+03	1.038218E-16	1.635637E-18
3.293742E+03	1.067672E-16	1.680265E-18
3.303723E+03	1.097604E-16	1.725535E-18
3.313704E+03	1.128123E-16	1.771622E-18
3.323685E+03	1.159082E-16	1.818287E-18
3.333666E+03	1.190456E-16	1.865490E-18
3.343647E+03	1.222363E-16	1.913413E-18
3.353628E+03	1.254642E-16	1.961799E-18
3.363609E+03	1.287266E-16	2.010606E-18
3.373590E+03	1.320210E-16	2.059789E-18
3.383571E+03	1.353600E-16	2.109547E-18
3.393552E+03	1.387263E-16	2.159603E-18
3.403533E+03	1.421171E-16	2.209914E-18
3.413514E+03	1.455464E-16	2.260694E-18
3.423495E+03	1.489791E-16	2.311396E-18
3.433476E+03	1.524632E-16	2.362763E-18
3.443457E+03	1.559461E-16	2.413979E-18
3.453438E+03	1.594605E-16	2.465546E-18
3.463420E+03	1.629874E-16	2.517171E-18
3.473401E+03	1.665254E-16	2.568830E-18
3.483382E+03	1.700734E-16	2.620504E-18
3.493363E+03	1.736497E-16	2.672473E-18
3.503344E+03	1.772355E-16	2.724447E-18
3.513325E+03	1.808505E-16	2.776727E-18
3.523306E+03	1.844564E-16	2.828723E-18
3.533287E+03	1.880937E-16	2.881057E-18
3.543268E+03	1.917447E-16	2.933452E-18
3.553249E+03	1.954323E-16	2.986259E-18
3.563230E+03	1.991392E-16	3.039211E-18
3.573211E+03	2.028690E-16	3.092361E-18
3.583192E+03	2.066258E-16	3.145769E-18
3.593173E+03	2.104145E-16	3.199508E-18
3.603154E+03	2.142632E-16	3.254002E-18
3.613135E+03	2.181565E-16	3.309012E-18
3.623116E+03	2.221244E-16	3.364991E-18
3.633097E+03	2.261289E-16	3.421359E-18
3.643078E+03	2.302250E-16	3.478944E-18
3.653059E+03	2.343990E-16	3.537532E-18
3.663040E+03	2.386851E-16	3.597633E-18
3.673021E+03	2.430456E-16	3.658676E-18
3.683002E+03	2.475409E-16	3.721560E-18
3.692983E+03	2.521586E-16	3.786092E-18
3.702964E+03	2.569114E-16	3.852453E-18
3.712945E+03	2.618384E-16	3.921222E-18
3.722926E+03	2.669281E-16	3.992215E-18
3.732907E+03	2.721949E-16	4.065637E-18
3.742889E+03	2.776534E-16	4.141694E-18
3.752870E+03	2.833468E-16	4.221016E-18
3.762851E+03	2.892357E-16	4.303004E-18
3.772832E+03	2.953918E-16	4.388710E-18
3.782813E+03	3.018039E-16	4.477951E-18
3.792794E+03	3.085189E-16	4.571405E-18
3.802775E+03	3.154945E-16	4.668427E-18
3.812756E+03	3.228083E-16	4.770146E-18
3.822737E+03	3.304477E-16	4.876357E-18
3.832718E+03	3.384306E-16	4.987301E-18
3.842699E+03	3.468061E-16	5.103678E-18
3.852680E+03	3.555266E-16	5.224764E-18
3.862661E+03	3.646718E-16	5.351706E-18
3.872642E+03	3.742205E-16	5.484165E-18
3.882623E+03	3.841755E-16	5.622158E-18
3.892604E+03	3.945277E-16	5.765524E-18
3.902585E+03	4.052480E-16	5.913812E-18
3.912566E+03	4.163200E-16	6.066760E-18
3.922547E+03	4.276245E-16	6.222608E-18
3.932528E+03	4.390104E-16	6.379145E-18
3.942509E+03	4.504216E-16	6.535551E-18
3.952490E+03	4.616697E-16	6.689095E-18
3.962471E+03	4.726463E-16	6.838212E-18
3.972452E+03	4.831260E-16	6.979666E-18
3.982433E+03	4.930681E-16	7.112900E-18
3.992414E+03	5.022809E-16	7.235183E-18
4.002395E+03	5.107679E-16	7.346610E-18
4.012376E+03	5.184233E-16	7.445710E-18
4.022358E+03	5.251629E-16	7.531326E-18
4.032339E+03	5.310638E-16	7.604619E-18
4.042320E+03	5.360947E-16	7.665196E-18
4.052301E+03	5.403439E-16	7.714374E-18
4.062282E+03	5.437886E-16	7.751875E-18
4.072263E+03	5.465690E-16	7.779750E-18
4.082244E+03	5.487949E-16	7.799600E-18
4.092225E+03	5.506310E-16	7.813798E-18
4.102206E+03	5.521047E-16	7.822760E-18
4.112187E+03	5.533788E-16	7.828812E-18
4.122168E+03	5.546081E-16	7.834151E-18
4.132149E+03	5.557985E-16	7.838868E-18
4.142130E+03	5.571326E-16	7.845534E-18
4.152111E+03	5.585994E-16	7.853988E-18
4.162092E+03	5.603673E-16	7.866584E-18
4.172073E+03	5.624161E-16	7.883019E-18
4.182054E+03	5.648605E-16	7.904880E-18
4.192035E+03	5.678116E-16	7.933696E-18
4.202016E+03	5.712389E-16	7.969005E-18
4.211997E+03	5.752877E-16	8.012801E-18
4.221978E+03	5.799097E-16	8.064373E-18
4.231959E+03	5.851827E-16	8.124760E-18
4.241940E+03	5.911206E-16	8.194115E-18
4.251921E+03	5.977151E-16	8.272277E-18
4.261902E+03	6.049287E-16	8.358685E-18
4.271883E+03	6.126907E-16	8.452322E-18
4.281864E+03	6.209005E-16	8.551766E-18
4.291845E+03	6.294297E-16	8.655222E-18
4.301827E+03	6.381324E-16	8.760666E-18
4.311808E+03	6.468027E-16	8.865264E-18
4.321789E+03	6.553337E-16	8.967555E-18
4.331770E+03	6.636284E-16	9.066224E-18
4.341751E+03	6.714494E-16	9.158049E-18
4.351732E+03	6.787255E-16	9.242094E-18
4.361713E+03	6.853541E-16	9.316999E-18
4.371694E+03	6.912134E-16	9.381157E-18
4.381675E+03	6.964073E-16	9.436026E-18
4.391656E+03	7.009462E-16	9.481794E-18
4.401637E+03	7.051024E-16	9.522183E-18
4.411618E+03	7.091391E-16	9.560767E-18
4.421599E+03	7.133176E-16	9.601072E-18
4.431580E+03	7.178791E-16	9.646333E-18
4.441561E+03	7.229867E-16	9.698708E-18
4.451542E+03	7.288865E-16	9.761460E-18
4.461523E+03	7.357453E-16	9.836765E-18
4.471504E+03	7.437043E-16	9.926442E-18
4.481485E+03	7.528695E-16	1.003183E-17
4.491466E+03	7.632483E-16	1.015294E-17
4.501447E+03	7.748988E-16	1.029047E-17
4.511428E+03	7.877515E-16	1.044341E-17
4.521409E+03	8.015954E-16	1.060888E-17
4.531390E+03	8.162410E-16	1.078432E-17
4.541371E+03	8.313553E-16	1.096527E-17
4.551352E+03	8.465332E-16	1.114638E-17
4.561333E+03	8.612686E-16	1.132097E-17
4.571315E+03	8.752282E-16	1.148472E-17
4.581296E+03	8.877975E-16	1.162962E-17
4.591277E+03	8.987866E-16	1.175329E-17
4.601258E+03	9.077766E-16	1.185035E-17
4.611239E+03	9.146337E-16	1.191921E-17
4.621220E+03	9.192703E-16	1.195887E-17
4.631201E+03	9.216451E-16	1.196894E-17
4.641182E+03	9.219419E-16	1.195196E-17
4.651163E+03	9.202949E-16	1.190981E-17
4.661144E+03	9.170793E-16	1.184746E-17
4.671125E+03	9.124376E-16	1.176687E-17
4.681106E+03	9.066282E-16	1.167144E-17
4.691087E+03	9.000020E-16	1.156578E-17
4.701068E+03	8.925599E-16	1.144996E-17
4.711049E+03	8.846329E-16	1.132825E-17
4.721030E+03	8.762145E-16	1.120062E-17
4.731011E+03	8.674573E-16	1.106905E-17
4.740992E+03	8.583824E-16	1.093382E-17
4.750973E+03	8.491163E-16	1.079657E-17
4.760954E+03	8.397153E-16	1.065803E-17
4.770935E+03	8.301608E-16	1.051797E-17
4.780916E+03	8.205363E-16	1.037746E-17
4.790897E+03	8.108743E-16	1.023691E-17
4.800878E+03	8.011889E-16	1.009651E-17
4.810859E+03	7.916612E-16	9.958526E-18
4.820840E+03	7.824434E-16	9.824869E-18
4.830821E+03	7.738778E-16	9.699807E-18
4.840802E+03	7.663417E-16	9.588018E-18
4.850784E+03	7.602415E-16	9.494504E-18
4.860765E+03	7.561470E-16	9.426277E-18
4.870746E+03	7.545692E-16	9.389554E-18
4.880727E+03	7.561281E-16	9.391872E-18
4.890708E+03	7.613669E-16	9.439750E-18
4.900689E+03	7.707113E-16	9.538209E-18
4.910670E+03	7.845750E-16	9.692083E-18
4.920651E+03	8.031053E-16	9.902884E-18
4.930632E+03	8.263207E-16	1.017053E-17
4.940613E+03	8.538409E-16	1.049002E-17
4.950594E+03	8.850332E-16	1.085332E-17
4.960575E+03	9.188123E-16	1.124689E-17
4.970556E+03	9.536514E-16	1.165191E-17
4.980537E+03	9.878572E-16	1.204766E-17
4.990518E+03	1.019493E-15	1.241062E-17
5.000499E+03	1.046855E-15	1.272023E-17
5.010480E+03	1.068540E-15	1.295980E-17
5.020461E+03	1.083670E-15	1.311907E-17
5.030442E+03	1.092215E-15	1.319812E-17
5.040423E+03	1.094732E-15	1.320410E-17
5.050404E+03	1.092525E-15	1.315314E-17
5.060385E+03	1.087231E-15	1.306521E-17
5.070366E+03	1.080558E-15	1.296100E-17
5.080347E+03	1.074186E-15	1.286074E-17
5.090328E+03	1.069592E-15	1.278203E-17
5.100309E+03	1.067783E-15	1.273679E-17
5.110290E+03	1.069246E-15	1.273063E-17
5.120271E+03	1.074171E-15	1.276560E-17
5.130253E+03	1.082307E-15	1.283848E-17
5.140234E+03	1.093046E-15	1.294186E-17
5.150215E+03	1.105718E-15	1.306767E-17
5.160196E+03	1.119440E-15	1.320537E-17
5.170177E+03	1.133485E-15	1.334633E-17
5.180158E+03	1.147082E-15	1.348146E-17
5.190139E+03	1.159745E-15	1.360511E-17
5.200120E+03	1.171087E-15	1.371282E-17
5.210101E+03	1.180812E-15	1.380119E-17
5.220082E+03	1.188892E-15	1.387002E-17
5.230063E+03	1.195249E-15	1.391852E-17
5.240044E+03	1.200009E-15	1.394826E-17
5.250025E+03	1.203255E-15	1.396031E-17
5.260006E+03	1.205011E-15	1.395504E-17
5.269987E+03	1.205446E-15	1.393453E-17
5.279968E+03	1.204590E-15	1.389917E-17
5.289949E+03	1.202619E-15	1.385112E-17
5.299930E+03	1.199656E-15	1.379183E-17
5.309911E+03	1.195776E-15	1.372224E-17
5.319892E+03	1.191234E-15	1.364533E-17
5.329873E+03	1.186175E-15	1.356280E-17
5.339854E+03	1.180988E-15	1.347912E-17
5.349835E+03	1.175718E-15	1.339482E-17
5.359816E+03	1.170830E-15	1.331519E-17
5.369797E+03	1.166335E-15	1.324033E-17
5.379778E+03	1.162639E-15	1.317482E-17
5.389759E+03	1.159785E-15	1.311911E-17
5.399740E+03	1.158053E-15	1.307631E-17
5.409722E+03	1.157650E-15	1.304868E-17
5.419703E+03	1.159084E-15	1.304186E-17
5.429684E+03	1.162619E-15	1.305871E-17
5.439665E+03	1.169020E-15	1.310770E-17
5.449646E+03	1.178714E-15	1.319344E-17
5.459627E+03	1.192177E-15	1.332105E-17
5.469608E+03	1.209815E-15	1.349487E-17
5.479589E+03	1.231301E-15	1.371101E-17
5.489570E+03	1.256134E-15	1.396369E-17
5.499551E+03	1.282710E-15	1.423493E-17
5.509532E+03	1.309089E-15	1.450314E-17
5.519513E+03	1.332996E-15	1.474319E-17
5.529494E+03	1.352100E-15	1.492948E-17
5.539475E+03	1.364510E-15	1.504143E-17
5.549456E+03	1.368763E-15	1.506333E-17
5.559437E+03	1.363984E-15	1.498600E-17
5.569418E+03	1.350158E-15	1.480978E-17
5.579399E+03	1.327728E-15	1.453998E-17
5.589380E+03	1.297826E-15	1.418946E-17
5.599361E+03	1.261500E-15	1.377003E-17
5.609342E+03	1.219974E-15	1.329535E-17
5.619323E+03	1.174476E-15	1.277905E-17
5.629304E+03	1.125746E-15	1.222937E-17
5.639285E+03	1.074572E-15	1.165498E-17
5.649266E+03	1.021525E-15	1.106220E-17
5.659247E+03	9.673551E-16	1.045920E-17
5.669228E+03	9.129181E-16	9.855261E-18
5.679210E+03	8.592973E-16	9.262053E-18
5.689191E+03	8.077267E-16	8.692797E-18
5.699172E+03	7.596609E-16	8.163003E-18
5.709153E+03	7.164975E-16	7.687476E-18
5.719134E+03	6.794663E-16	7.279135E-18
5.729115E+03	6.497019E-16	6.949807E-18
5.739096E+03	6.279298E-16	6.706877E-18
5.749077E+03	6.147382E-16	6.556228E-18
5.759058E+03	6.106001E-16	6.502486E-18
5.769039E+03	6.156937E-16	6.547115E-18
5.779020E+03	6.301861E-16	6.691461E-18
5.789001E+03	6.540291E-16	6.934582E-18
5.798982E+03	6.870832E-16	7.274578E-18
5.808963E+03	7.287498E-16	7.704713E-18
5.818944E+03	7.781267E-16	8.215089E-18
5.828925E+03	8.337499E-16	8.789942E-18
5.838906E+03	8.935249E-16	9.406967E-18
5.848887E+03	9.549371E-16	1.003957E-17
5.858868E+03	1.015053E-15	1.065690E-17
5.868849E+03	1.070795E-15	1.122678E-17
5.878830E+03	1.119211E-15	1.171850E-17
5.888811E+03	1.157687E-15	1.210508E-17
5.898792E+03	1.184387E-15	1.236775E-17
5.908773E+03	1.198193E-15	1.249539E-17
5.918754E+03	1.198847E-15	1.248585E-17
5.928735E+03	1.186876E-15	1.234514E-17
5.938716E+03	1.163795E-15	1.208951E-17
5.948697E+03	1.131455E-15	1.173860E-17
5.958679E+03	1.092322E-15	1.131831E-17
5.968660E+03	1.048887E-15	1.085469E-17
5.978641E+03	1.003774E-15	1.037500E-17
5.988622E+03	9.591028E-16	9.901169E-18
5.998603E+03	9.168056E-16	9.453084E-18
6.008584E+03	8.783226E-16	9.045472E-18
6.018565E+03	8.446795E-16	8.688727E-18
6.028546E+03	8.165323E-16	8.389397E-18
6.038527E+03	7.941861E-16	8.150405E-18
6.048508E+03	7.778582E-16	7.973762E-18
6.058489E+03	7.674109E-16	7.857841E-18
6.068470E+03	7.627361E-16	7.801332E-18
6.078451E+03	7.636250E-16	7.801902E-18
6.088432E+03	7.698153E-16	7.856693E-18
6.098413E+03	7.812261E-16	7.964709E-18
6.108394E+03	7.976868E-16	8.124053E-18
6.118375E+03	8.193108E-16	8.335728E-18
6.128356E+03	8.463527E-16	8.602175E-18
6.138337E+03	8.792575E-16	8.927762E-18
6.148318E+03	9.186384E-16	9.318555E-18
6.158299E+03	9.652261E-16	9.781791E-18
6.168280E+03	1.019718E-15	1.032436E-17
6.178261E+03	1.082893E-15	1.095393E-17
6.188242E+03	1.155039E-15	1.167324E-17
6.198223E+03	1.236247E-15	1.248299E-17
6.208204E+03	1.326032E-15	1.337811E-17
6.218185E+03	1.423268E-15	1.434709E-17
6.228166E+03	1.526105E-15	1.537116E-17
6.238148E+03	1.631943E-15	1.642410E-17
6.248129E+03	1.737380E-15	1.747172E-17
6.258110E+03	1.838778E-15	1.847752E-17
6.268091E+03	1.931777E-15	1.939789E-17
6.278072E+03	2.012376E-15	2.019294E-17
6.288053E+03	2.076881E-15	2.082597E-17
6.298034E+03	2.122519E-15	2.126958E-17
6.308015E+03	2.147250E-15	2.150372E-17
6.317996E+03	2.150612E-15	2.152423E-17
6.327977E+03	2.133813E-15	2.134358E-17
6.337958E+03	2.098981E-15	2.098339E-17
6.347939E+03	2.049436E-15	2.047712E-17
6.357920E+03	1.989078E-15	1.986393E-17
6.367901E+03	1.922422E-15	1.918900E-17
6.377882E+03	1.853265E-15	1.849026E-17
6.387863E+03	1.785123E-15	1.780277E-17
6.397844E+03	1.720617E-15	1.715258E-17
6.407825E+03	1.661110E-15	1.655319E-17
6.417806E+03	1.607404E-15	1.601250E-17
6.427787E+03	1.559435E-15	1.552974E-17
6.437768E+03	1.516536E-15	1.509822E-17
6.447749E+03	1.477622E-15	1.470704E-17
6.457730E+03	1.441361E-15	1.434289E-17
6.467711E+03	1.406262E-15	1.399090E-17
6.477692E+03	1.371218E-15	1.364001E-17
6.487673E+03	1.335159E-15	1.327956E-17
6.497654E+03	1.297482E-15	1.290352E-17
6.507635E+03	1.258373E-15	1.251370E-17
6.517617E+03	1.218182E-15	1.211355E-17
6.527598E+03	1.177821E-15	1.171209E-17
6.537579E+03	1.137988E-15	1.131621E-17
6.547560E+03	1.099705E-15	1.093606E-17
6.557541E+03	1.063649E-15	1.057831E-17
6.567522E+03	1.030487E-15	1.024958E-17
6.577503E+03	1.000569E-15	9.953322E-18
6.587484E+03	9.737384E-16	9.687961E-18
6.597465E+03	9.497446E-16	9.450994E-18
6.607446E+03	9.280540E-16	9.237102E-18
6.617427E+03	9.079869E-16	9.039509E-18
6.627408E+03	8.887983E-16	8.850792E-18
6.637389E+03	8.697535E-16	8.663619E-18
6.647370E+03	8.501911E-16	8.471382E-18
6.657351E+03	8.295862E-16	8.268828E-18
6.667332E+03	8.075854E-16	8.052405E-18
6.677313E+03	7.840197E-16	7.820391E-18
6.687294E+03	7.589003E-16	7.572862E-18
6.697275E+03	7.323983E-16	7.311489E-18
6.707256E+03	7.048197E-16	7.039288E-18
6.717237E+03	6.765741E-16	6.760318E-18
6.727218E+03	6.481005E-16	6.478939E-18
6.737199E+03	6.199998E-16	6.201136E-18
6.747180E+03	5.927520E-16	5.931700E-18
6.757161E+03	5.668179E-16	5.675239E-18
6.767142E+03	5.427087E-16	5.436880E-18
6.777123E+03	5.207469E-16	5.219869E-18
6.787105E+03	5.011748E-16	5.026660E-18
6.797086E+03	4.842527E-16	4.859897E-18
6.807067E+03	4.700857E-16	4.720671E-18
6.817048E+03	4.587488E-16	4.609781E-18
6.827029E+03	4.503984E-16	4.528845E-18
6.837010E+03	4.450977E-16	4.478554E-18
6.846991E+03	4.430654E-16	4.461167E-18
6.856972E+03	4.444604E-16	4.478350E-18
6.866953E+03	4.496058E-16	4.533432E-18
6.876934E+03	4.587571E-16	4.629074E-18
6.886915E+03	4.723097E-16	4.769359E-18
6.896896E+03	4.905378E-16	4.957158E-18
6.906877E+03	5.137637E-16	5.195846E-18
6.916858E+03	5.422436E-16	5.488138E-18
6.926839E+03	5.760236E-16	5.834634E-18
6.936820E+03	6.150944E-16	6.235377E-18
6.946801E+03	6.592503E-16	6.688420E-18
6.956782E+03	7.079079E-16	7.187980E-18
6.966763E+03	7.603181E-16	7.726570E-18
6.976744E+03	8.154018E-16	8.293324E-18
6.986725E+03	8.718391E-16	8.874892E-18
6.996706E+03	9.281547E-16	9.456292E-18
7.006687E+03	9.828376E-16	1.002213E-17
7.016668E+03	1.034542E-15	1.055863E-17
7.026649E+03	1.081962E-15	1.105241E-17
7.036630E+03	1.124325E-15	1.149543E-17
7.046611E+03	1.161119E-15	1.188235E-17
7.056592E+03	1.192478E-15	1.221437E-17
7.066574E+03	1.218719E-15	1.249462E-17
7.076555E+03	1.240583E-15	1.273054E-17
7.086536E+03	1.259100E-15	1.293261E-17
7.096517E+03	1.275519E-15	1.311355E-17
7.106498E+03	1.291158E-15	1.328689E-17
7.116479E+03	1.307676E-15	1.346968E-17
7.126460E+03	1.326539E-15	1.367707E-17
7.136441E+03	1.349211E-15	1.392423E-17
7.146422E+03	1.377373E-15	1.422866E-17
7.156403E+03	1.412257E-15	1.460324E-17
7.166384E+03	1.455169E-15	1.506173E-17
7.176365E+03	1.507149E-15	1.561513E-17
7.186346E+03	1.568575E-15	1.626765E-17
7.196327E+03	1.639620E-15	1.702139E-17
7.206308E+03	1.719745E-15	1.787107E-17
7.216289E+03	1.807800E-15	1.880500E-17
7.226270E+03	1.901470E-15	1.979934E-17
7.236251E+03	1.997902E-15	2.082457E-17
7.246232E+03	2.093290E-15	2.184105E-17
7.256213E+03	2.182975E-15	2.280013E-17
7.266194E+03	2.262295E-15	2.365287E-17
7.276175E+03	2.326167E-15	2.434576E-17
7.286156E+03	2.370010E-15	2.483032E-17
7.296137E+03	2.390759E-15	2.507375E-17
7.306118E+03	2.386190E-15	2.505195E-17
7.316099E+03	2.356389E-15	2.476501E-17
7.326080E+03	2.302508E-15	2.422418E-17
7.336061E+03	2.227606E-15	2.346089E-17
7.346043E+03	2.135621E-15	2.251594E-17
7.356024E+03	2.031035E-15	2.143606E-17
7.366005E+03	1.918396E-15	2.026883E-17
7.375986E+03	1.801905E-15	1.905844E-17
7.385967E+03	1.685152E-15	1.784270E-17
7.395948E+03	1.570871E-15	1.665062E-17
7.405929E+03	1.461349E-15	1.550648E-17
7.415910E+03	1.357750E-15	1.442283E-17
7.425891E+03	1.261046E-15	1.341018E-17
7.435872E+03	1.171410E-15	1.247060E-17
7.445853E+03	1.088969E-15	1.160567E-17
7.455834E+03	1.013566E-15	1.081396E-17
7.465815E+03	9.449470E-16	1.009300E-17
7.475796E+03	8.828207E-16	9.439887E-18
7.485777E+03	8.268426E-16	8.851167E-18
7.495758E+03	7.768608E-16	8.325419E-18
7.505739E+03	7.325387E-16	7.859240E-18
7.515720E+03	6.937378E-16	7.451338E-18
7.525701E+03	6.603004E-16	7.100212E-18
7.535682E+03	6.320996E-16	6.804687E-18
7.545663E+03	6.090362E-16	6.563879E-18
7.555644E+03	5.910276E-16	6.377084E-18
7.565625E+03	5.780091E-16	6.243786E-18
7.575606E+03	5.698829E-16	6.163112E-18
7.585587E+03	5.666686E-16	6.135456E-18
7.595568E+03	5.682253E-16	6.159478E-18
7.605549E+03	5.745137E-16	6.234930E-18
7.615530E+03	5.854340E-16	6.360911E-18
7.625512E+03	6.008491E-16	6.536110E-18
7.635493E+03	6.205246E-16	6.758154E-18
7.645474E+03	6.442704E-16	7.025138E-18
7.655455E+03	6.716217E-16	7.332155E-18
7.665436E+03	7.021054E-16	7.674182E-18
7.675417E+03	7.350476E-16	8.043977E-18
7.685398E+03	7.695930E-16	8.432276E-18
7.695379E+03	8.047004E-16	8.827734E-18
7.705360E+03	8.390978E-16	9.216410E-18
7.715341E+03	8.715410E-16	9.584604E-18
7.725322E+03	9.004785E-16	9.915166E-18
7.735303E+03	9.245451E-16	1.019291E-17
7.745284E+03	9.424488E-16	1.040338E-17
