#wls	flux	fluxerr
1.596966E+03	3.067268E-18	1.806144E-19
1.636890E+03	3.136662E-18	1.842733E-19
1.676814E+03	3.186893E-18	1.867789E-19
1.716738E+03	3.216599E-18	1.880588E-19
1.756662E+03	3.223771E-18	1.880042E-19
1.796586E+03	3.202994E-18	1.863098E-19
1.836511E+03	3.147824E-18	1.826142E-19
1.876435E+03	3.052343E-18	1.765916E-19
1.916359E+03	2.910840E-18	1.679323E-19
1.956283E+03	2.724704E-18	1.567404E-19
1.996207E+03	2.505140E-18	1.436827E-19
2.036131E+03	2.277886E-18	1.302505E-19
2.076055E+03	2.082259E-18	1.186919E-19
2.115980E+03	1.959760E-18	1.113501E-19
2.155904E+03	1.942691E-18	1.100156E-19
2.195828E+03	2.044624E-18	1.153952E-19
2.235752E+03	2.259490E-18	1.270773E-19
2.275676E+03	2.569304E-18	1.439844E-19
2.315600E+03	2.948245E-18	1.646126E-19
2.355525E+03	3.373259E-18	1.876315E-19
2.395449E+03	3.824644E-18	2.119138E-19
2.435373E+03	4.291970E-18	2.368599E-19
2.475297E+03	4.768063E-18	2.620577E-19
2.515221E+03	5.253231E-18	2.875107E-19
2.555145E+03	5.747222E-18	3.131909E-19
2.595069E+03	6.255298E-18	3.393695E-19
2.634994E+03	6.780820E-18	3.662095E-19
2.674918E+03	7.327371E-18	3.938817E-19
2.714842E+03	7.902741E-18	4.227777E-19
2.754766E+03	8.511266E-18	4.530963E-19
2.794690E+03	9.158760E-18	4.851087E-19
2.834614E+03	9.849562E-18	5.190008E-19
2.874538E+03	1.059350E-17	5.552402E-19
2.914463E+03	1.139578E-17	5.940400E-19
2.954387E+03	1.226370E-17	6.357149E-19
2.994311E+03	1.320513E-17	6.805973E-19
3.004292E+03	1.345175E-17	6.922980E-19
3.014273E+03	1.370603E-17	7.043505E-19
3.024254E+03	1.396327E-17	7.165111E-19
3.034235E+03	1.422905E-17	7.290655E-19
3.044216E+03	1.449997E-17	7.418367E-19
3.054197E+03	1.478342E-17	7.552008E-19
3.064178E+03	1.507391E-17	7.688753E-19
3.074159E+03	1.537656E-17	7.831183E-19
3.084140E+03	1.568573E-17	7.976405E-19
3.094121E+03	1.600681E-17	8.127129E-19
3.104102E+03	1.633399E-17	8.280384E-19
3.114083E+03	1.667292E-17	8.439008E-19
3.124064E+03	1.701761E-17	8.599946E-19
3.134045E+03	1.737400E-17	8.766170E-19
3.144026E+03	1.773588E-17	8.934527E-19
3.154007E+03	1.810947E-17	9.108130E-19
3.163988E+03	1.848837E-17	9.283723E-19
3.173969E+03	1.887909E-17	9.464560E-19
3.183950E+03	1.927498E-17	9.647277E-19
3.193932E+03	1.968287E-17	9.835272E-19
3.203913E+03	2.009587E-17	1.002507E-18
3.213894E+03	2.052113E-17	1.022022E-18
3.223875E+03	2.095149E-17	1.041711E-18
3.233856E+03	2.139443E-17	1.061946E-18
3.243837E+03	2.184251E-17	1.082354E-18
3.253818E+03	2.230358E-17	1.103320E-18
3.263799E+03	2.276989E-17	1.124459E-18
3.273780E+03	2.324964E-17	1.146173E-18
3.283761E+03	2.373479E-17	1.168063E-18
3.293742E+03	2.423390E-17	1.190546E-18
3.303723E+03	2.473862E-17	1.213210E-18
3.313704E+03	2.525788E-17	1.236489E-18
3.323685E+03	2.578300E-17	1.259954E-18
3.333666E+03	2.632330E-17	1.284060E-18
3.343647E+03	2.686975E-17	1.308360E-18
3.353628E+03	2.743210E-17	1.333328E-18
3.363609E+03	2.800092E-17	1.358500E-18
3.373590E+03	2.858640E-17	1.384367E-18
3.383571E+03	2.917871E-17	1.410451E-18
3.393552E+03	2.978846E-17	1.437259E-18
3.403533E+03	3.040549E-17	1.464297E-18
3.413514E+03	3.104082E-17	1.492093E-18
3.423495E+03	3.168384E-17	1.520131E-18
3.433476E+03	3.234609E-17	1.548962E-18
3.443457E+03	3.301647E-17	1.578048E-18
3.453438E+03	3.370703E-17	1.607963E-18
3.463420E+03	3.440618E-17	1.638148E-18
3.473401E+03	3.512651E-17	1.669197E-18
3.483382E+03	3.585595E-17	1.700533E-18
3.493363E+03	3.660758E-17	1.732770E-18
3.503344E+03	3.736882E-17	1.765307E-18
3.513325E+03	3.815327E-17	1.798783E-18
3.523306E+03	3.894787E-17	1.832575E-18
3.533287E+03	3.976675E-17	1.867344E-18
3.543268E+03	4.059628E-17	1.902442E-18
3.553249E+03	4.145117E-17	1.938553E-18
3.563230E+03	4.231720E-17	1.975007E-18
3.573211E+03	4.320969E-17	2.012512E-18
3.583192E+03	4.411379E-17	2.050370E-18
3.593173E+03	4.504541E-17	2.089315E-18
3.603154E+03	4.598906E-17	2.128619E-18
3.613135E+03	4.696136E-17	2.169048E-18
3.623116E+03	4.794604E-17	2.209841E-18
3.633097E+03	4.896039E-17	2.251789E-18
3.643078E+03	4.999634E-17	2.294513E-18
3.653059E+03	5.104521E-17	2.337607E-18
3.663040E+03	5.212517E-17	2.381896E-18
3.673021E+03	5.321823E-17	2.426551E-18
3.683002E+03	5.434332E-17	2.472427E-18
3.692983E+03	5.548156E-17	2.518657E-18
3.702964E+03	5.665271E-17	2.566131E-18
3.712945E+03	5.783697E-17	2.613943E-18
3.722926E+03	5.905484E-17	2.663012E-18
3.732907E+03	6.028571E-17	2.712401E-18
3.742889E+03	6.155081E-17	2.763056E-18
3.752870E+03	6.282861E-17	2.814002E-18
3.762851E+03	6.414117E-17	2.866220E-18
3.772832E+03	6.546593E-17	2.918692E-18
3.782813E+03	6.682586E-17	2.972435E-18
3.792794E+03	6.819738E-17	3.026391E-18
3.802775E+03	6.960437E-17	3.081612E-18
3.812756E+03	7.102215E-17	3.136997E-18
3.822737E+03	7.247556E-17	3.193634E-18
3.832718E+03	7.393891E-17	3.250383E-18
3.842699E+03	7.543793E-17	3.308367E-18
3.852680E+03	7.694589E-17	3.366405E-18
3.862661E+03	7.848953E-17	3.425660E-18
3.872642E+03	8.004104E-17	3.484909E-18
3.882623E+03	8.162825E-17	3.545357E-18
3.892604E+03	8.322225E-17	3.605738E-18
3.902585E+03	8.485201E-17	3.667302E-18
3.912566E+03	8.648749E-17	3.728741E-18
3.922547E+03	8.815890E-17	3.791351E-18
3.932528E+03	8.983513E-17	3.853785E-18
3.942509E+03	9.154761E-17	3.917386E-18
3.952490E+03	9.326414E-17	3.980766E-18
3.962471E+03	9.501750E-17	4.045318E-18
3.972452E+03	9.677444E-17	4.109618E-18
3.982433E+03	9.856901E-17	4.175106E-18
3.992414E+03	1.003669E-16	4.240321E-18
4.002395E+03	1.022038E-16	4.306756E-18
4.012376E+03	1.040439E-16	4.372906E-18
4.022358E+03	1.059245E-16	4.440322E-18
4.032339E+03	1.078088E-16	4.507457E-18
4.042320E+03	1.097353E-16	4.575910E-18
4.052301E+03	1.116661E-16	4.644094E-18
4.062282E+03	1.136411E-16	4.713659E-18
4.072263E+03	1.156211E-16	4.782972E-18
4.082244E+03	1.176476E-16	4.853733E-18
4.092225E+03	1.196797E-16	4.924256E-18
4.102206E+03	1.217603E-16	4.996291E-18
4.112187E+03	1.238472E-16	5.068095E-18
4.122168E+03	1.259844E-16	5.141461E-18
4.132149E+03	1.281281E-16	5.214591E-18
4.142130E+03	1.303235E-16	5.289316E-18
4.152111E+03	1.325250E-16	5.363770E-18
4.162092E+03	1.347790E-16	5.439823E-18
4.172073E+03	1.370377E-16	5.515542E-18
4.182054E+03	1.393488E-16	5.592826E-18
4.192035E+03	1.416623E-16	5.669667E-18
4.202016E+03	1.440268E-16	5.747996E-18
4.211997E+03	1.463901E-16	5.825724E-18
4.221978E+03	1.488016E-16	5.904811E-18
4.231959E+03	1.512069E-16	5.983081E-18
4.241940E+03	1.536290E-16	6.061450E-18
4.251921E+03	1.560923E-16	6.140872E-18
4.261902E+03	1.585385E-16	6.219042E-18
4.271883E+03	1.610190E-16	6.297982E-18
4.281864E+03	1.634728E-16	6.375300E-18
4.291845E+03	1.659523E-16	6.453040E-18
4.301827E+03	1.683937E-16	6.528722E-18
4.311808E+03	1.708501E-16	6.604412E-18
4.321789E+03	1.732551E-16	6.677548E-18
4.331770E+03	1.756625E-16	6.750214E-18
4.341751E+03	1.780033E-16	6.819764E-18
4.351732E+03	1.803319E-16	6.888308E-18
4.361713E+03	1.825768E-16	6.953120E-18
4.371694E+03	1.847606E-16	7.015090E-18
4.381675E+03	1.869072E-16	7.075145E-18
4.391656E+03	1.889456E-16	7.130622E-18
4.401637E+03	1.909405E-16	7.183993E-18
4.411618E+03	1.928234E-16	7.232705E-18
4.421599E+03	1.946606E-16	7.279274E-18
4.431580E+03	1.963824E-16	7.321120E-18
4.441561E+03	1.980564E-16	7.360800E-18
4.451542E+03	1.996119E-16	7.395712E-18
4.461523E+03	2.010827E-16	7.427145E-18
4.471504E+03	2.025038E-16	7.456414E-18
4.481485E+03	2.038034E-16	7.480904E-18
4.491466E+03	2.050532E-16	7.503274E-18
4.501447E+03	2.061809E-16	7.520912E-18
4.511428E+03	2.072596E-16	7.536512E-18
4.521409E+03	2.082173E-16	7.547477E-18
4.531390E+03	2.090914E-16	7.555207E-18
4.541371E+03	2.099205E-16	7.561118E-18
4.551352E+03	2.106330E-16	7.562649E-18
4.561333E+03	2.113053E-16	7.562579E-18
4.571315E+03	2.118659E-16	7.558372E-18
4.581296E+03	2.123929E-16	7.552836E-18
4.591277E+03	2.128151E-16	7.543466E-18
4.601258E+03	2.131742E-16	7.531767E-18
4.611239E+03	2.135124E-16	7.519246E-18
4.621220E+03	2.137595E-16	7.503447E-18
4.631201E+03	2.139962E-16	7.487221E-18
4.641182E+03	2.141526E-16	7.468139E-18
4.651163E+03	2.142723E-16	7.447743E-18
4.661144E+03	2.143994E-16	7.427568E-18
4.671125E+03	2.144645E-16	7.405222E-18
4.681106E+03	2.145497E-16	7.383546E-18
4.691087E+03	2.145859E-16	7.360166E-18
4.701068E+03	2.146175E-16	7.336613E-18
4.711049E+03	2.146888E-16	7.314402E-18
4.721030E+03	2.147306E-16	7.291168E-18
4.731011E+03	2.147871E-16	7.268415E-18
4.740992E+03	2.149022E-16	7.247622E-18
4.750973E+03	2.150063E-16	7.226427E-18
4.760954E+03	2.151808E-16	7.207560E-18
4.770935E+03	2.153553E-16	7.188650E-18
4.780916E+03	2.155728E-16	7.171127E-18
4.790897E+03	2.158761E-16	7.156392E-18
4.800878E+03	2.161936E-16	7.142054E-18
4.810859E+03	2.165673E-16	7.129488E-18
4.820840E+03	2.170389E-16	7.120045E-18
4.830821E+03	2.175352E-16	7.111302E-18
4.840802E+03	2.181355E-16	7.105827E-18
4.850784E+03	2.187653E-16	7.101172E-18
4.860765E+03	2.194646E-16	7.098620E-18
4.870746E+03	2.202735E-16	7.099439E-18
4.880727E+03	2.211154E-16	7.101131E-18
4.890708E+03	2.220291E-16	7.104929E-18
4.900689E+03	2.230536E-16	7.112055E-18
4.910670E+03	2.241100E-16	7.119961E-18
4.920651E+03	2.252361E-16	7.129834E-18
4.930632E+03	2.264698E-16	7.142851E-18
4.940613E+03	2.277297E-16	7.156412E-18
4.950594E+03	2.290526E-16	7.171663E-18
4.960575E+03	2.304757E-16	7.189750E-18
4.970556E+03	2.319148E-16	7.208016E-18
4.980537E+03	2.334059E-16	7.227575E-18
4.990518E+03	2.349860E-16	7.249549E-18
5.000499E+03	2.365676E-16	7.271227E-18
5.010480E+03	2.381866E-16	7.293705E-18
5.020461E+03	2.398795E-16	7.318087E-18
5.030442E+03	2.415564E-16	7.341615E-18
5.040423E+03	2.432529E-16	7.365376E-18
5.050404E+03	2.449624E-16	7.389173E-18
5.060385E+03	2.467218E-16	7.414102E-18
5.070366E+03	2.484376E-16	7.437360E-18
5.080347E+03	2.501462E-16	7.460042E-18
5.090328E+03	2.518845E-16	7.483258E-18
5.100309E+03	2.535576E-16	7.504185E-18
5.110290E+03	2.552022E-16	7.523936E-18
5.120271E+03	2.568567E-16	7.543649E-18
5.130253E+03	2.584243E-16	7.560496E-18
5.140234E+03	2.599435E-16	7.575627E-18
5.150215E+03	2.614080E-16	7.588882E-18
5.160196E+03	2.628582E-16	7.601451E-18
5.170177E+03	2.641964E-16	7.610532E-18
5.180158E+03	2.654637E-16	7.617343E-18
5.190139E+03	2.666556E-16	7.621784E-18
5.200120E+03	2.678152E-16	7.625111E-18
5.210101E+03	2.688452E-16	7.624583E-18
5.220082E+03	2.697899E-16	7.621496E-18
5.230063E+03	2.706945E-16	7.617158E-18
5.240044E+03	2.714630E-16	7.608890E-18
5.250025E+03	2.721415E-16	7.598037E-18
5.260006E+03	2.727300E-16	7.584628E-18
5.269987E+03	2.732768E-16	7.570036E-18
5.279968E+03	2.736866E-16	7.551654E-18
5.289949E+03	2.740089E-16	7.530886E-18
5.299930E+03	2.742452E-16	7.507809E-18
5.309911E+03	2.743975E-16	7.482510E-18
5.319892E+03	2.745161E-16	7.456390E-18
5.329873E+03	2.745073E-16	7.426925E-18
5.339854E+03	2.744216E-16	7.395522E-18
5.349835E+03	2.742614E-16	7.362278E-18
5.359816E+03	2.740773E-16	7.328571E-18
5.369797E+03	2.737753E-16	7.291910E-18
5.379778E+03	2.734054E-16	7.253665E-18
5.389759E+03	2.729696E-16	7.213910E-18
5.399740E+03	2.725169E-16	7.173965E-18
5.409722E+03	2.719528E-16	7.131357E-18
5.419703E+03	2.713258E-16	7.087394E-18
5.429684E+03	2.706363E-16	7.042107E-18
5.439665E+03	2.698840E-16	6.995514E-18
5.449646E+03	2.691157E-16	6.948845E-18
5.459627E+03	2.682359E-16	6.899650E-18
5.469608E+03	2.672906E-16	6.849146E-18
5.479589E+03	2.662781E-16	6.797311E-18
5.489570E+03	2.651983E-16	6.744164E-18
5.499551E+03	2.641034E-16	6.691038E-18
5.509532E+03	2.629070E-16	6.635756E-18
5.519513E+03	2.616621E-16	6.579668E-18
5.529494E+03	2.603749E-16	6.522941E-18
5.539475E+03	2.590517E-16	6.465735E-18
5.549456E+03	2.576987E-16	6.408211E-18
5.559437E+03	2.563673E-16	6.351644E-18
5.569418E+03	2.549740E-16	6.293962E-18
5.579399E+03	2.535707E-16	6.236452E-18
5.589380E+03	2.521646E-16	6.179287E-18
5.599361E+03	2.507629E-16	6.122635E-18
5.609342E+03	2.493728E-16	6.066671E-18
5.619323E+03	2.480454E-16	6.012622E-18
5.629304E+03	2.467011E-16	5.958544E-18
5.639285E+03	2.453912E-16	5.905672E-18
5.649266E+03	2.441233E-16	5.854173E-18
5.659247E+03	2.429048E-16	5.804210E-18
5.669228E+03	2.417430E-16	5.755937E-18
5.679210E+03	2.406447E-16	5.709503E-18
5.689191E+03	2.396587E-16	5.666036E-18
5.699172E+03	2.387071E-16	5.623671E-18
5.709153E+03	2.378378E-16	5.583522E-18
5.719134E+03	2.370562E-16	5.545691E-18
5.729115E+03	2.363672E-16	5.510269E-18
5.739096E+03	2.357752E-16	5.477329E-18
5.749077E+03	2.352840E-16	5.446937E-18
5.759058E+03	2.348970E-16	5.419144E-18
5.769039E+03	2.346582E-16	5.394937E-18
5.779020E+03	2.344881E-16	5.372454E-18
5.789001E+03	2.344298E-16	5.352666E-18
5.798982E+03	2.344855E-16	5.335593E-18
5.808963E+03	2.346570E-16	5.321250E-18
5.818944E+03	2.349460E-16	5.309647E-18
5.828925E+03	2.353544E-16	5.300801E-18
5.838906E+03	2.358841E-16	5.294728E-18
5.848887E+03	2.365374E-16	5.291450E-18
5.858868E+03	2.373583E-16	5.291926E-18
5.868849E+03	2.382671E-16	5.294344E-18
5.878830E+03	2.393087E-16	5.299684E-18
5.888811E+03	2.404874E-16	5.308013E-18
5.898792E+03	2.418082E-16	5.319411E-18
5.908773E+03	2.432768E-16	5.333976E-18
5.918754E+03	2.448997E-16	5.351822E-18
5.928735E+03	2.466841E-16	5.373077E-18
5.938716E+03	2.486381E-16	5.397883E-18
5.948697E+03	2.507703E-16	5.426399E-18
5.958679E+03	2.530900E-16	5.458791E-18
5.968660E+03	2.556072E-16	5.495241E-18
5.978641E+03	2.583320E-16	5.535931E-18
5.988622E+03	2.613207E-16	5.582027E-18
5.998603E+03	2.644929E-16	5.631773E-18
6.008584E+03	2.679041E-16	5.686317E-18
6.018565E+03	2.715646E-16	5.745836E-18
6.028546E+03	2.754836E-16	5.810487E-18
6.038527E+03	2.796695E-16	5.880408E-18
6.048508E+03	2.841298E-16	5.955712E-18
6.058489E+03	2.888700E-16	6.036479E-18
6.068470E+03	2.938942E-16	6.122750E-18
6.078451E+03	2.992040E-16	6.214522E-18
6.088432E+03	3.047986E-16	6.311740E-18
6.098413E+03	3.106740E-16	6.414290E-18
6.108394E+03	3.168234E-16	6.521997E-18
6.118375E+03	3.232361E-16	6.634612E-18
6.128356E+03	3.298977E-16	6.751816E-18
6.138337E+03	3.367893E-16	6.873204E-18
6.148318E+03	3.438880E-16	6.998293E-18
6.158299E+03	3.511661E-16	7.126514E-18
6.168280E+03	3.585916E-16	7.257214E-18
6.178261E+03	3.661274E-16	7.389653E-18
6.188242E+03	3.737325E-16	7.523015E-18
6.198223E+03	3.813612E-16	7.656406E-18
6.208204E+03	3.889643E-16	7.788869E-18
6.218185E+03	3.964890E-16	7.919389E-18
6.228166E+03	4.038798E-16	8.046908E-18
6.238148E+03	4.110793E-16	8.170338E-18
6.248129E+03	4.180289E-16	8.288584E-18
6.258110E+03	4.246697E-16	8.400554E-18
6.268091E+03	4.309435E-16	8.505180E-18
6.278072E+03	4.367942E-16	8.601440E-18
6.288053E+03	4.421682E-16	8.688376E-18
6.298034E+03	4.470160E-16	8.765111E-18
6.308015E+03	4.512926E-16	8.830864E-18
6.317996E+03	4.549585E-16	8.884970E-18
6.327977E+03	4.579808E-16	8.926882E-18
6.337958E+03	4.603329E-16	8.956190E-18
6.347939E+03	4.619958E-16	8.972618E-18
6.357920E+03	4.629574E-16	8.976030E-18
6.367901E+03	4.632131E-16	8.966425E-18
6.377882E+03	4.627654E-16	8.943937E-18
6.387863E+03	4.616235E-16	8.908820E-18
6.397844E+03	4.598029E-16	8.861443E-18
6.407825E+03	4.573247E-16	8.802271E-18
6.417806E+03	4.542149E-16	8.731862E-18
6.427787E+03	4.505037E-16	8.650835E-18
6.437768E+03	4.462246E-16	8.559871E-18
6.447749E+03	4.414137E-16	8.459687E-18
6.457730E+03	4.361087E-16	8.351021E-18
6.467711E+03	4.303483E-16	8.234621E-18
6.477692E+03	4.241711E-16	8.111231E-18
6.487673E+03	4.176156E-16	7.981577E-18
6.497654E+03	4.106470E-16	7.844982E-18
6.507635E+03	4.034462E-16	7.704869E-18
6.517617E+03	3.959743E-16	7.560441E-18
6.527598E+03	3.882769E-16	7.412510E-18
6.537579E+03	3.804156E-16	7.262188E-18
6.547560E+03	3.724479E-16	7.110517E-18
6.557541E+03	3.644268E-16	6.958443E-18
6.567522E+03	3.564002E-16	6.806822E-18
6.577503E+03	3.484114E-16	6.656425E-18
6.587484E+03	3.404996E-16	6.507943E-18
6.597465E+03	3.327000E-16	6.361996E-18
6.607446E+03	3.250441E-16	6.219139E-18
6.617427E+03	3.175598E-16	6.079862E-18
6.627408E+03	3.102725E-16	5.944606E-18
6.637389E+03	3.031511E-16	5.812741E-18
6.647370E+03	2.963225E-16	5.686665E-18
6.657351E+03	2.897498E-16	5.565641E-18
6.667332E+03	2.834479E-16	5.449933E-18
6.677313E+03	2.774300E-16	5.339771E-18
6.687294E+03	2.717073E-16	5.235360E-18
6.697275E+03	2.662897E-16	5.136871E-18
6.707256E+03	2.611853E-16	5.044456E-18
6.717237E+03	2.564011E-16	4.958245E-18
6.727218E+03	2.519429E-16	4.878344E-18
6.737199E+03	2.477720E-16	4.804007E-18
6.747180E+03	2.439798E-16	4.737007E-18
6.757161E+03	2.405249E-16	4.676553E-18
6.767142E+03	2.374098E-16	4.622699E-18
6.777123E+03	2.346360E-16	4.575489E-18
6.787105E+03	2.322045E-16	4.534957E-18
6.797086E+03	2.301161E-16	4.501131E-18
6.807067E+03	2.283707E-16	4.474032E-18
6.817048E+03	2.269683E-16	4.453677E-18
6.827029E+03	2.258687E-16	4.439299E-18
6.837010E+03	2.251504E-16	4.432462E-18
6.846991E+03	2.247726E-16	4.432388E-18
6.856972E+03	2.247339E-16	4.439075E-18
6.866953E+03	2.250327E-16	4.452517E-18
6.876934E+03	2.256670E-16	4.472701E-18
6.886915E+03	2.266347E-16	4.499614E-18
6.896896E+03	2.278932E-16	4.532435E-18
6.906877E+03	2.295193E-16	4.572718E-18
6.916858E+03	2.314697E-16	4.619633E-18
6.926839E+03	2.337405E-16	4.673128E-18
6.936820E+03	2.363272E-16	4.733143E-18
6.946801E+03	2.392245E-16	4.799597E-18
6.956782E+03	2.424263E-16	4.872400E-18
6.966763E+03	2.458826E-16	4.950568E-18
6.976744E+03	2.496710E-16	5.035687E-18
6.986725E+03	2.537396E-16	5.126744E-18
6.996706E+03	2.580782E-16	5.223550E-18
7.006687E+03	2.626749E-16	5.325892E-18
7.016668E+03	2.675161E-16	5.433515E-18
7.026649E+03	2.725390E-16	5.545160E-18
7.036630E+03	2.778214E-16	5.662426E-18
7.046611E+03	2.832974E-16	5.783989E-18
7.056592E+03	2.889458E-16	5.909433E-18
7.066574E+03	2.947437E-16	6.038296E-18
7.076555E+03	3.006654E-16	6.170063E-18
7.086536E+03	3.066294E-16	6.303065E-18
7.096517E+03	3.127120E-16	6.438871E-18
7.106498E+03	3.188280E-16	6.575728E-18
7.116479E+03	3.249426E-16	6.712916E-18
7.126460E+03	3.310189E-16	6.849663E-18
7.136441E+03	3.369588E-16	6.983929E-18
7.146422E+03	3.428392E-16	7.117286E-18
7.156403E+03	3.485598E-16	7.247643E-18
7.166384E+03	3.540779E-16	7.374086E-18
7.176365E+03	3.593503E-16	7.495688E-18
7.186346E+03	3.643337E-16	7.611517E-18
7.196327E+03	3.689210E-16	7.719300E-18
7.206308E+03	3.732000E-16	7.820834E-18
7.216289E+03	3.770679E-16	7.913930E-18
7.226270E+03	3.804889E-16	7.997793E-18
7.236251E+03	3.834307E-16	8.071701E-18
7.246232E+03	3.857979E-16	8.133594E-18
7.256213E+03	3.877028E-16	8.185790E-18
7.266194E+03	3.890609E-16	8.226460E-18
7.276175E+03	3.898610E-16	8.255320E-18
7.286156E+03	3.900303E-16	8.270774E-18
7.296137E+03	3.897077E-16	8.275718E-18
7.306118E+03	3.888337E-16	8.268845E-18
7.316099E+03	3.874235E-16	8.250435E-18
7.326080E+03	3.854990E-16	8.220911E-18
7.336061E+03	3.830207E-16	8.179387E-18
7.346043E+03	3.801564E-16	8.129412E-18
7.356024E+03	3.768765E-16	8.070321E-18
7.366005E+03	3.732227E-16	8.002978E-18
7.375986E+03	3.691749E-16	7.926930E-18
7.385967E+03	3.649109E-16	7.845966E-18
7.395948E+03	3.604136E-16	7.759711E-18
7.405929E+03	3.557323E-16	7.669212E-18
7.415910E+03	3.509160E-16	7.575518E-18
7.425891E+03	3.459518E-16	7.478348E-18
7.435872E+03	3.410086E-16	7.381349E-18
7.445853E+03	3.360689E-16	7.284156E-18
7.455834E+03	3.311745E-16	7.187676E-18
7.465815E+03	3.263066E-16	7.091517E-18
7.475796E+03	3.216160E-16	6.998967E-18
7.485777E+03	3.170766E-16	6.909478E-18
7.495758E+03	3.127167E-16	6.823689E-18
7.505739E+03	3.085070E-16	6.740981E-18
7.515720E+03	3.045781E-16	6.664231E-18
7.525701E+03	3.008929E-16	6.592658E-18
7.535682E+03	2.974664E-16	6.526616E-18
7.545663E+03	2.942583E-16	6.465255E-18
7.555644E+03	2.913816E-16	6.411081E-18
7.565625E+03	2.887900E-16	6.363115E-18
7.575606E+03	2.864371E-16	6.320362E-18
7.585587E+03	2.844251E-16	6.285115E-18
7.595568E+03	2.827028E-16	6.256279E-18
7.605549E+03	2.812679E-16	6.233836E-18
7.615530E+03	2.800671E-16	6.216639E-18
7.625512E+03	2.791934E-16	6.206791E-18
7.635493E+03	2.785907E-16	6.203082E-18
7.645474E+03	2.782511E-16	6.205374E-18
7.655455E+03	2.781168E-16	6.212413E-18
7.665436E+03	2.782757E-16	6.226197E-18
7.675417E+03	2.786684E-16	6.245440E-18
7.685398E+03	2.792346E-16	6.268824E-18
7.695379E+03	2.800603E-16	6.298320E-18
7.705360E+03	2.810846E-16	6.332593E-18
7.715341E+03	2.822942E-16	6.371385E-18
7.725322E+03	2.836261E-16	6.413309E-18
7.735303E+03	2.851662E-16	6.460338E-18
7.745284E+03	2.868503E-16	6.511061E-18
