#wls	flux	fluxerr
1.596488E+03	2.770832E-04	1.272494E-06
1.636400E+03	2.606233E-04	1.196902E-06
1.676312E+03	2.453439E-04	1.126732E-06
1.716224E+03	2.311973E-04	1.061764E-06
1.756136E+03	2.182322E-04	1.002222E-06
1.796049E+03	2.064112E-04	9.479341E-07
1.835961E+03	1.957482E-04	8.989645E-07
1.875873E+03	1.862108E-04	8.551644E-07
1.915785E+03	1.778174E-04	8.166177E-07
1.955697E+03	1.705816E-04	7.833874E-07
1.995610E+03	1.645288E-04	7.555897E-07
2.035522E+03	1.597377E-04	7.335867E-07
2.075434E+03	1.563443E-04	7.180027E-07
2.115346E+03	1.545555E-04	7.097875E-07
2.155258E+03	1.545872E-04	7.099327E-07
2.195171E+03	1.567216E-04	7.197347E-07
2.235083E+03	1.612231E-04	7.404073E-07
2.274995E+03	1.684765E-04	7.737178E-07
2.314907E+03	1.790888E-04	8.224540E-07
2.354819E+03	1.939013E-04	8.904791E-07
2.394732E+03	2.141694E-04	9.835587E-07
2.434644E+03	2.416523E-04	1.109772E-06
2.474556E+03	2.787409E-04	1.280099E-06
2.514468E+03	3.286217E-04	1.509172E-06
2.554380E+03	3.951249E-04	1.814583E-06
2.594293E+03	4.821559E-04	2.214266E-06
2.634205E+03	5.921818E-04	2.719552E-06
2.674117E+03	7.244053E-04	3.326778E-06
2.714029E+03	8.732061E-04	4.010133E-06
2.753941E+03	1.028417E-03	4.722928E-06
2.793854E+03	1.177736E-03	5.408659E-06
2.833766E+03	1.311539E-03	6.023141E-06
2.873678E+03	1.426734E-03	6.552160E-06
2.913590E+03	1.525435E-03	7.005437E-06
2.953502E+03	1.609850E-03	7.393102E-06
2.993414E+03	1.677765E-03	7.704998E-06
3.003393E+03	1.691515E-03	7.768143E-06
3.013371E+03	1.703676E-03	7.823988E-06
3.023349E+03	1.714183E-03	7.872240E-06
3.033327E+03	1.722920E-03	7.912366E-06
3.043305E+03	1.729782E-03	7.943876E-06
3.053283E+03	1.734671E-03	7.966327E-06
3.063261E+03	1.737491E-03	7.979277E-06
3.073239E+03	1.738159E-03	7.982347E-06
3.083217E+03	1.736612E-03	7.975241E-06
3.093195E+03	1.732849E-03	7.957960E-06
3.103173E+03	1.726740E-03	7.929902E-06
3.113151E+03	1.718380E-03	7.891512E-06
3.123129E+03	1.707740E-03	7.842648E-06
3.133107E+03	1.694868E-03	7.783535E-06
3.143085E+03	1.679892E-03	7.714754E-06
3.153063E+03	1.662870E-03	7.636584E-06
3.163041E+03	1.643949E-03	7.549690E-06
3.173019E+03	1.623353E-03	7.455106E-06
3.182997E+03	1.601252E-03	7.353607E-06
3.192975E+03	1.577897E-03	7.246350E-06
3.202954E+03	1.553620E-03	7.134859E-06
3.212932E+03	1.528745E-03	7.020625E-06
3.222910E+03	1.503595E-03	6.905123E-06
3.232888E+03	1.478567E-03	6.790184E-06
3.242866E+03	1.454168E-03	6.678135E-06
3.252844E+03	1.430745E-03	6.570565E-06
3.262822E+03	1.408893E-03	6.470212E-06
3.272800E+03	1.389008E-03	6.378892E-06
3.282778E+03	1.371709E-03	6.299449E-06
3.292756E+03	1.357442E-03	6.233927E-06
3.302734E+03	1.346749E-03	6.184820E-06
3.312712E+03	1.340100E-03	6.154286E-06
3.322690E+03	1.338055E-03	6.144894E-06
3.332668E+03	1.341050E-03	6.158650E-06
3.342646E+03	1.349604E-03	6.197932E-06
3.352624E+03	1.364299E-03	6.265416E-06
3.362602E+03	1.385735E-03	6.363860E-06
3.372580E+03	1.414587E-03	6.496356E-06
3.382558E+03	1.451580E-03	6.666244E-06
3.392536E+03	1.497650E-03	6.877818E-06
3.402514E+03	1.553691E-03	7.135181E-06
3.412493E+03	1.620930E-03	7.443969E-06
3.422471E+03	1.700567E-03	7.809694E-06
3.432449E+03	1.794035E-03	8.238937E-06
3.442427E+03	1.902848E-03	8.738650E-06
3.452405E+03	2.028549E-03	9.315919E-06
3.462383E+03	2.172765E-03	9.978216E-06
3.472361E+03	2.336954E-03	1.073224E-05
3.482339E+03	2.522447E-03	1.158409E-05
3.492317E+03	2.730157E-03	1.253798E-05
3.502295E+03	2.960378E-03	1.359525E-05
3.512273E+03	3.212744E-03	1.475422E-05
3.522251E+03	3.485799E-03	1.600819E-05
3.532229E+03	3.777049E-03	1.734573E-05
3.542207E+03	4.082576E-03	1.874883E-05
3.552185E+03	4.397167E-03	2.019356E-05
3.562163E+03	4.714364E-03	2.165026E-05
3.572141E+03	5.026422E-03	2.308335E-05
3.582119E+03	5.325050E-03	2.445477E-05
3.592097E+03	5.601973E-03	2.572651E-05
3.602075E+03	5.852781E-03	2.687832E-05
3.612053E+03	6.075167E-03	2.789960E-05
3.622032E+03	6.267902E-03	2.878472E-05
3.632010E+03	6.430690E-03	2.953230E-05
3.641988E+03	6.562983E-03	3.013985E-05
3.651966E+03	6.664608E-03	3.060655E-05
3.661944E+03	6.734810E-03	3.092894E-05
3.671922E+03	6.773079E-03	3.110468E-05
3.681900E+03	6.779369E-03	3.113357E-05
3.691878E+03	6.754363E-03	3.101873E-05
3.701856E+03	6.699936E-03	3.076878E-05
3.711834E+03	6.620493E-03	3.040394E-05
3.721812E+03	6.522887E-03	2.995570E-05
3.731790E+03	6.416958E-03	2.946923E-05
3.741768E+03	6.314514E-03	2.899876E-05
3.751746E+03	6.228189E-03	2.860232E-05
3.761724E+03	6.170534E-03	2.833755E-05
3.771702E+03	6.153597E-03	2.825976E-05
3.781680E+03	6.187936E-03	2.841746E-05
3.791658E+03	6.282589E-03	2.885214E-05
3.801636E+03	6.444908E-03	2.959757E-05
3.811614E+03	6.679610E-03	3.067542E-05
3.821592E+03	6.988485E-03	3.209389E-05
3.831571E+03	7.369369E-03	3.384306E-05
3.841549E+03	7.815876E-03	3.589360E-05
3.851527E+03	8.316320E-03	3.819183E-05
3.861505E+03	8.854602E-03	4.066384E-05
3.871483E+03	9.412241E-03	4.322473E-05
3.881461E+03	9.970923E-03	4.579042E-05
3.891439E+03	1.051418E-02	4.828525E-05
3.901417E+03	1.102917E-02	5.065029E-05
3.911395E+03	1.150707E-02	5.284500E-05
3.921373E+03	1.194253E-02	5.484478E-05
3.931351E+03	1.233227E-02	5.663463E-05
3.941329E+03	1.267239E-02	5.819661E-05
3.951307E+03	1.295910E-02	5.951330E-05
3.961285E+03	1.318722E-02	6.056090E-05
3.971263E+03	1.335145E-02	6.131513E-05
3.981241E+03	1.344793E-02	6.175816E-05
3.991219E+03	1.347587E-02	6.188648E-05
4.001197E+03	1.343929E-02	6.171848E-05
4.011175E+03	1.334699E-02	6.129463E-05
4.021153E+03	1.321193E-02	6.067437E-05
4.025355E+03	1.241180E-02	5.699985E-05
4.028952E+03	1.236489E-02	5.678444E-05
4.032549E+03	1.231656E-02	5.656246E-05
4.036147E+03	1.226110E-02	5.630779E-05
4.039745E+03	1.226044E-02	5.630472E-05
4.043342E+03	1.234812E-02	5.670740E-05
4.046939E+03	1.238331E-02	5.686899E-05
4.050536E+03	1.237565E-02	5.683386E-05
4.054133E+03	1.239690E-02	5.693141E-05
4.057730E+03	1.240448E-02	5.696621E-05
4.061327E+03	1.238829E-02	5.689188E-05
4.064925E+03	1.236342E-02	5.677766E-05
4.068522E+03	1.233998E-02	5.667001E-05
4.072119E+03	1.227412E-02	5.636756E-05
4.075716E+03	1.216172E-02	5.585139E-05
4.079314E+03	1.206754E-02	5.541886E-05
4.082911E+03	1.202630E-02	5.522947E-05
4.086508E+03	1.190819E-02	5.468708E-05
4.090106E+03	1.183734E-02	5.436171E-05
4.093703E+03	1.175766E-02	5.399578E-05
4.097300E+03	1.161251E-02	5.332919E-05
4.100897E+03	1.148557E-02	5.274624E-05
4.104494E+03	1.140560E-02	5.237897E-05
4.108091E+03	1.133671E-02	5.206261E-05
4.111688E+03	1.132547E-02	5.201099E-05
4.115285E+03	1.120321E-02	5.144952E-05
4.118883E+03	1.103397E-02	5.067231E-05
4.122481E+03	1.100934E-02	5.055918E-05
4.126078E+03	1.120348E-02	5.145074E-05
4.129675E+03	1.143092E-02	5.249523E-05
4.133272E+03	1.157594E-02	5.316121E-05
4.136869E+03	1.156084E-02	5.309190E-05
4.140466E+03	1.159556E-02	5.325131E-05
4.144064E+03	1.159538E-02	5.325053E-05
4.147661E+03	1.165315E-02	5.351582E-05
4.151258E+03	1.174038E-02	5.391642E-05
4.154855E+03	1.176726E-02	5.403984E-05
4.158452E+03	1.191384E-02	5.471298E-05
4.162049E+03	1.201216E-02	5.516451E-05
4.165647E+03	1.214194E-02	5.576052E-05
4.169244E+03	1.235299E-02	5.672974E-05
4.172841E+03	1.251294E-02	5.746430E-05
4.176439E+03	1.262022E-02	5.795697E-05
4.180036E+03	1.259852E-02	5.785732E-05
4.183633E+03	1.263788E-02	5.803807E-05
4.187230E+03	1.271923E-02	5.841166E-05
4.190827E+03	1.279005E-02	5.873687E-05
4.194424E+03	1.292462E-02	5.935489E-05
4.198021E+03	1.303342E-02	5.985454E-05
4.201619E+03	1.314165E-02	6.035157E-05
4.205217E+03	1.327934E-02	6.098388E-05
4.208814E+03	1.332249E-02	6.118205E-05
4.212411E+03	1.335765E-02	6.134354E-05
4.216008E+03	1.343681E-02	6.170704E-05
4.219605E+03	1.349131E-02	6.195733E-05
4.223202E+03	1.347150E-02	6.186635E-05
4.226800E+03	1.345381E-02	6.178511E-05
4.230397E+03	1.353476E-02	6.215686E-05
4.233994E+03	1.368174E-02	6.283188E-05
4.237591E+03	1.372181E-02	6.301587E-05
4.241188E+03	1.380271E-02	6.338742E-05
4.244785E+03	1.393129E-02	6.397791E-05
4.248383E+03	1.408249E-02	6.467228E-05
4.251980E+03	1.421132E-02	6.526388E-05
4.255578E+03	1.432589E-02	6.579006E-05
4.259175E+03	1.445383E-02	6.637757E-05
4.262772E+03	1.457035E-02	6.691270E-05
4.266369E+03	1.468401E-02	6.743467E-05
4.269966E+03	1.476632E-02	6.781269E-05
4.273563E+03	1.489702E-02	6.841288E-05
4.277160E+03	1.509031E-02	6.930054E-05
4.280757E+03	1.515689E-02	6.960633E-05
4.284354E+03	1.532023E-02	7.035645E-05
4.287953E+03	1.548639E-02	7.111952E-05
4.291550E+03	1.552727E-02	7.130726E-05
4.295147E+03	1.557240E-02	7.151448E-05
4.298744E+03	1.557764E-02	7.153857E-05
4.302341E+03	1.550459E-02	7.120307E-05
4.305938E+03	1.543579E-02	7.088710E-05
4.309535E+03	1.536411E-02	7.055793E-05
4.313133E+03	1.529810E-02	7.025479E-05
4.316730E+03	1.529040E-02	7.021945E-05
4.320327E+03	1.524854E-02	7.002717E-05
4.323924E+03	1.515114E-02	6.957990E-05
4.327521E+03	1.501673E-02	6.896265E-05
4.331119E+03	1.488658E-02	6.836491E-05
4.334716E+03	1.477631E-02	6.785852E-05
4.338314E+03	1.472577E-02	6.762641E-05
4.341911E+03	1.468800E-02	6.745297E-05
4.345508E+03	1.471563E-02	6.757984E-05
4.349105E+03	1.478303E-02	6.788938E-05
4.352702E+03	1.486177E-02	6.825097E-05
4.356299E+03	1.494330E-02	6.862540E-05
4.359896E+03	1.501483E-02	6.895388E-05
4.363493E+03	1.517304E-02	6.968045E-05
4.367091E+03	1.535535E-02	7.051771E-05
4.370688E+03	1.548927E-02	7.113269E-05
4.374286E+03	1.566291E-02	7.193013E-05
4.377883E+03	1.586206E-02	7.284469E-05
4.381480E+03	1.608671E-02	7.387639E-05
4.385077E+03	1.632833E-02	7.498597E-05
4.388674E+03	1.652579E-02	7.589282E-05
4.392271E+03	1.675016E-02	7.692318E-05
4.395869E+03	1.711224E-02	7.858602E-05
4.399466E+03	1.740316E-02	7.992201E-05
4.403063E+03	1.758599E-02	8.076166E-05
4.406660E+03	1.782980E-02	8.188132E-05
4.410257E+03	1.819846E-02	8.357433E-05
4.413855E+03	1.852009E-02	8.505140E-05
4.417452E+03	1.876917E-02	8.619528E-05
4.421049E+03	1.900816E-02	8.729281E-05
4.424647E+03	1.921295E-02	8.823326E-05
4.428244E+03	1.942754E-02	8.921872E-05
4.431841E+03	1.968313E-02	9.039251E-05
4.435438E+03	2.010032E-02	9.230839E-05
4.439035E+03	2.045203E-02	9.392357E-05
4.442632E+03	2.069856E-02	9.505577E-05
4.446229E+03	2.102718E-02	9.656490E-05
4.449827E+03	2.133715E-02	9.798840E-05
4.453424E+03	2.167385E-02	9.953468E-05
4.457022E+03	2.198765E-02	1.009757E-04
4.460619E+03	2.234230E-02	1.026045E-04
4.464216E+03	2.261878E-02	1.038741E-04
4.467813E+03	2.289219E-02	1.051297E-04
4.471410E+03	2.312995E-02	1.062216E-04
4.475007E+03	2.348644E-02	1.078588E-04
4.478605E+03	2.385822E-02	1.095661E-04
4.482202E+03	2.419430E-02	1.111095E-04
4.485799E+03	2.452583E-02	1.126320E-04
4.489396E+03	2.490518E-02	1.143742E-04
4.492993E+03	2.526579E-02	1.160302E-04
4.496591E+03	2.551433E-02	1.171716E-04
4.500188E+03	2.577814E-02	1.183831E-04
4.503786E+03	2.609677E-02	1.198464E-04
4.507383E+03	2.639104E-02	1.211978E-04
4.510980E+03	2.668497E-02	1.225476E-04
4.514577E+03	2.698283E-02	1.239155E-04
4.518174E+03	2.727893E-02	1.252753E-04
4.521771E+03	2.754787E-02	1.265104E-04
4.525368E+03	2.782071E-02	1.277634E-04
4.528965E+03	2.809041E-02	1.290019E-04
4.532562E+03	2.833438E-02	1.301223E-04
4.536160E+03	2.859213E-02	1.313060E-04
4.539758E+03	2.885800E-02	1.325270E-04
4.543355E+03	2.910662E-02	1.336688E-04
4.546952E+03	2.936477E-02	1.348543E-04
4.550549E+03	2.957329E-02	1.358119E-04
4.554146E+03	2.977023E-02	1.367163E-04
4.557743E+03	2.994857E-02	1.375353E-04
4.561341E+03	3.017867E-02	1.385920E-04
4.564938E+03	3.030296E-02	1.391628E-04
4.568535E+03	3.031594E-02	1.392224E-04
4.572132E+03	3.034138E-02	1.393392E-04
4.575729E+03	3.040316E-02	1.396229E-04
4.579326E+03	3.047877E-02	1.399702E-04
4.582924E+03	3.052748E-02	1.401939E-04
4.586521E+03	3.058721E-02	1.404682E-04
4.590119E+03	3.059624E-02	1.405096E-04
4.593716E+03	3.051537E-02	1.401383E-04
4.597313E+03	3.048346E-02	1.399917E-04
4.600910E+03	3.040799E-02	1.396451E-04
4.604507E+03	3.030582E-02	1.391759E-04
4.608104E+03	3.012521E-02	1.383465E-04
4.611701E+03	2.987462E-02	1.371957E-04
4.615299E+03	2.947867E-02	1.353773E-04
4.618896E+03	2.914022E-02	1.338230E-04
4.622494E+03	2.889135E-02	1.326801E-04
4.626091E+03	2.870121E-02	1.318069E-04
4.629688E+03	2.841756E-02	1.305043E-04
4.633285E+03	2.805031E-02	1.288178E-04
4.636882E+03	2.772650E-02	1.273307E-04
4.640479E+03	2.744468E-02	1.260365E-04
4.644076E+03	2.713373E-02	1.246085E-04
4.647674E+03	2.680622E-02	1.231044E-04
4.651271E+03	2.655130E-02	1.219337E-04
4.654868E+03	2.635076E-02	1.210127E-04
4.658465E+03	2.610161E-02	1.198685E-04
4.662062E+03	2.582478E-02	1.185973E-04
4.665660E+03	2.558145E-02	1.174798E-04
4.669257E+03	2.533131E-02	1.163310E-04
4.672855E+03	2.510073E-02	1.152721E-04
4.676452E+03	2.485500E-02	1.141437E-04
4.680049E+03	2.463994E-02	1.131560E-04
4.683646E+03	2.440279E-02	1.120669E-04
4.687243E+03	2.421012E-02	1.111821E-04
4.690840E+03	2.408815E-02	1.106220E-04
4.694437E+03	2.400633E-02	1.102462E-04
4.698034E+03	2.391758E-02	1.098386E-04
4.701632E+03	2.383158E-02	1.094437E-04
4.705229E+03	2.372485E-02	1.089536E-04
4.708827E+03	2.362504E-02	1.084952E-04
4.712424E+03	2.354731E-02	1.081382E-04
4.716021E+03	2.341715E-02	1.075405E-04
4.719618E+03	2.330635E-02	1.070316E-04
4.723215E+03	2.322724E-02	1.066683E-04
4.726813E+03	2.315502E-02	1.063367E-04
4.730410E+03	2.306352E-02	1.059165E-04
4.734007E+03	2.296376E-02	1.054583E-04
4.737604E+03	2.286540E-02	1.050066E-04
4.741201E+03	2.280140E-02	1.047127E-04
4.744798E+03	2.274974E-02	1.044754E-04
4.748396E+03	2.274196E-02	1.044397E-04
4.751993E+03	2.270666E-02	1.042776E-04
4.755591E+03	2.265485E-02	1.040397E-04
4.759188E+03	2.262220E-02	1.038898E-04
4.762785E+03	2.261413E-02	1.038527E-04
4.766382E+03	2.262240E-02	1.038907E-04
4.769979E+03	2.269346E-02	1.042170E-04
4.773576E+03	2.279304E-02	1.046743E-04
4.777173E+03	2.286372E-02	1.049989E-04
4.780770E+03	2.286870E-02	1.050218E-04
4.784368E+03	2.287222E-02	1.050379E-04
4.787965E+03	2.294517E-02	1.053729E-04
4.791563E+03	2.298931E-02	1.055757E-04
4.795160E+03	2.307279E-02	1.059590E-04
4.798757E+03	2.322546E-02	1.066601E-04
4.802354E+03	2.341047E-02	1.075098E-04
4.805951E+03	2.356797E-02	1.082330E-04
4.809549E+03	2.367763E-02	1.087366E-04
4.813146E+03	2.376533E-02	1.091394E-04
4.816743E+03	2.383520E-02	1.094603E-04
4.820340E+03	2.387235E-02	1.096309E-04
4.823937E+03	2.393236E-02	1.099065E-04
4.827534E+03	2.388122E-02	1.096716E-04
4.831132E+03	2.381111E-02	1.093496E-04
4.834729E+03	2.377071E-02	1.091641E-04
4.838327E+03	2.375054E-02	1.090715E-04
4.841924E+03	2.377215E-02	1.091707E-04
4.845521E+03	2.379227E-02	1.092631E-04
4.849118E+03	2.377857E-02	1.092002E-04
4.852715E+03	2.379172E-02	1.092606E-04
4.856312E+03	2.382764E-02	1.094256E-04
4.859909E+03	2.387417E-02	1.096392E-04
4.863507E+03	2.391649E-02	1.098336E-04
4.867104E+03	2.397478E-02	1.101013E-04
4.870701E+03	2.405167E-02	1.104544E-04
4.874299E+03	2.406799E-02	1.105293E-04
4.877896E+03	2.401180E-02	1.102713E-04
4.881493E+03	2.396764E-02	1.100685E-04
4.885090E+03	2.398367E-02	1.101421E-04
4.888687E+03	2.399423E-02	1.101906E-04
4.892284E+03	2.393650E-02	1.099255E-04
4.895882E+03	2.394019E-02	1.099424E-04
4.899479E+03	2.402250E-02	1.103204E-04
4.903076E+03	2.403791E-02	1.103912E-04
4.906673E+03	2.403453E-02	1.103757E-04
4.910270E+03	2.403506E-02	1.103781E-04
4.913867E+03	2.404877E-02	1.104411E-04
4.917465E+03	2.405571E-02	1.104729E-04
4.921063E+03	2.404925E-02	1.104432E-04
4.924660E+03	2.405730E-02	1.104802E-04
4.928257E+03	2.404666E-02	1.104313E-04
4.931854E+03	2.396965E-02	1.100777E-04
4.935451E+03	2.388207E-02	1.096755E-04
4.939048E+03	2.377334E-02	1.091762E-04
4.942645E+03	2.367922E-02	1.087439E-04
4.946242E+03	2.362478E-02	1.084939E-04
4.949840E+03	2.357692E-02	1.082741E-04
4.953437E+03	2.351980E-02	1.080118E-04
4.957035E+03	2.347321E-02	1.077978E-04
4.960632E+03	2.343844E-02	1.076382E-04
4.964229E+03	2.335887E-02	1.072728E-04
4.967826E+03	2.324647E-02	1.067566E-04
4.971423E+03	2.315515E-02	1.063372E-04
4.975021E+03	2.304682E-02	1.058397E-04
4.978618E+03	2.289528E-02	1.051438E-04
4.982215E+03	2.276223E-02	1.045327E-04
4.985812E+03	2.265157E-02	1.040245E-04
4.989409E+03	2.255014E-02	1.035587E-04
4.993006E+03	2.248668E-02	1.032673E-04
4.996603E+03	2.243107E-02	1.030119E-04
5.000201E+03	2.240024E-02	1.028704E-04
5.003798E+03	2.240848E-02	1.029082E-04
5.007396E+03	2.242572E-02	1.029874E-04
5.010993E+03	2.246235E-02	1.031556E-04
5.014590E+03	2.252353E-02	1.034365E-04
5.018187E+03	2.260658E-02	1.038179E-04
5.021784E+03	2.268420E-02	1.041744E-04
5.025381E+03	2.270580E-02	1.042736E-04
5.028978E+03	2.271040E-02	1.042947E-04
5.032576E+03	2.276669E-02	1.045532E-04
5.036173E+03	2.284736E-02	1.049237E-04
5.039771E+03	2.288641E-02	1.051030E-04
5.043368E+03	2.294853E-02	1.053883E-04
5.046965E+03	2.311237E-02	1.061407E-04
5.050562E+03	2.327838E-02	1.069031E-04
5.054159E+03	2.336284E-02	1.072910E-04
5.057756E+03	2.345477E-02	1.077131E-04
5.061354E+03	2.358113E-02	1.082934E-04
5.064951E+03	2.374054E-02	1.090255E-04
5.068548E+03	2.393549E-02	1.099208E-04
5.072145E+03	2.411843E-02	1.107609E-04
5.075742E+03	2.432652E-02	1.117165E-04
5.079339E+03	2.452517E-02	1.126288E-04
5.082937E+03	2.470417E-02	1.134508E-04
5.086535E+03	2.489293E-02	1.143177E-04
5.090132E+03	2.506591E-02	1.151121E-04
5.093729E+03	2.522827E-02	1.158577E-04
5.097326E+03	2.538637E-02	1.165838E-04
5.100923E+03	2.552753E-02	1.172320E-04
5.104520E+03	2.565815E-02	1.178319E-04
5.108117E+03	2.583792E-02	1.186574E-04
5.111714E+03	2.602485E-02	1.195159E-04
5.115312E+03	2.616567E-02	1.201626E-04
5.118909E+03	2.629725E-02	1.207669E-04
5.122506E+03	2.643100E-02	1.213811E-04
5.126104E+03	2.655427E-02	1.219472E-04
5.129701E+03	2.666456E-02	1.224537E-04
5.133298E+03	2.676065E-02	1.228949E-04
5.136895E+03	2.685518E-02	1.233291E-04
5.140492E+03	2.696453E-02	1.238312E-04
5.144090E+03	2.708485E-02	1.243838E-04
5.147687E+03	2.718600E-02	1.248483E-04
5.151284E+03	2.728685E-02	1.253115E-04
5.154881E+03	2.740118E-02	1.258365E-04
5.158478E+03	2.749138E-02	1.262507E-04
5.162075E+03	2.760882E-02	1.267901E-04
5.165673E+03	2.774842E-02	1.274312E-04
5.169270E+03	2.787017E-02	1.279903E-04
5.172868E+03	2.796911E-02	1.284446E-04
5.176465E+03	2.808519E-02	1.289778E-04
5.180062E+03	2.821839E-02	1.295894E-04
5.183659E+03	2.834872E-02	1.301880E-04
5.187256E+03	2.850231E-02	1.308933E-04
5.190853E+03	2.866169E-02	1.316252E-04
5.194450E+03	2.884050E-02	1.324464E-04
5.198048E+03	2.900274E-02	1.331915E-04
5.201645E+03	2.916457E-02	1.339347E-04
5.205242E+03	2.933341E-02	1.347100E-04
5.208840E+03	2.950675E-02	1.355061E-04
5.212437E+03	2.970679E-02	1.364247E-04
5.216034E+03	2.989648E-02	1.372959E-04
5.219631E+03	3.009310E-02	1.381988E-04
5.223229E+03	3.028431E-02	1.390769E-04
5.226826E+03	3.050086E-02	1.400714E-04
5.230423E+03	3.073284E-02	1.411367E-04
5.234020E+03	3.093609E-02	1.420701E-04
5.237617E+03	3.113274E-02	1.429732E-04
5.241214E+03	3.133993E-02	1.439247E-04
5.244811E+03	3.155030E-02	1.448908E-04
5.248409E+03	3.174922E-02	1.458043E-04
5.252006E+03	3.191718E-02	1.465757E-04
5.255604E+03	3.207745E-02	1.473117E-04
5.259201E+03	3.226170E-02	1.481578E-04
5.262798E+03	3.242608E-02	1.489127E-04
5.266395E+03	3.256217E-02	1.495377E-04
5.269992E+03	3.267856E-02	1.500722E-04
5.273589E+03	3.278864E-02	1.505777E-04
5.277186E+03	3.286822E-02	1.509432E-04
5.280783E+03	3.291983E-02	1.511802E-04
5.284381E+03	3.297133E-02	1.514167E-04
5.287978E+03	3.301913E-02	1.516362E-04
5.291576E+03	3.306324E-02	1.518388E-04
5.295173E+03	3.312293E-02	1.521129E-04
5.298770E+03	3.318494E-02	1.523977E-04
5.302367E+03	3.323366E-02	1.526214E-04
5.305964E+03	3.326912E-02	1.527842E-04
5.309562E+03	3.330456E-02	1.529470E-04
5.313159E+03	3.336993E-02	1.532472E-04
5.316756E+03	3.341971E-02	1.534758E-04
5.320353E+03	3.343718E-02	1.535561E-04
5.323950E+03	3.349532E-02	1.538230E-04
5.327547E+03	3.357611E-02	1.541940E-04
5.331144E+03	3.363421E-02	1.544608E-04
5.334743E+03	3.370301E-02	1.547768E-04
5.338340E+03	3.381346E-02	1.552840E-04
5.341937E+03	3.391432E-02	1.557472E-04
5.345534E+03	3.398663E-02	1.560793E-04
5.349131E+03	3.406965E-02	1.564606E-04
5.352728E+03	3.418705E-02	1.569997E-04
5.356325E+03	3.429611E-02	1.575006E-04
5.359922E+03	3.441344E-02	1.580394E-04
5.363519E+03	3.452723E-02	1.585619E-04
