#wls	flux	fluxerr
1.596488E+03	1.140909E-04	6.443988E-07
1.636400E+03	1.065286E-04	6.016839E-07
1.676312E+03	9.949862E-05	5.619763E-07
1.716224E+03	9.299687E-05	5.252522E-07
1.756136E+03	8.701633E-05	4.914722E-07
1.796049E+03	8.153942E-05	4.605369E-07
1.835961E+03	7.656882E-05	4.324615E-07
1.875873E+03	7.209120E-05	4.071706E-07
1.915785E+03	6.808916E-05	3.845659E-07
1.955697E+03	6.455586E-05	3.646088E-07
1.995610E+03	6.150170E-05	3.473580E-07
2.035522E+03	5.893365E-05	3.328529E-07
2.075434E+03	5.688203E-05	3.212645E-07
2.115346E+03	5.540235E-05	3.129065E-07
2.155258E+03	5.453900E-05	3.080295E-07
2.195171E+03	5.434901E-05	3.069556E-07
2.235083E+03	5.487849E-05	3.099452E-07
2.274995E+03	5.618945E-05	3.173484E-07
2.314907E+03	5.838418E-05	3.297429E-07
2.354819E+03	6.161029E-05	3.479624E-07
2.394732E+03	6.607538E-05	3.731793E-07
2.434644E+03	7.204899E-05	4.069159E-07
2.474556E+03	7.983551E-05	4.508911E-07
2.514468E+03	8.976977E-05	5.069959E-07
2.554380E+03	1.021533E-04	5.769333E-07
2.594293E+03	1.171217E-04	6.614687E-07
2.634205E+03	1.345495E-04	7.598941E-07
2.674117E+03	1.538831E-04	8.690823E-07
2.714029E+03	1.741037E-04	9.832788E-07
2.753941E+03	1.938661E-04	1.094887E-06
2.793854E+03	2.118009E-04	1.196174E-06
2.833766E+03	2.267906E-04	1.280827E-06
2.873678E+03	2.382179E-04	1.345361E-06
2.913590E+03	2.459626E-04	1.389097E-06
2.953502E+03	2.500877E-04	1.412390E-06
2.993414E+03	2.507710E-04	1.416246E-06
3.003393E+03	2.504210E-04	1.414268E-06
3.013371E+03	2.498739E-04	1.411178E-06
3.023349E+03	2.491340E-04	1.406998E-06
3.033327E+03	2.482061E-04	1.401757E-06
3.043305E+03	2.470847E-04	1.395423E-06
3.053283E+03	2.458028E-04	1.388183E-06
3.063261E+03	2.443441E-04	1.379944E-06
3.073239E+03	2.427311E-04	1.370834E-06
3.083217E+03	2.409873E-04	1.360985E-06
3.093195E+03	2.391027E-04	1.350340E-06
3.103173E+03	2.371047E-04	1.339056E-06
3.113151E+03	2.350113E-04	1.327232E-06
3.123129E+03	2.328534E-04	1.315045E-06
3.133107E+03	2.306307E-04	1.302492E-06
3.143085E+03	2.283899E-04	1.289836E-06
3.153063E+03	2.261463E-04	1.277164E-06
3.163041E+03	2.239290E-04	1.264642E-06
3.173019E+03	2.217799E-04	1.252503E-06
3.182997E+03	2.197219E-04	1.240881E-06
3.192975E+03	2.177913E-04	1.229977E-06
3.202954E+03	2.160365E-04	1.220066E-06
3.212932E+03	2.144886E-04	1.211323E-06
3.222910E+03	2.131915E-04	1.203997E-06
3.232888E+03	2.122009E-04	1.198402E-06
3.242866E+03	2.115663E-04	1.194818E-06
3.252844E+03	2.113311E-04	1.193489E-06
3.262822E+03	2.115612E-04	1.194787E-06
3.272800E+03	2.123173E-04	1.199057E-06
3.282778E+03	2.136562E-04	1.206618E-06
3.292756E+03	2.156587E-04	1.217926E-06
3.302734E+03	2.184034E-04	1.233426E-06
3.312712E+03	2.219768E-04	1.253606E-06
3.322690E+03	2.264754E-04	1.279011E-06
3.332668E+03	2.319971E-04	1.310194E-06
3.342646E+03	2.386815E-04	1.347943E-06
3.352624E+03	2.466552E-04	1.392973E-06
3.362602E+03	2.560614E-04	1.446094E-06
3.372580E+03	2.670936E-04	1.508397E-06
3.382558E+03	2.799373E-04	1.580930E-06
3.392536E+03	2.948241E-04	1.665001E-06
3.402514E+03	3.119776E-04	1.761874E-06
3.412493E+03	3.316951E-04	1.873226E-06
3.422471E+03	3.542804E-04	2.000774E-06
3.432449E+03	3.800352E-04	2.146222E-06
3.442427E+03	4.093541E-04	2.311797E-06
3.452405E+03	4.425625E-04	2.499337E-06
3.462383E+03	4.800855E-04	2.711244E-06
3.472361E+03	5.222618E-04	2.949430E-06
3.482339E+03	5.694340E-04	3.215829E-06
3.492317E+03	6.219370E-04	3.512333E-06
3.502295E+03	6.799398E-04	3.839897E-06
3.512273E+03	7.435541E-04	4.199151E-06
3.522251E+03	8.126798E-04	4.589529E-06
3.532229E+03	8.870935E-04	5.009771E-06
3.542207E+03	9.662463E-04	5.456776E-06
3.552185E+03	1.049306E-03	5.925841E-06
3.562163E+03	1.135267E-03	6.411295E-06
3.572141E+03	1.222732E-03	6.905241E-06
3.582119E+03	1.310294E-03	7.399736E-06
3.592097E+03	1.396423E-03	7.886136E-06
3.602075E+03	1.479807E-03	8.357031E-06
3.612053E+03	1.559400E-03	8.806519E-06
3.622032E+03	1.634409E-03	9.230120E-06
3.632010E+03	1.704336E-03	9.625017E-06
3.641988E+03	1.768740E-03	9.988727E-06
3.651966E+03	1.827598E-03	1.032111E-05
3.661944E+03	1.880968E-03	1.062251E-05
3.671922E+03	1.928981E-03	1.089365E-05
3.681900E+03	1.972179E-03	1.113760E-05
3.691878E+03	2.011142E-03	1.135763E-05
3.701856E+03	2.046734E-03	1.155862E-05
3.711834E+03	2.080131E-03	1.174722E-05
3.721812E+03	2.112663E-03	1.193094E-05
3.731790E+03	2.146037E-03	1.211941E-05
3.741768E+03	2.182067E-03	1.232288E-05
3.751746E+03	2.222787E-03	1.255283E-05
3.761724E+03	2.270318E-03	1.282125E-05
3.771702E+03	2.326850E-03	1.314049E-05
3.781680E+03	2.394429E-03	1.352213E-05
3.791658E+03	2.474805E-03	1.397603E-05
3.801636E+03	2.569725E-03	1.451207E-05
3.811614E+03	2.680451E-03	1.513737E-05
3.821592E+03	2.807635E-03	1.585561E-05
3.831571E+03	2.951642E-03	1.666886E-05
3.841549E+03	3.111959E-03	1.757421E-05
3.851527E+03	3.287499E-03	1.856553E-05
3.861505E+03	3.476276E-03	1.963161E-05
3.871483E+03	3.675676E-03	2.075767E-05
3.881461E+03	3.882504E-03	2.192568E-05
3.891439E+03	4.093152E-03	2.311526E-05
3.901417E+03	4.303917E-03	2.430551E-05
3.911395E+03	4.510890E-03	2.547433E-05
3.921373E+03	4.710294E-03	2.660041E-05
3.931351E+03	4.898912E-03	2.766558E-05
3.941329E+03	5.073476E-03	2.865138E-05
3.951307E+03	5.231125E-03	2.954166E-05
3.961285E+03	5.369333E-03	3.032215E-05
3.971263E+03	5.485868E-03	3.098024E-05
3.981241E+03	5.579391E-03	3.150837E-05
3.991219E+03	5.648752E-03	3.190006E-05
4.001197E+03	5.693988E-03	3.215551E-05
4.011175E+03	5.715940E-03	3.227946E-05
4.021153E+03	5.716280E-03	3.228137E-05
4.031132E+03	5.697807E-03	3.217703E-05
4.041110E+03	5.663897E-03	3.198552E-05
4.051088E+03	5.618256E-03	3.172776E-05
4.061066E+03	5.564862E-03	3.142622E-05
4.071044E+03	5.507575E-03	3.110269E-05
4.081022E+03	5.450023E-03	3.077767E-05
4.091000E+03	5.395138E-03	3.046771E-05
4.100978E+03	5.345444E-03	3.018705E-05
4.110956E+03	5.302959E-03	2.994712E-05
4.120934E+03	5.269280E-03	2.975691E-05
4.130912E+03	5.245577E-03	2.962304E-05
4.140890E+03	5.233087E-03	2.955250E-05
4.150868E+03	5.232377E-03	2.954847E-05
4.160846E+03	5.244424E-03	2.961650E-05
4.170824E+03	5.269491E-03	2.975804E-05
4.180802E+03	5.307716E-03	2.997390E-05
4.190780E+03	9.089981E-03	5.133320E-05
4.191778E+03	9.111284E-03	5.145350E-05
4.192776E+03	9.134646E-03	5.158543E-05
4.193774E+03	9.167973E-03	5.177363E-05
4.194772E+03	9.210391E-03	5.201317E-05
4.195769E+03	9.254582E-03	5.226273E-05
4.196767E+03	9.288246E-03	5.245283E-05
4.197765E+03	9.293799E-03	5.248419E-05
4.198763E+03	9.267418E-03	5.233521E-05
4.199761E+03	9.211141E-03	5.201740E-05
4.200758E+03	9.134331E-03	5.158363E-05
4.201756E+03	9.049585E-03	5.110505E-05
4.202754E+03	8.965989E-03	5.063296E-05
4.203752E+03	8.892046E-03	5.021539E-05
4.204750E+03	8.836561E-03	4.990205E-05
4.205747E+03	8.802475E-03	4.970955E-05
4.206745E+03	8.784810E-03	4.960979E-05
4.207743E+03	8.774479E-03	4.955145E-05
4.208741E+03	8.753288E-03	4.943178E-05
4.209739E+03	8.715656E-03	4.921926E-05
4.210736E+03	8.664805E-03	4.893209E-05
4.211734E+03	8.611885E-03	4.863324E-05
4.212732E+03	8.575983E-03	4.843049E-05
4.213730E+03	8.557990E-03	4.832888E-05
4.214728E+03	8.551157E-03	4.829029E-05
4.215725E+03	8.538742E-03	4.822018E-05
4.216723E+03	8.502230E-03	4.801398E-05
4.217721E+03	8.441315E-03	4.766998E-05
4.218719E+03	8.362157E-03	4.722295E-05
4.219717E+03	8.281801E-03	4.676916E-05
4.220714E+03	8.213182E-03	4.638166E-05
4.221712E+03	8.160720E-03	4.608539E-05
4.222710E+03	8.124126E-03	4.587874E-05
4.223708E+03	8.099292E-03	4.573849E-05
4.224706E+03	8.062977E-03	4.553341E-05
4.225703E+03	8.016352E-03	4.527011E-05
4.226701E+03	7.961473E-03	4.496019E-05
4.227699E+03	7.899512E-03	4.461028E-05
4.228697E+03	7.831645E-03	4.422702E-05
4.229695E+03	7.759635E-03	4.382036E-05
4.230692E+03	7.684363E-03	4.339528E-05
4.231690E+03	7.607006E-03	4.295843E-05
4.232688E+03	7.528153E-03	4.251313E-05
4.233686E+03	7.449569E-03	4.206935E-05
4.234684E+03	7.371552E-03	4.162876E-05
4.235682E+03	7.294985E-03	4.119637E-05
4.236679E+03	7.220457E-03	4.077549E-05
4.237677E+03	7.149151E-03	4.037281E-05
4.238675E+03	7.081361E-03	3.998999E-05
4.239673E+03	7.026532E-03	3.968035E-05
4.240671E+03	6.993814E-03	3.949558E-05
4.241668E+03	6.981154E-03	3.942409E-05
4.242666E+03	6.975576E-03	3.939259E-05
4.243664E+03	6.972064E-03	3.937275E-05
4.244662E+03	6.965897E-03	3.933792E-05
4.245660E+03	6.953233E-03	3.926641E-05
4.246657E+03	6.933183E-03	3.915318E-05
4.247655E+03	6.909289E-03	3.901824E-05
4.248653E+03	6.888639E-03	3.890162E-05
4.249651E+03	6.884532E-03	3.887843E-05
4.250649E+03	6.902002E-03	3.897709E-05
4.251646E+03	6.938401E-03	3.918264E-05
4.252644E+03	6.984867E-03	3.944504E-05
4.253642E+03	7.025143E-03	3.967249E-05
4.254640E+03	7.053900E-03	3.983488E-05
4.255638E+03	7.071132E-03	3.993219E-05
4.256635E+03	7.082159E-03	3.999446E-05
4.257633E+03	7.097040E-03	4.007850E-05
4.258631E+03	7.117849E-03	4.019601E-05
4.259629E+03	7.145180E-03	4.035035E-05
4.260627E+03	7.175485E-03	4.052149E-05
4.261624E+03	7.204618E-03	4.068601E-05
4.262622E+03	7.232876E-03	4.084558E-05
4.263620E+03	7.261147E-03	4.100523E-05
4.264618E+03	7.292690E-03	4.118336E-05
4.265616E+03	7.328100E-03	4.138333E-05
4.266613E+03	7.366192E-03	4.159844E-05
4.267611E+03	7.404005E-03	4.181198E-05
4.268609E+03	7.438276E-03	4.200551E-05
4.269607E+03	7.464555E-03	4.215391E-05
4.270605E+03	7.478684E-03	4.223370E-05
4.271602E+03	7.475019E-03	4.221300E-05
4.272600E+03	7.449100E-03	4.206663E-05
4.273598E+03	7.404773E-03	4.181631E-05
4.274596E+03	7.349151E-03	4.150219E-05
4.275594E+03	7.297075E-03	4.120811E-05
4.276591E+03	7.258939E-03	4.099274E-05
4.277589E+03	7.236532E-03	4.086621E-05
4.278587E+03	7.226300E-03	4.080842E-05
4.279585E+03	7.216364E-03	4.075231E-05
4.280583E+03	7.202266E-03	4.067270E-05
4.281581E+03	7.177761E-03	4.053431E-05
4.282578E+03	7.151467E-03	4.038582E-05
4.283576E+03	7.139735E-03	4.031956E-05
4.284574E+03	7.154173E-03	4.040110E-05
4.285572E+03	7.197473E-03	4.064562E-05
4.286570E+03	7.261618E-03	4.100786E-05
4.287567E+03	7.329957E-03	4.139378E-05
4.288565E+03	7.378680E-03	4.166893E-05
4.289563E+03	7.394083E-03	4.175591E-05
4.290561E+03	7.371382E-03	4.162771E-05
4.291559E+03	7.316215E-03	4.131617E-05
4.292556E+03	7.245837E-03	4.091873E-05
4.293554E+03	7.172455E-03	4.050432E-05
4.294552E+03	7.108286E-03	4.014195E-05
4.295550E+03	7.059889E-03	3.986864E-05
4.296548E+03	7.031151E-03	3.970635E-05
4.297545E+03	7.025361E-03	3.967365E-05
4.298543E+03	7.044621E-03	3.978241E-05
4.299541E+03	7.089841E-03	4.003778E-05
4.300539E+03	7.160140E-03	4.043477E-05
4.301537E+03	7.251655E-03	4.095157E-05
4.302534E+03	7.349177E-03	4.150229E-05
4.303532E+03	7.444948E-03	4.204313E-05
4.304530E+03	7.532698E-03	4.253867E-05
4.305528E+03	7.607645E-03	4.296191E-05
4.306526E+03	7.666794E-03	4.329594E-05
4.307523E+03	7.710436E-03	4.354239E-05
4.308521E+03	7.738857E-03	4.370289E-05
4.309519E+03	7.754143E-03	4.378921E-05
4.310517E+03	7.759275E-03	4.381819E-05
4.311515E+03	7.758731E-03	4.381511E-05
4.312512E+03	7.757890E-03	4.381036E-05
4.313510E+03	7.763034E-03	4.383941E-05
4.314508E+03	7.784636E-03	4.396140E-05
4.315506E+03	7.826895E-03	4.420004E-05
4.316504E+03	7.886831E-03	4.453851E-05
4.317501E+03	7.954576E-03	4.492108E-05
4.318499E+03	8.007082E-03	4.521759E-05
4.319497E+03	8.032062E-03	4.535866E-05
4.320495E+03	8.023509E-03	4.531035E-05
4.321493E+03	7.988293E-03	4.511148E-05
4.322491E+03	7.941678E-03	4.484823E-05
4.323488E+03	7.898344E-03	4.460352E-05
4.324486E+03	7.858292E-03	4.437733E-05
4.325484E+03	7.814029E-03	4.412737E-05
4.326482E+03	7.758654E-03	4.381465E-05
4.327480E+03	7.692461E-03	4.344085E-05
4.328477E+03	7.619944E-03	4.303133E-05
4.329475E+03	7.553700E-03	4.265723E-05
4.330473E+03	7.502138E-03	4.236605E-05
4.331471E+03	7.469169E-03	4.217987E-05
4.332469E+03	7.454205E-03	4.209536E-05
4.333466E+03	7.452150E-03	4.208375E-05
4.334464E+03	7.459109E-03	4.212305E-05
4.335462E+03	7.471482E-03	4.219292E-05
4.336460E+03	7.483260E-03	4.225943E-05
4.337458E+03	7.489335E-03	4.229374E-05
4.338455E+03	7.485795E-03	4.227375E-05
4.339453E+03	7.470228E-03	4.218584E-05
4.340451E+03	7.447440E-03	4.205714E-05
4.341449E+03	7.421635E-03	4.191141E-05
4.342447E+03	7.393715E-03	4.175375E-05
4.343444E+03	7.361272E-03	4.157053E-05
4.344442E+03	7.311058E-03	4.128696E-05
4.345440E+03	7.236438E-03	4.086556E-05
4.346438E+03	7.136793E-03	4.030285E-05
4.347436E+03	7.019035E-03	3.963785E-05
4.348433E+03	6.902736E-03	3.898108E-05
4.349431E+03	6.800251E-03	3.840233E-05
4.350429E+03	6.720028E-03	3.794929E-05
4.351427E+03	6.663589E-03	3.763057E-05
4.352425E+03	6.626425E-03	3.742069E-05
4.353422E+03	6.604327E-03	3.729590E-05
4.354420E+03	6.592479E-03	3.722899E-05
4.355418E+03	6.577609E-03	3.714502E-05
4.356416E+03	6.548250E-03	3.697922E-05
4.357414E+03	6.497448E-03	3.669233E-05
4.358411E+03	6.422775E-03	3.627064E-05
4.359409E+03	6.342032E-03	3.581466E-05
4.360407E+03	6.266390E-03	3.538750E-05
4.361405E+03	6.203709E-03	3.503352E-05
4.362403E+03	6.150671E-03	3.473401E-05
4.363401E+03	6.088545E-03	3.438317E-05
4.364398E+03	6.010674E-03	3.394342E-05
4.365396E+03	5.916744E-03	3.341297E-05
4.366394E+03	5.819749E-03	3.286522E-05
4.367392E+03	5.739957E-03	3.241462E-05
4.368390E+03	5.685550E-03	3.210737E-05
4.369387E+03	5.657753E-03	3.195040E-05
4.370385E+03	5.642963E-03	3.186687E-05
4.371383E+03	5.627864E-03	3.178160E-05
4.372381E+03	5.602767E-03	3.163988E-05
4.373379E+03	5.561302E-03	3.140572E-05
4.374376E+03	5.501339E-03	3.106709E-05
4.375374E+03	5.444381E-03	3.074544E-05
4.376372E+03	5.391037E-03	3.044419E-05
4.377370E+03	5.341916E-03	3.016680E-05
4.378368E+03	5.297322E-03	2.991497E-05
4.379365E+03	5.258171E-03	2.969387E-05
4.380363E+03	5.225374E-03	2.950866E-05
4.381361E+03	5.199241E-03	2.936108E-05
4.382359E+03	5.180686E-03	2.925630E-05
4.383357E+03	5.171232E-03	2.920291E-05
4.384354E+03	5.171492E-03	2.920438E-05
4.385352E+03	5.182387E-03	2.926590E-05
4.386350E+03	5.205743E-03	2.939779E-05
4.387348E+03	5.242481E-03	2.960526E-05
4.388346E+03	5.294132E-03	2.989694E-05
4.389343E+03	5.362224E-03	3.028147E-05
4.390341E+03	5.436736E-03	3.070225E-05
4.391339E+03	5.505199E-03	3.108887E-05
4.392337E+03	5.563656E-03	3.141899E-05
4.393335E+03	5.620620E-03	3.174067E-05
4.394332E+03	5.680657E-03	3.207971E-05
4.395330E+03	5.748637E-03	3.246361E-05
4.396328E+03	5.831267E-03	3.293023E-05
4.397326E+03	5.933126E-03	3.350545E-05
4.398324E+03	6.054530E-03	3.419104E-05
4.399321E+03	6.190620E-03	3.495956E-05
4.400319E+03	6.327079E-03	3.573016E-05
4.401317E+03	6.452018E-03	3.643572E-05
4.402315E+03	6.561466E-03	3.705379E-05
4.403313E+03	6.657548E-03	3.759638E-05
4.404311E+03	6.755201E-03	3.814784E-05
4.405308E+03	6.858090E-03	3.872888E-05
4.406306E+03	6.970186E-03	3.936190E-05
4.407304E+03	7.089051E-03	4.003315E-05
4.408302E+03	7.206449E-03	4.069611E-05
4.409300E+03	7.322070E-03	4.134905E-05
4.410297E+03	7.432862E-03	4.197471E-05
4.411295E+03	7.540346E-03	4.258169E-05
4.412293E+03	7.646354E-03	4.318033E-05
4.413291E+03	7.750276E-03	4.376719E-05
4.414289E+03	7.850273E-03	4.433190E-05
4.415286E+03	7.941144E-03	4.484506E-05
4.416284E+03	8.019212E-03	4.528592E-05
4.417282E+03	8.081712E-03	4.563887E-05
4.418280E+03	8.128634E-03	4.590384E-05
4.419278E+03	8.161498E-03	4.608943E-05
4.420275E+03	8.183050E-03	4.621114E-05
4.421273E+03	8.199713E-03	4.630523E-05
4.422271E+03	8.219756E-03	4.641842E-05
4.423269E+03	8.254829E-03	4.661648E-05
4.424267E+03	8.309230E-03	4.692369E-05
4.425264E+03	8.382670E-03	4.733842E-05
4.426262E+03	8.464734E-03	4.780185E-05
4.427260E+03	8.543159E-03	4.824473E-05
4.428258E+03	8.613034E-03	4.863932E-05
4.429256E+03	8.674351E-03	4.898558E-05
4.430253E+03	8.737543E-03	4.934244E-05
4.431251E+03	8.808751E-03	4.974456E-05
4.432249E+03	8.888595E-03	5.019545E-05
4.433247E+03	8.972475E-03	5.066914E-05
4.434245E+03	9.047180E-03	5.109101E-05
4.435242E+03	9.104712E-03	5.141590E-05
4.436240E+03	9.141371E-03	5.162292E-05
4.437238E+03	9.158678E-03	5.172065E-05
4.438236E+03	9.163386E-03	5.174723E-05
4.439234E+03	9.158562E-03	5.171999E-05
4.440231E+03	9.150660E-03	5.167537E-05
4.441229E+03	9.144296E-03	5.163943E-05
4.442227E+03	9.143166E-03	5.163304E-05
4.443225E+03	9.149736E-03	5.167014E-05
4.444223E+03	9.164628E-03	5.175424E-05
4.445221E+03	9.186308E-03	5.187667E-05
4.446218E+03	9.213549E-03	5.203050E-05
4.447216E+03	9.243272E-03	5.219835E-05
4.448214E+03	9.273011E-03	5.236629E-05
4.449212E+03	9.300302E-03	5.252040E-05
4.450210E+03	9.322364E-03	5.264499E-05
4.451207E+03	9.337342E-03	5.272957E-05
4.452205E+03	9.341837E-03	5.275495E-05
4.453203E+03	9.344792E-03	5.277164E-05
4.454201E+03	9.345899E-03	5.277789E-05
4.455199E+03	9.346082E-03	5.277892E-05
4.456196E+03	9.345033E-03	5.277299E-05
4.457194E+03	9.342749E-03	5.276009E-05
4.458192E+03	9.340157E-03	5.274545E-05
4.459190E+03	9.336947E-03	5.272732E-05
4.460188E+03	9.333739E-03	5.270921E-05
4.461185E+03	9.330532E-03	5.269109E-05
4.462183E+03	9.327944E-03	5.267647E-05
4.463181E+03	9.325976E-03	5.266536E-05
4.464179E+03	9.325246E-03	5.266124E-05
4.465177E+03	9.326069E-03	5.266588E-05
4.466174E+03	9.328441E-03	5.267928E-05
4.467172E+03	9.333607E-03	5.270845E-05
4.468170E+03	9.334438E-03	5.271314E-05
4.469168E+03	9.333103E-03	5.270559E-05
4.470166E+03	9.336110E-03	5.272257E-05
4.471163E+03	9.346564E-03	5.278161E-05
4.472161E+03	9.365711E-03	5.288973E-05
4.473159E+03	9.393868E-03	5.304874E-05
4.474157E+03	9.422353E-03	5.320960E-05
4.475155E+03	9.450855E-03	5.337055E-05
4.476152E+03	9.480304E-03	5.353685E-05
4.477150E+03	9.510394E-03	5.370677E-05
4.478148E+03	9.540811E-03	5.387854E-05
4.479146E+03	9.570313E-03	5.404514E-05
4.480144E+03	9.599213E-03	5.420834E-05
4.481141E+03	9.627507E-03	5.436812E-05
4.482139E+03	9.657374E-03	5.453678E-05
4.483137E+03	9.690057E-03	5.472135E-05
4.484135E+03	9.726805E-03	5.492887E-05
4.485133E+03	9.768245E-03	5.516288E-05
4.486131E+03	9.808148E-03	5.538822E-05
4.487128E+03	9.844033E-03	5.559087E-05
4.488126E+03	9.878683E-03	5.578654E-05
4.489124E+03	9.917098E-03	5.600347E-05
4.490122E+03	9.962393E-03	5.625926E-05
4.491120E+03	1.001520E-02	5.655747E-05
4.492117E+03	1.007395E-02	5.688924E-05
4.493115E+03	1.013586E-02	5.723885E-05
4.494113E+03	1.019749E-02	5.758688E-05
4.495111E+03	1.025760E-02	5.792633E-05
4.496109E+03	1.031462E-02	5.824832E-05
4.497106E+03	1.037011E-02	5.856168E-05
4.498104E+03	1.042626E-02	5.887876E-05
4.499102E+03	1.048525E-02	5.921191E-05
4.500100E+03	1.055084E-02	5.958229E-05
4.501098E+03	1.062085E-02	5.997762E-05
4.502095E+03	1.069182E-02	6.037843E-05
4.503093E+03	1.075596E-02	6.074066E-05
4.504091E+03	1.080544E-02	6.102004E-05
4.505089E+03	1.083460E-02	6.118472E-05
4.506087E+03	1.084219E-02	6.122757E-05
4.507084E+03	1.083288E-02	6.117503E-05
4.508082E+03	1.081543E-02	6.107648E-05
4.509080E+03	1.080393E-02	6.101149E-05
4.510078E+03	1.080870E-02	6.103844E-05
4.511076E+03	1.084107E-02	6.122126E-05
4.512073E+03	1.090041E-02	6.155636E-05
4.513071E+03	1.097955E-02	6.200328E-05
4.514069E+03	1.106689E-02	6.249646E-05
4.515067E+03	1.114548E-02	6.294031E-05
4.516065E+03	1.121033E-02	6.330651E-05
4.517062E+03	1.126139E-02	6.359485E-05
4.518060E+03	1.130622E-02	6.384798E-05
4.519058E+03	1.135388E-02	6.411717E-05
4.520056E+03	1.140755E-02	6.442022E-05
4.521054E+03	1.146849E-02	6.476436E-05
4.522051E+03	1.153448E-02	6.513700E-05
4.523049E+03	1.160335E-02	6.552591E-05
4.524047E+03	1.167226E-02	6.591506E-05
4.525045E+03	1.173837E-02	6.628840E-05
4.526043E+03	1.179792E-02	6.662467E-05
4.527041E+03	1.185026E-02	6.692029E-05
4.528038E+03	1.189603E-02	6.717872E-05
4.529036E+03	1.193774E-02	6.741425E-05
4.530034E+03	1.197977E-02	6.765162E-05
4.531032E+03	1.202436E-02	6.790345E-05
4.532030E+03	1.207402E-02	6.818389E-05
4.533027E+03	1.213034E-02	6.850192E-05
4.534025E+03	1.219489E-02	6.886641E-05
4.535023E+03	1.226295E-02	6.925075E-05
4.536021E+03	1.232853E-02	6.962110E-05
4.537019E+03	1.238088E-02	6.991676E-05
4.538016E+03	1.241370E-02	7.010209E-05
4.539014E+03	1.242633E-02	7.017341E-05
4.540012E+03	1.242318E-02	7.015557E-05
4.541010E+03	1.241370E-02	7.010207E-05
4.542008E+03	1.240455E-02	7.005038E-05
4.543005E+03	1.240108E-02	7.003077E-05
4.544003E+03	1.240679E-02	7.006302E-05
4.545001E+03	1.242452E-02	7.016317E-05
4.545999E+03	1.245239E-02	7.032056E-05
