#wls	flux	fluxerr
1.596488E+03	5.454695E-05	8.234537E-07
1.636400E+03	5.104300E-05	7.694051E-07
1.676312E+03	4.776894E-05	7.189451E-07
1.716224E+03	4.472917E-05	6.721290E-07
1.756136E+03	4.192189E-05	6.289184E-07
1.796049E+03	3.934006E-05	5.891956E-07
1.835961E+03	3.698243E-05	5.529297E-07
1.875873E+03	3.484096E-05	5.199875E-07
1.915785E+03	3.291092E-05	4.902853E-07
1.955697E+03	3.119327E-05	4.638237E-07
1.995610E+03	2.967934E-05	4.404595E-07
2.035522E+03	2.837968E-05	4.203343E-07
2.075434E+03	2.730019E-05	4.035190E-07
2.115346E+03	2.645885E-05	3.902608E-07
2.155258E+03	2.587096E-05	3.807641E-07
2.195171E+03	2.554632E-05	3.751496E-07
2.235083E+03	2.548317E-05	3.733663E-07
2.274995E+03	2.568181E-05	3.753917E-07
2.314907E+03	2.614549E-05	3.812450E-07
2.354819E+03	2.688764E-05	3.910921E-07
2.394732E+03	2.792093E-05	4.050837E-07
2.434644E+03	2.926187E-05	4.234229E-07
2.474556E+03	3.092413E-05	4.462674E-07
2.514468E+03	3.290437E-05	4.735263E-07
2.554380E+03	3.518722E-05	5.049340E-07
2.594293E+03	3.772864E-05	5.398159E-07
2.634205E+03	4.046293E-05	5.771933E-07
2.674117E+03	4.328689E-05	6.155648E-07
2.714029E+03	4.608360E-05	6.532509E-07
2.753941E+03	4.872697E-05	6.884641E-07
2.793854E+03	5.110561E-05	7.196476E-07
2.833766E+03	5.313591E-05	7.456567E-07
2.873678E+03	5.477882E-05	7.659883E-07
2.913590E+03	5.605025E-05	7.809151E-07
2.953502E+03	5.701619E-05	7.914043E-07
2.993414E+03	5.780032E-05	7.992094E-07
3.003393E+03	5.798825E-05	8.010245E-07
3.013371E+03	5.817671E-05	8.028376E-07
3.023349E+03	5.836910E-05	8.046952E-07
3.033327E+03	5.857505E-05	8.067299E-07
3.043305E+03	5.878959E-05	8.088723E-07
3.053283E+03	5.902601E-05	8.113052E-07
3.063261E+03	5.928266E-05	8.140045E-07
3.073239E+03	5.956718E-05	8.170745E-07
3.083217E+03	5.988459E-05	8.205822E-07
3.093195E+03	6.023725E-05	8.245589E-07
3.103173E+03	6.063694E-05	8.291639E-07
3.113151E+03	6.108391E-05	8.343984E-07
3.123129E+03	6.158786E-05	8.403927E-07
3.133107E+03	6.215906E-05	8.472842E-07
3.143085E+03	6.279938E-05	8.550953E-07
3.153063E+03	6.352033E-05	8.639791E-07
3.163041E+03	6.433119E-05	8.740583E-07
3.173019E+03	6.524513E-05	8.855073E-07
3.182997E+03	6.627014E-05	8.984296E-07
3.192975E+03	6.741513E-05	9.129405E-07
3.202954E+03	6.869956E-05	9.292977E-07
3.212932E+03	7.013805E-05	9.476921E-07
3.222910E+03	7.174011E-05	9.682445E-07
3.232888E+03	7.352984E-05	9.912720E-07
3.242866E+03	7.552680E-05	1.017029E-06
3.252844E+03	7.774911E-05	1.045749E-06
3.262822E+03	8.022047E-05	1.077740E-06
3.272800E+03	8.297074E-05	1.113389E-06
3.282778E+03	8.602924E-05	1.153076E-06
3.292756E+03	8.942451E-05	1.197168E-06
3.302734E+03	9.319631E-05	1.246179E-06
3.312712E+03	9.738003E-05	1.300564E-06
3.322690E+03	1.020280E-04	1.360999E-06
3.332668E+03	1.071803E-04	1.427994E-06
3.342646E+03	1.128945E-04	1.502292E-06
3.352624E+03	1.192297E-04	1.584645E-06
3.362602E+03	1.262501E-04	1.675878E-06
3.372580E+03	1.340319E-04	1.776963E-06
3.382558E+03	1.426412E-04	1.888735E-06
3.392536E+03	1.521660E-04	2.012316E-06
3.402514E+03	1.627023E-04	2.148925E-06
3.412493E+03	1.743401E-04	2.299695E-06
3.422471E+03	1.871809E-04	2.465906E-06
3.432449E+03	2.013398E-04	2.649005E-06
3.442427E+03	2.169212E-04	2.850296E-06
3.452405E+03	2.340402E-04	3.071211E-06
3.462383E+03	2.528235E-04	3.313325E-06
3.472361E+03	2.733906E-04	3.578113E-06
3.482339E+03	2.958482E-04	3.866870E-06
3.492317E+03	3.203204E-04	4.181111E-06
3.502295E+03	3.469152E-04	4.522131E-06
3.512273E+03	3.757322E-04	4.891109E-06
3.522251E+03	4.068448E-04	5.288871E-06
3.532229E+03	4.403569E-04	5.716636E-06
3.542207E+03	4.762972E-04	6.174639E-06
3.552185E+03	5.147415E-04	6.663720E-06
3.562163E+03	5.556996E-04	7.183859E-06
3.572141E+03	5.991796E-04	7.735012E-06
3.582119E+03	6.451731E-04	8.316924E-06
3.592097E+03	6.936579E-04	8.929157E-06
3.602075E+03	7.446254E-04	9.571448E-06
3.612053E+03	7.980387E-04	1.024317E-05
3.622032E+03	8.538010E-04	1.094294E-05
3.632010E+03	9.119554E-04	1.167116E-05
3.641988E+03	9.724118E-04	1.242652E-05
3.651966E+03	1.035148E-03	1.320859E-05
3.661944E+03	1.100190E-03	1.401757E-05
3.671922E+03	1.167558E-03	1.485356E-05
3.681900E+03	1.237296E-03	1.571696E-05
3.691878E+03	1.309430E-03	1.660796E-05
3.701856E+03	1.384096E-03	1.752810E-05
3.711834E+03	1.461413E-03	1.847873E-05
3.721812E+03	1.541523E-03	1.946147E-05
3.731790E+03	1.624590E-03	2.047820E-05
3.741768E+03	1.710780E-03	2.153082E-05
3.751746E+03	1.800267E-03	2.262128E-05
3.761724E+03	1.893205E-03	2.375133E-05
3.771702E+03	1.989666E-03	2.492160E-05
3.781680E+03	2.089841E-03	2.613427E-05
3.791658E+03	2.193682E-03	2.738848E-05
3.801636E+03	2.301100E-03	2.868288E-05
3.811614E+03	2.411886E-03	3.001461E-05
3.821592E+03	2.525688E-03	3.137906E-05
3.831571E+03	2.641992E-03	3.276965E-05
3.841549E+03	2.760120E-03	3.417779E-05
3.851527E+03	2.879229E-03	3.559291E-05
3.861505E+03	2.998336E-03	3.700280E-05
3.871483E+03	3.116422E-03	3.839486E-05
3.881461E+03	3.232146E-03	3.975265E-05
3.891439E+03	3.344380E-03	4.106242E-05
3.901417E+03	3.452013E-03	4.231074E-05
3.911395E+03	3.553730E-03	4.348179E-05
3.921373E+03	3.648567E-03	4.456417E-05
3.931351E+03	3.735686E-03	4.554805E-05
3.941329E+03	3.814121E-03	4.642216E-05
3.951307E+03	3.883327E-03	4.718041E-05
3.961285E+03	3.942836E-03	4.781773E-05
3.971263E+03	3.992260E-03	4.833001E-05
3.981241E+03	4.031665E-03	4.871872E-05
3.991219E+03	4.060930E-03	4.898303E-05
4.001197E+03	4.080406E-03	4.912784E-05
4.011175E+03	4.090443E-03	4.915800E-05
4.021153E+03	4.091756E-03	4.908271E-05
4.031132E+03	4.085126E-03	4.891190E-05
4.041110E+03	4.071374E-03	4.865592E-05
4.051088E+03	4.051506E-03	4.832727E-05
4.061066E+03	4.026584E-03	4.793899E-05
4.071044E+03	3.997760E-03	4.750512E-05
4.081022E+03	3.965991E-03	4.703731E-05
4.091000E+03	3.932189E-03	4.654654E-05
4.100978E+03	3.897442E-03	4.604582E-05
4.110956E+03	3.862440E-03	4.554337E-05
4.120934E+03	3.828042E-03	4.504932E-05
4.130912E+03	3.794967E-03	4.457208E-05
4.140890E+03	3.763802E-03	4.411844E-05
4.150868E+03	3.735168E-03	4.369557E-05
4.160846E+03	3.709716E-03	4.331088E-05
4.170824E+03	3.687910E-03	4.296956E-05
4.180802E+03	3.670234E-03	4.267700E-05
4.190780E+03	3.657053E-03	4.243714E-05
4.200758E+03	3.648873E-03	4.225553E-05
4.210736E+03	3.645801E-03	4.213303E-05
4.220714E+03	3.648283E-03	4.207446E-05
4.230692E+03	3.656322E-03	4.207944E-05
4.240671E+03	3.670223E-03	4.215107E-05
4.250649E+03	3.690020E-03	4.228932E-05
4.260627E+03	3.715954E-03	4.249650E-05
4.270605E+03	3.748215E-03	4.277436E-05
4.280583E+03	3.786941E-03	4.312397E-05
4.290561E+03	3.832372E-03	4.354762E-05
4.300539E+03	3.884486E-03	4.404452E-05
4.310517E+03	3.943389E-03	4.461539E-05
4.320495E+03	4.008667E-03	4.525504E-05
4.330473E+03	4.080065E-03	4.596011E-05
4.340451E+03	4.156754E-03	4.672083E-05
4.350429E+03	4.237848E-03	4.752685E-05
4.360407E+03	4.322332E-03	4.836646E-05
4.370385E+03	4.409555E-03	4.923213E-05
4.380363E+03	4.499034E-03	5.011827E-05
4.390341E+03	4.591085E-03	5.102820E-05
4.400319E+03	4.686704E-03	5.197275E-05
4.410297E+03	4.787308E-03	5.296733E-05
4.420275E+03	4.894403E-03	5.402814E-05
4.430253E+03	5.009234E-03	5.516842E-05
4.440231E+03	5.132449E-03	5.639466E-05
4.450210E+03	5.264050E-03	5.770624E-05
4.460188E+03	5.403222E-03	5.909356E-05
4.470166E+03	5.548230E-03	6.053712E-05
4.480144E+03	5.696818E-03	6.201186E-05
4.490122E+03	5.845692E-03	6.348173E-05
4.500100E+03	5.991532E-03	6.491073E-05
4.510078E+03	6.130635E-03	6.625905E-05
4.520056E+03	6.259113E-03	6.748527E-05
4.530034E+03	6.373521E-03	6.855315E-05
4.540012E+03	6.470575E-03	6.942856E-05
4.549990E+03	6.547643E-03	7.008465E-05
4.559968E+03	6.602578E-03	7.050006E-05
4.569946E+03	6.633809E-03	7.065982E-05
4.579924E+03	6.640526E-03	7.055716E-05
4.589902E+03	6.623017E-03	7.019708E-05
4.599880E+03	6.582184E-03	6.959105E-05
4.609858E+03	6.519817E-03	6.875979E-05
4.619836E+03	6.438695E-03	6.773425E-05
4.629814E+03	6.342109E-03	6.655048E-05
4.639792E+03	6.233912E-03	6.525006E-05
4.649771E+03	6.118275E-03	6.387747E-05
4.659749E+03	5.999190E-03	6.247490E-05
4.669727E+03	5.880489E-03	6.108245E-05
4.679705E+03	5.765511E-03	5.973472E-05
4.689683E+03	5.657260E-03	5.846245E-05
4.699661E+03	5.557820E-03	5.728661E-05
4.709639E+03	5.468850E-03	5.622358E-05
4.719617E+03	5.391247E-03	5.528172E-05
4.729595E+03	5.325487E-03	5.446502E-05
4.739573E+03	5.271441E-03	5.377121E-05
4.749551E+03	5.228652E-03	5.319473E-05
4.759529E+03	5.196404E-03	5.272742E-05
4.769507E+03	5.173586E-03	5.235719E-05
4.779485E+03	5.158910E-03	5.207030E-05
4.789463E+03	5.150872E-03	5.185097E-05
4.799441E+03	5.147762E-03	5.168150E-05
4.809419E+03	5.147699E-03	5.154267E-05
4.819397E+03	5.148693E-03	5.141438E-05
4.829375E+03	5.148742E-03	5.127662E-05
4.839353E+03	5.145960E-03	5.111074E-05
4.849331E+03	5.138733E-03	5.090099E-05
4.859310E+03	5.125857E-03	5.063585E-05
4.869288E+03	5.106644E-03	5.030902E-05
4.879266E+03	5.080912E-03	4.991921E-05
4.889244E+03	5.049194E-03	4.947220E-05
4.899222E+03	5.012322E-03	4.897659E-05
4.909200E+03	4.971548E-03	4.844503E-05
4.919178E+03	4.928376E-03	4.789244E-05
4.929156E+03	4.884398E-03	4.733446E-05
4.939134E+03	4.841439E-03	4.678881E-05
4.949112E+03	4.801168E-03	4.627148E-05
4.959090E+03	4.765339E-03	4.579914E-05
4.969068E+03	4.735502E-03	4.538630E-05
4.979046E+03	4.713342E-03	4.504859E-05
4.989024E+03	4.700284E-03	4.479899E-05
4.999002E+03	4.697701E-03	4.464983E-05
5.008980E+03	4.706610E-03	4.460995E-05
5.018958E+03	4.728012E-03	4.468790E-05
5.028936E+03	4.762325E-03	4.488664E-05
5.038914E+03	4.809734E-03	4.520693E-05
5.048892E+03	4.869921E-03	4.564475E-05
5.058870E+03	4.942264E-03	4.619332E-05
5.068849E+03	5.025722E-03	4.684202E-05
5.078827E+03	5.118956E-03	4.757755E-05
5.088805E+03	5.220466E-03	4.838530E-05
5.098783E+03	5.328478E-03	4.924823E-05
5.108761E+03	5.441364E-03	5.015091E-05
5.118739E+03	5.557584E-03	5.107883E-05
5.128717E+03	5.675633E-03	5.201799E-05
5.138695E+03	5.794327E-03	5.295747E-05
5.148673E+03	5.912661E-03	5.388813E-05
5.158651E+03	6.029807E-03	5.480251E-05
5.168629E+03	6.145287E-03	5.569644E-05
5.178607E+03	6.258753E-03	5.656693E-05
5.188585E+03	6.369984E-03	5.741222E-05
5.198563E+03	6.478818E-03	5.823108E-05
5.208541E+03	6.585067E-03	5.902205E-05
5.218519E+03	6.688510E-03	5.978342E-05
5.228497E+03	6.788618E-03	6.051075E-05
5.238475E+03	6.884792E-03	6.119902E-05
5.248453E+03	6.976072E-03	6.184006E-05
5.258431E+03	7.061431E-03	6.242522E-05
5.268409E+03	7.139607E-03	6.294387E-05
5.278388E+03	7.209316E-03	6.338529E-05
5.288366E+03	7.269034E-03	6.373681E-05
5.298344E+03	7.317551E-03	6.398860E-05
5.308322E+03	7.353833E-03	6.413249E-05
5.318300E+03	7.377016E-03	6.416189E-05
5.328278E+03	7.386345E-03	6.407120E-05
5.338256E+03	7.381693E-03	6.386032E-05
5.348234E+03	7.362760E-03	6.352767E-05
5.358212E+03	7.329631E-03	6.307499E-05
5.368190E+03	7.282446E-03	6.250444E-05
5.378168E+03	7.221476E-03	6.181932E-05
5.388146E+03	7.147260E-03	6.102515E-05
5.398124E+03	7.060425E-03	6.012814E-05
5.408102E+03	6.962368E-03	5.914098E-05
5.418080E+03	6.854966E-03	5.808026E-05
5.428058E+03	6.741162E-03	5.697145E-05
5.438036E+03	6.624854E-03	5.584776E-05
5.448014E+03	6.511145E-03	5.475223E-05
5.457992E+03	6.405714E-03	5.373230E-05
5.467970E+03	6.313746E-03	5.283077E-05
5.477949E+03	6.238497E-03	5.207396E-05
5.487927E+03	6.180049E-03	5.146153E-05
5.497905E+03	6.135377E-03	5.096728E-05
5.507883E+03	6.098817E-03	5.054342E-05
5.517861E+03	6.063849E-03	5.013550E-05
5.527839E+03	6.024347E-03	4.969289E-05
5.537817E+03	5.975636E-03	4.917730E-05
5.547795E+03	5.914874E-03	4.856589E-05
5.557773E+03	5.840496E-03	4.784646E-05
5.567751E+03	5.752343E-03	4.701842E-05
5.577729E+03	5.651156E-03	4.608848E-05
5.587707E+03	5.538436E-03	4.506950E-05
5.597685E+03	5.416339E-03	4.397952E-05
5.607663E+03	5.287561E-03	4.284080E-05
5.617641E+03	5.155396E-03	4.168024E-05
5.627619E+03	5.023360E-03	4.052628E-05
5.637597E+03	4.895218E-03	3.940913E-05
5.647575E+03	4.774346E-03	3.835563E-05
5.657553E+03	4.664015E-03	3.739157E-05
5.667531E+03	4.566859E-03	3.653741E-05
5.677509E+03	4.485030E-03	3.580962E-05
5.687488E+03	4.420035E-03	3.521940E-05
5.697466E+03	4.372872E-03	3.477384E-05
5.707444E+03	4.344263E-03	3.447776E-05
5.717422E+03	4.334505E-03	3.433261E-05
5.727400E+03	4.343741E-03	3.433864E-05
5.737378E+03	4.371957E-03	3.449483E-05
5.747356E+03	4.419126E-03	3.480012E-05
5.757334E+03	4.485057E-03	3.525214E-05
5.767312E+03	4.569307E-03	3.584660E-05
5.777290E+03	4.671190E-03	3.657735E-05
5.787268E+03	4.789463E-03	3.743392E-05
5.797246E+03	4.922332E-03	3.840165E-05
5.807224E+03	5.067337E-03	3.946079E-05
5.817202E+03	5.221348E-03	4.058656E-05
5.827180E+03	5.380655E-03	4.174983E-05
5.837158E+03	5.541146E-03	4.291859E-05
5.847136E+03	5.698558E-03	4.405989E-05
5.857114E+03	5.848770E-03	4.514209E-05
5.867092E+03	5.987964E-03	4.613613E-05
5.877070E+03	6.113274E-03	4.702045E-05
5.887048E+03	6.222288E-03	4.777711E-05
5.897027E+03	6.313746E-03	4.839712E-05
5.907005E+03	6.387012E-03	4.887634E-05
5.916983E+03	6.442202E-03	4.921637E-05
5.926961E+03	6.479992E-03	4.942307E-05
5.936939E+03	6.501487E-03	4.950551E-05
5.946917E+03	6.508141E-03	4.947536E-05
5.956895E+03	6.501666E-03	4.934616E-05
5.966873E+03	6.484239E-03	4.913488E-05
5.976851E+03	6.458342E-03	4.886067E-05
5.986829E+03	6.426781E-03	4.854504E-05
5.996807E+03	6.392786E-03	4.821251E-05
6.006785E+03	6.359896E-03	4.788981E-05
6.016763E+03	6.331550E-03	4.760274E-05
6.026741E+03	6.311316E-03	4.737790E-05
6.036719E+03	6.302247E-03	4.723788E-05
6.046697E+03	6.306978E-03	4.720203E-05
6.056675E+03	6.327568E-03	4.728524E-05
6.066653E+03	6.365416E-03	4.749743E-05
6.076631E+03	6.421545E-03	4.784565E-05
6.086609E+03	6.496239E-03	4.833143E-05
6.096588E+03	6.589606E-03	4.895498E-05
6.106566E+03	6.701111E-03	4.971175E-05
6.116544E+03	6.829931E-03	5.059510E-05
6.126522E+03	6.974822E-03	5.159530E-05
6.136500E+03	7.133938E-03	5.269827E-05
6.146478E+03	7.304429E-03	5.388257E-05
6.156456E+03	7.483057E-03	5.512406E-05
6.166434E+03	7.665465E-03	5.639048E-05
6.176412E+03	7.846876E-03	5.764668E-05
6.186390E+03	8.022097E-03	5.885466E-05
6.196368E+03	8.185867E-03	5.997608E-05
6.206346E+03	8.333593E-03	6.097775E-05
6.216324E+03	8.461255E-03	6.183078E-05
6.226302E+03	8.566012E-03	6.251507E-05
6.236280E+03	8.646273E-03	6.301970E-05
6.246258E+03	8.701763E-03	6.334339E-05
6.256236E+03	8.733106E-03	6.349138E-05
6.266214E+03	8.741890E-03	6.347589E-05
6.276192E+03	8.730115E-03	6.331203E-05
6.286170E+03	8.699994E-03	6.301639E-05
6.296148E+03	8.653764E-03	6.260563E-05
6.306127E+03	8.593584E-03	6.209579E-05
6.316105E+03	8.521611E-03	6.150276E-05
6.326083E+03	8.439831E-03	6.084116E-05
6.336061E+03	8.350033E-03	6.012409E-05
6.346039E+03	8.253881E-03	5.936371E-05
6.356017E+03	8.152860E-03	5.857080E-05
6.365995E+03	8.047791E-03	5.775137E-05
6.375973E+03	7.938777E-03	5.690621E-05
6.385951E+03	7.825689E-03	5.603447E-05
6.395929E+03	7.707811E-03	5.513109E-05
6.405907E+03	7.584139E-03	5.418897E-05
6.415885E+03	7.453980E-03	5.320327E-05
6.425863E+03	7.316720E-03	5.216973E-05
6.435841E+03	7.172729E-03	5.109108E-05
6.445819E+03	7.023056E-03	4.997490E-05
6.455797E+03	6.869925E-03	4.883703E-05
6.465775E+03	6.716423E-03	4.769938E-05
6.475753E+03	6.566586E-03	4.659051E-05
6.485731E+03	6.424776E-03	4.554118E-05
6.495709E+03	6.295103E-03	4.458026E-05
6.505687E+03	6.180507E-03	4.372825E-05
6.515666E+03	6.081937E-03	4.299149E-05
6.525644E+03	5.998330E-03	4.236211E-05
6.535622E+03	5.926969E-03	4.182061E-05
6.545600E+03	5.863605E-03	4.133674E-05
6.555578E+03	5.803599E-03	4.087764E-05
6.565556E+03	5.742884E-03	4.041459E-05
6.575534E+03	5.678310E-03	3.992542E-05
6.585512E+03	5.608026E-03	3.939714E-05
6.595490E+03	5.531192E-03	3.882395E-05
6.605468E+03	5.447763E-03	3.820560E-05
6.615446E+03	5.358388E-03	3.754672E-05
6.625424E+03	5.263999E-03	3.685392E-05
6.635402E+03	5.165646E-03	3.613459E-05
6.645380E+03	5.064607E-03	3.539772E-05
6.655358E+03	4.962017E-03	3.465125E-05
6.665336E+03	4.859017E-03	3.390315E-05
6.675314E+03	4.756901E-03	3.316241E-05
6.685292E+03	4.656776E-03	3.243672E-05
6.695270E+03	4.559728E-03	3.173358E-05
6.705248E+03	4.466709E-03	3.105955E-05
6.715227E+03	4.378484E-03	3.041984E-05
6.725205E+03	4.295592E-03	2.981810E-05
6.735183E+03	4.218395E-03	2.925673E-05
6.745161E+03	4.147018E-03	2.873650E-05
6.755139E+03	4.081366E-03	2.825662E-05
6.765117E+03	4.021476E-03	2.781724E-05
6.775095E+03	3.967316E-03	2.741802E-05
6.785073E+03	3.918855E-03	2.705863E-05
6.795051E+03	3.876412E-03	2.674117E-05
6.805029E+03	3.840233E-03	2.646720E-05
6.815007E+03	3.810771E-03	2.623973E-05
6.824985E+03	3.788590E-03	2.606249E-05
6.834963E+03	3.774196E-03	2.593881E-05
6.844941E+03	3.767982E-03	2.587123E-05
6.854919E+03	3.770090E-03	2.586055E-05
6.864897E+03	3.780451E-03	2.590612E-05
6.874875E+03	3.798552E-03	2.600426E-05
6.884853E+03	3.823594E-03	2.614931E-05
6.894831E+03	3.854423E-03	2.633324E-05
6.904809E+03	3.889498E-03	2.654539E-05
6.914787E+03	3.927230E-03	2.677483E-05
6.924766E+03	3.966172E-03	2.701162E-05
6.934744E+03	4.004926E-03	2.724620E-05
6.944722E+03	4.042668E-03	2.747297E-05
6.954700E+03	4.078876E-03	2.768837E-05
6.964678E+03	4.113716E-03	2.789356E-05
6.974656E+03	4.147595E-03	2.809130E-05
6.984634E+03	4.181355E-03	2.828731E-05
6.994612E+03	4.215922E-03	2.848781E-05
7.004590E+03	4.252256E-03	2.869925E-05
7.014568E+03	4.291037E-03	2.892617E-05
7.024546E+03	4.332913E-03	2.917285E-05
7.034524E+03	4.378333E-03	2.944220E-05
7.044502E+03	4.427420E-03	2.973496E-05
7.054480E+03	4.480377E-03	3.005236E-05
7.064458E+03	4.537168E-03	3.039406E-05
7.074436E+03	4.597768E-03	3.075976E-05
7.084414E+03	4.662107E-03	3.114887E-05
7.094392E+03	4.730057E-03	3.156043E-05
7.104370E+03	4.801391E-03	3.199278E-05
7.114348E+03	4.875789E-03	3.244371E-05
7.124326E+03	4.952572E-03	3.290857E-05
7.134305E+03	5.031086E-03	3.338294E-05
7.144283E+03	5.110291E-03	3.385985E-05
7.154261E+03	5.189080E-03	3.433196E-05
7.164239E+03	5.266004E-03	3.478966E-05
7.174217E+03	5.339733E-03	3.522421E-05
7.184195E+03	5.408643E-03	3.562501E-05
7.194173E+03	5.471092E-03	3.598137E-05
7.204151E+03	5.525372E-03	3.628227E-05
7.214129E+03	5.569831E-03	3.651711E-05
7.224107E+03	5.602723E-03	3.667476E-05
7.234085E+03	5.622518E-03	3.674558E-05
7.244063E+03	5.628022E-03	3.672220E-05
7.254041E+03	5.618225E-03	3.659849E-05
7.264019E+03	5.592868E-03	3.637327E-05
7.273997E+03	5.552010E-03	3.604745E-05
7.283975E+03	5.496261E-03	3.562552E-05
7.293953E+03	5.426691E-03	3.511490E-05
7.303931E+03	5.344496E-03	3.452382E-05
7.313909E+03	5.251054E-03	3.386162E-05
7.323887E+03	5.147740E-03	3.313755E-05
7.333865E+03	5.035863E-03	3.236041E-05
7.343844E+03	4.916706E-03	3.153877E-05
7.353822E+03	4.791369E-03	3.067993E-05
7.363800E+03	4.660998E-03	2.979151E-05
7.373778E+03	4.526773E-03	2.888123E-05
7.383756E+03	4.389931E-03	2.795714E-05
7.393734E+03	4.251814E-03	2.702792E-05
7.403712E+03	4.113627E-03	2.610129E-05
7.413690E+03	3.976763E-03	2.518611E-05
7.423668E+03	3.842383E-03	2.428972E-05
7.433646E+03	3.711597E-03	2.341905E-05
7.443624E+03	3.585395E-03	2.258025E-05
7.453602E+03	3.464711E-03	2.177906E-05
7.463580E+03	3.350273E-03	2.101987E-05
7.473558E+03	3.242948E-03	2.030791E-05
7.483536E+03	3.143424E-03	1.964725E-05
7.493514E+03	3.052547E-03	1.904291E-05
7.503492E+03	2.971030E-03	1.849905E-05
7.513470E+03	2.899593E-03	1.801980E-05
7.523448E+03	2.838889E-03	1.760889E-05
7.533426E+03	2.789523E-03	1.726969E-05
7.543405E+03	2.751886E-03	1.700422E-05
7.553383E+03	2.726367E-03	1.681450E-05
7.563361E+03	2.713236E-03	1.670178E-05
7.573339E+03	2.712529E-03	1.666585E-05
7.583317E+03	2.724277E-03	1.670649E-05
7.593295E+03	2.748200E-03	1.682159E-05
7.603273E+03	2.783944E-03	1.700858E-05
7.613251E+03	2.830749E-03	1.726247E-05
7.623229E+03	2.887682E-03	1.757724E-05
7.633207E+03	2.953307E-03	1.794386E-05
7.643185E+03	3.025932E-03	1.835182E-05
7.653163E+03	3.103549E-03	1.878880E-05
7.663141E+03	3.183806E-03	1.924049E-05
7.673119E+03	3.264417E-03	1.969307E-05
7.683097E+03	3.343195E-03	2.013341E-05
7.693075E+03	3.418276E-03	2.055046E-05
7.703053E+03	3.488224E-03	2.093578E-05
7.713031E+03	3.552283E-03	2.128506E-05
7.723009E+03	3.610042E-03	2.159610E-05
7.732987E+03	3.661659E-03	2.187010E-05
7.742965E+03	3.707533E-03	2.210969E-05
