#wls	flux	fluxerr
1.596488E+03	2.880919E-05	8.008066E-07
1.636400E+03	2.776482E-05	7.704962E-07
1.676312E+03	2.678238E-05	7.419634E-07
1.716224E+03	2.586081E-05	7.151725E-07
1.756136E+03	2.500125E-05	6.901491E-07
1.796049E+03	2.420788E-05	6.670020E-07
1.835961E+03	2.347821E-05	6.456551E-07
1.875873E+03	2.281171E-05	6.260858E-07
1.915785E+03	2.221121E-05	6.083636E-07
1.955697E+03	2.167461E-05	5.924223E-07
1.995610E+03	2.120641E-05	5.783748E-07
2.035522E+03	2.080805E-05	5.662500E-07
2.075434E+03	2.049335E-05	5.564116E-07
2.115346E+03	2.027407E-05	5.491633E-07
2.155258E+03	2.016259E-05	5.448215E-07
2.195171E+03	2.016664E-05	5.435735E-07
2.235083E+03	2.028253E-05	5.452961E-07
2.274995E+03	2.050245E-05	5.497547E-07
2.314907E+03	2.082128E-05	5.567887E-07
2.354819E+03	2.123793E-05	5.663448E-07
2.394732E+03	2.175408E-05	5.784425E-07
2.434644E+03	2.237447E-05	5.931806E-07
2.474556E+03	2.310857E-05	6.107803E-07
2.514468E+03	2.396537E-05	6.314460E-07
2.554380E+03	2.495604E-05	6.554338E-07
2.594293E+03	2.609695E-05	6.831309E-07
2.634205E+03	2.740546E-05	7.149430E-07
2.674117E+03	2.890488E-05	7.514214E-07
2.714029E+03	3.062469E-05	7.932663E-07
2.753941E+03	3.259959E-05	8.412982E-07
2.793854E+03	3.488029E-05	8.967329E-07
2.833766E+03	3.752682E-05	9.609996E-07
2.873678E+03	4.061626E-05	1.035934E-06
2.913590E+03	4.425108E-05	1.123977E-06
2.953502E+03	4.855889E-05	1.228155E-06
2.993414E+03	5.370523E-05	1.352385E-06
3.003393E+03	5.514479E-05	1.387091E-06
3.013371E+03	5.665606E-05	1.423508E-06
3.023349E+03	5.823900E-05	1.461630E-06
3.033327E+03	5.990002E-05	1.501610E-06
3.043305E+03	6.164395E-05	1.543561E-06
3.053283E+03	6.347589E-05	1.587602E-06
3.063261E+03	6.539871E-05	1.633798E-06
3.073239E+03	6.742013E-05	1.682332E-06
3.083217E+03	6.954598E-05	1.733339E-06
3.093195E+03	7.178249E-05	1.786964E-06
3.103173E+03	7.413624E-05	1.843360E-06
3.113151E+03	7.661431E-05	1.902691E-06
3.123129E+03	7.922137E-05	1.965060E-06
3.133107E+03	8.197064E-05	2.030782E-06
3.143085E+03	8.486515E-05	2.099918E-06
3.153063E+03	8.791639E-05	2.172737E-06
3.163041E+03	9.113378E-05	2.249455E-06
3.173019E+03	9.452732E-05	2.330302E-06
3.182997E+03	9.810747E-05	2.415518E-06
3.192975E+03	1.018855E-04	2.505360E-06
3.202954E+03	1.058731E-04	2.600096E-06
3.212932E+03	1.100829E-04	2.700009E-06
3.222910E+03	1.145279E-04	2.805401E-06
3.232888E+03	1.192182E-04	2.916492E-06
3.242866E+03	1.241759E-04	3.033793E-06
3.252844E+03	1.294127E-04	3.157563E-06
3.262822E+03	1.349446E-04	3.288165E-06
3.272800E+03	1.407845E-04	3.425876E-06
3.282778E+03	1.469584E-04	3.571298E-06
3.292756E+03	1.534809E-04	3.724749E-06
3.302734E+03	1.603713E-04	3.886658E-06
3.312712E+03	1.676501E-04	4.057480E-06
3.322690E+03	1.753383E-04	4.237682E-06
3.332668E+03	1.834581E-04	4.427750E-06
3.342646E+03	1.920320E-04	4.628184E-06
3.352624E+03	2.010839E-04	4.839505E-06
3.362602E+03	2.106382E-04	5.062246E-06
3.372580E+03	2.207262E-04	5.297101E-06
3.382558E+03	2.313617E-04	5.544343E-06
3.392536E+03	2.425772E-04	5.804682E-06
3.402514E+03	2.544068E-04	6.078871E-06
3.412493E+03	2.668718E-04	6.367343E-06
3.422471E+03	2.799925E-04	6.670513E-06
3.432449E+03	2.938123E-04	6.989331E-06
3.442427E+03	3.083524E-04	7.324220E-06
3.452405E+03	3.236413E-04	7.675772E-06
3.462383E+03	3.397075E-04	8.044574E-06
3.472361E+03	3.565883E-04	8.431413E-06
3.482339E+03	3.742934E-04	8.836418E-06
3.492317E+03	3.928585E-04	9.260334E-06
3.502295E+03	4.123199E-04	9.703910E-06
3.512273E+03	4.326822E-04	1.016714E-05
3.522251E+03	4.539900E-04	1.065096E-05
3.532229E+03	4.762544E-04	1.115552E-05
3.542207E+03	4.994952E-04	1.168116E-05
3.552185E+03	5.237295E-04	1.222815E-05
3.562163E+03	5.489719E-04	1.279671E-05
3.572141E+03	5.752338E-04	1.338697E-05
3.582119E+03	6.025233E-04	1.399899E-05
3.592097E+03	6.308598E-04	1.463309E-05
3.602075E+03	6.602139E-04	1.528845E-05
3.612053E+03	6.905958E-04	1.596516E-05
3.622032E+03	7.219961E-04	1.666289E-05
3.632010E+03	7.544178E-04	1.738154E-05
3.641988E+03	7.878060E-04	1.811974E-05
3.651966E+03	8.221709E-04	1.887757E-05
3.661944E+03	8.574421E-04	1.965329E-05
3.671922E+03	8.935989E-04	2.044630E-05
3.681900E+03	9.306165E-04	2.125589E-05
3.691878E+03	9.684007E-04	2.207980E-05
3.701856E+03	1.006912E-03	2.291701E-05
3.711834E+03	1.046081E-03	2.376584E-05
3.721812E+03	1.085832E-03	2.462448E-05
3.731790E+03	1.126085E-03	2.549099E-05
3.741768E+03	1.166747E-03	2.636323E-05
3.751746E+03	1.207698E-03	2.723837E-05
3.761724E+03	1.248857E-03	2.811456E-05
3.771702E+03	1.290112E-03	2.898924E-05
3.781680E+03	1.331349E-03	2.985978E-05
3.791658E+03	1.372446E-03	3.072344E-05
3.801636E+03	1.413247E-03	3.157675E-05
3.811614E+03	1.453650E-03	3.241744E-05
3.821592E+03	1.493521E-03	3.324256E-05
3.831571E+03	1.532698E-03	3.404853E-05
3.841549E+03	1.571073E-03	3.483305E-05
3.851527E+03	1.608512E-03	3.559324E-05
3.861505E+03	1.644853E-03	3.632560E-05
3.871483E+03	1.679966E-03	3.702740E-05
3.881461E+03	1.713760E-03	3.769678E-05
3.891439E+03	1.746119E-03	3.833134E-05
3.901417E+03	1.776902E-03	3.892817E-05
3.911395E+03	1.806011E-03	3.948534E-05
3.921373E+03	1.833392E-03	4.000185E-05
3.931351E+03	1.858940E-03	4.047565E-05
3.941329E+03	1.882594E-03	4.090563E-05
3.951307E+03	1.904311E-03	4.129109E-05
3.961285E+03	1.924097E-03	4.163246E-05
3.971263E+03	1.941907E-03	4.192899E-05
3.981241E+03	1.957750E-03	4.218114E-05
3.991219E+03	1.971650E-03	4.238968E-05
4.001197E+03	1.983649E-03	4.255579E-05
4.011175E+03	1.993810E-03	4.268105E-05
4.021153E+03	2.002173E-03	4.276660E-05
4.031132E+03	2.008901E-03	4.281615E-05
4.041110E+03	2.014069E-03	4.283151E-05
4.051088E+03	2.017761E-03	4.281470E-05
4.061066E+03	2.020146E-03	4.276950E-05
4.071044E+03	2.021368E-03	4.269911E-05
4.081022E+03	2.021541E-03	4.260615E-05
4.091000E+03	2.020859E-03	4.249482E-05
4.100978E+03	2.019484E-03	4.236863E-05
4.110956E+03	2.017546E-03	4.223043E-05
4.120934E+03	2.015212E-03	4.208379E-05
4.130912E+03	2.012681E-03	4.193290E-05
4.140890E+03	2.010084E-03	4.178054E-05
4.150868E+03	2.007583E-03	4.163005E-05
4.160846E+03	2.005336E-03	4.148470E-05
4.170824E+03	2.003529E-03	4.134831E-05
4.180802E+03	2.002245E-03	4.122252E-05
4.190780E+03	2.001694E-03	4.111156E-05
4.200758E+03	2.001982E-03	4.101748E-05
4.210736E+03	2.003211E-03	4.094227E-05
4.220714E+03	2.005569E-03	4.088962E-05
4.230692E+03	2.009120E-03	4.086064E-05
4.240671E+03	2.013979E-03	4.085751E-05
4.250649E+03	2.020320E-03	4.088353E-05
4.260627E+03	2.028187E-03	4.093936E-05
4.270605E+03	2.037679E-03	4.102678E-05
4.280583E+03	2.048920E-03	4.114803E-05
4.290561E+03	2.061993E-03	4.130448E-05
4.300539E+03	2.076913E-03	4.149617E-05
4.310517E+03	2.093806E-03	4.172528E-05
4.320495E+03	2.112722E-03	4.199252E-05
4.330473E+03	2.133635E-03	4.229706E-05
4.340451E+03	2.156595E-03	4.263954E-05
4.350429E+03	2.181626E-03	4.302014E-05
4.360407E+03	2.208637E-03	4.343672E-05
4.370385E+03	2.237602E-03	4.388846E-05
4.380363E+03	2.268429E-03	4.437324E-05
4.390341E+03	2.300994E-03	4.488831E-05
4.400319E+03	2.335096E-03	4.542950E-05
4.410297E+03	2.370559E-03	4.599313E-05
4.420275E+03	2.407127E-03	4.657405E-05
4.430253E+03	2.444469E-03	4.716563E-05
4.440231E+03	2.482237E-03	4.776109E-05
4.450210E+03	2.520074E-03	4.835347E-05
4.460188E+03	2.557518E-03	4.893391E-05
4.470166E+03	2.594139E-03	4.949428E-05
4.480144E+03	2.629379E-03	5.002410E-05
4.490122E+03	2.662806E-03	5.051535E-05
4.500100E+03	2.693883E-03	5.095818E-05
4.510078E+03	2.722118E-03	5.134370E-05
4.520056E+03	2.747017E-03	5.166308E-05
4.530034E+03	2.768236E-03	5.191041E-05
4.540012E+03	2.785350E-03	5.207834E-05
4.549990E+03	2.798113E-03	5.216298E-05
4.559968E+03	2.806331E-03	5.216145E-05
4.569946E+03	2.809904E-03	5.207261E-05
4.579924E+03	2.808791E-03	5.189653E-05
4.589902E+03	2.803087E-03	5.163574E-05
4.599880E+03	2.793051E-03	5.129575E-05
4.609858E+03	2.778853E-03	5.088041E-05
4.619836E+03	2.760912E-03	5.039809E-05
4.629814E+03	2.739606E-03	4.985629E-05
4.639792E+03	2.715427E-03	4.926453E-05
4.649771E+03	2.688829E-03	4.863151E-05
4.659749E+03	2.660317E-03	4.796676E-05
4.669727E+03	2.630395E-03	4.727968E-05
4.679705E+03	2.599556E-03	4.657934E-05
4.689683E+03	2.568264E-03	4.587423E-05
4.699661E+03	2.536986E-03	4.517271E-05
4.709639E+03	2.506052E-03	4.448071E-05
4.719617E+03	2.475843E-03	4.380488E-05
4.729595E+03	2.446661E-03	4.315046E-05
4.739573E+03	2.418759E-03	4.252173E-05
4.749551E+03	2.392347E-03	4.192217E-05
4.759529E+03	2.367585E-03	4.135434E-05
4.769507E+03	2.344571E-03	4.081966E-05
4.779485E+03	2.323414E-03	4.031976E-05
4.789463E+03	2.304166E-03	3.985523E-05
4.799441E+03	2.286823E-03	3.942570E-05
4.809419E+03	2.271411E-03	3.903127E-05
4.819397E+03	2.257907E-03	3.867126E-05
4.829375E+03	2.246250E-03	3.834431E-05
4.839353E+03	2.236418E-03	3.804974E-05
4.849331E+03	2.228332E-03	3.778591E-05
4.859310E+03	2.221961E-03	3.755202E-05
4.869288E+03	2.217224E-03	3.734641E-05
4.879266E+03	2.214093E-03	3.716835E-05
4.889244E+03	2.212497E-03	3.701640E-05
4.899222E+03	2.212397E-03	3.688965E-05
4.909200E+03	2.213789E-03	3.678779E-05
4.919178E+03	2.216656E-03	3.671033E-05
4.929156E+03	2.220966E-03	3.665647E-05
4.939134E+03	2.226725E-03	3.662609E-05
4.949112E+03	2.233948E-03	3.661921E-05
4.959090E+03	2.242684E-03	3.663640E-05
4.969068E+03	2.252940E-03	3.667753E-05
4.979046E+03	2.264777E-03	3.674335E-05
4.989024E+03	2.278205E-03	3.683379E-05
4.999002E+03	2.293258E-03	3.694912E-05
5.008980E+03	2.309959E-03	3.708950E-05
5.018958E+03	2.328350E-03	3.725530E-05
5.028936E+03	2.348399E-03	3.744578E-05
5.038914E+03	2.370107E-03	3.766070E-05
5.048892E+03	2.393369E-03	3.789814E-05
5.058870E+03	2.418154E-03	3.815739E-05
5.068849E+03	2.444344E-03	3.843638E-05
5.078827E+03	2.471734E-03	3.873167E-05
5.088805E+03	2.500184E-03	3.904092E-05
5.098783E+03	2.529464E-03	3.936042E-05
5.108761E+03	2.559252E-03	3.968507E-05
5.118739E+03	2.589302E-03	4.001102E-05
5.128717E+03	2.619283E-03	4.033318E-05
5.138695E+03	2.648786E-03	4.064533E-05
5.148673E+03	2.677500E-03	4.094279E-05
5.158651E+03	2.705047E-03	4.122002E-05
5.168629E+03	2.730998E-03	4.147071E-05
5.178607E+03	2.755079E-03	4.169101E-05
5.188585E+03	2.776860E-03	4.187477E-05
5.198563E+03	2.796090E-03	4.201863E-05
5.208541E+03	2.812465E-03	4.211846E-05
5.218519E+03	2.825784E-03	4.217176E-05
5.228497E+03	2.835860E-03	4.217627E-05
5.238475E+03	2.842497E-03	4.212961E-05
5.248453E+03	2.845697E-03	4.203236E-05
5.258431E+03	2.845327E-03	4.188311E-05
5.268409E+03	2.841479E-03	4.168382E-05
5.278388E+03	2.834107E-03	4.143430E-05
5.288366E+03	2.823374E-03	4.113754E-05
5.298344E+03	2.809300E-03	4.079430E-05
5.308322E+03	2.792104E-03	4.040827E-05
5.318300E+03	2.771879E-03	3.998126E-05
5.328278E+03	2.748822E-03	3.951654E-05
5.338256E+03	2.723083E-03	3.901668E-05
5.348234E+03	2.694882E-03	3.848520E-05
5.358212E+03	2.664391E-03	3.792486E-05
5.368190E+03	2.631870E-03	3.733971E-05
5.378168E+03	2.597481E-03	3.673227E-05
5.388146E+03	2.561450E-03	3.610600E-05
5.398124E+03	2.524069E-03	3.546517E-05
5.408102E+03	2.485538E-03	3.481274E-05
5.418080E+03	2.446155E-03	3.415304E-05
5.428058E+03	2.406216E-03	3.349023E-05
5.438036E+03	2.366016E-03	3.282846E-05
5.448014E+03	2.325951E-03	3.217319E-05
5.457992E+03	2.286336E-03	3.152873E-05
5.467970E+03	2.247553E-03	3.090022E-05
5.477949E+03	2.209898E-03	3.029159E-05
5.487927E+03	2.173521E-03	2.970470E-05
5.497905E+03	2.138392E-03	2.913895E-05
5.507883E+03	2.104386E-03	2.859242E-05
5.517861E+03	2.071364E-03	2.806301E-05
5.527839E+03	2.039227E-03	2.754921E-05
5.537817E+03	2.007919E-03	2.705011E-05
5.547795E+03	1.977436E-03	2.656548E-05
5.557773E+03	1.947809E-03	2.609560E-05
5.567751E+03	1.919103E-03	2.564116E-05
5.577729E+03	1.891401E-03	2.520315E-05
5.587707E+03	1.864828E-03	2.478303E-05
5.597685E+03	1.839455E-03	2.438160E-05
5.607663E+03	1.815438E-03	2.400073E-05
5.617641E+03	1.792873E-03	2.364151E-05
5.627619E+03	1.771876E-03	2.330526E-05
5.637597E+03	1.752554E-03	2.299320E-05
5.647575E+03	1.735027E-03	2.270668E-05
5.657553E+03	1.719348E-03	2.244620E-05
5.667531E+03	1.705635E-03	2.221307E-05
5.677509E+03	1.693960E-03	2.200802E-05
5.687488E+03	1.684360E-03	2.183132E-05
5.697466E+03	1.676884E-03	2.168337E-05
5.707444E+03	1.671565E-03	2.156439E-05
5.717422E+03	1.668443E-03	2.147469E-05
5.727400E+03	1.667510E-03	2.141396E-05
5.737378E+03	1.668765E-03	2.138197E-05
5.747356E+03	1.672212E-03	2.137858E-05
5.757334E+03	1.677827E-03	2.140328E-05
5.767312E+03	1.685556E-03	2.145523E-05
5.777290E+03	1.695355E-03	2.153366E-05
5.787268E+03	1.707189E-03	2.163798E-05
5.797246E+03	1.720981E-03	2.176705E-05
5.807224E+03	1.736683E-03	2.192010E-05
5.817202E+03	1.754226E-03	2.209615E-05
5.827180E+03	1.773524E-03	2.229395E-05
5.837158E+03	1.794526E-03	2.251276E-05
5.847136E+03	1.817151E-03	2.275145E-05
5.857114E+03	1.841366E-03	2.300949E-05
5.867092E+03	1.867130E-03	2.328626E-05
5.877070E+03	1.894396E-03	2.358111E-05
5.887048E+03	1.923180E-03	2.389412E-05
5.897027E+03	1.953498E-03	2.422543E-05
5.907005E+03	1.985378E-03	2.457526E-05
5.916983E+03	2.018913E-03	2.494472E-05
5.926961E+03	2.054212E-03	2.533504E-05
5.936939E+03	2.091418E-03	2.574789E-05
5.946917E+03	2.130686E-03	2.618507E-05
5.956895E+03	2.172274E-03	2.664966E-05
5.966873E+03	2.216387E-03	2.714404E-05
5.976851E+03	2.263331E-03	2.767182E-05
5.986829E+03	2.313422E-03	2.823671E-05
5.996807E+03	2.367002E-03	2.884275E-05
6.006785E+03	2.424414E-03	2.949391E-05
6.016763E+03	2.486097E-03	3.019534E-05
6.026741E+03	2.552422E-03	3.095135E-05
6.036719E+03	2.623764E-03	3.176625E-05
6.046697E+03	2.700577E-03	3.264530E-05
6.056675E+03	2.783214E-03	3.359251E-05
6.066653E+03	2.871996E-03	3.461149E-05
6.076631E+03	2.967291E-03	3.570639E-05
6.086609E+03	3.069313E-03	3.687952E-05
6.096588E+03	3.178226E-03	3.813256E-05
6.106566E+03	3.294092E-03	3.946599E-05
6.116544E+03	3.416844E-03	4.087872E-05
6.126522E+03	3.546305E-03	4.236840E-05
6.136500E+03	3.682001E-03	4.392915E-05
6.146478E+03	3.823415E-03	4.555460E-05
6.156456E+03	3.969686E-03	4.723435E-05
6.166434E+03	4.119791E-03	4.895613E-05
6.176412E+03	4.272320E-03	5.070316E-05
6.186390E+03	4.425778E-03	5.245774E-05
6.196368E+03	4.578333E-03	5.419826E-05
6.206346E+03	4.727816E-03	5.589924E-05
6.216324E+03	4.872110E-03	5.753597E-05
6.226302E+03	5.008641E-03	5.907840E-05
6.236280E+03	5.135012E-03	6.049878E-05
6.246258E+03	5.248720E-03	6.176814E-05
6.256236E+03	5.347283E-03	6.285796E-05
6.266214E+03	5.428513E-03	6.374321E-05
6.276192E+03	5.490377E-03	6.440081E-05
6.286170E+03	5.531322E-03	6.481334E-05
6.296148E+03	5.550112E-03	6.496716E-05
6.306127E+03	5.546126E-03	6.485582E-05
6.316105E+03	5.519211E-03	6.447836E-05
6.326083E+03	5.469753E-03	6.384005E-05
6.336061E+03	5.398597E-03	6.295145E-05
6.346039E+03	5.307246E-03	6.183074E-05
6.356017E+03	5.197374E-03	6.049795E-05
6.365995E+03	5.071112E-03	5.897835E-05
6.375973E+03	4.930935E-03	5.730110E-05
6.385951E+03	4.779297E-03	5.549496E-05
6.395929E+03	4.618702E-03	5.358916E-05
6.405907E+03	4.451781E-03	5.161432E-05
6.415885E+03	4.280894E-03	4.959779E-05
6.425863E+03	4.108292E-03	4.756557E-05
6.435841E+03	3.935968E-03	4.554061E-05
6.445819E+03	3.765818E-03	4.354460E-05
6.455797E+03	3.599349E-03	4.159473E-05
6.465775E+03	3.437902E-03	3.970617E-05
6.475753E+03	3.282448E-03	3.788987E-05
6.485731E+03	3.133883E-03	3.615586E-05
6.495709E+03	2.992761E-03	3.451025E-05
6.505687E+03	2.859490E-03	3.295747E-05
6.515666E+03	2.734175E-03	3.149846E-05
6.525644E+03	2.616683E-03	3.013145E-05
6.535622E+03	2.506686E-03	2.885242E-05
6.545600E+03	2.403685E-03	2.765544E-05
6.555578E+03	2.307219E-03	2.653499E-05
6.565556E+03	2.216782E-03	2.548510E-05
6.575534E+03	2.131950E-03	2.450076E-05
6.585512E+03	2.052310E-03	2.357707E-05
6.595490E+03	1.977463E-03	2.270934E-05
6.605468E+03	1.907097E-03	2.189386E-05
6.615446E+03	1.840887E-03	2.112682E-05
6.625424E+03	1.778607E-03	2.040552E-05
6.635402E+03	1.719977E-03	1.972669E-05
6.645380E+03	1.664806E-03	1.908806E-05
6.655358E+03	1.612912E-03	1.848747E-05
6.665336E+03	1.564132E-03	1.792299E-05
6.675314E+03	1.518324E-03	1.739296E-05
6.685292E+03	1.475367E-03	1.689591E-05
6.695270E+03	1.435153E-03	1.643058E-05
6.705248E+03	1.397592E-03	1.599589E-05
6.715227E+03	1.362603E-03	1.559088E-05
6.725205E+03	1.330118E-03	1.521472E-05
6.735183E+03	1.300079E-03	1.486672E-05
6.745161E+03	1.272447E-03	1.454640E-05
6.755139E+03	1.247162E-03	1.425302E-05
6.765117E+03	1.224184E-03	1.398613E-05
6.775095E+03	1.203476E-03	1.374525E-05
6.785073E+03	1.185020E-03	1.353013E-05
6.795051E+03	1.168772E-03	1.334027E-05
6.805029E+03	1.154704E-03	1.317531E-05
6.815007E+03	1.142805E-03	1.303509E-05
6.824985E+03	1.133050E-03	1.291929E-05
6.834963E+03	1.125389E-03	1.282731E-05
6.844941E+03	1.119844E-03	1.275937E-05
6.854919E+03	1.116366E-03	1.271489E-05
6.864897E+03	1.114940E-03	1.269365E-05
6.874875E+03	1.115561E-03	1.269558E-05
6.884853E+03	1.118215E-03	1.272046E-05
6.894831E+03	1.122878E-03	1.276800E-05
6.904809E+03	1.129550E-03	1.283815E-05
6.914787E+03	1.138225E-03	1.293081E-05
6.924766E+03	1.148897E-03	1.304586E-05
6.934744E+03	1.161545E-03	1.318303E-05
6.944722E+03	1.176185E-03	1.334245E-05
6.954700E+03	1.192817E-03	1.352407E-05
6.964678E+03	1.211428E-03	1.372771E-05
6.974656E+03	1.232054E-03	1.395371E-05
6.984634E+03	1.254671E-03	1.420174E-05
6.994612E+03	1.279318E-03	1.447221E-05
7.004590E+03	1.305970E-03	1.476476E-05
7.014568E+03	1.334650E-03	1.507959E-05
7.024546E+03	1.365362E-03	1.541668E-05
7.034524E+03	1.398103E-03	1.577593E-05
7.044502E+03	1.432882E-03	1.615739E-05
7.054480E+03	1.469644E-03	1.656035E-05
7.064458E+03	1.508372E-03	1.698456E-05
7.074436E+03	1.549012E-03	1.742932E-05
7.084414E+03	1.591486E-03	1.789370E-05
7.094392E+03	1.635709E-03	1.837666E-05
7.104370E+03	1.681499E-03	1.887608E-05
7.114348E+03	1.728694E-03	1.939008E-05
7.124326E+03	1.777090E-03	1.991630E-05
7.134305E+03	1.826388E-03	2.045134E-05
7.144283E+03	1.876236E-03	2.099118E-05
7.154261E+03	1.926295E-03	2.153202E-05
7.164239E+03	1.976102E-03	2.206863E-05
7.174217E+03	2.025192E-03	2.259580E-05
7.184195E+03	2.072970E-03	2.310692E-05
7.194173E+03	2.118887E-03	2.359587E-05
7.204151E+03	2.162364E-03	2.405627E-05
7.214129E+03	2.202755E-03	2.448099E-05
7.224107E+03	2.239445E-03	2.486328E-05
7.234085E+03	2.271840E-03	2.519667E-05
7.244063E+03	2.299384E-03	2.547515E-05
7.254041E+03	2.321585E-03	2.569344E-05
7.264019E+03	2.338059E-03	2.584747E-05
7.273997E+03	2.348451E-03	2.593355E-05
7.283975E+03	2.352514E-03	2.594919E-05
7.293953E+03	2.350213E-03	2.589423E-05
7.303931E+03	2.341537E-03	2.576882E-05
7.313909E+03	2.326658E-03	2.557511E-05
7.323887E+03	2.305771E-03	2.531551E-05
7.333865E+03	2.279275E-03	2.499464E-05
7.343844E+03	2.247660E-03	2.461813E-05
7.353822E+03	2.211435E-03	2.419177E-05
7.363800E+03	2.171178E-03	2.372209E-05
7.373778E+03	2.127594E-03	2.321699E-05
7.383756E+03	2.081328E-03	2.268367E-05
7.393734E+03	2.033064E-03	2.212969E-05
7.403712E+03	1.983448E-03	2.156221E-05
7.413690E+03	1.933185E-03	2.098898E-05
7.423668E+03	1.882864E-03	2.041640E-05
7.433646E+03	1.833055E-03	1.985071E-05
7.443624E+03	1.784249E-03	1.929722E-05
7.453602E+03	1.736959E-03	1.876143E-05
7.463580E+03	1.691558E-03	1.824736E-05
7.473558E+03	1.648368E-03	1.775838E-05
7.483536E+03	1.607697E-03	1.729776E-05
7.493514E+03	1.569774E-03	1.686787E-05
7.503492E+03	1.534780E-03	1.647054E-05
7.513470E+03	1.502847E-03	1.610708E-05
7.523448E+03	1.474066E-03	1.577837E-05
7.533426E+03	1.448475E-03	1.548468E-05
7.543405E+03	1.426116E-03	1.522636E-05
7.553383E+03	1.406968E-03	1.500306E-05
7.563361E+03	1.391042E-03	1.481478E-05
7.573339E+03	1.378253E-03	1.466051E-05
7.583317E+03	1.368533E-03	1.453943E-05
7.593295E+03	1.361824E-03	1.445081E-05
7.603273E+03	1.358029E-03	1.439353E-05
7.613251E+03	1.357022E-03	1.436617E-05
7.623229E+03	1.358703E-03	1.436760E-05
7.633207E+03	1.362924E-03	1.439617E-05
7.643185E+03	1.369541E-03	1.445032E-05
7.653163E+03	1.378424E-03	1.452862E-05
7.663141E+03	1.389410E-03	1.462932E-05
7.673119E+03	1.402292E-03	1.475020E-05
7.683097E+03	1.416928E-03	1.488977E-05
7.693075E+03	1.433116E-03	1.504588E-05
7.703053E+03	1.450685E-03	1.521676E-05
7.713031E+03	1.469420E-03	1.540016E-05
7.723009E+03	1.489126E-03	1.559407E-05
7.732987E+03	1.509609E-03	1.579649E-05
7.742965E+03	1.530673E-03	1.600543E-05
