#wls	flux	fluxerr
1.596488E+03	3.138092E-05	8.884051E-07
1.636400E+03	3.030827E-05	8.566396E-07
1.676312E+03	2.929515E-05	8.266151E-07
1.716224E+03	2.834564E-05	7.984408E-07
1.756136E+03	2.745891E-05	7.720869E-07
1.796049E+03	2.663946E-05	7.476733E-07
1.835961E+03	2.588509E-05	7.251303E-07
1.875873E+03	2.519727E-05	7.044912E-07
1.915785E+03	2.457543E-05	6.857314E-07
1.955697E+03	2.401958E-05	6.688420E-07
1.995610E+03	2.353466E-05	6.539505E-07
2.035522E+03	2.312281E-05	6.411057E-07
2.075434E+03	2.279929E-05	6.307169E-07
2.115346E+03	2.257761E-05	6.231420E-07
2.155258E+03	2.247189E-05	6.187499E-07
2.195171E+03	2.248952E-05	6.177207E-07
2.235083E+03	2.262676E-05	6.199263E-07
2.274995E+03	2.287652E-05	6.251462E-07
2.314907E+03	2.323324E-05	6.332031E-07
2.354819E+03	2.369343E-05	6.439754E-07
2.394732E+03	2.426195E-05	6.575681E-07
2.434644E+03	2.494335E-05	6.740753E-07
2.474556E+03	2.574864E-05	6.937618E-07
2.514468E+03	2.668738E-05	7.168487E-07
2.554380E+03	2.777420E-05	7.436874E-07
2.594293E+03	2.902815E-05	7.747408E-07
2.634205E+03	3.046695E-05	8.104277E-07
2.674117E+03	3.212017E-05	8.514715E-07
2.714029E+03	3.401716E-05	8.985766E-07
2.753941E+03	3.620290E-05	9.528442E-07
2.793854E+03	3.872767E-05	1.015493E-06
2.833766E+03	4.165870E-05	1.088160E-06
2.873678E+03	4.507946E-05	1.172871E-06
2.913590E+03	4.909774E-05	1.272242E-06
2.953502E+03	5.385014E-05	1.389576E-06
2.993414E+03	5.950564E-05	1.528940E-06
3.003393E+03	6.108490E-05	1.567807E-06
3.013371E+03	6.273689E-05	1.608439E-06
3.023349E+03	6.446790E-05	1.650991E-06
3.033327E+03	6.628243E-05	1.695571E-06
3.043305E+03	6.818308E-05	1.742237E-06
3.053283E+03	7.017494E-05	1.791111E-06
3.063261E+03	7.226552E-05	1.842374E-06
3.073239E+03	7.446035E-05	1.896159E-06
3.083217E+03	7.676288E-05	1.952543E-06
3.093195E+03	7.917903E-05	2.011665E-06
3.103173E+03	8.171800E-05	2.073748E-06
3.113151E+03	8.438668E-05	2.138954E-06
3.123129E+03	8.718969E-05	2.207386E-06
3.133107E+03	9.013459E-05	2.279224E-06
3.143085E+03	9.323243E-05	2.354731E-06
3.153063E+03	9.649181E-05	2.434108E-06
3.163041E+03	9.991888E-05	2.517495E-06
3.173019E+03	1.035262E-04	2.605189E-06
3.182997E+03	1.073207E-04	2.697348E-06
3.192975E+03	1.113163E-04	2.794299E-06
3.202954E+03	1.155207E-04	2.896217E-06
3.212932E+03	1.199491E-04	3.003460E-06
3.222910E+03	1.246104E-04	3.116224E-06
3.232888E+03	1.295210E-04	3.234898E-06
3.242866E+03	1.346948E-04	3.359801E-06
3.252844E+03	1.401420E-04	3.491159E-06
3.262822E+03	1.458773E-04	3.629304E-06
3.272800E+03	1.519203E-04	3.774699E-06
3.282778E+03	1.582874E-04	3.927715E-06
3.292756E+03	1.649910E-04	4.088623E-06
3.302734E+03	1.720533E-04	4.257936E-06
3.312712E+03	1.794927E-04	4.436067E-06
3.322690E+03	1.873230E-04	4.623320E-06
3.332668E+03	1.955636E-04	4.820124E-06
3.342646E+03	2.042454E-04	5.027199E-06
3.352624E+03	2.133726E-04	5.244595E-06
3.362602E+03	2.229838E-04	5.473208E-06
3.372580E+03	2.330828E-04	5.713079E-06
3.382558E+03	2.437106E-04	5.965155E-06
3.392536E+03	2.548773E-04	6.229623E-06
3.402514E+03	2.666057E-04	6.506975E-06
3.412493E+03	2.789262E-04	6.797886E-06
3.422471E+03	2.918625E-04	7.102868E-06
3.432449E+03	3.054310E-04	7.422242E-06
3.442427E+03	3.196631E-04	7.756697E-06
3.452405E+03	3.345740E-04	8.106524E-06
3.462383E+03	3.501956E-04	8.472409E-06
3.472361E+03	3.665417E-04	8.854604E-06
3.482339E+03	3.836436E-04	9.253777E-06
3.492317E+03	4.015236E-04	9.670366E-06
3.502295E+03	4.201919E-04	1.010453E-05
3.512273E+03	4.396675E-04	1.055662E-05
3.522251E+03	4.599787E-04	1.102722E-05
3.532229E+03	4.811310E-04	1.151635E-05
3.542207E+03	5.031501E-04	1.202452E-05
3.552185E+03	5.260493E-04	1.255194E-05
3.562163E+03	5.498128E-04	1.309812E-05
3.572141E+03	5.744867E-04	1.366405E-05
3.582119E+03	6.000352E-04	1.424875E-05
3.592097E+03	6.265010E-04	1.485313E-05
3.602075E+03	6.538386E-04	1.547598E-05
3.612053E+03	6.820708E-04	1.611773E-05
3.622032E+03	7.111881E-04	1.677803E-05
3.632010E+03	7.411599E-04	1.745605E-05
3.641988E+03	7.719651E-04	1.815116E-05
3.651966E+03	8.035786E-04	1.886266E-05
3.661944E+03	8.359888E-04	1.959017E-05
3.671922E+03	8.691407E-04	2.033229E-05
3.681900E+03	9.030134E-04	2.108841E-05
3.691878E+03	9.375393E-04	2.185687E-05
3.701856E+03	9.726644E-04	2.263629E-05
3.711834E+03	1.008350E-03	2.342569E-05
3.721812E+03	1.044485E-03	2.422241E-05
3.731790E+03	1.081040E-03	2.502570E-05
3.741768E+03	1.117939E-03	2.583368E-05
3.751746E+03	1.155046E-03	2.664322E-05
3.761724E+03	1.192318E-03	2.745325E-05
3.771702E+03	1.229608E-03	2.826033E-05
3.781680E+03	1.266861E-03	2.906319E-05
3.791658E+03	1.303942E-03	2.985874E-05
3.801636E+03	1.340767E-03	3.064503E-05
3.811614E+03	1.377162E-03	3.141813E-05
3.821592E+03	1.413033E-03	3.217592E-05
3.831571E+03	1.448287E-03	3.291633E-05
3.841549E+03	1.482739E-03	3.363525E-05
3.851527E+03	1.516296E-03	3.433061E-05
3.861505E+03	1.548863E-03	3.500038E-05
3.871483E+03	1.580258E-03	3.564058E-05
3.881461E+03	1.610393E-03	3.624938E-05
3.891439E+03	1.639157E-03	3.682440E-05
3.901417E+03	1.666444E-03	3.736343E-05
3.911395E+03	1.692156E-03	3.786450E-05
3.921373E+03	1.716208E-03	3.832586E-05
3.931351E+03	1.738489E-03	3.874528E-05
3.941329E+03	1.759005E-03	3.912308E-05
3.951307E+03	1.777640E-03	3.945696E-05
3.961285E+03	1.794363E-03	3.974644E-05
3.971263E+03	1.809224E-03	3.999291E-05
3.981241E+03	1.822158E-03	4.019518E-05
3.991219E+03	1.833189E-03	4.035400E-05
4.001197E+03	1.842419E-03	4.047191E-05
4.011175E+03	1.849805E-03	4.054821E-05
4.021153E+03	1.855524E-03	4.058699E-05
4.031132E+03	1.859566E-03	4.058831E-05
4.041110E+03	1.862139E-03	4.055690E-05
4.051088E+03	1.863266E-03	4.049348E-05
4.061066E+03	1.863147E-03	4.040257E-05
4.071044E+03	1.861926E-03	4.028750E-05
4.081022E+03	1.859692E-03	4.015034E-05
4.091000E+03	1.856671E-03	3.999610E-05
4.100978E+03	1.853025E-03	3.982837E-05
4.110956E+03	1.848858E-03	3.964950E-05
4.120934E+03	1.844401E-03	3.946448E-05
4.130912E+03	1.839757E-03	3.927557E-05
4.140890E+03	1.835151E-03	3.908760E-05
4.150868E+03	1.830712E-03	3.890331E-05
4.160846E+03	1.826596E-03	3.872595E-05
4.170824E+03	1.822951E-03	3.855866E-05
4.180802E+03	1.819925E-03	3.840447E-05
4.190780E+03	1.817655E-03	3.826618E-05
4.200758E+03	1.816249E-03	3.814595E-05
4.210736E+03	1.815895E-03	3.804759E-05
4.220714E+03	1.816662E-03	3.797240E-05
4.230692E+03	1.818704E-03	3.792339E-05
4.240671E+03	1.822140E-03	3.790287E-05
4.250649E+03	1.827062E-03	3.791253E-05
4.260627E+03	1.833614E-03	3.795511E-05
4.270605E+03	1.841911E-03	3.803277E-05
4.280583E+03	1.852037E-03	3.814697E-05
4.290561E+03	1.864130E-03	3.830021E-05
4.300539E+03	1.878267E-03	3.849381E-05
4.310517E+03	1.894576E-03	3.873006E-05
4.320495E+03	1.913118E-03	3.900985E-05
4.330473E+03	1.933974E-03	3.933448E-05
4.340451E+03	1.957237E-03	3.970546E-05
4.350429E+03	1.982926E-03	4.012279E-05
4.360407E+03	2.011061E-03	4.058651E-05
4.370385E+03	2.041636E-03	4.109607E-05
4.380363E+03	2.074637E-03	4.165081E-05
4.390341E+03	2.109920E-03	4.224746E-05
4.400319E+03	2.147412E-03	4.288419E-05
4.410297E+03	2.186865E-03	4.355566E-05
4.420275E+03	2.228090E-03	4.425784E-05
4.430253E+03	2.270711E-03	4.498293E-05
4.440231E+03	2.314408E-03	4.572443E-05
4.450210E+03	2.358663E-03	4.647192E-05
4.460188E+03	2.402989E-03	4.721571E-05
4.470166E+03	2.446802E-03	4.794437E-05
4.480144E+03	2.489470E-03	4.864560E-05
4.490122E+03	2.530285E-03	4.930578E-05
4.500100E+03	2.568591E-03	4.991247E-05
4.510078E+03	2.603664E-03	5.045202E-05
4.520056E+03	2.634914E-03	5.091357E-05
4.530034E+03	2.661626E-03	5.128396E-05
4.540012E+03	2.683343E-03	5.155516E-05
4.549990E+03	2.699644E-03	5.171992E-05
4.559968E+03	2.710193E-03	5.177271E-05
4.569946E+03	2.714827E-03	5.171139E-05
4.579924E+03	2.713571E-03	5.153743E-05
4.589902E+03	2.706522E-03	5.125363E-05
4.599880E+03	2.693954E-03	5.086615E-05
4.609858E+03	2.676305E-03	5.038416E-05
4.619836E+03	2.654047E-03	4.981739E-05
4.629814E+03	2.627739E-03	4.917710E-05
4.639792E+03	2.598104E-03	4.847743E-05
4.649771E+03	2.565792E-03	4.773108E-05
4.659749E+03	2.531529E-03	4.695195E-05
4.669727E+03	2.495924E-03	4.615169E-05
4.679705E+03	2.459656E-03	4.534301E-05
4.689683E+03	2.423319E-03	4.453699E-05
4.699661E+03	2.387448E-03	4.374344E-05
4.709639E+03	2.352509E-03	4.297083E-05
4.719617E+03	2.318899E-03	4.222623E-05
4.729595E+03	2.286913E-03	4.151479E-05
4.739573E+03	2.256867E-03	4.084195E-05
4.749551E+03	2.228890E-03	4.020977E-05
4.759529E+03	2.203146E-03	3.962080E-05
4.769507E+03	2.179681E-03	3.907554E-05
4.779485E+03	2.158580E-03	3.857513E-05
4.789463E+03	2.139778E-03	3.811801E-05
4.799441E+03	2.123232E-03	3.770304E-05
4.809419E+03	2.108898E-03	3.732907E-05
4.819397E+03	2.096683E-03	3.699410E-05
4.829375E+03	2.086481E-03	3.669592E-05
4.839353E+03	2.078128E-03	3.643129E-05
4.849331E+03	2.071583E-03	3.619924E-05
4.859310E+03	2.066678E-03	3.599650E-05
4.869288E+03	2.063303E-03	3.582093E-05
4.879266E+03	2.061384E-03	3.567099E-05
4.889244E+03	2.060811E-03	3.554452E-05
4.899222E+03	2.061514E-03	3.544013E-05
4.909200E+03	2.063469E-03	3.535719E-05
4.919178E+03	2.066647E-03	3.529503E-05
4.929156E+03	2.070994E-03	3.525250E-05
4.939134E+03	2.076576E-03	3.523055E-05
4.949112E+03	2.083405E-03	3.522921E-05
4.959090E+03	2.091567E-03	3.524969E-05
4.969068E+03	2.101112E-03	3.529264E-05
4.979046E+03	2.112127E-03	3.535932E-05
4.989024E+03	2.124712E-03	3.545113E-05
4.999002E+03	2.138989E-03	3.556989E-05
5.008980E+03	2.155030E-03	3.571650E-05
5.018958E+03	2.172918E-03	3.589208E-05
5.028936E+03	2.192717E-03	3.609736E-05
5.038914E+03	2.214462E-03	3.633266E-05
5.048892E+03	2.238181E-03	3.659812E-05
5.058870E+03	2.263781E-03	3.689191E-05
5.068849E+03	2.291222E-03	3.721312E-05
5.078827E+03	2.320334E-03	3.755870E-05
5.088805E+03	2.350912E-03	3.792512E-05
5.098783E+03	2.382723E-03	3.830841E-05
5.108761E+03	2.415391E-03	3.870240E-05
5.118739E+03	2.448572E-03	3.910146E-05
5.128717E+03	2.481871E-03	3.949930E-05
5.138695E+03	2.514807E-03	3.988827E-05
5.148673E+03	2.546897E-03	4.026085E-05
5.158651E+03	2.577618E-03	4.060899E-05
5.168629E+03	2.606544E-03	4.092624E-05
5.178607E+03	2.633210E-03	4.120567E-05
5.188585E+03	2.657127E-03	4.144005E-05
5.198563E+03	2.677946E-03	4.162442E-05
5.208541E+03	2.695349E-03	4.175439E-05
5.218519E+03	2.709118E-03	4.182716E-05
5.228497E+03	2.719015E-03	4.183966E-05
5.238475E+03	2.724998E-03	4.179190E-05
5.248453E+03	2.726972E-03	4.168304E-05
5.258431E+03	2.725031E-03	4.151516E-05
5.268409E+03	2.719230E-03	4.128972E-05
5.278388E+03	2.709703E-03	4.100934E-05
5.288366E+03	2.696622E-03	4.067721E-05
5.298344E+03	2.680185E-03	4.029682E-05
5.308322E+03	2.660610E-03	3.987197E-05
5.318300E+03	2.638155E-03	3.940696E-05
5.328278E+03	2.612993E-03	3.890481E-05
5.338256E+03	2.585418E-03	3.837024E-05
5.348234E+03	2.555601E-03	3.780616E-05
5.358212E+03	2.523827E-03	3.721706E-05
5.368190E+03	2.490290E-03	3.660605E-05
5.378168E+03	2.455209E-03	3.597659E-05
5.388146E+03	2.418800E-03	3.533202E-05
5.398124E+03	2.381308E-03	3.467605E-05
5.408102E+03	2.342897E-03	3.401121E-05
5.418080E+03	2.303842E-03	3.334157E-05
5.428058E+03	2.264344E-03	3.267007E-05
5.438036E+03	2.224633E-03	3.200005E-05
5.448014E+03	2.184937E-03	3.133477E-05
5.457992E+03	2.145505E-03	3.067777E-05
5.467970E+03	2.106524E-03	3.003163E-05
5.477949E+03	2.068156E-03	2.939856E-05
5.487927E+03	2.030583E-03	2.878101E-05
5.497905E+03	1.993767E-03	2.817831E-05
5.507883E+03	1.957742E-03	2.759076E-05
5.517861E+03	1.922474E-03	2.701774E-05
5.527839E+03	1.887965E-03	2.645910E-05
5.537817E+03	1.854255E-03	2.591526E-05
5.547795E+03	1.821349E-03	2.538612E-05
5.557773E+03	1.789374E-03	2.487330E-05
5.567751E+03	1.758354E-03	2.437699E-05
5.577729E+03	1.728434E-03	2.389898E-05
5.587707E+03	1.699708E-03	2.344045E-05
5.597685E+03	1.672316E-03	2.300312E-05
5.607663E+03	1.646367E-03	2.258830E-05
5.617641E+03	1.621984E-03	2.219745E-05
5.627619E+03	1.599307E-03	2.183231E-05
5.637597E+03	1.578433E-03	2.149396E-05
5.647575E+03	1.559482E-03	2.118383E-05
5.657553E+03	1.542533E-03	2.090275E-05
5.667531E+03	1.527688E-03	2.065186E-05
5.677509E+03	1.514998E-03	2.043164E-05
5.687488E+03	1.504521E-03	2.024262E-05
5.697466E+03	1.496333E-03	2.008560E-05
5.707444E+03	1.490415E-03	1.996008E-05
5.717422E+03	1.486830E-03	1.986668E-05
5.727400E+03	1.485545E-03	1.980474E-05
5.737378E+03	1.486546E-03	1.977384E-05
5.747356E+03	1.489819E-03	1.977359E-05
5.757334E+03	1.495319E-03	1.980320E-05
5.767312E+03	1.502971E-03	1.986148E-05
5.777290E+03	1.512719E-03	1.994749E-05
5.787268E+03	1.524476E-03	2.005992E-05
5.797246E+03	1.538126E-03	2.019710E-05
5.807224E+03	1.553579E-03	2.035768E-05
5.817202E+03	1.570716E-03	2.053997E-05
5.827180E+03	1.589419E-03	2.074230E-05
5.837158E+03	1.609546E-03	2.096272E-05
5.847136E+03	1.630996E-03	2.119981E-05
5.857114E+03	1.653658E-03	2.145204E-05
5.867092E+03	1.677435E-03	2.171807E-05
5.877070E+03	1.702250E-03	2.199684E-05
5.887048E+03	1.728029E-03	2.228735E-05
5.897027E+03	1.754791E-03	2.258977E-05
5.907005E+03	1.782511E-03	2.290374E-05
5.916983E+03	1.811284E-03	2.323041E-05
5.926961E+03	1.841172E-03	2.357054E-05
5.936939E+03	1.872344E-03	2.392622E-05
5.946917E+03	1.905001E-03	2.429994E-05
5.956895E+03	1.939392E-03	2.469481E-05
5.966873E+03	1.975842E-03	2.511486E-05
5.976851E+03	2.014661E-03	2.556390E-05
5.986829E+03	2.056267E-03	2.604711E-05
5.996807E+03	2.101125E-03	2.657023E-05
6.006785E+03	2.149672E-03	2.713857E-05
6.016763E+03	2.202471E-03	2.775904E-05
6.026741E+03	2.260043E-03	2.843797E-05
6.036719E+03	2.322951E-03	2.918219E-05
6.046697E+03	2.391772E-03	2.999865E-05
6.056675E+03	2.467111E-03	3.089462E-05
6.066653E+03	2.549482E-03	3.187620E-05
6.076631E+03	2.639479E-03	3.295045E-05
6.086609E+03	2.737600E-03	3.412322E-05
6.096588E+03	2.844211E-03	3.539867E-05
6.106566E+03	2.959708E-03	3.678132E-05
6.116544E+03	3.084302E-03	3.827339E-05
6.126522E+03	3.217974E-03	3.987425E-05
6.136500E+03	3.360645E-03	4.158253E-05
6.146478E+03	3.511932E-03	4.339314E-05
6.156456E+03	3.671130E-03	4.529705E-05
6.166434E+03	3.837252E-03	4.728184E-05
6.176412E+03	4.009003E-03	4.933133E-05
6.186390E+03	4.184674E-03	5.142438E-05
6.196368E+03	4.362113E-03	5.353456E-05
6.206346E+03	4.538891E-03	5.563214E-05
6.216324E+03	4.712128E-03	5.768205E-05
6.226302E+03	4.878756E-03	5.964710E-05
6.236280E+03	5.035389E-03	6.148640E-05
6.246258E+03	5.178661E-03	6.315946E-05
6.256236E+03	5.305176E-03	6.462566E-05
6.266214E+03	5.411723E-03	6.584678E-05
6.276192E+03	5.495362E-03	6.678801E-05
6.286170E+03	5.553753E-03	6.742200E-05
6.296148E+03	5.585107E-03	6.772816E-05
6.306127E+03	5.588350E-03	6.769459E-05
6.316105E+03	5.563113E-03	6.731795E-05
6.326083E+03	5.510015E-03	6.660679E-05
6.336061E+03	5.430186E-03	6.557579E-05
6.346039E+03	5.325637E-03	6.425013E-05
6.356017E+03	5.198905E-03	6.266115E-05
6.365995E+03	5.052970E-03	6.084544E-05
6.375973E+03	4.891114E-03	5.884300E-05
6.385951E+03	4.716763E-03	5.669541E-05
6.395929E+03	4.533397E-03	5.444468E-05
6.405907E+03	4.344206E-03	5.212924E-05
6.415885E+03	4.152316E-03	4.978656E-05
6.425863E+03	3.960496E-03	4.744971E-05
6.435841E+03	3.771204E-03	4.514796E-05
6.445819E+03	3.586438E-03	4.290494E-05
6.455797E+03	3.407875E-03	4.074038E-05
6.465775E+03	3.236837E-03	3.866965E-05
6.475753E+03	3.074316E-03	3.670427E-05
6.485731E+03	2.921040E-03	3.485252E-05
6.495709E+03	2.777394E-03	3.311863E-05
6.505687E+03	2.643540E-03	3.150417E-05
6.515666E+03	2.519367E-03	3.000748E-05
6.525644E+03	2.404489E-03	2.862364E-05
6.535622E+03	2.298217E-03	2.734418E-05
6.545600E+03	2.199822E-03	2.616017E-05
6.555578E+03	2.108525E-03	2.506211E-05
6.565556E+03	2.023651E-03	2.404179E-05
6.575534E+03	1.944546E-03	2.309126E-05
6.585512E+03	1.870653E-03	2.220376E-05
6.595490E+03	1.801531E-03	2.137390E-05
6.605468E+03	1.736691E-03	2.059579E-05
6.615446E+03	1.675813E-03	1.986549E-05
6.625424E+03	1.618584E-03	1.917920E-05
6.635402E+03	1.564734E-03	1.853365E-05
6.645380E+03	1.514016E-03	1.792582E-05
6.655358E+03	1.466240E-03	1.735339E-05
6.665336E+03	1.421279E-03	1.681479E-05
6.675314E+03	1.378962E-03	1.630795E-05
6.685292E+03	1.339198E-03	1.583172E-05
6.695270E+03	1.301879E-03	1.538477E-05
6.705248E+03	1.266964E-03	1.496659E-05
6.715227E+03	1.234365E-03	1.457607E-05
6.725205E+03	1.204050E-03	1.421280E-05
6.735183E+03	1.175983E-03	1.387632E-05
6.745161E+03	1.150137E-03	1.356625E-05
6.755139E+03	1.126472E-03	1.328210E-05
6.765117E+03	1.104997E-03	1.302395E-05
6.775095E+03	1.085669E-03	1.279121E-05
6.785073E+03	1.068486E-03	1.258387E-05
6.795051E+03	1.053447E-03	1.240186E-05
6.805029E+03	1.040511E-03	1.224468E-05
6.815007E+03	1.029681E-03	1.211230E-05
6.824985E+03	1.020940E-03	1.200450E-05
6.834963E+03	1.014287E-03	1.192125E-05
6.844941E+03	1.009686E-03	1.186205E-05
6.854919E+03	1.007145E-03	1.182700E-05
6.864897E+03	1.006627E-03	1.181561E-05
6.874875E+03	1.008145E-03	1.182799E-05
6.884853E+03	1.011663E-03	1.186367E-05
6.894831E+03	1.017191E-03	1.192276E-05
6.904809E+03	1.024711E-03	1.200497E-05
6.914787E+03	1.034216E-03	1.211019E-05
6.924766E+03	1.045714E-03	1.223848E-05
6.934744E+03	1.059176E-03	1.238944E-05
6.944722E+03	1.074633E-03	1.256339E-05
6.954700E+03	1.092075E-03	1.276016E-05
6.964678E+03	1.111515E-03	1.297985E-05
6.974656E+03	1.132965E-03	1.322256E-05
6.984634E+03	1.156462E-03	1.348864E-05
6.994612E+03	1.182016E-03	1.377817E-05
7.004590E+03	1.209658E-03	1.409144E-05
7.014568E+03	1.239437E-03	1.442896E-05
7.024546E+03	1.271375E-03	1.479092E-05
7.034524E+03	1.305513E-03	1.517771E-05
7.044502E+03	1.341887E-03	1.558969E-05
7.054480E+03	1.380548E-03	1.602737E-05
7.064458E+03	1.421505E-03	1.649078E-05
7.074436E+03	1.464785E-03	1.698015E-05
7.084414E+03	1.510341E-03	1.749484E-05
7.094392E+03	1.558190E-03	1.803496E-05
7.104370E+03	1.608193E-03	1.859882E-05
7.114348E+03	1.660265E-03	1.918535E-05
7.124326E+03	1.714201E-03	1.979209E-05
7.134305E+03	1.769772E-03	2.041632E-05
7.144283E+03	1.826628E-03	2.105392E-05
7.154261E+03	1.884384E-03	2.170039E-05
7.164239E+03	1.942519E-03	2.234969E-05
7.174217E+03	2.000450E-03	2.299507E-05
7.184195E+03	2.057537E-03	2.362917E-05
7.194173E+03	2.113017E-03	2.424322E-05
7.204151E+03	2.166117E-03	2.482840E-05
7.214129E+03	2.215973E-03	2.537487E-05
7.224107E+03	2.261731E-03	2.587296E-05
7.234085E+03	2.302579E-03	2.631351E-05
7.244063E+03	2.337692E-03	2.668727E-05
7.254041E+03	2.366376E-03	2.698653E-05
7.264019E+03	2.387981E-03	2.720409E-05
7.273997E+03	2.402048E-03	2.733500E-05
7.283975E+03	2.408206E-03	2.737532E-05
7.293953E+03	2.406280E-03	2.732338E-05
7.303931E+03	2.396301E-03	2.717984E-05
7.313909E+03	2.378410E-03	2.694663E-05
7.323887E+03	2.352980E-03	2.662828E-05
7.333865E+03	2.320468E-03	2.623029E-05
7.343844E+03	2.281532E-03	2.576039E-05
7.353822E+03	2.236846E-03	2.522646E-05
7.363800E+03	2.187318E-03	2.463897E-05
7.373778E+03	2.133758E-03	2.400728E-05
7.383756E+03	2.077069E-03	2.334172E-05
7.393734E+03	2.018153E-03	2.265257E-05
7.403712E+03	1.957916E-03	2.195011E-05
7.413690E+03	1.897193E-03	2.124375E-05
7.423668E+03	1.836707E-03	2.054165E-05
7.433646E+03	1.777216E-03	1.985227E-05
7.443624E+03	1.719341E-03	1.918254E-05
7.453602E+03	1.663599E-03	1.853816E-05
7.463580E+03	1.610444E-03	1.792411E-05
7.473558E+03	1.560250E-03	1.734447E-05
7.483536E+03	1.513332E-03	1.680263E-05
7.493514E+03	1.469889E-03	1.630069E-05
7.503492E+03	1.430099E-03	1.584047E-05
7.513470E+03	1.394043E-03	1.542274E-05
7.523448E+03	1.361773E-03	1.504794E-05
7.533426E+03	1.333301E-03	1.471606E-05
7.543405E+03	1.308622E-03	1.442693E-05
7.553383E+03	1.287668E-03	1.417962E-05
7.563361E+03	1.270364E-03	1.397322E-05
7.573339E+03	1.256636E-03	1.380678E-05
7.583317E+03	1.246342E-03	1.367860E-05
7.593295E+03	1.239395E-03	1.358764E-05
7.603273E+03	1.235662E-03	1.353233E-05
7.613251E+03	1.234961E-03	1.351060E-05
7.623229E+03	1.237173E-03	1.352104E-05
7.633207E+03	1.242094E-03	1.356139E-05
7.643185E+03	1.249580E-03	1.362999E-05
7.653163E+03	1.259440E-03	1.372472E-05
7.663141E+03	1.271437E-03	1.384297E-05
7.673119E+03	1.285375E-03	1.398257E-05
7.683097E+03	1.301053E-03	1.414131E-05
7.693075E+03	1.318221E-03	1.431651E-05
7.703053E+03	1.336646E-03	1.450563E-05
7.713031E+03	1.356093E-03	1.470615E-05
7.723009E+03	1.376329E-03	1.491556E-05
7.732987E+03	1.397127E-03	1.513146E-05
7.742965E+03	1.418267E-03	1.535153E-05
