#wls	flux	fluxerr
1.596488E+03	4.091001E-05	1.157827E-06
1.636400E+03	3.982434E-05	1.125466E-06
1.676312E+03	3.879711E-05	1.094799E-06
1.716224E+03	3.782674E-05	1.065776E-06
1.756136E+03	3.692013E-05	1.038586E-06
1.796049E+03	3.607629E-05	1.013196E-06
1.835961E+03	3.529393E-05	9.895630E-07
1.875873E+03	3.457726E-05	9.677973E-07
1.915785E+03	3.392440E-05	9.478393E-07
1.955697E+03	3.333621E-05	9.297049E-07
1.995610E+03	3.281603E-05	9.134784E-07
2.035522E+03	3.237401E-05	8.994326E-07
2.075434E+03	3.202296E-05	8.879105E-07
2.115346E+03	3.178869E-05	8.796122E-07
2.155258E+03	3.169073E-05	8.750567E-07
2.195171E+03	3.174035E-05	8.745304E-07
2.235083E+03	3.193022E-05	8.778040E-07
2.274995E+03	3.225241E-05	8.846325E-07
2.314907E+03	3.269664E-05	8.947064E-07
2.354819E+03	3.326222E-05	9.079806E-07
2.394732E+03	3.395048E-05	9.244625E-07
2.434644E+03	3.477381E-05	9.444598E-07
2.474556E+03	3.574380E-05	9.682520E-07
2.514468E+03	3.687659E-05	9.962376E-07
2.554380E+03	3.819137E-05	1.028890E-06
2.594293E+03	3.971069E-05	1.066767E-06
2.634205E+03	4.146285E-05	1.110567E-06
2.674117E+03	4.347576E-05	1.160970E-06
2.714029E+03	4.579007E-05	1.218982E-06
2.753941E+03	4.844614E-05	1.285582E-06
2.793854E+03	5.149800E-05	1.362097E-06
2.833766E+03	5.500762E-05	1.450035E-06
2.873678E+03	5.904839E-05	1.551178E-06
2.913590E+03	6.370461E-05	1.667561E-06
2.953502E+03	6.908034E-05	1.801693E-06
2.993414E+03	7.529216E-05	1.956359E-06
3.003393E+03	7.699086E-05	1.998593E-06
3.013371E+03	7.875502E-05	2.042429E-06
3.023349E+03	8.058427E-05	2.087852E-06
3.033327E+03	8.248121E-05	2.134924E-06
3.043305E+03	8.444861E-05	2.183711E-06
3.053283E+03	8.648956E-05	2.234286E-06
3.063261E+03	8.860976E-05	2.286789E-06
3.073239E+03	8.835226E-05	2.277870E-06
3.083217E+03	9.056198E-05	2.332497E-06
3.093195E+03	9.545679E-05	2.456082E-06
3.103173E+03	9.791116E-05	2.516670E-06
3.113151E+03	1.004567E-04	2.579455E-06
3.123129E+03	1.031002E-04	2.644606E-06
3.133107E+03	1.058417E-04	2.712111E-06
3.143085E+03	1.086845E-04	2.782047E-06
3.153063E+03	1.116322E-04	2.854496E-06
3.163041E+03	1.146922E-04	2.929641E-06
3.173019E+03	1.178645E-04	3.007466E-06
3.182997E+03	1.211486E-04	3.087951E-06
3.192975E+03	1.245566E-04	3.171390E-06
3.202954E+03	1.280882E-04	3.257769E-06
3.212932E+03	1.317519E-04	3.347287E-06
3.222910E+03	1.355427E-04	3.439808E-06
3.232888E+03	1.394738E-04	3.535652E-06
3.242866E+03	1.435448E-04	3.634794E-06
3.252844E+03	1.477597E-04	3.737325E-06
3.262822E+03	1.521226E-04	3.843332E-06
3.272800E+03	1.566376E-04	3.952905E-06
3.282778E+03	1.613143E-04	4.066268E-06
3.292756E+03	1.661460E-04	4.183239E-06
3.302734E+03	1.711478E-04	4.304181E-06
3.312712E+03	1.763183E-04	4.429044E-06
3.322690E+03	1.816616E-04	4.557907E-06
3.332668E+03	1.871816E-04	4.690856E-06
3.342646E+03	1.928884E-04	4.828124E-06
3.352624E+03	1.987734E-04	4.969475E-06
3.362602E+03	2.048532E-04	5.115305E-06
3.372580E+03	2.111249E-04	5.265523E-06
3.382558E+03	2.175920E-04	5.420193E-06
3.392536E+03	2.242580E-04	5.579384E-06
3.402514E+03	2.311258E-04	5.743145E-06
3.412493E+03	2.381988E-04	5.911537E-06
3.422471E+03	2.454796E-04	6.084605E-06
3.432449E+03	2.529791E-04	6.262595E-06
3.442427E+03	2.606922E-04	6.445356E-06
3.452405E+03	2.686128E-04	6.632713E-06
3.462383E+03	2.767598E-04	6.825109E-06
3.472361E+03	2.851272E-04	7.022371E-06
3.482339E+03	2.937167E-04	7.224515E-06
3.492317E+03	3.025300E-04	7.431559E-06
3.502295E+03	3.115785E-04	7.643756E-06
3.512273E+03	3.208444E-04	7.860642E-06
3.522251E+03	3.303386E-04	8.082458E-06
3.532229E+03	3.400729E-04	8.309466E-06
3.542207E+03	3.500386E-04	8.541423E-06
3.552185E+03	3.602259E-04	8.778066E-06
3.562163E+03	3.706580E-04	9.019929E-06
3.572141E+03	3.813255E-04	9.266755E-06
3.582119E+03	3.922300E-04	9.518555E-06
3.592097E+03	4.033731E-04	9.775339E-06
3.602075E+03	4.147570E-04	1.003713E-05
3.612053E+03	4.263839E-04	1.030395E-05
3.622032E+03	4.382566E-04	1.057583E-05
3.632010E+03	4.503917E-04	1.085315E-05
3.641988E+03	4.627661E-04	1.113531E-05
3.651966E+03	4.754111E-04	1.142305E-05
3.661944E+03	4.883037E-04	1.171576E-05
3.671922E+03	5.014625E-04	1.201386E-05
3.681900E+03	5.149084E-04	1.231783E-05
3.691878E+03	5.286328E-04	1.262741E-05
3.701856E+03	5.426259E-04	1.294234E-05
3.711834E+03	5.569255E-04	1.326348E-05
3.721812E+03	5.715050E-04	1.359016E-05
3.731790E+03	5.864030E-04	1.392326E-05
3.741768E+03	6.016072E-04	1.426244E-05
3.751746E+03	6.171206E-04	1.460773E-05
3.761724E+03	6.329251E-04	1.495867E-05
3.771702E+03	6.490547E-04	1.531602E-05
3.781680E+03	6.654854E-04	1.567917E-05
3.791658E+03	6.822064E-04	1.604782E-05
3.801636E+03	6.992018E-04	1.642155E-05
3.811614E+03	7.164286E-04	1.679933E-05
3.821592E+03	7.338970E-04	1.718136E-05
3.831571E+03	7.515488E-04	1.756623E-05
3.841549E+03	7.693368E-04	1.795283E-05
3.851527E+03	7.871816E-04	1.833927E-05
3.861505E+03	8.050597E-04	1.872500E-05
3.871483E+03	8.228716E-04	1.910768E-05
3.881461E+03	8.405285E-04	1.948526E-05
3.891439E+03	8.579078E-04	1.985492E-05
3.901417E+03	8.749501E-04	2.021531E-05
3.911395E+03	8.914912E-04	2.056266E-05
3.921373E+03	9.074560E-04	2.089530E-05
3.931351E+03	9.226950E-04	2.120986E-05
3.941329E+03	9.370511E-04	2.150280E-05
3.951307E+03	9.504206E-04	2.177185E-05
3.961285E+03	9.627017E-04	2.201480E-05
3.971263E+03	9.737226E-04	2.222784E-05
3.981241E+03	9.834020E-04	2.240928E-05
3.991219E+03	9.916504E-04	2.255722E-05
4.001197E+03	9.984305E-04	2.267100E-05
4.011175E+03	1.003654E-03	2.274880E-05
4.021153E+03	1.007318E-03	2.279070E-05
4.031132E+03	1.009510E-03	2.279893E-05
4.041110E+03	1.010271E-03	2.277455E-05
4.051088E+03	1.009705E-03	2.272008E-05
4.061066E+03	1.007917E-03	2.263805E-05
4.071044E+03	1.005118E-03	2.253337E-05
4.081022E+03	1.001430E-03	2.240885E-05
4.091000E+03	9.970925E-04	2.226999E-05
4.100978E+03	9.922410E-04	2.211988E-05
4.110956E+03	9.870887E-04	2.196333E-05
4.120934E+03	9.818146E-04	2.180436E-05
4.130912E+03	9.765858E-04	2.164670E-05
4.140890E+03	9.715306E-04	2.149317E-05
4.150868E+03	9.668393E-04	2.134796E-05
4.160846E+03	9.625783E-04	2.121250E-05
4.170824E+03	9.588878E-04	2.108981E-05
4.180802E+03	9.557838E-04	2.098017E-05
4.190780E+03	9.533304E-04	2.088491E-05
4.200758E+03	9.515477E-04	2.080438E-05
4.210736E+03	9.504162E-04	2.073809E-05
4.220714E+03	9.499807E-04	2.068691E-05
4.230692E+03	9.501815E-04	2.064947E-05
4.240671E+03	9.510552E-04	2.062646E-05
4.250649E+03	9.525454E-04	2.061659E-05
4.260627E+03	9.546518E-04	2.061976E-05
4.270605E+03	9.574420E-04	2.063735E-05
4.280583E+03	9.609385E-04	2.066976E-05
4.290561E+03	9.652017E-04	2.071817E-05
4.300539E+03	9.703906E-04	2.078591E-05
4.310517E+03	9.766840E-04	2.087665E-05
4.320495E+03	9.843117E-04	2.099516E-05
4.330473E+03	9.935524E-04	2.114718E-05
4.340451E+03	1.004723E-03	2.133922E-05
4.350429E+03	1.018269E-03	2.158045E-05
4.360407E+03	1.034703E-03	2.188140E-05
4.370385E+03	1.054639E-03	2.225460E-05
4.380363E+03	1.078766E-03	2.271409E-05
4.390341E+03	1.107958E-03	2.327763E-05
4.400319E+03	1.143085E-03	2.396278E-05
4.410297E+03	1.185175E-03	2.479015E-05
4.420275E+03	1.235403E-03	2.578334E-05
4.430253E+03	1.294899E-03	2.696470E-05
4.440231E+03	1.364894E-03	2.835850E-05
4.450210E+03	1.446497E-03	2.998626E-05
4.460188E+03	1.540555E-03	3.186381E-05
4.470166E+03	1.647335E-03	3.399487E-05
4.480144E+03	1.766304E-03	3.636669E-05
4.490122E+03	1.895682E-03	3.894089E-05
4.500100E+03	2.032152E-03	4.164803E-05
4.510078E+03	2.170620E-03	4.438289E-05
4.520056E+03	2.304468E-03	4.701013E-05
4.530034E+03	2.425900E-03	4.937172E-05
4.540012E+03	2.526788E-03	5.130439E-05
4.549990E+03	2.599946E-03	5.266547E-05
4.559968E+03	2.640124E-03	5.335284E-05
4.569946E+03	2.644925E-03	5.332293E-05
4.579924E+03	2.614998E-03	5.259387E-05
4.589902E+03	2.553890E-03	5.124186E-05
4.599880E+03	2.467171E-03	4.938290E-05
4.609858E+03	2.361563E-03	4.715499E-05
4.619836E+03	2.157815E-03	4.298222E-05
4.629814E+03	2.121960E-03	4.216519E-05
4.639792E+03	1.923164E-03	3.812166E-05
4.649771E+03	1.884076E-03	3.725532E-05
4.659749E+03	1.776100E-03	3.503384E-05
4.669727E+03	1.678331E-03	3.302360E-05
4.679705E+03	1.591751E-03	3.124241E-05
4.689683E+03	1.516582E-03	2.969301E-05
4.699661E+03	1.452515E-03	2.836769E-05
4.709639E+03	1.399019E-03	2.725451E-05
4.719617E+03	1.355200E-03	2.633456E-05
4.729595E+03	1.320263E-03	2.559099E-05
4.739573E+03	1.293201E-03	2.500307E-05
4.749551E+03	1.273211E-03	2.455414E-05
4.759529E+03	1.259393E-03	2.422586E-05
4.769507E+03	1.250998E-03	2.400295E-05
4.779485E+03	1.247322E-03	2.387116E-05
4.789463E+03	1.247693E-03	2.381697E-05
4.799441E+03	1.251549E-03	2.382907E-05
4.809419E+03	1.258306E-03	2.389588E-05
4.819397E+03	1.267458E-03	2.400738E-05
4.829375E+03	1.278440E-03	2.415256E-05
4.839353E+03	1.290761E-03	2.432187E-05
4.849331E+03	1.303747E-03	2.450251E-05
4.859310E+03	1.316860E-03	2.468426E-05
4.869288E+03	1.329391E-03	2.485384E-05
4.879266E+03	1.340719E-03	2.499981E-05
4.889244E+03	1.350383E-03	2.511374E-05
4.899222E+03	1.357904E-03	2.518702E-05
4.909200E+03	1.363083E-03	2.521628E-05
4.919178E+03	1.365604E-03	2.519604E-05
4.929156E+03	1.365187E-03	2.512155E-05
4.939134E+03	1.361565E-03	2.498836E-05
4.949112E+03	1.354476E-03	2.479212E-05
4.959090E+03	1.343760E-03	2.453044E-05
4.969068E+03	1.329587E-03	2.420696E-05
4.979046E+03	1.312477E-03	2.383161E-05
4.989024E+03	1.293478E-03	2.342382E-05
4.999002E+03	1.274024E-03	2.300975E-05
5.008980E+03	1.255814E-03	2.262008E-05
5.018958E+03	1.240720E-03	2.228827E-05
5.028936E+03	1.230640E-03	2.204786E-05
5.038914E+03	1.227307E-03	2.192910E-05
5.048892E+03	1.232214E-03	2.195761E-05
5.058870E+03	1.246662E-03	2.215537E-05
5.068849E+03	1.271633E-03	2.253837E-05
5.078827E+03	1.307866E-03	2.311824E-05
5.088805E+03	1.355718E-03	2.389965E-05
5.098783E+03	1.415199E-03	2.488117E-05
5.108761E+03	1.485745E-03	2.605127E-05
5.118739E+03	1.566190E-03	2.738803E-05
5.128717E+03	1.654529E-03	2.885514E-05
5.138695E+03	1.747789E-03	3.039982E-05
5.148673E+03	1.842085E-03	3.195407E-05
5.158651E+03	1.932800E-03	3.343789E-05
5.168629E+03	1.933213E-03	3.335558E-05
5.178607E+03	1.999016E-03	3.439883E-05
5.188585E+03	2.134832E-03	3.663797E-05
5.198563E+03	2.166908E-03	3.708946E-05
5.208541E+03	2.179717E-03	3.720957E-05
5.218519E+03	2.175169E-03	3.703345E-05
5.228497E+03	2.156714E-03	3.662208E-05
5.238475E+03	2.128551E-03	3.604844E-05
5.248453E+03	2.094678E-03	3.538139E-05
5.258431E+03	2.058292E-03	3.467550E-05
5.268409E+03	2.021640E-03	3.396888E-05
5.278388E+03	1.986019E-03	3.328329E-05
5.288366E+03	1.951829E-03	3.262524E-05
5.298344E+03	1.918748E-03	3.198918E-05
5.308322E+03	1.886260E-03	3.136637E-05
5.318300E+03	1.853471E-03	3.074189E-05
5.328278E+03	1.819585E-03	3.010259E-05
5.338256E+03	1.784037E-03	2.943929E-05
5.348234E+03	1.746503E-03	2.874683E-05
5.358212E+03	1.707123E-03	2.802774E-05
5.368190E+03	1.666376E-03	2.729007E-05
5.378168E+03	1.625184E-03	2.654904E-05
5.388146E+03	1.584661E-03	2.582280E-05
5.398124E+03	1.482731E-03	2.410219E-05
5.408102E+03	1.510611E-03	2.449519E-05
5.418080E+03	1.479112E-03	2.392601E-05
5.428058E+03	1.452013E-03	2.343086E-05
5.438036E+03	1.429065E-03	2.300519E-05
5.448014E+03	1.409307E-03	2.263305E-05
5.457992E+03	1.391143E-03	2.228853E-05
5.467970E+03	1.372487E-03	2.193806E-05
5.477949E+03	1.351118E-03	2.154628E-05
5.487927E+03	1.325569E-03	2.109012E-05
5.497905E+03	1.295481E-03	2.056431E-05
5.507883E+03	1.261300E-03	1.997637E-05
5.517861E+03	1.223681E-03	1.933703E-05
5.527839E+03	1.183402E-03	1.865889E-05
5.537817E+03	1.141192E-03	1.795364E-05
5.547795E+03	1.097762E-03	1.723258E-05
5.557773E+03	1.053775E-03	1.650619E-05
5.567751E+03	1.009786E-03	1.578314E-05
5.577729E+03	9.663321E-04	1.507174E-05
5.587707E+03	9.238591E-04	1.437884E-05
5.597685E+03	8.828080E-04	1.371113E-05
5.607663E+03	8.435444E-04	1.307410E-05
5.617641E+03	8.064332E-04	1.247317E-05
5.627619E+03	7.717678E-04	1.191262E-05
5.637597E+03	7.398183E-04	1.139634E-05
5.647575E+03	7.108257E-04	1.092775E-05
5.657553E+03	6.849536E-04	1.050905E-05
5.667531E+03	6.623447E-04	1.014211E-05
5.677509E+03	6.430670E-04	9.827660E-06
5.687488E+03	6.271784E-04	9.566247E-06
5.697466E+03	6.146848E-04	9.357647E-06
5.707444E+03	6.055903E-04	9.201612E-06
5.717422E+03	5.999076E-04	9.098026E-06
5.727400E+03	5.976298E-04	9.046482E-06
5.737378E+03	5.987836E-04	9.047089E-06
5.747356E+03	6.033815E-04	9.099746E-06
5.757334E+03	6.114652E-04	9.204791E-06
5.767312E+03	6.230453E-04	9.362101E-06
5.777290E+03	6.381202E-04	9.571375E-06
5.787268E+03	6.566513E-04	9.831759E-06
5.797246E+03	6.785093E-04	1.014106E-05
5.807224E+03	7.034326E-04	1.049512E-05
5.817202E+03	7.310979E-04	1.088890E-05
5.827180E+03	7.609467E-04	1.131390E-05
5.837158E+03	7.923321E-04	1.176038E-05
5.847136E+03	8.244228E-04	1.221593E-05
5.857114E+03	8.562311E-04	1.266589E-05
5.867092E+03	8.866727E-04	1.309430E-05
5.877070E+03	9.146164E-04	1.348460E-05
5.887048E+03	9.388894E-04	1.381973E-05
5.897027E+03	9.584332E-04	1.408442E-05
5.907005E+03	9.723129E-04	1.426530E-05
5.916983E+03	9.798761E-04	1.435322E-05
5.926961E+03	9.808344E-04	1.434443E-05
5.936939E+03	9.752900E-04	1.424087E-05
5.946917E+03	9.637298E-04	1.405007E-05
5.956895E+03	9.471080E-04	1.378635E-05
5.966873E+03	9.265465E-04	1.346632E-05
5.976851E+03	9.034603E-04	1.311077E-05
5.986829E+03	8.792440E-04	1.274007E-05
5.996807E+03	8.553975E-04	1.237597E-05
6.006785E+03	8.333466E-04	1.203903E-05
6.016763E+03	8.144082E-04	1.174810E-05
6.026741E+03	7.998839E-04	1.152174E-05
6.036719E+03	7.908767E-04	1.137551E-05
6.046697E+03	7.884844E-04	1.132483E-05
6.056675E+03	7.936218E-04	1.138242E-05
6.066653E+03	8.072357E-04	1.156136E-05
6.076631E+03	8.302876E-04	1.187491E-05
6.086609E+03	8.638820E-04	1.233830E-05
6.096588E+03	9.094109E-04	1.297076E-05
6.106566E+03	9.686623E-04	1.379711E-05
6.116544E+03	1.043870E-03	1.484834E-05
6.126522E+03	1.137864E-03	1.616380E-05
6.136500E+03	1.254036E-03	1.779059E-05
6.146478E+03	1.396379E-03	1.978412E-05
6.156456E+03	1.569250E-03	2.220467E-05
6.166434E+03	1.777185E-03	2.511479E-05
6.176412E+03	2.024272E-03	2.857042E-05
6.186390E+03	2.313522E-03	3.261204E-05
6.196368E+03	2.646081E-03	3.725376E-05
6.206346E+03	3.020327E-03	4.247073E-05
6.216324E+03	3.431461E-03	4.819364E-05
6.226302E+03	3.871078E-03	5.430298E-05
6.236280E+03	4.327713E-03	6.063698E-05
6.246258E+03	4.787188E-03	6.699667E-05
6.256236E+03	5.233404E-03	7.315722E-05
6.266214E+03	5.648228E-03	7.886636E-05
6.276192E+03	6.012381E-03	8.385701E-05
6.286170E+03	6.306292E-03	8.785912E-05
6.296148E+03	6.512471E-03	9.063277E-05
6.306127E+03	6.617846E-03	9.200040E-05
6.316105E+03	6.615471E-03	9.187013E-05
6.326083E+03	6.505565E-03	9.024978E-05
6.336061E+03	6.296463E-03	8.725947E-05
6.346039E+03	6.002160E-03	8.309704E-05
6.356017E+03	5.641265E-03	7.802322E-05
6.365995E+03	5.234701E-03	7.232961E-05
6.375973E+03	4.803461E-03	6.630755E-05
6.385951E+03	4.367434E-03	6.023201E-05
6.395929E+03	3.943729E-03	5.433856E-05
6.405907E+03	3.546090E-03	4.881562E-05
6.415885E+03	3.184112E-03	4.379388E-05
6.425863E+03	2.863527E-03	3.935053E-05
6.435841E+03	2.586237E-03	3.550997E-05
6.445819E+03	2.351137E-03	3.225530E-05
6.455797E+03	2.154732E-03	2.953697E-05
6.465775E+03	1.992244E-03	2.728812E-05
6.475753E+03	1.858118E-03	2.543147E-05
6.485731E+03	1.746574E-03	2.388696E-05
6.495709E+03	1.651674E-03	2.257263E-05
6.505687E+03	1.567720E-03	2.141007E-05
6.515666E+03	1.489903E-03	2.033327E-05
6.525644E+03	1.415725E-03	1.930791E-05
6.535622E+03	1.344851E-03	1.832926E-05
6.545600E+03	1.277711E-03	1.740301E-05
6.555578E+03	1.214655E-03	1.653379E-05
6.565556E+03	1.155652E-03	1.572102E-05
6.575534E+03	1.100623E-03	1.496349E-05
6.585512E+03	1.049259E-03	1.425683E-05
6.595490E+03	1.001238E-03	1.359658E-05
6.605468E+03	9.562320E-04	1.297815E-05
6.615446E+03	9.138726E-04	1.239646E-05
6.625424E+03	8.738370E-04	1.184704E-05
6.635402E+03	8.357967E-04	1.132536E-05
6.645380E+03	7.995069E-04	1.082804E-05
6.655358E+03	7.647757E-04	1.035243E-05
6.665336E+03	7.314798E-04	9.896801E-06
6.675314E+03	6.995919E-04	9.460745E-06
6.685292E+03	6.691667E-04	9.044956E-06
6.695270E+03	6.402942E-04	8.650606E-06
6.705248E+03	6.130752E-04	8.279013E-06
6.715227E+03	5.876317E-04	7.931780E-06
6.725205E+03	5.640392E-04	7.609883E-06
6.735183E+03	5.423653E-04	7.314190E-06
6.745161E+03	5.226216E-04	7.044814E-06
6.755139E+03	5.048103E-04	6.801744E-06
6.765117E+03	4.888994E-04	6.584506E-06
6.775095E+03	4.748332E-04	6.392312E-06
6.785073E+03	4.625614E-04	6.224450E-06
6.795051E+03	4.520483E-04	6.080403E-06
6.805029E+03	4.432624E-04	5.959715E-06
6.815007E+03	4.361830E-04	5.862073E-06
6.824985E+03	4.308240E-04	5.787635E-06
6.834963E+03	4.272038E-04	5.736614E-06
6.844941E+03	4.253404E-04	5.709222E-06
6.854919E+03	4.252636E-04	5.705826E-06
6.864897E+03	4.270092E-04	5.726876E-06
6.874875E+03	4.305980E-04	5.772618E-06
6.884853E+03	4.360307E-04	5.843029E-06
6.894831E+03	4.433095E-04	5.938106E-06
6.904809E+03	4.524107E-04	6.057499E-06
6.914787E+03	4.632865E-04	6.200536E-06
6.924766E+03	4.758882E-04	6.366535E-06
6.934744E+03	4.901840E-04	6.555038E-06
6.944722E+03	5.060975E-04	6.764996E-06
6.954700E+03	5.236211E-04	6.996274E-06
6.964678E+03	5.427090E-04	7.248235E-06
6.974656E+03	5.633535E-04	7.520742E-06
6.984634E+03	5.855238E-04	7.813358E-06
6.994612E+03	6.092051E-04	8.125854E-06
7.004590E+03	6.343571E-04	8.457665E-06
7.014568E+03	6.609742E-04	8.808687E-06
7.024546E+03	6.890676E-04	9.179040E-06
7.034524E+03	7.186820E-04	9.569289E-06
7.044502E+03	7.499584E-04	9.981282E-06
7.054480E+03	7.831150E-04	1.041788E-05
7.064458E+03	8.184587E-04	1.088314E-05
7.074436E+03	8.564447E-04	1.138306E-05
7.084414E+03	8.976173E-04	1.192482E-05
7.094392E+03	9.426693E-04	1.251755E-05
7.104370E+03	9.923704E-04	1.317141E-05
7.114348E+03	1.047552E-03	1.389731E-05
7.124326E+03	1.109042E-03	1.470616E-05
7.134305E+03	1.177638E-03	1.560837E-05
7.144283E+03	1.254050E-03	1.661322E-05
7.154261E+03	1.338629E-03	1.772521E-05
7.164239E+03	1.431515E-03	1.894602E-05
7.174217E+03	1.532220E-03	2.026907E-05
7.184195E+03	1.639742E-03	2.168090E-05
7.194173E+03	1.752375E-03	2.315887E-05
7.204151E+03	1.867694E-03	2.467082E-05
7.214129E+03	1.982698E-03	2.617711E-05
7.224107E+03	2.093828E-03	2.763076E-05
7.234085E+03	2.197349E-03	2.898258E-05
7.244063E+03	2.289518E-03	3.018338E-05
7.254041E+03	2.366959E-03	3.118892E-05
7.264019E+03	2.426897E-03	3.196295E-05
7.273997E+03	2.467489E-03	3.248154E-05
7.283975E+03	2.487730E-03	3.273187E-05
7.293953E+03	2.487409E-03	3.271158E-05
7.303931E+03	2.467128E-03	3.242897E-05
7.313909E+03	2.427917E-03	3.189801E-05
7.323887E+03	2.371346E-03	3.113965E-05
7.333865E+03	2.299097E-03	3.017634E-05
7.343844E+03	2.213234E-03	2.903543E-05
7.353822E+03	2.116141E-03	2.774847E-05
7.363800E+03	2.010199E-03	2.634685E-05
7.373778E+03	1.897976E-03	2.486437E-05
7.383756E+03	1.782119E-03	2.333582E-05
7.393734E+03	1.665038E-03	2.179279E-05
7.403712E+03	1.549093E-03	2.026614E-05
7.413690E+03	1.436363E-03	1.878304E-05
7.423668E+03	1.328589E-03	1.736616E-05
7.433646E+03	1.227212E-03	1.603422E-05
7.443624E+03	1.133254E-03	1.480045E-05
7.453602E+03	1.047334E-03	1.367275E-05
7.463580E+03	9.697460E-04	1.265483E-05
7.473558E+03	9.004571E-04	1.174611E-05
7.483536E+03	8.392078E-04	1.094305E-05
7.493514E+03	7.855790E-04	1.024005E-05
7.503492E+03	7.391105E-04	9.630989E-06
7.513470E+03	6.992928E-04	9.109109E-06
7.523448E+03	6.656062E-04	8.667547E-06
7.533426E+03	6.375965E-04	8.300296E-06
7.543405E+03	6.147894E-04	8.001108E-06
7.553383E+03	5.967809E-04	7.764660E-06
7.563361E+03	5.832368E-04	7.586549E-06
7.573339E+03	5.738233E-04	7.462387E-06
7.583317E+03	5.682965E-04	7.388966E-06
7.593295E+03	5.664526E-04	7.363607E-06
7.603273E+03	5.681215E-04	7.384077E-06
7.613251E+03	5.732043E-04	7.449076E-06
7.623229E+03	5.815742E-04	7.556951E-06
7.633207E+03	5.931258E-04	7.706332E-06
7.643185E+03	6.077497E-04	7.895807E-06
7.653163E+03	6.252299E-04	8.122582E-06
7.663141E+03	6.453076E-04	8.383319E-06
7.673119E+03	6.676134E-04	8.673247E-06
7.683097E+03	6.916562E-04	8.986026E-06
7.693075E+03	7.168910E-04	9.314612E-06
7.703053E+03	7.426454E-04	9.650316E-06
7.713031E+03	7.682629E-04	9.984648E-06
7.723009E+03	7.930896E-04	1.030915E-05
7.732987E+03	8.165219E-04	1.061603E-05
7.742965E+03	8.380988E-04	1.089930E-05
