#wls	flux	fluxerr
1.596488E+03	4.003904E-05	1.300958E-06
1.636400E+03	3.906235E-05	1.267542E-06
1.676312E+03	3.814019E-05	1.235930E-06
1.716224E+03	3.726850E-05	1.205988E-06
1.756136E+03	3.645196E-05	1.177861E-06
1.796049E+03	3.569376E-05	1.151646E-06
1.835961E+03	3.499236E-05	1.127288E-06
1.875873E+03	3.434800E-05	1.104787E-06
1.915785E+03	3.376080E-05	1.084140E-06
1.955697E+03	3.323161E-05	1.065368E-06
1.995610E+03	3.276379E-05	1.048568E-06
2.035522E+03	3.236761E-05	1.034061E-06
2.075434E+03	3.205587E-05	1.022243E-06
2.115346E+03	3.185476E-05	1.013934E-06
2.155258E+03	3.178399E-05	1.009739E-06
2.195171E+03	3.185193E-05	1.009899E-06
2.235083E+03	3.205773E-05	1.014360E-06
2.274995E+03	3.238878E-05	1.022695E-06
2.314907E+03	3.283626E-05	1.034599E-06
2.354819E+03	3.339621E-05	1.049919E-06
2.394732E+03	3.407603E-05	1.068860E-06
2.434644E+03	3.488148E-05	1.091573E-06
2.474556E+03	3.582846E-05	1.118519E-06
2.514468E+03	3.692899E-05	1.150035E-06
2.554380E+03	3.820275E-05	1.186689E-06
2.594293E+03	3.966879E-05	1.229021E-06
2.634205E+03	4.135483E-05	1.277831E-06
2.674117E+03	4.328510E-05	1.333800E-06
2.714029E+03	4.549182E-05	1.397840E-06
2.753941E+03	4.801662E-05	1.471141E-06
2.793854E+03	5.089680E-05	1.554738E-06
2.833766E+03	5.418931E-05	1.650248E-06
2.873678E+03	5.794553E-05	1.759091E-06
2.913590E+03	6.223690E-05	1.883268E-06
2.953502E+03	6.713716E-05	2.024814E-06
2.993414E+03	7.273546E-05	2.186189E-06
3.003393E+03	7.425198E-05	2.229837E-06
3.013371E+03	7.582240E-05	2.275013E-06
3.023349E+03	7.744531E-05	2.321668E-06
3.033327E+03	7.912248E-05	2.369851E-06
3.043305E+03	8.085589E-05	2.419616E-06
3.053283E+03	8.264754E-05	2.471018E-06
3.063261E+03	8.450263E-05	2.524205E-06
3.073239E+03	8.641612E-05	2.579022E-06
3.083217E+03	8.839312E-05	2.635616E-06
3.093195E+03	9.043560E-05	2.694039E-06
3.103173E+03	9.254903E-05	2.754447E-06
3.113151E+03	9.472799E-05	2.816673E-06
3.123129E+03	9.698202E-05	2.880993E-06
3.133107E+03	9.930917E-05	2.947342E-06
3.143085E+03	1.017074E-04	3.015652E-06
3.153063E+03	1.041867E-04	3.086213E-06
3.163041E+03	1.067453E-04	3.158960E-06
3.173019E+03	1.093849E-04	3.233944E-06
3.182997E+03	1.121077E-04	3.311211E-06
3.192975E+03	1.149155E-04	3.390816E-06
3.202954E+03	1.178058E-04	3.472669E-06
3.212932E+03	1.207944E-04	3.557230E-06
3.222910E+03	1.238694E-04	3.644135E-06
3.232888E+03	1.270372E-04	3.733568E-06
3.242866E+03	1.302997E-04	3.825573E-06
3.252844E+03	1.336587E-04	3.920193E-06
3.262822E+03	1.371161E-04	4.017473E-06
3.272800E+03	1.406789E-04	4.117605E-06
3.282778E+03	1.443381E-04	4.220317E-06
3.292756E+03	1.481005E-04	4.325797E-06
3.302734E+03	1.519734E-04	4.434247E-06
3.312712E+03	1.559467E-04	4.545358E-06
3.322690E+03	1.600335E-04	4.659505E-06
3.332668E+03	1.642229E-04	4.776350E-06
3.342646E+03	1.685283E-04	4.896279E-06
3.352624E+03	1.729381E-04	5.018936E-06
3.362602E+03	1.774660E-04	5.144711E-06
3.372580E+03	1.821064E-04	5.273426E-06
3.382558E+03	1.868527E-04	5.404875E-06
3.392536E+03	1.917196E-04	5.539471E-06
3.402514E+03	1.967001E-04	5.677001E-06
3.412493E+03	2.017947E-04	5.817463E-06
3.422471E+03	2.069956E-04	5.960619E-06
3.432449E+03	2.123181E-04	6.106894E-06
3.442427E+03	2.177544E-04	6.256052E-06
3.452405E+03	2.233042E-04	6.408069E-06
3.462383E+03	2.289671E-04	6.562920E-06
3.472361E+03	2.347339E-04	6.720328E-06
3.482339E+03	2.406213E-04	6.880755E-06
3.492317E+03	2.466201E-04	7.043923E-06
3.502295E+03	2.527298E-04	7.209805E-06
3.512273E+03	2.589498E-04	7.378366E-06
3.522251E+03	2.652793E-04	7.549574E-06
3.532229E+03	2.717181E-04	7.723402E-06
3.542207E+03	2.782554E-04	7.899535E-06
3.552185E+03	2.849113E-04	8.078525E-06
3.562163E+03	2.916759E-04	8.260077E-06
3.572141E+03	2.985494E-04	8.444180E-06
3.582119E+03	3.055327E-04	8.630848E-06
3.592097E+03	3.126269E-04	8.820094E-06
3.602075E+03	3.198339E-04	9.011955E-06
3.612053E+03	3.271562E-04	9.206486E-06
3.622032E+03	3.345971E-04	9.403764E-06
3.632010E+03	3.421487E-04	9.603552E-06
3.641988E+03	3.498408E-04	9.806665E-06
3.651966E+03	3.576683E-04	1.001295E-05
3.661944E+03	3.656399E-04	1.022261E-05
3.671922E+03	3.737657E-04	1.043593E-05
3.681900E+03	3.820449E-04	1.065286E-05
3.691878E+03	3.905190E-04	1.087453E-05
3.701856E+03	3.991921E-04	1.110102E-05
3.711834E+03	4.080842E-04	1.133288E-05
3.721812E+03	4.172038E-04	1.157029E-05
3.731790E+03	4.266055E-04	1.181475E-05
3.741768E+03	4.363033E-04	1.206661E-05
3.751746E+03	4.463126E-04	1.232624E-05
3.761724E+03	4.566965E-04	1.259536E-05
3.771702E+03	4.674571E-04	1.287396E-05
3.781680E+03	4.786599E-04	1.316380E-05
3.791658E+03	4.903041E-04	1.346480E-05
3.801636E+03	5.024519E-04	1.377861E-05
3.811614E+03	5.150929E-04	1.410488E-05
3.821592E+03	5.282610E-04	1.444447E-05
3.831571E+03	5.419821E-04	1.479801E-05
3.841549E+03	5.562152E-04	1.516431E-05
3.851527E+03	5.709604E-04	1.554331E-05
3.861505E+03	5.861828E-04	1.593400E-05
3.871483E+03	6.018507E-04	1.633543E-05
3.881461E+03	6.178513E-04	1.674450E-05
3.891439E+03	6.341121E-04	1.715919E-05
3.901417E+03	6.505203E-04	1.757642E-05
3.911395E+03	6.669215E-04	1.799198E-05
3.921373E+03	6.832108E-04	1.840306E-05
3.931351E+03	6.992034E-04	1.880468E-05
3.941329E+03	7.147277E-04	1.919227E-05
3.951307E+03	7.296082E-04	1.956117E-05
3.961285E+03	7.436480E-04	1.990617E-05
3.971263E+03	7.567336E-04	2.022437E-05
3.981241E+03	7.686699E-04	2.051064E-05
3.991219E+03	7.793850E-04	2.076323E-05
4.001197E+03	7.887347E-04	2.097845E-05
4.011175E+03	7.966846E-04	2.115556E-05
4.021153E+03	8.032108E-04	2.129410E-05
4.031132E+03	8.083266E-04	2.139460E-05
4.041110E+03	8.120812E-04	2.145855E-05
4.051088E+03	8.145574E-04	2.148830E-05
4.061066E+03	8.158670E-04	2.148698E-05
4.071044E+03	8.161463E-04	2.145831E-05
4.081022E+03	8.155491E-04	2.140647E-05
4.091000E+03	8.142145E-04	2.133521E-05
4.100978E+03	8.123657E-04	2.125050E-05
4.110956E+03	8.101190E-04	2.115541E-05
4.120934E+03	8.076889E-04	2.105561E-05
4.130912E+03	8.051736E-04	2.095368E-05
4.140890E+03	8.027338E-04	2.085380E-05
4.150868E+03	8.004861E-04	2.075899E-05
4.160846E+03	7.985269E-04	2.067172E-05
4.170824E+03	7.969319E-04	2.059391E-05
4.180802E+03	7.957315E-04	2.052629E-05
4.190780E+03	7.950134E-04	2.047107E-05
4.200758E+03	7.947726E-04	2.042805E-05
4.210736E+03	7.949913E-04	2.039672E-05
4.220714E+03	7.956922E-04	2.037759E-05
4.230692E+03	7.968932E-04	2.037105E-05
4.240671E+03	7.985359E-04	2.037554E-05
4.250649E+03	8.006430E-04	2.039158E-05
4.260627E+03	8.031982E-04	2.041868E-05
4.270605E+03	8.062790E-04	2.045875E-05
4.280583E+03	8.099134E-04	2.051242E-05
4.290561E+03	8.141624E-04	2.058116E-05
4.300539E+03	8.192037E-04	2.066936E-05
4.310517E+03	8.251592E-04	2.077997E-05
4.320495E+03	8.322795E-04	2.091916E-05
4.330473E+03	8.408477E-04	2.109386E-05
4.340451E+03	8.512132E-04	2.131261E-05
4.350429E+03	8.637993E-04	2.158571E-05
4.360407E+03	8.790823E-04	2.192473E-05
4.370385E+03	8.977042E-04	2.234523E-05
4.380363E+03	9.202795E-04	2.286199E-05
4.390341E+03	9.475865E-04	2.349372E-05
4.400319E+03	9.804491E-04	2.426009E-05
4.410297E+03	1.019748E-03	2.518201E-05
4.420275E+03	1.066407E-03	2.628129E-05
4.430253E+03	1.121345E-03	2.757940E-05
4.440231E+03	1.185390E-03	2.909540E-05
4.450210E+03	1.259280E-03	3.084601E-05
4.460188E+03	1.343426E-03	3.283975E-05
4.470166E+03	1.437751E-03	3.507317E-05
4.480144E+03	1.541468E-03	3.752555E-05
4.490122E+03	1.652847E-03	4.015341E-05
4.500100E+03	1.769020E-03	4.288600E-05
4.510078E+03	1.885842E-03	4.562228E-05
4.520056E+03	1.998169E-03	4.823794E-05
4.530034E+03	2.100056E-03	5.059041E-05
4.540012E+03	2.185407E-03	5.253471E-05
4.549990E+03	2.248736E-03	5.394176E-05
4.559968E+03	2.285869E-03	5.471504E-05
4.569946E+03	2.294815E-03	5.481102E-05
4.579924E+03	2.275542E-03	5.423328E-05
4.589902E+03	2.230340E-03	5.304064E-05
4.599880E+03	2.163126E-03	5.133013E-05
4.609858E+03	2.078925E-03	4.922417E-05
4.619836E+03	1.983160E-03	4.685356E-05
4.629814E+03	1.881253E-03	4.434791E-05
4.639792E+03	1.778030E-03	4.182178E-05
4.649771E+03	1.677293E-03	3.936461E-05
4.659749E+03	1.581984E-03	3.704493E-05
4.669727E+03	1.494196E-03	3.491087E-05
4.679705E+03	1.415025E-03	3.298676E-05
4.689683E+03	1.345091E-03	3.128570E-05
4.699661E+03	1.284360E-03	2.980546E-05
4.709639E+03	1.232544E-03	2.853796E-05
4.719617E+03	1.189199E-03	2.747155E-05
4.729595E+03	1.153646E-03	2.658920E-05
4.739573E+03	1.125144E-03	2.587270E-05
4.749551E+03	1.103011E-03	2.530527E-05
4.759529E+03	1.086547E-03	2.486987E-05
4.769507E+03	1.075058E-03	2.454977E-05
4.779485E+03	1.067985E-03	2.433146E-05
4.789463E+03	1.064693E-03	2.419978E-05
4.799441E+03	1.064670E-03	2.414252E-05
4.809419E+03	1.067397E-03	2.414744E-05
4.819397E+03	1.072365E-03	2.420261E-05
4.829375E+03	1.079026E-03	2.429534E-05
4.839353E+03	1.086883E-03	2.441419E-05
4.849331E+03	1.095388E-03	2.454669E-05
4.859310E+03	1.103989E-03	2.468041E-05
4.869288E+03	1.112115E-03	2.480257E-05
4.879266E+03	1.119335E-03	2.490370E-05
4.889244E+03	1.125168E-03	2.497326E-05
4.899222E+03	1.129317E-03	2.500492E-05
4.909200E+03	1.131503E-03	2.499277E-05
4.919178E+03	1.131603E-03	2.493440E-05
4.929156E+03	1.129409E-03	2.482563E-05
4.939134E+03	1.124867E-03	2.466561E-05
4.949112E+03	1.117974E-03	2.445467E-05
4.959090E+03	1.108840E-03	2.419557E-05
4.969068E+03	1.097855E-03	2.389721E-05
4.979046E+03	1.085529E-03	2.357092E-05
4.989024E+03	1.072707E-03	2.323523E-05
4.999002E+03	1.060382E-03	2.291171E-05
5.008980E+03	1.049783E-03	2.262673E-05
5.018958E+03	1.042087E-03	2.240538E-05
5.028936E+03	1.038552E-03	2.227412E-05
5.038914E+03	1.040300E-03	2.225633E-05
5.048892E+03	1.048417E-03	2.237434E-05
5.058870E+03	1.063713E-03	2.264439E-05
5.068849E+03	1.086897E-03	2.308039E-05
5.078827E+03	1.118427E-03	2.369081E-05
5.088805E+03	1.158467E-03	2.447782E-05
5.098783E+03	1.206927E-03	2.543815E-05
5.108761E+03	1.263293E-03	2.655974E-05
5.118739E+03	1.326586E-03	2.782079E-05
5.128717E+03	1.395243E-03	2.918758E-05
5.138695E+03	1.467198E-03	3.061612E-05
5.148673E+03	1.539803E-03	3.205089E-05
5.158651E+03	1.610005E-03	3.342837E-05
5.168629E+03	1.674588E-03	3.468238E-05
5.178607E+03	1.730483E-03	3.575045E-05
5.188585E+03	1.775296E-03	3.658463E-05
5.198563E+03	1.807470E-03	3.715462E-05
5.208541E+03	1.826704E-03	3.745624E-05
5.218519E+03	1.833594E-03	3.750371E-05
5.228497E+03	1.829769E-03	3.733217E-05
5.238475E+03	1.817282E-03	3.698507E-05
5.248453E+03	1.798465E-03	3.651104E-05
5.258431E+03	1.775241E-03	3.594999E-05
5.268409E+03	1.749232E-03	3.533536E-05
5.278388E+03	1.721669E-03	3.469239E-05
5.288366E+03	1.693128E-03	3.403287E-05
5.298344E+03	1.663943E-03	3.336363E-05
5.308322E+03	1.634126E-03	3.268501E-05
5.318300E+03	1.603535E-03	3.199425E-05
5.328278E+03	1.571956E-03	3.128719E-05
5.338256E+03	1.539330E-03	3.056281E-05
5.348234E+03	1.505669E-03	2.982151E-05
5.358212E+03	1.471318E-03	2.907018E-05
5.368190E+03	1.436669E-03	2.831668E-05
5.378168E+03	1.402422E-03	2.757478E-05
5.388146E+03	1.369310E-03	2.685879E-05
5.398124E+03	1.338141E-03	2.618434E-05
5.408102E+03	1.309563E-03	2.556377E-05
5.418080E+03	1.283971E-03	2.500442E-05
5.428058E+03	1.261359E-03	2.450571E-05
5.438036E+03	1.241386E-03	2.406065E-05
5.448014E+03	1.223086E-03	2.365017E-05
5.457992E+03	1.205284E-03	2.325133E-05
5.467970E+03	1.186368E-03	2.283307E-05
5.477949E+03	1.164832E-03	2.236659E-05
5.487927E+03	1.139625E-03	2.183211E-05
5.497905E+03	1.110443E-03	2.122425E-05
5.507883E+03	1.077608E-03	2.054965E-05
5.517861E+03	1.041552E-03	1.981698E-05
5.527839E+03	1.003007E-03	1.904050E-05
5.537817E+03	9.626177E-04	1.823270E-05
5.547795E+03	9.211116E-04	1.740754E-05
5.557773E+03	8.791503E-04	1.657758E-05
5.567751E+03	8.373165E-04	1.575381E-05
5.577729E+03	7.961961E-04	1.494716E-05
5.587707E+03	7.562028E-04	1.416526E-05
5.597685E+03	7.178166E-04	1.341690E-05
5.607663E+03	6.813600E-04	1.270785E-05
5.617641E+03	6.471609E-04	1.204397E-05
5.627619E+03	6.154757E-04	1.142970E-05
5.637597E+03	5.864943E-04	1.086823E-05
5.647575E+03	5.603890E-04	1.036239E-05
5.657553E+03	5.372686E-04	9.913842E-06
5.667531E+03	5.171865E-04	9.523186E-06
5.677509E+03	5.002029E-04	9.191159E-06
5.687488E+03	4.862858E-04	8.916799E-06
5.697466E+03	4.754665E-04	8.700315E-06
5.707444E+03	4.677052E-04	8.540618E-06
5.717422E+03	4.630016E-04	8.437346E-06
5.727400E+03	4.613491E-04	8.390030E-06
5.737378E+03	4.627373E-04	8.398137E-06
5.747356E+03	4.671873E-04	8.461713E-06
5.757334E+03	4.747102E-04	8.580621E-06
5.767312E+03	4.853092E-04	8.754587E-06
5.777290E+03	4.989520E-04	8.982701E-06
5.787268E+03	5.155899E-04	9.263768E-06
5.797246E+03	5.350828E-04	9.594964E-06
5.807224E+03	5.572272E-04	9.972354E-06
5.817202E+03	5.816915E-04	1.038975E-05
5.827180E+03	6.080079E-04	1.083858E-05
5.837158E+03	6.355433E-04	1.130741E-05
5.847136E+03	6.635469E-04	1.178280E-05
5.857114E+03	6.911188E-04	1.224876E-05
5.867092E+03	7.172564E-04	1.268762E-05
5.877070E+03	7.408852E-04	1.308058E-05
5.887048E+03	7.609820E-04	1.340987E-05
5.897027E+03	7.765788E-04	1.365884E-05
5.907005E+03	7.869256E-04	1.381477E-05
5.916983E+03	7.915129E-04	1.386928E-05
5.926961E+03	7.901567E-04	1.381970E-05
5.936939E+03	7.830152E-04	1.366938E-05
5.946917E+03	7.706477E-04	1.342863E-05
5.956895E+03	7.539082E-04	1.311280E-05
5.966873E+03	7.338727E-04	1.274097E-05
5.976851E+03	7.118064E-04	1.233538E-05
5.986829E+03	6.890171E-04	1.191882E-05
5.996807E+03	6.667985E-04	1.151369E-05
6.006785E+03	6.463582E-04	1.114074E-05
6.016763E+03	6.288337E-04	1.081935E-05
6.026741E+03	6.152126E-04	1.056621E-05
6.036719E+03	6.064219E-04	1.039684E-05
6.046697E+03	6.032405E-04	1.032414E-05
6.056675E+03	6.064350E-04	1.036068E-05
6.066653E+03	6.168142E-04	1.051971E-05
6.076631E+03	6.352069E-04	1.081468E-05
6.086609E+03	6.626360E-04	1.126230E-05
6.096588E+03	7.004062E-04	1.188392E-05
6.106566E+03	7.500809E-04	1.270516E-05
6.116544E+03	8.136766E-04	1.375912E-05
6.126522E+03	8.936287E-04	1.508576E-05
6.136500E+03	9.928984E-04	1.673365E-05
6.146478E+03	1.114885E-03	1.875842E-05
6.156456E+03	1.263328E-03	2.122109E-05
6.166434E+03	1.442041E-03	2.418348E-05
6.176412E+03	1.654620E-03	2.770349E-05
6.186390E+03	1.903821E-03	3.182452E-05
6.196368E+03	2.190891E-03	3.656464E-05
6.206346E+03	2.515071E-03	4.190836E-05
6.216324E+03	2.872899E-03	4.779539E-05
6.226302E+03	3.257927E-03	5.411622E-05
6.236280E+03	3.660584E-03	6.071030E-05
6.246258E+03	4.068700E-03	6.737505E-05
6.256236E+03	4.467597E-03	7.386768E-05
6.266214E+03	4.841236E-03	7.992445E-05
6.276192E+03	5.172320E-03	8.526237E-05
6.286170E+03	5.444198E-03	8.961085E-05
6.296148E+03	5.642523E-03	9.273864E-05
6.306127E+03	5.756033E-03	9.446646E-05
6.316105E+03	5.778774E-03	9.470292E-05
6.326083E+03	5.710955E-03	9.345793E-05
6.336061E+03	5.558101E-03	9.082811E-05
6.346039E+03	5.331354E-03	8.700104E-05
6.356017E+03	5.045389E-03	8.222077E-05
6.365995E+03	4.717420E-03	7.677122E-05
6.375973E+03	4.364605E-03	7.093376E-05
6.385951E+03	4.003355E-03	6.497607E-05
6.395929E+03	3.648104E-03	5.913239E-05
6.405907E+03	3.309990E-03	5.358230E-05
6.415885E+03	2.997244E-03	4.845749E-05
6.425863E+03	2.714764E-03	4.383520E-05
6.435841E+03	2.464749E-03	3.974877E-05
6.445819E+03	2.246959E-03	3.619215E-05
6.455797E+03	2.059387E-03	3.313094E-05
6.465775E+03	1.898797E-03	3.051121E-05
6.475753E+03	1.761372E-03	2.827000E-05
6.485731E+03	1.642924E-03	2.633871E-05
6.495709E+03	1.539199E-03	2.464805E-05
6.505687E+03	1.446313E-03	2.313495E-05
6.515666E+03	1.360879E-03	2.174464E-05
6.525644E+03	1.281061E-03	2.044734E-05
6.535622E+03	1.206110E-03	1.923070E-05
6.545600E+03	1.135868E-03	1.809192E-05
6.555578E+03	1.070204E-03	1.702860E-05
6.565556E+03	1.008918E-03	1.603727E-05
6.575534E+03	9.518317E-04	1.511483E-05
6.585512E+03	8.986031E-04	1.425561E-05
6.595490E+03	8.490149E-04	1.345594E-05
6.605468E+03	8.027335E-04	1.271032E-05
6.615446E+03	7.595116E-04	1.201466E-05
6.625424E+03	7.191085E-04	1.136499E-05
6.635402E+03	6.813018E-04	1.075762E-05
6.645380E+03	6.459573E-04	1.019032E-05
6.655358E+03	6.128876E-04	9.659994E-06
6.665336E+03	5.820328E-04	9.165577E-06
6.675314E+03	5.532757E-04	8.705114E-06
6.685292E+03	5.265637E-04	8.277674E-06
6.695270E+03	5.018408E-04	7.882278E-06
6.705248E+03	4.790565E-04	7.518037E-06
6.715227E+03	4.581475E-04	7.183870E-06
6.725205E+03	4.390702E-04	6.879006E-06
6.735183E+03	4.217497E-04	6.602191E-06
6.745161E+03	4.061375E-04	6.352590E-06
6.755139E+03	3.921373E-04	6.128624E-06
6.765117E+03	3.796842E-04	5.929210E-06
6.775095E+03	3.686973E-04	5.753024E-06
6.785073E+03	3.591241E-04	5.599184E-06
6.795051E+03	3.509151E-04	5.466862E-06
6.805029E+03	3.440369E-04	5.355486E-06
6.815007E+03	3.384725E-04	5.264737E-06
6.824985E+03	3.342114E-04	5.194399E-06
6.834963E+03	3.312717E-04	5.144707E-06
6.844941E+03	3.296631E-04	5.115759E-06
6.854919E+03	3.294258E-04	5.108127E-06
6.864897E+03	3.305696E-04	5.121916E-06
6.874875E+03	3.331312E-04	5.157640E-06
6.884853E+03	3.371385E-04	5.215681E-06
6.894831E+03	3.426095E-04	5.296262E-06
6.904809E+03	3.495761E-04	5.399826E-06
6.914787E+03	3.580579E-04	5.526618E-06
6.924766E+03	3.680598E-04	5.676664E-06
6.934744E+03	3.796106E-04	5.850349E-06
6.944722E+03	3.926972E-04	6.047419E-06
6.954700E+03	4.073338E-04	6.268036E-06
6.964678E+03	4.235148E-04	6.512058E-06
6.974656E+03	4.412577E-04	6.779701E-06
6.984634E+03	4.605749E-04	7.071097E-06
6.994612E+03	4.814877E-04	7.386519E-06
7.004590E+03	5.040322E-04	7.726462E-06
7.014568E+03	5.282537E-04	8.091561E-06
7.024546E+03	5.542547E-04	8.483326E-06
7.034524E+03	5.821645E-04	8.903671E-06
7.044502E+03	6.121413E-04	9.354943E-06
7.054480E+03	6.444383E-04	9.840939E-06
7.064458E+03	6.792977E-04	1.036527E-05
7.074436E+03	7.170429E-04	1.093277E-05
7.084414E+03	7.580847E-04	1.154961E-05
7.094392E+03	8.028002E-04	1.222140E-05
7.104370E+03	8.516499E-04	1.295502E-05
7.114348E+03	9.050805E-04	1.375711E-05
7.124326E+03	9.635144E-04	1.463393E-05
7.134305E+03	1.027285E-03	1.559035E-05
7.144283E+03	1.096662E-03	1.663030E-05
7.154261E+03	1.171728E-03	1.775481E-05
7.164239E+03	1.252339E-03	1.896149E-05
7.174217E+03	1.338024E-03	2.024308E-05
7.184195E+03	1.428039E-03	2.158810E-05
7.194173E+03	1.521222E-03	2.297886E-05
7.204151E+03	1.616006E-03	2.439165E-05
7.214129E+03	1.710392E-03	2.579622E-05
7.224107E+03	1.802169E-03	2.715931E-05
7.234085E+03	1.888699E-03	2.844129E-05
7.244063E+03	1.967353E-03	2.960281E-05
7.254041E+03	2.035433E-03	3.060359E-05
7.264019E+03	2.090537E-03	3.140792E-05
7.273997E+03	2.130617E-03	3.198554E-05
7.283975E+03	2.153897E-03	3.231034E-05
7.293953E+03	2.159528E-03	3.237018E-05
7.303931E+03	2.147092E-03	3.215942E-05
7.313909E+03	2.116844E-03	3.168252E-05
7.323887E+03	2.069788E-03	3.095509E-05
7.333865E+03	2.007446E-03	3.000043E-05
7.343844E+03	1.931753E-03	2.884797E-05
7.353822E+03	1.845148E-03	2.753453E-05
7.363800E+03	1.750085E-03	2.609703E-05
7.373778E+03	1.649238E-03	2.457561E-05
7.383756E+03	1.545149E-03	2.300825E-05
7.393734E+03	1.440315E-03	2.143220E-05
7.403712E+03	1.336820E-03	1.987844E-05
7.413690E+03	1.236549E-03	1.837490E-05
7.423668E+03	1.140992E-03	1.694357E-05
7.433646E+03	1.051274E-03	1.560097E-05
7.443624E+03	9.681441E-04	1.435802E-05
7.453602E+03	8.921144E-04	1.322207E-05
7.463580E+03	8.233240E-04	1.219494E-05
7.473558E+03	7.617649E-04	1.127629E-05
7.483536E+03	7.072200E-04	1.046267E-05
7.493514E+03	6.594115E-04	9.749758E-06
7.503492E+03	6.179139E-04	9.131078E-06
7.513470E+03	5.823192E-04	8.600416E-06
7.523448E+03	5.521919E-04	8.151182E-06
7.533426E+03	5.271083E-04	7.776980E-06
7.543405E+03	5.066576E-04	7.471623E-06
7.553383E+03	4.904911E-04	7.229860E-06
7.563361E+03	4.782969E-04	7.047000E-06
7.573339E+03	4.697516E-04	6.918195E-06
7.583317E+03	4.646441E-04	6.840269E-06
7.593295E+03	4.627450E-04	6.809788E-06
7.603273E+03	4.638507E-04	6.823708E-06
7.613251E+03	4.677999E-04	6.879617E-06
7.623229E+03	4.744274E-04	6.975062E-06
7.633207E+03	4.835674E-04	7.107584E-06
7.643185E+03	4.950428E-04	7.274573E-06
7.653163E+03	5.086422E-04	7.472923E-06
7.663141E+03	5.241509E-04	7.699487E-06
7.673119E+03	5.413050E-04	7.950406E-06
7.683097E+03	5.598000E-04	8.221233E-06
7.693075E+03	5.792911E-04	8.506937E-06
7.703053E+03	5.993971E-04	8.801956E-06
7.713031E+03	6.196929E-04	9.100090E-06
7.723009E+03	6.397719E-04	9.395413E-06
7.732987E+03	6.592158E-04	9.681829E-06
7.742965E+03	6.776313E-04	9.953600E-06
