#wls	flux	fluxerr
1.600000E+03	1.202180E-14	6.512888E-17
1.640000E+03	1.281843E-14	6.936704E-17
1.680000E+03	1.365967E-14	7.383438E-17
1.720000E+03	1.454513E-14	7.852754E-17
1.760000E+03	1.547366E-14	8.343885E-17
1.800000E+03	1.644266E-14	8.855293E-17
1.840000E+03	1.744802E-14	9.384630E-17
1.880000E+03	1.848353E-14	9.928419E-17
1.920000E+03	1.954040E-14	1.048181E-16
1.960000E+03	2.060677E-14	1.103833E-16
2.000000E+03	2.166742E-14	1.158975E-16
2.040000E+03	2.270341E-14	1.212589E-16
2.080000E+03	2.369235E-14	1.263480E-16
2.120000E+03	2.460908E-14	1.310310E-16
2.160000E+03	2.542464E-14	1.351554E-16
2.200000E+03	2.610610E-14	1.385481E-16
2.240000E+03	2.662222E-14	1.410466E-16
2.280000E+03	2.695527E-14	1.425611E-16
2.320000E+03	2.710927E-14	1.431177E-16
2.360000E+03	2.710280E-14	1.428189E-16
2.400000E+03	2.695825E-14	1.417873E-16
2.440000E+03	2.669749E-14	1.401417E-16
2.480000E+03	2.634103E-14	1.379931E-16
2.520000E+03	2.590775E-14	1.354435E-16
2.560000E+03	2.541238E-14	1.325724E-16
2.600000E+03	2.486155E-14	1.294167E-16
2.640000E+03	2.425849E-14	1.259953E-16
2.680000E+03	2.360760E-14	1.223332E-16
2.720000E+03	2.291571E-14	1.184680E-16
2.760000E+03	2.219259E-14	1.144519E-16
2.800000E+03	2.144998E-14	1.103471E-16
2.840000E+03	2.070071E-14	1.062208E-16
2.880000E+03	1.995739E-14	1.021383E-16
2.920000E+03	1.923154E-14	9.815881E-17
2.960000E+03	1.853312E-14	9.433282E-17
3.000000E+03	1.787008E-14	9.070024E-17
3.010000E+03	1.771061E-14	8.982606E-17
3.020000E+03	1.755383E-14	8.896626E-17
3.030000E+03	1.739977E-14	8.812107E-17
3.040000E+03	1.724854E-14	8.729096E-17
3.050000E+03	1.710016E-14	8.647605E-17
3.060000E+03	1.695469E-14	8.567657E-17
3.070000E+03	1.681213E-14	8.489248E-17
3.080000E+03	1.667258E-14	8.412435E-17
3.090000E+03	1.653600E-14	8.337186E-17
3.100000E+03	1.640246E-14	8.263542E-17
3.110000E+03	1.627194E-14	8.191480E-17
3.120000E+03	1.614444E-14	8.121008E-17
3.130000E+03	1.602001E-14	8.052141E-17
3.140000E+03	1.589858E-14	7.984839E-17
3.150000E+03	1.578018E-14	7.919122E-17
3.160000E+03	1.566477E-14	7.854964E-17
3.170000E+03	1.555235E-14	7.792360E-17
3.180000E+03	1.544290E-14	7.731299E-17
3.190000E+03	1.533638E-14	7.671758E-17
3.200000E+03	1.523275E-14	7.613715E-17
3.210000E+03	1.513197E-14	7.557142E-17
3.220000E+03	1.503404E-14	7.502042E-17
3.230000E+03	1.493894E-14	7.448396E-17
3.240000E+03	1.484659E-14	7.396168E-17
3.250000E+03	1.475696E-14	7.345336E-17
3.260000E+03	1.467003E-14	7.295887E-17
3.270000E+03	1.458581E-14	7.247823E-17
3.280000E+03	1.450421E-14	7.201103E-17
3.290000E+03	1.442525E-14	7.155723E-17
3.300000E+03	1.434892E-14	7.111685E-17
3.310000E+03	1.427514E-14	7.068939E-17
3.320000E+03	1.420400E-14	7.027529E-17
3.330000E+03	1.413540E-14	6.987404E-17
3.340000E+03	1.406938E-14	6.948581E-17
3.350000E+03	1.400592E-14	6.911047E-17
3.360000E+03	1.394506E-14	6.874818E-17
3.370000E+03	1.388675E-14	6.839862E-17
3.380000E+03	1.383101E-14	6.806195E-17
3.390000E+03	1.377779E-14	6.773781E-17
3.400000E+03	1.372711E-14	6.742630E-17
3.410000E+03	1.367888E-14	6.712693E-17
3.420000E+03	1.363308E-14	6.683960E-17
3.430000E+03	1.358965E-14	6.656401E-17
3.440000E+03	1.354849E-14	6.629956E-17
3.450000E+03	1.350949E-14	6.604573E-17
3.460000E+03	1.347258E-14	6.580214E-17
3.470000E+03	1.343756E-14	6.556775E-17
3.480000E+03	1.340430E-14	6.534201E-17
3.490000E+03	1.337262E-14	6.512388E-17
3.500000E+03	1.334226E-14	6.491220E-17
3.510000E+03	1.331302E-14	6.470592E-17
3.520000E+03	1.328465E-14	6.450379E-17
3.530000E+03	1.325691E-14	6.430467E-17
3.540000E+03	1.322952E-14	6.410721E-17
3.550000E+03	1.320221E-14	6.391009E-17
3.560000E+03	1.317478E-14	6.371226E-17
3.570000E+03	1.314693E-14	6.351239E-17
3.580000E+03	1.311844E-14	6.330939E-17
3.590000E+03	1.308914E-14	6.310241E-17
3.600000E+03	1.305874E-14	6.289013E-17
3.610000E+03	1.302718E-14	6.267222E-17
3.620000E+03	1.299425E-14	6.244771E-17
3.630000E+03	1.295982E-14	6.221602E-17
3.640000E+03	1.292382E-14	6.197685E-17
3.650000E+03	1.288626E-14	6.173023E-17
3.660000E+03	1.284706E-14	6.147581E-17
3.670000E+03	1.280629E-14	6.121399E-17
3.680000E+03	1.276404E-14	6.094517E-17
3.690000E+03	1.272040E-14	6.066988E-17
3.700000E+03	1.267560E-14	6.038916E-17
3.710000E+03	1.262988E-14	6.010424E-17
3.720000E+03	1.258346E-14	5.981614E-17
3.730000E+03	1.253666E-14	5.952644E-17
3.740000E+03	1.248985E-14	5.923685E-17
3.750000E+03	1.244341E-14	5.894920E-17
3.760000E+03	1.239775E-14	5.866543E-17
3.770000E+03	1.235323E-14	5.838722E-17
3.780000E+03	1.231024E-14	5.811641E-17
3.790000E+03	1.226917E-14	5.785479E-17
3.800000E+03	1.223034E-14	5.760390E-17
3.810000E+03	1.219409E-14	5.736522E-17
3.820000E+03	1.216065E-14	5.713986E-17
3.830000E+03	1.213023E-14	5.692871E-17
3.840000E+03	1.210293E-14	5.673223E-17
3.850000E+03	1.207892E-14	5.655114E-17
3.860000E+03	1.205811E-14	5.638503E-17
3.870000E+03	1.204053E-14	5.623388E-17
3.880000E+03	1.202611E-14	5.609738E-17
3.890000E+03	1.201466E-14	5.597456E-17
3.900000E+03	1.200599E-14	5.586447E-17
3.910000E+03	1.199990E-14	5.576618E-17
3.920000E+03	1.199608E-14	5.567819E-17
3.930000E+03	1.199427E-14	5.559930E-17
3.940000E+03	1.199419E-14	5.552808E-17
3.950000E+03	1.199551E-14	5.546303E-17
3.960000E+03	1.199794E-14	5.540277E-17
3.970000E+03	1.200111E-14	5.534560E-17
3.980000E+03	1.200473E-14	5.529016E-17
3.990000E+03	1.200844E-14	5.523480E-17
4.000000E+03	1.201197E-14	5.517822E-17
4.010000E+03	1.201507E-14	5.511935E-17
4.020000E+03	1.201738E-14	5.505649E-17
4.030000E+03	1.201873E-14	5.498893E-17
4.040000E+03	1.201885E-14	5.491540E-17
4.050000E+03	1.201762E-14	5.483540E-17
4.060000E+03	1.201485E-14	5.474812E-17
4.070000E+03	1.201045E-14	5.465315E-17
4.080000E+03	1.200445E-14	5.455064E-17
4.090000E+03	1.199689E-14	5.444081E-17
4.100000E+03	1.198775E-14	5.432364E-17
4.110000E+03	1.197729E-14	5.420031E-17
4.120000E+03	1.196565E-14	5.407145E-17
4.130000E+03	1.195308E-14	5.393826E-17
4.140000E+03	1.193978E-14	5.380169E-17
4.150000E+03	1.192605E-14	5.366301E-17
4.160000E+03	1.191212E-14	5.352332E-17
4.170000E+03	1.189820E-14	5.338355E-17
4.180000E+03	1.188441E-14	5.324426E-17
4.190000E+03	1.187094E-14	5.310626E-17
4.200000E+03	1.185776E-14	5.296948E-17
4.210000E+03	1.184480E-14	5.283356E-17
4.220000E+03	1.183182E-14	5.269742E-17
4.230000E+03	1.181867E-14	5.256042E-17
4.240000E+03	1.180501E-14	5.242105E-17
4.250000E+03	1.179048E-14	5.227775E-17
4.260000E+03	1.177459E-14	5.212829E-17
4.270000E+03	1.175691E-14	5.197086E-17
4.280000E+03	1.173703E-14	5.180371E-17
4.290000E+03	1.171460E-14	5.162530E-17
4.300000E+03	1.168922E-14	5.143390E-17
4.310000E+03	1.166070E-14	5.122884E-17
4.320000E+03	1.162885E-14	5.100925E-17
4.330000E+03	1.159362E-14	5.077508E-17
4.340000E+03	1.155482E-14	5.052547E-17
4.350000E+03	1.151253E-14	5.026091E-17
4.360000E+03	1.146692E-14	4.998221E-17
4.370000E+03	1.141813E-14	4.969006E-17
4.380000E+03	1.136639E-14	4.938551E-17
4.390000E+03	1.131214E-14	4.907056E-17
4.400000E+03	1.125562E-14	4.874627E-17
4.410000E+03	1.119716E-14	4.841416E-17
4.420000E+03	1.113700E-14	4.807528E-17
4.430000E+03	1.107539E-14	4.773076E-17
4.440000E+03	1.101256E-14	4.738168E-17
4.450000E+03	1.094861E-14	4.702840E-17
4.460000E+03	1.088364E-14	4.667149E-17
4.470000E+03	1.081756E-14	4.631049E-17
4.480000E+03	1.075051E-14	4.594609E-17
4.490000E+03	1.068226E-14	4.557731E-17
4.500000E+03	1.061284E-14	4.520436E-17
4.510000E+03	1.054209E-14	4.482652E-17
4.520000E+03	1.047001E-14	4.444387E-17
4.530000E+03	1.039650E-14	4.405603E-17
4.540000E+03	1.032156E-14	4.366297E-17
4.550000E+03	1.024523E-14	4.326499E-17
4.560000E+03	1.016758E-14	4.286235E-17
4.570000E+03	1.008889E-14	4.245634E-17
4.580000E+03	1.000938E-14	4.204785E-17
4.590000E+03	9.929479E-15	4.163869E-17
4.600000E+03	9.849545E-15	4.123042E-17
4.610000E+03	9.770280E-15	4.082598E-17
4.620000E+03	9.692149E-15	4.042728E-17
4.630000E+03	9.615820E-15	4.003710E-17
4.640000E+03	9.541936E-15	3.965806E-17
4.650000E+03	9.471064E-15	3.929249E-17
4.660000E+03	9.403612E-15	3.894200E-17
4.670000E+03	9.340196E-15	3.860906E-17
4.680000E+03	9.281226E-15	3.829529E-17
4.690000E+03	9.227075E-15	3.800213E-17
4.700000E+03	9.177877E-15	3.773002E-17
4.710000E+03	9.133763E-15	3.747940E-17
4.720000E+03	9.094802E-15	3.725044E-17
4.730000E+03	9.060727E-15	3.704193E-17
4.740000E+03	9.031267E-15	3.685266E-17
4.750000E+03	9.006094E-15	3.668120E-17
4.760000E+03	8.984633E-15	3.652510E-17
4.770000E+03	8.966215E-15	3.638159E-17
4.780000E+03	8.950226E-15	3.624810E-17
4.790000E+03	8.935801E-15	3.612109E-17
4.800000E+03	8.922249E-15	3.599774E-17
4.810000E+03	8.908744E-15	3.587471E-17
4.820000E+03	8.894552E-15	3.574904E-17
4.830000E+03	8.878918E-15	3.561774E-17
4.840000E+03	8.861300E-15	3.547867E-17
4.850000E+03	8.841030E-15	3.532921E-17
4.860000E+03	8.817758E-15	3.516803E-17
4.870000E+03	8.791036E-15	3.499343E-17
4.880000E+03	8.760810E-15	3.480527E-17
4.890000E+03	8.726799E-15	3.460252E-17
4.900000E+03	8.689113E-15	3.438572E-17
4.910000E+03	8.647896E-15	3.415553E-17
4.920000E+03	8.603248E-15	3.391242E-17
4.930000E+03	8.555628E-15	3.365829E-17
4.940000E+03	8.505205E-15	3.339387E-17
4.950000E+03	8.452544E-15	3.312146E-17
4.960000E+03	8.397960E-15	3.284234E-17
4.970000E+03	8.341917E-15	3.255836E-17
4.980000E+03	8.284873E-15	3.227136E-17
4.990000E+03	8.227193E-15	3.198278E-17
5.000000E+03	8.169282E-15	3.169422E-17
5.010000E+03	8.111497E-15	3.140706E-17
5.020000E+03	8.054145E-15	3.112249E-17
5.030000E+03	7.997335E-15	3.084093E-17
5.040000E+03	7.941328E-15	3.056338E-17
5.050000E+03	7.886255E-15	3.029032E-17
5.060000E+03	7.832054E-15	3.002151E-17
5.070000E+03	7.778821E-15	2.975729E-17
5.080000E+03	7.726470E-15	2.949731E-17
5.090000E+03	7.675015E-15	2.924162E-17
5.100000E+03	7.624172E-15	2.898911E-17
5.110000E+03	7.574044E-15	2.874018E-17
5.120000E+03	7.524314E-15	2.849360E-17
5.130000E+03	7.474936E-15	2.824920E-17
5.140000E+03	7.425724E-15	2.800628E-17
5.150000E+03	7.376572E-15	2.776442E-17
5.160000E+03	7.327384E-15	2.752329E-17
5.170000E+03	7.278010E-15	2.728231E-17
5.180000E+03	7.228457E-15	2.704153E-17
5.190000E+03	7.178546E-15	2.680028E-17
5.200000E+03	7.128323E-15	2.655875E-17
5.210000E+03	7.077659E-15	2.631647E-17
5.220000E+03	7.026709E-15	2.607403E-17
5.230000E+03	6.975388E-15	2.583112E-17
5.240000E+03	6.923830E-15	2.558824E-17
5.250000E+03	6.871990E-15	2.534525E-17
5.260000E+03	6.820101E-15	2.510301E-17
5.270000E+03	6.768083E-15	2.486123E-17
5.280000E+03	6.716124E-15	2.462061E-17
5.290000E+03	6.664413E-15	2.438183E-17
5.300000E+03	6.612885E-15	2.414466E-17
5.310000E+03	6.561787E-15	2.391000E-17
5.320000E+03	6.511102E-15	2.367777E-17
5.330000E+03	6.460994E-15	2.344857E-17
5.340000E+03	6.411421E-15	2.322223E-17
5.350000E+03	6.362514E-15	2.299922E-17
5.360000E+03	6.314262E-15	2.277949E-17
5.370000E+03	6.266580E-15	2.256271E-17
5.380000E+03	6.219547E-15	2.234917E-17
5.390000E+03	6.173110E-15	2.213866E-17
5.400000E+03	6.127202E-15	2.193092E-17
5.410000E+03	6.081984E-15	2.172653E-17
5.420000E+03	6.037489E-15	2.152559E-17
5.430000E+03	5.993858E-15	2.132858E-17
5.440000E+03	5.950746E-15	2.113426E-17
5.450000E+03	5.907754E-15	2.094120E-17
5.460000E+03	5.864792E-15	2.074908E-17
5.470000E+03	5.821847E-15	2.055785E-17
5.480000E+03	5.778815E-15	2.036714E-17
5.490000E+03	5.735938E-15	2.017780E-17
5.500000E+03	5.693215E-15	1.998982E-17
5.510000E+03	5.650659E-15	1.980325E-17
5.520000E+03	5.608252E-15	1.961801E-17
5.530000E+03	5.566135E-15	1.943459E-17
5.540000E+03	5.524233E-15	1.925272E-17
5.550000E+03	5.482777E-15	1.907321E-17
5.560000E+03	5.441710E-15	1.889583E-17
5.570000E+03	5.401265E-15	1.872139E-17
5.580000E+03	5.361323E-15	1.854946E-17
5.590000E+03	5.322172E-15	1.838102E-17
5.600000E+03	5.283694E-15	1.821566E-17
5.610000E+03	5.246119E-15	1.805415E-17
5.620000E+03	5.209448E-15	1.789647E-17
5.630000E+03	5.173803E-15	1.774302E-17
5.640000E+03	5.139190E-15	1.759381E-17
5.650000E+03	5.105789E-15	1.744943E-17
5.660000E+03	5.073664E-15	1.731007E-17
5.670000E+03	5.042812E-15	1.717570E-17
5.680000E+03	5.013451E-15	1.704705E-17
5.690000E+03	4.985439E-15	1.692359E-17
5.700000E+03	4.958955E-15	1.680592E-17
5.710000E+03	4.933926E-15	1.669375E-17
5.720000E+03	4.910367E-15	1.658713E-17
5.730000E+03	4.888147E-15	1.648557E-17
5.740000E+03	4.867278E-15	1.638911E-17
5.750000E+03	4.847569E-15	1.629707E-17
5.760000E+03	4.828920E-15	1.620910E-17
5.770000E+03	4.811150E-15	1.612459E-17
5.780000E+03	4.794062E-15	1.604285E-17
5.790000E+03	4.777507E-15	1.596339E-17
5.800000E+03	4.761213E-15	1.588528E-17
5.810000E+03	4.745087E-15	1.580822E-17
5.820000E+03	4.728871E-15	1.573134E-17
5.830000E+03	4.712378E-15	1.565403E-17
5.840000E+03	4.695497E-15	1.557593E-17
5.850000E+03	4.678081E-15	1.549655E-17
5.860000E+03	4.660063E-15	1.541568E-17
5.870000E+03	4.641224E-15	1.533260E-17
5.880000E+03	4.621603E-15	1.524747E-17
5.890000E+03	4.601143E-15	1.516009E-17
5.900000E+03	4.579803E-15	1.507035E-17
5.910000E+03	4.557563E-15	1.497819E-17
5.920000E+03	4.534411E-15	1.488358E-17
5.930000E+03	4.510411E-15	1.478675E-17
5.940000E+03	4.485576E-15	1.468773E-17
5.950000E+03	4.459865E-15	1.458642E-17
5.960000E+03	4.433426E-15	1.448330E-17
5.970000E+03	4.406232E-15	1.437829E-17
5.980000E+03	4.378323E-15	1.427153E-17
5.990000E+03	4.349747E-15	1.416318E-17
6.000000E+03	4.320678E-15	1.405380E-17
6.010000E+03	4.291123E-15	1.394343E-17
6.020000E+03	4.261095E-15	1.383210E-17
6.030000E+03	4.230858E-15	1.372068E-17
6.040000E+03	4.200388E-15	1.360909E-17
6.050000E+03	4.169846E-15	1.349784E-17
6.060000E+03	4.139345E-15	1.338730E-17
6.070000E+03	4.109051E-15	1.327800E-17
6.080000E+03	4.079134E-15	1.317048E-17
6.090000E+03	4.049634E-15	1.306486E-17
6.100000E+03	4.020696E-15	1.296161E-17
6.110000E+03	3.992445E-15	1.286112E-17
6.120000E+03	3.964923E-15	1.276351E-17
6.130000E+03	3.938258E-15	1.266919E-17
6.140000E+03	3.912377E-15	1.257791E-17
6.150000E+03	3.887174E-15	1.248930E-17
6.160000E+03	3.862391E-15	1.240252E-17
6.170000E+03	3.837829E-15	1.231691E-17
6.180000E+03	3.813196E-15	1.223154E-17
6.190000E+03	3.788069E-15	1.214503E-17
6.200000E+03	3.762277E-15	1.205682E-17
6.210000E+03	3.736140E-15	1.196792E-17
6.220000E+03	3.709938E-15	1.187923E-17
6.230000E+03	3.683794E-15	1.179113E-17
6.240000E+03	3.657843E-15	1.170403E-17
6.250000E+03	3.632089E-15	1.161794E-17
6.260000E+03	3.606698E-15	1.153339E-17
6.270000E+03	3.581786E-15	1.145071E-17
6.280000E+03	3.557409E-15	1.137008E-17
6.290000E+03	3.533626E-15	1.129169E-17
6.300000E+03	3.510551E-15	1.121587E-17
6.310000E+03	3.488353E-15	1.114317E-17
6.320000E+03	3.467080E-15	1.107372E-17
6.330000E+03	3.446776E-15	1.100765E-17
6.340000E+03	3.427525E-15	1.094522E-17
6.350000E+03	3.409447E-15	1.088681E-17
6.360000E+03	3.392475E-15	1.083219E-17
6.370000E+03	3.376683E-15	1.078159E-17
6.380000E+03	3.362053E-15	1.073495E-17
6.390000E+03	3.348539E-15	1.069211E-17
6.400000E+03	3.336062E-15	1.065281E-17
6.410000E+03	3.324564E-15	1.061686E-17
6.420000E+03	3.313959E-15	1.058399E-17
6.430000E+03	3.304024E-15	1.055347E-17
6.440000E+03	3.294681E-15	1.052506E-17
6.450000E+03	3.285728E-15	1.049809E-17
6.460000E+03	3.276954E-15	1.047190E-17
6.470000E+03	3.268143E-15	1.044578E-17
6.480000E+03	3.259140E-15	1.041925E-17
6.490000E+03	3.249740E-15	1.039162E-17
6.500000E+03	3.239752E-15	1.036230E-17
6.510000E+03	3.229000E-15	1.033071E-17
6.520000E+03	3.217442E-15	1.029671E-17
6.530000E+03	3.204826E-15	1.025948E-17
6.540000E+03	3.191094E-15	1.021884E-17
6.550000E+03	3.176151E-15	1.017446E-17
6.560000E+03	3.159981E-15	1.012629E-17
6.570000E+03	3.142478E-15	1.007398E-17
6.580000E+03	3.123668E-15	1.001760E-17
6.590000E+03	3.103487E-15	9.956943E-18
6.600000E+03	3.082003E-15	9.892203E-18
6.610000E+03	3.059245E-15	9.823473E-18
6.620000E+03	3.035264E-15	9.750897E-18
6.630000E+03	3.010069E-15	9.674500E-18
6.640000E+03	2.983856E-15	9.594901E-18
6.650000E+03	2.956610E-15	9.512034E-18
6.660000E+03	2.928495E-15	9.426422E-18
6.670000E+03	2.899688E-15	9.338627E-18
6.680000E+03	2.870208E-15	9.248694E-18
6.690000E+03	2.840246E-15	9.157234E-18
6.700000E+03	2.809941E-15	9.064687E-18
6.710000E+03	2.779437E-15	8.971511E-18
6.720000E+03	2.748878E-15	8.878161E-18
6.730000E+03	2.718350E-15	8.784909E-18
6.740000E+03	2.688100E-15	8.692554E-18
6.750000E+03	2.658206E-15	8.601341E-18
6.760000E+03	2.628743E-15	8.511513E-18
6.770000E+03	2.599884E-15	8.423626E-18
6.780000E+03	2.571740E-15	8.338040E-18
6.790000E+03	2.544362E-15	8.254919E-18
6.800000E+03	2.517896E-15	8.174739E-18
6.810000E+03	2.492424E-15	8.097768E-18
6.820000E+03	2.467969E-15	8.024086E-18
6.830000E+03	2.444645E-15	7.954065E-18
6.840000E+03	2.422505E-15	7.887886E-18
6.850000E+03	2.401495E-15	7.825374E-18
6.860000E+03	2.381800E-15	7.767138E-18
6.870000E+03	2.363297E-15	7.712788E-18
6.880000E+03	2.346104E-15	7.662711E-18
6.890000E+03	2.330182E-15	7.616789E-18
6.900000E+03	2.315584E-15	7.575204E-18
6.910000E+03	2.302207E-15	7.537626E-18
6.920000E+03	2.290139E-15	7.504353E-18
6.930000E+03	2.279265E-15	7.475015E-18
6.940000E+03	2.269658E-15	7.449862E-18
6.950000E+03	2.261240E-15	7.428650E-18
6.960000E+03	2.253928E-15	7.411108E-18
6.970000E+03	2.247732E-15	7.397282E-18
6.980000E+03	2.242606E-15	7.387028E-18
6.990000E+03	2.238501E-15	7.380195E-18
7.000000E+03	2.235363E-15	7.376614E-18
7.010000E+03	2.233088E-15	7.375950E-18
7.020000E+03	2.231668E-15	7.378181E-18
7.030000E+03	2.230989E-15	7.382945E-18
7.040000E+03	2.231043E-15	7.390213E-18
7.050000E+03	2.231714E-15	7.399617E-18
7.060000E+03	2.232942E-15	7.410959E-18
7.070000E+03	2.234718E-15	7.424213E-18
7.080000E+03	2.236928E-15	7.439015E-18
7.090000E+03	2.239570E-15	7.455354E-18
7.100000E+03	2.242486E-15	7.472712E-18
7.110000E+03	2.245728E-15	7.491270E-18
7.120000E+03	2.249147E-15	7.510527E-18
7.130000E+03	2.252802E-15	7.530691E-18
7.140000E+03	2.256601E-15	7.551455E-18
7.150000E+03	2.260458E-15	7.572533E-18
7.160000E+03	2.264446E-15	7.594172E-18
7.170000E+03	2.268430E-15	7.615919E-18
7.180000E+03	2.272436E-15	7.637867E-18
7.190000E+03	2.276442E-15	7.659942E-18
7.200000E+03	2.280426E-15	7.682068E-18
7.210000E+03	2.284315E-15	7.704005E-18
7.220000E+03	2.288142E-15	7.725866E-18
7.230000E+03	2.291837E-15	7.747408E-18
7.240000E+03	2.295438E-15	7.768765E-18
7.250000E+03	2.298927E-15	7.789875E-18
7.260000E+03	2.302234E-15	7.810503E-18
7.270000E+03	2.305345E-15	7.830596E-18
7.280000E+03	2.308360E-15	7.850497E-18
7.290000E+03	2.311095E-15	7.869579E-18
7.300000E+03	2.313656E-15	7.888202E-18
7.310000E+03	2.315981E-15	7.906152E-18
7.320000E+03	2.318124E-15	7.923613E-18
7.330000E+03	2.320031E-15	7.940400E-18
7.340000E+03	2.321767E-15	7.956734E-18
7.350000E+03	2.323290E-15	7.972472E-18
7.360000E+03	2.324680E-15	7.987885E-18
7.370000E+03	2.325909E-15	8.002876E-18
7.380000E+03	2.327072E-15	8.017775E-18
7.390000E+03	2.328158E-15	8.032539E-18
7.400000E+03	2.329280E-15	8.047564E-18
7.410000E+03	2.330502E-15	8.063072E-18
7.420000E+03	2.331952E-15	8.079513E-18
7.430000E+03	2.333589E-15	8.096742E-18
7.440000E+03	2.335610E-15	8.115454E-18
7.450000E+03	2.337976E-15	8.135520E-18
7.460000E+03	2.340945E-15	8.157849E-18
7.470000E+03	2.344401E-15	8.182040E-18
7.480000E+03	2.348507E-15	8.208681E-18
7.490000E+03	2.353266E-15	8.237789E-18
7.500000E+03	2.358552E-15	8.268935E-18
7.510000E+03	2.364207E-15	8.301579E-18
7.520000E+03	2.370216E-15	8.335674E-18
7.530000E+03	2.376796E-15	8.371994E-18
7.540000E+03	2.384154E-15	8.411270E-18
7.550000E+03	2.392151E-15	8.453026E-18
7.560000E+03	2.400978E-15	8.497951E-18
7.570000E+03	2.410462E-15	8.545439E-18
7.580000E+03	2.420591E-15	8.595462E-18
7.590000E+03	2.431202E-15	8.647447E-18
7.600000E+03	2.442175E-15	8.700978E-18
7.610000E+03	2.453450E-15	8.755843E-18
7.620000E+03	2.464892E-15	8.811567E-18
7.630000E+03	2.476222E-15	8.867150E-18
7.640000E+03	2.487438E-15	8.922580E-18
7.650000E+03	2.498333E-15	8.977113E-18
7.660000E+03	2.508778E-15	9.030281E-18
7.670000E+03	2.518654E-15	9.081639E-18
7.680000E+03	2.527928E-15	9.131059E-18
7.690000E+03	2.536437E-15	9.177937E-18
7.700000E+03	2.544105E-15	9.221979E-18
7.710000E+03	2.550797E-15	9.262685E-18
7.720000E+03	2.556617E-15	9.300403E-18
7.730000E+03	2.561460E-15	9.334737E-18
7.740000E+03	2.565310E-15	9.365607E-18
7.750000E+03	2.568165E-15	9.392982E-18
7.760000E+03	2.570030E-15	9.416860E-18
