#wls	flux	fluxerr
1.600000E+03	1.447315E-16	5.751631E-19
1.640000E+03	1.449544E-16	5.760485E-19
1.680000E+03	1.453521E-16	5.776291E-19
1.720000E+03	1.459281E-16	5.799181E-19
1.760000E+03	1.466866E-16	5.829319E-19
1.800000E+03	1.477034E-16	5.869728E-19
1.840000E+03	1.489512E-16	5.919315E-19
1.880000E+03	1.504754E-16	5.979883E-19
1.920000E+03	1.522888E-16	6.051947E-19
1.960000E+03	1.544452E-16	6.137643E-19
2.000000E+03	1.569682E-16	6.237905E-19
2.040000E+03	1.599266E-16	6.355468E-19
2.080000E+03	1.634009E-16	6.493536E-19
2.120000E+03	1.674078E-16	6.652768E-19
2.160000E+03	1.720917E-16	6.838906E-19
2.200000E+03	1.774828E-16	7.053144E-19
2.240000E+03	1.837188E-16	7.300962E-19
2.280000E+03	1.908309E-16	7.583594E-19
2.320000E+03	1.988050E-16	7.900483E-19
2.360000E+03	2.076136E-16	8.250533E-19
2.400000E+03	2.172170E-16	8.632170E-19
2.440000E+03	2.273394E-16	9.034432E-19
2.480000E+03	2.379240E-16	9.455060E-19
2.520000E+03	2.486462E-16	9.881155E-19
2.560000E+03	2.592967E-16	1.030440E-18
2.600000E+03	2.696208E-16	1.071468E-18
2.640000E+03	2.794884E-16	1.110681E-18
2.680000E+03	2.886360E-16	1.147034E-18
2.720000E+03	2.971167E-16	1.180735E-18
2.760000E+03	3.049639E-16	1.211920E-18
2.800000E+03	3.122398E-16	1.240834E-18
2.840000E+03	3.191235E-16	1.268189E-18
2.880000E+03	3.259854E-16	1.295458E-18
2.920000E+03	3.330228E-16	1.323425E-18
2.960000E+03	3.406934E-16	1.353907E-18
3.000000E+03	3.494011E-16	1.388511E-18
3.010000E+03	3.517509E-16	1.397849E-18
3.020000E+03	3.542472E-16	1.407769E-18
3.030000E+03	3.568558E-16	1.418136E-18
3.040000E+03	3.595818E-16	1.428969E-18
3.050000E+03	3.623925E-16	1.440138E-18
3.060000E+03	3.653703E-16	1.451972E-18
3.070000E+03	3.684824E-16	1.464339E-18
3.080000E+03	3.717343E-16	1.477262E-18
3.090000E+03	3.751320E-16	1.490764E-18
3.100000E+03	3.787187E-16	1.505018E-18
3.110000E+03	3.824624E-16	1.519895E-18
3.120000E+03	3.863691E-16	1.535420E-18
3.130000E+03	3.904813E-16	1.551762E-18
3.140000E+03	3.948042E-16	1.568941E-18
3.150000E+03	3.993069E-16	1.586834E-18
3.160000E+03	4.040309E-16	1.605607E-18
3.170000E+03	4.089815E-16	1.625281E-18
3.180000E+03	4.141636E-16	1.645874E-18
3.190000E+03	4.195821E-16	1.667407E-18
3.200000E+03	4.252415E-16	1.689897E-18
3.210000E+03	4.311110E-16	1.713222E-18
3.220000E+03	4.372662E-16	1.737683E-18
3.230000E+03	4.437114E-16	1.763296E-18
3.240000E+03	4.503791E-16	1.789793E-18
3.250000E+03	4.573447E-16	1.817474E-18
3.260000E+03	4.646115E-16	1.846352E-18
3.270000E+03	4.721476E-16	1.876301E-18
3.280000E+03	4.799922E-16	1.907474E-18
3.290000E+03	4.881480E-16	1.939885E-18
3.300000E+03	4.965830E-16	1.973406E-18
3.310000E+03	5.053356E-16	2.008188E-18
3.320000E+03	5.144445E-16	2.044387E-18
3.330000E+03	5.238415E-16	2.081730E-18
3.340000E+03	5.336008E-16	2.120513E-18
3.350000E+03	5.436902E-16	2.160608E-18
3.360000E+03	5.541127E-16	2.202027E-18
3.370000E+03	5.649079E-16	2.244926E-18
3.380000E+03	5.760439E-16	2.289180E-18
3.390000E+03	5.875247E-16	2.334805E-18
3.400000E+03	5.994271E-16	2.382104E-18
3.410000E+03	6.116840E-16	2.430813E-18
3.420000E+03	6.243369E-16	2.481095E-18
3.430000E+03	6.373920E-16	2.532975E-18
3.440000E+03	6.508557E-16	2.586480E-18
3.450000E+03	6.647715E-16	2.641780E-18
3.460000E+03	6.790734E-16	2.698616E-18
3.470000E+03	6.938425E-16	2.757307E-18
3.480000E+03	7.090501E-16	2.817742E-18
3.490000E+03	7.247423E-16	2.880102E-18
3.500000E+03	7.408917E-16	2.944279E-18
3.510000E+03	7.575451E-16	3.010459E-18
3.520000E+03	7.747126E-16	3.078682E-18
3.530000E+03	7.923663E-16	3.148837E-18
3.540000E+03	8.105534E-16	3.221112E-18
3.550000E+03	8.293219E-16	3.295697E-18
3.560000E+03	8.486047E-16	3.372326E-18
3.570000E+03	8.684880E-16	3.451342E-18
3.580000E+03	8.889034E-16	3.532472E-18
3.590000E+03	9.099761E-16	3.616214E-18
3.600000E+03	9.315975E-16	3.702136E-18
3.610000E+03	9.538537E-16	3.790582E-18
3.620000E+03	9.767132E-16	3.881425E-18
3.630000E+03	1.000223E-15	3.974850E-18
3.639316E+03	8.834315E-16	3.510726E-18
3.644832E+03	9.013553E-16	3.581955E-18
3.650348E+03	9.241156E-16	3.672403E-18
3.655863E+03	9.475242E-16	3.765428E-18
3.661379E+03	9.749204E-16	3.874300E-18
3.666895E+03	1.006161E-15	3.998448E-18
3.672411E+03	1.038049E-15	4.125172E-18
3.677927E+03	1.073581E-15	4.266372E-18
3.683443E+03	1.115376E-15	4.432465E-18
3.688959E+03	1.160367E-15	4.611259E-18
3.694475E+03	1.206195E-15	4.793378E-18
3.699990E+03	1.256184E-15	4.992032E-18
3.705506E+03	1.309312E-15	5.203161E-18
3.711022E+03	1.361045E-15	5.408743E-18
3.716538E+03	1.411194E-15	5.608036E-18
3.722054E+03	1.459888E-15	5.801542E-18
3.727570E+03	1.506135E-15	5.985326E-18
3.733086E+03	1.551804E-15	6.166813E-18
3.738602E+03	1.591281E-15	6.323693E-18
3.744117E+03	1.623269E-15	6.450814E-18
3.749633E+03	1.643015E-15	6.529283E-18
3.755149E+03	1.651960E-15	6.564829E-18
3.760665E+03	1.649094E-15	6.553438E-18
3.766181E+03	1.634705E-15	6.496258E-18
3.771697E+03	1.612106E-15	6.406452E-18
3.777213E+03	1.590224E-15	6.319491E-18
3.782729E+03	1.560707E-15	6.202191E-18
3.788244E+03	1.520099E-15	6.040819E-18
3.793760E+03	1.481794E-15	5.888594E-18
3.799276E+03	1.431620E-15	5.689205E-18
3.804792E+03	1.382970E-15	5.495871E-18
3.810308E+03	1.339142E-15	5.321703E-18
3.815824E+03	1.295588E-15	5.148619E-18
3.821340E+03	1.250376E-15	4.968948E-18
3.826855E+03	1.209611E-15	4.806951E-18
3.832371E+03	1.171785E-15	4.656628E-18
3.837887E+03	1.144741E-15	4.549158E-18
3.843403E+03	1.120505E-15	4.452845E-18
3.848919E+03	1.103050E-15	4.383478E-18
3.854435E+03	1.101216E-15	4.376192E-18
3.859951E+03	1.106119E-15	4.395677E-18
3.865466E+03	1.122597E-15	4.461159E-18
3.870982E+03	1.150980E-15	4.573950E-18
3.876498E+03	1.188444E-15	4.722831E-18
3.882014E+03	1.235724E-15	4.910722E-18
3.887530E+03	1.297742E-15	5.157178E-18
3.893046E+03	1.368018E-15	5.436452E-18
3.898562E+03	1.444637E-15	5.740933E-18
3.904077E+03	1.535574E-15	6.102313E-18
3.909593E+03	1.632404E-15	6.487113E-18
3.915109E+03	1.742182E-15	6.923366E-18
3.920625E+03	1.861738E-15	7.398478E-18
3.926141E+03	2.001003E-15	7.951911E-18
3.931657E+03	2.145726E-15	8.527033E-18
3.937173E+03	2.300798E-15	9.143284E-18
3.942689E+03	2.464203E-15	9.792649E-18
3.948204E+03	2.632775E-15	1.046255E-17
3.953720E+03	2.797876E-15	1.111865E-17
3.959236E+03	2.961091E-15	1.176726E-17
3.964752E+03	3.120980E-15	1.240265E-17
3.970268E+03	3.275673E-15	1.301740E-17
3.975784E+03	3.422293E-15	1.360006E-17
3.981300E+03	3.554078E-15	1.412377E-17
3.986816E+03	3.667866E-15	1.457596E-17
3.992331E+03	3.758622E-15	1.493662E-17
3.997847E+03	3.822756E-15	1.519148E-17
4.003363E+03	3.860844E-15	1.534284E-17
4.008879E+03	3.872174E-15	1.538787E-17
4.014395E+03	3.864945E-15	1.535914E-17
4.019911E+03	3.842184E-15	1.526869E-17
4.025427E+03	3.792673E-15	1.507193E-17
4.030943E+03	3.726483E-15	1.480890E-17
4.036458E+03	3.645777E-15	1.448817E-17
4.041974E+03	3.559326E-15	1.414462E-17
4.047490E+03	3.477918E-15	1.382111E-17
4.053006E+03	3.400114E-15	1.351192E-17
4.058522E+03	3.326344E-15	1.321876E-17
4.064038E+03	3.262505E-15	1.296507E-17
4.069553E+03	3.206151E-15	1.274112E-17
4.075069E+03	3.161306E-15	1.256291E-17
4.080585E+03	3.127395E-15	1.242814E-17
4.086101E+03	3.109879E-15	1.235854E-17
4.091617E+03	3.105306E-15	1.234036E-17
4.097133E+03	3.119570E-15	1.239705E-17
4.102649E+03	3.141744E-15	1.248517E-17
4.108165E+03	3.171685E-15	1.260415E-17
4.113681E+03	3.204937E-15	1.273629E-17
4.119196E+03	3.232445E-15	1.284561E-17
4.124712E+03	3.253781E-15	1.293039E-17
4.130228E+03	3.263915E-15	1.297067E-17
4.135744E+03	3.256668E-15	1.294187E-17
4.141260E+03	3.231323E-15	1.284115E-17
4.146776E+03	3.189463E-15	1.267480E-17
4.152292E+03	3.127784E-15	1.242969E-17
4.157807E+03	3.051027E-15	1.212466E-17
4.163323E+03	2.956608E-15	1.174944E-17
4.168839E+03	2.853004E-15	1.133772E-17
4.174355E+03	2.734321E-15	1.086608E-17
4.179871E+03	2.615650E-15	1.039449E-17
4.185387E+03	2.492964E-15	9.906938E-18
4.190903E+03	2.374167E-15	9.434842E-18
4.196418E+03	2.258396E-15	8.974774E-18
4.201934E+03	2.151544E-15	8.550146E-18
4.207450E+03	2.058352E-15	8.179805E-18
4.212966E+03	1.979251E-15	7.865463E-18
4.218482E+03	1.914821E-15	7.609420E-18
4.223998E+03	1.866499E-15	7.417390E-18
4.229514E+03	1.830550E-15	7.274529E-18
4.235029E+03	1.806400E-15	7.178561E-18
4.240545E+03	1.788590E-15	7.107784E-18
4.246061E+03	1.782443E-15	7.083356E-18
4.251577E+03	1.786093E-15	7.097859E-18
4.257093E+03	1.799542E-15	7.151307E-18
4.262609E+03	1.817187E-15	7.221424E-18
4.268125E+03	1.839317E-15	7.309369E-18
4.273641E+03	1.865217E-15	7.412296E-18
4.279157E+03	1.894027E-15	7.526782E-18
4.284672E+03	1.930788E-15	7.672871E-18
4.290188E+03	1.973060E-15	7.840856E-18
4.295704E+03	2.014512E-15	8.005586E-18
4.301220E+03	2.060332E-15	8.187671E-18
4.306736E+03	2.106637E-15	8.371685E-18
4.312252E+03	2.152275E-15	8.553051E-18
4.317767E+03	2.197828E-15	8.734076E-18
4.323283E+03	2.239839E-15	8.901025E-18
4.328799E+03	2.289702E-15	9.099179E-18
4.334315E+03	2.340937E-15	9.302783E-18
4.339831E+03	2.398312E-15	9.530790E-18
4.345347E+03	2.458084E-15	9.768322E-18
4.350863E+03	2.521707E-15	1.002116E-17
4.356379E+03	2.581820E-15	1.026004E-17
4.361895E+03	2.637990E-15	1.048326E-17
4.367410E+03	2.689932E-15	1.068967E-17
4.372926E+03	2.736485E-15	1.087467E-17
4.378442E+03	2.774609E-15	1.102618E-17
4.383958E+03	2.798214E-15	1.111998E-17
4.389474E+03	2.809164E-15	1.116350E-17
4.394990E+03	2.804105E-15	1.114339E-17
4.400506E+03	2.783741E-15	1.106247E-17
4.406021E+03	2.743251E-15	1.090156E-17
4.411537E+03	2.690734E-15	1.069286E-17
4.417053E+03	2.631395E-15	1.045705E-17
4.422569E+03	2.573657E-15	1.022760E-17
4.428085E+03	2.511988E-15	9.982531E-18
4.433601E+03	2.459342E-15	9.773320E-18
4.439117E+03	2.417198E-15	9.605841E-18
4.444632E+03	2.390684E-15	9.500475E-18
4.450148E+03	2.382604E-15	9.468364E-18
4.455664E+03	2.397971E-15	9.529433E-18
4.461180E+03	2.437574E-15	9.686815E-18
4.466696E+03	2.497228E-15	9.923877E-18
4.472212E+03	2.579040E-15	1.024899E-17
4.477728E+03	2.682630E-15	1.066065E-17
4.483243E+03	2.801443E-15	1.113281E-17
4.488759E+03	2.933610E-15	1.165804E-17
4.494275E+03	3.083143E-15	1.225228E-17
4.499791E+03	3.242873E-15	1.288704E-17
4.505307E+03	3.410468E-15	1.355305E-17
4.510823E+03	3.585804E-15	1.424983E-17
4.516339E+03	3.760177E-15	1.494278E-17
4.521855E+03	3.935359E-15	1.563894E-17
4.527370E+03	4.109568E-15	1.633124E-17
4.532886E+03	4.281315E-15	1.701376E-17
4.538402E+03	4.452371E-15	1.769353E-17
4.543918E+03	4.620050E-15	1.835987E-17
4.549434E+03	4.781657E-15	1.900210E-17
4.554950E+03	4.941935E-15	1.963903E-17
4.560466E+03	5.095206E-15	2.024812E-17
4.565981E+03	5.240544E-15	2.082569E-17
4.571497E+03	5.381355E-15	2.138527E-17
4.577013E+03	5.515074E-15	2.191666E-17
4.582529E+03	5.643020E-15	2.242511E-17
4.588045E+03	5.762616E-15	2.290038E-17
4.593561E+03	5.870982E-15	2.333102E-17
4.599077E+03	5.970327E-15	2.372581E-17
4.604593E+03	6.058811E-15	2.407744E-17
4.610109E+03	6.134440E-15	2.437799E-17
4.615624E+03	6.194608E-15	2.461710E-17
4.621140E+03	6.233540E-15	2.477181E-17
4.626656E+03	6.251470E-15	2.484306E-17
4.632172E+03	6.250149E-15	2.483781E-17
4.637688E+03	6.227856E-15	2.474922E-17
4.643204E+03	6.187407E-15	2.458848E-17
4.648720E+03	6.121337E-15	2.432592E-17
4.654235E+03	6.041698E-15	2.400944E-17
4.659751E+03	5.939817E-15	2.360457E-17
4.665267E+03	5.817617E-15	2.311895E-17
4.670783E+03	5.671865E-15	2.253974E-17
4.676299E+03	5.509352E-15	2.189392E-17
4.681815E+03	5.329745E-15	2.118017E-17
4.687331E+03	5.138952E-15	2.042196E-17
4.692846E+03	4.945331E-15	1.965252E-17
4.698362E+03	4.753611E-15	1.889064E-17
4.703878E+03	4.568227E-15	1.815393E-17
4.709394E+03	4.393318E-15	1.745885E-17
4.714910E+03	4.235014E-15	1.682975E-17
4.720426E+03	4.093197E-15	1.626618E-17
4.725942E+03	3.968512E-15	1.577068E-17
4.731458E+03	3.865416E-15	1.536099E-17
4.736973E+03	3.790206E-15	1.506211E-17
4.742489E+03	3.731759E-15	1.482984E-17
4.748005E+03	3.693606E-15	1.467822E-17
4.753521E+03	3.670412E-15	1.458605E-17
4.759037E+03	3.661267E-15	1.454971E-17
4.764553E+03	3.675657E-15	1.460689E-17
4.770069E+03	3.708382E-15	1.473694E-17
4.775584E+03	3.764482E-15	1.495988E-17
4.781100E+03	3.847311E-15	1.528904E-17
4.786616E+03	3.955319E-15	1.571826E-17
4.792132E+03	4.097191E-15	1.628205E-17
4.797648E+03	4.278235E-15	1.700151E-17
4.803164E+03	4.492892E-15	1.785455E-17
4.808680E+03	4.736981E-15	1.882454E-17
4.814195E+03	5.006469E-15	1.989548E-17
4.819711E+03	5.297174E-15	2.105072E-17
4.825227E+03	5.595142E-15	2.223484E-17
4.830743E+03	5.884460E-15	2.338457E-17
4.836259E+03	6.159315E-15	2.447683E-17
4.841775E+03	6.409337E-15	2.547041E-17
4.847291E+03	6.618558E-15	2.630184E-17
4.852807E+03	6.792665E-15	2.699373E-17
4.858323E+03	6.923811E-15	2.751490E-17
4.863838E+03	7.015729E-15	2.788018E-17
4.869354E+03	7.073669E-15	2.811043E-17
4.874870E+03	7.097714E-15	2.820599E-17
4.880386E+03	7.094170E-15	2.819190E-17
4.885902E+03	7.067965E-15	2.808776E-17
4.891418E+03	7.026130E-15	2.792151E-17
4.896934E+03	6.977637E-15	2.772880E-17
4.902449E+03	6.915726E-15	2.748277E-17
4.907965E+03	6.857793E-15	2.725255E-17
4.913481E+03	6.804441E-15	2.704053E-17
4.918997E+03	6.753861E-15	2.683953E-17
4.924513E+03	6.712217E-15	2.667404E-17
4.930029E+03	6.678887E-15	2.654158E-17
4.935545E+03	6.655350E-15	2.644805E-17
4.941060E+03	6.640083E-15	2.638738E-17
4.946576E+03	6.636052E-15	2.637136E-17
4.952092E+03	6.643521E-15	2.640104E-17
4.957608E+03	6.659019E-15	2.646263E-17
4.963124E+03	6.679836E-15	2.654535E-17
4.968640E+03	6.699107E-15	2.662194E-17
4.974156E+03	6.709563E-15	2.666349E-17
4.979672E+03	6.705007E-15	2.664538E-17
4.985187E+03	6.675429E-15	2.652784E-17
4.990703E+03	6.618715E-15	2.630246E-17
4.996219E+03	6.525382E-15	2.593156E-17
5.001735E+03	6.397218E-15	2.542224E-17
5.007251E+03	6.235857E-15	2.478100E-17
5.012767E+03	6.034833E-15	2.398214E-17
5.018283E+03	5.803003E-15	2.306086E-17
5.023798E+03	5.545949E-15	2.203934E-17
5.029314E+03	5.273319E-15	2.095592E-17
5.034830E+03	5.000997E-15	1.987372E-17
5.040346E+03	4.735860E-15	1.882008E-17
5.045862E+03	4.483286E-15	1.781637E-17
5.051378E+03	4.253858E-15	1.690463E-17
5.056894E+03	4.054458E-15	1.611222E-17
5.062409E+03	3.886116E-15	1.544324E-17
5.067925E+03	3.746954E-15	1.489022E-17
5.073441E+03	3.639592E-15	1.446357E-17
5.078957E+03	3.562727E-15	1.415811E-17
5.084473E+03	3.508430E-15	1.394234E-17
5.089989E+03	3.485238E-15	1.385017E-17
5.095505E+03	3.492571E-15	1.387931E-17
5.101021E+03	3.522962E-15	1.400008E-17
5.106537E+03	3.580603E-15	1.422915E-17
5.112052E+03	3.656635E-15	1.453129E-17
5.117568E+03	3.740682E-15	1.486529E-17
5.123084E+03	3.832138E-15	1.522873E-17
5.128600E+03	3.922423E-15	1.558752E-17
5.134116E+03	4.013394E-15	1.594903E-17
5.139632E+03	4.097810E-15	1.628450E-17
5.145148E+03	4.171595E-15	1.657772E-17
5.150663E+03	4.240321E-15	1.685083E-17
5.156179E+03	4.299211E-15	1.708486E-17
5.161695E+03	4.347330E-15	1.727608E-17
5.167211E+03	4.390223E-15	1.744653E-17
5.172727E+03	4.421593E-15	1.757120E-17
5.178243E+03	4.445989E-15	1.766815E-17
5.183759E+03	4.466388E-15	1.774921E-17
5.189275E+03	4.477779E-15	1.779448E-17
5.194790E+03	4.496964E-15	1.787072E-17
5.200306E+03	4.519305E-15	1.795950E-17
5.205822E+03	4.541175E-15	1.804641E-17
5.211338E+03	4.561744E-15	1.812815E-17
5.216854E+03	4.583102E-15	1.821303E-17
5.222370E+03	4.610790E-15	1.832306E-17
5.227886E+03	4.636485E-15	1.842517E-17
5.233401E+03	4.662132E-15	1.852709E-17
5.238917E+03	4.690493E-15	1.863979E-17
5.244433E+03	4.720045E-15	1.875723E-17
5.249949E+03	4.751612E-15	1.888267E-17
5.255465E+03	4.782032E-15	1.900356E-17
5.260981E+03	4.818853E-15	1.914989E-17
5.266497E+03	4.861913E-15	1.932101E-17
5.272012E+03	4.915292E-15	1.953313E-17
5.277528E+03	4.975262E-15	1.977145E-17
5.283044E+03	5.039217E-15	2.002560E-17
5.288560E+03	5.109593E-15	2.030527E-17
5.294076E+03	5.183926E-15	2.060067E-17
5.299592E+03	5.262208E-15	2.091176E-17
5.305108E+03	5.342670E-15	2.123151E-17
5.310623E+03	5.423555E-15	2.155294E-17
5.316139E+03	5.499871E-15	2.185622E-17
5.321655E+03	5.568001E-15	2.212697E-17
5.327171E+03	5.624485E-15	2.235143E-17
5.332687E+03	5.670859E-15	2.253572E-17
5.338203E+03	5.701791E-15	2.265864E-17
5.343719E+03	5.720436E-15	2.273273E-17
5.349235E+03	5.724699E-15	2.274967E-17
5.354751E+03	5.714371E-15	2.270863E-17
5.360266E+03	5.691783E-15	2.261887E-17
5.365782E+03	5.659521E-15	2.249066E-17
5.371298E+03	5.621225E-15	2.233847E-17
5.376814E+03	5.580919E-15	2.217830E-17
5.382330E+03	5.539814E-15	2.201495E-17
5.387846E+03	5.503505E-15	2.187066E-17
5.393361E+03	5.469854E-15	2.173693E-17
5.398877E+03	5.445104E-15	2.163858E-17
5.404393E+03	5.430033E-15	2.157869E-17
5.409909E+03	5.429001E-15	2.157458E-17
5.415425E+03	5.443442E-15	2.163197E-17
5.420941E+03	5.470679E-15	2.174021E-17
5.426457E+03	5.513742E-15	2.191134E-17
5.431973E+03	5.574071E-15	2.215108E-17
5.437489E+03	5.655087E-15	2.247304E-17
5.443004E+03	5.744751E-15	2.282936E-17
5.448520E+03	5.841091E-15	2.321221E-17
5.454036E+03	5.942266E-15	2.361427E-17
5.459552E+03	6.042451E-15	2.401240E-17
5.465068E+03	6.132914E-15	2.437190E-17
5.470584E+03	6.206646E-15	2.466491E-17
5.476100E+03	6.261524E-15	2.488299E-17
5.481615E+03	6.292914E-15	2.500773E-17
5.487131E+03	6.295132E-15	2.501654E-17
5.492647E+03	6.266971E-15	2.490463E-17
5.498163E+03	6.210918E-15	2.468188E-17
5.503679E+03	6.136582E-15	2.438647E-17
5.509195E+03	6.040680E-15	2.400536E-17
5.514711E+03	5.927573E-15	2.355588E-17
5.520226E+03	5.803854E-15	2.306423E-17
5.525742E+03	5.670191E-15	2.253306E-17
5.531258E+03	5.542377E-15	2.202513E-17
5.536774E+03	5.421069E-15	2.154306E-17
5.542290E+03	5.314414E-15	2.111922E-17
5.547806E+03	5.230557E-15	2.078597E-17
5.553322E+03	5.169483E-15	2.054327E-17
5.558838E+03	5.133281E-15	2.039940E-17
5.564353E+03	5.127979E-15	2.037834E-17
5.569869E+03	5.142524E-15	2.043614E-17
5.575385E+03	5.182288E-15	2.059415E-17
5.580901E+03	5.243054E-15	2.083564E-17
5.586417E+03	5.322053E-15	2.114957E-17
5.591933E+03	5.412581E-15	2.150933E-17
5.597449E+03	5.512792E-15	2.190756E-17
5.602965E+03	5.616648E-15	2.232028E-17
5.608480E+03	5.718900E-15	2.272662E-17
5.613996E+03	5.816140E-15	2.311305E-17
5.619512E+03	5.905225E-15	2.346707E-17
5.625028E+03	5.979476E-15	2.376214E-17
5.630544E+03	6.038639E-15	2.399725E-17
5.636060E+03	6.075516E-15	2.414380E-17
5.641576E+03	6.093132E-15	2.421380E-17
5.647091E+03	6.091240E-15	2.420628E-17
5.652607E+03	6.070896E-15	2.412544E-17
5.658123E+03	6.036171E-15	2.398744E-17
5.663639E+03	5.987859E-15	2.379545E-17
5.669155E+03	5.931728E-15	2.357239E-17
5.674671E+03	5.867125E-15	2.331566E-17
5.680187E+03	5.794056E-15	2.302529E-17
5.685703E+03	5.718021E-15	2.272313E-17
5.691218E+03	5.641767E-15	2.242010E-17
5.696734E+03	5.566864E-15	2.212244E-17
5.702250E+03	5.496058E-15	2.184106E-17
5.707766E+03	5.428039E-15	2.157076E-17
5.713282E+03	5.366598E-15	2.132659E-17
5.718798E+03	5.305585E-15	2.108413E-17
5.724314E+03	5.247485E-15	2.085324E-17
5.729829E+03	5.194911E-15	2.064432E-17
5.735345E+03	5.147206E-15	2.045474E-17
5.740861E+03	5.103846E-15	2.028243E-17
5.746377E+03	5.069663E-15	2.014659E-17
5.751893E+03	5.039427E-15	2.002643E-17
5.757409E+03	5.014967E-15	1.992923E-17
5.762925E+03	5.001374E-15	1.987521E-17
5.768440E+03	4.999560E-15	1.986800E-17
5.773956E+03	5.016050E-15	1.993353E-17
5.779472E+03	5.034779E-15	2.000796E-17
5.784988E+03	5.059142E-15	2.010478E-17
5.790504E+03	5.087570E-15	2.021775E-17
5.796020E+03	5.116409E-15	2.033235E-17
5.801536E+03	5.148530E-15	2.046000E-17
5.807052E+03	5.186546E-15	2.061107E-17
5.812567E+03	5.222362E-15	2.075341E-17
5.818083E+03	5.260679E-15	2.090567E-17
5.823599E+03	5.296930E-15	2.104973E-17
5.829115E+03	5.331769E-15	2.118818E-17
5.834631E+03	5.362195E-15	2.130909E-17
5.840147E+03	5.387818E-15	2.141092E-17
5.845663E+03	5.408770E-15	2.149418E-17
5.851178E+03	5.422705E-15	2.154955E-17
5.856694E+03	5.432101E-15	2.158689E-17
5.862210E+03	5.437221E-15	2.160724E-17
5.867726E+03	5.434543E-15	2.159660E-17
5.873242E+03	5.431113E-15	2.158297E-17
5.878758E+03	5.420539E-15	2.154095E-17
5.884274E+03	5.405820E-15	2.148246E-17
5.889790E+03	5.389307E-15	2.141684E-17
5.895305E+03	5.373347E-15	2.135341E-17
5.900821E+03	5.357550E-15	2.129063E-17
5.906337E+03	5.345959E-15	2.124457E-17
5.911853E+03	5.334663E-15	2.119968E-17
