#wls	flux	fluxerr
1.600000E+03	6.641316E-17	7.481787E-19
1.640000E+03	6.768370E-17	7.624920E-19
1.680000E+03	6.902958E-17	7.776540E-19
1.720000E+03	7.045461E-17	7.937078E-19
1.760000E+03	7.193672E-17	8.104046E-19
1.800000E+03	7.350854E-17	8.281119E-19
1.840000E+03	7.515055E-17	8.466100E-19
1.880000E+03	7.692709E-17	8.666236E-19
1.920000E+03	7.879606E-17	8.876785E-19
1.960000E+03	8.080113E-17	9.102666E-19
2.000000E+03	8.296348E-17	9.346267E-19
2.040000E+03	8.531078E-17	9.610702E-19
2.080000E+03	8.787919E-17	9.900047E-19
2.120000E+03	9.074503E-17	1.022290E-18
2.160000E+03	9.390858E-17	1.057929E-18
2.200000E+03	9.749675E-17	1.098351E-18
2.240000E+03	1.015499E-16	1.144012E-18
2.280000E+03	1.061286E-16	1.195594E-18
2.320000E+03	1.112636E-16	1.253442E-18
2.360000E+03	1.169517E-16	1.317522E-18
2.400000E+03	1.231966E-16	1.387874E-18
2.440000E+03	1.299097E-16	1.463500E-18
2.480000E+03	1.370126E-16	1.543518E-18
2.520000E+03	1.444447E-16	1.627244E-18
2.560000E+03	1.520132E-16	1.712508E-18
2.600000E+03	1.596674E-16	1.798736E-18
2.640000E+03	1.672765E-16	1.884456E-18
2.680000E+03	1.746208E-16	1.967194E-18
2.720000E+03	1.816538E-16	2.046424E-18
2.760000E+03	1.882584E-16	2.120828E-18
2.800000E+03	1.943305E-16	2.189233E-18
2.840000E+03	1.997809E-16	2.250636E-18
2.880000E+03	2.045368E-16	2.304213E-18
2.920000E+03	2.086324E-16	2.350352E-18
2.960000E+03	2.119830E-16	2.388098E-18
3.000000E+03	2.146536E-16	2.418184E-18
3.010000E+03	2.152383E-16	2.424771E-18
3.020000E+03	2.157631E-16	2.430683E-18
3.030000E+03	2.162281E-16	2.435921E-18
3.040000E+03	2.166773E-16	2.440982E-18
3.050000E+03	2.170670E-16	2.445373E-18
3.060000E+03	2.174408E-16	2.449583E-18
3.070000E+03	2.177985E-16	2.453612E-18
3.080000E+03	2.180545E-16	2.456496E-18
3.090000E+03	2.183375E-16	2.459685E-18
3.100000E+03	2.185622E-16	2.462217E-18
3.110000E+03	2.187715E-16	2.464575E-18
3.120000E+03	2.189234E-16	2.466285E-18
3.130000E+03	2.191016E-16	2.468293E-18
3.140000E+03	2.191819E-16	2.469197E-18
3.150000E+03	2.192887E-16	2.470401E-18
3.160000E+03	2.193400E-16	2.470978E-18
3.170000E+03	2.194174E-16	2.471851E-18
3.180000E+03	2.194403E-16	2.472109E-18
3.190000E+03	2.194493E-16	2.472210E-18
3.200000E+03	2.194449E-16	2.472160E-18
3.210000E+03	2.193879E-16	2.471518E-18
3.220000E+03	2.193574E-16	2.471175E-18
3.230000E+03	2.193144E-16	2.470690E-18
3.240000E+03	2.192591E-16	2.470067E-18
3.250000E+03	2.191921E-16	2.469313E-18
3.260000E+03	2.191138E-16	2.468431E-18
3.270000E+03	2.190621E-16	2.467848E-18
3.280000E+03	2.189626E-16	2.466727E-18
3.290000E+03	2.188904E-16	2.465914E-18
3.300000E+03	2.188088E-16	2.464995E-18
3.310000E+03	2.187546E-16	2.464384E-18
3.320000E+03	2.186921E-16	2.463680E-18
3.330000E+03	2.186576E-16	2.463291E-18
3.340000E+03	2.186162E-16	2.462824E-18
3.350000E+03	2.186036E-16	2.462683E-18
3.360000E+03	2.185861E-16	2.462485E-18
3.370000E+03	2.185987E-16	2.462628E-18
3.380000E+03	2.186423E-16	2.463119E-18
3.390000E+03	2.187175E-16	2.463966E-18
3.400000E+03	2.188252E-16	2.465179E-18
3.410000E+03	2.189339E-16	2.466404E-18
3.420000E+03	2.191106E-16	2.468395E-18
3.430000E+03	2.193238E-16	2.470796E-18
3.440000E+03	2.195756E-16	2.473633E-18
3.450000E+03	2.198681E-16	2.476928E-18
3.460000E+03	2.202349E-16	2.481060E-18
3.470000E+03	2.206169E-16	2.485364E-18
3.480000E+03	2.211100E-16	2.490919E-18
3.490000E+03	2.216565E-16	2.497075E-18
3.500000E+03	2.222613E-16	2.503888E-18
3.510000E+03	2.229891E-16	2.512088E-18
3.520000E+03	2.237857E-16	2.521061E-18
3.530000E+03	2.246867E-16	2.531212E-18
3.540000E+03	2.256980E-16	2.542605E-18
3.550000E+03	2.268266E-16	2.555319E-18
3.560000E+03	2.280792E-16	2.569430E-18
3.570000E+03	2.294636E-16	2.585027E-18
3.580000E+03	2.310155E-16	2.602509E-18
3.590000E+03	2.327151E-16	2.621656E-18
3.600000E+03	2.345990E-16	2.642880E-18
3.610000E+03	2.366490E-16	2.665974E-18
3.620000E+03	2.389024E-16	2.691359E-18
3.630000E+03	2.413695E-16	2.719152E-18
3.640000E+03	2.440614E-16	2.749478E-18
3.650000E+03	2.469899E-16	2.782469E-18
3.660000E+03	2.501411E-16	2.817969E-18
3.670000E+03	2.536084E-16	2.857030E-18
3.672441E+03	2.301158E-16	2.592373E-18
3.677957E+03	2.435212E-16	2.743392E-18
3.683472E+03	2.555711E-16	2.879141E-18
3.688988E+03	2.648646E-16	2.983837E-18
3.694504E+03	2.733770E-16	3.079734E-18
3.700019E+03	2.818308E-16	3.174970E-18
3.705535E+03	2.868203E-16	3.231179E-18
3.711050E+03	2.922667E-16	3.292536E-18
3.716566E+03	2.941600E-16	3.313865E-18
3.722082E+03	2.975129E-16	3.351636E-18
3.727597E+03	2.970470E-16	3.346388E-18
3.733113E+03	2.946052E-16	3.318880E-18
3.738628E+03	2.923252E-16	3.293195E-18
3.744144E+03	2.905021E-16	3.272656E-18
3.749660E+03	2.867176E-16	3.230022E-18
3.755175E+03	2.817531E-16	3.174095E-18
3.760691E+03	2.769358E-16	3.119825E-18
3.766206E+03	2.648631E-16	2.983820E-18
3.771722E+03	2.504749E-16	2.821729E-18
3.777238E+03	2.387109E-16	2.689201E-18
3.782753E+03	2.305149E-16	2.596869E-18
3.788269E+03	2.247223E-16	2.531613E-18
3.793784E+03	2.206400E-16	2.485624E-18
3.799300E+03	2.132099E-16	2.401920E-18
3.804815E+03	2.111179E-16	2.378353E-18
3.810331E+03	2.014752E-16	2.269722E-18
3.815847E+03	1.923040E-16	2.166404E-18
3.821362E+03	1.883237E-16	2.121564E-18
3.826878E+03	1.885314E-16	2.123904E-18
3.832393E+03	1.853322E-16	2.087863E-18
3.837909E+03	1.888136E-16	2.127082E-18
3.843425E+03	1.930470E-16	2.174774E-18
3.848940E+03	1.994629E-16	2.247052E-18
3.854456E+03	2.093001E-16	2.357874E-18
3.859971E+03	2.149193E-16	2.421177E-18
3.865487E+03	2.212020E-16	2.491955E-18
3.871003E+03	2.310388E-16	2.602772E-18
3.876518E+03	2.412440E-16	2.717738E-18
3.882034E+03	2.478358E-16	2.791998E-18
3.887549E+03	2.584977E-16	2.912111E-18
3.893065E+03	2.669914E-16	3.007796E-18
3.898581E+03	2.789948E-16	3.143020E-18
3.904096E+03	2.926199E-16	3.296515E-18
3.909612E+03	3.053008E-16	3.439371E-18
3.915127E+03	3.233935E-16	3.643195E-18
3.920643E+03	3.411464E-16	3.843191E-18
3.926159E+03	3.617891E-16	4.075741E-18
3.931674E+03	3.895244E-16	4.388193E-18
3.937190E+03	4.204144E-16	4.736186E-18
3.942705E+03	4.595466E-16	5.177030E-18
3.948221E+03	5.034995E-16	5.672182E-18
3.953736E+03	5.557675E-16	6.261009E-18
3.959252E+03	6.095817E-16	6.867253E-18
3.964768E+03	6.681566E-16	7.527129E-18
3.970283E+03	7.229539E-16	8.144450E-18
3.975799E+03	7.776895E-16	8.761075E-18
3.981314E+03	8.288542E-16	9.337471E-18
3.986830E+03	8.753566E-16	9.861344E-18
3.992346E+03	9.155898E-16	1.031459E-17
3.997861E+03	9.497900E-16	1.069988E-17
4.003377E+03	9.762473E-16	1.099793E-17
4.008892E+03	9.940479E-16	1.119846E-17
4.014408E+03	1.001807E-15	1.128587E-17
4.019924E+03	1.001588E-15	1.128341E-17
4.025439E+03	9.931723E-16	1.118860E-17
4.030955E+03	9.745249E-16	1.097853E-17
4.036470E+03	9.537400E-16	1.074437E-17
4.041986E+03	9.250395E-16	1.042105E-17
4.047501E+03	8.949837E-16	1.008245E-17
4.053017E+03	8.656216E-16	9.751675E-18
4.058533E+03	8.402990E-16	9.466402E-18
4.064048E+03	8.197672E-16	9.235102E-18
4.069564E+03	8.043944E-16	9.061919E-18
4.075079E+03	7.956980E-16	8.963949E-18
4.080595E+03	7.930286E-16	8.933877E-18
4.086111E+03	7.977709E-16	8.987302E-18
4.091626E+03	8.081703E-16	9.104457E-18
4.097142E+03	8.227380E-16	9.268569E-18
4.102658E+03	8.412227E-16	9.476809E-18
4.108173E+03	8.676610E-16	9.774649E-18
4.113689E+03	8.987807E-16	1.012523E-17
4.119204E+03	9.306625E-16	1.048439E-17
4.124720E+03	9.632912E-16	1.085197E-17
4.130235E+03	9.924095E-16	1.118001E-17
4.135751E+03	1.018813E-15	1.147745E-17
4.141267E+03	1.038142E-15	1.169520E-17
4.146782E+03	1.046142E-15	1.178533E-17
4.152298E+03	1.046951E-15	1.179445E-17
4.157813E+03	1.037437E-15	1.168727E-17
4.163329E+03	1.016067E-15	1.144652E-17
4.168845E+03	9.881604E-16	1.113214E-17
4.174360E+03	9.542629E-16	1.075026E-17
4.179876E+03	9.125651E-16	1.028052E-17
4.185391E+03	8.705768E-16	9.807497E-18
4.190907E+03	8.281069E-16	9.329052E-18
4.196423E+03	7.903520E-16	8.903723E-18
4.201938E+03	7.513647E-16	8.464511E-18
4.207454E+03	7.142951E-16	8.046903E-18
4.212969E+03	6.825574E-16	7.689361E-18
4.218485E+03	6.530453E-16	7.356893E-18
4.224001E+03	6.252290E-16	7.043528E-18
4.229516E+03	6.063179E-16	6.830484E-18
4.235032E+03	5.907926E-16	6.655584E-18
4.240547E+03	5.784318E-16	6.516334E-18
4.246063E+03	5.692349E-16	6.412726E-18
4.251578E+03	5.626128E-16	6.338123E-18
4.257094E+03	5.545936E-16	6.247784E-18
4.262610E+03	5.484279E-16	6.178324E-18
4.268125E+03	5.416152E-16	6.101576E-18
4.273641E+03	5.357146E-16	6.035102E-18
4.279157E+03	5.327989E-16	6.002255E-18
4.284672E+03	5.310295E-16	5.982322E-18
4.290188E+03	5.298034E-16	5.968509E-18
4.295703E+03	5.336182E-16	6.011485E-18
4.301219E+03	5.410177E-16	6.094843E-18
4.306734E+03	5.502074E-16	6.198371E-18
4.312250E+03	5.616721E-16	6.327526E-18
4.317766E+03	5.736329E-16	6.462271E-18
4.323281E+03	5.891161E-16	6.636698E-18
4.328797E+03	6.066368E-16	6.834077E-18
4.334312E+03	6.223314E-16	7.010885E-18
4.339828E+03	6.422952E-16	7.235787E-18
4.345344E+03	6.638099E-16	7.478162E-18
4.350859E+03	6.942900E-16	7.821536E-18
4.356375E+03	7.178468E-16	8.086915E-18
4.361890E+03	7.438042E-16	8.379339E-18
4.367406E+03	7.834046E-16	8.825458E-18
4.372922E+03	8.167271E-16	9.200853E-18
4.378437E+03	8.511846E-16	9.589035E-18
4.383953E+03	8.807313E-16	9.921893E-18
4.389468E+03	9.045766E-16	1.019052E-17
4.394984E+03	9.233533E-16	1.040205E-17
4.400499E+03	9.332205E-16	1.051321E-17
4.406015E+03	9.368946E-16	1.055460E-17
4.411531E+03	9.326918E-16	1.050726E-17
4.417046E+03	9.216564E-16	1.038294E-17
4.422562E+03	9.066055E-16	1.021338E-17
4.428078E+03	8.850788E-16	9.970870E-18
4.433593E+03	8.631752E-16	9.724114E-18
4.439109E+03	8.408952E-16	9.473119E-18
4.444624E+03	8.169789E-16	9.203690E-18
4.450140E+03	7.959392E-16	8.966667E-18
4.455655E+03	7.802352E-16	8.789753E-18
4.461171E+03	7.695717E-16	8.669622E-18
4.466687E+03	7.678703E-16	8.650456E-18
4.472202E+03	7.766055E-16	8.748862E-18
4.477718E+03	7.912934E-16	8.914329E-18
4.483233E+03	8.174773E-16	9.209304E-18
4.488749E+03	8.523860E-16	9.602569E-18
4.494265E+03	8.950350E-16	1.008303E-17
4.499780E+03	9.430941E-16	1.062444E-17
4.505296E+03	1.004530E-15	1.131655E-17
4.510811E+03	1.072903E-15	1.208681E-17
4.516327E+03	1.147683E-15	1.292924E-17
4.521842E+03	1.222695E-15	1.377430E-17
4.527358E+03	1.302194E-15	1.466989E-17
4.532874E+03	1.381280E-15	1.556084E-17
4.538389E+03	1.460349E-15	1.645159E-17
4.543905E+03	1.540348E-15	1.735282E-17
4.549421E+03	1.619642E-15	1.824610E-17
4.554936E+03	1.693207E-15	1.907485E-17
4.560452E+03	1.768491E-15	1.992296E-17
4.565967E+03	1.839070E-15	2.071807E-17
4.571483E+03	1.907281E-15	2.148651E-17
4.576998E+03	1.971229E-15	2.220691E-17
4.582514E+03	2.033104E-15	2.290396E-17
4.588030E+03	2.090865E-15	2.355467E-17
4.593545E+03	2.147866E-15	2.419682E-17
4.599061E+03	2.194925E-15	2.472697E-17
4.604576E+03	2.250703E-15	2.535533E-17
4.610092E+03	2.309216E-15	2.601452E-17
4.615608E+03	2.357793E-15	2.656176E-17
4.621123E+03	2.403719E-15	2.707914E-17
4.626639E+03	2.440882E-15	2.749780E-17
4.632154E+03	2.471907E-15	2.784731E-17
4.637670E+03	2.493740E-15	2.809327E-17
4.643186E+03	2.505517E-15	2.822594E-17
4.648701E+03	2.511170E-15	2.828962E-17
4.654217E+03	2.509832E-15	2.827455E-17
4.659732E+03	2.500635E-15	2.817095E-17
4.665248E+03	2.486348E-15	2.800999E-17
4.670764E+03	2.461015E-15	2.772461E-17
4.676279E+03	2.431620E-15	2.739345E-17
4.681795E+03	2.392645E-15	2.695438E-17
4.687310E+03	2.345985E-15	2.642874E-17
4.692826E+03	2.290924E-15	2.580844E-17
4.698342E+03	2.229788E-15	2.511971E-17
4.703857E+03	2.163019E-15	2.436752E-17
4.709373E+03	2.088011E-15	2.352252E-17
4.714888E+03	2.008687E-15	2.262889E-17
4.720404E+03	1.927370E-15	2.171282E-17
4.725919E+03	1.841456E-15	2.074495E-17
4.731435E+03	1.753990E-15	1.975960E-17
4.736951E+03	1.668308E-15	1.879435E-17
4.742466E+03	1.585855E-15	1.786547E-17
4.747982E+03	1.512709E-15	1.704144E-17
4.753498E+03	1.442699E-15	1.625275E-17
4.759013E+03	1.377920E-15	1.552299E-17
4.764529E+03	1.317327E-15	1.484037E-17
4.770044E+03	1.263734E-15	1.423662E-17
4.775560E+03	1.212947E-15	1.366447E-17
4.781075E+03	1.167893E-15	1.315692E-17
4.786591E+03	1.134044E-15	1.277559E-17
4.792107E+03	1.109440E-15	1.249841E-17
4.797622E+03	1.093348E-15	1.231713E-17
4.803138E+03	1.101893E-15	1.241339E-17
4.808653E+03	1.127852E-15	1.270583E-17
4.814169E+03	1.179482E-15	1.328748E-17
4.819685E+03	1.251915E-15	1.410347E-17
4.825200E+03	1.348094E-15	1.518697E-17
4.830716E+03	1.469605E-15	1.655586E-17
4.836231E+03	1.603837E-15	1.806805E-17
4.841747E+03	1.753218E-15	1.975091E-17
4.847262E+03	1.911545E-15	2.153455E-17
4.852778E+03	2.072764E-15	2.335076E-17
4.858294E+03	2.231838E-15	2.514281E-17
4.863809E+03	2.380003E-15	2.681196E-17
4.869325E+03	2.512239E-15	2.830167E-17
4.874841E+03	2.629858E-15	2.962671E-17
4.880356E+03	2.719239E-15	3.063364E-17
4.885872E+03	2.789026E-15	3.141981E-17
4.891387E+03	2.838090E-15	3.197255E-17
4.896903E+03	2.866891E-15	3.229700E-17
4.902418E+03	2.878604E-15	3.242896E-17
4.907934E+03	2.877405E-15	3.241546E-17
4.913450E+03	2.866318E-15	3.229056E-17
4.918965E+03	2.850652E-15	3.211406E-17
4.924481E+03	2.826834E-15	3.184575E-17
4.929996E+03	2.799596E-15	3.153890E-17
4.935512E+03	2.772946E-15	3.123867E-17
4.941028E+03	2.747453E-15	3.095148E-17
4.946543E+03	2.725546E-15	3.070468E-17
4.952059E+03	2.707506E-15	3.050145E-17
4.957574E+03	2.697465E-15	3.038834E-17
4.963090E+03	2.693560E-15	3.034435E-17
4.968606E+03	2.692219E-15	3.032924E-17
4.974121E+03	2.698426E-15	3.039916E-17
4.979637E+03	2.709180E-15	3.052031E-17
4.985152E+03	2.722481E-15	3.067015E-17
4.990668E+03	2.738612E-15	3.085187E-17
4.996184E+03	2.753015E-15	3.101414E-17
5.001699E+03	2.761857E-15	3.111375E-17
5.007215E+03	2.761023E-15	3.110435E-17
5.012730E+03	2.746833E-15	3.094449E-17
5.018246E+03	2.715188E-15	3.058799E-17
5.023761E+03	2.665260E-15	3.002553E-17
5.029277E+03	2.594099E-15	2.922386E-17
5.034793E+03	2.503574E-15	2.820405E-17
5.040308E+03	2.395557E-15	2.698719E-17
5.045824E+03	2.280840E-15	2.569484E-17
5.051340E+03	2.157448E-15	2.430476E-17
5.056855E+03	2.033603E-15	2.290959E-17
5.062371E+03	1.912559E-15	2.154596E-17
5.067886E+03	1.796718E-15	2.024096E-17
5.073402E+03	1.691442E-15	1.905496E-17
5.078917E+03	1.592620E-15	1.794168E-17
5.084433E+03	1.511540E-15	1.702828E-17
5.089949E+03	1.441543E-15	1.623973E-17
5.095464E+03	1.386128E-15	1.561544E-17
5.100980E+03	1.346416E-15	1.516807E-17
5.106495E+03	1.322498E-15	1.489862E-17
5.112011E+03	1.310844E-15	1.476733E-17
5.117527E+03	1.311115E-15	1.477039E-17
5.123042E+03	1.319184E-15	1.486129E-17
5.128558E+03	1.340723E-15	1.510394E-17
5.134073E+03	1.363469E-15	1.536018E-17
5.139589E+03	1.393559E-15	1.569916E-17
5.145105E+03	1.430171E-15	1.611161E-17
5.150620E+03	1.468704E-15	1.654571E-17
5.156136E+03	1.512958E-15	1.704426E-17
5.161651E+03	1.557317E-15	1.754398E-17
5.167167E+03	1.600095E-15	1.802590E-17
5.172682E+03	1.640176E-15	1.847743E-17
5.178198E+03	1.676300E-15	1.888439E-17
5.183714E+03	1.709035E-15	1.925316E-17
5.189229E+03	1.739506E-15	1.959643E-17
5.194745E+03	1.767015E-15	1.990634E-17
5.200261E+03	1.790868E-15	2.017506E-17
5.205776E+03	1.814147E-15	2.043730E-17
5.211292E+03	1.836851E-15	2.069307E-17
5.216807E+03	1.857446E-15	2.092509E-17
5.222323E+03	1.876073E-15	2.113494E-17
5.227838E+03	1.894412E-15	2.134153E-17
5.233354E+03	1.910371E-15	2.152131E-17
5.238870E+03	1.925904E-15	2.169630E-17
5.244385E+03	1.937945E-15	2.183195E-17
5.249901E+03	1.950681E-15	2.197543E-17
5.255416E+03	1.965363E-15	2.214083E-17
5.260932E+03	1.977814E-15	2.228110E-17
5.266448E+03	1.990541E-15	2.242447E-17
5.271963E+03	2.002570E-15	2.255999E-17
5.277479E+03	2.013904E-15	2.268767E-17
5.282994E+03	2.025515E-15	2.281847E-17
5.288510E+03	2.038516E-15	2.296494E-17
5.294026E+03	2.050961E-15	2.310514E-17
5.299541E+03	2.068546E-15	2.330323E-17
5.305057E+03	2.086820E-15	2.350911E-17
5.310572E+03	2.109116E-15	2.376029E-17
5.316088E+03	2.135708E-15	2.405985E-17
5.321604E+03	2.163679E-15	2.437496E-17
5.327119E+03	2.193722E-15	2.471342E-17
5.332635E+03	2.224727E-15	2.506270E-17
5.338150E+03	2.258632E-15	2.544466E-17
5.343666E+03	2.292252E-15	2.582340E-17
5.349181E+03	2.326694E-15	2.621141E-17
5.354697E+03	2.358638E-15	2.657128E-17
5.360213E+03	2.389331E-15	2.691705E-17
5.365728E+03	2.417116E-15	2.723006E-17
5.371244E+03	2.439644E-15	2.748386E-17
5.376760E+03	2.454988E-15	2.765671E-17
5.382275E+03	2.465365E-15	2.777361E-17
5.387791E+03	2.471607E-15	2.784393E-17
5.393306E+03	2.470680E-15	2.783349E-17
5.398822E+03	2.469357E-15	2.781858E-17
5.404337E+03	2.466809E-15	2.778988E-17
5.409853E+03	2.465937E-15	2.778005E-17
5.415369E+03	2.463428E-15	2.775179E-17
5.420884E+03	2.461766E-15	2.773307E-17
5.426400E+03	2.465504E-15	2.777518E-17
5.431915E+03	2.473948E-15	2.787030E-17
5.437431E+03	2.486129E-15	2.800753E-17
5.442947E+03	2.505082E-15	2.822104E-17
5.448462E+03	2.531351E-15	2.851698E-17
5.453978E+03	2.564109E-15	2.888601E-17
5.459493E+03	2.602250E-15	2.931569E-17
5.465009E+03	2.643293E-15	2.977806E-17
5.470525E+03	2.688477E-15	3.028709E-17
5.476040E+03	2.735185E-15	3.081327E-17
5.481556E+03	2.782177E-15	3.134266E-17
5.487071E+03	2.823260E-15	3.180548E-17
5.492587E+03	2.862840E-15	3.225137E-17
5.498102E+03	2.898443E-15	3.265246E-17
5.503618E+03	2.925529E-15	3.295759E-17
5.509134E+03	2.941210E-15	3.313426E-17
5.514649E+03	2.949206E-15	3.322433E-17
5.520165E+03	2.944704E-15	3.317361E-17
5.525681E+03	2.924265E-15	3.294335E-17
5.531196E+03	2.887342E-15	3.252740E-17
5.536712E+03	2.836691E-15	3.195679E-17
5.542227E+03	2.779601E-15	3.131364E-17
5.547743E+03	2.712909E-15	3.056232E-17
5.553258E+03	2.644315E-15	2.978958E-17
5.558774E+03	2.573408E-15	2.899077E-17
5.564290E+03	2.502661E-15	2.819377E-17
5.569805E+03	2.438124E-15	2.746673E-17
5.575321E+03	2.384333E-15	2.686074E-17
5.580836E+03	2.341562E-15	2.637891E-17
5.586352E+03	2.309812E-15	2.602122E-17
5.591868E+03	2.293481E-15	2.583724E-17
5.597383E+03	2.292844E-15	2.583007E-17
5.602899E+03	2.306117E-15	2.597960E-17
5.608414E+03	2.330960E-15	2.625947E-17
5.613930E+03	2.368753E-15	2.668522E-17
5.619446E+03	2.416606E-15	2.722431E-17
5.624961E+03	2.466407E-15	2.778535E-17
5.630477E+03	2.519945E-15	2.838849E-17
5.635992E+03	2.571581E-15	2.897019E-17
5.641508E+03	2.622692E-15	2.954598E-17
5.647024E+03	2.671900E-15	3.010033E-17
5.652539E+03	2.716042E-15	3.059761E-17
5.658055E+03	2.752089E-15	3.100371E-17
5.663570E+03	2.781966E-15	3.134028E-17
5.669086E+03	2.804571E-15	3.159494E-17
5.674601E+03	2.816596E-15	3.173041E-17
5.680117E+03	2.816800E-15	3.173270E-17
5.685633E+03	2.805589E-15	3.160641E-17
5.691148E+03	2.777865E-15	3.129409E-17
5.696664E+03	2.740783E-15	3.087633E-17
5.702180E+03	2.692684E-15	3.033448E-17
5.707695E+03	2.633287E-15	2.966534E-17
5.713211E+03	2.567963E-15	2.892942E-17
5.718726E+03	2.496014E-15	2.811889E-17
5.724242E+03	2.416337E-15	2.722128E-17
5.729757E+03	2.330027E-15	2.624896E-17
5.735273E+03	2.241769E-15	2.525468E-17
5.740789E+03	2.154043E-15	2.426640E-17
5.746304E+03	2.063398E-15	2.324524E-17
5.751820E+03	1.970660E-15	2.220050E-17
5.757335E+03	1.884244E-15	2.122698E-17
5.762851E+03	1.799044E-15	2.026716E-17
5.768367E+03	1.717272E-15	1.934596E-17
5.773882E+03	1.645693E-15	1.853958E-17
5.779398E+03	1.587904E-15	1.788855E-17
5.784913E+03	1.545434E-15	1.741011E-17
5.790429E+03	1.513180E-15	1.704675E-17
5.795944E+03	1.494327E-15	1.683436E-17
5.801460E+03	1.489299E-15	1.677772E-17
5.806976E+03	1.497692E-15	1.687227E-17
5.812491E+03	1.523388E-15	1.716175E-17
5.818007E+03	1.562527E-15	1.760268E-17
5.823523E+03	1.613183E-15	1.817334E-17
5.829038E+03	1.675502E-15	1.887540E-17
5.834554E+03	1.749358E-15	1.970742E-17
5.840069E+03	1.831021E-15	2.062740E-17
5.845585E+03	1.917032E-15	2.159636E-17
5.851100E+03	2.005874E-15	2.259721E-17
5.856616E+03	2.097410E-15	2.362841E-17
5.862132E+03	2.188039E-15	2.464939E-17
5.867647E+03	2.274153E-15	2.561951E-17
5.873163E+03	2.357278E-15	2.655595E-17
5.878678E+03	2.432967E-15	2.740863E-17
5.884194E+03	2.501215E-15	2.817748E-17
5.889710E+03	2.561739E-15	2.885931E-17
5.895225E+03	2.612725E-15	2.943370E-17
5.900741E+03	2.655832E-15	2.991932E-17
5.906256E+03	2.692166E-15	3.032864E-17
5.911772E+03	2.722833E-15	3.067412E-17
5.917288E+03	2.743234E-15	3.090395E-17
5.922803E+03	2.755450E-15	3.104157E-17
