#wls	flux	fluxerr
1.600000E+03	2.726320E-17	2.084259E-18
1.640000E+03	2.835591E-17	2.156945E-18
1.680000E+03	2.950794E-17	2.233039E-18
1.720000E+03	3.073993E-17	2.313993E-18
1.760000E+03	3.202937E-17	2.397991E-18
1.800000E+03	3.340631E-17	2.487161E-18
1.840000E+03	3.485622E-17	2.580280E-18
1.880000E+03	3.639156E-17	2.678128E-18
1.920000E+03	3.801555E-17	2.780784E-18
1.960000E+03	3.972085E-17	2.887546E-18
2.000000E+03	4.153008E-17	2.999887E-18
2.040000E+03	4.342442E-17	3.116257E-18
2.080000E+03	4.542665E-17	3.238101E-18
2.120000E+03	4.752753E-17	3.364545E-18
2.160000E+03	4.972834E-17	3.495470E-18
2.200000E+03	5.203006E-17	3.630721E-18
2.240000E+03	5.444517E-17	3.770938E-18
2.280000E+03	5.697358E-17	3.915857E-18
2.320000E+03	5.960056E-17	4.064210E-18
2.360000E+03	6.232150E-17	4.215437E-18
2.400000E+03	6.515692E-17	4.370668E-18
2.440000E+03	6.808556E-17	4.528196E-18
2.480000E+03	7.109656E-17	4.687045E-18
2.520000E+03	7.417656E-17	4.846095E-18
2.560000E+03	7.732484E-17	5.005066E-18
2.600000E+03	8.052493E-17	5.162669E-18
2.640000E+03	8.374429E-17	5.316628E-18
2.680000E+03	8.699822E-17	5.467755E-18
2.720000E+03	9.027387E-17	5.615068E-18
2.760000E+03	9.354315E-17	5.756679E-18
2.800000E+03	9.682703E-17	5.893763E-18
2.840000E+03	1.000984E-16	6.024539E-18
2.880000E+03	1.033800E-16	6.150263E-18
2.920000E+03	1.066281E-16	6.268222E-18
2.960000E+03	1.098826E-16	6.380693E-18
3.000000E+03	1.131167E-16	6.485997E-18
3.010000E+03	1.139149E-16	6.510789E-18
3.020000E+03	1.147206E-16	6.535631E-18
3.030000E+03	1.155166E-16	6.559536E-18
3.040000E+03	1.163197E-16	6.583467E-18
3.050000E+03	1.171299E-16	6.607411E-18
3.060000E+03	1.179298E-16	6.630387E-18
3.070000E+03	1.187193E-16	6.652393E-18
3.080000E+03	1.195152E-16	6.674374E-18
3.090000E+03	1.203175E-16	6.696323E-18
3.100000E+03	1.211089E-16	6.717268E-18
3.110000E+03	1.219062E-16	6.738153E-18
3.120000E+03	1.226923E-16	6.758025E-18
3.130000E+03	1.234839E-16	6.777812E-18
3.140000E+03	1.242810E-16	6.797497E-18
3.150000E+03	1.250662E-16	6.816141E-18
3.160000E+03	1.258565E-16	6.834658E-18
3.170000E+03	1.266345E-16	6.852117E-18
3.180000E+03	1.274343E-16	6.870350E-18
3.190000E+03	1.282044E-16	6.886583E-18
3.200000E+03	1.289958E-16	6.903558E-18
3.210000E+03	1.297741E-16	6.919435E-18
3.220000E+03	1.305563E-16	6.935109E-18
3.230000E+03	1.313252E-16	6.949674E-18
3.240000E+03	1.321142E-16	6.964904E-18
3.250000E+03	1.328896E-16	6.979002E-18
3.260000E+03	1.336678E-16	6.992841E-18
3.270000E+03	1.344318E-16	7.005535E-18
3.280000E+03	1.351983E-16	7.017949E-18
3.290000E+03	1.359670E-16	7.030070E-18
3.300000E+03	1.367376E-16	7.041884E-18
3.310000E+03	1.375099E-16	7.053368E-18
3.320000E+03	1.382669E-16	7.063664E-18
3.330000E+03	1.390418E-16	7.074457E-18
3.340000E+03	1.398010E-16	7.084039E-18
3.350000E+03	1.405609E-16	7.093248E-18
3.360000E+03	1.413211E-16	7.102061E-18
3.370000E+03	1.420650E-16	7.109644E-18
3.380000E+03	1.428254E-16	7.117639E-18
3.390000E+03	1.435853E-16	7.125197E-18
3.400000E+03	1.443283E-16	7.131500E-18
3.410000E+03	1.450705E-16	7.137357E-18
3.420000E+03	1.458279E-16	7.143545E-18
3.430000E+03	1.465676E-16	7.148457E-18
3.440000E+03	1.473058E-16	7.152883E-18
3.450000E+03	1.480422E-16	7.156814E-18
3.460000E+03	1.487928E-16	7.161011E-18
3.470000E+03	1.495250E-16	7.163918E-18
3.480000E+03	1.502548E-16	7.166297E-18
3.490000E+03	1.509820E-16	7.168143E-18
3.500000E+03	1.517223E-16	7.170196E-18
3.510000E+03	1.524435E-16	7.170943E-18
3.520000E+03	1.531774E-16	7.171873E-18
3.530000E+03	1.538922E-16	7.171497E-18
3.540000E+03	1.546190E-16	7.171276E-18
3.550000E+03	1.553419E-16	7.170464E-18
3.560000E+03	1.560608E-16	7.169056E-18
3.570000E+03	1.567757E-16	7.167052E-18
3.580000E+03	1.574862E-16	7.164446E-18
3.590000E+03	1.581923E-16	7.161231E-18
3.600000E+03	1.589091E-16	7.158087E-18
3.610000E+03	1.596210E-16	7.154319E-18
3.620000E+03	1.603279E-16	7.149918E-18
3.630000E+03	1.610297E-16	7.144885E-18
3.640000E+03	1.617261E-16	7.139209E-18
3.650000E+03	1.624320E-16	7.133549E-18
3.660000E+03	1.631322E-16	7.127229E-18
3.670000E+03	1.638264E-16	7.120251E-18
3.680000E+03	1.645292E-16	7.113239E-18
3.690000E+03	1.652257E-16	7.105550E-18
3.700000E+03	1.659156E-16	7.097179E-18
3.710000E+03	1.665987E-16	7.088123E-18
3.720000E+03	1.672892E-16	7.078983E-18
3.730000E+03	1.679868E-16	7.069746E-18
3.740000E+03	1.686625E-16	7.059189E-18
3.750000E+03	1.693446E-16	7.048511E-18
3.760000E+03	1.700187E-16	7.037111E-18
3.770000E+03	1.706984E-16	7.025554E-18
3.780000E+03	1.713695E-16	7.013258E-18
3.790000E+03	1.720454E-16	7.000773E-18
3.800000E+03	1.727122E-16	6.987531E-18
3.810000E+03	1.733692E-16	6.973522E-18
3.820000E+03	1.740300E-16	6.959290E-18
3.830000E+03	1.746942E-16	6.944819E-18
3.840000E+03	1.753475E-16	6.929548E-18
3.850000E+03	1.759900E-16	6.913484E-18
3.860000E+03	1.766344E-16	6.897137E-18
3.870000E+03	1.772672E-16	6.879983E-18
3.880000E+03	1.779011E-16	6.862519E-18
3.890000E+03	1.785226E-16	6.844233E-18
3.900000E+03	1.791442E-16	6.825613E-18
3.910000E+03	1.797657E-16	6.806649E-18
3.920000E+03	1.803734E-16	6.786834E-18
3.930000E+03	1.809671E-16	6.766169E-18
3.940000E+03	1.815592E-16	6.745136E-18
3.950000E+03	1.821492E-16	6.723709E-18
3.960000E+03	1.827239E-16	6.701418E-18
3.970000E+03	1.832955E-16	6.678718E-18
3.980000E+03	1.838511E-16	6.655153E-18
3.990000E+03	1.844026E-16	6.631162E-18
4.000000E+03	1.849496E-16	6.606738E-18
4.010000E+03	1.854794E-16	6.581436E-18
4.020000E+03	1.859917E-16	6.555268E-18
4.030000E+03	1.865099E-16	6.529071E-18
4.040000E+03	1.869979E-16	6.501585E-18
4.050000E+03	1.874909E-16	6.474054E-18
4.060000E+03	1.879647E-16	6.445656E-18
4.070000E+03	1.884191E-16	6.416395E-18
4.080000E+03	1.888768E-16	6.387065E-18
4.090000E+03	1.893028E-16	6.356492E-18
4.100000E+03	1.897311E-16	6.325836E-18
4.110000E+03	1.901271E-16	6.293965E-18
4.120000E+03	1.905246E-16	6.262010E-18
4.130000E+03	1.909004E-16	6.229227E-18
4.140000E+03	1.912653E-16	6.195987E-18
4.150000E+03	1.916081E-16	6.161943E-18
4.160000E+03	1.919285E-16	6.127111E-18
4.170000E+03	1.922477E-16	6.092188E-18
4.180000E+03	1.925438E-16	6.056494E-18
4.190000E+03	1.928166E-16	6.020043E-18
4.200000E+03	1.930764E-16	5.983186E-18
4.210000E+03	1.933124E-16	5.945608E-18
4.220000E+03	1.935347E-16	5.907640E-18
4.230000E+03	1.937328E-16	5.868985E-18
4.240000E+03	1.939166E-16	5.829972E-18
4.250000E+03	1.940758E-16	5.790305E-18
4.260000E+03	1.942201E-16	5.750307E-18
4.270000E+03	1.943395E-16	5.709699E-18
4.280000E+03	1.944437E-16	5.668794E-18
4.290000E+03	1.945226E-16	5.627323E-18
4.300000E+03	1.945762E-16	5.585316E-18
4.310000E+03	1.946141E-16	5.543072E-18
4.320000E+03	1.946268E-16	5.500344E-18
4.330000E+03	1.946234E-16	5.457423E-18
4.340000E+03	1.945856E-16	5.413816E-18
4.350000E+03	1.945413E-16	5.370331E-18
4.360000E+03	1.944632E-16	5.326236E-18
4.370000E+03	1.943607E-16	5.281825E-18
4.380000E+03	1.942433E-16	5.237383E-18
4.390000E+03	1.941029E-16	5.192713E-18
4.400000E+03	1.939489E-16	5.148096E-18
4.410000E+03	1.937650E-16	5.103121E-18
4.420000E+03	1.935698E-16	5.058309E-18
4.430000E+03	1.933477E-16	5.013270E-18
4.440000E+03	1.931168E-16	4.968506E-18
4.450000E+03	1.928707E-16	4.923864E-18
4.460000E+03	1.926105E-16	4.879401E-18
4.470000E+03	1.923383E-16	4.835187E-18
4.480000E+03	1.920557E-16	4.791282E-18
4.490000E+03	1.917643E-16	4.747749E-18
4.500000E+03	1.914659E-16	4.704645E-18
4.510000E+03	1.911546E-16	4.661848E-18
4.520000E+03	1.908473E-16	4.619789E-18
4.530000E+03	1.905308E-16	4.578157E-18
4.540000E+03	1.902217E-16	4.537373E-18
4.550000E+03	1.899068E-16	4.497129E-18
4.560000E+03	1.895878E-16	4.457487E-18
4.570000E+03	1.892813E-16	4.418848E-18
4.580000E+03	1.889742E-16	4.380919E-18
4.590000E+03	1.886756E-16	4.343920E-18
4.600000E+03	1.883799E-16	4.307735E-18
4.610000E+03	1.881030E-16	4.272736E-18
4.620000E+03	1.878251E-16	4.238488E-18
4.630000E+03	1.875622E-16	4.205359E-18
4.640000E+03	1.873155E-16	4.173385E-18
4.650000E+03	1.870797E-16	4.142458E-18
4.660000E+03	1.868631E-16	4.112767E-18
4.670000E+03	1.866604E-16	4.084205E-18
4.680000E+03	1.864728E-16	4.056805E-18
4.690000E+03	1.863082E-16	4.030748E-18
4.700000E+03	1.861613E-16	4.005923E-18
4.710000E+03	1.860331E-16	3.982360E-18
4.720000E+03	1.859246E-16	3.960089E-18
4.730000E+03	1.858434E-16	3.939273E-18
4.740000E+03	1.857776E-16	3.919672E-18
4.750000E+03	1.857409E-16	3.901568E-18
4.760000E+03	1.857277E-16	3.884823E-18
4.770000E+03	1.857391E-16	3.869433E-18
4.780000E+03	1.857759E-16	3.855387E-18
4.790000E+03	1.858388E-16	3.842671E-18
4.800000E+03	1.859284E-16	3.831276E-18
4.810000E+03	1.860455E-16	3.821186E-18
4.820000E+03	1.861906E-16	3.812388E-18
4.830000E+03	1.863643E-16	3.804867E-18
4.840000E+03	1.865613E-16	3.798489E-18
4.850000E+03	1.867881E-16	3.793360E-18
4.860000E+03	1.870452E-16	3.789464E-18
4.870000E+03	1.873330E-16	3.786784E-18
4.880000E+03	1.876463E-16	3.785191E-18
4.890000E+03	1.879915E-16	3.784787E-18
4.900000E+03	1.883690E-16	3.785558E-18
4.910000E+03	1.887792E-16	3.787486E-18
4.920000E+03	1.892116E-16	3.790336E-18
4.930000E+03	1.896835E-16	3.794432E-18
4.940000E+03	1.901841E-16	3.799536E-18
4.950000E+03	1.907142E-16	3.805639E-18
4.960000E+03	1.912796E-16	3.812838E-18
4.970000E+03	1.918811E-16	3.821123E-18
4.980000E+03	1.925082E-16	3.830265E-18
4.990000E+03	1.931722E-16	3.840471E-18
5.000000E+03	1.938741E-16	3.851735E-18
5.010000E+03	1.946087E-16	3.863937E-18
5.020000E+03	1.953766E-16	3.877069E-18
5.030000E+03	1.961786E-16	3.891128E-18
5.040000E+03	1.970206E-16	3.906211E-18
5.050000E+03	1.978980E-16	3.922207E-18
5.060000E+03	1.988112E-16	3.939110E-18
5.070000E+03	1.997610E-16	3.956916E-18
5.080000E+03	2.007535E-16	3.975727E-18
5.090000E+03	2.017786E-16	3.995330E-18
5.100000E+03	2.028477E-16	4.015933E-18
5.110000E+03	2.039561E-16	4.037427E-18
5.120000E+03	2.050994E-16	4.059710E-18
5.130000E+03	2.062889E-16	4.082989E-18
5.140000E+03	2.075201E-16	4.107164E-18
5.150000E+03	2.087938E-16	4.132232E-18
5.160000E+03	2.101107E-16	4.158198E-18
5.170000E+03	2.114719E-16	4.185066E-18
5.180000E+03	2.128781E-16	4.212841E-18
5.190000E+03	2.143249E-16	4.241419E-18
5.200000E+03	2.158238E-16	4.271020E-18
5.210000E+03	2.173705E-16	4.301546E-18
5.220000E+03	2.189607E-16	4.332897E-18
5.230000E+03	2.206060E-16	4.365297E-18
5.240000E+03	2.222967E-16	4.398539E-18
5.250000E+03	2.240392E-16	4.432745E-18
5.260000E+03	2.258347E-16	4.467924E-18
5.270000E+03	2.276789E-16	4.503983E-18
5.280000E+03	2.295838E-16	4.541151E-18
5.290000E+03	2.315396E-16	4.579227E-18
5.300000E+03	2.335531E-16	4.618336E-18
5.310000E+03	2.356255E-16	4.658495E-18
5.320000E+03	2.377525E-16	4.699613E-18
5.330000E+03	2.399410E-16	4.741818E-18
5.340000E+03	2.421924E-16	4.785133E-18
5.350000E+03	2.445080E-16	4.829579E-18
5.360000E+03	2.468836E-16	4.875067E-18
5.370000E+03	2.493262E-16	4.921730E-18
5.380000E+03	2.518316E-16	4.969485E-18
5.390000E+03	2.544070E-16	5.018467E-18
5.400000E+03	2.570539E-16	5.068707E-18
5.410000E+03	2.597679E-16	5.120114E-18
5.420000E+03	2.625564E-16	5.172834E-18
5.430000E+03	2.654209E-16	5.226897E-18
5.440000E+03	2.683571E-16	5.282219E-18
5.450000E+03	2.713662E-16	5.338826E-18
5.460000E+03	2.744561E-16	5.396873E-18
5.470000E+03	2.776281E-16	5.456391E-18
5.480000E+03	2.808777E-16	5.517297E-18
5.490000E+03	2.842127E-16	5.579749E-18
5.500000E+03	2.876284E-16	5.643660E-18
5.510000E+03	2.911264E-16	5.709072E-18
5.520000E+03	2.947147E-16	5.776152E-18
5.530000E+03	2.983953E-16	5.844945E-18
5.540000E+03	3.021632E-16	5.915371E-18
5.550000E+03	3.060204E-16	5.987477E-18
5.560000E+03	3.099750E-16	6.061441E-18
5.570000E+03	3.140221E-16	6.137181E-18
5.580000E+03	3.181634E-16	6.214751E-18
5.590000E+03	3.224074E-16	6.294335E-18
5.600000E+03	3.267489E-16	6.375854E-18
5.610000E+03	3.311896E-16	6.459366E-18
5.620000E+03	3.357380E-16	6.545062E-18
5.630000E+03	3.403887E-16	6.632867E-18
5.640000E+03	3.451434E-16	6.722840E-18
5.650000E+03	3.500107E-16	6.815182E-18
5.660000E+03	3.549843E-16	6.909804E-18
5.670000E+03	3.600650E-16	7.006730E-18
5.680000E+03	3.652529E-16	7.105976E-18
5.690000E+03	3.705488E-16	7.207565E-18
5.700000E+03	3.759607E-16	7.311666E-18
5.710000E+03	3.814812E-16	7.418147E-18
5.720000E+03	3.871105E-16	7.527029E-18
5.730000E+03	3.928487E-16	7.638327E-18
5.740000E+03	3.986956E-16	7.752058E-18
5.750000E+03	4.046514E-16	7.868239E-18
5.760000E+03	4.107237E-16	7.987045E-18
5.770000E+03	4.168959E-16	8.108172E-18
5.780000E+03	4.231841E-16	8.231956E-18
5.790000E+03	4.295794E-16	8.358253E-18
5.800000E+03	4.360721E-16	8.486900E-18
5.810000E+03	4.426787E-16	8.618250E-18
5.820000E+03	4.493894E-16	8.752144E-18
5.830000E+03	4.561936E-16	8.888412E-18
5.840000E+03	4.631081E-16	9.027416E-18
5.850000E+03	4.701219E-16	9.168985E-18
5.860000E+03	4.772237E-16	9.312939E-18
5.870000E+03	4.844300E-16	9.459647E-18
5.880000E+03	4.917193E-16	9.608737E-18
5.890000E+03	4.991081E-16	9.760584E-18
5.900000E+03	5.065740E-16	9.914803E-18
5.910000E+03	5.141232E-16	1.007157E-17
5.920000E+03	5.217521E-16	1.023089E-17
5.930000E+03	5.294568E-16	1.039273E-17
5.940000E+03	5.372331E-16	1.055709E-17
5.950000E+03	5.450761E-16	1.072393E-17
5.960000E+03	5.529809E-16	1.089325E-17
5.970000E+03	5.609311E-16	1.106478E-17
5.980000E+03	5.689315E-16	1.123872E-17
5.990000E+03	5.769759E-16	1.141501E-17
6.000000E+03	5.850575E-16	1.159362E-17
6.010000E+03	5.931693E-16	1.177449E-17
6.020000E+03	6.012917E-16	1.195732E-17
6.030000E+03	6.094282E-16	1.214230E-17
6.040000E+03	6.175701E-16	1.232933E-17
6.050000E+03	6.257081E-16	1.251833E-17
6.060000E+03	6.338326E-16	1.270923E-17
6.070000E+03	6.419210E-16	1.290166E-17
6.080000E+03	6.499746E-16	1.309577E-17
6.090000E+03	6.579819E-16	1.329143E-17
6.100000E+03	6.659311E-16	1.348851E-17
6.110000E+03	6.737968E-16	1.368660E-17
6.120000E+03	6.815917E-16	1.388608E-17
6.130000E+03	6.892763E-16	1.408625E-17
6.140000E+03	6.968364E-16	1.428691E-17
6.150000E+03	7.042843E-16	1.448844E-17
6.160000E+03	7.115790E-16	1.469009E-17
6.170000E+03	7.187197E-16	1.489193E-17
6.180000E+03	7.256931E-16	1.509380E-17
6.190000E+03	7.324871E-16	1.529553E-17
6.200000E+03	7.390772E-16	1.549670E-17
6.210000E+03	7.454829E-16	1.569779E-17
6.220000E+03	7.516691E-16	1.589814E-17
6.230000E+03	7.576446E-16	1.609802E-17
6.240000E+03	7.633900E-16	1.629707E-17
6.250000E+03	7.689302E-16	1.649588E-17
6.260000E+03	7.742326E-16	1.669381E-17
6.270000E+03	7.793234E-16	1.689148E-17
6.280000E+03	7.841710E-16	1.708821E-17
6.290000E+03	7.887888E-16	1.728419E-17
6.300000E+03	7.931752E-16	1.747932E-17
6.310000E+03	7.973141E-16	1.767312E-17
6.320000E+03	8.012343E-16	1.786613E-17
6.330000E+03	8.049196E-16	1.805786E-17
6.340000E+03	8.083538E-16	1.824784E-17
6.350000E+03	8.115665E-16	1.843658E-17
6.360000E+03	8.145262E-16	1.862324E-17
6.370000E+03	8.172629E-16	1.880836E-17
6.380000E+03	8.197606E-16	1.899142E-17
6.390000E+03	8.220032E-16	1.917188E-17
6.400000E+03	8.240214E-16	1.935030E-17
6.410000E+03	8.257993E-16	1.952615E-17
6.420000E+03	8.273210E-16	1.969886E-17
6.430000E+03	8.286178E-16	1.986901E-17
6.440000E+03	8.296742E-16	2.003605E-17
6.450000E+03	8.305064E-16	2.020018E-17
6.460000E+03	8.310828E-16	2.036046E-17
6.470000E+03	8.314361E-16	2.051750E-17
6.480000E+03	8.315509E-16	2.067072E-17
6.490000E+03	8.314283E-16	2.081996E-17
6.500000E+03	8.310693E-16	2.096506E-17
6.510000E+03	8.304912E-16	2.110624E-17
6.520000E+03	8.296796E-16	2.124296E-17
6.530000E+03	8.286362E-16	2.137505E-17
6.540000E+03	8.273788E-16	2.150279E-17
6.550000E+03	8.258936E-16	2.162562E-17
6.560000E+03	8.241831E-16	2.174340E-17
6.570000E+03	8.222656E-16	2.185643E-17
6.580000E+03	8.201279E-16	2.196416E-17
6.590000E+03	8.177888E-16	2.206691E-17
6.600000E+03	8.152359E-16	2.216415E-17
6.610000E+03	8.124882E-16	2.225621E-17
6.620000E+03	8.095334E-16	2.234257E-17
6.630000E+03	8.063913E-16	2.242359E-17
6.640000E+03	8.030654E-16	2.249919E-17
6.650000E+03	7.995446E-16	2.256890E-17
6.660000E+03	7.958487E-16	2.263309E-17
6.670000E+03	7.919821E-16	2.269172E-17
6.680000E+03	7.879342E-16	2.274432E-17
6.690000E+03	7.837251E-16	2.279131E-17
6.700000E+03	7.793598E-16	2.283268E-17
6.710000E+03	7.748282E-16	2.286799E-17
6.720000E+03	7.701506E-16	2.289768E-17
6.730000E+03	7.653476E-16	2.292222E-17
6.740000E+03	7.603942E-16	2.294073E-17
6.750000E+03	7.552964E-16	2.295326E-17
6.760000E+03	7.500895E-16	2.296074E-17
6.770000E+03	7.447640E-16	2.296278E-17
6.780000E+03	7.393112E-16	2.295898E-17
6.790000E+03	7.337659E-16	2.295031E-17
6.800000E+03	7.281195E-16	2.293639E-17
6.810000E+03	7.223632E-16	2.291686E-17
6.820000E+03	7.165315E-16	2.289270E-17
6.830000E+03	7.106018E-16	2.286310E-17
6.840000E+03	7.046080E-16	2.282907E-17
6.850000E+03	6.985417E-16	2.279026E-17
6.860000E+03	6.924087E-16	2.274677E-17
6.870000E+03	6.862142E-16	2.269873E-17
6.880000E+03	6.799642E-16	2.264625E-17
6.890000E+03	6.736774E-16	2.258990E-17
6.900000E+03	6.673322E-16	2.252891E-17
6.910000E+03	6.609608E-16	2.246430E-17
6.920000E+03	6.545547E-16	2.239575E-17
6.930000E+03	6.481191E-16	2.232340E-17
6.940000E+03	6.416721E-16	2.224783E-17
6.950000E+03	6.352051E-16	2.216872E-17
6.960000E+03	6.287231E-16	2.208621E-17
6.970000E+03	6.222429E-16	2.200088E-17
6.980000E+03	6.157439E-16	2.191198E-17
6.990000E+03	6.092680E-16	2.182098E-17
7.000000E+03	6.027816E-16	2.172668E-17
7.010000E+03	5.963135E-16	2.163010E-17
7.020000E+03	5.898550E-16	2.153092E-17
7.030000E+03	5.834221E-16	2.142974E-17
7.040000E+03	5.770060E-16	2.132623E-17
7.050000E+03	5.706218E-16	2.122096E-17
7.060000E+03	5.642611E-16	2.111363E-17
7.070000E+03	5.579382E-16	2.100478E-17
7.080000E+03	5.516445E-16	2.089412E-17
7.090000E+03	5.453827E-16	2.078176E-17
7.100000E+03	5.391670E-16	2.066825E-17
7.110000E+03	5.329992E-16	2.055371E-17
7.120000E+03	5.268708E-16	2.043781E-17
7.130000E+03	5.207839E-16	2.032068E-17
7.140000E+03	5.147621E-16	2.020326E-17
7.150000E+03	5.087748E-16	2.008440E-17
7.160000E+03	5.028562E-16	1.996545E-17
7.170000E+03	4.969862E-16	1.984567E-17
7.180000E+03	4.911665E-16	1.972517E-17
7.190000E+03	4.854091E-16	1.960445E-17
7.200000E+03	4.797151E-16	1.948360E-17
7.210000E+03	4.740752E-16	1.936230E-17
7.220000E+03	4.685009E-16	1.924104E-17
7.230000E+03	4.629930E-16	1.911990E-17
7.240000E+03	4.575424E-16	1.899855E-17
7.250000E+03	4.521599E-16	1.887749E-17
7.260000E+03	4.468460E-16	1.875677E-17
7.270000E+03	4.415917E-16	1.863608E-17
7.280000E+03	4.364074E-16	1.851588E-17
7.290000E+03	4.312933E-16	1.839625E-17
7.300000E+03	4.262406E-16	1.827685E-17
7.310000E+03	4.212591E-16	1.815814E-17
7.320000E+03	4.163489E-16	1.804018E-17
7.330000E+03	4.115103E-16	1.792304E-17
7.340000E+03	4.067346E-16	1.780638E-17
7.350000E+03	4.020310E-16	1.769065E-17
7.360000E+03	3.973908E-16	1.757552E-17
7.370000E+03	3.928318E-16	1.746183E-17
7.380000E+03	3.883366E-16	1.734884E-17
7.390000E+03	3.839138E-16	1.723700E-17
7.400000E+03	3.795549E-16	1.712596E-17
7.410000E+03	3.752767E-16	1.701653E-17
7.420000E+03	3.710624E-16	1.690799E-17
7.430000E+03	3.669204E-16	1.680077E-17
7.440000E+03	3.628423E-16	1.669454E-17
7.450000E+03	3.588447E-16	1.659009E-17
7.460000E+03	3.549110E-16	1.648672E-17
7.470000E+03	3.510493E-16	1.638485E-17
7.480000E+03	3.472593E-16	1.628451E-17
7.490000E+03	3.435331E-16	1.618537E-17
7.500000E+03	3.398856E-16	1.608818E-17
7.510000E+03	3.363005E-16	1.599223E-17
7.520000E+03	3.327842E-16	1.589786E-17
7.530000E+03	3.293353E-16	1.580504E-17
7.540000E+03	3.259439E-16	1.571336E-17
7.550000E+03	3.226234E-16	1.562348E-17
7.560000E+03	3.193564E-16	1.553462E-17
7.570000E+03	3.161483E-16	1.544707E-17
7.580000E+03	3.129969E-16	1.536078E-17
7.590000E+03	3.098933E-16	1.527533E-17
7.600000E+03	3.068497E-16	1.519136E-17
7.610000E+03	3.038499E-16	1.510812E-17
7.620000E+03	3.008996E-16	1.502590E-17
7.630000E+03	2.979969E-16	1.494467E-17
7.640000E+03	2.951404E-16	1.486436E-17
7.650000E+03	2.923286E-16	1.478495E-17
7.660000E+03	2.895531E-16	1.470603E-17
7.670000E+03	2.868196E-16	1.462792E-17
7.680000E+03	2.841267E-16	1.455059E-17
7.690000E+03	2.814733E-16	1.447399E-17
7.700000E+03	2.788582E-16	1.439810E-17
7.710000E+03	2.762803E-16	1.432288E-17
7.720000E+03	2.737319E-16	1.424796E-17
7.730000E+03	2.712254E-16	1.417402E-17
7.740000E+03	2.687465E-16	1.410032E-17
7.750000E+03	2.663012E-16	1.402720E-17
7.760000E+03	2.638882E-16	1.395463E-17
