#wls	flux	fluxerr
1.600000E+03	2.323158E-17	1.281791E-18
1.640000E+03	2.421479E-17	1.330268E-18
1.680000E+03	2.524266E-17	1.380580E-18
1.720000E+03	2.632491E-17	1.433204E-18
1.760000E+03	2.746357E-17	1.488188E-18
1.800000E+03	2.866936E-17	1.546045E-18
1.840000E+03	2.993590E-17	1.606356E-18
1.880000E+03	3.126489E-17	1.669137E-18
1.920000E+03	3.265780E-17	1.734390E-18
1.960000E+03	3.412574E-17	1.802617E-18
2.000000E+03	3.566039E-17	1.873288E-18
2.040000E+03	3.726238E-17	1.946344E-18
2.080000E+03	3.894268E-17	2.022259E-18
2.120000E+03	4.069080E-17	2.100387E-18
2.160000E+03	4.251718E-17	2.181158E-18
2.200000E+03	4.442107E-17	2.264421E-18
2.240000E+03	4.638903E-17	2.349377E-18
2.280000E+03	4.843027E-17	2.436380E-18
2.320000E+03	5.054180E-17	2.525159E-18
2.360000E+03	5.270679E-17	2.614758E-18
2.400000E+03	5.494627E-17	2.706104E-18
2.440000E+03	5.724197E-17	2.798169E-18
2.480000E+03	5.957351E-17	2.889848E-18
2.520000E+03	6.196137E-17	2.982030E-18
2.560000E+03	6.438405E-17	3.073566E-18
2.600000E+03	6.684811E-17	3.164665E-18
2.640000E+03	6.933061E-17	3.254139E-18
2.680000E+03	7.182288E-17	3.341501E-18
2.720000E+03	7.434774E-17	3.427730E-18
2.760000E+03	7.686643E-17	3.510949E-18
2.800000E+03	7.938690E-17	3.591464E-18
2.840000E+03	8.188556E-17	3.668150E-18
2.880000E+03	8.438791E-17	3.742105E-18
2.920000E+03	8.688785E-17	3.812993E-18
2.960000E+03	8.934595E-17	3.879042E-18
3.000000E+03	9.178992E-17	3.941440E-18
3.010000E+03	9.240447E-17	3.956711E-18
3.020000E+03	9.301353E-17	3.971553E-18
3.030000E+03	9.361703E-17	3.985964E-18
3.040000E+03	9.421487E-17	3.999940E-18
3.050000E+03	9.480700E-17	4.013481E-18
3.060000E+03	9.541029E-17	4.027300E-18
3.070000E+03	9.600782E-17	4.040680E-18
3.080000E+03	9.659940E-17	4.053614E-18
3.090000E+03	9.720213E-17	4.066819E-18
3.100000E+03	9.778180E-17	4.078862E-18
3.110000E+03	9.837242E-17	4.091168E-18
3.120000E+03	9.897411E-17	4.103733E-18
3.130000E+03	9.955252E-17	4.115136E-18
3.140000E+03	1.001419E-16	4.126793E-18
3.150000E+03	1.007250E-16	4.137994E-18
3.160000E+03	1.013018E-16	4.148738E-18
3.170000E+03	1.018724E-16	4.159029E-18
3.180000E+03	1.024540E-16	4.169568E-18
3.190000E+03	1.030291E-16	4.179647E-18
3.200000E+03	1.035980E-16	4.189273E-18
3.210000E+03	1.041778E-16	4.199137E-18
3.220000E+03	1.047511E-16	4.208541E-18
3.230000E+03	1.053182E-16	4.217492E-18
3.240000E+03	1.058790E-16	4.225991E-18
3.250000E+03	1.064506E-16	4.234722E-18
3.260000E+03	1.069988E-16	4.242320E-18
3.270000E+03	1.075751E-16	4.250830E-18
3.280000E+03	1.081280E-16	4.258213E-18
3.290000E+03	1.086920E-16	4.265830E-18
3.300000E+03	1.092497E-16	4.272999E-18
3.310000E+03	1.098013E-16	4.279727E-18
3.320000E+03	1.103641E-16	4.286685E-18
3.330000E+03	1.109209E-16	4.293207E-18
3.340000E+03	1.114716E-16	4.299292E-18
3.350000E+03	1.120166E-16	4.304952E-18
3.360000E+03	1.125728E-16	4.310840E-18
3.370000E+03	1.131233E-16	4.316305E-18
3.380000E+03	1.136852E-16	4.321999E-18
3.390000E+03	1.142245E-16	4.326627E-18
3.400000E+03	1.147753E-16	4.331489E-18
3.410000E+03	1.153377E-16	4.336581E-18
3.420000E+03	1.158777E-16	4.340624E-18
3.430000E+03	1.164294E-16	4.344899E-18
3.440000E+03	1.169760E-16	4.348776E-18
3.450000E+03	1.175343E-16	4.352883E-18
3.460000E+03	1.180874E-16	4.356586E-18
3.470000E+03	1.186354E-16	4.359895E-18
3.480000E+03	1.191953E-16	4.363431E-18
3.490000E+03	1.197330E-16	4.365948E-18
3.500000E+03	1.202993E-16	4.369297E-18
3.510000E+03	1.208435E-16	4.371631E-18
3.520000E+03	1.213990E-16	4.374168E-18
3.530000E+03	1.219490E-16	4.376298E-18
3.540000E+03	1.224933E-16	4.378013E-18
3.550000E+03	1.230487E-16	4.379914E-18
3.560000E+03	1.235981E-16	4.381389E-18
3.570000E+03	1.241581E-16	4.383032E-18
3.580000E+03	1.247119E-16	4.384243E-18
3.590000E+03	1.252592E-16	4.385013E-18
3.600000E+03	1.257999E-16	4.385347E-18
3.610000E+03	1.263506E-16	4.385817E-18
3.620000E+03	1.268943E-16	4.385837E-18
3.630000E+03	1.274475E-16	4.385976E-18
3.640000E+03	1.279935E-16	4.385653E-18
3.650000E+03	1.285321E-16	4.384872E-18
3.660000E+03	1.290796E-16	4.384185E-18
3.670000E+03	1.296193E-16	4.383027E-18
3.680000E+03	1.301513E-16	4.381401E-18
3.690000E+03	1.306751E-16	4.379299E-18
3.700000E+03	1.312071E-16	4.377268E-18
3.710000E+03	1.317471E-16	4.375298E-18
3.720000E+03	1.322623E-16	4.372304E-18
3.730000E+03	1.327851E-16	4.369362E-18
3.740000E+03	1.333152E-16	4.366463E-18
3.750000E+03	1.338364E-16	4.363069E-18
3.760000E+03	1.343484E-16	4.359180E-18
3.770000E+03	1.348510E-16	4.354797E-18
3.780000E+03	1.353605E-16	4.350442E-18
3.790000E+03	1.358603E-16	4.345585E-18
3.800000E+03	1.363665E-16	4.340743E-18
3.810000E+03	1.368468E-16	4.334893E-18
3.820000E+03	1.373491E-16	4.329556E-18
3.830000E+03	1.378252E-16	4.323212E-18
3.840000E+03	1.383070E-16	4.316869E-18
3.850000E+03	1.387785E-16	4.310025E-18
3.860000E+03	1.392552E-16	4.303173E-18
3.870000E+03	1.397212E-16	4.295816E-18
3.880000E+03	1.401765E-16	4.287966E-18
3.890000E+03	1.406366E-16	4.280092E-18
3.900000E+03	1.410857E-16	4.271724E-18
3.910000E+03	1.415392E-16	4.263331E-18
3.920000E+03	1.419659E-16	4.253975E-18
3.930000E+03	1.424123E-16	4.245056E-18
3.940000E+03	1.428317E-16	4.235185E-18
3.950000E+03	1.432550E-16	4.225283E-18
3.960000E+03	1.436666E-16	4.214897E-18
3.970000E+03	1.440817E-16	4.204476E-18
3.980000E+03	1.444850E-16	4.193577E-18
3.990000E+03	1.448763E-16	4.182201E-18
4.000000E+03	1.452706E-16	4.170789E-18
4.010000E+03	1.456530E-16	4.158911E-18
4.020000E+03	1.460230E-16	4.146567E-18
4.030000E+03	1.463808E-16	4.133767E-18
4.040000E+03	1.467412E-16	4.120938E-18
4.050000E+03	1.471040E-16	4.108075E-18
4.060000E+03	1.474395E-16	4.094351E-18
4.070000E+03	1.477772E-16	4.080601E-18
4.080000E+03	1.481171E-16	4.066823E-18
4.090000E+03	1.484295E-16	4.052213E-18
4.100000E+03	1.487439E-16	4.037583E-18
4.110000E+03	1.490601E-16	4.022933E-18
4.120000E+03	1.493489E-16	4.007483E-18
4.130000E+03	1.496395E-16	3.992024E-18
4.140000E+03	1.499315E-16	3.976552E-18
4.150000E+03	1.501965E-16	3.960317E-18
4.160000E+03	1.504627E-16	3.944081E-18
4.170000E+03	1.507303E-16	3.927846E-18
4.180000E+03	1.509710E-16	3.910885E-18
4.190000E+03	1.512129E-16	3.893938E-18
4.200000E+03	1.514421E-16	3.876652E-18
4.210000E+03	1.516725E-16	3.859390E-18
4.220000E+03	1.518901E-16	3.841805E-18
4.230000E+03	1.520949E-16	3.823907E-18
4.240000E+03	1.522874E-16	3.805714E-18
4.250000E+03	1.524810E-16	3.787575E-18
4.260000E+03	1.526622E-16	3.769159E-18
4.270000E+03	1.528311E-16	3.750478E-18
4.280000E+03	1.530015E-16	3.731877E-18
4.290000E+03	1.531463E-16	3.712709E-18
4.300000E+03	1.532927E-16	3.693642E-18
4.310000E+03	1.534406E-16	3.674679E-18
4.320000E+03	1.535637E-16	3.655201E-18
4.330000E+03	1.536887E-16	3.635851E-18
4.340000E+03	1.538025E-16	3.616333E-18
4.350000E+03	1.539184E-16	3.596961E-18
4.360000E+03	1.540107E-16	3.577149E-18
4.370000E+03	1.541054E-16	3.557509E-18
4.380000E+03	1.541899E-16	3.537760E-18
4.390000E+03	1.542774E-16	3.518211E-18
4.400000E+03	1.543425E-16	3.498291E-18
4.410000E+03	1.544109E-16	3.478599E-18
4.420000E+03	1.544703E-16	3.458862E-18
4.430000E+03	1.545212E-16	3.439097E-18
4.440000E+03	1.545761E-16	3.419596E-18
4.450000E+03	1.546108E-16	3.399828E-18
4.460000E+03	1.546503E-16	3.380354E-18
4.470000E+03	1.546826E-16	3.360919E-18
4.480000E+03	1.547083E-16	3.341543E-18
4.490000E+03	1.547397E-16	3.322502E-18
4.500000E+03	1.547531E-16	3.303294E-18
4.510000E+03	1.547730E-16	3.284453E-18
4.520000E+03	1.547880E-16	3.265739E-18
4.530000E+03	1.547984E-16	3.247170E-18
4.540000E+03	1.548048E-16	3.228767E-18
4.550000E+03	1.548193E-16	3.210788E-18
4.560000E+03	1.548189E-16	3.192764E-18
4.570000E+03	1.548275E-16	3.175198E-18
4.580000E+03	1.548340E-16	3.157866E-18
4.590000E+03	1.548388E-16	3.140784E-18
4.600000E+03	1.548426E-16	3.123974E-18
4.610000E+03	1.548457E-16	3.107452E-18
4.620000E+03	1.548489E-16	3.091236E-18
4.630000E+03	1.548637E-16	3.075567E-18
4.640000E+03	1.548684E-16	3.060016E-18
4.650000E+03	1.548857E-16	3.045042E-18
4.660000E+03	1.548943E-16	3.030229E-18
4.670000E+03	1.549165E-16	3.016024E-18
4.680000E+03	1.549419E-16	3.002226E-18
4.690000E+03	1.549711E-16	2.988857E-18
4.700000E+03	1.549941E-16	2.975724E-18
4.710000E+03	1.550328E-16	2.963260E-18
4.720000E+03	1.550771E-16	2.951274E-18
4.730000E+03	1.551276E-16	2.939783E-18
4.740000E+03	1.551850E-16	2.928803E-18
4.750000E+03	1.552602E-16	2.918546E-18
4.760000E+03	1.553329E-16	2.908627E-18
4.770000E+03	1.554144E-16	2.899246E-18
4.780000E+03	1.555051E-16	2.890407E-18
4.790000E+03	1.556059E-16	2.882113E-18
4.800000E+03	1.557175E-16	2.874369E-18
4.810000E+03	1.558404E-16	2.867176E-18
4.820000E+03	1.559754E-16	2.860537E-18
4.830000E+03	1.561232E-16	2.854458E-18
4.840000E+03	1.562844E-16	2.848937E-18
4.850000E+03	1.564598E-16	2.843982E-18
4.860000E+03	1.566500E-16	2.839592E-18
4.870000E+03	1.568558E-16	2.835772E-18
4.880000E+03	1.570679E-16	2.832344E-18
4.890000E+03	1.573069E-16	2.829672E-18
4.900000E+03	1.575636E-16	2.827578E-18
4.910000E+03	1.578289E-16	2.825890E-18
4.920000E+03	1.581133E-16	2.824787E-18
4.930000E+03	1.584273E-16	2.824447E-18
4.940000E+03	1.587521E-16	2.824525E-18
4.950000E+03	1.590983E-16	2.825200E-18
4.960000E+03	1.594664E-16	2.826472E-18
4.970000E+03	1.598574E-16	2.828347E-18
4.980000E+03	1.602622E-16	2.830660E-18
4.990000E+03	1.607009E-16	2.833754E-18
5.000000E+03	1.611549E-16	2.837293E-18
5.010000E+03	1.616347E-16	2.841451E-18
5.020000E+03	1.621507E-16	2.846404E-18
5.030000E+03	1.626746E-16	2.851649E-18
5.040000E+03	1.632362E-16	2.857697E-18
5.050000E+03	1.638267E-16	2.864386E-18
5.060000E+03	1.644372E-16	2.871553E-18
5.070000E+03	1.650781E-16	2.879371E-18
5.080000E+03	1.657502E-16	2.887849E-18
5.090000E+03	1.664544E-16	2.896993E-18
5.100000E+03	1.671817E-16	2.906639E-18
5.110000E+03	1.679428E-16	2.916966E-18
5.120000E+03	1.687384E-16	2.927979E-18
5.130000E+03	1.695693E-16	2.939688E-18
5.140000E+03	1.704365E-16	2.952099E-18
5.150000E+03	1.713312E-16	2.965055E-18
5.160000E+03	1.722640E-16	2.978732E-18
5.170000E+03	1.732356E-16	2.993140E-18
5.180000E+03	1.742375E-16	3.008120E-18
5.190000E+03	1.752800E-16	3.023849E-18
5.200000E+03	1.763644E-16	3.040340E-18
5.210000E+03	1.774914E-16	3.057602E-18
5.220000E+03	1.786523E-16	3.075478E-18
5.230000E+03	1.798579E-16	3.094152E-18
5.240000E+03	1.811092E-16	3.113632E-18
5.250000E+03	1.823974E-16	3.133762E-18
5.260000E+03	1.837334E-16	3.154727E-18
5.270000E+03	1.851182E-16	3.176538E-18
5.280000E+03	1.865430E-16	3.199040E-18
5.290000E+03	1.880188E-16	3.222418E-18
5.300000E+03	1.895469E-16	3.246687E-18
5.310000E+03	1.911181E-16	3.271690E-18
5.320000E+03	1.927439E-16	3.297615E-18
5.330000E+03	1.944253E-16	3.324481E-18
5.340000E+03	1.961533E-16	3.352127E-18
5.350000E+03	1.979395E-16	3.380748E-18
5.360000E+03	1.997851E-16	3.410361E-18
5.370000E+03	2.016807E-16	3.440807E-18
5.380000E+03	2.036278E-16	3.472103E-18
5.390000E+03	2.056487E-16	3.504629E-18
5.400000E+03	2.077233E-16	3.538043E-18
5.410000E+03	2.098531E-16	3.572364E-18
5.420000E+03	2.120500E-16	3.607795E-18
5.430000E+03	2.143154E-16	3.644358E-18
5.440000E+03	2.166398E-16	3.681889E-18
5.450000E+03	2.190354E-16	3.720596E-18
5.460000E+03	2.214924E-16	3.760310E-18
5.470000E+03	2.240234E-16	3.801246E-18
5.480000E+03	2.266296E-16	3.843424E-18
5.490000E+03	2.293013E-16	3.886677E-18
5.500000E+03	2.320393E-16	3.931021E-18
5.510000E+03	2.348563E-16	3.976672E-18
5.520000E+03	2.377537E-16	4.023655E-18
5.530000E+03	2.407210E-16	4.071791E-18
5.540000E+03	2.437708E-16	4.121299E-18
5.550000E+03	2.468924E-16	4.171996E-18
5.560000E+03	2.500988E-16	4.224109E-18
5.570000E+03	2.533787E-16	4.277448E-18
5.580000E+03	2.567329E-16	4.332029E-18
5.590000E+03	2.601875E-16	4.388300E-18
5.600000E+03	2.637054E-16	4.445636E-18
5.610000E+03	2.673259E-16	4.504707E-18
5.620000E+03	2.710109E-16	4.564876E-18
5.630000E+03	2.748002E-16	4.626822E-18
5.640000E+03	2.786551E-16	4.689897E-18
5.650000E+03	2.826024E-16	4.754560E-18
5.660000E+03	2.866424E-16	4.820819E-18
5.670000E+03	2.907613E-16	4.888438E-18
5.680000E+03	2.949730E-16	4.957651E-18
5.690000E+03	2.992630E-16	5.028213E-18
5.700000E+03	3.036308E-16	5.100116E-18
5.710000E+03	3.080904E-16	5.173593E-18
5.720000E+03	3.126413E-16	5.248636E-18
5.730000E+03	3.172532E-16	5.324736E-18
5.740000E+03	3.219698E-16	5.402627E-18
5.750000E+03	3.267449E-16	5.481535E-18
5.760000E+03	3.316232E-16	5.562211E-18
5.770000E+03	3.365571E-16	5.643855E-18
5.780000E+03	3.415761E-16	5.726966E-18
5.790000E+03	3.466788E-16	5.811521E-18
5.800000E+03	3.518475E-16	5.897225E-18
5.810000E+03	3.570798E-16	5.984043E-18
5.820000E+03	3.623902E-16	6.072218E-18
5.830000E+03	3.677596E-16	6.161436E-18
5.840000E+03	3.732023E-16	6.251941E-18
5.850000E+03	3.786987E-16	6.343406E-18
5.860000E+03	3.842454E-16	6.435784E-18
5.870000E+03	3.898569E-16	6.529321E-18
5.880000E+03	3.955121E-16	6.623671E-18
5.890000E+03	4.012257E-16	6.719086E-18
5.900000E+03	4.069755E-16	6.815203E-18
5.910000E+03	4.127575E-16	6.911963E-18
5.920000E+03	4.185861E-16	7.009618E-18
5.930000E+03	4.244576E-16	7.108113E-18
5.940000E+03	4.303285E-16	7.206735E-18
5.950000E+03	4.362328E-16	7.306059E-18
5.960000E+03	4.421659E-16	7.406025E-18
5.970000E+03	4.481030E-16	7.506227E-18
5.980000E+03	4.540381E-16	7.606582E-18
5.990000E+03	4.599867E-16	7.707362E-18
6.000000E+03	4.659223E-16	7.808139E-18
6.010000E+03	4.718388E-16	7.908827E-18
6.020000E+03	4.777516E-16	8.009702E-18
6.030000E+03	4.836332E-16	8.110320E-18
6.040000E+03	4.894991E-16	8.210962E-18
6.050000E+03	4.953214E-16	8.311176E-18
6.060000E+03	5.010932E-16	8.410869E-18
6.070000E+03	5.068306E-16	8.510331E-18
6.080000E+03	5.125043E-16	8.609093E-18
6.090000E+03	5.181309E-16	8.707453E-18
6.100000E+03	5.236805E-16	8.804937E-18
6.110000E+03	5.291462E-16	8.901449E-18
6.120000E+03	5.345449E-16	8.997298E-18
6.130000E+03	5.398463E-16	9.091997E-18
6.140000E+03	5.450431E-16	9.185451E-18
6.150000E+03	5.501531E-16	9.277981E-18
6.160000E+03	5.551451E-16	9.369089E-18
6.170000E+03	5.600372E-16	9.459105E-18
6.180000E+03	5.647978E-16	9.547522E-18
6.190000E+03	5.694205E-16	9.634255E-18
6.200000E+03	5.739238E-16	9.719642E-18
6.210000E+03	5.782761E-16	9.803176E-18
6.220000E+03	5.824970E-16	9.885209E-18
6.230000E+03	5.865548E-16	9.965232E-18
6.240000E+03	5.904434E-16	1.004316E-17
6.250000E+03	5.941829E-16	1.011936E-17
6.260000E+03	5.977422E-16	1.019333E-17
6.270000E+03	6.011425E-16	1.026542E-17
6.280000E+03	6.043537E-16	1.033512E-17
6.290000E+03	6.073720E-16	1.040234E-17
6.300000E+03	6.102207E-16	1.046744E-17
6.310000E+03	6.128702E-16	1.052990E-17
6.320000E+03	6.153443E-16	1.059009E-17
6.330000E+03	6.175868E-16	1.064703E-17
6.340000E+03	6.196765E-16	1.070204E-17
6.350000E+03	6.215575E-16	1.075412E-17
6.360000E+03	6.232283E-16	1.080322E-17
6.370000E+03	6.246875E-16	1.084927E-17
6.380000E+03	6.259616E-16	1.089270E-17
6.390000E+03	6.270500E-16	1.093346E-17
6.400000E+03	6.279250E-16	1.097104E-17
6.410000E+03	6.285868E-16	1.100541E-17
6.420000E+03	6.290355E-16	1.103651E-17
6.430000E+03	6.293268E-16	1.106530E-17
6.440000E+03	6.293790E-16	1.109031E-17
6.450000E+03	6.292484E-16	1.111247E-17
6.460000E+03	6.289090E-16	1.113130E-17
6.470000E+03	6.283898E-16	1.114726E-17
6.480000E+03	6.276655E-16	1.115988E-17
6.490000E+03	6.267656E-16	1.116964E-17
6.500000E+03	6.256653E-16	1.117605E-17
6.510000E+03	6.243945E-16	1.117962E-17
6.520000E+03	6.229287E-16	1.117987E-17
6.530000E+03	6.212712E-16	1.117681E-17
6.540000E+03	6.194523E-16	1.117097E-17
6.550000E+03	6.174754E-16	1.116235E-17
6.560000E+03	6.152901E-16	1.115003E-17
6.570000E+03	6.129811E-16	1.113550E-17
6.580000E+03	6.104715E-16	1.111733E-17
6.590000E+03	6.078458E-16	1.109702E-17
6.600000E+03	6.050281E-16	1.107317E-17
6.610000E+03	6.021022E-16	1.104726E-17
6.620000E+03	5.989934E-16	1.101792E-17
6.630000E+03	5.957587E-16	1.098614E-17
6.640000E+03	5.924025E-16	1.095199E-17
6.650000E+03	5.889034E-16	1.091505E-17
6.660000E+03	5.852918E-16	1.087585E-17
6.670000E+03	5.815468E-16	1.083399E-17
6.680000E+03	5.776733E-16	1.078953E-17
6.690000E+03	5.737014E-16	1.074301E-17
6.700000E+03	5.696357E-16	1.069450E-17
6.710000E+03	5.654558E-16	1.064360E-17
6.720000E+03	5.611916E-16	1.059084E-17
6.730000E+03	5.568229E-16	1.053585E-17
6.740000E+03	5.523549E-16	1.047868E-17
6.750000E+03	5.478167E-16	1.041989E-17
6.760000E+03	5.432127E-16	1.035954E-17
6.770000E+03	5.385236E-16	1.029726E-17
6.780000E+03	5.337778E-16	1.023356E-17
6.790000E+03	5.289564E-16	1.016809E-17
6.800000E+03	5.240872E-16	1.010137E-17
6.810000E+03	5.191514E-16	1.003302E-17
6.820000E+03	5.141767E-16	9.963578E-18
6.830000E+03	5.091669E-16	9.893103E-18
6.840000E+03	5.041039E-16	9.821240E-18
6.850000E+03	4.989920E-16	9.748069E-18
6.860000E+03	4.938576E-16	9.674098E-18
6.870000E+03	4.887043E-16	9.599397E-18
6.880000E+03	4.835145E-16	9.523616E-18
6.890000E+03	4.783134E-16	9.447250E-18
6.900000E+03	4.731044E-16	9.370365E-18
6.910000E+03	4.678702E-16	9.292618E-18
6.920000E+03	4.626146E-16	9.214083E-18
6.930000E+03	4.573618E-16	9.135240E-18
6.940000E+03	4.521147E-16	9.056150E-18
6.950000E+03	4.468565E-16	8.976477E-18
6.960000E+03	4.416102E-16	8.896684E-18
6.970000E+03	4.363787E-16	8.816833E-18
6.980000E+03	4.311452E-16	8.736588E-18
6.990000E+03	4.259320E-16	8.656402E-18
7.000000E+03	4.207226E-16	8.575944E-18
7.010000E+03	4.155386E-16	8.495655E-18
7.020000E+03	4.103823E-16	8.415589E-18
7.030000E+03	4.052376E-16	8.335416E-18
7.040000E+03	4.001250E-16	8.255567E-18
7.050000E+03	3.950286E-16	8.175714E-18
7.060000E+03	3.899685E-16	8.096279E-18
7.070000E+03	3.849464E-16	8.017303E-18
7.080000E+03	3.799466E-16	7.938462E-18
7.090000E+03	3.749884E-16	7.860164E-18
7.100000E+03	3.700731E-16	7.782444E-18
7.110000E+03	3.651854E-16	7.704985E-18
7.120000E+03	3.603436E-16	7.628177E-18
7.130000E+03	3.555487E-16	7.552049E-18
7.140000E+03	3.507858E-16	7.476289E-18
7.150000E+03	3.460724E-16	7.401272E-18
7.160000E+03	3.414093E-16	7.327024E-18
7.170000E+03	3.367819E-16	7.253238E-18
7.180000E+03	3.322065E-16	7.180269E-18
7.190000E+03	3.276840E-16	7.108141E-18
7.200000E+03	3.232001E-16	7.036551E-18
7.210000E+03	3.187703E-16	6.965841E-18
7.220000E+03	3.143952E-16	6.896030E-18
7.230000E+03	3.100608E-16	6.826816E-18
7.240000E+03	3.057819E-16	6.758530E-18
7.250000E+03	3.015590E-16	6.691187E-18
7.260000E+03	2.973784E-16	6.624489E-18
7.270000E+03	2.932678E-16	6.559060E-18
7.280000E+03	2.891863E-16	6.493991E-18
7.290000E+03	2.851750E-16	6.430204E-18
7.300000E+03	2.812069E-16	6.367101E-18
7.310000E+03	2.772955E-16	6.304989E-18
7.320000E+03	2.734403E-16	6.243866E-18
7.330000E+03	2.696413E-16	6.183733E-18
7.340000E+03	2.658857E-16	6.124299E-18
7.350000E+03	2.621859E-16	6.065839E-18
7.360000E+03	2.585291E-16	6.008046E-18
7.370000E+03	2.549392E-16	5.951466E-18
7.380000E+03	2.513916E-16	5.895518E-18
7.390000E+03	2.478977E-16	5.840459E-18
7.400000E+03	2.444452E-16	5.785994E-18
7.410000E+03	2.410570E-16	5.732655E-18
7.420000E+03	2.377092E-16	5.679871E-18
7.430000E+03	2.344014E-16	5.627625E-18
7.440000E+03	2.311556E-16	5.576440E-18
7.450000E+03	2.279486E-16	5.525754E-18
7.460000E+03	2.248018E-16	5.476082E-18
7.470000E+03	2.216822E-16	5.426617E-18
7.480000E+03	2.186212E-16	5.378124E-18
7.490000E+03	2.155972E-16	5.330069E-18
7.500000E+03	2.126302E-16	5.282950E-18
7.510000E+03	2.096891E-16	5.235987E-18
7.520000E+03	2.068038E-16	5.189930E-18
7.530000E+03	2.039638E-16	5.144514E-18
7.540000E+03	2.011586E-16	5.099480E-18
7.550000E+03	1.983982E-16	5.055074E-18
7.560000E+03	1.956817E-16	5.011281E-18
7.570000E+03	1.929995E-16	4.967857E-18
7.580000E+03	1.903702E-16	4.925278E-18
7.590000E+03	1.877744E-16	4.883055E-18
7.600000E+03	1.852213E-16	4.841423E-18
7.610000E+03	1.827104E-16	4.800374E-18
7.620000E+03	1.802321E-16	4.759665E-18
7.630000E+03	1.778041E-16	4.719763E-18
7.640000E+03	1.754081E-16	4.680190E-18
7.650000E+03	1.730523E-16	4.641171E-18
7.660000E+03	1.707279E-16	4.602473E-18
7.670000E+03	1.684513E-16	4.564547E-18
7.680000E+03	1.662051E-16	4.526926E-18
7.690000E+03	1.640054E-16	4.490057E-18
7.700000E+03	1.618352E-16	4.453483E-18
7.710000E+03	1.596941E-16	4.417195E-18
7.720000E+03	1.575977E-16	4.381636E-18
7.730000E+03	1.555372E-16	4.346570E-18
7.740000E+03	1.535044E-16	4.311772E-18
7.750000E+03	1.515066E-16	4.277454E-18
7.760000E+03	1.495432E-16	4.243609E-18
