#wls	flux	fluxerr
1.600000E+03	1.254887E-17	1.853633E-18
1.640000E+03	1.306511E-17	1.917903E-18
1.680000E+03	1.360407E-17	1.984294E-18
1.720000E+03	1.416648E-17	2.052812E-18
1.760000E+03	1.475912E-17	2.124334E-18
1.800000E+03	1.537703E-17	2.198023E-18
1.840000E+03	1.602091E-17	2.273863E-18
1.880000E+03	1.669809E-17	2.352769E-18
1.920000E+03	1.740291E-17	2.433802E-18
1.960000E+03	1.813593E-17	2.516906E-18
2.000000E+03	1.890506E-17	2.603030E-18
2.040000E+03	1.970378E-17	2.691116E-18
2.080000E+03	2.053243E-17	2.781054E-18
2.120000E+03	2.139945E-17	2.873822E-18
2.160000E+03	2.229732E-17	2.968225E-18
2.200000E+03	2.322603E-17	3.064090E-18
2.240000E+03	2.419454E-17	3.162415E-18
2.280000E+03	2.519412E-17	3.261851E-18
2.320000E+03	2.623400E-17	3.363397E-18
2.360000E+03	2.730453E-17	3.465600E-18
2.400000E+03	2.840499E-17	3.568172E-18
2.440000E+03	2.954508E-17	3.672119E-18
2.480000E+03	3.071379E-17	3.775847E-18
2.520000E+03	3.190992E-17	3.879002E-18
2.560000E+03	3.314374E-17	3.982617E-18
2.600000E+03	3.440291E-17	4.084974E-18
2.640000E+03	3.569826E-17	4.187140E-18
2.680000E+03	3.701683E-17	4.287354E-18
2.720000E+03	3.837027E-17	4.386746E-18
2.760000E+03	3.974506E-17	4.483530E-18
2.800000E+03	4.113999E-17	4.577365E-18
2.840000E+03	4.256783E-17	4.669452E-18
2.880000E+03	4.401405E-17	4.757951E-18
2.920000E+03	4.549210E-17	4.844092E-18
2.960000E+03	4.698675E-17	4.926007E-18
3.000000E+03	4.849673E-17	5.003364E-18
3.010000E+03	4.887261E-17	5.021557E-18
3.020000E+03	4.926483E-17	5.041026E-18
3.030000E+03	4.964241E-17	5.058593E-18
3.040000E+03	5.003644E-17	5.077429E-18
3.050000E+03	5.041562E-17	5.094349E-18
3.060000E+03	5.081140E-17	5.112534E-18
3.070000E+03	5.119210E-17	5.128787E-18
3.080000E+03	5.158951E-17	5.146297E-18
3.090000E+03	5.198776E-17	5.163464E-18
3.100000E+03	5.237062E-17	5.178680E-18
3.110000E+03	5.277037E-17	5.195140E-18
3.120000E+03	5.317088E-17	5.211242E-18
3.130000E+03	5.355569E-17	5.225375E-18
3.140000E+03	5.395756E-17	5.240741E-18
3.150000E+03	5.436012E-17	5.255730E-18
3.160000E+03	5.476333E-17	5.270339E-18
3.170000E+03	5.516718E-17	5.284562E-18
3.180000E+03	5.557163E-17	5.298393E-18
3.190000E+03	5.595973E-17	5.310220E-18
3.200000E+03	5.636522E-17	5.323252E-18
3.210000E+03	5.677123E-17	5.335876E-18
3.220000E+03	5.717774E-17	5.348087E-18
3.230000E+03	5.758471E-17	5.359881E-18
3.240000E+03	5.799210E-17	5.371250E-18
3.250000E+03	5.839988E-17	5.382191E-18
3.260000E+03	5.880804E-17	5.392698E-18
3.270000E+03	5.921652E-17	5.402764E-18
3.280000E+03	5.964296E-17	5.413989E-18
3.290000E+03	6.005208E-17	5.423159E-18
3.300000E+03	6.046143E-17	5.431873E-18
3.310000E+03	6.087096E-17	5.440126E-18
3.320000E+03	6.128063E-17	5.447911E-18
3.330000E+03	6.169043E-17	5.455225E-18
3.340000E+03	6.211842E-17	5.463656E-18
3.350000E+03	6.252839E-17	5.470007E-18
3.360000E+03	6.293835E-17	5.475870E-18
3.370000E+03	6.336662E-17	5.482828E-18
3.380000E+03	6.377652E-17	5.487697E-18
3.390000E+03	6.418628E-17	5.492062E-18
3.400000E+03	6.461445E-17	5.497499E-18
3.410000E+03	6.502388E-17	5.500837E-18
3.420000E+03	6.545180E-17	5.505233E-18
3.430000E+03	6.586074E-17	5.507526E-18
3.440000E+03	6.628822E-17	5.510861E-18
3.450000E+03	6.669650E-17	5.512090E-18
3.460000E+03	6.712339E-17	5.514346E-18
3.470000E+03	6.753088E-17	5.514495E-18
3.480000E+03	6.795704E-17	5.515657E-18
3.490000E+03	6.838283E-17	5.516265E-18
3.500000E+03	6.878891E-17	5.514766E-18
3.510000E+03	6.921380E-17	5.514261E-18
3.520000E+03	6.963827E-17	5.513193E-18
3.530000E+03	7.004274E-17	5.510025E-18
3.540000E+03	7.046620E-17	5.507830E-18
3.550000E+03	7.088916E-17	5.505065E-18
3.560000E+03	7.131163E-17	5.501731E-18
3.570000E+03	7.171378E-17	5.496305E-18
3.580000E+03	7.213515E-17	5.491828E-18
3.590000E+03	7.255598E-17	5.486775E-18
3.600000E+03	7.297626E-17	5.481144E-18
3.610000E+03	7.339599E-17	5.474934E-18
3.620000E+03	7.381515E-17	5.468143E-18
3.630000E+03	7.423373E-17	5.460771E-18
3.640000E+03	7.465174E-17	5.452816E-18
3.650000E+03	7.504882E-17	5.442802E-18
3.660000E+03	7.546556E-17	5.433683E-18
3.670000E+03	7.588168E-17	5.423977E-18
3.680000E+03	7.631768E-17	5.415140E-18
3.690000E+03	7.673261E-17	5.404253E-18
3.700000E+03	7.714688E-17	5.392775E-18
3.710000E+03	7.756049E-17	5.380707E-18
3.720000E+03	7.797343E-17	5.368048E-18
3.730000E+03	7.838568E-17	5.354797E-18
3.740000E+03	7.879724E-17	5.340954E-18
3.750000E+03	7.920808E-17	5.326516E-18
3.760000E+03	7.961821E-17	5.311486E-18
3.770000E+03	8.004864E-17	5.297253E-18
3.780000E+03	8.045734E-17	5.281027E-18
3.790000E+03	8.086527E-17	5.264205E-18
3.800000E+03	8.127243E-17	5.246788E-18
3.810000E+03	8.170007E-17	5.230138E-18
3.820000E+03	8.210568E-17	5.211523E-18
3.830000E+03	8.251047E-17	5.192313E-18
3.840000E+03	8.291444E-17	5.172508E-18
3.850000E+03	8.333904E-17	5.153438E-18
3.860000E+03	8.374133E-17	5.132437E-18
3.870000E+03	8.416435E-17	5.112154E-18
3.880000E+03	8.456493E-17	5.089959E-18
3.890000E+03	8.496458E-17	5.067171E-18
3.900000E+03	8.538508E-17	5.045080E-18
3.910000E+03	8.578291E-17	5.021103E-18
3.920000E+03	8.620166E-17	4.997808E-18
3.930000E+03	8.659761E-17	4.972649E-18
3.940000E+03	8.699257E-17	4.946905E-18
3.950000E+03	8.740853E-17	4.921818E-18
3.960000E+03	8.780152E-17	4.894903E-18
3.970000E+03	8.821557E-17	4.868629E-18
3.980000E+03	8.862866E-17	4.841761E-18
3.990000E+03	8.901858E-17	4.813100E-18
4.000000E+03	8.942966E-17	4.785061E-18
4.010000E+03	8.981744E-17	4.755254E-18
4.020000E+03	9.022643E-17	4.726055E-18
4.030000E+03	9.061200E-17	4.695117E-18
4.040000E+03	9.101886E-17	4.664774E-18
4.050000E+03	9.140217E-17	4.632721E-18
4.060000E+03	9.180681E-17	4.601250E-18
4.070000E+03	9.221036E-17	4.569218E-18
4.080000E+03	9.259016E-17	4.535522E-18
4.090000E+03	9.299140E-17	4.502393E-18
4.100000E+03	9.339148E-17	4.468719E-18
4.110000E+03	9.376766E-17	4.433430E-18
4.120000E+03	9.416533E-17	4.398695E-18
4.130000E+03	9.456181E-17	4.363435E-18
4.140000E+03	9.493421E-17	4.326615E-18
4.150000E+03	9.532818E-17	4.290338E-18
4.160000E+03	9.572090E-17	4.253559E-18
4.170000E+03	9.608938E-17	4.215279E-18
4.180000E+03	9.647949E-17	4.177534E-18
4.190000E+03	9.686829E-17	4.139316E-18
4.200000E+03	9.725575E-17	4.100635E-18
4.210000E+03	9.761875E-17	4.060540E-18
4.220000E+03	9.800344E-17	4.020977E-18
4.230000E+03	9.838675E-17	3.980986E-18
4.240000E+03	9.876863E-17	3.940579E-18
4.250000E+03	9.912578E-17	3.898855E-18
4.260000E+03	9.950468E-17	3.857671E-18
4.270000E+03	9.988207E-17	3.816115E-18
4.280000E+03	1.002579E-16	3.774202E-18
4.290000E+03	1.006087E-16	3.731082E-18
4.300000E+03	1.009813E-16	3.688521E-18
4.310000E+03	1.013522E-16	3.645657E-18
4.320000E+03	1.017214E-16	3.602510E-18
4.330000E+03	1.020652E-16	3.558281E-18
4.340000E+03	1.024306E-16	3.514644E-18
4.350000E+03	1.027941E-16	3.470790E-18
4.360000E+03	1.031556E-16	3.426744E-18
4.370000E+03	1.034913E-16	3.381757E-18
4.380000E+03	1.038482E-16	3.337415E-18
4.390000E+03	1.042028E-16	3.292960E-18
4.400000E+03	1.045547E-16	3.248420E-18
4.410000E+03	1.049037E-16	3.203826E-18
4.420000E+03	1.052258E-16	3.158496E-18
4.430000E+03	1.055683E-16	3.113904E-18
4.440000E+03	1.059071E-16	3.069356E-18
4.450000E+03	1.062418E-16	3.024888E-18
4.460000E+03	1.065483E-16	2.979879E-18
4.470000E+03	1.068740E-16	2.935710E-18
4.480000E+03	1.071946E-16	2.891752E-18
4.490000E+03	1.074859E-16	2.847420E-18
4.500000E+03	1.077955E-16	2.804049E-18
4.510000E+03	1.080990E-16	2.761045E-18
4.520000E+03	1.083962E-16	2.718477E-18
4.530000E+03	1.086627E-16	2.675813E-18
4.540000E+03	1.089461E-16	2.634317E-18
4.550000E+03	1.092222E-16	2.593460E-18
4.560000E+03	1.094668E-16	2.552763E-18
4.570000E+03	1.097276E-16	2.513435E-18
4.580000E+03	1.099800E-16	2.474990E-18
4.590000E+03	1.102001E-16	2.436990E-18
4.600000E+03	1.104354E-16	2.400598E-18
4.610000E+03	1.106618E-16	2.365370E-18
4.620000E+03	1.108548E-16	2.330899E-18
4.630000E+03	1.110625E-16	2.298307E-18
4.640000E+03	1.112364E-16	2.266694E-18
4.650000E+03	1.114242E-16	2.237149E-18
4.660000E+03	1.116020E-16	2.209281E-18
4.670000E+03	1.117451E-16	2.182722E-18
4.680000E+03	1.119015E-16	2.158519E-18
4.690000E+03	1.120230E-16	2.135837E-18
4.700000E+03	1.121572E-16	2.115691E-18
4.710000E+03	1.122562E-16	2.097262E-18
4.720000E+03	1.123675E-16	2.081529E-18
4.730000E+03	1.124437E-16	2.067683E-18
4.740000E+03	1.125323E-16	2.056673E-18
4.750000E+03	1.125860E-16	2.047681E-18
4.760000E+03	1.126289E-16	2.041145E-18
4.770000E+03	1.126851E-16	2.037433E-18
4.780000E+03	1.127078E-16	2.035616E-18
4.790000E+03	1.127449E-16	2.036473E-18
4.800000E+03	1.127496E-16	2.039058E-18
4.810000E+03	1.127464E-16	2.043706E-18
4.820000E+03	1.127591E-16	2.050737E-18
4.830000E+03	1.127415E-16	2.059191E-18
4.840000E+03	1.127177E-16	2.069387E-18
4.850000E+03	1.126881E-16	2.081207E-18
4.860000E+03	1.126766E-16	2.094971E-18
4.870000E+03	1.126375E-16	2.109707E-18
4.880000E+03	1.125944E-16	2.125729E-18
4.890000E+03	1.125482E-16	2.142933E-18
4.900000E+03	1.124995E-16	2.161211E-18
4.910000E+03	1.124487E-16	2.180461E-18
4.920000E+03	1.123968E-16	2.200588E-18
4.930000E+03	1.123442E-16	2.221499E-18
4.940000E+03	1.123147E-16	2.243564E-18
4.950000E+03	1.122630E-16	2.265791E-18
4.960000E+03	1.122130E-16	2.288561E-18
4.970000E+03	1.121425E-16	2.311333E-18
4.980000E+03	1.120977E-16	2.334973E-18
4.990000E+03	1.120566E-16	2.358960E-18
5.000000E+03	1.120201E-16	2.383239E-18
5.010000E+03	1.119887E-16	2.407761E-18
5.020000E+03	1.119634E-16	2.432482E-18
5.030000E+03	1.119448E-16	2.457365E-18
5.040000E+03	1.119115E-16	2.481878E-18
5.050000E+03	1.119089E-16	2.506980E-18
5.060000E+03	1.119155E-16	2.532153E-18
5.070000E+03	1.119098E-16	2.556866E-18
5.080000E+03	1.119371E-16	2.582116E-18
5.090000E+03	1.119759E-16	2.607381E-18
5.100000E+03	1.120051E-16	2.632134E-18
5.110000E+03	1.120696E-16	2.657400E-18
5.120000E+03	1.121261E-16	2.682133E-18
5.130000E+03	1.122196E-16	2.707381E-18
5.140000E+03	1.123069E-16	2.732088E-18
5.150000E+03	1.124108E-16	2.756781E-18
5.160000E+03	1.125542E-16	2.782013E-18
5.170000E+03	1.126939E-16	2.806704E-18
5.180000E+03	1.128530E-16	2.831407E-18
5.190000E+03	1.130541E-16	2.856687E-18
5.200000E+03	1.132543E-16	2.881454E-18
5.210000E+03	1.134765E-16	2.906271E-18
5.220000E+03	1.137217E-16	2.931157E-18
5.230000E+03	1.139907E-16	2.956131E-18
5.240000E+03	1.142845E-16	2.981207E-18
5.250000E+03	1.146042E-16	3.006415E-18
5.260000E+03	1.149505E-16	3.031768E-18
5.270000E+03	1.153248E-16	3.057297E-18
5.280000E+03	1.157279E-16	3.083020E-18
5.290000E+03	1.161609E-16	3.108969E-18
5.300000E+03	1.166248E-16	3.135163E-18
5.310000E+03	1.171210E-16	3.161637E-18
5.320000E+03	1.176278E-16	3.187804E-18
5.330000E+03	1.181914E-16	3.214910E-18
5.340000E+03	1.187906E-16	3.242379E-18
5.350000E+03	1.194039E-16	3.269619E-18
5.360000E+03	1.200777E-16	3.297900E-18
5.370000E+03	1.207908E-16	3.326639E-18
5.380000E+03	1.215214E-16	3.355228E-18
5.390000E+03	1.222938E-16	3.384332E-18
5.400000E+03	1.231323E-16	3.414622E-18
5.410000E+03	1.239921E-16	3.444850E-18
5.420000E+03	1.249211E-16	3.476343E-18
5.430000E+03	1.258739E-16	3.507833E-18
5.440000E+03	1.268755E-16	3.540003E-18
5.450000E+03	1.279270E-16	3.572882E-18
5.460000E+03	1.290301E-16	3.606507E-18
5.470000E+03	1.301862E-16	3.640911E-18
5.480000E+03	1.313969E-16	3.676124E-18
5.490000E+03	1.326636E-16	3.712179E-18
5.500000E+03	1.339876E-16	3.749099E-18
5.510000E+03	1.353704E-16	3.786916E-18
5.520000E+03	1.368133E-16	3.825650E-18
5.530000E+03	1.383175E-16	3.865321E-18
5.540000E+03	1.398845E-16	3.905956E-18
5.550000E+03	1.414890E-16	3.946836E-18
5.560000E+03	1.431847E-16	3.989437E-18
5.570000E+03	1.449200E-16	4.032310E-18
5.580000E+03	1.467493E-16	4.076950E-18
5.590000E+03	1.486203E-16	4.121881E-18
5.600000E+03	1.505886E-16	4.168627E-18
5.610000E+03	1.526004E-16	4.215679E-18
5.620000E+03	1.547128E-16	4.264594E-18
5.630000E+03	1.568707E-16	4.313826E-18
5.640000E+03	1.591033E-16	4.364166E-18
5.650000E+03	1.614112E-16	4.415603E-18
5.660000E+03	1.637951E-16	4.468115E-18
5.670000E+03	1.662552E-16	4.521663E-18
5.680000E+03	1.687919E-16	4.576216E-18
5.690000E+03	1.714054E-16	4.631729E-18
5.700000E+03	1.740961E-16	4.688164E-18
5.710000E+03	1.768640E-16	4.745473E-18
5.720000E+03	1.797093E-16	4.803614E-18
5.730000E+03	1.826319E-16	4.862534E-18
5.740000E+03	1.855982E-16	4.921290E-18
5.750000E+03	1.886749E-16	4.981604E-18
5.760000E+03	1.918285E-16	5.042534E-18
5.770000E+03	1.950236E-16	5.103100E-18
5.780000E+03	1.982938E-16	5.164145E-18
5.790000E+03	2.016749E-16	5.226544E-18
5.800000E+03	2.050942E-16	5.288361E-18
5.810000E+03	2.086242E-16	5.351421E-18
5.820000E+03	2.121895E-16	5.413744E-18
5.830000E+03	2.158260E-16	5.476210E-18
5.840000E+03	2.195326E-16	5.538748E-18
5.850000E+03	2.233079E-16	5.601288E-18
5.860000E+03	2.271506E-16	5.663757E-18
5.870000E+03	2.310589E-16	5.726084E-18
5.880000E+03	2.350312E-16	5.788198E-18
5.890000E+03	2.390656E-16	5.850026E-18
5.900000E+03	2.431165E-16	5.910446E-18
5.910000E+03	2.472679E-16	5.971486E-18
5.920000E+03	2.514746E-16	6.032036E-18
5.930000E+03	2.556885E-16	6.090950E-18
5.940000E+03	2.599972E-16	6.150324E-18
5.950000E+03	2.643061E-16	6.207926E-18
5.960000E+03	2.687052E-16	6.265900E-18
5.970000E+03	2.730965E-16	6.321984E-18
5.980000E+03	2.775238E-16	6.377241E-18
5.990000E+03	2.820331E-16	6.432770E-18
6.000000E+03	2.865216E-16	6.486279E-18
6.010000E+03	2.910346E-16	6.538878E-18
6.020000E+03	2.955679E-16	6.590552E-18
6.030000E+03	3.001172E-16	6.641297E-18
6.040000E+03	3.046781E-16	6.691120E-18
6.050000E+03	3.092460E-16	6.740038E-18
6.060000E+03	3.138160E-16	6.788072E-18
6.070000E+03	3.183271E-16	6.834056E-18
6.080000E+03	3.228855E-16	6.880434E-18
6.090000E+03	3.274307E-16	6.926067E-18
6.100000E+03	3.318986E-16	6.969795E-18
6.110000E+03	3.363997E-16	7.014141E-18
6.120000E+03	3.408105E-16	7.056733E-18
6.130000E+03	3.451832E-16	7.098891E-18
6.140000E+03	3.495730E-16	7.141978E-18
6.150000E+03	3.538513E-16	7.183605E-18
6.160000E+03	3.580722E-16	7.225146E-18
6.170000E+03	3.622289E-16	7.266729E-18
6.180000E+03	3.663146E-16	7.308497E-18
6.190000E+03	3.703228E-16	7.350606E-18
6.200000E+03	3.742474E-16	7.393221E-18
6.210000E+03	3.780824E-16	7.436519E-18
6.220000E+03	3.818222E-16	7.480686E-18
6.230000E+03	3.854616E-16	7.525914E-18
6.240000E+03	3.889273E-16	7.571067E-18
6.250000E+03	3.923494E-16	7.618969E-18
6.260000E+03	3.956554E-16	7.668484E-18
6.270000E+03	3.987707E-16	7.718437E-18
6.280000E+03	4.018294E-16	7.771678E-18
6.290000E+03	4.046887E-16	7.825539E-18
6.300000E+03	4.074154E-16	7.881243E-18
6.310000E+03	4.100065E-16	7.938634E-18
6.320000E+03	4.125311E-16	7.998932E-18
6.330000E+03	4.148440E-16	8.059178E-18
6.340000E+03	4.170140E-16	8.120549E-18
6.350000E+03	4.190390E-16	8.182828E-18
6.360000E+03	4.209172E-16	8.245785E-18
6.370000E+03	4.226471E-16	8.309190E-18
6.380000E+03	4.241535E-16	8.371341E-18
6.390000E+03	4.255822E-16	8.434887E-18
6.400000E+03	4.268591E-16	8.498138E-18
6.410000E+03	4.279092E-16	8.559354E-18
6.420000E+03	4.288802E-16	8.621243E-18
6.430000E+03	4.296235E-16	8.680580E-18
6.440000E+03	4.302878E-16	8.740114E-18
6.450000E+03	4.307245E-16	8.796589E-18
6.460000E+03	4.310086E-16	8.851277E-18
6.470000E+03	4.312155E-16	8.905492E-18
6.480000E+03	4.311969E-16	8.955944E-18
6.490000E+03	4.310285E-16	9.003957E-18
6.500000E+03	4.307118E-16	9.049334E-18
6.510000E+03	4.302485E-16	9.091891E-18
6.520000E+03	4.296401E-16	9.131451E-18
6.530000E+03	4.288888E-16	9.167852E-18
6.540000E+03	4.279966E-16	9.200947E-18
6.550000E+03	4.268920E-16	9.228999E-18
6.560000E+03	4.257252E-16	9.255073E-18
6.570000E+03	4.244248E-16	9.277467E-18
6.580000E+03	4.229205E-16	9.294476E-18
6.590000E+03	4.213617E-16	9.309229E-18
6.600000E+03	4.196052E-16	9.318439E-18
6.610000E+03	4.177274E-16	9.323655E-18
6.620000E+03	4.158032E-16	9.326445E-18
6.630000E+03	4.136921E-16	9.323556E-18
6.640000E+03	4.114695E-16	9.316584E-18
6.650000E+03	4.091388E-16	9.305518E-18
6.660000E+03	4.067037E-16	9.290366E-18
6.670000E+03	4.041677E-16	9.271148E-18
6.680000E+03	4.015342E-16	9.247887E-18
6.690000E+03	3.988072E-16	9.220627E-18
6.700000E+03	3.959900E-16	9.189414E-18
6.710000E+03	3.930867E-16	9.154311E-18
6.720000E+03	3.900332E-16	9.113808E-18
6.730000E+03	3.869689E-16	9.071143E-18
6.740000E+03	3.837629E-16	9.023256E-18
6.750000E+03	3.805525E-16	8.973377E-18
6.760000E+03	3.772090E-16	8.918489E-18
6.770000E+03	3.738675E-16	8.861803E-18
6.780000E+03	3.704013E-16	8.800354E-18
6.790000E+03	3.668797E-16	8.735811E-18
6.800000E+03	3.633061E-16	8.668302E-18
6.810000E+03	3.597463E-16	8.599446E-18
6.820000E+03	3.560789E-16	8.526398E-18
6.830000E+03	3.523703E-16	8.450798E-18
6.840000E+03	3.486236E-16	8.372788E-18
6.850000E+03	3.447829E-16	8.291088E-18
6.860000E+03	3.409713E-16	8.208734E-18
6.870000E+03	3.371317E-16	8.124429E-18
6.880000E+03	3.332675E-16	8.038330E-18
6.890000E+03	3.293245E-16	7.949218E-18
6.900000E+03	3.254207E-16	7.860024E-18
6.910000E+03	3.215015E-16	7.769515E-18
6.920000E+03	3.175145E-16	7.676520E-18
6.930000E+03	3.135734E-16	7.583880E-18
6.940000E+03	3.095716E-16	7.489106E-18
6.950000E+03	3.055668E-16	7.393693E-18
6.960000E+03	3.015615E-16	7.297798E-18
6.970000E+03	2.976101E-16	7.202829E-18
6.980000E+03	2.936108E-16	7.106428E-18
6.990000E+03	2.896185E-16	7.010014E-18
7.000000E+03	2.856353E-16	6.913738E-18
7.010000E+03	2.816635E-16	6.817753E-18
7.020000E+03	2.777051E-16	6.722201E-18
7.030000E+03	2.737624E-16	6.627232E-18
7.040000E+03	2.697901E-16	6.531845E-18
7.050000E+03	2.658848E-16	6.438468E-18
7.060000E+03	2.620005E-16	6.346080E-18
7.070000E+03	2.581391E-16	6.254811E-18
7.080000E+03	2.542579E-16	6.163710E-18
7.090000E+03	2.504478E-16	6.075063E-18
7.100000E+03	2.466220E-16	5.986846E-18
7.110000E+03	2.428266E-16	5.900246E-18
7.120000E+03	2.391043E-16	5.816379E-18
7.130000E+03	2.353725E-16	5.733300E-18
7.140000E+03	2.316747E-16	5.652130E-18
7.150000E+03	2.280519E-16	5.573930E-18
7.160000E+03	2.244246E-16	5.496812E-18
7.170000E+03	2.208346E-16	5.421844E-18
7.180000E+03	2.172826E-16	5.349088E-18
7.190000E+03	2.137695E-16	5.278602E-18
7.200000E+03	2.102961E-16	5.210441E-18
7.210000E+03	2.068632E-16	5.144647E-18
7.220000E+03	2.034357E-16	5.080369E-18
7.230000E+03	2.000863E-16	5.019430E-18
7.240000E+03	1.967794E-16	4.960954E-18
7.250000E+03	1.935152E-16	4.904952E-18
7.260000E+03	1.902610E-16	4.850581E-18
7.270000E+03	1.870846E-16	4.799562E-18
7.280000E+03	1.839201E-16	4.750190E-18
7.290000E+03	1.808329E-16	4.704132E-18
7.300000E+03	1.777594E-16	4.659703E-18
7.310000E+03	1.747628E-16	4.618470E-18
7.320000E+03	1.717811E-16	4.578673E-18
7.330000E+03	1.688458E-16	4.541004E-18
7.340000E+03	1.659567E-16	4.505335E-18
7.350000E+03	1.631427E-16	4.472336E-18
7.360000E+03	1.603454E-16	4.440293E-18
7.370000E+03	1.575940E-16	4.409890E-18
7.380000E+03	1.548883E-16	4.381009E-18
7.390000E+03	1.522281E-16	4.353545E-18
7.400000E+03	1.496132E-16	4.327393E-18
7.410000E+03	1.470433E-16	4.302451E-18
7.420000E+03	1.444925E-16	4.277868E-18
7.430000E+03	1.420122E-16	4.255075E-18
7.440000E+03	1.395758E-16	4.233223E-18
7.450000E+03	1.371833E-16	4.212233E-18
7.460000E+03	1.348098E-16	4.191278E-18
7.470000E+03	1.325036E-16	4.171785E-18
7.480000E+03	1.302164E-16	4.152193E-18
7.490000E+03	1.279947E-16	4.133925E-18
7.500000E+03	1.257917E-16	4.115440E-18
7.510000E+03	1.236522E-16	4.098154E-18
7.520000E+03	1.215309E-16	4.080542E-18
7.530000E+03	1.194496E-16	4.063292E-18
7.540000E+03	1.174289E-16	4.047081E-18
7.550000E+03	1.154254E-16	4.030407E-18
7.560000E+03	1.134597E-16	4.013956E-18
7.570000E+03	1.115313E-16	3.997689E-18
7.580000E+03	1.096392E-16	3.981566E-18
7.590000E+03	1.077829E-16	3.965557E-18
7.600000E+03	1.059615E-16	3.949623E-18
7.610000E+03	1.041743E-16	3.933742E-18
7.620000E+03	1.024207E-16	3.917882E-18
7.630000E+03	1.006997E-16	3.902018E-18
7.640000E+03	9.901096E-17	3.886131E-18
7.650000E+03	9.735352E-17	3.870195E-18
7.660000E+03	9.572673E-17	3.854192E-18
7.670000E+03	9.411299E-17	3.837412E-18
7.680000E+03	9.254608E-17	3.821236E-18
7.690000E+03	9.100795E-17	3.804950E-18
7.700000E+03	8.948172E-17	3.787853E-18
7.710000E+03	8.799971E-17	3.771319E-18
7.720000E+03	8.652902E-17	3.753963E-18
7.730000E+03	8.510086E-17	3.737150E-18
7.740000E+03	8.368346E-17	3.719509E-18
7.750000E+03	8.230709E-17	3.702398E-18
7.760000E+03	8.094087E-17	3.684456E-18
