#wls	flux	fluxerr
1.585257E+03	8.736707E-04	2.154670E-05
1.624889E+03	8.945668E-04	2.203613E-05
1.664520E+03	9.155796E-04	2.252652E-05
1.704151E+03	9.367978E-04	2.301996E-05
1.743783E+03	9.578784E-04	2.350794E-05
1.783414E+03	9.788138E-04	2.399024E-05
1.823046E+03	9.989260E-04	2.445019E-05
1.862677E+03	1.017861E-03	2.487914E-05
1.902309E+03	1.035007E-03	2.526224E-05
1.941940E+03	1.049675E-03	2.558280E-05
1.981571E+03	1.061972E-03	2.584362E-05
2.021203E+03	1.072819E-03	2.606730E-05
2.060834E+03	1.084811E-03	2.631689E-05
2.100466E+03	1.102071E-03	2.669206E-05
2.140097E+03	1.128582E-03	2.728844E-05
2.179729E+03	1.165875E-03	2.814176E-05
2.219360E+03	1.212191E-03	2.920812E-05
2.258991E+03	1.263969E-03	3.040056E-05
2.298623E+03	1.317995E-03	3.164102E-05
2.338254E+03	1.372706E-03	3.289153E-05
2.377886E+03	1.427394E-03	3.413488E-05
2.417517E+03	1.482148E-03	3.537297E-05
2.457149E+03	1.537187E-03	3.661077E-05
2.496780E+03	1.593111E-03	3.786230E-05
2.536411E+03	1.650436E-03	3.913940E-05
2.576043E+03	1.709878E-03	4.045855E-05
2.615674E+03	1.771999E-03	4.183245E-05
2.655306E+03	1.837436E-03	4.327538E-05
2.694937E+03	1.906914E-03	4.480355E-05
2.734569E+03	1.981106E-03	4.643170E-05
2.774200E+03	2.060858E-03	4.817849E-05
2.813831E+03	2.147197E-03	5.006650E-05
2.853463E+03	2.241560E-03	5.212754E-05
2.893094E+03	2.345983E-03	5.440693E-05
2.932726E+03	2.463191E-03	5.696526E-05
2.972357E+03	2.596821E-03	5.988338E-05
2.982265E+03	2.633306E-03	6.068046E-05
2.992173E+03	2.671127E-03	6.150685E-05
3.002081E+03	2.710470E-03	6.236670E-05
3.011989E+03	2.751293E-03	6.325903E-05
3.021896E+03	2.793848E-03	6.418948E-05
3.031804E+03	2.838263E-03	6.516093E-05
3.041712E+03	2.884672E-03	6.617630E-05
3.051620E+03	2.933023E-03	6.723432E-05
3.061528E+03	2.983582E-03	6.834095E-05
3.071436E+03	3.036310E-03	6.949517E-05
3.081344E+03	3.091422E-03	7.070178E-05
3.091251E+03	3.149019E-03	7.196290E-05
3.101159E+03	3.209140E-03	7.327933E-05
3.111067E+03	3.272020E-03	7.465624E-05
3.120975E+03	3.337713E-03	7.609468E-05
3.130883E+03	3.406399E-03	7.759864E-05
3.140791E+03	3.478207E-03	7.917081E-05
3.150699E+03	3.553263E-03	8.081390E-05
3.160606E+03	3.631764E-03	8.253216E-05
3.170514E+03	3.713843E-03	8.432844E-05
3.180422E+03	3.799566E-03	8.620396E-05
3.190330E+03	3.889196E-03	8.816447E-05
3.200238E+03	3.982792E-03	9.021108E-05
3.210146E+03	4.080534E-03	9.234760E-05
3.220054E+03	4.182532E-03	9.457623E-05
3.229961E+03	4.288804E-03	9.689714E-05
3.239869E+03	4.399556E-03	9.931467E-05
3.249777E+03	4.514685E-03	1.018262E-04
3.259685E+03	4.634343E-03	1.044350E-04
3.269593E+03	4.758496E-03	1.071398E-04
3.279501E+03	4.886920E-03	1.099354E-04
3.289409E+03	5.019624E-03	1.128216E-04
3.299316E+03	5.156415E-03	1.157939E-04
3.309224E+03	5.296950E-03	1.188442E-04
3.319132E+03	5.440887E-03	1.219647E-04
3.329040E+03	5.587805E-03	1.251456E-04
3.338948E+03	5.737193E-03	1.283753E-04
3.348856E+03	5.888461E-03	1.316404E-04
3.358763E+03	6.040928E-03	1.349256E-04
3.368671E+03	6.193758E-03	1.382120E-04
3.378579E+03	6.346038E-03	1.414793E-04
3.388487E+03	6.497035E-03	1.447110E-04
3.398395E+03	6.645567E-03	1.478810E-04
3.408303E+03	6.790751E-03	1.509698E-04
3.418211E+03	6.931529E-03	1.539539E-04
3.428118E+03	7.066951E-03	1.568125E-04
3.438026E+03	7.195937E-03	1.595220E-04
3.447934E+03	7.317561E-03	1.620623E-04
3.457842E+03	7.431075E-03	1.644173E-04
3.467750E+03	7.535677E-03	1.665696E-04
3.477658E+03	7.630856E-03	1.685086E-04
3.487566E+03	7.715907E-03	1.702193E-04
3.497473E+03	7.790592E-03	1.716971E-04
3.507381E+03	7.854539E-03	1.729344E-04
3.517289E+03	7.907556E-03	1.739277E-04
3.527197E+03	7.949507E-03	1.746747E-04
3.537105E+03	7.980112E-03	1.751700E-04
3.547013E+03	7.999408E-03	1.754152E-04
3.556921E+03	8.007158E-03	1.754058E-04
3.566828E+03	8.003101E-03	1.751369E-04
3.576736E+03	7.987208E-03	1.746086E-04
3.586644E+03	7.959176E-03	1.738152E-04
3.596552E+03	7.918963E-03	1.727565E-04
3.606460E+03	7.866726E-03	1.714368E-04
3.616368E+03	7.802939E-03	1.698673E-04
3.626276E+03	7.728510E-03	1.680685E-04
3.636183E+03	7.644884E-03	1.660727E-04
3.646091E+03	7.554169E-03	1.639261E-04
3.655999E+03	7.459072E-03	1.616880E-04
3.665907E+03	7.362792E-03	1.594281E-04
3.675815E+03	7.269248E-03	1.572311E-04
3.685723E+03	7.182363E-03	1.551817E-04
3.695631E+03	7.106509E-03	1.533738E-04
3.705538E+03	7.045989E-03	1.518994E-04
3.715446E+03	7.005125E-03	1.508505E-04
3.725354E+03	6.988252E-03	1.503189E-04
3.735262E+03	6.999256E-03	1.503864E-04
3.745170E+03	7.042156E-03	1.511373E-04
3.755078E+03	7.120730E-03	1.526501E-04
3.764986E+03	7.238370E-03	1.549949E-04
3.774893E+03	7.398434E-03	1.582407E-04
3.784801E+03	7.603843E-03	1.624466E-04
3.794709E+03	7.856843E-03	1.676572E-04
3.804617E+03	8.158957E-03	1.739012E-04
3.814525E+03	8.510819E-03	1.811886E-04
3.824433E+03	8.911307E-03	1.894916E-04
3.834341E+03	9.357792E-03	1.987505E-04
3.844248E+03	9.845410E-03	2.088587E-04
3.854156E+03	1.036707E-02	2.196625E-04
3.864064E+03	1.091330E-02	2.309590E-04
3.873972E+03	1.147226E-02	2.424958E-04
3.883880E+03	1.203050E-02	2.539877E-04
3.893788E+03	1.257353E-02	2.651290E-04
3.903696E+03	1.308639E-02	2.756059E-04
3.913603E+03	1.355482E-02	2.851205E-04
3.923511E+03	1.396625E-02	2.934122E-04
3.933419E+03	1.431048E-02	3.002712E-04
3.943327E+03	1.458052E-02	3.055560E-04
3.953235E+03	1.477293E-02	3.092006E-04
3.963143E+03	1.488806E-02	3.112184E-04
3.973051E+03	1.492967E-02	3.116937E-04
3.982958E+03	1.490503E-02	3.107843E-04
3.992866E+03	1.482403E-02	3.087013E-04
4.002774E+03	1.469844E-02	3.056937E-04
4.012682E+03	1.454074E-02	3.020250E-04
4.022590E+03	1.436341E-02	2.979560E-04
4.032498E+03	1.417812E-02	2.937303E-04
4.042406E+03	1.399487E-02	2.895560E-04
4.052313E+03	1.382172E-02	2.855989E-04
4.062221E+03	1.366427E-02	2.819739E-04
4.072129E+03	1.352585E-02	2.787486E-04
4.082037E+03	1.340743E-02	2.759416E-04
4.091945E+03	1.330804E-02	2.735311E-04
4.101853E+03	1.322526E-02	2.714657E-04
4.111761E+03	1.315549E-02	2.696707E-04
4.121668E+03	1.309467E-02	2.680618E-04
4.131576E+03	1.303836E-02	2.665472E-04
4.141484E+03	1.298246E-02	2.650434E-04
4.151392E+03	1.292316E-02	2.634722E-04
4.161300E+03	1.285758E-02	2.617756E-04
4.171208E+03	1.278338E-02	2.599063E-04
4.181116E+03	1.269930E-02	2.578398E-04
4.191023E+03	1.260476E-02	2.555652E-04
4.200931E+03	1.250054E-02	2.530987E-04
4.210839E+03	1.238788E-02	2.504667E-04
4.220747E+03	1.226924E-02	2.477196E-04
4.230655E+03	1.214739E-02	2.449137E-04
4.240563E+03	1.202580E-02	2.421191E-04
4.250471E+03	1.190871E-02	2.394212E-04
4.260378E+03	1.180031E-02	2.369036E-04
4.270286E+03	1.170549E-02	2.346640E-04
4.280194E+03	1.162877E-02	2.327912E-04
4.290102E+03	1.157492E-02	2.313793E-04
4.300010E+03	1.154803E-02	2.305080E-04
4.309918E+03	1.155165E-02	2.302456E-04
4.319826E+03	1.158878E-02	2.306495E-04
4.329733E+03	1.166163E-02	2.317604E-04
4.339641E+03	1.177185E-02	2.336080E-04
4.349549E+03	1.192017E-02	2.362035E-04
4.359457E+03	1.210715E-02	2.395548E-04
4.369365E+03	1.233271E-02	2.436567E-04
4.379273E+03	1.259634E-02	2.484958E-04
4.389181E+03	1.289705E-02	2.540492E-04
4.399088E+03	1.323333E-02	2.602841E-04
4.408996E+03	1.360256E-02	2.671457E-04
4.418904E+03	1.400115E-02	2.745608E-04
4.428812E+03	1.442395E-02	2.824258E-04
4.438720E+03	1.486418E-02	2.906060E-04
4.448628E+03	1.531324E-02	2.989318E-04
4.458536E+03	1.576115E-02	3.072084E-04
4.468443E+03	1.619663E-02	3.152156E-04
4.478351E+03	1.660795E-02	3.227273E-04
4.488259E+03	1.698283E-02	3.295068E-04
4.498167E+03	1.730965E-02	3.353326E-04
4.508075E+03	1.757780E-02	3.400039E-04
4.517983E+03	1.777797E-02	3.433456E-04
4.527891E+03	1.790349E-02	3.452356E-04
4.537798E+03	1.794989E-02	3.455944E-04
4.547706E+03	1.791611E-02	3.444088E-04
4.557614E+03	1.780390E-02	3.417196E-04
4.567522E+03	1.761869E-02	3.376380E-04
4.577430E+03	1.736842E-02	3.323223E-04
4.587338E+03	1.706218E-02	3.259524E-04
4.597246E+03	1.670758E-02	3.186784E-04
4.607153E+03	1.631308E-02	3.106655E-04
4.617061E+03	1.588756E-02	3.020864E-04
4.626969E+03	1.543777E-02	2.930721E-04
4.636877E+03	1.497164E-02	2.837751E-04
4.646785E+03	1.449757E-02	2.743558E-04
4.656693E+03	1.402250E-02	2.649460E-04
4.666601E+03	1.355409E-02	2.556905E-04
4.676508E+03	1.310011E-02	2.467350E-04
4.686416E+03	1.266625E-02	2.381853E-04
4.696324E+03	1.225836E-02	2.301491E-04
4.706232E+03	1.188162E-02	2.227215E-04
4.716140E+03	1.153952E-02	2.159651E-04
4.726048E+03	1.123503E-02	2.099320E-04
4.735956E+03	1.097047E-02	2.046624E-04
4.745863E+03	1.074654E-02	2.001656E-04
4.755771E+03	1.056327E-02	1.964386E-04
4.765679E+03	1.042045E-02	1.934740E-04
4.775587E+03	1.031599E-02	1.912293E-04
4.785495E+03	1.024762E-02	1.896594E-04
4.795403E+03	1.021292E-02	1.887159E-04
4.805311E+03	1.020810E-02	1.883265E-04
4.815218E+03	1.022909E-02	1.884131E-04
4.825126E+03	1.027188E-02	1.889002E-04
4.835034E+03	1.033151E-02	1.896945E-04
4.844942E+03	1.040325E-02	1.907080E-04
4.854850E+03	1.048199E-02	1.918464E-04
4.864758E+03	1.056153E-02	1.929954E-04
4.874666E+03	1.063589E-02	1.940460E-04
4.884573E+03	1.070026E-02	1.949114E-04
4.894481E+03	1.075032E-02	1.955136E-04
4.904389E+03	1.078363E-02	1.958098E-04
4.914297E+03	1.079996E-02	1.957971E-04
4.924205E+03	1.080044E-02	1.954976E-04
4.934113E+03	1.078851E-02	1.949751E-04
4.944021E+03	1.076931E-02	1.943229E-04
4.953928E+03	1.074819E-02	1.936386E-04
4.963836E+03	1.073124E-02	1.930317E-04
4.973744E+03	1.072449E-02	1.926101E-04
4.983652E+03	1.073195E-02	1.924449E-04
4.993560E+03	1.075677E-02	1.925915E-04
5.003468E+03	1.080131E-02	1.930907E-04
5.013376E+03	1.086675E-02	1.939618E-04
5.023283E+03	1.095340E-02	1.952089E-04
5.033191E+03	1.106084E-02	1.968227E-04
5.043099E+03	1.118807E-02	1.987839E-04
5.053007E+03	1.133387E-02	2.010693E-04
5.062915E+03	1.149707E-02	2.036569E-04
5.072823E+03	1.167655E-02	2.065256E-04
5.082731E+03	1.187156E-02	2.096611E-04
5.092638E+03	1.208158E-02	2.130528E-04
5.102546E+03	1.230525E-02	2.166761E-04
5.112454E+03	1.254131E-02	2.205077E-04
5.122362E+03	1.278762E-02	2.245094E-04
5.132270E+03	1.304063E-02	2.286184E-04
5.142178E+03	1.329564E-02	2.327518E-04
5.152086E+03	1.354742E-02	2.368187E-04
5.161993E+03	1.379003E-02	2.407156E-04
5.171901E+03	1.401736E-02	2.443370E-04
5.181809E+03	1.422337E-02	2.475791E-04
5.191717E+03	1.440311E-02	2.503576E-04
5.201625E+03	1.455236E-02	2.526015E-04
5.211533E+03	1.466866E-02	2.542702E-04
5.221441E+03	1.475127E-02	2.553536E-04
5.231348E+03	1.480138E-02	2.558750E-04
5.241256E+03	1.482171E-02	2.558834E-04
5.251164E+03	1.481579E-02	2.554420E-04
5.261072E+03	1.478831E-02	2.546335E-04
5.270980E+03	1.474423E-02	2.535446E-04
5.280888E+03	1.468722E-02	2.522396E-04
5.290796E+03	1.462030E-02	2.507711E-04
5.300703E+03	1.454671E-02	2.491953E-04
5.310611E+03	1.446848E-02	2.475473E-04
5.320519E+03	1.438649E-02	2.458427E-04
5.330427E+03	1.430139E-02	2.440924E-04
5.340335E+03	1.421106E-02	2.422611E-04
5.350243E+03	1.411303E-02	2.403064E-04
5.360151E+03	1.400420E-02	2.381764E-04
5.370058E+03	1.388090E-02	2.358094E-04
5.379966E+03	1.373939E-02	2.331427E-04
5.389874E+03	1.357797E-02	2.301483E-04
5.399782E+03	1.339827E-02	2.268550E-04
5.409690E+03	1.320395E-02	2.233255E-04
5.419598E+03	1.300011E-02	2.196466E-04
5.429506E+03	1.279534E-02	2.159637E-04
5.439413E+03	1.259554E-02	2.123761E-04
5.449321E+03	1.240172E-02	2.089001E-04
5.459229E+03	1.221422E-02	2.055411E-04
5.469137E+03	1.202875E-02	2.022265E-04
5.479045E+03	1.183830E-02	1.988382E-04
5.488953E+03	1.163923E-02	1.953152E-04
5.498861E+03	1.142798E-02	1.915978E-04
5.508768E+03	1.120203E-02	1.876444E-04
5.518676E+03	1.096113E-02	1.834510E-04
5.528584E+03	1.070613E-02	1.790325E-04
5.538492E+03	1.043913E-02	1.744241E-04
5.548400E+03	1.016416E-02	1.696932E-04
5.558308E+03	9.886982E-03	1.649362E-04
5.568216E+03	9.615313E-03	1.602814E-04
5.578123E+03	9.357625E-03	1.558696E-04
5.588031E+03	9.123701E-03	1.518626E-04
5.597939E+03	8.922939E-03	1.484159E-04
5.607847E+03	8.763641E-03	1.456659E-04
5.617755E+03	8.652749E-03	1.437265E-04
5.627663E+03	8.595420E-03	1.426814E-04
5.637571E+03	8.594058E-03	1.425688E-04
5.647478E+03	8.648909E-03	1.433909E-04
5.657386E+03	8.758439E-03	1.451208E-04
5.667294E+03	8.918789E-03	1.476930E-04
5.677202E+03	9.124034E-03	1.510081E-04
5.687110E+03	9.366803E-03	1.549433E-04
5.697018E+03	9.638220E-03	1.593508E-04
5.706926E+03	9.927864E-03	1.640582E-04
5.716833E+03	1.022467E-02	1.688825E-04
5.726741E+03	1.051838E-02	1.736544E-04
5.736649E+03	1.079885E-02	1.782068E-04
5.746557E+03	1.105674E-02	1.823863E-04
5.756465E+03	1.128622E-02	1.860975E-04
5.766373E+03	1.148319E-02	1.892737E-04
5.776281E+03	1.164476E-02	1.918679E-04
5.786188E+03	1.177006E-02	1.938665E-04
5.796096E+03	1.185957E-02	1.952784E-04
5.806004E+03	1.191466E-02	1.961266E-04
5.815912E+03	1.193864E-02	1.964663E-04
5.825820E+03	1.193550E-02	1.963634E-04
5.835728E+03	1.190937E-02	1.958864E-04
5.845636E+03	1.186482E-02	1.951106E-04
5.855543E+03	1.180633E-02	1.941099E-04
5.865451E+03	1.173868E-02	1.929628E-04
5.875359E+03	1.166450E-02	1.917127E-04
5.885267E+03	1.158660E-02	1.904056E-04
5.895175E+03	1.150714E-02	1.890772E-04
5.905083E+03	1.142583E-02	1.877224E-04
5.914991E+03	1.134159E-02	1.863237E-04
5.924898E+03	1.125297E-02	1.848569E-04
5.934806E+03	1.115742E-02	1.832802E-04
5.944714E+03	1.105201E-02	1.815455E-04
5.954622E+03	1.093362E-02	1.796013E-04
5.964530E+03	1.080168E-02	1.774381E-04
5.974438E+03	1.065539E-02	1.750428E-04
5.984346E+03	1.049447E-02	1.724105E-04
5.994253E+03	1.031873E-02	1.695381E-04
6.004161E+03	1.012879E-02	1.664351E-04
6.014069E+03	9.925065E-03	1.631085E-04
6.023977E+03	9.708961E-03	1.595809E-04
6.033885E+03	9.481755E-03	1.558731E-04
6.043793E+03	9.245476E-03	1.520181E-04
6.053701E+03	9.002895E-03	1.480611E-04
6.063608E+03	8.757521E-03	1.440595E-04
6.073516E+03	8.512125E-03	1.400588E-04
6.083424E+03	8.269594E-03	1.361061E-04
6.093332E+03	8.032772E-03	1.322480E-04
6.103240E+03	7.804741E-03	1.285353E-04
6.113148E+03	7.588369E-03	1.250149E-04
6.123056E+03	7.386689E-03	1.217369E-04
6.132963E+03	7.202478E-03	1.187471E-04
6.142871E+03	7.038768E-03	1.160957E-04
6.152779E+03	6.898138E-03	1.138254E-04
6.162687E+03	6.782680E-03	1.119712E-04
6.172595E+03	6.693894E-03	1.105584E-04
6.182503E+03	6.632842E-03	1.096048E-04
6.192411E+03	6.600338E-03	1.091248E-04
6.202318E+03	6.596119E-03	1.091146E-04
6.212226E+03	6.619733E-03	1.095675E-04
6.222134E+03	6.670411E-03	1.104717E-04
6.232042E+03	6.745153E-03	1.117782E-04
6.241950E+03	6.840322E-03	1.134277E-04
6.251858E+03	6.951927E-03	1.153546E-04
6.261766E+03	7.074338E-03	1.174662E-04
6.271673E+03	7.201555E-03	1.196632E-04
6.281581E+03	7.327393E-03	1.218433E-04
6.291489E+03	7.446676E-03	1.239202E-04
6.301397E+03	7.554734E-03	1.258164E-04
6.311305E+03	7.647699E-03	1.274668E-04
6.321213E+03	7.722426E-03	1.288187E-04
6.331121E+03	7.777398E-03	1.298459E-04
6.341028E+03	7.812693E-03	1.305492E-04
6.350936E+03	7.829496E-03	1.309475E-04
6.360844E+03	7.830965E-03	1.310928E-04
6.370752E+03	7.821832E-03	1.310638E-04
6.380660E+03	7.806792E-03	1.309385E-04
6.390568E+03	7.790927E-03	1.308020E-04
6.400476E+03	7.779376E-03	1.307404E-04
6.410383E+03	7.776169E-03	1.308219E-04
6.420291E+03	7.784388E-03	1.310986E-04
6.430199E+03	7.806537E-03	1.316133E-04
6.440107E+03	7.845668E-03	1.324184E-04
6.450015E+03	7.903744E-03	1.335478E-04
6.459923E+03	7.981407E-03	1.350135E-04
6.469831E+03	8.078956E-03	1.368219E-04
6.479738E+03	8.194636E-03	1.389442E-04
6.489646E+03	8.324933E-03	1.413221E-04
6.499554E+03	8.465225E-03	1.438779E-04
6.509462E+03	8.609340E-03	1.465073E-04
6.519370E+03	8.749627E-03	1.490803E-04
6.529278E+03	8.880382E-03	1.514993E-04
6.539186E+03	8.995998E-03	1.536682E-04
6.549093E+03	9.091216E-03	1.554959E-04
6.559001E+03	9.163663E-03	1.569405E-04
6.568909E+03	9.211423E-03	1.579677E-04
6.578817E+03	9.234013E-03	1.585674E-04
6.588725E+03	9.232032E-03	1.587482E-04
6.598633E+03	9.207157E-03	1.585371E-04
6.608541E+03	9.161243E-03	1.579646E-04
6.618448E+03	9.096811E-03	1.570724E-04
6.628356E+03	9.016550E-03	1.559057E-04
6.638264E+03	8.923043E-03	1.545080E-04
6.648172E+03	8.818433E-03	1.529152E-04
6.658080E+03	8.704744E-03	1.511617E-04
6.667988E+03	8.583585E-03	1.492745E-04
6.677896E+03	8.455910E-03	1.472696E-04
6.687803E+03	8.322473E-03	1.451595E-04
6.697711E+03	8.184109E-03	1.429582E-04
6.707619E+03	8.041804E-03	1.406825E-04
6.717527E+03	7.896991E-03	1.383570E-04
6.727435E+03	7.751370E-03	1.360112E-04
6.737343E+03	7.607630E-03	1.336923E-04
6.747251E+03	7.468960E-03	1.314562E-04
6.757158E+03	7.338238E-03	1.293542E-04
6.767066E+03	7.218739E-03	1.274444E-04
6.776974E+03	7.113570E-03	1.257828E-04
6.786882E+03	7.025528E-03	1.244199E-04
6.796790E+03	6.957196E-03	1.234028E-04
6.806698E+03	6.910400E-03	1.227656E-04
6.816606E+03	6.886580E-03	1.225357E-04
6.826513E+03	6.885375E-03	1.227085E-04
6.836421E+03	6.905439E-03	1.232618E-04
6.846329E+03	6.944861E-03	1.241633E-04
6.856237E+03	7.000092E-03	1.253511E-04
6.866145E+03	7.066692E-03	1.267469E-04
6.876053E+03	7.140048E-03	1.282688E-04
6.885961E+03	7.215651E-03	1.298362E-04
6.895868E+03	7.288849E-03	1.313655E-04
6.905776E+03	7.355683E-03	1.327850E-04
6.915684E+03	7.413555E-03	1.340471E-04
6.925592E+03	7.460743E-03	1.351199E-04
6.935500E+03	7.496134E-03	1.359822E-04
6.945408E+03	7.519946E-03	1.366370E-04
6.955316E+03	7.532478E-03	1.370885E-04
6.965223E+03	7.534811E-03	1.373556E-04
6.975131E+03	7.527642E-03	1.374499E-04
6.985039E+03	7.511944E-03	1.373883E-04
6.994947E+03	7.488995E-03	1.371936E-04
7.004855E+03	7.459805E-03	1.368835E-04
7.014763E+03	7.425398E-03	1.364762E-04
7.024671E+03	7.387241E-03	1.359983E-04
7.034578E+03	7.346361E-03	1.354684E-04
7.044486E+03	7.303678E-03	1.349031E-04
7.054394E+03	7.260287E-03	1.343224E-04
7.064302E+03	7.216880E-03	1.337392E-04
7.074210E+03	7.174284E-03	1.331688E-04
7.084118E+03	7.132936E-03	1.326193E-04
7.094026E+03	7.093710E-03	1.321070E-04
7.103933E+03	7.056994E-03	1.316394E-04
7.113841E+03	7.023413E-03	1.312284E-04
7.123749E+03	6.993131E-03	1.308773E-04
7.133657E+03	6.965820E-03	1.305802E-04
7.143565E+03	6.941387E-03	1.303356E-04
7.153473E+03	6.919383E-03	1.301354E-04
7.163381E+03	6.899299E-03	1.299701E-04
7.173288E+03	6.880695E-03	1.298316E-04
7.183196E+03	6.863338E-03	1.297157E-04
7.193104E+03	6.846923E-03	1.296165E-04
7.203012E+03	6.831425E-03	1.295338E-04
7.212920E+03	6.816627E-03	1.294635E-04
7.222828E+03	6.802075E-03	1.293969E-04
7.232736E+03	6.787618E-03	1.293313E-04
7.242643E+03	6.772337E-03	1.292490E-04
7.252551E+03	6.755433E-03	1.291347E-04
7.262459E+03	6.736460E-03	1.289797E-04
7.272367E+03	6.714261E-03	1.287616E-04
7.282275E+03	6.688333E-03	1.284704E-04
7.292183E+03	6.657848E-03	1.280898E-04
7.302091E+03	6.622366E-03	1.276110E-04
7.311998E+03	6.581596E-03	1.270278E-04
7.321906E+03	6.535107E-03	1.263314E-04
7.331814E+03	6.483045E-03	1.255240E-04
7.341722E+03	6.425454E-03	1.246061E-04
7.351630E+03	6.362690E-03	1.235840E-04
7.361538E+03	6.295016E-03	1.224623E-04
7.371446E+03	6.222862E-03	1.212490E-04
7.381353E+03	6.146874E-03	1.199562E-04
7.391261E+03	6.067008E-03	1.185828E-04
7.401169E+03	5.983576E-03	1.171345E-04
7.411077E+03	5.896834E-03	1.156159E-04
7.420985E+03	5.807180E-03	1.140347E-04
7.430893E+03	5.714886E-03	1.123958E-04
7.440801E+03	5.620452E-03	1.107089E-04
7.450708E+03	5.524623E-03	1.089885E-04
7.460616E+03	5.428471E-03	1.072557E-04
7.470524E+03	5.333280E-03	1.055358E-04
7.480432E+03	5.240710E-03	1.038618E-04
7.490340E+03	5.152398E-03	1.022665E-04
7.500248E+03	5.070904E-03	1.008011E-04
7.510156E+03	4.998797E-03	9.951744E-05
7.520063E+03	4.938934E-03	9.847329E-05
7.529971E+03	4.893949E-03	9.772235E-05
7.539879E+03	4.866301E-03	9.731513E-05
7.549787E+03	4.858016E-03	9.729375E-05
7.559695E+03	4.870590E-03	9.768995E-05
7.569603E+03	4.904152E-03	9.850816E-05
7.579511E+03	4.958412E-03	9.974440E-05
7.589418E+03	5.032110E-03	1.013751E-04
7.599326E+03	5.122918E-03	1.033549E-04
7.609234E+03	5.227153E-03	1.056111E-04
7.619142E+03	5.341530E-03	1.080781E-04
7.629050E+03	5.461910E-03	1.106731E-04
7.638958E+03	5.584141E-03	1.133122E-04
7.648866E+03	5.704617E-03	1.159224E-04
7.658773E+03	5.820100E-03	1.184375E-04
7.668681E+03	5.927924E-03	1.208028E-04
7.678589E+03	6.026003E-03	1.229749E-04
7.688497E+03	6.112928E-03	1.249243E-04
