#wls	flux	fluxerr
1.585257E+03	1.179774E-04	2.399757E-06
1.624889E+03	1.183262E-04	2.402485E-06
1.664520E+03	1.185366E-04	2.402283E-06
1.704151E+03	1.186463E-04	2.399928E-06
1.743783E+03	1.186243E-04	2.394801E-06
1.783414E+03	1.184384E-04	2.386269E-06
1.823046E+03	1.180672E-04	2.373923E-06
1.862677E+03	1.174408E-04	2.356382E-06
1.902309E+03	1.165496E-04	2.333486E-06
1.941940E+03	1.153404E-04	2.304206E-06
1.981571E+03	1.138360E-04	2.269043E-06
2.021203E+03	1.121906E-04	2.231108E-06
2.060834E+03	1.106791E-04	2.195876E-06
2.100466E+03	1.097567E-04	2.172339E-06
2.140097E+03	1.097838E-04	2.167533E-06
2.179729E+03	1.109166E-04	2.184396E-06
2.219360E+03	1.129966E-04	2.219644E-06
2.258991E+03	1.157004E-04	2.266790E-06
2.298623E+03	1.187510E-04	2.320318E-06
2.338254E+03	1.219005E-04	2.375334E-06
2.377886E+03	1.250822E-04	2.430519E-06
2.417517E+03	1.282694E-04	2.485336E-06
2.457149E+03	1.314979E-04	2.540470E-06
2.496780E+03	1.348258E-04	2.597023E-06
2.536411E+03	1.382816E-04	2.655515E-06
2.576043E+03	1.419364E-04	2.717278E-06
2.615674E+03	1.458835E-04	2.784045E-06
2.655306E+03	1.501985E-04	2.857194E-06
2.694937E+03	1.549199E-04	2.937376E-06
2.734569E+03	1.601295E-04	3.026048E-06
2.774200E+03	1.659550E-04	3.125514E-06
2.813831E+03	1.724704E-04	3.237028E-06
2.853463E+03	1.797772E-04	3.362344E-06
2.893094E+03	1.879858E-04	3.503346E-06
2.932726E+03	1.972595E-04	3.662872E-06
2.972357E+03	2.077078E-04	3.842714E-06
2.982265E+03	2.105143E-04	3.891019E-06
2.992173E+03	2.134202E-04	3.941055E-06
3.002081E+03	2.164053E-04	3.992440E-06
3.011989E+03	2.194724E-04	4.045225E-06
3.021896E+03	2.226737E-04	4.100364E-06
3.031804E+03	2.259469E-04	4.156705E-06
3.041712E+03	2.293390E-04	4.215106E-06
3.051620E+03	2.328513E-04	4.275587E-06
3.061528E+03	2.364618E-04	4.337735E-06
3.071436E+03	2.402191E-04	4.402436E-06
3.081344E+03	2.440533E-04	4.468404E-06
3.091251E+03	2.480376E-04	4.536972E-06
3.101159E+03	2.521258E-04	4.607287E-06
3.111067E+03	2.563435E-04	4.679812E-06
3.120975E+03	2.606679E-04	4.754124E-06
3.130883E+03	2.651503E-04	4.831150E-06
3.140791E+03	2.697681E-04	4.910470E-06
3.150699E+03	2.744979E-04	4.991652E-06
3.160606E+03	2.793668E-04	5.075182E-06
3.170514E+03	2.844025E-04	5.161553E-06
3.180422E+03	2.895557E-04	5.249864E-06
3.190330E+03	2.948802E-04	5.341083E-06
3.200238E+03	3.003260E-04	5.434295E-06
3.210146E+03	3.059476E-04	5.530477E-06
3.220054E+03	3.117208E-04	5.629184E-06
3.229961E+03	3.176477E-04	5.730445E-06
3.239869E+03	3.237575E-04	5.834777E-06
3.249777E+03	3.300254E-04	5.941723E-06
3.259685E+03	3.364532E-04	6.051307E-06
3.269593E+03	3.430708E-04	6.164058E-06
3.279501E+03	3.498525E-04	6.279504E-06
3.289409E+03	3.568001E-04	6.397667E-06
3.299316E+03	3.639729E-04	6.519600E-06
3.309224E+03	3.713159E-04	6.644308E-06
3.319132E+03	3.788308E-04	6.771809E-06
3.329040E+03	3.865488E-04	6.902652E-06
3.338948E+03	3.944719E-04	7.036862E-06
3.348856E+03	4.026025E-04	7.174471E-06
3.358763E+03	4.109427E-04	7.315503E-06
3.368671E+03	4.194947E-04	7.459985E-06
3.378579E+03	4.282296E-04	7.607395E-06
3.388487E+03	4.372109E-04	7.758847E-06
3.398395E+03	4.464100E-04	7.913821E-06
3.408303E+03	4.558285E-04	8.072336E-06
3.418211E+03	4.654685E-04	8.234413E-06
3.428118E+03	4.753317E-04	8.400072E-06
3.438026E+03	4.854521E-04	8.569903E-06
3.447934E+03	4.957996E-04	8.743357E-06
3.457842E+03	5.064087E-04	8.921033E-06
3.467750E+03	5.172479E-04	9.102363E-06
3.477658E+03	5.283190E-04	9.287362E-06
3.487566E+03	5.396910E-04	9.477234E-06
3.497473E+03	5.512981E-04	9.670806E-06
3.507381E+03	5.631408E-04	9.868076E-06
3.517289E+03	5.752903E-04	1.007028E-05
3.527197E+03	5.876779E-04	1.027619E-05
3.537105E+03	6.003754E-04	1.048706E-05
3.547013E+03	6.133123E-04	1.070164E-05
3.556921E+03	6.265610E-04	1.092118E-05
3.566828E+03	6.400493E-04	1.114441E-05
3.576736E+03	6.538499E-04	1.137257E-05
3.586644E+03	6.679259E-04	1.160501E-05
3.596552E+03	6.823134E-04	1.184235E-05
3.606460E+03	6.969739E-04	1.208390E-05
3.616368E+03	7.119048E-04	1.232961E-05
3.626276E+03	7.271412E-04	1.258006E-05
3.636183E+03	7.426800E-04	1.283519E-05
3.646091E+03	7.584781E-04	1.309424E-05
3.655999E+03	7.745689E-04	1.335778E-05
3.665907E+03	7.909461E-04	1.362568E-05
3.675815E+03	8.075626E-04	1.389711E-05
3.685723E+03	8.244890E-04	1.417329E-05
3.695631E+03	8.416357E-04	1.445266E-05
3.705538E+03	8.590715E-04	1.473639E-05
3.715446E+03	8.767436E-04	1.502357E-05
3.725354E+03	8.946376E-04	1.531393E-05
3.735262E+03	9.127374E-04	1.560719E-05
3.745170E+03	9.310252E-04	1.590305E-05
3.755078E+03	9.495236E-04	1.620189E-05
3.764986E+03	9.681703E-04	1.650262E-05
3.774893E+03	9.869425E-04	1.680487E-05
3.784801E+03	1.005858E-03	1.710894E-05
3.794709E+03	1.024893E-03	1.741439E-05
3.804617E+03	1.043976E-03	1.772005E-05
3.814525E+03	1.063122E-03	1.802616E-05
3.824433E+03	1.082259E-03	1.833149E-05
3.834341E+03	1.101398E-03	1.863626E-05
3.844248E+03	1.120509E-03	1.893993E-05
3.854156E+03	1.139515E-03	1.924125E-05
3.864064E+03	1.158428E-03	1.954040E-05
3.873972E+03	1.177215E-03	1.983684E-05
3.883880E+03	1.195842E-03	2.013004E-05
3.893788E+03	1.214277E-03	2.041944E-05
3.903696E+03	1.232446E-03	2.070384E-05
3.913603E+03	1.250359E-03	2.098342E-05
3.923511E+03	1.267989E-03	2.125774E-05
3.933419E+03	1.285307E-03	2.152634E-05
3.943327E+03	1.302286E-03	2.178880E-05
3.953235E+03	1.318860E-03	2.204403E-05
3.963143E+03	1.335048E-03	2.229239E-05
3.973051E+03	1.350790E-03	2.253289E-05
3.982958E+03	1.366110E-03	2.276597E-05
3.992866E+03	1.380995E-03	2.299146E-05
4.002774E+03	1.395391E-03	2.320844E-05
4.012682E+03	1.409334E-03	2.341758E-05
4.022590E+03	1.422774E-03	2.361807E-05
4.032498E+03	1.435710E-03	2.380994E-05
4.042406E+03	1.448144E-03	2.399324E-05
4.052313E+03	1.460079E-03	2.416804E-05
4.062221E+03	1.471523E-03	2.433452E-05
4.072129E+03	1.482485E-03	2.449286E-05
4.082037E+03	1.492979E-03	2.464333E-05
4.091945E+03	1.502978E-03	2.478549E-05
4.101853E+03	1.512502E-03	2.491974E-05
4.111761E+03	1.521572E-03	2.504640E-05
4.121668E+03	1.530254E-03	2.516662E-05
4.131576E+03	1.538494E-03	2.527953E-05
4.141484E+03	1.546363E-03	2.538632E-05
4.151392E+03	1.553856E-03	2.548696E-05
4.161300E+03	1.561012E-03	2.558206E-05
4.171208E+03	1.567914E-03	2.567304E-05
4.181116E+03	1.574530E-03	2.575939E-05
4.191023E+03	1.580917E-03	2.584205E-05
4.200931E+03	1.587134E-03	2.592201E-05
4.210839E+03	1.593289E-03	2.600104E-05
4.220747E+03	1.599380E-03	2.607914E-05
4.230655E+03	1.605499E-03	2.615779E-05
4.240563E+03	1.611743E-03	2.623857E-05
4.250471E+03	1.618221E-03	2.632330E-05
4.260378E+03	1.625060E-03	2.641401E-05
4.270286E+03	1.632367E-03	2.651245E-05
4.280194E+03	1.640268E-03	2.662063E-05
4.290102E+03	1.648978E-03	2.674205E-05
4.300010E+03	1.658666E-03	2.687942E-05
4.309918E+03	1.669563E-03	2.703646E-05
4.319826E+03	1.681923E-03	2.721724E-05
4.329733E+03	1.695956E-03	2.742513E-05
4.339641E+03	1.712002E-03	2.766559E-05
4.349549E+03	1.730206E-03	2.794088E-05
4.359457E+03	1.750627E-03	2.825192E-05
4.369365E+03	1.773213E-03	2.859781E-05
4.379273E+03	1.797727E-03	2.897469E-05
4.389181E+03	1.823979E-03	2.937945E-05
4.399088E+03	1.851816E-03	2.980961E-05
4.408996E+03	1.880991E-03	3.026116E-05
4.418904E+03	1.911334E-03	3.073137E-05
4.428812E+03	1.942720E-03	3.121822E-05
4.438720E+03	1.974964E-03	3.171873E-05
4.448628E+03	2.007920E-03	3.223057E-05
4.458536E+03	2.041416E-03	3.275100E-05
4.468443E+03	2.075319E-03	3.327788E-05
4.478351E+03	2.109543E-03	3.380983E-05
4.488259E+03	2.143891E-03	3.434374E-05
4.498167E+03	2.178288E-03	3.487840E-05
4.508075E+03	2.212623E-03	3.541206E-05
4.517983E+03	2.246717E-03	3.594187E-05
4.527891E+03	2.280546E-03	3.646748E-05
4.537798E+03	2.313979E-03	3.698681E-05
4.547706E+03	2.346929E-03	3.749849E-05
4.557614E+03	2.379314E-03	3.800124E-05
4.567522E+03	2.411062E-03	3.849394E-05
4.577430E+03	2.442066E-03	3.897490E-05
4.587338E+03	2.472267E-03	3.944320E-05
4.597246E+03	2.501653E-03	3.989871E-05
4.607153E+03	2.530184E-03	4.034077E-05
4.617061E+03	2.557787E-03	4.076828E-05
4.626969E+03	2.584438E-03	4.118085E-05
4.636877E+03	2.610166E-03	4.157898E-05
4.646785E+03	2.634924E-03	4.196195E-05
4.656693E+03	2.658760E-03	4.233052E-05
4.666601E+03	2.681606E-03	4.268365E-05
4.676508E+03	2.703606E-03	4.302366E-05
4.686416E+03	2.724671E-03	4.334911E-05
4.696324E+03	2.744961E-03	4.366259E-05
4.706232E+03	2.764439E-03	4.396353E-05
4.716140E+03	2.783156E-03	4.425272E-05
4.726048E+03	2.801206E-03	4.453169E-05
4.735956E+03	2.818688E-03	4.480203E-05
4.745863E+03	2.835579E-03	4.506335E-05
4.755771E+03	2.851978E-03	4.531725E-05
4.765679E+03	2.867942E-03	4.556465E-05
4.775587E+03	2.883570E-03	4.580711E-05
4.785495E+03	2.898867E-03	4.604473E-05
4.795403E+03	2.913883E-03	4.627829E-05
4.805311E+03	2.928738E-03	4.650970E-05
4.815218E+03	2.943379E-03	4.673813E-05
4.825126E+03	2.957916E-03	4.696532E-05
4.835034E+03	2.972274E-03	4.719008E-05
4.844942E+03	2.986545E-03	4.741387E-05
4.854850E+03	3.000677E-03	4.763588E-05
4.864758E+03	3.014697E-03	4.785653E-05
4.874666E+03	3.028577E-03	4.807537E-05
4.884573E+03	3.042324E-03	4.829251E-05
4.894481E+03	3.055806E-03	4.850585E-05
4.904389E+03	3.069011E-03	4.871524E-05
4.914297E+03	3.081923E-03	4.892037E-05
4.924205E+03	3.094472E-03	4.912016E-05
4.934113E+03	3.106588E-03	4.931351E-05
4.944021E+03	3.118198E-03	4.949922E-05
4.953928E+03	3.129227E-03	4.967612E-05
4.963836E+03	3.139600E-03	4.984302E-05
4.973744E+03	3.149245E-03	4.999879E-05
4.983652E+03	3.158183E-03	5.014371E-05
4.993560E+03	3.166220E-03	5.027475E-05
5.003468E+03	3.173434E-03	5.039311E-05
5.013376E+03	3.179733E-03	5.049734E-05
5.023283E+03	3.185040E-03	5.058619E-05
5.033191E+03	3.189413E-03	5.066060E-05
5.043099E+03	3.192792E-03	5.071959E-05
5.053007E+03	3.195217E-03	5.076379E-05
5.062915E+03	3.196605E-03	5.079189E-05
5.072823E+03	3.197059E-03	5.080549E-05
5.082731E+03	3.196604E-03	5.080501E-05
5.092638E+03	3.195233E-03	5.079029E-05
5.102546E+03	3.193030E-03	5.076269E-05
5.112454E+03	3.190004E-03	5.072231E-05
5.122362E+03	3.186209E-03	5.067002E-05
5.132270E+03	3.181794E-03	5.060818E-05
5.142178E+03	3.176738E-03	5.053643E-05
5.152086E+03	3.171108E-03	5.045584E-05
5.161993E+03	3.165016E-03	5.036816E-05
5.171901E+03	3.158489E-03	5.027385E-05
5.181809E+03	3.151639E-03	5.017465E-05
5.191717E+03	3.144491E-03	5.007096E-05
5.201625E+03	3.137155E-03	4.996452E-05
5.211533E+03	3.129650E-03	4.985564E-05
5.221441E+03	3.122039E-03	4.974530E-05
5.231348E+03	3.114378E-03	4.963440E-05
5.241256E+03	3.106723E-03	4.952381E-05
5.251164E+03	3.099121E-03	4.941430E-05
5.261072E+03	3.091621E-03	4.930661E-05
5.270980E+03	3.084264E-03	4.920144E-05
5.280888E+03	3.077049E-03	4.909872E-05
5.290796E+03	3.070054E-03	4.899973E-05
5.300703E+03	3.063311E-03	4.890497E-05
5.310611E+03	3.056809E-03	4.881425E-05
5.320519E+03	3.050579E-03	4.872808E-05
5.330427E+03	3.044648E-03	4.864689E-05
5.340335E+03	3.039080E-03	4.857170E-05
5.350243E+03	3.033822E-03	4.850166E-05
5.360151E+03	3.028980E-03	4.843847E-05
5.370058E+03	3.024501E-03	4.838129E-05
5.379966E+03	3.020451E-03	4.833118E-05
5.389874E+03	3.016900E-03	4.828925E-05
5.399782E+03	3.013800E-03	4.825475E-05
5.409690E+03	3.011182E-03	4.822817E-05
5.419598E+03	3.009153E-03	4.821124E-05
5.429506E+03	3.007657E-03	4.820307E-05
5.439413E+03	3.006741E-03	4.820441E-05
5.449321E+03	3.006386E-03	4.821498E-05
5.459229E+03	3.006547E-03	4.823404E-05
5.469137E+03	3.007159E-03	4.826058E-05
5.479045E+03	3.008149E-03	4.829341E-05
5.488953E+03	3.009445E-03	4.833138E-05
5.498861E+03	3.010986E-03	4.837353E-05
5.508768E+03	3.012721E-03	4.841900E-05
5.518676E+03	3.014656E-03	4.846792E-05
5.528584E+03	3.016772E-03	4.851996E-05
5.538492E+03	3.019028E-03	4.857447E-05
5.548400E+03	3.021481E-03	4.863235E-05
5.558308E+03	3.024123E-03	4.869349E-05
5.568216E+03	3.027082E-03	4.875996E-05
5.578123E+03	3.030381E-03	4.883210E-05
5.588031E+03	3.034138E-03	4.891183E-05
5.597939E+03	3.038399E-03	4.899990E-05
5.607847E+03	3.043301E-03	4.909851E-05
5.617755E+03	3.048905E-03	4.920868E-05
5.627663E+03	3.055397E-03	4.933340E-05
5.637571E+03	3.062841E-03	4.947373E-05
5.647478E+03	3.071343E-03	4.963139E-05
5.657386E+03	3.080997E-03	4.980793E-05
5.667294E+03	3.091934E-03	5.000548E-05
5.677202E+03	3.104230E-03	5.022528E-05
5.687110E+03	3.117906E-03	5.046771E-05
5.697018E+03	3.133048E-03	5.073419E-05
5.706926E+03	3.149682E-03	5.102517E-05
5.716833E+03	3.167851E-03	5.134137E-05
5.726741E+03	3.187454E-03	5.168117E-05
5.736649E+03	3.208529E-03	5.204525E-05
5.746557E+03	3.230965E-03	5.243181E-05
5.756465E+03	3.254667E-03	5.283933E-05
5.766373E+03	3.279558E-03	5.326659E-05
5.776281E+03	3.305451E-03	5.371059E-05
5.786188E+03	3.332222E-03	5.416931E-05
5.796096E+03	3.359683E-03	5.463974E-05
5.806004E+03	3.387585E-03	5.511783E-05
5.815912E+03	3.415709E-03	5.560001E-05
5.825820E+03	3.443866E-03	5.608323E-05
5.835728E+03	3.471823E-03	5.656367E-05
5.845636E+03	3.499290E-03	5.703661E-05
5.855543E+03	3.526079E-03	5.749896E-05
5.865451E+03	3.551909E-03	5.794614E-05
5.875359E+03	3.576611E-03	5.837536E-05
5.885267E+03	3.599933E-03	5.878247E-05
5.895175E+03	3.621690E-03	5.916443E-05
5.905083E+03	3.641771E-03	5.951939E-05
5.914991E+03	3.660044E-03	5.984515E-05
5.924898E+03	3.676304E-03	6.013830E-05
5.934806E+03	3.690573E-03	6.039918E-05
5.944714E+03	3.702709E-03	6.062540E-05
5.954622E+03	3.712794E-03	6.081827E-05
5.964530E+03	3.720796E-03	6.097718E-05
5.974438E+03	3.726756E-03	6.110280E-05
5.984346E+03	3.730693E-03	6.119538E-05
5.994253E+03	3.732798E-03	6.125799E-05
6.004161E+03	3.733081E-03	6.129078E-05
6.014069E+03	3.731668E-03	6.129577E-05
6.023977E+03	3.728750E-03	6.127603E-05
6.033885E+03	3.724475E-03	6.123399E-05
6.043793E+03	3.718944E-03	6.117125E-05
6.053701E+03	3.712362E-03	6.109118E-05
6.063608E+03	3.704779E-03	6.099458E-05
6.073516E+03	3.696442E-03	6.088548E-05
6.083424E+03	3.687491E-03	6.076616E-05
6.093332E+03	3.677952E-03	6.063706E-05
6.103240E+03	3.667995E-03	6.050094E-05
6.113148E+03	3.657771E-03	6.036032E-05
6.123056E+03	3.647272E-03	6.021503E-05
6.132963E+03	3.636625E-03	6.006716E-05
6.142871E+03	3.625889E-03	5.991770E-05
6.152779E+03	3.615112E-03	5.976743E-05
6.162687E+03	3.604332E-03	5.961697E-05
6.172595E+03	3.593568E-03	5.946666E-05
6.182503E+03	3.582837E-03	5.931675E-05
6.192411E+03	3.572090E-03	5.916645E-05
6.202318E+03	3.561377E-03	5.901658E-05
6.212226E+03	3.550689E-03	5.886700E-05
6.222134E+03	3.540015E-03	5.871751E-05
6.232042E+03	3.529345E-03	5.856796E-05
6.241950E+03	3.518617E-03	5.841732E-05
6.251858E+03	3.507923E-03	5.826711E-05
6.261766E+03	3.497160E-03	5.811564E-05
6.271673E+03	3.486382E-03	5.796377E-05
6.281581E+03	3.475647E-03	5.781250E-05
6.291489E+03	3.464876E-03	5.766051E-05
6.301397E+03	3.454148E-03	5.750910E-05
6.311305E+03	3.443552E-03	5.735976E-05
6.321213E+03	3.433041E-03	5.721171E-05
6.331121E+03	3.422775E-03	5.706762E-05
6.341028E+03	3.412777E-03	5.692790E-05
6.350936E+03	3.403135E-03	5.679400E-05
6.360844E+03	3.393991E-03	5.666833E-05
6.370752E+03	3.385406E-03	5.655188E-05
6.380660E+03	3.377543E-03	5.644743E-05
6.390568E+03	3.370481E-03	5.635629E-05
6.400476E+03	3.364403E-03	5.628155E-05
6.410383E+03	3.359449E-03	5.622559E-05
6.420291E+03	3.355768E-03	5.619092E-05
6.430199E+03	3.353511E-03	5.618011E-05
6.440107E+03	3.352832E-03	5.619578E-05
6.450015E+03	3.353883E-03	5.624052E-05
6.459923E+03	3.356806E-03	5.631674E-05
6.469831E+03	3.361762E-03	5.642720E-05
6.479738E+03	3.368801E-03	5.657278E-05
6.489646E+03	3.377865E-03	5.675260E-05
6.499554E+03	3.388954E-03	5.696666E-05
6.509462E+03	3.401941E-03	5.721292E-05
6.519370E+03	3.416841E-03	5.749165E-05
6.529278E+03	3.433506E-03	5.780043E-05
6.539186E+03	3.451833E-03	5.813757E-05
6.549093E+03	3.471709E-03	5.850118E-05
6.559001E+03	3.493062E-03	5.889012E-05
6.568909E+03	3.515767E-03	5.930229E-05
6.578817E+03	3.539636E-03	5.973456E-05
6.588725E+03	3.564581E-03	6.018547E-05
6.598633E+03	3.590457E-03	6.065261E-05
6.608541E+03	3.617118E-03	6.113351E-05
6.618448E+03	3.644474E-03	6.162670E-05
6.628356E+03	3.672271E-03	6.212786E-05
6.638264E+03	3.700535E-03	6.263747E-05
6.648172E+03	3.728967E-03	6.315046E-05
6.658080E+03	3.757614E-03	6.366763E-05
6.667988E+03	3.786249E-03	6.418517E-05
6.677896E+03	3.814836E-03	6.470242E-05
6.687803E+03	3.843292E-03	6.521799E-05
6.697711E+03	3.871552E-03	6.573078E-05
6.707619E+03	3.899571E-03	6.624002E-05
6.717527E+03	3.927321E-03	6.674522E-05
6.727435E+03	3.954858E-03	6.724730E-05
6.737343E+03	3.982127E-03	6.774537E-05
6.747251E+03	4.009220E-03	6.824095E-05
6.757158E+03	4.036121E-03	6.873378E-05
6.767066E+03	4.062952E-03	6.922591E-05
6.776974E+03	4.089719E-03	6.971747E-05
6.786882E+03	4.116571E-03	7.021098E-05
6.796790E+03	4.143596E-03	7.070795E-05
6.806698E+03	4.170824E-03	7.120888E-05
6.816606E+03	4.198413E-03	7.171650E-05
6.826513E+03	4.226524E-03	7.223354E-05
6.836421E+03	4.255110E-03	7.275925E-05
6.846329E+03	4.284321E-03	7.329616E-05
6.856237E+03	4.314152E-03	7.384423E-05
6.866145E+03	4.344800E-03	7.440685E-05
6.876053E+03	4.376236E-03	7.498354E-05
6.885961E+03	4.408483E-03	7.557472E-05
6.895868E+03	4.441478E-03	7.617932E-05
6.905776E+03	4.475351E-03	7.679959E-05
6.915684E+03	4.509928E-03	7.743258E-05
6.925592E+03	4.545231E-03	7.807866E-05
6.935500E+03	4.581197E-03	7.873679E-05
6.945408E+03	4.617745E-03	7.940559E-05
6.955316E+03	4.654706E-03	8.008216E-05
6.965223E+03	4.692050E-03	8.076600E-05
6.975131E+03	4.729659E-03	8.145510E-05
6.985039E+03	4.767413E-03	8.214739E-05
6.994947E+03	4.805109E-03	8.283936E-05
7.004855E+03	4.842613E-03	8.352873E-05
7.014763E+03	4.879877E-03	8.421464E-05
7.024671E+03	4.916690E-03	8.489345E-05
7.034578E+03	4.952927E-03	8.556298E-05
7.044486E+03	4.988544E-03	8.622248E-05
7.054394E+03	5.023261E-03	8.686709E-05
7.064302E+03	5.057129E-03	8.749763E-05
7.074210E+03	5.089870E-03	8.810932E-05
7.084118E+03	5.121463E-03	8.870172E-05
7.094026E+03	5.151806E-03	8.927308E-05
7.103933E+03	5.180716E-03	8.982017E-05
7.113841E+03	5.208182E-03	9.034274E-05
7.123749E+03	5.234021E-03	9.083763E-05
7.133657E+03	5.258143E-03	9.130318E-05
7.143565E+03	5.280452E-03	9.173772E-05
7.153473E+03	5.300858E-03	9.213962E-05
7.163381E+03	5.319269E-03	9.250724E-05
7.173288E+03	5.335598E-03	9.283902E-05
7.183196E+03	5.349671E-03	9.313185E-05
7.193104E+03	5.361404E-03	9.338424E-05
7.203012E+03	5.370812E-03	9.359638E-05
7.212920E+03	5.377734E-03	9.376539E-05
7.222828E+03	5.382111E-03	9.389019E-05
7.232736E+03	5.383893E-03	9.396984E-05
7.242643E+03	5.383041E-03	9.400359E-05
7.252551E+03	5.379533E-03	9.399098E-05
7.262459E+03	5.373271E-03	9.393023E-05
7.272367E+03	5.364266E-03	9.382148E-05
7.282275E+03	5.352634E-03	9.366666E-05
7.292183E+03	5.338334E-03	9.346500E-05
7.302091E+03	5.321521E-03	9.321913E-05
7.311998E+03	5.302103E-03	9.292737E-05
7.321906E+03	5.280360E-03	9.259458E-05
7.331814E+03	5.256239E-03	9.221977E-05
7.341722E+03	5.230053E-03	9.180835E-05
7.351630E+03	5.201785E-03	9.135998E-05
7.361538E+03	5.171686E-03	9.087901E-05
7.371446E+03	5.139851E-03	9.036706E-05
7.381353E+03	5.106638E-03	8.983039E-05
7.391261E+03	5.072069E-03	8.926935E-05
7.401169E+03	5.036344E-03	8.868740E-05
7.411077E+03	4.999829E-03	8.809099E-05
7.420985E+03	4.962552E-03	8.748058E-05
7.430893E+03	4.924707E-03	8.685958E-05
7.440801E+03	4.886562E-03	8.623270E-05
7.450708E+03	4.848294E-03	8.560304E-05
7.460616E+03	4.809985E-03	8.497207E-05
7.470524E+03	4.771870E-03	8.434393E-05
7.480432E+03	4.734004E-03	8.371959E-05
7.490340E+03	4.696585E-03	8.310260E-05
7.500248E+03	4.659720E-03	8.249481E-05
7.510156E+03	4.623488E-03	8.189770E-05
7.520063E+03	4.587876E-03	8.131102E-05
7.529971E+03	4.553007E-03	8.073697E-05
7.539879E+03	4.518829E-03	8.017465E-05
7.549787E+03	4.485501E-03	7.962692E-05
7.559695E+03	4.452853E-03	7.909078E-05
7.569603E+03	4.420932E-03	7.856708E-05
7.579511E+03	4.389686E-03	7.805491E-05
7.589418E+03	4.359051E-03	7.755316E-05
7.599326E+03	4.328944E-03	7.706039E-05
7.609234E+03	4.299202E-03	7.657367E-05
7.619142E+03	4.269865E-03	7.609378E-05
7.629050E+03	4.240674E-03	7.561606E-05
7.638958E+03	4.211658E-03	7.514107E-05
7.648866E+03	4.182547E-03	7.466396E-05
7.658773E+03	4.153289E-03	7.418386E-05
7.668681E+03	4.123759E-03	7.369847E-05
7.678589E+03	4.093838E-03	7.320568E-05
7.688497E+03	4.063411E-03	7.270342E-05
