#wls	flux	fluxerr
1.585257E+03	4.826361E-05	3.268708E-06
1.624889E+03	4.857430E-05	3.276197E-06
1.664520E+03	4.884903E-05	3.280798E-06
1.704151E+03	4.907791E-05	3.281868E-06
1.743783E+03	4.926601E-05	3.279777E-06
1.783414E+03	4.938296E-05	3.272540E-06
1.823046E+03	4.942898E-05	3.260230E-06
1.862677E+03	4.937463E-05	3.240975E-06
1.902309E+03	4.919852E-05	3.213470E-06
1.941940E+03	4.888637E-05	3.176904E-06
1.981571E+03	4.845574E-05	3.132550E-06
2.021203E+03	4.794660E-05	3.083104E-06
2.060834E+03	4.750207E-05	3.037805E-06
2.100466E+03	4.729549E-05	3.007614E-06
2.140097E+03	4.750292E-05	3.003407E-06
2.179729E+03	4.817329E-05	3.027796E-06
2.219360E+03	4.926005E-05	3.077336E-06
2.258991E+03	5.061771E-05	3.142493E-06
2.298623E+03	5.211086E-05	3.214562E-06
2.338254E+03	5.365591E-05	3.288224E-06
2.377886E+03	5.519704E-05	3.359980E-06
2.417517E+03	5.672003E-05	3.428937E-06
2.457149E+03	5.822946E-05	3.495356E-06
2.496780E+03	5.974931E-05	3.560645E-06
2.536411E+03	6.127642E-05	3.624567E-06
2.576043E+03	6.284992E-05	3.689374E-06
2.615674E+03	6.447759E-05	3.755417E-06
2.655306E+03	6.618855E-05	3.824266E-06
2.694937E+03	6.798947E-05	3.896148E-06
2.734569E+03	6.988591E-05	3.971210E-06
2.774200E+03	7.193158E-05	4.052299E-06
2.813831E+03	7.410910E-05	4.138179E-06
2.853463E+03	7.646294E-05	4.231070E-06
2.893094E+03	7.898829E-05	4.330392E-06
2.932726E+03	8.173415E-05	4.438494E-06
2.972357E+03	8.472644E-05	4.556371E-06
2.982265E+03	8.551044E-05	4.587177E-06
2.992173E+03	8.631106E-05	4.618626E-06
3.002081E+03	8.712878E-05	4.650735E-06
3.011989E+03	8.796454E-05	4.683546E-06
3.021896E+03	8.882047E-05	4.717165E-06
3.031804E+03	8.971394E-05	4.752503E-06
3.041712E+03	9.061487E-05	4.787953E-06
3.051620E+03	9.153831E-05	4.824305E-06
3.061528E+03	9.248439E-05	4.861556E-06
3.071436E+03	9.345327E-05	4.899704E-06
3.081344E+03	9.446105E-05	4.939580E-06
3.091251E+03	9.547639E-05	4.979534E-06
3.101159E+03	9.651534E-05	5.020394E-06
3.111067E+03	9.757821E-05	5.062168E-06
3.120975E+03	9.868198E-05	5.105723E-06
3.130883E+03	9.979414E-05	5.149362E-06
3.140791E+03	1.009315E-04	5.193948E-06
3.150699E+03	1.020946E-04	5.239496E-06
3.160606E+03	1.033014E-04	5.286907E-06
3.170514E+03	1.045178E-04	5.334435E-06
3.180422E+03	1.057618E-04	5.382978E-06
3.190330E+03	1.070518E-04	5.433463E-06
3.200238E+03	1.083530E-04	5.484106E-06
3.210146E+03	1.096837E-04	5.535828E-06
3.220054E+03	1.110633E-04	5.589587E-06
3.229961E+03	1.124556E-04	5.643553E-06
3.239869E+03	1.138989E-04	5.699626E-06
3.249777E+03	1.153563E-04	5.755943E-06
3.259685E+03	1.168473E-04	5.813475E-06
3.269593E+03	1.183927E-04	5.873230E-06
3.279501E+03	1.199543E-04	5.933295E-06
3.289409E+03	1.215726E-04	5.995666E-06
3.299316E+03	1.232087E-04	6.058395E-06
3.309224E+03	1.249042E-04	6.123520E-06
3.319132E+03	1.266191E-04	6.189054E-06
3.329040E+03	1.283962E-04	6.257078E-06
3.338948E+03	1.301944E-04	6.325564E-06
3.348856E+03	1.320580E-04	6.396647E-06
3.358763E+03	1.339445E-04	6.468244E-06
3.368671E+03	1.358995E-04	6.542541E-06
3.378579E+03	1.378795E-04	6.617421E-06
3.388487E+03	1.399312E-04	6.695104E-06
3.398395E+03	1.420102E-04	6.773437E-06
3.408303E+03	1.441644E-04	6.854692E-06
3.418211E+03	1.463481E-04	6.936662E-06
3.428118E+03	1.486108E-04	7.021671E-06
3.438026E+03	1.509054E-04	7.107472E-06
3.447934E+03	1.532829E-04	7.196436E-06
3.457842E+03	1.557203E-04	7.287457E-06
3.467750E+03	1.581935E-04	7.379377E-06
3.477658E+03	1.607558E-04	7.474659E-06
3.487566E+03	1.633568E-04	7.570923E-06
3.497473E+03	1.660511E-04	7.670685E-06
3.507381E+03	1.688145E-04	7.772776E-06
3.517289E+03	1.716207E-04	7.875965E-06
3.527197E+03	1.745274E-04	7.982869E-06
3.537105E+03	1.774800E-04	8.090954E-06
3.547013E+03	1.805381E-04	8.202905E-06
3.556921E+03	1.836752E-04	8.317474E-06
3.566828E+03	1.868629E-04	8.433349E-06
3.576736E+03	1.901640E-04	8.553328E-06
3.586644E+03	1.935506E-04	8.676112E-06
3.596552E+03	1.969928E-04	8.800320E-06
3.606460E+03	2.005566E-04	8.928874E-06
3.616368E+03	2.041796E-04	9.058947E-06
3.626276E+03	2.079297E-04	9.193520E-06
3.636183E+03	2.117771E-04	9.331214E-06
3.646091E+03	2.156888E-04	9.470545E-06
3.655999E+03	2.197369E-04	9.614639E-06
3.665907E+03	2.238893E-04	9.762030E-06
3.675815E+03	2.281114E-04	9.911178E-06
3.685723E+03	2.324793E-04	1.006534E-05
3.695631E+03	2.369588E-04	1.022299E-05
3.705538E+03	2.415134E-04	1.038249E-05
3.715446E+03	2.462233E-04	1.054726E-05
3.725354E+03	2.510523E-04	1.071569E-05
3.735262E+03	2.559616E-04	1.088607E-05
3.745170E+03	2.610357E-04	1.106195E-05
3.755078E+03	2.662363E-04	1.124164E-05
3.764986E+03	2.715221E-04	1.142336E-05
3.774893E+03	2.769821E-04	1.161080E-05
3.784801E+03	2.825756E-04	1.180219E-05
3.794709E+03	2.882586E-04	1.199564E-05
3.804617E+03	2.941250E-04	1.219502E-05
3.814525E+03	3.001312E-04	1.239844E-05
3.824433E+03	3.062301E-04	1.260391E-05
3.834341E+03	3.125211E-04	1.281547E-05
3.844248E+03	3.189575E-04	1.303115E-05
3.854156E+03	3.254885E-04	1.324880E-05
3.864064E+03	3.322192E-04	1.347267E-05
3.873972E+03	3.390993E-04	1.370065E-05
3.883880E+03	3.460745E-04	1.393049E-05
3.893788E+03	3.532555E-04	1.416660E-05
3.903696E+03	3.605882E-04	1.440673E-05
3.913603E+03	3.680141E-04	1.464852E-05
3.923511E+03	3.756499E-04	1.489657E-05
3.933419E+03	3.834374E-04	1.514848E-05
3.943327E+03	3.913134E-04	1.540173E-05
3.953235E+03	3.994008E-04	1.566111E-05
3.963143E+03	4.076369E-04	1.592410E-05
3.973051E+03	4.159536E-04	1.618800E-05
3.982958E+03	4.244798E-04	1.645781E-05
3.992866E+03	4.330790E-04	1.672816E-05
4.002774E+03	4.418845E-04	1.700418E-05
4.012682E+03	4.508251E-04	1.728310E-05
4.022590E+03	4.598232E-04	1.756189E-05
4.032498E+03	4.690193E-04	1.784590E-05
4.042406E+03	4.782599E-04	1.812928E-05
4.052313E+03	4.876897E-04	1.841748E-05
4.062221E+03	4.971488E-04	1.870444E-05
4.072129E+03	5.067864E-04	1.899577E-05
4.082037E+03	5.165171E-04	1.928825E-05
4.091945E+03	5.262492E-04	1.957844E-05
4.101853E+03	5.361389E-04	1.987219E-05
4.111761E+03	5.460083E-04	2.016289E-05
4.121668E+03	5.560187E-04	2.045651E-05
4.131576E+03	5.659846E-04	2.074624E-05
4.141484E+03	5.760723E-04	2.103822E-05
4.151392E+03	5.860896E-04	2.132543E-05
4.161300E+03	5.962079E-04	2.161417E-05
4.171208E+03	6.062280E-04	2.189724E-05
4.181116E+03	6.163270E-04	2.218110E-05
4.191023E+03	6.262994E-04	2.245840E-05
4.200931E+03	6.362276E-04	2.273218E-05
4.210839E+03	6.462009E-04	2.300567E-05
4.220747E+03	6.560043E-04	2.327129E-05
4.230655E+03	6.658308E-04	2.353597E-05
4.240563E+03	6.754604E-04	2.379201E-05
4.250471E+03	6.850926E-04	2.404652E-05
4.260378E+03	6.945029E-04	2.429172E-05
4.270286E+03	7.037876E-04	2.453109E-05
4.280194E+03	7.130490E-04	2.476829E-05
4.290102E+03	7.220562E-04	2.499538E-05
4.300010E+03	7.309120E-04	2.521606E-05
4.309918E+03	7.397244E-04	2.543415E-05
4.319826E+03	7.482566E-04	2.564159E-05
4.329733E+03	7.566160E-04	2.584222E-05
4.339641E+03	7.647960E-04	2.603593E-05
4.349549E+03	7.729106E-04	2.622669E-05
4.359457E+03	7.807129E-04	2.640624E-05
4.369365E+03	7.883153E-04	2.657851E-05
4.379273E+03	7.957112E-04	2.674342E-05
4.389181E+03	8.030190E-04	2.690505E-05
4.399088E+03	8.099828E-04	2.705493E-05
4.408996E+03	8.167207E-04	2.719715E-05
4.418904E+03	8.232274E-04	2.733167E-05
4.428812E+03	8.294985E-04	2.745845E-05
4.438720E+03	8.356607E-04	2.758181E-05
4.448628E+03	8.414530E-04	2.769323E-05
4.458536E+03	8.470034E-04	2.779707E-05
4.468443E+03	8.523127E-04	2.789342E-05
4.478351E+03	8.573823E-04	2.798239E-05
4.488259E+03	8.622159E-04	2.806415E-05
4.498167E+03	8.668173E-04	2.813889E-05
4.508075E+03	8.711922E-04	2.820683E-05
4.517983E+03	8.753470E-04	2.826822E-05
4.527891E+03	8.792893E-04	2.832334E-05
4.537798E+03	8.830272E-04	2.837250E-05
4.547706E+03	8.865697E-04	2.841599E-05
4.557614E+03	8.899265E-04	2.845418E-05
4.567522E+03	8.931078E-04	2.848738E-05
4.577430E+03	8.961243E-04	2.851597E-05
4.587338E+03	8.989867E-04	2.854030E-05
4.597246E+03	9.017064E-04	2.856073E-05
4.607153E+03	9.041553E-04	2.857321E-05
4.617061E+03	9.066238E-04	2.858694E-05
4.626969E+03	9.089840E-04	2.859786E-05
4.636877E+03	9.112479E-04	2.860633E-05
4.646785E+03	9.134265E-04	2.861270E-05
4.656693E+03	9.155317E-04	2.861731E-05
4.666601E+03	9.174333E-04	2.861608E-05
4.676508E+03	9.194248E-04	2.861818E-05
4.686416E+03	9.213762E-04	2.861949E-05
4.696324E+03	9.231559E-04	2.861593E-05
4.706232E+03	9.250584E-04	2.861660E-05
4.716140E+03	9.269519E-04	2.861737E-05
4.726048E+03	9.287035E-04	2.861412E-05
4.735956E+03	9.306082E-04	2.861591E-05
4.745863E+03	9.325324E-04	2.861859E-05
4.755771E+03	9.343421E-04	2.861800E-05
4.765679E+03	9.363320E-04	2.862316E-05
4.775587E+03	9.382237E-04	2.862549E-05
4.785495E+03	9.403124E-04	2.863397E-05
4.795403E+03	9.423178E-04	2.864001E-05
4.805311E+03	9.445355E-04	2.865257E-05
4.815218E+03	9.466835E-04	2.866303E-05
4.825126E+03	9.490580E-04	2.868033E-05
4.835034E+03	9.513748E-04	2.869582E-05
4.844942E+03	9.539309E-04	2.871841E-05
4.854850E+03	9.564401E-04	2.873945E-05
4.864758E+03	9.590534E-04	2.876343E-05
4.874666E+03	9.619223E-04	2.879483E-05
4.884573E+03	9.647581E-04	2.882497E-05
4.894481E+03	9.677114E-04	2.885829E-05
4.904389E+03	9.709341E-04	2.889927E-05
4.914297E+03	9.741340E-04	2.893916E-05
4.924205E+03	9.774618E-04	2.898239E-05
4.934113E+03	9.809204E-04	2.902900E-05
4.944021E+03	9.846625E-04	2.908343E-05
4.953928E+03	9.883904E-04	2.913685E-05
4.963836E+03	9.922559E-04	2.919368E-05
4.973744E+03	9.962600E-04	2.925390E-05
4.983652E+03	1.000404E-03	2.931749E-05
4.993560E+03	1.004689E-03	2.938443E-05
5.003468E+03	1.009115E-03	2.945466E-05
5.013376E+03	1.013683E-03	2.952814E-05
5.023283E+03	1.018391E-03	2.960481E-05
5.033191E+03	1.023241E-03	2.968459E-05
5.043099E+03	1.028229E-03	2.976739E-05
5.053007E+03	1.033357E-03	2.985313E-05
5.062915E+03	1.038621E-03	2.994171E-05
5.072823E+03	1.044020E-03	3.003301E-05
5.082731E+03	1.049551E-03	3.012689E-05
5.092638E+03	1.055213E-03	3.022325E-05
5.102546E+03	1.061001E-03	3.032193E-05
5.112454E+03	1.066912E-03	3.042277E-05
5.122362E+03	1.072943E-03	3.052563E-05
5.132270E+03	1.078927E-03	3.062569E-05
5.142178E+03	1.085184E-03	3.073204E-05
5.152086E+03	1.091548E-03	3.083986E-05
5.161993E+03	1.098013E-03	3.094896E-05
5.171901E+03	1.104407E-03	3.105444E-05
5.181809E+03	1.111058E-03	3.116548E-05
5.191717E+03	1.117794E-03	3.127718E-05
5.201625E+03	1.124438E-03	3.138457E-05
5.211533E+03	1.131324E-03	3.149691E-05
5.221441E+03	1.138274E-03	3.160923E-05
5.231348E+03	1.145111E-03	3.171652E-05
5.241256E+03	1.152172E-03	3.182810E-05
5.251164E+03	1.159103E-03	3.193416E-05
5.261072E+03	1.166245E-03	3.204409E-05
5.270980E+03	1.173242E-03	3.214799E-05
5.280888E+03	1.180439E-03	3.225534E-05
5.290796E+03	1.187473E-03	3.235619E-05
5.300703E+03	1.194696E-03	3.246009E-05
5.310611E+03	1.201741E-03	3.255704E-05
5.320519E+03	1.208964E-03	3.265666E-05
5.330427E+03	1.215995E-03	3.274893E-05
5.340335E+03	1.223010E-03	3.283859E-05
5.350243E+03	1.230190E-03	3.293046E-05
5.360151E+03	1.237159E-03	3.301448E-05
5.370058E+03	1.244099E-03	3.309548E-05
5.379966E+03	1.251195E-03	3.317836E-05
5.389874E+03	1.258067E-03	3.325307E-05
5.399782E+03	1.264902E-03	3.332451E-05
5.409690E+03	1.271697E-03	3.339265E-05
5.419598E+03	1.278453E-03	3.345747E-05
5.429506E+03	1.285363E-03	3.352400E-05
5.439413E+03	1.292039E-03	3.358215E-05
5.449321E+03	1.298674E-03	3.363693E-05
5.459229E+03	1.305268E-03	3.368832E-05
5.469137E+03	1.311817E-03	3.373627E-05
5.479045E+03	1.318320E-03	3.378076E-05
5.488953E+03	1.324777E-03	3.382176E-05
5.498861E+03	1.331187E-03	3.385928E-05
5.508768E+03	1.337549E-03	3.389332E-05
5.518676E+03	1.343866E-03	3.392390E-05
5.528584E+03	1.350137E-03	3.395106E-05
5.538492E+03	1.356365E-03	3.397486E-05
5.548400E+03	1.362552E-03	3.399536E-05
5.558308E+03	1.368703E-03	3.401265E-05
5.568216E+03	1.374821E-03	3.402686E-05
5.578123E+03	1.380911E-03	3.403810E-05
5.588031E+03	1.386979E-03	3.404651E-05
5.597939E+03	1.392822E-03	3.404714E-05
5.607847E+03	1.398862E-03	3.405038E-05
5.617755E+03	1.404900E-03	3.405129E-05
5.627663E+03	1.410941E-03	3.405005E-05
5.637571E+03	1.416995E-03	3.404685E-05
5.647478E+03	1.422855E-03	3.403679E-05
5.657386E+03	1.428956E-03	3.403028E-05
5.667294E+03	1.435093E-03	3.402241E-05
5.677202E+03	1.441058E-03	3.400829E-05
5.687110E+03	1.447292E-03	3.399834E-05
5.697018E+03	1.453588E-03	3.398764E-05
5.706926E+03	1.459735E-03	3.397132E-05
5.716833E+03	1.466178E-03	3.395977E-05
5.726741E+03	1.472710E-03	3.394809E-05
5.736649E+03	1.479114E-03	3.393139E-05
5.746557E+03	1.485844E-03	3.392004E-05
5.756465E+03	1.492461E-03	3.390405E-05
5.766373E+03	1.499419E-03	3.389377E-05
5.776281E+03	1.506279E-03	3.387922E-05
5.786188E+03	1.513497E-03	3.387072E-05
5.796096E+03	1.520628E-03	3.385828E-05
5.806004E+03	1.528133E-03	3.385221E-05
5.815912E+03	1.535560E-03	3.384252E-05
5.825820E+03	1.543144E-03	3.383441E-05
5.835728E+03	1.551122E-03	3.383309E-05
5.845636E+03	1.559035E-03	3.382854E-05
5.855543E+03	1.567354E-03	3.383104E-05
5.865451E+03	1.575613E-03	3.383054E-05
5.875359E+03	1.584049E-03	3.383223E-05
5.885267E+03	1.592903E-03	3.384127E-05
5.895175E+03	1.601702E-03	3.384762E-05
5.905083E+03	1.610685E-03	3.385641E-05
5.914991E+03	1.619851E-03	3.386774E-05
5.924898E+03	1.629444E-03	3.388673E-05
5.934806E+03	1.638978E-03	3.390332E-05
5.944714E+03	1.648694E-03	3.392261E-05
5.954622E+03	1.658588E-03	3.394467E-05
5.964530E+03	1.668659E-03	3.396953E-05
5.974438E+03	1.679154E-03	3.400231E-05
5.984346E+03	1.689567E-03	3.403287E-05
5.994253E+03	1.700141E-03	3.406633E-05
6.004161E+03	1.710871E-03	3.410269E-05
6.014069E+03	1.721749E-03	3.414198E-05
6.023977E+03	1.732766E-03	3.418419E-05
6.033885E+03	1.743914E-03	3.422934E-05
6.043793E+03	1.755181E-03	3.427741E-05
6.053701E+03	1.766556E-03	3.432840E-05
6.063608E+03	1.778027E-03	3.438231E-05
6.073516E+03	1.789580E-03	3.443911E-05
6.083424E+03	1.801200E-03	3.449877E-05
6.093332E+03	1.812872E-03	3.456130E-05
6.103240E+03	1.824578E-03	3.462665E-05
6.113148E+03	1.836299E-03	3.469476E-05
6.123056E+03	1.848019E-03	3.476565E-05
6.132963E+03	1.859716E-03	3.483926E-05
6.142871E+03	1.871367E-03	3.491550E-05
6.152779E+03	1.882953E-03	3.499441E-05
6.162687E+03	1.894446E-03	3.507586E-05
6.172595E+03	1.905540E-03	3.515457E-05
6.182503E+03	1.916777E-03	3.524099E-05
6.192411E+03	1.927846E-03	3.532979E-05
6.202318E+03	1.938721E-03	3.542091E-05
6.212226E+03	1.949372E-03	3.551426E-05
6.222134E+03	1.959772E-03	3.560978E-05
6.232042E+03	1.969597E-03	3.570204E-05
6.241950E+03	1.979404E-03	3.580164E-05
6.251858E+03	1.988871E-03	3.590314E-05
6.261766E+03	1.997964E-03	3.600642E-05
6.271673E+03	2.006357E-03	3.610601E-05
6.281581E+03	2.014615E-03	3.621256E-05
6.291489E+03	2.022410E-03	3.632059E-05
6.301397E+03	2.029408E-03	3.642448E-05
6.311305E+03	2.036186E-03	3.653505E-05
6.321213E+03	2.042414E-03	3.664669E-05
6.331121E+03	2.047756E-03	3.675377E-05
6.341028E+03	2.052801E-03	3.686717E-05
6.350936E+03	2.057214E-03	3.698119E-05
6.360844E+03	2.060664E-03	3.709014E-05
6.370752E+03	2.063743E-03	3.720492E-05
6.380660E+03	2.065817E-03	3.731428E-05
6.390568E+03	2.067482E-03	3.742915E-05
6.400476E+03	2.068103E-03	3.753794E-05
6.410383E+03	2.068283E-03	3.765133E-05
6.420291E+03	2.067392E-03	3.775755E-05
6.430199E+03	2.066035E-03	3.786728E-05
6.440107E+03	2.063893E-03	3.797435E-05
6.450015E+03	2.060649E-03	3.807244E-05
6.459923E+03	2.056610E-03	3.816673E-05
6.469831E+03	2.052079E-03	3.826236E-05
6.479738E+03	2.046451E-03	3.834756E-05
6.489646E+03	2.040345E-03	3.843337E-05
6.499554E+03	2.033168E-03	3.850802E-05
6.509462E+03	2.025548E-03	3.858279E-05
6.519370E+03	2.016897E-03	3.864591E-05
6.529278E+03	2.007541E-03	3.870296E-05
6.539186E+03	1.997803E-03	3.875951E-05
6.549093E+03	1.987107E-03	3.880382E-05
6.559001E+03	1.976078E-03	3.884741E-05
6.568909E+03	1.964148E-03	3.887849E-05
6.578817E+03	1.951642E-03	3.890279E-05
6.588725E+03	1.938882E-03	3.892613E-05
6.598633E+03	1.925313E-03	3.893678E-05
6.608541E+03	1.911260E-03	3.894059E-05
6.618448E+03	1.896754E-03	3.893761E-05
6.628356E+03	1.882112E-03	3.893379E-05
6.638264E+03	1.866798E-03	3.891750E-05
6.648172E+03	1.851129E-03	3.889475E-05
6.658080E+03	1.835416E-03	3.887153E-05
6.667988E+03	1.819136E-03	3.883635E-05
6.677896E+03	1.802602E-03	3.879526E-05
6.687803E+03	1.785845E-03	3.874851E-05
6.697711E+03	1.768899E-03	3.869634E-05
6.707619E+03	1.752056E-03	3.864483E-05
6.717527E+03	1.734820E-03	3.858264E-05
6.727435E+03	1.717485E-03	3.851590E-05
6.737343E+03	1.700081E-03	3.844491E-05
6.747251E+03	1.682634E-03	3.836999E-05
6.757158E+03	1.665173E-03	3.829146E-05
6.767066E+03	1.647723E-03	3.820966E-05
6.776974E+03	1.630553E-03	3.813066E-05
6.786882E+03	1.613194E-03	3.804331E-05
6.796790E+03	1.595916E-03	3.795370E-05
6.806698E+03	1.578740E-03	3.786217E-05
6.816606E+03	1.561686E-03	3.776904E-05
6.826513E+03	1.544772E-03	3.767465E-05
6.836421E+03	1.528016E-03	3.757933E-05
6.846329E+03	1.511434E-03	3.748341E-05
6.856237E+03	1.495041E-03	3.738719E-05
6.866145E+03	1.478851E-03	3.729100E-05
6.876053E+03	1.462877E-03	3.719514E-05
6.885961E+03	1.447132E-03	3.709990E-05
6.895868E+03	1.431626E-03	3.700559E-05
6.905776E+03	1.416368E-03	3.691246E-05
6.915684E+03	1.401369E-03	3.682081E-05
6.925592E+03	1.386636E-03	3.673090E-05
6.935500E+03	1.372176E-03	3.664297E-05
6.945408E+03	1.357996E-03	3.655729E-05
6.955316E+03	1.344101E-03	3.647408E-05
6.965223E+03	1.330496E-03	3.639358E-05
6.975131E+03	1.317187E-03	3.631601E-05
6.985039E+03	1.303979E-03	3.623611E-05
6.994947E+03	1.291271E-03	3.616503E-05
7.004855E+03	1.278866E-03	3.609749E-05
7.014763E+03	1.266768E-03	3.603367E-05
7.024671E+03	1.254976E-03	3.597374E-05
7.034578E+03	1.243492E-03	3.591788E-05
7.044486E+03	1.232316E-03	3.586624E-05
7.054394E+03	1.221264E-03	3.581358E-05
7.064302E+03	1.210705E-03	3.577086E-05
7.074210E+03	1.200454E-03	3.573279E-05
7.084118E+03	1.190510E-03	3.569951E-05
7.094026E+03	1.180870E-03	3.567113E-05
7.103933E+03	1.171356E-03	3.564239E-05
7.113841E+03	1.162321E-03	3.562418E-05
7.123749E+03	1.153586E-03	3.561119E-05
7.133657E+03	1.144974E-03	3.559814E-05
7.143565E+03	1.136831E-03	3.559589E-05
7.153473E+03	1.128979E-03	3.559912E-05
7.163381E+03	1.121416E-03	3.560792E-05
7.173288E+03	1.113969E-03	3.561695E-05
7.183196E+03	1.106974E-03	3.563706E-05
7.193104E+03	1.100257E-03	3.566292E-05
7.203012E+03	1.093650E-03	3.568916E-05
7.212920E+03	1.087480E-03	3.572664E-05
7.222828E+03	1.081578E-03	3.576997E-05
7.232736E+03	1.075776E-03	3.581378E-05
7.242643E+03	1.070397E-03	3.586892E-05
7.252551E+03	1.065112E-03	3.592453E-05
7.262459E+03	1.060241E-03	3.599154E-05
7.272367E+03	1.055616E-03	3.606447E-05
7.282275E+03	1.051073E-03	3.613785E-05
7.292183E+03	1.046928E-03	3.622262E-05
7.302091E+03	1.042856E-03	3.630777E-05
7.311998E+03	1.039172E-03	3.640428E-05
7.321906E+03	1.035553E-03	3.650108E-05
7.331814E+03	1.032309E-03	3.660918E-05
7.341722E+03	1.029122E-03	3.671743E-05
7.351630E+03	1.026298E-03	3.683691E-05
7.361538E+03	1.023520E-03	3.695634E-05
7.371446E+03	1.021095E-03	3.708688E-05
7.381353E+03	1.018704E-03	3.721716E-05
7.391261E+03	1.016652E-03	3.735838E-05
7.401169E+03	1.014624E-03	3.749907E-05
7.411077E+03	1.012922E-03	3.765049E-05
7.420985E+03	1.011231E-03	3.780106E-05
7.430893E+03	1.009698E-03	3.795634E-05
7.440801E+03	1.008471E-03	3.812195E-05
7.450708E+03	1.007235E-03	3.828613E-05
7.460616E+03	1.006288E-03	3.846031E-05
7.470524E+03	1.005318E-03	3.863259E-05
7.480432E+03	1.004469E-03	3.880857E-05
7.490340E+03	1.003887E-03	3.899393E-05
7.500248E+03	1.003256E-03	3.917657E-05
7.510156E+03	1.002721E-03	3.936211E-05
7.520063E+03	1.002427E-03	3.955629E-05
7.529971E+03	1.002057E-03	3.974674E-05
7.539879E+03	1.001755E-03	3.993913E-05
7.549787E+03	1.001665E-03	4.013923E-05
7.559695E+03	1.001471E-03	4.033445E-05
7.569603E+03	1.001314E-03	4.053048E-05
7.579511E+03	1.001184E-03	4.072689E-05
7.589418E+03	1.001224E-03	4.092952E-05
7.599326E+03	1.001116E-03	4.112541E-05
7.609234E+03	1.001001E-03	4.132033E-05
7.619142E+03	1.000868E-03	4.151375E-05
7.629050E+03	1.000704E-03	4.170517E-05
7.638958E+03	1.000650E-03	4.190046E-05
7.648866E+03	1.000388E-03	4.208628E-05
7.658773E+03	1.000058E-03	4.226842E-05
7.668681E+03	9.996459E-04	4.244628E-05
7.678589E+03	9.991403E-04	4.261928E-05
7.688497E+03	9.985274E-04	4.278680E-05
