#wls	flux	fluxerr
1.585257E+03	2.780348E-05	2.073384E-06
1.624889E+03	2.797967E-05	2.083312E-06
1.664520E+03	2.813083E-05	2.091253E-06
1.704151E+03	2.826128E-05	2.097531E-06
1.743783E+03	2.835876E-05	2.101242E-06
1.783414E+03	2.842596E-05	2.102595E-06
1.823046E+03	2.844272E-05	2.100108E-06
1.862677E+03	2.840728E-05	2.093670E-06
1.902309E+03	2.829709E-05	2.081642E-06
1.941940E+03	2.811405E-05	2.064192E-06
1.981571E+03	2.785318E-05	2.040986E-06
2.021203E+03	2.755727E-05	2.015187E-06
2.060834E+03	2.729367E-05	1.991727E-06
2.100466E+03	2.716178E-05	1.977830E-06
2.140097E+03	2.726739E-05	1.981118E-06
2.179729E+03	2.764280E-05	2.003814E-06
2.219360E+03	2.825108E-05	2.043106E-06
2.258991E+03	2.901301E-05	2.093150E-06
2.298623E+03	2.985045E-05	2.148227E-06
2.338254E+03	3.070975E-05	2.204431E-06
2.377886E+03	3.156359E-05	2.259781E-06
2.417517E+03	3.240346E-05	2.313655E-06
2.457149E+03	3.323158E-05	2.366203E-06
2.496780E+03	3.405529E-05	2.417939E-06
2.536411E+03	3.488395E-05	2.469511E-06
2.576043E+03	3.572738E-05	2.521591E-06
2.615674E+03	3.660177E-05	2.575293E-06
2.655306E+03	3.750359E-05	2.630329E-06
2.694937E+03	3.844833E-05	2.687745E-06
2.734569E+03	3.945203E-05	2.748608E-06
2.774200E+03	4.050988E-05	2.812520E-06
2.813831E+03	4.163802E-05	2.880535E-06
2.853463E+03	4.285386E-05	2.953774E-06
2.893094E+03	4.415263E-05	3.031816E-06
2.932726E+03	4.556096E-05	3.116388E-06
2.972357E+03	4.707489E-05	3.207099E-06
2.982265E+03	4.747684E-05	3.231196E-06
2.992173E+03	4.788697E-05	3.255774E-06
3.002081E+03	4.829695E-05	3.280263E-06
3.011989E+03	4.872435E-05	3.305857E-06
3.021896E+03	4.916180E-05	3.332052E-06
3.031804E+03	4.960171E-05	3.358329E-06
3.041712E+03	5.006159E-05	3.385873E-06
3.051620E+03	5.053271E-05	3.414090E-06
3.061528E+03	5.100603E-05	3.442364E-06
3.071436E+03	5.149966E-05	3.471916E-06
3.081344E+03	5.200467E-05	3.502141E-06
3.091251E+03	5.251185E-05	3.532414E-06
3.101159E+03	5.303991E-05	3.563992E-06
3.111067E+03	5.357022E-05	3.595619E-06
3.120975E+03	5.412190E-05	3.628575E-06
3.130883E+03	5.468572E-05	3.662236E-06
3.140791E+03	5.525208E-05	3.695959E-06
3.150699E+03	5.584074E-05	3.731059E-06
3.160606E+03	5.644223E-05	3.766899E-06
3.170514E+03	5.704670E-05	3.802821E-06
3.180422E+03	5.767458E-05	3.840181E-06
3.190330E+03	5.831618E-05	3.878328E-06
3.200238E+03	5.896133E-05	3.916584E-06
3.210146E+03	5.963121E-05	3.956352E-06
3.220054E+03	6.031582E-05	3.996961E-06
3.229961E+03	6.101554E-05	4.038432E-06
3.239869E+03	6.171982E-05	4.080064E-06
3.249777E+03	6.245083E-05	4.123318E-06
3.259685E+03	6.319819E-05	4.167501E-06
3.269593E+03	6.395101E-05	4.211891E-06
3.279501E+03	6.473229E-05	4.257998E-06
3.289409E+03	6.553129E-05	4.305110E-06
3.299316E+03	6.633677E-05	4.352482E-06
3.309224E+03	6.717261E-05	4.401676E-06
3.319132E+03	6.802773E-05	4.451958E-06
3.329040E+03	6.889046E-05	4.502559E-06
3.338948E+03	6.978563E-05	4.555097E-06
3.348856E+03	7.070179E-05	4.608815E-06
3.358763E+03	7.162684E-05	4.662919E-06
3.368671E+03	7.258660E-05	4.719084E-06
3.378579E+03	7.356920E-05	4.776527E-06
3.388487E+03	7.456209E-05	4.834429E-06
3.398395E+03	7.559218E-05	4.894526E-06
3.408303E+03	7.664713E-05	4.956010E-06
3.418211E+03	7.772766E-05	5.018918E-06
3.428118E+03	7.882056E-05	5.082390E-06
3.438026E+03	7.995428E-05	5.148253E-06
3.447934E+03	8.111585E-05	5.215659E-06
3.457842E+03	8.229150E-05	5.283716E-06
3.467750E+03	8.351095E-05	5.354322E-06
3.477658E+03	8.476070E-05	5.426599E-06
3.487566E+03	8.602639E-05	5.499619E-06
3.497473E+03	8.733910E-05	5.575359E-06
3.507381E+03	8.868475E-05	5.652905E-06
3.517289E+03	9.006426E-05	5.732305E-06
3.527197E+03	9.146240E-05	5.812580E-06
3.537105E+03	9.291224E-05	5.895819E-06
3.547013E+03	9.439884E-05	5.981059E-06
3.556921E+03	9.590627E-05	6.067279E-06
3.566828E+03	9.746921E-05	6.156660E-06
3.576736E+03	9.907201E-05	6.248197E-06
3.586644E+03	1.006980E-04	6.340825E-06
3.596552E+03	1.023835E-04	6.436821E-06
3.606460E+03	1.041123E-04	6.535137E-06
3.616368E+03	1.058853E-04	6.635828E-06
3.626276E+03	1.076849E-04	6.737764E-06
3.636183E+03	1.095498E-04	6.843361E-06
3.646091E+03	1.114627E-04	6.951506E-06
3.655999E+03	1.134047E-04	7.061013E-06
3.665907E+03	1.154168E-04	7.174413E-06
3.675815E+03	1.174806E-04	7.290542E-06
3.685723E+03	1.195763E-04	7.408148E-06
3.695631E+03	1.217469E-04	7.529886E-06
3.705538E+03	1.239732E-04	7.654538E-06
3.715446E+03	1.262340E-04	7.780779E-06
3.725354E+03	1.285752E-04	7.911411E-06
3.735262E+03	1.309760E-04	8.045129E-06
3.745170E+03	1.334378E-04	8.181998E-06
3.755078E+03	1.359380E-04	8.320611E-06
3.764986E+03	1.385257E-04	8.463945E-06
3.774893E+03	1.411785E-04	8.610607E-06
3.784801E+03	1.438725E-04	8.759112E-06
3.794709E+03	1.466595E-04	8.912590E-06
3.804617E+03	1.495156E-04	9.069561E-06
3.814525E+03	1.524158E-04	9.228472E-06
3.824433E+03	1.554143E-04	9.392588E-06
3.834341E+03	1.584864E-04	9.560368E-06
3.844248E+03	1.616331E-04	9.731857E-06
3.854156E+03	1.648267E-04	9.905350E-06
3.864064E+03	1.681262E-04	1.008436E-05
3.873972E+03	1.715041E-04	1.026721E-05
3.883880E+03	1.749308E-04	1.045209E-05
3.893788E+03	1.784685E-04	1.064268E-05
3.903696E+03	1.820880E-04	1.083721E-05
3.913603E+03	1.857575E-04	1.103375E-05
3.923511E+03	1.895427E-04	1.123616E-05
3.933419E+03	1.934123E-04	1.144256E-05
3.943327E+03	1.973324E-04	1.165089E-05
3.953235E+03	2.013723E-04	1.186522E-05
3.963143E+03	2.054982E-04	1.208351E-05
3.973051E+03	2.096739E-04	1.230359E-05
3.982958E+03	2.139725E-04	1.252972E-05
3.992866E+03	2.183577E-04	1.275972E-05
4.002774E+03	2.227903E-04	1.299128E-05
4.012682E+03	2.273476E-04	1.322885E-05
4.022590E+03	2.319905E-04	1.347012E-05
4.032498E+03	2.366767E-04	1.371258E-05
4.042406E+03	2.414875E-04	1.396092E-05
4.052313E+03	2.463807E-04	1.421265E-05
4.062221E+03	2.513106E-04	1.446509E-05
4.072129E+03	2.563628E-04	1.472314E-05
4.082037E+03	2.614916E-04	1.498411E-05
4.091945E+03	2.666476E-04	1.524515E-05
4.101853E+03	2.719205E-04	1.551136E-05
4.111761E+03	2.772610E-04	1.577986E-05
4.121668E+03	2.826155E-04	1.604758E-05
4.131576E+03	2.880780E-04	1.631982E-05
4.141484E+03	2.935949E-04	1.659352E-05
4.151392E+03	2.991084E-04	1.686536E-05
4.161300E+03	3.047163E-04	1.714085E-05
4.171208E+03	3.103608E-04	1.741668E-05
4.181116E+03	3.159792E-04	1.768933E-05
4.191023E+03	3.216734E-04	1.796449E-05
4.200931E+03	3.273806E-04	1.823860E-05
4.210839E+03	3.330334E-04	1.850791E-05
4.220747E+03	3.387375E-04	1.877830E-05
4.230655E+03	3.444253E-04	1.904598E-05
4.240563E+03	3.500242E-04	1.930696E-05
4.250471E+03	3.556445E-04	1.956731E-05
4.260378E+03	3.611503E-04	1.981957E-05
4.270286E+03	3.666547E-04	2.006996E-05
4.280194E+03	3.720827E-04	2.031437E-05
4.290102E+03	3.773553E-04	2.054854E-05
4.300010E+03	3.825913E-04	2.077895E-05
4.309918E+03	3.877134E-04	2.100143E-05
4.319826E+03	3.926413E-04	2.121168E-05
4.329733E+03	3.975012E-04	2.141658E-05
4.339641E+03	4.021457E-04	2.160821E-05
4.349549E+03	4.067070E-04	2.179376E-05
4.359457E+03	4.111098E-04	2.196922E-05
4.369365E+03	4.152770E-04	2.213055E-05
4.379273E+03	4.193511E-04	2.228541E-05
4.389181E+03	4.231853E-04	2.242605E-05
4.399088E+03	4.269282E-04	2.256044E-05
4.408996E+03	4.305086E-04	2.268484E-05
4.418904E+03	4.338546E-04	2.279555E-05
4.428812E+03	4.371218E-04	2.290082E-05
4.438720E+03	4.401636E-04	2.299302E-05
4.448628E+03	4.431398E-04	2.308057E-05
4.458536E+03	4.459804E-04	2.315985E-05
4.468443E+03	4.486142E-04	2.322724E-05
4.478351E+03	4.512050E-04	2.329129E-05
4.488259E+03	4.536028E-04	2.334429E-05
4.498167E+03	4.559735E-04	2.339483E-05
4.508075E+03	4.581657E-04	2.343518E-05
4.517983E+03	4.603467E-04	2.347395E-05
4.527891E+03	4.624445E-04	2.350748E-05
4.537798E+03	4.643850E-04	2.353205E-05
4.547706E+03	4.663375E-04	2.355629E-05
4.557614E+03	4.681468E-04	2.357236E-05
4.567522E+03	4.699829E-04	2.358888E-05
4.577430E+03	4.716888E-04	2.359796E-05
4.587338E+03	4.734357E-04	2.360820E-05
4.597246E+03	4.751480E-04	2.361582E-05
4.607153E+03	4.767490E-04	2.361705E-05
4.617061E+03	4.784110E-04	2.362042E-05
4.626969E+03	4.799730E-04	2.361800E-05
4.636877E+03	4.816085E-04	2.361833E-05
4.646785E+03	4.831552E-04	2.361344E-05
4.656693E+03	4.847870E-04	2.361185E-05
4.666601E+03	4.863404E-04	2.360557E-05
4.676508E+03	4.879902E-04	2.360309E-05
4.686416E+03	4.895711E-04	2.359641E-05
4.696324E+03	4.912590E-04	2.359398E-05
4.706232E+03	4.928873E-04	2.358779E-05
4.716140E+03	4.946323E-04	2.358628E-05
4.726048E+03	4.963266E-04	2.358141E-05
4.735956E+03	4.981469E-04	2.358159E-05
4.745863E+03	4.999241E-04	2.357877E-05
4.755771E+03	5.018367E-04	2.358134E-05
4.765679E+03	5.037136E-04	2.358125E-05
4.775587E+03	5.057342E-04	2.358686E-05
4.785495E+03	5.077261E-04	2.359008E-05
4.795403E+03	5.098696E-04	2.359928E-05
4.805311E+03	5.119910E-04	2.360635E-05
4.815218E+03	5.142716E-04	2.361965E-05
4.825126E+03	5.165357E-04	2.363103E-05
4.835034E+03	5.189665E-04	2.364886E-05
4.844942E+03	5.213863E-04	2.366497E-05
4.854850E+03	5.239794E-04	2.368770E-05
4.864758E+03	5.265665E-04	2.370888E-05
4.874666E+03	5.293334E-04	2.373684E-05
4.884573E+03	5.320989E-04	2.376338E-05
4.894481E+03	5.350503E-04	2.379684E-05
4.904389E+03	5.380040E-04	2.382898E-05
4.914297E+03	5.410553E-04	2.386398E-05
4.924205E+03	5.443010E-04	2.390606E-05
4.934113E+03	5.475540E-04	2.394691E-05
4.944021E+03	5.510068E-04	2.399490E-05
4.953928E+03	5.544697E-04	2.404171E-05
4.963836E+03	5.581371E-04	2.409569E-05
4.973744E+03	5.618167E-04	2.414849E-05
4.983652E+03	5.656068E-04	2.420429E-05
4.993560E+03	5.696078E-04	2.426729E-05
5.003468E+03	5.736231E-04	2.432905E-05
5.013376E+03	5.778531E-04	2.439800E-05
5.023283E+03	5.820982E-04	2.446563E-05
5.033191E+03	5.865609E-04	2.454041E-05
5.043099E+03	5.910387E-04	2.461376E-05
5.053007E+03	5.956332E-04	2.468989E-05
5.062915E+03	6.004489E-04	2.477304E-05
5.072823E+03	6.052781E-04	2.485454E-05
5.082731E+03	6.102241E-04	2.493861E-05
5.092638E+03	6.153935E-04	2.502950E-05
5.102546E+03	6.205726E-04	2.511844E-05
5.112454E+03	6.259755E-04	2.521405E-05
5.122362E+03	6.313842E-04	2.530744E-05
5.132270E+03	6.369055E-04	2.540286E-05
5.142178E+03	6.426492E-04	2.550462E-05
5.152086E+03	6.483910E-04	2.560372E-05
5.161993E+03	6.542393E-04	2.570441E-05
5.171901E+03	6.603062E-04	2.581101E-05
5.181809E+03	6.663601E-04	2.591438E-05
5.191717E+03	6.726284E-04	2.602332E-05
5.201625E+03	6.788747E-04	2.612862E-05
5.211533E+03	6.852105E-04	2.623454E-05
5.221441E+03	6.917511E-04	2.634542E-05
5.231348E+03	6.982526E-04	2.645191E-05
5.241256E+03	7.048282E-04	2.655829E-05
5.251164E+03	7.115953E-04	2.666892E-05
5.261072E+03	7.183014E-04	2.677426E-05
5.270980E+03	7.250618E-04	2.687864E-05
5.280888E+03	7.318686E-04	2.698174E-05
5.290796E+03	7.388419E-04	2.708792E-05
5.300703E+03	7.457172E-04	2.718746E-05
5.310611E+03	7.526123E-04	2.728468E-05
5.320519E+03	7.596489E-04	2.738396E-05
5.330427E+03	7.665538E-04	2.747544E-05
5.340335E+03	7.734465E-04	2.756346E-05
5.350243E+03	7.804510E-04	2.765242E-05
5.360151E+03	7.872854E-04	2.773235E-05
5.370058E+03	7.940718E-04	2.780762E-05
5.379966E+03	8.007980E-04	2.787786E-05
5.389874E+03	8.075922E-04	2.794755E-05
5.399782E+03	8.141634E-04	2.800665E-05
5.409690E+03	8.206399E-04	2.805970E-05
5.419598E+03	8.271556E-04	2.811132E-05
5.429506E+03	8.334159E-04	2.815156E-05
5.439413E+03	8.395566E-04	2.818515E-05
5.449321E+03	8.455736E-04	2.821204E-05
5.459229E+03	8.516128E-04	2.823717E-05
5.469137E+03	8.573805E-04	2.825087E-05
5.479045E+03	8.630264E-04	2.825822E-05
5.488953E+03	8.685547E-04	2.825947E-05
5.498861E+03	8.739718E-04	2.825492E-05
5.508768E+03	8.794373E-04	2.824979E-05
5.518676E+03	8.846554E-04	2.823464E-05
5.528584E+03	8.897860E-04	2.821471E-05
5.538492E+03	8.948386E-04	2.819039E-05
5.548400E+03	8.999788E-04	2.816692E-05
5.558308E+03	9.049050E-04	2.813491E-05
5.568216E+03	9.097822E-04	2.809960E-05
5.578123E+03	9.146203E-04	2.806136E-05
5.588031E+03	9.194290E-04	2.802052E-05
5.597939E+03	9.243787E-04	2.798230E-05
5.607847E+03	9.291588E-04	2.793731E-05
5.617755E+03	9.339383E-04	2.789072E-05
5.627663E+03	9.387266E-04	2.784284E-05
5.637571E+03	9.435327E-04	2.779397E-05
5.647478E+03	9.485295E-04	2.774921E-05
5.657386E+03	9.533980E-04	2.769919E-05
5.667294E+03	9.583102E-04	2.764900E-05
5.677202E+03	9.632738E-04	2.759888E-05
5.687110E+03	9.682969E-04	2.754907E-05
5.697018E+03	9.733871E-04	2.749980E-05
5.706926E+03	9.787214E-04	2.745605E-05
5.716833E+03	9.839685E-04	2.740848E-05
5.726741E+03	9.893041E-04	2.736207E-05
5.736649E+03	9.947346E-04	2.731700E-05
5.746557E+03	1.000266E-03	2.727345E-05
5.756465E+03	1.005905E-03	2.723158E-05
5.766373E+03	1.011833E-03	2.719626E-05
5.776281E+03	1.017705E-03	2.715822E-05
5.786188E+03	1.023700E-03	2.712230E-05
5.796096E+03	1.029824E-03	2.708866E-05
5.806004E+03	1.036080E-03	2.705740E-05
5.815912E+03	1.042474E-03	2.702865E-05
5.825820E+03	1.049009E-03	2.700252E-05
5.835728E+03	1.055689E-03	2.697913E-05
5.845636E+03	1.062517E-03	2.695855E-05
5.855543E+03	1.069681E-03	2.694557E-05
5.865451E+03	1.076814E-03	2.693091E-05
5.875359E+03	1.084102E-03	2.691934E-05
5.885267E+03	1.091546E-03	2.691093E-05
5.895175E+03	1.099149E-03	2.690575E-05
5.905083E+03	1.106911E-03	2.690386E-05
5.914991E+03	1.114832E-03	2.690533E-05
5.924898E+03	1.122911E-03	2.691021E-05
5.934806E+03	1.131149E-03	2.691855E-05
5.944714E+03	1.139544E-03	2.693040E-05
5.954622E+03	1.148292E-03	2.695046E-05
5.964530E+03	1.156996E-03	2.696944E-05
5.974438E+03	1.165849E-03	2.699204E-05
5.984346E+03	1.174848E-03	2.701828E-05
5.994253E+03	1.183988E-03	2.704818E-05
6.004161E+03	1.193265E-03	2.708177E-05
6.014069E+03	1.202672E-03	2.711907E-05
6.023977E+03	1.212203E-03	2.716006E-05
6.033885E+03	1.221850E-03	2.720477E-05
6.043793E+03	1.231605E-03	2.725318E-05
6.053701E+03	1.241459E-03	2.730529E-05
6.063608E+03	1.251401E-03	2.736108E-05
6.073516E+03	1.261421E-03	2.742053E-05
6.083424E+03	1.271506E-03	2.748360E-05
6.093332E+03	1.281644E-03	2.755028E-05
6.103240E+03	1.291820E-03	2.762049E-05
6.113148E+03	1.302018E-03	2.769419E-05
6.123056E+03	1.312222E-03	2.777131E-05
6.132963E+03	1.322415E-03	2.785177E-05
6.142871E+03	1.332578E-03	2.793549E-05
6.152779E+03	1.342691E-03	2.802235E-05
6.162687E+03	1.352732E-03	2.811224E-05
6.172595E+03	1.362679E-03	2.820501E-05
6.182503E+03	1.372507E-03	2.830053E-05
6.192411E+03	1.382193E-03	2.839861E-05
6.202318E+03	1.391709E-03	2.849906E-05
6.212226E+03	1.401027E-03	2.860167E-05
6.222134E+03	1.410120E-03	2.870621E-05
6.232042E+03	1.418956E-03	2.881241E-05
6.241950E+03	1.427504E-03	2.891998E-05
6.251858E+03	1.435732E-03	2.902862E-05
6.261766E+03	1.443607E-03	2.913798E-05
6.271673E+03	1.451093E-03	2.924770E-05
6.281581E+03	1.458157E-03	2.935737E-05
6.291489E+03	1.464762E-03	2.946657E-05
6.301397E+03	1.470872E-03	2.957484E-05
6.311305E+03	1.476450E-03	2.968171E-05
6.321213E+03	1.481460E-03	2.978668E-05
6.331121E+03	1.485868E-03	2.988923E-05
6.341028E+03	1.489639E-03	2.998881E-05
6.350936E+03	1.492741E-03	3.008469E-05
6.360844E+03	1.495144E-03	3.017617E-05
6.370752E+03	1.496820E-03	3.026251E-05
6.380660E+03	1.497745E-03	3.034307E-05
6.390568E+03	1.497903E-03	3.041722E-05
6.400476E+03	1.497279E-03	3.048445E-05
6.410383E+03	1.495612E-03	3.053910E-05
6.420291E+03	1.493427E-03	3.059151E-05
6.430199E+03	1.490481E-03	3.063641E-05
6.440107E+03	1.486806E-03	3.067404E-05
6.450015E+03	1.482446E-03	3.070491E-05
6.459923E+03	1.477452E-03	3.072964E-05
6.469831E+03	1.471866E-03	3.074867E-05
6.479738E+03	1.465699E-03	3.076182E-05
6.489646E+03	1.458930E-03	3.076818E-05
6.499554E+03	1.451525E-03	3.076654E-05
6.509462E+03	1.443453E-03	3.075575E-05
6.519370E+03	1.434696E-03	3.073491E-05
6.529278E+03	1.425004E-03	3.069806E-05
6.539186E+03	1.414880E-03	3.065549E-05
6.549093E+03	1.404093E-03	3.060168E-05
6.559001E+03	1.392669E-03	3.053662E-05
6.568909E+03	1.380640E-03	3.046045E-05
6.578817E+03	1.368041E-03	3.037340E-05
6.588725E+03	1.354910E-03	3.027578E-05
6.598633E+03	1.341289E-03	3.016798E-05
6.608541E+03	1.327218E-03	3.005041E-05
6.618448E+03	1.312513E-03	2.991834E-05
6.628356E+03	1.297673E-03	2.978265E-05
6.638264E+03	1.282508E-03	2.963863E-05
6.648172E+03	1.267059E-03	2.948678E-05
6.658080E+03	1.251366E-03	2.932761E-05
6.667988E+03	1.235466E-03	2.916163E-05
6.677896E+03	1.219395E-03	2.898935E-05
6.687803E+03	1.202979E-03	2.880627E-05
6.697711E+03	1.186673E-03	2.862290E-05
6.707619E+03	1.170295E-03	2.843471E-05
6.717527E+03	1.153876E-03	2.824215E-05
6.727435E+03	1.137443E-03	2.804568E-05
6.737343E+03	1.121023E-03	2.784576E-05
6.747251E+03	1.104449E-03	2.763801E-05
6.757158E+03	1.088130E-03	2.743247E-05
6.767066E+03	1.071892E-03	2.722471E-05
6.776974E+03	1.055755E-03	2.701511E-05
6.786882E+03	1.039737E-03	2.680404E-05
6.796790E+03	1.023856E-03	2.659185E-05
6.806698E+03	1.007951E-03	2.637430E-05
6.816606E+03	9.923885E-04	2.616089E-05
6.826513E+03	9.770038E-04	2.594731E-05
6.836421E+03	9.618081E-04	2.573386E-05
6.846329E+03	9.468117E-04	2.552079E-05
6.856237E+03	9.318620E-04	2.530399E-05
6.866145E+03	9.172924E-04	2.509250E-05
6.876053E+03	9.029461E-04	2.488212E-05
6.885961E+03	8.888289E-04	2.467307E-05
6.895868E+03	8.749461E-04	2.446555E-05
6.905776E+03	8.611526E-04	2.425553E-05
6.915684E+03	8.477530E-04	2.405164E-05
6.925592E+03	8.345983E-04	2.384979E-05
6.935500E+03	8.216909E-04	2.365013E-05
6.945408E+03	8.090319E-04	2.345280E-05
6.955316E+03	7.964845E-04	2.325389E-05
6.965223E+03	7.843274E-04	2.306161E-05
6.975131E+03	7.724198E-04	2.287199E-05
6.985039E+03	7.607618E-04	2.268514E-05
6.994947E+03	7.492221E-04	2.249723E-05
7.004855E+03	7.380613E-04	2.231618E-05
7.014763E+03	7.271459E-04	2.213811E-05
7.024671E+03	7.164736E-04	2.196309E-05
7.034578E+03	7.060421E-04	2.179116E-05
7.044486E+03	6.957283E-04	2.161862E-05
7.054394E+03	6.857726E-04	2.145304E-05
7.064302E+03	6.760495E-04	2.129066E-05
7.074210E+03	6.665556E-04	2.113150E-05
7.084118E+03	6.571734E-04	2.097194E-05
7.094026E+03	6.481297E-04	2.081931E-05
7.103933E+03	6.393045E-04	2.066992E-05
7.113841E+03	6.306944E-04	2.052380E-05
7.123749E+03	6.221873E-04	2.037738E-05
7.133657E+03	6.139973E-04	2.023779E-05
7.143565E+03	6.060102E-04	2.010141E-05
7.153473E+03	5.981186E-04	1.996477E-05
7.163381E+03	5.905271E-04	1.983482E-05
7.173288E+03	5.831267E-04	1.970803E-05
7.183196E+03	5.759131E-04	1.958437E-05
7.193104E+03	5.687833E-04	1.946043E-05
7.203012E+03	5.619319E-04	1.934296E-05
7.212920E+03	5.552548E-04	1.922852E-05
7.222828E+03	5.487476E-04	1.911707E-05
7.232736E+03	5.423124E-04	1.900526E-05
7.242643E+03	5.361341E-04	1.889967E-05
7.252551E+03	5.301134E-04	1.879692E-05
7.262459E+03	5.241552E-04	1.869373E-05
7.272367E+03	5.184386E-04	1.859655E-05
7.282275E+03	5.128672E-04	1.850206E-05
7.292183E+03	5.073489E-04	1.840700E-05
7.302091E+03	5.020573E-04	1.831774E-05
7.311998E+03	4.968991E-04	1.823100E-05
7.321906E+03	4.918705E-04	1.814671E-05
7.331814E+03	4.868829E-04	1.806168E-05
7.341722E+03	4.821026E-04	1.798212E-05
7.351630E+03	4.774404E-04	1.790483E-05
7.361538E+03	4.728105E-04	1.782663E-05
7.371446E+03	4.683741E-04	1.775367E-05
7.381353E+03	4.640449E-04	1.768278E-05
7.391261E+03	4.597392E-04	1.761080E-05
7.401169E+03	4.556139E-04	1.754381E-05
7.411077E+03	4.515852E-04	1.747867E-05
7.420985E+03	4.475716E-04	1.741226E-05
7.430893E+03	4.437262E-04	1.735060E-05
7.440801E+03	4.399669E-04	1.729054E-05
7.450708E+03	4.362147E-04	1.722904E-05
7.460616E+03	4.326188E-04	1.717201E-05
7.470524E+03	4.290992E-04	1.711636E-05
7.480432E+03	4.255790E-04	1.705906E-05
7.490340E+03	4.222036E-04	1.700596E-05
7.500248E+03	4.188955E-04	1.695402E-05
7.510156E+03	4.155790E-04	1.690021E-05
7.520063E+03	4.123969E-04	1.685035E-05
7.529971E+03	4.092727E-04	1.680139E-05
7.539879E+03	4.061336E-04	1.675036E-05
7.549787E+03	4.031181E-04	1.670299E-05
7.559695E+03	4.000830E-04	1.665340E-05
7.569603E+03	3.971652E-04	1.660731E-05
7.579511E+03	3.942921E-04	1.656174E-05
7.589418E+03	3.913926E-04	1.651371E-05
7.599326E+03	3.886011E-04	1.646892E-05
7.609234E+03	3.858467E-04	1.642440E-05
7.619142E+03	3.830600E-04	1.637722E-05
7.629050E+03	3.803727E-04	1.633302E-05
7.638958E+03	3.776493E-04	1.628601E-05
7.648866E+03	3.750198E-04	1.624181E-05
7.658773E+03	3.724159E-04	1.619751E-05
7.668681E+03	3.697708E-04	1.615019E-05
7.678589E+03	3.672117E-04	1.610544E-05
7.688497E+03	3.646083E-04	1.605755E-05
