#wls	flux	fluxerr
1.585257E+03	1.588340E-04	6.904420E-06
1.624889E+03	1.589148E-04	6.885218E-06
1.664520E+03	1.590223E-04	6.866606E-06
1.704151E+03	1.591586E-04	6.848649E-06
1.743783E+03	1.593532E-04	6.832588E-06
1.783414E+03	1.595813E-04	6.817330E-06
1.823046E+03	1.598460E-04	6.802981E-06
1.862677E+03	1.601778E-04	6.790803E-06
1.902309E+03	1.605535E-04	6.779775E-06
1.941940E+03	1.610045E-04	6.771183E-06
1.981571E+03	1.615358E-04	6.765183E-06
2.021203E+03	1.621261E-04	6.760837E-06
2.060834E+03	1.628355E-04	6.760588E-06
2.100466E+03	1.636175E-04	6.762440E-06
2.140097E+03	1.645070E-04	6.767770E-06
2.179729E+03	1.655128E-04	6.776866E-06
2.219360E+03	1.666718E-04	6.791142E-06
2.258991E+03	1.679685E-04	6.809861E-06
2.298623E+03	1.694154E-04	6.833426E-06
2.338254E+03	1.710531E-04	6.863351E-06
2.377886E+03	1.728972E-04	6.900116E-06
2.417517E+03	1.749381E-04	6.943185E-06
2.457149E+03	1.772216E-04	6.994212E-06
2.496780E+03	1.797690E-04	7.053839E-06
2.536411E+03	1.826035E-04	7.122769E-06
2.576043E+03	1.857510E-04	7.201772E-06
2.615674E+03	1.892674E-04	7.292750E-06
2.655306E+03	1.931567E-04	7.395560E-06
2.694937E+03	1.974814E-04	7.512263E-06
2.734569E+03	2.022512E-04	7.642871E-06
2.774200E+03	2.075649E-04	7.790710E-06
2.813831E+03	2.134105E-04	7.954883E-06
2.853463E+03	2.198668E-04	8.137839E-06
2.893094E+03	2.270180E-04	8.342157E-06
2.932726E+03	2.348936E-04	8.568309E-06
2.972357E+03	2.435569E-04	8.817959E-06
2.982265E+03	2.458740E-04	8.884978E-06
2.992173E+03	2.482375E-04	8.953310E-06
3.002081E+03	2.506491E-04	9.023001E-06
3.011989E+03	2.531093E-04	9.094060E-06
3.021896E+03	2.556523E-04	9.167701E-06
3.031804E+03	2.582464E-04	9.242773E-06
3.041712E+03	2.608929E-04	9.319311E-06
3.051620E+03	2.636265E-04	9.398538E-06
3.061528E+03	2.664149E-04	9.479292E-06
3.071436E+03	2.692593E-04	9.561598E-06
3.081344E+03	2.721952E-04	9.646705E-06
3.091251E+03	2.751900E-04	9.733436E-06
3.101159E+03	2.782448E-04	9.821822E-06
3.111067E+03	2.813956E-04	9.913116E-06
3.120975E+03	2.845743E-04	1.000490E-05
3.130883E+03	2.878874E-04	1.010092E-05
3.140791E+03	2.912309E-04	1.019748E-05
3.150699E+03	2.946769E-04	1.029711E-05
3.160606E+03	2.981915E-04	1.039860E-05
3.170514E+03	3.017758E-04	1.050198E-05
3.180422E+03	3.054680E-04	1.060855E-05
3.190330E+03	3.092334E-04	1.071709E-05
3.200238E+03	3.130731E-04	1.082763E-05
3.210146E+03	3.170263E-04	1.094150E-05
3.220054E+03	3.210574E-04	1.105745E-05
3.229961E+03	3.252059E-04	1.117682E-05
3.239869E+03	3.293969E-04	1.129702E-05
3.249777E+03	3.337091E-04	1.142073E-05
3.259685E+03	3.381451E-04	1.154801E-05
3.269593E+03	3.426275E-04	1.167620E-05
3.279501E+03	3.472372E-04	1.180805E-05
3.289409E+03	3.519767E-04	1.194361E-05
3.299316E+03	3.568079E-04	1.208157E-05
3.309224E+03	3.617324E-04	1.222195E-05
3.319132E+03	3.667516E-04	1.236479E-05
3.329040E+03	3.719092E-04	1.251153E-05
3.338948E+03	3.771654E-04	1.266083E-05
3.348856E+03	3.825221E-04	1.281271E-05
3.358763E+03	3.880239E-04	1.296864E-05
3.368671E+03	3.936303E-04	1.312726E-05
3.378579E+03	3.993427E-04	1.328858E-05
3.388487E+03	4.052075E-04	1.345412E-05
3.398395E+03	4.111825E-04	1.362246E-05
3.408303E+03	4.172697E-04	1.379364E-05
3.418211E+03	4.235165E-04	1.396920E-05
3.428118E+03	4.298795E-04	1.414769E-05
3.438026E+03	4.364077E-04	1.433068E-05
3.447934E+03	4.430564E-04	1.451669E-05
3.457842E+03	4.498279E-04	1.470577E-05
3.467750E+03	4.567235E-04	1.489793E-05
3.477658E+03	4.637940E-04	1.509481E-05
3.487566E+03	4.709934E-04	1.529489E-05
3.497473E+03	4.783234E-04	1.549818E-05
3.507381E+03	4.858361E-04	1.570637E-05
3.517289E+03	4.934841E-04	1.591788E-05
3.527197E+03	5.013208E-04	1.613441E-05
3.537105E+03	5.092449E-04	1.635267E-05
3.547013E+03	5.174152E-04	1.657775E-05
3.556921E+03	5.256767E-04	1.680463E-05
3.566828E+03	5.341375E-04	1.703676E-05
3.576736E+03	5.427463E-04	1.727248E-05
3.586644E+03	5.515051E-04	1.751181E-05
3.596552E+03	5.604715E-04	1.775657E-05
3.606460E+03	5.695926E-04	1.800506E-05
3.616368E+03	5.788703E-04	1.825729E-05
3.626276E+03	5.883640E-04	1.851514E-05
3.636183E+03	5.980191E-04	1.877684E-05
3.646091E+03	6.078373E-04	1.904244E-05
3.655999E+03	6.178803E-04	1.931383E-05
3.665907E+03	6.280309E-04	1.958733E-05
3.675815E+03	6.384725E-04	1.986864E-05
3.685723E+03	6.490252E-04	2.015214E-05
3.695631E+03	6.598141E-04	2.044169E-05
3.705538E+03	6.707797E-04	2.073541E-05
3.715446E+03	6.819240E-04	2.103336E-05
3.725354E+03	6.933137E-04	2.133757E-05
3.735262E+03	7.048873E-04	2.164612E-05
3.745170E+03	7.166465E-04	2.195904E-05
3.755078E+03	7.285935E-04	2.227640E-05
3.764986E+03	7.407983E-04	2.260031E-05
3.774893E+03	7.531961E-04	2.292876E-05
3.784801E+03	7.657894E-04	2.326184E-05
3.794709E+03	7.785797E-04	2.359956E-05
3.804617E+03	7.916412E-04	2.394416E-05
3.814525E+03	8.049057E-04	2.429356E-05
3.824433E+03	8.183757E-04	2.464782E-05
3.834341E+03	8.320534E-04	2.500700E-05
3.844248E+03	8.460162E-04	2.537343E-05
3.854156E+03	8.601930E-04	2.574494E-05
3.864064E+03	8.745863E-04	2.612162E-05
3.873972E+03	8.891986E-04	2.650352E-05
3.883880E+03	9.041109E-04	2.689307E-05
3.893788E+03	9.191697E-04	2.728568E-05
3.903696E+03	9.345354E-04	2.768612E-05
3.913603E+03	9.501321E-04	2.809214E-05
3.923511E+03	9.659624E-04	2.850382E-05
3.933419E+03	9.821117E-04	2.892368E-05
3.943327E+03	9.984173E-04	2.934693E-05
3.953235E+03	1.015049E-03	2.977857E-05
3.963143E+03	1.031926E-03	3.021623E-05
3.973051E+03	1.048962E-03	3.065743E-05
3.982958E+03	1.066423E-03	3.110990E-05
3.992866E+03	1.084046E-03	3.156604E-05
4.002774E+03	1.101922E-03	3.202847E-05
4.012682E+03	1.120051E-03	3.249722E-05
4.022590E+03	1.138525E-03	3.297502E-05
4.032498E+03	1.157254E-03	3.345926E-05
4.042406E+03	1.176143E-03	3.394722E-05
4.052313E+03	1.195379E-03	3.444430E-05
4.062221E+03	1.214864E-03	3.494778E-05
4.072129E+03	1.234596E-03	3.545759E-05
4.082037E+03	1.254569E-03	3.597361E-05
4.091945E+03	1.274777E-03	3.649571E-05
4.101853E+03	1.295212E-03	3.702372E-05
4.111761E+03	1.315863E-03	3.755739E-05
4.121668E+03	1.336719E-03	3.809644E-05
4.131576E+03	1.357765E-03	3.864053E-05
4.141484E+03	1.378984E-03	3.918923E-05
4.151392E+03	1.400463E-03	3.974509E-05
4.161300E+03	1.421967E-03	4.030149E-05
4.171208E+03	1.443573E-03	4.086075E-05
4.181116E+03	1.465252E-03	4.142211E-05
4.191023E+03	1.486969E-03	4.198469E-05
4.200931E+03	1.508685E-03	4.254749E-05
4.210839E+03	1.530357E-03	4.310940E-05
4.220747E+03	1.551938E-03	4.366918E-05
4.230655E+03	1.573257E-03	4.422218E-05
4.240563E+03	1.594488E-03	4.477342E-05
4.250471E+03	1.615335E-03	4.531469E-05
4.260378E+03	1.635967E-03	4.585088E-05
4.270286E+03	1.656073E-03	4.637342E-05
4.280194E+03	1.675818E-03	4.688706E-05
4.290102E+03	1.694881E-03	4.738299E-05
4.300010E+03	1.713303E-03	4.786248E-05
4.309918E+03	1.730880E-03	4.831998E-05
4.319826E+03	1.747780E-03	4.876038E-05
4.329733E+03	1.763813E-03	4.917847E-05
4.339641E+03	1.778796E-03	4.956932E-05
4.349549E+03	1.792814E-03	4.993545E-05
4.359457E+03	1.805844E-03	5.027635E-05
4.369365E+03	1.817883E-03	5.059206E-05
4.379273E+03	1.828818E-03	5.087952E-05
4.389181E+03	1.838802E-03	5.114318E-05
4.399088E+03	1.847882E-03	5.138440E-05
4.408996E+03	1.856104E-03	5.160452E-05
4.418904E+03	1.863523E-03	5.180521E-05
4.428812E+03	1.870067E-03	5.198452E-05
4.438720E+03	1.875922E-03	5.214767E-05
4.448628E+03	1.881141E-03	5.229614E-05
4.458536E+03	1.885786E-03	5.243160E-05
4.468443E+03	1.889780E-03	5.255192E-05
4.478351E+03	1.893308E-03	5.266222E-05
4.488259E+03	1.896289E-03	5.276023E-05
4.498167E+03	1.899028E-03	5.285440E-05
4.508075E+03	1.901321E-03	5.293898E-05
4.517983E+03	1.903206E-03	5.301505E-05
4.527891E+03	1.904979E-03	5.309078E-05
4.537798E+03	1.906426E-03	5.316017E-05
4.547706E+03	1.907584E-03	5.322419E-05
4.557614E+03	1.908733E-03	5.329067E-05
4.567522E+03	1.909658E-03	5.335351E-05
4.577430E+03	1.910383E-03	5.341335E-05
4.587338E+03	1.911061E-03	5.347442E-05
4.597246E+03	1.911716E-03	5.353738E-05
4.607153E+03	1.912366E-03	5.360270E-05
4.617061E+03	1.912913E-03	5.366753E-05
4.626969E+03	1.913373E-03	5.373235E-05
4.636877E+03	1.914008E-03	5.380445E-05
4.646785E+03	1.914592E-03	5.387742E-05
4.656693E+03	1.915136E-03	5.395158E-05
4.666601E+03	1.915779E-03	5.403077E-05
4.676508E+03	1.916529E-03	5.411523E-05
4.686416E+03	1.917278E-03	5.420184E-05
4.696324E+03	1.918158E-03	5.429433E-05
4.706232E+03	1.919057E-03	5.438947E-05
4.716140E+03	1.920107E-03	5.449100E-05
4.726048E+03	1.921191E-03	5.459558E-05
4.735956E+03	1.922441E-03	5.470693E-05
4.745863E+03	1.923862E-03	5.482516E-05
4.755771E+03	1.925342E-03	5.494706E-05
4.765679E+03	1.927003E-03	5.507614E-05
4.775587E+03	1.928736E-03	5.520920E-05
4.785495E+03	1.930661E-03	5.534972E-05
4.795403E+03	1.932667E-03	5.549445E-05
4.805311E+03	1.934874E-03	5.564688E-05
4.815218E+03	1.937172E-03	5.580376E-05
4.825126E+03	1.939676E-03	5.596847E-05
4.835034E+03	1.942276E-03	5.613778E-05
4.844942E+03	1.945092E-03	5.631518E-05
4.854850E+03	1.948007E-03	5.649725E-05
4.864758E+03	1.951142E-03	5.668752E-05
4.874666E+03	1.954499E-03	5.688600E-05
4.884573E+03	1.957961E-03	5.708936E-05
4.894481E+03	1.961533E-03	5.729768E-05
4.904389E+03	1.965328E-03	5.751427E-05
4.914297E+03	1.969349E-03	5.773925E-05
4.924205E+03	1.973482E-03	5.796926E-05
4.934113E+03	1.977725E-03	5.820424E-05
4.944021E+03	1.982195E-03	5.844762E-05
4.953928E+03	1.986892E-03	5.869942E-05
4.963836E+03	1.991699E-03	5.895620E-05
4.973744E+03	1.996616E-03	5.921796E-05
4.983652E+03	2.001759E-03	5.948812E-05
4.993560E+03	2.007127E-03	5.976670E-05
5.003468E+03	2.012602E-03	6.005016E-05
5.013376E+03	2.018183E-03	6.033846E-05
5.023283E+03	2.023983E-03	6.063505E-05
5.033191E+03	2.030003E-03	6.093988E-05
5.043099E+03	2.036122E-03	6.124942E-05
5.053007E+03	2.042338E-03	6.156354E-05
5.062915E+03	2.048767E-03	6.188578E-05
5.072823E+03	2.055405E-03	6.221601E-05
5.082731E+03	2.062132E-03	6.255062E-05
5.092638E+03	2.069062E-03	6.289308E-05
5.102546E+03	2.076072E-03	6.323966E-05
5.112454E+03	2.083159E-03	6.359025E-05
5.122362E+03	2.090436E-03	6.394833E-05
5.132270E+03	2.097899E-03	6.431374E-05
5.142178E+03	2.105422E-03	6.468268E-05
5.152086E+03	2.113119E-03	6.505863E-05
5.161993E+03	2.120865E-03	6.543772E-05
5.171901E+03	2.128771E-03	6.582345E-05
5.181809E+03	2.136709E-03	6.621179E-05
5.191717E+03	2.144791E-03	6.660623E-05
5.201625E+03	2.152887E-03	6.700275E-05
5.211533E+03	2.161109E-03	6.740479E-05
5.221441E+03	2.169323E-03	6.780822E-05
5.231348E+03	2.177641E-03	6.821648E-05
5.241256E+03	2.186049E-03	6.862916E-05
5.251164E+03	2.194290E-03	6.903815E-05
5.261072E+03	2.202717E-03	6.945456E-05
5.270980E+03	2.211070E-03	6.987018E-05
5.280888E+03	2.219455E-03	7.028832E-05
5.290796E+03	2.227731E-03	7.070451E-05
5.300703E+03	2.235878E-03	7.111806E-05
5.310611E+03	2.244132E-03	7.153645E-05
5.320519E+03	2.252093E-03	7.194689E-05
5.330427E+03	2.260117E-03	7.236077E-05
5.340335E+03	2.267935E-03	7.276935E-05
5.350243E+03	2.275523E-03	7.317186E-05
5.360151E+03	2.282982E-03	7.357150E-05
5.370058E+03	2.290295E-03	7.396762E-05
5.379966E+03	2.297309E-03	7.435526E-05
5.389874E+03	2.304133E-03	7.473787E-05
5.399782E+03	2.310617E-03	7.511050E-05
5.409690E+03	2.316872E-03	7.547668E-05
5.419598E+03	2.322880E-03	7.583578E-05
5.429506E+03	2.328501E-03	7.618312E-05
5.439413E+03	2.333854E-03	7.652252E-05
5.449321E+03	2.338810E-03	7.684965E-05
5.459229E+03	2.343499E-03	7.716873E-05
5.469137E+03	2.347936E-03	7.748015E-05
5.479045E+03	2.352008E-03	7.778010E-05
5.488953E+03	2.355729E-03	7.806896E-05
5.498861E+03	2.359383E-03	7.835606E-05
5.508768E+03	2.362733E-03	7.863351E-05
5.518676E+03	2.365804E-03	7.890204E-05
5.528584E+03	2.368880E-03	7.917106E-05
5.538492E+03	2.371728E-03	7.943276E-05
5.548400E+03	2.374370E-03	7.968783E-05
5.558308E+03	2.376964E-03	7.994153E-05
5.568216E+03	2.379537E-03	8.019470E-05
5.578123E+03	2.381977E-03	8.044360E-05
5.588031E+03	2.384577E-03	8.069805E-05
5.597939E+03	2.386958E-03	8.094527E-05
5.607847E+03	2.389541E-03	8.119947E-05
5.617755E+03	2.392080E-03	8.145230E-05
5.627663E+03	2.394731E-03	8.170907E-05
5.637571E+03	2.397375E-03	8.196573E-05
5.647478E+03	2.400163E-03	8.222743E-05
5.657386E+03	2.403113E-03	8.249477E-05
5.667294E+03	2.406105E-03	8.276374E-05
5.677202E+03	2.409287E-03	8.303935E-05
5.687110E+03	2.412668E-03	8.332197E-05
5.697018E+03	2.416263E-03	8.361215E-05
5.706926E+03	2.419947E-03	8.390557E-05
5.716833E+03	2.423864E-03	8.420725E-05
5.726741E+03	2.427885E-03	8.451275E-05
5.736649E+03	2.432287E-03	8.483175E-05
5.746557E+03	2.436807E-03	8.515509E-05
5.756465E+03	2.441451E-03	8.548299E-05
5.766373E+03	2.446488E-03	8.582494E-05
5.776281E+03	2.451654E-03	8.617172E-05
5.786188E+03	2.457088E-03	8.652818E-05
5.796096E+03	2.462788E-03	8.689437E-05
5.806004E+03	2.468622E-03	8.726563E-05
5.815912E+03	2.474721E-03	8.764665E-05
5.825820E+03	2.481088E-03	8.803753E-05
5.835728E+03	2.487723E-03	8.843833E-05
5.845636E+03	2.494483E-03	8.884401E-05
5.855543E+03	2.501505E-03	8.925949E-05
5.865451E+03	2.508787E-03	8.968469E-05
5.875359E+03	2.516327E-03	9.011959E-05
5.885267E+03	2.523979E-03	9.055904E-05
5.895175E+03	2.531882E-03	9.100798E-05
5.905083E+03	2.540028E-03	9.146621E-05
5.914991E+03	2.548417E-03	9.193377E-05
5.924898E+03	2.556905E-03	9.240544E-05
5.934806E+03	2.565765E-03	9.289116E-05
5.944714E+03	2.574713E-03	9.338065E-05
5.954622E+03	2.583886E-03	9.387894E-05
5.964530E+03	2.593135E-03	9.438062E-05
5.974438E+03	2.602743E-03	9.489598E-05
5.984346E+03	2.612417E-03	9.541445E-05
5.994253E+03	2.622297E-03	9.594109E-05
6.004161E+03	2.632378E-03	9.647572E-05
6.014069E+03	2.642654E-03	9.701824E-05
6.023977E+03	2.652975E-03	9.756310E-05
6.033885E+03	2.663632E-03	9.812099E-05
6.043793E+03	2.674319E-03	9.868071E-05
6.053701E+03	2.685181E-03	9.924765E-05
6.063608E+03	2.696215E-03	9.982163E-05
6.073516E+03	2.707261E-03	1.003968E-04
6.083424E+03	2.718615E-03	1.009842E-04
6.093332E+03	2.729969E-03	1.015722E-04
6.103240E+03	2.741620E-03	1.021721E-04
6.113148E+03	2.753256E-03	1.027722E-04
6.123056E+03	2.765021E-03	1.033779E-04
6.132963E+03	2.776752E-03	1.039830E-04
6.142871E+03	2.788750E-03	1.045989E-04
6.152779E+03	2.800695E-03	1.052135E-04
6.162687E+03	2.812889E-03	1.058383E-04
6.172595E+03	2.825010E-03	1.064611E-04
6.182503E+03	2.837200E-03	1.070872E-04
6.192411E+03	2.849449E-03	1.077162E-04
6.202318E+03	2.861746E-03	1.083478E-04
6.212226E+03	2.874073E-03	1.089813E-04
6.222134E+03	2.886256E-03	1.096100E-04
6.232042E+03	2.898603E-03	1.102457E-04
6.241950E+03	2.910772E-03	1.108753E-04
6.251858E+03	2.923074E-03	1.115105E-04
6.261766E+03	2.935158E-03	1.121382E-04
6.271673E+03	2.947174E-03	1.127639E-04
6.281581E+03	2.959099E-03	1.133867E-04
6.291489E+03	2.970910E-03	1.140057E-04
6.301397E+03	2.982588E-03	1.146202E-04
6.311305E+03	2.994108E-03	1.152292E-04
6.321213E+03	3.005278E-03	1.158252E-04
6.331121E+03	3.016408E-03	1.164201E-04
6.341028E+03	3.027134E-03	1.169999E-04
6.350936E+03	3.037775E-03	1.175767E-04
6.360844E+03	3.047953E-03	1.181361E-04
6.370752E+03	3.057818E-03	1.186836E-04
6.380660E+03	3.067514E-03	1.192248E-04
6.390568E+03	3.076665E-03	1.197451E-04
6.400476E+03	3.085417E-03	1.202501E-04
6.410383E+03	3.093743E-03	1.207385E-04
6.420291E+03	3.101616E-03	1.212094E-04
6.430199E+03	3.109011E-03	1.216616E-04
6.440107E+03	3.115730E-03	1.220873E-04
6.450015E+03	3.122102E-03	1.224993E-04
6.459923E+03	3.127938E-03	1.228901E-04
6.469831E+03	3.133226E-03	1.232592E-04
6.479738E+03	3.137781E-03	1.235991E-04
6.489646E+03	3.141965E-03	1.239241E-04
6.499554E+03	3.145431E-03	1.242204E-04
6.509462E+03	3.148549E-03	1.245025E-04
6.519370E+03	3.150978E-03	1.247568E-04
6.529278E+03	3.153097E-03	1.249983E-04
6.539186E+03	3.154567E-03	1.252135E-04
6.549093E+03	3.155773E-03	1.254175E-04
6.559001E+03	3.156377E-03	1.255969E-04
6.568909E+03	3.156582E-03	1.257596E-04
6.578817E+03	3.156597E-03	1.259141E-04
6.588725E+03	3.156084E-03	1.260466E-04
6.598633E+03	3.155250E-03	1.261655E-04
6.608541E+03	3.154118E-03	1.262716E-04
6.618448E+03	3.152713E-03	1.263659E-04
6.628356E+03	3.151243E-03	1.264566E-04
6.638264E+03	3.149365E-03	1.265301E-04
6.648172E+03	3.147287E-03	1.265945E-04
6.658080E+03	3.145030E-03	1.266508E-04
6.667988E+03	3.142616E-03	1.266997E-04
6.677896E+03	3.140067E-03	1.267422E-04
6.687803E+03	3.137402E-03	1.267791E-04
6.697711E+03	3.134642E-03	1.268110E-04
6.707619E+03	3.131807E-03	1.268390E-04
6.717527E+03	3.128913E-03	1.268635E-04
6.727435E+03	3.125982E-03	1.268855E-04
6.737343E+03	3.123026E-03	1.269055E-04
6.747251E+03	3.120064E-03	1.269242E-04
6.757158E+03	3.117111E-03	1.269423E-04
6.767066E+03	3.114183E-03	1.269603E-04
6.776974E+03	3.111291E-03	1.269789E-04
6.786882E+03	3.108270E-03	1.269912E-04
6.796790E+03	3.105492E-03	1.270124E-04
6.806698E+03	3.102792E-03	1.270359E-04
6.816606E+03	3.100178E-03	1.270619E-04
6.826513E+03	3.097660E-03	1.270909E-04
6.836421E+03	3.095248E-03	1.271233E-04
6.846329E+03	3.092772E-03	1.271522E-04
6.856237E+03	3.090601E-03	1.271927E-04
6.866145E+03	3.088562E-03	1.272377E-04
6.876053E+03	3.086662E-03	1.272876E-04
6.885961E+03	3.084725E-03	1.273350E-04
6.895868E+03	3.083119E-03	1.273954E-04
6.905776E+03	3.081671E-03	1.274614E-04
6.915684E+03	3.080202E-03	1.275257E-04
6.925592E+03	3.079079E-03	1.276035E-04
6.935500E+03	3.078124E-03	1.276876E-04
6.945408E+03	3.077158E-03	1.277704E-04
6.955316E+03	3.076546E-03	1.278671E-04
6.965223E+03	3.075930E-03	1.279630E-04
6.975131E+03	3.075671E-03	1.280730E-04
6.985039E+03	3.075409E-03	1.281822E-04
6.994947E+03	3.075508E-03	1.283057E-04
7.004855E+03	3.075605E-03	1.284285E-04
7.014763E+03	3.076063E-03	1.285657E-04
7.024671E+03	3.076518E-03	1.287022E-04
7.034578E+03	3.077153E-03	1.288456E-04
7.044486E+03	3.078151E-03	1.290035E-04
7.054394E+03	3.079141E-03	1.291606E-04
7.064302E+03	3.080310E-03	1.293246E-04
7.074210E+03	3.081656E-03	1.294955E-04
7.084118E+03	3.083177E-03	1.296732E-04
7.094026E+03	3.084873E-03	1.298577E-04
7.103933E+03	3.086742E-03	1.300490E-04
7.113841E+03	3.088783E-03	1.302470E-04
7.123749E+03	3.090999E-03	1.304520E-04
7.133657E+03	3.093384E-03	1.306636E-04
7.143565E+03	3.095942E-03	1.308820E-04
7.153473E+03	3.098482E-03	1.310993E-04
7.163381E+03	3.101379E-03	1.313312E-04
7.173288E+03	3.104260E-03	1.315621E-04
7.183196E+03	3.107500E-03	1.318078E-04
7.193104E+03	3.110722E-03	1.320522E-04
7.203012E+03	3.114303E-03	1.323116E-04
7.212920E+03	3.117871E-03	1.325700E-04
7.222828E+03	3.121610E-03	1.328354E-04
7.232736E+03	3.125524E-03	1.331079E-04
7.242643E+03	3.129614E-03	1.333875E-04
7.252551E+03	3.133883E-03	1.336745E-04
7.262459E+03	3.138330E-03	1.339687E-04
7.272367E+03	3.142963E-03	1.342706E-04
7.282275E+03	3.147587E-03	1.345718E-04
7.292183E+03	3.152592E-03	1.348891E-04
7.302091E+03	3.157592E-03	1.352059E-04
7.311998E+03	3.162980E-03	1.355390E-04
7.321906E+03	3.168367E-03	1.358719E-04
7.331814E+03	3.173955E-03	1.362132E-04
7.341722E+03	3.179740E-03	1.365627E-04
7.351630E+03	3.185731E-03	1.369209E-04
7.361538E+03	3.191924E-03	1.372876E-04
7.371446E+03	3.198130E-03	1.376546E-04
7.381353E+03	3.204740E-03	1.380390E-04
7.391261E+03	3.211365E-03	1.384238E-04
7.401169E+03	3.218396E-03	1.388260E-04
7.411077E+03	3.225443E-03	1.392287E-04
7.420985E+03	3.232700E-03	1.396404E-04
7.430893E+03	3.240166E-03	1.400611E-04
7.440801E+03	3.247642E-03	1.404820E-04
7.450708E+03	3.255523E-03	1.409204E-04
7.460616E+03	3.263608E-03	1.413676E-04
7.470524E+03	3.271688E-03	1.418146E-04
7.480432E+03	3.279959E-03	1.422697E-04
7.490340E+03	3.288417E-03	1.427330E-04
7.500248E+03	3.297054E-03	1.432040E-04
7.510156E+03	3.305857E-03	1.436822E-04
7.520063E+03	3.314613E-03	1.441583E-04
7.529971E+03	3.323721E-03	1.446497E-04
7.539879E+03	3.332755E-03	1.451379E-04
7.549787E+03	3.341903E-03	1.456311E-04
7.559695E+03	3.351148E-03	1.461286E-04
7.569603E+03	3.360475E-03	1.466296E-04
7.579511E+03	3.369651E-03	1.471241E-04
7.589418E+03	3.379073E-03	1.476293E-04
7.599326E+03	3.388292E-03	1.481257E-04
7.609234E+03	3.397496E-03	1.486215E-04
7.619142E+03	3.406655E-03	1.491152E-04
7.629050E+03	3.415737E-03	1.496057E-04
7.638958E+03	3.424493E-03	1.500819E-04
7.648866E+03	3.433318E-03	1.505611E-04
7.658773E+03	3.441741E-03	1.510226E-04
7.668681E+03	3.449935E-03	1.514741E-04
7.678589E+03	3.457863E-03	1.519138E-04
7.688497E+03	3.465252E-03	1.523299E-04
