#wls	flux	fluxerr
1.585257E+03	5.328261E-05	4.223897E-06
1.624889E+03	5.346138E-05	4.220076E-06
1.664520E+03	5.365199E-05	4.216672E-06
1.704151E+03	5.386515E-05	4.214501E-06
1.743783E+03	5.408280E-05	4.212121E-06
1.783414E+03	5.431578E-05	4.210357E-06
1.823046E+03	5.457528E-05	4.210044E-06
1.862677E+03	5.484328E-05	4.209757E-06
1.902309E+03	5.514101E-05	4.211095E-06
1.941940E+03	5.546049E-05	4.213403E-06
1.981571E+03	5.579366E-05	4.216035E-06
2.021203E+03	5.616253E-05	4.220612E-06
2.060834E+03	5.655946E-05	4.226505E-06
2.100466E+03	5.698694E-05	4.233848E-06
2.140097E+03	5.744769E-05	4.242785E-06
2.179729E+03	5.794462E-05	4.253470E-06
2.219360E+03	5.849137E-05	4.266831E-06
2.258991E+03	5.907071E-05	4.281531E-06
2.298623E+03	5.969675E-05	4.298522E-06
2.338254E+03	6.038441E-05	4.318782E-06
2.377886E+03	6.111688E-05	4.341006E-06
2.417517E+03	6.192074E-05	4.366978E-06
2.457149E+03	6.279076E-05	4.396199E-06
2.496780E+03	6.372163E-05	4.428173E-06
2.536411E+03	6.474238E-05	4.464778E-06
2.576043E+03	6.584913E-05	4.505575E-06
2.615674E+03	6.704987E-05	4.550937E-06
2.655306E+03	6.835341E-05	4.601267E-06
2.694937E+03	6.976947E-05	4.657007E-06
2.734569E+03	7.132143E-05	4.719474E-06
2.774200E+03	7.299630E-05	4.787540E-06
2.813831E+03	7.481964E-05	4.862608E-06
2.853463E+03	7.681971E-05	4.946188E-06
2.893094E+03	7.898614E-05	5.037249E-06
2.932726E+03	8.136473E-05	5.138326E-06
2.972357E+03	8.394760E-05	5.248478E-06
2.982265E+03	8.463002E-05	5.277681E-06
2.992173E+03	8.534286E-05	5.308512E-06
3.002081E+03	8.605666E-05	5.339129E-06
3.011989E+03	8.678668E-05	5.370475E-06
3.021896E+03	8.753333E-05	5.402567E-06
3.031804E+03	8.829705E-05	5.435421E-06
3.041712E+03	8.909389E-05	5.470016E-06
3.051620E+03	8.989322E-05	5.504456E-06
3.061528E+03	9.071095E-05	5.539713E-06
3.071436E+03	9.154758E-05	5.575807E-06
3.081344E+03	9.240360E-05	5.612757E-06
3.091251E+03	9.327951E-05	5.650584E-06
3.101159E+03	9.419236E-05	5.690305E-06
3.111067E+03	9.510979E-05	5.729952E-06
3.120975E+03	9.604874E-05	5.770540E-06
3.130883E+03	9.700974E-05	5.812088E-06
3.140791E+03	9.801058E-05	5.855648E-06
3.150699E+03	9.901768E-05	5.899198E-06
3.160606E+03	1.000487E-04	5.943780E-06
3.170514E+03	1.011042E-04	5.989419E-06
3.180422E+03	1.021848E-04	6.036139E-06
3.190330E+03	1.033094E-04	6.085032E-06
3.200238E+03	1.044426E-04	6.134003E-06
3.210146E+03	1.056031E-04	6.184136E-06
3.220054E+03	1.067916E-04	6.235458E-06
3.229961E+03	1.080277E-04	6.289098E-06
3.239869E+03	1.092747E-04	6.342895E-06
3.249777E+03	1.105520E-04	6.397971E-06
3.259685E+03	1.118604E-04	6.454355E-06
3.269593E+03	1.132207E-04	6.513217E-06
3.279501E+03	1.145942E-04	6.572323E-06
3.289409E+03	1.160016E-04	6.632837E-06
3.299316E+03	1.174437E-04	6.694789E-06
3.309224E+03	1.189421E-04	6.759396E-06
3.319132E+03	1.204568E-04	6.824346E-06
3.329040E+03	1.220090E-04	6.890843E-06
3.338948E+03	1.236000E-04	6.958925E-06
3.348856E+03	1.252525E-04	7.029856E-06
3.358763E+03	1.269243E-04	7.101235E-06
3.368671E+03	1.286381E-04	7.174317E-06
3.378579E+03	1.303950E-04	7.249144E-06
3.388487E+03	1.322192E-04	7.327032E-06
3.398395E+03	1.340663E-04	7.405487E-06
3.408303E+03	1.359602E-04	7.485815E-06
3.418211E+03	1.379262E-04	7.569379E-06
3.428118E+03	1.399179E-04	7.653604E-06
3.438026E+03	1.419604E-04	7.739841E-06
3.447934E+03	1.440551E-04	7.828137E-06
3.457842E+03	1.462289E-04	7.919918E-06
3.467750E+03	1.484326E-04	8.012496E-06
3.477658E+03	1.506930E-04	8.107283E-06
3.487566E+03	1.530115E-04	8.204331E-06
3.497473E+03	1.554167E-04	8.305138E-06
3.507381E+03	1.578567E-04	8.406886E-06
3.517289E+03	1.603597E-04	8.511056E-06
3.527197E+03	1.629557E-04	8.619203E-06
3.537105E+03	1.655904E-04	8.728407E-06
3.547013E+03	1.682933E-04	8.840202E-06
3.556921E+03	1.710960E-04	8.956208E-06
3.566828E+03	1.739415E-04	9.073392E-06
3.576736E+03	1.768608E-04	9.193341E-06
3.586644E+03	1.798559E-04	9.316125E-06
3.596552E+03	1.829604E-04	9.443438E-06
3.606460E+03	1.861137E-04	9.572101E-06
3.616368E+03	1.893488E-04	9.703775E-06
3.626276E+03	1.927011E-04	9.840237E-06
3.636183E+03	1.961068E-04	9.978165E-06
3.646091E+03	1.996008E-04	1.011930E-05
3.655999E+03	2.031852E-04	1.026372E-05
3.665907E+03	2.068982E-04	1.041328E-05
3.675815E+03	2.106708E-04	1.056446E-05
3.685723E+03	2.145407E-04	1.071911E-05
3.695631E+03	2.185480E-04	1.087919E-05
3.705538E+03	2.226199E-04	1.104100E-05
3.715446E+03	2.267961E-04	1.120648E-05
3.725354E+03	2.311190E-04	1.137765E-05
3.735262E+03	2.355114E-04	1.155066E-05
3.745170E+03	2.400152E-04	1.172752E-05
3.755078E+03	2.446328E-04	1.190830E-05
3.764986E+03	2.494093E-04	1.209512E-05
3.774893E+03	2.542622E-04	1.228391E-05
3.784801E+03	2.592357E-04	1.247677E-05
3.794709E+03	2.643781E-04	1.267595E-05
3.804617E+03	2.696011E-04	1.287716E-05
3.814525E+03	2.749516E-04	1.308258E-05
3.824433E+03	2.804320E-04	1.329228E-05
3.834341E+03	2.860939E-04	1.350861E-05
3.844248E+03	2.918412E-04	1.372699E-05
3.854156E+03	2.977247E-04	1.394974E-05
3.864064E+03	3.037983E-04	1.417933E-05
3.873972E+03	3.099605E-04	1.441094E-05
3.883880E+03	3.162640E-04	1.464698E-05
3.893788E+03	3.227105E-04	1.488746E-05
3.903696E+03	3.293580E-04	1.513499E-05
3.913603E+03	3.360956E-04	1.538440E-05
3.923511E+03	3.429797E-04	1.563822E-05
3.933419E+03	3.500113E-04	1.589645E-05
3.943327E+03	3.572524E-04	1.616182E-05
3.953235E+03	3.645819E-04	1.642879E-05
3.963143E+03	3.720600E-04	1.670003E-05
3.973051E+03	3.797520E-04	1.697840E-05
3.982958E+03	3.875279E-04	1.725803E-05
3.992866E+03	3.954513E-04	1.754171E-05
4.002774E+03	4.035208E-04	1.782933E-05
4.012682E+03	4.118057E-04	1.812389E-05
4.022590E+03	4.201641E-04	1.841909E-05
4.032498E+03	4.286629E-04	1.871783E-05
4.042406E+03	4.372993E-04	1.901995E-05
4.052313E+03	4.461465E-04	1.932860E-05
4.062221E+03	4.550494E-04	1.963698E-05
4.072129E+03	4.640782E-04	1.994814E-05
4.082037E+03	4.732284E-04	2.026184E-05
4.091945E+03	4.824943E-04	2.057783E-05
4.101853E+03	4.919539E-04	2.089940E-05
4.111761E+03	5.014333E-04	2.121912E-05
4.121668E+03	5.110077E-04	2.154021E-05
4.131576E+03	5.206686E-04	2.186231E-05
4.141484E+03	5.304978E-04	2.218883E-05
4.151392E+03	5.403054E-04	2.251183E-05
4.161300E+03	5.501695E-04	2.283462E-05
4.171208E+03	5.600785E-04	2.315673E-05
4.181116E+03	5.700197E-04	2.347766E-05
4.191023E+03	5.800785E-04	2.380098E-05
4.200931E+03	5.900437E-04	2.411803E-05
4.210839E+03	5.999968E-04	2.443224E-05
4.220747E+03	6.099210E-04	2.474299E-05
4.230655E+03	6.197981E-04	2.504961E-05
4.240563E+03	6.297165E-04	2.535575E-05
4.250471E+03	6.394418E-04	2.565204E-05
4.260378E+03	6.490578E-04	2.594199E-05
4.270286E+03	6.585409E-04	2.622476E-05
4.280194E+03	6.678659E-04	2.649947E-05
4.290102E+03	6.770056E-04	2.676519E-05
4.300010E+03	6.860482E-04	2.702553E-05
4.309918E+03	6.947298E-04	2.727023E-05
4.319826E+03	7.031327E-04	2.750274E-05
4.329733E+03	7.112216E-04	2.772186E-05
4.339641E+03	7.189626E-04	2.792647E-05
4.349549E+03	7.263286E-04	2.811571E-05
4.359457E+03	7.333070E-04	2.828931E-05
4.369365E+03	7.400283E-04	2.845252E-05
4.379273E+03	7.462529E-04	2.859630E-05
4.389181E+03	7.521211E-04	2.872626E-05
4.399088E+03	7.576480E-04	2.884317E-05
4.408996E+03	7.628479E-04	2.894776E-05
4.418904E+03	7.677356E-04	2.904076E-05
4.428812E+03	7.723246E-04	2.912283E-05
4.438720E+03	7.766288E-04	2.919468E-05
4.448628E+03	7.806615E-04	2.925693E-05
4.458536E+03	7.845694E-04	2.931521E-05
4.468443E+03	7.880992E-04	2.936014E-05
4.478351E+03	7.913970E-04	2.939724E-05
4.488259E+03	7.944752E-04	2.942704E-05
4.498167E+03	7.973472E-04	2.945008E-05
4.508075E+03	8.000254E-04	2.946685E-05
4.517983E+03	8.025224E-04	2.947785E-05
4.527891E+03	8.048503E-04	2.948357E-05
4.537798E+03	8.070216E-04	2.948447E-05
4.547706E+03	8.090485E-04	2.948101E-05
4.557614E+03	8.109426E-04	2.947364E-05
4.567522E+03	8.127159E-04	2.946278E-05
4.577430E+03	8.143797E-04	2.944885E-05
4.587338E+03	8.159452E-04	2.943225E-05
4.597246E+03	8.174237E-04	2.941337E-05
4.607153E+03	8.188260E-04	2.939260E-05
4.617061E+03	8.201626E-04	2.937029E-05
4.626969E+03	8.214441E-04	2.934679E-05
4.636877E+03	8.226801E-04	2.932244E-05
4.646785E+03	8.238809E-04	2.929757E-05
4.656693E+03	8.250556E-04	2.927247E-05
4.666601E+03	8.262138E-04	2.924745E-05
4.676508E+03	8.273645E-04	2.922280E-05
4.686416E+03	8.285162E-04	2.919877E-05
4.696324E+03	8.296773E-04	2.917564E-05
4.706232E+03	8.308560E-04	2.915363E-05
4.716140E+03	8.320603E-04	2.913300E-05
4.726048E+03	8.332977E-04	2.911395E-05
4.735956E+03	8.345751E-04	2.909669E-05
4.745863E+03	8.358999E-04	2.908143E-05
4.755771E+03	8.372786E-04	2.906834E-05
4.765679E+03	8.385755E-04	2.905267E-05
4.775587E+03	8.400806E-04	2.904443E-05
4.785495E+03	8.416582E-04	2.903885E-05
4.795403E+03	8.433135E-04	2.903607E-05
4.805311E+03	8.450520E-04	2.903621E-05
4.815218E+03	8.468784E-04	2.903939E-05
4.825126E+03	8.487979E-04	2.904573E-05
4.835034E+03	8.508146E-04	2.905531E-05
4.844942E+03	8.529329E-04	2.906822E-05
4.854850E+03	8.550119E-04	2.907962E-05
4.864758E+03	8.573443E-04	2.909941E-05
4.874666E+03	8.597893E-04	2.912274E-05
4.884573E+03	8.623500E-04	2.914966E-05
4.894481E+03	8.650291E-04	2.918018E-05
4.904389E+03	8.678294E-04	2.921436E-05
4.914297E+03	8.706059E-04	2.924726E-05
4.924205E+03	8.736548E-04	2.928877E-05
4.934113E+03	8.768310E-04	2.933395E-05
4.944021E+03	8.801360E-04	2.938280E-05
4.953928E+03	8.835714E-04	2.943530E-05
4.963836E+03	8.869883E-04	2.948644E-05
4.973744E+03	8.906863E-04	2.954613E-05
4.983652E+03	8.945167E-04	2.960935E-05
4.993560E+03	8.984797E-04	2.967604E-05
5.003468E+03	9.024229E-04	2.974113E-05
5.013376E+03	9.066500E-04	2.981456E-05
5.023283E+03	9.110085E-04	2.989124E-05
5.033191E+03	9.154976E-04	2.997108E-05
5.043099E+03	9.199607E-04	3.004889E-05
5.053007E+03	9.247058E-04	3.013470E-05
5.062915E+03	9.295771E-04	3.022333E-05
5.072823E+03	9.345719E-04	3.031463E-05
5.082731E+03	9.395297E-04	3.040334E-05
5.092638E+03	9.447636E-04	3.049956E-05
5.102546E+03	9.501127E-04	3.059799E-05
5.112454E+03	9.554130E-04	3.069332E-05
5.122362E+03	9.609818E-04	3.079567E-05
5.132270E+03	9.666552E-04	3.089972E-05
5.142178E+03	9.722647E-04	3.100003E-05
5.152086E+03	9.781330E-04	3.110685E-05
5.161993E+03	9.840920E-04	3.121475E-05
5.171901E+03	9.899702E-04	3.131824E-05
5.181809E+03	9.960946E-04	3.142762E-05
5.191717E+03	1.002125E-03	3.153212E-05
5.201625E+03	1.008393E-03	3.164210E-05
5.211533E+03	1.014724E-03	3.175202E-05
5.221441E+03	1.020941E-03	3.185630E-05
5.231348E+03	1.027381E-03	3.196541E-05
5.241256E+03	1.033865E-03	3.207375E-05
5.251164E+03	1.040214E-03	3.217570E-05
5.261072E+03	1.046770E-03	3.228183E-05
5.270980E+03	1.053177E-03	3.238109E-05
5.280888E+03	1.059781E-03	3.248414E-05
5.290796E+03	1.066223E-03	3.257986E-05
5.300703E+03	1.072854E-03	3.267902E-05
5.310611E+03	1.079311E-03	3.277048E-05
5.320519E+03	1.085951E-03	3.286511E-05
5.330427E+03	1.092592E-03	3.295726E-05
5.340335E+03	1.099045E-03	3.304130E-05
5.350243E+03	1.105677E-03	3.312825E-05
5.360151E+03	1.112117E-03	3.320694E-05
5.370058E+03	1.118738E-03	3.328851E-05
5.379966E+03	1.125167E-03	3.336181E-05
5.389874E+03	1.131784E-03	3.343811E-05
5.399782E+03	1.138211E-03	3.350624E-05
5.409690E+03	1.144836E-03	3.357760E-05
5.419598E+03	1.151280E-03	3.364101E-05
5.429506E+03	1.157738E-03	3.370226E-05
5.439413E+03	1.164412E-03	3.376712E-05
5.449321E+03	1.170911E-03	3.382427E-05
5.459229E+03	1.177627E-03	3.388499E-05
5.469137E+03	1.184159E-03	3.393775E-05
5.479045E+03	1.190898E-03	3.399375E-05
5.488953E+03	1.197441E-03	3.404143E-05
5.498861E+03	1.203979E-03	3.408632E-05
5.508768E+03	1.210712E-03	3.413402E-05
5.518676E+03	1.217230E-03	3.417297E-05
5.528584E+03	1.223937E-03	3.421454E-05
5.538492E+03	1.230422E-03	3.424717E-05
5.548400E+03	1.236887E-03	3.427657E-05
5.558308E+03	1.243540E-03	3.430848E-05
5.568216E+03	1.249967E-03	3.433142E-05
5.578123E+03	1.256588E-03	3.435696E-05
5.588031E+03	1.262983E-03	3.437364E-05
5.597939E+03	1.269366E-03	3.438732E-05
5.607847E+03	1.275955E-03	3.440390E-05
5.617755E+03	1.282328E-03	3.441196E-05
5.627663E+03	1.288703E-03	3.441743E-05
5.637571E+03	1.295303E-03	3.442624E-05
5.647478E+03	1.301700E-03	3.442701E-05
5.657386E+03	1.308117E-03	3.442570E-05
5.667294E+03	1.314561E-03	3.442251E-05
5.677202E+03	1.321259E-03	3.442339E-05
5.687110E+03	1.327777E-03	3.441699E-05
5.697018E+03	1.334343E-03	3.440928E-05
5.706926E+03	1.341187E-03	3.440625E-05
5.716833E+03	1.347870E-03	3.439654E-05
5.726741E+03	1.354621E-03	3.438611E-05
5.736649E+03	1.361447E-03	3.437518E-05
5.746557E+03	1.368585E-03	3.436969E-05
5.756465E+03	1.375583E-03	3.435829E-05
5.766373E+03	1.382676E-03	3.434695E-05
5.776281E+03	1.389870E-03	3.433583E-05
5.786188E+03	1.397405E-03	3.433087E-05
5.796096E+03	1.404819E-03	3.432072E-05
5.806004E+03	1.412350E-03	3.431130E-05
5.815912E+03	1.420003E-03	3.430275E-05
5.825820E+03	1.427782E-03	3.429524E-05
5.835728E+03	1.435932E-03	3.429465E-05
5.845636E+03	1.443975E-03	3.428962E-05
5.855543E+03	1.452154E-03	3.428602E-05
5.865451E+03	1.460472E-03	3.428398E-05
5.875359E+03	1.468929E-03	3.428361E-05
5.885267E+03	1.477527E-03	3.428502E-05
5.895175E+03	1.486515E-03	3.429407E-05
5.905083E+03	1.495396E-03	3.429936E-05
5.914991E+03	1.504418E-03	3.430672E-05
5.924898E+03	1.513577E-03	3.431624E-05
5.934806E+03	1.522873E-03	3.432800E-05
5.944714E+03	1.532302E-03	3.434208E-05
5.954622E+03	1.541859E-03	3.435855E-05
5.964530E+03	1.551541E-03	3.437747E-05
5.974438E+03	1.561602E-03	3.440467E-05
5.984346E+03	1.571516E-03	3.442868E-05
5.994253E+03	1.581533E-03	3.445531E-05
6.004161E+03	1.591647E-03	3.448463E-05
6.014069E+03	1.601848E-03	3.451666E-05
6.023977E+03	1.612125E-03	3.455147E-05
6.033885E+03	1.622467E-03	3.458908E-05
6.043793E+03	1.632861E-03	3.462953E-05
6.053701E+03	1.643295E-03	3.467287E-05
6.063608E+03	1.653753E-03	3.471911E-05
6.073516E+03	1.664221E-03	3.476830E-05
6.083424E+03	1.674681E-03	3.482046E-05
6.093332E+03	1.685117E-03	3.487561E-05
6.103240E+03	1.695508E-03	3.493377E-05
6.113148E+03	1.705836E-03	3.499497E-05
6.123056E+03	1.716080E-03	3.505921E-05
6.132963E+03	1.726218E-03	3.512652E-05
6.142871E+03	1.736227E-03	3.519689E-05
6.152779E+03	1.746084E-03	3.527033E-05
6.162687E+03	1.755763E-03	3.534684E-05
6.172595E+03	1.765240E-03	3.542642E-05
6.182503E+03	1.774489E-03	3.550905E-05
6.192411E+03	1.783483E-03	3.559471E-05
6.202318E+03	1.792194E-03	3.568339E-05
6.212226E+03	1.800596E-03	3.577504E-05
6.222134E+03	1.808660E-03	3.586964E-05
6.232042E+03	1.816357E-03	3.596712E-05
6.241950E+03	1.823661E-03	3.606745E-05
6.251858E+03	1.830544E-03	3.617055E-05
6.261766E+03	1.836977E-03	3.627636E-05
6.271673E+03	1.842934E-03	3.638480E-05
6.281581E+03	1.848388E-03	3.649576E-05
6.291489E+03	1.853315E-03	3.660917E-05
6.301397E+03	1.857691E-03	3.672491E-05
6.311305E+03	1.861492E-03	3.684287E-05
6.321213E+03	1.864698E-03	3.696293E-05
6.331121E+03	1.866976E-03	3.707874E-05
6.341028E+03	1.868934E-03	3.720259E-05
6.350936E+03	1.870245E-03	3.732805E-05
6.360844E+03	1.870896E-03	3.745464E-05
6.370752E+03	1.870878E-03	3.758183E-05
6.380660E+03	1.870180E-03	3.770908E-05
6.390568E+03	1.868796E-03	3.783585E-05
6.400476E+03	1.866722E-03	3.796156E-05
6.410383E+03	1.863640E-03	3.807927E-05
6.420291E+03	1.860174E-03	3.820111E-05
6.430199E+03	1.856007E-03	3.832011E-05
6.440107E+03	1.851138E-03	3.843563E-05
6.450015E+03	1.845566E-03	3.854701E-05
6.459923E+03	1.839291E-03	3.865358E-05
6.469831E+03	1.832315E-03	3.875470E-05
6.479738E+03	1.824339E-03	3.884330E-05
6.489646E+03	1.815991E-03	3.893195E-05
6.499554E+03	1.806978E-03	3.901374E-05
6.509462E+03	1.797318E-03	3.908831E-05
6.519370E+03	1.787029E-03	3.915527E-05
6.529278E+03	1.775830E-03	3.920767E-05
6.539186E+03	1.764338E-03	3.925830E-05
6.549093E+03	1.752270E-03	3.930023E-05
6.559001E+03	1.739646E-03	3.933316E-05
6.568909E+03	1.726487E-03	3.935680E-05
6.578817E+03	1.712527E-03	3.936430E-05
6.588725E+03	1.698366E-03	3.936866E-05
6.598633E+03	1.683739E-03	3.936315E-05
6.608541E+03	1.668670E-03	3.934766E-05
6.618448E+03	1.652910E-03	3.931556E-05
6.628356E+03	1.637044E-03	3.928004E-05
6.638264E+03	1.620819E-03	3.923458E-05
6.648172E+03	1.604266E-03	3.917927E-05
6.658080E+03	1.587148E-03	3.910771E-05
6.667988E+03	1.570030E-03	3.903324E-05
6.677896E+03	1.552675E-03	3.894951E-05
6.687803E+03	1.535112E-03	3.885681E-05
6.697711E+03	1.517116E-03	3.874892E-05
6.707619E+03	1.499230E-03	3.863922E-05
6.717527E+03	1.481225E-03	3.852154E-05
6.727435E+03	1.462884E-03	3.838982E-05
6.737343E+03	1.444729E-03	3.825735E-05
6.747251E+03	1.426538E-03	3.811809E-05
6.757158E+03	1.408336E-03	3.797246E-05
6.767066E+03	1.389917E-03	3.781454E-05
6.776974E+03	1.371771E-03	3.765748E-05
6.786882E+03	1.353687E-03	3.749536E-05
6.796790E+03	1.335461E-03	3.732234E-05
6.806698E+03	1.317564E-03	3.715141E-05
6.816606E+03	1.299788E-03	3.697672E-05
6.826513E+03	1.281936E-03	3.679252E-05
6.836421E+03	1.264458E-03	3.661161E-05
6.846329E+03	1.247150E-03	3.642819E-05
6.856237E+03	1.229821E-03	3.623658E-05
6.866145E+03	1.212899E-03	3.604938E-05
6.876053E+03	1.195985E-03	3.585481E-05
6.885961E+03	1.179496E-03	3.566533E-05
6.895868E+03	1.163236E-03	3.547524E-05
6.905776E+03	1.147024E-03	3.527896E-05
6.915684E+03	1.131253E-03	3.508868E-05
6.925592E+03	1.115735E-03	3.489877E-05
6.935500E+03	1.100292E-03	3.470369E-05
6.945408E+03	1.085301E-03	3.451543E-05
6.955316E+03	1.070398E-03	3.432262E-05
6.965223E+03	1.055951E-03	3.413709E-05
6.975131E+03	1.041778E-03	3.395328E-05
6.985039E+03	1.027710E-03	3.376574E-05
6.994947E+03	1.014096E-03	3.358607E-05
7.004855E+03	1.000594E-03	3.340314E-05
7.014763E+03	9.875422E-04	3.322842E-05
7.024671E+03	9.747706E-04	3.305641E-05
7.034578E+03	9.621169E-04	3.288176E-05
7.044486E+03	9.499059E-04	3.271572E-05
7.054394E+03	9.378139E-04	3.254736E-05
7.064302E+03	9.261572E-04	3.238780E-05
7.074210E+03	9.146201E-04	3.222624E-05
7.084118E+03	9.035094E-04	3.207364E-05
7.094026E+03	8.925165E-04	3.191928E-05
7.103933E+03	8.819408E-04	3.177400E-05
7.113841E+03	8.714803E-04	3.162717E-05
7.123749E+03	8.614264E-04	3.148951E-05
7.133657E+03	8.516272E-04	3.135573E-05
7.143565E+03	8.419374E-04	3.122062E-05
7.153473E+03	8.326379E-04	3.109476E-05
7.163381E+03	8.234426E-04	3.096767E-05
7.173288E+03	8.146260E-04	3.084983E-05
7.183196E+03	8.059079E-04	3.073083E-05
7.193104E+03	7.975569E-04	3.062107E-05
7.203012E+03	7.892981E-04	3.051019E-05
7.212920E+03	7.813942E-04	3.040848E-05
7.222828E+03	7.735760E-04	3.030568E-05
7.232736E+03	7.661005E-04	3.021197E-05
7.242643E+03	7.587040E-04	3.011716E-05
7.252551E+03	7.515112E-04	3.002628E-05
7.262459E+03	7.446430E-04	2.994435E-05
7.272367E+03	7.378425E-04	2.986124E-05
7.282275E+03	7.313544E-04	2.978694E-05
7.292183E+03	7.249261E-04	2.971136E-05
7.302091E+03	7.187981E-04	2.964445E-05
7.311998E+03	7.127222E-04	2.957616E-05
7.321906E+03	7.069349E-04	2.951639E-05
7.331814E+03	7.011915E-04	2.945507E-05
7.341722E+03	6.957247E-04	2.940210E-05
7.351630E+03	6.902940E-04	2.934745E-05
7.361538E+03	6.850124E-04	2.929599E-05
7.371446E+03	6.799898E-04	2.925256E-05
7.381353E+03	6.749909E-04	2.920717E-05
7.391261E+03	6.702394E-04	2.916959E-05
7.401169E+03	6.655035E-04	2.912985E-05
7.411077E+03	6.608918E-04	2.909275E-05
7.420985E+03	6.565105E-04	2.906309E-05
7.430893E+03	6.521321E-04	2.903091E-05
7.440801E+03	6.479726E-04	2.900590E-05
7.450708E+03	6.438079E-04	2.897812E-05
7.460616E+03	6.397430E-04	2.895235E-05
7.470524E+03	6.358805E-04	2.893330E-05
7.480432E+03	6.320001E-04	2.891107E-05
7.490340E+03	6.283108E-04	2.889526E-05
7.500248E+03	6.245955E-04	2.887597E-05
7.510156E+03	6.209559E-04	2.885791E-05
7.520063E+03	6.174916E-04	2.884580E-05
7.529971E+03	6.139885E-04	2.882972E-05
7.539879E+03	6.105467E-04	2.881436E-05
7.549787E+03	6.072644E-04	2.880443E-05
7.559695E+03	6.039311E-04	2.879003E-05
7.569603E+03	6.006453E-04	2.877583E-05
7.579511E+03	5.975034E-04	2.876651E-05
7.589418E+03	5.942983E-04	2.875216E-05
7.599326E+03	5.911271E-04	2.873747E-05
7.609234E+03	5.880848E-04	2.872710E-05
7.619142E+03	5.849678E-04	2.871115E-05
7.629050E+03	5.818713E-04	2.869428E-05
7.638958E+03	5.788895E-04	2.868117E-05
7.648866E+03	5.758214E-04	2.866190E-05
7.658773E+03	5.727618E-04	2.864115E-05
7.668681E+03	5.698027E-04	2.862357E-05
7.678589E+03	5.667468E-04	2.859927E-05
7.688497E+03	5.636877E-04	2.857293E-05
