#wls	flux	fluxerr
1.598322E+03	3.689747E-03	4.024125E-05
1.638280E+03	3.754518E-03	4.075192E-05
1.678238E+03	3.815721E-03	4.121326E-05
1.718196E+03	3.873487E-03	4.162701E-05
1.758154E+03	3.927830E-03	4.199369E-05
1.798112E+03	3.977489E-03	4.230024E-05
1.838070E+03	4.020602E-03	4.252757E-05
1.878028E+03	4.055286E-03	4.265685E-05
1.917986E+03	4.078931E-03	4.266215E-05
1.957944E+03	4.089961E-03	4.252897E-05
1.997902E+03	4.089683E-03	4.227307E-05
2.037860E+03	4.084970E-03	4.196718E-05
2.077818E+03	4.091679E-03	4.177403E-05
2.117776E+03	4.133556E-03	4.193232E-05
2.157734E+03	4.233637E-03	4.266725E-05
2.197692E+03	4.404164E-03	4.408950E-05
2.237650E+03	4.641813E-03	4.615130E-05
2.277609E+03	4.933833E-03	4.871229E-05
2.317567E+03	5.266595E-03	5.162674E-05
2.357525E+03	5.630117E-03	5.478794E-05
2.397483E+03	6.018942E-03	5.813560E-05
2.437441E+03	6.430668E-03	6.164018E-05
2.477399E+03	6.865675E-03	6.529925E-05
2.517357E+03	7.324936E-03	6.911575E-05
2.557315E+03	7.809821E-03	7.309604E-05
2.597273E+03	8.321470E-03	7.724383E-05
2.637231E+03	8.861428E-03	8.156626E-05
2.677189E+03	9.430699E-03	8.606497E-05
2.717147E+03	1.003103E-02	9.074803E-05
2.757105E+03	1.066401E-02	9.562170E-05
2.797063E+03	1.133179E-02	1.006965E-04
2.837021E+03	1.203776E-02	1.059937E-04
2.876979E+03	1.278372E-02	1.115194E-04
2.916937E+03	1.357119E-02	1.172768E-04
2.956895E+03	1.440159E-02	1.232683E-04
2.996853E+03	1.527598E-02	1.294929E-04
3.006843E+03	1.550140E-02	1.310839E-04
3.016832E+03	1.572992E-02	1.326916E-04
3.026822E+03	1.596100E-02	1.343114E-04
3.036811E+03	1.619496E-02	1.359457E-04
3.046801E+03	1.643239E-02	1.375994E-04
3.056790E+03	1.667371E-02	1.392759E-04
3.066780E+03	1.691875E-02	1.409734E-04
3.076769E+03	1.716730E-02	1.426901E-04
3.086759E+03	1.741942E-02	1.444261E-04
3.096748E+03	1.767469E-02	1.461781E-04
3.106738E+03	1.793320E-02	1.479463E-04
3.116727E+03	1.819505E-02	1.497315E-04
3.126717E+03	1.845980E-02	1.515301E-04
3.136706E+03	1.872732E-02	1.533407E-04
3.146696E+03	1.899797E-02	1.551662E-04
3.156685E+03	1.927111E-02	1.570013E-04
3.166675E+03	1.954689E-02	1.588469E-04
3.176665E+03	1.982518E-02	1.607021E-04
3.186654E+03	2.010589E-02	1.625660E-04
3.196644E+03	2.038919E-02	1.644398E-04
3.206633E+03	2.067477E-02	1.663210E-04
3.216623E+03	2.096255E-02	1.682088E-04
3.226612E+03	2.125254E-02	1.701033E-04
3.236602E+03	2.154498E-02	1.720064E-04
3.246591E+03	2.183962E-02	1.739160E-04
3.256581E+03	2.213625E-02	1.758303E-04
3.266570E+03	2.243523E-02	1.777522E-04
3.276560E+03	2.273665E-02	1.796824E-04
3.286549E+03	2.304017E-02	1.816181E-04
3.296539E+03	2.334649E-02	1.835647E-04
3.306528E+03	2.365533E-02	1.855202E-04
3.316518E+03	2.396699E-02	1.874866E-04
3.326507E+03	2.428179E-02	1.894666E-04
3.336497E+03	2.459964E-02	1.914592E-04
3.346486E+03	2.492119E-02	1.934696E-04
3.356476E+03	2.524646E-02	1.954977E-04
3.366465E+03	2.557596E-02	1.975474E-04
3.376455E+03	2.591001E-02	1.996211E-04
3.386444E+03	2.624894E-02	2.017211E-04
3.396434E+03	2.659314E-02	2.038505E-04
3.406423E+03	2.694292E-02	2.060112E-04
3.416413E+03	2.729859E-02	2.082056E-04
3.426402E+03	2.766008E-02	2.104329E-04
3.436392E+03	2.802722E-02	2.126917E-04
3.446381E+03	2.840034E-02	2.149844E-04
3.456371E+03	2.877828E-02	2.173020E-04
3.466360E+03	2.916052E-02	2.196406E-04
3.476350E+03	2.954559E-02	2.219889E-04
3.486339E+03	2.993128E-02	2.243305E-04
3.496329E+03	3.031543E-02	2.266496E-04
3.506318E+03	3.069531E-02	2.289259E-04
3.516308E+03	3.106821E-02	2.311398E-04
3.526297E+03	3.143218E-02	2.332774E-04
3.536287E+03	3.178745E-02	2.353411E-04
3.546276E+03	3.213860E-02	2.373655E-04
3.556266E+03	3.249776E-02	2.394404E-04
3.566255E+03	3.288982E-02	2.417484E-04
3.576245E+03	3.335382E-02	2.445745E-04
3.586234E+03	3.393790E-02	2.482673E-04
3.596224E+03	3.467146E-02	2.530353E-04
3.606213E+03	3.552936E-02	2.586884E-04
3.616203E+03	3.644722E-02	2.647527E-04
3.626192E+03	3.735580E-02	2.707242E-04
3.636182E+03	3.819600E-02	2.761762E-04
3.646172E+03	3.892197E-02	2.807817E-04
3.656161E+03	3.949915E-02	2.842981E-04
3.666151E+03	3.990277E-02	2.865548E-04
3.676140E+03	4.011694E-02	2.874467E-04
3.686130E+03	4.013303E-02	2.869213E-04
3.696119E+03	3.995107E-02	2.849883E-04
3.706109E+03	3.957908E-02	2.817141E-04
3.716098E+03	3.903395E-02	2.772274E-04
3.726088E+03	3.833656E-02	2.716839E-04
3.736077E+03	3.750573E-02	2.652236E-04
3.746067E+03	3.656702E-02	2.580325E-04
3.756056E+03	3.555205E-02	2.503377E-04
3.766046E+03	3.449624E-02	2.423911E-04
3.776035E+03	3.344029E-02	2.344796E-04
3.786025E+03	3.242735E-02	2.269044E-04
3.796014E+03	3.149675E-02	2.199381E-04
3.806004E+03	3.068608E-02	2.138386E-04
3.815993E+03	3.002919E-02	2.088358E-04
3.825983E+03	2.955136E-02	2.050984E-04
3.835972E+03	2.927135E-02	2.027485E-04
3.845962E+03	2.920035E-02	2.018552E-04
3.855951E+03	2.933714E-02	2.024013E-04
3.865941E+03	2.967104E-02	2.043050E-04
3.875930E+03	3.018025E-02	2.074085E-04
3.885920E+03	3.082840E-02	2.114557E-04
3.895909E+03	3.156839E-02	2.161187E-04
3.905899E+03	3.234776E-02	2.210358E-04
3.915888E+03	3.311418E-02	2.258489E-04
3.925878E+03	3.381913E-02	2.302286E-04
3.935867E+03	3.442310E-02	2.339090E-04
3.945857E+03	3.490291E-02	2.367368E-04
3.955846E+03	3.525206E-02	2.386729E-04
3.965836E+03	3.547829E-02	2.397746E-04
3.975825E+03	3.560131E-02	2.401793E-04
3.985815E+03	3.565057E-02	2.400893E-04
3.995804E+03	3.565752E-02	2.397185E-04
4.005794E+03	3.564518E-02	2.392231E-04
4.015783E+03	3.563389E-02	2.387399E-04
4.025773E+03	3.563743E-02	2.383611E-04
4.035762E+03	3.565582E-02	2.380863E-04
4.045752E+03	3.568299E-02	2.378746E-04
4.055741E+03	3.571052E-02	2.376697E-04
4.065731E+03	3.572268E-02	2.373671E-04
4.075720E+03	3.570224E-02	2.368530E-04
4.085710E+03	3.563091E-02	2.360073E-04
4.095700E+03	3.548622E-02	2.346830E-04
4.105689E+03	3.524834E-02	2.327515E-04
4.115679E+03	3.490200E-02	2.301146E-04
4.125668E+03	3.443718E-02	2.267098E-04
4.135658E+03	3.385569E-02	2.225521E-04
4.145647E+03	3.317411E-02	2.177536E-04
4.155637E+03	3.242334E-02	2.125194E-04
4.165626E+03	3.164797E-02	2.071431E-04
4.175616E+03	3.090406E-02	2.019915E-04
4.185605E+03	3.025284E-02	1.974629E-04
4.195595E+03	2.975703E-02	1.939636E-04
4.205584E+03	2.947142E-02	1.918458E-04
4.215574E+03	2.943385E-02	1.913498E-04
4.225563E+03	2.966884E-02	1.926287E-04
4.235553E+03	3.017735E-02	1.956819E-04
4.245542E+03	3.091799E-02	2.002349E-04
4.255532E+03	3.182026E-02	2.058263E-04
4.265521E+03	3.279589E-02	2.118826E-04
4.275511E+03	3.374223E-02	2.177401E-04
4.285500E+03	3.455132E-02	2.227041E-04
4.295490E+03	3.513277E-02	2.261962E-04
4.305479E+03	3.543434E-02	2.278857E-04
4.315469E+03	3.543969E-02	2.276738E-04
4.325458E+03	3.515958E-02	2.256357E-04
4.335448E+03	3.462997E-02	2.220077E-04
4.345437E+03	3.390773E-02	2.171587E-04
4.355427E+03	3.306876E-02	2.115777E-04
4.365416E+03	3.220578E-02	2.058589E-04
4.375406E+03	3.141175E-02	2.005959E-04
4.385395E+03	3.075692E-02	1.962352E-04
4.395385E+03	3.026807E-02	1.929447E-04
4.405374E+03	2.994093E-02	1.906941E-04
4.415364E+03	2.975926E-02	1.893770E-04
4.425353E+03	2.970277E-02	1.888619E-04
4.435343E+03	2.975149E-02	1.890199E-04
4.445332E+03	2.988976E-02	1.897498E-04
4.455322E+03	3.010527E-02	1.909722E-04
4.465311E+03	3.038137E-02	1.925804E-04
4.475301E+03	3.069705E-02	1.944404E-04
4.485290E+03	3.103315E-02	1.964305E-04
4.495280E+03	3.136602E-02	1.984008E-04
4.505269E+03	3.166650E-02	2.001670E-04
4.515259E+03	3.190388E-02	2.015356E-04
4.525248E+03	3.205242E-02	2.023447E-04
4.535238E+03	3.209627E-02	2.024956E-04
4.545228E+03	3.203244E-02	2.019702E-04
4.555217E+03	3.187173E-02	2.008381E-04
4.565207E+03	3.163025E-02	1.992014E-04
4.575196E+03	3.131881E-02	1.971290E-04
4.585186E+03	3.094615E-02	1.946764E-04
4.595175E+03	3.051639E-02	1.918700E-04
4.605165E+03	3.002279E-02	1.886678E-04
4.615154E+03	2.945500E-02	1.850052E-04
4.625144E+03	2.880761E-02	1.808487E-04
4.635133E+03	2.808304E-02	1.762141E-04
4.645123E+03	2.729286E-02	1.711744E-04
4.655112E+03	2.645965E-02	1.658715E-04
4.665102E+03	2.561639E-02	1.605122E-04
4.675091E+03	2.480441E-02	1.553552E-04
4.685081E+03	2.407091E-02	1.506956E-04
4.695070E+03	2.346777E-02	1.468571E-04
4.705060E+03	2.304477E-02	1.441500E-04
4.715049E+03	2.284115E-02	1.428179E-04
4.725039E+03	2.288104E-02	1.430101E-04
4.735028E+03	2.317322E-02	1.447796E-04
4.745018E+03	2.370881E-02	1.480689E-04
4.755007E+03	2.445258E-02	1.526564E-04
4.764997E+03	2.534603E-02	1.581757E-04
4.774986E+03	2.631515E-02	1.641640E-04
4.784976E+03	2.728289E-02	1.701404E-04
4.794965E+03	2.816819E-02	1.755998E-04
4.804955E+03	2.889727E-02	1.800828E-04
4.814944E+03	2.942405E-02	1.833035E-04
4.824934E+03	2.972555E-02	1.851201E-04
4.834923E+03	2.979891E-02	1.855161E-04
4.844913E+03	2.966861E-02	1.846453E-04
4.854902E+03	2.937439E-02	1.827561E-04
4.864892E+03	2.896229E-02	1.801357E-04
4.874881E+03	2.848231E-02	1.770957E-04
4.884871E+03	2.797997E-02	1.739192E-04
4.894860E+03	2.749088E-02	1.708278E-04
4.904850E+03	2.704070E-02	1.679806E-04
4.914839E+03	2.664225E-02	1.654569E-04
4.924829E+03	2.629715E-02	1.632665E-04
4.934818E+03	2.600006E-02	1.613759E-04
4.944808E+03	2.573728E-02	1.596998E-04
4.954797E+03	2.549013E-02	1.581222E-04
4.964787E+03	2.524132E-02	1.565355E-04
4.974776E+03	2.497448E-02	1.548385E-04
4.984766E+03	2.467856E-02	1.529627E-04
4.994756E+03	2.435339E-02	1.509070E-04
5.004745E+03	2.400678E-02	1.487200E-04
5.014735E+03	2.365310E-02	1.464908E-04
5.024724E+03	2.331324E-02	1.443488E-04
5.034714E+03	2.300947E-02	1.424316E-04
5.044703E+03	2.276013E-02	1.408526E-04
5.054693E+03	2.257843E-02	1.396933E-04
5.064682E+03	2.246901E-02	1.389821E-04
5.074672E+03	2.242855E-02	1.386981E-04
5.084661E+03	2.244848E-02	1.387879E-04
5.094651E+03	2.251289E-02	1.391531E-04
5.104640E+03	2.260203E-02	1.396712E-04
5.114630E+03	2.269799E-02	1.402317E-04
5.124619E+03	2.278370E-02	1.407290E-04
5.134609E+03	2.284440E-02	1.410721E-04
5.144598E+03	2.287412E-02	1.412242E-04
5.154588E+03	2.287141E-02	1.411766E-04
5.164577E+03	2.283842E-02	1.409425E-04
5.174567E+03	2.278048E-02	1.405552E-04
5.184556E+03	2.270425E-02	1.400556E-04
5.194546E+03	2.261613E-02	1.394835E-04
5.204535E+03	2.252154E-02	1.388722E-04
5.214525E+03	2.242354E-02	1.382407E-04
5.224514E+03	2.232314E-02	1.375952E-04
5.234504E+03	2.222011E-02	1.369344E-04
5.244493E+03	2.211231E-02	1.362450E-04
5.254483E+03	2.199522E-02	1.354993E-04
5.264472E+03	2.186435E-02	1.346696E-04
5.274462E+03	2.171567E-02	1.337312E-04
5.284451E+03	2.154578E-02	1.326633E-04
5.294441E+03	2.135468E-02	1.314658E-04
5.304430E+03	2.114462E-02	1.301527E-04
5.314420E+03	2.092105E-02	1.287576E-04
5.324409E+03	2.069237E-02	1.273323E-04
5.334399E+03	2.046877E-02	1.259395E-04
5.344388E+03	2.025807E-02	1.246271E-04
5.354378E+03	2.006248E-02	1.234089E-04
5.364367E+03	1.988155E-02	1.222821E-04
5.374357E+03	1.971353E-02	1.212357E-04
5.384346E+03	1.955233E-02	1.202324E-04
5.394336E+03	1.939193E-02	1.192352E-04
5.404325E+03	1.923036E-02	1.182320E-04
5.414315E+03	1.907237E-02	1.172518E-04
5.424304E+03	1.892553E-02	1.163414E-04
5.434294E+03	1.879701E-02	1.155447E-04
5.444284E+03	1.869154E-02	1.148907E-04
5.454273E+03	1.861057E-02	1.143883E-04
5.464263E+03	1.854360E-02	1.139727E-04
5.474252E+03	1.846174E-02	1.134666E-04
5.484242E+03	1.834007E-02	1.127164E-04
5.494231E+03	1.817420E-02	1.116954E-04
5.504221E+03	1.797714E-02	1.104835E-04
5.514210E+03	1.777719E-02	1.092543E-04
5.524200E+03	1.760286E-02	1.081832E-04
5.534189E+03	1.746470E-02	1.073348E-04
5.544179E+03	1.736333E-02	1.067131E-04
5.554168E+03	1.729417E-02	1.062897E-04
5.564158E+03	1.724439E-02	1.059858E-04
5.574147E+03	1.719826E-02	1.057046E-04
5.584137E+03	1.714296E-02	1.053674E-04
5.594126E+03	1.707045E-02	1.049247E-04
5.604116E+03	1.697737E-02	1.043558E-04
5.614105E+03	1.686432E-02	1.036643E-04
5.624095E+03	1.673562E-02	1.028767E-04
5.634084E+03	1.659815E-02	1.020353E-04
5.644074E+03	1.645963E-02	1.011875E-04
5.654063E+03	1.632607E-02	1.003702E-04
5.664053E+03	1.620268E-02	9.961546E-05
5.674042E+03	1.609393E-02	9.895067E-05
5.684032E+03	1.600280E-02	9.839416E-05
5.694021E+03	1.593115E-02	9.795734E-05
5.704011E+03	1.588105E-02	9.765297E-05
5.714000E+03	1.585306E-02	9.748445E-05
5.723990E+03	1.584819E-02	9.745806E-05
5.733979E+03	1.586725E-02	9.757865E-05
5.743969E+03	1.590820E-02	9.783375E-05
5.753958E+03	1.596888E-02	9.821003E-05
5.763948E+03	1.604647E-02	9.869021E-05
5.773937E+03	1.613426E-02	9.923287E-05
5.783927E+03	1.622434E-02	9.978951E-05
5.793916E+03	1.630940E-02	1.003150E-04
5.803906E+03	1.638160E-02	1.007611E-04
5.813895E+03	1.643408E-02	1.010858E-04
5.823885E+03	1.646179E-02	1.012577E-04
5.833874E+03	1.646325E-02	1.012679E-04
5.843864E+03	1.643967E-02	1.011238E-04
5.853853E+03	1.639573E-02	1.008541E-04
5.863843E+03	1.633835E-02	1.005014E-04
5.873832E+03	1.627619E-02	1.001189E-04
5.883822E+03	1.621635E-02	9.975035E-05
5.893811E+03	1.616194E-02	9.941480E-05
5.903801E+03	1.611317E-02	9.911360E-05
5.913791E+03	1.606787E-02	9.883340E-05
5.923780E+03	1.602130E-02	9.854497E-05
5.933770E+03	1.596812E-02	9.821550E-05
5.943759E+03	1.590469E-02	9.782265E-05
5.953749E+03	1.583057E-02	9.736364E-05
5.963738E+03	1.574727E-02	9.684783E-05
5.973728E+03	1.565777E-02	9.629347E-05
5.983717E+03	1.556506E-02	9.571912E-05
5.993707E+03	1.547203E-02	9.514237E-05
6.003696E+03	1.538153E-02	9.458088E-05
6.013686E+03	1.529546E-02	9.404631E-05
6.023675E+03	1.521523E-02	9.354735E-05
6.033665E+03	1.514212E-02	9.309181E-05
6.043654E+03	1.507571E-02	9.267716E-05
6.053644E+03	1.501549E-02	9.230025E-05
6.063633E+03	1.496004E-02	9.195234E-05
6.073623E+03	1.490646E-02	9.161559E-05
6.083612E+03	1.485152E-02	9.127023E-05
6.093602E+03	1.479105E-02	9.089062E-05
6.103591E+03	1.472020E-02	9.044698E-05
6.113581E+03	1.463340E-02	8.990507E-05
6.123570E+03	1.452631E-02	8.923833E-05
6.133560E+03	1.439621E-02	8.843007E-05
6.143549E+03	1.424197E-02	8.747339E-05
6.153539E+03	1.406558E-02	8.638068E-05
6.163528E+03	1.387248E-02	8.518531E-05
6.173518E+03	1.367103E-02	8.393870E-05
6.183507E+03	1.347122E-02	8.270224E-05
6.193497E+03	1.328218E-02	8.153198E-05
6.203486E+03	1.311367E-02	8.048777E-05
6.213476E+03	1.297319E-02	7.961568E-05
6.223465E+03	1.286325E-02	7.893107E-05
6.233455E+03	1.278385E-02	7.843380E-05
6.243444E+03	1.273241E-02	7.810811E-05
6.253434E+03	1.270162E-02	7.790901E-05
6.263423E+03	1.268210E-02	7.777902E-05
6.273413E+03	1.266359E-02	7.765516E-05
6.283402E+03	1.263489E-02	7.746880E-05
6.293392E+03	1.258714E-02	7.716563E-05
6.303381E+03	1.251636E-02	7.672130E-05
6.313371E+03	1.242782E-02	7.616833E-05
6.323360E+03	1.233500E-02	7.558921E-05
6.333350E+03	1.226127E-02	7.512725E-05
6.343339E+03	1.224138E-02	7.499529E-05
6.353329E+03	1.231553E-02	7.543950E-05
6.363319E+03	1.252207E-02	7.669448E-05
6.373308E+03	1.289073E-02	7.894205E-05
6.383298E+03	1.344286E-02	8.231260E-05
6.393287E+03	1.418370E-02	8.683774E-05
6.403277E+03	1.508898E-02	9.236850E-05
6.413266E+03	1.610609E-02	9.858247E-05
6.423256E+03	1.716118E-02	1.050274E-04
6.433245E+03	1.817383E-02	1.112110E-04
6.443235E+03	1.906050E-02	1.166222E-04
6.453224E+03	1.974912E-02	1.208204E-04
6.463214E+03	2.019824E-02	1.235524E-04
6.473203E+03	2.039754E-02	1.247557E-04
6.483193E+03	2.036602E-02	1.245468E-04
6.493182E+03	2.015587E-02	1.232455E-04
6.503172E+03	1.984101E-02	1.213041E-04
6.513161E+03	1.951907E-02	1.193196E-04
6.523151E+03	1.929805E-02	1.179522E-04
6.533140E+03	1.920975E-02	1.173958E-04
6.543130E+03	1.919802E-02	1.173070E-04
6.553119E+03	1.919593E-02	1.172767E-04
6.563109E+03	1.915122E-02	1.169855E-04
6.573098E+03	1.902953E-02	1.162237E-04
6.583088E+03	1.882123E-02	1.149327E-04
6.593077E+03	1.853460E-02	1.131632E-04
6.603067E+03	1.818368E-02	1.110014E-04
6.613056E+03	1.778626E-02	1.085558E-04
6.623046E+03	1.735954E-02	1.059317E-04
6.633035E+03	1.691811E-02	1.032181E-04
6.643025E+03	1.647510E-02	1.004953E-04
6.653014E+03	1.603992E-02	9.782073E-05
6.663004E+03	1.561921E-02	9.523472E-05
6.672993E+03	1.521795E-02	9.276772E-05
6.682983E+03	1.483825E-02	9.043258E-05
6.692972E+03	1.448126E-02	8.823615E-05
6.702962E+03	1.414693E-02	8.617811E-05
6.712951E+03	1.383452E-02	8.425391E-05
6.722941E+03	1.354297E-02	8.245695E-05
6.732930E+03	1.327099E-02	8.077937E-05
6.742920E+03	1.301709E-02	7.921209E-05
6.752909E+03	1.277998E-02	7.774705E-05
6.762899E+03	1.255834E-02	7.637630E-05
6.772888E+03	1.235062E-02	7.509027E-05
6.782878E+03	1.215542E-02	7.388047E-05
6.792867E+03	1.197172E-02	7.274062E-05
6.802857E+03	1.179841E-02	7.166392E-05
6.812847E+03	1.163521E-02	7.064867E-05
6.822836E+03	1.148148E-02	6.969092E-05
6.832826E+03	1.133779E-02	6.879402E-05
6.842815E+03	1.120437E-02	6.795946E-05
6.852805E+03	1.108224E-02	6.719330E-05
6.862794E+03	1.097228E-02	6.650087E-05
6.872784E+03	1.087481E-02	6.588394E-05
6.882773E+03	1.079032E-02	6.534547E-05
6.892763E+03	1.071823E-02	6.488185E-05
6.902752E+03	1.065730E-02	6.448553E-05
6.912742E+03	1.060607E-02	6.414754E-05
6.922731E+03	1.056198E-02	6.385244E-05
6.932721E+03	1.052259E-02	6.358536E-05
6.942710E+03	1.048589E-02	6.333415E-05
6.952700E+03	1.044988E-02	6.308672E-05
6.962689E+03	1.041250E-02	6.283062E-05
6.972679E+03	1.037302E-02	6.256157E-05
6.982668E+03	1.033045E-02	6.227353E-05
6.992658E+03	1.028483E-02	6.196681E-05
7.002647E+03	1.023574E-02	6.163895E-05
7.012637E+03	1.018410E-02	6.129558E-05
7.022626E+03	1.012996E-02	6.093696E-05
7.032616E+03	1.007452E-02	6.057036E-05
7.042605E+03	1.001851E-02	6.020020E-05
7.052595E+03	9.962760E-03	5.983157E-05
7.062584E+03	9.907887E-03	5.946811E-05
7.072574E+03	9.854896E-03	5.911588E-05
7.082563E+03	9.803723E-03	5.877451E-05
7.092553E+03	9.755221E-03	5.844910E-05
7.102542E+03	9.709013E-03	5.813740E-05
7.112532E+03	9.665437E-03	5.784143E-05
7.122521E+03	9.624119E-03	5.755894E-05
7.132511E+03	9.584551E-03	5.728689E-05
7.142500E+03	9.546636E-03	5.702472E-05
7.152490E+03	9.509624E-03	5.676794E-05
7.162479E+03	9.472710E-03	5.651178E-05
7.172469E+03	9.435346E-03	5.625299E-05
7.182458E+03	9.397335E-03	5.599042E-05
7.192448E+03	9.358405E-03	5.572249E-05
7.202437E+03	9.318202E-03	5.544713E-05
7.212427E+03	9.276710E-03	5.516428E-05
7.222416E+03	9.234163E-03	5.487539E-05
7.232406E+03	9.190266E-03	5.457873E-05
7.242395E+03	9.145407E-03	5.427666E-05
7.252385E+03	9.099453E-03	5.396842E-05
7.262375E+03	9.052308E-03	5.365350E-05
7.272364E+03	9.004455E-03	5.333478E-05
7.282354E+03	8.955917E-03	5.301245E-05
7.292343E+03	8.906758E-03	5.268693E-05
7.302333E+03	8.857623E-03	5.236206E-05
7.312322E+03	8.808510E-03	5.203787E-05
7.322312E+03	8.759899E-03	5.171719E-05
7.332301E+03	8.711996E-03	5.140131E-05
7.342291E+03	8.664951E-03	5.109109E-05
7.352280E+03	8.618838E-03	5.078702E-05
7.362270E+03	8.573607E-03	5.048881E-05
7.372259E+03	8.528963E-03	5.019475E-05
7.382249E+03	8.485062E-03	4.990578E-05
7.392238E+03	8.441487E-03	4.961947E-05
7.402228E+03	8.397952E-03	4.933417E-05
7.412217E+03	8.354151E-03	4.904811E-05
7.422207E+03	8.309712E-03	4.875915E-05
7.432196E+03	8.264413E-03	4.846601E-05
7.442186E+03	8.217660E-03	4.816527E-05
7.452175E+03	8.169103E-03	4.785490E-05
7.462165E+03	8.118032E-03	4.753080E-05
7.472154E+03	8.063839E-03	4.718947E-05
7.482144E+03	8.005983E-03	4.682778E-05
7.492133E+03	7.943671E-03	4.644118E-05
7.502123E+03	7.876624E-03	4.602809E-05
7.512112E+03	7.804472E-03	4.558640E-05
7.522102E+03	7.727438E-03	4.511747E-05
7.532091E+03	7.646258E-03	4.462565E-05
7.542081E+03	7.562321E-03	4.411909E-05
7.552070E+03	7.477161E-03	4.360677E-05
7.562060E+03	7.393692E-03	4.310569E-05
7.572049E+03	7.314267E-03	4.262956E-05
7.582039E+03	7.242074E-03	4.219695E-05
7.592028E+03	7.180329E-03	4.182656E-05
7.602018E+03	7.131712E-03	4.153397E-05
7.612007E+03	7.098634E-03	4.133319E-05
7.621997E+03	7.082333E-03	4.123140E-05
7.631986E+03	7.083160E-03	4.123062E-05
7.641976E+03	7.100430E-03	4.132689E-05
7.651965E+03	7.132006E-03	4.150778E-05
7.661955E+03	7.174921E-03	4.175608E-05
7.671944E+03	7.225736E-03	4.205185E-05
7.681934E+03	7.279986E-03	4.236916E-05
7.691923E+03	7.333579E-03	4.268430E-05
7.701913E+03	7.383147E-03	4.297774E-05
7.711903E+03	7.425287E-03	4.322974E-05
7.721892E+03	7.458088E-03	4.342924E-05
7.731882E+03	7.479927E-03	4.356683E-05
7.741871E+03	7.490526E-03	4.364091E-05
7.751861E+03	7.490081E-03	4.365262E-05
