#wls	flux	fluxerr
1.598322E+03	2.259840E-04	5.557597E-06
1.638280E+03	2.320559E-04	5.676385E-06
1.678238E+03	2.381468E-04	5.793367E-06
1.718196E+03	2.444658E-04	5.913534E-06
1.758154E+03	2.507384E-04	6.030126E-06
1.798112E+03	2.569610E-04	6.143017E-06
1.838070E+03	2.630866E-04	6.251051E-06
1.878028E+03	2.686688E-04	6.343672E-06
1.917986E+03	2.737085E-04	6.421085E-06
1.957944E+03	2.778888E-04	6.476107E-06
1.997902E+03	2.813091E-04	6.511393E-06
2.037860E+03	2.842521E-04	6.533765E-06
2.077818E+03	2.877650E-04	6.567331E-06
2.117776E+03	2.934935E-04	6.649052E-06
2.157734E+03	3.032348E-04	6.818178E-06
2.197692E+03	3.176854E-04	7.088114E-06
2.237650E+03	3.366208E-04	7.451317E-06
2.277609E+03	3.591406E-04	7.885480E-06
2.317567E+03	3.839456E-04	8.360190E-06
2.357525E+03	4.098438E-04	8.848248E-06
2.397483E+03	4.363814E-04	9.339119E-06
2.437441E+03	4.628537E-04	9.817276E-06
2.477399E+03	4.892765E-04	1.028287E-05
2.517357E+03	5.156351E-04	1.073544E-05
2.557315E+03	5.421149E-04	1.117863E-05
2.597273E+03	5.687702E-04	1.161331E-05
2.637231E+03	5.959757E-04	1.204678E-05
2.677189E+03	6.242910E-04	1.248971E-05
2.717147E+03	6.536197E-04	1.293937E-05
2.757105E+03	6.848796E-04	1.341295E-05
2.797063E+03	7.183305E-04	1.391411E-05
2.837021E+03	7.547754E-04	1.445670E-05
2.876979E+03	7.945031E-04	1.504413E-05
2.916937E+03	8.387478E-04	1.569725E-05
2.956895E+03	8.884343E-04	1.643008E-05
2.996853E+03	9.443447E-04	1.725324E-05
3.006843E+03	9.594936E-04	1.747627E-05
3.016832E+03	9.751005E-04	1.770585E-05
3.026822E+03	9.913677E-04	1.794556E-05
3.036811E+03	1.008112E-03	1.819198E-05
3.046801E+03	1.025564E-03	1.844920E-05
3.056790E+03	1.043764E-03	1.871779E-05
3.066780E+03	1.062510E-03	1.899404E-05
3.076769E+03	1.082206E-03	1.928503E-05
3.086759E+03	1.102450E-03	1.958350E-05
3.096748E+03	1.123650E-03	1.989656E-05
3.106738E+03	1.145608E-03	2.022056E-05
3.116727E+03	1.168534E-03	2.055904E-05
3.126717E+03	1.192433E-03	2.091198E-05
3.136706E+03	1.217111E-03	2.127576E-05
3.146696E+03	1.242986E-03	2.165760E-05
3.156685E+03	1.269656E-03	2.205028E-05
3.166675E+03	1.297755E-03	2.246465E-05
3.176665E+03	1.326672E-03	2.288994E-05
3.186654E+03	1.357048E-03	2.333703E-05
3.196644E+03	1.388691E-03	2.380238E-05
3.206633E+03	1.421619E-03	2.428610E-05
3.216623E+03	1.456063E-03	2.479191E-05
3.226612E+03	1.491831E-03	2.531631E-05
3.236602E+03	1.529374E-03	2.586671E-05
3.246591E+03	1.568507E-03	2.643969E-05
3.256581E+03	1.609256E-03	2.703541E-05
3.266570E+03	1.651866E-03	2.765775E-05
3.276560E+03	1.696372E-03	2.830698E-05
3.286549E+03	1.743027E-03	2.898698E-05
3.296539E+03	1.791652E-03	2.969445E-05
3.306528E+03	1.842509E-03	3.043341E-05
3.316518E+03	1.895640E-03	3.120419E-05
3.326507E+03	1.951318E-03	3.201089E-05
3.336497E+03	2.009370E-03	3.285029E-05
3.346486E+03	2.070298E-03	3.373020E-05
3.356476E+03	2.133935E-03	3.464745E-05
3.366465E+03	2.200345E-03	3.560263E-05
3.376455E+03	2.270045E-03	3.660366E-05
3.386444E+03	2.342880E-03	3.764754E-05
3.396434E+03	2.419164E-03	3.873879E-05
3.406423E+03	2.498760E-03	3.987473E-05
3.416413E+03	2.582240E-03	4.106392E-05
3.426402E+03	2.669753E-03	4.230814E-05
3.436392E+03	2.761482E-03	4.360965E-05
3.446381E+03	2.857429E-03	4.496788E-05
3.456371E+03	2.958613E-03	4.639813E-05
3.466360E+03	3.064957E-03	4.789843E-05
3.476350E+03	3.177435E-03	4.948319E-05
3.486339E+03	3.296421E-03	5.115726E-05
3.496329E+03	3.422644E-03	5.293099E-05
3.506318E+03	3.557463E-03	5.482420E-05
3.516308E+03	3.701667E-03	5.684774E-05
3.526297E+03	3.856743E-03	5.902298E-05
3.536287E+03	4.023976E-03	6.136789E-05
3.546276E+03	4.205577E-03	6.391426E-05
3.556266E+03	4.404085E-03	6.669844E-05
3.566255E+03	4.622751E-03	6.976697E-05
3.576245E+03	4.865749E-03	7.317964E-05
3.586234E+03	5.136539E-03	7.698471E-05
3.596224E+03	5.437936E-03	8.122013E-05
3.606213E+03	5.769321E-03	8.587223E-05
3.616203E+03	6.125938E-03	9.086613E-05
3.626192E+03	6.502061E-03	9.611367E-05
3.636182E+03	6.892396E-03	1.015343E-04
3.646172E+03	7.291817E-03	1.070509E-04
3.656161E+03	7.697160E-03	1.126163E-04
3.666151E+03	8.104479E-03	1.181726E-04
3.676140E+03	8.508079E-03	1.236371E-04
3.686130E+03	8.899125E-03	1.288830E-04
3.696119E+03	9.263187E-03	1.337042E-04
3.706109E+03	9.579730E-03	1.378097E-04
3.716098E+03	9.823573E-03	1.408459E-04
3.726088E+03	9.967255E-03	1.424308E-04
3.736077E+03	9.986179E-03	1.422288E-04
3.746067E+03	9.862450E-03	1.400034E-04
3.756056E+03	9.590785E-03	1.356999E-04
3.766046E+03	9.181966E-03	1.294907E-04
3.776035E+03	8.661491E-03	1.217528E-04
3.786025E+03	8.068616E-03	1.130511E-04
3.796014E+03	7.449678E-03	1.040421E-04
3.806004E+03	6.851773E-03	9.538410E-05
3.815993E+03	6.316207E-03	8.764700E-05
3.825983E+03	5.875062E-03	8.126563E-05
3.835972E+03	5.551214E-03	7.654243E-05
3.845962E+03	5.358958E-03	7.365814E-05
3.855951E+03	5.307677E-03	7.272389E-05
3.865941E+03	5.403700E-03	7.380782E-05
3.875930E+03	5.651737E-03	7.695517E-05
3.885920E+03	6.053701E-03	8.217277E-05
3.895909E+03	6.605420E-03	8.938503E-05
3.905899E+03	7.293727E-03	9.839605E-05
3.915888E+03	8.091914E-03	1.088303E-04
3.925878E+03	8.959203E-03	1.201281E-04
3.935867E+03	9.844030E-03	1.315926E-04
3.945857E+03	1.069210E-02	1.424990E-04
3.955846E+03	1.145761E-02	1.522437E-04
3.965836E+03	1.210883E-02	1.604171E-04
3.975825E+03	1.263418E-02	1.668806E-04
3.985815E+03	1.303956E-02	1.717271E-04
3.995804E+03	1.334442E-02	1.752263E-04
4.005794E+03	1.357332E-02	1.777121E-04
4.015783E+03	1.374861E-02	1.794848E-04
4.025773E+03	1.388485E-02	1.807405E-04
4.035762E+03	1.398538E-02	1.815270E-04
4.045752E+03	1.404490E-02	1.817798E-04
4.055741E+03	1.405237E-02	1.813611E-04
4.065731E+03	1.399685E-02	1.801358E-04
4.075720E+03	1.387046E-02	1.780096E-04
4.085710E+03	1.367018E-02	1.749514E-04
4.095700E+03	1.339768E-02	1.709902E-04
4.105689E+03	1.305647E-02	1.661783E-04
4.115679E+03	1.264750E-02	1.605343E-04
4.125668E+03	1.216868E-02	1.540388E-04
4.135658E+03	1.161789E-02	1.466714E-04
4.145647E+03	1.100031E-02	1.385043E-04
4.155637E+03	1.032972E-02	1.297167E-04
4.165626E+03	9.629238E-03	1.206027E-04
4.175616E+03	8.928353E-03	1.115330E-04
4.185605E+03	8.259181E-03	1.029071E-04
4.195595E+03	7.653224E-03	9.511261E-05
4.205584E+03	7.137631E-03	8.847953E-05
4.215574E+03	6.734226E-03	8.326858E-05
4.225563E+03	6.457026E-03	7.964174E-05
4.235553E+03	6.310669E-03	7.764408E-05
4.245542E+03	6.291083E-03	7.721352E-05
4.255532E+03	6.386505E-03	7.819459E-05
4.265521E+03	6.578656E-03	8.035387E-05
4.275511E+03	6.842997E-03	8.338405E-05
4.285500E+03	7.151145E-03	8.693414E-05
4.295490E+03	7.476957E-03	9.068366E-05
4.305479E+03	7.802690E-03	9.441684E-05
4.315469E+03	8.120592E-03	9.804047E-05
4.325458E+03	8.432115E-03	1.015731E-04
4.335448E+03	8.742455E-03	1.050781E-04
4.345437E+03	9.053348E-03	1.085769E-04
4.355427E+03	9.352596E-03	1.119237E-04
4.365416E+03	9.606324E-03	1.147154E-04
4.375406E+03	9.759758E-03	1.163031E-04
4.385395E+03	9.755940E-03	1.160172E-04
4.395385E+03	9.578401E-03	1.136740E-04
4.405374E+03	9.259749E-03	1.096720E-04
4.415364E+03	8.851416E-03	1.046289E-04
4.425353E+03	8.408149E-03	9.919648E-05
4.435343E+03	7.982867E-03	9.399950E-05
4.445332E+03	7.626291E-03	8.963228E-05
4.455322E+03	7.385775E-03	8.664528E-05
4.465311E+03	7.302004E-03	8.550700E-05
4.475301E+03	7.405386E-03	8.656270E-05
4.485290E+03	7.715343E-03	9.002728E-05
4.495280E+03	8.240184E-03	9.598506E-05
4.505269E+03	8.973349E-03	1.043472E-04
4.515259E+03	9.885989E-03	1.147670E-04
4.525248E+03	1.092189E-02	1.265834E-04
4.535238E+03	1.200286E-02	1.388853E-04
4.545228E+03	1.304321E-02	1.506811E-04
4.555217E+03	1.396706E-02	1.610988E-04
4.565207E+03	1.472451E-02	1.695706E-04
4.575196E+03	1.529928E-02	1.759190E-04
4.585186E+03	1.570400E-02	1.802989E-04
4.595175E+03	1.596241E-02	1.829916E-04
4.605165E+03	1.609341E-02	1.842209E-04
4.615154E+03	1.610195E-02	1.840499E-04
4.625144E+03	1.597829E-02	1.823734E-04
4.635133E+03	1.570219E-02	1.789671E-04
4.645123E+03	1.525440E-02	1.736189E-04
4.655112E+03	1.462856E-02	1.662644E-04
4.665102E+03	1.384261E-02	1.571150E-04
4.675091E+03	1.293917E-02	1.466611E-04
4.685081E+03	1.198192E-02	1.356281E-04
4.695070E+03	1.104398E-02	1.248446E-04
4.705060E+03	1.019397E-02	1.150836E-04
4.715049E+03	9.486355E-03	1.069550E-04
4.725039E+03	8.957878E-03	1.008656E-04
4.735028E+03	8.631232E-03	9.706266E-05
4.745018E+03	8.517964E-03	9.566676E-05
4.755007E+03	8.622306E-03	9.671613E-05
4.764997E+03	8.943219E-03	1.001898E-04
4.774986E+03	9.472443E-03	1.059864E-04
4.784976E+03	1.019007E-02	1.138747E-04
4.794965E+03	1.106082E-02	1.234534E-04
4.804955E+03	1.203467E-02	1.341587E-04
4.814944E+03	1.305013E-02	1.453019E-04
4.824934E+03	1.404116E-02	1.561472E-04
4.834923E+03	1.494376E-02	1.659851E-04
4.844913E+03	1.570479E-02	1.742296E-04
4.854902E+03	1.628600E-02	1.804628E-04
4.864892E+03	1.666370E-02	1.844294E-04
4.874881E+03	1.682911E-02	1.860405E-04
4.884871E+03	1.679424E-02	1.854372E-04
4.894860E+03	1.659589E-02	1.830330E-04
4.904850E+03	1.629633E-02	1.795199E-04
4.914839E+03	1.596923E-02	1.757126E-04
4.924829E+03	1.568465E-02	1.723819E-04
4.934818E+03	1.549548E-02	1.701068E-04
4.944808E+03	1.543130E-02	1.692080E-04
4.954797E+03	1.549297E-02	1.696900E-04
4.964787E+03	1.565063E-02	1.712215E-04
4.974776E+03	1.584745E-02	1.731779E-04
4.984766E+03	1.601027E-02	1.747592E-04
4.994756E+03	1.606213E-02	1.751275E-04
5.004745E+03	1.593873E-02	1.735868E-04
5.014735E+03	1.560577E-02	1.697703E-04
5.024724E+03	1.507013E-02	1.637603E-04
5.034714E+03	1.437968E-02	1.560838E-04
5.044703E+03	1.361155E-02	1.475826E-04
5.054693E+03	1.285537E-02	1.392300E-04
5.064682E+03	1.219379E-02	1.319197E-04
5.074672E+03	1.168851E-02	1.263150E-04
5.084661E+03	1.137612E-02	1.228054E-04
5.094651E+03	1.127113E-02	1.215403E-04
5.104640E+03	1.136922E-02	1.224659E-04
5.114630E+03	1.164767E-02	1.253309E-04
5.124619E+03	1.206913E-02	1.297277E-04
5.134609E+03	1.258586E-02	1.351387E-04
5.144598E+03	1.314445E-02	1.409881E-04
5.154588E+03	1.369227E-02	1.467108E-04
5.164577E+03	1.418317E-02	1.518134E-04
5.174567E+03	1.458534E-02	1.559577E-04
5.184556E+03	1.488439E-02	1.589933E-04
5.194546E+03	1.508414E-02	1.609645E-04
5.204535E+03	1.520324E-02	1.620734E-04
5.214525E+03	1.527033E-02	1.626277E-04
5.224514E+03	1.531704E-02	1.629657E-04
5.234504E+03	1.537142E-02	1.633864E-04
5.244493E+03	1.545483E-02	1.641164E-04
5.254483E+03	1.557841E-02	1.652733E-04
5.264472E+03	1.574254E-02	1.668598E-04
5.274462E+03	1.593908E-02	1.687888E-04
5.284451E+03	1.615556E-02	1.709278E-04
5.294441E+03	1.638007E-02	1.731504E-04
5.304430E+03	1.660194E-02	1.753440E-04
5.314420E+03	1.681316E-02	1.774244E-04
5.324409E+03	1.700737E-02	1.793250E-04
5.334399E+03	1.717750E-02	1.809720E-04
5.344388E+03	1.731395E-02	1.822654E-04
5.354378E+03	1.740200E-02	1.830512E-04
5.364367E+03	1.742538E-02	1.831600E-04
5.374357E+03	1.737108E-02	1.824565E-04
5.384346E+03	1.723527E-02	1.809027E-04
5.394336E+03	1.702649E-02	1.785900E-04
5.404325E+03	1.676745E-02	1.757579E-04
5.414315E+03	1.649217E-02	1.727638E-04
5.424304E+03	1.623851E-02	1.700041E-04
5.434294E+03	1.603898E-02	1.678188E-04
5.444284E+03	1.591426E-02	1.664230E-04
5.454273E+03	1.587503E-02	1.659271E-04
5.464263E+03	1.592513E-02	1.663699E-04
5.474252E+03	1.606537E-02	1.677587E-04
5.484242E+03	1.628909E-02	1.700230E-04
5.494231E+03	1.655872E-02	1.727698E-04
5.504221E+03	1.679124E-02	1.751326E-04
5.514210E+03	1.690154E-02	1.762247E-04
5.524200E+03	1.684360E-02	1.755675E-04
5.534189E+03	1.662553E-02	1.732468E-04
5.544179E+03	1.630058E-02	1.698185E-04
5.554168E+03	1.594310E-02	1.660573E-04
5.564158E+03	1.562627E-02	1.627250E-04
5.574147E+03	1.540786E-02	1.604226E-04
5.584137E+03	1.531897E-02	1.594729E-04
5.594126E+03	1.536053E-02	1.598848E-04
5.604116E+03	1.550814E-02	1.614037E-04
5.614105E+03	1.572043E-02	1.635985E-04
5.624095E+03	1.594664E-02	1.659411E-04
5.634084E+03	1.613708E-02	1.679141E-04
5.644074E+03	1.625411E-02	1.691260E-04
5.654063E+03	1.627939E-02	1.693859E-04
5.664053E+03	1.621466E-02	1.687120E-04
5.674042E+03	1.607476E-02	1.672583E-04
5.684032E+03	1.588128E-02	1.652494E-04
5.694021E+03	1.565436E-02	1.628945E-04
5.704011E+03	1.540909E-02	1.603505E-04
5.714000E+03	1.515244E-02	1.576895E-04
5.723990E+03	1.488695E-02	1.549379E-04
5.733979E+03	1.461547E-02	1.521250E-04
5.743969E+03	1.434515E-02	1.493251E-04
5.753958E+03	1.408997E-02	1.466835E-04
5.763948E+03	1.387085E-02	1.444179E-04
5.773937E+03	1.371375E-02	1.427987E-04
5.783927E+03	1.364343E-02	1.420837E-04
5.793916E+03	1.367702E-02	1.424516E-04
5.803906E+03	1.381882E-02	1.439475E-04
5.813895E+03	1.405889E-02	1.464683E-04
5.823885E+03	1.437431E-02	1.497755E-04
5.833874E+03	1.473127E-02	1.535170E-04
5.843864E+03	1.509056E-02	1.572844E-04
5.853853E+03	1.541572E-02	1.606974E-04
5.863843E+03	1.568008E-02	1.634779E-04
5.873832E+03	1.587020E-02	1.654853E-04
5.883822E+03	1.598356E-02	1.666931E-04
5.893811E+03	1.602610E-02	1.671626E-04
5.903801E+03	1.600856E-02	1.670055E-04
5.913791E+03	1.594346E-02	1.663520E-04
5.923780E+03	1.584307E-02	1.653301E-04
5.933770E+03	1.571799E-02	1.640500E-04
5.943759E+03	1.557747E-02	1.626081E-04
5.953749E+03	1.542971E-02	1.610900E-04
5.963738E+03	1.528146E-02	1.595660E-04
5.973728E+03	1.513741E-02	1.580853E-04
5.983717E+03	1.500117E-02	1.566852E-04
5.993707E+03	1.487451E-02	1.553845E-04
6.003696E+03	1.475907E-02	1.542003E-04
6.013686E+03	1.465638E-02	1.531486E-04
6.023675E+03	1.456833E-02	1.522493E-04
6.033665E+03	1.449604E-02	1.515139E-04
6.043654E+03	1.444029E-02	1.509509E-04
6.053644E+03	1.439952E-02	1.505439E-04
6.063633E+03	1.437050E-02	1.502593E-04
6.073623E+03	1.434703E-02	1.500321E-04
6.083612E+03	1.432179E-02	1.497861E-04
6.093602E+03	1.428745E-02	1.494442E-04
6.103591E+03	1.423904E-02	1.489548E-04
6.113581E+03	1.417483E-02	1.482995E-04
6.123570E+03	1.409751E-02	1.475066E-04
6.133560E+03	1.401401E-02	1.466484E-04
6.143549E+03	1.393264E-02	1.458120E-04
6.153539E+03	1.386097E-02	1.450767E-04
6.163528E+03	1.380244E-02	1.444785E-04
6.173518E+03	1.375562E-02	1.440025E-04
6.183507E+03	1.371451E-02	1.435858E-04
6.193497E+03	1.366920E-02	1.431251E-04
6.203486E+03	1.360914E-02	1.425096E-04
6.213476E+03	1.352582E-02	1.416503E-04
6.223465E+03	1.341485E-02	1.405011E-04
6.233455E+03	1.327636E-02	1.390635E-04
6.243444E+03	1.311328E-02	1.373679E-04
6.253434E+03	1.292812E-02	1.354409E-04
6.263423E+03	1.271908E-02	1.332633E-04
6.273413E+03	1.247596E-02	1.307283E-04
6.283402E+03	1.217890E-02	1.276280E-04
6.293392E+03	1.180315E-02	1.237023E-04
6.303381E+03	1.132668E-02	1.187206E-04
6.313371E+03	1.073941E-02	1.125766E-04
6.323360E+03	1.005163E-02	1.053781E-04
6.333350E+03	9.297620E-03	9.748387E-05
6.343339E+03	8.531755E-03	8.946399E-05
6.353329E+03	7.815752E-03	8.196557E-05
6.363319E+03	7.207135E-03	7.559205E-05
6.373308E+03	6.752963E-03	7.083744E-05
6.383298E+03	6.489458E-03	6.808232E-05
6.393287E+03	6.445479E-03	6.763027E-05
6.403277E+03	6.648399E-03	6.976954E-05
6.413266E+03	7.129244E-03	7.482684E-05
6.423256E+03	7.921058E-03	8.315036E-05
6.433245E+03	9.046888E-03	9.498360E-05
6.443235E+03	1.049723E-02	1.102284E-04
6.453224E+03	1.219672E-02	1.280949E-04
6.463214E+03	1.397543E-02	1.467992E-04
6.473203E+03	1.557926E-02	1.636720E-04
6.483193E+03	1.675144E-02	1.760144E-04
6.493182E+03	1.736209E-02	1.824588E-04
6.503172E+03	1.750257E-02	1.839627E-04
6.513161E+03	1.749032E-02	1.838604E-04
6.523151E+03	1.772158E-02	1.863171E-04
6.533140E+03	1.835565E-02	1.930085E-04
6.543130E+03	1.921969E-02	2.021183E-04
6.553119E+03	2.005060E-02	2.108800E-04
6.563109E+03	2.063914E-02	2.170919E-04
6.573098E+03	2.087099E-02	2.195504E-04
6.583088E+03	2.073374E-02	2.181234E-04
6.593077E+03	2.029096E-02	2.134790E-04
6.603067E+03	1.963984E-02	2.066389E-04
6.613056E+03	1.887837E-02	1.986340E-04
6.623046E+03	1.808468E-02	1.902864E-04
6.633035E+03	1.731297E-02	1.821667E-04
6.643025E+03	1.659393E-02	1.745981E-04
6.653014E+03	1.594063E-02	1.677183E-04
6.663004E+03	1.535523E-02	1.615502E-04
6.672993E+03	1.483408E-02	1.560555E-04
6.682983E+03	1.436995E-02	1.511583E-04
6.692972E+03	1.395540E-02	1.467802E-04
6.702962E+03	1.358377E-02	1.428513E-04
6.712951E+03	1.324909E-02	1.393089E-04
6.722941E+03	1.294581E-02	1.360943E-04
6.732930E+03	1.266971E-02	1.331634E-04
6.742920E+03	1.241581E-02	1.304637E-04
6.752909E+03	1.218000E-02	1.279519E-04
6.762899E+03	1.195755E-02	1.255784E-04
6.772888E+03	1.174447E-02	1.233013E-04
6.782878E+03	1.153673E-02	1.210783E-04
6.792867E+03	1.133123E-02	1.188769E-04
6.802857E+03	1.112596E-02	1.166762E-04
6.812847E+03	1.092047E-02	1.144714E-04
6.822836E+03	1.071598E-02	1.122758E-04
6.832826E+03	1.051602E-02	1.101261E-04
6.842815E+03	1.032589E-02	1.080782E-04
6.852805E+03	1.015232E-02	1.062022E-04
6.862794E+03	1.000269E-02	1.045752E-04
6.872784E+03	9.883024E-03	1.032598E-04
6.882773E+03	9.797314E-03	1.022973E-04
6.892763E+03	9.746830E-03	1.017001E-04
6.902752E+03	9.729944E-03	1.014507E-04
6.912742E+03	9.741624E-03	1.014957E-04
6.922731E+03	9.774985E-03	1.017629E-04
6.932721E+03	9.821950E-03	1.021676E-04
6.942710E+03	9.874459E-03	1.026256E-04
6.952700E+03	9.925171E-03	1.030604E-04
6.962689E+03	9.967904E-03	1.034081E-04
6.972679E+03	9.998475E-03	1.036252E-04
6.982668E+03	1.001421E-02	1.036846E-04
6.992658E+03	1.001421E-02	1.035773E-04
7.002647E+03	9.999019E-03	1.033095E-04
7.012637E+03	9.970414E-03	1.029001E-04
7.022626E+03	9.930575E-03	1.023719E-04
7.032616E+03	9.882067E-03	1.017519E-04
7.042605E+03	9.827978E-03	1.010722E-04
7.052595E+03	9.770725E-03	1.003579E-04
7.062584E+03	9.712926E-03	9.963605E-05
7.072574E+03	9.656740E-03	9.892892E-05
7.082563E+03	9.603815E-03	9.825337E-05
7.092553E+03	9.555680E-03	9.762496E-05
7.102542E+03	9.513117E-03	9.705154E-05
7.112532E+03	9.476667E-03	9.653848E-05
7.122521E+03	9.445975E-03	9.608194E-05
7.132511E+03	9.420872E-03	9.568003E-05
7.142500E+03	9.400741E-03	9.532631E-05
7.152490E+03	9.384714E-03	9.501181E-05
7.162479E+03	9.372404E-03	9.473250E-05
7.172469E+03	9.363342E-03	9.448352E-05
7.182458E+03	9.357237E-03	9.426185E-05
7.192448E+03	9.353200E-03	9.405847E-05
7.202437E+03	9.351065E-03	9.387166E-05
7.212427E+03	9.349949E-03	9.369257E-05
7.222416E+03	9.348836E-03	9.351105E-05
7.232406E+03	9.346940E-03	9.331932E-05
7.242395E+03	9.343362E-03	9.310857E-05
7.252385E+03	9.337105E-03	9.286906E-05
7.262375E+03	9.327506E-03	9.259445E-05
7.272364E+03	9.313721E-03	9.227668E-05
7.282354E+03	9.295361E-03	9.191226E-05
7.292343E+03	9.272022E-03	9.149757E-05
7.302333E+03	9.243955E-03	9.103553E-05
7.312322E+03	9.211646E-03	9.053131E-05
7.322312E+03	9.175785E-03	8.999207E-05
7.332301E+03	9.137495E-03	8.942915E-05
7.342291E+03	9.098301E-03	8.885776E-05
7.352280E+03	9.058944E-03	8.828528E-05
7.362270E+03	9.020812E-03	8.772540E-05
7.372259E+03	8.984303E-03	8.718204E-05
7.382249E+03	8.950083E-03	8.666171E-05
7.392238E+03	8.917983E-03	8.616277E-05
7.402228E+03	8.887989E-03	8.568510E-05
7.412217E+03	8.859678E-03	8.522468E-05
7.422207E+03	8.832509E-03	8.477636E-05
7.432196E+03	8.805327E-03	8.432916E-05
7.442186E+03	8.776843E-03	8.387094E-05
7.452175E+03	8.745155E-03	8.338381E-05
7.462165E+03	8.707876E-03	8.284544E-05
7.472154E+03	8.662148E-03	8.222922E-05
7.482144E+03	8.604729E-03	8.150514E-05
7.492133E+03	8.532171E-03	8.064152E-05
7.502123E+03	8.440943E-03	7.960614E-05
7.512112E+03	8.328066E-03	7.837228E-05
7.522102E+03	8.191546E-03	7.692266E-05
7.532091E+03	8.030482E-03	7.525038E-05
7.542081E+03	7.845915E-03	7.336672E-05
7.552070E+03	7.641727E-03	7.130935E-05
7.562060E+03	7.424117E-03	6.913716E-05
7.572049E+03	7.202259E-03	6.693615E-05
7.582039E+03	6.986570E-03	6.480318E-05
7.592028E+03	6.787867E-03	6.283799E-05
7.602018E+03	6.616064E-03	6.113122E-05
7.612007E+03	6.479719E-03	5.976036E-05
7.621997E+03	6.386091E-03	5.879041E-05
7.631986E+03	6.340414E-03	5.826740E-05
7.641976E+03	6.345785E-03	5.821751E-05
7.651965E+03	6.402381E-03	5.864021E-05
7.661955E+03	6.506536E-03	5.949995E-05
7.671944E+03	6.651353E-03	6.073205E-05
7.681934E+03	6.827048E-03	6.224614E-05
7.691923E+03	7.021503E-03	6.393121E-05
7.701913E+03	7.221932E-03	6.567095E-05
7.711903E+03	7.414845E-03	6.734328E-05
7.721892E+03	7.588948E-03	6.884671E-05
7.731882E+03	7.734736E-03	7.009632E-05
7.741871E+03	7.846688E-03	7.104358E-05
7.751861E+03	7.922777E-03	7.167156E-05
