#wls	flux	fluxerr
1.598322E+03	1.410693E-04	2.345225E-06
1.638280E+03	1.439250E-04	2.386303E-06
1.678238E+03	1.467399E-04	2.426333E-06
1.718196E+03	1.493917E-04	2.463299E-06
1.758154E+03	1.519657E-04	2.498618E-06
1.798112E+03	1.543941E-04	2.531183E-06
1.838070E+03	1.565851E-04	2.559509E-06
1.878028E+03	1.584248E-04	2.581772E-06
1.917986E+03	1.597901E-04	2.596019E-06
1.957944E+03	1.605860E-04	2.600780E-06
1.997902E+03	1.608264E-04	2.596368E-06
2.037860E+03	1.608698E-04	2.588638E-06
2.077818E+03	1.612087E-04	2.585521E-06
2.117776E+03	1.628589E-04	2.603208E-06
2.157734E+03	1.667177E-04	2.655781E-06
2.197692E+03	1.732390E-04	2.750079E-06
2.237650E+03	1.821441E-04	2.881238E-06
2.277609E+03	1.931899E-04	3.045015E-06
2.317567E+03	2.055212E-04	3.227598E-06
2.357525E+03	2.186564E-04	3.421211E-06
2.397483E+03	2.324504E-04	3.623438E-06
2.437441E+03	2.466688E-04	3.830503E-06
2.477399E+03	2.614383E-04	4.044282E-06
2.517357E+03	2.768115E-04	4.265470E-06
2.557315E+03	2.928628E-04	4.495093E-06
2.597273E+03	3.098238E-04	4.736560E-06
2.637231E+03	3.277823E-04	4.991038E-06
2.677189E+03	3.469778E-04	5.261973E-06
2.717147E+03	3.676551E-04	5.552838E-06
2.757105E+03	3.897229E-04	5.861995E-06
2.797063E+03	4.137535E-04	6.197770E-06
2.837021E+03	4.396405E-04	6.558229E-06
2.876979E+03	4.677884E-04	6.949065E-06
2.916937E+03	4.984300E-04	7.373336E-06
2.956895E+03	5.317943E-04	7.834005E-06
2.996853E+03	5.683029E-04	8.336811E-06
3.006843E+03	5.778236E-04	8.467604E-06
3.016832E+03	5.877752E-04	8.604427E-06
3.026822E+03	5.977694E-04	8.741581E-06
3.036811E+03	6.082035E-04	8.884871E-06
3.046801E+03	6.187024E-04	9.028804E-06
3.056790E+03	6.294818E-04	9.176523E-06
3.066780E+03	6.407391E-04	9.330892E-06
3.076769E+03	6.522734E-04	9.488969E-06
3.086759E+03	6.638811E-04	9.647783E-06
3.096748E+03	6.759629E-04	9.813153E-06
3.106738E+03	6.883166E-04	9.982123E-06
3.116727E+03	7.011457E-04	1.015764E-05
3.126717E+03	7.140419E-04	1.033376E-05
3.136706E+03	7.274146E-04	1.051642E-05
3.146696E+03	7.412667E-04	1.070563E-05
3.156685E+03	7.553940E-04	1.089843E-05
3.166675E+03	7.697975E-04	1.109483E-05
3.176665E+03	7.846887E-04	1.129785E-05
3.186654E+03	7.998619E-04	1.150453E-05
3.196644E+03	8.157423E-04	1.172097E-05
3.206633E+03	8.317019E-04	1.193812E-05
3.216623E+03	8.483807E-04	1.216516E-05
3.226612E+03	8.653598E-04	1.239607E-05
3.236602E+03	8.830728E-04	1.263703E-05
3.246591E+03	9.010981E-04	1.288200E-05
3.256581E+03	9.196567E-04	1.313412E-05
3.266570E+03	9.387551E-04	1.339347E-05
3.276560E+03	9.586176E-04	1.366323E-05
3.286549E+03	9.790338E-04	1.394037E-05
3.296539E+03	1.000008E-03	1.422493E-05
3.306528E+03	1.021543E-03	1.451695E-05
3.316518E+03	1.044083E-03	1.482270E-05
3.326507E+03	1.066963E-03	1.513273E-05
3.336497E+03	1.090845E-03	1.545639E-05
3.346486E+03	1.115274E-03	1.578723E-05
3.356476E+03	1.140458E-03	1.612817E-05
3.366465E+03	1.166377E-03	1.647889E-05
3.376455E+03	1.193226E-03	1.684215E-05
3.386444E+03	1.220517E-03	1.721101E-05
3.396434E+03	1.248655E-03	1.759117E-05
3.406423E+03	1.277356E-03	1.797863E-05
3.416413E+03	1.306787E-03	1.837571E-05
3.426402E+03	1.336882E-03	1.878147E-05
3.436392E+03	1.367575E-03	1.919498E-05
3.446381E+03	1.398809E-03	1.961540E-05
3.456371E+03	1.430536E-03	2.004207E-05
3.466360E+03	1.462729E-03	2.047459E-05
3.476350E+03	1.495607E-03	2.091605E-05
3.486339E+03	1.528953E-03	2.136337E-05
3.496329E+03	1.563246E-03	2.182324E-05
3.506318E+03	1.598049E-03	2.228956E-05
3.516308E+03	1.633827E-03	2.276881E-05
3.526297E+03	1.670093E-03	2.325416E-05
3.536287E+03	1.707459E-03	2.375414E-05
3.546276E+03	1.745327E-03	2.426041E-05
3.556266E+03	1.783486E-03	2.477005E-05
3.566255E+03	1.822102E-03	2.528536E-05
3.576245E+03	1.860574E-03	2.579799E-05
3.586234E+03	1.898674E-03	2.630485E-05
3.596224E+03	1.935579E-03	2.679455E-05
3.606213E+03	1.971705E-03	2.727291E-05
3.616203E+03	2.007211E-03	2.774216E-05
3.626192E+03	2.041980E-03	2.820073E-05
3.636182E+03	2.076209E-03	2.865137E-05
3.646172E+03	2.109469E-03	2.908822E-05
3.656161E+03	2.141515E-03	2.950794E-05
3.666151E+03	2.171345E-03	2.989680E-05
3.676140E+03	2.197991E-03	3.024155E-05
3.686130E+03	2.219834E-03	3.052005E-05
3.696119E+03	2.234641E-03	3.070176E-05
3.706109E+03	2.240071E-03	3.075474E-05
3.716098E+03	2.233899E-03	3.064875E-05
3.726088E+03	2.213857E-03	3.035300E-05
3.736077E+03	2.178928E-03	2.985394E-05
3.746067E+03	2.128592E-03	2.914486E-05
3.756056E+03	2.064368E-03	2.824692E-05
3.766046E+03	1.988783E-03	2.719503E-05
3.776035E+03	1.905693E-03	2.604214E-05
3.786025E+03	1.819735E-03	2.485177E-05
3.796014E+03	1.736176E-03	2.369582E-05
3.806004E+03	1.659881E-03	2.264057E-05
3.815993E+03	1.595942E-03	2.175520E-05
3.825983E+03	1.548687E-03	2.109836E-05
3.835972E+03	1.522450E-03	2.072861E-05
3.845962E+03	1.520866E-03	2.069492E-05
3.855951E+03	1.547556E-03	2.104591E-05
3.865941E+03	1.606200E-03	2.183094E-05
3.875930E+03	1.700608E-03	2.310104E-05
3.885920E+03	1.834604E-03	2.490734E-05
3.895909E+03	2.011685E-03	2.729639E-05
3.905899E+03	2.234367E-03	3.030140E-05
3.915888E+03	2.503246E-03	3.392951E-05
3.925878E+03	2.816029E-03	3.814868E-05
3.935867E+03	3.167334E-03	4.288519E-05
3.945857E+03	3.548531E-03	4.802147E-05
3.955846E+03	3.949038E-03	5.341388E-05
3.965836E+03	4.357308E-03	5.890597E-05
3.975825E+03	4.762560E-03	6.435200E-05
3.985815E+03	5.156799E-03	6.964413E-05
3.995804E+03	5.534410E-03	7.470689E-05
4.005794E+03	5.891643E-03	7.949006E-05
4.015783E+03	6.226003E-03	8.396045E-05
4.025773E+03	6.533577E-03	8.806584E-05
4.035762E+03	6.808496E-03	9.172773E-05
4.045752E+03	7.039936E-03	9.480099E-05
4.055741E+03	7.215844E-03	9.712431E-05
4.065731E+03	7.321956E-03	9.850678E-05
4.075720E+03	7.345696E-03	9.878065E-05
4.085710E+03	7.280087E-03	9.785364E-05
4.095700E+03	7.127299E-03	9.575654E-05
4.105689E+03	6.896787E-03	9.261787E-05
4.115679E+03	6.603231E-03	8.863602E-05
4.125668E+03	6.265471E-03	8.406490E-05
4.135658E+03	5.902723E-03	7.916293E-05
4.145647E+03	5.532224E-03	7.416157E-05
4.155637E+03	5.168644E-03	6.925747E-05
4.165626E+03	4.823042E-03	6.459858E-05
4.175616E+03	4.503263E-03	6.028958E-05
4.185605E+03	4.213823E-03	5.639040E-05
4.195595E+03	3.957916E-03	5.294321E-05
4.205584E+03	3.737524E-03	4.997393E-05
4.215574E+03	3.554695E-03	4.750927E-05
4.225563E+03	3.411360E-03	4.557439E-05
4.235553E+03	3.309265E-03	4.419192E-05
4.245542E+03	3.250403E-03	4.338774E-05
4.255532E+03	3.236475E-03	4.318385E-05
4.265521E+03	3.267919E-03	4.358531E-05
4.275511E+03	3.343151E-03	4.457025E-05
4.285500E+03	3.459376E-03	4.610069E-05
4.295490E+03	3.613514E-03	4.813494E-05
4.305479E+03	3.802841E-03	5.063610E-05
4.315469E+03	4.024576E-03	5.356656E-05
4.325458E+03	4.274610E-03	5.687115E-05
4.335448E+03	4.546051E-03	6.045772E-05
4.345437E+03	4.828243E-03	6.418429E-05
4.355427E+03	5.102849E-03	6.780700E-05
4.365416E+03	5.341837E-03	7.095364E-05
4.375406E+03	5.513628E-03	7.320551E-05
4.385395E+03	5.591739E-03	7.421220E-05
4.395385E+03	5.564800E-03	7.382442E-05
4.405374E+03	5.442433E-03	7.217146E-05
4.415364E+03	5.248559E-03	6.957195E-05
4.425353E+03	5.011130E-03	6.639741E-05
4.435343E+03	4.758153E-03	6.301952E-05
4.445332E+03	4.517647E-03	5.980945E-05
4.455322E+03	4.316946E-03	5.712874E-05
4.465311E+03	4.179895E-03	5.529215E-05
4.475301E+03	4.125410E-03	5.454875E-05
4.485290E+03	4.169316E-03	5.510635E-05
4.495280E+03	4.326146E-03	5.715531E-05
4.505269E+03	4.608327E-03	6.085787E-05
4.515259E+03	5.021230E-03	6.628283E-05
4.525248E+03	5.562712E-03	7.339970E-05
4.535238E+03	6.223114E-03	8.207890E-05
4.545228E+03	6.982576E-03	9.205658E-05
4.555217E+03	7.808275E-03	1.028984E-04
4.565207E+03	8.657931E-03	1.140464E-04
4.575196E+03	9.486954E-03	1.249128E-04
4.585186E+03	1.025340E-02	1.349460E-04
4.595175E+03	1.092024E-02	1.436598E-04
4.605165E+03	1.145981E-02	1.506921E-04
4.615154E+03	1.185408E-02	1.558080E-04
4.625144E+03	1.208866E-02	1.588209E-04
4.635133E+03	1.214784E-02	1.595274E-04
4.645123E+03	1.202114E-02	1.577929E-04
4.655112E+03	1.170935E-02	1.536310E-04
4.665102E+03	1.122767E-02	1.472444E-04
4.675091E+03	1.060642E-02	1.390334E-04
4.685081E+03	9.889056E-03	1.295704E-04
4.695070E+03	9.128059E-03	1.195442E-04
4.705060E+03	8.375804E-03	1.096413E-04
4.715049E+03	7.676627E-03	1.004417E-04
4.725039E+03	7.064679E-03	9.239125E-05
4.735028E+03	6.563462E-03	8.579552E-05
4.745018E+03	6.187605E-03	8.084364E-05
4.755007E+03	5.945759E-03	7.764630E-05
4.764997E+03	5.843542E-03	7.627427E-05
4.774986E+03	5.884372E-03	7.676953E-05
4.784976E+03	6.068815E-03	7.913670E-05
4.794965E+03	6.396091E-03	8.336278E-05
4.804955E+03	6.861811E-03	8.938778E-05
4.814944E+03	7.452545E-03	9.703404E-05
4.824934E+03	8.144414E-03	1.059882E-04
4.834923E+03	8.905180E-03	1.158289E-04
4.844913E+03	9.700211E-03	1.261044E-04
4.854902E+03	1.049234E-02	1.363309E-04
4.864892E+03	1.124227E-02	1.459980E-04
4.874881E+03	1.191158E-02	1.546078E-04
4.884871E+03	1.246746E-02	1.617362E-04
4.894860E+03	1.288658E-02	1.670830E-04
4.904850E+03	1.315889E-02	1.705207E-04
4.914839E+03	1.329102E-02	1.721383E-04
4.924829E+03	1.331094E-02	1.723008E-04
4.934818E+03	1.326531E-02	1.716143E-04
4.944808E+03	1.320773E-02	1.707731E-04
4.954797E+03	1.317857E-02	1.702994E-04
4.964787E+03	1.319294E-02	1.703874E-04
4.974776E+03	1.324373E-02	1.709446E-04
4.984766E+03	1.330422E-02	1.716254E-04
4.994756E+03	1.332616E-02	1.718075E-04
5.004745E+03	1.325303E-02	1.707635E-04
5.014735E+03	1.303773E-02	1.678892E-04
5.024724E+03	1.265583E-02	1.628732E-04
5.034714E+03	1.211121E-02	1.557698E-04
5.044703E+03	1.143776E-02	1.470181E-04
5.054693E+03	1.069361E-02	1.373682E-04
5.064682E+03	9.946875E-03	1.276964E-04
5.074672E+03	9.260909E-03	1.188156E-04
5.084661E+03	8.688143E-03	1.113967E-04
5.094651E+03	8.265540E-03	1.059107E-04
5.104640E+03	8.011595E-03	1.025909E-04
5.114630E+03	7.927391E-03	1.014470E-04
5.124619E+03	8.004217E-03	1.023633E-04
5.134609E+03	8.226402E-03	1.051356E-04
5.144598E+03	8.569195E-03	1.094441E-04
5.154588E+03	8.999582E-03	1.148642E-04
5.164577E+03	9.480490E-03	1.209208E-04
5.174567E+03	9.975598E-03	1.271495E-04
5.184556E+03	1.045140E-02	1.331231E-04
5.194546E+03	1.088050E-02	1.384934E-04
5.204535E+03	1.124679E-02	1.430565E-04
5.214525E+03	1.154570E-02	1.467561E-04
5.224514E+03	1.178328E-02	1.496706E-04
5.234504E+03	1.197454E-02	1.519922E-04
5.244493E+03	1.214042E-02	1.539879E-04
5.254483E+03	1.230207E-02	1.559261E-04
5.264472E+03	1.247731E-02	1.580328E-04
5.274462E+03	1.267916E-02	1.604724E-04
5.284451E+03	1.291496E-02	1.633369E-04
5.294441E+03	1.318377E-02	1.666134E-04
5.304430E+03	1.347886E-02	1.702160E-04
5.314420E+03	1.379177E-02	1.740372E-04
5.324409E+03	1.411399E-02	1.779691E-04
5.334399E+03	1.443616E-02	1.818934E-04
5.344388E+03	1.474721E-02	1.856708E-04
5.354378E+03	1.503296E-02	1.891231E-04
5.364367E+03	1.527587E-02	1.920305E-04
5.374357E+03	1.545428E-02	1.941222E-04
5.384346E+03	1.554415E-02	1.950983E-04
5.394336E+03	1.552412E-02	1.946934E-04
5.404325E+03	1.538641E-02	1.928135E-04
5.414315E+03	1.514415E-02	1.896266E-04
5.424304E+03	1.482743E-02	1.855120E-04
5.434294E+03	1.448186E-02	1.810425E-04
5.444284E+03	1.416652E-02	1.769568E-04
5.454273E+03	1.394063E-02	1.739933E-04
5.464263E+03	1.385249E-02	1.727516E-04
5.474252E+03	1.393101E-02	1.735878E-04
5.484242E+03	1.418144E-02	1.765620E-04
5.494231E+03	1.457205E-02	1.812742E-04
5.504221E+03	1.501690E-02	1.866518E-04
5.514210E+03	1.540066E-02	1.912607E-04
5.524200E+03	1.561590E-02	1.937698E-04
5.534189E+03	1.560576E-02	1.934795E-04
5.544179E+03	1.536755E-02	1.903635E-04
5.554168E+03	1.494903E-02	1.850200E-04
5.564158E+03	1.444094E-02	1.785771E-04
5.574147E+03	1.394625E-02	1.723100E-04
5.584137E+03	1.355104E-02	1.672807E-04
5.594126E+03	1.331410E-02	1.642115E-04
5.604116E+03	1.326862E-02	1.635059E-04
5.614105E+03	1.341666E-02	1.651832E-04
5.624095E+03	1.372070E-02	1.687754E-04
5.634084E+03	1.411446E-02	1.734627E-04
5.644074E+03	1.452191E-02	1.783087E-04
5.654063E+03	1.487311E-02	1.824545E-04
5.664053E+03	1.510681E-02	1.851517E-04
5.674042E+03	1.517900E-02	1.858649E-04
5.684032E+03	1.507205E-02	1.843841E-04
5.694021E+03	1.479132E-02	1.807808E-04
5.704011E+03	1.435516E-02	1.752852E-04
5.714000E+03	1.379002E-02	1.682253E-04
5.723990E+03	1.312860E-02	1.600042E-04
5.733979E+03	1.241040E-02	1.511063E-04
5.743969E+03	1.168048E-02	1.420819E-04
5.753958E+03	1.098466E-02	1.334883E-04
5.763948E+03	1.036653E-02	1.258535E-04
5.773937E+03	9.867763E-03	1.196806E-04
5.783927E+03	9.522432E-03	1.153780E-04
5.793916E+03	9.353753E-03	1.132214E-04
5.803906E+03	9.373565E-03	1.133475E-04
5.813895E+03	9.586500E-03	1.158054E-04
5.823885E+03	9.989656E-03	1.205530E-04
5.833874E+03	1.056621E-02	1.273804E-04
5.843864E+03	1.128559E-02	1.359128E-04
5.853853E+03	1.210563E-02	1.456375E-04
5.863843E+03	1.297531E-02	1.559375E-04
5.873832E+03	1.383593E-02	1.661059E-04
5.883822E+03	1.462705E-02	1.754180E-04
5.893811E+03	1.529826E-02	1.832725E-04
5.903801E+03	1.581340E-02	1.892412E-04
5.913791E+03	1.615253E-02	1.930912E-04
5.923780E+03	1.631562E-02	1.948293E-04
5.933770E+03	1.631851E-02	1.946510E-04
5.943759E+03	1.618787E-02	1.928805E-04
5.953749E+03	1.595578E-02	1.899049E-04
5.963738E+03	1.565545E-02	1.861229E-04
5.973728E+03	1.531614E-02	1.818849E-04
5.983717E+03	1.496175E-02	1.774761E-04
5.993707E+03	1.460999E-02	1.731068E-04
6.003696E+03	1.427428E-02	1.689359E-04
6.013686E+03	1.396420E-02	1.650762E-04
6.023675E+03	1.368727E-02	1.616153E-04
6.033665E+03	1.344932E-02	1.586207E-04
6.043654E+03	1.325601E-02	1.561577E-04
6.053644E+03	1.311118E-02	1.542695E-04
6.063633E+03	1.301622E-02	1.529706E-04
6.073623E+03	1.296850E-02	1.522279E-04
6.083612E+03	1.296117E-02	1.519591E-04
6.093602E+03	1.298315E-02	1.520329E-04
6.103591E+03	1.301901E-02	1.522675E-04
6.113581E+03	1.305179E-02	1.524643E-04
6.123570E+03	1.306768E-02	1.524621E-04
6.133560E+03	1.306026E-02	1.521870E-04
6.143549E+03	1.302998E-02	1.516452E-04
6.153539E+03	1.298432E-02	1.509247E-04
6.163528E+03	1.293650E-02	1.501796E-04
6.173518E+03	1.290176E-02	1.495867E-04
6.183507E+03	1.289189E-02	1.492819E-04
6.193497E+03	1.291141E-02	1.493166E-04
6.203486E+03	1.295725E-02	1.496537E-04
6.213476E+03	1.302017E-02	1.501858E-04
6.223465E+03	1.308530E-02	1.507406E-04
6.233455E+03	1.313313E-02	1.510937E-04
6.243444E+03	1.314271E-02	1.510050E-04
6.253434E+03	1.309375E-02	1.502436E-04
6.263423E+03	1.296694E-02	1.485908E-04
6.273413E+03	1.274436E-02	1.458451E-04
6.283402E+03	1.241013E-02	1.418295E-04
6.293392E+03	1.195390E-02	1.364311E-04
6.303381E+03	1.137391E-02	1.296357E-04
6.313371E+03	1.067992E-02	1.215600E-04
6.323360E+03	9.894344E-03	1.124644E-04
6.333350E+03	9.053529E-03	1.027657E-04
6.343339E+03	8.203642E-03	9.299013E-05
6.353329E+03	7.391628E-03	8.366951E-05
6.363319E+03	6.658106E-03	7.526139E-05
6.373308E+03	6.034886E-03	6.812119E-05
6.383298E+03	5.543046E-03	6.248141E-05
6.393287E+03	5.194864E-03	5.847403E-05
6.403277E+03	4.997826E-03	5.617641E-05
6.413266E+03	4.959788E-03	5.566954E-05
6.423256E+03	5.092409E-03	5.707645E-05
6.433245E+03	5.412756E-03	6.057994E-05
6.443235E+03	5.944506E-03	6.643554E-05
6.453224E+03	6.711786E-03	7.490222E-05
6.463214E+03	7.724329E-03	8.607691E-05
6.473203E+03	8.968268E-03	9.979326E-05
6.483193E+03	1.040668E-02	1.156296E-04
6.493182E+03	1.198964E-02	1.330223E-04
6.503172E+03	1.366348E-02	1.513695E-04
6.513161E+03	1.541406E-02	1.705101E-04
6.523151E+03	1.732075E-02	1.913168E-04
6.533140E+03	1.936851E-02	2.136157E-04
6.543130E+03	2.131120E-02	2.346889E-04
6.553119E+03	2.290069E-02	2.518129E-04
6.563109E+03	2.394340E-02	2.628798E-04
6.573098E+03	2.433205E-02	2.667405E-04
6.583088E+03	2.409444E-02	2.637322E-04
6.593077E+03	2.336134E-02	2.553156E-04
6.603067E+03	2.230385E-02	2.433826E-04
6.613056E+03	2.108340E-02	2.297087E-04
6.623046E+03	1.983008E-02	2.157175E-04
6.633035E+03	1.863305E-02	2.023791E-04
6.643025E+03	1.754103E-02	1.902194E-04
6.653014E+03	1.657345E-02	1.794433E-04
6.663004E+03	1.573286E-02	1.700724E-04
6.672993E+03	1.501016E-02	1.620019E-04
6.682983E+03	1.439164E-02	1.550781E-04
6.692972E+03	1.386189E-02	1.491300E-04
6.702962E+03	1.340676E-02	1.440010E-04
6.712951E+03	1.301358E-02	1.395516E-04
6.722941E+03	1.267159E-02	1.356631E-04
6.732930E+03	1.237225E-02	1.322420E-04
6.742920E+03	1.210854E-02	1.292108E-04
6.752909E+03	1.187418E-02	1.265011E-04
6.762899E+03	1.166415E-02	1.240578E-04
6.772888E+03	1.147328E-02	1.218248E-04
6.782878E+03	1.129715E-02	1.197544E-04
6.792867E+03	1.113180E-02	1.178037E-04
6.802857E+03	1.097374E-02	1.159355E-04
6.812847E+03	1.082010E-02	1.141191E-04
6.822836E+03	1.066992E-02	1.123441E-04
6.832826E+03	1.052275E-02	1.106056E-04
6.842815E+03	1.037958E-02	1.089141E-04
6.852805E+03	1.024275E-02	1.072937E-04
6.862794E+03	1.011547E-02	1.057776E-04
6.872784E+03	1.000118E-02	1.044014E-04
6.882773E+03	9.902511E-03	1.031919E-04
6.892763E+03	9.822056E-03	1.021750E-04
6.902752E+03	9.761593E-03	1.013683E-04
6.912742E+03	9.721717E-03	1.007769E-04
6.922731E+03	9.701779E-03	1.003931E-04
6.932721E+03	9.700256E-03	1.001999E-04
6.942710E+03	9.714169E-03	1.001657E-04
6.952700E+03	9.739573E-03	1.002490E-04
6.962689E+03	9.771813E-03	1.004014E-04
6.972679E+03	9.805979E-03	1.005722E-04
6.982668E+03	9.837341E-03	1.007128E-04
6.992658E+03	9.861315E-03	1.007767E-04
7.002647E+03	9.874718E-03	1.007317E-04
7.012637E+03	9.875193E-03	1.005545E-04
7.022626E+03	9.861740E-03	1.002356E-04
7.032616E+03	9.834304E-03	9.977532E-05
7.042605E+03	9.794014E-03	9.918584E-05
7.052595E+03	9.742375E-03	9.848311E-05
7.062584E+03	9.682023E-03	9.769441E-05
7.072574E+03	9.615644E-03	9.684730E-05
7.082563E+03	9.546310E-03	9.597302E-05
7.092553E+03	9.477189E-03	9.510354E-05
7.102542E+03	9.411646E-03	9.427259E-05
7.112532E+03	9.352691E-03	9.351012E-05
7.122521E+03	9.302831E-03	9.284078E-05
7.132511E+03	9.264059E-03	9.228397E-05
7.142500E+03	9.237641E-03	9.185169E-05
7.152490E+03	9.223682E-03	9.154435E-05
7.162479E+03	9.221652E-03	9.135603E-05
7.172469E+03	9.229984E-03	9.127064E-05
7.182458E+03	9.247056E-03	9.127163E-05
7.192448E+03	9.270862E-03	9.133881E-05
7.202437E+03	9.299368E-03	9.145185E-05
7.212427E+03	9.330716E-03	9.159230E-05
7.222416E+03	9.363154E-03	9.174288E-05
7.232406E+03	9.394807E-03	9.188526E-05
7.242395E+03	9.424024E-03	9.200341E-05
7.252385E+03	9.448899E-03	9.207894E-05
7.262375E+03	9.467279E-03	9.209118E-05
7.272364E+03	9.477129E-03	9.202077E-05
7.282354E+03	9.476681E-03	9.185108E-05
7.292343E+03	9.464475E-03	9.156857E-05
7.302333E+03	9.439687E-03	9.116593E-05
7.312322E+03	9.402454E-03	9.064520E-05
7.322312E+03	9.353994E-03	9.001876E-05
7.332301E+03	9.296300E-03	8.930638E-05
7.342291E+03	9.232194E-03	8.853561E-05
7.352280E+03	9.164964E-03	8.773829E-05
7.362270E+03	9.097698E-03	8.694412E-05
7.372259E+03	9.033248E-03	8.618032E-05
7.382249E+03	8.973843E-03	8.546803E-05
7.392238E+03	8.920389E-03	8.481563E-05
7.402228E+03	8.873273E-03	8.422657E-05
7.412217E+03	8.831474E-03	8.369087E-05
7.422207E+03	8.793693E-03	8.319604E-05
7.432196E+03	8.757692E-03	8.272081E-05
7.442186E+03	8.720917E-03	8.224105E-05
7.452175E+03	8.681039E-03	8.173488E-05
7.462165E+03	8.635678E-03	8.118012E-05
7.472154E+03	8.582510E-03	8.055525E-05
7.482144E+03	8.519792E-03	7.984429E-05
7.492133E+03	8.446023E-03	7.903363E-05
7.502123E+03	8.360258E-03	7.811492E-05
7.512112E+03	8.261760E-03	7.708179E-05
7.522102E+03	8.150848E-03	7.593772E-05
7.532091E+03	8.028119E-03	7.468875E-05
7.542081E+03	7.895102E-03	7.334952E-05
7.552070E+03	7.753907E-03	7.193996E-05
7.562060E+03	7.607437E-03	7.048722E-05
7.572049E+03	7.459335E-03	6.902516E-05
7.582039E+03	7.314054E-03	6.759489E-05
7.592028E+03	7.175697E-03	6.623415E-05
7.602018E+03	7.048166E-03	6.497857E-05
7.612007E+03	6.935325E-03	6.386336E-05
7.621997E+03	6.840545E-03	6.291895E-05
7.631986E+03	6.767293E-03	6.217662E-05
7.641976E+03	6.718359E-03	6.166130E-05
7.651965E+03	6.696499E-03	6.139756E-05
7.661955E+03	6.703435E-03	6.140042E-05
7.671944E+03	6.740303E-03	6.167958E-05
7.681934E+03	6.807295E-03	6.223612E-05
7.691923E+03	6.902798E-03	6.305468E-05
7.701913E+03	7.023706E-03	6.410643E-05
7.711903E+03	7.164751E-03	6.534295E-05
7.721892E+03	7.317879E-03	6.669066E-05
7.731882E+03	7.473569E-03	6.806286E-05
7.741871E+03	7.621404E-03	6.936498E-05
7.751861E+03	7.751592E-03	7.050834E-05
