#wls	flux	fluxerr
1.598322E+03	1.250123E-04	5.769491E-06
1.638280E+03	1.277762E-04	5.864799E-06
1.678238E+03	1.304035E-04	5.951817E-06
1.718196E+03	1.329478E-04	6.033050E-06
1.758154E+03	1.353198E-04	6.104490E-06
1.798112E+03	1.374578E-04	6.163472E-06
1.838070E+03	1.394142E-04	6.212491E-06
1.878028E+03	1.408866E-04	6.238281E-06
1.917986E+03	1.419029E-04	6.242461E-06
1.957944E+03	1.423822E-04	6.221884E-06
1.997902E+03	1.423422E-04	6.177779E-06
2.037860E+03	1.419461E-04	6.117654E-06
2.077818E+03	1.417330E-04	6.064923E-06
2.117776E+03	1.426291E-04	6.058765E-06
2.157734E+03	1.452832E-04	6.125499E-06
2.197692E+03	1.501910E-04	6.284181E-06
2.237650E+03	1.570464E-04	6.519879E-06
2.277609E+03	1.654473E-04	6.814059E-06
2.317567E+03	1.747556E-04	7.139043E-06
2.357525E+03	1.846196E-04	7.479593E-06
2.397483E+03	1.948089E-04	7.825805E-06
2.437441E+03	2.052369E-04	8.173832E-06
2.477399E+03	2.159880E-04	8.526691E-06
2.517357E+03	2.270329E-04	8.882854E-06
2.557315E+03	2.386134E-04	9.251355E-06
2.597273E+03	2.508170E-04	9.634963E-06
2.637231E+03	2.636352E-04	1.003269E-05
2.677189E+03	2.773274E-04	1.045369E-05
2.717147E+03	2.918695E-04	1.089613E-05
2.757105E+03	3.074128E-04	1.136480E-05
2.797063E+03	3.240998E-04	1.186390E-05
2.837021E+03	3.419507E-04	1.239310E-05
2.876979E+03	3.609485E-04	1.295072E-05
2.916937E+03	3.811363E-04	1.353729E-05
2.956895E+03	4.024979E-04	1.415131E-05
2.996853E+03	4.248164E-04	1.478436E-05
3.006843E+03	4.306260E-04	1.494832E-05
3.016832E+03	4.364103E-04	1.511047E-05
3.026822E+03	4.421608E-04	1.527054E-05
3.036811E+03	4.481102E-04	1.543654E-05
3.046801E+03	4.540253E-04	1.560044E-05
3.056790E+03	4.599089E-04	1.576234E-05
3.066780E+03	4.659872E-04	1.592999E-05
3.076769E+03	4.720059E-04	1.609469E-05
3.086759E+03	4.780704E-04	1.626005E-05
3.096748E+03	4.840432E-04	1.642140E-05
3.106738E+03	4.901516E-04	1.658647E-05
3.116727E+03	4.961343E-04	1.674641E-05
3.126717E+03	5.020951E-04	1.690477E-05
3.136706E+03	5.080149E-04	1.706093E-05
3.146696E+03	5.137507E-04	1.721011E-05
3.156685E+03	5.195277E-04	1.735991E-05
3.166675E+03	5.252011E-04	1.750550E-05
3.176665E+03	5.306243E-04	1.764205E-05
3.186654E+03	5.360205E-04	1.777704E-05
3.196644E+03	5.411182E-04	1.790151E-05
3.206633E+03	5.461389E-04	1.802285E-05
3.216623E+03	5.509325E-04	1.813617E-05
3.226612E+03	5.554726E-04	1.824066E-05
3.236602E+03	5.597317E-04	1.833550E-05
3.246591E+03	5.636824E-04	1.841988E-05
3.256581E+03	5.672973E-04	1.849300E-05
3.266570E+03	5.706694E-04	1.855797E-05
3.276560E+03	5.735305E-04	1.860616E-05
3.286549E+03	5.762134E-04	1.864848E-05
3.296539E+03	5.783340E-04	1.867259E-05
3.306528E+03	5.801056E-04	1.868550E-05
3.316518E+03	5.815034E-04	1.868650E-05
3.326507E+03	5.822759E-04	1.866763E-05
3.336497E+03	5.827500E-04	1.863950E-05
3.346486E+03	5.826815E-04	1.859439E-05
3.356476E+03	5.820613E-04	1.853214E-05
3.366465E+03	5.811026E-04	1.845965E-05
3.376455E+03	5.795825E-04	1.836994E-05
3.386444E+03	5.775070E-04	1.826333E-05
3.396434E+03	5.750961E-04	1.814688E-05
3.406423E+03	5.721546E-04	1.801452E-05
3.416413E+03	5.688085E-04	1.787032E-05
3.426402E+03	5.651835E-04	1.771830E-05
3.436392E+03	5.611184E-04	1.755349E-05
3.446381E+03	5.567561E-04	1.738042E-05
3.456371E+03	5.522397E-04	1.720362E-05
3.466360E+03	5.475333E-04	1.702200E-05
3.476350E+03	5.427033E-04	1.683764E-05
3.486339E+03	5.378234E-04	1.665285E-05
3.496329E+03	5.330558E-04	1.647265E-05
3.506318E+03	5.283958E-04	1.629687E-05
3.516308E+03	5.240066E-04	1.613050E-05
3.526297E+03	5.198863E-04	1.597344E-05
3.536287E+03	5.162601E-04	1.583255E-05
3.546276E+03	5.129563E-04	1.570247E-05
3.556266E+03	5.102378E-04	1.559119E-05
3.566255E+03	5.080386E-04	1.549660E-05
3.576245E+03	5.062712E-04	1.541595E-05
3.586234E+03	5.050394E-04	1.535232E-05
3.596224E+03	5.042348E-04	1.530236E-05
3.606213E+03	5.038277E-04	1.526511E-05
3.616203E+03	5.037933E-04	1.523975E-05
3.626192E+03	5.041592E-04	1.522708E-05
3.636182E+03	5.048014E-04	1.522331E-05
3.646172E+03	5.057037E-04	1.522792E-05
3.656161E+03	5.067718E-04	1.523802E-05
3.666151E+03	5.078492E-04	1.524890E-05
3.676140E+03	5.089082E-04	1.525971E-05
3.686130E+03	5.098757E-04	1.526825E-05
3.696119E+03	5.107024E-04	1.527307E-05
3.706109E+03	5.114266E-04	1.527531E-05
3.716098E+03	5.120096E-04	1.527382E-05
3.726088E+03	5.125127E-04	1.527043E-05
3.736077E+03	5.130437E-04	1.526836E-05
3.746067E+03	5.138114E-04	1.527379E-05
3.756056E+03	5.150185E-04	1.529272E-05
3.766046E+03	5.169170E-04	1.533256E-05
3.776035E+03	5.198065E-04	1.540213E-05
3.786025E+03	5.239817E-04	1.551005E-05
3.796014E+03	5.299294E-04	1.567059E-05
3.806004E+03	5.380742E-04	1.589617E-05
3.815993E+03	5.487806E-04	1.619734E-05
3.825983E+03	5.626920E-04	1.659290E-05
3.835972E+03	5.801879E-04	1.709378E-05
3.845962E+03	6.019715E-04	1.772044E-05
3.855951E+03	6.285698E-04	1.848810E-05
3.865941E+03	6.605168E-04	1.941213E-05
3.875930E+03	6.985009E-04	2.051244E-05
3.885920E+03	7.430849E-04	2.180519E-05
3.895909E+03	7.946587E-04	2.330145E-05
3.905899E+03	8.538148E-04	2.501821E-05
3.915888E+03	9.207167E-04	2.695990E-05
3.925878E+03	9.955349E-04	2.913112E-05
3.935867E+03	1.078158E-03	3.152826E-05
3.945857E+03	1.168212E-03	3.414010E-05
3.955846E+03	1.265115E-03	3.694935E-05
3.965836E+03	1.367814E-03	3.992502E-05
3.975825E+03	1.475104E-03	4.303181E-05
3.985815E+03	1.585278E-03	4.621987E-05
3.995804E+03	1.696518E-03	4.943618E-05
4.005794E+03	1.806730E-03	5.261982E-05
4.015783E+03	1.913234E-03	5.569300E-05
4.025773E+03	2.013568E-03	5.858430E-05
4.035762E+03	2.104920E-03	6.121231E-05
4.045752E+03	2.184344E-03	6.349186E-05
4.055741E+03	2.249304E-03	6.534982E-05
4.065731E+03	2.297545E-03	6.672131E-05
4.075720E+03	2.327315E-03	6.755615E-05
4.085710E+03	2.338192E-03	6.784278E-05
4.095700E+03	2.330002E-03	6.757684E-05
4.105689E+03	2.304179E-03	6.680051E-05
4.115679E+03	2.262830E-03	6.557548E-05
4.125668E+03	2.208680E-03	6.398110E-05
4.135658E+03	2.145137E-03	6.211647E-05
4.145647E+03	2.075681E-03	6.008253E-05
4.155637E+03	2.003802E-03	5.798039E-05
4.165626E+03	1.932449E-03	5.589535E-05
4.175616E+03	1.864525E-03	5.391125E-05
4.185605E+03	1.802292E-03	5.209332E-05
4.195595E+03	1.747505E-03	5.049206E-05
4.205584E+03	1.701603E-03	4.914872E-05
4.215574E+03	1.665828E-03	4.809888E-05
4.225563E+03	1.640896E-03	4.736288E-05
4.235553E+03	1.627530E-03	4.696119E-05
4.245542E+03	1.626217E-03	4.690753E-05
4.255532E+03	1.637307E-03	4.721160E-05
4.265521E+03	1.660989E-03	4.787847E-05
4.275511E+03	1.697257E-03	4.890762E-05
4.285500E+03	1.745866E-03	5.029154E-05
4.295490E+03	1.806236E-03	5.201322E-05
4.305479E+03	1.877365E-03	5.404339E-05
4.315469E+03	1.957706E-03	5.633726E-05
4.325458E+03	2.045057E-03	5.883113E-05
4.335448E+03	2.136464E-03	6.143980E-05
4.345437E+03	2.228272E-03	6.405810E-05
4.355427E+03	2.315919E-03	6.655484E-05
4.365416E+03	2.394934E-03	6.880163E-05
4.375406E+03	2.460840E-03	7.067012E-05
4.385395E+03	2.510550E-03	7.207209E-05
4.395385E+03	2.543378E-03	7.298823E-05
4.405374E+03	2.561532E-03	7.348243E-05
4.415364E+03	2.568848E-03	7.366511E-05
4.425353E+03	2.570497E-03	7.368478E-05
4.435343E+03	2.572120E-03	7.370326E-05
4.445332E+03	2.579399E-03	7.388333E-05
4.455322E+03	2.597931E-03	7.438494E-05
4.465311E+03	2.633032E-03	7.535991E-05
4.475301E+03	2.689631E-03	7.694858E-05
4.485290E+03	2.772429E-03	7.928464E-05
4.495280E+03	2.885543E-03	8.248476E-05
4.505269E+03	3.032772E-03	8.665627E-05
4.515259E+03	3.217057E-03	9.188185E-05
4.525248E+03	3.440348E-03	9.821562E-05
4.535238E+03	3.702994E-03	1.056659E-04
4.545228E+03	4.003270E-03	1.141817E-04
4.555217E+03	4.337132E-03	1.236461E-04
4.565207E+03	4.697222E-03	1.338477E-04
4.575196E+03	5.073397E-03	1.444963E-04
4.585186E+03	5.452675E-03	1.552214E-04
4.595175E+03	5.819806E-03	1.655886E-04
4.605165E+03	6.157955E-03	1.751193E-04
4.615154E+03	6.450332E-03	1.833372E-04
4.625144E+03	6.681331E-03	1.898009E-04
4.635133E+03	6.837876E-03	1.941417E-04
4.645123E+03	6.911106E-03	1.961113E-04
4.655112E+03	6.897793E-03	1.956222E-04
4.665102E+03	6.800803E-03	1.927597E-04
4.675091E+03	6.629165E-03	1.877837E-04
4.685081E+03	6.397341E-03	1.811077E-04
4.695070E+03	6.123382E-03	1.732454E-04
4.705060E+03	5.827055E-03	1.647584E-04
4.715049E+03	5.527519E-03	1.561894E-04
4.725039E+03	5.242124E-03	1.480288E-04
4.735028E+03	4.985313E-03	1.406836E-04
4.745018E+03	4.768206E-03	1.344662E-04
4.755007E+03	4.599086E-03	1.296078E-04
4.764997E+03	4.483563E-03	1.262639E-04
4.774986E+03	4.425195E-03	1.245314E-04
4.784976E+03	4.425826E-03	1.244589E-04
4.794965E+03	4.486092E-03	1.260606E-04
4.804955E+03	4.605358E-03	1.293149E-04
4.814944E+03	4.781878E-03	1.341688E-04
4.824934E+03	5.012506E-03	1.405305E-04
4.834923E+03	5.292464E-03	1.482623E-04
4.844913E+03	5.615197E-03	1.571770E-04
4.854902E+03	5.972389E-03	1.670388E-04
4.864892E+03	6.353641E-03	1.775545E-04
4.874881E+03	6.747203E-03	1.883938E-04
4.884871E+03	7.139791E-03	1.991850E-04
4.894860E+03	7.517396E-03	2.095371E-04
4.904850E+03	7.866180E-03	2.190655E-04
4.914839E+03	8.174093E-03	2.274367E-04
4.924829E+03	8.434166E-03	2.344597E-04
4.934818E+03	8.645632E-03	2.401166E-04
4.944808E+03	8.813054E-03	2.445375E-04
4.954797E+03	8.942496E-03	2.478938E-04
4.964787E+03	9.039022E-03	2.503287E-04
4.974776E+03	9.103676E-03	2.518735E-04
4.984766E+03	9.132795E-03	2.524296E-04
4.994756E+03	9.117496E-03	2.517546E-04
5.004745E+03	9.046339E-03	2.495366E-04
5.014735E+03	8.909445E-03	2.455083E-04
5.024724E+03	8.702191E-03	2.395481E-04
5.034714E+03	8.427516E-03	2.317431E-04
5.044703E+03	8.096926E-03	2.224156E-04
5.054693E+03	7.729208E-03	2.120862E-04
5.064682E+03	7.347638E-03	2.013967E-04
5.074672E+03	6.975984E-03	1.909994E-04
5.084661E+03	6.636119E-03	1.814919E-04
5.094651E+03	6.345222E-03	1.733411E-04
5.104640E+03	6.115651E-03	1.668798E-04
5.114630E+03	5.954214E-03	1.622883E-04
5.124619E+03	5.863318E-03	1.596257E-04
5.134609E+03	5.841724E-03	1.588519E-04
5.144598E+03	5.884733E-03	1.598325E-04
5.154588E+03	5.985114E-03	1.623654E-04
5.164577E+03	6.133884E-03	1.662013E-04
5.174567E+03	6.320603E-03	1.710531E-04
5.184556E+03	6.534097E-03	1.766149E-04
5.194546E+03	6.763408E-03	1.825880E-04
5.204535E+03	6.998572E-03	1.887022E-04
5.214525E+03	7.231806E-03	1.947472E-04
5.224514E+03	7.457447E-03	2.005707E-04
5.234504E+03	7.673052E-03	2.061079E-04
5.244493E+03	7.878770E-03	2.113637E-04
5.254483E+03	8.076967E-03	2.164025E-04
5.264472E+03	8.271388E-03	2.213252E-04
5.274462E+03	8.466030E-03	2.262390E-04
5.284451E+03	8.664961E-03	2.312525E-04
5.294441E+03	8.870444E-03	2.364255E-04
5.304430E+03	9.083393E-03	2.417817E-04
5.314420E+03	9.303003E-03	2.472988E-04
5.324409E+03	9.526590E-03	2.529050E-04
5.334399E+03	9.749912E-03	2.584874E-04
5.344388E+03	9.967238E-03	2.638942E-04
5.354378E+03	1.017123E-02	2.689323E-04
5.364367E+03	1.035355E-02	2.733829E-04
5.374357E+03	1.050450E-02	2.769926E-04
5.384346E+03	1.061366E-02	2.794905E-04
5.394336E+03	1.067195E-02	2.806425E-04
5.404325E+03	1.067279E-02	2.802814E-04
5.414315E+03	1.061538E-02	2.783923E-04
5.424304E+03	1.050610E-02	2.751490E-04
5.434294E+03	1.036056E-02	2.709653E-04
5.444284E+03	1.020287E-02	2.664751E-04
5.454273E+03	1.006244E-02	2.624466E-04
5.464263E+03	9.968639E-03	2.596430E-04
5.474252E+03	9.946511E-03	2.587110E-04
5.484242E+03	1.001253E-02	2.600708E-04
5.494231E+03	1.016706E-02	2.637228E-04
5.504221E+03	1.038533E-02	2.690155E-04
5.514210E+03	1.062905E-02	2.749525E-04
5.524200E+03	1.085568E-02	2.804319E-04
5.534189E+03	1.102725E-02	2.844761E-04
5.544179E+03	1.111754E-02	2.864156E-04
5.554168E+03	1.111764E-02	2.860293E-04
5.564158E+03	1.103802E-02	2.835960E-04
5.574147E+03	1.090497E-02	2.797982E-04
5.584137E+03	1.075327E-02	2.755326E-04
5.594126E+03	1.061948E-02	2.717363E-04
5.604116E+03	1.053514E-02	2.692139E-04
5.614105E+03	1.052015E-02	2.684674E-04
5.624095E+03	1.057920E-02	2.696094E-04
5.634084E+03	1.070124E-02	2.723509E-04
5.644074E+03	1.086045E-02	2.760291E-04
5.654063E+03	1.101749E-02	2.796415E-04
5.664053E+03	1.112486E-02	2.819843E-04
5.674042E+03	1.113617E-02	2.818880E-04
5.684032E+03	1.101566E-02	2.784589E-04
5.694021E+03	1.074541E-02	2.712583E-04
5.704011E+03	1.032811E-02	2.603688E-04
5.714000E+03	9.786780E-03	2.463853E-04
5.723990E+03	9.160238E-03	2.302967E-04
5.733979E+03	8.496458E-03	2.133160E-04
5.743969E+03	7.844446E-03	1.966758E-04
5.753958E+03	7.247402E-03	1.814566E-04
5.763948E+03	6.739265E-03	1.685012E-04
5.773937E+03	6.344016E-03	1.583993E-04
5.783927E+03	6.076846E-03	1.515179E-04
5.793916E+03	5.946584E-03	1.480635E-04
5.803906E+03	5.958161E-03	1.481445E-04
5.813895E+03	6.115256E-03	1.518374E-04
5.823885E+03	6.420556E-03	1.591936E-04
5.833874E+03	6.874958E-03	1.702197E-04
5.843864E+03	7.475204E-03	1.848192E-04
5.853853E+03	8.210629E-03	2.027135E-04
5.863843E+03	9.059250E-03	2.233460E-04
5.873832E+03	9.985538E-03	2.458299E-04
5.883822E+03	1.094044E-02	2.689507E-04
5.893811E+03	1.186564E-02	2.912737E-04
5.903801E+03	1.270033E-02	3.113113E-04
5.913791E+03	1.339045E-02	3.277495E-04
5.923780E+03	1.389792E-02	3.396732E-04
5.933770E+03	1.420455E-02	3.466575E-04
5.943759E+03	1.431306E-02	3.487904E-04
5.953749E+03	1.424275E-02	3.465628E-04
5.963738E+03	1.402482E-02	3.407523E-04
5.973728E+03	1.369505E-02	3.322428E-04
5.983717E+03	1.328918E-02	3.219127E-04
5.993707E+03	1.284012E-02	3.105658E-04
6.003696E+03	1.237601E-02	2.988872E-04
6.013686E+03	1.192003E-02	2.874373E-04
6.023675E+03	1.149079E-02	2.766636E-04
6.033665E+03	1.110240E-02	2.669023E-04
6.043654E+03	1.076559E-02	2.584070E-04
6.053644E+03	1.048780E-02	2.513496E-04
6.063633E+03	1.027355E-02	2.458325E-04
6.073623E+03	1.012463E-02	2.418914E-04
6.083612E+03	1.003990E-02	2.394914E-04
6.093602E+03	1.001434E-02	2.385062E-04
6.103591E+03	1.003925E-02	2.387221E-04
6.113581E+03	1.010305E-02	2.398586E-04
6.123570E+03	1.019254E-02	2.415984E-04
6.133560E+03	1.029503E-02	2.436383E-04
6.143549E+03	1.039962E-02	2.457194E-04
6.153539E+03	1.049958E-02	2.476825E-04
6.163528E+03	1.059299E-02	2.494830E-04
6.173518E+03	1.068245E-02	2.511829E-04
6.183507E+03	1.077207E-02	2.528791E-04
6.193497E+03	1.086594E-02	2.546673E-04
6.203486E+03	1.096561E-02	2.565837E-04
6.213476E+03	1.106900E-02	2.585789E-04
6.223465E+03	1.116877E-02	2.604813E-04
6.233455E+03	1.125268E-02	2.620066E-04
6.243444E+03	1.130475E-02	2.627848E-04
6.253434E+03	1.130649E-02	2.623909E-04
6.263423E+03	1.123866E-02	2.603846E-04
6.273413E+03	1.108286E-02	2.563491E-04
6.283402E+03	1.082405E-02	2.499464E-04
6.293392E+03	1.045326E-02	2.409826E-04
6.303381E+03	9.970406E-03	2.294680E-04
6.313371E+03	9.385501E-03	2.156460E-04
6.323360E+03	8.719003E-03	1.999975E-04
6.333350E+03	8.000005E-03	1.831983E-04
6.343339E+03	7.263126E-03	1.660458E-04
6.353329E+03	6.543305E-03	1.493393E-04
6.363319E+03	5.871713E-03	1.337871E-04
6.373308E+03	5.273213E-03	1.199492E-04
6.383298E+03	4.764800E-03	1.082030E-04
6.393287E+03	4.356096E-03	9.875641E-05
6.403277E+03	4.051788E-03	9.170399E-05
6.413266E+03	3.853960E-03	8.708090E-05
6.423256E+03	3.764756E-03	8.492343E-05
6.433245E+03	3.788768E-03	8.532275E-05
6.443235E+03	3.934694E-03	8.846162E-05
6.453224E+03	4.216681E-03	9.464402E-05
6.463214E+03	4.654758E-03	1.043035E-04
6.473203E+03	5.275300E-03	1.180128E-04
6.483193E+03	6.110616E-03	1.364732E-04
6.493182E+03	7.196962E-03	1.604692E-04
6.503172E+03	8.570788E-03	1.907843E-04
6.513161E+03	1.026268E-02	2.280665E-04
6.523151E+03	1.228555E-02	2.725665E-04
6.533140E+03	1.458274E-02	3.229924E-04
6.543130E+03	1.697568E-02	3.753649E-04
6.553119E+03	1.920987E-02	4.240547E-04
6.563109E+03	2.101421E-02	4.631036E-04
6.573098E+03	2.217684E-02	4.878982E-04
6.583088E+03	2.260986E-02	4.965788E-04
6.593077E+03	2.235986E-02	4.902481E-04
6.603067E+03	2.157008E-02	4.721179E-04
6.613056E+03	2.042401E-02	4.462587E-04
6.623046E+03	1.909858E-02	4.165704E-04
6.633035E+03	1.773609E-02	3.861722E-04
6.643025E+03	1.643262E-02	3.571576E-04
6.653014E+03	1.524444E-02	3.307409E-04
6.663004E+03	1.419669E-02	3.074538E-04
6.672993E+03	1.329378E-02	2.873759E-04
6.682983E+03	1.252779E-02	2.703198E-04
6.692972E+03	1.188452E-02	2.559637E-04
6.702962E+03	1.134729E-02	2.439349E-04
6.712951E+03	1.089962E-02	2.338671E-04
6.722941E+03	1.052611E-02	2.254202E-04
6.732930E+03	1.021364E-02	2.183045E-04
6.742920E+03	9.950548E-03	2.122643E-04
6.752909E+03	9.727198E-03	2.070880E-04
6.762899E+03	9.535441E-03	2.025979E-04
6.772888E+03	9.368135E-03	1.986383E-04
6.782878E+03	9.219654E-03	1.950874E-04
6.792867E+03	9.085038E-03	1.918378E-04
6.802857E+03	8.960697E-03	1.888123E-04
6.812847E+03	8.843751E-03	1.859490E-04
6.822836E+03	8.732428E-03	1.832097E-04
6.832826E+03	8.625981E-03	1.805781E-04
6.842815E+03	8.524707E-03	1.780599E-04
6.852805E+03	8.429939E-03	1.756821E-04
6.862794E+03	8.343425E-03	1.734803E-04
6.872784E+03	8.267080E-03	1.714930E-04
6.882773E+03	8.202542E-03	1.697528E-04
6.892763E+03	8.151083E-03	1.682841E-04
6.902752E+03	8.113251E-03	1.670964E-04
6.912742E+03	8.089138E-03	1.661895E-04
6.922731E+03	8.078022E-03	1.655465E-04
6.932721E+03	8.079049E-03	1.651480E-04
6.942710E+03	8.090698E-03	1.649609E-04
6.952700E+03	8.111096E-03	1.649454E-04
6.962689E+03	8.138004E-03	1.650546E-04
6.972679E+03	8.168576E-03	1.652299E-04
6.982668E+03	8.199783E-03	1.654095E-04
6.992658E+03	8.228609E-03	1.655324E-04
7.002647E+03	8.252299E-03	1.655437E-04
7.012637E+03	8.268533E-03	1.653979E-04
7.022626E+03	8.275689E-03	1.650638E-04
7.032616E+03	8.272686E-03	1.645214E-04
7.042605E+03	8.259205E-03	1.637663E-04
7.052595E+03	8.235902E-03	1.628132E-04
7.062584E+03	8.203834E-03	1.616849E-04
7.072574E+03	8.164694E-03	1.604161E-04
7.082563E+03	8.120507E-03	1.590481E-04
7.092553E+03	8.073865E-03	1.576324E-04
7.102542E+03	8.027187E-03	1.562167E-04
7.112532E+03	7.983345E-03	1.548568E-04
7.122521E+03	7.944843E-03	1.536007E-04
7.132511E+03	7.914290E-03	1.524979E-04
7.142500E+03	7.893869E-03	1.515887E-04
7.152490E+03	7.885204E-03	1.509025E-04
7.162479E+03	7.889501E-03	1.504598E-04
7.172469E+03	7.907177E-03	1.502662E-04
7.182458E+03	7.937799E-03	1.503108E-04
7.192448E+03	7.980431E-03	1.505734E-04
7.202437E+03	8.033411E-03	1.510202E-04
7.212427E+03	8.094749E-03	1.516120E-04
7.222416E+03	8.162292E-03	1.523067E-04
7.232406E+03	8.233156E-03	1.530495E-04
7.242395E+03	8.304713E-03	1.537911E-04
7.252385E+03	8.373866E-03	1.544742E-04
7.262375E+03	8.437441E-03	1.550410E-04
7.272364E+03	8.492280E-03	1.554351E-04
7.282354E+03	8.535072E-03	1.555981E-04
7.292343E+03	8.563335E-03	1.554876E-04
7.302333E+03	8.575011E-03	1.550699E-04
7.312322E+03	8.569045E-03	1.543296E-04
7.322312E+03	8.545420E-03	1.532708E-04
7.332301E+03	8.505184E-03	1.519162E-04
7.342291E+03	8.450193E-03	1.503028E-04
7.352280E+03	8.383263E-03	1.484842E-04
7.362270E+03	8.307272E-03	1.465141E-04
7.372259E+03	8.225123E-03	1.444457E-04
7.382249E+03	8.139596E-03	1.423295E-04
7.392238E+03	8.052771E-03	1.402026E-04
7.402228E+03	7.965968E-03	1.380887E-04
7.412217E+03	7.879649E-03	1.359959E-04
7.422207E+03	7.793319E-03	1.339161E-04
7.432196E+03	7.705993E-03	1.318326E-04
7.442186E+03	7.616177E-03	1.297205E-04
7.452175E+03	7.522208E-03	1.275526E-04
7.462165E+03	7.422487E-03	1.253030E-04
7.472154E+03	7.315725E-03	1.229517E-04
7.482144E+03	7.201024E-03	1.204855E-04
7.492133E+03	7.078245E-03	1.179042E-04
7.502123E+03	6.947859E-03	1.152177E-04
7.512112E+03	6.810709E-03	1.124416E-04
7.522102E+03	6.668576E-03	1.096071E-04
7.532091E+03	6.523435E-03	1.067478E-04
7.542081E+03	6.378065E-03	1.039095E-04
7.552070E+03	6.235478E-03	1.011415E-04
7.562060E+03	6.098860E-03	9.849469E-05
7.572049E+03	5.971956E-03	9.602806E-05
7.582039E+03	5.858224E-03	9.379506E-05
7.592028E+03	5.760969E-03	9.184578E-05
7.602018E+03	5.682556E-03	9.021450E-05
7.612007E+03	5.625185E-03	8.893241E-05
7.621997E+03	5.590034E-03	8.801410E-05
7.631986E+03	5.577786E-03	8.746628E-05
7.641976E+03	5.588301E-03	8.728279E-05
7.651965E+03	5.620597E-03	8.744454E-05
7.661955E+03	5.672796E-03	8.791909E-05
7.671944E+03	5.742372E-03	8.866457E-05
7.681934E+03	5.826520E-03	8.963562E-05
7.691923E+03	5.922473E-03	9.078826E-05
7.701913E+03	6.027204E-03	9.207539E-05
7.711903E+03	6.137448E-03	9.344697E-05
7.721892E+03	6.249505E-03	9.484721E-05
7.731882E+03	6.358934E-03	9.620990E-05
7.741871E+03	6.460867E-03	9.746327E-05
7.751861E+03	6.549942E-03	9.852892E-05
