#wls	flux	fluxerr
1.592674E+03	8.368185E-18	3.376036E-19
1.632491E+03	8.308466E-18	3.349021E-19
1.672307E+03	8.166039E-18	3.288664E-19
1.712124E+03	7.937875E-18	3.193837E-19
1.751941E+03	7.624944E-18	3.065032E-19
1.791758E+03	7.229318E-18	2.903183E-19
1.831575E+03	6.759159E-18	2.711673E-19
1.871392E+03	6.227514E-18	2.495832E-19
1.911208E+03	5.652943E-18	2.263182E-19
1.951025E+03	5.060104E-18	2.023655E-19
1.990842E+03	4.479176E-18	1.789349E-19
2.030659E+03	3.944561E-18	1.573994E-19
2.070476E+03	3.489520E-18	1.390799E-19
2.110293E+03	3.141703E-18	1.250677E-19
2.150109E+03	2.913987E-18	1.158605E-19
2.189926E+03	2.801641E-18	1.112538E-19
2.229743E+03	2.789246E-18	1.106189E-19
2.269560E+03	2.859006E-18	1.132357E-19
2.309377E+03	2.998972E-18	1.186184E-19
2.349194E+03	3.204779E-18	1.265827E-19
2.389011E+03	3.478762E-18	1.372089E-19
2.428827E+03	3.828677E-18	1.507898E-19
2.468644E+03	4.265938E-18	1.677597E-19
2.508461E+03	4.807039E-18	1.887491E-19
2.548278E+03	5.473469E-18	2.145791E-19
2.588095E+03	6.290414E-18	2.462095E-19
2.627912E+03	7.283541E-18	2.846111E-19
2.667728E+03	8.471244E-18	3.304632E-19
2.707545E+03	9.858263E-18	3.839062E-19
2.747362E+03	1.143111E-17	4.443693E-19
2.787179E+03	1.315888E-17	5.106076E-19
2.826996E+03	1.499608E-17	5.808186E-19
2.866813E+03	1.688957E-17	6.529149E-19
2.906630E+03	1.878206E-17	7.246655E-19
2.946446E+03	2.061743E-17	7.938997E-19
2.986263E+03	2.234721E-17	8.587595E-19
2.996217E+03	2.275833E-17	8.741075E-19
3.006172E+03	2.315953E-17	8.890560E-19
3.016126E+03	2.355023E-17	9.035834E-19
3.026080E+03	2.393064E-17	9.176981E-19
3.036034E+03	2.430120E-17	9.314172E-19
3.045988E+03	2.466230E-17	9.447569E-19
3.055943E+03	2.501378E-17	9.577107E-19
3.065897E+03	2.535494E-17	9.702529E-19
3.075851E+03	2.568515E-17	9.823598E-19
3.085805E+03	2.600437E-17	9.940301E-19
3.095760E+03	2.631205E-17	1.005244E-18
3.105714E+03	2.660718E-17	1.015963E-18
3.115668E+03	2.689038E-17	1.026211E-18
3.125622E+03	2.716019E-17	1.035934E-18
3.135576E+03	2.741680E-17	1.045140E-18
3.145531E+03	2.766045E-17	1.053838E-18
3.155485E+03	2.789035E-17	1.061999E-18
3.165439E+03	2.810683E-17	1.069637E-18
3.175393E+03	2.830922E-17	1.076726E-18
3.185347E+03	2.849792E-17	1.083284E-18
3.195302E+03	2.867289E-17	1.089309E-18
3.205256E+03	2.883360E-17	1.094781E-18
3.215210E+03	2.898059E-17	1.099724E-18
3.225164E+03	2.911398E-17	1.104140E-18
3.235118E+03	2.923389E-17	1.108037E-18
3.245073E+03	2.934053E-17	1.111423E-18
3.255027E+03	2.943414E-17	1.114307E-18
3.264981E+03	2.951505E-17	1.116704E-18
3.274935E+03	2.958316E-17	1.118610E-18
3.284890E+03	2.963987E-17	1.120079E-18
3.294844E+03	2.968476E-17	1.121096E-18
3.304798E+03	2.971891E-17	1.121703E-18
3.314752E+03	2.974256E-17	1.121909E-18
3.324706E+03	2.975697E-17	1.121762E-18
3.334661E+03	2.976303E-17	1.121297E-18
3.344615E+03	2.976088E-17	1.120519E-18
3.354569E+03	2.975256E-17	1.119506E-18
3.364523E+03	2.973847E-17	1.118274E-18
3.374477E+03	2.972046E-17	1.116891E-18
3.384432E+03	2.970006E-17	1.115417E-18
3.394386E+03	2.967809E-17	1.113881E-18
3.404340E+03	2.965713E-17	1.112382E-18
3.414294E+03	2.963817E-17	1.110955E-18
3.424248E+03	2.962305E-17	1.109670E-18
3.434203E+03	2.961354E-17	1.108593E-18
3.444157E+03	2.961095E-17	1.107772E-18
3.454111E+03	2.961720E-17	1.107278E-18
3.464065E+03	2.963290E-17	1.107134E-18
3.474020E+03	2.965926E-17	1.107384E-18
3.483974E+03	2.969700E-17	1.108055E-18
3.493928E+03	2.974748E-17	1.109195E-18
3.503882E+03	2.981104E-17	1.110817E-18
3.513836E+03	2.988848E-17	1.112950E-18
3.523791E+03	2.998155E-17	1.115658E-18
3.533745E+03	3.009088E-17	1.118962E-18
3.543699E+03	3.021856E-17	1.122940E-18
3.553653E+03	3.036708E-17	1.127681E-18
3.563607E+03	3.053874E-17	1.133271E-18
3.573562E+03	3.073704E-17	1.139837E-18
3.583516E+03	3.096534E-17	1.147501E-18
3.593470E+03	3.122794E-17	1.156420E-18
3.603424E+03	3.153007E-17	1.166785E-18
3.613378E+03	3.187658E-17	1.178772E-18
3.623333E+03	3.227439E-17	1.192633E-18
3.633287E+03	3.273010E-17	1.208608E-18
3.643241E+03	3.325142E-17	1.226977E-18
3.653195E+03	3.384658E-17	1.248038E-18
3.663150E+03	3.452540E-17	1.272146E-18
3.673104E+03	3.529840E-17	1.299682E-18
3.683058E+03	3.617678E-17	1.331050E-18
3.693012E+03	3.717369E-17	1.366724E-18
3.702966E+03	3.830318E-17	1.407213E-18
3.712921E+03	3.958031E-17	1.453056E-18
3.722875E+03	4.102310E-17	1.504902E-18
3.732829E+03	4.264908E-17	1.563381E-18
3.742783E+03	4.447830E-17	1.629211E-18
3.752737E+03	4.653247E-17	1.703169E-18
3.762692E+03	4.883233E-17	1.785995E-18
3.772646E+03	5.140111E-17	1.878517E-18
3.782600E+03	5.425945E-17	1.981465E-18
3.792554E+03	5.742749E-17	2.095549E-18
3.802508E+03	6.092111E-17	2.221322E-18
3.812463E+03	6.474988E-17	2.359102E-18
3.822417E+03	6.891510E-17	2.508910E-18
3.832371E+03	7.340705E-17	2.670361E-18
3.842325E+03	7.819975E-17	2.842481E-18
3.852280E+03	8.325016E-17	3.023682E-18
3.862234E+03	8.849271E-17	3.211559E-18
3.872188E+03	9.384041E-17	3.402940E-18
3.882142E+03	9.918272E-17	3.593809E-18
3.892096E+03	1.043885E-16	3.779418E-18
3.902051E+03	1.093119E-16	3.954502E-18
3.912005E+03	1.137976E-16	4.113466E-18
3.921959E+03	1.176940E-16	4.250878E-18
3.931913E+03	1.208639E-16	4.361830E-18
3.941867E+03	1.231919E-16	4.442228E-18
3.951822E+03	1.246034E-16	4.489460E-18
3.961776E+03	1.250625E-16	4.502308E-18
3.971730E+03	1.245798E-16	4.481243E-18
3.981684E+03	1.232117E-16	4.428371E-18
3.991638E+03	1.210512E-16	4.347117E-18
4.001593E+03	1.182246E-16	4.242083E-18
4.011547E+03	1.148755E-16	4.118471E-18
4.021501E+03	1.111551E-16	3.981753E-18
4.031455E+03	1.072117E-16	3.837269E-18
4.041410E+03	1.031854E-16	3.690050E-18
4.051364E+03	9.919769E-17	3.544443E-18
4.061318E+03	9.534958E-17	3.404055E-18
4.071272E+03	9.172080E-17	3.271716E-18
4.081226E+03	8.837011E-17	3.149504E-18
4.091181E+03	8.533807E-17	3.038835E-18
4.101135E+03	8.264706E-17	2.940480E-18
4.111089E+03	8.030722E-17	2.854768E-18
4.121043E+03	7.831699E-17	2.781610E-18
4.130997E+03	7.666618E-17	2.720615E-18
4.140952E+03	7.533845E-17	2.671172E-18
4.150906E+03	7.431298E-17	2.632512E-18
4.160860E+03	7.356670E-17	2.603794E-18
4.170814E+03	7.307289E-17	2.584045E-18
4.180768E+03	7.280597E-17	2.572338E-18
4.190723E+03	7.274060E-17	2.567759E-18
4.200677E+03	7.285016E-17	2.569349E-18
4.210631E+03	7.311117E-17	2.576264E-18
4.220585E+03	7.350035E-17	2.587671E-18
4.230540E+03	7.399751E-17	2.602848E-18
4.240494E+03	7.458294E-17	2.621092E-18
4.250448E+03	7.523857E-17	2.641760E-18
4.260402E+03	7.594962E-17	2.664327E-18
4.270356E+03	7.669927E-17	2.688197E-18
4.280311E+03	7.747472E-17	2.712920E-18
4.290265E+03	7.826185E-17	2.737999E-18
4.300219E+03	7.904744E-17	2.762971E-18
4.310173E+03	7.981816E-17	2.787370E-18
4.320127E+03	8.056309E-17	2.810817E-18
4.330082E+03	8.127267E-17	2.832980E-18
4.340036E+03	8.194031E-17	2.853635E-18
4.349990E+03	8.256814E-17	2.872859E-18
4.359944E+03	8.316461E-17	2.890949E-18
4.369898E+03	8.375250E-17	2.908701E-18
4.379853E+03	8.436700E-17	2.927336E-18
4.389807E+03	8.505732E-17	2.948557E-18
4.399761E+03	8.587871E-17	2.974271E-18
4.409715E+03	8.689243E-17	3.006584E-18
4.419670E+03	8.815523E-17	3.047441E-18
4.429624E+03	8.971773E-17	3.098565E-18
4.439578E+03	9.162358E-17	3.161434E-18
4.449532E+03	9.390246E-17	3.237037E-18
4.459486E+03	9.657154E-17	3.325931E-18
4.469441E+03	9.963329E-17	3.428162E-18
4.479395E+03	1.030740E-16	3.543221E-18
4.489349E+03	1.068617E-16	3.669975E-18
4.499303E+03	1.109482E-16	3.806732E-18
4.509257E+03	1.152648E-16	3.951115E-18
4.519212E+03	1.197227E-16	4.100057E-18
4.529166E+03	1.242142E-16	4.249861E-18
4.539120E+03	1.286170E-16	4.396343E-18
4.549074E+03	1.327944E-16	4.534843E-18
4.559028E+03	1.365988E-16	4.660349E-18
4.568983E+03	1.398861E-16	4.767983E-18
4.578937E+03	1.425120E-16	4.852886E-18
4.588891E+03	1.443531E-16	4.910923E-18
4.598845E+03	1.453095E-16	4.938773E-18
4.608800E+03	1.453127E-16	4.934201E-18
4.618754E+03	1.443358E-16	4.896379E-18
4.628708E+03	1.423925E-16	4.825873E-18
4.638662E+03	1.395460E-16	4.724916E-18
4.648616E+03	1.358936E-16	4.596883E-18
4.658571E+03	1.315717E-16	4.446462E-18
4.668525E+03	1.267377E-16	4.279036E-18
4.678479E+03	1.215632E-16	4.100437E-18
4.688433E+03	1.162181E-16	3.916426E-18
4.698387E+03	1.108656E-16	3.732511E-18
4.708342E+03	1.056490E-16	3.553517E-18
4.718296E+03	1.006920E-16	3.383582E-18
4.728250E+03	9.608890E-17	3.225850E-18
4.738204E+03	9.191173E-17	3.082700E-18
4.748158E+03	8.820827E-17	2.955694E-18
4.758113E+03	8.500512E-17	2.845676E-18
4.768067E+03	8.231381E-17	2.752985E-18
4.778021E+03	8.013097E-17	2.677459E-18
4.787975E+03	7.844340E-17	2.618609E-18
4.797930E+03	7.722967E-17	2.575673E-18
4.807884E+03	7.646122E-17	2.547657E-18
4.817838E+03	7.610281E-17	2.533344E-18
4.827792E+03	7.611544E-17	2.531399E-18
4.837746E+03	7.645033E-17	2.540169E-18
4.847701E+03	7.705696E-17	2.557945E-18
4.857655E+03	7.787704E-17	2.582771E-18
4.867609E+03	7.884969E-17	2.612609E-18
4.877563E+03	7.990960E-17	2.645284E-18
4.887517E+03	8.099438E-17	2.678726E-18
4.897472E+03	8.204496E-17	2.710980E-18
4.907426E+03	8.300966E-17	2.740346E-18
4.917380E+03	8.385000E-17	2.765561E-18
4.927334E+03	8.454027E-17	2.785791E-18
4.937288E+03	8.507255E-17	2.800789E-18
4.947243E+03	8.545200E-17	2.810739E-18
4.957197E+03	8.570132E-17	2.816402E-18
4.967151E+03	8.585070E-17	2.818781E-18
4.977105E+03	8.593992E-17	2.819189E-18
4.987060E+03	8.601019E-17	2.818984E-18
4.997014E+03	8.610350E-17	2.819542E-18
5.006968E+03	8.625764E-17	2.822099E-18
5.016922E+03	8.650303E-17	2.827643E-18
5.026876E+03	8.686625E-17	2.837035E-18
5.036831E+03	8.736680E-17	2.850903E-18
5.046785E+03	8.801850E-17	2.869685E-18
5.056739E+03	8.882897E-17	2.893618E-18
5.066693E+03	8.980624E-17	2.922951E-18
5.076647E+03	9.095464E-17	2.957811E-18
5.086602E+03	9.227432E-17	2.998190E-18
5.096556E+03	9.377030E-17	3.044239E-18
5.106510E+03	9.544215E-17	3.095930E-18
5.116464E+03	9.728984E-17	3.153249E-18
5.126418E+03	9.931156E-17	3.216125E-18
5.136373E+03	1.015016E-16	3.284361E-18
5.146327E+03	1.038526E-16	3.357706E-18
5.156281E+03	1.063507E-16	3.435706E-18
5.166235E+03	1.089780E-16	3.517769E-18
5.176190E+03	1.117108E-16	3.603128E-18
5.186144E+03	1.145171E-16	3.690740E-18
5.196098E+03	1.173628E-16	3.779511E-18
5.206052E+03	1.202048E-16	3.868046E-18
5.216006E+03	1.229935E-16	3.954755E-18
5.225961E+03	1.256757E-16	4.037943E-18
5.235915E+03	1.281949E-16	4.115797E-18
5.245869E+03	1.304916E-16	4.186426E-18
5.255823E+03	1.325096E-16	4.248046E-18
5.265777E+03	1.341926E-16	4.298877E-18
5.275732E+03	1.354953E-16	4.337495E-18
5.285686E+03	1.363784E-16	4.362670E-18
5.295640E+03	1.368201E-16	4.373734E-18
5.305594E+03	1.368111E-16	4.370420E-18
5.315548E+03	1.363602E-16	4.353041E-18
5.325503E+03	1.354935E-16	4.322459E-18
5.335457E+03	1.342507E-16	4.279965E-18
5.345411E+03	1.326898E-16	4.227431E-18
5.355365E+03	1.308778E-16	4.167012E-18
5.365320E+03	1.288914E-16	4.101158E-18
5.375274E+03	1.268090E-16	4.032375E-18
5.385228E+03	1.247150E-16	3.963349E-18
5.395182E+03	1.226844E-16	3.896460E-18
5.405136E+03	1.207895E-16	3.833993E-18
5.415091E+03	1.190927E-16	3.777926E-18
5.425045E+03	1.176396E-16	3.729687E-18
5.434999E+03	1.164643E-16	3.690341E-18
5.444953E+03	1.155894E-16	3.660587E-18
5.454907E+03	1.150348E-16	3.641043E-18
5.464862E+03	1.148042E-16	3.631801E-18
5.474816E+03	1.148805E-16	3.632310E-18
5.484770E+03	1.152284E-16	3.641437E-18
5.494724E+03	1.157970E-16	3.657561E-18
5.504678E+03	1.165226E-16	3.678660E-18
5.514633E+03	1.173412E-16	3.702708E-18
5.524587E+03	1.181843E-16	3.727541E-18
5.534541E+03	1.189892E-16	3.751182E-18
5.544495E+03	1.197039E-16	3.771994E-18
5.554450E+03	1.202837E-16	3.788577E-18
5.564404E+03	1.206989E-16	3.799997E-18
5.574358E+03	1.209327E-16	3.805733E-18
5.584312E+03	1.209794E-16	3.805617E-18
5.594266E+03	1.208454E-16	3.799853E-18
5.604221E+03	1.205449E-16	3.788897E-18
5.614175E+03	1.200989E-16	3.773412E-18
5.624129E+03	1.195343E-16	3.754251E-18
5.634083E+03	1.188786E-16	3.732278E-18
5.644037E+03	1.181655E-16	3.708555E-18
5.653992E+03	1.174231E-16	3.683962E-18
5.663946E+03	1.166833E-16	3.659502E-18
5.673900E+03	1.159744E-16	3.636063E-18
5.683854E+03	1.153216E-16	3.614429E-18
5.693808E+03	1.147510E-16	3.595419E-18
5.703763E+03	1.142824E-16	3.579645E-18
5.713717E+03	1.139341E-16	3.567685E-18
5.723671E+03	1.137196E-16	3.559949E-18
5.733625E+03	1.136486E-16	3.556742E-18
5.743580E+03	1.137238E-16	3.558142E-18
5.753534E+03	1.139456E-16	3.564161E-18
5.763488E+03	1.143037E-16	3.574471E-18
5.773442E+03	1.147855E-16	3.588674E-18
5.783396E+03	1.153718E-16	3.606169E-18
5.793351E+03	1.160364E-16	3.626135E-18
5.803305E+03	1.167467E-16	3.647556E-18
5.813259E+03	1.174688E-16	3.669365E-18
5.823213E+03	1.181660E-16	3.690425E-18
5.833167E+03	1.187977E-16	3.709460E-18
5.843122E+03	1.193283E-16	3.725369E-18
5.853076E+03	1.197260E-16	3.737155E-18
5.863030E+03	1.199602E-16	3.743869E-18
5.872984E+03	1.200123E-16	3.744931E-18
5.882938E+03	1.198687E-16	3.739920E-18
5.892893E+03	1.195215E-16	3.728593E-18
5.902847E+03	1.189749E-16	3.711084E-18
5.912801E+03	1.182415E-16	3.687783E-18
5.922755E+03	1.173368E-16	3.659178E-18
5.932710E+03	1.162870E-16	3.626090E-18
5.942664E+03	1.151219E-16	3.589442E-18
5.952618E+03	1.138731E-16	3.550224E-18
5.962572E+03	1.125751E-16	3.509512E-18
5.972526E+03	1.112621E-16	3.468366E-18
5.982481E+03	1.099648E-16	3.427744E-18
5.992435E+03	1.087127E-16	3.388568E-18
6.002389E+03	1.075283E-16	3.351535E-18
6.012343E+03	1.064299E-16	3.317215E-18
6.022297E+03	1.054279E-16	3.285928E-18
6.032252E+03	1.045320E-16	3.257980E-18
6.042206E+03	1.037406E-16	3.233320E-18
6.052160E+03	1.030538E-16	3.211946E-18
6.062114E+03	1.024606E-16	3.193519E-18
6.072068E+03	1.019524E-16	3.177770E-18
6.082023E+03	1.015104E-16	3.164111E-18
6.091977E+03	1.011170E-16	3.151993E-18
6.101931E+03	1.007501E-16	3.140730E-18
6.111885E+03	1.003839E-16	3.129516E-18
6.121840E+03	9.999118E-17	3.117501E-18
6.131794E+03	9.954820E-17	3.103946E-18
6.141748E+03	9.903406E-17	3.088198E-18
6.151702E+03	9.843722E-17	3.069896E-18
6.161656E+03	9.776165E-17	3.049163E-18
6.171611E+03	9.703332E-17	3.026807E-18
6.181565E+03	9.629598E-17	3.004193E-18
6.191519E+03	9.560175E-17	2.982944E-18
6.201473E+03	9.501118E-17	2.964952E-18
6.211427E+03	9.457788E-17	2.951889E-18
6.221382E+03	9.434918E-17	2.945235E-18
6.231336E+03	9.436518E-17	2.946244E-18
6.241290E+03	9.465335E-17	2.955777E-18
6.251244E+03	9.523206E-17	2.974413E-18
6.261198E+03	9.610886E-17	3.002393E-18
6.271153E+03	9.728172E-17	3.039660E-18
6.281107E+03	9.874420E-17	3.086017E-18
6.291061E+03	1.004749E-16	3.140805E-18
6.301015E+03	1.024504E-16	3.203293E-18
6.310970E+03	1.046357E-16	3.272398E-18
6.320924E+03	1.069938E-16	3.346968E-18
6.330878E+03	1.094779E-16	3.425539E-18
6.340832E+03	1.120390E-16	3.506588E-18
6.350786E+03	1.146253E-16	3.588492E-18
6.360741E+03	1.171783E-16	3.669423E-18
6.370695E+03	1.196456E-16	3.747740E-18
6.380649E+03	1.219738E-16	3.821769E-18
6.390603E+03	1.241130E-16	3.889942E-18
6.400557E+03	1.260206E-16	3.950920E-18
6.410512E+03	1.276611E-16	4.003588E-18
6.420466E+03	1.290076E-16	4.047087E-18
6.430420E+03	1.300401E-16	4.080788E-18
6.440374E+03	1.307484E-16	4.104356E-18
6.450328E+03	1.311332E-16	4.117809E-18
6.460283E+03	1.311984E-16	4.121255E-18
6.470237E+03	1.309636E-16	4.115300E-18
6.480191E+03	1.304511E-16	4.100634E-18
6.490145E+03	1.296883E-16	4.078113E-18
6.500100E+03	1.287067E-16	4.048714E-18
6.510054E+03	1.275394E-16	4.013471E-18
6.520008E+03	1.262223E-16	3.973510E-18
6.529962E+03	1.247867E-16	3.929805E-18
6.539916E+03	1.232659E-16	3.883406E-18
6.549871E+03	1.216888E-16	3.835214E-18
6.559825E+03	1.200788E-16	3.785967E-18
6.569779E+03	1.184594E-16	3.736405E-18
6.579733E+03	1.168484E-16	3.687086E-18
6.589687E+03	1.152593E-16	3.638433E-18
6.599642E+03	1.137016E-16	3.590749E-18
6.609596E+03	1.121808E-16	3.544209E-18
6.619550E+03	1.106996E-16	3.498896E-18
6.629504E+03	1.092555E-16	3.454737E-18
6.639458E+03	1.078486E-16	3.411727E-18
6.649413E+03	1.064734E-16	3.369700E-18
6.659367E+03	1.051282E-16	3.328599E-18
6.669321E+03	1.038096E-16	3.288321E-18
6.679275E+03	1.025136E-16	3.248733E-18
6.689230E+03	1.012386E-16	3.209792E-18
6.699184E+03	9.998661E-17	3.171555E-18
6.709138E+03	9.875524E-17	3.133951E-18
6.719092E+03	9.754999E-17	3.097152E-18
6.729046E+03	9.637173E-17	3.061189E-18
6.739001E+03	9.522167E-17	3.026099E-18
6.748955E+03	9.410411E-17	2.992021E-18
6.758909E+03	9.302154E-17	2.959033E-18
6.768863E+03	9.197393E-17	2.927137E-18
6.778817E+03	9.096418E-17	2.896426E-18
6.788772E+03	8.999133E-17	2.866870E-18
6.798726E+03	8.905711E-17	2.838526E-18
6.808680E+03	8.815825E-17	2.811292E-18
6.818634E+03	8.729815E-17	2.785275E-18
6.828588E+03	8.647382E-17	2.760384E-18
6.838543E+03	8.568937E-17	2.736751E-18
6.848497E+03	8.494324E-17	2.714326E-18
6.858451E+03	8.423910E-17	2.693230E-18
6.868405E+03	8.357811E-17	2.673500E-18
6.878360E+03	8.296495E-17	2.655289E-18
6.888314E+03	8.240090E-17	2.638640E-18
6.898268E+03	8.189003E-17	2.623686E-18
6.908222E+03	8.143060E-17	2.610372E-18
6.918176E+03	8.102583E-17	2.598806E-18
6.928131E+03	8.067259E-17	2.588888E-18
6.938085E+03	8.036588E-17	2.580462E-18
6.948039E+03	8.010389E-17	2.573471E-18
6.957993E+03	7.987669E-17	2.567599E-18
6.967947E+03	7.967805E-17	2.562646E-18
6.977902E+03	7.949782E-17	2.558288E-18
6.987856E+03	7.932866E-17	2.554290E-18
6.997810E+03	7.916045E-17	2.550325E-18
7.007764E+03	7.898709E-17	2.546196E-18
7.017718E+03	7.879891E-17	2.541594E-18
7.027673E+03	7.859414E-17	2.536457E-18
7.037627E+03	7.836670E-17	2.530590E-18
7.047581E+03	7.811881E-17	2.524063E-18
7.057535E+03	7.784850E-17	2.516812E-18
7.067490E+03	7.756033E-17	2.508981E-18
7.077444E+03	7.725746E-17	2.500672E-18
7.087398E+03	7.694747E-17	2.492130E-18
7.097352E+03	7.663677E-17	2.483563E-18
7.107306E+03	7.632906E-17	2.475089E-18
7.117261E+03	7.603342E-17	2.467004E-18
7.127215E+03	7.575476E-17	2.459468E-18
7.137169E+03	7.549337E-17	2.452490E-18
7.147123E+03	7.525251E-17	2.446179E-18
7.157077E+03	7.503204E-17	2.440531E-18
7.167032E+03	7.482883E-17	2.435445E-18
7.176986E+03	7.464311E-17	2.430929E-18
7.186940E+03	7.446837E-17	2.426772E-18
7.196894E+03	7.430087E-17	2.422854E-18
7.206848E+03	7.413884E-17	2.419116E-18
7.216803E+03	7.397630E-17	2.415365E-18
7.226757E+03	7.381431E-17	2.411634E-18
7.236711E+03	7.364996E-17	2.407829E-18
7.246665E+03	7.348245E-17	2.403922E-18
7.256620E+03	7.330955E-17	2.399842E-18
7.266574E+03	7.313046E-17	2.395561E-18
7.276528E+03	7.294536E-17	2.391085E-18
7.286482E+03	7.275033E-17	2.386285E-18
7.296436E+03	7.254055E-17	2.381002E-18
7.306391E+03	7.231130E-17	2.375080E-18
7.316345E+03	7.205679E-17	2.368328E-18
7.326299E+03	7.177025E-17	2.360521E-18
7.336253E+03	7.144303E-17	2.351372E-18
7.346207E+03	7.106640E-17	2.340591E-18
7.356162E+03	7.063423E-17	2.327972E-18
7.366116E+03	7.013937E-17	2.313276E-18
7.376070E+03	6.958348E-17	2.296553E-18
7.386024E+03	6.896463E-17	2.277735E-18
7.395978E+03	6.829018E-17	2.257060E-18
7.405933E+03	6.757417E-17	2.234990E-18
7.415887E+03	6.683581E-17	2.212156E-18
7.425841E+03	6.609627E-17	2.189257E-18
7.435795E+03	6.538490E-17	2.167268E-18
7.445750E+03	6.473037E-17	2.147139E-18
7.455704E+03	6.416418E-17	2.129921E-18
7.465658E+03	6.371018E-17	2.116412E-18
7.475612E+03	6.338973E-17	2.107331E-18
7.485566E+03	6.321175E-17	2.102984E-18
7.495521E+03	6.317484E-17	2.103334E-18
7.505475E+03	6.327064E-17	2.108114E-18
7.515429E+03	6.348266E-17	2.116782E-18
7.525383E+03	6.379555E-17	2.128837E-18
7.535337E+03	6.418857E-17	2.143592E-18
7.545292E+03	6.464197E-17	2.160394E-18
7.555246E+03	6.513812E-17	2.178658E-18
7.565200E+03	6.565893E-17	2.197781E-18
7.575154E+03	6.618762E-17	2.217204E-18
7.585109E+03	6.670760E-17	2.236370E-18
7.595063E+03	6.720859E-17	2.254935E-18
7.605017E+03	6.767597E-17	2.272406E-18
7.614971E+03	6.810313E-17	2.288557E-18
7.624925E+03	6.847923E-17	2.303021E-18
7.634880E+03	6.880138E-17	2.315697E-18
7.644834E+03	6.906218E-17	2.326331E-18
7.654788E+03	6.926242E-17	2.334945E-18
7.664742E+03	6.939960E-17	2.341449E-18
7.674696E+03	6.947412E-17	2.345851E-18
7.684651E+03	6.948605E-17	2.348148E-18
7.694605E+03	6.944108E-17	2.348528E-18
7.704559E+03	6.934054E-17	2.347030E-18
7.714513E+03	6.918725E-17	2.343746E-18
7.724467E+03	6.898221E-17	2.338705E-18
