#wls	flux	fluxerr
1.592674E+03	2.226502E-17	5.846525E-19
1.632491E+03	2.157474E-17	5.638288E-19
1.672307E+03	2.079858E-17	5.408830E-19
1.712124E+03	1.995092E-17	5.162257E-19
1.751941E+03	1.905326E-17	4.904452E-19
1.791758E+03	1.810869E-17	4.636483E-19
1.831575E+03	1.712322E-17	4.360155E-19
1.871392E+03	1.610589E-17	4.078009E-19
1.911208E+03	1.506371E-17	3.792042E-19
1.951025E+03	1.401233E-17	3.506370E-19
1.990842E+03	1.297732E-17	3.227497E-19
2.030659E+03	1.200411E-17	2.966672E-19
2.070476E+03	1.117034E-17	2.742756E-19
2.110293E+03	1.055982E-17	2.575610E-19
2.150109E+03	1.023656E-17	2.479701E-19
2.189926E+03	1.021428E-17	2.456923E-19
2.229743E+03	1.046337E-17	2.498671E-19
2.269560E+03	1.092746E-17	2.590140E-19
2.309377E+03	1.155223E-17	2.717356E-19
2.349194E+03	1.231454E-17	2.873987E-19
2.389011E+03	1.320064E-17	3.056001E-19
2.428827E+03	1.422663E-17	3.266304E-19
2.468644E+03	1.540796E-17	3.507500E-19
2.508461E+03	1.677393E-17	3.785167E-19
2.548278E+03	1.835274E-17	4.104368E-19
2.588095E+03	2.018119E-17	4.471802E-19
2.627912E+03	2.229920E-17	4.894506E-19
2.667728E+03	2.473774E-17	5.377174E-19
2.707545E+03	2.753891E-17	5.926581E-19
2.747362E+03	3.074655E-17	6.549441E-19
2.787179E+03	3.439567E-17	7.250148E-19
2.826996E+03	3.853571E-17	8.035722E-19
2.866813E+03	4.320659E-17	8.910691E-19
2.906630E+03	4.845356E-17	9.880223E-19
2.946446E+03	5.432958E-17	1.095054E-18
2.986263E+03	6.088142E-17	1.212606E-18
2.996217E+03	6.263457E-17	1.243766E-18
3.006172E+03	6.443500E-17	1.275641E-18
3.016126E+03	6.627463E-17	1.308061E-18
3.026080E+03	6.817193E-17	1.341383E-18
3.036034E+03	7.012164E-17	1.375492E-18
3.045988E+03	7.212677E-17	1.410436E-18
3.055943E+03	7.418875E-17	1.446232E-18
3.065897E+03	7.630728E-17	1.482864E-18
3.075851E+03	7.849205E-17	1.520508E-18
3.085805E+03	8.072286E-17	1.558760E-18
3.095760E+03	8.302980E-17	1.598192E-18
3.105714E+03	8.538158E-17	1.638187E-18
3.115668E+03	8.780939E-17	1.679333E-18
3.125622E+03	9.028034E-17	1.720989E-18
3.135576E+03	9.282656E-17	1.763755E-18
3.145531E+03	9.542510E-17	1.807182E-18
3.155485E+03	9.808610E-17	1.851452E-18
3.165439E+03	1.008085E-16	1.896532E-18
3.175393E+03	1.035788E-16	1.942156E-18
3.185347E+03	1.064194E-16	1.988735E-18
3.195302E+03	1.093164E-16	2.035995E-18
3.205256E+03	1.122546E-16	2.083642E-18
3.215210E+03	1.152699E-16	2.132331E-18
3.225164E+03	1.183205E-16	2.181278E-18
3.235118E+03	1.214291E-16	2.230893E-18
3.245073E+03	1.245785E-16	2.280848E-18
3.255027E+03	1.277780E-16	2.331307E-18
3.264981E+03	1.310231E-16	2.382176E-18
3.274935E+03	1.343086E-16	2.433353E-18
3.284890E+03	1.376139E-16	2.484457E-18
3.294844E+03	1.409617E-16	2.535893E-18
3.304798E+03	1.443151E-16	2.586993E-18
3.314752E+03	1.476963E-16	2.638150E-18
3.324706E+03	1.510971E-16	2.689213E-18
3.334661E+03	1.544775E-16	2.739471E-18
3.344615E+03	1.578741E-16	2.789575E-18
3.354569E+03	1.612456E-16	2.838791E-18
3.364523E+03	1.645964E-16	2.887206E-18
3.374477E+03	1.679149E-16	2.934621E-18
3.384432E+03	1.711891E-16	2.980832E-18
3.394386E+03	1.744226E-16	3.025912E-18
3.404340E+03	1.775864E-16	3.069369E-18
3.414294E+03	1.806673E-16	3.110988E-18
3.424248E+03	1.836685E-16	3.150842E-18
3.434203E+03	1.865769E-16	3.188724E-18
3.444157E+03	1.893795E-16	3.224432E-18
3.454111E+03	1.920639E-16	3.257778E-18
3.464065E+03	1.946347E-16	3.288863E-18
3.474020E+03	1.970643E-16	3.317245E-18
3.483974E+03	1.993427E-16	3.342786E-18
3.493928E+03	2.014774E-16	3.365643E-18
3.503882E+03	2.034610E-16	3.385720E-18
3.513836E+03	2.053037E-16	3.403220E-18
3.523791E+03	2.069692E-16	3.417571E-18
3.533745E+03	2.084876E-16	3.429303E-18
3.543699E+03	2.098428E-16	3.438184E-18
3.553653E+03	2.110525E-16	3.444537E-18
3.563607E+03	2.121207E-16	3.448455E-18
3.573562E+03	2.130688E-16	3.450314E-18
3.583516E+03	2.138745E-16	3.449780E-18
3.593470E+03	2.145635E-16	3.447295E-18
3.603424E+03	2.151772E-16	3.443546E-18
3.613378E+03	2.156856E-16	3.438071E-18
3.623333E+03	2.161474E-16	3.431823E-18
3.633287E+03	2.165647E-16	3.424847E-18
3.643241E+03	2.169419E-16	3.417220E-18
3.653195E+03	2.173251E-16	3.409677E-18
3.663150E+03	2.177335E-16	3.402517E-18
3.673104E+03	2.181738E-16	3.395841E-18
3.683058E+03	2.186792E-16	3.390160E-18
3.693012E+03	2.192700E-16	3.385775E-18
3.702966E+03	2.199537E-16	3.382791E-18
3.712921E+03	2.207752E-16	3.381877E-18
3.722875E+03	2.217529E-16	3.383293E-18
3.732829E+03	2.228818E-16	3.386934E-18
3.742783E+03	2.242034E-16	3.393405E-18
3.752737E+03	2.257344E-16	3.402924E-18
3.762692E+03	2.274903E-16	3.415689E-18
3.772646E+03	2.294743E-16	3.431712E-18
3.782600E+03	2.317221E-16	3.451484E-18
3.792554E+03	2.342231E-16	3.474806E-18
3.802508E+03	2.370093E-16	3.502111E-18
3.812463E+03	2.400780E-16	3.533311E-18
3.822417E+03	2.434357E-16	3.568456E-18
3.832371E+03	2.470972E-16	3.607717E-18
3.842325E+03	2.510536E-16	3.650919E-18
3.852280E+03	2.553151E-16	3.698162E-18
3.862234E+03	2.598679E-16	3.749202E-18
3.872188E+03	2.647166E-16	3.804062E-18
3.882142E+03	2.698521E-16	3.862570E-18
3.892096E+03	2.752520E-16	3.924365E-18
3.902051E+03	2.809119E-16	3.989349E-18
3.912005E+03	2.868028E-16	4.057079E-18
3.921959E+03	2.929142E-16	4.127377E-18
3.931913E+03	2.992216E-16	4.199876E-18
3.941867E+03	3.056981E-16	4.274175E-18
3.951822E+03	3.123036E-16	4.349704E-18
3.961776E+03	3.190062E-16	4.426011E-18
3.971730E+03	3.257830E-16	4.502776E-18
3.981684E+03	3.325991E-16	4.579522E-18
3.991638E+03	3.393979E-16	4.655479E-18
4.001593E+03	3.461646E-16	4.730463E-18
4.011547E+03	3.528533E-16	4.803869E-18
4.021501E+03	3.594191E-16	4.875115E-18
4.031455E+03	3.658399E-16	4.943937E-18
4.041410E+03	3.720848E-16	5.009957E-18
4.051364E+03	3.781260E-16	5.072842E-18
4.061318E+03	3.839175E-16	5.132026E-18
4.071272E+03	3.894483E-16	5.187412E-18
4.081226E+03	3.947003E-16	5.238815E-18
4.091181E+03	3.996491E-16	5.285965E-18
4.101135E+03	4.042944E-16	5.328920E-18
4.111089E+03	4.086094E-16	5.367382E-18
4.121043E+03	4.126016E-16	5.401510E-18
4.130997E+03	4.162619E-16	5.431243E-18
4.140952E+03	4.195946E-16	5.456697E-18
4.150906E+03	4.225979E-16	5.477901E-18
4.160860E+03	4.252923E-16	5.495179E-18
4.170814E+03	4.276726E-16	5.508514E-18
4.180768E+03	4.297558E-16	5.518177E-18
4.190723E+03	4.315616E-16	5.524467E-18
4.200677E+03	4.331031E-16	5.527596E-18
4.210631E+03	4.344147E-16	5.528043E-18
4.220585E+03	4.354974E-16	5.525857E-18
4.230540E+03	4.363914E-16	5.521582E-18
4.240494E+03	4.371305E-16	5.515677E-18
4.250448E+03	4.377269E-16	5.508321E-18
4.260402E+03	4.382390E-16	5.500267E-18
4.270356E+03	4.387034E-16	5.491996E-18
4.280311E+03	4.391535E-16	5.483935E-18
4.290265E+03	4.396436E-16	5.476773E-18
4.300219E+03	4.402327E-16	5.471247E-18
4.310173E+03	4.409763E-16	5.468048E-18
4.320127E+03	4.419264E-16	5.467813E-18
4.330082E+03	4.431602E-16	5.471492E-18
4.340036E+03	4.447397E-16	5.479836E-18
4.349990E+03	4.467220E-16	5.493534E-18
4.359944E+03	4.491551E-16	5.513161E-18
4.369898E+03	4.520713E-16	5.539095E-18
4.379853E+03	4.554915E-16	5.571580E-18
4.389807E+03	4.594166E-16	5.610612E-18
4.399761E+03	4.638159E-16	5.655809E-18
4.409715E+03	4.686537E-16	5.706731E-18
4.419670E+03	4.739009E-16	5.763028E-18
4.429624E+03	4.795029E-16	5.824038E-18
4.439578E+03	4.854252E-16	5.889342E-18
4.449532E+03	4.916116E-16	5.958258E-18
4.459486E+03	4.980283E-16	6.030380E-18
4.469441E+03	5.046281E-16	6.105139E-18
4.479395E+03	5.113860E-16	6.182243E-18
4.489349E+03	5.182416E-16	6.260968E-18
4.499303E+03	5.251709E-16	6.341034E-18
4.509257E+03	5.321354E-16	6.421988E-18
4.519212E+03	5.390887E-16	6.503280E-18
4.529166E+03	5.459986E-16	6.584531E-18
4.539120E+03	5.528245E-16	6.665263E-18
4.549074E+03	5.595248E-16	6.744983E-18
4.559028E+03	5.660490E-16	6.823092E-18
4.568983E+03	5.723682E-16	6.899247E-18
4.578937E+03	5.784292E-16	6.972813E-18
4.588891E+03	5.841855E-16	7.043233E-18
4.598845E+03	5.895896E-16	7.109935E-18
4.608800E+03	5.946009E-16	7.172428E-18
4.618754E+03	5.991713E-16	7.230126E-18
4.628708E+03	6.032455E-16	7.282357E-18
4.638662E+03	6.067852E-16	7.328648E-18
4.648616E+03	6.097398E-16	7.368371E-18
4.658571E+03	6.120787E-16	7.401139E-18
4.668525E+03	6.137702E-16	7.426550E-18
4.678479E+03	6.147852E-16	7.444223E-18
4.688433E+03	6.151143E-16	7.454018E-18
4.698387E+03	6.147646E-16	7.455990E-18
4.708342E+03	6.137531E-16	7.450310E-18
4.718296E+03	6.121304E-16	7.437559E-18
4.728250E+03	6.099494E-16	7.418343E-18
4.738204E+03	6.072700E-16	7.393358E-18
4.748158E+03	6.041926E-16	7.363789E-18
4.758113E+03	6.007962E-16	7.330571E-18
4.768067E+03	5.971865E-16	7.294963E-18
4.778021E+03	5.934708E-16	7.258252E-18
4.787975E+03	5.897493E-16	7.221645E-18
4.797930E+03	5.861265E-16	7.186406E-18
4.807884E+03	5.827029E-16	7.153758E-18
4.817838E+03	5.795792E-16	7.124934E-18
4.827792E+03	5.768284E-16	7.100833E-18
4.837746E+03	5.745284E-16	7.082421E-18
4.847701E+03	5.727536E-16	7.070627E-18
4.857655E+03	5.715478E-16	7.066008E-18
4.867609E+03	5.709563E-16	7.069146E-18
4.877563E+03	5.710128E-16	7.080482E-18
4.887517E+03	5.717320E-16	7.100225E-18
4.897472E+03	5.731165E-16	7.128437E-18
4.907426E+03	5.751696E-16	7.165191E-18
4.917380E+03	5.778638E-16	7.210175E-18
4.927334E+03	5.811666E-16	7.263014E-18
4.937288E+03	5.850422E-16	7.323292E-18
4.947243E+03	5.894391E-16	7.390389E-18
4.957197E+03	5.942978E-16	7.463588E-18
4.967151E+03	5.995660E-16	7.542253E-18
4.977105E+03	6.051537E-16	7.625271E-18
4.987060E+03	6.110082E-16	7.711992E-18
4.997014E+03	6.170493E-16	7.801414E-18
5.006968E+03	6.232048E-16	7.892631E-18
5.016922E+03	6.294056E-16	7.984767E-18
5.026876E+03	6.355943E-16	8.077090E-18
5.036831E+03	6.417060E-16	8.168772E-18
5.046785E+03	6.476976E-16	8.259249E-18
5.056739E+03	6.535200E-16	8.347883E-18
5.066693E+03	6.591549E-16	8.434422E-18
5.076647E+03	6.645642E-16	8.518362E-18
5.086602E+03	6.697408E-16	8.599589E-18
5.096556E+03	6.746786E-16	8.678005E-18
5.106510E+03	6.793797E-16	8.753615E-18
5.116464E+03	6.838600E-16	8.826604E-18
5.126418E+03	6.881197E-16	8.896954E-18
5.136373E+03	6.921855E-16	8.964990E-18
5.146327E+03	6.960877E-16	9.031087E-18
5.156281E+03	6.998370E-16	9.095369E-18
5.166235E+03	7.034752E-16	9.158364E-18
5.176190E+03	7.070147E-16	9.220219E-18
5.186144E+03	7.104974E-16	9.281475E-18
5.196098E+03	7.139418E-16	9.342361E-18
5.206052E+03	7.173721E-16	9.403189E-18
5.216006E+03	7.208103E-16	9.464242E-18
5.225961E+03	7.242833E-16	9.525869E-18
5.235915E+03	7.277921E-16	9.588083E-18
5.245869E+03	7.313587E-16	9.651170E-18
5.255823E+03	7.349911E-16	9.715238E-18
5.265777E+03	7.386975E-16	9.780395E-18
5.275732E+03	7.424795E-16	9.846661E-18
5.285686E+03	7.463283E-16	9.913924E-18
5.295640E+03	7.502550E-16	9.982330E-18
5.305594E+03	7.542355E-16	1.005156E-17
5.315548E+03	7.582654E-16	1.012155E-17
5.325503E+03	7.623197E-16	1.019198E-17
5.335457E+03	7.663843E-16	1.026264E-17
5.345411E+03	7.704273E-16	1.033312E-17
5.355365E+03	7.744257E-16	1.040309E-17
5.365320E+03	7.783429E-16	1.047206E-17
5.375274E+03	7.821229E-16	1.053927E-17
5.385228E+03	7.857350E-16	1.060428E-17
5.395182E+03	7.891168E-16	1.066625E-17
5.405136E+03	7.922128E-16	1.072440E-17
5.415091E+03	7.949580E-16	1.077783E-17
5.425045E+03	7.972950E-16	1.082573E-17
5.434999E+03	7.991397E-16	1.086693E-17
5.444953E+03	8.004364E-16	1.090063E-17
5.454907E+03	8.011356E-16	1.092613E-17
5.464862E+03	8.011766E-16	1.094255E-17
5.474816E+03	8.005411E-16	1.094961E-17
5.484770E+03	7.992144E-16	1.094705E-17
5.494724E+03	7.972095E-16	1.093502E-17
5.504678E+03	7.945479E-16	1.091376E-17
5.514633E+03	7.912876E-16	1.088405E-17
5.524587E+03	7.874828E-16	1.084658E-17
5.534541E+03	7.832019E-16	1.080227E-17
5.544495E+03	7.785062E-16	1.075194E-17
5.554450E+03	7.734722E-16	1.069663E-17
5.564404E+03	7.681881E-16	1.063753E-17
5.574358E+03	7.627280E-16	1.057567E-17
5.584312E+03	7.572087E-16	1.051266E-17
5.594266E+03	7.517067E-16	1.044955E-17
5.604221E+03	7.463323E-16	1.038790E-17
5.614175E+03	7.411996E-16	1.032928E-17
5.624129E+03	7.364017E-16	1.027503E-17
5.634083E+03	7.320611E-16	1.022687E-17
5.644037E+03	7.282691E-16	1.018609E-17
5.653992E+03	7.251351E-16	1.015427E-17
5.663946E+03	7.227556E-16	1.013279E-17
5.673900E+03	7.212193E-16	1.012293E-17
5.683854E+03	7.205985E-16	1.012575E-17
5.693808E+03	7.209614E-16	1.014226E-17
5.703763E+03	7.223700E-16	1.017336E-17
5.713717E+03	7.248580E-16	1.021960E-17
5.723671E+03	7.284575E-16	1.028146E-17
5.733625E+03	7.331620E-16	1.035890E-17
5.743580E+03	7.389756E-16	1.045204E-17
5.753534E+03	7.458550E-16	1.056031E-17
5.763488E+03	7.537592E-16	1.068316E-17
5.773442E+03	7.626207E-16	1.081969E-17
5.783396E+03	7.723382E-16	1.096848E-17
5.793351E+03	7.828288E-16	1.112840E-17
5.803305E+03	7.939498E-16	1.129744E-17
5.813259E+03	8.055708E-16	1.147377E-17
5.823213E+03	8.175427E-16	1.165527E-17
5.833167E+03	8.296997E-16	1.183960E-17
5.843122E+03	8.418850E-16	1.202450E-17
5.853076E+03	8.539319E-16	1.220760E-17
5.863030E+03	8.656597E-16	1.238631E-17
5.872984E+03	8.769164E-16	1.255842E-17
5.882938E+03	8.875543E-16	1.272181E-17
5.892893E+03	8.974376E-16	1.287449E-17
5.902847E+03	9.064407E-16	1.301464E-17
5.912801E+03	9.144727E-16	1.314091E-17
5.922755E+03	9.214492E-16	1.325206E-17
5.932710E+03	9.273048E-16	1.334710E-17
5.942664E+03	9.320274E-16	1.342583E-17
5.952618E+03	9.355888E-16	1.348780E-17
5.962572E+03	9.380087E-16	1.353326E-17
5.972526E+03	9.393202E-16	1.356264E-17
5.982481E+03	9.395595E-16	1.357644E-17
5.992435E+03	9.388003E-16	1.357569E-17
6.002389E+03	9.371064E-16	1.356129E-17
6.012343E+03	9.345602E-16	1.353441E-17
6.022297E+03	9.312593E-16	1.349643E-17
6.032252E+03	9.272868E-16	1.344854E-17
6.042206E+03	9.227352E-16	1.339208E-17
6.052160E+03	9.177033E-16	1.332846E-17
6.062114E+03	9.122803E-16	1.325896E-17
6.072068E+03	9.065381E-16	1.318464E-17
6.082023E+03	9.005630E-16	1.310675E-17
6.091977E+03	8.944157E-16	1.302615E-17
6.101931E+03	8.881756E-16	1.294403E-17
6.111885E+03	8.818780E-16	1.286088E-17
6.121840E+03	8.755868E-16	1.277765E-17
6.131794E+03	8.693305E-16	1.269477E-17
6.141748E+03	8.631482E-16	1.261280E-17
6.151702E+03	8.570557E-16	1.253199E-17
6.161656E+03	8.510793E-16	1.245274E-17
6.171611E+03	8.452237E-16	1.237511E-17
6.181565E+03	8.394995E-16	1.229927E-17
6.191519E+03	8.339194E-16	1.222543E-17
6.201473E+03	8.284769E-16	1.215348E-17
6.211427E+03	8.231698E-16	1.208340E-17
6.221382E+03	8.180033E-16	1.201526E-17
6.231336E+03	8.129606E-16	1.194883E-17
6.241290E+03	8.080334E-16	1.188397E-17
6.251244E+03	8.032197E-16	1.182066E-17
6.261198E+03	7.985003E-16	1.175863E-17
6.271153E+03	7.938707E-16	1.169780E-17
6.281107E+03	7.893140E-16	1.163792E-17
6.291061E+03	7.848345E-16	1.157906E-17
6.301015E+03	7.804167E-16	1.152099E-17
6.310970E+03	7.760542E-16	1.146362E-17
6.320924E+03	7.717510E-16	1.140701E-17
6.330878E+03	7.675060E-16	1.135113E-17
6.340832E+03	7.633215E-16	1.129603E-17
6.350786E+03	7.592111E-16	1.124191E-17
6.360741E+03	7.551692E-16	1.118868E-17
6.370695E+03	7.512323E-16	1.113688E-17
6.380649E+03	7.474029E-16	1.108657E-17
6.390603E+03	7.437181E-16	1.103828E-17
6.400557E+03	7.401878E-16	1.099217E-17
6.410512E+03	7.368486E-16	1.094879E-17
6.420466E+03	7.337244E-16	1.090849E-17
6.430420E+03	7.308492E-16	1.087179E-17
6.440374E+03	7.282503E-16	1.083910E-17
6.450328E+03	7.259556E-16	1.081084E-17
6.460283E+03	7.239921E-16	1.078742E-17
6.470237E+03	7.223920E-16	1.076933E-17
6.480191E+03	7.211920E-16	1.075713E-17
6.490145E+03	7.204239E-16	1.075129E-17
6.500100E+03	7.201292E-16	1.075245E-17
6.510054E+03	7.203272E-16	1.076091E-17
6.520008E+03	7.210145E-16	1.077663E-17
6.529962E+03	7.222094E-16	1.079988E-17
6.539916E+03	7.238905E-16	1.083037E-17
6.549871E+03	7.260423E-16	1.086787E-17
6.559825E+03	7.286395E-16	1.091202E-17
6.569779E+03	7.316395E-16	1.096217E-17
6.579733E+03	7.349909E-16	1.101758E-17
6.589687E+03	7.386339E-16	1.107735E-17
6.599642E+03	7.425093E-16	1.114060E-17
6.609596E+03	7.465362E-16	1.120612E-17
6.619550E+03	7.506538E-16	1.127300E-17
6.629504E+03	7.547663E-16	1.133980E-17
6.639458E+03	7.588104E-16	1.140557E-17
6.649413E+03	7.626998E-16	1.146902E-17
6.659367E+03	7.663600E-16	1.152901E-17
6.669321E+03	7.697226E-16	1.158452E-17
6.679275E+03	7.727441E-16	1.163489E-17
6.689230E+03	7.753563E-16	1.167908E-17
6.699184E+03	7.775189E-16	1.171648E-17
6.709138E+03	7.792211E-16	1.174692E-17
6.719092E+03	7.804298E-16	1.176989E-17
6.729046E+03	7.811516E-16	1.178550E-17
6.739001E+03	7.813968E-16	1.179387E-17
6.748955E+03	7.811885E-16	1.179537E-17
6.758909E+03	7.805616E-16	1.179051E-17
6.768863E+03	7.795614E-16	1.177997E-17
6.778817E+03	7.782423E-16	1.176457E-17
6.788772E+03	7.766663E-16	1.174524E-17
6.798726E+03	7.749099E-16	1.172314E-17
6.808680E+03	7.730268E-16	1.169909E-17
6.818634E+03	7.711078E-16	1.167446E-17
6.828588E+03	7.692079E-16	1.165008E-17
6.838543E+03	7.674160E-16	1.162731E-17
6.848497E+03	7.657900E-16	1.160703E-17
6.858451E+03	7.643910E-16	1.159018E-17
6.868405E+03	7.632826E-16	1.157771E-17
6.878360E+03	7.624923E-16	1.157008E-17
6.888314E+03	7.620747E-16	1.156810E-17
6.898268E+03	7.620381E-16	1.157192E-17
6.908222E+03	7.624157E-16	1.158205E-17
6.918176E+03	7.631940E-16	1.159830E-17
6.928131E+03	7.643847E-16	1.162086E-17
6.938085E+03	7.659520E-16	1.164919E-17
6.948039E+03	7.678871E-16	1.168318E-17
6.957993E+03	7.701351E-16	1.172200E-17
6.967947E+03	7.726514E-16	1.176499E-17
6.977902E+03	7.754031E-16	1.181164E-17
6.987856E+03	7.783152E-16	1.186084E-17
6.997810E+03	7.813278E-16	1.191168E-17
7.007764E+03	7.843887E-16	1.196336E-17
7.017718E+03	7.874266E-16	1.201481E-17
7.027673E+03	7.903921E-16	1.206528E-17
7.037627E+03	7.932089E-16	1.211362E-17
7.047581E+03	7.958450E-16	1.215933E-17
7.057535E+03	7.982358E-16	1.220144E-17
7.067490E+03	8.003523E-16	1.223950E-17
7.077444E+03	8.021632E-16	1.227303E-17
7.087398E+03	8.036457E-16	1.230169E-17
7.097352E+03	8.047637E-16	1.232493E-17
7.107306E+03	8.055282E-16	1.234291E-17
7.117261E+03	8.059277E-16	1.235546E-17
7.127215E+03	8.059653E-16	1.236263E-17
7.137169E+03	8.056497E-16	1.236453E-17
7.147123E+03	8.049842E-16	1.236124E-17
7.157077E+03	8.039932E-16	1.235311E-17
7.167032E+03	8.026832E-16	1.234025E-17
7.176986E+03	8.010745E-16	1.232296E-17
7.186940E+03	7.991839E-16	1.230151E-17
7.196894E+03	7.970405E-16	1.227634E-17
7.206848E+03	7.946334E-16	1.224728E-17
7.216803E+03	7.920074E-16	1.221502E-17
7.226757E+03	7.891609E-16	1.217954E-17
7.236711E+03	7.861077E-16	1.214105E-17
7.246665E+03	7.828638E-16	1.209979E-17
7.256620E+03	7.794531E-16	1.205613E-17
7.266574E+03	7.758704E-16	1.200999E-17
7.276528E+03	7.721401E-16	1.196175E-17
7.286482E+03	7.682773E-16	1.191164E-17
7.296436E+03	7.642976E-16	1.185990E-17
7.306391E+03	7.602084E-16	1.180665E-17
7.316345E+03	7.560369E-16	1.175231E-17
7.326299E+03	7.517925E-16	1.169702E-17
7.336253E+03	7.475041E-16	1.164124E-17
7.346207E+03	7.431828E-16	1.158513E-17
7.356162E+03	7.388590E-16	1.152918E-17
7.366116E+03	7.345442E-16	1.147357E-17
7.376070E+03	7.302686E-16	1.141877E-17
7.386024E+03	7.260433E-16	1.136496E-17
7.395978E+03	7.218876E-16	1.131245E-17
7.405933E+03	7.178285E-16	1.126167E-17
7.415887E+03	7.138640E-16	1.121259E-17
7.425841E+03	7.100355E-16	1.116587E-17
7.435795E+03	7.063281E-16	1.112129E-17
7.445750E+03	7.027699E-16	1.107930E-17
7.455704E+03	6.993513E-16	1.103976E-17
7.465658E+03	6.960968E-16	1.100306E-17
7.475612E+03	6.930034E-16	1.096918E-17
7.485566E+03	6.900762E-16	1.093820E-17
7.495521E+03	6.873196E-16	1.091021E-17
7.505475E+03	6.847292E-16	1.088516E-17
7.515429E+03	6.823259E-16	1.086339E-17
7.525383E+03	6.800949E-16	1.084468E-17
7.535337E+03	6.780556E-16	1.082935E-17
7.545292E+03	6.761917E-16	1.081718E-17
7.555246E+03	6.745122E-16	1.080831E-17
7.565200E+03	6.730084E-16	1.080262E-17
7.575154E+03	6.716971E-16	1.080041E-17
7.585109E+03	6.705684E-16	1.080152E-17
7.595063E+03	6.696124E-16	1.080580E-17
7.605017E+03	6.688444E-16	1.081350E-17
7.614971E+03	6.682537E-16	1.082447E-17
7.624925E+03	6.678288E-16	1.083851E-17
7.634880E+03	6.675837E-16	1.085587E-17
7.644834E+03	6.675055E-16	1.087635E-17
7.654788E+03	6.675981E-16	1.090001E-17
7.664742E+03	6.678380E-16	1.092650E-17
7.674696E+03	6.682356E-16	1.095597E-17
7.684651E+03	6.687827E-16	1.098832E-17
7.694605E+03	6.694611E-16	1.102324E-17
7.704559E+03	6.702603E-16	1.106059E-17
7.714513E+03	6.711775E-16	1.110030E-17
7.724467E+03	6.722001E-16	1.114219E-17
