#wls	flux	fluxerr
1.585257E+03	4.745523E-18	2.733722E-19
1.624889E+03	4.787108E-18	2.746332E-19
1.664520E+03	4.817546E-18	2.752096E-19
1.704151E+03	4.838096E-18	2.751803E-19
1.743783E+03	4.848112E-18	2.745152E-19
1.783414E+03	4.843569E-18	2.729949E-19
1.823046E+03	4.823622E-18	2.705828E-19
1.862677E+03	4.782749E-18	2.669829E-19
1.902309E+03	4.717843E-18	2.620403E-19
1.941940E+03	4.626301E-18	2.556320E-19
1.981571E+03	4.509547E-18	2.478604E-19
2.021203E+03	4.376337E-18	2.392284E-19
2.060834E+03	4.249014E-18	2.309674E-19
2.100466E+03	4.158000E-18	2.247185E-19
2.140097E+03	4.131829E-18	2.219820E-19
2.179729E+03	4.187266E-18	2.235911E-19
2.219360E+03	4.318803E-18	2.291720E-19
2.258991E+03	4.505162E-18	2.375234E-19
2.298623E+03	4.722886E-18	2.473565E-19
2.338254E+03	4.952783E-18	2.576349E-19
2.377886E+03	5.183995E-18	2.677796E-19
2.417517E+03	5.409714E-18	2.774346E-19
2.457149E+03	5.630497E-18	2.866291E-19
2.496780E+03	5.847675E-18	2.954308E-19
2.536411E+03	6.062777E-18	3.039156E-19
2.576043E+03	6.279487E-18	3.122642E-19
2.615674E+03	6.500739E-18	3.206144E-19
2.655306E+03	6.730378E-18	3.291439E-19
2.694937E+03	6.970298E-18	3.379290E-19
2.734569E+03	7.223264E-18	3.470844E-19
2.774200E+03	7.494060E-18	3.568159E-19
2.813831E+03	7.783467E-18	3.671315E-19
2.853463E+03	8.096429E-18	3.782318E-19
2.893094E+03	8.434892E-18	3.901690E-19
2.932726E+03	8.801932E-18	4.030428E-19
2.972357E+03	9.203086E-18	4.170581E-19
2.982265E+03	9.309008E-18	4.207476E-19
2.992173E+03	9.416827E-18	4.244935E-19
3.002081E+03	9.526591E-18	4.282972E-19
3.011989E+03	9.639594E-18	4.322158E-19
3.021896E+03	9.756091E-18	4.362596E-19
3.031804E+03	9.874122E-18	4.403398E-19
3.041712E+03	9.995588E-18	4.445401E-19
3.051620E+03	1.012137E-17	4.488983E-19
3.061528E+03	1.025019E-17	4.533564E-19
3.071436E+03	1.038200E-17	4.579110E-19
3.081344E+03	1.051805E-17	4.626155E-19
3.091251E+03	1.065704E-17	4.674120E-19
3.101159E+03	1.079897E-17	4.722982E-19
3.111067E+03	1.094511E-17	4.773295E-19
3.120975E+03	1.109550E-17	4.825049E-19
3.130883E+03	1.124751E-17	4.877092E-19
3.140791E+03	1.140511E-17	4.931138E-19
3.150699E+03	1.156435E-17	4.985451E-19
3.160606E+03	1.172792E-17	5.041190E-19
3.170514E+03	1.189587E-17	5.098352E-19
3.180422E+03	1.206688E-17	5.156359E-19
3.190330E+03	1.224096E-17	5.215206E-19
3.200238E+03	1.241957E-17	5.275495E-19
3.210146E+03	1.260134E-17	5.336630E-19
3.220054E+03	1.278774E-17	5.399223E-19
3.229961E+03	1.297742E-17	5.462680E-19
3.239869E+03	1.317041E-17	5.527000E-19
3.249777E+03	1.336822E-17	5.592811E-19
3.259685E+03	1.357097E-17	5.660135E-19
3.269593E+03	1.377722E-17	5.728356E-19
3.279501E+03	1.398703E-17	5.797484E-19
3.289409E+03	1.420198E-17	5.868165E-19
3.299316E+03	1.442065E-17	5.939781E-19
3.309224E+03	1.464464E-17	6.012986E-19
3.319132E+03	1.487248E-17	6.087150E-19
3.329040E+03	1.510583E-17	6.162941E-19
3.338948E+03	1.534320E-17	6.239724E-19
3.348856E+03	1.558627E-17	6.318173E-19
3.358763E+03	1.583352E-17	6.397647E-19
3.368671E+03	1.608668E-17	6.478826E-19
3.378579E+03	1.634418E-17	6.561059E-19
3.388487E+03	1.660608E-17	6.644355E-19
3.398395E+03	1.687421E-17	6.729422E-19
3.408303E+03	1.714867E-17	6.816284E-19
3.418211E+03	1.742783E-17	6.904261E-19
3.428118E+03	1.771175E-17	6.993372E-19
3.438026E+03	1.800233E-17	7.084338E-19
3.447934E+03	1.829970E-17	7.177187E-19
3.457842E+03	1.860213E-17	7.271220E-19
3.467750E+03	1.890971E-17	7.366449E-19
3.477658E+03	1.922438E-17	7.463619E-19
3.487566E+03	1.954440E-17	7.562022E-19
3.497473E+03	1.987175E-17	7.662407E-19
3.507381E+03	2.020461E-17	7.764051E-19
3.517289E+03	2.054507E-17	7.867726E-19
3.527197E+03	2.089121E-17	7.972687E-19
3.537105E+03	2.124518E-17	8.079721E-19
3.547013E+03	2.160504E-17	8.188074E-19
3.556921E+03	2.197295E-17	8.298536E-19
3.566828E+03	2.234693E-17	8.410344E-19
3.576736E+03	2.272920E-17	8.524306E-19
3.586644E+03	2.311775E-17	8.639640E-19
3.596552E+03	2.351480E-17	8.757161E-19
3.606460E+03	2.391830E-17	8.876083E-19
3.616368E+03	2.432833E-17	8.996412E-19
3.626276E+03	2.474720E-17	9.118981E-19
3.636183E+03	2.517504E-17	9.243814E-19
3.646091E+03	2.560970E-17	9.370094E-19
3.655999E+03	2.605124E-17	9.497830E-19
3.665907E+03	2.650208E-17	9.627881E-19
3.675815E+03	2.695996E-17	9.759407E-19
3.685723E+03	2.742738E-17	9.893288E-19
3.695631E+03	2.790203E-17	1.002867E-18
3.705538E+03	2.838644E-17	1.016644E-18
3.715446E+03	2.887826E-17	1.030575E-18
3.725354E+03	2.937754E-17	1.044658E-18
3.735262E+03	2.988692E-17	1.058987E-18
3.745170E+03	3.040395E-17	1.073472E-18
3.755078E+03	3.093131E-17	1.088207E-18
3.764986E+03	3.146651E-17	1.103102E-18
3.774893E+03	3.201229E-17	1.118252E-18
3.784801E+03	3.256612E-17	1.133566E-18
3.794709E+03	3.312807E-17	1.149045E-18
3.804617E+03	3.370098E-17	1.164788E-18
3.814525E+03	3.428223E-17	1.180701E-18
3.824433E+03	3.487475E-17	1.196885E-18
3.834341E+03	3.547300E-17	1.213149E-18
3.844248E+03	3.608565E-17	1.229788E-18
3.854156E+03	3.670425E-17	1.246513E-18
3.864064E+03	3.733471E-17	1.263525E-18
3.873972E+03	3.797428E-17	1.280728E-18
3.883880E+03	3.862611E-17	1.298230E-18
3.893788E+03	3.928738E-17	1.315935E-18
3.903696E+03	3.995824E-17	1.333847E-18
3.913603E+03	4.064200E-17	1.352077E-18
3.923511E+03	4.133259E-17	1.370423E-18
3.933419E+03	4.203970E-17	1.389206E-18
3.943327E+03	4.275402E-17	1.408118E-18
3.953235E+03	4.348221E-17	1.427380E-18
3.963143E+03	4.422128E-17	1.446894E-18
3.973051E+03	4.497146E-17	1.466667E-18
3.982958E+03	4.573300E-17	1.486709E-18
3.992866E+03	4.650955E-17	1.507139E-18
4.002774E+03	4.729805E-17	1.527860E-18
4.012682E+03	4.809874E-17	1.548879E-18
4.022590E+03	4.891190E-17	1.570209E-18
4.032498E+03	4.973780E-17	1.591859E-18
4.042406E+03	5.058033E-17	1.613955E-18
4.052313E+03	5.143620E-17	1.636395E-18
4.062221E+03	5.230195E-17	1.659070E-18
4.072129E+03	5.318892E-17	1.682345E-18
4.082037E+03	5.408622E-17	1.705874E-18
4.091945E+03	5.499770E-17	1.729785E-18
4.101853E+03	5.592349E-17	1.754085E-18
4.111761E+03	5.686756E-17	1.778902E-18
4.121668E+03	5.782211E-17	1.803995E-18
4.131576E+03	5.879492E-17	1.829612E-18
4.141484E+03	5.978187E-17	1.855630E-18
4.151392E+03	6.077851E-17	1.881915E-18
4.161300E+03	6.179251E-17	1.908712E-18
4.171208E+03	6.281914E-17	1.935880E-18
4.181116E+03	6.385328E-17	1.963268E-18
4.191023E+03	6.490222E-17	1.991108E-18
4.200931E+03	6.596036E-17	2.019235E-18
4.210839E+03	6.702158E-17	2.047471E-18
4.220747E+03	6.809250E-17	2.076029E-18
4.230655E+03	6.916180E-17	2.104571E-18
4.240563E+03	7.023545E-17	2.133291E-18
4.250471E+03	7.130099E-17	2.161822E-18
4.260378E+03	7.235894E-17	2.190191E-18
4.270286E+03	7.340476E-17	2.218275E-18
4.280194E+03	7.443336E-17	2.245932E-18
4.290102E+03	7.543905E-17	2.273006E-18
4.300010E+03	7.641564E-17	2.299324E-18
4.309918E+03	7.735157E-17	2.324554E-18
4.319826E+03	7.824449E-17	2.348641E-18
4.329733E+03	7.908712E-17	2.371383E-18
4.339641E+03	7.987202E-17	2.392572E-18
4.349549E+03	8.058704E-17	2.411859E-18
4.359457E+03	8.124051E-17	2.429510E-18
4.369365E+03	8.182624E-17	2.445352E-18
4.379273E+03	8.235364E-17	2.459679E-18
4.389181E+03	8.282259E-17	2.472500E-18
4.399088E+03	8.324304E-17	2.484120E-18
4.408996E+03	8.361997E-17	2.494698E-18
4.418904E+03	8.395829E-17	2.504387E-18
4.428812E+03	8.425780E-17	2.513189E-18
4.438720E+03	8.452784E-17	2.521385E-18
4.448628E+03	8.476758E-17	2.528951E-18
4.458536E+03	8.498585E-17	2.536148E-18
4.468443E+03	8.518618E-17	2.543081E-18
4.478351E+03	8.536669E-17	2.549692E-18
4.488259E+03	8.553517E-17	2.556210E-18
4.498167E+03	8.568920E-17	2.562560E-18
4.508075E+03	8.583604E-17	2.568958E-18
4.517983E+03	8.597756E-17	2.575456E-18
4.527891E+03	8.611065E-17	2.581959E-18
4.537798E+03	8.624175E-17	2.588655E-18
4.547706E+03	8.636727E-17	2.595435E-18
4.557614E+03	8.649329E-17	2.602478E-18
4.567522E+03	8.661598E-17	2.609666E-18
4.577430E+03	8.673612E-17	2.617019E-18
4.587338E+03	8.685941E-17	2.624707E-18
4.597246E+03	8.698650E-17	2.632745E-18
4.607153E+03	8.711298E-17	2.640999E-18
4.617061E+03	8.724429E-17	2.649629E-18
4.626969E+03	8.737602E-17	2.658500E-18
4.636877E+03	8.750856E-17	2.667621E-18
4.646785E+03	8.764696E-17	2.677142E-18
4.656693E+03	8.778681E-17	2.686926E-18
4.666601E+03	8.793300E-17	2.697122E-18
4.676508E+03	8.808112E-17	2.707591E-18
4.686416E+03	8.823600E-17	2.718479E-18
4.696324E+03	8.838838E-17	2.729499E-18
4.706232E+03	8.855268E-17	2.741094E-18
4.716140E+03	8.871472E-17	2.752822E-18
4.726048E+03	8.888419E-17	2.764982E-18
4.735956E+03	8.906118E-17	2.777576E-18
4.745863E+03	8.924100E-17	2.790454E-18
4.755771E+03	8.942382E-17	2.803621E-18
4.765679E+03	8.960980E-17	2.817079E-18
4.775587E+03	8.980350E-17	2.830970E-18
4.785495E+03	9.000054E-17	2.845154E-18
4.795403E+03	9.020547E-17	2.859773E-18
4.805311E+03	9.041385E-17	2.874685E-18
4.815218E+03	9.062550E-17	2.889884E-18
4.825126E+03	9.084068E-17	2.905374E-18
4.835034E+03	9.106388E-17	2.921299E-18
4.844942E+03	9.129054E-17	2.937510E-18
4.854850E+03	9.152542E-17	2.954161E-18
4.864758E+03	9.176369E-17	2.971094E-18
4.874666E+03	9.200545E-17	2.988310E-18
4.884573E+03	9.225061E-17	3.005806E-18
4.894481E+03	9.250387E-17	3.023733E-18
4.904389E+03	9.276048E-17	3.041935E-18
4.914297E+03	9.302504E-17	3.060563E-18
4.924205E+03	9.328827E-17	3.079309E-18
4.934113E+03	9.356401E-17	3.098629E-18
4.944021E+03	9.383826E-17	3.118060E-18
4.953928E+03	9.412027E-17	3.137907E-18
4.963836E+03	9.440525E-17	3.158009E-18
4.973744E+03	9.469313E-17	3.178363E-18
4.983652E+03	9.498383E-17	3.198965E-18
4.993560E+03	9.528199E-17	3.219971E-18
5.003468E+03	9.558748E-17	3.241375E-18
5.013376E+03	9.589083E-17	3.262857E-18
5.023283E+03	9.620134E-17	3.284730E-18
5.033191E+03	9.651421E-17	3.306830E-18
5.043099E+03	9.683411E-17	3.329316E-18
5.053007E+03	9.715137E-17	3.351855E-18
5.062915E+03	9.747533E-17	3.374767E-18
5.072823E+03	9.780602E-17	3.398054E-18
5.082731E+03	9.813851E-17	3.421544E-18
5.092638E+03	9.847272E-17	3.445232E-18
5.102546E+03	9.880847E-17	3.469111E-18
5.112454E+03	9.915040E-17	3.493342E-18
5.122362E+03	9.949363E-17	3.517754E-18
5.132270E+03	9.983801E-17	3.542339E-18
5.142178E+03	1.001882E-16	3.567261E-18
5.152086E+03	1.005392E-16	3.592344E-18
5.161993E+03	1.008908E-16	3.617576E-18
5.171901E+03	1.012477E-16	3.643126E-18
5.181809E+03	1.016049E-16	3.668812E-18
5.191717E+03	1.019670E-16	3.694799E-18
5.201625E+03	1.023239E-16	3.720721E-18
5.211533E+03	1.026902E-16	3.747106E-18
5.221441E+03	1.030508E-16	3.773402E-18
5.231348E+03	1.034153E-16	3.799958E-18
5.241256E+03	1.037783E-16	3.826577E-18
5.251164E+03	1.041444E-16	3.853428E-18
5.261072E+03	1.045085E-16	3.880312E-18
5.270980E+03	1.048699E-16	3.907211E-18
5.280888E+03	1.052333E-16	3.934291E-18
5.290796E+03	1.055932E-16	3.961344E-18
5.300703E+03	1.059490E-16	3.988353E-18
5.310611E+03	1.063054E-16	4.015481E-18
5.320519E+03	1.066566E-16	4.042516E-18
5.330427E+03	1.070072E-16	4.069622E-18
5.340335E+03	1.073515E-16	4.096586E-18
5.350243E+03	1.076941E-16	4.123574E-18
5.360151E+03	1.080291E-16	4.150361E-18
5.370058E+03	1.083560E-16	4.176925E-18
5.379966E+03	1.086793E-16	4.203429E-18
5.389874E+03	1.089934E-16	4.229657E-18
5.399782E+03	1.093028E-16	4.255779E-18
5.409690E+03	1.096021E-16	4.281578E-18
5.419598E+03	1.098907E-16	4.307026E-18
5.429506E+03	1.101736E-16	4.332316E-18
5.439413E+03	1.104454E-16	4.357231E-18
5.449321E+03	1.107113E-16	4.381973E-18
5.459229E+03	1.109718E-16	4.406548E-18
5.469137E+03	1.112165E-16	4.430552E-18
5.479045E+03	1.114618E-16	4.454625E-18
5.488953E+03	1.116927E-16	4.478165E-18
5.498861E+03	1.119254E-16	4.501820E-18
5.508768E+03	1.121453E-16	4.524995E-18
5.518676E+03	1.123686E-16	4.548342E-18
5.528584E+03	1.125807E-16	4.571270E-18
5.538492E+03	1.127927E-16	4.594225E-18
5.548400E+03	1.130056E-16	4.617248E-18
5.558308E+03	1.132152E-16	4.640160E-18
5.568216E+03	1.134274E-16	4.663208E-18
5.578123E+03	1.136379E-16	4.686211E-18
5.588031E+03	1.138527E-16	4.709415E-18
5.597939E+03	1.140728E-16	4.732862E-18
5.607847E+03	1.142933E-16	4.756352E-18
5.617755E+03	1.145152E-16	4.779922E-18
5.627663E+03	1.147442E-16	4.803817E-18
5.637571E+03	1.149759E-16	4.827845E-18
5.647478E+03	1.152214E-16	4.852476E-18
5.657386E+03	1.154651E-16	4.877058E-18
5.667294E+03	1.157236E-16	4.902291E-18
5.677202E+03	1.159812E-16	4.927510E-18
5.687110E+03	1.162543E-16	4.953417E-18
5.697018E+03	1.165324E-16	4.979569E-18
5.706926E+03	1.168160E-16	5.005980E-18
5.716833E+03	1.171158E-16	5.033118E-18
5.726741E+03	1.174212E-16	5.060529E-18
5.736649E+03	1.177323E-16	5.088222E-18
5.746557E+03	1.180545E-16	5.116425E-18
5.756465E+03	1.183879E-16	5.145151E-18
5.766373E+03	1.187269E-16	5.174155E-18
5.776281E+03	1.190769E-16	5.203678E-18
5.786188E+03	1.194377E-16	5.233711E-18
5.796096E+03	1.198036E-16	5.264011E-18
5.806004E+03	1.201800E-16	5.294809E-18
5.815912E+03	1.205609E-16	5.325851E-18
5.825820E+03	1.209574E-16	5.357626E-18
5.835728E+03	1.213580E-16	5.389624E-18
5.845636E+03	1.217621E-16	5.421825E-18
5.855543E+03	1.221751E-16	5.454471E-18
5.865451E+03	1.225969E-16	5.487553E-18
5.875359E+03	1.230269E-16	5.521048E-18
5.885267E+03	1.234590E-16	5.554691E-18
5.895175E+03	1.238987E-16	5.588719E-18
5.905083E+03	1.243456E-16	5.623119E-18
5.914991E+03	1.247934E-16	5.657613E-18
5.924898E+03	1.252535E-16	5.692714E-18
5.934806E+03	1.257139E-16	5.727874E-18
5.944714E+03	1.261741E-16	5.763080E-18
5.954622E+03	1.266458E-16	5.798854E-18
5.964530E+03	1.271165E-16	5.834639E-18
5.974438E+03	1.275861E-16	5.870416E-18
5.984346E+03	1.280662E-16	5.906729E-18
5.994253E+03	1.285446E-16	5.943011E-18
6.004161E+03	1.290330E-16	5.979803E-18
6.014069E+03	1.295130E-16	6.016256E-18
6.023977E+03	1.300027E-16	6.053202E-18
6.033885E+03	1.304894E-16	6.090062E-18
6.043793E+03	1.309855E-16	6.127405E-18
6.053701E+03	1.314784E-16	6.164641E-18
6.063608E+03	1.319677E-16	6.201760E-18
6.073516E+03	1.324658E-16	6.239333E-18
6.083424E+03	1.329600E-16	6.276771E-18
6.093332E+03	1.334565E-16	6.314355E-18
6.103240E+03	1.339548E-16	6.352073E-18
6.113148E+03	1.344551E-16	6.389925E-18
6.123056E+03	1.349571E-16	6.427902E-18
6.132963E+03	1.354542E-16	6.465686E-18
6.142871E+03	1.359525E-16	6.503570E-18
6.152779E+03	1.364521E-16	6.541552E-18
6.162687E+03	1.369526E-16	6.579616E-18
6.172595E+03	1.374537E-16	6.617751E-18
6.182503E+03	1.379554E-16	6.655950E-18
6.192411E+03	1.384509E-16	6.693885E-18
6.202318E+03	1.389465E-16	6.731860E-18
6.212226E+03	1.394484E-16	6.770177E-18
6.222134E+03	1.399433E-16	6.808186E-18
6.232042E+03	1.404307E-16	6.845864E-18
6.241950E+03	1.409238E-16	6.883847E-18
6.251858E+03	1.414155E-16	6.921798E-18
6.261766E+03	1.418989E-16	6.959368E-18
6.271673E+03	1.423870E-16	6.997196E-18
6.281581E+03	1.428660E-16	7.034607E-18
6.291489E+03	1.433423E-16	7.071906E-18
6.301397E+03	1.438153E-16	7.109074E-18
6.311305E+03	1.442850E-16	7.146093E-18
6.321213E+03	1.447508E-16	7.182941E-18
6.331121E+03	1.452122E-16	7.219596E-18
6.341028E+03	1.456689E-16	7.256032E-18
6.350936E+03	1.461132E-16	7.291868E-18
6.360844E+03	1.465589E-16	7.327786E-18
6.370752E+03	1.469913E-16	7.363054E-18
6.380660E+03	1.474170E-16	7.397994E-18
6.390568E+03	1.478424E-16	7.432935E-18
6.400476E+03	1.482531E-16	7.467140E-18
6.410383E+03	1.486554E-16	7.500927E-18
6.420291E+03	1.490490E-16	7.534278E-18
6.430199E+03	1.494334E-16	7.567167E-18
6.440107E+03	1.498081E-16	7.599560E-18
6.450015E+03	1.501728E-16	7.631445E-18
6.459923E+03	1.505271E-16	7.662798E-18
6.469831E+03	1.508709E-16	7.693605E-18
6.479738E+03	1.512040E-16	7.723858E-18
6.489646E+03	1.515264E-16	7.753556E-18
6.499554E+03	1.518384E-16	7.782701E-18
6.509462E+03	1.521327E-16	7.810927E-18
6.519370E+03	1.524244E-16	7.839000E-18
6.529278E+03	1.527065E-16	7.866555E-18
6.539186E+03	1.529717E-16	7.893221E-18
6.549093E+03	1.532356E-16	7.919793E-18
6.559001E+03	1.534909E-16	7.945896E-18
6.568909E+03	1.537306E-16	7.971164E-18
6.578817E+03	1.539702E-16	7.996400E-18
6.588725E+03	1.542025E-16	8.021226E-18
6.598633E+03	1.544204E-16	8.045270E-18
6.608541E+03	1.546395E-16	8.069345E-18
6.618448E+03	1.548451E-16	8.092675E-18
6.628356E+03	1.550525E-16	8.116074E-18
6.638264E+03	1.552549E-16	8.139169E-18
6.648172E+03	1.554449E-16	8.161580E-18
6.658080E+03	1.556381E-16	8.184121E-18
6.667988E+03	1.558197E-16	8.206012E-18
6.677896E+03	1.560055E-16	8.228083E-18
6.687803E+03	1.561881E-16	8.249952E-18
6.697711E+03	1.563602E-16	8.271220E-18
6.707619E+03	1.565377E-16	8.292737E-18
6.717527E+03	1.567132E-16	8.314110E-18
6.727435E+03	1.568794E-16	8.334943E-18
6.737343E+03	1.570522E-16	8.356091E-18
6.747251E+03	1.572242E-16	8.377154E-18
6.757158E+03	1.573880E-16	8.397734E-18
6.767066E+03	1.575597E-16	8.418697E-18
6.776974E+03	1.577316E-16	8.439631E-18
6.786882E+03	1.579043E-16	8.460567E-18
6.796790E+03	1.580702E-16	8.481099E-18
6.806698E+03	1.582455E-16	8.502089E-18
6.816606E+03	1.584224E-16	8.523129E-18
6.826513E+03	1.586013E-16	8.544239E-18
6.836421E+03	1.587827E-16	8.565441E-18
6.846329E+03	1.589587E-16	8.586309E-18
6.856237E+03	1.591454E-16	8.607722E-18
6.866145E+03	1.593353E-16	8.629266E-18
6.876053E+03	1.595285E-16	8.650951E-18
6.885961E+03	1.597250E-16	8.672780E-18
6.895868E+03	1.599252E-16	8.694774E-18
6.905776E+03	1.601292E-16	8.716934E-18
6.915684E+03	1.603287E-16	8.738820E-18
6.925592E+03	1.605404E-16	8.761331E-18
6.935500E+03	1.607559E-16	8.784017E-18
6.945408E+03	1.609754E-16	8.806885E-18
6.955316E+03	1.611987E-16	8.829930E-18
6.965223E+03	1.614261E-16	8.853165E-18
6.975131E+03	1.616572E-16	8.876574E-18
6.985039E+03	1.618921E-16	8.900158E-18
6.994947E+03	1.621306E-16	8.923908E-18
7.004855E+03	1.623644E-16	8.947370E-18
7.014763E+03	1.626099E-16	8.971444E-18
7.024671E+03	1.628586E-16	8.995664E-18
7.034578E+03	1.631104E-16	9.020028E-18
7.044486E+03	1.633650E-16	9.044520E-18
7.054394E+03	1.636141E-16	9.068674E-18
7.064302E+03	1.638739E-16	9.093400E-18
7.074210E+03	1.641361E-16	9.118224E-18
7.084118E+03	1.643921E-16	9.142677E-18
7.094026E+03	1.646583E-16	9.167674E-18
7.103933E+03	1.649178E-16	9.192268E-18
7.113841E+03	1.651874E-16	9.217396E-18
7.123749E+03	1.654498E-16	9.242098E-18
7.133657E+03	1.657220E-16	9.267321E-18
7.143565E+03	1.659867E-16	9.292095E-18
7.153473E+03	1.662523E-16	9.316896E-18
7.163381E+03	1.665187E-16	9.341714E-18
7.173288E+03	1.667944E-16	9.367024E-18
7.183196E+03	1.670621E-16	9.391865E-18
7.193104E+03	1.673304E-16	9.416706E-18
7.203012E+03	1.675905E-16	9.441065E-18
7.212920E+03	1.678596E-16	9.465906E-18
7.222828E+03	1.681295E-16	9.490758E-18
7.232736E+03	1.683997E-16	9.515611E-18
7.242643E+03	1.686618E-16	9.539972E-18
7.252551E+03	1.689334E-16	9.564847E-18
7.262459E+03	1.691968E-16	9.589235E-18
7.272367E+03	1.694612E-16	9.613649E-18
7.282275E+03	1.697266E-16	9.638097E-18
7.292183E+03	1.699932E-16	9.662583E-18
7.302091E+03	1.702611E-16	9.687119E-18
7.311998E+03	1.705305E-16	9.711717E-18
7.321906E+03	1.707927E-16	9.735878E-18
7.331814E+03	1.710658E-16	9.760633E-18
7.341722E+03	1.713320E-16	9.784974E-18
7.351630E+03	1.716006E-16	9.809428E-18
7.361538E+03	1.718718E-16	9.834000E-18
7.371446E+03	1.721457E-16	9.858704E-18
7.381353E+03	1.724226E-16	9.883557E-18
7.391261E+03	1.726935E-16	9.908044E-18
7.401169E+03	1.729767E-16	9.933213E-18
7.411077E+03	1.732544E-16	9.958038E-18
7.420985E+03	1.735354E-16	9.983037E-18
7.430893E+03	1.738200E-16	1.000822E-17
7.440801E+03	1.741083E-16	1.003359E-17
7.450708E+03	1.743908E-16	1.005860E-17
7.460616E+03	1.746862E-16	1.008434E-17
7.470524E+03	1.749756E-16	1.010971E-17
7.480432E+03	1.752682E-16	1.013524E-17
7.490340E+03	1.755543E-16	1.016038E-17
7.500248E+03	1.758524E-16	1.018619E-17
7.510156E+03	1.761433E-16	1.021156E-17
7.520063E+03	1.764360E-16	1.023701E-17
7.529971E+03	1.767298E-16	1.026252E-17
7.539879E+03	1.770243E-16	1.028804E-17
7.549787E+03	1.773186E-16	1.031353E-17
7.559695E+03	1.776025E-16	1.033839E-17
7.569603E+03	1.778846E-16	1.036313E-17
7.579511E+03	1.781639E-16	1.038768E-17
7.589418E+03	1.784297E-16	1.041143E-17
7.599326E+03	1.787001E-16	1.043542E-17
7.609234E+03	1.789546E-16	1.045847E-17
7.619142E+03	1.792015E-16	1.048104E-17
7.629050E+03	1.794296E-16	1.050249E-17
7.638958E+03	1.796569E-16	1.052388E-17
7.648866E+03	1.798624E-16	1.054396E-17
7.658773E+03	1.800540E-16	1.056319E-17
7.668681E+03	1.802201E-16	1.058090E-17
7.678589E+03	1.803786E-16	1.059815E-17
7.688497E+03	1.805079E-16	1.061363E-17
