#wls	flux	fluxerr
1.585257E+03	3.703135E-18	1.771134E-19
1.624889E+03	3.734420E-18	1.780124E-19
1.664520E+03	3.757457E-18	1.784953E-19
1.704151E+03	3.771967E-18	1.785525E-19
1.743783E+03	3.778792E-18	1.782277E-19
1.783414E+03	3.774801E-18	1.773775E-19
1.823046E+03	3.757450E-18	1.758881E-19
1.862677E+03	3.725049E-18	1.736881E-19
1.902309E+03	3.673292E-18	1.705859E-19
1.941940E+03	3.600221E-18	1.665023E-19
1.981571E+03	3.508238E-18	1.615610E-19
2.021203E+03	3.403536E-18	1.560580E-19
2.060834E+03	3.302986E-18	1.507723E-19
2.100466E+03	3.230280E-18	1.467790E-19
2.140097E+03	3.208061E-18	1.450856E-19
2.179729E+03	3.249295E-18	1.462434E-19
2.219360E+03	3.348496E-18	1.499648E-19
2.258991E+03	3.490669E-18	1.555416E-19
2.298623E+03	3.655842E-18	1.620572E-19
2.338254E+03	3.829598E-18	1.688577E-19
2.377886E+03	4.002828E-18	1.755352E-19
2.417517E+03	4.171402E-18	1.819077E-19
2.457149E+03	4.335136E-18	1.879682E-19
2.496780E+03	4.493535E-18	1.936968E-19
2.536411E+03	4.649005E-18	1.991987E-19
2.576043E+03	4.804348E-18	2.045933E-19
2.615674E+03	4.960119E-18	2.099025E-19
2.655306E+03	5.119904E-18	2.152747E-19
2.694937E+03	5.284042E-18	2.207189E-19
2.734569E+03	5.456053E-18	2.263758E-19
2.774200E+03	5.636954E-18	2.322790E-19
2.813831E+03	5.828565E-18	2.384934E-19
2.853463E+03	6.033654E-18	2.451206E-19
2.893094E+03	6.252278E-18	2.521492E-19
2.932726E+03	6.488302E-18	2.597202E-19
2.972357E+03	6.742881E-18	2.678621E-19
2.982265E+03	6.809782E-18	2.699987E-19
2.992173E+03	6.877955E-18	2.721740E-19
3.002081E+03	6.947430E-18	2.743888E-19
3.011989E+03	7.018285E-18	2.766459E-19
3.021896E+03	7.090690E-18	2.789515E-19
3.031804E+03	7.166041E-18	2.813601E-19
3.041712E+03	7.241821E-18	2.837725E-19
3.051620E+03	7.319710E-18	2.862540E-19
3.061528E+03	7.400772E-18	2.888459E-19
3.071436E+03	7.483892E-18	2.915039E-19
3.081344E+03	7.567921E-18	2.941827E-19
3.091251E+03	7.655079E-18	2.969684E-19
3.101159E+03	7.744247E-18	2.998168E-19
3.111067E+03	7.835415E-18	3.027270E-19
3.120975E+03	7.928586E-18	3.056987E-19
3.130883E+03	8.023751E-18	3.087310E-19
3.140791E+03	8.120934E-18	3.118245E-19
3.150699E+03	8.220146E-18	3.149789E-19
3.160606E+03	8.321393E-18	3.181940E-19
3.170514E+03	8.424712E-18	3.214708E-19
3.180422E+03	8.531365E-18	3.248567E-19
3.190330E+03	8.638907E-18	3.282582E-19
3.200238E+03	8.749880E-18	3.317713E-19
3.210146E+03	8.861782E-18	3.353005E-19
3.220054E+03	8.977214E-18	3.389439E-19
3.229961E+03	9.094959E-18	3.426547E-19
3.239869E+03	9.213720E-18	3.463837E-19
3.249777E+03	9.336209E-18	3.502322E-19
3.259685E+03	9.461147E-18	3.541517E-19
3.269593E+03	9.588607E-18	3.581441E-19
3.279501E+03	9.718634E-18	3.622106E-19
3.289409E+03	9.851304E-18	3.663534E-19
3.299316E+03	9.988104E-18	3.706270E-19
3.309224E+03	1.012627E-17	3.749282E-19
3.319132E+03	1.026728E-17	3.793111E-19
3.329040E+03	1.041268E-17	3.838326E-19
3.338948E+03	1.055962E-17	3.883860E-19
3.348856E+03	1.071115E-17	3.930834E-19
3.358763E+03	1.086433E-17	3.978163E-19
3.368671E+03	1.102232E-17	4.026989E-19
3.378579E+03	1.118209E-17	4.076208E-19
3.388487E+03	1.134688E-17	4.126986E-19
3.398395E+03	1.151521E-17	4.178780E-19
3.408303E+03	1.168720E-17	4.231619E-19
3.418211E+03	1.186293E-17	4.285529E-19
3.428118E+03	1.204251E-17	4.340541E-19
3.438026E+03	1.222603E-17	4.396679E-19
3.447934E+03	1.241361E-17	4.453976E-19
3.457842E+03	1.260535E-17	4.512463E-19
3.467750E+03	1.280138E-17	4.572168E-19
3.477658E+03	1.300358E-17	4.633762E-19
3.487566E+03	1.320851E-17	4.696005E-19
3.497473E+03	1.341808E-17	4.759567E-19
3.507381E+03	1.363426E-17	4.825138E-19
3.517289E+03	1.385346E-17	4.891434E-19
3.527197E+03	1.407958E-17	4.959826E-19
3.537105E+03	1.431088E-17	5.029686E-19
3.547013E+03	1.454551E-17	5.100357E-19
3.556921E+03	1.478752E-17	5.173251E-19
3.566828E+03	1.503513E-17	5.247724E-19
3.576736E+03	1.528639E-17	5.323092E-19
3.586644E+03	1.554554E-17	5.400821E-19
3.596552E+03	1.581069E-17	5.480243E-19
3.606460E+03	1.608200E-17	5.561397E-19
3.616368E+03	1.635960E-17	5.644316E-19
3.626276E+03	1.664365E-17	5.729047E-19
3.636183E+03	1.693428E-17	5.815623E-19
3.646091E+03	1.723167E-17	5.904092E-19
3.655999E+03	1.753595E-17	5.994488E-19
3.665907E+03	1.784967E-17	6.087665E-19
3.675815E+03	1.816825E-17	6.182052E-19
3.685723E+03	1.849419E-17	6.278492E-19
3.695631E+03	1.882766E-17	6.377024E-19
3.705538E+03	1.917133E-17	6.478543E-19
3.715446E+03	1.952035E-17	6.581393E-19
3.725354E+03	1.987736E-17	6.686457E-19
3.735262E+03	2.024515E-17	6.794663E-19
3.745170E+03	2.061863E-17	6.904282E-19
3.755078E+03	2.100330E-17	7.017147E-19
3.764986E+03	2.139385E-17	7.131476E-19
3.774893E+03	2.179598E-17	7.249151E-19
3.784801E+03	2.220420E-17	7.368339E-19
3.794709E+03	2.262435E-17	7.490966E-19
3.804617E+03	2.305078E-17	7.615144E-19
3.814525E+03	2.348950E-17	7.742856E-19
3.824433E+03	2.393464E-17	7.872150E-19
3.834341E+03	2.439240E-17	8.005058E-19
3.844248E+03	2.485988E-17	8.140612E-19
3.854156E+03	2.533391E-17	8.277773E-19
3.864064E+03	2.582102E-17	8.418661E-19
3.873972E+03	2.631809E-17	8.562247E-19
3.883880E+03	2.682176E-17	8.707436E-19
3.893788E+03	2.733884E-17	8.856431E-19
3.903696E+03	2.786602E-17	9.008146E-19
3.913603E+03	2.839970E-17	9.161419E-19
3.923511E+03	2.894700E-17	9.318541E-19
3.933419E+03	2.950437E-17	9.478360E-19
3.943327E+03	3.007175E-17	9.640854E-19
3.953235E+03	3.064524E-17	9.804774E-19
3.963143E+03	3.123233E-17	9.972519E-19
3.973051E+03	3.182916E-17	1.014284E-18
3.982958E+03	3.243555E-17	1.031570E-18
3.992866E+03	3.304721E-17	1.048973E-18
4.002774E+03	3.367209E-17	1.066745E-18
4.012682E+03	3.430589E-17	1.084751E-18
4.022590E+03	3.494401E-17	1.102846E-18
4.032498E+03	3.559470E-17	1.121292E-18
4.042406E+03	3.625337E-17	1.139945E-18
4.052313E+03	3.691509E-17	1.158650E-18
4.062221E+03	3.758842E-17	1.177678E-18
4.072129E+03	3.826843E-17	1.196876E-18
4.082037E+03	3.894986E-17	1.216081E-18
4.091945E+03	3.964160E-17	1.235572E-18
4.101853E+03	4.033346E-17	1.255035E-18
4.111761E+03	4.103457E-17	1.274754E-18
4.121668E+03	4.173436E-17	1.294405E-18
4.131576E+03	4.244216E-17	1.314280E-18
4.141484E+03	4.314706E-17	1.334042E-18
4.151392E+03	4.385861E-17	1.353992E-18
4.161300E+03	4.456550E-17	1.373781E-18
4.171208E+03	4.527754E-17	1.393717E-18
4.181116E+03	4.598305E-17	1.413444E-18
4.191023E+03	4.668649E-17	1.433101E-18
4.200931E+03	4.738694E-17	1.452666E-18
4.210839E+03	4.808915E-17	1.472287E-18
4.220747E+03	4.878075E-17	1.491590E-18
4.230655E+03	4.946638E-17	1.510722E-18
4.240563E+03	5.014501E-17	1.529655E-18
4.250471E+03	5.081556E-17	1.548361E-18
4.260378E+03	5.147697E-17	1.566812E-18
4.270286E+03	5.212814E-17	1.584980E-18
4.280194E+03	5.276799E-17	1.602837E-18
4.290102E+03	5.339550E-17	1.620357E-18
4.300010E+03	5.400973E-17	1.637515E-18
4.309918E+03	5.460994E-17	1.654296E-18
4.319826E+03	5.518924E-17	1.670494E-18
4.329733E+03	5.576046E-17	1.686503E-18
4.339641E+03	5.631784E-17	1.702154E-18
4.349549E+03	5.685599E-17	1.717289E-18
4.359457E+03	5.738764E-17	1.732296E-18
4.369365E+03	5.789739E-17	1.746716E-18
4.379273E+03	5.839031E-17	1.760705E-18
4.389181E+03	5.887225E-17	1.774444E-18
4.399088E+03	5.932912E-17	1.787513E-18
4.408996E+03	5.976750E-17	1.800115E-18
4.418904E+03	6.018744E-17	1.812254E-18
4.428812E+03	6.058913E-17	1.823941E-18
4.438720E+03	6.097289E-17	1.835188E-18
4.448628E+03	6.133907E-17	1.846009E-18
4.458536E+03	6.168812E-17	1.856418E-18
4.468443E+03	6.202049E-17	1.866431E-18
4.478351E+03	6.232957E-17	1.875847E-18
4.488259E+03	6.263010E-17	1.885111E-18
4.498167E+03	6.291553E-17	1.894027E-18
4.508075E+03	6.317934E-17	1.902397E-18
4.517983E+03	6.342927E-17	1.910454E-18
4.527891E+03	6.367318E-17	1.918435E-18
4.537798E+03	6.389739E-17	1.925927E-18
4.547706E+03	6.410980E-17	1.933167E-18
4.557614E+03	6.431118E-17	1.940177E-18
4.567522E+03	6.450227E-17	1.946979E-18
4.577430E+03	6.468387E-17	1.953596E-18
4.587338E+03	6.485678E-17	1.960050E-18
4.597246E+03	6.502180E-17	1.966367E-18
4.607153E+03	6.517248E-17	1.972347E-18
4.617061E+03	6.532419E-17	1.978456E-18
4.626969E+03	6.546319E-17	1.984276E-18
4.636877E+03	6.560487E-17	1.990272E-18
4.646785E+03	6.573548E-17	1.996026E-18
4.656693E+03	6.586310E-17	2.001782E-18
4.666601E+03	6.598853E-17	2.007563E-18
4.676508E+03	6.611257E-17	2.013391E-18
4.686416E+03	6.623598E-17	2.019290E-18
4.696324E+03	6.635953E-17	2.025281E-18
4.706232E+03	6.647662E-17	2.031162E-18
4.716140E+03	6.660264E-17	2.037402E-18
4.726048E+03	6.673096E-17	2.043797E-18
4.735956E+03	6.685492E-17	2.050143E-18
4.745863E+03	6.698253E-17	2.056684E-18
4.755771E+03	6.711443E-17	2.063440E-18
4.765679E+03	6.725860E-17	2.070654E-18
4.775587E+03	6.740094E-17	2.077894E-18
4.785495E+03	6.754200E-17	2.085174E-18
4.795403E+03	6.769710E-17	2.092968E-18
4.805311E+03	6.785939E-17	2.101064E-18
4.815218E+03	6.802942E-17	2.109479E-18
4.825126E+03	6.820027E-17	2.117998E-18
4.835034E+03	6.837981E-17	2.126866E-18
4.844942E+03	6.857594E-17	2.136329E-18
4.854850E+03	6.877424E-17	2.145938E-18
4.864758E+03	6.898256E-17	2.155938E-18
4.874666E+03	6.920131E-17	2.166342E-18
4.884573E+03	6.943088E-17	2.177165E-18
4.894481E+03	6.967163E-17	2.188416E-18
4.904389E+03	6.991639E-17	2.199874E-18
4.914297E+03	7.018053E-17	2.212020E-18
4.924205E+03	7.044929E-17	2.224393E-18
4.934113E+03	7.073048E-17	2.237238E-18
4.944021E+03	7.103202E-17	2.250808E-18
4.953928E+03	7.133894E-17	2.264632E-18
4.963836E+03	7.165907E-17	2.278957E-18
4.973744E+03	7.199265E-17	2.293793E-18
4.983652E+03	7.233214E-17	2.308902E-18
4.993560E+03	7.269315E-17	2.324782E-18
5.003468E+03	7.306815E-17	2.341196E-18
5.013376E+03	7.344946E-17	2.357899E-18
5.023283E+03	7.384494E-17	2.375145E-18
5.033191E+03	7.426257E-17	2.393193E-18
5.043099E+03	7.468667E-17	2.411539E-18
5.053007E+03	7.512513E-17	2.430440E-18
5.062915E+03	7.557797E-17	2.449899E-18
5.072823E+03	7.604516E-17	2.469916E-18
5.082731E+03	7.651854E-17	2.490229E-18
5.092638E+03	7.701419E-17	2.511362E-18
5.102546E+03	7.751572E-17	2.532784E-18
5.112454E+03	7.803933E-17	2.555025E-18
5.122362E+03	7.856834E-17	2.577543E-18
5.132270E+03	7.911072E-17	2.600599E-18
5.142178E+03	7.966615E-17	2.624186E-18
5.152086E+03	8.023427E-17	2.648293E-18
5.161993E+03	8.081470E-17	2.672910E-18
5.171901E+03	8.139839E-17	2.697739E-18
5.181809E+03	8.200189E-17	2.723330E-18
5.191717E+03	8.261610E-17	2.749383E-18
5.201625E+03	8.323162E-17	2.775587E-18
5.211533E+03	8.385630E-17	2.802203E-18
5.221441E+03	8.448940E-17	2.829208E-18
5.231348E+03	8.512999E-17	2.856573E-18
5.241256E+03	8.577710E-17	2.884264E-18
5.251164E+03	8.642957E-17	2.912245E-18
5.261072E+03	8.708641E-17	2.940481E-18
5.270980E+03	8.774620E-17	2.968927E-18
5.280888E+03	8.839843E-17	2.997224E-18
5.290796E+03	8.906008E-17	3.025947E-18
5.300703E+03	8.971102E-17	3.054414E-18
5.310611E+03	9.035888E-17	3.082880E-18
5.320519E+03	9.100196E-17	3.111287E-18
5.330427E+03	9.163828E-17	3.139564E-18
5.340335E+03	9.226610E-17	3.167652E-18
5.350243E+03	9.288327E-17	3.195471E-18
5.360151E+03	9.348786E-17	3.222953E-18
5.370058E+03	9.406788E-17	3.249681E-18
5.379966E+03	9.464089E-17	3.276257E-18
5.389874E+03	9.518507E-17	3.301920E-18
5.399782E+03	9.570817E-17	3.326933E-18
5.409690E+03	9.620846E-17	3.351232E-18
5.419598E+03	9.669418E-17	3.375098E-18
5.429506E+03	9.714395E-17	3.397779E-18
5.439413E+03	9.755651E-17	3.419222E-18
5.449321E+03	9.795151E-17	3.440109E-18
5.459229E+03	9.831896E-17	3.460084E-18
5.469137E+03	9.865935E-17	3.479157E-18
5.479045E+03	9.896341E-17	3.496994E-18
5.488953E+03	9.924258E-17	3.513991E-18
5.498861E+03	9.950856E-17	3.530559E-18
5.508768E+03	9.974246E-17	3.546020E-18
5.518676E+03	9.995623E-17	3.560794E-18
5.528584E+03	1.001517E-16	3.574941E-18
5.538492E+03	1.003309E-16	3.588528E-18
5.548400E+03	1.004957E-16	3.601618E-18
5.558308E+03	1.006479E-16	3.614274E-18
5.568216E+03	1.007790E-16	3.626185E-18
5.578123E+03	1.009117E-16	3.638165E-18
5.588031E+03	1.010271E-16	3.649526E-18
5.597939E+03	1.011475E-16	3.661081E-18
5.607847E+03	1.012539E-16	3.672133E-18
5.617755E+03	1.013585E-16	3.683121E-18
5.627663E+03	1.014731E-16	3.694481E-18
5.637571E+03	1.015785E-16	3.705507E-18
5.647478E+03	1.016864E-16	3.716628E-18
5.657386E+03	1.017879E-16	3.727518E-18
5.667294E+03	1.019052E-16	3.738987E-18
5.677202E+03	1.020289E-16	3.750697E-18
5.687110E+03	1.021605E-16	3.762699E-18
5.697018E+03	1.022905E-16	3.774644E-18
5.706926E+03	1.024409E-16	3.787349E-18
5.716833E+03	1.025917E-16	3.800073E-18
5.726741E+03	1.027545E-16	3.813247E-18
5.736649E+03	1.029407E-16	3.827297E-18
5.746557E+03	1.031301E-16	3.841473E-18
5.756465E+03	1.033340E-16	3.856198E-18
5.766373E+03	1.035532E-16	3.871507E-18
5.776281E+03	1.037883E-16	3.887425E-18
5.786188E+03	1.040402E-16	3.903984E-18
5.796096E+03	1.042986E-16	3.920803E-18
5.806004E+03	1.045857E-16	3.938721E-18
5.815912E+03	1.048913E-16	3.957355E-18
5.825820E+03	1.052052E-16	3.976320E-18
5.835728E+03	1.055494E-16	3.996457E-18
5.845636E+03	1.059026E-16	4.016963E-18
5.855543E+03	1.062764E-16	4.038272E-18
5.865451E+03	1.066819E-16	4.060819E-18
5.875359E+03	1.070976E-16	4.083787E-18
5.885267E+03	1.075349E-16	4.107611E-18
5.895175E+03	1.079941E-16	4.132307E-18
5.905083E+03	1.084754E-16	4.157890E-18
5.914991E+03	1.089791E-16	4.184372E-18
5.924898E+03	1.095055E-16	4.211770E-18
5.934806E+03	1.100548E-16	4.240092E-18
5.944714E+03	1.106158E-16	4.268914E-18
5.954622E+03	1.112113E-16	4.299118E-18
5.964530E+03	1.118302E-16	4.330280E-18
5.974438E+03	1.124610E-16	4.361958E-18
5.984346E+03	1.131269E-16	4.395052E-18
5.994253E+03	1.138047E-16	4.428668E-18
6.004161E+03	1.145177E-16	4.463716E-18
6.014069E+03	1.152423E-16	4.499283E-18
6.023977E+03	1.159903E-16	4.535827E-18
6.033885E+03	1.167615E-16	4.573347E-18
6.043793E+03	1.175558E-16	4.611840E-18
6.053701E+03	1.183850E-16	4.651778E-18
6.063608E+03	1.192247E-16	4.692201E-18
6.073516E+03	1.200866E-16	4.733577E-18
6.083424E+03	1.209580E-16	4.775404E-18
6.093332E+03	1.218631E-16	4.818640E-18
6.103240E+03	1.227891E-16	4.862787E-18
6.113148E+03	1.237355E-16	4.907823E-18
6.123056E+03	1.247016E-16	4.953727E-18
6.132963E+03	1.256736E-16	4.999952E-18
6.142871E+03	1.266766E-16	5.047498E-18
6.152779E+03	1.276836E-16	5.095293E-18
6.162687E+03	1.287197E-16	5.144341E-18
6.172595E+03	1.297575E-16	5.193546E-18
6.182503E+03	1.308223E-16	5.243924E-18
6.192411E+03	1.318859E-16	5.294344E-18
6.202318E+03	1.329601E-16	5.345285E-18
6.212226E+03	1.340571E-16	5.397235E-18
6.222134E+03	1.351475E-16	5.449016E-18
6.232042E+03	1.362432E-16	5.501099E-18
6.241950E+03	1.373418E-16	5.553396E-18
6.251858E+03	1.384413E-16	5.605817E-18
6.261766E+03	1.395390E-16	5.658256E-18
6.271673E+03	1.406322E-16	5.710606E-18
6.281581E+03	1.417182E-16	5.762748E-18
6.291489E+03	1.427936E-16	5.814548E-18
6.301397E+03	1.438553E-16	5.865872E-18
6.311305E+03	1.448995E-16	5.916565E-18
6.321213E+03	1.459225E-16	5.966474E-18
6.331121E+03	1.469050E-16	6.014798E-18
6.341028E+03	1.478728E-16	6.062593E-18
6.350936E+03	1.488062E-16	6.109043E-18
6.360844E+03	1.496849E-16	6.153311E-18
6.370752E+03	1.505345E-16	6.196439E-18
6.380660E+03	1.513340E-16	6.237558E-18
6.390568E+03	1.520622E-16	6.275782E-18
6.400476E+03	1.527445E-16	6.312148E-18
6.410383E+03	1.533435E-16	6.345105E-18
6.420291E+03	1.538689E-16	6.375035E-18
6.430199E+03	1.543311E-16	6.402366E-18
6.440107E+03	1.546932E-16	6.425545E-18
6.450015E+03	1.549666E-16	6.445039E-18
6.459923E+03	1.551646E-16	6.461382E-18
6.469831E+03	1.552533E-16	6.473152E-18
6.479738E+03	1.552486E-16	6.480996E-18
6.489646E+03	1.551513E-16	6.484926E-18
6.499554E+03	1.549635E-16	6.485028E-18
6.509462E+03	1.547053E-16	6.482117E-18
6.519370E+03	1.543487E-16	6.475020E-18
6.529278E+03	1.539154E-16	6.464623E-18
6.539186E+03	1.534108E-16	6.451150E-18
6.549093E+03	1.528407E-16	6.434831E-18
6.559001E+03	1.522108E-16	6.415897E-18
6.568909E+03	1.515108E-16	6.393907E-18
6.578817E+03	1.507779E-16	6.370417E-18
6.588725E+03	1.500012E-16	6.344970E-18
6.598633E+03	1.491856E-16	6.317764E-18
6.608541E+03	1.483359E-16	6.288994E-18
6.618448E+03	1.474410E-16	6.258189E-18
6.628356E+03	1.465358E-16	6.226823E-18
6.638264E+03	1.456088E-16	6.194410E-18
6.648172E+03	1.446637E-16	6.161103E-18
6.658080E+03	1.436888E-16	6.126399E-18
6.667988E+03	1.427175E-16	6.091720E-18
6.677896E+03	1.417226E-16	6.055911E-18
6.687803E+03	1.407369E-16	6.020370E-18
6.697711E+03	1.397334E-16	5.983940E-18
6.707619E+03	1.387438E-16	5.947980E-18
6.717527E+03	1.377411E-16	5.911334E-18
6.727435E+03	1.367566E-16	5.875341E-18
6.737343E+03	1.357633E-16	5.838853E-18
6.747251E+03	1.347914E-16	5.803165E-18
6.757158E+03	1.338145E-16	5.767139E-18
6.767066E+03	1.328480E-16	5.731446E-18
6.776974E+03	1.319075E-16	5.696755E-18
6.786882E+03	1.309661E-16	5.661915E-18
6.796790E+03	1.300392E-16	5.627590E-18
6.806698E+03	1.291277E-16	5.593818E-18
6.816606E+03	1.282327E-16	5.560654E-18
6.826513E+03	1.273684E-16	5.528714E-18
6.836421E+03	1.265089E-16	5.496876E-18
6.846329E+03	1.256682E-16	5.465757E-18
6.856237E+03	1.248470E-16	5.435386E-18
6.866145E+03	1.240459E-16	5.405796E-18
6.876053E+03	1.232655E-16	5.377007E-18
6.885961E+03	1.225062E-16	5.349054E-18
6.895868E+03	1.217686E-16	5.321952E-18
6.905776E+03	1.210529E-16	5.295721E-18
6.915684E+03	1.203595E-16	5.270383E-18
6.925592E+03	1.196761E-16	5.245401E-18
6.935500E+03	1.190283E-16	5.221895E-18
6.945408E+03	1.184035E-16	5.199325E-18
6.955316E+03	1.178021E-16	5.177703E-18
6.965223E+03	1.172241E-16	5.157041E-18
6.975131E+03	1.166575E-16	5.136806E-18
6.985039E+03	1.161270E-16	5.118093E-18
6.994947E+03	1.156204E-16	5.100370E-18
7.004855E+03	1.151255E-16	5.083098E-18
7.014763E+03	1.146669E-16	5.067372E-18
7.024671E+03	1.142204E-16	5.052117E-18
7.034578E+03	1.138103E-16	5.038416E-18
7.044486E+03	1.134244E-16	5.025731E-18
7.054394E+03	1.130507E-16	5.013540E-18
7.064302E+03	1.127014E-16	5.002377E-18
7.074210E+03	1.123885E-16	4.992781E-18
7.084118E+03	1.120879E-16	4.983691E-18
7.094026E+03	1.118238E-16	4.976176E-18
7.103933E+03	1.115722E-16	4.969178E-18
7.113841E+03	1.113450E-16	4.963228E-18
7.123749E+03	1.111423E-16	4.958334E-18
7.133657E+03	1.109759E-16	4.955025E-18
7.143565E+03	1.108222E-16	4.952248E-18
7.153473E+03	1.106930E-16	4.950536E-18
7.163381E+03	1.105882E-16	4.949891E-18
7.173288E+03	1.105081E-16	4.950320E-18
7.183196E+03	1.104525E-16	4.951824E-18
7.193104E+03	1.104215E-16	4.954406E-18
7.203012E+03	1.104151E-16	4.958075E-18
7.212920E+03	1.104333E-16	4.962825E-18
7.222828E+03	1.104762E-16	4.968670E-18
7.232736E+03	1.105438E-16	4.975614E-18
7.242643E+03	1.106360E-16	4.983651E-18
7.252551E+03	1.107530E-16	4.992793E-18
7.262459E+03	1.108948E-16	5.003042E-18
7.272367E+03	1.110494E-16	5.013865E-18
7.282275E+03	1.112408E-16	5.026339E-18
7.292183E+03	1.114570E-16	5.039932E-18
7.302091E+03	1.116861E-16	5.054105E-18
7.311998E+03	1.119520E-16	5.069945E-18
7.321906E+03	1.122307E-16	5.086364E-18
7.331814E+03	1.125464E-16	5.104464E-18
7.341722E+03	1.128747E-16	5.123143E-18
7.351630E+03	1.132401E-16	5.143507E-18
7.361538E+03	1.136180E-16	5.164449E-18
7.371446E+03	1.140329E-16	5.187084E-18
7.381353E+03	1.144601E-16	5.210292E-18
7.391261E+03	1.149118E-16	5.234626E-18
7.401169E+03	1.154005E-16	5.260662E-18
7.411077E+03	1.159011E-16	5.287254E-18
7.420985E+03	1.164258E-16	5.314964E-18
7.430893E+03	1.169744E-16	5.343785E-18
7.440801E+03	1.175467E-16	5.373708E-18
7.450708E+03	1.181424E-16	5.404728E-18
7.460616E+03	1.187613E-16	5.436830E-18
7.470524E+03	1.194029E-16	5.469998E-18
7.480432E+03	1.200670E-16	5.504221E-18
7.490340E+03	1.207530E-16	5.539479E-18
7.500248E+03	1.214605E-16	5.575750E-18
7.510156E+03	1.221888E-16	5.613009E-18
7.520063E+03	1.229238E-16	5.650610E-18
7.529971E+03	1.236917E-16	5.689752E-18
7.539879E+03	1.244783E-16	5.729791E-18
7.549787E+03	1.252689E-16	5.770052E-18
7.559695E+03	1.260899E-16	5.811749E-18
7.569603E+03	1.269127E-16	5.853564E-18
7.579511E+03	1.277639E-16	5.896730E-18
7.589418E+03	1.286143E-16	5.939894E-18
7.599326E+03	1.294903E-16	5.984286E-18
7.609234E+03	1.303623E-16	6.028533E-18
7.619142E+03	1.312427E-16	6.073208E-18
7.629050E+03	1.321442E-16	6.118900E-18
7.638958E+03	1.330357E-16	6.164176E-18
7.648866E+03	1.339296E-16	6.209601E-18
7.658773E+03	1.348236E-16	6.255076E-18
7.668681E+03	1.357152E-16	6.300484E-18
7.678589E+03	1.366018E-16	6.345699E-18
7.688497E+03	1.374806E-16	6.390592E-18
