#wls	flux	fluxerr
1.585257E+03	1.739496E-18	1.290849E-19
1.624889E+03	1.758400E-18	1.299408E-19
1.664520E+03	1.774316E-18	1.305531E-19
1.704151E+03	1.786146E-18	1.308435E-19
1.743783E+03	1.793951E-18	1.308201E-19
1.783414E+03	1.796835E-18	1.304214E-19
1.823046E+03	1.793860E-18	1.295846E-19
1.862677E+03	1.782906E-18	1.281631E-19
1.902309E+03	1.763101E-18	1.261032E-19
1.941940E+03	1.733094E-18	1.233184E-19
1.981571E+03	1.693359E-18	1.198542E-19
2.021203E+03	1.647406E-18	1.159695E-19
2.060834E+03	1.603080E-18	1.122214E-19
2.100466E+03	1.571929E-18	1.094127E-19
2.140097E+03	1.565647E-18	1.083374E-19
2.179729E+03	1.589681E-18	1.093398E-19
2.219360E+03	1.642665E-18	1.122880E-19
2.258991E+03	1.716298E-18	1.165799E-19
2.298623E+03	1.802014E-18	1.216088E-19
2.338254E+03	1.892168E-18	1.268439E-19
2.377886E+03	1.982234E-18	1.319756E-19
2.417517E+03	2.070475E-18	1.368866E-19
2.457149E+03	2.155668E-18	1.414971E-19
2.496780E+03	2.238932E-18	1.458819E-19
2.536411E+03	2.320290E-18	1.500430E-19
2.576043E+03	2.401494E-18	1.540937E-19
2.615674E+03	2.483137E-18	1.580696E-19
2.655306E+03	2.566187E-18	1.620292E-19
2.694937E+03	2.651576E-18	1.660265E-19
2.734569E+03	2.740212E-18	1.701120E-19
2.774200E+03	2.832988E-18	1.743332E-19
2.813831E+03	2.931311E-18	1.787669E-19
2.853463E+03	3.035092E-18	1.833963E-19
2.893094E+03	3.146329E-18	1.883295E-19
2.932726E+03	3.264957E-18	1.935471E-19
2.972357E+03	3.393179E-18	1.991633E-19
2.982265E+03	3.426932E-18	2.006390E-19
2.992173E+03	3.461346E-18	2.021416E-19
3.002081E+03	3.495835E-18	2.036366E-19
3.011989E+03	3.531644E-18	2.051963E-19
3.021896E+03	3.568262E-18	2.067904E-19
3.031804E+03	3.605850E-18	2.084279E-19
3.041712E+03	3.643593E-18	2.100613E-19
3.051620E+03	3.683058E-18	2.117806E-19
3.061528E+03	3.723603E-18	2.135480E-19
3.071436E+03	3.765217E-18	2.153626E-19
3.081344E+03	3.807891E-18	2.172231E-19
3.091251E+03	3.850953E-18	2.190909E-19
3.101159E+03	3.895727E-18	2.210407E-19
3.111067E+03	3.941554E-18	2.230347E-19
3.120975E+03	3.988437E-18	2.250722E-19
3.130883E+03	4.035687E-18	2.271141E-19
3.140791E+03	4.084700E-18	2.292384E-19
3.150699E+03	4.134796E-18	2.314063E-19
3.160606E+03	4.185990E-18	2.336180E-19
3.170514E+03	4.238300E-18	2.358738E-19
3.180422E+03	4.291744E-18	2.381744E-19
3.190330E+03	4.345593E-18	2.404787E-19
3.200238E+03	4.401360E-18	2.428700E-19
3.210146E+03	4.458331E-18	2.453080E-19
3.220054E+03	4.516533E-18	2.477936E-19
3.229961E+03	4.575996E-18	2.503278E-19
3.239869E+03	4.636750E-18	2.529116E-19
3.249777E+03	4.698830E-18	2.555462E-19
3.259685E+03	4.761451E-18	2.581884E-19
3.269593E+03	4.826279E-18	2.609278E-19
3.279501E+03	4.892544E-18	2.637220E-19
3.289409E+03	4.960287E-18	2.665724E-19
3.299316E+03	5.029552E-18	2.694804E-19
3.309224E+03	5.100382E-18	2.724478E-19
3.319132E+03	5.172826E-18	2.754762E-19
3.329040E+03	5.246929E-18	2.785672E-19
3.338948E+03	5.321831E-18	2.816745E-19
3.348856E+03	5.399398E-18	2.848960E-19
3.358763E+03	5.478781E-18	2.881858E-19
3.368671E+03	5.560039E-18	2.915459E-19
3.378579E+03	5.643227E-18	2.949784E-19
3.388487E+03	5.728406E-18	2.984854E-19
3.398395E+03	5.815637E-18	3.020691E-19
3.408303E+03	5.904985E-18	3.057316E-19
3.418211E+03	5.996513E-18	3.094753E-19
3.428118E+03	6.090291E-18	3.133026E-19
3.438026E+03	6.186386E-18	3.172158E-19
3.447934E+03	6.283796E-18	3.211624E-19
3.457842E+03	6.384725E-18	3.252542E-19
3.467750E+03	6.488193E-18	3.294395E-19
3.477658E+03	6.594273E-18	3.337206E-19
3.487566E+03	6.703055E-18	3.381009E-19
3.497473E+03	6.814602E-18	3.425822E-19
3.507381E+03	6.929019E-18	3.471682E-19
3.517289E+03	7.046372E-18	3.518609E-19
3.527197E+03	7.166760E-18	3.566636E-19
3.537105E+03	7.290268E-18	3.615791E-19
3.547013E+03	7.416995E-18	3.666106E-19
3.556921E+03	7.547023E-18	3.717606E-19
3.566828E+03	7.680459E-18	3.770327E-19
3.576736E+03	7.817397E-18	3.824298E-19
3.586644E+03	7.957939E-18	3.879550E-19
3.596552E+03	8.102180E-18	3.936113E-19
3.606460E+03	8.250224E-18	3.994018E-19
3.616368E+03	8.402187E-18	4.053301E-19
3.626276E+03	8.556716E-18	4.113294E-19
3.636183E+03	8.716808E-18	4.175419E-19
3.646091E+03	8.881138E-18	4.239018E-19
3.655999E+03	9.049820E-18	4.304121E-19
3.665907E+03	9.222972E-18	4.370766E-19
3.675815E+03	9.400709E-18	4.438983E-19
3.685723E+03	9.583145E-18	4.508805E-19
3.695631E+03	9.770407E-18	4.580268E-19
3.705538E+03	9.962605E-18	4.653401E-19
3.715446E+03	1.015986E-17	4.728234E-19
3.725354E+03	1.036229E-17	4.804806E-19
3.735262E+03	1.057003E-17	4.883140E-19
3.745170E+03	1.078318E-17	4.963274E-19
3.755078E+03	1.100189E-17	5.045235E-19
3.764986E+03	1.122625E-17	5.129051E-19
3.774893E+03	1.145639E-17	5.214751E-19
3.784801E+03	1.169243E-17	5.302362E-19
3.794709E+03	1.193448E-17	5.391907E-19
3.804617E+03	1.218267E-17	5.483415E-19
3.814525E+03	1.243710E-17	5.576905E-19
3.824433E+03	1.269788E-17	5.672400E-19
3.834341E+03	1.296511E-17	5.769915E-19
3.844248E+03	1.323666E-17	5.868480E-19
3.854156E+03	1.351706E-17	5.970071E-19
3.864064E+03	1.380420E-17	6.073725E-19
3.873972E+03	1.409816E-17	6.179450E-19
3.883880E+03	1.439902E-17	6.287250E-19
3.893788E+03	1.470685E-17	6.397131E-19
3.903696E+03	1.502171E-17	6.509083E-19
3.913603E+03	1.534366E-17	6.623104E-19
3.923511E+03	1.567272E-17	6.739182E-19
3.933419E+03	1.600893E-17	6.857303E-19
3.943327E+03	1.635231E-17	6.977442E-19
3.953235E+03	1.670285E-17	7.099575E-19
3.963143E+03	1.706054E-17	7.223669E-19
3.973051E+03	1.742536E-17	7.349688E-19
3.982958E+03	1.779425E-17	7.476325E-19
3.992866E+03	1.817308E-17	7.606025E-19
4.002774E+03	1.855883E-17	7.737487E-19
4.012682E+03	1.895139E-17	7.870652E-19
4.022590E+03	1.935062E-17	8.005437E-19
4.032498E+03	1.975638E-17	8.141766E-19
4.042406E+03	2.016849E-17	8.279542E-19
4.052313E+03	2.058673E-17	8.418665E-19
4.062221E+03	2.101088E-17	8.559026E-19
4.072129E+03	2.144066E-17	8.700503E-19
4.082037E+03	2.187213E-17	8.841485E-19
4.091945E+03	2.231220E-17	8.984773E-19
4.101853E+03	2.275693E-17	9.128756E-19
4.111761E+03	2.320593E-17	9.273279E-19
4.121668E+03	2.365878E-17	9.418169E-19
4.131576E+03	2.411501E-17	9.563243E-19
4.141484E+03	2.457415E-17	9.708318E-19
4.151392E+03	2.503146E-17	9.851539E-19
4.161300E+03	2.549469E-17	9.995974E-19
4.171208E+03	2.595914E-17	1.013978E-18
4.181116E+03	2.642420E-17	1.028273E-18
4.191023E+03	2.688919E-17	1.042460E-18
4.200931E+03	2.735347E-17	1.056514E-18
4.210839E+03	2.781169E-17	1.070234E-18
4.220747E+03	2.827235E-17	1.083950E-18
4.230655E+03	2.873016E-17	1.097462E-18
4.240563E+03	2.918440E-17	1.110745E-18
4.250471E+03	2.963437E-17	1.123778E-18
4.260378E+03	3.007436E-17	1.136349E-18
4.270286E+03	3.051367E-17	1.148815E-18
4.280194E+03	3.094675E-17	1.160972E-18
4.290102E+03	3.137308E-17	1.172803E-18
4.300010E+03	3.178691E-17	1.184102E-18
4.309918E+03	3.219841E-17	1.195252E-18
4.319826E+03	3.260212E-17	1.206056E-18
4.329733E+03	3.299787E-17	1.216514E-18
4.339641E+03	3.338001E-17	1.226424E-18
4.349549E+03	3.375937E-17	1.236190E-18
4.359457E+03	3.413014E-17	1.245603E-18
4.369365E+03	3.449176E-17	1.254650E-18
4.379273E+03	3.483784E-17	1.263106E-18
4.389181E+03	3.517929E-17	1.271371E-18
4.399088E+03	3.550988E-17	1.279228E-18
4.408996E+03	3.582325E-17	1.286454E-18
4.418904E+03	3.613097E-17	1.293471E-18
4.428812E+03	3.642696E-17	1.300067E-18
4.438720E+03	3.670507E-17	1.306030E-18
4.448628E+03	3.697747E-17	1.311800E-18
4.458536E+03	3.723821E-17	1.317171E-18
4.468443E+03	3.748127E-17	1.321935E-18
4.478351E+03	3.771930E-17	1.326541E-18
4.488259E+03	3.794012E-17	1.330564E-18
4.498167E+03	3.815664E-17	1.334460E-18
4.508075E+03	3.836298E-17	1.338025E-18
4.517983E+03	3.855319E-17	1.341053E-18
4.527891E+03	3.874045E-17	1.344006E-18
4.537798E+03	3.891245E-17	1.346458E-18
4.547706E+03	3.908250E-17	1.348871E-18
4.557614E+03	3.924471E-17	1.351042E-18
4.567522E+03	3.939308E-17	1.352765E-18
4.577430E+03	3.954112E-17	1.354507E-18
4.587338E+03	3.967634E-17	1.355839E-18
4.597246E+03	3.981231E-17	1.357225E-18
4.607153E+03	3.993647E-17	1.358237E-18
4.617061E+03	4.006248E-17	1.359340E-18
4.626969E+03	4.017767E-17	1.360103E-18
4.636877E+03	4.029579E-17	1.360992E-18
4.646785E+03	4.040409E-17	1.361573E-18
4.656693E+03	4.051635E-17	1.362313E-18
4.666601E+03	4.061974E-17	1.362778E-18
4.676508E+03	4.072810E-17	1.363431E-18
4.686416E+03	4.082851E-17	1.363839E-18
4.696324E+03	4.093484E-17	1.364463E-18
4.706232E+03	4.103408E-17	1.364868E-18
4.716140E+03	4.113338E-17	1.365292E-18
4.726048E+03	4.123994E-17	1.365971E-18
4.735956E+03	4.134060E-17	1.366467E-18
4.745863E+03	4.144936E-17	1.367241E-18
4.755771E+03	4.155296E-17	1.367854E-18
4.765679E+03	4.165855E-17	1.368540E-18
4.775587E+03	4.177335E-17	1.369533E-18
4.785495E+03	4.188396E-17	1.370393E-18
4.795403E+03	4.199756E-17	1.371351E-18
4.805311E+03	4.212137E-17	1.372642E-18
4.815218E+03	4.224183E-17	1.373821E-18
4.825126E+03	4.236613E-17	1.375119E-18
4.835034E+03	4.250148E-17	1.376770E-18
4.844942E+03	4.263421E-17	1.378325E-18
4.854850E+03	4.277149E-17	1.380017E-18
4.864758E+03	4.292056E-17	1.382075E-18
4.874666E+03	4.306756E-17	1.384050E-18
4.884573E+03	4.321969E-17	1.386173E-18
4.894481E+03	4.337711E-17	1.388444E-18
4.904389E+03	4.354711E-17	1.391096E-18
4.914297E+03	4.371557E-17	1.393673E-18
4.924205E+03	4.388972E-17	1.396404E-18
4.934113E+03	4.406967E-17	1.399290E-18
4.944021E+03	4.425551E-17	1.402331E-18
4.953928E+03	4.445458E-17	1.405757E-18
4.963836E+03	4.465243E-17	1.409107E-18
4.973744E+03	4.485634E-17	1.412610E-18
4.983652E+03	4.506634E-17	1.416263E-18
4.993560E+03	4.528246E-17	1.420064E-18
5.003468E+03	4.550468E-17	1.424011E-18
5.013376E+03	4.573299E-17	1.428099E-18
5.023283E+03	4.597488E-17	1.432560E-18
5.033191E+03	4.621530E-17	1.436921E-18
5.043099E+03	4.646167E-17	1.441411E-18
5.053007E+03	4.671393E-17	1.446025E-18
5.062915E+03	4.697197E-17	1.450757E-18
5.072823E+03	4.723569E-17	1.455602E-18
5.082731E+03	4.750496E-17	1.460552E-18
5.092638E+03	4.777966E-17	1.465601E-18
5.102546E+03	4.805964E-17	1.470741E-18
5.112454E+03	4.834473E-17	1.475965E-18
5.122362E+03	4.863477E-17	1.481265E-18
5.132270E+03	4.892956E-17	1.486632E-18
5.142178E+03	4.922891E-17	1.492058E-18
5.152086E+03	4.953262E-17	1.497534E-18
5.161993E+03	4.984047E-17	1.503051E-18
5.171901E+03	5.015224E-17	1.508599E-18
5.181809E+03	5.046768E-17	1.514169E-18
5.191717E+03	5.078659E-17	1.519752E-18
5.201625E+03	5.110871E-17	1.525337E-18
5.211533E+03	5.143380E-17	1.530917E-18
5.221441E+03	5.175320E-17	1.536231E-18
5.231348E+03	5.208349E-17	1.541770E-18
5.241256E+03	5.241606E-17	1.547275E-18
5.251164E+03	5.275068E-17	1.552738E-18
5.261072E+03	5.308715E-17	1.558151E-18
5.270980E+03	5.342527E-17	1.563506E-18
5.280888E+03	5.376488E-17	1.568797E-18
5.290796E+03	5.409697E-17	1.573759E-18
5.300703E+03	5.443900E-17	1.578900E-18
5.310611E+03	5.478208E-17	1.583959E-18
5.320519E+03	5.512614E-17	1.588932E-18
5.330427E+03	5.547109E-17	1.593816E-18
5.340335E+03	5.580784E-17	1.598347E-18
5.350243E+03	5.615448E-17	1.603045E-18
5.360151E+03	5.650203E-17	1.607648E-18
5.370058E+03	5.685053E-17	1.612159E-18
5.379966E+03	5.719077E-17	1.616314E-18
5.389874E+03	5.754142E-17	1.620641E-18
5.399782E+03	5.789334E-17	1.624880E-18
5.409690E+03	5.823723E-17	1.628768E-18
5.419598E+03	5.859209E-17	1.632839E-18
5.429506E+03	5.894865E-17	1.636829E-18
5.439413E+03	5.929734E-17	1.640473E-18
5.449321E+03	5.965744E-17	1.644305E-18
5.459229E+03	6.001932E-17	1.648055E-18
5.469137E+03	6.037306E-17	1.651451E-18
5.479045E+03	6.073810E-17	1.655026E-18
5.488953E+03	6.110453E-17	1.658506E-18
5.498861E+03	6.146219E-17	1.661616E-18
5.508768E+03	6.183085E-17	1.664892E-18
5.518676E+03	6.219030E-17	1.667786E-18
5.528584E+03	6.256056E-17	1.670837E-18
5.538492E+03	6.292123E-17	1.673497E-18
5.548400E+03	6.329258E-17	1.676307E-18
5.558308E+03	6.365404E-17	1.678719E-18
5.568216E+03	6.402621E-17	1.681278E-18
5.578123E+03	6.439881E-17	1.683710E-18
5.588031E+03	6.476135E-17	1.685744E-18
5.597939E+03	6.513484E-17	1.687925E-18
5.607847E+03	6.549832E-17	1.689711E-18
5.617755E+03	6.586241E-17	1.691377E-18
5.627663E+03	6.623801E-17	1.693203E-18
5.637571E+03	6.660388E-17	1.694643E-18
5.647478E+03	6.698177E-17	1.696254E-18
5.657386E+03	6.735023E-17	1.697490E-18
5.667294E+03	6.773129E-17	1.698909E-18
5.677202E+03	6.810331E-17	1.699967E-18
5.687110E+03	6.847750E-17	1.700947E-18
5.697018E+03	6.886530E-17	1.702132E-18
5.706926E+03	6.924474E-17	1.702978E-18
5.716833E+03	6.963852E-17	1.704046E-18
5.726741E+03	7.002442E-17	1.704792E-18
5.736649E+03	7.041399E-17	1.705499E-18
5.746557E+03	7.081899E-17	1.706452E-18
5.756465E+03	7.121686E-17	1.707108E-18
5.766373E+03	7.161930E-17	1.707750E-18
5.776281E+03	7.203826E-17	1.708663E-18
5.786188E+03	7.245075E-17	1.709302E-18
5.796096E+03	7.286864E-17	1.709952E-18
5.806004E+03	7.330406E-17	1.710897E-18
5.815912E+03	7.373355E-17	1.711589E-18
5.825820E+03	7.416916E-17	1.712314E-18
5.835728E+03	7.461105E-17	1.713078E-18
5.845636E+03	7.507158E-17	1.714165E-18
5.855543E+03	7.552665E-17	1.715027E-18
5.865451E+03	7.598846E-17	1.715946E-18
5.875359E+03	7.645711E-17	1.716928E-18
5.885267E+03	7.694515E-17	1.718258E-18
5.895175E+03	7.742775E-17	1.719383E-18
5.905083E+03	7.791730E-17	1.720586E-18
5.914991E+03	7.841377E-17	1.721872E-18
5.924898E+03	7.891711E-17	1.723245E-18
5.934806E+03	7.942721E-17	1.724709E-18
5.944714E+03	7.995687E-17	1.726547E-18
5.954622E+03	8.048012E-17	1.728203E-18
5.964530E+03	8.100959E-17	1.729960E-18
5.974438E+03	8.154501E-17	1.731820E-18
5.984346E+03	8.208609E-17	1.733786E-18
5.994253E+03	8.263246E-17	1.735861E-18
6.004161E+03	8.318374E-17	1.738046E-18
6.014069E+03	8.373947E-17	1.740343E-18
6.023977E+03	8.431283E-17	1.743038E-18
6.033885E+03	8.487605E-17	1.745566E-18
6.043793E+03	8.544210E-17	1.748212E-18
6.053701E+03	8.601035E-17	1.750978E-18
6.063608E+03	8.658011E-17	1.753863E-18
6.073516E+03	8.715063E-17	1.756871E-18
6.083424E+03	8.772112E-17	1.760001E-18
6.093332E+03	8.829076E-17	1.763255E-18
6.103240E+03	8.885865E-17	1.766634E-18
6.113148E+03	8.942387E-17	1.770140E-18
6.123056E+03	8.998542E-17	1.773772E-18
6.132963E+03	9.054229E-17	1.777533E-18
6.142871E+03	9.109341E-17	1.781422E-18
6.152779E+03	9.163768E-17	1.785442E-18
6.162687E+03	9.217395E-17	1.789592E-18
6.172595E+03	9.270105E-17	1.793874E-18
6.182503E+03	9.321777E-17	1.798288E-18
6.192411E+03	9.372288E-17	1.802836E-18
6.202318E+03	9.421510E-17	1.807517E-18
6.212226E+03	9.469318E-17	1.812332E-18
6.222134E+03	9.515582E-17	1.817282E-18
6.232042E+03	9.558623E-17	1.822071E-18
6.241950E+03	9.601403E-17	1.827288E-18
6.251858E+03	9.642247E-17	1.832640E-18
6.261766E+03	9.681027E-17	1.838124E-18
6.271673E+03	9.717616E-17	1.843740E-18
6.281581E+03	9.751886E-17	1.849487E-18
6.291489E+03	9.783711E-17	1.855360E-18
6.301397E+03	9.812971E-17	1.861359E-18
6.311305E+03	9.837952E-17	1.867176E-18
6.321213E+03	9.861721E-17	1.873411E-18
6.331121E+03	9.882579E-17	1.879758E-18
6.341028E+03	9.900417E-17	1.886209E-18
6.350936E+03	9.915132E-17	1.892757E-18
6.360844E+03	9.926628E-17	1.899394E-18
6.370752E+03	9.933208E-17	1.905792E-18
6.380660E+03	9.938009E-17	1.912541E-18
6.390568E+03	9.939344E-17	1.919300E-18
6.400476E+03	9.937148E-17	1.926041E-18
6.410383E+03	9.931355E-17	1.932730E-18
6.420291E+03	9.920303E-17	1.939020E-18
6.430199E+03	9.907166E-17	1.945507E-18
6.440107E+03	9.890296E-17	1.951844E-18
6.450015E+03	9.869671E-17	1.957999E-18
6.459923E+03	9.843684E-17	1.963622E-18
6.469831E+03	9.815539E-17	1.969319E-18
6.479738E+03	9.783670E-17	1.974749E-18
6.489646E+03	9.748129E-17	1.979887E-18
6.499554E+03	9.707417E-17	1.984394E-18
6.509462E+03	9.664775E-17	1.988895E-18
6.519370E+03	9.618722E-17	1.993054E-18
6.529278E+03	9.567813E-17	1.996534E-18
6.539186E+03	9.515272E-17	1.999969E-18
6.549093E+03	9.459661E-17	2.003026E-18
6.559001E+03	9.399579E-17	2.005370E-18
6.568909E+03	9.338213E-17	2.007644E-18
6.578817E+03	9.274163E-17	2.009515E-18
6.588725E+03	9.206068E-17	2.010652E-18
6.598633E+03	9.137065E-17	2.011703E-18
6.608541E+03	9.065788E-17	2.012341E-18
6.618448E+03	8.990922E-17	2.012237E-18
6.628356E+03	8.915535E-17	2.012046E-18
6.638264E+03	8.836872E-17	2.011116E-18
6.648172E+03	8.757954E-17	2.010105E-18
6.658080E+03	8.677479E-17	2.008690E-18
6.667988E+03	8.594199E-17	2.006554E-18
6.677896E+03	8.511060E-17	2.004355E-18
6.687803E+03	8.425430E-17	2.001452E-18
6.697711E+03	8.340198E-17	1.998506E-18
6.707619E+03	8.254125E-17	1.995204E-18
6.717527E+03	8.166020E-17	1.991236E-18
6.727435E+03	8.078685E-17	1.987262E-18
6.737343E+03	7.989614E-17	1.982652E-18
6.747251E+03	7.901544E-17	1.978066E-18
6.757158E+03	7.812019E-17	1.972878E-18
6.767066E+03	7.723712E-17	1.967746E-18
6.776974E+03	7.634215E-17	1.962049E-18
6.786882E+03	7.546135E-17	1.956442E-18
6.796790E+03	7.457113E-17	1.950307E-18
6.806698E+03	7.369687E-17	1.944298E-18
6.816606E+03	7.281545E-17	1.937799E-18
6.826513E+03	7.195160E-17	1.931462E-18
6.836421E+03	7.108266E-17	1.924675E-18
6.846329E+03	7.023268E-17	1.918084E-18
6.856237E+03	6.937945E-17	1.911083E-18
6.866145E+03	6.854640E-17	1.904311E-18
6.876053E+03	6.771174E-17	1.897167E-18
6.885961E+03	6.689823E-17	1.890285E-18
6.895868E+03	6.608458E-17	1.883067E-18
6.905776E+03	6.529289E-17	1.876143E-18
6.915684E+03	6.450228E-17	1.868917E-18
6.925592E+03	6.372391E-17	1.861712E-18
6.935500E+03	6.296839E-17	1.854844E-18
6.945408E+03	6.221547E-17	1.847722E-18
6.955316E+03	6.148579E-17	1.840964E-18
6.965223E+03	6.075950E-17	1.833982E-18
6.975131E+03	6.004693E-17	1.827089E-18
6.985039E+03	5.935793E-17	1.820594E-18
6.994947E+03	5.867321E-17	1.813915E-18
7.004855E+03	5.801213E-17	1.807654E-18
7.014763E+03	5.735577E-17	1.801233E-18
7.024671E+03	5.671374E-17	1.794955E-18
7.034578E+03	5.609522E-17	1.789122E-18
7.044486E+03	5.548186E-17	1.783159E-18
7.054394E+03	5.488286E-17	1.777365E-18
7.064302E+03	5.430707E-17	1.772038E-18
7.074210E+03	5.373663E-17	1.766606E-18
7.084118E+03	5.318043E-17	1.761365E-18
7.094026E+03	5.264693E-17	1.756607E-18
7.103933E+03	5.211882E-17	1.751764E-18
7.113841E+03	5.160462E-17	1.747129E-18
7.123749E+03	5.111253E-17	1.742989E-18
7.133657E+03	5.062570E-17	1.738781E-18
7.143565E+03	5.015235E-17	1.734792E-18
7.153473E+03	4.970042E-17	1.731308E-18
7.163381E+03	4.925347E-17	1.727766E-18
7.173288E+03	4.881948E-17	1.724452E-18
7.183196E+03	4.839827E-17	1.721367E-18
7.193104E+03	4.799745E-17	1.718792E-18
7.203012E+03	4.760110E-17	1.716169E-18
7.212920E+03	4.721690E-17	1.713778E-18
7.222828E+03	4.684463E-17	1.711620E-18
7.232736E+03	4.649165E-17	1.709974E-18
7.242643E+03	4.614249E-17	1.708280E-18
7.252551E+03	4.580457E-17	1.706817E-18
7.262459E+03	4.547764E-17	1.705584E-18
7.272367E+03	4.516148E-17	1.704580E-18
7.282275E+03	4.486314E-17	1.704081E-18
7.292183E+03	4.456768E-17	1.703527E-18
7.302091E+03	4.428222E-17	1.703194E-18
7.311998E+03	4.400650E-17	1.703080E-18
7.321906E+03	4.374025E-17	1.703181E-18
7.331814E+03	4.349032E-17	1.703771E-18
7.341722E+03	4.324220E-17	1.704290E-18
7.351630E+03	4.300275E-17	1.705012E-18
7.361538E+03	4.277171E-17	1.705931E-18
7.371446E+03	4.254879E-17	1.707043E-18
7.381353E+03	4.233372E-17	1.708342E-18
7.391261E+03	4.213309E-17	1.710101E-18
7.401169E+03	4.193282E-17	1.711754E-18
7.411077E+03	4.173954E-17	1.713575E-18
7.420985E+03	4.155295E-17	1.715557E-18
7.430893E+03	4.137275E-17	1.717691E-18
7.440801E+03	4.119867E-17	1.719969E-18
7.450708E+03	4.103038E-17	1.722384E-18
7.460616E+03	4.086758E-17	1.724925E-18
7.470524E+03	4.070997E-17	1.727585E-18
7.480432E+03	4.055723E-17	1.730353E-18
7.490340E+03	4.041566E-17	1.733502E-18
7.500248E+03	4.027170E-17	1.736456E-18
7.510156E+03	4.013166E-17	1.739486E-18
7.520063E+03	3.999521E-17	1.742581E-18
7.529971E+03	3.986202E-17	1.745729E-18
7.539879E+03	3.973178E-17	1.748917E-18
7.549787E+03	3.960414E-17	1.752135E-18
7.559695E+03	3.947878E-17	1.755367E-18
7.569603E+03	3.935535E-17	1.758600E-18
7.579511E+03	3.923351E-17	1.761822E-18
7.589418E+03	3.911292E-17	1.765017E-18
7.599326E+03	3.899325E-17	1.768171E-18
7.609234E+03	3.887415E-17	1.771268E-18
7.619142E+03	3.875528E-17	1.774295E-18
7.629050E+03	3.863629E-17	1.777235E-18
7.638958E+03	3.851684E-17	1.780073E-18
7.648866E+03	3.839660E-17	1.782792E-18
7.658773E+03	3.827524E-17	1.785377E-18
7.668681E+03	3.815240E-17	1.787812E-18
7.678589E+03	3.802776E-17	1.790079E-18
7.688497E+03	3.790099E-17	1.792163E-18
