#wls	flux	fluxerr
1.585257E+03	1.622726E-18	1.263770E-19
1.624889E+03	1.640774E-18	1.272422E-19
1.664520E+03	1.655753E-18	1.278466E-19
1.704151E+03	1.666926E-18	1.281362E-19
1.743783E+03	1.674650E-18	1.281418E-19
1.783414E+03	1.677487E-18	1.277571E-19
1.823046E+03	1.674859E-18	1.269433E-19
1.862677E+03	1.665081E-18	1.255793E-19
1.902309E+03	1.646442E-18	1.235447E-19
1.941940E+03	1.618569E-18	1.208222E-19
1.981571E+03	1.581606E-18	1.174336E-19
2.021203E+03	1.538825E-18	1.136322E-19
2.060834E+03	1.497819E-18	1.099837E-19
2.100466E+03	1.468836E-18	1.072347E-19
2.140097E+03	1.462821E-18	1.061650E-19
2.179729E+03	1.485650E-18	1.071688E-19
2.219360E+03	1.534995E-18	1.100404E-19
2.258991E+03	1.604177E-18	1.142671E-19
2.298623E+03	1.684372E-18	1.191953E-19
2.338254E+03	1.768388E-18	1.243017E-19
2.377886E+03	1.852601E-18	1.293259E-19
2.417517E+03	1.934741E-18	1.341076E-19
2.457149E+03	2.014328E-18	1.386146E-19
2.496780E+03	2.091703E-18	1.428719E-19
2.536411E+03	2.167987E-18	1.469566E-19
2.576043E+03	2.243307E-18	1.508769E-19
2.615674E+03	2.318945E-18	1.547177E-19
2.655306E+03	2.396220E-18	1.585637E-19
2.694937E+03	2.475158E-18	1.624120E-19
2.734569E+03	2.557456E-18	1.663678E-19
2.774200E+03	2.643511E-18	1.704490E-19
2.813831E+03	2.734147E-18	1.746997E-19
2.853463E+03	2.829705E-18	1.791311E-19
2.893094E+03	2.932040E-18	1.838484E-19
2.932726E+03	3.041593E-18	1.888644E-19
2.972357E+03	3.159909E-18	1.942584E-19
2.982265E+03	3.190621E-18	1.956492E-19
2.992173E+03	3.221928E-18	1.970652E-19
3.002081E+03	3.253847E-18	1.985071E-19
3.011989E+03	3.286991E-18	2.000117E-19
3.021896E+03	3.320293E-18	2.015137E-19
3.031804E+03	3.354478E-18	2.030569E-19
3.041712E+03	3.389964E-18	2.046661E-19
3.051620E+03	3.425858E-18	2.062869E-19
3.061528E+03	3.462733E-18	2.079533E-19
3.071436E+03	3.501189E-18	2.097009E-19
3.081344E+03	3.539998E-18	2.114554E-19
3.091251E+03	3.579762E-18	2.132525E-19
3.101159E+03	3.620477E-18	2.150914E-19
3.111067E+03	3.662781E-18	2.170096E-19
3.120975E+03	3.705407E-18	2.189312E-19
3.130883E+03	3.749647E-18	2.209321E-19
3.140791E+03	3.794205E-18	2.229355E-19
3.150699E+03	3.839739E-18	2.249796E-19
3.160606E+03	3.886941E-18	2.271043E-19
3.170514E+03	3.934474E-18	2.292310E-19
3.180422E+03	3.983028E-18	2.313993E-19
3.190330E+03	4.033323E-18	2.336506E-19
3.200238E+03	4.083982E-18	2.359042E-19
3.210146E+03	4.135722E-18	2.382015E-19
3.220054E+03	4.189298E-18	2.405849E-19
3.229961E+03	4.243285E-18	2.429721E-19
3.239869E+03	4.298433E-18	2.454055E-19
3.249777E+03	4.355529E-18	2.479293E-19
3.259685E+03	4.413098E-18	2.504589E-19
3.269593E+03	4.472701E-18	2.530821E-19
3.279501E+03	4.532826E-18	2.557127E-19
3.289409E+03	4.594278E-18	2.583956E-19
3.299316E+03	4.657908E-18	2.611777E-19
3.309224E+03	4.722143E-18	2.639701E-19
3.319132E+03	4.787827E-18	2.668193E-19
3.329040E+03	4.855847E-18	2.697739E-19
3.338948E+03	4.924571E-18	2.727421E-19
3.348856E+03	4.995747E-18	2.758202E-19
3.358763E+03	5.067700E-18	2.789147E-19
3.368671E+03	5.141336E-18	2.820747E-19
3.378579E+03	5.217613E-18	2.853517E-19
3.388487E+03	5.294785E-18	2.886493E-19
3.398395E+03	5.374735E-18	2.920690E-19
3.408303E+03	5.455667E-18	2.955123E-19
3.418211E+03	5.539521E-18	2.990832E-19
3.428118E+03	5.624449E-18	3.026808E-19
3.438026E+03	5.711461E-18	3.063587E-19
3.447934E+03	5.801626E-18	3.101729E-19
3.457842E+03	5.893015E-18	3.140189E-19
3.467750E+03	5.987723E-18	3.180072E-19
3.477658E+03	6.083763E-18	3.220310E-19
3.487566E+03	6.182225E-18	3.261470E-19
3.497473E+03	6.284272E-18	3.304150E-19
3.507381E+03	6.387822E-18	3.347240E-19
3.517289E+03	6.495144E-18	3.391918E-19
3.527197E+03	6.604092E-18	3.437047E-19
3.537105E+03	6.717006E-18	3.483830E-19
3.547013E+03	6.831676E-18	3.531105E-19
3.556921E+03	6.949326E-18	3.579494E-19
3.566828E+03	7.071261E-18	3.629649E-19
3.576736E+03	7.195142E-18	3.680352E-19
3.586644E+03	7.323539E-18	3.732902E-19
3.596552E+03	7.454036E-18	3.786050E-19
3.606460E+03	7.589268E-18	3.841116E-19
3.616368E+03	7.726744E-18	3.896821E-19
3.626276E+03	7.869203E-18	3.954528E-19
3.636183E+03	8.014056E-18	4.012916E-19
3.646091E+03	8.162745E-18	4.072691E-19
3.655999E+03	8.316792E-18	4.134591E-19
3.665907E+03	8.473473E-18	4.197237E-19
3.675815E+03	8.635787E-18	4.262098E-19
3.685723E+03	8.800890E-18	4.327745E-19
3.695631E+03	8.971904E-18	4.395695E-19
3.705538E+03	9.145872E-18	4.464472E-19
3.715446E+03	9.324421E-18	4.534855E-19
3.725354E+03	9.509311E-18	4.607672E-19
3.735262E+03	9.697397E-18	4.681374E-19
3.745170E+03	9.892108E-18	4.757593E-19
3.755078E+03	1.009019E-17	4.834737E-19
3.764986E+03	1.029519E-17	4.914486E-19
3.774893E+03	1.050372E-17	4.995191E-19
3.784801E+03	1.071763E-17	5.077712E-19
3.794709E+03	1.093891E-17	5.162964E-19
3.804617E+03	1.116395E-17	5.249213E-19
3.814525E+03	1.139666E-17	5.338274E-19
3.824433E+03	1.163328E-17	5.428349E-19
3.834341E+03	1.187785E-17	5.521310E-19
3.844248E+03	1.212646E-17	5.615300E-19
3.854156E+03	1.238120E-17	5.711268E-19
3.864064E+03	1.264434E-17	5.810229E-19
3.873972E+03	1.291167E-17	5.910216E-19
3.883880E+03	1.318766E-17	6.013252E-19
3.893788E+03	1.346792E-17	6.117300E-19
3.903696E+03	1.375710E-17	6.224451E-19
3.913603E+03	1.405060E-17	6.332590E-19
3.923511E+03	1.435079E-17	6.442760E-19
3.933419E+03	1.466022E-17	6.556083E-19
3.943327E+03	1.497398E-17	6.670321E-19
3.953235E+03	1.529716E-17	6.787727E-19
3.963143E+03	1.562461E-17	6.905979E-19
3.973051E+03	1.595890E-17	7.026194E-19
3.982958E+03	1.630280E-17	7.149566E-19
3.992866E+03	1.665079E-17	7.273638E-19
4.002774E+03	1.700845E-17	7.400837E-19
4.012682E+03	1.736998E-17	7.528601E-19
4.022590E+03	1.773817E-17	7.658128E-19
4.032498E+03	1.811599E-17	7.790680E-19
4.042406E+03	1.849723E-17	7.923553E-19
4.052313E+03	1.888478E-17	8.057980E-19
4.062221E+03	1.928177E-17	8.195275E-19
4.072129E+03	1.968150E-17	8.332565E-19
4.082037E+03	2.009042E-17	8.472577E-19
4.091945E+03	2.050149E-17	8.612322E-19
4.101853E+03	2.091781E-17	8.753105E-19
4.111761E+03	2.134274E-17	8.896311E-19
4.121668E+03	2.176873E-17	9.038789E-19
4.131576E+03	2.219898E-17	9.181873E-19
4.141484E+03	2.263695E-17	9.326989E-19
4.151392E+03	2.307458E-17	9.470810E-19
4.161300E+03	2.351516E-17	9.614706E-19
4.171208E+03	2.396228E-17	9.760144E-19
4.181116E+03	2.440728E-17	9.903607E-19
4.191023E+03	2.485359E-17	1.004651E-18
4.200931E+03	2.530487E-17	1.019034E-18
4.210839E+03	2.575190E-17	1.033140E-18
4.220747E+03	2.619818E-17	1.047115E-18
4.230655E+03	2.664746E-17	1.061109E-18
4.240563E+03	2.708993E-17	1.074736E-18
4.250471E+03	2.752917E-17	1.088142E-18
4.260378E+03	2.796902E-17	1.101481E-18
4.270286E+03	2.839906E-17	1.114350E-18
4.280194E+03	2.882296E-17	1.126897E-18
4.290102E+03	2.924463E-17	1.139280E-18
4.300010E+03	2.965312E-17	1.151078E-18
4.309918E+03	3.005224E-17	1.162446E-18
4.319826E+03	3.044093E-17	1.173352E-18
4.329733E+03	3.082346E-17	1.183965E-18
4.339641E+03	3.118863E-17	1.193862E-18
4.349549E+03	3.154098E-17	1.203226E-18
4.359457E+03	3.187999E-17	1.212046E-18
4.369365E+03	3.221078E-17	1.220523E-18
4.379273E+03	3.252233E-17	1.228247E-18
4.389181E+03	3.282009E-17	1.235432E-18
4.399088E+03	3.310427E-17	1.242096E-18
4.408996E+03	3.338081E-17	1.248467E-18
4.418904E+03	3.363883E-17	1.254144E-18
4.428812E+03	3.388433E-17	1.259362E-18
4.438720E+03	3.411775E-17	1.264141E-18
4.448628E+03	3.433954E-17	1.268505E-18
4.458536E+03	3.455601E-17	1.272694E-18
4.468443E+03	3.475598E-17	1.276298E-18
4.478351E+03	3.494576E-17	1.279554E-18
4.488259E+03	3.512583E-17	1.282482E-18
4.498167E+03	3.529671E-17	1.285102E-18
4.508075E+03	3.546488E-17	1.287654E-18
4.517983E+03	3.561889E-17	1.289721E-18
4.527891E+03	3.576521E-17	1.291541E-18
4.537798E+03	3.590435E-17	1.293134E-18
4.547706E+03	3.603681E-17	1.294519E-18
4.557614E+03	3.616310E-17	1.295713E-18
4.567522E+03	3.628985E-17	1.296956E-18
4.577430E+03	3.640530E-17	1.297826E-18
4.587338E+03	3.651606E-17	1.298560E-18
4.597246E+03	3.662261E-17	1.299176E-18
4.607153E+03	3.672543E-17	1.299689E-18
4.617061E+03	3.682497E-17	1.300115E-18
4.626969E+03	3.692171E-17	1.300470E-18
4.636877E+03	3.701609E-17	1.300770E-18
4.646785E+03	3.710855E-17	1.301028E-18
4.656693E+03	3.720580E-17	1.301479E-18
4.666601E+03	3.729572E-17	1.301696E-18
4.676508E+03	3.738498E-17	1.301913E-18
4.686416E+03	3.747398E-17	1.302140E-18
4.696324E+03	3.756311E-17	1.302392E-18
4.706232E+03	3.765274E-17	1.302678E-18
4.716140E+03	3.774323E-17	1.303009E-18
4.726048E+03	3.783494E-17	1.303397E-18
4.735956E+03	3.792821E-17	1.303850E-18
4.745863E+03	3.802335E-17	1.304378E-18
4.755771E+03	3.812069E-17	1.304990E-18
4.765679E+03	3.822054E-17	1.305693E-18
4.775587E+03	3.832317E-17	1.306497E-18
4.785495E+03	3.842886E-17	1.307407E-18
4.795403E+03	3.853789E-17	1.308431E-18
4.805311E+03	3.865050E-17	1.309575E-18
4.815218E+03	3.876694E-17	1.310845E-18
4.825126E+03	3.888744E-17	1.312246E-18
4.835034E+03	3.901220E-17	1.313783E-18
4.844942E+03	3.914145E-17	1.315461E-18
4.854850E+03	3.927536E-17	1.317283E-18
4.864758E+03	3.941412E-17	1.319253E-18
4.874666E+03	3.955789E-17	1.321374E-18
4.884573E+03	3.970684E-17	1.323648E-18
4.894481E+03	3.986110E-17	1.326078E-18
4.904389E+03	4.001409E-17	1.328442E-18
4.914297E+03	4.017934E-17	1.331187E-18
4.924205E+03	4.035025E-17	1.334092E-18
4.934113E+03	4.052693E-17	1.337156E-18
4.944021E+03	4.070945E-17	1.340380E-18
4.953928E+03	4.089788E-17	1.343763E-18
4.963836E+03	4.109229E-17	1.347304E-18
4.973744E+03	4.129270E-17	1.351002E-18
4.983652E+03	4.149221E-17	1.354628E-18
4.993560E+03	4.170469E-17	1.358632E-18
5.003468E+03	4.192324E-17	1.362786E-18
5.013376E+03	4.214783E-17	1.367087E-18
5.023283E+03	4.237845E-17	1.371530E-18
5.033191E+03	4.261506E-17	1.376112E-18
5.043099E+03	4.285041E-17	1.380596E-18
5.053007E+03	4.309878E-17	1.385441E-18
5.062915E+03	4.335294E-17	1.390408E-18
5.072823E+03	4.361279E-17	1.395494E-18
5.082731E+03	4.387823E-17	1.400690E-18
5.092638E+03	4.414173E-17	1.405755E-18
5.102546E+03	4.441791E-17	1.411153E-18
5.112454E+03	4.469926E-17	1.416639E-18
5.122362E+03	4.498562E-17	1.422207E-18
5.132270E+03	4.526924E-17	1.427609E-18
5.142178E+03	4.556503E-17	1.433314E-18
5.152086E+03	4.586525E-17	1.439074E-18
5.161993E+03	4.616199E-17	1.444638E-18
5.171901E+03	4.647038E-17	1.450478E-18
5.181809E+03	4.678255E-17	1.456345E-18
5.191717E+03	4.709823E-17	1.462228E-18
5.201625E+03	4.740927E-17	1.467872E-18
5.211533E+03	4.773120E-17	1.473756E-18
5.221441E+03	4.805588E-17	1.479625E-18
5.231348E+03	4.837498E-17	1.485221E-18
5.241256E+03	4.870435E-17	1.491029E-18
5.251164E+03	4.903570E-17	1.496792E-18
5.261072E+03	4.936055E-17	1.502250E-18
5.270980E+03	4.969507E-17	1.507893E-18
5.280888E+03	5.002250E-17	1.513212E-18
5.290796E+03	5.035929E-17	1.518701E-18
5.300703E+03	5.069695E-17	1.524103E-18
5.310611E+03	5.102677E-17	1.529154E-18
5.320519E+03	5.136562E-17	1.534360E-18
5.330427E+03	5.169627E-17	1.539203E-18
5.340335E+03	5.203589E-17	1.544195E-18
5.350243E+03	5.237584E-17	1.549075E-18
5.360151E+03	5.270733E-17	1.553584E-18
5.370058E+03	5.304798E-17	1.558241E-18
5.379966E+03	5.338021E-17	1.562527E-18
5.389874E+03	5.372193E-17	1.566966E-18
5.399782E+03	5.405543E-17	1.571040E-18
5.409690E+03	5.439893E-17	1.575278E-18
5.419598E+03	5.473454E-17	1.579160E-18
5.429506E+03	5.508070E-17	1.583218E-18
5.439413E+03	5.541925E-17	1.586928E-18
5.449321E+03	5.576867E-17	1.590819E-18
5.459229E+03	5.611034E-17	1.594357E-18
5.469137E+03	5.646273E-17	1.598068E-18
5.479045E+03	5.680684E-17	1.601412E-18
5.488953E+03	5.716129E-17	1.604914E-18
5.498861E+03	5.750685E-17	1.608033E-18
5.508768E+03	5.786241E-17	1.611298E-18
5.518676E+03	5.820851E-17	1.614165E-18
5.528584E+03	5.855457E-17	1.616898E-18
5.538492E+03	5.891027E-17	1.619762E-18
5.548400E+03	5.925594E-17	1.622215E-18
5.558308E+03	5.961122E-17	1.624795E-18
5.568216E+03	5.995629E-17	1.626960E-18
5.578123E+03	6.030105E-17	1.628982E-18
5.588031E+03	6.065568E-17	1.631135E-18
5.597939E+03	6.100015E-17	1.632878E-18
5.607847E+03	6.135485E-17	1.634759E-18
5.617755E+03	6.169960E-17	1.636238E-18
5.627663E+03	6.204474E-17	1.637594E-18
5.637571E+03	6.240091E-17	1.639106E-18
5.647478E+03	6.274763E-17	1.640235E-18
5.657386E+03	6.309550E-17	1.641261E-18
5.667294E+03	6.345537E-17	1.642466E-18
5.677202E+03	6.380647E-17	1.643310E-18
5.687110E+03	6.415962E-17	1.644077E-18
5.697018E+03	6.452587E-17	1.645048E-18
5.706926E+03	6.488413E-17	1.645685E-18
5.716833E+03	6.524539E-17	1.646271E-18
5.726741E+03	6.560999E-17	1.646814E-18
5.736649E+03	6.598922E-17	1.647598E-18
5.746557E+03	6.636151E-17	1.648082E-18
5.756465E+03	6.673806E-17	1.648551E-18
5.766373E+03	6.713037E-17	1.649286E-18
5.776281E+03	6.751643E-17	1.649747E-18
5.786188E+03	6.790765E-17	1.650218E-18
5.796096E+03	6.830428E-17	1.650706E-18
5.806004E+03	6.870655E-17	1.651218E-18
5.815912E+03	6.912622E-17	1.652037E-18
5.825820E+03	6.954055E-17	1.652620E-18
5.835728E+03	6.996116E-17	1.653250E-18
5.845636E+03	7.038821E-17	1.653932E-18
5.855543E+03	7.082187E-17	1.654674E-18
5.865451E+03	7.127408E-17	1.655755E-18
5.875359E+03	7.172131E-17	1.656632E-18
5.885267E+03	7.217539E-17	1.657584E-18
5.895175E+03	7.263635E-17	1.658618E-18
5.905083E+03	7.310419E-17	1.659737E-18
5.914991E+03	7.357888E-17	1.660947E-18
5.924898E+03	7.407267E-17	1.662528E-18
5.934806E+03	7.456088E-17	1.663932E-18
5.944714E+03	7.505563E-17	1.665438E-18
5.954622E+03	7.555670E-17	1.667049E-18
5.964530E+03	7.606389E-17	1.668770E-18
5.974438E+03	7.657694E-17	1.670603E-18
5.984346E+03	7.709553E-17	1.672551E-18
5.994253E+03	7.761931E-17	1.674617E-18
6.004161E+03	7.816087E-17	1.677082E-18
6.014069E+03	7.869386E-17	1.679391E-18
6.023977E+03	7.923070E-17	1.681824E-18
6.033885E+03	7.977084E-17	1.684385E-18
6.043793E+03	8.031369E-17	1.687074E-18
6.053701E+03	8.085860E-17	1.689894E-18
6.063608E+03	8.140488E-17	1.692846E-18
6.073516E+03	8.195178E-17	1.695931E-18
6.083424E+03	8.249851E-17	1.699152E-18
6.093332E+03	8.304422E-17	1.702509E-18
6.103240E+03	8.358800E-17	1.706003E-18
6.113148E+03	8.412891E-17	1.709637E-18
6.123056E+03	8.466593E-17	1.713410E-18
6.132963E+03	8.519805E-17	1.717325E-18
6.142871E+03	8.572414E-17	1.721380E-18
6.152779E+03	8.624309E-17	1.725578E-18
6.162687E+03	8.675373E-17	1.729918E-18
6.172595E+03	8.725481E-17	1.734401E-18
6.182503E+03	8.774512E-17	1.739027E-18
6.192411E+03	8.822337E-17	1.743796E-18
6.202318E+03	8.868827E-17	1.748708E-18
6.212226E+03	8.913849E-17	1.753762E-18
6.222134E+03	8.957270E-17	1.758957E-18
6.232042E+03	8.998957E-17	1.764293E-18
6.241950E+03	9.038777E-17	1.769767E-18
6.251858E+03	9.076594E-17	1.775378E-18
6.261766E+03	9.112279E-17	1.781123E-18
6.271673E+03	9.145704E-17	1.787001E-18
6.281581E+03	9.176739E-17	1.793009E-18
6.291489E+03	9.203736E-17	1.798843E-18
6.301397E+03	9.229631E-17	1.805097E-18
6.311305E+03	9.252788E-17	1.811469E-18
6.321213E+03	9.273100E-17	1.817953E-18
6.331121E+03	9.290469E-17	1.824545E-18
6.341028E+03	9.304802E-17	1.831238E-18
6.350936E+03	9.316018E-17	1.838024E-18
6.360844E+03	9.324046E-17	1.844885E-18
6.370752E+03	9.328820E-17	1.851794E-18
6.380660E+03	9.328734E-17	1.858414E-18
6.390568E+03	9.326840E-17	1.865334E-18
6.400476E+03	9.321545E-17	1.872218E-18
6.410383E+03	9.312808E-17	1.879034E-18
6.420291E+03	9.300599E-17	1.885753E-18
6.430199E+03	9.284890E-17	1.892342E-18
6.440107E+03	9.264115E-17	1.898452E-18
6.450015E+03	9.241348E-17	1.904682E-18
6.459923E+03	9.215041E-17	1.910685E-18
6.469831E+03	9.185204E-17	1.916430E-18
6.479738E+03	9.151870E-17	1.921891E-18
6.489646E+03	9.113578E-17	1.926724E-18
6.499554E+03	9.073440E-17	1.931550E-18
6.509462E+03	9.030016E-17	1.936029E-18
6.519370E+03	8.983393E-17	1.940145E-18
6.529278E+03	8.933664E-17	1.943881E-18
6.539186E+03	8.879451E-17	1.946898E-18
6.549093E+03	8.823816E-17	1.949828E-18
6.559001E+03	8.765377E-17	1.952334E-18
6.568909E+03	8.704241E-17	1.954405E-18
6.578817E+03	8.639082E-17	1.955704E-18
6.588725E+03	8.572904E-17	1.956874E-18
6.598633E+03	8.504378E-17	1.957582E-18
6.608541E+03	8.433629E-17	1.957823E-18
6.618448E+03	8.359397E-17	1.957269E-18
6.628356E+03	8.284610E-17	1.956571E-18
6.638264E+03	8.208003E-17	1.955406E-18
6.648172E+03	8.129714E-17	1.953777E-18
6.658080E+03	8.048546E-17	1.951365E-18
6.667988E+03	7.967337E-17	1.948828E-18
6.677896E+03	7.884876E-17	1.945851E-18
6.687803E+03	7.800009E-17	1.942121E-18
6.697711E+03	7.715493E-17	1.938299E-18
6.707619E+03	7.630155E-17	1.934076E-18
6.717527E+03	7.542879E-17	1.929145E-18
6.727435E+03	7.456331E-17	1.924167E-18
6.737343E+03	7.369372E-17	1.918837E-18
6.747251E+03	7.280920E-17	1.912855E-18
6.757158E+03	7.193543E-17	1.906879E-18
6.767066E+03	7.106133E-17	1.900609E-18
6.776974E+03	7.017637E-17	1.893749E-18
6.786882E+03	6.930521E-17	1.886951E-18
6.796790E+03	6.843708E-17	1.879920E-18
6.806698E+03	6.756172E-17	1.872364E-18
6.816606E+03	6.670275E-17	1.864928E-18
6.826513E+03	6.584966E-17	1.857321E-18
6.836421E+03	6.499246E-17	1.849253E-18
6.846329E+03	6.415374E-17	1.841362E-18
6.856237E+03	6.331271E-17	1.833053E-18
6.866145E+03	6.249128E-17	1.824957E-18
6.876053E+03	6.167939E-17	1.816785E-18
6.885961E+03	6.086746E-17	1.808255E-18
6.895868E+03	6.007645E-17	1.799988E-18
6.905776E+03	5.928665E-17	1.791400E-18
6.915684E+03	5.851838E-17	1.783105E-18
6.925592E+03	5.775239E-17	1.774523E-18
6.935500E+03	5.700839E-17	1.766263E-18
6.945408E+03	5.627693E-17	1.758042E-18
6.955316E+03	5.554898E-17	1.749582E-18
6.965223E+03	5.484342E-17	1.741480E-18
6.975131E+03	5.414200E-17	1.733166E-18
6.985039E+03	5.346307E-17	1.725234E-18
6.994947E+03	5.278876E-17	1.717115E-18
7.004855E+03	5.213690E-17	1.709396E-18
7.014763E+03	5.149002E-17	1.701513E-18
7.024671E+03	5.086547E-17	1.694047E-18
7.034578E+03	5.025452E-17	1.686719E-18
7.044486E+03	4.964890E-17	1.679258E-18
7.054394E+03	4.906522E-17	1.672233E-18
7.064302E+03	4.848695E-17	1.665091E-18
7.074210E+03	4.793029E-17	1.658396E-18
7.084118E+03	4.737907E-17	1.651598E-18
7.094026E+03	4.684906E-17	1.645256E-18
7.103933E+03	4.632443E-17	1.638823E-18
7.113841E+03	4.582057E-17	1.632852E-18
7.123749E+03	4.532198E-17	1.626801E-18
7.133657E+03	4.483619E-17	1.620946E-18
7.143565E+03	4.437046E-17	1.615560E-18
7.153473E+03	4.390970E-17	1.610104E-18
7.163381E+03	4.346848E-17	1.605120E-18
7.173288E+03	4.303199E-17	1.600071E-18
7.183196E+03	4.261449E-17	1.595495E-18
7.193104E+03	4.220146E-17	1.590858E-18
7.203012E+03	4.180686E-17	1.586693E-18
7.212920E+03	4.141643E-17	1.582469E-18
7.222828E+03	4.104386E-17	1.578715E-18
7.232736E+03	4.067512E-17	1.574902E-18
7.242643E+03	4.031694E-17	1.571294E-18
7.252551E+03	3.997573E-17	1.568151E-18
7.262459E+03	3.963784E-17	1.564947E-18
7.272367E+03	3.931635E-17	1.562203E-18
7.282275E+03	3.899781E-17	1.559394E-18
7.292183E+03	3.868861E-17	1.556780E-18
7.302091E+03	3.839493E-17	1.554618E-18
7.311998E+03	3.810360E-17	1.552382E-18
7.321906E+03	3.782722E-17	1.550592E-18
7.331814E+03	3.755280E-17	1.548721E-18
7.341722E+03	3.728648E-17	1.547028E-18
7.351630E+03	3.703420E-17	1.545766E-18
7.361538E+03	3.678328E-17	1.544411E-18
7.371446E+03	3.653969E-17	1.543220E-18
7.381353E+03	3.630928E-17	1.542444E-18
7.391261E+03	3.607956E-17	1.541560E-18
7.401169E+03	3.586244E-17	1.541081E-18
7.411077E+03	3.564561E-17	1.540484E-18
7.420985E+03	3.543482E-17	1.540019E-18
7.430893E+03	3.523577E-17	1.539940E-18
7.440801E+03	3.503633E-17	1.539722E-18
7.450708E+03	3.484218E-17	1.539617E-18
7.460616E+03	3.465888E-17	1.539875E-18
7.470524E+03	3.447453E-17	1.539972E-18
7.480432E+03	3.429469E-17	1.540159E-18
7.490340E+03	3.412484E-17	1.540685E-18
7.500248E+03	3.395325E-17	1.541025E-18
7.510156E+03	3.378540E-17	1.541429E-18
7.520063E+03	3.362104E-17	1.541888E-18
7.529971E+03	3.346553E-17	1.542651E-18
7.539879E+03	3.330736E-17	1.543191E-18
7.549787E+03	3.315189E-17	1.543758E-18
7.559695E+03	3.300442E-17	1.544600E-18
7.569603E+03	3.285360E-17	1.545189E-18
7.579511E+03	3.270472E-17	1.545774E-18
7.589418E+03	3.255753E-17	1.546345E-18
7.599326E+03	3.241722E-17	1.547150E-18
7.609234E+03	3.227264E-17	1.547659E-18
7.619142E+03	3.212900E-17	1.548121E-18
7.629050E+03	3.198607E-17	1.548525E-18
7.638958E+03	3.184894E-17	1.549121E-18
7.648866E+03	3.170665E-17	1.549376E-18
7.658773E+03	3.156433E-17	1.549539E-18
7.668681E+03	3.142177E-17	1.549600E-18
7.678589E+03	3.128398E-17	1.549807E-18
7.688497E+03	3.114021E-17	1.549629E-18
