#wls	flux	fluxerr
1.585257E+03	1.283163E-18	9.263015E-20
1.624889E+03	1.296858E-18	9.347611E-20
1.664520E+03	1.307890E-18	9.412348E-20
1.704151E+03	1.316147E-18	9.456497E-20
1.743783E+03	1.321446E-18	9.478820E-20
1.783414E+03	1.323128E-18	9.474692E-20
1.823046E+03	1.320271E-18	9.437644E-20
1.862677E+03	1.311792E-18	9.360101E-20
1.902309E+03	1.296583E-18	9.234408E-20
1.941940E+03	1.273897E-18	9.055512E-20
1.981571E+03	1.244314E-18	8.827849E-20
2.021203E+03	1.209968E-18	8.566837E-20
2.060834E+03	1.177060E-18	8.316527E-20
2.100466E+03	1.153635E-18	8.133601E-20
2.140097E+03	1.148473E-18	8.079420E-20
2.179729E+03	1.165538E-18	8.180937E-20
2.219360E+03	1.203795E-18	8.429824E-20
2.258991E+03	1.257350E-18	8.783810E-20
2.298623E+03	1.319236E-18	9.193493E-20
2.338254E+03	1.384512E-18	9.623994E-20
2.377886E+03	1.449631E-18	1.005046E-19
2.417517E+03	1.513051E-18	1.046211E-19
2.457149E+03	1.574395E-18	1.085635E-19
2.496780E+03	1.633934E-18	1.123504E-19
2.536411E+03	1.692542E-18	1.160419E-19
2.576043E+03	1.750315E-18	1.196441E-19
2.615674E+03	1.808253E-18	1.232244E-19
2.655306E+03	1.867380E-18	1.268513E-19
2.694937E+03	1.927711E-18	1.305237E-19
2.734569E+03	1.990207E-18	1.343047E-19
2.774200E+03	2.055865E-18	1.382583E-19
2.813831E+03	2.124972E-18	1.424004E-19
2.853463E+03	2.197781E-18	1.467440E-19
2.893094E+03	2.275725E-18	1.513799E-19
2.932726E+03	2.359127E-18	1.563243E-19
2.972357E+03	2.448310E-18	1.615922E-19
2.982265E+03	2.471775E-18	1.629764E-19
2.992173E+03	2.495691E-18	1.643863E-19
3.002081E+03	2.520073E-18	1.658227E-19
3.011989E+03	2.544948E-18	1.672872E-19
3.021896E+03	2.570379E-18	1.687837E-19
3.031804E+03	2.596482E-18	1.703198E-19
3.041712E+03	2.623124E-18	1.718866E-19
3.051620E+03	2.650527E-18	1.734984E-19
3.061528E+03	2.678678E-18	1.751542E-19
3.071436E+03	2.707569E-18	1.768533E-19
3.081344E+03	2.737190E-18	1.785948E-19
3.091251E+03	2.767538E-18	1.803784E-19
3.101159E+03	2.798610E-18	1.822036E-19
3.111067E+03	2.830406E-18	1.840702E-19
3.120975E+03	2.862926E-18	1.859781E-19
3.130883E+03	2.896175E-18	1.879273E-19
3.140791E+03	2.930159E-18	1.899181E-19
3.150699E+03	2.964884E-18	1.919506E-19
3.160606E+03	3.000358E-18	1.940252E-19
3.170514E+03	3.036595E-18	1.961424E-19
3.180422E+03	3.073605E-18	1.983027E-19
3.190330E+03	3.111402E-18	2.005069E-19
3.200238E+03	3.150003E-18	2.027557E-19
3.210146E+03	3.189423E-18	2.050499E-19
3.220054E+03	3.229682E-18	2.073905E-19
3.229961E+03	3.270799E-18	2.097785E-19
3.239869E+03	3.312796E-18	2.122150E-19
3.249777E+03	3.355694E-18	2.147012E-19
3.259685E+03	3.399519E-18	2.172383E-19
3.269593E+03	3.444295E-18	2.198277E-19
3.279501E+03	3.490049E-18	2.224708E-19
3.289409E+03	3.536809E-18	2.251690E-19
3.299316E+03	3.584604E-18	2.279239E-19
3.309224E+03	3.633465E-18	2.307371E-19
3.319132E+03	3.683423E-18	2.336102E-19
3.329040E+03	3.734511E-18	2.365451E-19
3.338948E+03	3.786765E-18	2.395436E-19
3.348856E+03	3.840219E-18	2.426075E-19
3.358763E+03	3.894910E-18	2.457387E-19
3.368671E+03	3.950877E-18	2.489393E-19
3.378579E+03	4.008158E-18	2.522114E-19
3.388487E+03	4.066796E-18	2.555571E-19
3.398395E+03	4.126831E-18	2.589786E-19
3.408303E+03	4.189042E-18	2.625241E-19
3.418211E+03	4.252015E-18	2.661047E-19
3.428118E+03	4.316521E-18	2.697681E-19
3.438026E+03	4.382608E-18	2.735168E-19
3.447934E+03	4.450323E-18	2.773532E-19
3.457842E+03	4.519717E-18	2.812801E-19
3.467750E+03	4.590843E-18	2.853001E-19
3.477658E+03	4.663752E-18	2.894158E-19
3.487566E+03	4.738501E-18	2.936301E-19
3.497473E+03	4.815143E-18	2.979458E-19
3.507381E+03	4.893739E-18	3.023659E-19
3.517289E+03	4.974345E-18	3.068933E-19
3.527197E+03	5.057024E-18	3.115310E-19
3.537105E+03	5.141836E-18	3.162822E-19
3.547013E+03	5.228846E-18	3.211501E-19
3.556921E+03	5.318119E-18	3.261378E-19
3.566828E+03	5.409721E-18	3.312487E-19
3.576736E+03	5.503720E-18	3.364862E-19
3.586644E+03	5.600189E-18	3.418538E-19
3.596552E+03	5.699191E-18	3.473545E-19
3.606460E+03	5.801823E-18	3.530541E-19
3.616368E+03	5.906144E-18	3.588335E-19
3.626276E+03	6.013230E-18	3.647574E-19
3.636183E+03	6.123154E-18	3.708292E-19
3.646091E+03	6.235999E-18	3.770528E-19
3.655999E+03	6.351838E-18	3.834317E-19
3.665907E+03	6.470762E-18	3.899701E-19
3.675815E+03	6.592856E-18	3.966722E-19
3.685723E+03	6.718190E-18	4.035408E-19
3.695631E+03	6.846866E-18	4.105811E-19
3.705538E+03	6.978960E-18	4.177963E-19
3.715446E+03	7.114567E-18	4.251907E-19
3.725354E+03	7.253774E-18	4.327684E-19
3.735262E+03	7.396671E-18	4.405332E-19
3.745170E+03	7.543347E-18	4.484891E-19
3.755078E+03	7.693892E-18	4.566400E-19
3.764986E+03	7.848410E-18	4.649906E-19
3.774893E+03	8.006981E-18	4.735440E-19
3.784801E+03	8.169703E-18	4.823045E-19
3.794709E+03	8.338113E-18	4.913611E-19
3.804617E+03	8.509442E-18	5.005488E-19
3.814525E+03	8.685204E-18	5.099552E-19
3.824433E+03	8.865482E-18	5.195835E-19
3.834341E+03	9.050368E-18	5.294372E-19
3.844248E+03	9.239964E-18	5.395204E-19
3.854156E+03	9.434338E-18	5.498353E-19
3.864064E+03	9.633595E-18	5.603860E-19
3.873972E+03	9.837805E-18	5.711745E-19
3.883880E+03	1.004706E-17	5.822040E-19
3.893788E+03	1.026142E-17	5.934769E-19
3.903696E+03	1.048099E-17	6.049954E-19
3.913603E+03	1.070581E-17	6.167611E-19
3.923511E+03	1.093596E-17	6.287758E-19
3.933419E+03	1.117150E-17	6.410406E-19
3.943327E+03	1.141249E-17	6.535565E-19
3.953235E+03	1.165896E-17	6.663240E-19
3.963143E+03	1.191097E-17	6.793428E-19
3.973051E+03	1.216855E-17	6.926124E-19
3.982958E+03	1.243171E-17	7.061321E-19
3.992866E+03	1.270049E-17	7.199000E-19
4.002774E+03	1.297488E-17	7.339143E-19
4.012682E+03	1.325487E-17	7.481715E-19
4.022590E+03	1.354044E-17	7.626685E-19
4.032498E+03	1.383158E-17	7.774010E-19
4.042406E+03	1.412823E-17	7.923634E-19
4.052313E+03	1.443033E-17	8.075505E-19
4.062221E+03	1.473779E-17	8.229544E-19
4.072129E+03	1.505054E-17	8.385680E-19
4.082037E+03	1.536844E-17	8.543822E-19
4.091945E+03	1.569138E-17	8.703870E-19
4.101853E+03	1.601918E-17	8.865709E-19
4.111761E+03	1.635168E-17	9.029217E-19
4.121668E+03	1.668866E-17	9.194257E-19
4.131576E+03	1.702989E-17	9.360676E-19
4.141484E+03	1.737512E-17	9.528314E-19
4.151392E+03	1.772404E-17	9.696983E-19
4.161300E+03	1.807635E-17	9.866488E-19
4.171208E+03	1.843167E-17	1.003661E-18
4.181116E+03	1.878962E-17	1.020713E-18
4.191023E+03	1.914975E-17	1.037777E-18
4.200931E+03	1.951160E-17	1.054828E-18
4.210839E+03	1.987464E-17	1.071835E-18
4.220747E+03	2.023829E-17	1.088767E-18
4.230655E+03	2.060193E-17	1.105588E-18
4.240563E+03	2.096489E-17	1.122262E-18
4.250471E+03	2.132641E-17	1.138749E-18
4.260378E+03	2.168569E-17	1.155005E-18
4.270286E+03	2.204184E-17	1.170983E-18
4.280194E+03	2.239389E-17	1.186634E-18
4.290102E+03	2.274080E-17	1.201901E-18
4.300010E+03	2.308141E-17	1.216726E-18
4.309918E+03	2.341447E-17	1.231045E-18
4.319826E+03	2.373865E-17	1.244791E-18
4.329733E+03	2.405254E-17	1.257893E-18
4.339641E+03	2.435057E-17	1.270063E-18
4.349549E+03	2.464000E-17	1.281687E-18
4.359457E+03	2.491618E-17	1.292525E-18
4.369365E+03	2.517922E-17	1.302589E-18
4.379273E+03	2.542957E-17	1.311906E-18
4.389181E+03	2.566782E-17	1.320512E-18
4.399088E+03	2.589458E-17	1.328443E-18
4.408996E+03	2.611046E-17	1.335734E-18
4.418904E+03	2.631603E-17	1.342420E-18
4.428812E+03	2.651186E-17	1.348533E-18
4.438720E+03	2.669848E-17	1.354103E-18
4.448628E+03	2.687179E-17	1.358928E-18
4.458536E+03	2.704151E-17	1.363502E-18
4.468443E+03	2.720353E-17	1.367621E-18
4.478351E+03	2.735833E-17	1.371311E-18
4.488259E+03	2.750637E-17	1.374599E-18
4.498167E+03	2.764810E-17	1.377509E-18
4.508075E+03	2.778396E-17	1.380066E-18
4.517983E+03	2.791440E-17	1.382295E-18
4.527891E+03	2.803501E-17	1.383980E-18
4.537798E+03	2.815582E-17	1.385620E-18
4.547706E+03	2.827246E-17	1.386998E-18
4.557614E+03	2.838531E-17	1.388137E-18
4.567522E+03	2.849478E-17	1.389056E-18
4.577430E+03	2.860124E-17	1.389777E-18
4.587338E+03	2.870015E-17	1.390078E-18
4.597246E+03	2.880173E-17	1.390458E-18
4.607153E+03	2.890141E-17	1.390696E-18
4.617061E+03	2.899955E-17	1.390809E-18
4.626969E+03	2.909650E-17	1.390814E-18
4.636877E+03	2.918758E-17	1.390489E-18
4.646785E+03	2.928313E-17	1.390328E-18
4.656693E+03	2.937849E-17	1.390107E-18
4.666601E+03	2.947395E-17	1.389841E-18
4.676508E+03	2.956984E-17	1.389543E-18
4.686416E+03	2.966135E-17	1.388991E-18
4.696324E+03	2.975895E-17	1.388672E-18
4.706232E+03	2.985783E-17	1.388362E-18
4.716140E+03	2.995828E-17	1.388071E-18
4.726048E+03	3.006055E-17	1.387811E-18
4.735956E+03	3.015975E-17	1.387357E-18
4.745863E+03	3.026642E-17	1.387191E-18
4.755771E+03	3.037568E-17	1.387089E-18
4.765679E+03	3.048774E-17	1.387057E-18
4.775587E+03	3.059761E-17	1.386868E-18
4.785495E+03	3.071595E-17	1.387004E-18
4.795403E+03	3.083776E-17	1.387236E-18
4.805311E+03	3.095794E-17	1.387334E-18
4.815218E+03	3.108726E-17	1.387778E-18
4.825126E+03	3.122063E-17	1.388338E-18
4.835034E+03	3.135823E-17	1.389019E-18
4.844942E+03	3.149485E-17	1.389589E-18
4.854850E+03	3.164140E-17	1.390528E-18
4.864758E+03	3.179267E-17	1.391602E-18
4.874666E+03	3.194335E-17	1.392578E-18
4.884573E+03	3.210448E-17	1.393934E-18
4.894481E+03	3.227075E-17	1.395435E-18
4.904389E+03	3.243675E-17	1.396846E-18
4.914297E+03	3.261364E-17	1.398645E-18
4.924205E+03	3.279604E-17	1.400596E-18
4.934113E+03	3.297839E-17	1.402459E-18
4.944021E+03	3.317203E-17	1.404715E-18
4.953928E+03	3.337144E-17	1.407124E-18
4.963836E+03	3.357096E-17	1.409446E-18
4.973744E+03	3.378208E-17	1.412161E-18
4.983652E+03	3.399916E-17	1.415027E-18
4.993560E+03	3.421641E-17	1.417800E-18
5.003468E+03	3.444550E-17	1.420963E-18
5.013376E+03	3.467473E-17	1.424028E-18
5.023283E+03	3.491592E-17	1.427477E-18
5.033191E+03	3.516319E-17	1.431065E-18
5.043099E+03	3.541049E-17	1.434543E-18
5.053007E+03	3.566985E-17	1.438395E-18
5.062915E+03	3.592909E-17	1.442126E-18
5.072823E+03	3.620040E-17	1.446223E-18
5.082731E+03	3.647763E-17	1.450434E-18
5.092638E+03	3.675442E-17	1.454505E-18
5.102546E+03	3.704321E-17	1.458924E-18
5.112454E+03	3.733129E-17	1.463188E-18
5.122362E+03	3.763123E-17	1.467786E-18
5.132270E+03	3.793013E-17	1.472211E-18
5.142178E+03	3.824074E-17	1.476955E-18
5.152086E+03	3.854988E-17	1.481506E-18
5.161993E+03	3.887050E-17	1.486359E-18
5.171901E+03	3.919589E-17	1.491252E-18
5.181809E+03	3.951910E-17	1.495920E-18
5.191717E+03	3.985334E-17	1.500861E-18
5.201625E+03	4.018484E-17	1.505552E-18
5.211533E+03	4.052700E-17	1.510496E-18
5.221441E+03	4.086580E-17	1.515165E-18
5.231348E+03	4.121484E-17	1.520063E-18
5.241256E+03	4.155986E-17	1.524662E-18
5.251164E+03	4.191466E-17	1.529466E-18
5.261072E+03	4.226471E-17	1.533944E-18
5.270980E+03	4.261680E-17	1.538343E-18
5.280888E+03	4.297793E-17	1.542914E-18
5.290796E+03	4.333322E-17	1.547120E-18
5.300703E+03	4.369705E-17	1.551475E-18
5.310611E+03	4.405432E-17	1.555441E-18
5.320519E+03	4.441967E-17	1.559537E-18
5.330427E+03	4.477776E-17	1.563223E-18
5.340335E+03	4.514356E-17	1.567023E-18
5.350243E+03	4.550154E-17	1.570396E-18
5.360151E+03	4.585914E-17	1.573604E-18
5.370058E+03	4.622410E-17	1.576911E-18
5.379966E+03	4.658066E-17	1.579778E-18
5.389874E+03	4.694460E-17	1.582744E-18
5.399782E+03	4.730001E-17	1.585272E-18
5.409690E+03	4.765493E-17	1.587634E-18
5.419598E+03	4.801766E-17	1.590108E-18
5.429506E+03	4.837207E-17	1.592158E-18
5.439413E+03	4.873468E-17	1.594331E-18
5.449321E+03	4.908899E-17	1.596086E-18
5.459229E+03	4.944310E-17	1.597690E-18
5.469137E+03	4.980524E-17	1.599411E-18
5.479045E+03	5.015829E-17	1.600696E-18
5.488953E+03	5.051040E-17	1.601812E-18
5.498861E+03	5.087003E-17	1.603027E-18
5.508768E+03	5.121977E-17	1.603793E-18
5.518676E+03	5.156812E-17	1.604381E-18
5.528584E+03	5.192387E-17	1.605066E-18
5.538492E+03	5.226938E-17	1.605303E-18
5.548400E+03	5.261351E-17	1.605368E-18
5.558308E+03	5.296536E-17	1.605541E-18
5.568216E+03	5.330711E-17	1.605280E-18
5.578123E+03	5.364790E-17	1.604868E-18
5.588031E+03	5.399713E-17	1.604586E-18
5.597939E+03	5.433675E-17	1.603897E-18
5.607847E+03	5.467616E-17	1.603084E-18
5.617755E+03	5.501566E-17	1.602158E-18
5.627663E+03	5.536499E-17	1.601403E-18
5.637571E+03	5.570570E-17	1.600284E-18
5.647478E+03	5.604750E-17	1.599086E-18
5.657386E+03	5.640032E-17	1.598092E-18
5.667294E+03	5.674543E-17	1.596770E-18
5.677202E+03	5.709270E-17	1.595403E-18
5.687110E+03	5.744251E-17	1.594003E-18
5.697018E+03	5.779520E-17	1.592581E-18
5.706926E+03	5.816104E-17	1.591418E-18
5.716833E+03	5.852066E-17	1.589984E-18
5.726741E+03	5.888425E-17	1.588560E-18
5.736649E+03	5.925214E-17	1.587156E-18
5.746557E+03	5.963480E-17	1.586052E-18
5.756465E+03	6.001236E-17	1.584717E-18
5.766373E+03	6.039519E-17	1.583431E-18
5.776281E+03	6.078358E-17	1.582202E-18
5.786188E+03	6.117784E-17	1.581039E-18
5.796096E+03	6.158867E-17	1.580218E-18
5.806004E+03	6.199548E-17	1.579209E-18
5.815912E+03	6.240889E-17	1.578289E-18
5.825820E+03	6.282912E-17	1.577463E-18
5.835728E+03	6.325635E-17	1.576739E-18
5.845636E+03	6.369078E-17	1.576122E-18
5.855543E+03	6.414342E-17	1.575886E-18
5.865451E+03	6.459268E-17	1.575499E-18
5.875359E+03	6.504951E-17	1.575236E-18
5.885267E+03	6.551395E-17	1.575101E-18
5.895175E+03	6.598605E-17	1.575096E-18
5.905083E+03	6.646584E-17	1.575227E-18
5.914991E+03	6.695329E-17	1.575497E-18
5.924898E+03	6.744834E-17	1.575907E-18
5.934806E+03	6.796247E-17	1.576730E-18
5.944714E+03	6.847255E-17	1.577432E-18
5.954622E+03	6.898987E-17	1.578282E-18
5.964530E+03	6.951426E-17	1.579282E-18
5.974438E+03	7.004547E-17	1.580433E-18
5.984346E+03	7.058321E-17	1.581737E-18
5.994253E+03	7.112718E-17	1.583194E-18
6.004161E+03	7.167701E-17	1.584804E-18
6.014069E+03	7.223227E-17	1.586566E-18
6.023977E+03	7.279252E-17	1.588482E-18
6.033885E+03	7.335723E-17	1.590550E-18
6.043793E+03	7.392584E-17	1.592768E-18
6.053701E+03	7.449774E-17	1.595136E-18
6.063608E+03	7.508501E-17	1.597923E-18
6.073516E+03	7.566151E-17	1.600585E-18
6.083424E+03	7.623912E-17	1.603390E-18
6.093332E+03	7.681699E-17	1.606335E-18
6.103240E+03	7.739422E-17	1.609416E-18
6.113148E+03	7.796986E-17	1.612630E-18
6.123056E+03	7.854289E-17	1.615972E-18
6.132963E+03	7.911222E-17	1.619439E-18
6.142871E+03	7.967674E-17	1.623024E-18
6.152779E+03	8.023524E-17	1.626721E-18
6.162687E+03	8.078647E-17	1.630525E-18
6.172595E+03	8.132915E-17	1.634429E-18
6.182503E+03	8.186191E-17	1.638425E-18
6.192411E+03	8.238336E-17	1.642506E-18
6.202318E+03	8.289204E-17	1.646662E-18
6.212226E+03	8.338650E-17	1.650886E-18
6.222134E+03	8.386521E-17	1.655166E-18
6.232042E+03	8.432662E-17	1.659494E-18
6.241950E+03	8.476919E-17	1.663858E-18
6.251858E+03	8.519136E-17	1.668246E-18
6.261766E+03	8.559155E-17	1.672649E-18
6.271673E+03	8.595362E-17	1.676768E-18
6.281581E+03	8.630518E-17	1.681161E-18
6.291489E+03	8.663022E-17	1.685531E-18
6.301397E+03	8.692729E-17	1.689865E-18
6.311305E+03	8.719505E-17	1.694153E-18
6.321213E+03	8.743223E-17	1.698382E-18
6.331121E+03	8.763766E-17	1.702540E-18
6.341028E+03	8.781034E-17	1.706619E-18
6.350936E+03	8.794940E-17	1.710608E-18
6.360844E+03	8.805415E-17	1.714489E-18
6.370752E+03	8.812406E-17	1.718244E-18
6.380660E+03	8.815878E-17	1.721856E-18
6.390568E+03	8.815808E-17	1.725311E-18
6.400476E+03	8.810695E-17	1.728300E-18
6.410383E+03	8.803543E-17	1.731397E-18
6.420291E+03	8.792875E-17	1.734296E-18
6.430199E+03	8.778720E-17	1.736985E-18
6.440107E+03	8.761107E-17	1.739452E-18
6.450015E+03	8.740070E-17	1.741682E-18
6.459923E+03	8.715634E-17	1.743660E-18
6.469831E+03	8.687827E-17	1.745366E-18
6.479738E+03	8.655211E-17	1.746489E-18
6.489646E+03	8.620774E-17	1.747605E-18
6.499554E+03	8.583079E-17	1.748400E-18
6.509462E+03	8.542166E-17	1.748857E-18
6.519370E+03	8.498069E-17	1.748955E-18
6.529278E+03	8.450827E-17	1.748677E-18
6.539186E+03	8.399058E-17	1.747706E-18
6.549093E+03	8.345677E-17	1.746619E-18
6.559001E+03	8.289316E-17	1.745107E-18
6.568909E+03	8.230055E-17	1.743156E-18
6.578817E+03	8.167987E-17	1.740760E-18
6.588725E+03	8.103218E-17	1.737912E-18
6.598633E+03	8.034505E-17	1.734317E-18
6.608541E+03	7.964721E-17	1.730565E-18
6.618448E+03	7.892631E-17	1.726366E-18
6.628356E+03	7.818384E-17	1.721726E-18
6.638264E+03	7.742139E-17	1.716654E-18
6.648172E+03	7.662754E-17	1.710872E-18
6.658080E+03	7.583012E-17	1.704976E-18
6.667988E+03	7.501767E-17	1.698688E-18
6.677896E+03	7.419184E-17	1.692026E-18
6.687803E+03	7.335430E-17	1.685006E-18
6.697711E+03	7.249439E-17	1.677364E-18
6.707619E+03	7.163847E-17	1.669690E-18
6.717527E+03	7.077570E-17	1.661717E-18
6.727435E+03	6.990757E-17	1.653466E-18
6.737343E+03	6.902384E-17	1.644678E-18
6.747251E+03	6.814954E-17	1.635935E-18
6.757158E+03	6.727415E-17	1.626976E-18
6.767066E+03	6.639895E-17	1.617822E-18
6.776974E+03	6.551405E-17	1.608220E-18
6.786882E+03	6.464303E-17	1.598739E-18
6.796790E+03	6.377569E-17	1.589123E-18
6.806698E+03	6.291306E-17	1.579391E-18
6.816606E+03	6.204555E-17	1.569295E-18
6.826513E+03	6.119531E-17	1.559390E-18
6.836421E+03	6.035244E-17	1.549423E-18
6.846329E+03	5.950759E-17	1.539151E-18
6.856237E+03	5.868187E-17	1.529115E-18
6.866145E+03	5.786562E-17	1.519067E-18
6.876053E+03	5.705944E-17	1.509022E-18
6.885961E+03	5.625429E-17	1.498739E-18
6.895868E+03	5.546991E-17	1.488744E-18
6.905776E+03	5.469701E-17	1.478794E-18
6.915684E+03	5.392680E-17	1.468650E-18
6.925592E+03	5.317807E-17	1.458826E-18
6.935500E+03	5.244180E-17	1.449081E-18
6.945408E+03	5.170943E-17	1.439180E-18
6.955316E+03	5.099887E-17	1.429624E-18
6.965223E+03	5.030139E-17	1.420177E-18
6.975131E+03	4.960865E-17	1.410606E-18
6.985039E+03	4.893775E-17	1.401401E-18
6.994947E+03	4.828021E-17	1.392327E-18
7.004855E+03	4.762795E-17	1.383156E-18
7.014763E+03	4.699730E-17	1.374366E-18
7.024671E+03	4.638003E-17	1.365725E-18
7.034578E+03	4.576832E-17	1.357009E-18
7.044486E+03	4.517780E-17	1.348684E-18
7.054394E+03	4.460050E-17	1.340522E-18
7.064302E+03	4.402883E-17	1.332300E-18
7.074210E+03	4.347776E-17	1.324478E-18
7.084118E+03	4.293227E-17	1.316603E-18
7.094026E+03	4.240694E-17	1.309130E-18
7.103933E+03	4.189420E-17	1.301833E-18
7.113841E+03	4.138686E-17	1.294495E-18
7.123749E+03	4.089894E-17	1.287559E-18
7.133657E+03	4.042310E-17	1.280805E-18
7.143565E+03	3.995235E-17	1.274014E-18
7.153473E+03	3.950020E-17	1.267624E-18
7.163381E+03	3.905290E-17	1.261200E-18
7.173288E+03	3.862364E-17	1.255174E-18
7.183196E+03	3.820547E-17	1.249329E-18
7.193104E+03	3.779172E-17	1.243452E-18
7.203012E+03	3.739515E-17	1.237968E-18
7.212920E+03	3.700270E-17	1.232451E-18
7.222828E+03	3.662684E-17	1.227321E-18
7.232736E+03	3.625477E-17	1.222156E-18
7.242643E+03	3.589870E-17	1.217374E-18
7.252551E+03	3.555216E-17	1.212762E-18
7.262459E+03	3.520889E-17	1.208111E-18
7.272367E+03	3.488074E-17	1.203832E-18
7.282275E+03	3.455553E-17	1.199511E-18
7.292183E+03	3.424486E-17	1.195555E-18
7.302091E+03	3.393677E-17	1.191552E-18
7.311998E+03	3.364263E-17	1.187905E-18
7.321906E+03	3.335070E-17	1.184206E-18
7.331814E+03	3.307216E-17	1.180855E-18
7.341722E+03	3.280106E-17	1.177646E-18
7.351630E+03	3.253160E-17	1.174375E-18
7.361538E+03	3.227471E-17	1.171439E-18
7.371446E+03	3.201908E-17	1.168433E-18
7.381353E+03	3.177547E-17	1.165753E-18
7.391261E+03	3.153276E-17	1.162994E-18
7.401169E+03	3.130152E-17	1.160551E-18
7.411077E+03	3.107080E-17	1.158021E-18
7.420985E+03	3.085103E-17	1.155796E-18
7.430893E+03	3.063140E-17	1.153475E-18
7.440801E+03	3.042219E-17	1.151447E-18
7.450708E+03	3.021276E-17	1.149314E-18
7.460616E+03	3.001324E-17	1.147463E-18
7.470524E+03	2.981313E-17	1.145496E-18
7.480432E+03	2.962241E-17	1.143799E-18
7.490340E+03	2.943073E-17	1.141975E-18
7.500248E+03	2.924796E-17	1.140409E-18
7.510156E+03	2.906385E-17	1.138704E-18
7.520063E+03	2.888817E-17	1.137245E-18
7.529971E+03	2.871080E-17	1.135636E-18
7.539879E+03	2.854138E-17	1.134259E-18
7.549787E+03	2.836990E-17	1.132719E-18
7.559695E+03	2.820109E-17	1.131206E-18
7.569603E+03	2.803952E-17	1.129905E-18
7.579511E+03	2.787539E-17	1.128423E-18
7.589418E+03	2.771805E-17	1.127139E-18
7.599326E+03	2.755781E-17	1.125662E-18
7.609234E+03	2.740394E-17	1.124370E-18
7.619142E+03	2.724683E-17	1.122871E-18
7.629050E+03	2.709567E-17	1.121544E-18
7.638958E+03	2.694096E-17	1.119998E-18
7.648866E+03	2.678719E-17	1.118417E-18
7.658773E+03	2.663875E-17	1.116988E-18
7.668681E+03	2.648632E-17	1.115320E-18
7.678589E+03	2.633884E-17	1.113790E-18
7.688497E+03	2.618709E-17	1.112009E-18
