#wls	flux	fluxerr
1.599984E+03	2.200686E-03	2.119438E-05
1.639984E+03	2.251030E-03	2.153015E-05
1.679983E+03	2.297054E-03	2.181478E-05
1.719983E+03	2.338029E-03	2.204201E-05
1.759982E+03	2.373175E-03	2.220536E-05
1.799982E+03	2.401690E-03	2.229840E-05
1.839982E+03	2.422752E-03	2.231479E-05
1.879981E+03	2.435500E-03	2.224820E-05
1.919981E+03	2.439076E-03	2.209261E-05
1.959980E+03	2.432600E-03	2.184216E-05
1.999980E+03	2.415167E-03	2.149119E-05
2.039980E+03	2.385871E-03	2.103437E-05
2.079979E+03	2.343832E-03	2.046706E-05
2.119979E+03	2.288328E-03	1.978639E-05
2.159978E+03	2.218491E-03	1.898864E-05
2.199978E+03	2.133398E-03	1.807009E-05
2.239978E+03	2.032511E-03	1.703072E-05
2.279977E+03	1.917315E-03	1.588767E-05
2.319977E+03	1.791949E-03	1.467939E-05
2.359976E+03	1.661680E-03	1.345211E-05
2.399976E+03	1.534107E-03	1.226868E-05
2.439976E+03	1.420094E-03	1.121480E-05
2.479975E+03	1.333031E-03	1.039141E-05
2.519975E+03	1.287247E-03	9.900945E-06
2.559974E+03	1.296698E-03	9.836681E-06
2.599974E+03	1.375253E-03	1.028478E-05
2.639974E+03	1.533515E-03	1.130066E-05
2.679973E+03	1.767585E-03	1.282899E-05
2.719973E+03	2.046966E-03	1.462529E-05
2.759972E+03	2.316856E-03	1.628742E-05
2.799972E+03	2.520470E-03	1.742462E-05
2.839972E+03	2.624811E-03	1.783482E-05
2.879971E+03	2.629543E-03	1.755055E-05
2.919971E+03	2.557606E-03	1.675813E-05
2.959970E+03	2.441661E-03	1.569606E-05
2.999970E+03	2.313719E-03	1.458312E-05
3.009970E+03	2.282844E-03	1.431627E-05
3.019970E+03	2.252994E-03	1.405754E-05
3.029970E+03	2.224393E-03	1.380823E-05
3.039970E+03	2.197222E-03	1.356935E-05
3.049970E+03	2.171614E-03	1.334159E-05
3.059969E+03	2.147681E-03	1.312549E-05
3.069969E+03	2.125499E-03	1.292136E-05
3.079969E+03	2.105102E-03	1.272926E-05
3.089969E+03	2.086496E-03	1.254903E-05
3.099969E+03	2.069649E-03	1.238034E-05
3.109969E+03	2.054484E-03	1.222255E-05
3.119969E+03	2.040890E-03	1.207486E-05
3.129969E+03	2.028718E-03	1.193623E-05
3.139969E+03	2.017778E-03	1.180542E-05
3.149969E+03	2.007856E-03	1.168107E-05
3.159968E+03	1.998712E-03	1.156169E-05
3.169968E+03	1.990083E-03	1.144570E-05
3.179968E+03	1.981707E-03	1.133156E-05
3.189968E+03	1.973328E-03	1.121778E-05
3.199968E+03	1.964702E-03	1.110300E-05
3.209968E+03	1.955596E-03	1.098593E-05
3.219968E+03	1.945826E-03	1.086560E-05
3.229968E+03	1.935217E-03	1.074111E-05
3.239968E+03	1.923659E-03	1.061195E-05
3.249968E+03	1.911052E-03	1.047766E-05
3.259967E+03	1.897339E-03	1.033805E-05
3.269967E+03	1.882473E-03	1.019299E-05
3.279967E+03	1.866427E-03	1.004245E-05
3.289967E+03	1.849170E-03	9.886391E-06
3.299967E+03	1.830671E-03	9.724781E-06
3.309967E+03	1.810899E-03	9.557596E-06
3.319967E+03	1.789846E-03	9.384928E-06
3.329967E+03	1.767503E-03	9.206870E-06
3.339967E+03	1.743890E-03	9.023663E-06
3.349967E+03	1.719049E-03	8.835672E-06
3.359966E+03	1.693052E-03	8.643388E-06
3.369966E+03	1.665963E-03	8.447271E-06
3.379966E+03	1.637874E-03	8.247906E-06
3.389966E+03	1.608871E-03	8.045831E-06
3.399966E+03	1.579063E-03	7.841698E-06
3.409966E+03	1.548599E-03	7.636326E-06
3.419966E+03	1.517667E-03	7.430722E-06
3.429966E+03	1.486557E-03	7.226343E-06
3.439966E+03	1.455639E-03	7.025008E-06
3.449966E+03	1.425418E-03	6.829117E-06
3.459965E+03	1.396511E-03	6.641544E-06
3.469965E+03	1.369682E-03	6.465765E-06
3.479965E+03	1.345805E-03	6.305658E-06
3.489965E+03	1.325854E-03	6.165444E-06
3.499965E+03	1.310869E-03	6.049522E-06
3.509965E+03	1.301858E-03	5.961976E-06
3.519965E+03	1.299673E-03	5.906060E-06
3.529965E+03	1.304801E-03	5.883247E-06
3.539965E+03	1.317035E-03	5.891838E-06
3.549965E+03	1.334985E-03	5.924915E-06
3.559964E+03	1.355470E-03	5.967864E-06
3.569964E+03	1.373042E-03	5.996637E-06
3.579964E+03	1.380468E-03	5.980205E-06
3.589964E+03	1.372394E-03	5.896647E-06
3.599964E+03	1.351177E-03	5.757654E-06
3.609964E+03	1.314822E-03	5.556192E-06
3.619964E+03	1.266682E-03	5.307920E-06
3.629964E+03	1.213988E-03	5.044138E-06
3.639964E+03	1.162619E-03	4.789549E-06
3.649964E+03	1.116146E-03	4.558592E-06
3.659963E+03	1.076238E-03	4.357514E-06
3.669963E+03	1.043340E-03	4.187401E-06
3.679963E+03	1.017215E-03	4.046571E-06
3.689963E+03	9.972922E-04	3.932051E-06
3.699963E+03	9.829040E-04	3.840578E-06
3.709963E+03	9.734138E-04	3.769102E-06
3.719963E+03	9.682851E-04	3.715046E-06
3.729963E+03	9.671228E-04	3.676449E-06
3.739963E+03	9.697216E-04	3.652120E-06
3.749963E+03	9.760591E-04	3.641580E-06
3.759962E+03	9.863207E-04	3.645123E-06
3.769962E+03	1.000883E-03	3.663719E-06
3.779962E+03	1.020299E-03	3.698918E-06
3.789962E+03	1.045225E-03	3.752574E-06
3.799962E+03	1.076369E-03	3.826631E-06
3.809962E+03	1.114455E-03	3.922993E-06
3.819962E+03	1.159984E-03	4.042682E-06
3.829962E+03	1.212765E-03	4.184275E-06
3.839962E+03	1.272118E-03	4.344706E-06
3.849962E+03	1.336856E-03	4.519288E-06
3.859961E+03	1.404723E-03	4.699935E-06
3.869961E+03	1.472775E-03	4.876593E-06
3.879961E+03	1.537982E-03	5.039346E-06
3.889961E+03	1.598102E-03	5.181245E-06
3.899961E+03	1.651461E-03	5.297472E-06
3.909961E+03	1.697406E-03	5.386683E-06
3.919961E+03	1.737558E-03	5.454757E-06
3.929961E+03	1.774850E-03	5.511420E-06
3.939961E+03	1.812771E-03	5.567715E-06
3.949961E+03	1.855036E-03	5.634893E-06
3.959960E+03	1.905494E-03	5.724112E-06
3.969960E+03	1.967290E-03	5.843934E-06
3.979960E+03	2.040753E-03	5.994231E-06
3.989960E+03	2.124637E-03	6.170290E-06
3.999960E+03	2.216250E-03	6.363414E-06
4.009960E+03	2.310443E-03	6.558310E-06
4.019960E+03	2.399994E-03	6.734548E-06
4.029960E+03	2.476499E-03	6.869361E-06
4.039960E+03	2.532332E-03	6.943193E-06
4.049960E+03	2.560302E-03	6.938623E-06
4.059959E+03	2.554951E-03	6.843746E-06
4.069959E+03	2.515476E-03	6.659618E-06
4.079959E+03	2.444056E-03	6.395138E-06
4.089959E+03	2.345532E-03	6.065756E-06
4.099959E+03	2.228363E-03	5.695523E-06
4.109959E+03	2.101902E-03	5.309667E-06
4.119959E+03	1.975244E-03	4.931627E-06
4.129959E+03	1.857376E-03	4.583492E-06
4.139959E+03	1.755964E-03	4.283088E-06
4.149959E+03	1.676702E-03	4.042639E-06
4.159958E+03	1.623158E-03	3.868711E-06
4.169958E+03	1.598478E-03	3.766551E-06
4.179958E+03	1.605113E-03	3.739528E-06
4.189958E+03	1.642541E-03	3.783992E-06
4.199958E+03	1.710149E-03	3.896255E-06
4.209958E+03	1.807418E-03	4.073017E-06
4.219958E+03	1.930442E-03	4.303597E-06
4.229958E+03	2.073394E-03	4.573574E-06
4.239958E+03	2.229385E-03	4.866866E-06
4.249958E+03	2.390803E-03	5.166531E-06
4.259957E+03	2.548734E-03	5.453577E-06
4.269957E+03	2.693753E-03	5.708701E-06
4.279957E+03	2.818734E-03	5.918179E-06
4.289957E+03	2.916811E-03	6.069308E-06
4.299957E+03	2.981390E-03	6.150354E-06
4.309957E+03	3.010087E-03	6.158507E-06
4.319957E+03	3.001292E-03	6.092503E-06
4.329957E+03	2.954564E-03	5.953319E-06
4.339957E+03	2.874962E-03	5.752734E-06
4.349957E+03	2.769509E-03	5.505930E-06
4.359956E+03	2.648848E-03	5.234682E-06
4.369956E+03	2.533625E-03	4.979792E-06
4.379956E+03	2.447761E-03	4.787546E-06
4.389956E+03	2.418315E-03	4.709566E-06
4.399956E+03	2.444824E-03	4.743479E-06
4.409956E+03	2.497331E-03	4.830273E-06
4.419956E+03	2.553297E-03	4.926223E-06
4.429956E+03	2.606929E-03	5.020308E-06
4.439956E+03	2.658206E-03	5.112639E-06
4.449956E+03	2.707994E-03	5.205004E-06
4.459955E+03	2.757270E-03	5.299382E-06
4.469955E+03	2.805376E-03	5.394584E-06
4.479955E+03	2.849890E-03	5.486009E-06
4.489955E+03	2.888444E-03	5.569115E-06
4.499955E+03	2.916767E-03	5.635604E-06
4.509955E+03	2.929027E-03	5.674035E-06
4.519955E+03	2.920725E-03	5.675347E-06
4.529955E+03	2.887234E-03	5.630014E-06
4.539955E+03	2.824292E-03	5.528983E-06
4.549955E+03	2.730174E-03	5.367914E-06
4.559954E+03	2.605279E-03	5.146470E-06
4.569954E+03	2.452997E-03	4.870149E-06
4.579954E+03	2.281058E-03	4.553137E-06
4.589954E+03	2.099569E-03	4.214658E-06
4.599954E+03	1.919306E-03	3.875721E-06
4.609954E+03	1.750041E-03	3.555828E-06
4.619954E+03	1.600737E-03	3.273370E-06
4.629954E+03	1.478054E-03	3.042545E-06
4.639954E+03	1.384257E-03	2.868898E-06
4.649954E+03	1.321311E-03	2.757566E-06
4.659953E+03	1.291155E-03	2.713843E-06
4.669953E+03	1.292869E-03	2.737166E-06
4.679953E+03	1.326532E-03	2.829125E-06
4.689953E+03	1.393421E-03	2.993951E-06
4.699953E+03	1.492818E-03	3.231696E-06
4.709953E+03	1.623171E-03	3.540596E-06
4.719953E+03	1.782147E-03	3.917106E-06
4.729953E+03	1.965463E-03	4.353234E-06
4.739953E+03	2.165267E-03	4.832750E-06
4.749953E+03	2.370254E-03	5.331130E-06
4.759952E+03	2.571626E-03	5.828741E-06
4.769952E+03	2.759581E-03	6.303035E-06
4.779952E+03	2.923571E-03	6.729038E-06
4.789952E+03	3.058542E-03	7.093754E-06
4.799952E+03	3.161890E-03	7.389535E-06
4.809952E+03	3.232557E-03	7.612173E-06
4.819952E+03	3.273624E-03	7.767189E-06
4.829952E+03	3.289315E-03	7.863059E-06
4.839952E+03	3.283931E-03	7.908729E-06
4.849952E+03	3.262635E-03	7.915563E-06
4.859951E+03	3.230170E-03	7.894256E-06
4.869951E+03	3.190520E-03	7.853988E-06
4.879951E+03	3.146489E-03	7.801299E-06
4.889951E+03	3.100124E-03	7.741036E-06
4.899951E+03	3.052629E-03	7.676085E-06
4.909951E+03	3.004279E-03	7.607068E-06
4.919951E+03	2.954397E-03	7.532194E-06
4.929951E+03	2.901896E-03	7.448588E-06
4.939951E+03	2.846338E-03	7.354975E-06
4.949951E+03	2.787087E-03	7.249542E-06
4.959950E+03	2.723584E-03	7.130636E-06
4.969950E+03	2.657185E-03	7.001621E-06
4.979950E+03	2.589563E-03	6.866796E-06
4.989950E+03	2.522367E-03	6.730516E-06
4.999950E+03	2.457582E-03	6.598148E-06
5.009950E+03	2.397396E-03	6.475732E-06
5.019950E+03	2.343869E-03	6.369118E-06
5.029950E+03	2.297826E-03	6.280892E-06
5.039950E+03	2.259891E-03	6.213148E-06
5.049950E+03	2.230548E-03	6.167621E-06
5.059949E+03	2.209640E-03	6.144292E-06
5.069949E+03	2.196470E-03	6.141613E-06
5.079949E+03	2.190054E-03	6.157180E-06
5.089949E+03	2.189544E-03	6.188905E-06
5.099949E+03	2.193772E-03	6.233736E-06
5.109949E+03	2.201308E-03	6.287802E-06
5.119949E+03	2.211065E-03	6.348125E-06
5.129949E+03	2.221925E-03	6.411573E-06
5.139949E+03	2.232891E-03	6.475296E-06
5.149949E+03	2.243418E-03	6.537713E-06
5.159948E+03	2.253184E-03	6.597855E-06
5.169948E+03	2.261709E-03	6.654279E-06
5.179948E+03	2.267626E-03	6.702890E-06
5.189948E+03	2.269526E-03	6.739397E-06
5.199948E+03	2.266235E-03	6.760142E-06
5.209948E+03	2.257031E-03	6.762757E-06
5.219948E+03	2.241523E-03	6.745834E-06
5.229948E+03	2.219977E-03	6.709946E-06
5.239948E+03	2.194041E-03	6.659871E-06
5.249948E+03	2.165610E-03	6.601230E-06
5.259947E+03	2.136261E-03	6.538775E-06
5.269947E+03	2.107081E-03	6.475834E-06
5.279947E+03	2.078908E-03	6.415009E-06
5.289947E+03	2.051954E-03	6.357020E-06
5.299947E+03	2.025747E-03	6.300454E-06
5.309947E+03	1.999599E-03	6.243212E-06
5.319947E+03	1.973041E-03	6.183839E-06
5.329947E+03	1.946446E-03	6.123513E-06
5.339947E+03	1.920274E-03	6.063702E-06
5.349947E+03	1.895046E-03	6.006082E-06
5.359946E+03	1.870913E-03	5.951188E-06
5.369946E+03	1.848044E-03	5.899608E-06
5.379946E+03	1.826588E-03	5.851880E-06
5.389946E+03	1.806630E-03	5.808338E-06
5.399946E+03	1.788302E-03	5.769471E-06
5.409946E+03	1.772058E-03	5.736811E-06
5.419946E+03	1.758822E-03	5.713448E-06
5.429946E+03	1.749645E-03	5.702912E-06
5.439946E+03	1.745256E-03	5.707716E-06
5.449946E+03	1.746131E-03	5.729571E-06
5.459945E+03	1.751900E-03	5.767430E-06
5.469945E+03	1.760524E-03	5.814701E-06
5.479945E+03	1.766810E-03	5.854262E-06
5.489945E+03	1.764456E-03	5.865085E-06
5.499945E+03	1.750308E-03	5.836373E-06
5.509945E+03	1.727146E-03	5.777045E-06
5.519945E+03	1.699469E-03	5.701923E-06
5.529945E+03	1.671163E-03	5.623943E-06
5.539945E+03	1.644505E-03	5.550773E-06
5.549945E+03	1.620746E-03	5.486703E-06
5.559944E+03	1.600489E-03	5.433869E-06
5.569944E+03	1.583784E-03	5.392543E-06
5.579944E+03	1.570232E-03	5.361471E-06
5.589944E+03	1.559351E-03	5.339087E-06
5.599944E+03	1.550902E-03	5.324652E-06
5.609944E+03	1.544641E-03	5.317386E-06
5.619944E+03	1.540097E-03	5.315729E-06
5.629944E+03	1.536814E-03	5.318139E-06
5.639944E+03	1.534230E-03	5.322696E-06
5.649944E+03	1.531708E-03	5.327207E-06
5.659943E+03	1.528699E-03	5.329752E-06
5.669943E+03	1.524695E-03	5.328541E-06
5.679943E+03	1.519417E-03	5.322570E-06
5.689943E+03	1.512767E-03	5.311460E-06
5.699943E+03	1.504830E-03	5.295477E-06
5.709943E+03	1.495947E-03	5.275795E-06
5.719943E+03	1.486948E-03	5.255326E-06
5.729943E+03	1.478726E-03	5.237225E-06
5.739943E+03	1.471932E-03	5.223829E-06
5.749943E+03	1.467002E-03	5.216715E-06
5.759942E+03	1.464010E-03	5.216187E-06
5.769942E+03	1.462813E-03	5.221774E-06
5.779942E+03	1.463153E-03	5.232587E-06
5.789942E+03	1.464619E-03	5.247182E-06
5.799942E+03	1.466672E-03	5.263640E-06
5.809942E+03	1.468767E-03	5.280013E-06
5.819942E+03	1.470380E-03	5.294410E-06
5.829942E+03	1.471038E-03	5.305115E-06
5.839942E+03	1.470271E-03	5.310409E-06
5.849942E+03	1.467838E-03	5.309399E-06
5.859941E+03	1.463775E-03	5.302185E-06
5.869941E+03	1.458294E-03	5.289516E-06
5.879941E+03	1.451895E-03	5.273189E-06
5.889941E+03	1.445261E-03	5.255673E-06
5.899941E+03	1.438769E-03	5.238344E-06
5.909941E+03	1.432885E-03	5.222902E-06
5.919941E+03	1.427964E-03	5.210652E-06
5.929941E+03	1.423816E-03	5.200919E-06
5.939941E+03	1.420136E-03	5.192595E-06
5.949941E+03	1.416646E-03	5.184668E-06
5.959940E+03	1.413170E-03	5.176500E-06
5.969940E+03	1.409536E-03	5.167462E-06
5.979940E+03	1.405540E-03	5.156802E-06
5.989940E+03	1.400851E-03	5.143313E-06
5.999940E+03	1.395113E-03	5.125674E-06
6.009940E+03	1.387904E-03	5.102337E-06
6.019940E+03	1.378780E-03	5.071660E-06
6.029940E+03	1.367226E-03	5.031744E-06
6.039940E+03	1.352749E-03	4.980764E-06
6.049940E+03	1.334964E-03	4.917300E-06
6.059939E+03	1.313575E-03	4.840255E-06
6.069939E+03	1.288242E-03	4.748373E-06
6.079939E+03	1.258723E-03	4.640769E-06
6.089939E+03	1.224927E-03	4.517107E-06
6.099939E+03	1.186854E-03	4.377402E-06
6.109939E+03	1.144680E-03	4.222315E-06
6.119939E+03	1.098880E-03	4.053615E-06
6.129939E+03	1.050358E-03	3.874670E-06
6.139939E+03	1.000250E-03	3.689686E-06
6.149939E+03	9.501054E-04	3.504416E-06
6.159938E+03	9.016187E-04	3.325133E-06
6.169938E+03	8.560408E-04	3.156475E-06
6.179938E+03	8.147549E-04	3.003561E-06
6.189938E+03	7.791271E-04	2.871436E-06
6.199938E+03	7.498842E-04	2.762782E-06
6.209938E+03	7.278605E-04	2.680664E-06
6.219938E+03	7.139011E-04	2.628177E-06
6.229938E+03	7.081121E-04	2.605683E-06
6.239938E+03	7.108627E-04	2.614504E-06
6.249938E+03	7.228266E-04	2.657070E-06
6.259937E+03	7.442554E-04	2.734246E-06
6.269937E+03	7.757675E-04	2.848233E-06
6.279937E+03	8.183894E-04	3.002717E-06
6.289937E+03	8.727343E-04	3.199844E-06
6.299937E+03	9.394802E-04	3.441989E-06
6.309937E+03	1.019602E-03	3.732587E-06
6.319937E+03	1.113697E-03	4.073682E-06
6.329937E+03	1.222114E-03	4.466380E-06
6.339937E+03	1.345091E-03	4.911376E-06
6.349937E+03	1.482685E-03	5.408682E-06
6.359936E+03	1.634154E-03	5.955399E-06
6.369936E+03	1.797335E-03	6.543448E-06
6.379936E+03	1.968734E-03	7.159937E-06
6.389936E+03	2.142021E-03	7.781714E-06
6.399936E+03	2.308316E-03	8.376479E-06
6.409936E+03	2.458441E-03	8.910997E-06
6.419936E+03	2.581672E-03	9.346603E-06
6.429936E+03	2.666595E-03	9.642337E-06
6.439936E+03	2.703834E-03	9.764817E-06
6.449936E+03	2.686918E-03	9.691353E-06
6.459935E+03	2.614612E-03	9.418250E-06
6.469935E+03	2.493801E-03	8.971088E-06
6.479935E+03	2.337066E-03	8.395810E-06
6.489935E+03	2.161696E-03	7.755014E-06
6.499935E+03	1.990196E-03	7.129653E-06
6.509935E+03	1.843220E-03	6.593591E-06
6.519935E+03	1.739115E-03	6.212014E-06
6.529935E+03	1.697818E-03	6.055375E-06
6.539935E+03	1.721625E-03	6.130835E-06
6.549935E+03	1.792280E-03	6.372406E-06
6.559934E+03	1.894066E-03	6.723467E-06
6.569934E+03	2.011869E-03	7.129882E-06
6.579934E+03	2.130582E-03	7.537863E-06
6.589934E+03	2.238989E-03	7.907725E-06
6.599934E+03	2.328729E-03	8.210124E-06
6.609934E+03	2.393814E-03	8.424288E-06
6.619934E+03	2.432157E-03	8.543322E-06
6.629934E+03	2.444557E-03	8.570517E-06
6.639934E+03	2.433571E-03	8.515327E-06
6.649934E+03	2.403306E-03	8.392566E-06
6.659933E+03	2.358208E-03	8.218142E-06
6.669933E+03	2.302634E-03	8.007538E-06
6.679933E+03	2.240484E-03	7.774534E-06
6.689933E+03	2.174888E-03	7.530140E-06
6.699933E+03	2.108285E-03	7.282887E-06
6.709933E+03	2.042455E-03	7.038963E-06
6.719933E+03	1.978561E-03	6.802375E-06
6.729933E+03	1.917236E-03	6.575273E-06
6.739933E+03	1.858856E-03	6.358916E-06
6.749933E+03	1.803532E-03	6.153623E-06
6.759932E+03	1.751135E-03	5.958909E-06
6.769932E+03	1.701740E-03	5.774970E-06
6.779932E+03	1.655334E-03	5.601708E-06
6.789932E+03	1.611838E-03	5.438794E-06
6.799932E+03	1.571194E-03	5.285967E-06
6.809932E+03	1.533320E-03	5.142894E-06
6.819932E+03	1.498203E-03	5.009467E-06
6.829932E+03	1.465723E-03	4.885217E-06
6.839932E+03	1.435897E-03	4.770135E-06
6.849932E+03	1.408685E-03	4.664022E-06
6.859931E+03	1.384252E-03	4.567348E-06
6.869931E+03	1.362737E-03	4.480488E-06
6.879931E+03	1.344270E-03	4.403780E-06
6.889931E+03	1.328837E-03	4.337081E-06
6.899931E+03	1.316291E-03	4.279809E-06
6.909931E+03	1.306532E-03	4.231539E-06
6.919931E+03	1.299171E-03	4.190917E-06
6.929931E+03	1.293893E-03	4.156841E-06
6.939931E+03	1.290288E-03	4.127919E-06
6.949931E+03	1.287925E-03	4.102710E-06
6.959930E+03	1.286396E-03	4.079870E-06
6.969930E+03	1.285379E-03	4.058350E-06
6.979930E+03	1.284539E-03	4.037068E-06
6.989930E+03	1.283678E-03	4.015398E-06
6.999930E+03	1.282581E-03	3.992676E-06
7.009930E+03	1.281105E-03	3.968467E-06
7.019930E+03	1.279102E-03	3.942330E-06
7.029930E+03	1.276445E-03	3.913906E-06
7.039930E+03	1.273013E-03	3.882857E-06
7.049930E+03	1.268742E-03	3.849031E-06
7.059929E+03	1.263623E-03	3.812446E-06
7.069929E+03	1.257629E-03	3.773064E-06
7.079929E+03	1.250823E-03	3.731128E-06
7.089929E+03	1.243227E-03	3.686753E-06
7.099929E+03	1.234975E-03	3.640377E-06
7.109929E+03	1.226222E-03	3.592502E-06
7.119929E+03	1.217059E-03	3.543431E-06
7.129929E+03	1.207692E-03	3.493786E-06
7.139929E+03	1.198224E-03	3.443890E-06
7.149929E+03	1.188843E-03	3.394295E-06
7.159928E+03	1.179691E-03	3.345410E-06
7.169928E+03	1.170965E-03	3.297787E-06
7.179928E+03	1.162823E-03	3.251850E-06
7.189928E+03	1.155364E-03	3.207856E-06
7.199928E+03	1.148696E-03	3.166071E-06
7.209928E+03	1.142933E-03	3.126764E-06
7.219928E+03	1.138102E-03	3.089970E-06
7.229928E+03	1.134245E-03	3.055749E-06
7.239928E+03	1.131420E-03	3.024205E-06
7.249928E+03	1.129595E-03	2.995200E-06
7.259927E+03	1.128809E-03	2.968780E-06
7.269927E+03	1.129061E-03	2.944882E-06
7.279927E+03	1.130309E-03	2.923345E-06
7.289927E+03	1.132496E-03	2.903960E-06
7.299927E+03	1.135520E-03	2.886419E-06
7.309927E+03	1.139299E-03	2.870469E-06
7.319927E+03	1.143685E-03	2.855703E-06
7.329927E+03	1.148563E-03	2.841801E-06
7.339927E+03	1.153849E-03	2.828541E-06
7.349927E+03	1.159416E-03	2.815598E-06
7.359926E+03	1.165170E-03	2.802740E-06
7.369926E+03	1.170995E-03	2.789697E-06
7.379926E+03	1.176835E-03	2.776348E-06
7.389926E+03	1.182613E-03	2.762528E-06
7.399926E+03	1.188226E-03	2.748030E-06
7.409926E+03	1.193579E-03	2.732664E-06
7.419926E+03	1.198661E-03	2.716452E-06
7.429926E+03	1.203357E-03	2.699178E-06
7.439926E+03	1.207610E-03	2.680772E-06
7.449926E+03	1.211397E-03	2.661245E-06
7.459925E+03	1.214644E-03	2.640497E-06
7.469925E+03	1.217308E-03	2.618509E-06
7.479925E+03	1.219351E-03	2.595276E-06
7.489925E+03	1.220801E-03	2.570935E-06
7.499925E+03	1.221569E-03	2.545381E-06
7.509925E+03	1.221662E-03	2.518715E-06
7.519925E+03	1.221120E-03	2.491108E-06
7.529925E+03	1.219872E-03	2.462500E-06
7.539925E+03	1.217942E-03	2.433031E-06
7.549925E+03	1.215332E-03	2.402794E-06
7.559924E+03	1.212054E-03	2.371903E-06
7.569924E+03	1.208190E-03	2.340607E-06
7.579924E+03	1.203682E-03	2.308878E-06
7.589924E+03	1.198663E-03	2.277056E-06
7.599924E+03	1.193123E-03	2.245202E-06
7.609924E+03	1.187183E-03	2.213616E-06
7.619924E+03	1.180843E-03	2.182371E-06
7.629924E+03	1.174230E-03	2.151769E-06
7.639924E+03	1.167380E-03	2.121936E-06
7.649924E+03	1.160360E-03	2.093051E-06
7.659923E+03	1.153264E-03	2.065338E-06
7.669923E+03	1.146128E-03	2.038905E-06
7.679923E+03	1.139012E-03	2.013910E-06
7.689923E+03	1.132008E-03	1.990551E-06
7.699923E+03	1.125144E-03	1.968915E-06
7.709923E+03	1.118537E-03	1.949241E-06
7.719923E+03	1.112152E-03	1.931496E-06
7.729923E+03	1.106130E-03	1.915959E-06
7.739923E+03	1.100464E-03	1.902638E-06
7.749923E+03	1.095233E-03	1.891698E-06
7.759922E+03	1.090485E-03	1.883244E-06
