#wls	flux	fluxerr
1.599984E+03	2.195234E-04	9.848875E-07
1.639984E+03	2.127029E-04	9.542650E-07
1.679983E+03	2.057594E-04	9.230919E-07
1.719983E+03	1.987590E-04	8.916653E-07
1.759982E+03	1.917304E-04	8.601136E-07
1.799982E+03	1.847393E-04	8.287322E-07
1.839982E+03	1.778304E-04	7.977211E-07
1.879981E+03	1.710512E-04	7.672933E-07
1.919981E+03	1.644585E-04	7.377033E-07
1.959980E+03	1.580822E-04	7.090858E-07
1.999980E+03	1.519755E-04	6.816792E-07
2.039980E+03	1.461800E-04	6.556692E-07
2.079979E+03	1.407340E-04	6.312283E-07
2.119979E+03	1.356754E-04	6.085263E-07
2.159978E+03	1.310451E-04	5.877462E-07
2.199978E+03	1.269027E-04	5.691553E-07
2.239978E+03	1.233033E-04	5.530008E-07
2.279977E+03	1.203477E-04	5.397343E-07
2.319977E+03	1.181648E-04	5.299334E-07
2.359976E+03	1.169444E-04	5.244500E-07
2.399976E+03	1.169631E-04	5.245231E-07
2.439976E+03	1.186050E-04	5.318758E-07
2.479975E+03	1.223409E-04	5.486187E-07
2.519975E+03	1.287486E-04	5.773421E-07
2.559974E+03	1.384315E-04	6.207508E-07
2.599974E+03	1.519572E-04	6.813897E-07
2.639974E+03	1.696764E-04	7.608300E-07
2.679973E+03	1.915433E-04	8.588651E-07
2.719973E+03	2.169041E-04	9.725636E-07
2.759972E+03	2.444404E-04	1.096012E-06
2.799972E+03	2.723237E-04	1.221013E-06
2.839972E+03	2.986102E-04	1.338849E-06
2.879971E+03	3.217190E-04	1.442435E-06
2.919971E+03	3.407433E-04	1.527705E-06
2.959970E+03	3.555285E-04	1.593967E-06
2.999970E+03	3.664141E-04	1.642743E-06
3.009970E+03	3.685791E-04	1.652443E-06
3.019970E+03	3.705465E-04	1.661256E-06
3.029970E+03	3.723140E-04	1.669174E-06
3.039970E+03	3.738859E-04	1.676214E-06
3.049970E+03	3.752725E-04	1.682424E-06
3.059969E+03	3.764602E-04	1.687741E-06
3.069969E+03	3.774628E-04	1.692229E-06
3.079969E+03	3.782704E-04	1.695843E-06
3.089969E+03	3.788786E-04	1.698563E-06
3.099969E+03	3.792806E-04	1.700358E-06
3.109969E+03	3.794749E-04	1.701223E-06
3.119969E+03	3.794372E-04	1.701047E-06
3.129969E+03	3.791553E-04	1.699776E-06
3.139969E+03	3.786292E-04	1.697411E-06
3.149969E+03	3.778302E-04	1.693822E-06
3.159968E+03	3.767426E-04	1.688940E-06
3.169968E+03	3.753496E-04	1.682688E-06
3.179968E+03	3.736344E-04	1.674993E-06
3.189968E+03	3.715797E-04	1.665775E-06
3.199968E+03	3.691631E-04	1.654935E-06
3.209968E+03	3.663691E-04	1.642403E-06
3.219968E+03	3.631835E-04	1.628116E-06
3.229968E+03	3.595883E-04	1.611993E-06
3.239968E+03	3.555738E-04	1.593991E-06
3.249968E+03	3.511325E-04	1.574075E-06
3.259967E+03	3.462552E-04	1.552204E-06
3.269967E+03	3.409363E-04	1.528355E-06
3.279967E+03	3.351796E-04	1.502543E-06
3.289967E+03	3.289927E-04	1.474803E-06
3.299967E+03	3.223876E-04	1.445188E-06
3.309967E+03	3.153675E-04	1.413714E-06
3.319967E+03	3.079628E-04	1.380515E-06
3.329967E+03	3.001913E-04	1.345672E-06
3.339967E+03	2.920800E-04	1.309307E-06
3.349967E+03	2.836642E-04	1.271576E-06
3.359966E+03	2.749836E-04	1.232660E-06
3.369966E+03	2.660776E-04	1.192733E-06
3.379966E+03	2.569857E-04	1.151973E-06
3.389966E+03	2.477576E-04	1.110603E-06
3.399966E+03	2.384443E-04	1.068851E-06
3.409966E+03	2.290952E-04	1.026939E-06
3.419966E+03	2.197599E-04	9.850890E-07
3.429966E+03	2.104881E-04	9.435240E-07
3.439966E+03	2.013283E-04	9.024614E-07
3.449966E+03	1.923313E-04	8.621289E-07
3.459965E+03	1.835353E-04	8.226977E-07
3.469965E+03	1.749860E-04	7.843728E-07
3.479965E+03	1.667132E-04	7.472875E-07
3.489965E+03	1.587495E-04	7.115879E-07
3.499965E+03	1.511166E-04	6.773715E-07
3.509965E+03	1.438298E-04	6.447063E-07
3.519965E+03	1.368981E-04	6.136335E-07
3.529965E+03	1.303228E-04	5.841582E-07
3.539965E+03	1.240956E-04	5.562436E-07
3.549965E+03	1.182024E-04	5.298262E-07
3.559964E+03	1.126227E-04	5.048142E-07
3.569964E+03	1.073322E-04	4.810986E-07
3.579964E+03	1.023050E-04	4.585637E-07
3.589964E+03	9.752699E-05	4.371456E-07
3.599964E+03	9.299433E-05	4.168274E-07
3.609964E+03	8.872119E-05	3.976727E-07
3.619964E+03	8.473334E-05	3.797968E-07
3.629964E+03	8.105491E-05	3.633079E-07
3.639964E+03	7.770632E-05	3.482975E-07
3.649964E+03	7.469934E-05	3.348185E-07
3.659963E+03	7.204042E-05	3.228996E-07
3.669963E+03	6.973188E-05	3.125512E-07
3.679963E+03	6.777406E-05	3.037749E-07
3.689963E+03	6.616801E-05	2.965753E-07
3.699963E+03	6.491471E-05	2.909569E-07
3.709963E+03	6.402045E-05	2.869478E-07
3.719963E+03	6.349568E-05	2.845948E-07
3.729963E+03	6.335691E-05	2.839719E-07
3.739963E+03	6.362812E-05	2.851866E-07
3.749963E+03	6.434246E-05	2.883874E-07
3.759962E+03	6.554412E-05	2.937724E-07
3.769962E+03	6.729071E-05	3.015998E-07
3.779962E+03	6.965640E-05	3.122019E-07
3.789962E+03	7.273568E-05	3.260023E-07
3.799962E+03	7.664827E-05	3.435376E-07
3.802462E+03	2.550985E-05	1.143351E-07
3.804962E+03	2.577912E-05	1.155418E-07
3.807462E+03	2.660547E-05	1.192455E-07
3.809962E+03	2.715915E-05	1.217269E-07
3.812462E+03	2.836210E-05	1.271184E-07
3.814962E+03	2.995733E-05	1.342681E-07
3.817462E+03	3.108369E-05	1.393164E-07
3.819962E+03	3.201458E-05	1.434884E-07
3.822462E+03	3.427444E-05	1.536170E-07
3.824962E+03	3.595996E-05	1.611713E-07
3.827462E+03	3.746621E-05	1.679222E-07
3.829962E+03	3.900400E-05	1.748143E-07
3.832462E+03	4.124078E-05	1.848393E-07
3.834962E+03	4.313714E-05	1.933386E-07
3.837462E+03	4.524103E-05	2.027680E-07
3.839962E+03	4.723349E-05	2.116979E-07
3.842462E+03	4.932795E-05	2.210850E-07
3.844962E+03	5.092528E-05	2.282440E-07
3.847462E+03	5.364574E-05	2.404367E-07
3.849962E+03	5.664920E-05	2.538978E-07
3.852461E+03	5.957991E-05	2.670329E-07
3.854961E+03	6.220150E-05	2.787825E-07
3.857461E+03	6.556120E-05	2.938401E-07
3.859961E+03	6.953190E-05	3.116363E-07
3.862461E+03	7.438339E-05	3.333800E-07
3.864961E+03	7.846368E-05	3.516673E-07
3.867461E+03	8.417670E-05	3.772722E-07
3.869961E+03	8.999646E-05	4.033556E-07
3.872461E+03	9.602363E-05	4.303684E-07
3.874961E+03	1.018402E-04	4.564376E-07
3.877461E+03	1.097660E-04	4.919594E-07
3.879961E+03	1.188379E-04	5.326185E-07
3.882461E+03	1.278816E-04	5.731508E-07
3.884961E+03	1.381102E-04	6.189941E-07
3.887461E+03	1.478743E-04	6.627548E-07
3.889961E+03	1.588375E-04	7.118902E-07
3.892461E+03	1.690235E-04	7.575421E-07
3.894961E+03	1.798893E-04	8.062405E-07
3.897461E+03	1.933580E-04	8.666049E-07
3.899961E+03	2.052703E-04	9.199935E-07
3.902461E+03	2.190814E-04	9.818923E-07
3.904961E+03	2.319361E-04	1.039505E-06
3.907461E+03	2.446226E-04	1.096363E-06
3.909961E+03	2.598361E-04	1.164547E-06
3.912461E+03	2.765464E-04	1.239439E-06
3.914961E+03	2.933564E-04	1.314778E-06
3.917461E+03	3.118901E-04	1.397842E-06
3.919961E+03	3.313784E-04	1.485184E-06
3.922461E+03	3.499939E-04	1.568615E-06
3.924961E+03	3.692399E-04	1.654871E-06
3.927461E+03	3.905617E-04	1.750430E-06
3.929961E+03	4.109501E-04	1.841807E-06
3.932461E+03	4.309942E-04	1.931639E-06
3.934961E+03	4.503674E-04	2.018465E-06
3.937461E+03	4.702509E-04	2.107578E-06
3.939961E+03	4.917474E-04	2.203919E-06
3.942461E+03	5.107771E-04	2.289205E-06
3.944961E+03	5.276624E-04	2.364880E-06
3.947461E+03	5.439325E-04	2.437798E-06
3.949961E+03	5.585436E-04	2.503280E-06
3.952460E+03	5.708179E-04	2.558290E-06
3.954960E+03	5.794823E-04	2.597120E-06
3.957460E+03	5.861898E-04	2.627179E-06
3.959960E+03	5.898921E-04	2.643770E-06
3.962460E+03	5.918964E-04	2.652751E-06
3.964960E+03	5.918100E-04	2.652362E-06
3.967460E+03	5.904918E-04	2.646452E-06
3.969960E+03	5.841402E-04	2.617984E-06
3.972460E+03	5.750691E-04	2.577327E-06
3.974960E+03	5.653915E-04	2.533953E-06
3.977460E+03	5.550652E-04	2.487671E-06
3.979960E+03	5.421135E-04	2.429623E-06
3.982460E+03	5.292501E-04	2.371971E-06
3.984960E+03	5.160839E-04	2.312961E-06
3.987460E+03	5.028618E-04	2.253701E-06
3.989960E+03	4.889235E-04	2.191232E-06
3.992460E+03	4.756096E-04	2.131561E-06
3.994960E+03	4.659148E-04	2.088110E-06
3.997460E+03	4.600721E-04	2.061923E-06
3.999960E+03	4.567445E-04	2.047008E-06
4.002460E+03	4.576319E-04	2.050983E-06
4.004960E+03	4.613752E-04	2.067759E-06
4.007460E+03	4.676273E-04	2.095777E-06
4.009960E+03	4.785463E-04	2.144712E-06
4.012460E+03	4.928341E-04	2.208744E-06
4.014960E+03	5.088995E-04	2.280743E-06
4.017460E+03	5.284877E-04	2.368530E-06
4.019960E+03	5.508366E-04	2.468690E-06
4.022460E+03	5.775912E-04	2.588595E-06
4.024960E+03	6.058284E-04	2.715144E-06
4.027460E+03	6.369852E-04	2.854777E-06
4.029960E+03	6.716275E-04	3.010031E-06
4.032460E+03	7.053068E-04	3.160970E-06
4.034960E+03	7.411452E-04	3.321584E-06
4.037460E+03	7.776872E-04	3.485352E-06
4.039960E+03	8.113277E-04	3.636115E-06
4.042460E+03	8.413733E-04	3.770768E-06
4.044960E+03	8.711155E-04	3.904060E-06
4.047460E+03	8.984867E-04	4.026726E-06
4.049960E+03	9.222715E-04	4.133319E-06
4.052459E+03	9.446377E-04	4.233554E-06
4.054959E+03	9.654158E-04	4.326672E-06
4.057459E+03	9.837663E-04	4.408910E-06
4.059959E+03	1.000293E-03	4.482971E-06
4.062459E+03	1.011745E-03	4.534293E-06
4.064959E+03	1.020190E-03	4.572138E-06
4.067459E+03	1.027175E-03	4.603438E-06
4.069959E+03	1.030515E-03	4.618406E-06
4.072459E+03	1.030541E-03	4.618521E-06
4.074959E+03	1.027773E-03	4.606112E-06
4.077459E+03	1.021871E-03	4.579655E-06
4.079959E+03	1.012051E-03	4.535642E-06
4.082459E+03	1.000011E-03	4.481681E-06
4.084959E+03	9.856845E-04	4.417473E-06
4.087459E+03	9.682898E-04	4.339514E-06
4.089959E+03	9.454836E-04	4.237302E-06
4.092459E+03	9.221051E-04	4.132526E-06
4.094959E+03	8.972256E-04	4.021022E-06
4.097459E+03	8.681217E-04	3.890587E-06
4.099959E+03	8.367501E-04	3.749989E-06
4.102459E+03	8.042901E-04	3.604514E-06
4.104959E+03	7.701272E-04	3.451406E-06
4.107459E+03	7.320187E-04	3.280617E-06
4.109959E+03	6.925599E-04	3.103776E-06
4.112459E+03	6.529551E-04	2.926281E-06
4.114959E+03	6.142205E-04	2.752687E-06
4.117459E+03	5.766537E-04	2.584326E-06
4.119959E+03	5.403206E-04	2.421494E-06
4.122459E+03	5.045023E-04	2.260970E-06
4.124959E+03	4.684996E-04	2.099619E-06
4.127459E+03	4.342011E-04	1.945907E-06
4.129959E+03	4.031806E-04	1.806885E-06
4.132459E+03	3.730215E-04	1.671723E-06
4.134959E+03	3.438740E-04	1.541095E-06
4.137459E+03	3.195030E-04	1.431874E-06
4.139959E+03	2.992136E-04	1.340945E-06
4.142459E+03	2.813731E-04	1.260991E-06
4.144959E+03	2.674966E-04	1.198801E-06
4.147459E+03	2.569083E-04	1.151349E-06
4.149959E+03	2.504229E-04	1.122283E-06
4.152458E+03	2.472999E-04	1.108287E-06
4.154958E+03	2.502534E-04	1.121522E-06
4.157458E+03	2.550872E-04	1.143185E-06
4.159958E+03	2.618257E-04	1.173382E-06
4.162458E+03	2.702359E-04	1.211073E-06
4.164958E+03	2.816245E-04	1.262110E-06
4.167458E+03	2.949260E-04	1.321720E-06
4.169958E+03	3.101859E-04	1.390107E-06
4.172458E+03	3.278562E-04	1.469296E-06
4.174958E+03	3.453493E-04	1.547691E-06
4.177458E+03	3.603514E-04	1.614922E-06
4.179958E+03	3.773166E-04	1.690951E-06
4.182458E+03	3.931816E-04	1.762049E-06
4.184958E+03	4.088240E-04	1.832150E-06
4.187458E+03	4.240506E-04	1.900387E-06
4.189958E+03	4.372288E-04	1.959443E-06
4.192458E+03	4.487638E-04	2.011136E-06
4.194958E+03	4.598786E-04	2.060946E-06
4.197458E+03	4.678419E-04	2.096632E-06
4.199958E+03	4.746283E-04	2.127044E-06
4.202458E+03	4.804298E-04	2.153042E-06
4.204958E+03	4.850085E-04	2.173560E-06
4.207458E+03	4.871781E-04	2.183282E-06
4.209958E+03	4.870647E-04	2.182772E-06
4.212458E+03	4.862606E-04	2.179167E-06
4.214958E+03	4.830180E-04	2.164634E-06
4.217458E+03	4.790812E-04	2.146990E-06
4.219958E+03	4.744928E-04	2.126426E-06
4.222458E+03	4.669197E-04	2.092486E-06
4.224958E+03	4.593610E-04	2.058611E-06
4.227458E+03	4.517301E-04	2.024412E-06
4.229958E+03	4.448484E-04	1.993570E-06
4.232458E+03	4.376788E-04	1.961439E-06
4.234958E+03	4.314328E-04	1.933446E-06
4.237458E+03	4.270635E-04	1.913865E-06
4.239958E+03	4.236427E-04	1.898533E-06
4.242458E+03	4.209977E-04	1.886678E-06
4.244958E+03	4.199318E-04	1.881901E-06
4.247458E+03	4.217255E-04	1.889938E-06
4.249958E+03	4.265126E-04	1.911390E-06
4.252457E+03	4.337324E-04	1.943744E-06
4.254957E+03	4.430625E-04	1.985554E-06
4.257457E+03	4.530500E-04	2.030312E-06
4.259957E+03	4.638045E-04	2.078506E-06
4.262457E+03	4.757397E-04	2.131991E-06
4.264957E+03	4.879437E-04	2.186681E-06
4.267457E+03	4.992861E-04	2.237510E-06
4.269957E+03	5.113536E-04	2.291588E-06
4.272457E+03	5.235815E-04	2.346385E-06
4.274957E+03	5.351858E-04	2.398387E-06
4.277457E+03	5.446630E-04	2.440857E-06
4.279957E+03	5.538626E-04	2.482083E-06
4.282457E+03	5.606701E-04	2.512588E-06
4.284957E+03	5.651263E-04	2.532557E-06
4.287457E+03	5.685156E-04	2.547744E-06
4.289957E+03	5.717314E-04	2.562153E-06
4.292457E+03	5.738345E-04	2.571577E-06
4.294957E+03	5.735360E-04	2.570237E-06
4.297457E+03	5.700467E-04	2.554599E-06
4.299957E+03	5.670997E-04	2.541391E-06
4.302457E+03	5.641490E-04	2.528166E-06
4.304957E+03	5.599485E-04	2.509341E-06
4.307457E+03	5.556563E-04	2.490104E-06
4.309957E+03	5.523003E-04	2.475063E-06
4.312457E+03	5.487655E-04	2.459221E-06
4.314957E+03	5.462776E-04	2.448070E-06
4.317457E+03	5.448818E-04	2.441814E-06
4.319957E+03	5.451705E-04	2.443106E-06
4.322457E+03	5.463126E-04	2.448222E-06
4.324957E+03	5.489228E-04	2.459918E-06
4.327457E+03	5.520593E-04	2.473973E-06
4.329957E+03	5.568856E-04	2.495599E-06
4.332457E+03	5.630738E-04	2.523329E-06
4.334957E+03	5.691766E-04	2.550677E-06
4.337457E+03	5.777626E-04	2.589152E-06
4.339957E+03	5.869234E-04	2.630203E-06
4.342457E+03	5.960442E-04	2.671075E-06
4.344957E+03	6.057840E-04	2.714721E-06
4.347457E+03	6.157697E-04	2.759469E-06
4.349957E+03	6.266392E-04	2.808177E-06
4.352456E+03	6.355333E-04	2.848032E-06
4.354956E+03	6.438147E-04	2.885142E-06
4.357456E+03	6.506459E-04	2.915754E-06
4.359956E+03	6.563345E-04	2.941244E-06
4.362456E+03	6.606147E-04	2.960423E-06
4.364956E+03	6.637497E-04	2.974470E-06
4.367456E+03	6.657825E-04	2.983578E-06
4.369956E+03	6.673517E-04	2.990609E-06
4.372456E+03	6.689194E-04	2.997632E-06
4.374956E+03	6.713461E-04	3.008505E-06
4.377456E+03	6.759777E-04	3.029259E-06
4.379956E+03	6.823525E-04	3.057825E-06
4.382456E+03	6.881546E-04	3.083824E-06
4.384956E+03	6.936485E-04	3.108442E-06
4.387456E+03	7.000039E-04	3.136920E-06
4.389956E+03	7.080608E-04	3.173024E-06
4.392456E+03	7.175773E-04	3.215668E-06
4.394956E+03	7.278032E-04	3.261492E-06
4.397456E+03	7.390481E-04	3.311881E-06
4.399956E+03	7.528604E-04	3.373776E-06
4.402456E+03	7.668312E-04	3.436381E-06
4.404956E+03	7.810934E-04	3.500292E-06
4.407456E+03	7.960894E-04	3.567491E-06
4.409956E+03	8.105360E-04	3.632228E-06
4.412456E+03	8.250082E-04	3.697080E-06
4.414956E+03	8.388419E-04	3.759070E-06
4.417456E+03	8.503979E-04	3.810854E-06
4.419956E+03	8.613800E-04	3.860065E-06
4.422456E+03	8.709014E-04	3.902731E-06
4.424956E+03	8.783634E-04	3.936168E-06
4.427456E+03	8.849830E-04	3.965830E-06
4.429956E+03	8.887652E-04	3.982776E-06
4.432456E+03	8.878461E-04	3.978655E-06
4.434956E+03	8.832875E-04	3.958225E-06
4.437456E+03	8.777480E-04	3.933399E-06
4.439956E+03	8.692759E-04	3.895431E-06
4.442456E+03	8.575142E-04	3.842722E-06
4.444956E+03	8.433050E-04	3.779045E-06
4.447456E+03	8.251822E-04	3.697831E-06
4.449956E+03	8.058739E-04	3.611304E-06
4.452455E+03	7.847143E-04	3.516480E-06
4.454955E+03	7.616798E-04	3.413256E-06
4.457455E+03	7.390131E-04	3.311680E-06
4.459955E+03	7.153151E-04	3.205482E-06
4.462455E+03	6.917185E-04	3.099739E-06
4.464955E+03	6.689789E-04	2.997836E-06
4.467455E+03	6.483632E-04	2.905451E-06
4.469955E+03	6.301392E-04	2.823784E-06
4.472455E+03	6.121305E-04	2.743082E-06
4.474955E+03	5.966261E-04	2.673602E-06
4.477455E+03	5.842943E-04	2.618339E-06
4.479955E+03	5.748694E-04	2.576103E-06
4.482455E+03	5.671742E-04	2.541618E-06
4.484955E+03	5.622768E-04	2.519670E-06
4.487455E+03	5.599334E-04	2.509168E-06
4.489955E+03	5.572314E-04	2.497058E-06
4.492455E+03	5.543709E-04	2.484239E-06
4.494955E+03	5.563123E-04	2.492937E-06
4.497455E+03	5.630348E-04	2.523060E-06
4.499955E+03	5.723814E-04	2.564943E-06
4.502455E+03	5.843969E-04	2.618785E-06
4.504955E+03	6.011960E-04	2.694063E-06
4.507455E+03	6.234916E-04	2.793972E-06
4.509955E+03	6.555128E-04	2.937463E-06
4.512455E+03	6.948130E-04	3.113572E-06
4.514955E+03	7.429065E-04	3.329085E-06
4.517455E+03	8.004397E-04	3.586899E-06
4.519955E+03	8.675913E-04	3.887814E-06
4.522455E+03	9.427814E-04	4.224751E-06
4.524955E+03	1.022136E-03	4.580351E-06
4.527455E+03	1.105567E-03	4.954213E-06
4.529955E+03	1.192671E-03	5.344538E-06
4.532455E+03	1.282714E-03	5.748031E-06
4.534955E+03	1.371843E-03	6.147425E-06
4.537455E+03	1.460812E-03	6.546108E-06
4.539955E+03	1.550201E-03	6.946668E-06
4.542455E+03	1.639473E-03	7.346704E-06
4.544955E+03	1.728093E-03	7.743817E-06
4.547455E+03	1.814589E-03	8.131415E-06
4.549955E+03	1.897870E-03	8.504604E-06
4.552454E+03	1.978581E-03	8.866276E-06
4.554954E+03	2.055561E-03	9.211227E-06
4.557454E+03	2.130571E-03	9.547353E-06
4.559954E+03	2.199355E-03	9.855576E-06
4.562454E+03	2.259642E-03	1.012572E-05
4.564954E+03	2.312323E-03	1.036179E-05
4.567454E+03	2.358755E-03	1.056985E-05
4.569954E+03	2.396713E-03	1.073994E-05
4.572454E+03	2.424863E-03	1.086608E-05
4.574954E+03	2.444762E-03	1.095524E-05
4.577454E+03	2.458637E-03	1.101741E-05
4.579954E+03	2.463373E-03	1.103863E-05
4.582454E+03	2.461420E-03	1.102987E-05
4.584954E+03	2.458564E-03	1.101707E-05
4.587454E+03	2.457033E-03	1.101020E-05
4.589954E+03	2.454598E-03	1.099928E-05
4.592454E+03	2.455265E-03	1.100227E-05
4.594954E+03	2.461480E-03	1.103011E-05
4.597454E+03	2.470129E-03	1.106886E-05
4.599954E+03	2.484320E-03	1.113245E-05
4.602454E+03	2.502054E-03	1.121191E-05
4.604954E+03	2.524218E-03	1.131122E-05
4.607454E+03	2.550588E-03	1.142938E-05
4.609954E+03	2.575603E-03	1.154147E-05
4.612454E+03	2.599930E-03	1.165048E-05
4.614954E+03	2.626684E-03	1.177036E-05
4.617454E+03	2.654525E-03	1.189511E-05
4.619954E+03	2.681458E-03	1.201579E-05
4.622454E+03	2.707701E-03	1.213338E-05
4.624954E+03	2.733700E-03	1.224988E-05
4.627454E+03	2.759899E-03	1.236727E-05
4.629954E+03	2.786075E-03	1.248456E-05
4.632454E+03	2.808011E-03	1.258285E-05
4.634954E+03	2.829481E-03	1.267905E-05
4.637454E+03	2.852705E-03	1.278312E-05
4.639954E+03	2.875907E-03	1.288708E-05
4.642454E+03	2.895312E-03	1.297403E-05
4.644954E+03	2.909598E-03	1.303803E-05
4.647454E+03	2.920536E-03	1.308704E-05
4.649954E+03	2.925914E-03	1.311114E-05
4.652453E+03	2.922410E-03	1.309543E-05
4.654953E+03	2.914021E-03	1.305783E-05
4.657453E+03	2.902962E-03	1.300827E-05
4.659953E+03	2.886135E-03	1.293286E-05
4.662453E+03	2.864432E-03	1.283560E-05
4.664953E+03	2.839183E-03	1.272245E-05
4.667453E+03	2.809505E-03	1.258946E-05
4.669953E+03	2.776290E-03	1.244062E-05
4.672453E+03	2.742856E-03	1.229079E-05
4.674953E+03	2.706774E-03	1.212910E-05
4.677453E+03	2.667160E-03	1.195159E-05
4.679953E+03	2.623575E-03	1.175627E-05
4.682453E+03	2.577129E-03	1.154814E-05
4.684953E+03	2.529151E-03	1.133315E-05
4.687453E+03	2.476768E-03	1.109842E-05
4.689953E+03	2.418445E-03	1.083706E-05
4.692453E+03	2.358818E-03	1.056987E-05
4.694953E+03	2.298995E-03	1.030180E-05
4.697453E+03	2.235006E-03	1.001506E-05
4.699953E+03	2.162619E-03	9.690687E-06
4.702453E+03	2.087620E-03	9.354611E-06
4.704953E+03	2.014378E-03	9.026412E-06
4.707453E+03	1.939849E-03	8.692446E-06
4.709953E+03	1.862408E-03	8.345430E-06
4.712453E+03	1.787431E-03	8.009451E-06
4.714953E+03	1.715663E-03	7.687860E-06
4.717453E+03	1.644574E-03	7.369305E-06
4.719953E+03	1.579508E-03	7.077742E-06
4.722453E+03	1.518129E-03	6.802702E-06
4.724953E+03	1.464436E-03	6.562101E-06
4.727453E+03	1.419344E-03	6.360044E-06
4.729953E+03	1.379309E-03	6.180642E-06
4.732453E+03	1.348212E-03	6.041295E-06
4.734953E+03	1.331006E-03	5.964192E-06
4.737453E+03	1.328137E-03	5.951335E-06
4.739953E+03	1.339283E-03	6.001278E-06
4.742453E+03	1.364341E-03	6.113560E-06
4.744953E+03	1.399196E-03	6.269741E-06
4.747453E+03	1.445809E-03	6.478609E-06
4.749953E+03	1.500114E-03	6.721944E-06
4.752452E+03	1.555949E-03	6.972133E-06
4.754952E+03	1.617250E-03	7.246820E-06
4.757452E+03	1.682459E-03	7.539012E-06
4.759952E+03	1.747676E-03	7.831243E-06
4.762452E+03	1.812135E-03	8.120078E-06
4.764952E+03	1.871576E-03	8.386425E-06
4.767452E+03	1.926638E-03	8.633149E-06
4.769952E+03	1.977825E-03	8.862514E-06
4.772452E+03	2.021827E-03	9.059677E-06
4.774952E+03	2.061136E-03	9.235817E-06
4.777452E+03	2.093451E-03	9.380612E-06
4.779952E+03	2.117249E-03	9.487245E-06
4.782452E+03	2.134439E-03	9.564270E-06
4.784952E+03	2.145837E-03	9.615336E-06
4.787452E+03	2.148375E-03	9.626708E-06
4.789952E+03	2.144354E-03	9.608686E-06
