#wls	flux	fluxerr
1.599984E+03	2.968578E-05	5.084252E-07
1.639984E+03	2.901985E-05	4.944605E-07
1.679983E+03	2.840175E-05	4.813668E-07
1.719983E+03	2.784345E-05	4.693357E-07
1.759982E+03	2.732157E-05	4.579616E-07
1.799982E+03	2.686031E-05	4.476397E-07
1.839982E+03	2.646017E-05	4.383629E-07
1.879981E+03	2.611157E-05	4.299571E-07
1.919981E+03	2.582745E-05	4.226202E-07
1.959980E+03	2.562060E-05	4.165412E-07
1.999980E+03	2.547377E-05	4.114179E-07
2.039980E+03	2.541175E-05	4.076290E-07
2.079979E+03	2.543975E-05	4.052292E-07
2.119979E+03	2.556439E-05	4.042920E-07
2.159978E+03	2.578437E-05	4.047627E-07
2.199978E+03	2.612880E-05	4.070590E-07
2.239978E+03	2.659044E-05	4.110216E-07
2.279977E+03	2.721137E-05	4.172492E-07
2.319977E+03	2.798837E-05	4.256287E-07
2.359976E+03	2.893890E-05	4.363580E-07
2.399976E+03	3.009158E-05	4.497905E-07
2.439976E+03	3.146674E-05	4.661387E-07
2.479975E+03	3.308504E-05	4.856063E-07
2.519975E+03	3.496646E-05	5.083719E-07
2.559974E+03	3.713964E-05	5.347242E-07
2.599974E+03	3.961979E-05	5.647398E-07
2.639974E+03	4.242828E-05	5.985696E-07
2.679973E+03	4.556883E-05	6.361004E-07
2.719973E+03	4.904850E-05	6.772583E-07
2.759972E+03	5.285222E-05	7.216583E-07
2.799972E+03	5.697988E-05	7.691221E-07
2.839972E+03	6.139371E-05	8.189650E-07
2.879971E+03	6.605643E-05	8.705282E-07
2.919971E+03	7.091794E-05	9.230081E-07
2.959970E+03	7.593045E-05	9.756605E-07
2.999970E+03	8.100134E-05	1.027204E-06
3.009970E+03	8.226675E-05	1.039765E-06
3.019970E+03	8.352923E-05	1.052169E-06
3.029970E+03	8.480314E-05	1.064598E-06
3.039970E+03	8.605399E-05	1.076618E-06
3.049970E+03	8.731237E-05	1.088613E-06
3.059969E+03	8.854340E-05	1.100147E-06
3.069969E+03	8.977774E-05	1.111604E-06
3.079969E+03	9.099673E-05	1.122753E-06
3.089969E+03	9.219802E-05	1.133566E-06
3.099969E+03	9.339584E-05	1.144219E-06
3.109969E+03	9.457115E-05	1.154481E-06
3.119969E+03	9.572146E-05	1.164322E-06
3.129969E+03	9.686080E-05	1.173918E-06
3.139969E+03	9.796992E-05	1.183035E-06
3.149969E+03	9.906275E-05	1.191846E-06
3.159968E+03	1.001199E-04	1.200119E-06
3.169968E+03	1.011552E-04	1.208025E-06
3.179968E+03	1.021493E-04	1.215335E-06
3.189968E+03	1.031157E-04	1.222216E-06
3.199968E+03	1.040515E-04	1.228636E-06
3.209968E+03	1.049374E-04	1.234373E-06
3.219968E+03	1.057868E-04	1.239589E-06
3.229968E+03	1.066129E-04	1.244444E-06
3.239968E+03	1.073803E-04	1.248529E-06
3.249968E+03	1.081021E-04	1.252005E-06
3.259967E+03	1.087756E-04	1.254845E-06
3.269967E+03	1.093980E-04	1.257023E-06
3.279967E+03	1.099662E-04	1.258512E-06
3.289967E+03	1.104933E-04	1.259469E-06
3.299967E+03	1.109611E-04	1.259692E-06
3.309967E+03	1.113670E-04	1.259162E-06
3.319967E+03	1.117242E-04	1.258033E-06
3.329967E+03	1.120152E-04	1.256117E-06
3.339967E+03	1.122532E-04	1.253571E-06
3.349967E+03	1.124362E-04	1.250381E-06
3.359966E+03	1.125486E-04	1.246380E-06
3.369966E+03	1.126176E-04	1.241879E-06
3.379966E+03	1.126142E-04	1.236568E-06
3.389966E+03	1.125522E-04	1.230606E-06
3.399966E+03	1.124453E-04	1.224150E-06
3.409966E+03	1.122801E-04	1.217063E-06
3.419966E+03	1.120578E-04	1.209366E-06
3.429966E+03	1.117928E-04	1.201222E-06
3.439966E+03	1.114744E-04	1.192523E-06
3.449966E+03	1.111178E-04	1.183438E-06
3.459965E+03	1.107260E-04	1.174007E-06
3.469965E+03	1.102911E-04	1.164148E-06
3.479965E+03	1.098413E-04	1.154167E-06
3.489965E+03	1.093698E-04	1.143995E-06
3.499965E+03	1.088938E-04	1.133814E-06
3.509965E+03	1.084087E-04	1.123577E-06
3.519965E+03	1.079328E-04	1.113476E-06
3.529965E+03	1.074637E-04	1.103482E-06
3.539965E+03	1.070209E-04	1.093798E-06
3.549965E+03	1.066242E-04	1.084620E-06
3.559964E+03	1.062740E-04	1.075944E-06
3.569964E+03	1.059817E-04	1.067882E-06
3.579964E+03	1.057695E-04	1.060646E-06
3.589964E+03	1.056412E-04	1.054263E-06
3.599964E+03	1.056292E-04	1.049045E-06
3.609964E+03	1.057304E-04	1.044942E-06
3.619964E+03	1.059785E-04	1.042272E-06
3.629964E+03	1.063818E-04	1.041094E-06
3.639964E+03	1.069677E-04	1.041651E-06
3.649964E+03	1.077479E-04	1.044033E-06
3.659963E+03	1.087533E-04	1.048508E-06
3.669963E+03	1.100083E-04	1.055279E-06
3.679963E+03	1.115397E-04	1.064565E-06
3.689963E+03	1.133857E-04	1.076689E-06
3.699963E+03	1.155711E-04	1.091840E-06
3.709963E+03	1.181326E-04	1.110315E-06
3.719963E+03	1.211274E-04	1.132593E-06
3.729963E+03	1.245852E-04	1.158888E-06
3.739963E+03	1.285736E-04	1.189758E-06
3.749963E+03	1.331336E-04	1.225504E-06
3.759962E+03	1.383465E-04	1.266786E-06
3.769962E+03	1.442842E-04	1.314165E-06
3.779962E+03	1.510272E-04	1.368265E-06
3.789962E+03	1.586552E-04	1.429688E-06
3.799962E+03	1.672848E-04	1.499349E-06
3.809962E+03	1.770136E-04	1.577975E-06
3.819962E+03	1.879573E-04	1.666429E-06
3.829962E+03	2.002490E-04	1.765712E-06
3.839962E+03	2.140074E-04	1.876667E-06
3.849962E+03	2.293867E-04	2.000427E-06
3.859961E+03	2.464953E-04	2.137696E-06
3.869961E+03	2.654818E-04	2.289508E-06
3.879961E+03	2.864593E-04	2.456558E-06
3.889961E+03	3.094899E-04	2.639089E-06
3.899961E+03	3.346748E-04	2.837662E-06
3.909961E+03	3.620010E-04	3.051857E-06
3.919961E+03	3.914466E-04	3.281180E-06
3.929961E+03	4.229102E-04	3.524482E-06
3.939961E+03	4.562348E-04	3.780172E-06
3.949961E+03	4.911446E-04	4.045709E-06
3.959960E+03	5.272942E-04	4.318040E-06
3.969960E+03	5.642729E-04	4.593645E-06
3.979960E+03	6.015661E-04	4.868243E-06
3.989960E+03	6.385594E-04	5.136850E-06
3.999960E+03	6.746196E-04	5.394452E-06
4.009960E+03	7.090459E-04	5.635617E-06
4.019960E+03	7.411143E-04	5.854867E-06
4.029960E+03	7.701113E-04	6.046944E-06
4.039960E+03	7.953730E-04	6.207117E-06
4.049960E+03	8.163339E-04	6.331543E-06
4.059959E+03	8.325792E-04	6.417647E-06
4.069959E+03	8.439244E-04	6.464700E-06
4.079959E+03	8.503507E-04	6.473266E-06
4.089959E+03	8.522193E-04	6.446788E-06
4.099959E+03	8.500556E-04	6.389871E-06
4.109959E+03	8.447249E-04	6.309559E-06
4.119959E+03	8.371692E-04	6.213297E-06
4.129959E+03	8.285086E-04	6.109666E-06
4.139959E+03	8.198664E-04	6.007054E-06
4.149959E+03	8.123064E-04	5.913204E-06
4.159958E+03	8.068370E-04	5.835258E-06
4.169958E+03	8.043890E-04	5.779610E-06
4.179958E+03	8.057362E-04	5.751357E-06
4.189958E+03	8.116585E-04	5.755501E-06
4.199958E+03	8.227853E-04	5.795835E-06
4.209958E+03	8.398263E-04	5.876601E-06
4.219958E+03	8.634383E-04	6.001545E-06
4.229958E+03	8.943065E-04	6.174493E-06
4.239958E+03	9.331742E-04	6.399546E-06
4.249958E+03	9.807952E-04	6.680746E-06
4.259957E+03	1.037968E-03	7.022303E-06
4.269957E+03	1.105390E-03	7.427621E-06
4.279957E+03	1.183605E-03	7.898944E-06
4.289957E+03	1.272888E-03	8.436660E-06
4.299957E+03	1.373025E-03	9.037889E-06
4.309957E+03	1.483120E-03	9.695367E-06
4.319957E+03	1.601419E-03	1.039642E-05
4.329957E+03	1.725069E-03	1.112162E-05
4.339957E+03	1.850095E-03	1.184487E-05
4.349957E+03	1.971385E-03	1.253359E-05
4.359956E+03	2.083126E-03	1.315166E-05
4.369956E+03	2.179302E-03	1.366275E-05
4.379956E+03	2.254611E-03	1.403596E-05
4.389956E+03	2.305683E-03	1.425330E-05
4.399956E+03	2.331991E-03	1.431476E-05
4.409956E+03	2.336291E-03	1.424041E-05
4.419956E+03	2.323502E-03	1.406289E-05
4.429956E+03	2.299968E-03	1.382253E-05
4.439956E+03	2.272312E-03	1.356023E-05
4.449956E+03	2.246972E-03	1.331467E-05
4.459955E+03	2.229724E-03	1.311954E-05
4.469955E+03	2.225613E-03	1.300330E-05
4.479955E+03	2.238796E-03	1.298848E-05
4.489955E+03	2.272659E-03	1.309247E-05
4.499955E+03	2.329903E-03	1.332827E-05
4.509955E+03	2.412659E-03	1.370524E-05
4.519955E+03	2.522412E-03	1.422882E-05
4.529955E+03	2.660024E-03	1.490078E-05
4.539955E+03	2.825368E-03	1.571733E-05
4.549955E+03	3.017302E-03	1.666916E-05
4.559954E+03	3.233408E-03	1.774022E-05
4.569954E+03	3.469940E-03	1.890765E-05
4.579954E+03	3.721683E-03	2.014128E-05
4.589954E+03	3.982500E-03	2.140680E-05
4.599954E+03	4.245242E-03	2.266546E-05
4.609954E+03	4.502763E-03	2.387956E-05
4.619954E+03	4.747714E-03	2.501138E-05
4.629954E+03	4.973246E-03	2.602682E-05
4.639954E+03	5.173197E-03	2.689626E-05
4.649954E+03	5.342097E-03	2.759443E-05
4.659953E+03	5.475617E-03	2.810249E-05
4.669953E+03	5.570568E-03	2.840784E-05
4.679953E+03	5.625178E-03	2.850533E-05
4.689953E+03	5.639261E-03	2.839792E-05
4.699953E+03	5.614413E-03	2.809739E-05
4.709953E+03	5.553946E-03	2.762376E-05
4.719953E+03	5.462632E-03	2.700374E-05
4.729953E+03	5.346707E-03	2.627057E-05
4.739953E+03	5.213412E-03	2.546163E-05
4.749953E+03	5.070268E-03	2.461473E-05
4.759952E+03	4.925045E-03	2.376799E-05
4.769952E+03	4.784832E-03	2.295536E-05
4.779952E+03	4.656136E-03	2.220725E-05
4.789952E+03	4.544469E-03	2.154862E-05
4.799952E+03	4.454343E-03	2.099915E-05
4.809952E+03	4.389506E-03	2.057450E-05
4.819952E+03	4.352762E-03	2.028555E-05
4.829952E+03	4.346344E-03	2.014031E-05
4.839952E+03	4.371987E-03	2.014430E-05
4.849952E+03	4.430820E-03	2.030013E-05
4.859951E+03	4.523334E-03	2.060745E-05
4.869951E+03	4.649149E-03	2.106192E-05
4.879951E+03	4.806648E-03	2.165377E-05
4.889951E+03	4.992601E-03	2.236616E-05
4.899951E+03	5.201498E-03	2.317248E-05
4.909951E+03	5.425491E-03	2.403629E-05
4.919951E+03	5.654586E-03	2.491254E-05
4.929951E+03	5.877594E-03	2.575191E-05
4.939951E+03	6.083363E-03	2.650629E-05
4.949951E+03	6.261840E-03	2.713344E-05
4.959950E+03	6.405150E-03	2.760143E-05
4.969950E+03	6.508142E-03	2.789071E-05
4.979950E+03	6.567666E-03	2.799075E-05
4.989950E+03	6.581790E-03	2.789642E-05
4.999950E+03	6.549628E-03	2.760716E-05
5.009950E+03	6.470528E-03	2.712343E-05
5.019950E+03	6.344980E-03	2.645050E-05
5.029950E+03	6.175244E-03	2.560089E-05
5.039950E+03	5.965688E-03	2.459559E-05
5.049950E+03	5.723171E-03	2.346538E-05
5.059949E+03	5.457088E-03	2.225072E-05
5.069949E+03	5.178850E-03	2.099941E-05
5.079949E+03	4.900751E-03	1.976175E-05
5.089949E+03	4.634876E-03	1.858610E-05
5.099949E+03	4.392091E-03	1.751491E-05
5.109949E+03	4.181051E-03	1.658088E-05
5.119949E+03	4.007650E-03	1.580509E-05
5.129949E+03	3.875195E-03	1.519798E-05
5.139949E+03	3.784361E-03	1.475947E-05
5.149949E+03	3.733778E-03	1.448152E-05
5.159948E+03	3.720565E-03	1.435042E-05
5.169948E+03	3.740623E-03	1.434805E-05
5.179948E+03	3.789259E-03	1.445443E-05
5.189948E+03	3.861239E-03	1.464795E-05
5.199948E+03	3.951382E-03	1.490765E-05
5.209948E+03	4.054622E-03	1.521351E-05
5.219948E+03	4.166373E-03	1.554769E-05
5.229948E+03	4.282854E-03	1.589576E-05
5.239948E+03	4.401256E-03	1.624720E-05
5.249948E+03	4.519697E-03	1.659512E-05
5.259947E+03	4.637493E-03	1.693718E-05
5.269947E+03	4.754742E-03	1.727394E-05
5.279947E+03	4.871977E-03	1.760752E-05
5.289947E+03	4.989993E-03	1.794099E-05
5.299947E+03	5.109370E-03	1.827656E-05
5.309947E+03	5.230293E-03	1.861503E-05
5.319947E+03	5.352231E-03	1.895466E-05
5.329947E+03	5.474103E-03	1.929185E-05
5.339947E+03	5.594005E-03	1.962015E-05
5.349947E+03	5.709294E-03	1.993072E-05
5.359946E+03	5.816825E-03	2.021313E-05
5.369946E+03	5.912936E-03	2.045535E-05
5.379946E+03	5.993531E-03	2.064407E-05
5.389946E+03	6.054352E-03	2.076567E-05
5.399946E+03	6.091736E-03	2.080871E-05
5.409946E+03	6.102626E-03	2.076398E-05
5.419946E+03	6.086076E-03	2.062952E-05
5.429946E+03	6.043347E-03	2.041075E-05
5.439946E+03	5.979034E-03	2.012417E-05
5.449946E+03	5.900856E-03	1.979644E-05
5.459945E+03	5.819328E-03	1.946317E-05
5.469945E+03	5.747080E-03	1.916656E-05
5.479945E+03	5.697099E-03	1.894952E-05
5.489945E+03	5.680308E-03	1.884773E-05
5.499945E+03	5.701460E-03	1.887619E-05
5.509945E+03	5.757307E-03	1.902352E-05
5.519945E+03	5.839323E-03	1.926116E-05
5.529945E+03	5.936729E-03	1.955328E-05
5.539945E+03	6.038614E-03	1.986382E-05
5.549945E+03	6.135245E-03	2.016078E-05
5.559944E+03	6.218705E-03	2.041824E-05
5.569944E+03	6.283857E-03	2.061943E-05
5.579944E+03	6.328585E-03	2.075743E-05
5.589944E+03	6.354019E-03	2.083592E-05
5.599944E+03	6.363888E-03	2.086701E-05
5.609944E+03	6.363291E-03	2.086723E-05
5.619944E+03	6.357447E-03	2.085348E-05
5.629944E+03	6.349884E-03	2.083711E-05
5.639944E+03	6.341784E-03	2.082177E-05
5.649944E+03	6.331695E-03	2.080248E-05
5.659943E+03	6.315336E-03	2.076493E-05
5.669943E+03	6.286901E-03	2.068975E-05
5.679943E+03	6.239990E-03	2.055553E-05
5.689943E+03	6.169438E-03	2.034483E-05
5.699943E+03	6.071935E-03	2.004622E-05
5.709943E+03	5.947386E-03	1.965884E-05
5.719943E+03	5.798623E-03	1.919150E-05
5.729943E+03	5.631557E-03	1.866323E-05
5.739943E+03	5.454223E-03	1.810022E-05
5.749943E+03	5.276060E-03	1.753350E-05
5.759942E+03	5.107144E-03	1.699638E-05
5.769942E+03	4.957163E-03	1.652113E-05
5.779942E+03	4.835160E-03	1.613806E-05
5.789942E+03	4.748874E-03	1.587332E-05
5.799942E+03	4.704681E-03	1.574868E-05
5.809942E+03	4.707408E-03	1.578084E-05
5.819942E+03	4.760160E-03	1.598083E-05
5.829942E+03	4.864316E-03	1.635392E-05
5.839942E+03	5.019235E-03	1.689860E-05
5.849942E+03	5.221763E-03	1.760485E-05
5.859941E+03	5.465930E-03	1.845305E-05
5.869941E+03	5.742913E-03	1.941380E-05
5.879941E+03	6.040611E-03	2.044642E-05
5.889941E+03	6.344352E-03	2.150128E-05
5.899941E+03	6.637637E-03	2.252227E-05
5.909941E+03	6.903704E-03	2.345215E-05
5.919941E+03	7.126934E-03	2.423730E-05
5.929941E+03	7.294616E-03	2.483380E-05
5.939941E+03	7.398211E-03	2.521182E-05
5.949941E+03	7.434256E-03	2.535882E-05
5.959940E+03	7.403870E-03	2.527789E-05
5.969940E+03	7.312878E-03	2.498834E-05
5.979940E+03	7.170578E-03	2.452146E-05
5.989940E+03	6.988535E-03	2.391650E-05
5.999940E+03	6.779765E-03	2.321783E-05
6.009940E+03	6.557371E-03	2.247029E-05
6.019940E+03	6.333620E-03	2.171601E-05
6.029940E+03	6.119564E-03	2.099301E-05
6.039940E+03	5.924556E-03	2.033359E-05
6.049940E+03	5.755835E-03	1.976284E-05
6.059939E+03	5.618807E-03	1.929956E-05
6.069939E+03	5.516736E-03	1.895520E-05
6.079939E+03	5.451151E-03	1.873521E-05
6.089939E+03	5.421405E-03	1.863758E-05
6.099939E+03	5.425220E-03	1.865461E-05
6.109939E+03	5.458289E-03	1.877164E-05
6.119939E+03	5.514848E-03	1.896895E-05
6.129939E+03	5.587798E-03	1.922221E-05
6.139939E+03	5.669465E-03	1.950511E-05
6.149939E+03	5.752282E-03	1.979169E-05
6.159938E+03	5.829759E-03	2.005969E-05
6.169938E+03	5.897078E-03	2.029263E-05
6.179938E+03	5.951657E-03	2.048171E-05
6.189938E+03	5.992593E-03	2.062394E-05
6.199938E+03	6.020692E-03	2.072220E-05
6.209938E+03	6.037521E-03	2.078200E-05
6.219938E+03	6.044442E-03	2.080816E-05
6.229938E+03	6.042509E-03	2.080441E-05
6.239938E+03	6.031654E-03	2.077067E-05
6.249938E+03	6.011207E-03	2.070474E-05
6.259937E+03	5.979679E-03	2.060160E-05
6.269937E+03	5.935365E-03	2.045549E-05
6.279937E+03	5.876424E-03	2.026015E-05
6.289937E+03	5.801455E-03	2.001078E-05
6.299937E+03	5.709354E-03	1.970362E-05
6.309937E+03	5.599726E-03	1.933727E-05
6.319937E+03	5.473083E-03	1.891345E-05
6.329937E+03	5.330682E-03	1.843640E-05
6.339937E+03	5.174806E-03	1.791389E-05
6.349937E+03	5.009000E-03	1.735804E-05
6.359936E+03	4.837530E-03	1.678347E-05
6.369936E+03	4.665657E-03	1.620830E-05
6.379936E+03	4.499181E-03	1.565259E-05
6.389936E+03	4.344217E-03	1.513761E-05
6.399936E+03	4.206796E-03	1.468446E-05
6.409936E+03	4.092609E-03	1.431327E-05
6.419936E+03	4.007005E-03	1.404316E-05
6.429936E+03	3.954662E-03	1.389115E-05
6.439936E+03	3.939894E-03	1.387321E-05
6.449936E+03	3.966476E-03	1.400373E-05
6.459935E+03	4.038089E-03	1.429705E-05
6.469935E+03	4.158287E-03	1.476740E-05
6.479935E+03	4.330550E-03	1.542902E-05
6.489935E+03	4.558379E-03	1.629651E-05
6.499935E+03	4.845288E-03	1.738488E-05
6.509935E+03	5.194436E-03	1.870826E-05
6.519935E+03	5.607938E-03	2.027739E-05
6.529935E+03	6.085008E-03	2.209279E-05
6.539935E+03	6.618188E-03	2.413080E-05
6.549935E+03	7.191762E-03	2.633719E-05
6.559934E+03	7.782140E-03	2.862788E-05
6.569934E+03	8.361321E-03	3.090091E-05
6.579934E+03	8.899756E-03	3.304660E-05
6.589934E+03	9.370344E-03	3.496220E-05
6.599934E+03	9.751025E-03	3.656168E-05
6.609934E+03	1.002673E-02	3.778351E-05
6.619934E+03	1.019036E-02	3.859493E-05
6.629934E+03	1.024290E-02	3.899314E-05
6.639934E+03	1.019148E-02	3.899874E-05
6.649934E+03	1.004862E-02	3.865336E-05
6.659933E+03	9.829767E-03	3.801094E-05
6.669933E+03	9.551972E-03	3.713265E-05
6.679933E+03	9.232315E-03	3.608121E-05
6.689933E+03	8.886393E-03	3.491489E-05
6.699933E+03	8.527887E-03	3.368569E-05
6.709933E+03	8.168045E-03	3.243712E-05
6.719933E+03	7.815527E-03	3.120336E-05
6.729933E+03	7.476964E-03	3.001120E-05
6.739933E+03	7.156580E-03	2.887834E-05
6.749933E+03	6.857200E-03	2.781721E-05
6.759932E+03	6.580134E-03	2.683432E-05
6.769932E+03	6.325852E-03	2.593289E-05
6.779932E+03	6.094004E-03	2.511283E-05
6.789932E+03	5.883694E-03	2.437177E-05
6.799932E+03	5.693821E-03	2.370644E-05
6.809932E+03	5.523204E-03	2.311311E-05
6.819932E+03	5.370410E-03	2.258696E-05
6.829932E+03	5.234380E-03	2.212457E-05
6.839932E+03	5.113711E-03	2.172102E-05
6.849932E+03	5.007370E-03	2.137281E-05
6.859931E+03	4.914342E-03	2.107647E-05
6.869931E+03	4.833747E-03	2.082898E-05
6.879931E+03	4.764546E-03	2.062658E-05
6.889931E+03	4.705827E-03	2.046598E-05
6.899931E+03	4.656769E-03	2.034418E-05
6.909931E+03	4.616263E-03	2.025686E-05
6.919931E+03	4.583343E-03	2.020024E-05
6.929931E+03	4.556959E-03	2.017007E-05
6.939931E+03	4.536004E-03	2.016178E-05
6.949931E+03	4.519466E-03	2.017112E-05
6.959930E+03	4.506378E-03	2.019397E-05
6.969930E+03	4.495893E-03	2.022667E-05
6.979930E+03	4.487112E-03	2.026526E-05
6.989930E+03	4.479280E-03	2.030639E-05
6.999930E+03	4.471731E-03	2.034704E-05
7.009930E+03	4.463913E-03	2.038468E-05
7.019930E+03	4.455383E-03	2.041724E-05
7.029930E+03	4.445813E-03	2.044316E-05
7.039930E+03	4.434926E-03	2.046108E-05
7.049930E+03	4.422665E-03	2.047068E-05
7.059929E+03	4.408949E-03	2.047150E-05
7.069929E+03	4.393898E-03	2.046403E-05
7.079929E+03	4.377598E-03	2.044863E-05
7.089929E+03	4.360329E-03	2.042653E-05
7.099929E+03	4.342269E-03	2.039856E-05
7.109929E+03	4.323891E-03	2.036690E-05
7.119929E+03	4.305535E-03	2.033317E-05
7.129929E+03	4.287622E-03	2.029938E-05
7.139929E+03	4.270563E-03	2.026749E-05
7.149929E+03	4.254670E-03	2.023904E-05
7.159928E+03	4.240313E-03	2.021586E-05
7.169928E+03	4.227718E-03	2.019907E-05
7.179928E+03	4.217028E-03	2.018944E-05
7.189928E+03	4.208175E-03	2.018670E-05
7.199928E+03	4.201312E-03	2.019167E-05
7.209928E+03	4.196171E-03	2.020312E-05
7.219928E+03	4.192733E-03	2.022101E-05
7.229928E+03	4.190721E-03	2.024407E-05
7.239928E+03	4.190093E-03	2.027213E-05
7.249928E+03	4.190643E-03	2.030424E-05
7.259927E+03	4.192242E-03	2.033981E-05
7.269927E+03	4.194725E-03	2.037809E-05
7.279927E+03	4.198055E-03	2.041891E-05
7.289927E+03	4.202148E-03	2.046190E-05
7.299927E+03	4.206868E-03	2.050644E-05
7.309927E+03	4.212199E-03	2.055247E-05
7.319927E+03	4.218014E-03	2.059940E-05
7.329927E+03	4.224247E-03	2.064693E-05
7.339927E+03	4.230832E-03	2.069478E-05
7.349927E+03	4.237770E-03	2.074297E-05
7.359926E+03	4.244877E-03	2.079065E-05
7.369926E+03	4.252152E-03	2.083783E-05
7.379926E+03	4.259543E-03	2.088429E-05
7.389926E+03	4.266989E-03	2.092978E-05
7.399926E+03	4.274374E-03	2.097375E-05
7.409926E+03	4.281708E-03	2.101630E-05
7.419926E+03	4.288874E-03	2.105689E-05
7.429926E+03	4.295756E-03	2.109501E-05
7.439926E+03	4.302429E-03	2.113106E-05
7.449926E+03	4.308719E-03	2.116425E-05
7.459925E+03	4.314636E-03	2.119467E-05
7.469925E+03	4.320072E-03	2.122185E-05
7.479925E+03	4.324976E-03	2.124560E-05
7.489925E+03	4.329373E-03	2.126610E-05
7.499925E+03	4.333149E-03	2.128287E-05
7.509925E+03	4.336396E-03	2.129642E-05
7.519925E+03	4.339009E-03	2.130631E-05
7.529925E+03	4.340946E-03	2.131242E-05
7.539925E+03	4.342243E-03	2.131499E-05
7.549925E+03	4.342929E-03	2.131426E-05
7.559924E+03	4.342842E-03	2.130950E-05
7.569924E+03	4.342086E-03	2.130134E-05
7.579924E+03	4.340633E-03	2.128971E-05
7.589924E+03	4.338394E-03	2.127427E-05
7.599924E+03	4.335483E-03	2.125568E-05
7.609924E+03	4.331748E-03	2.123329E-05
7.619924E+03	4.327237E-03	2.120744E-05
7.629924E+03	4.322009E-03	2.117852E-05
7.639924E+03	4.316051E-03	2.114657E-05
7.649924E+03	4.309292E-03	2.111134E-05
7.659923E+03	4.301728E-03	2.107293E-05
7.669923E+03	4.293493E-03	2.103209E-05
7.679923E+03	4.284527E-03	2.098863E-05
7.689923E+03	4.274829E-03	2.094267E-05
7.699923E+03	4.264414E-03	2.089438E-05
7.709923E+03	4.253293E-03	2.084392E-05
7.719923E+03	4.241549E-03	2.079181E-05
7.729923E+03	4.229131E-03	2.073790E-05
7.739923E+03	4.216133E-03	2.068276E-05
7.749923E+03	4.202579E-03	2.062661E-05
7.759922E+03	4.188495E-03	2.056967E-05
