#wls	flux	fluxerr
1.599984E+03	5.549052E-05	1.406347E-07
1.639984E+03	5.477964E-05	1.388327E-07
1.679983E+03	5.412937E-05	1.371844E-07
1.719983E+03	5.356698E-05	1.357588E-07
1.759982E+03	5.309542E-05	1.345634E-07
1.799982E+03	5.269585E-05	1.335504E-07
1.839982E+03	5.241826E-05	1.328466E-07
1.879981E+03	5.222322E-05	1.323520E-07
1.919981E+03	5.216110E-05	1.321943E-07
1.959980E+03	5.221717E-05	1.323362E-07
1.999980E+03	5.242118E-05	1.328529E-07
2.039980E+03	5.276165E-05	1.337155E-07
2.079979E+03	5.327086E-05	1.350057E-07
2.119979E+03	5.398215E-05	1.368081E-07
2.159978E+03	5.488939E-05	1.391070E-07
2.199978E+03	5.600912E-05	1.419445E-07
2.239978E+03	5.738049E-05	1.454197E-07
2.279977E+03	5.902390E-05	1.495843E-07
2.319977E+03	6.098271E-05	1.545482E-07
2.359976E+03	6.325990E-05	1.603190E-07
2.399976E+03	6.590164E-05	1.670136E-07
2.439976E+03	6.891126E-05	1.746405E-07
2.479975E+03	7.233446E-05	1.833155E-07
2.519975E+03	7.616982E-05	1.930351E-07
2.559974E+03	8.048071E-05	2.039597E-07
2.599974E+03	8.523091E-05	2.159976E-07
2.639974E+03	9.047107E-05	2.292771E-07
2.679973E+03	9.616802E-05	2.437142E-07
2.719973E+03	1.023255E-04	2.593183E-07
2.759972E+03	1.089060E-04	2.759946E-07
2.799972E+03	1.158533E-04	2.936003E-07
2.839972E+03	1.231194E-04	3.120139E-07
2.879971E+03	1.306065E-04	3.309873E-07
2.919971E+03	1.382234E-04	3.502896E-07
2.959970E+03	1.458249E-04	3.695531E-07
2.999970E+03	1.532410E-04	3.883464E-07
3.009970E+03	1.550438E-04	3.929150E-07
3.019970E+03	1.568360E-04	3.974566E-07
3.029970E+03	1.585819E-04	4.018809E-07
3.039970E+03	1.603104E-04	4.062613E-07
3.049970E+03	1.620183E-04	4.105893E-07
3.059969E+03	1.636694E-04	4.147735E-07
3.069969E+03	1.652930E-04	4.188877E-07
3.079969E+03	1.668849E-04	4.229219E-07
3.089969E+03	1.684093E-04	4.267848E-07
3.099969E+03	1.698949E-04	4.305496E-07
3.109969E+03	1.713055E-04	4.341240E-07
3.119969E+03	1.727022E-04	4.376634E-07
3.129969E+03	1.740163E-04	4.409935E-07
3.139969E+03	1.752766E-04	4.441871E-07
3.149969E+03	1.764466E-04	4.471520E-07
3.159968E+03	1.775874E-04	4.500428E-07
3.169968E+03	1.786307E-04	4.526866E-07
3.179968E+03	1.796367E-04	4.552359E-07
3.189968E+03	1.805382E-04	4.575203E-07
3.199968E+03	1.813631E-04	4.596107E-07
3.209968E+03	1.821397E-04	4.615784E-07
3.219968E+03	1.828010E-04	4.632541E-07
3.229968E+03	1.834068E-04	4.647892E-07
3.239968E+03	1.838915E-04	4.660173E-07
3.249968E+03	1.843135E-04	4.670867E-07
3.259967E+03	1.846698E-04	4.679894E-07
3.269967E+03	1.848967E-04	4.685642E-07
3.279967E+03	1.850816E-04	4.690327E-07
3.289967E+03	1.851328E-04	4.691621E-07
3.299967E+03	1.851069E-04	4.690965E-07
3.309967E+03	1.850018E-04	4.688300E-07
3.319967E+03	1.847867E-04	4.682846E-07
3.329967E+03	1.845168E-04	4.676004E-07
3.339967E+03	1.841064E-04	4.665603E-07
3.349967E+03	1.836382E-04	4.653736E-07
3.359966E+03	1.830835E-04	4.639676E-07
3.369966E+03	1.824416E-04	4.623409E-07
3.379966E+03	1.817126E-04	4.604933E-07
3.389966E+03	1.808967E-04	4.584256E-07
3.399966E+03	1.799950E-04	4.561404E-07
3.409966E+03	1.790336E-04	4.537039E-07
3.419966E+03	1.779887E-04	4.510556E-07
3.429966E+03	1.768627E-04	4.482021E-07
3.439966E+03	1.757055E-04	4.452693E-07
3.449966E+03	1.744719E-04	4.421429E-07
3.459965E+03	1.731663E-04	4.388342E-07
3.469965E+03	1.718374E-04	4.354664E-07
3.479965E+03	1.704663E-04	4.319916E-07
3.489965E+03	1.690369E-04	4.283691E-07
3.499965E+03	1.675968E-04	4.247195E-07
3.509965E+03	1.661511E-04	4.210556E-07
3.519965E+03	1.646659E-04	4.172919E-07
3.529965E+03	1.632079E-04	4.135968E-07
3.539965E+03	1.617269E-04	4.098437E-07
3.549965E+03	1.602885E-04	4.061983E-07
3.559964E+03	1.588829E-04	4.026362E-07
3.569964E+03	1.575034E-04	3.991401E-07
3.579964E+03	1.561967E-04	3.958286E-07
3.589964E+03	1.549588E-04	3.926916E-07
3.599964E+03	1.538064E-04	3.897708E-07
3.609964E+03	1.527782E-04	3.871652E-07
3.619964E+03	1.518849E-04	3.849013E-07
3.629964E+03	1.511704E-04	3.830904E-07
3.639964E+03	1.506640E-04	3.818071E-07
3.649964E+03	1.503966E-04	3.811294E-07
3.659963E+03	1.504012E-04	3.811408E-07
3.669963E+03	1.507123E-04	3.819292E-07
3.679963E+03	1.513817E-04	3.836255E-07
3.689963E+03	1.524344E-04	3.862930E-07
3.699963E+03	1.539184E-04	3.900537E-07
3.709963E+03	1.558547E-04	3.949603E-07
3.719963E+03	1.583101E-04	4.011826E-07
3.729963E+03	1.613031E-04	4.087673E-07
3.739963E+03	1.649132E-04	4.179157E-07
3.749963E+03	1.691875E-04	4.287473E-07
3.759962E+03	1.741958E-04	4.414389E-07
3.769962E+03	1.800469E-04	4.562663E-07
3.779962E+03	1.867934E-04	4.733628E-07
3.789962E+03	1.945868E-04	4.931123E-07
3.799962E+03	2.035411E-04	5.158038E-07
3.809962E+03	2.138056E-04	5.418154E-07
3.819962E+03	2.255706E-04	5.716296E-07
3.829962E+03	2.390259E-04	6.057270E-07
3.839962E+03	2.544284E-04	6.447592E-07
3.849962E+03	2.720450E-04	6.894020E-07
3.857461E+03	6.120135E-05	1.550932E-07
3.859961E+03	6.605796E-05	1.674005E-07
3.862461E+03	6.871644E-05	1.741375E-07
3.864961E+03	7.268260E-05	1.841883E-07
3.867461E+03	7.514966E-05	1.904402E-07
3.869961E+03	7.832190E-05	1.984791E-07
3.872461E+03	8.335143E-05	2.112246E-07
3.874961E+03	8.699313E-05	2.204532E-07
3.877461E+03	9.904315E-05	2.509897E-07
3.879961E+03	1.102133E-04	2.792965E-07
3.882461E+03	1.209751E-04	3.065683E-07
3.884961E+03	1.333148E-04	3.378389E-07
3.887461E+03	1.493041E-04	3.783580E-07
3.889961E+03	1.598412E-04	4.050606E-07
3.892461E+03	1.719882E-04	4.358429E-07
3.894961E+03	1.846556E-04	4.679439E-07
3.897461E+03	2.017556E-04	5.112776E-07
3.899961E+03	2.193923E-04	5.559715E-07
3.902461E+03	2.430006E-04	6.157983E-07
3.904961E+03	2.650631E-04	6.717078E-07
3.907461E+03	2.848395E-04	7.218240E-07
3.909961E+03	3.083478E-04	7.813973E-07
3.912461E+03	3.343165E-04	8.472056E-07
3.914961E+03	3.644051E-04	9.234543E-07
3.917461E+03	3.955593E-04	1.002403E-06
3.919961E+03	4.262887E-04	1.080276E-06
3.922461E+03	4.593846E-04	1.164146E-06
3.924961E+03	4.960688E-04	1.257108E-06
3.927461E+03	5.342195E-04	1.353788E-06
3.929961E+03	5.734671E-04	1.453247E-06
3.932461E+03	6.171481E-04	1.563940E-06
3.934961E+03	6.618000E-04	1.677094E-06
3.937461E+03	7.064970E-04	1.790363E-06
3.939961E+03	7.505695E-04	1.902048E-06
3.942461E+03	7.950927E-04	2.014876E-06
3.944961E+03	8.363027E-04	2.119308E-06
3.947461E+03	8.771660E-04	2.222861E-06
3.949961E+03	9.129083E-04	2.313437E-06
3.952460E+03	9.479926E-04	2.402345E-06
3.954960E+03	9.792440E-04	2.481541E-06
3.957460E+03	1.003586E-03	2.543228E-06
3.959960E+03	1.021843E-03	2.589491E-06
3.962460E+03	1.041064E-03	2.638202E-06
3.964960E+03	1.054432E-03	2.672077E-06
3.967460E+03	1.059907E-03	2.685951E-06
3.969960E+03	1.057869E-03	2.680787E-06
3.972460E+03	1.049946E-03	2.660708E-06
3.974960E+03	1.036855E-03	2.627533E-06
3.977460E+03	1.019584E-03	2.583767E-06
3.979960E+03	9.969235E-04	2.526341E-06
3.982460E+03	9.681921E-04	2.453532E-06
3.984960E+03	9.347385E-04	2.368756E-06
3.987460E+03	8.966619E-04	2.272264E-06
3.989960E+03	8.614374E-04	2.183000E-06
3.992460E+03	8.220222E-04	2.083117E-06
3.994960E+03	7.888322E-04	1.999009E-06
3.997460E+03	7.657805E-04	1.940592E-06
3.999960E+03	7.368974E-04	1.867398E-06
4.002460E+03	7.136349E-04	1.808448E-06
4.004960E+03	6.955946E-04	1.762731E-06
4.007460E+03	6.862225E-04	1.738981E-06
4.009960E+03	6.795504E-04	1.722073E-06
4.012460E+03	6.837624E-04	1.732746E-06
4.014960E+03	6.976588E-04	1.767962E-06
4.017460E+03	7.135427E-04	1.808213E-06
4.019960E+03	7.346266E-04	1.861643E-06
4.022460E+03	7.711694E-04	1.954247E-06
4.024960E+03	8.147310E-04	2.064638E-06
4.027460E+03	8.699380E-04	2.204540E-06
4.029960E+03	9.406767E-04	2.383801E-06
4.032460E+03	1.017793E-03	2.579225E-06
4.034960E+03	1.103623E-03	2.796729E-06
4.037460E+03	1.184363E-03	3.001334E-06
4.039960E+03	1.261101E-03	3.195798E-06
4.042460E+03	1.340990E-03	3.398249E-06
4.044960E+03	1.414603E-03	3.584791E-06
4.047460E+03	1.484482E-03	3.761876E-06
4.049960E+03	1.550985E-03	3.930402E-06
4.052459E+03	1.616956E-03	4.097582E-06
4.054959E+03	1.674857E-03	4.244309E-06
4.057459E+03	1.727709E-03	4.378244E-06
4.059959E+03	1.777613E-03	4.504706E-06
4.062459E+03	1.821429E-03	4.615742E-06
4.064959E+03	1.858629E-03	4.710012E-06
4.067459E+03	1.897306E-03	4.808024E-06
4.069959E+03	1.929962E-03	4.890777E-06
4.072459E+03	1.962386E-03	4.972945E-06
4.074959E+03	1.987085E-03	5.035533E-06
4.077459E+03	2.006829E-03	5.085567E-06
4.079959E+03	2.024254E-03	5.129725E-06
4.082459E+03	2.037259E-03	5.162679E-06
4.084959E+03	2.042599E-03	5.176211E-06
4.087459E+03	2.041127E-03	5.172482E-06
4.089959E+03	2.033071E-03	5.152066E-06
4.092459E+03	2.019195E-03	5.116903E-06
4.094959E+03	1.997952E-03	5.063070E-06
4.097459E+03	1.968764E-03	4.989104E-06
4.099959E+03	1.932944E-03	4.898331E-06
4.102459E+03	1.889279E-03	4.787678E-06
4.104959E+03	1.834986E-03	4.650091E-06
4.107459E+03	1.775150E-03	4.498460E-06
4.109959E+03	1.713826E-03	4.343056E-06
4.112459E+03	1.641366E-03	4.159432E-06
4.114959E+03	1.570020E-03	3.978632E-06
4.117459E+03	1.490125E-03	3.776167E-06
4.119959E+03	1.403485E-03	3.556612E-06
4.122459E+03	1.318059E-03	3.340131E-06
4.124959E+03	1.229742E-03	3.116323E-06
4.127459E+03	1.143870E-03	2.898713E-06
4.129959E+03	1.055328E-03	2.674335E-06
4.132459E+03	9.643972E-04	2.443905E-06
4.134959E+03	8.737381E-04	2.214164E-06
4.137459E+03	7.796714E-04	1.975786E-06
4.139959E+03	6.984974E-04	1.770081E-06
4.142459E+03	6.327847E-04	1.603557E-06
4.144959E+03	5.790303E-04	1.467336E-06
4.147459E+03	5.392156E-04	1.366440E-06
4.149959E+03	5.131017E-04	1.300264E-06
4.152458E+03	4.979191E-04	1.261790E-06
4.154958E+03	4.951586E-04	1.254794E-06
4.157458E+03	4.932779E-04	1.250028E-06
4.159958E+03	5.043163E-04	1.278001E-06
4.162458E+03	5.254854E-04	1.331646E-06
4.164958E+03	5.458485E-04	1.383248E-06
4.167458E+03	5.705666E-04	1.445887E-06
4.169958E+03	5.982313E-04	1.515993E-06
4.172458E+03	6.314758E-04	1.600238E-06
4.174958E+03	6.625450E-04	1.678972E-06
4.177458E+03	6.980520E-04	1.768951E-06
4.179958E+03	7.361480E-04	1.865491E-06
4.182458E+03	7.744737E-04	1.962612E-06
4.184958E+03	8.150674E-04	2.065482E-06
4.187458E+03	8.609148E-04	2.181665E-06
4.189958E+03	9.076143E-04	2.300007E-06
4.192458E+03	9.593612E-04	2.431140E-06
4.194958E+03	1.009827E-03	2.559027E-06
4.197458E+03	1.061529E-03	2.690045E-06
4.199958E+03	1.111642E-03	2.817039E-06
4.202458E+03	1.157262E-03	2.932644E-06
4.204958E+03	1.202994E-03	3.048533E-06
4.207458E+03	1.245559E-03	3.156399E-06
4.209958E+03	1.284134E-03	3.254153E-06
4.212458E+03	1.314569E-03	3.331277E-06
4.214958E+03	1.341106E-03	3.398526E-06
4.217458E+03	1.362848E-03	3.453623E-06
4.219958E+03	1.381137E-03	3.499969E-06
4.222458E+03	1.389216E-03	3.520442E-06
4.224958E+03	1.392536E-03	3.528856E-06
4.227458E+03	1.388212E-03	3.517898E-06
4.229958E+03	1.379599E-03	3.496070E-06
4.232458E+03	1.363874E-03	3.456221E-06
4.234958E+03	1.345362E-03	3.409311E-06
4.237458E+03	1.322373E-03	3.351053E-06
4.239958E+03	1.298222E-03	3.289851E-06
4.242458E+03	1.276380E-03	3.234499E-06
4.244958E+03	1.247245E-03	3.160669E-06
4.247458E+03	1.217585E-03	3.085507E-06
4.249958E+03	1.190713E-03	3.017409E-06
4.252457E+03	1.162421E-03	2.945714E-06
4.254957E+03	1.140285E-03	2.889619E-06
4.257457E+03	1.121660E-03	2.842420E-06
4.259957E+03	1.108258E-03	2.808458E-06
4.262457E+03	1.108681E-03	2.809529E-06
4.264957E+03	1.109309E-03	2.811120E-06
4.267457E+03	1.115053E-03	2.825677E-06
4.269957E+03	1.126282E-03	2.854132E-06
4.272457E+03	1.144655E-03	2.900692E-06
4.274957E+03	1.166844E-03	2.956921E-06
4.277457E+03	1.189222E-03	3.013629E-06
4.279957E+03	1.213122E-03	3.074194E-06
4.282457E+03	1.237776E-03	3.136671E-06
4.284957E+03	1.257709E-03	3.187183E-06
4.287457E+03	1.271145E-03	3.221230E-06
4.289957E+03	1.286227E-03	3.259451E-06
4.292457E+03	1.299438E-03	3.292928E-06
4.294957E+03	1.308864E-03	3.316814E-06
4.297457E+03	1.313997E-03	3.329821E-06
4.299957E+03	1.314184E-03	3.330296E-06
4.302457E+03	1.308417E-03	3.315682E-06
4.304957E+03	1.304971E-03	3.306950E-06
4.307457E+03	1.302684E-03	3.301154E-06
4.309957E+03	1.299178E-03	3.292268E-06
4.312457E+03	1.294199E-03	3.279652E-06
4.314957E+03	1.285570E-03	3.257784E-06
4.317457E+03	1.272920E-03	3.225728E-06
4.319957E+03	1.261522E-03	3.196842E-06
4.322457E+03	1.250913E-03	3.169959E-06
4.324957E+03	1.242674E-03	3.149079E-06
4.327457E+03	1.236739E-03	3.134039E-06
4.329957E+03	1.232902E-03	3.124317E-06
4.332457E+03	1.231279E-03	3.120203E-06
4.334957E+03	1.236120E-03	3.132470E-06
4.337457E+03	1.251335E-03	3.171027E-06
4.339957E+03	1.268059E-03	3.213406E-06
4.342457E+03	1.285032E-03	3.256417E-06
4.344957E+03	1.303845E-03	3.304092E-06
4.347457E+03	1.325408E-03	3.358735E-06
4.349957E+03	1.354474E-03	3.432391E-06
4.352456E+03	1.385050E-03	3.509875E-06
4.354956E+03	1.421243E-03	3.601591E-06
4.357456E+03	1.455695E-03	3.688896E-06
4.359956E+03	1.490109E-03	3.776105E-06
4.362456E+03	1.527216E-03	3.870139E-06
4.364956E+03	1.559989E-03	3.953188E-06
4.367456E+03	1.591405E-03	4.032799E-06
4.369956E+03	1.622153E-03	4.110719E-06
4.372456E+03	1.648280E-03	4.176928E-06
4.374956E+03	1.673177E-03	4.240018E-06
4.377456E+03	1.693208E-03	4.290780E-06
4.379956E+03	1.716836E-03	4.350655E-06
4.382456E+03	1.732499E-03	4.390346E-06
4.384956E+03	1.739544E-03	4.408200E-06
4.387456E+03	1.751936E-03	4.439601E-06
4.389956E+03	1.765378E-03	4.473664E-06
4.392456E+03	1.779910E-03	4.510491E-06
4.394956E+03	1.793727E-03	4.545504E-06
4.397456E+03	1.812298E-03	4.592564E-06
4.399956E+03	1.829307E-03	4.635668E-06
4.402456E+03	1.854386E-03	4.699219E-06
4.404956E+03	1.876948E-03	4.756393E-06
4.407456E+03	1.898657E-03	4.811406E-06
4.409956E+03	1.929993E-03	4.890817E-06
4.412456E+03	1.966038E-03	4.982156E-06
4.414956E+03	2.006804E-03	5.085463E-06
4.417456E+03	2.055886E-03	5.209843E-06
4.419956E+03	2.104910E-03	5.334073E-06
4.422456E+03	2.155854E-03	5.463170E-06
4.424956E+03	2.214112E-03	5.610804E-06
4.427456E+03	2.267307E-03	5.745606E-06
4.429956E+03	2.317527E-03	5.872866E-06
4.432456E+03	2.362505E-03	5.986845E-06
4.434956E+03	2.398958E-03	6.079222E-06
4.437456E+03	2.426259E-03	6.148405E-06
4.439956E+03	2.442798E-03	6.190316E-06
4.442456E+03	2.450691E-03	6.210317E-06
4.444956E+03	2.445759E-03	6.197820E-06
4.447456E+03	2.430537E-03	6.159246E-06
4.449956E+03	2.403216E-03	6.090009E-06
4.452455E+03	2.363872E-03	5.990307E-06
4.454955E+03	2.315578E-03	5.867925E-06
4.457455E+03	2.262058E-03	5.732299E-06
4.459955E+03	2.192149E-03	5.555141E-06
4.462455E+03	2.109904E-03	5.346724E-06
4.464955E+03	2.022814E-03	5.126027E-06
4.467455E+03	1.941289E-03	4.919434E-06
4.469955E+03	1.853277E-03	4.696402E-06
4.472455E+03	1.762916E-03	4.467419E-06
4.474955E+03	1.679852E-03	4.256925E-06
4.477455E+03	1.598609E-03	4.051046E-06
4.479955E+03	1.524581E-03	3.863450E-06
4.482455E+03	1.464980E-03	3.712415E-06
4.484955E+03	1.414486E-03	3.584459E-06
4.487455E+03	1.367149E-03	3.464500E-06
4.489955E+03	1.336283E-03	3.386283E-06
4.492455E+03	1.318786E-03	3.341944E-06
4.494955E+03	1.314385E-03	3.330792E-06
4.497455E+03	1.325690E-03	3.359440E-06
4.499955E+03	1.344891E-03	3.408097E-06
4.502455E+03	1.366808E-03	3.463635E-06
4.504955E+03	1.403202E-03	3.555862E-06
4.507455E+03	1.450482E-03	3.675675E-06
4.509955E+03	1.506743E-03	3.818246E-06
4.512455E+03	1.567292E-03	3.971683E-06
4.514955E+03	1.632407E-03	4.136690E-06
4.517455E+03	1.706199E-03	4.323686E-06
4.519955E+03	1.787019E-03	4.528494E-06
4.522455E+03	1.886820E-03	4.781400E-06
4.524955E+03	1.995595E-03	5.057046E-06
4.527455E+03	2.119222E-03	5.370329E-06
4.529955E+03	2.266352E-03	5.743173E-06
4.532455E+03	2.430192E-03	6.158358E-06
4.534955E+03	2.622011E-03	6.644449E-06
4.537455E+03	2.841514E-03	7.200692E-06
4.539955E+03	3.079789E-03	7.804505E-06
4.542455E+03	3.342171E-03	8.469409E-06
4.544955E+03	3.627174E-03	9.191634E-06
4.547455E+03	3.920939E-03	9.936064E-06
4.549955E+03	4.226908E-03	1.071142E-05
4.552454E+03	4.542594E-03	1.151140E-05
4.554954E+03	4.858613E-03	1.231222E-05
4.557454E+03	5.173389E-03	1.310990E-05
4.559954E+03	5.479860E-03	1.388653E-05
4.562454E+03	5.777608E-03	1.464105E-05
4.564954E+03	6.056409E-03	1.534756E-05
4.567454E+03	6.318181E-03	1.601092E-05
4.569954E+03	6.551111E-03	1.660119E-05
4.572454E+03	6.761817E-03	1.713513E-05
4.574954E+03	6.951431E-03	1.761563E-05
4.577454E+03	7.115980E-03	1.803262E-05
4.579954E+03	7.254632E-03	1.838398E-05
4.582454E+03	7.354361E-03	1.863670E-05
4.584954E+03	7.432815E-03	1.883551E-05
4.587454E+03	7.485235E-03	1.896834E-05
4.589954E+03	7.502129E-03	1.901115E-05
4.592454E+03	7.499606E-03	1.900476E-05
4.594954E+03	7.483944E-03	1.896507E-05
4.597454E+03	7.448823E-03	1.887607E-05
4.599954E+03	7.392244E-03	1.873269E-05
4.602454E+03	7.327605E-03	1.856889E-05
4.604954E+03	7.250158E-03	1.837263E-05
4.607454E+03	7.165426E-03	1.815791E-05
4.609954E+03	7.091961E-03	1.797174E-05
4.612454E+03	7.023458E-03	1.779815E-05
4.614954E+03	6.974933E-03	1.767518E-05
4.617454E+03	6.947587E-03	1.760588E-05
4.619954E+03	6.932343E-03	1.756725E-05
4.622454E+03	6.936324E-03	1.757733E-05
4.624954E+03	6.948460E-03	1.760809E-05
4.627454E+03	6.979038E-03	1.768558E-05
4.629954E+03	7.033598E-03	1.782383E-05
4.632454E+03	7.099481E-03	1.799079E-05
4.634954E+03	7.171545E-03	1.817340E-05
4.637454E+03	7.254529E-03	1.838369E-05
4.639954E+03	7.346453E-03	1.861664E-05
4.642454E+03	7.435049E-03	1.884115E-05
4.644954E+03	7.520707E-03	1.905821E-05
4.647454E+03	7.597093E-03	1.925178E-05
4.649954E+03	7.671720E-03	1.944089E-05
4.652453E+03	7.739842E-03	1.961352E-05
4.654953E+03	7.805412E-03	1.977968E-05
4.657453E+03	7.866059E-03	1.993336E-05
4.659953E+03	7.938389E-03	2.011665E-05
4.662453E+03	8.007770E-03	2.029247E-05
4.664953E+03	8.074597E-03	2.046182E-05
4.667453E+03	8.136896E-03	2.061969E-05
4.669953E+03	8.185187E-03	2.074206E-05
4.672453E+03	8.225408E-03	2.084398E-05
4.674953E+03	8.255192E-03	2.091946E-05
4.677453E+03	8.282841E-03	2.098952E-05
4.679953E+03	8.311121E-03	2.106118E-05
4.682453E+03	8.323461E-03	2.109246E-05
4.684953E+03	8.322645E-03	2.109039E-05
4.687453E+03	8.321296E-03	2.108697E-05
4.689953E+03	8.306419E-03	2.104927E-05
4.692453E+03	8.296544E-03	2.102424E-05
4.694953E+03	8.284974E-03	2.099492E-05
4.697453E+03	8.268960E-03	2.095434E-05
4.699953E+03	8.247724E-03	2.090052E-05
4.702453E+03	8.204758E-03	2.079164E-05
4.704953E+03	8.171150E-03	2.070647E-05
4.707453E+03	8.150030E-03	2.065295E-05
4.709953E+03	8.131570E-03	2.060617E-05
4.712453E+03	8.110273E-03	2.055220E-05
4.714953E+03	8.082615E-03	2.048211E-05
4.717453E+03	8.043120E-03	2.038203E-05
4.719953E+03	7.995729E-03	2.026194E-05
4.722453E+03	7.940461E-03	2.012188E-05
4.724953E+03	7.874587E-03	1.995495E-05
4.727453E+03	7.804003E-03	1.977608E-05
4.729953E+03	7.733800E-03	1.959818E-05
4.732453E+03	7.651871E-03	1.939056E-05
4.734953E+03	7.568395E-03	1.917903E-05
4.737453E+03	7.483765E-03	1.896457E-05
4.739953E+03	7.380831E-03	1.870372E-05
4.742453E+03	7.268985E-03	1.842029E-05
4.744953E+03	7.154481E-03	1.813012E-05
4.747453E+03	7.064971E-03	1.790330E-05
4.749953E+03	6.998462E-03	1.773476E-05
4.752452E+03	6.941306E-03	1.758992E-05
4.754952E+03	6.893490E-03	1.746875E-05
4.757452E+03	6.859265E-03	1.738202E-05
4.759952E+03	6.838606E-03	1.732966E-05
4.762452E+03	6.828388E-03	1.730377E-05
4.764952E+03	6.826263E-03	1.729838E-05
4.767452E+03	6.818278E-03	1.727815E-05
4.769952E+03	6.812958E-03	1.726467E-05
4.772452E+03	6.817257E-03	1.727556E-05
4.774952E+03	6.826522E-03	1.729904E-05
4.777452E+03	6.855409E-03	1.737224E-05
4.779952E+03	6.904263E-03	1.749604E-05
4.782452E+03	6.945669E-03	1.760097E-05
4.784952E+03	6.987736E-03	1.770756E-05
4.787452E+03	7.016223E-03	1.777975E-05
4.789952E+03	7.011162E-03	1.776693E-05
4.792452E+03	6.991080E-03	1.771604E-05
4.794952E+03	6.954092E-03	1.762231E-05
4.797452E+03	6.897554E-03	1.747903E-05
4.799952E+03	6.816916E-03	1.727469E-05
4.802452E+03	6.700746E-03	1.698030E-05
4.804952E+03	6.565205E-03	1.663683E-05
4.807452E+03	6.420291E-03	1.626960E-05
4.809952E+03	6.253797E-03	1.584769E-05
4.812452E+03	6.074563E-03	1.539350E-05
4.814952E+03	5.886440E-03	1.491677E-05
4.817452E+03	5.689832E-03	1.441855E-05
4.819952E+03	5.488956E-03	1.390951E-05
4.822452E+03	5.287247E-03	1.339836E-05
4.824952E+03	5.104865E-03	1.293619E-05
4.827452E+03	4.935683E-03	1.250746E-05
4.829952E+03	4.767907E-03	1.208230E-05
4.832452E+03	4.605705E-03	1.167127E-05
