#wls	flux	fluxerr
1.599984E+03	4.658523E-05	1.515342E-06
1.639984E+03	4.633772E-05	1.497890E-06
1.679983E+03	4.614515E-05	1.482087E-06
1.719983E+03	4.602809E-05	1.468557E-06
1.759982E+03	4.599134E-05	1.457400E-06
1.799982E+03	4.604023E-05	1.448731E-06
1.839982E+03	4.618064E-05	1.442670E-06
1.879981E+03	4.641910E-05	1.439354E-06
1.919981E+03	4.676279E-05	1.438928E-06
1.959980E+03	4.720530E-05	1.441114E-06
1.999980E+03	4.778377E-05	1.446953E-06
2.039980E+03	4.849312E-05	1.456182E-06
2.079979E+03	4.932928E-05	1.468564E-06
2.119979E+03	5.033111E-05	1.485133E-06
2.159978E+03	5.149588E-05	1.505658E-06
2.199978E+03	5.282125E-05	1.529918E-06
2.239978E+03	5.433360E-05	1.558514E-06
2.279977E+03	5.604535E-05	1.591612E-06
2.319977E+03	5.795419E-05	1.628946E-06
2.359976E+03	6.010137E-05	1.671457E-06
2.399976E+03	6.245300E-05	1.717960E-06
2.439976E+03	6.504816E-05	1.769291E-06
2.479975E+03	6.789445E-05	1.825381E-06
2.519975E+03	7.098036E-05	1.885638E-06
2.559974E+03	7.430597E-05	1.949779E-06
2.599974E+03	7.786677E-05	2.017394E-06
2.639974E+03	8.167072E-05	2.088390E-06
2.679973E+03	8.566671E-05	2.161166E-06
2.719973E+03	8.984918E-05	2.235316E-06
2.759972E+03	9.418798E-05	2.309835E-06
2.799972E+03	9.864534E-05	2.383571E-06
2.839972E+03	1.031555E-04	2.454760E-06
2.879971E+03	1.077067E-04	2.522993E-06
2.919971E+03	1.121988E-04	2.585850E-06
2.959970E+03	1.166111E-04	2.642858E-06
2.999970E+03	1.209005E-04	2.693091E-06
3.009970E+03	1.219299E-04	2.704072E-06
3.019970E+03	1.229646E-04	2.714929E-06
3.029970E+03	1.239813E-04	2.725145E-06
3.039970E+03	1.249788E-04	2.734701E-06
3.049970E+03	1.259790E-04	2.744075E-06
3.059969E+03	1.269581E-04	2.752753E-06
3.069969E+03	1.279152E-04	2.760718E-06
3.079969E+03	1.288721E-04	2.768448E-06
3.089969E+03	1.298050E-04	2.775432E-06
3.099969E+03	1.307361E-04	2.782148E-06
3.109969E+03	1.316416E-04	2.788090E-06
3.119969E+03	1.325202E-04	2.793244E-06
3.129969E+03	1.333945E-04	2.798087E-06
3.139969E+03	1.342637E-04	2.802604E-06
3.149969E+03	1.351038E-04	2.806298E-06
3.159968E+03	1.359372E-04	2.809641E-06
3.169968E+03	1.367400E-04	2.812143E-06
3.179968E+03	1.375346E-04	2.814270E-06
3.189968E+03	1.383207E-04	2.816019E-06
3.199968E+03	1.390971E-04	2.817370E-06
3.209968E+03	1.398637E-04	2.818321E-06
3.219968E+03	1.405963E-04	2.818391E-06
3.229968E+03	1.413178E-04	2.818046E-06
3.239968E+03	1.420506E-04	2.817737E-06
3.249968E+03	1.427480E-04	2.816534E-06
3.259967E+03	1.434326E-04	2.814897E-06
3.269967E+03	1.441270E-04	2.813266E-06
3.279967E+03	1.448077E-04	2.811186E-06
3.289967E+03	1.454742E-04	2.808647E-06
3.299967E+03	1.461259E-04	2.805648E-06
3.309967E+03	1.467627E-04	2.802188E-06
3.319967E+03	1.474071E-04	2.798698E-06
3.329967E+03	1.480356E-04	2.794736E-06
3.339967E+03	1.486707E-04	2.790726E-06
3.349967E+03	1.493120E-04	2.786660E-06
3.359966E+03	1.499364E-04	2.782108E-06
3.369966E+03	1.505436E-04	2.777072E-06
3.379966E+03	1.511783E-04	2.772372E-06
3.389966E+03	1.517951E-04	2.767179E-06
3.399966E+03	1.524164E-04	2.761900E-06
3.409966E+03	1.530416E-04	2.756523E-06
3.419966E+03	1.536923E-04	2.751437E-06
3.429966E+03	1.543244E-04	2.745847E-06
3.439966E+03	1.549813E-04	2.740528E-06
3.449966E+03	1.556197E-04	2.734711E-06
3.459965E+03	1.563039E-04	2.729526E-06
3.469965E+03	1.569696E-04	2.723841E-06
3.479965E+03	1.576809E-04	2.718770E-06
3.489965E+03	1.583955E-04	2.713574E-06
3.499965E+03	1.591144E-04	2.708267E-06
3.509965E+03	1.598801E-04	2.703570E-06
3.519965E+03	1.606522E-04	2.698787E-06
3.529965E+03	1.614539E-04	2.694304E-06
3.539965E+03	1.623080E-04	2.690491E-06
3.549965E+03	1.631774E-04	2.686721E-06
3.559964E+03	1.641081E-04	2.683740E-06
3.569964E+03	1.651063E-04	2.681630E-06
3.579964E+03	1.661410E-04	2.679869E-06
3.589964E+03	1.672829E-04	2.679579E-06
3.599964E+03	1.685064E-04	2.680316E-06
3.609964E+03	1.698287E-04	2.682327E-06
3.619964E+03	1.713095E-04	2.686515E-06
3.629964E+03	1.729334E-04	2.692587E-06
3.639964E+03	1.747461E-04	2.701205E-06
3.649964E+03	1.767961E-04	2.713050E-06
3.659963E+03	1.790961E-04	2.728236E-06
3.669963E+03	1.816621E-04	2.746922E-06
3.679963E+03	1.845890E-04	2.770444E-06
3.689963E+03	1.878799E-04	2.798728E-06
3.699963E+03	1.915790E-04	2.832309E-06
3.709963E+03	1.957541E-04	2.872041E-06
3.719963E+03	2.004583E-04	2.918543E-06
3.729963E+03	2.057494E-04	2.972469E-06
3.739963E+03	2.116713E-04	3.034254E-06
3.749963E+03	2.183338E-04	3.105247E-06
3.759962E+03	2.257954E-04	3.186023E-06
3.769962E+03	2.341631E-04	3.277812E-06
3.779962E+03	2.435132E-04	3.381369E-06
3.789962E+03	2.539521E-04	3.497831E-06
3.799962E+03	2.656218E-04	3.628770E-06
3.809962E+03	2.786562E-04	3.775590E-06
3.819962E+03	2.932055E-04	3.939849E-06
3.829962E+03	3.094363E-04	4.123261E-06
3.839962E+03	3.275345E-04	4.327718E-06
3.849962E+03	3.477056E-04	4.555286E-06
3.859961E+03	3.702048E-04	4.808588E-06
3.869961E+03	3.952855E-04	5.090108E-06
3.879961E+03	4.231925E-04	5.402107E-06
3.889961E+03	4.542458E-04	5.747689E-06
3.899961E+03	4.887022E-04	6.129027E-06
3.909961E+03	5.268800E-04	6.548943E-06
3.919961E+03	5.689497E-04	7.008295E-06
3.929961E+03	6.148737E-04	7.505332E-06
3.939961E+03	6.645924E-04	8.038053E-06
3.949961E+03	7.177497E-04	8.600936E-06
3.959960E+03	7.737708E-04	9.186020E-06
3.969960E+03	8.318834E-04	9.783284E-06
3.979960E+03	8.913969E-04	1.038401E-05
3.989960E+03	9.514258E-04	1.097753E-05
3.999960E+03	1.011073E-03	1.155344E-05
4.009960E+03	1.069432E-03	1.210166E-05
4.019960E+03	1.125434E-03	1.261065E-05
4.029960E+03	1.177755E-03	1.306654E-05
4.039960E+03	1.224953E-03	1.345475E-05
4.049960E+03	1.265410E-03	1.375943E-05
4.059959E+03	1.297334E-03	1.396355E-05
4.069959E+03	1.319118E-03	1.405282E-05
4.079959E+03	1.329576E-03	1.401815E-05
4.089959E+03	1.328053E-03	1.385643E-05
4.099959E+03	1.314887E-03	1.357513E-05
4.109959E+03	1.291318E-03	1.319074E-05
4.119959E+03	1.259287E-03	1.272630E-05
4.129959E+03	1.221699E-03	1.221360E-05
4.139959E+03	1.181596E-03	1.168452E-05
4.149959E+03	1.141997E-03	1.116942E-05
4.159958E+03	1.105441E-03	1.069266E-05
4.169958E+03	1.074066E-03	1.027369E-05
4.179958E+03	1.049440E-03	9.925668E-06
4.189958E+03	1.032469E-03	9.654887E-06
4.199958E+03	1.023823E-03	9.465105E-06
4.209958E+03	1.023984E-03	9.358068E-06
4.219958E+03	1.033316E-03	9.334293E-06
4.229958E+03	1.052175E-03	9.394103E-06
4.239958E+03	1.081095E-03	9.539251E-06
4.249958E+03	1.120883E-03	9.773699E-06
4.259957E+03	1.172388E-03	1.010147E-05
4.269957E+03	1.236750E-03	1.052874E-05
4.279957E+03	1.315007E-03	1.106043E-05
4.289957E+03	1.408267E-03	1.170169E-05
4.299957E+03	1.517197E-03	1.245363E-05
4.309957E+03	1.641701E-03	1.331102E-05
4.319957E+03	1.780718E-03	1.426101E-05
4.329957E+03	1.931941E-03	1.528142E-05
4.339957E+03	2.091414E-03	1.633816E-05
4.349957E+03	2.253370E-03	1.738483E-05
4.359956E+03	2.410183E-03	1.836313E-05
4.369956E+03	2.552762E-03	1.920669E-05
4.379956E+03	2.672245E-03	1.985428E-05
4.389956E+03	2.761589E-03	2.026122E-05
4.399956E+03	2.817129E-03	2.040982E-05
4.409956E+03	2.839792E-03	2.031636E-05
4.419956E+03	2.834056E-03	2.002165E-05
4.429956E+03	2.806559E-03	1.957975E-05
4.439956E+03	2.765099E-03	1.905021E-05
4.449956E+03	2.717926E-03	1.849280E-05
4.459955E+03	2.672842E-03	1.796136E-05
4.469955E+03	2.637201E-03	1.750416E-05
4.479955E+03	2.618184E-03	1.716593E-05
4.489955E+03	2.622623E-03	1.698698E-05
4.499955E+03	2.657225E-03	1.700483E-05
4.509955E+03	2.728058E-03	1.725119E-05
4.519955E+03	2.840554E-03	1.775232E-05
4.529955E+03	2.999376E-03	1.852861E-05
4.539955E+03	3.207950E-03	1.959208E-05
4.549955E+03	3.467446E-03	2.094080E-05
4.559954E+03	3.776361E-03	2.255724E-05
4.569954E+03	4.130610E-03	2.440972E-05
4.579954E+03	4.523434E-03	2.645264E-05
4.589954E+03	4.945268E-03	2.862649E-05
4.599954E+03	5.384655E-03	3.086371E-05
4.609954E+03	5.828414E-03	3.308996E-05
4.619954E+03	6.263143E-03	3.523277E-05
4.629954E+03	6.674895E-03	3.721941E-05
4.639954E+03	7.049823E-03	3.898024E-05
4.649954E+03	7.374846E-03	4.045199E-05
4.659953E+03	7.638329E-03	4.158040E-05
4.669953E+03	7.830260E-03	4.232044E-05
4.679953E+03	7.942868E-03	4.263946E-05
4.689953E+03	7.971851E-03	4.252322E-05
4.699953E+03	7.916720E-03	4.197709E-05
4.709953E+03	7.781122E-03	4.102714E-05
4.719953E+03	7.573785E-03	3.972462E-05
4.729953E+03	7.308196E-03	3.814381E-05
4.739953E+03	7.001717E-03	3.637709E-05
4.749953E+03	6.675355E-03	3.453364E-05
4.759952E+03	6.352224E-03	3.273149E-05
4.769952E+03	6.054226E-03	3.108066E-05
4.779952E+03	5.798756E-03	2.966671E-05
4.789952E+03	5.598117E-03	2.854848E-05
4.799952E+03	5.460173E-03	2.776187E-05
4.809952E+03	5.388647E-03	2.732184E-05
4.819952E+03	5.383971E-03	2.722696E-05
4.829952E+03	5.444277E-03	2.746458E-05
4.839952E+03	5.567217E-03	2.802005E-05
4.849952E+03	5.749737E-03	2.887556E-05
4.859951E+03	5.988607E-03	3.001274E-05
4.869951E+03	6.280199E-03	3.141150E-05
4.879951E+03	6.620578E-03	3.305042E-05
4.889951E+03	7.003834E-03	3.489843E-05
4.899951E+03	7.420707E-03	3.690798E-05
4.909951E+03	7.856595E-03	3.900530E-05
4.919951E+03	8.291778E-03	4.109166E-05
4.929951E+03	8.703063E-03	4.305181E-05
4.939951E+03	9.066910E-03	4.476951E-05
4.949951E+03	9.361880E-03	4.613966E-05
4.959950E+03	9.572639E-03	4.708805E-05
4.969950E+03	9.692853E-03	4.758528E-05
4.979950E+03	9.723407E-03	4.763771E-05
4.989950E+03	9.668782E-03	4.726944E-05
4.999950E+03	9.533824E-03	4.650643E-05
5.009950E+03	9.322886E-03	4.537224E-05
5.019950E+03	9.040010E-03	4.388905E-05
5.029950E+03	8.689470E-03	4.208021E-05
5.039950E+03	8.278213E-03	3.998211E-05
5.049950E+03	7.819086E-03	3.765945E-05
5.059949E+03	7.331109E-03	3.520616E-05
5.069949E+03	6.836283E-03	3.272954E-05
5.079949E+03	6.356432E-03	3.033489E-05
5.089949E+03	5.910793E-03	2.811387E-05
5.099949E+03	5.514702E-03	2.613837E-05
5.109949E+03	5.178895E-03	2.445738E-05
5.119949E+03	4.909929E-03	2.309930E-05
5.129949E+03	4.710529E-03	2.207385E-05
5.139949E+03	4.579904E-03	2.137391E-05
5.149949E+03	4.513808E-03	2.097610E-05
5.159948E+03	4.505877E-03	2.084734E-05
5.169948E+03	4.548267E-03	2.094808E-05
5.179948E+03	4.631987E-03	2.123396E-05
5.189948E+03	4.747222E-03	2.165755E-05
5.199948E+03	4.884546E-03	2.217397E-05
5.209948E+03	5.035844E-03	2.274505E-05
5.219948E+03	5.194283E-03	2.333915E-05
5.229948E+03	5.354076E-03	2.392996E-05
5.239948E+03	5.510606E-03	2.449696E-05
5.249948E+03	5.660563E-03	2.502594E-05
5.259947E+03	5.802343E-03	2.551055E-05
5.269947E+03	5.936083E-03	2.595227E-05
5.279947E+03	6.063401E-03	2.635911E-05
5.289947E+03	6.186491E-03	2.674145E-05
5.299947E+03	6.307454E-03	2.710913E-05
5.309947E+03	6.428062E-03	2.747041E-05
5.319947E+03	6.549329E-03	2.783027E-05
5.329947E+03	6.671504E-03	2.819039E-05
5.339947E+03	6.794185E-03	2.854977E-05
5.349947E+03	6.916672E-03	2.890628E-05
5.359946E+03	7.038092E-03	2.925722E-05
5.369946E+03	7.157192E-03	2.959844E-05
5.379946E+03	7.271409E-03	2.992059E-05
5.389946E+03	7.376718E-03	3.020858E-05
5.399946E+03	7.467614E-03	3.044163E-05
5.409946E+03	7.536748E-03	3.059186E-05
5.419946E+03	7.576074E-03	3.062900E-05
5.429946E+03	7.579544E-03	3.053116E-05
5.439946E+03	7.547423E-03	3.030186E-05
5.449946E+03	7.488902E-03	2.998002E-05
5.459945E+03	7.419736E-03	2.963003E-05
5.469945E+03	7.358804E-03	2.932789E-05
5.479945E+03	7.325338E-03	2.915038E-05
5.489945E+03	7.334553E-03	2.915805E-05
5.499945E+03	7.393557E-03	2.937942E-05
5.509945E+03	7.499468E-03	2.980384E-05
5.519945E+03	7.639898E-03	3.038283E-05
5.529945E+03	7.795787E-03	3.104097E-05
5.539945E+03	7.943528E-03	3.168447E-05
5.549945E+03	8.060062E-03	3.222100E-05
5.559944E+03	8.128518E-03	3.258183E-05
5.569944E+03	8.143495E-03	3.274308E-05
5.579944E+03	8.110216E-03	3.272293E-05
5.589944E+03	8.041937E-03	3.257190E-05
5.599944E+03	7.956887E-03	3.236121E-05
5.609944E+03	7.874161E-03	3.216672E-05
5.619944E+03	7.808371E-03	3.204724E-05
5.629944E+03	7.766481E-03	3.203133E-05
5.639944E+03	7.747963E-03	3.211718E-05
5.649944E+03	7.744406E-03	3.227024E-05
5.659943E+03	7.739348E-03	3.242163E-05
5.669943E+03	7.710839E-03	3.247791E-05
5.679943E+03	7.635972E-03	3.233958E-05
5.689943E+03	7.494673E-03	3.191705E-05
5.699943E+03	7.273605E-03	3.114767E-05
5.709943E+03	6.970412E-03	3.001481E-05
5.719943E+03	6.595603E-03	2.855743E-05
5.729943E+03	6.170290E-03	2.686177E-05
5.739943E+03	5.722859E-03	2.504815E-05
5.749943E+03	5.284621E-03	2.325257E-05
5.759942E+03	4.883946E-03	2.160113E-05
5.769942E+03	4.542150E-03	2.019123E-05
5.779942E+03	4.273379E-03	1.909015E-05
5.789942E+03	4.086502E-03	1.834263E-05
5.799942E+03	3.987757E-03	1.798212E-05
5.809942E+03	3.982503E-03	1.803831E-05
5.819942E+03	4.076580E-03	1.854318E-05
5.829942E+03	4.276074E-03	1.952984E-05
5.839942E+03	4.585577E-03	2.102452E-05
5.849942E+03	5.007281E-03	2.304213E-05
5.859941E+03	5.538692E-03	2.557545E-05
5.869941E+03	6.168619E-03	2.857615E-05
5.879941E+03	6.874072E-03	3.193975E-05
5.889941E+03	7.618874E-03	3.549847E-05
5.899941E+03	8.355750E-03	3.903046E-05
5.909941E+03	9.031062E-03	4.228173E-05
5.919941E+03	9.593508E-03	4.500719E-05
5.929941E+03	1.000526E-02	4.702373E-05
5.939941E+03	1.024687E-02	4.823445E-05
5.949941E+03	1.031819E-02	4.863384E-05
5.959940E+03	1.023561E-02	4.829582E-05
5.969940E+03	1.002759E-02	4.735266E-05
5.979940E+03	9.727811E-03	4.596271E-05
5.989940E+03	9.369968E-03	4.428560E-05
5.999940E+03	8.984346E-03	4.246548E-05
6.009940E+03	8.596467E-03	4.062436E-05
6.019940E+03	8.225990E-03	3.885652E-05
6.029940E+03	7.887241E-03	3.723087E-05
6.039940E+03	7.589988E-03	3.579444E-05
6.049940E+03	7.340243E-03	3.457616E-05
6.059939E+03	7.141288E-03	3.359166E-05
6.069939E+03	6.994856E-03	3.284891E-05
6.079939E+03	6.901184E-03	3.234844E-05
6.089939E+03	6.859487E-03	3.208571E-05
6.099939E+03	6.867020E-03	3.204672E-05
6.109939E+03	6.918718E-03	3.220654E-05
6.119939E+03	7.006596E-03	3.252665E-05
6.129939E+03	7.119247E-03	3.295297E-05
6.139939E+03	7.241408E-03	3.341408E-05
6.149939E+03	7.356023E-03	3.383121E-05
6.159938E+03	7.448374E-03	3.413739E-05
6.169938E+03	7.509451E-03	3.429279E-05
6.179938E+03	7.536905E-03	3.428861E-05
6.189938E+03	7.534511E-03	3.414417E-05
6.199938E+03	7.511897E-03	3.390504E-05
6.209938E+03	7.481214E-03	3.362755E-05
6.219938E+03	7.453242E-03	3.336103E-05
6.229938E+03	7.434649E-03	3.313571E-05
6.239938E+03	7.428359E-03	3.296471E-05
6.249938E+03	7.434453E-03	3.284836E-05
6.259937E+03	7.450692E-03	3.277685E-05
6.269937E+03	7.473195E-03	3.273336E-05
6.279937E+03	7.497138E-03	3.269732E-05
6.289937E+03	7.517235E-03	3.264656E-05
6.299937E+03	7.527276E-03	3.255534E-05
6.309937E+03	7.520159E-03	3.239453E-05
6.319937E+03	7.487248E-03	3.212890E-05
6.329937E+03	7.419977E-03	3.172398E-05
6.339937E+03	7.310842E-03	3.115020E-05
6.349937E+03	7.154788E-03	3.038859E-05
6.359936E+03	6.951110E-03	2.943848E-05
6.369936E+03	6.704671E-03	2.832232E-05
6.379936E+03	6.426585E-03	2.708821E-05
6.389936E+03	6.132592E-03	2.580280E-05
6.399936E+03	5.840989E-03	2.454268E-05
6.409936E+03	5.571320E-03	2.338901E-05
6.419936E+03	5.341624E-03	2.241640E-05
6.429936E+03	5.166811E-03	2.168648E-05
6.439936E+03	5.058591E-03	2.124804E-05
6.449936E+03	5.026707E-03	2.114257E-05
6.459935E+03	5.080700E-03	2.141196E-05
6.469935E+03	5.230976E-03	2.210338E-05
6.479935E+03	5.489567E-03	2.327291E-05
6.489935E+03	5.870189E-03	2.498625E-05
6.499935E+03	6.387282E-03	2.731453E-05
6.509935E+03	7.054544E-03	3.032867E-05
6.519935E+03	7.881712E-03	3.408595E-05
6.529935E+03	8.869181E-03	3.860617E-05
6.539935E+03	1.000120E-02	4.384049E-05
6.549935E+03	1.124053E-02	4.964497E-05
6.559934E+03	1.252700E-02	5.576981E-05
6.569934E+03	1.377969E-02	6.186375E-05
6.579934E+03	1.490792E-02	6.751858E-05
6.589934E+03	1.582758E-02	7.234000E-05
6.599934E+03	1.647478E-02	7.601038E-05
6.609934E+03	1.681354E-02	7.832822E-05
6.619934E+03	1.684007E-02	7.923366E-05
6.629934E+03	1.657958E-02	7.880115E-05
6.639934E+03	1.607858E-02	7.720983E-05
6.649934E+03	1.539544E-02	7.470367E-05
6.659933E+03	1.459131E-02	7.155111E-05
6.669933E+03	1.372324E-02	6.801208E-05
6.679933E+03	1.283882E-02	6.431107E-05
6.689933E+03	1.197506E-02	6.062939E-05
6.699933E+03	1.115820E-02	5.710165E-05
6.709933E+03	1.040471E-02	5.381816E-05
6.719933E+03	9.723277E-03	5.083262E-05
6.729933E+03	9.116972E-03	4.817157E-05
6.739933E+03	8.584805E-03	4.584089E-05
6.749933E+03	8.122934E-03	4.383123E-05
6.759932E+03	7.726073E-03	4.212476E-05
6.769932E+03	7.387987E-03	4.069743E-05
6.779932E+03	7.102426E-03	3.952383E-05
6.789932E+03	6.862996E-03	3.857647E-05
6.799932E+03	6.663926E-03	3.782997E-05
6.809932E+03	6.499795E-03	3.725973E-05
6.819932E+03	6.365866E-03	3.684389E-05
6.829932E+03	6.258059E-03	3.656337E-05
6.839932E+03	6.173015E-03	3.640244E-05
6.849932E+03	6.107866E-03	3.634752E-05
6.859931E+03	6.060651E-03	3.638984E-05
6.869931E+03	6.029849E-03	3.652282E-05
6.879931E+03	6.014195E-03	3.674109E-05
6.889931E+03	6.012451E-03	3.703915E-05
6.899931E+03	6.023480E-03	3.741181E-05
6.909931E+03	6.045841E-03	3.785170E-05
6.919931E+03	6.077909E-03	3.834997E-05
6.929931E+03	6.117893E-03	3.889633E-05
6.939931E+03	6.164005E-03	3.948013E-05
6.949931E+03	6.214558E-03	4.009102E-05
6.959930E+03	6.267929E-03	4.071870E-05
6.969930E+03	6.322871E-03	4.135503E-05
6.979930E+03	6.378018E-03	4.199088E-05
6.989930E+03	6.432303E-03	4.261881E-05
6.999930E+03	6.484844E-03	4.323251E-05
7.009930E+03	6.534714E-03	4.382517E-05
7.019930E+03	6.581159E-03	4.439104E-05
7.029930E+03	6.623555E-03	4.492520E-05
7.039930E+03	6.661407E-03	4.542349E-05
7.049930E+03	6.694357E-03	4.588267E-05
7.059929E+03	6.722167E-03	4.630033E-05
7.069929E+03	6.744622E-03	4.667422E-05
7.079929E+03	6.761781E-03	4.700403E-05
7.089929E+03	6.773734E-03	4.728967E-05
7.099929E+03	6.780496E-03	4.753064E-05
7.109929E+03	6.782464E-03	4.772915E-05
7.119929E+03	6.779866E-03	4.788630E-05
7.129929E+03	6.772715E-03	4.800173E-05
7.139929E+03	6.761321E-03	4.807728E-05
7.149929E+03	6.745680E-03	4.811257E-05
7.159928E+03	6.726063E-03	4.810924E-05
7.169928E+03	6.702696E-03	4.806870E-05
7.179928E+03	6.675817E-03	4.799246E-05
7.189928E+03	6.645681E-03	4.788224E-05
7.199928E+03	6.612463E-03	4.773922E-05
7.209928E+03	6.576503E-03	4.756581E-05
7.219928E+03	6.537975E-03	4.736328E-05
7.229928E+03	6.497126E-03	4.713348E-05
7.239928E+03	6.454281E-03	4.687881E-05
7.249928E+03	6.409593E-03	4.660052E-05
7.259927E+03	6.363364E-03	4.630093E-05
7.269927E+03	6.315639E-03	4.598054E-05
7.279927E+03	6.266777E-03	4.564214E-05
7.289927E+03	6.216884E-03	4.528670E-05
7.299927E+03	6.166208E-03	4.491623E-05
7.309927E+03	6.114749E-03	4.453099E-05
7.319927E+03	6.062727E-03	4.413281E-05
7.329927E+03	6.010358E-03	4.372350E-05
7.339927E+03	5.957679E-03	4.330360E-05
7.349927E+03	5.904723E-03	4.287361E-05
7.359926E+03	5.851744E-03	4.243564E-05
7.369926E+03	5.798823E-03	4.199056E-05
7.379926E+03	5.745892E-03	4.153812E-05
7.389926E+03	5.693168E-03	4.108018E-05
7.399926E+03	5.640639E-03	4.061694E-05
7.409926E+03	5.588431E-03	4.014956E-05
7.419926E+03	5.536591E-03	3.967864E-05
7.429926E+03	5.485159E-03	3.920476E-05
7.439926E+03	5.434098E-03	3.872791E-05
7.449926E+03	5.383655E-03	3.825012E-05
7.459925E+03	5.333638E-03	3.777028E-05
7.469925E+03	5.284285E-03	3.729034E-05
7.479925E+03	5.235470E-03	3.680966E-05
7.489925E+03	5.187277E-03	3.632910E-05
7.499925E+03	5.139652E-03	3.584852E-05
7.509925E+03	5.092605E-03	3.536824E-05
7.519925E+03	5.046146E-03	3.488860E-05
7.529925E+03	5.000352E-03	3.441038E-05
7.539925E+03	4.955024E-03	3.393245E-05
7.549925E+03	4.910374E-03	3.345653E-05
7.559924E+03	4.866274E-03	3.298199E-05
7.569924E+03	4.822729E-03	3.250913E-05
7.579924E+03	4.779813E-03	3.203870E-05
7.589924E+03	4.737529E-03	3.157098E-05
7.599924E+03	4.695817E-03	3.110582E-05
7.609924E+03	4.654684E-03	3.064353E-05
7.619924E+03	4.614202E-03	3.018484E-05
7.629924E+03	4.574313E-03	2.972963E-05
7.639924E+03	4.535089E-03	2.927863E-05
7.649924E+03	4.496472E-03	2.883174E-05
7.659923E+03	4.458599E-03	2.839010E-05
7.669923E+03	4.421353E-03	2.795322E-05
7.679923E+03	4.384807E-03	2.752185E-05
7.689923E+03	4.348970E-03	2.709632E-05
7.699923E+03	4.313857E-03	2.667698E-05
7.709923E+03	4.279478E-03	2.626419E-05
7.719923E+03	4.245848E-03	2.585834E-05
7.729923E+03	4.213044E-03	2.546016E-05
7.739923E+03	4.181021E-03	2.506970E-05
7.749923E+03	4.149795E-03	2.468734E-05
7.759922E+03	4.119445E-03	2.431386E-05
