#wls	flux	fluxerr
1.599984E+03	4.488234E-06	2.094089E-07
1.639984E+03	4.278510E-06	1.990081E-07
1.679983E+03	4.079076E-06	1.891294E-07
1.719983E+03	3.891955E-06	1.798638E-07
1.759982E+03	3.714075E-06	1.710659E-07
1.799982E+03	3.548990E-06	1.628965E-07
1.839982E+03	3.396776E-06	1.553545E-07
1.879981E+03	3.254839E-06	1.483170E-07
1.919981E+03	3.126287E-06	1.419215E-07
1.959980E+03	3.010081E-06	1.361155E-07
1.999980E+03	2.907836E-06	1.309664E-07
2.039980E+03	2.818802E-06	1.264341E-07
2.079979E+03	2.743644E-06	1.225420E-07
2.119979E+03	2.683200E-06	1.193202E-07
2.159978E+03	2.639586E-06	1.168545E-07
2.199978E+03	2.613129E-06	1.151495E-07
2.239978E+03	2.605688E-06	1.142764E-07
2.279977E+03	2.619724E-06	1.143306E-07
2.319977E+03	2.659536E-06	1.154845E-07
2.359976E+03	2.728558E-06	1.178685E-07
2.399976E+03	2.833905E-06	1.217675E-07
2.439976E+03	2.982947E-06	1.274692E-07
2.479975E+03	3.187486E-06	1.354417E-07
2.519975E+03	3.464625E-06	1.463635E-07
2.559974E+03	3.841818E-06	1.613290E-07
2.599974E+03	4.360711E-06	1.819935E-07
2.639974E+03	5.095053E-06	2.112965E-07
2.679973E+03	6.166236E-06	2.540553E-07
2.719973E+03	7.727304E-06	3.162408E-07
2.759972E+03	9.899861E-06	4.023606E-07
2.799972E+03	1.264362E-05	5.102305E-07
2.839972E+03	1.561466E-05	6.255266E-07
2.879971E+03	1.820858E-05	7.239603E-07
2.919971E+03	1.985299E-05	7.832378E-07
2.959970E+03	2.032539E-05	7.954946E-07
2.999970E+03	1.986461E-05	7.710936E-07
3.009970E+03	1.966714E-05	7.618319E-07
3.019970E+03	1.944635E-05	7.516929E-07
3.029970E+03	1.922414E-05	7.415269E-07
3.039970E+03	1.899606E-05	7.311637E-07
3.049970E+03	1.877634E-05	7.211508E-07
3.059969E+03	1.857809E-05	7.119899E-07
3.069969E+03	1.839517E-05	7.034400E-07
3.079969E+03	1.824505E-05	6.961647E-07
3.089969E+03	1.812611E-05	6.900939E-07
3.099969E+03	1.803613E-05	6.851359E-07
3.109969E+03	1.798988E-05	6.818430E-07
3.119969E+03	1.797785E-05	6.798441E-07
3.129969E+03	1.801336E-05	6.796335E-07
3.139969E+03	1.809163E-05	6.810188E-07
3.149969E+03	1.820734E-05	6.837882E-07
3.159968E+03	1.837228E-05	6.883745E-07
3.169968E+03	1.858020E-05	6.945308E-07
3.179968E+03	1.882428E-05	7.019903E-07
3.189968E+03	1.911534E-05	7.111466E-07
3.199968E+03	1.944592E-05	7.217092E-07
3.209968E+03	1.981424E-05	7.336018E-07
3.219968E+03	2.021198E-05	7.465058E-07
3.229968E+03	2.064989E-05	7.608095E-07
3.239968E+03	2.111971E-05	7.761972E-07
3.249968E+03	2.161964E-05	7.925941E-07
3.259967E+03	2.214812E-05	8.099335E-07
3.269967E+03	2.270381E-05	8.281589E-07
3.279967E+03	2.328564E-05	8.472223E-07
3.289967E+03	2.389276E-05	8.670851E-07
3.299967E+03	2.451672E-05	8.874334E-07
3.309967E+03	2.517184E-05	9.087791E-07
3.319967E+03	2.584960E-05	9.308054E-07
3.329967E+03	2.654856E-05	9.534531E-07
3.339967E+03	2.726666E-05	9.766418E-07
3.349967E+03	2.800974E-05	1.000573E-06
3.359966E+03	2.875691E-05	1.024495E-06
3.369966E+03	2.951188E-05	1.048538E-06
3.379966E+03	3.026884E-05	1.072491E-06
3.389966E+03	3.102093E-05	1.096112E-06
3.399966E+03	3.176043E-05	1.119128E-06
3.409966E+03	3.247883E-05	1.141243E-06
3.419966E+03	3.316723E-05	1.162152E-06
3.429966E+03	3.382691E-05	1.181905E-06
3.439966E+03	3.442876E-05	1.199497E-06
3.449966E+03	3.497497E-05	1.215021E-06
3.459965E+03	3.545894E-05	1.228263E-06
3.469965E+03	3.587577E-05	1.239074E-06
3.479965E+03	3.623346E-05	1.247747E-06
3.489965E+03	3.650970E-05	1.253535E-06
3.499965E+03	3.671701E-05	1.256891E-06
3.509965E+03	3.687033E-05	1.258345E-06
3.519965E+03	3.695327E-05	1.257357E-06
3.529965E+03	3.698388E-05	1.254560E-06
3.539965E+03	3.698096E-05	1.250607E-06
3.549965E+03	3.693051E-05	1.245035E-06
3.559964E+03	3.686209E-05	1.238854E-06
3.569964E+03	3.676074E-05	1.231568E-06
3.579964E+03	3.664316E-05	1.223745E-06
3.589964E+03	3.652460E-05	1.215899E-06
3.599964E+03	3.638668E-05	1.207420E-06
3.609964E+03	3.625269E-05	1.199084E-06
3.619964E+03	3.610201E-05	1.190211E-06
3.629964E+03	3.595544E-05	1.181489E-06
3.639964E+03	3.579087E-05	1.172195E-06
3.649964E+03	3.562769E-05	1.162966E-06
3.659963E+03	3.544374E-05	1.153081E-06
3.669963E+03	3.525874E-05	1.143188E-06
3.679963E+03	3.506273E-05	1.132965E-06
3.689963E+03	3.484791E-05	1.122164E-06
3.699963E+03	3.463902E-05	1.111586E-06
3.709963E+03	3.442384E-05	1.100839E-06
3.719963E+03	3.423330E-05	1.090910E-06
3.729963E+03	3.407250E-05	1.081955E-06
3.739963E+03	3.395082E-05	1.074259E-06
3.749963E+03	3.391071E-05	1.069147E-06
3.759962E+03	3.396953E-05	1.067139E-06
3.769962E+03	3.414868E-05	1.068870E-06
3.779962E+03	3.450220E-05	1.075983E-06
3.789962E+03	3.505928E-05	1.089325E-06
3.799962E+03	3.586285E-05	1.110155E-06
3.809962E+03	3.695013E-05	1.139534E-06
3.819962E+03	3.839421E-05	1.179608E-06
3.829962E+03	4.024369E-05	1.231738E-06
3.839962E+03	4.256389E-05	1.297773E-06
3.849962E+03	4.542712E-05	1.379739E-06
3.859961E+03	4.889919E-05	1.479434E-06
3.869961E+03	5.309157E-05	1.599998E-06
3.879961E+03	5.808146E-05	1.743488E-06
3.889961E+03	6.395969E-05	1.912331E-06
3.899961E+03	7.081329E-05	2.108793E-06
3.909961E+03	7.871903E-05	2.334795E-06
3.919961E+03	8.771149E-05	2.590972E-06
3.929961E+03	9.786750E-05	2.879182E-06
3.939961E+03	1.091613E-04	3.198238E-06
3.949961E+03	1.215455E-04	3.546332E-06
3.959960E+03	1.349241E-04	3.920265E-06
3.969960E+03	1.491512E-04	4.315440E-06
3.979960E+03	1.640341E-04	4.725975E-06
3.989960E+03	1.793407E-04	5.144960E-06
3.999960E+03	1.948110E-04	5.564792E-06
4.009960E+03	2.101713E-04	5.977613E-06
4.019960E+03	2.251493E-04	6.375738E-06
4.029960E+03	2.394893E-04	6.752082E-06
4.039960E+03	2.529633E-04	7.100472E-06
4.049960E+03	2.653114E-04	7.413954E-06
4.059959E+03	2.765260E-04	7.692725E-06
4.069959E+03	2.864401E-04	7.932581E-06
4.079959E+03	2.950013E-04	8.132556E-06
4.089959E+03	3.022008E-04	8.292911E-06
4.099959E+03	3.080712E-04	8.415050E-06
4.109959E+03	3.126809E-04	8.501328E-06
4.119959E+03	3.161289E-04	8.554906E-06
4.129959E+03	3.185396E-04	8.579570E-06
4.139959E+03	3.200565E-04	8.579568E-06
4.149959E+03	3.209198E-04	8.561650E-06
4.159958E+03	3.211265E-04	8.525983E-06
4.169958E+03	3.209258E-04	8.479414E-06
4.179958E+03	3.204808E-04	8.426383E-06
4.189958E+03	3.199478E-04	8.371081E-06
4.199958E+03	3.194737E-04	8.317367E-06
4.209958E+03	3.191937E-04	8.268723E-06
4.219958E+03	3.192305E-04	8.228239E-06
4.229958E+03	3.196942E-04	8.198617E-06
4.239958E+03	3.206813E-04	8.182156E-06
4.249958E+03	3.222749E-04	8.180757E-06
4.259957E+03	3.245437E-04	8.195925E-06
4.269957E+03	3.275415E-04	8.228744E-06
4.279957E+03	3.313057E-04	8.279867E-06
4.289957E+03	3.358566E-04	8.349492E-06
4.299957E+03	3.411946E-04	8.437324E-06
4.309957E+03	3.473011E-04	8.542591E-06
4.319957E+03	3.541373E-04	8.664040E-06
4.329957E+03	3.616453E-04	8.799975E-06
4.339957E+03	3.697517E-04	8.948352E-06
4.349957E+03	3.783722E-04	9.106904E-06
4.359956E+03	3.874192E-04	9.273330E-06
4.369956E+03	3.968125E-04	9.445551E-06
4.379956E+03	4.065919E-04	9.624373E-06
4.389956E+03	4.165266E-04	9.804207E-06
4.399956E+03	4.266669E-04	9.986176E-06
4.409956E+03	4.369519E-04	1.016877E-05
4.419956E+03	4.473634E-04	1.035153E-05
4.429956E+03	4.579283E-04	1.053501E-05
4.439956E+03	4.687143E-04	1.072070E-05
4.449956E+03	4.798246E-04	1.091088E-05
4.459955E+03	4.913889E-04	1.110833E-05
4.469955E+03	5.035527E-04	1.131617E-05
4.479955E+03	5.164661E-04	1.153749E-05
4.489955E+03	5.302701E-04	1.177515E-05
4.499955E+03	5.450829E-04	1.203140E-05
4.509955E+03	5.609857E-04	1.230763E-05
4.519955E+03	5.780090E-04	1.260406E-05
4.529955E+03	5.961233E-04	1.291963E-05
4.539955E+03	6.150826E-04	1.324861E-05
4.549955E+03	6.350112E-04	1.359334E-05
4.559954E+03	6.555333E-04	1.394544E-05
4.569954E+03	6.763615E-04	1.429861E-05
4.579954E+03	6.971719E-04	1.464596E-05
4.589954E+03	7.176232E-04	1.498037E-05
4.599954E+03	7.373819E-04	1.529508E-05
4.609954E+03	7.561441E-04	1.558414E-05
4.619954E+03	7.736552E-04	1.584273E-05
4.629954E+03	7.897240E-04	1.606745E-05
4.639954E+03	8.040388E-04	1.625260E-05
4.649954E+03	8.169267E-04	1.640543E-05
4.659953E+03	8.282163E-04	1.652309E-05
4.669953E+03	8.379818E-04	1.660770E-05
4.679953E+03	8.463462E-04	1.666226E-05
4.689953E+03	8.534714E-04	1.669050E-05
4.699953E+03	8.593497E-04	1.669277E-05
4.709953E+03	8.645980E-04	1.668146E-05
4.719953E+03	8.692503E-04	1.665746E-05
4.729953E+03	8.735521E-04	1.662569E-05
4.739953E+03	8.775515E-04	1.658720E-05
4.749953E+03	8.819054E-04	1.655443E-05
4.759952E+03	8.866525E-04	1.652797E-05
4.769952E+03	8.918100E-04	1.650799E-05
4.779952E+03	8.979834E-04	1.650546E-05
4.789952E+03	9.051232E-04	1.651909E-05
4.799952E+03	9.131273E-04	1.654666E-05
4.809952E+03	9.224634E-04	1.659625E-05
4.819952E+03	9.326989E-04	1.665962E-05
4.829952E+03	9.441827E-04	1.674262E-05
4.839952E+03	9.565659E-04	1.683863E-05
4.849952E+03	9.694345E-04	1.694009E-05
4.859951E+03	9.829871E-04	1.705027E-05
4.869951E+03	9.965092E-04	1.715660E-05
4.879951E+03	1.010163E-03	1.726190E-05
4.889951E+03	1.023211E-03	1.735361E-05
4.899951E+03	1.035614E-03	1.743133E-05
4.909951E+03	1.047378E-03	1.749544E-05
4.919951E+03	1.057849E-03	1.753534E-05
4.929951E+03	1.067363E-03	1.755708E-05
4.939951E+03	1.075352E-03	1.755178E-05
4.949951E+03	1.082003E-03	1.752308E-05
4.959950E+03	1.087536E-03	1.747501E-05
4.969950E+03	1.091454E-03	1.740013E-05
4.979950E+03	1.093989E-03	1.730271E-05
4.989950E+03	1.095120E-03	1.718301E-05
4.999950E+03	1.095061E-03	1.704487E-05
5.009950E+03	1.093292E-03	1.688073E-05
5.019950E+03	1.090029E-03	1.669460E-05
5.029950E+03	1.085278E-03	1.648711E-05
5.039950E+03	1.079094E-03	1.625967E-05
5.049950E+03	1.071602E-03	1.601469E-05
5.059949E+03	1.063009E-03	1.575576E-05
5.069949E+03	1.053606E-03	1.548756E-05
5.079949E+03	1.043757E-03	1.521573E-05
5.089949E+03	1.033884E-03	1.494652E-05
5.099949E+03	1.024434E-03	1.468636E-05
5.109949E+03	1.015852E-03	1.444146E-05
5.119949E+03	1.008549E-03	1.421730E-05
5.129949E+03	1.002878E-03	1.401840E-05
5.139949E+03	9.991137E-04	1.384797E-05
5.149949E+03	9.974368E-04	1.370788E-05
5.159948E+03	9.977160E-04	1.359564E-05
5.169948E+03	1.000372E-03	1.351627E-05
5.179948E+03	1.005088E-03	1.346476E-05
5.189948E+03	1.011685E-03	1.343810E-05
5.199948E+03	1.019705E-03	1.342964E-05
5.209948E+03	1.029297E-03	1.344093E-05
5.219948E+03	1.039929E-03	1.346465E-05
5.229948E+03	1.051051E-03	1.349345E-05
5.239948E+03	1.062791E-03	1.352891E-05
5.249948E+03	1.074397E-03	1.356141E-05
5.259947E+03	1.086057E-03	1.359346E-05
5.269947E+03	1.097080E-03	1.361656E-05
5.279947E+03	1.107749E-03	1.363451E-05
5.289947E+03	1.117463E-03	1.364017E-05
5.299947E+03	1.126377E-03	1.363583E-05
5.309947E+03	1.134705E-03	1.362441E-05
5.319947E+03	1.141997E-03	1.360081E-05
5.329947E+03	1.148566E-03	1.356916E-05
5.339947E+03	1.154532E-03	1.353116E-05
5.349947E+03	1.160296E-03	1.349176E-05
5.359946E+03	1.165551E-03	1.344756E-05
5.369946E+03	1.170735E-03	1.340383E-05
5.379946E+03	1.176046E-03	1.336294E-05
5.389946E+03	1.181669E-03	1.332705E-05
5.399946E+03	1.187767E-03	1.329804E-05
5.409946E+03	1.194472E-03	1.327734E-05
5.419946E+03	1.201872E-03	1.326593E-05
5.429946E+03	1.210012E-03	1.326426E-05
5.439946E+03	1.218883E-03	1.327218E-05
5.449946E+03	1.228160E-03	1.328618E-05
5.459945E+03	1.238217E-03	1.331034E-05
5.469945E+03	1.248586E-03	1.333963E-05
5.479945E+03	1.258963E-03	1.337094E-05
5.489945E+03	1.268686E-03	1.339742E-05
5.499945E+03	1.277860E-03	1.342046E-05
5.509945E+03	1.285689E-03	1.343197E-05
5.519945E+03	1.292410E-03	1.343477E-05
5.529945E+03	1.297158E-03	1.342020E-05
5.539945E+03	1.300124E-03	1.339060E-05
5.549945E+03	1.300460E-03	1.333744E-05
5.559944E+03	1.298443E-03	1.326378E-05
5.569944E+03	1.293356E-03	1.316250E-05
5.579944E+03	1.285372E-03	1.303555E-05
5.589944E+03	1.274744E-03	1.288562E-05
5.599944E+03	1.261010E-03	1.270812E-05
5.609944E+03	1.244556E-03	1.250702E-05
5.619944E+03	1.225541E-03	1.228388E-05
5.629944E+03	1.204144E-03	1.204049E-05
5.639944E+03	1.180559E-03	1.177869E-05
5.649944E+03	1.154992E-03	1.150044E-05
5.659943E+03	1.127674E-03	1.120787E-05
5.669943E+03	1.098877E-03	1.090354E-05
5.679943E+03	1.068937E-03	1.059060E-05
5.689943E+03	1.038274E-03	1.027300E-05
5.699943E+03	1.007405E-03	9.955652E-06
5.709943E+03	9.767506E-04	9.642483E-06
5.719943E+03	9.474179E-04	9.344196E-06
5.729943E+03	9.199740E-04	9.066149E-06
5.739943E+03	8.950435E-04	8.814269E-06
5.749943E+03	8.737981E-04	8.599878E-06
5.759942E+03	8.566506E-04	8.426836E-06
5.769942E+03	8.446602E-04	8.305376E-06
5.779942E+03	8.381082E-04	8.238102E-06
5.789942E+03	8.378580E-04	8.233361E-06
5.799942E+03	8.439771E-04	8.291700E-06
5.809942E+03	8.568979E-04	8.417273E-06
5.819942E+03	8.768934E-04	8.612686E-06
5.829942E+03	9.035126E-04	8.873448E-06
5.839942E+03	9.365776E-04	9.197767E-06
5.849942E+03	9.754536E-04	9.579368E-06
5.859941E+03	1.019191E-03	1.000889E-05
5.869941E+03	1.066518E-03	1.047380E-05
5.879941E+03	1.115875E-03	1.095875E-05
5.889941E+03	1.165487E-03	1.144624E-05
5.899941E+03	1.213482E-03	1.191784E-05
5.909941E+03	1.258043E-03	1.235563E-05
5.919941E+03	1.297562E-03	1.274376E-05
5.929941E+03	1.330516E-03	1.306718E-05
5.939941E+03	1.356621E-03	1.332306E-05
5.949941E+03	1.375307E-03	1.350572E-05
5.959940E+03	1.386462E-03	1.361403E-05
5.969940E+03	1.391220E-03	1.365908E-05
5.979940E+03	1.389940E-03	1.364438E-05
5.989940E+03	1.384299E-03	1.358637E-05
5.999940E+03	1.374984E-03	1.349180E-05
6.009940E+03	1.363527E-03	1.337571E-05
6.019940E+03	1.351398E-03	1.325252E-05
6.029940E+03	1.339152E-03	1.312767E-05
6.039940E+03	1.328007E-03	1.301309E-05
6.049940E+03	1.318737E-03	1.291635E-05
6.059939E+03	1.311935E-03	1.284326E-05
6.069939E+03	1.308266E-03	1.280026E-05
6.079939E+03	1.307438E-03	1.278446E-05
6.089939E+03	1.309503E-03	1.279633E-05
6.099939E+03	1.314877E-03	1.283985E-05
6.109939E+03	1.323074E-03	1.291025E-05
6.119939E+03	1.333774E-03	1.300432E-05
6.129939E+03	1.346601E-03	1.311834E-05
6.139939E+03	1.361161E-03	1.324844E-05
6.149939E+03	1.376821E-03	1.338842E-05
6.159938E+03	1.393814E-03	1.354050E-05
6.169938E+03	1.411377E-03	1.369728E-05
6.179938E+03	1.429938E-03	1.386287E-05
6.189938E+03	1.448904E-03	1.403155E-05
6.199938E+03	1.468874E-03	1.420910E-05
6.209938E+03	1.489343E-03	1.439065E-05
6.219938E+03	1.510654E-03	1.457953E-05
6.229938E+03	1.533124E-03	1.477880E-05
6.239938E+03	1.556096E-03	1.498215E-05
6.249938E+03	1.579711E-03	1.519096E-05
6.259937E+03	1.603716E-03	1.540285E-05
6.269937E+03	1.627777E-03	1.561466E-05
6.279937E+03	1.651514E-03	1.582284E-05
6.289937E+03	1.674549E-03	1.602387E-05
6.299937E+03	1.696563E-03	1.621480E-05
6.309937E+03	1.717354E-03	1.639385E-05
6.319937E+03	1.736890E-03	1.656086E-05
6.329937E+03	1.755012E-03	1.671449E-05
6.339937E+03	1.772821E-03	1.686539E-05
6.349937E+03	1.790649E-03	1.701683E-05
6.359936E+03	1.809049E-03	1.717420E-05
6.369936E+03	1.829840E-03	1.735490E-05
6.379936E+03	1.853612E-03	1.756462E-05
6.389936E+03	1.882524E-03	1.782388E-05
6.399936E+03	1.917397E-03	1.814054E-05
6.409936E+03	1.960589E-03	1.853697E-05
6.419936E+03	2.013001E-03	1.902180E-05
6.429936E+03	2.076654E-03	1.961427E-05
6.439936E+03	2.153150E-03	2.032970E-05
6.449936E+03	2.243955E-03	2.118221E-05
6.459935E+03	2.350285E-03	2.218369E-05
6.469935E+03	2.473375E-03	2.334632E-05
6.479935E+03	2.612274E-03	2.466181E-05
6.489935E+03	2.765613E-03	2.611811E-05
6.499935E+03	2.931189E-03	2.769541E-05
6.509935E+03	3.102376E-03	2.933225E-05
6.519935E+03	3.269165E-03	3.093507E-05
6.529935E+03	3.416972E-03	3.236673E-05
6.539935E+03	3.534345E-03	3.351912E-05
6.549935E+03	3.621613E-03	3.439522E-05
6.559934E+03	3.677038E-03	3.497804E-05
6.569934E+03	3.698422E-03	3.524577E-05
6.579934E+03	3.686086E-03	3.520008E-05
6.589934E+03	3.638622E-03	3.482554E-05
6.599934E+03	3.558385E-03	3.414200E-05
6.609934E+03	3.449431E-03	3.318541E-05
6.619934E+03	3.315312E-03	3.198695E-05
6.629934E+03	3.162673E-03	3.060785E-05
6.639934E+03	2.997908E-03	2.910746E-05
6.649934E+03	2.827793E-03	2.754956E-05
6.659933E+03	2.656780E-03	2.597607E-05
6.669933E+03	2.490068E-03	2.443686E-05
6.679933E+03	2.331173E-03	2.296609E-05
6.689933E+03	2.182521E-03	2.158776E-05
6.699933E+03	2.045166E-03	2.031273E-05
6.709933E+03	1.920561E-03	1.915617E-05
6.719933E+03	1.808300E-03	1.811502E-05
6.729933E+03	1.707957E-03	1.718602E-05
6.739933E+03	1.618812E-03	1.636306E-05
6.749933E+03	1.539684E-03	1.563526E-05
6.759932E+03	1.470232E-03	1.500020E-05
6.769932E+03	1.408914E-03	1.444316E-05
6.779932E+03	1.355379E-03	1.396145E-05
6.789932E+03	1.308255E-03	1.354182E-05
6.799932E+03	1.267318E-03	1.318270E-05
6.809932E+03	1.231427E-03	1.287294E-05
6.819932E+03	1.200290E-03	1.261013E-05
6.829932E+03	1.173461E-03	1.239016E-05
6.839932E+03	1.150800E-03	1.221213E-05
6.849932E+03	1.131573E-03	1.206877E-05
6.859931E+03	1.115785E-03	1.196062E-05
6.869931E+03	1.103266E-03	1.188631E-05
6.879931E+03	1.093882E-03	1.184484E-05
6.889931E+03	1.087525E-03	1.183553E-05
6.899931E+03	1.084105E-03	1.185780E-05
6.909931E+03	1.083538E-03	1.191115E-05
6.919931E+03	1.085740E-03	1.199509E-05
6.929931E+03	1.090410E-03	1.210670E-05
6.939931E+03	1.097871E-03	1.224993E-05
6.949931E+03	1.107803E-03	1.242159E-05
6.959930E+03	1.119863E-03	1.261820E-05
6.969930E+03	1.134340E-03	1.284332E-05
6.979930E+03	1.150635E-03	1.309049E-05
6.989930E+03	1.169014E-03	1.336300E-05
6.999930E+03	1.188829E-03	1.365370E-05
7.009930E+03	1.210329E-03	1.396563E-05
7.019930E+03	1.232830E-03	1.429108E-05
7.029930E+03	1.256345E-03	1.463030E-05
7.039930E+03	1.280920E-03	1.498396E-05
7.049930E+03	1.305889E-03	1.534430E-05
7.059929E+03	1.331368E-03	1.571272E-05
7.069929E+03	1.357298E-03	1.608852E-05
7.079929E+03	1.383698E-03	1.647195E-05
7.089929E+03	1.410690E-03	1.686446E-05
7.099929E+03	1.438502E-03	1.726881E-05
7.109929E+03	1.467475E-03	1.768919E-05
7.119929E+03	1.498064E-03	1.813120E-05
7.129929E+03	1.530829E-03	1.860180E-05
7.139929E+03	1.566419E-03	1.910917E-05
7.149929E+03	1.605554E-03	1.966244E-05
7.159928E+03	1.648668E-03	2.026738E-05
7.169928E+03	1.697160E-03	2.094171E-05
7.179928E+03	1.751427E-03	2.169100E-05
7.189928E+03	1.811720E-03	2.251905E-05
7.199928E+03	1.879154E-03	2.344047E-05
7.209928E+03	1.953151E-03	2.444885E-05
7.219928E+03	2.034235E-03	2.555147E-05
7.229928E+03	2.120919E-03	2.673039E-05
7.239928E+03	2.212748E-03	2.798042E-05
7.249928E+03	2.306970E-03	2.926711E-05
7.259927E+03	2.401450E-03	3.056343E-05
7.269927E+03	2.493051E-03	3.182921E-05
7.279927E+03	2.578700E-03	3.302462E-05
7.289927E+03	2.653617E-03	3.408740E-05
7.299927E+03	2.714624E-03	3.497525E-05
7.309927E+03	2.758518E-03	3.564513E-05
7.319927E+03	2.782907E-03	3.606404E-05
7.329927E+03	2.786472E-03	3.621264E-05
7.339927E+03	2.769101E-03	3.608724E-05
7.349927E+03	2.731881E-03	3.569982E-05
7.359926E+03	2.676930E-03	3.507612E-05
7.369926E+03	2.607128E-03	3.425221E-05
7.379926E+03	2.525279E-03	3.326364E-05
7.389926E+03	2.435800E-03	3.216765E-05
7.399926E+03	2.341385E-03	3.099929E-05
7.409926E+03	2.244850E-03	2.979561E-05
7.419926E+03	2.148075E-03	2.858160E-05
7.429926E+03	2.053697E-03	2.739252E-05
7.439926E+03	1.962129E-03	2.623431E-05
7.449926E+03	1.874980E-03	2.512892E-05
7.459925E+03	1.791949E-03	2.407286E-05
7.469925E+03	1.713983E-03	2.307940E-05
7.479925E+03	1.640450E-03	2.214055E-05
7.489925E+03	1.572005E-03	2.126571E-05
7.499925E+03	1.507980E-03	2.044638E-05
7.509925E+03	1.448694E-03	1.968738E-05
7.519925E+03	1.394182E-03	1.898968E-05
7.529925E+03	1.344795E-03	1.835857E-05
7.539925E+03	1.300108E-03	1.778875E-05
7.549925E+03	1.260544E-03	1.728654E-05
7.559924E+03	1.226259E-03	1.685457E-05
7.569924E+03	1.197391E-03	1.649530E-05
7.579924E+03	1.174050E-03	1.621078E-05
7.589924E+03	1.156296E-03	1.600238E-05
7.599924E+03	1.144123E-03	1.587063E-05
7.609924E+03	1.137448E-03	1.581491E-05
7.619924E+03	1.136091E-03	1.583334E-05
7.629924E+03	1.139770E-03	1.592252E-05
7.639924E+03	1.148078E-03	1.607734E-05
7.649924E+03	1.160248E-03	1.628755E-05
7.659923E+03	1.176079E-03	1.655082E-05
7.669923E+03	1.194544E-03	1.685312E-05
7.679923E+03	1.214740E-03	1.718206E-05
7.689923E+03	1.235431E-03	1.752042E-05
7.699923E+03	1.256097E-03	1.786097E-05
7.709923E+03	1.275235E-03	1.818237E-05
7.719923E+03	1.292438E-03	1.847878E-05
7.729923E+03	1.306667E-03	1.873519E-05
7.739923E+03	1.317052E-03	1.893882E-05
7.749923E+03	1.323734E-03	1.909136E-05
7.759922E+03	1.326010E-03	1.918223E-05
