#wls	flux	fluxerr
1.592848E+03	2.312347E-04	3.463257E-05
1.632669E+03	2.401655E-04	3.580162E-05
1.672491E+03	2.485132E-04	3.686763E-05
1.712312E+03	2.562544E-04	3.782795E-05
1.752133E+03	2.631862E-04	3.865364E-05
1.791954E+03	2.690199E-04	3.930392E-05
1.831775E+03	2.732993E-04	3.971465E-05
1.871597E+03	2.755248E-04	3.981700E-05
1.911418E+03	2.751930E-04	3.954337E-05
1.951239E+03	2.720104E-04	3.885807E-05
1.991060E+03	2.661964E-04	3.779950E-05
2.030881E+03	2.588758E-04	3.653343E-05
2.070703E+03	2.525712E-04	3.541785E-05
2.110524E+03	2.505552E-04	3.490630E-05
2.150345E+03	2.560139E-04	3.542793E-05
2.190166E+03	2.706365E-04	3.719358E-05
2.229987E+03	2.941648E-04	4.014089E-05
2.269809E+03	3.249640E-04	4.402086E-05
2.309630E+03	3.609299E-04	4.852695E-05
2.349451E+03	4.001838E-04	5.339045E-05
2.389272E+03	4.413576E-04	5.841749E-05
2.429093E+03	4.835583E-04	6.348197E-05
2.468915E+03	5.262474E-04	6.850763E-05
2.508736E+03	5.691261E-04	7.345136E-05
2.548557E+03	6.119811E-04	7.828224E-05
2.588378E+03	6.545195E-04	8.296022E-05
2.628199E+03	6.966239E-04	8.746862E-05
2.668021E+03	7.378557E-04	9.175141E-05
2.707842E+03	7.779194E-04	9.577240E-05
2.747663E+03	8.163569E-04	9.947711E-05
2.787484E+03	8.526395E-04	1.028051E-04
2.827305E+03	8.861796E-04	1.056918E-04
2.867127E+03	9.164748E-04	1.080863E-04
2.906948E+03	9.429937E-04	1.099372E-04
2.946769E+03	9.653993E-04	1.112190E-04
2.986590E+03	9.834694E-04	1.119217E-04
2.996546E+03	9.873092E-04	1.120088E-04
3.006501E+03	9.908560E-04	1.120585E-04
3.016456E+03	9.941365E-04	1.120742E-04
3.026411E+03	9.971951E-04	1.120611E-04
3.036367E+03	1.000015E-03	1.120175E-04
3.046322E+03	1.002761E-03	1.119621E-04
3.056277E+03	1.005365E-03	1.118874E-04
3.066233E+03	1.007796E-03	1.117901E-04
3.076188E+03	1.010027E-03	1.116672E-04
3.086143E+03	1.012099E-03	1.115238E-04
3.096099E+03	1.013988E-03	1.113572E-04
3.106054E+03	1.015639E-03	1.111615E-04
3.116009E+03	1.017096E-03	1.109419E-04
3.125964E+03	1.018340E-03	1.106966E-04
3.135920E+03	1.019354E-03	1.104238E-04
3.145875E+03	1.020124E-03	1.101224E-04
3.155830E+03	1.020697E-03	1.097977E-04
3.165786E+03	1.021001E-03	1.094421E-04
3.175741E+03	1.021117E-03	1.090646E-04
3.185696E+03	1.021004E-03	1.086611E-04
3.195652E+03	1.020685E-03	1.082344E-04
3.205607E+03	1.020182E-03	1.077869E-04
3.215562E+03	1.019463E-03	1.073155E-04
3.225517E+03	1.018553E-03	1.068230E-04
3.235473E+03	1.017451E-03	1.063097E-04
3.245428E+03	1.016210E-03	1.057812E-04
3.255383E+03	1.014805E-03	1.052352E-04
3.265339E+03	1.013264E-03	1.046747E-04
3.275294E+03	1.011591E-03	1.041003E-04
3.285249E+03	1.009817E-03	1.035154E-04
3.295205E+03	1.007947E-03	1.029206E-04
3.305160E+03	1.005991E-03	1.023170E-04
3.315115E+03	1.003958E-03	1.017056E-04
3.325070E+03	1.001882E-03	1.010901E-04
3.335026E+03	9.997745E-04	1.004717E-04
3.344981E+03	9.976510E-04	9.985183E-05
3.354936E+03	9.955054E-04	9.923004E-05
3.364892E+03	9.933975E-04	9.861228E-05
3.374847E+03	9.913047E-04	9.799630E-05
3.384802E+03	9.892494E-04	9.738428E-05
3.394758E+03	9.872743E-04	9.678037E-05
3.404713E+03	9.853660E-04	9.618319E-05
3.414668E+03	9.835526E-04	9.559540E-05
3.424623E+03	9.818638E-04	9.501977E-05
3.434579E+03	9.802964E-04	9.445583E-05
3.444534E+03	9.788680E-04	9.390515E-05
3.454489E+03	9.776171E-04	9.337124E-05
3.464445E+03	9.765503E-04	9.285449E-05
3.474400E+03	9.756781E-04	9.235571E-05
3.484355E+03	9.750317E-04	9.187757E-05
3.494311E+03	9.746447E-04	9.142295E-05
3.504266E+03	9.745383E-04	9.099352E-05
3.514221E+03	9.747370E-04	9.059117E-05
3.524176E+03	9.752689E-04	9.021815E-05
3.534132E+03	9.761802E-04	8.987825E-05
3.544087E+03	9.774756E-04	8.957145E-05
3.554042E+03	9.792218E-04	8.930330E-05
3.563998E+03	9.814435E-04	8.907547E-05
3.573953E+03	9.841968E-04	8.889239E-05
3.583908E+03	9.875253E-04	8.875729E-05
3.593864E+03	9.914740E-04	8.867343E-05
3.603819E+03	9.961029E-04	8.864531E-05
3.613774E+03	1.001459E-03	8.867620E-05
3.623729E+03	1.007604E-03	8.877051E-05
3.633685E+03	1.014585E-03	8.893133E-05
3.643640E+03	1.022489E-03	8.916511E-05
3.653595E+03	1.031349E-03	8.947347E-05
3.663551E+03	1.041249E-03	8.986236E-05
3.673506E+03	1.052259E-03	9.033630E-05
3.683461E+03	1.064420E-03	9.089722E-05
3.693417E+03	1.077807E-03	9.155001E-05
3.703372E+03	1.092480E-03	9.229797E-05
3.713327E+03	1.108480E-03	9.314283E-05
3.723282E+03	1.125870E-03	9.408786E-05
3.733238E+03	1.144691E-03	9.513460E-05
3.743193E+03	1.164977E-03	9.628382E-05
3.753148E+03	1.186752E-03	9.753542E-05
3.763104E+03	1.210029E-03	9.888832E-05
3.773059E+03	1.234821E-03	1.003415E-04
3.783014E+03	1.261114E-03	1.018916E-04
3.792970E+03	1.288891E-03	1.035352E-04
3.802925E+03	1.318074E-03	1.052638E-04
3.812880E+03	1.348636E-03	1.070733E-04
3.822835E+03	1.380472E-03	1.089533E-04
3.832791E+03	1.413466E-03	1.108931E-04
3.842746E+03	1.447494E-03	1.128811E-04
3.852701E+03	1.482407E-03	1.149043E-04
3.862657E+03	1.518000E-03	1.169457E-04
3.872612E+03	1.554074E-03	1.189889E-04
3.882567E+03	1.590408E-03	1.210163E-04
3.892523E+03	1.626726E-03	1.230067E-04
3.902478E+03	1.662767E-03	1.249406E-04
3.912433E+03	1.698240E-03	1.267964E-04
3.922388E+03	1.732862E-03	1.285540E-04
3.932344E+03	1.766329E-03	1.301921E-04
3.942299E+03	1.798358E-03	1.316917E-04
3.952254E+03	1.828639E-03	1.330323E-04
3.962210E+03	1.856897E-03	1.341964E-04
3.972165E+03	1.882934E-03	1.351730E-04
3.982120E+03	1.906475E-03	1.359454E-04
3.992076E+03	1.927370E-03	1.365067E-04
4.002031E+03	1.945476E-03	1.368508E-04
4.011986E+03	1.960714E-03	1.369761E-04
4.021941E+03	1.973014E-03	1.368821E-04
4.031897E+03	1.982378E-03	1.365731E-04
4.041852E+03	1.988875E-03	1.360583E-04
4.051807E+03	1.992623E-03	1.353499E-04
4.061763E+03	1.993730E-03	1.344591E-04
4.071718E+03	1.992417E-03	1.334048E-04
4.081673E+03	1.988886E-03	1.322040E-04
4.091629E+03	1.983405E-03	1.308776E-04
4.101584E+03	1.976222E-03	1.294450E-04
4.111539E+03	1.967639E-03	1.279281E-04
4.121494E+03	1.957943E-03	1.263478E-04
4.131450E+03	1.947422E-03	1.247241E-04
4.141405E+03	1.936340E-03	1.230751E-04
4.151360E+03	1.924984E-03	1.214198E-04
4.161316E+03	1.913593E-03	1.197738E-04
4.171271E+03	1.902424E-03	1.181531E-04
4.181226E+03	1.891664E-03	1.165690E-04
4.191182E+03	1.881532E-03	1.150344E-04
4.201137E+03	1.872195E-03	1.135586E-04
4.211092E+03	1.863821E-03	1.121507E-04
4.221047E+03	1.856544E-03	1.108174E-04
4.231003E+03	1.850487E-03	1.095645E-04
4.240958E+03	1.845777E-03	1.083977E-04
4.250913E+03	1.842499E-03	1.073202E-04
4.260869E+03	1.840751E-03	1.063358E-04
4.270824E+03	1.840628E-03	1.054477E-04
4.280779E+03	1.842192E-03	1.046574E-04
4.290735E+03	1.845555E-03	1.039688E-04
4.300690E+03	1.850804E-03	1.033844E-04
4.310645E+03	1.857998E-03	1.029050E-04
4.320601E+03	1.867272E-03	1.025353E-04
4.330556E+03	1.878737E-03	1.022786E-04
4.340511E+03	1.892515E-03	1.021387E-04
4.350466E+03	1.908776E-03	1.021216E-04
4.360422E+03	1.927751E-03	1.022363E-04
4.370377E+03	1.949656E-03	1.024905E-04
4.380332E+03	1.974738E-03	1.028935E-04
4.390288E+03	2.003289E-03	1.034562E-04
4.400243E+03	2.035555E-03	1.041867E-04
4.410198E+03	2.071812E-03	1.050943E-04
4.420154E+03	2.112286E-03	1.061854E-04
4.430109E+03	2.157213E-03	1.074664E-04
4.440064E+03	2.206771E-03	1.089407E-04
4.450019E+03	2.261072E-03	1.106081E-04
4.459975E+03	2.320154E-03	1.124646E-04
4.469930E+03	2.383972E-03	1.145024E-04
4.479885E+03	2.452427E-03	1.167113E-04
4.489841E+03	2.525216E-03	1.190717E-04
4.499796E+03	2.601975E-03	1.215619E-04
4.509751E+03	2.682118E-03	1.241504E-04
4.519707E+03	2.765005E-03	1.268049E-04
4.529662E+03	2.849768E-03	1.294833E-04
4.539617E+03	2.935354E-03	1.321371E-04
4.549572E+03	3.020618E-03	1.347155E-04
4.559528E+03	3.104322E-03	1.371655E-04
4.569483E+03	3.185031E-03	1.394277E-04
4.579438E+03	3.261400E-03	1.414485E-04
4.589394E+03	3.331939E-03	1.431708E-04
4.599349E+03	3.395304E-03	1.445457E-04
4.609304E+03	3.450299E-03	1.455325E-04
4.619260E+03	3.495812E-03	1.460959E-04
4.629215E+03	3.531014E-03	1.462137E-04
4.639170E+03	3.555355E-03	1.458762E-04
4.649125E+03	3.568625E-03	1.450882E-04
4.659081E+03	3.570844E-03	1.438635E-04
4.669036E+03	3.562489E-03	1.422340E-04
4.678991E+03	3.544289E-03	1.402406E-04
4.688947E+03	3.517133E-03	1.379288E-04
4.698902E+03	3.482193E-03	1.353538E-04
4.708857E+03	3.440837E-03	1.325762E-04
4.718813E+03	3.394577E-03	1.296604E-04
4.728768E+03	3.345035E-03	1.266722E-04
4.738723E+03	3.293849E-03	1.236759E-04
4.748678E+03	3.242612E-03	1.207321E-04
4.758634E+03	3.192825E-03	1.178956E-04
4.768589E+03	3.145904E-03	1.152166E-04
4.778544E+03	3.102990E-03	1.127334E-04
4.788500E+03	3.065216E-03	1.104828E-04
4.798455E+03	3.033393E-03	1.084891E-04
4.808410E+03	3.008247E-03	1.067729E-04
4.818366E+03	2.990302E-03	1.053470E-04
4.828321E+03	2.979944E-03	1.042193E-04
4.838276E+03	2.977336E-03	1.033897E-04
4.848231E+03	2.982526E-03	1.028539E-04
4.858187E+03	2.995368E-03	1.026007E-04
4.868142E+03	3.015568E-03	1.026145E-04
4.878097E+03	3.042614E-03	1.028730E-04
4.888053E+03	3.075814E-03	1.033483E-04
4.898008E+03	3.114283E-03	1.040071E-04
4.907963E+03	3.157004E-03	1.048124E-04
4.917919E+03	3.202678E-03	1.057191E-04
4.927874E+03	3.249971E-03	1.066820E-04
4.937829E+03	3.297388E-03	1.076513E-04
4.947784E+03	3.343351E-03	1.085760E-04
4.957740E+03	3.386365E-03	1.094086E-04
4.967695E+03	3.425000E-03	1.101046E-04
4.977650E+03	3.458048E-03	1.106272E-04
4.987606E+03	3.484483E-03	1.109462E-04
4.997561E+03	3.503634E-03	1.110429E-04
5.007516E+03	3.515220E-03	1.109112E-04
5.017472E+03	3.519300E-03	1.105555E-04
5.027427E+03	3.516248E-03	1.099900E-04
5.037382E+03	3.506825E-03	1.092405E-04
5.047337E+03	3.491999E-03	1.083386E-04
5.057293E+03	3.472901E-03	1.073205E-04
5.067248E+03	3.450823E-03	1.062266E-04
5.077203E+03	3.427073E-03	1.050973E-04
5.087159E+03	3.402933E-03	1.039714E-04
5.097114E+03	3.379585E-03	1.028843E-04
5.107069E+03	3.358154E-03	1.018689E-04
5.117025E+03	3.339680E-03	1.009555E-04
5.126980E+03	3.325037E-03	1.001686E-04
5.136935E+03	3.314953E-03	9.952841E-05
5.146890E+03	3.310061E-03	9.905184E-05
5.156846E+03	3.310877E-03	9.875217E-05
5.166801E+03	3.317808E-03	9.863944E-05
5.176756E+03	3.331111E-03	9.871906E-05
5.186712E+03	3.351036E-03	9.899622E-05
5.196667E+03	3.377586E-03	9.946881E-05
5.206622E+03	3.410736E-03	1.001340E-04
5.216578E+03	3.450285E-03	1.009838E-04
5.226533E+03	3.495922E-03	1.020072E-04
5.236488E+03	3.547211E-03	1.031897E-04
5.246443E+03	3.603543E-03	1.045119E-04
5.256399E+03	3.664253E-03	1.059531E-04
5.266354E+03	3.728528E-03	1.074886E-04
5.276309E+03	3.795369E-03	1.090885E-04
5.286265E+03	3.863858E-03	1.107258E-04
5.296220E+03	3.932865E-03	1.123676E-04
5.306175E+03	4.001362E-03	1.139845E-04
5.316131E+03	4.068264E-03	1.155456E-04
5.326086E+03	4.132569E-03	1.170229E-04
5.336041E+03	4.193333E-03	1.183904E-04
5.345996E+03	4.249845E-03	1.196288E-04
5.355952E+03	4.301327E-03	1.207175E-04
5.365907E+03	4.347322E-03	1.216449E-04
5.375862E+03	4.387487E-03	1.224028E-04
5.385818E+03	4.421635E-03	1.229875E-04
5.395773E+03	4.449671E-03	1.233980E-04
5.405728E+03	4.471661E-03	1.236376E-04
5.415684E+03	4.487756E-03	1.237122E-04
5.425639E+03	4.498157E-03	1.236287E-04
5.435594E+03	4.503104E-03	1.233955E-04
5.445549E+03	4.502707E-03	1.230169E-04
5.455505E+03	4.496821E-03	1.224904E-04
5.465460E+03	4.485050E-03	1.218069E-04
5.475415E+03	4.466788E-03	1.209515E-04
5.485371E+03	4.440881E-03	1.198948E-04
5.495326E+03	4.406205E-03	1.186084E-04
5.505281E+03	4.361499E-03	1.170602E-04
5.515237E+03	4.305887E-03	1.152283E-04
5.525192E+03	4.238920E-03	1.131023E-04
5.535147E+03	4.160561E-03	1.106834E-04
5.545102E+03	4.071507E-03	1.079918E-04
5.555058E+03	3.973027E-03	1.050633E-04
5.565013E+03	3.866805E-03	1.019438E-04
5.574968E+03	3.755076E-03	9.869362E-05
5.584924E+03	3.640374E-03	9.538010E-05
5.594879E+03	3.525287E-03	9.207140E-05
5.604834E+03	3.412587E-03	8.883963E-05
5.614790E+03	3.304881E-03	8.575178E-05
5.624745E+03	3.204536E-03	8.286784E-05
5.634700E+03	3.113814E-03	8.024416E-05
5.644655E+03	3.034638E-03	7.792763E-05
5.654611E+03	2.968620E-03	7.595646E-05
5.664566E+03	2.917177E-03	7.436312E-05
5.674521E+03	2.881434E-03	7.317205E-05
5.684477E+03	2.862376E-03	7.240350E-05
5.694432E+03	2.860799E-03	7.207248E-05
5.704387E+03	2.877370E-03	7.219010E-05
5.714343E+03	2.912630E-03	7.276387E-05
5.724298E+03	2.967038E-03	7.379877E-05
5.734253E+03	3.040823E-03	7.529357E-05
5.744209E+03	3.134167E-03	7.724550E-05
5.754164E+03	3.246929E-03	7.964345E-05
5.764119E+03	3.378702E-03	8.246966E-05
5.774074E+03	3.528749E-03	8.569813E-05
5.784030E+03	3.695843E-03	8.929118E-05
5.793985E+03	3.878246E-03	9.319917E-05
5.803940E+03	4.073641E-03	9.735930E-05
5.813896E+03	4.279132E-03	1.016960E-04
5.823851E+03	4.491244E-03	1.061215E-04
5.833806E+03	4.706052E-03	1.105392E-04
5.843762E+03	4.919199E-03	1.148447E-04
5.853717E+03	5.126039E-03	1.189296E-04
5.863672E+03	5.322011E-03	1.226902E-04
5.873627E+03	5.502695E-03	1.260289E-04
5.883583E+03	5.664157E-03	1.288623E-04
5.893538E+03	5.802973E-03	1.311213E-04
5.903493E+03	5.916649E-03	1.327602E-04
5.913449E+03	6.003562E-03	1.337548E-04
5.923404E+03	6.063059E-03	1.341036E-04
5.933359E+03	6.095535E-03	1.338293E-04
5.943315E+03	6.102193E-03	1.329722E-04
5.953270E+03	6.084932E-03	1.315872E-04
5.963225E+03	6.046467E-03	1.297458E-04
5.973180E+03	5.989703E-03	1.275218E-04
5.983136E+03	5.917924E-03	1.249954E-04
5.993091E+03	5.834399E-03	1.222444E-04
6.003046E+03	5.742306E-03	1.193424E-04
6.013002E+03	5.644689E-03	1.163582E-04
6.022957E+03	5.544285E-03	1.133522E-04
6.032912E+03	5.443286E-03	1.103720E-04
6.042868E+03	5.343775E-03	1.074613E-04
6.052823E+03	5.247311E-03	1.046520E-04
6.062778E+03	5.155153E-03	1.019691E-04
6.072733E+03	5.068148E-03	9.942854E-05
6.082689E+03	4.986897E-03	9.704103E-05
6.092644E+03	4.911602E-03	9.480922E-05
6.102599E+03	4.842483E-03	9.273601E-05
6.112555E+03	4.779379E-03	9.081700E-05
6.122510E+03	4.721977E-03	8.904514E-05
6.132465E+03	4.670032E-03	8.741492E-05
6.142421E+03	4.622981E-03	8.591513E-05
6.152376E+03	4.580393E-03	8.453751E-05
6.162331E+03	4.541531E-03	8.326844E-05
6.172286E+03	4.505923E-03	8.209960E-05
6.182242E+03	4.473009E-03	8.102140E-05
6.192197E+03	4.442304E-03	8.002588E-05
6.202152E+03	4.413386E-03	7.910645E-05
6.212108E+03	4.385901E-03	7.825785E-05
6.222063E+03	4.359555E-03	7.747539E-05
6.232018E+03	4.334282E-03	7.675724E-05
6.241974E+03	4.309808E-03	7.609774E-05
6.251929E+03	4.286161E-03	7.549667E-05
6.261884E+03	4.263336E-03	7.495319E-05
6.271839E+03	4.241509E-03	7.446966E-05
6.281795E+03	4.220785E-03	7.404717E-05
6.291750E+03	4.201301E-03	7.368743E-05
6.301705E+03	4.183378E-03	7.339538E-05
6.311661E+03	4.167086E-03	7.317167E-05
6.321616E+03	4.152593E-03	7.301867E-05
6.331571E+03	4.140143E-03	7.294022E-05
6.341527E+03	4.129704E-03	7.293541E-05
6.351482E+03	4.121379E-03	7.300583E-05
6.361437E+03	4.115123E-03	7.315050E-05
6.371392E+03	4.111025E-03	7.337100E-05
6.381348E+03	4.108940E-03	7.366477E-05
6.391303E+03	4.108887E-03	7.403230E-05
6.401258E+03	4.110842E-03	7.447339E-05
6.411214E+03	4.114682E-03	7.498610E-05
6.421169E+03	4.120558E-03	7.557358E-05
6.431124E+03	4.128481E-03	7.623655E-05
6.441080E+03	4.138555E-03	7.697754E-05
6.451035E+03	4.150872E-03	7.779860E-05
6.460990E+03	4.165674E-03	7.870354E-05
6.470945E+03	4.183114E-03	7.969456E-05
6.480901E+03	4.203491E-03	8.077677E-05
6.490856E+03	4.226957E-03	8.195279E-05
6.500811E+03	4.253979E-03	8.323161E-05
6.510767E+03	4.284904E-03	8.462022E-05
6.520722E+03	4.320112E-03	8.612669E-05
6.530677E+03	4.360070E-03	8.776122E-05
6.540633E+03	4.404972E-03	8.952893E-05
6.550588E+03	4.454921E-03	9.143328E-05
6.560543E+03	4.509596E-03	9.346915E-05
6.570498E+03	4.568434E-03	9.562614E-05
6.580454E+03	4.630603E-03	9.788772E-05
6.590409E+03	4.694763E-03	1.002259E-04
6.600364E+03	4.759588E-03	1.026118E-04
6.610320E+03	4.823324E-03	1.050061E-04
6.620275E+03	4.884146E-03	1.073665E-04
6.630230E+03	4.940177E-03	1.096479E-04
6.640186E+03	4.989651E-03	1.118060E-04
6.650141E+03	5.030706E-03	1.137930E-04
6.660096E+03	5.061920E-03	1.155694E-04
6.670051E+03	5.082179E-03	1.171019E-04
6.680007E+03	5.090559E-03	1.183606E-04
6.689962E+03	5.086533E-03	1.193243E-04
6.699917E+03	5.070231E-03	1.199870E-04
6.709873E+03	5.042029E-03	1.203491E-04
6.719828E+03	5.002526E-03	1.204168E-04
6.729783E+03	4.952988E-03	1.202131E-04
6.739739E+03	4.894724E-03	1.197633E-04
6.749694E+03	4.829338E-03	1.191014E-04
6.759649E+03	4.758676E-03	1.182688E-04
6.769604E+03	4.684502E-03	1.173064E-04
6.779560E+03	4.608767E-03	1.162614E-04
6.789515E+03	4.533224E-03	1.151776E-04
6.799470E+03	4.459710E-03	1.141021E-04
6.809426E+03	4.389785E-03	1.130764E-04
6.819381E+03	4.325002E-03	1.121428E-04
6.829336E+03	4.266675E-03	1.113385E-04
6.839292E+03	4.215863E-03	1.106947E-04
6.849247E+03	4.173569E-03	1.102417E-04
6.859202E+03	4.140451E-03	1.100010E-04
6.869157E+03	4.117174E-03	1.099948E-04
6.879113E+03	4.103915E-03	1.102321E-04
6.889068E+03	4.100847E-03	1.107217E-04
6.899023E+03	4.107852E-03	1.114644E-04
6.908979E+03	4.124591E-03	1.124545E-04
6.918934E+03	4.150497E-03	1.136799E-04
6.928889E+03	4.184774E-03	1.151214E-04
6.938845E+03	4.226392E-03	1.167528E-04
6.948800E+03	4.274115E-03	1.185415E-04
6.958755E+03	4.326430E-03	1.204465E-04
6.968710E+03	4.381891E-03	1.224277E-04
6.978666E+03	4.438708E-03	1.244350E-04
6.988621E+03	4.495123E-03	1.264182E-04
6.998576E+03	4.549464E-03	1.283290E-04
7.008532E+03	4.599907E-03	1.301142E-04
7.018487E+03	4.645125E-03	1.317345E-04
7.028442E+03	4.683777E-03	1.331498E-04
7.038398E+03	4.714899E-03	1.343305E-04
7.048353E+03	4.737855E-03	1.352565E-04
7.058308E+03	4.752449E-03	1.359204E-04
7.068263E+03	4.758660E-03	1.363201E-04
7.078219E+03	4.756962E-03	1.364678E-04
7.088174E+03	4.747928E-03	1.363791E-04
7.098129E+03	4.732441E-03	1.360789E-04
7.108085E+03	4.711622E-03	1.355990E-04
7.118040E+03	4.686586E-03	1.349716E-04
7.127995E+03	4.658385E-03	1.342272E-04
7.137951E+03	4.628194E-03	1.334002E-04
7.147906E+03	4.596920E-03	1.325172E-04
7.157861E+03	4.565525E-03	1.316066E-04
7.167817E+03	4.534717E-03	1.306895E-04
7.177772E+03	4.505037E-03	1.297821E-04
7.187727E+03	4.476855E-03	1.288956E-04
7.197682E+03	4.450373E-03	1.280365E-04
7.207638E+03	4.425552E-03	1.272042E-04
7.217593E+03	4.402479E-03	1.264016E-04
7.227548E+03	4.380871E-03	1.256210E-04
7.237504E+03	4.360448E-03	1.248549E-04
7.247459E+03	4.340957E-03	1.240966E-04
7.257414E+03	4.321949E-03	1.233336E-04
7.267370E+03	4.303134E-03	1.225582E-04
7.277325E+03	4.284155E-03	1.217609E-04
7.287280E+03	4.264688E-03	1.209331E-04
7.297235E+03	4.244458E-03	1.200677E-04
7.307191E+03	4.223320E-03	1.191616E-04
7.317146E+03	4.201021E-03	1.182084E-04
7.327101E+03	4.177605E-03	1.172105E-04
7.337057E+03	4.153090E-03	1.161693E-04
7.347012E+03	4.127244E-03	1.150793E-04
7.356967E+03	4.100310E-03	1.139485E-04
7.366923E+03	4.072272E-03	1.127776E-04
7.376878E+03	4.043200E-03	1.115696E-04
7.386833E+03	4.013080E-03	1.103252E-04
7.396788E+03	3.981975E-03	1.090474E-04
7.406744E+03	3.949763E-03	1.077341E-04
7.416699E+03	3.916244E-03	1.063809E-04
7.426654E+03	3.881489E-03	1.049913E-04
7.436610E+03	3.845331E-03	1.035619E-04
7.446565E+03	3.807812E-03	1.020954E-04
7.456520E+03	3.768852E-03	1.005909E-04
7.466476E+03	3.728685E-03	9.905616E-05
7.476431E+03	3.687521E-03	9.749759E-05
7.486386E+03	3.645476E-03	9.591909E-05
7.496341E+03	3.602980E-03	9.433269E-05
7.506297E+03	3.560363E-03	9.274764E-05
7.516252E+03	3.518082E-03	9.117631E-05
7.526207E+03	3.476708E-03	8.963380E-05
7.536163E+03	3.436670E-03	8.813124E-05
7.546118E+03	3.398476E-03	8.668156E-05
7.556073E+03	3.362612E-03	8.529681E-05
7.566029E+03	3.329541E-03	8.398822E-05
7.575984E+03	3.299668E-03	8.276532E-05
7.585939E+03	3.273360E-03	8.163642E-05
7.595894E+03	3.250913E-03	8.060785E-05
7.605850E+03	3.232553E-03	7.968407E-05
7.615805E+03	3.218422E-03	7.886739E-05
7.625760E+03	3.208575E-03	7.815782E-05
7.635716E+03	3.202967E-03	7.755308E-05
7.645671E+03	3.201540E-03	7.705048E-05
7.655626E+03	3.203908E-03	7.663971E-05
7.665582E+03	3.209910E-03	7.631594E-05
7.675537E+03	3.218993E-03	7.606537E-05
7.685492E+03	3.230846E-03	7.588012E-05
7.695447E+03	3.244867E-03	7.574588E-05
7.705403E+03	3.260571E-03	7.565145E-05
7.715358E+03	3.277290E-03	7.558172E-05
7.725313E+03	3.294426E-03	7.552369E-05
