#wls	flux	fluxerr
1.594261E+03	3.559321E-04	2.411053E-05
1.634117E+03	3.420698E-04	2.303925E-05
1.673974E+03	3.254552E-04	2.179261E-05
1.713830E+03	3.063385E-04	2.039078E-05
1.753687E+03	2.850940E-04	1.886186E-05
1.793543E+03	2.621843E-04	1.723919E-05
1.833400E+03	2.382163E-04	1.556484E-05
1.873256E+03	2.139144E-04	1.388755E-05
1.913113E+03	1.900594E-04	1.225849E-05
1.952969E+03	1.674327E-04	1.072752E-05
1.992826E+03	1.467714E-04	9.340311E-06
2.032682E+03	1.287232E-04	8.135566E-06
2.072539E+03	1.137567E-04	7.139517E-06
2.112395E+03	1.021247E-04	6.364066E-06
2.152252E+03	9.415013E-05	5.824888E-06
2.192108E+03	8.984968E-05	5.518208E-06
2.231965E+03	8.923962E-05	5.440093E-06
2.271821E+03	9.254969E-05	5.599416E-06
2.311678E+03	9.963167E-05	5.981860E-06
2.351534E+03	1.100760E-04	6.557736E-06
2.391391E+03	1.237154E-04	7.312383E-06
2.431248E+03	1.406401E-04	8.246488E-06
2.471104E+03	1.611684E-04	9.373785E-06
2.510961E+03	1.858568E-04	1.072111E-05
2.550817E+03	2.154551E-04	1.232522E-05
2.590674E+03	2.506017E-04	1.421510E-05
2.630530E+03	2.908590E-04	1.635791E-05
2.670387E+03	3.365468E-04	1.876387E-05
2.710243E+03	3.884570E-04	2.146864E-05
2.750100E+03	4.463172E-04	2.444804E-05
2.789956E+03	5.092107E-04	2.764344E-05
2.829813E+03	5.758189E-04	3.097644E-05
2.869669E+03	6.445039E-04	3.435428E-05
2.909526E+03	7.134765E-04	3.767950E-05
2.949382E+03	7.809876E-04	4.086037E-05
2.989239E+03	8.453849E-04	4.381350E-05
2.999203E+03	8.608490E-04	4.450906E-05
3.009167E+03	8.760280E-04	4.518613E-05
3.019131E+03	8.909090E-04	4.584415E-05
3.029095E+03	9.054870E-04	4.648297E-05
3.039059E+03	9.197526E-04	4.710222E-05
3.049024E+03	9.337661E-04	4.770511E-05
3.058988E+03	9.474724E-04	4.828892E-05
3.068952E+03	9.608845E-04	4.885443E-05
3.078916E+03	9.739964E-04	4.940145E-05
3.088880E+03	9.868040E-04	4.992989E-05
3.098844E+03	9.992821E-04	5.043857E-05
3.108808E+03	1.011479E-03	5.093010E-05
3.118772E+03	1.023351E-03	5.140231E-05
3.128737E+03	1.034927E-03	5.185683E-05
3.138701E+03	1.046216E-03	5.229424E-05
3.148665E+03	1.057230E-03	5.271521E-05
3.158629E+03	1.067984E-03	5.312055E-05
3.168593E+03	1.078467E-03	5.350994E-05
3.178557E+03	1.088754E-03	5.388706E-05
3.188521E+03	1.098814E-03	5.425055E-05
3.198485E+03	1.108700E-03	5.460310E-05
3.208450E+03	1.118443E-03	5.494626E-05
3.218414E+03	1.128076E-03	5.528172E-05
3.228378E+03	1.137636E-03	5.561131E-05
3.238342E+03	1.147134E-03	5.593570E-05
3.248306E+03	1.156671E-03	5.625972E-05
3.258270E+03	1.166238E-03	5.658295E-05
3.268234E+03	1.175913E-03	5.690917E-05
3.278198E+03	1.185749E-03	5.724094E-05
3.288163E+03	1.195803E-03	5.758091E-05
3.298127E+03	1.206104E-03	5.793042E-05
3.308091E+03	1.216771E-03	5.829509E-05
3.318055E+03	1.227807E-03	5.867489E-05
3.328019E+03	1.239330E-03	5.907542E-05
3.337983E+03	1.251340E-03	5.949642E-05
3.347947E+03	1.263920E-03	5.994167E-05
3.357912E+03	1.277114E-03	6.041311E-05
3.367876E+03	1.290955E-03	6.091199E-05
3.377840E+03	1.305421E-03	6.143716E-05
3.387804E+03	1.320558E-03	6.199052E-05
3.397768E+03	1.336241E-03	6.256594E-05
3.407732E+03	1.352376E-03	6.315887E-05
3.417696E+03	1.368743E-03	6.375896E-05
3.427660E+03	1.384981E-03	6.434931E-05
3.437625E+03	1.400510E-03	6.490309E-05
3.447589E+03	1.414382E-03	6.537680E-05
3.457553E+03	1.425367E-03	6.571434E-05
3.467517E+03	1.432389E-03	6.586720E-05
3.477481E+03	1.436179E-03	6.587045E-05
3.487445E+03	1.438011E-03	6.578341E-05
3.497409E+03	1.438723E-03	6.564509E-05
3.507373E+03	1.438910E-03	6.548289E-05
3.517338E+03	1.439022E-03	6.531744E-05
3.527302E+03	1.439263E-03	6.515792E-05
3.537266E+03	1.439742E-03	6.500920E-05
3.547230E+03	1.440577E-03	6.487644E-05
3.557194E+03	1.441804E-03	6.476113E-05
3.567158E+03	1.443429E-03	6.466338E-05
3.577122E+03	1.445439E-03	6.458237E-05
3.587086E+03	1.447803E-03	6.451663E-05
3.597051E+03	1.450486E-03	6.446436E-05
3.607015E+03	1.453407E-03	6.442187E-05
3.616979E+03	1.456593E-03	6.439024E-05
3.626943E+03	1.459926E-03	6.436412E-05
3.636907E+03	1.463397E-03	6.434303E-05
3.646871E+03	1.466964E-03	6.432500E-05
3.656835E+03	1.470585E-03	6.430820E-05
3.666800E+03	1.474224E-03	6.429097E-05
3.676764E+03	1.477811E-03	6.427020E-05
3.686728E+03	1.481389E-03	6.424777E-05
3.696692E+03	1.484859E-03	6.421934E-05
3.706656E+03	1.488237E-03	6.418557E-05
3.716620E+03	1.491540E-03	6.414726E-05
3.726584E+03	1.494679E-03	6.410057E-05
3.736548E+03	1.497644E-03	6.404504E-05
3.746513E+03	1.500502E-03	6.398357E-05
3.756477E+03	1.503209E-03	6.391434E-05
3.766441E+03	1.505727E-03	6.383571E-05
3.776405E+03	1.508132E-03	6.375092E-05
3.786369E+03	1.510351E-03	6.365693E-05
3.796333E+03	1.512427E-03	6.355555E-05
3.806297E+03	1.514367E-03	6.344710E-05
3.816261E+03	1.516178E-03	6.333192E-05
3.826226E+03	1.517871E-03	6.321042E-05
3.836190E+03	1.519417E-03	6.308143E-05
3.846154E+03	1.520902E-03	6.294856E-05
3.856118E+03	1.522261E-03	6.280907E-05
3.866082E+03	1.523581E-03	6.266656E-05
3.876046E+03	1.524794E-03	6.251824E-05
3.886010E+03	1.525947E-03	6.236605E-05
3.895974E+03	1.527048E-03	6.221028E-05
3.905939E+03	1.528103E-03	6.205116E-05
3.915903E+03	1.529078E-03	6.188728E-05
3.925867E+03	1.530052E-03	6.172188E-05
3.935831E+03	1.530988E-03	6.155339E-05
3.945795E+03	1.531844E-03	6.138017E-05
3.955759E+03	1.532657E-03	6.120361E-05
3.965723E+03	1.533421E-03	6.102348E-05
3.975688E+03	1.534127E-03	6.083947E-05
3.985652E+03	1.534765E-03	6.065116E-05
3.995616E+03	1.535325E-03	6.045810E-05
4.005580E+03	1.535793E-03	6.025977E-05
4.015544E+03	1.536155E-03	6.005562E-05
4.025508E+03	1.536355E-03	5.984353E-05
4.035472E+03	1.536417E-03	5.962442E-05
4.045436E+03	1.536363E-03	5.939921E-05
4.055401E+03	1.536098E-03	5.916424E-05
4.065365E+03	1.535645E-03	5.892046E-05
4.075329E+03	1.534988E-03	5.866733E-05
4.085293E+03	1.534112E-03	5.840434E-05
4.095257E+03	1.532965E-03	5.812956E-05
4.105221E+03	1.531613E-03	5.784562E-05
4.115185E+03	1.530006E-03	5.755072E-05
4.125149E+03	1.528097E-03	5.724316E-05
4.135114E+03	1.525918E-03	5.692431E-05
4.145078E+03	1.523507E-03	5.659559E-05
4.155042E+03	1.520780E-03	5.625411E-05
4.165006E+03	1.517779E-03	5.590147E-05
4.174970E+03	1.514506E-03	5.553786E-05
4.184934E+03	1.510964E-03	5.516356E-05
4.194898E+03	1.507120E-03	5.477749E-05
4.204862E+03	1.503062E-03	5.438289E-05
4.214827E+03	1.498717E-03	5.397734E-05
4.224791E+03	1.494175E-03	5.356413E-05
4.234755E+03	1.489366E-03	5.314090E-05
4.244719E+03	1.484341E-03	5.270954E-05
4.254683E+03	1.479146E-03	5.227185E-05
4.264647E+03	1.473714E-03	5.182552E-05
4.274611E+03	1.468091E-03	5.137230E-05
4.284576E+03	1.462245E-03	5.091119E-05
4.294540E+03	1.456258E-03	5.044516E-05
4.304504E+03	1.450097E-03	4.997311E-05
4.314468E+03	1.443727E-03	4.949396E-05
4.324432E+03	1.437225E-03	4.901050E-05
4.334396E+03	1.430519E-03	4.852033E-05
4.344360E+03	1.423649E-03	4.802492E-05
4.354324E+03	1.416654E-03	4.752570E-05
4.364289E+03	1.409461E-03	4.702035E-05
4.374253E+03	1.402111E-03	4.651029E-05
4.384217E+03	1.394602E-03	4.599563E-05
4.394181E+03	1.386934E-03	4.547642E-05
4.404145E+03	1.379063E-03	4.495141E-05
4.414109E+03	1.371056E-03	4.442285E-05
4.424073E+03	1.362863E-03	4.388924E-05
4.434037E+03	1.354430E-03	4.334903E-05
4.444002E+03	1.345773E-03	4.280287E-05
4.453966E+03	1.336903E-03	4.225124E-05
4.463930E+03	1.327718E-03	4.169118E-05
4.473894E+03	1.318224E-03	4.112304E-05
4.483858E+03	1.308387E-03	4.054601E-05
4.493822E+03	1.298172E-03	3.995925E-05
4.503786E+03	1.287542E-03	3.936194E-05
4.513750E+03	1.276462E-03	3.875331E-05
4.523715E+03	1.264897E-03	3.813262E-05
4.533679E+03	1.252781E-03	3.749825E-05
4.543643E+03	1.240150E-03	3.685171E-05
4.553607E+03	1.226910E-03	3.619062E-05
4.563571E+03	1.213106E-03	3.551671E-05
4.573535E+03	1.198653E-03	3.482800E-05
4.583499E+03	1.183573E-03	3.412559E-05
4.593464E+03	1.167891E-03	3.341070E-05
4.603428E+03	1.151544E-03	3.268204E-05
4.613392E+03	1.134573E-03	3.194127E-05
4.623356E+03	1.116993E-03	3.118932E-05
4.633320E+03	1.098826E-03	3.042733E-05
4.643284E+03	1.080073E-03	2.965583E-05
4.653248E+03	1.060831E-03	2.887796E-05
4.663212E+03	1.041115E-03	2.809454E-05
4.673177E+03	1.020947E-03	2.730663E-05
4.683141E+03	1.000439E-03	2.651765E-05
4.693105E+03	9.795994E-04	2.572811E-05
4.703069E+03	9.585459E-04	2.494147E-05
4.713033E+03	9.372949E-04	2.415840E-05
4.722997E+03	9.159432E-04	2.338164E-05
4.732961E+03	8.945625E-04	2.261318E-05
4.742925E+03	8.732487E-04	2.185556E-05
4.752890E+03	8.520243E-04	2.110941E-05
4.762854E+03	8.309829E-04	2.037706E-05
4.772818E+03	8.101692E-04	1.965956E-05
4.782782E+03	7.896927E-04	1.895950E-05
4.792746E+03	7.695910E-04	1.827760E-05
4.802710E+03	7.499216E-04	1.761505E-05
4.812674E+03	7.307177E-04	1.697237E-05
4.822639E+03	7.120693E-04	1.635136E-05
4.832603E+03	6.939823E-04	1.575184E-05
4.842567E+03	6.765377E-04	1.517526E-05
4.852531E+03	6.597353E-04	1.462119E-05
4.862495E+03	6.436473E-04	1.409080E-05
4.872459E+03	6.282695E-04	1.358350E-05
4.882423E+03	6.136490E-04	1.309981E-05
4.892387E+03	5.998120E-04	1.263973E-05
4.902352E+03	5.867823E-04	1.220319E-05
4.912316E+03	5.745816E-04	1.179005E-05
4.922280E+03	5.632306E-04	1.140010E-05
4.932244E+03	5.527469E-04	1.103304E-05
4.942208E+03	5.431483E-04	1.068858E-05
4.952172E+03	5.344510E-04	1.036631E-05
4.962136E+03	5.266710E-04	1.006586E-05
4.972100E+03	5.198092E-04	9.786501E-06
4.982065E+03	5.139109E-04	9.528343E-06
4.992029E+03	5.089776E-04	9.290634E-06
5.001993E+03	5.050133E-04	9.072662E-06
5.011957E+03	5.020656E-04	8.874470E-06
5.021921E+03	5.001282E-04	8.695113E-06
5.031885E+03	4.992395E-04	8.534413E-06
5.041849E+03	4.994413E-04	8.392196E-06
5.051813E+03	5.007381E-04	8.267629E-06
5.061778E+03	5.031807E-04	8.160622E-06
5.071742E+03	5.068119E-04	8.070899E-06
5.081706E+03	5.116949E-04	7.998457E-06
5.091670E+03	5.178582E-04	7.942688E-06
5.101634E+03	5.253805E-04	7.903720E-06
5.111598E+03	5.343361E-04	7.881524E-06
5.121562E+03	5.448108E-04	7.876169E-06
5.131527E+03	5.569007E-04	7.887785E-06
5.141491E+03	5.707007E-04	7.916392E-06
5.151455E+03	5.863685E-04	7.962779E-06
5.161419E+03	6.040306E-04	8.027172E-06
5.171383E+03	6.238484E-04	8.110141E-06
5.181347E+03	6.459869E-04	8.212165E-06
5.191311E+03	6.706891E-04	8.334569E-06
5.201275E+03	6.981718E-04	8.478154E-06
5.211240E+03	7.286786E-04	8.643885E-06
5.221204E+03	7.625499E-04	8.833690E-06
5.231168E+03	8.000806E-04	9.048743E-06
5.241132E+03	8.416977E-04	9.291517E-06
5.251096E+03	8.877850E-04	9.563765E-06
5.261060E+03	9.388794E-04	9.868690E-06
5.271024E+03	9.954769E-04	1.020882E-05
5.280988E+03	1.058222E-03	1.058802E-05
5.290953E+03	1.127808E-03	1.101046E-05
5.300917E+03	1.205049E-03	1.148129E-05
5.310881E+03	1.290738E-03	1.200540E-05
5.320845E+03	1.385849E-03	1.258937E-05
5.330809E+03	1.491380E-03	1.324008E-05
5.340773E+03	1.608326E-03	1.396472E-05
5.350737E+03	1.737543E-03	1.476979E-05
5.360701E+03	1.879442E-03	1.565902E-05
5.370666E+03	2.033337E-03	1.662858E-05
5.380630E+03	2.196111E-03	1.765732E-05
5.390594E+03	2.359743E-03	1.868861E-05
5.400558E+03	2.508456E-03	1.961008E-05
5.410522E+03	2.623916E-03	2.029546E-05
5.420486E+03	2.701812E-03	2.072924E-05
5.430450E+03	2.735591E-03	2.087546E-05
5.440415E+03	2.735266E-03	2.081982E-05
5.450379E+03	2.711433E-03	2.064622E-05
5.460343E+03	2.666259E-03	2.036943E-05
5.470307E+03	2.595902E-03	1.995443E-05
5.480271E+03	2.501120E-03	1.939761E-05
5.490235E+03	2.391091E-03	1.875808E-05
5.500199E+03	2.276898E-03	1.811104E-05
5.510163E+03	2.165185E-03	1.749986E-05
5.520128E+03	2.059052E-03	1.694252E-05
5.530092E+03	1.959444E-03	1.644152E-05
5.540056E+03	1.866423E-03	1.599350E-05
5.550020E+03	1.779854E-03	1.559446E-05
5.559984E+03	1.699245E-03	1.523807E-05
5.569948E+03	1.624285E-03	1.492022E-05
5.579912E+03	1.554467E-03	1.463551E-05
5.589876E+03	1.489512E-03	1.438096E-05
5.599841E+03	1.428977E-03	1.415241E-05
5.609805E+03	1.372634E-03	1.394798E-05
5.619769E+03	1.320105E-03	1.376449E-05
5.629733E+03	1.271167E-03	1.360045E-05
5.639697E+03	1.225611E-03	1.345464E-05
5.649661E+03	1.183133E-03	1.332491E-05
5.659625E+03	1.143564E-03	1.321052E-05
5.669589E+03	1.106741E-03	1.311090E-05
5.679554E+03	1.072416E-03	1.302444E-05
5.689518E+03	1.040455E-03	1.295084E-05
5.699482E+03	1.010733E-03	1.288986E-05
5.709446E+03	9.830381E-04	1.284019E-05
5.719410E+03	9.572672E-04	1.280171E-05
5.729374E+03	9.332909E-04	1.277398E-05
5.739338E+03	9.110172E-04	1.275699E-05
5.749303E+03	8.902760E-04	1.274954E-05
5.759267E+03	8.709899E-04	1.275164E-05
5.769231E+03	8.530598E-04	1.276294E-05
5.779195E+03	8.363919E-04	1.278306E-05
5.789159E+03	8.209238E-04	1.281205E-05
5.799123E+03	8.065214E-04	1.284875E-05
5.809087E+03	7.931333E-04	1.289321E-05
5.819051E+03	7.806867E-04	1.294506E-05
5.829016E+03	7.691136E-04	1.300397E-05
5.838980E+03	7.583746E-04	1.307000E-05
5.848944E+03	7.483616E-04	1.314197E-05
5.858908E+03	7.390445E-04	1.321997E-05
5.868872E+03	7.303710E-04	1.330367E-05
5.878836E+03	7.222942E-04	1.339276E-05
5.888800E+03	7.147696E-04	1.348693E-05
5.898764E+03	7.077566E-04	1.358590E-05
5.908729E+03	7.012398E-04	1.368981E-05
5.918693E+03	6.951409E-04	1.379757E-05
5.928657E+03	6.894500E-04	1.390934E-05
5.938621E+03	6.841385E-04	1.402491E-05
5.948585E+03	6.791798E-04	1.414407E-05
5.958549E+03	6.745492E-04	1.426660E-05
5.968513E+03	6.702239E-04	1.439233E-05
5.978477E+03	6.661841E-04	1.452109E-05
5.988442E+03	6.624314E-04	1.465317E-05
5.998406E+03	6.589059E-04	1.478750E-05
6.008370E+03	6.556129E-04	1.492440E-05
6.018334E+03	6.525372E-04	1.506372E-05
6.028298E+03	6.496647E-04	1.520534E-05
6.038262E+03	6.469825E-04	1.534914E-05
6.048226E+03	6.444787E-04	1.549498E-05
6.058191E+03	6.421626E-04	1.564328E-05
6.068155E+03	6.399832E-04	1.579293E-05
6.078119E+03	6.379513E-04	1.594433E-05
6.088083E+03	6.360586E-04	1.609740E-05
6.098047E+03	6.342968E-04	1.625205E-05
6.108011E+03	6.326590E-04	1.640823E-05
6.117975E+03	6.311598E-04	1.656641E-05
6.127939E+03	6.297523E-04	1.672549E-05
6.137904E+03	6.284522E-04	1.688596E-05
6.147868E+03	6.272560E-04	1.704783E-05
6.157832E+03	6.261599E-04	1.721108E-05
6.167796E+03	6.251823E-04	1.737631E-05
6.177760E+03	6.242799E-04	1.754242E-05
6.187724E+03	6.234716E-04	1.770999E-05
6.197688E+03	6.227574E-04	1.787912E-05
6.207652E+03	6.221566E-04	1.805044E-05
6.217617E+03	6.216291E-04	1.822289E-05
6.227581E+03	6.211948E-04	1.839711E-05
6.237545E+03	6.208750E-04	1.857382E-05
6.247509E+03	6.206290E-04	1.875189E-05
6.257473E+03	6.204776E-04	1.893202E-05
6.267437E+03	6.204419E-04	1.911493E-05
6.277401E+03	6.204797E-04	1.929943E-05
6.287365E+03	6.206115E-04	1.948620E-05
6.297330E+03	6.208555E-04	1.967591E-05
6.307294E+03	6.211688E-04	1.986728E-05
6.317258E+03	6.215885E-04	2.006156E-05
6.327222E+03	6.220692E-04	2.025737E-05
6.337186E+03	6.226463E-04	2.045592E-05
6.347150E+03	6.232703E-04	2.065564E-05
6.357114E+03	6.239741E-04	2.085767E-05
6.367079E+03	6.247052E-04	2.106031E-05
6.377043E+03	6.254936E-04	2.126460E-05
6.387007E+03	6.262823E-04	2.146862E-05
6.396971E+03	6.270979E-04	2.167329E-05
6.406935E+03	6.278803E-04	2.187654E-05
6.416899E+03	6.286529E-04	2.207915E-05
6.426863E+03	6.293733E-04	2.227962E-05
6.436827E+03	6.299986E-04	2.247636E-05
6.446792E+03	6.305491E-04	2.267002E-05
6.456756E+03	6.309794E-04	2.285891E-05
6.466720E+03	6.312670E-04	2.304208E-05
6.476684E+03	6.313665E-04	2.321775E-05
6.486648E+03	6.312994E-04	2.338658E-05
6.496612E+03	6.310235E-04	2.354683E-05
6.506576E+03	6.305192E-04	2.369762E-05
6.516540E+03	6.297494E-04	2.383736E-05
6.526505E+03	6.287434E-04	2.396694E-05
6.536469E+03	6.274687E-04	2.408494E-05
6.546433E+03	6.259195E-04	2.419093E-05
6.556397E+03	6.240918E-04	2.428453E-05
6.566361E+03	6.219872E-04	2.436560E-05
6.576325E+03	6.196100E-04	2.443409E-05
6.586289E+03	6.169690E-04	2.449015E-05
6.596253E+03	6.140764E-04	2.453408E-05
6.606218E+03	6.109477E-04	2.456630E-05
6.616182E+03	6.076013E-04	2.458740E-05
6.626146E+03	6.040578E-04	2.459807E-05
6.636110E+03	6.003608E-04	2.459993E-05
6.646074E+03	5.964931E-04	2.459220E-05
6.656038E+03	5.925010E-04	2.457666E-05
6.666002E+03	5.884099E-04	2.455431E-05
6.675967E+03	5.842662E-04	2.452703E-05
6.685931E+03	5.800549E-04	2.449416E-05
6.695895E+03	5.758204E-04	2.445755E-05
6.705859E+03	5.716074E-04	2.441912E-05
6.715823E+03	5.673976E-04	2.437810E-05
6.725787E+03	5.632328E-04	2.433632E-05
6.735751E+03	5.591515E-04	2.429551E-05
6.745715E+03	5.551322E-04	2.425480E-05
6.755680E+03	5.512308E-04	2.421670E-05
6.765644E+03	5.474215E-04	2.418017E-05
6.775608E+03	5.437563E-04	2.414761E-05
6.785572E+03	5.402266E-04	2.411875E-05
6.795536E+03	5.368218E-04	2.409321E-05
6.805500E+03	5.335877E-04	2.407317E-05
6.815464E+03	5.305102E-04	2.405813E-05
6.825428E+03	5.275749E-04	2.404754E-05
6.835393E+03	5.248216E-04	2.404334E-05
6.845357E+03	5.222320E-04	2.404481E-05
6.855321E+03	5.198052E-04	2.405206E-05
6.865285E+03	5.175385E-04	2.406507E-05
6.875249E+03	5.154285E-04	2.408379E-05
6.885213E+03	5.134698E-04	2.410810E-05
6.895177E+03	5.116559E-04	2.413779E-05
6.905141E+03	5.099788E-04	2.417260E-05
6.915106E+03	5.084305E-04	2.421222E-05
6.925070E+03	5.070003E-04	2.425627E-05
6.935034E+03	5.056788E-04	2.430435E-05
6.944998E+03	5.044539E-04	2.435596E-05
6.954962E+03	5.033326E-04	2.441153E-05
6.964926E+03	5.022669E-04	2.446876E-05
6.974890E+03	5.012623E-04	2.452799E-05
6.984855E+03	5.003251E-04	2.458956E-05
6.994819E+03	4.994075E-04	2.465116E-05
7.004783E+03	4.985157E-04	2.471312E-05
7.014747E+03	4.976577E-04	2.477585E-05
7.024711E+03	4.967864E-04	2.483702E-05
7.034675E+03	4.959290E-04	2.489801E-05
7.044639E+03	4.950592E-04	2.495748E-05
7.054603E+03	4.941509E-04	2.501413E-05
7.064568E+03	4.932347E-04	2.506948E-05
7.074532E+03	4.922867E-04	2.512232E-05
7.084496E+03	4.912840E-04	2.517146E-05
7.094460E+03	4.902604E-04	2.521860E-05
7.104424E+03	4.891945E-04	2.526264E-05
7.114388E+03	4.880849E-04	2.530347E-05
7.124352E+03	4.869302E-04	2.534101E-05
7.134316E+03	4.857294E-04	2.537519E-05
7.144281E+03	4.844825E-04	2.540598E-05
7.154245E+03	4.831883E-04	2.543329E-05
7.164209E+03	4.818467E-04	2.545710E-05
7.174173E+03	4.804563E-04	2.547731E-05
7.184137E+03	4.790163E-04	2.549386E-05
7.194101E+03	4.775246E-04	2.550660E-05
7.204065E+03	4.759964E-04	2.551634E-05
7.214029E+03	4.743928E-04	2.552097E-05
7.223994E+03	4.727284E-04	2.552123E-05
7.233958E+03	4.710159E-04	2.551779E-05
7.243922E+03	4.692142E-04	2.550839E-05
7.253886E+03	4.673542E-04	2.549467E-05
7.263850E+03	4.653930E-04	2.547426E-05
7.273814E+03	4.633600E-04	2.544872E-05
7.283778E+03	4.612310E-04	2.541670E-05
7.293743E+03	4.589808E-04	2.537675E-05
7.303707E+03	4.566386E-04	2.533043E-05
7.313671E+03	4.541802E-04	2.527635E-05
7.323635E+03	4.515993E-04	2.521411E-05
7.333599E+03	4.488739E-04	2.514242E-05
7.343563E+03	4.460337E-04	2.506287E-05
7.353527E+03	4.430580E-04	2.497426E-05
7.363491E+03	4.399444E-04	2.487638E-05
7.373456E+03	4.366917E-04	2.476910E-05
7.383420E+03	4.332995E-04	2.465233E-05
7.393384E+03	4.297864E-04	2.452709E-05
7.403348E+03	4.261216E-04	2.439154E-05
7.413312E+03	4.223262E-04	2.424684E-05
7.423276E+03	4.184061E-04	2.409327E-05
7.433240E+03	4.143842E-04	2.393209E-05
7.443204E+03	4.102372E-04	2.376194E-05
7.453169E+03	4.060062E-04	2.358513E-05
7.463133E+03	4.016705E-04	2.340043E-05
7.473097E+03	3.972738E-04	2.321036E-05
7.483061E+03	3.927973E-04	2.301380E-05
7.493025E+03	3.882845E-04	2.281328E-05
7.502989E+03	3.837342E-04	2.260872E-05
7.512953E+03	3.791441E-04	2.239999E-05
7.522917E+03	3.745583E-04	2.218968E-05
7.532882E+03	3.699747E-04	2.197770E-05
7.542846E+03	3.654050E-04	2.176474E-05
7.552810E+03	3.608606E-04	2.155152E-05
7.562774E+03	3.563518E-04	2.133867E-05
7.572738E+03	3.518875E-04	2.112677E-05
7.582702E+03	3.474752E-04	2.091628E-05
7.592666E+03	3.431205E-04	2.070760E-05
7.602631E+03	3.388415E-04	2.050185E-05
7.612595E+03	3.346137E-04	2.029759E-05
7.622559E+03	3.304518E-04	2.009576E-05
7.632523E+03	3.263690E-04	1.989720E-05
7.642487E+03	3.223372E-04	1.970025E-05
7.652451E+03	3.183673E-04	1.950559E-05
7.662415E+03	3.144683E-04	1.931383E-05
7.672379E+03	3.106230E-04	1.912395E-05
7.682344E+03	3.068141E-04	1.893492E-05
7.692308E+03	3.030616E-04	1.874800E-05
7.702272E+03	2.993474E-04	1.856210E-05
7.712236E+03	2.956544E-04	1.837619E-05
7.722200E+03	2.920015E-04	1.819147E-05
7.732164E+03	2.883718E-04	1.800690E-05
