#wls	flux	fluxerr
1.594261E+03	2.773376E-04	1.801631E-05
1.634117E+03	2.655754E-04	1.716455E-05
1.673974E+03	2.517425E-04	1.618613E-05
1.713830E+03	2.360508E-04	1.509690E-05
1.753687E+03	2.188324E-04	1.392012E-05
1.793543E+03	2.004844E-04	1.268279E-05
1.833400E+03	1.814824E-04	1.141627E-05
1.873256E+03	1.623899E-04	1.015679E-05
1.913113E+03	1.437932E-04	8.941213E-06
1.952969E+03	1.262780E-04	7.805457E-06
1.992826E+03	1.103693E-04	6.780837E-06
2.032682E+03	9.651507E-05	5.893142E-06
2.072539E+03	8.502509E-05	5.159022E-06
2.112395E+03	7.602279E-05	4.583366E-06
2.152252E+03	6.980888E-05	4.181421E-06
2.192108E+03	6.640245E-05	3.951137E-06
2.231965E+03	6.579252E-05	3.888583E-06
2.271821E+03	6.811387E-05	3.998330E-06
2.311678E+03	7.325942E-05	4.270571E-06
2.351534E+03	8.094433E-05	4.685312E-06
2.391391E+03	9.107320E-05	5.233859E-06
2.431248E+03	1.037289E-04	5.917787E-06
2.471104E+03	1.191715E-04	6.748519E-06
2.510961E+03	1.378236E-04	7.746124E-06
2.550817E+03	1.602184E-04	8.936042E-06
2.590674E+03	1.867637E-04	1.033580E-05
2.630530E+03	2.168554E-04	1.190660E-05
2.670387E+03	2.506874E-04	1.365410E-05
2.710243E+03	2.889709E-04	1.561149E-05
2.750100E+03	3.315859E-04	1.776614E-05
2.789956E+03	3.779275E-04	2.007980E-05
2.829813E+03	4.270639E-04	2.249807E-05
2.869669E+03	4.778397E-04	2.495654E-05
2.909526E+03	5.289769E-04	2.738657E-05
2.949382E+03	5.791961E-04	2.972178E-05
2.989239E+03	6.273489E-04	3.190476E-05
2.999203E+03	6.389404E-04	3.242074E-05
3.009167E+03	6.503528E-04	3.292491E-05
3.019131E+03	6.615430E-04	3.341515E-05
3.029095E+03	6.725238E-04	3.389217E-05
3.039059E+03	6.833055E-04	3.435657E-05
3.049024E+03	6.939001E-04	3.480901E-05
3.058988E+03	7.043001E-04	3.524917E-05
3.068952E+03	7.144993E-04	3.567682E-05
3.078916E+03	7.244931E-04	3.609180E-05
3.088880E+03	7.342597E-04	3.649308E-05
3.098844E+03	7.438171E-04	3.688163E-05
3.108808E+03	7.531863E-04	3.725857E-05
3.118772E+03	7.623309E-04	3.762217E-05
3.128737E+03	7.712753E-04	3.797369E-05
3.138701E+03	7.800265E-04	3.831355E-05
3.148665E+03	7.885728E-04	3.864125E-05
3.158629E+03	7.969667E-04	3.895942E-05
3.168593E+03	8.052007E-04	3.926775E-05
3.178557E+03	8.132692E-04	3.956602E-05
3.188521E+03	8.212106E-04	3.985615E-05
3.198485E+03	8.290452E-04	4.013916E-05
3.208450E+03	8.367956E-04	4.041619E-05
3.218414E+03	8.444867E-04	4.068846E-05
3.228378E+03	8.521457E-04	4.095731E-05
3.238342E+03	8.598021E-04	4.122415E-05
3.248306E+03	8.674656E-04	4.148945E-05
3.258270E+03	8.752155E-04	4.175699E-05
3.268234E+03	8.830425E-04	4.202630E-05
3.278198E+03	8.910079E-04	4.230026E-05
3.288163E+03	8.991509E-04	4.258068E-05
3.298127E+03	9.075130E-04	4.286945E-05
3.308091E+03	9.161352E-04	4.316842E-05
3.318055E+03	9.250588E-04	4.347946E-05
3.328019E+03	9.342988E-04	4.380315E-05
3.337983E+03	9.439405E-04	4.414337E-05
3.347947E+03	9.539661E-04	4.449915E-05
3.357912E+03	9.644239E-04	4.487259E-05
3.367876E+03	9.753260E-04	4.526412E-05
3.377840E+03	9.866694E-04	4.567342E-05
3.387804E+03	9.984274E-04	4.609911E-05
3.397768E+03	1.010543E-03	4.653841E-05
3.407732E+03	1.022889E-03	4.698536E-05
3.417696E+03	1.035361E-03	4.743507E-05
3.427660E+03	1.047658E-03	4.787382E-05
3.437625E+03	1.059461E-03	4.828704E-05
3.447589E+03	1.070112E-03	4.864502E-05
3.457553E+03	1.078654E-03	4.890480E-05
3.467517E+03	1.084122E-03	4.902350E-05
3.477481E+03	1.087228E-03	4.903431E-05
3.487445E+03	1.088912E-03	4.898039E-05
3.497409E+03	1.089835E-03	4.889190E-05
3.507373E+03	1.090320E-03	4.878353E-05
3.517338E+03	1.090678E-03	4.866926E-05
3.527302E+03	1.091021E-03	4.855412E-05
3.537266E+03	1.091489E-03	4.844438E-05
3.547230E+03	1.092155E-03	4.834312E-05
3.557194E+03	1.093059E-03	4.825204E-05
3.567158E+03	1.094218E-03	4.817181E-05
3.577122E+03	1.095635E-03	4.810238E-05
3.587086E+03	1.097269E-03	4.804190E-05
3.597051E+03	1.099160E-03	4.799202E-05
3.607015E+03	1.101225E-03	4.794900E-05
3.616979E+03	1.103468E-03	4.791288E-05
3.626943E+03	1.105888E-03	4.788358E-05
3.636907E+03	1.108396E-03	4.785720E-05
3.646871E+03	1.110964E-03	4.783242E-05
3.656835E+03	1.113624E-03	4.781059E-05
3.666800E+03	1.116321E-03	4.778926E-05
3.676764E+03	1.119029E-03	4.776738E-05
3.686728E+03	1.121698E-03	4.774271E-05
3.696692E+03	1.124368E-03	4.771699E-05
3.706656E+03	1.126963E-03	4.768694E-05
3.716620E+03	1.129499E-03	4.765323E-05
3.726584E+03	1.131963E-03	4.761537E-05
3.736548E+03	1.134347E-03	4.757296E-05
3.746513E+03	1.136643E-03	4.752574E-05
3.756477E+03	1.138847E-03	4.747348E-05
3.766441E+03	1.140924E-03	4.741480E-05
3.776405E+03	1.142935E-03	4.735225E-05
3.786369E+03	1.144820E-03	4.728329E-05
3.796333E+03	1.146641E-03	4.721056E-05
3.806297E+03	1.148340E-03	4.713168E-05
3.816261E+03	1.149952E-03	4.704809E-05
3.826226E+03	1.151483E-03	4.696003E-05
3.836190E+03	1.152938E-03	4.686772E-05
3.846154E+03	1.154323E-03	4.677142E-05
3.856118E+03	1.155644E-03	4.667138E-05
3.866082E+03	1.156875E-03	4.656656E-05
3.876046E+03	1.158085E-03	4.645974E-05
3.886010E+03	1.159216E-03	4.634858E-05
3.895974E+03	1.160336E-03	4.623578E-05
3.905939E+03	1.161383E-03	4.611892E-05
3.915903E+03	1.162393E-03	4.599939E-05
3.925867E+03	1.163366E-03	4.587717E-05
3.935831E+03	1.164302E-03	4.575230E-05
3.945795E+03	1.165199E-03	4.562466E-05
3.955759E+03	1.166054E-03	4.549415E-05
3.965723E+03	1.166830E-03	4.535933E-05
3.975688E+03	1.167586E-03	4.522250E-05
3.985652E+03	1.168250E-03	4.508084E-05
3.995616E+03	1.168879E-03	4.493658E-05
4.005580E+03	1.169398E-03	4.478685E-05
4.015544E+03	1.169829E-03	4.463252E-05
4.025508E+03	1.170161E-03	4.447320E-05
4.035472E+03	1.170383E-03	4.430848E-05
4.045436E+03	1.170482E-03	4.413792E-05
4.055401E+03	1.170448E-03	4.396115E-05
4.065365E+03	1.170269E-03	4.377777E-05
4.075329E+03	1.169900E-03	4.358620E-05
4.085293E+03	1.169396E-03	4.338852E-05
4.095257E+03	1.168683E-03	4.318203E-05
4.105221E+03	1.167816E-03	4.296887E-05
4.115185E+03	1.166724E-03	4.274646E-05
4.125149E+03	1.165432E-03	4.251583E-05
4.135114E+03	1.163935E-03	4.227691E-05
4.145078E+03	1.162231E-03	4.202964E-05
4.155042E+03	1.160316E-03	4.177405E-05
4.165006E+03	1.158192E-03	4.151021E-05
4.174970E+03	1.155824E-03	4.123707E-05
4.184934E+03	1.153282E-03	4.095714E-05
4.194898E+03	1.150535E-03	4.066946E-05
4.204862E+03	1.147554E-03	4.037312E-05
4.214827E+03	1.144410E-03	4.007067E-05
4.224791E+03	1.141044E-03	3.976014E-05
4.234755E+03	1.137492E-03	3.944293E-05
4.244719E+03	1.133761E-03	3.911936E-05
4.254683E+03	1.129856E-03	3.878967E-05
4.264647E+03	1.125782E-03	3.845415E-05
4.274611E+03	1.121543E-03	3.811303E-05
4.284576E+03	1.117143E-03	3.776652E-05
4.294540E+03	1.112584E-03	3.741481E-05
4.304504E+03	1.107839E-03	3.705702E-05
4.314468E+03	1.102970E-03	3.669539E-05
4.324432E+03	1.097917E-03	3.632798E-05
4.334396E+03	1.092742E-03	3.595698E-05
4.344360E+03	1.087386E-03	3.558047E-05
4.354324E+03	1.081879E-03	3.519957E-05
4.364289E+03	1.076222E-03	3.481442E-05
4.374253E+03	1.070415E-03	3.442510E-05
4.384217E+03	1.064457E-03	3.403170E-05
4.394181E+03	1.058345E-03	3.363423E-05
4.404145E+03	1.052076E-03	3.323265E-05
4.414109E+03	1.045642E-03	3.282687E-05
4.424073E+03	1.039034E-03	3.241671E-05
4.434037E+03	1.032211E-03	3.200101E-05
4.444002E+03	1.025217E-03	3.158130E-05
4.453966E+03	1.017977E-03	3.115538E-05
4.463930E+03	1.010529E-03	3.072461E-05
4.473894E+03	1.002796E-03	3.028677E-05
4.483858E+03	9.947827E-04	2.984223E-05
4.493822E+03	9.864670E-04	2.939054E-05
4.503786E+03	9.778251E-04	2.893120E-05
4.513750E+03	9.688617E-04	2.846459E-05
4.523715E+03	9.594706E-04	2.798785E-05
4.533679E+03	9.497150E-04	2.750310E-05
4.543643E+03	9.395483E-04	2.700929E-05
4.553607E+03	9.289532E-04	2.650622E-05
4.563571E+03	9.179176E-04	2.599387E-05
4.573535E+03	9.064053E-04	2.547154E-05
4.583499E+03	8.944642E-04	2.494095E-05
4.593464E+03	8.820403E-04	2.440091E-05
4.603428E+03	8.691897E-04	2.385336E-05
4.613392E+03	8.558704E-04	2.329747E-05
4.623356E+03	8.421214E-04	2.273468E-05
4.633320E+03	8.279626E-04	2.216586E-05
4.643284E+03	8.134415E-04	2.159263E-05
4.653248E+03	7.985400E-04	2.101481E-05
4.663212E+03	7.833160E-04	2.043424E-05
4.673177E+03	7.678075E-04	1.985220E-05
4.683141E+03	7.520351E-04	1.926947E-05
4.693105E+03	7.360882E-04	1.868860E-05
4.703069E+03	7.199923E-04	1.811041E-05
4.713033E+03	7.037975E-04	1.753633E-05
4.722997E+03	6.875346E-04	1.696727E-05
4.732961E+03	6.712964E-04	1.640561E-05
4.742925E+03	6.550945E-04	1.585169E-05
4.752890E+03	6.390190E-04	1.530773E-05
4.762854E+03	6.230820E-04	1.477399E-05
4.772818E+03	6.073687E-04	1.425243E-05
4.782782E+03	5.918884E-04	1.374319E-05
4.792746E+03	5.767043E-04	1.324761E-05
4.802710E+03	5.618562E-04	1.276645E-05
4.812674E+03	5.473834E-04	1.230041E-05
4.822639E+03	5.333205E-04	1.185004E-05
4.832603E+03	5.197012E-04	1.141584E-05
4.842567E+03	5.065546E-04	1.099816E-05
4.852531E+03	4.939081E-04	1.059729E-05
4.862495E+03	4.817867E-04	1.021343E-05
4.872459E+03	4.702124E-04	9.846707E-06
4.882423E+03	4.591922E-04	9.496883E-06
4.892387E+03	4.487721E-04	9.164522E-06
4.902352E+03	4.389539E-04	8.849242E-06
4.912316E+03	4.297399E-04	8.550662E-06
4.922280E+03	4.211702E-04	8.269138E-06
4.932244E+03	4.132308E-04	8.003934E-06
4.942208E+03	4.059586E-04	7.755294E-06
4.952172E+03	3.993400E-04	7.522471E-06
4.962136E+03	3.933979E-04	7.305402E-06
4.972100E+03	3.881422E-04	7.103765E-06
4.982065E+03	3.835953E-04	6.917444E-06
4.992029E+03	3.797451E-04	6.745686E-06
5.001993E+03	3.766152E-04	6.588376E-06
5.011957E+03	3.742189E-04	6.445189E-06
5.021921E+03	3.725713E-04	6.315817E-06
5.031885E+03	3.716892E-04	6.199968E-06
5.041849E+03	3.715924E-04	6.097374E-06
5.051813E+03	3.723034E-04	6.007796E-06
5.061778E+03	3.738372E-04	5.930848E-06
5.071742E+03	3.762465E-04	5.866726E-06
5.081706E+03	3.795553E-04	5.815124E-06
5.091670E+03	3.838037E-04	5.775968E-06
5.101634E+03	3.890265E-04	5.749062E-06
5.111598E+03	3.953006E-04	5.734794E-06
5.121562E+03	4.026630E-04	5.732916E-06
5.131527E+03	4.112082E-04	5.743955E-06
5.141491E+03	4.209908E-04	5.767810E-06
5.151455E+03	4.321275E-04	5.805176E-06
5.161419E+03	4.446954E-04	5.856129E-06
5.171383E+03	4.588393E-04	5.921568E-06
5.181347E+03	4.746654E-04	6.001796E-06
5.191311E+03	4.923398E-04	6.097789E-06
5.201275E+03	5.120352E-04	6.210489E-06
5.211240E+03	5.339659E-04	6.341226E-06
5.221204E+03	5.583231E-04	6.490924E-06
5.231168E+03	5.853800E-04	6.661352E-06
5.241132E+03	6.154280E-04	6.854329E-06
5.251096E+03	6.488023E-04	7.072018E-06
5.261060E+03	6.858870E-04	7.316954E-06
5.271024E+03	7.271232E-04	7.592125E-06
5.280988E+03	7.730196E-04	7.901060E-06
5.290953E+03	8.241652E-04	8.247950E-06
5.300917E+03	8.812416E-04	8.637756E-06
5.310881E+03	9.450103E-04	9.076086E-06
5.320845E+03	1.016446E-03	9.570484E-06
5.330809E+03	1.096580E-03	1.012892E-05
5.340773E+03	1.186616E-03	1.076095E-05
5.350737E+03	1.287832E-03	1.147693E-05
5.360701E+03	1.401631E-03	1.228853E-05
5.370666E+03	1.528986E-03	1.320423E-05
5.380630E+03	1.669699E-03	1.422345E-05
5.390594E+03	1.820435E-03	1.532087E-05
5.400558E+03	1.969245E-03	1.640218E-05
5.410522E+03	2.086597E-03	1.723255E-05
5.420486E+03	2.138908E-03	1.755036E-05
5.430450E+03	2.145600E-03	1.752862E-05
5.440415E+03	2.132053E-03	1.738054E-05
5.450379E+03	2.108219E-03	1.718832E-05
5.460343E+03	2.072864E-03	1.694060E-05
5.470307E+03	2.015433E-03	1.654761E-05
5.480271E+03	1.929256E-03	1.594786E-05
5.490235E+03	1.830367E-03	1.526471E-05
5.500199E+03	1.731323E-03	1.459493E-05
5.510163E+03	1.637297E-03	1.397650E-05
5.520128E+03	1.550049E-03	1.342053E-05
5.530092E+03	1.469771E-03	1.292596E-05
5.540056E+03	1.396124E-03	1.248796E-05
5.550020E+03	1.328452E-03	1.209937E-05
5.559984E+03	1.266221E-03	1.175448E-05
5.569948E+03	1.208892E-03	1.144778E-05
5.579912E+03	1.155984E-03	1.117452E-05
5.589876E+03	1.107079E-03	1.093064E-05
5.599841E+03	1.061811E-03	1.071273E-05
5.609805E+03	1.019861E-03	1.051793E-05
5.619769E+03	9.809492E-04	1.034381E-05
5.629733E+03	9.448289E-04	1.018836E-05
5.639697E+03	9.112799E-04	1.004985E-05
5.649661E+03	8.801050E-04	9.926822E-06
5.659625E+03	8.511276E-04	9.818052E-06
5.669589E+03	8.241868E-04	9.722477E-06
5.679554E+03	7.991361E-04	9.639180E-06
5.689518E+03	7.758417E-04	9.567372E-06
5.699482E+03	7.541805E-04	9.506358E-06
5.709446E+03	7.340395E-04	9.455529E-06
5.719410E+03	7.153141E-04	9.414340E-06
5.729374E+03	6.979068E-04	9.382296E-06
5.739338E+03	6.817049E-04	9.358639E-06
5.749303E+03	6.666696E-04	9.343568E-06
5.759267E+03	6.527000E-04	9.336399E-06
5.769231E+03	6.397223E-04	9.336755E-06
5.779195E+03	6.276682E-04	9.344294E-06
5.789159E+03	6.164533E-04	9.358377E-06
5.799123E+03	6.060588E-04	9.379302E-06
5.809087E+03	5.964076E-04	9.406450E-06
5.819051E+03	5.874473E-04	9.439525E-06
5.829016E+03	5.791089E-04	9.477908E-06
5.838980E+03	5.713862E-04	9.521962E-06
5.848944E+03	5.642160E-04	9.571087E-06
5.858908E+03	5.575399E-04	9.624699E-06
5.868872E+03	5.513589E-04	9.683194E-06
5.878836E+03	5.456183E-04	9.745986E-06
5.888800E+03	5.402696E-04	9.812539E-06
5.898764E+03	5.353183E-04	9.883260E-06
5.908729E+03	5.307189E-04	9.957615E-06
5.918693E+03	5.264293E-04	1.003508E-05
5.928657E+03	5.224613E-04	1.011613E-05
5.938621E+03	5.187757E-04	1.020025E-05
5.948585E+03	5.153351E-04	1.028694E-05
5.958549E+03	5.121568E-04	1.037671E-05
5.968513E+03	5.092062E-04	1.046909E-05
5.978477E+03	5.064508E-04	1.056358E-05
5.988442E+03	5.039107E-04	1.066076E-05
5.998406E+03	5.015556E-04	1.076016E-05
6.008370E+03	4.993564E-04	1.086128E-05
6.018334E+03	4.973356E-04	1.096476E-05
6.028298E+03	4.954491E-04	1.106974E-05
6.038262E+03	4.937208E-04	1.117689E-05
6.048226E+03	4.921249E-04	1.128574E-05
6.058191E+03	4.906363E-04	1.139581E-05
6.068155E+03	4.892810E-04	1.150779E-05
6.078119E+03	4.880183E-04	1.162083E-05
6.088083E+03	4.868753E-04	1.173565E-05
6.098047E+03	4.858292E-04	1.185179E-05
6.108011E+03	4.848583E-04	1.196880E-05
6.117975E+03	4.839911E-04	1.208744E-05
6.127939E+03	4.831902E-04	1.220685E-05
6.137904E+03	4.824852E-04	1.232784E-05
6.147868E+03	4.818562E-04	1.244998E-05
6.157832E+03	4.812843E-04	1.257282E-05
6.167796E+03	4.808004E-04	1.269723E-05
6.177760E+03	4.803863E-04	1.282280E-05
6.187724E+03	4.800241E-04	1.294909E-05
6.197688E+03	4.797461E-04	1.307702E-05
6.207652E+03	4.795186E-04	1.320574E-05
6.217617E+03	4.793745E-04	1.333619E-05
6.227581E+03	4.792968E-04	1.346796E-05
6.237545E+03	4.792688E-04	1.360064E-05
6.247509E+03	4.793239E-04	1.373521E-05
6.257473E+03	4.794449E-04	1.387125E-05
6.267437E+03	4.796148E-04	1.400830E-05
6.277401E+03	4.798665E-04	1.414738E-05
6.287365E+03	4.801819E-04	1.428801E-05
6.297330E+03	4.805595E-04	1.443018E-05
6.307294E+03	4.809800E-04	1.457338E-05
6.317258E+03	4.814742E-04	1.471856E-05
6.327222E+03	4.820213E-04	1.486514E-05
6.337186E+03	4.825995E-04	1.501248E-05
6.347150E+03	4.832369E-04	1.516149E-05
6.357114E+03	4.839097E-04	1.531145E-05
6.367079E+03	4.846097E-04	1.546213E-05
6.377043E+03	4.853103E-04	1.561268E-05
6.387007E+03	4.860355E-04	1.576389E-05
6.396971E+03	4.867563E-04	1.591483E-05
6.406935E+03	4.874599E-04	1.606505E-05
6.416899E+03	4.881324E-04	1.621409E-05
6.426863E+03	4.887589E-04	1.636142E-05
6.436827E+03	4.893064E-04	1.650588E-05
6.446792E+03	4.897938E-04	1.664806E-05
6.456756E+03	4.901872E-04	1.678675E-05
6.466720E+03	4.904703E-04	1.692130E-05
6.476684E+03	4.906270E-04	1.705107E-05
6.486648E+03	4.906420E-04	1.717544E-05
6.496612E+03	4.905009E-04	1.729378E-05
6.506576E+03	4.901907E-04	1.740552E-05
6.516540E+03	4.897003E-04	1.751012E-05
6.526505E+03	4.890202E-04	1.760713E-05
6.536469E+03	4.881433E-04	1.769614E-05
6.546433E+03	4.870653E-04	1.777684E-05
6.556397E+03	4.857839E-04	1.784902E-05
6.566361E+03	4.843000E-04	1.791256E-05
6.576325E+03	4.826169E-04	1.796744E-05
6.586289E+03	4.807407E-04	1.801374E-05
6.596253E+03	4.786798E-04	1.805166E-05
6.606218E+03	4.764451E-04	1.808148E-05
6.616182E+03	4.740494E-04	1.810356E-05
6.626146E+03	4.715246E-04	1.811904E-05
6.636110E+03	4.688521E-04	1.812710E-05
6.646074E+03	4.660664E-04	1.812899E-05
6.656038E+03	4.631854E-04	1.812535E-05
6.666002E+03	4.602274E-04	1.811684E-05
6.675967E+03	4.572279E-04	1.810481E-05
6.685931E+03	4.541714E-04	1.808863E-05
6.695895E+03	4.510926E-04	1.806967E-05
6.705859E+03	4.480255E-04	1.804929E-05
6.715823E+03	4.449533E-04	1.802682E-05
6.725787E+03	4.419080E-04	1.800358E-05
6.735751E+03	4.389206E-04	1.798086E-05
6.745715E+03	4.359715E-04	1.795792E-05
6.755680E+03	4.331053E-04	1.793662E-05
6.765644E+03	4.303003E-04	1.791613E-05
6.775608E+03	4.275824E-04	1.789760E-05
6.785572E+03	4.249755E-04	1.788208E-05
6.795536E+03	4.224706E-04	1.786929E-05
6.805500E+03	4.200576E-04	1.785886E-05
6.815464E+03	4.177724E-04	1.785241E-05
6.825428E+03	4.155866E-04	1.784880E-05
6.835393E+03	4.135337E-04	1.784955E-05
6.845357E+03	4.115987E-04	1.785410E-05
6.855321E+03	4.097656E-04	1.786184E-05
6.865285E+03	4.080640E-04	1.787414E-05
6.875249E+03	4.064758E-04	1.789029E-05
6.885213E+03	4.049820E-04	1.790953E-05
6.895177E+03	4.036090E-04	1.793309E-05
6.905141E+03	4.023359E-04	1.796013E-05
6.915106E+03	4.011565E-04	1.799043E-05
6.925070E+03	4.000641E-04	1.802375E-05
6.935034E+03	3.990510E-04	1.805981E-05
6.944998E+03	3.981095E-04	1.809831E-05
6.954962E+03	3.972311E-04	1.813890E-05
6.964926E+03	3.964075E-04	1.818125E-05
6.974890E+03	3.956298E-04	1.822498E-05
6.984855E+03	3.948895E-04	1.826974E-05
6.994819E+03	3.941780E-04	1.831514E-05
7.004783E+03	3.934871E-04	1.836083E-05
7.014747E+03	3.928088E-04	1.840645E-05
7.024711E+03	3.921357E-04	1.845165E-05
7.034675E+03	3.914610E-04	1.849613E-05
7.044639E+03	3.907782E-04	1.853958E-05
7.054603E+03	3.900969E-04	1.858245E-05
7.064568E+03	3.893818E-04	1.862306E-05
7.074532E+03	3.886439E-04	1.866193E-05
7.084496E+03	3.878948E-04	1.869958E-05
7.094460E+03	3.871011E-04	1.873443E-05
7.104424E+03	3.862756E-04	1.876706E-05
7.114388E+03	3.854317E-04	1.879810E-05
7.124352E+03	3.845375E-04	1.882601E-05
7.134316E+03	3.836221E-04	1.885216E-05
7.144281E+03	3.826544E-04	1.887503E-05
7.154245E+03	3.816633E-04	1.889603E-05
7.164209E+03	3.806180E-04	1.891361E-05
7.174173E+03	3.795470E-04	1.892917E-05
7.184137E+03	3.784342E-04	1.894189E-05
7.194101E+03	3.772626E-04	1.895091E-05
7.204065E+03	3.760602E-04	1.895759E-05
7.214029E+03	3.748092E-04	1.896104E-05
7.223994E+03	3.735067E-04	1.896109E-05
7.233958E+03	3.721492E-04	1.895753E-05
7.243922E+03	3.707181E-04	1.894939E-05
7.253886E+03	3.692388E-04	1.893793E-05
7.263850E+03	3.676919E-04	1.892215E-05
7.273814E+03	3.660728E-04	1.890177E-05
7.283778E+03	3.643766E-04	1.887651E-05
7.293743E+03	3.625986E-04	1.884609E-05
7.303707E+03	3.607341E-04	1.881023E-05
7.313671E+03	3.587932E-04	1.876942E-05
7.323635E+03	3.567428E-04	1.872189E-05
7.333599E+03	3.545940E-04	1.866817E-05
7.343563E+03	3.523437E-04	1.860807E-05
7.353527E+03	3.499897E-04	1.854141E-05
7.363491E+03	3.475446E-04	1.846884E-05
7.373456E+03	3.449796E-04	1.838876E-05
7.383420E+03	3.423091E-04	1.830191E-05
7.393384E+03	3.395484E-04	1.820906E-05
7.403348E+03	3.366721E-04	1.810881E-05
7.413312E+03	3.337110E-04	1.800278E-05
7.423276E+03	3.306422E-04	1.788969E-05
7.433240E+03	3.274984E-04	1.777127E-05
7.443204E+03	3.242590E-04	1.764638E-05
7.453169E+03	3.209577E-04	1.751682E-05
7.463133E+03	3.175893E-04	1.738229E-05
7.473097E+03	3.141623E-04	1.724323E-05
7.483061E+03	3.106732E-04	1.709944E-05
7.493025E+03	3.071573E-04	1.695283E-05
7.502989E+03	3.036113E-04	1.680323E-05
7.512953E+03	3.000450E-04	1.665119E-05
7.522917E+03	2.964681E-04	1.649723E-05
7.532882E+03	2.928900E-04	1.634188E-05
7.542846E+03	2.893194E-04	1.618565E-05
7.552810E+03	2.857645E-04	1.602900E-05
7.562774E+03	2.822327E-04	1.587237E-05
7.572738E+03	2.787305E-04	1.571615E-05
7.582702E+03	2.752634E-04	1.556066E-05
7.592666E+03	2.718356E-04	1.540618E-05
7.602631E+03	2.684507E-04	1.525293E-05
7.612595E+03	2.651220E-04	1.510169E-05
7.622559E+03	2.618282E-04	1.495129E-05
7.632523E+03	2.585808E-04	1.480240E-05
7.642487E+03	2.553900E-04	1.465564E-05
7.652451E+03	2.522325E-04	1.450971E-05
7.662415E+03	2.491276E-04	1.436573E-05
7.672379E+03	2.460514E-04	1.422235E-05
7.682344E+03	2.430219E-04	1.408064E-05
7.692308E+03	2.400250E-04	1.393981E-05
7.702272E+03	2.370472E-04	1.379909E-05
7.712236E+03	2.341054E-04	1.365948E-05
7.722200E+03	2.311858E-04	1.352020E-05
7.732164E+03	2.282754E-04	1.338050E-05
