#wls	flux	fluxerr
1.594261E+03	2.841342E-02	7.627536E-04
1.634117E+03	2.783590E-02	7.275037E-04
1.673974E+03	2.722192E-02	6.922860E-04
1.713830E+03	2.661645E-02	6.583303E-04
1.753687E+03	2.607643E-02	6.270288E-04
1.793543E+03	2.566465E-02	5.997571E-04
1.833400E+03	2.544872E-02	5.778391E-04
1.873256E+03	2.548844E-02	5.622650E-04
1.913113E+03	2.581723E-02	5.533333E-04
1.952969E+03	2.641805E-02	5.502490E-04
1.992826E+03	2.720626E-02	5.509388E-04
2.032682E+03	2.804371E-02	5.525190E-04
2.072539E+03	2.882604E-02	5.530888E-04
2.112395E+03	2.956559E-02	5.531554E-04
2.152252E+03	3.030705E-02	5.537587E-04
2.192108E+03	3.108343E-02	5.556038E-04
2.231965E+03	3.180714E-02	5.572318E-04
2.271821E+03	3.228079E-02	5.554107E-04
2.311678E+03	3.248172E-02	5.500250E-04
2.351534E+03	3.256086E-02	5.437706E-04
2.391391E+03	3.266449E-02	5.390795E-04
2.431248E+03	3.288887E-02	5.374435E-04
2.471104E+03	3.327423E-02	5.394016E-04
2.510961E+03	3.381096E-02	5.446963E-04
2.550817E+03	3.442838E-02	5.521222E-04
2.590674E+03	3.499414E-02	5.595260E-04
2.630530E+03	3.540943E-02	5.653076E-04
2.670387E+03	3.563348E-02	5.687245E-04
2.710243E+03	3.573040E-02	5.706558E-04
2.750100E+03	3.582639E-02	5.729692E-04
2.789956E+03	3.600512E-02	5.768689E-04
2.829813E+03	3.628575E-02	5.825467E-04
2.869669E+03	3.663455E-02	5.893600E-04
2.909526E+03	3.699518E-02	5.963102E-04
2.949382E+03	3.732437E-02	6.026145E-04
2.989239E+03	3.761430E-02	6.080723E-04
2.999203E+03	3.768336E-02	6.093411E-04
3.009167E+03	3.775269E-02	6.105965E-04
3.019131E+03	3.782272E-02	6.118448E-04
3.029095E+03	3.789455E-02	6.131031E-04
3.039059E+03	3.797003E-02	6.144007E-04
3.049024E+03	3.805086E-02	6.157648E-04
3.058988E+03	3.813729E-02	6.171987E-04
3.068952E+03	3.822985E-02	6.187109E-04
3.078916E+03	3.832891E-02	6.203066E-04
3.088880E+03	3.843452E-02	6.219866E-04
3.098844E+03	3.854703E-02	6.237559E-04
3.108808E+03	3.866650E-02	6.256155E-04
3.118772E+03	3.879291E-02	6.275644E-04
3.128737E+03	3.892590E-02	6.295969E-04
3.138701E+03	3.906542E-02	6.317117E-04
3.148665E+03	3.921107E-02	6.339022E-04
3.158629E+03	3.936214E-02	6.361570E-04
3.168593E+03	3.951838E-02	6.384718E-04
3.178557E+03	3.967870E-02	6.408289E-04
3.188521E+03	3.984234E-02	6.432162E-04
3.198485E+03	4.000850E-02	6.456206E-04
3.208450E+03	4.017567E-02	6.480181E-04
3.218414E+03	4.034277E-02	6.503912E-04
3.228378E+03	4.050815E-02	6.527140E-04
3.238342E+03	4.067059E-02	6.549672E-04
3.248306E+03	4.082818E-02	6.571202E-04
3.258270E+03	4.097905E-02	6.591438E-04
3.268234E+03	4.112110E-02	6.610049E-04
3.278198E+03	4.125211E-02	6.626688E-04
3.288163E+03	4.136971E-02	6.640982E-04
3.298127E+03	4.147138E-02	6.652542E-04
3.308091E+03	4.155443E-02	6.660949E-04
3.318055E+03	4.161627E-02	6.665805E-04
3.328019E+03	4.165394E-02	6.666649E-04
3.337983E+03	4.166443E-02	6.663024E-04
3.347947E+03	4.164542E-02	6.654575E-04
3.357912E+03	4.159433E-02	6.640918E-04
3.367876E+03	4.150864E-02	6.621672E-04
3.377840E+03	4.138704E-02	6.596655E-04
3.387804E+03	4.122832E-02	6.565701E-04
3.397768E+03	4.103238E-02	6.528823E-04
3.407732E+03	4.080050E-02	6.486253E-04
3.417696E+03	4.053497E-02	6.438380E-04
3.427660E+03	4.024011E-02	6.385921E-04
3.437625E+03	3.992175E-02	6.329821E-04
3.447589E+03	3.958756E-02	6.271318E-04
3.457553E+03	3.924628E-02	6.211805E-04
3.467517E+03	3.890523E-02	6.152433E-04
3.477481E+03	3.856823E-02	6.093797E-04
3.487445E+03	3.823813E-02	6.036333E-04
3.497409E+03	3.791692E-02	5.980346E-04
3.507373E+03	3.760761E-02	5.926296E-04
3.517338E+03	3.731312E-02	5.874634E-04
3.527302E+03	3.703657E-02	5.825833E-04
3.537266E+03	3.678046E-02	5.780276E-04
3.547230E+03	3.654640E-02	5.738196E-04
3.557194E+03	3.633556E-02	5.699765E-04
3.567158E+03	3.614807E-02	5.664986E-04
3.577122E+03	3.598323E-02	5.633733E-04
3.587086E+03	3.584015E-02	5.605853E-04
3.597051E+03	3.571679E-02	5.581011E-04
3.607015E+03	3.561131E-02	5.558909E-04
3.616979E+03	3.552159E-02	5.539201E-04
3.626943E+03	3.544538E-02	5.521525E-04
3.636907E+03	3.538058E-02	5.505547E-04
3.646871E+03	3.532505E-02	5.490924E-04
3.656835E+03	3.527736E-02	5.477426E-04
3.666800E+03	3.523577E-02	5.464779E-04
3.676764E+03	3.519897E-02	5.452771E-04
3.686728E+03	3.516576E-02	5.441215E-04
3.696692E+03	3.513516E-02	5.429956E-04
3.706656E+03	3.510629E-02	5.418854E-04
3.716620E+03	3.507831E-02	5.407781E-04
3.726584E+03	3.505063E-02	5.396644E-04
3.736548E+03	3.502228E-02	5.385296E-04
3.746513E+03	3.499244E-02	5.373610E-04
3.756477E+03	3.496023E-02	5.361455E-04
3.766441E+03	3.492486E-02	5.348714E-04
3.776405E+03	3.488501E-02	5.335191E-04
3.786369E+03	3.484020E-02	5.320815E-04
3.796333E+03	3.478890E-02	5.305364E-04
3.806297E+03	3.473059E-02	5.288766E-04
3.816261E+03	3.466454E-02	5.270917E-04
3.826226E+03	3.459010E-02	5.251731E-04
3.836190E+03	3.450702E-02	5.231183E-04
3.846154E+03	3.441565E-02	5.209338E-04
3.856118E+03	3.431651E-02	5.186286E-04
3.866082E+03	3.421028E-02	5.162145E-04
3.876046E+03	3.409836E-02	5.137138E-04
3.886010E+03	3.398210E-02	5.111480E-04
3.895974E+03	3.386349E-02	5.085484E-04
3.905939E+03	3.374386E-02	5.059359E-04
3.915903E+03	3.362554E-02	5.033465E-04
3.925867E+03	3.351002E-02	5.008034E-04
3.935831E+03	3.339912E-02	4.983349E-04
3.945795E+03	3.329437E-02	4.959641E-04
3.955759E+03	3.319702E-02	4.937107E-04
3.965723E+03	3.310806E-02	4.915899E-04
3.975688E+03	3.302801E-02	4.896100E-04
3.985652E+03	3.295747E-02	4.877807E-04
3.995616E+03	3.289598E-02	4.860958E-04
4.005580E+03	3.284335E-02	4.845530E-04
4.015544E+03	3.279818E-02	4.831328E-04
4.025508E+03	3.275940E-02	4.818202E-04
4.035472E+03	3.272481E-02	4.805842E-04
4.045436E+03	3.269272E-02	4.794010E-04
4.055401E+03	3.266074E-02	4.782374E-04
4.065365E+03	3.262675E-02	4.770639E-04
4.075329E+03	3.258893E-02	4.758554E-04
4.085293E+03	3.254599E-02	4.745955E-04
4.095257E+03	3.249681E-02	4.732697E-04
4.105221E+03	3.244160E-02	4.718830E-04
4.115185E+03	3.238093E-02	4.704461E-04
4.125149E+03	3.231567E-02	4.689734E-04
4.135114E+03	3.224799E-02	4.674983E-04
4.145078E+03	3.217923E-02	4.660421E-04
4.155042E+03	3.211154E-02	4.646377E-04
4.165006E+03	3.204606E-02	4.633035E-04
4.174970E+03	3.198361E-02	4.620528E-04
4.184934E+03	3.192365E-02	4.608796E-04
4.194898E+03	3.186416E-02	4.597563E-04
4.204862E+03	3.180160E-02	4.586337E-04
4.214827E+03	3.173106E-02	4.574428E-04
4.224791E+03	3.164500E-02	4.560768E-04
4.234755E+03	3.153446E-02	4.544084E-04
4.244719E+03	3.138896E-02	4.522881E-04
4.254683E+03	3.119667E-02	4.495465E-04
4.264647E+03	3.094499E-02	4.460031E-04
4.274611E+03	3.062143E-02	4.414779E-04
4.284576E+03	3.021436E-02	4.358019E-04
4.294540E+03	2.971463E-02	4.288404E-04
4.304504E+03	2.911638E-02	4.205031E-04
4.314468E+03	2.841833E-02	4.107636E-04
4.324432E+03	2.762534E-02	3.996832E-04
4.334396E+03	2.675028E-02	3.874385E-04
4.344360E+03	2.581625E-02	3.743547E-04
4.354324E+03	2.485869E-02	3.609371E-04
4.364289E+03	2.392149E-02	3.478164E-04
4.374253E+03	2.304500E-02	3.355757E-04
4.384217E+03	2.225409E-02	3.245767E-04
4.394181E+03	2.155788E-02	3.149536E-04
4.404145E+03	2.095516E-02	3.066919E-04
4.414109E+03	2.043943E-02	2.996996E-04
4.424073E+03	2.000220E-02	2.938562E-04
4.434037E+03	1.963437E-02	2.890316E-04
4.444002E+03	1.932725E-02	2.851016E-04
4.453966E+03	1.907258E-02	2.819471E-04
4.463930E+03	1.886323E-02	2.794661E-04
4.473894E+03	1.869285E-02	2.775667E-04
4.483858E+03	1.855619E-02	2.761733E-04
4.493822E+03	1.844897E-02	2.752244E-04
4.503786E+03	1.836750E-02	2.746664E-04
4.513750E+03	1.830899E-02	2.744592E-04
4.523715E+03	1.827103E-02	2.745679E-04
4.533679E+03	1.825147E-02	2.749617E-04
4.543643E+03	1.824856E-02	2.756151E-04
4.553607E+03	1.826101E-02	2.765099E-04
4.563571E+03	1.828723E-02	2.776226E-04
4.573535E+03	1.832612E-02	2.789374E-04
4.583499E+03	1.837666E-02	2.804397E-04
4.593464E+03	1.843800E-02	2.821170E-04
4.603428E+03	1.850939E-02	2.839586E-04
4.613392E+03	1.859079E-02	2.859643E-04
4.623356E+03	1.868208E-02	2.881328E-04
4.633320E+03	1.878346E-02	2.904680E-04
4.643284E+03	1.889589E-02	2.929854E-04
4.653248E+03	1.902024E-02	2.956994E-04
4.663212E+03	1.915788E-02	2.986323E-04
4.673177E+03	1.931040E-02	3.018101E-04
4.683141E+03	1.947964E-02	3.052630E-04
4.693105E+03	1.966727E-02	3.090188E-04
4.703069E+03	1.987493E-02	3.131052E-04
4.713033E+03	2.010391E-02	3.175448E-04
4.722997E+03	2.035511E-02	3.223538E-04
4.732961E+03	2.062822E-02	3.275301E-04
4.742925E+03	2.092220E-02	3.330591E-04
4.752890E+03	2.123428E-02	3.388987E-04
4.762854E+03	2.156045E-02	3.449870E-04
4.772818E+03	2.189486E-02	3.512315E-04
4.782782E+03	2.222993E-02	3.575107E-04
4.792746E+03	2.255676E-02	3.636812E-04
4.802710E+03	2.286577E-02	3.695866E-04
4.812674E+03	2.314626E-02	3.750515E-04
4.822639E+03	2.338823E-02	3.799095E-04
4.832603E+03	2.358253E-02	3.840074E-04
4.842567E+03	2.372155E-02	3.872146E-04
4.852531E+03	2.380059E-02	3.894483E-04
4.862495E+03	2.381702E-02	3.906578E-04
4.872459E+03	2.377169E-02	3.908499E-04
4.882423E+03	2.366810E-02	3.900754E-04
4.892387E+03	2.351214E-02	3.884249E-04
4.902352E+03	2.331151E-02	3.860203E-04
4.912316E+03	2.307516E-02	3.830050E-04
4.922280E+03	2.281184E-02	3.795209E-04
4.932244E+03	2.253050E-02	3.757146E-04
4.942208E+03	2.223920E-02	3.717192E-04
4.952172E+03	2.194431E-02	3.676406E-04
4.962136E+03	2.165144E-02	3.635733E-04
4.972100E+03	2.136433E-02	3.595806E-04
4.982065E+03	2.108559E-02	3.557080E-04
4.992029E+03	2.081690E-02	3.519853E-04
5.001993E+03	2.055887E-02	3.484243E-04
5.011957E+03	2.031166E-02	3.450300E-04
5.021921E+03	2.007525E-02	3.418031E-04
5.031885E+03	1.984967E-02	3.387464E-04
5.041849E+03	1.963474E-02	3.358586E-04
5.051813E+03	1.943069E-02	3.331452E-04
5.061778E+03	1.923811E-02	3.306183E-04
5.071742E+03	1.905753E-02	3.282887E-04
5.081706E+03	1.888997E-02	3.261764E-04
5.091670E+03	1.873626E-02	3.242976E-04
5.101634E+03	1.859751E-02	3.226740E-04
5.111598E+03	1.847441E-02	3.213199E-04
5.121562E+03	1.836759E-02	3.202489E-04
5.131527E+03	1.827753E-02	3.194722E-04
5.141491E+03	1.820418E-02	3.189916E-04
5.151455E+03	1.814692E-02	3.187993E-04
5.161419E+03	1.810505E-02	3.188856E-04
5.171383E+03	1.807713E-02	3.192280E-04
5.181347E+03	1.806171E-02	3.198036E-04
5.191311E+03	1.805687E-02	3.205808E-04
5.201275E+03	1.806030E-02	3.215210E-04
5.211240E+03	1.806987E-02	3.225881E-04
5.221204E+03	1.808298E-02	3.237375E-04
5.231168E+03	1.809732E-02	3.249291E-04
5.241132E+03	1.811035E-02	3.261184E-04
5.251096E+03	1.811934E-02	3.272567E-04
5.261060E+03	1.812183E-02	3.283000E-04
5.271024E+03	1.811512E-02	3.291989E-04
5.280988E+03	1.809626E-02	3.298988E-04
5.290953E+03	1.806263E-02	3.303510E-04
5.300917E+03	1.801065E-02	3.304876E-04
5.310881E+03	1.793757E-02	3.302554E-04
5.320845E+03	1.783966E-02	3.295823E-04
5.330809E+03	1.771362E-02	3.284027E-04
5.340773E+03	1.755600E-02	3.266473E-04
5.350737E+03	1.736339E-02	3.242462E-04
5.360701E+03	1.713314E-02	3.211424E-04
5.370666E+03	1.686318E-02	3.172890E-04
5.380630E+03	1.655259E-02	3.126593E-04
5.390594E+03	1.620194E-02	3.072535E-04
5.400558E+03	1.581452E-02	3.011229E-04
5.410522E+03	1.539596E-02	2.943642E-04
5.420486E+03	1.495720E-02	2.871773E-04
5.430450E+03	1.451288E-02	2.798367E-04
5.440415E+03	1.408050E-02	2.726775E-04
5.450379E+03	1.367646E-02	2.660188E-04
5.460343E+03	1.331576E-02	2.601584E-04
5.470307E+03	1.300889E-02	2.553115E-04
5.480271E+03	1.276142E-02	2.516001E-04
5.490235E+03	1.257240E-02	2.490199E-04
5.500199E+03	1.243782E-02	2.475058E-04
5.510163E+03	1.235131E-02	2.469442E-04
5.520128E+03	1.230627E-02	2.472157E-04
5.530092E+03	1.229595E-02	2.481951E-04
5.540056E+03	1.231387E-02	2.497601E-04
5.550020E+03	1.235380E-02	2.517922E-04
5.559984E+03	1.241035E-02	2.541867E-04
5.569948E+03	1.247844E-02	2.568440E-04
5.579912E+03	1.255405E-02	2.596841E-04
5.589876E+03	1.263327E-02	2.626278E-04
5.599841E+03	1.271312E-02	2.656137E-04
5.609805E+03	1.279151E-02	2.685980E-04
5.619769E+03	1.286639E-02	2.715367E-04
5.629733E+03	1.293664E-02	2.744047E-04
5.639697E+03	1.300134E-02	2.771804E-04
5.649661E+03	1.306022E-02	2.798561E-04
5.659625E+03	1.311305E-02	2.824248E-04
5.669589E+03	1.316029E-02	2.848939E-04
5.679554E+03	1.320183E-02	2.872588E-04
5.689518E+03	1.323855E-02	2.895367E-04
5.699482E+03	1.327062E-02	2.917294E-04
5.709446E+03	1.329850E-02	2.938451E-04
5.719410E+03	1.332289E-02	2.958974E-04
5.729374E+03	1.334358E-02	2.978803E-04
5.739338E+03	1.336116E-02	2.998052E-04
5.749303E+03	1.337508E-02	3.016585E-04
5.759267E+03	1.338554E-02	3.034431E-04
5.769231E+03	1.339178E-02	3.051398E-04
5.779195E+03	1.339314E-02	3.067322E-04
5.789159E+03	1.338904E-02	3.082043E-04
5.799123E+03	1.337845E-02	3.095306E-04
5.809087E+03	1.336071E-02	3.106925E-04
5.819051E+03	1.333487E-02	3.116655E-04
5.829016E+03	1.330048E-02	3.124358E-04
5.838980E+03	1.325702E-02	3.129874E-04
5.848944E+03	1.320456E-02	3.133184E-04
5.858908E+03	1.314316E-02	3.134272E-04
5.868872E+03	1.307339E-02	3.133235E-04
5.878836E+03	1.299627E-02	3.130287E-04
5.888800E+03	1.291290E-02	3.125663E-04
5.898764E+03	1.282421E-02	3.119570E-04
5.908729E+03	1.273192E-02	3.112399E-04
5.918693E+03	1.263722E-02	3.104432E-04
5.928657E+03	1.254160E-02	3.096024E-04
5.938621E+03	1.244608E-02	3.087422E-04
5.948585E+03	1.235169E-02	3.078882E-04
5.958549E+03	1.225943E-02	3.070654E-04
5.968513E+03	1.216977E-02	3.062866E-04
5.978477E+03	1.208318E-02	3.055640E-04
5.988442E+03	1.199994E-02	3.049061E-04
5.998406E+03	1.192037E-02	3.043219E-04
6.008370E+03	1.184435E-02	3.038094E-04
6.018334E+03	1.177182E-02	3.033682E-04
6.028298E+03	1.170281E-02	3.030006E-04
6.038262E+03	1.163684E-02	3.026947E-04
6.048226E+03	1.157400E-02	3.024542E-04
6.058191E+03	1.151389E-02	3.022696E-04
6.068155E+03	1.145623E-02	3.021344E-04
6.078119E+03	1.140072E-02	3.020416E-04
6.088083E+03	1.134722E-02	3.019877E-04
6.098047E+03	1.129507E-02	3.019561E-04
6.108011E+03	1.124425E-02	3.019467E-04
6.117975E+03	1.119428E-02	3.019465E-04
6.127939E+03	1.114482E-02	3.019470E-04
6.137904E+03	1.109556E-02	3.019399E-04
6.147868E+03	1.104623E-02	3.019175E-04
6.157832E+03	1.099657E-02	3.018731E-04
6.167796E+03	1.094639E-02	3.018010E-04
6.177760E+03	1.089554E-02	3.016965E-04
6.187724E+03	1.084405E-02	3.015608E-04
6.197688E+03	1.079153E-02	3.013824E-04
6.207652E+03	1.073809E-02	3.011643E-04
6.217617E+03	1.068372E-02	3.009055E-04
6.227581E+03	1.062856E-02	3.006098E-04
6.237545E+03	1.057229E-02	3.002678E-04
6.247509E+03	1.051505E-02	2.998834E-04
6.257473E+03	1.045684E-02	2.994558E-04
6.267437E+03	1.039765E-02	2.989846E-04
6.277401E+03	1.033748E-02	2.984695E-04
6.287365E+03	1.027637E-02	2.979112E-04
6.297330E+03	1.021439E-02	2.973115E-04
6.307294E+03	1.015152E-02	2.966698E-04
6.317258E+03	1.008831E-02	2.960017E-04
6.327222E+03	1.002480E-02	2.953079E-04
6.337186E+03	9.961582E-03	2.946067E-04
6.347150E+03	9.899274E-03	2.939161E-04
6.357114E+03	9.838611E-03	2.932583E-04
6.367079E+03	9.780474E-03	2.926604E-04
6.377043E+03	9.725869E-03	2.921534E-04
6.387007E+03	9.675760E-03	2.917675E-04
6.396971E+03	9.631504E-03	2.915453E-04
6.406935E+03	9.594341E-03	2.915263E-04
6.416899E+03	9.565523E-03	2.917513E-04
6.426863E+03	9.546088E-03	2.922547E-04
6.436827E+03	9.537290E-03	2.930782E-04
6.446792E+03	9.540065E-03	2.942544E-04
6.456756E+03	9.554963E-03	2.958040E-04
6.466720E+03	9.582715E-03	2.977539E-04
6.476684E+03	9.623030E-03	3.000993E-04
6.486648E+03	9.675446E-03	3.028298E-04
6.496612E+03	9.739170E-03	3.059246E-04
6.506576E+03	9.811879E-03	3.093141E-04
6.516540E+03	9.890456E-03	3.129026E-04
6.526505E+03	9.971082E-03	3.165707E-04
6.536469E+03	1.004866E-02	3.201564E-04
6.546433E+03	1.011833E-02	3.235035E-04
6.556397E+03	1.017582E-02	3.264719E-04
6.566361E+03	1.021742E-02	3.289377E-04
6.576325E+03	1.024039E-02	3.308076E-04
6.586289E+03	1.024281E-02	3.320127E-04
6.596253E+03	1.022482E-02	3.325510E-04
6.606218E+03	1.018677E-02	3.324266E-04
6.616182E+03	1.013047E-02	3.316931E-04
6.626146E+03	1.005813E-02	3.304160E-04
6.636110E+03	9.972744E-03	3.286898E-04
6.646074E+03	9.877211E-03	3.266056E-04
6.656038E+03	9.774609E-03	3.242624E-04
6.666002E+03	9.668209E-03	3.217670E-04
6.675967E+03	9.560105E-03	3.191881E-04
6.685931E+03	9.453077E-03	3.166183E-04
6.695895E+03	9.348442E-03	3.141023E-04
6.705859E+03	9.247972E-03	3.117007E-04
6.715823E+03	9.152703E-03	3.094500E-04
6.725787E+03	9.063145E-03	3.073692E-04
6.735751E+03	8.979849E-03	3.054789E-04
6.745715E+03	8.902623E-03	3.037745E-04
6.755680E+03	8.831932E-03	3.022739E-04
6.765644E+03	8.767107E-03	3.009564E-04
6.775608E+03	8.708409E-03	2.998326E-04
6.785572E+03	8.655059E-03	2.988778E-04
6.795536E+03	8.607110E-03	2.980953E-04
6.805500E+03	8.564123E-03	2.974717E-04
6.815464E+03	8.526022E-03	2.970058E-04
6.825428E+03	8.492408E-03	2.966852E-04
6.835393E+03	8.463059E-03	2.965035E-04
6.845357E+03	8.437913E-03	2.964598E-04
6.855321E+03	8.416543E-03	2.965404E-04
6.865285E+03	8.398649E-03	2.967359E-04
6.875249E+03	8.383873E-03	2.970345E-04
6.885213E+03	8.371948E-03	2.974277E-04
6.895177E+03	8.362211E-03	2.978928E-04
6.905141E+03	8.354255E-03	2.984159E-04
6.915106E+03	8.347275E-03	2.989686E-04
6.925070E+03	8.340407E-03	2.995202E-04
6.935034E+03	8.333435E-03	3.000630E-04
6.944998E+03	8.325096E-03	3.005514E-04
6.954962E+03	8.314982E-03	3.009702E-04
6.964926E+03	8.302185E-03	3.012861E-04
6.974890E+03	8.286024E-03	3.014734E-04
6.984855E+03	8.265878E-03	3.015087E-04
6.994819E+03	8.241401E-03	3.013782E-04
7.004783E+03	8.212023E-03	3.010599E-04
7.014747E+03	8.177497E-03	3.005433E-04
7.024711E+03	8.137739E-03	2.998241E-04
7.034675E+03	8.092850E-03	2.989046E-04
7.044639E+03	8.043286E-03	2.978004E-04
7.054603E+03	7.989165E-03	2.965146E-04
7.064568E+03	7.931454E-03	2.950822E-04
7.074532E+03	7.870736E-03	2.935239E-04
7.084496E+03	7.807862E-03	2.918709E-04
7.094460E+03	7.743738E-03	2.901567E-04
7.104424E+03	7.679445E-03	2.884217E-04
7.114388E+03	7.615522E-03	2.866861E-04
7.124352E+03	7.553110E-03	2.849933E-04
7.134316E+03	7.492564E-03	2.833571E-04
7.144281E+03	7.434783E-03	2.818124E-04
7.154245E+03	7.380011E-03	2.803690E-04
7.164209E+03	7.328502E-03	2.790376E-04
7.174173E+03	7.280363E-03	2.778232E-04
7.184137E+03	7.235559E-03	2.767253E-04
7.194101E+03	7.193923E-03	2.757386E-04
7.204065E+03	7.155193E-03	2.748538E-04
7.214029E+03	7.119018E-03	2.740582E-04
7.223994E+03	7.084998E-03	2.733371E-04
7.233958E+03	7.052864E-03	2.726808E-04
7.243922E+03	7.021852E-03	2.720601E-04
7.253886E+03	6.991707E-03	2.714655E-04
7.263850E+03	6.962042E-03	2.708823E-04
7.273814E+03	6.932686E-03	2.703039E-04
7.283778E+03	6.903040E-03	2.697071E-04
7.293743E+03	6.873054E-03	2.690900E-04
7.303707E+03	6.842591E-03	2.684471E-04
7.313671E+03	6.811737E-03	2.677818E-04
7.323635E+03	6.780136E-03	2.670800E-04
7.333599E+03	6.747971E-03	2.663489E-04
7.343563E+03	6.715284E-03	2.655901E-04
7.353527E+03	6.682129E-03	2.648056E-04
7.363491E+03	6.648555E-03	2.639974E-04
7.373456E+03	6.614585E-03	2.631663E-04
7.383420E+03	6.580220E-03	2.623124E-04
7.393384E+03	6.545256E-03	2.614276E-04
7.403348E+03	6.509937E-03	2.605214E-04
7.413312E+03	6.473983E-03	2.595827E-04
7.423276E+03	6.437095E-03	2.585994E-04
7.433240E+03	6.399289E-03	2.575720E-04
7.443204E+03	6.360584E-03	2.565011E-04
7.453169E+03	6.320566E-03	2.553699E-04
7.463133E+03	6.279362E-03	2.541833E-04
7.473097E+03	6.237027E-03	2.529433E-04
7.483061E+03	6.193571E-03	2.516501E-04
7.493025E+03	6.149601E-03	2.503283E-04
7.502989E+03	6.105378E-03	2.489885E-04
7.512953E+03	6.061283E-03	2.476462E-04
7.522917E+03	6.018111E-03	2.463342E-04
7.532882E+03	5.976573E-03	2.450818E-04
7.542846E+03	5.937406E-03	2.439198E-04
7.552810E+03	5.901331E-03	2.428783E-04
7.562774E+03	5.868854E-03	2.419792E-04
7.572738E+03	5.840682E-03	2.412523E-04
7.582702E+03	5.817384E-03	2.407224E-04
7.592666E+03	5.798729E-03	2.403810E-04
7.602631E+03	5.785236E-03	2.402506E-04
7.612595E+03	5.776610E-03	2.403203E-04
7.622559E+03	5.772368E-03	2.405710E-04
7.632523E+03	5.772185E-03	2.409903E-04
7.642487E+03	5.775451E-03	2.415535E-04
7.652451E+03	5.781469E-03	2.422324E-04
7.662415E+03	5.789340E-03	2.429897E-04
7.672379E+03	5.798478E-03	2.438014E-04
7.682344E+03	5.808182E-03	2.446382E-04
7.692308E+03	5.817820E-03	2.454736E-04
7.702272E+03	5.826692E-03	2.462783E-04
7.712236E+03	5.834688E-03	2.470472E-04
7.722200E+03	5.841159E-03	2.477529E-04
7.732164E+03	5.845872E-03	2.483851E-04
