#wls	flux	fluxerr
1.594261E+03	1.010546E-02	1.434870E-04
1.634117E+03	9.720906E-03	1.380267E-04
1.673974E+03	9.342165E-03	1.326490E-04
1.713830E+03	8.980374E-03	1.275119E-04
1.753687E+03	8.645619E-03	1.227587E-04
1.793543E+03	8.344921E-03	1.184891E-04
1.833400E+03	8.082179E-03	1.147584E-04
1.873256E+03	7.857525E-03	1.115685E-04
1.913113E+03	7.666506E-03	1.088563E-04
1.952969E+03	7.500295E-03	1.064962E-04
1.992826E+03	7.347808E-03	1.043311E-04
2.032682E+03	7.199665E-03	1.022276E-04
2.072539E+03	7.055759E-03	1.001842E-04
2.112395E+03	6.936276E-03	9.848771E-05
2.152252E+03	6.876336E-03	9.763661E-05
2.192108E+03	6.902823E-03	9.801269E-05
2.231965E+03	7.025961E-03	9.976110E-05
2.271821E+03	7.262070E-03	1.031136E-04
2.311678E+03	7.588752E-03	1.077521E-04
2.351534E+03	7.968213E-03	1.131400E-04
2.391391E+03	8.386409E-03	1.190780E-04
2.431248E+03	8.838794E-03	1.255013E-04
2.471104E+03	9.323790E-03	1.323877E-04
2.510961E+03	9.840464E-03	1.397239E-04
2.550817E+03	1.038813E-02	1.475002E-04
2.590674E+03	1.096804E-02	1.557342E-04
2.630530E+03	1.159012E-02	1.645671E-04
2.670387E+03	1.224841E-02	1.739140E-04
2.710243E+03	1.292813E-02	1.835653E-04
2.750100E+03	1.362129E-02	1.934075E-04
2.789956E+03	1.432196E-02	2.033561E-04
2.829813E+03	1.502495E-02	2.133378E-04
2.869669E+03	1.572597E-02	2.232915E-04
2.909526E+03	1.642111E-02	2.331617E-04
2.949382E+03	1.710822E-02	2.429179E-04
2.989239E+03	1.778746E-02	2.525624E-04
2.999203E+03	1.795625E-02	2.549590E-04
3.009167E+03	1.812473E-02	2.573512E-04
3.019131E+03	1.829306E-02	2.597413E-04
3.029095E+03	1.846122E-02	2.621291E-04
3.039059E+03	1.862985E-02	2.645234E-04
3.049024E+03	1.879950E-02	2.669322E-04
3.058988E+03	1.897003E-02	2.693535E-04
3.068952E+03	1.914123E-02	2.717844E-04
3.078916E+03	1.931320E-02	2.742262E-04
3.088880E+03	1.948578E-02	2.766766E-04
3.098844E+03	1.965882E-02	2.791335E-04
3.108808E+03	1.983224E-02	2.815959E-04
3.118772E+03	2.000587E-02	2.840613E-04
3.128737E+03	2.017968E-02	2.865292E-04
3.138701E+03	2.035328E-02	2.889942E-04
3.148665E+03	2.052672E-02	2.914568E-04
3.158629E+03	2.069955E-02	2.939108E-04
3.168593E+03	2.087173E-02	2.963554E-04
3.178557E+03	2.104299E-02	2.987871E-04
3.188521E+03	2.121284E-02	3.011989E-04
3.198485E+03	2.138107E-02	3.035876E-04
3.208450E+03	2.154742E-02	3.059495E-04
3.218414E+03	2.171143E-02	3.082783E-04
3.228378E+03	2.187268E-02	3.105678E-04
3.238342E+03	2.203078E-02	3.128128E-04
3.248306E+03	2.218539E-02	3.150080E-04
3.258270E+03	2.233595E-02	3.171458E-04
3.268234E+03	2.248199E-02	3.192194E-04
3.278198E+03	2.262307E-02	3.212225E-04
3.288163E+03	2.275881E-02	3.231499E-04
3.298127E+03	2.288863E-02	3.249932E-04
3.308091E+03	2.301207E-02	3.267459E-04
3.318055E+03	2.312877E-02	3.284030E-04
3.328019E+03	2.323821E-02	3.299568E-04
3.337983E+03	2.333991E-02	3.314009E-04
3.347947E+03	2.343360E-02	3.327312E-04
3.357912E+03	2.351859E-02	3.339379E-04
3.367876E+03	2.359478E-02	3.350196E-04
3.377840E+03	2.366148E-02	3.359668E-04
3.387804E+03	2.371818E-02	3.367719E-04
3.397768E+03	2.376432E-02	3.374270E-04
3.407732E+03	2.379938E-02	3.379248E-04
3.417696E+03	2.382275E-02	3.382566E-04
3.427660E+03	2.383351E-02	3.384093E-04
3.437625E+03	2.383154E-02	3.383814E-04
3.447589E+03	2.381640E-02	3.381664E-04
3.457553E+03	2.378838E-02	3.377685E-04
3.467517E+03	2.374860E-02	3.372038E-04
3.477481E+03	2.369935E-02	3.365044E-04
3.487445E+03	2.364373E-02	3.357147E-04
3.497409E+03	2.358501E-02	3.348809E-04
3.507373E+03	2.352624E-02	3.340465E-04
3.517338E+03	2.347031E-02	3.332524E-04
3.527302E+03	2.341983E-02	3.325356E-04
3.537266E+03	2.337683E-02	3.319249E-04
3.547230E+03	2.334286E-02	3.314427E-04
3.557194E+03	2.331903E-02	3.311043E-04
3.567158E+03	2.330621E-02	3.309223E-04
3.577122E+03	2.330519E-02	3.309078E-04
3.587086E+03	2.331609E-02	3.310625E-04
3.597051E+03	2.333911E-02	3.313894E-04
3.607015E+03	2.337415E-02	3.318870E-04
3.616979E+03	2.342077E-02	3.325489E-04
3.626943E+03	2.347862E-02	3.333702E-04
3.636907E+03	2.354707E-02	3.343421E-04
3.646871E+03	2.362527E-02	3.354526E-04
3.656835E+03	2.371262E-02	3.366928E-04
3.666800E+03	2.380795E-02	3.380463E-04
3.676764E+03	2.391041E-02	3.395012E-04
3.686728E+03	2.401889E-02	3.410415E-04
3.696692E+03	2.413219E-02	3.426503E-04
3.706656E+03	2.424890E-02	3.443073E-04
3.716620E+03	2.436742E-02	3.459902E-04
3.726584E+03	2.448588E-02	3.476722E-04
3.736548E+03	2.460198E-02	3.493208E-04
3.746513E+03	2.471359E-02	3.509054E-04
3.756477E+03	2.481796E-02	3.523873E-04
3.766441E+03	2.491216E-02	3.537249E-04
3.776405E+03	2.499373E-02	3.548831E-04
3.786369E+03	2.505993E-02	3.558230E-04
3.796333E+03	2.510850E-02	3.565127E-04
3.806297E+03	2.513754E-02	3.569250E-04
3.816261E+03	2.514629E-02	3.570493E-04
3.826226E+03	2.513445E-02	3.568811E-04
3.836190E+03	2.510230E-02	3.564246E-04
3.846154E+03	2.505153E-02	3.557037E-04
3.856118E+03	2.498395E-02	3.547442E-04
3.866082E+03	2.490256E-02	3.535885E-04
3.876046E+03	2.481024E-02	3.522776E-04
3.886010E+03	2.471037E-02	3.508597E-04
3.895974E+03	2.460589E-02	3.493761E-04
3.905939E+03	2.449998E-02	3.478723E-04
3.915903E+03	2.439523E-02	3.463851E-04
3.925867E+03	2.429353E-02	3.449410E-04
3.935831E+03	2.419697E-02	3.435699E-04
3.945795E+03	2.410634E-02	3.422831E-04
3.955759E+03	2.402273E-02	3.410960E-04
3.965723E+03	2.394647E-02	3.400131E-04
3.975688E+03	2.387791E-02	3.390397E-04
3.985652E+03	2.381693E-02	3.381738E-04
3.995616E+03	2.376357E-02	3.374162E-04
4.005580E+03	2.371750E-02	3.367620E-04
4.015544E+03	2.367852E-02	3.362084E-04
4.025508E+03	2.364615E-02	3.357489E-04
4.035472E+03	2.362004E-02	3.353782E-04
4.045436E+03	2.359965E-02	3.350886E-04
4.055401E+03	2.358417E-02	3.348689E-04
4.065365E+03	2.357308E-02	3.347114E-04
4.075329E+03	2.356551E-02	3.346039E-04
4.085293E+03	2.356116E-02	3.345422E-04
4.095257E+03	2.355920E-02	3.345143E-04
4.105221E+03	2.355927E-02	3.345152E-04
4.115185E+03	2.356140E-02	3.345455E-04
4.125149E+03	2.356522E-02	3.345998E-04
4.135114E+03	2.357093E-02	3.346808E-04
4.145078E+03	2.357815E-02	3.347833E-04
4.155042E+03	2.358677E-02	3.349058E-04
4.165006E+03	2.359611E-02	3.350384E-04
4.174970E+03	2.360552E-02	3.351720E-04
4.184934E+03	2.361346E-02	3.352847E-04
4.194898E+03	2.361795E-02	3.353485E-04
4.204862E+03	2.361617E-02	3.353233E-04
4.214827E+03	2.360515E-02	3.351667E-04
4.224791E+03	2.358067E-02	3.348192E-04
4.234755E+03	2.353798E-02	3.342129E-04
4.244719E+03	2.347161E-02	3.332705E-04
4.254683E+03	2.337541E-02	3.319047E-04
4.264647E+03	2.324278E-02	3.300215E-04
4.274611E+03	2.306692E-02	3.275244E-04
4.284576E+03	2.284130E-02	3.243209E-04
4.294540E+03	2.255991E-02	3.203255E-04
4.304504E+03	2.221837E-02	3.154760E-04
4.314468E+03	2.181466E-02	3.097438E-04
4.324432E+03	2.135027E-02	3.031499E-04
4.334396E+03	2.083063E-02	2.957717E-04
4.344360E+03	2.026608E-02	2.877557E-04
4.354324E+03	1.967312E-02	2.793363E-04
4.364289E+03	1.907772E-02	2.708823E-04
4.374253E+03	1.850632E-02	2.627690E-04
4.384217E+03	1.797427E-02	2.552145E-04
4.394181E+03	1.748696E-02	2.482952E-04
4.404145E+03	1.704713E-02	2.420501E-04
4.414109E+03	1.665581E-02	2.364939E-04
4.424073E+03	1.631233E-02	2.316168E-04
4.434037E+03	1.601515E-02	2.273971E-04
4.444002E+03	1.576196E-02	2.238022E-04
4.453966E+03	1.554999E-02	2.207924E-04
4.463930E+03	1.537644E-02	2.183283E-04
4.473894E+03	1.523840E-02	2.163682E-04
4.483858E+03	1.513294E-02	2.148709E-04
4.493822E+03	1.505713E-02	2.137944E-04
4.503786E+03	1.500829E-02	2.131010E-04
4.513750E+03	1.498375E-02	2.127525E-04
4.523715E+03	1.498088E-02	2.127117E-04
4.533679E+03	1.499709E-02	2.129419E-04
4.543643E+03	1.502986E-02	2.134072E-04
4.553607E+03	1.507665E-02	2.140716E-04
4.563571E+03	1.513499E-02	2.148999E-04
4.573535E+03	1.520241E-02	2.158572E-04
4.583499E+03	1.527640E-02	2.169079E-04
4.593464E+03	1.535498E-02	2.180235E-04
4.603428E+03	1.543558E-02	2.191680E-04
4.613392E+03	1.551624E-02	2.203132E-04
4.623356E+03	1.559509E-02	2.214328E-04
4.633320E+03	1.567008E-02	2.224976E-04
4.643284E+03	1.573982E-02	2.234879E-04
4.653248E+03	1.580235E-02	2.243756E-04
4.663212E+03	1.585625E-02	2.251410E-04
4.673177E+03	1.589976E-02	2.257588E-04
4.683141E+03	1.593114E-02	2.262043E-04
4.685227E+03	1.652572E-02	2.346468E-04
4.689755E+03	1.649964E-02	2.342764E-04
4.694283E+03	1.646920E-02	2.338443E-04
4.698810E+03	1.642944E-02	2.332796E-04
4.703338E+03	1.638376E-02	2.326311E-04
4.707866E+03	1.633785E-02	2.319792E-04
4.712393E+03	1.629135E-02	2.313190E-04
4.716921E+03	1.624066E-02	2.305993E-04
4.721449E+03	1.619524E-02	2.299543E-04
4.725976E+03	1.614924E-02	2.293012E-04
4.730504E+03	1.609818E-02	2.285761E-04
4.735032E+03	1.601808E-02	2.274388E-04
4.739560E+03	1.592186E-02	2.260726E-04
4.744087E+03	1.582070E-02	2.246363E-04
4.748615E+03	1.572445E-02	2.232696E-04
4.753143E+03	1.564087E-02	2.220829E-04
4.757670E+03	1.557655E-02	2.211696E-04
4.762198E+03	1.553668E-02	2.206035E-04
4.766726E+03	1.552458E-02	2.204317E-04
4.771253E+03	1.554270E-02	2.206889E-04
4.775781E+03	1.559157E-02	2.213829E-04
4.780309E+03	1.567090E-02	2.225093E-04
4.784836E+03	1.577898E-02	2.240439E-04
4.789363E+03	1.588658E-02	2.255716E-04
4.793892E+03	1.603249E-02	2.276434E-04
4.798420E+03	1.619682E-02	2.299767E-04
4.802947E+03	1.638046E-02	2.325843E-04
4.807475E+03	1.657719E-02	2.353776E-04
4.812002E+03	1.682465E-02	2.388912E-04
4.816529E+03	1.714092E-02	2.433819E-04
4.821057E+03	1.750959E-02	2.486166E-04
4.825586E+03	1.788313E-02	2.539205E-04
4.830114E+03	1.820479E-02	2.584877E-04
4.834641E+03	1.846756E-02	2.622188E-04
4.839169E+03	1.867312E-02	2.651375E-04
4.843696E+03	1.882663E-02	2.673171E-04
4.848223E+03	1.893152E-02	2.688064E-04
4.852751E+03	1.899121E-02	2.696540E-04
4.857280E+03	1.899697E-02	2.697358E-04
4.861807E+03	1.894876E-02	2.690512E-04
4.866335E+03	1.884477E-02	2.675747E-04
4.870863E+03	1.869889E-02	2.655034E-04
4.875390E+03	1.850064E-02	2.626884E-04
4.879917E+03	1.825867E-02	2.592528E-04
4.884445E+03	1.797993E-02	2.552949E-04
4.888974E+03	1.767484E-02	2.509630E-04
4.893501E+03	1.734233E-02	2.462417E-04
4.898029E+03	1.699215E-02	2.412695E-04
4.902557E+03	1.664190E-02	2.362964E-04
4.907083E+03	1.630329E-02	2.314885E-04
4.911611E+03	1.598312E-02	2.269425E-04
4.916139E+03	1.568771E-02	2.227480E-04
4.920668E+03	1.542721E-02	2.190491E-04
4.925195E+03	1.519010E-02	2.156825E-04
4.929723E+03	1.496996E-02	2.125568E-04
4.934251E+03	1.475544E-02	2.095107E-04
4.938777E+03	1.457066E-02	2.068871E-04
4.943305E+03	1.441547E-02	2.046836E-04
4.947833E+03	1.429061E-02	2.029107E-04
4.952361E+03	1.420082E-02	2.016358E-04
4.956888E+03	1.414349E-02	2.008218E-04
4.961416E+03	1.411482E-02	2.004146E-04
4.965944E+03	1.410850E-02	2.003250E-04
4.970471E+03	1.412089E-02	2.005008E-04
4.974999E+03	1.413692E-02	2.007285E-04
4.979527E+03	1.414784E-02	2.008836E-04
4.984054E+03	1.413718E-02	2.007321E-04
4.988582E+03	1.408913E-02	2.000499E-04
4.993110E+03	1.403348E-02	1.992597E-04
4.997638E+03	1.396251E-02	1.982520E-04
5.002165E+03	1.388059E-02	1.970889E-04
5.006693E+03	1.380930E-02	1.960767E-04
5.011221E+03	1.379148E-02	1.958236E-04
5.015748E+03	1.382451E-02	1.962927E-04
5.020276E+03	1.386613E-02	1.968836E-04
5.024804E+03	1.387928E-02	1.970703E-04
5.029331E+03	1.385533E-02	1.967303E-04
5.033859E+03	1.381623E-02	1.961750E-04
5.038387E+03	1.377267E-02	1.955566E-04
5.042915E+03	1.372572E-02	1.948899E-04
5.047442E+03	1.366412E-02	1.940153E-04
5.051970E+03	1.358259E-02	1.928577E-04
5.056498E+03	1.350556E-02	1.917639E-04
5.061025E+03	1.347192E-02	1.912862E-04
5.065553E+03	1.348361E-02	1.914522E-04
5.070081E+03	1.350970E-02	1.918227E-04
5.074608E+03	1.350461E-02	1.917504E-04
5.079136E+03	1.345776E-02	1.910851E-04
5.083664E+03	1.338937E-02	1.901141E-04
5.088192E+03	1.333007E-02	1.892722E-04
5.092719E+03	1.328164E-02	1.885845E-04
5.097247E+03	1.324988E-02	1.881336E-04
5.101775E+03	1.321984E-02	1.877070E-04
5.106302E+03	1.318904E-02	1.872697E-04
5.110830E+03	1.316507E-02	1.869294E-04
5.115358E+03	1.314757E-02	1.866809E-04
5.119885E+03	1.313867E-02	1.865545E-04
5.124413E+03	1.315194E-02	1.867429E-04
5.128941E+03	1.319710E-02	1.873841E-04
5.133469E+03	1.326269E-02	1.883154E-04
5.137996E+03	1.332667E-02	1.892238E-04
5.142524E+03	1.337951E-02	1.899741E-04
5.147052E+03	1.342474E-02	1.906163E-04
5.151579E+03	1.347046E-02	1.912656E-04
5.156107E+03	1.351069E-02	1.918367E-04
5.160635E+03	1.354682E-02	1.923498E-04
5.165162E+03	1.358998E-02	1.929626E-04
5.169690E+03	1.364989E-02	1.938132E-04
5.174218E+03	1.372442E-02	1.948714E-04
5.178746E+03	1.379468E-02	1.958691E-04
5.183273E+03	1.384726E-02	1.966156E-04
5.187801E+03	1.388196E-02	1.971083E-04
5.192329E+03	1.389383E-02	1.972769E-04
5.196856E+03	1.389877E-02	1.973470E-04
5.201384E+03	1.388918E-02	1.972108E-04
5.205912E+03	1.388696E-02	1.971793E-04
5.210439E+03	1.390996E-02	1.975060E-04
5.214967E+03	1.394601E-02	1.980178E-04
5.219495E+03	1.396593E-02	1.983006E-04
5.224023E+03	1.395964E-02	1.982113E-04
5.228550E+03	1.392855E-02	1.977700E-04
5.233078E+03	1.388044E-02	1.970868E-04
5.237606E+03	1.382291E-02	1.962699E-04
5.242133E+03	1.375488E-02	1.953040E-04
5.246661E+03	1.367354E-02	1.941490E-04
5.251189E+03	1.360629E-02	1.931941E-04
5.255716E+03	1.359628E-02	1.930521E-04
5.260244E+03	1.365255E-02	1.938510E-04
5.264772E+03	1.372735E-02	1.949131E-04
5.269300E+03	1.377735E-02	1.956230E-04
5.273827E+03	1.377883E-02	1.956441E-04
5.278355E+03	1.376328E-02	1.954233E-04
5.282883E+03	1.375759E-02	1.953425E-04
5.287410E+03	1.377184E-02	1.955448E-04
5.291938E+03	1.379223E-02	1.958344E-04
5.296466E+03	1.380603E-02	1.960303E-04
5.300993E+03	1.379713E-02	1.959039E-04
5.305521E+03	1.377703E-02	1.956185E-04
5.310049E+03	1.375440E-02	1.952973E-04
5.314577E+03	1.372323E-02	1.948547E-04
5.319104E+03	1.369130E-02	1.944013E-04
5.323632E+03	1.367189E-02	1.941256E-04
5.328160E+03	1.365914E-02	1.939446E-04
5.332687E+03	1.363201E-02	1.935594E-04
5.337215E+03	1.358006E-02	1.928217E-04
5.341743E+03	1.351054E-02	1.918346E-04
5.346270E+03	1.343442E-02	1.907539E-04
5.350798E+03	1.335737E-02	1.896598E-04
5.355326E+03	1.328062E-02	1.885701E-04
5.359854E+03	1.321339E-02	1.876154E-04
5.364381E+03	1.316591E-02	1.869413E-04
5.368909E+03	1.313838E-02	1.865504E-04
5.373437E+03	1.311645E-02	1.862391E-04
5.377964E+03	1.307839E-02	1.856986E-04
5.382492E+03	1.302718E-02	1.849715E-04
5.387020E+03	1.296531E-02	1.840930E-04
5.391547E+03	1.289526E-02	1.830984E-04
5.396075E+03	1.283648E-02	1.822638E-04
5.400603E+03	1.278615E-02	1.815492E-04
5.405131E+03	1.276602E-02	1.812633E-04
5.409658E+03	1.277253E-02	1.813558E-04
5.414186E+03	1.277476E-02	1.813874E-04
5.418714E+03	1.275449E-02	1.810996E-04
5.423241E+03	1.271738E-02	1.805727E-04
5.427769E+03	1.267547E-02	1.799776E-04
5.432297E+03	1.263440E-02	1.793945E-04
5.436824E+03	1.258747E-02	1.787281E-04
5.441352E+03	1.253432E-02	1.779734E-04
5.445880E+03	1.247531E-02	1.771355E-04
5.450408E+03	1.242651E-02	1.764427E-04
5.454935E+03	1.238900E-02	1.759100E-04
5.459463E+03	1.235463E-02	1.754220E-04
5.463991E+03	1.231510E-02	1.748608E-04
5.468518E+03	1.227060E-02	1.742290E-04
5.473046E+03	1.222537E-02	1.735867E-04
5.477574E+03	1.218841E-02	1.730619E-04
5.482101E+03	1.215760E-02	1.726244E-04
5.486629E+03	1.213364E-02	1.722843E-04
5.491157E+03	1.211671E-02	1.720439E-04
5.495685E+03	1.207981E-02	1.715199E-04
5.500212E+03	1.206106E-02	1.712536E-04
5.504740E+03	1.209131E-02	1.716833E-04
5.509268E+03	1.211359E-02	1.719996E-04
5.513795E+03	1.212789E-02	1.722026E-04
5.518323E+03	1.213738E-02	1.723374E-04
5.522851E+03	1.213997E-02	1.723741E-04
5.527378E+03	1.213124E-02	1.722501E-04
5.531906E+03	1.211013E-02	1.719505E-04
5.536434E+03	1.208213E-02	1.715528E-04
5.540962E+03	1.204546E-02	1.710322E-04
5.545489E+03	1.200543E-02	1.704638E-04
5.550017E+03	1.196044E-02	1.698251E-04
5.554545E+03	1.191069E-02	1.691186E-04
5.559072E+03	1.185440E-02	1.683193E-04
5.563600E+03	1.179546E-02	1.674825E-04
5.568128E+03	1.173386E-02	1.666079E-04
5.572655E+03	1.166927E-02	1.656908E-04
5.577183E+03	1.160467E-02	1.647735E-04
5.581711E+03	1.154147E-02	1.638762E-04
5.586239E+03	1.147791E-02	1.629737E-04
5.590766E+03	1.141875E-02	1.621336E-04
5.595294E+03	1.136414E-02	1.613583E-04
5.599822E+03	1.131516E-02	1.606628E-04
5.604349E+03	1.127109E-02	1.600370E-04
5.608877E+03	1.123298E-02	1.594959E-04
5.613405E+03	1.119837E-02	1.590045E-04
5.617932E+03	1.117095E-02	1.586152E-04
5.622460E+03	1.115159E-02	1.583403E-04
5.626988E+03	1.113836E-02	1.581524E-04
5.631516E+03	1.112511E-02	1.579643E-04
5.636043E+03	1.110534E-02	1.576836E-04
5.640571E+03	1.108415E-02	1.573828E-04
5.645099E+03	1.106120E-02	1.570568E-04
5.649626E+03	1.104348E-02	1.568053E-04
5.654154E+03	1.102593E-02	1.565560E-04
5.658682E+03	1.100905E-02	1.563164E-04
5.663209E+03	1.098884E-02	1.560293E-04
5.667737E+03	1.096352E-02	1.556699E-04
5.672265E+03	1.093697E-02	1.552929E-04
5.676793E+03	1.090882E-02	1.548932E-04
5.681320E+03	1.087577E-02	1.544239E-04
5.685848E+03	1.083535E-02	1.538500E-04
5.690376E+03	1.078898E-02	1.531916E-04
5.694903E+03	1.073123E-02	1.523717E-04
5.699431E+03	1.070603E-02	1.520138E-04
5.703959E+03	1.069796E-02	1.518992E-04
5.708486E+03	1.066294E-02	1.514020E-04
5.713014E+03	1.063421E-02	1.509941E-04
5.717542E+03	1.060687E-02	1.506059E-04
5.722070E+03	1.057935E-02	1.502151E-04
5.726597E+03	1.055374E-02	1.498515E-04
5.731125E+03	1.052988E-02	1.495126E-04
5.735653E+03	1.050931E-02	1.492207E-04
5.740180E+03	1.049171E-02	1.489708E-04
5.744708E+03	1.047567E-02	1.487430E-04
5.749236E+03	1.046049E-02	1.485274E-04
5.753763E+03	1.044703E-02	1.483364E-04
5.758291E+03	1.043462E-02	1.481601E-04
5.762819E+03	1.042532E-02	1.480281E-04
5.767347E+03	1.041567E-02	1.478910E-04
5.771874E+03	1.040913E-02	1.477983E-04
5.776402E+03	1.040694E-02	1.477671E-04
5.780930E+03	1.040769E-02	1.477777E-04
5.785457E+03	1.040806E-02	1.477831E-04
5.789985E+03	1.040825E-02	1.477857E-04
5.794513E+03	1.040668E-02	1.477634E-04
5.799040E+03	1.040596E-02	1.477532E-04
5.803568E+03	1.040314E-02	1.477132E-04
5.808096E+03	1.039596E-02	1.476112E-04
5.812624E+03	1.038459E-02	1.474498E-04
5.817151E+03	1.037078E-02	1.472537E-04
5.821679E+03	1.035297E-02	1.470008E-04
5.826207E+03	1.033341E-02	1.467231E-04
5.830734E+03	1.031229E-02	1.464232E-04
5.835262E+03	1.029013E-02	1.461085E-04
5.839790E+03	1.026570E-02	1.457617E-04
5.844317E+03	1.023989E-02	1.453952E-04
5.848845E+03	1.021408E-02	1.450287E-04
5.853373E+03	1.018653E-02	1.446375E-04
5.857901E+03	1.016210E-02	1.442907E-04
5.862428E+03	1.013750E-02	1.439414E-04
5.866956E+03	1.011325E-02	1.435971E-04
5.871484E+03	1.009229E-02	1.432994E-04
5.876011E+03	1.007738E-02	1.430877E-04
5.880539E+03	1.006021E-02	1.428440E-04
5.885067E+03	1.004789E-02	1.426690E-04
5.889594E+03	1.003815E-02	1.425307E-04
5.894122E+03	1.002753E-02	1.423800E-04
5.898650E+03	1.001830E-02	1.422489E-04
5.903178E+03	1.000784E-02	1.421004E-04
5.907705E+03	1.000170E-02	1.420132E-04
5.912233E+03	9.998998E-03	1.419748E-04
5.916761E+03	9.997149E-03	1.419486E-04
5.921288E+03	9.996322E-03	1.419368E-04
5.925816E+03	9.996172E-03	1.419347E-04
5.930344E+03	9.993424E-03	1.418957E-04
5.934871E+03	9.991354E-03	1.418663E-04
5.939399E+03	9.989447E-03	1.418392E-04
5.943927E+03	9.983740E-03	1.417582E-04
5.948455E+03	9.976821E-03	1.416599E-04
5.952982E+03	9.965420E-03	1.414980E-04
5.957510E+03	9.949026E-03	1.412653E-04
5.962038E+03	9.931086E-03	1.410105E-04
5.966565E+03	9.913145E-03	1.407558E-04
5.971093E+03	9.894861E-03	1.404962E-04
5.975621E+03	9.877783E-03	1.402537E-04
5.980148E+03	9.860017E-03	1.400015E-04
5.984676E+03	9.840538E-03	1.397249E-04
5.989204E+03	9.820545E-03	1.394410E-04
5.993732E+03	9.803815E-03	1.392034E-04
5.998259E+03	9.786742E-03	1.389610E-04
6.002787E+03	9.768644E-03	1.387041E-04
6.007315E+03	9.748664E-03	1.384204E-04
6.011842E+03	9.731430E-03	1.381757E-04
6.016370E+03	9.714197E-03	1.379310E-04
6.020898E+03	9.691489E-03	1.376085E-04
6.025425E+03	9.668274E-03	1.372789E-04
6.029953E+03	9.646434E-03	1.369688E-04
6.034481E+03	9.626996E-03	1.366928E-04
6.039009E+03	9.610812E-03	1.364630E-04
6.043536E+03	9.599756E-03	1.363060E-04
6.048064E+03	9.589897E-03	1.361661E-04
6.052592E+03	9.577303E-03	1.359872E-04
6.057119E+03	9.563174E-03	1.357866E-04
6.061647E+03	9.546488E-03	1.355497E-04
6.066175E+03	9.531000E-03	1.353298E-04
