#wls	flux	fluxerr
1.594261E+03	3.446080E-03	3.034862E-04
1.634117E+03	3.257708E-03	2.850169E-04
1.673974E+03	3.071810E-03	2.669441E-04
1.713830E+03	2.890560E-03	2.494572E-04
1.753687E+03	2.715511E-03	2.326870E-04
1.793543E+03	2.547013E-03	2.166580E-04
1.833400E+03	2.384792E-03	2.013405E-04
1.873256E+03	2.228127E-03	1.866679E-04
1.913113E+03	2.076341E-03	1.725788E-04
1.952969E+03	1.929748E-03	1.590946E-04
1.992826E+03	1.791279E-03	1.464499E-04
2.032682E+03	1.668270E-03	1.352278E-04
2.072539E+03	1.572534E-03	1.263495E-04
2.112395E+03	1.514045E-03	1.205545E-04
2.152252E+03	1.494328E-03	1.178846E-04
2.192108E+03	1.512323E-03	1.181718E-04
2.231965E+03	1.569013E-03	1.214070E-04
2.271821E+03	1.666242E-03	1.276406E-04
2.311678E+03	1.801896E-03	1.366147E-04
2.351534E+03	1.969308E-03	1.477329E-04
2.391391E+03	2.161211E-03	1.603736E-04
2.431248E+03	2.371715E-03	1.740371E-04
2.471104E+03	2.596680E-03	1.883693E-04
2.510961E+03	2.834699E-03	2.032240E-04
2.550817E+03	3.089543E-03	2.188261E-04
2.590674E+03	3.373995E-03	2.360166E-04
2.630530E+03	3.706123E-03	2.559548E-04
2.670387E+03	4.089938E-03	2.787750E-04
2.710243E+03	4.512347E-03	3.034430E-04
2.750100E+03	4.958204E-03	3.288338E-04
2.789956E+03	5.416119E-03	3.541225E-04
2.829813E+03	5.878297E-03	3.787577E-04
2.869669E+03	6.339076E-03	4.023537E-04
2.909526E+03	6.794261E-03	4.246378E-04
2.949382E+03	7.240410E-03	4.454009E-04
2.989239E+03	7.674526E-03	4.644755E-04
2.999203E+03	7.780800E-03	4.689606E-04
3.009167E+03	7.886135E-03	4.733311E-04
3.019131E+03	7.990438E-03	4.775819E-04
3.029095E+03	8.093769E-03	4.817173E-04
3.039059E+03	8.196171E-03	4.857404E-04
3.049024E+03	8.297905E-03	4.896671E-04
3.058988E+03	8.398812E-03	4.934886E-04
3.068952E+03	8.498837E-03	4.972021E-04
3.078916E+03	8.597768E-03	5.007957E-04
3.088880E+03	8.695606E-03	5.042703E-04
3.098844E+03	8.792189E-03	5.076174E-04
3.108808E+03	8.887408E-03	5.108314E-04
3.118772E+03	8.981157E-03	5.139073E-04
3.128737E+03	9.073379E-03	5.168430E-04
3.138701E+03	9.163907E-03	5.196299E-04
3.148665E+03	9.252626E-03	5.222630E-04
3.158629E+03	9.339421E-03	5.247371E-04
3.168593E+03	9.424230E-03	5.270502E-04
3.178557E+03	9.506876E-03	5.291940E-04
3.188521E+03	9.587233E-03	5.311631E-04
3.198485E+03	9.665176E-03	5.329525E-04
3.208450E+03	9.740573E-03	5.345569E-04
3.218414E+03	9.813359E-03	5.359746E-04
3.228378E+03	9.883336E-03	5.371970E-04
3.238342E+03	9.950368E-03	5.382190E-04
3.248306E+03	1.001438E-02	5.390391E-04
3.258270E+03	1.007517E-02	5.396488E-04
3.268234E+03	1.013254E-02	5.400396E-04
3.278198E+03	1.018653E-02	5.402174E-04
3.288163E+03	1.023681E-02	5.401671E-04
3.298127E+03	1.028337E-02	5.398914E-04
3.308091E+03	1.032601E-02	5.393829E-04
3.318055E+03	1.036460E-02	5.386381E-04
3.328019E+03	1.039909E-02	5.376577E-04
3.337983E+03	1.042925E-02	5.364328E-04
3.347947E+03	1.045511E-02	5.349698E-04
3.357912E+03	1.047663E-02	5.332693E-04
3.367876E+03	1.049366E-02	5.313276E-04
3.377840E+03	1.050638E-02	5.291575E-04
3.387804E+03	1.051483E-02	5.267649E-04
3.397768E+03	1.051930E-02	5.241680E-04
3.407732E+03	1.052001E-02	5.213808E-04
3.417696E+03	1.051762E-02	5.184394E-04
3.427660E+03	1.051290E-02	5.153840E-04
3.437625E+03	1.050679E-02	5.122624E-04
3.447589E+03	1.050088E-02	5.091539E-04
3.457553E+03	1.049712E-02	5.061519E-04
3.467517E+03	1.049847E-02	5.033965E-04
3.477481E+03	1.050923E-02	5.010900E-04
3.487445E+03	1.053473E-02	4.994769E-04
3.497409E+03	1.057910E-02	4.987407E-04
3.507373E+03	1.064369E-02	4.989296E-04
3.517338E+03	1.072477E-02	4.998540E-04
3.527302E+03	1.081576E-02	5.011952E-04
3.537266E+03	1.091043E-02	5.026588E-04
3.547230E+03	1.100463E-02	5.040524E-04
3.557194E+03	1.109661E-02	5.052960E-04
3.567158E+03	1.118713E-02	5.064271E-04
3.577122E+03	1.127967E-02	5.076030E-04
3.587086E+03	1.137926E-02	5.090477E-04
3.597051E+03	1.148988E-02	5.109328E-04
3.607015E+03	1.161320E-02	5.133234E-04
3.616979E+03	1.174878E-02	5.161913E-04
3.626943E+03	1.189461E-02	5.194383E-04
3.636907E+03	1.204695E-02	5.228946E-04
3.646871E+03	1.220121E-02	5.263576E-04
3.656835E+03	1.235422E-02	5.296903E-04
3.666800E+03	1.250451E-02	5.328321E-04
3.676764E+03	1.265294E-02	5.358217E-04
3.686728E+03	1.280154E-02	5.387467E-04
3.696692E+03	1.295388E-02	5.417566E-04
3.706656E+03	1.311393E-02	5.450147E-04
3.716620E+03	1.328524E-02	5.486616E-04
3.726584E+03	1.346963E-02	5.527650E-04
3.736548E+03	1.366770E-02	5.573389E-04
3.746513E+03	1.387823E-02	5.623245E-04
3.756477E+03	1.409812E-02	5.675886E-04
3.766441E+03	1.432258E-02	5.729334E-04
3.776405E+03	1.454502E-02	5.780940E-04
3.786369E+03	1.475668E-02	5.827279E-04
3.796333E+03	1.494776E-02	5.864601E-04
3.806297E+03	1.510695E-02	5.888663E-04
3.816261E+03	1.522282E-02	5.895294E-04
3.826226E+03	1.528588E-02	5.881190E-04
3.836190E+03	1.529268E-02	5.845435E-04
3.846154E+03	1.524923E-02	5.790746E-04
3.856118E+03	1.516795E-02	5.722188E-04
3.866082E+03	1.506364E-02	5.645602E-04
3.876046E+03	1.495165E-02	5.566874E-04
3.886010E+03	1.484611E-02	5.491293E-04
3.895974E+03	1.475720E-02	5.422556E-04
3.905939E+03	1.468958E-02	5.362250E-04
3.915903E+03	1.464422E-02	5.310577E-04
3.925867E+03	1.461972E-02	5.266882E-04
3.935831E+03	1.461330E-02	5.230030E-04
3.945795E+03	1.462106E-02	5.198514E-04
3.955759E+03	1.463838E-02	5.170619E-04
3.965723E+03	1.466039E-02	5.144575E-04
3.975688E+03	1.468176E-02	5.118511E-04
3.985652E+03	1.469753E-02	5.090720E-04
3.995616E+03	1.470331E-02	5.059745E-04
4.005580E+03	1.469684E-02	5.024893E-04
4.015544E+03	1.468109E-02	4.987263E-04
4.025508E+03	1.466614E-02	4.950339E-04
4.035472E+03	1.466459E-02	4.918348E-04
4.045436E+03	1.468228E-02	4.893160E-04
4.055401E+03	1.471399E-02	4.872945E-04
4.065365E+03	1.474724E-02	4.853520E-04
4.075329E+03	1.477005E-02	4.830977E-04
4.085293E+03	1.477420E-02	4.802722E-04
4.095257E+03	1.475552E-02	4.767537E-04
4.105221E+03	1.471304E-02	4.725253E-04
4.115185E+03	1.464819E-02	4.676485E-04
4.125149E+03	1.456517E-02	4.622696E-04
4.135114E+03	1.447042E-02	4.566029E-04
4.145078E+03	1.437266E-02	4.509288E-04
4.155042E+03	1.428157E-02	4.455513E-04
4.165006E+03	1.420417E-02	4.406856E-04
4.174970E+03	1.414383E-02	4.364290E-04
4.184934E+03	1.410032E-02	4.327665E-04
4.194898E+03	1.407003E-02	4.295805E-04
4.204862E+03	1.404582E-02	4.266492E-04
4.214827E+03	1.402055E-02	4.237550E-04
4.224791E+03	1.399184E-02	4.208282E-04
4.234755E+03	1.396593E-02	4.180578E-04
4.244719E+03	1.395344E-02	4.157606E-04
4.254683E+03	1.396290E-02	4.141851E-04
4.264647E+03	1.399692E-02	4.134014E-04
4.274611E+03	1.405316E-02	4.133334E-04
4.284576E+03	1.412514E-02	4.137847E-04
4.294540E+03	1.420179E-02	4.144297E-04
4.304504E+03	1.426950E-02	4.148738E-04
4.314468E+03	1.431276E-02	4.146731E-04
4.324432E+03	1.431536E-02	4.133682E-04
4.334396E+03	1.426351E-02	4.105758E-04
4.344360E+03	1.414859E-02	4.060618E-04
4.354324E+03	1.397388E-02	3.999336E-04
4.364289E+03	1.376396E-02	3.929027E-04
4.374253E+03	1.354829E-02	3.858111E-04
4.384217E+03	1.334538E-02	3.791811E-04
4.394181E+03	1.316140E-02	3.731809E-04
4.404145E+03	1.300011E-02	3.679088E-04
4.414109E+03	1.286248E-02	3.633851E-04
4.424073E+03	1.274767E-02	3.595791E-04
4.434037E+03	1.265297E-02	3.564085E-04
4.444002E+03	1.257495E-02	3.537715E-04
4.453966E+03	1.250987E-02	3.515590E-04
4.463930E+03	1.245459E-02	3.496788E-04
4.473894E+03	1.240806E-02	3.480990E-04
4.483858E+03	1.237022E-02	3.468151E-04
4.493822E+03	1.234182E-02	3.458455E-04
4.503786E+03	1.232415E-02	3.452248E-04
4.513750E+03	1.231867E-02	3.449915E-04
4.523715E+03	1.232582E-02	3.451558E-04
4.533679E+03	1.234519E-02	3.457055E-04
4.543643E+03	1.237513E-02	3.465926E-04
4.553607E+03	1.241277E-02	3.477362E-04
4.563571E+03	1.245459E-02	3.490363E-04
4.573535E+03	1.249599E-02	3.503635E-04
4.583499E+03	1.253212E-02	3.515802E-04
4.593464E+03	1.255805E-02	3.525471E-04
4.603428E+03	1.256883E-02	3.531235E-04
4.613392E+03	1.256034E-02	3.531910E-04
4.623356E+03	1.252982E-02	3.526694E-04
4.633320E+03	1.247626E-02	3.515267E-04
4.643284E+03	1.240149E-02	3.498112E-04
4.653248E+03	1.231166E-02	3.476928E-04
4.663212E+03	1.221398E-02	3.453721E-04
4.673177E+03	1.211446E-02	3.430167E-04
4.683141E+03	1.201493E-02	3.406765E-04
4.693105E+03	1.191553E-02	3.383543E-04
4.703069E+03	1.181745E-02	3.360822E-04
4.713033E+03	1.172401E-02	3.339533E-04
4.722997E+03	1.163949E-02	3.320892E-04
4.732961E+03	1.156723E-02	3.305855E-04
4.742925E+03	1.150838E-02	3.294755E-04
4.752890E+03	1.146400E-02	3.287905E-04
4.762854E+03	1.143957E-02	3.286896E-04
4.772818E+03	1.144680E-02	3.295117E-04
4.782782E+03	1.149898E-02	3.316452E-04
4.792746E+03	1.160200E-02	3.352669E-04
4.802710E+03	1.174893E-02	3.401843E-04
4.812674E+03	1.192381E-02	3.459420E-04
4.822639E+03	1.210890E-02	3.520293E-04
4.832603E+03	1.228860E-02	3.579931E-04
4.842567E+03	1.244965E-02	3.634458E-04
4.852531E+03	1.258144E-02	3.680736E-04
4.862495E+03	1.267572E-02	3.716285E-04
4.872459E+03	1.272755E-02	3.739587E-04
4.882423E+03	1.273476E-02	3.749920E-04
4.892387E+03	1.269919E-02	3.747732E-04
4.902352E+03	1.262586E-02	3.734424E-04
4.912316E+03	1.252246E-02	3.712200E-04
4.922280E+03	1.239979E-02	3.684197E-04
4.932244E+03	1.226965E-02	3.653892E-04
4.942208E+03	1.214236E-02	3.624343E-04
4.952172E+03	1.202609E-02	3.597996E-04
4.962136E+03	1.192571E-02	3.576334E-04
4.972100E+03	1.184288E-02	3.559886E-04
4.982065E+03	1.177450E-02	3.547751E-04
4.992029E+03	1.171456E-02	3.538146E-04
5.001993E+03	1.165580E-02	3.528892E-04
5.011957E+03	1.159077E-02	3.517726E-04
5.021921E+03	1.151238E-02	3.502482E-04
5.031885E+03	1.141644E-02	3.481848E-04
5.041849E+03	1.130247E-02	3.455638E-04
5.051813E+03	1.117510E-02	3.425233E-04
5.061778E+03	1.104635E-02	3.394289E-04
5.071742E+03	1.093703E-02	3.369216E-04
5.081706E+03	1.087050E-02	3.357275E-04
5.091670E+03	1.086061E-02	3.362857E-04
5.101634E+03	1.090663E-02	3.385868E-04
5.111598E+03	1.099694E-02	3.422837E-04
5.121562E+03	1.111586E-02	3.468979E-04
5.131527E+03	1.124581E-02	3.518872E-04
5.141491E+03	1.136943E-02	3.567108E-04
5.151455E+03	1.147274E-02	3.609275E-04
5.161419E+03	1.154727E-02	3.642660E-04
5.171383E+03	1.158957E-02	3.666105E-04
5.181347E+03	1.159928E-02	3.679413E-04
5.191311E+03	1.157907E-02	3.683357E-04
5.201275E+03	1.153374E-02	3.679389E-04
5.211240E+03	1.146902E-02	3.669281E-04
5.221204E+03	1.139109E-02	3.654963E-04
5.231168E+03	1.130607E-02	3.638368E-04
5.241132E+03	1.121886E-02	3.621061E-04
5.251096E+03	1.113221E-02	3.603928E-04
5.261060E+03	1.104724E-02	3.587335E-04
5.271024E+03	1.096438E-02	3.571432E-04
5.280988E+03	1.088317E-02	3.556070E-04
5.290953E+03	1.080305E-02	3.541080E-04
5.300917E+03	1.072345E-02	3.526277E-04
5.310881E+03	1.064445E-02	3.511689E-04
5.320845E+03	1.056645E-02	3.497452E-04
5.330809E+03	1.049008E-02	3.483780E-04
5.340773E+03	1.041653E-02	3.471079E-04
5.350737E+03	1.034694E-02	3.459735E-04
5.360701E+03	1.028235E-02	3.450120E-04
5.370666E+03	1.022311E-02	3.442363E-04
5.380630E+03	1.016872E-02	3.436322E-04
5.390594E+03	1.011666E-02	3.431157E-04
5.400558E+03	1.006163E-02	3.425075E-04
5.410522E+03	9.995829E-03	3.415383E-04
5.420486E+03	9.912910E-03	3.399864E-04
5.430450E+03	9.820651E-03	3.381116E-04
5.440415E+03	9.728315E-03	3.362293E-04
5.450379E+03	9.643422E-03	3.345994E-04
5.460343E+03	9.571021E-03	3.333997E-04
5.470307E+03	9.514806E-03	3.327637E-04
5.480271E+03	9.476272E-03	3.327497E-04
5.490235E+03	9.453076E-03	3.332819E-04
5.500199E+03	9.440956E-03	3.342154E-04
5.510163E+03	9.434043E-03	3.353457E-04
5.520128E+03	9.424480E-03	3.363941E-04
5.530092E+03	9.404030E-03	3.370637E-04
5.540056E+03	9.367347E-03	3.371567E-04
5.550020E+03	9.313084E-03	3.366163E-04
5.559984E+03	9.243677E-03	3.355223E-04
5.569948E+03	9.163536E-03	3.340277E-04
5.579912E+03	9.078450E-03	3.323388E-04
5.589876E+03	8.994496E-03	3.306759E-04
5.599841E+03	8.916378E-03	3.292123E-04
5.609805E+03	8.846725E-03	3.280479E-04
5.619769E+03	8.786366E-03	3.272166E-04
5.629733E+03	8.734366E-03	3.266875E-04
5.639697E+03	8.688567E-03	3.263830E-04
5.649661E+03	8.646354E-03	3.262069E-04
5.659625E+03	8.605243E-03	3.260664E-04
5.669589E+03	8.563720E-03	3.259039E-04
5.679554E+03	8.521460E-03	3.257062E-04
5.689518E+03	8.478461E-03	3.254726E-04
5.699482E+03	8.435689E-03	3.252394E-04
5.709446E+03	8.394476E-03	3.250580E-04
5.719410E+03	8.356337E-03	3.249875E-04
5.729374E+03	8.322784E-03	3.250882E-04
5.739338E+03	8.295084E-03	3.254119E-04
5.749303E+03	8.274352E-03	3.260050E-04
5.759267E+03	8.260506E-03	3.268675E-04
5.769231E+03	8.253006E-03	3.279813E-04
5.779195E+03	8.249611E-03	3.292597E-04
5.789159E+03	8.246707E-03	3.305598E-04
5.799123E+03	8.239981E-03	3.317080E-04
5.809087E+03	8.225676E-03	3.325501E-04
5.819051E+03	8.202135E-03	3.330147E-04
5.829016E+03	8.169320E-03	3.330952E-04
5.838980E+03	8.128860E-03	3.328532E-04
5.848944E+03	8.083982E-03	3.324172E-04
5.858908E+03	8.039075E-03	3.319659E-04
5.868872E+03	7.997792E-03	3.316505E-04
5.878836E+03	7.962700E-03	3.315797E-04
5.888800E+03	7.935187E-03	3.318143E-04
5.898764E+03	7.915861E-03	3.323840E-04
5.908729E+03	7.903668E-03	3.332481E-04
5.918693E+03	7.897088E-03	3.343459E-04
5.928657E+03	7.893725E-03	3.355784E-04
5.938621E+03	7.891154E-03	3.368435E-04
5.948585E+03	7.887017E-03	3.380405E-04
5.958549E+03	7.880004E-03	3.391120E-04
5.968513E+03	7.869890E-03	3.400466E-04
5.978477E+03	7.857563E-03	3.408812E-04
5.988442E+03	7.843543E-03	3.416372E-04
5.998406E+03	7.827508E-03	3.422993E-04
6.008370E+03	7.808721E-03	3.428342E-04
6.018334E+03	7.786826E-03	3.432246E-04
6.028298E+03	7.762282E-03	3.434891E-04
6.038262E+03	7.736233E-03	3.436770E-04
6.048226E+03	7.710894E-03	3.438863E-04
6.058191E+03	7.688875E-03	3.442342E-04
6.068155E+03	7.672822E-03	3.448412E-04
6.078119E+03	7.663758E-03	3.457565E-04
6.088083E+03	7.660532E-03	3.469316E-04
6.098047E+03	7.659912E-03	3.482224E-04
6.108011E+03	7.658559E-03	3.494779E-04
6.117975E+03	7.652804E-03	3.505297E-04
6.127939E+03	7.640123E-03	3.512593E-04
6.137904E+03	7.619384E-03	3.516109E-04
6.147868E+03	7.592428E-03	3.516657E-04
6.157832E+03	7.562331E-03	3.515634E-04
6.167796E+03	7.532813E-03	3.514760E-04
6.177760E+03	7.507049E-03	3.515524E-04
6.187724E+03	7.487344E-03	3.519031E-04
6.197688E+03	7.474344E-03	3.525614E-04
6.207652E+03	7.465946E-03	3.534312E-04
6.217617E+03	7.458811E-03	3.543563E-04
6.227581E+03	7.449213E-03	3.551596E-04
6.237545E+03	7.433649E-03	3.556724E-04
6.247509E+03	7.409581E-03	3.557698E-04
6.257473E+03	7.375239E-03	3.553621E-04
6.267437E+03	7.330481E-03	3.544373E-04
6.277401E+03	7.276656E-03	3.530558E-04
6.287365E+03	7.217524E-03	3.513961E-04
6.297330E+03	7.158886E-03	3.497389E-04
6.307294E+03	7.107319E-03	3.484071E-04
6.317258E+03	7.067970E-03	3.476572E-04
6.327222E+03	7.042428E-03	3.475741E-04
6.337186E+03	7.030564E-03	3.481582E-04
6.347150E+03	7.031817E-03	3.493885E-04
6.357114E+03	7.045539E-03	3.512393E-04
6.367079E+03	7.071350E-03	3.536977E-04
6.377043E+03	7.107845E-03	3.566995E-04
6.387007E+03	7.152136E-03	3.601043E-04
6.396971E+03	7.200399E-03	3.637229E-04
6.406935E+03	7.248899E-03	3.673676E-04
6.416899E+03	7.294503E-03	3.708793E-04
6.426863E+03	7.335266E-03	3.741571E-04
6.436827E+03	7.370148E-03	3.771452E-04
6.446792E+03	7.399773E-03	3.798727E-04
6.456756E+03	7.426487E-03	3.824576E-04
6.466720E+03	7.453450E-03	3.850618E-04
6.476684E+03	7.485370E-03	3.879290E-04
6.486648E+03	7.526738E-03	3.912952E-04
6.496612E+03	7.578966E-03	3.952384E-04
6.506576E+03	7.639515E-03	3.996308E-04
6.516540E+03	7.700901E-03	4.040838E-04
6.526505E+03	7.753392E-03	4.080851E-04
6.536469E+03	7.788791E-03	4.111979E-04
6.546433E+03	7.801092E-03	4.130954E-04
6.556397E+03	7.785891E-03	4.135328E-04
6.566361E+03	7.741127E-03	4.123869E-04
6.576325E+03	7.666115E-03	4.096071E-04
6.586289E+03	7.562490E-03	4.052665E-04
6.596253E+03	7.433807E-03	3.995428E-04
6.606218E+03	7.285410E-03	3.927122E-04
6.616182E+03	7.124436E-03	3.851515E-04
6.626146E+03	6.959621E-03	3.773285E-04
6.636110E+03	6.799517E-03	3.697067E-04
6.646074E+03	6.650599E-03	3.626415E-04
6.656038E+03	6.515358E-03	3.562746E-04
6.666002E+03	6.394446E-03	3.506480E-04
6.675967E+03	6.287987E-03	3.457755E-04
6.685931E+03	6.196419E-03	3.416881E-04
6.695895E+03	6.119988E-03	3.384062E-04
6.705859E+03	6.057608E-03	3.358766E-04
6.715823E+03	6.006166E-03	3.339328E-04
6.725787E+03	5.962043E-03	3.323780E-04
6.735751E+03	5.922236E-03	3.310477E-04
6.745715E+03	5.886051E-03	3.299050E-04
6.755680E+03	5.853958E-03	3.289779E-04
6.765644E+03	5.826441E-03	3.282957E-04
6.775608E+03	5.803379E-03	3.278534E-04
6.785572E+03	5.784155E-03	3.276182E-04
6.795536E+03	5.768352E-03	3.275681E-04
6.805500E+03	5.755674E-03	3.276878E-04
6.815464E+03	5.745431E-03	3.279392E-04
6.825428E+03	5.736635E-03	3.282668E-04
6.835393E+03	5.727182E-03	3.285507E-04
6.845357E+03	5.714987E-03	3.286706E-04
6.855321E+03	5.698414E-03	3.285310E-04
6.865285E+03	5.677658E-03	3.281414E-04
6.875249E+03	5.653819E-03	3.275637E-04
6.885213E+03	5.628185E-03	3.268716E-04
6.895177E+03	5.601867E-03	3.261288E-04
6.905141E+03	5.575620E-03	3.253793E-04
6.915106E+03	5.550107E-03	3.246619E-04
6.925070E+03	5.525581E-03	3.239919E-04
6.935034E+03	5.502079E-03	3.233718E-04
6.944998E+03	5.479576E-03	3.228007E-04
6.954962E+03	5.457925E-03	3.222702E-04
6.964926E+03	5.437230E-03	3.217871E-04
6.974890E+03	5.417618E-03	3.213593E-04
6.984855E+03	5.399360E-03	3.210033E-04
6.994819E+03	5.382813E-03	3.207411E-04
7.004783E+03	5.368181E-03	3.205855E-04
7.014747E+03	5.355742E-03	3.205540E-04
7.024711E+03	5.345588E-03	3.206531E-04
7.034675E+03	5.337783E-03	3.208875E-04
7.044639E+03	5.332196E-03	3.212502E-04
7.054603E+03	5.328402E-03	3.217167E-04
7.064568E+03	5.324496E-03	3.221722E-04
7.074532E+03	5.316677E-03	3.223864E-04
7.084496E+03	5.300597E-03	3.220935E-04
7.094460E+03	5.273681E-03	3.211336E-04
7.104424E+03	5.236860E-03	3.195594E-04
7.114388E+03	5.193233E-03	3.175568E-04
7.124352E+03	5.146506E-03	3.153504E-04
7.134316E+03	5.100603E-03	3.131799E-04
7.144281E+03	5.058543E-03	3.112315E-04
7.154245E+03	5.022597E-03	3.096469E-04
7.164209E+03	4.993385E-03	3.084667E-04
7.174173E+03	4.970639E-03	3.076769E-04
7.184137E+03	4.953252E-03	3.072114E-04
7.194101E+03	4.939528E-03	3.069667E-04
7.204065E+03	4.927597E-03	3.068279E-04
7.214029E+03	4.916029E-03	3.067065E-04
7.223994E+03	4.904592E-03	3.065881E-04
7.233958E+03	4.893694E-03	3.064984E-04
7.243922E+03	4.884744E-03	3.065261E-04
7.253886E+03	4.879376E-03	3.067747E-04
7.263850E+03	4.879287E-03	3.073524E-04
7.273814E+03	4.884825E-03	3.082832E-04
7.283778E+03	4.893526E-03	3.094132E-04
7.293743E+03	4.901811E-03	3.105170E-04
7.303707E+03	4.906191E-03	3.113731E-04
7.313671E+03	4.904748E-03	3.118580E-04
7.323635E+03	4.896341E-03	3.118971E-04
7.333599E+03	4.881072E-03	3.114947E-04
7.343563E+03	4.860362E-03	3.107391E-04
7.353527E+03	4.836068E-03	3.097476E-04
7.363491E+03	4.810928E-03	3.086946E-04
7.373456E+03	4.788445E-03	3.078051E-04
7.383420E+03	4.771483E-03	3.072645E-04
7.393384E+03	4.761575E-03	3.071737E-04
7.403348E+03	4.757548E-03	3.074595E-04
7.413312E+03	4.756898E-03	3.079617E-04
7.423276E+03	4.757004E-03	3.085117E-04
7.433240E+03	4.755877E-03	3.089805E-04
7.443204E+03	4.752238E-03	3.092845E-04
7.453169E+03	4.744628E-03	3.093279E-04
7.463133E+03	4.731190E-03	3.089881E-04
7.473097E+03	4.710643E-03	3.081794E-04
7.483061E+03	4.682559E-03	3.068713E-04
7.493025E+03	4.649180E-03	3.052086E-04
7.502989E+03	4.613603E-03	3.033933E-04
7.512953E+03	4.579514E-03	3.016676E-04
7.522917E+03	4.550525E-03	3.002702E-04
7.532882E+03	4.529495E-03	2.993920E-04
7.542846E+03	4.517759E-03	2.991242E-04
7.552810E+03	4.514355E-03	2.994061E-04
7.562774E+03	4.516998E-03	3.000889E-04
7.572738E+03	4.522570E-03	3.009671E-04
7.582702E+03	4.527938E-03	3.018331E-04
7.592666E+03	4.530014E-03	3.024805E-04
7.602631E+03	4.526441E-03	3.027507E-04
7.612595E+03	4.516477E-03	3.025922E-04
7.622559E+03	4.500497E-03	3.020281E-04
7.632523E+03	4.479970E-03	3.011551E-04
7.642487E+03	4.457858E-03	3.001712E-04
7.652451E+03	4.437293E-03	2.992873E-04
7.662415E+03	4.420520E-03	2.986555E-04
7.672379E+03	4.407716E-03	2.982892E-04
7.682344E+03	4.398135E-03	2.981394E-04
7.692308E+03	4.390193E-03	2.980995E-04
7.702272E+03	4.383064E-03	2.981141E-04
7.712236E+03	4.375664E-03	2.981096E-04
7.722200E+03	4.367480E-03	2.980511E-04
7.732164E+03	4.358516E-03	2.979385E-04
