#wls	flux	fluxerr
1.594261E+03	1.675329E-03	1.619414E-04
1.634117E+03	1.568419E-03	1.506047E-04
1.673974E+03	1.463786E-03	1.396018E-04
1.713830E+03	1.362457E-03	1.290296E-04
1.753687E+03	1.265177E-03	1.189554E-04
1.793543E+03	1.172282E-03	1.094063E-04
1.833400E+03	1.084007E-03	1.003988E-04
1.873256E+03	1.000543E-03	9.194404E-05
1.913113E+03	9.222688E-04	8.406978E-05
1.952969E+03	8.499639E-04	7.683823E-05
1.992826E+03	7.850507E-04	7.036650E-05
2.032682E+03	7.296895E-04	6.483232E-05
2.072539E+03	6.865466E-04	6.045042E-05
2.112395E+03	6.585040E-04	5.744483E-05
2.152252E+03	6.483357E-04	5.601953E-05
2.192108E+03	6.574356E-04	5.624969E-05
2.231965E+03	6.857513E-04	5.808146E-05
2.271821E+03	7.326354E-04	6.140950E-05
2.311678E+03	7.973752E-04	6.612351E-05
2.351534E+03	8.793028E-04	7.211763E-05
2.391391E+03	9.778058E-04	7.929127E-05
2.431248E+03	1.092479E-03	8.756101E-05
2.471104E+03	1.223345E-03	9.687735E-05
2.510961E+03	1.371006E-03	1.072343E-04
2.550817E+03	1.536316E-03	1.186413E-04
2.590674E+03	1.718990E-03	1.310161E-04
2.630530E+03	1.916420E-03	1.441011E-04
2.670387E+03	2.128166E-03	1.578088E-04
2.710243E+03	2.355862E-03	1.722037E-04
2.750100E+03	2.598573E-03	1.871570E-04
2.789956E+03	2.853361E-03	2.024006E-04
2.829813E+03	3.116396E-03	2.176159E-04
2.869669E+03	3.383653E-03	2.324870E-04
2.909526E+03	3.651167E-03	2.467203E-04
2.949382E+03	3.915082E-03	2.600475E-04
2.989239E+03	4.171638E-03	2.722244E-04
2.999203E+03	4.234203E-03	2.750631E-04
3.009167E+03	4.296017E-03	2.778126E-04
3.019131E+03	4.356987E-03	2.804674E-04
3.029095E+03	4.417161E-03	2.830312E-04
3.039059E+03	4.476510E-03	2.855027E-04
3.049024E+03	4.535170E-03	2.878911E-04
3.058988E+03	4.593015E-03	2.901889E-04
3.068952E+03	4.649920E-03	2.923890E-04
3.078916E+03	4.705882E-03	2.944918E-04
3.088880E+03	4.760737E-03	2.964880E-04
3.098844E+03	4.814491E-03	2.983786E-04
3.108808E+03	4.867025E-03	3.001573E-04
3.118772E+03	4.918223E-03	3.018181E-04
3.128737E+03	4.968098E-03	3.033627E-04
3.138701E+03	5.016495E-03	3.047831E-04
3.148665E+03	5.063439E-03	3.060818E-04
3.158629E+03	5.108779E-03	3.072511E-04
3.168593E+03	5.152545E-03	3.082943E-04
3.178557E+03	5.194596E-03	3.092044E-04
3.188521E+03	5.234975E-03	3.099853E-04
3.198485E+03	5.273546E-03	3.106307E-04
3.208450E+03	5.310363E-03	3.111455E-04
3.218414E+03	5.345307E-03	3.115241E-04
3.228378E+03	5.378444E-03	3.117722E-04
3.238342E+03	5.409664E-03	3.118852E-04
3.248306E+03	5.439055E-03	3.118699E-04
3.258270E+03	5.466524E-03	3.117228E-04
3.268234E+03	5.492178E-03	3.114516E-04
3.278198E+03	5.515940E-03	3.110540E-04
3.288163E+03	5.537943E-03	3.105390E-04
3.298127E+03	5.558136E-03	3.099057E-04
3.308091E+03	5.576679E-03	3.091645E-04
3.318055E+03	5.593542E-03	3.083157E-04
3.328019E+03	5.608921E-03	3.073714E-04
3.337983E+03	5.622819E-03	3.063334E-04
3.347947E+03	5.635464E-03	3.052155E-04
3.357912E+03	5.646949E-03	3.040240E-04
3.367876E+03	5.657389E-03	3.027664E-04
3.377840E+03	5.667076E-03	3.014591E-04
3.387804E+03	5.676119E-03	3.001088E-04
3.397768E+03	5.684863E-03	2.987343E-04
3.407732E+03	5.693526E-03	2.973475E-04
3.417696E+03	5.702425E-03	2.959650E-04
3.427660E+03	5.711868E-03	2.946025E-04
3.437625E+03	5.722396E-03	2.932874E-04
3.447589E+03	5.734509E-03	2.920442E-04
3.457553E+03	5.748930E-03	2.909080E-04
3.467517E+03	5.766629E-03	2.899255E-04
3.477481E+03	5.788746E-03	2.891506E-04
3.487445E+03	5.816572E-03	2.886432E-04
3.497409E+03	5.850942E-03	2.884389E-04
3.507373E+03	5.892206E-03	2.885487E-04
3.517338E+03	5.940147E-03	2.889553E-04
3.527302E+03	5.994150E-03	2.896226E-04
3.537266E+03	6.053246E-03	2.904982E-04
3.547230E+03	6.116720E-03	2.915431E-04
3.557194E+03	6.184107E-03	2.927312E-04
3.567158E+03	6.255395E-03	2.940581E-04
3.577122E+03	6.330761E-03	2.955285E-04
3.587086E+03	6.410743E-03	2.971633E-04
3.597051E+03	6.495868E-03	2.989826E-04
3.607015E+03	6.586276E-03	3.009878E-04
3.616979E+03	6.682016E-03	3.031761E-04
3.626943E+03	6.782626E-03	3.055218E-04
3.636907E+03	6.887464E-03	3.079915E-04
3.646871E+03	6.995815E-03	3.105497E-04
3.656835E+03	7.107085E-03	3.131670E-04
3.666800E+03	7.220962E-03	3.158272E-04
3.676764E+03	7.337498E-03	3.185304E-04
3.686728E+03	7.457098E-03	3.212918E-04
3.696692E+03	7.580421E-03	3.241370E-04
3.706656E+03	7.708284E-03	3.270974E-04
3.716620E+03	7.841162E-03	3.301891E-04
3.726584E+03	7.979502E-03	3.334264E-04
3.736548E+03	8.123033E-03	3.367933E-04
3.746513E+03	8.270931E-03	3.402515E-04
3.756477E+03	8.421673E-03	3.437353E-04
3.766441E+03	8.573015E-03	3.471517E-04
3.776405E+03	8.722045E-03	3.503840E-04
3.786369E+03	8.865319E-03	3.532979E-04
3.796333E+03	8.999204E-03	3.557562E-04
3.806297E+03	9.119902E-03	3.576199E-04
3.816261E+03	9.224546E-03	3.587909E-04
3.826226E+03	9.311127E-03	3.592080E-04
3.836190E+03	9.379298E-03	3.588759E-04
3.846154E+03	9.430467E-03	3.578664E-04
3.856118E+03	9.467753E-03	3.563138E-04
3.866082E+03	9.495159E-03	3.543813E-04
3.876046E+03	9.517567E-03	3.522597E-04
3.886010E+03	9.539475E-03	3.501197E-04
3.895974E+03	9.564802E-03	3.481052E-04
3.905939E+03	9.596456E-03	3.463190E-04
3.915903E+03	9.636194E-03	3.448190E-04
3.925867E+03	9.684757E-03	3.436254E-04
3.935831E+03	9.741738E-03	3.427169E-04
3.945795E+03	9.806037E-03	3.420488E-04
3.955759E+03	9.875984E-03	3.415583E-04
3.965723E+03	9.949557E-03	3.411724E-04
3.975688E+03	1.002462E-02	3.408169E-04
3.985652E+03	1.009931E-02	3.404292E-04
3.995616E+03	1.017201E-02	3.399572E-04
4.005580E+03	1.024183E-02	3.393755E-04
4.015544E+03	1.030871E-02	3.386855E-04
4.025508E+03	1.037264E-02	3.378918E-04
4.035472E+03	1.043387E-02	3.370069E-04
4.045436E+03	1.049161E-02	3.360092E-04
4.055401E+03	1.054419E-02	3.348507E-04
4.065365E+03	1.058876E-02	3.334477E-04
4.075329E+03	1.062257E-02	3.317229E-04
4.085293E+03	1.064295E-02	3.296041E-04
4.095257E+03	1.064845E-02	3.270586E-04
4.105221E+03	1.063861E-02	3.240856E-04
4.115185E+03	1.061481E-02	3.207403E-04
4.125149E+03	1.057958E-02	3.171096E-04
4.135114E+03	1.053625E-02	3.133021E-04
4.145078E+03	1.048914E-02	3.094529E-04
4.155042E+03	1.044238E-02	3.056859E-04
4.165006E+03	1.039972E-02	3.021112E-04
4.174970E+03	1.036422E-02	2.988152E-04
4.184934E+03	1.033775E-02	2.958481E-04
4.194898E+03	1.032142E-02	2.932370E-04
4.204862E+03	1.031588E-02	2.909956E-04
4.214827E+03	1.032149E-02	2.891289E-04
4.224791E+03	1.033890E-02	2.876505E-04
4.234755E+03	1.036912E-02	2.865839E-04
4.244719E+03	1.041282E-02	2.859424E-04
4.254683E+03	1.047004E-02	2.857230E-04
4.264647E+03	1.053898E-02	2.858726E-04
4.274611E+03	1.061616E-02	2.862951E-04
4.284576E+03	1.069554E-02	2.868275E-04
4.294540E+03	1.076860E-02	2.872457E-04
4.304504E+03	1.082504E-02	2.872821E-04
4.314468E+03	1.085364E-02	2.866498E-04
4.324432E+03	1.084341E-02	2.850733E-04
4.334396E+03	1.078627E-02	2.823565E-04
4.344360E+03	1.068049E-02	2.784703E-04
4.354324E+03	1.053426E-02	2.736410E-04
4.364289E+03	1.036609E-02	2.683568E-04
4.374253E+03	1.019686E-02	2.631577E-04
4.384217E+03	1.004109E-02	2.584123E-04
4.394181E+03	9.904564E-03	2.542608E-04
4.404145E+03	9.788450E-03	2.507246E-04
4.414109E+03	9.692145E-03	2.477805E-04
4.424073E+03	9.614111E-03	2.453825E-04
4.434037E+03	9.552718E-03	2.434833E-04
4.444002E+03	9.506115E-03	2.420311E-04
4.453966E+03	9.472828E-03	2.409843E-04
4.463930E+03	9.451509E-03	2.403054E-04
4.473894E+03	9.441412E-03	2.399726E-04
4.483858E+03	9.441981E-03	2.399694E-04
4.493822E+03	9.453157E-03	2.402925E-04
4.503786E+03	9.474904E-03	2.409393E-04
4.513750E+03	9.506931E-03	2.419013E-04
4.523715E+03	9.549174E-03	2.431759E-04
4.533679E+03	9.600651E-03	2.447374E-04
4.543643E+03	9.660036E-03	2.465517E-04
4.553607E+03	9.725528E-03	2.485724E-04
4.563571E+03	9.794566E-03	2.507335E-04
4.573535E+03	9.864430E-03	2.529649E-04
4.583499E+03	9.931570E-03	2.551743E-04
4.593464E+03	9.992858E-03	2.572799E-04
4.603428E+03	1.004511E-02	2.591973E-04
4.613392E+03	1.008559E-02	2.608531E-04
4.623356E+03	1.011218E-02	2.621886E-04
4.633320E+03	1.012380E-02	2.631717E-04
4.643284E+03	1.012050E-02	2.637992E-04
4.653248E+03	1.010317E-02	2.640892E-04
4.663212E+03	1.007333E-02	2.640770E-04
4.673177E+03	1.003275E-02	2.638041E-04
4.683141E+03	9.983436E-03	2.633192E-04
4.693105E+03	9.927699E-03	2.626794E-04
4.703069E+03	9.867593E-03	2.619357E-04
4.713033E+03	9.805759E-03	2.611558E-04
4.722997E+03	9.744905E-03	2.604097E-04
4.732961E+03	9.688215E-03	2.597815E-04
4.742925E+03	9.639041E-03	2.593610E-04
4.752890E+03	9.600901E-03	2.592441E-04
4.762854E+03	9.577687E-03	2.595379E-04
4.772818E+03	9.572902E-03	2.603409E-04
4.782782E+03	9.588945E-03	2.617231E-04
4.792746E+03	9.626760E-03	2.637154E-04
4.802710E+03	9.684649E-03	2.662770E-04
4.812674E+03	9.758999E-03	2.693136E-04
4.822639E+03	9.844851E-03	2.726921E-04
4.832603E+03	9.935986E-03	2.762426E-04
4.842567E+03	1.002641E-02	2.797992E-04
4.852531E+03	1.011038E-02	2.831999E-04
4.862495E+03	1.018335E-02	2.863147E-04
4.872459E+03	1.024152E-02	2.890321E-04
4.882423E+03	1.028280E-02	2.912880E-04
4.892387E+03	1.030648E-02	2.930560E-04
4.902352E+03	1.031313E-02	2.943468E-04
4.912316E+03	1.030497E-02	2.952177E-04
4.922280E+03	1.028462E-02	2.957394E-04
4.932244E+03	1.025553E-02	2.960065E-04
4.942208E+03	1.022090E-02	2.961091E-04
4.952172E+03	1.018325E-02	2.961179E-04
4.962136E+03	1.014444E-02	2.960867E-04
4.972100E+03	1.010474E-02	2.960221E-04
4.982065E+03	1.006361E-02	2.959082E-04
4.992029E+03	1.001953E-02	2.956996E-04
5.001993E+03	9.970589E-03	2.953384E-04
5.011957E+03	9.915038E-03	2.947711E-04
5.021921E+03	9.851929E-03	2.939673E-04
5.031885E+03	9.781576E-03	2.929338E-04
5.041849E+03	9.706306E-03	2.917383E-04
5.051813E+03	9.630309E-03	2.905056E-04
5.061778E+03	9.558930E-03	2.893976E-04
5.071742E+03	9.498442E-03	2.886062E-04
5.081706E+03	9.454276E-03	2.883010E-04
5.091670E+03	9.429838E-03	2.885917E-04
5.101634E+03	9.425679E-03	2.895019E-04
5.111598E+03	9.439409E-03	2.909649E-04
5.121562E+03	9.466273E-03	2.928399E-04
5.131527E+03	9.499999E-03	2.949368E-04
5.141491E+03	9.534322E-03	2.970630E-04
5.151455E+03	9.563260E-03	2.990322E-04
5.161419E+03	9.582171E-03	3.006971E-04
5.171383E+03	9.588461E-03	3.019732E-04
5.181347E+03	9.580924E-03	3.028185E-04
5.191311E+03	9.559896E-03	3.032394E-04
5.201275E+03	9.527262E-03	3.032918E-04
5.211240E+03	9.485216E-03	3.030421E-04
5.221204E+03	9.436771E-03	3.025841E-04
5.231168E+03	9.384453E-03	3.019973E-04
5.241132E+03	9.330913E-03	3.013663E-04
5.251096E+03	9.277941E-03	3.007492E-04
5.261060E+03	9.226756E-03	3.001861E-04
5.271024E+03	9.178393E-03	2.997118E-04
5.280988E+03	9.133128E-03	2.993369E-04
5.290953E+03	9.091069E-03	2.990664E-04
5.300917E+03	9.052173E-03	2.989005E-04
5.310881E+03	9.016227E-03	2.988337E-04
5.320845E+03	8.983317E-03	2.988703E-04
5.330809E+03	8.953253E-03	2.990057E-04
5.340773E+03	8.925454E-03	2.992218E-04
5.350737E+03	8.899365E-03	2.995013E-04
5.360701E+03	8.873771E-03	2.998043E-04
5.370666E+03	8.846780E-03	3.000673E-04
5.380630E+03	8.815140E-03	3.001793E-04
5.390594E+03	8.774958E-03	3.000059E-04
5.400558E+03	8.721239E-03	2.993721E-04
5.410522E+03	8.649741E-03	2.981257E-04
5.420486E+03	8.559822E-03	2.962365E-04
5.430450E+03	8.456413E-03	2.938673E-04
5.440415E+03	8.347698E-03	2.912969E-04
5.450379E+03	8.241956E-03	2.888123E-04
5.460343E+03	8.146145E-03	2.866585E-04
5.470307E+03	8.064909E-03	2.850033E-04
5.480271E+03	8.000364E-03	2.839275E-04
5.490235E+03	7.951933E-03	2.834174E-04
5.500199E+03	7.917075E-03	2.833888E-04
5.510163E+03	7.892203E-03	2.837183E-04
5.520128E+03	7.873478E-03	2.842715E-04
5.530092E+03	7.856994E-03	2.849091E-04
5.540056E+03	7.840003E-03	2.855318E-04
5.550020E+03	7.820536E-03	2.860667E-04
5.559984E+03	7.798020E-03	2.864911E-04
5.569948E+03	7.772641E-03	2.868102E-04
5.579912E+03	7.745778E-03	2.870730E-04
5.589876E+03	7.718868E-03	2.873319E-04
5.599841E+03	7.693442E-03	2.876437E-04
5.609805E+03	7.670698E-03	2.880538E-04
5.619769E+03	7.651424E-03	2.885927E-04
5.629733E+03	7.635625E-03	2.892620E-04
5.639697E+03	7.622915E-03	2.900484E-04
5.649661E+03	7.612569E-03	2.909253E-04
5.659625E+03	7.603823E-03	2.918643E-04
5.669589E+03	7.595653E-03	2.928264E-04
5.679554E+03	7.587642E-03	2.937953E-04
5.689518E+03	7.579440E-03	2.947574E-04
5.699482E+03	7.570777E-03	2.957015E-04
5.709446E+03	7.562062E-03	2.966433E-04
5.719410E+03	7.553557E-03	2.975928E-04
5.729374E+03	7.545694E-03	2.985668E-04
5.739338E+03	7.538935E-03	2.995840E-04
5.749303E+03	7.533314E-03	3.006457E-04
5.759267E+03	7.528640E-03	3.017448E-04
5.769231E+03	7.524333E-03	3.028582E-04
5.779195E+03	7.519538E-03	3.039513E-04
5.789159E+03	7.512951E-03	3.049706E-04
5.799123E+03	7.503355E-03	3.058655E-04
5.809087E+03	7.489916E-03	3.066001E-04
5.819051E+03	7.472084E-03	3.071495E-04
5.829016E+03	7.450047E-03	3.075191E-04
5.838980E+03	7.424729E-03	3.077448E-04
5.848944E+03	7.397312E-03	3.078741E-04
5.858908E+03	7.369319E-03	3.079692E-04
5.868872E+03	7.342214E-03	3.080913E-04
5.878836E+03	7.317282E-03	3.082947E-04
5.888800E+03	7.295113E-03	3.086055E-04
5.898764E+03	7.275987E-03	3.090367E-04
5.908729E+03	7.259461E-03	3.095710E-04
5.918693E+03	7.244795E-03	3.101778E-04
5.928657E+03	7.231011E-03	3.108160E-04
5.938621E+03	7.217172E-03	3.114456E-04
5.948585E+03	7.202258E-03	3.120222E-04
5.958549E+03	7.185693E-03	3.125201E-04
5.968513E+03	7.166980E-03	3.129168E-04
5.978477E+03	7.145973E-03	3.132046E-04
5.988442E+03	7.122794E-03	3.133878E-04
5.998406E+03	7.097347E-03	3.134609E-04
6.008370E+03	7.070165E-03	3.134464E-04
6.018334E+03	7.041261E-03	3.133441E-04
6.028298E+03	7.011360E-03	3.131853E-04
6.038262E+03	6.981133E-03	3.129997E-04
6.048226E+03	6.951231E-03	3.128164E-04
6.058191E+03	6.922359E-03	3.126674E-04
6.068155E+03	6.894991E-03	3.125747E-04
6.078119E+03	6.869309E-03	3.125473E-04
6.088083E+03	6.844932E-03	3.125688E-04
6.098047E+03	6.820884E-03	3.125950E-04
6.108011E+03	6.796428E-03	3.125921E-04
6.117975E+03	6.770685E-03	3.125196E-04
6.127939E+03	6.742982E-03	3.123456E-04
6.137904E+03	6.713248E-03	3.120659E-04
6.147868E+03	6.682028E-03	3.117050E-04
6.157832E+03	6.650062E-03	3.112967E-04
6.167796E+03	6.618347E-03	3.108877E-04
6.177760E+03	6.587874E-03	3.105248E-04
6.187724E+03	6.559052E-03	3.102281E-04
6.197688E+03	6.531964E-03	3.100024E-04
6.207652E+03	6.505929E-03	3.098160E-04
6.217617E+03	6.479914E-03	3.096203E-04
6.227581E+03	6.452763E-03	3.093599E-04
6.237545E+03	6.423156E-03	3.089709E-04
6.247509E+03	6.390286E-03	3.084132E-04
6.257473E+03	6.353675E-03	3.076621E-04
6.267437E+03	6.313728E-03	3.067356E-04
6.277401E+03	6.271378E-03	3.056777E-04
6.287365E+03	6.228304E-03	3.045695E-04
6.297330E+03	6.186696E-03	3.035180E-04
6.307294E+03	6.148616E-03	3.026257E-04
6.317258E+03	6.116057E-03	3.019927E-04
6.327222E+03	6.090278E-03	3.016842E-04
6.337186E+03	6.072025E-03	3.017403E-04
6.347150E+03	6.061537E-03	3.021768E-04
6.357114E+03	6.058310E-03	3.029722E-04
6.367079E+03	6.061562E-03	3.040907E-04
6.377043E+03	6.069879E-03	3.054645E-04
6.387007E+03	6.081726E-03	3.070183E-04
6.396971E+03	6.095195E-03	3.086572E-04
6.406935E+03	6.108648E-03	3.102985E-04
6.416899E+03	6.120426E-03	3.118576E-04
6.426863E+03	6.129917E-03	3.133023E-04
6.436827E+03	6.136643E-03	3.146068E-04
6.446792E+03	6.141049E-03	3.157927E-04
6.456756E+03	6.144327E-03	3.169203E-04
6.466720E+03	6.147906E-03	3.180628E-04
6.476684E+03	6.153456E-03	3.193069E-04
6.486648E+03	6.162503E-03	3.207328E-04
6.496612E+03	6.175827E-03	3.223827E-04
6.506576E+03	6.193015E-03	3.242370E-04
6.516540E+03	6.212280E-03	3.262034E-04
6.526505E+03	6.230633E-03	3.281254E-04
6.536469E+03	6.244401E-03	3.298083E-04
6.546433E+03	6.250375E-03	3.310802E-04
6.556397E+03	6.245796E-03	3.317906E-04
6.566361E+03	6.228898E-03	3.318406E-04
6.576325E+03	6.199038E-03	3.311902E-04
6.586289E+03	6.156510E-03	3.298491E-04
6.596253E+03	6.102519E-03	3.278764E-04
6.606218E+03	6.039267E-03	3.253855E-04
6.616182E+03	5.969722E-03	3.225325E-04
6.626146E+03	5.896965E-03	3.194816E-04
6.636110E+03	5.824235E-03	3.164075E-04
6.646074E+03	5.754160E-03	3.134532E-04
6.656038E+03	5.688967E-03	3.107418E-04
6.666002E+03	5.630002E-03	3.083490E-04
6.675967E+03	5.578110E-03	3.063241E-04
6.685931E+03	5.533709E-03	3.046933E-04
6.695895E+03	5.496647E-03	3.034515E-04
6.705859E+03	5.466264E-03	3.025653E-04
6.715823E+03	5.441692E-03	3.019895E-04
6.725787E+03	5.422036E-03	3.016769E-04
6.735751E+03	5.406248E-03	3.015710E-04
6.745715E+03	5.393648E-03	3.016356E-04
6.755680E+03	5.383561E-03	3.018340E-04
6.765644E+03	5.375627E-03	3.021472E-04
6.775608E+03	5.369335E-03	3.025471E-04
6.785572E+03	5.364223E-03	3.030085E-04
6.795536E+03	5.359863E-03	3.035075E-04
6.805500E+03	5.355615E-03	3.040082E-04
6.815464E+03	5.350541E-03	3.044571E-04
6.825428E+03	5.344137E-03	3.048252E-04
6.835393E+03	5.335386E-03	3.050538E-04
6.845357E+03	5.323592E-03	3.051020E-04
6.855321E+03	5.308420E-03	3.049494E-04
6.865285E+03	5.289654E-03	3.045821E-04
6.875249E+03	5.267500E-03	3.040108E-04
6.885213E+03	5.242521E-03	3.032664E-04
6.895177E+03	5.215311E-03	3.023827E-04
6.905141E+03	5.186406E-03	3.013896E-04
6.915106E+03	5.156414E-03	3.003222E-04
6.925070E+03	5.125987E-03	2.992180E-04
6.935034E+03	5.095592E-03	2.981044E-04
6.944998E+03	5.065430E-03	2.969931E-04
6.954962E+03	5.036154E-03	2.959226E-04
6.964926E+03	5.007766E-03	2.948937E-04
6.974890E+03	4.980833E-03	2.939400E-04
6.984855E+03	4.955280E-03	2.930579E-04
6.994819E+03	4.931455E-03	2.922684E-04
7.004783E+03	4.909418E-03	2.915760E-04
7.014747E+03	4.889004E-03	2.909714E-04
7.024711E+03	4.869979E-03	2.904415E-04
7.034675E+03	4.852020E-03	2.899675E-04
7.044639E+03	4.834356E-03	2.895037E-04
7.054603E+03	4.816176E-03	2.890015E-04
7.064568E+03	4.796272E-03	2.883884E-04
7.074532E+03	4.773612E-03	2.876014E-04
7.084496E+03	4.747193E-03	2.865791E-04
7.094460E+03	4.716616E-03	2.852962E-04
7.104424E+03	4.682234E-03	2.837727E-04
7.114388E+03	4.644935E-03	2.820611E-04
7.124352E+03	4.605955E-03	2.802358E-04
7.134316E+03	4.566807E-03	2.783886E-04
7.144281E+03	4.529010E-03	2.766122E-04
7.154245E+03	4.493600E-03	2.749707E-04
7.164209E+03	4.461392E-03	2.735149E-04
7.174173E+03	4.432586E-03	2.722583E-04
7.184137E+03	4.407118E-03	2.711982E-04
7.194101E+03	4.384779E-03	2.703231E-04
7.204065E+03	4.365180E-03	2.696101E-04
7.214029E+03	4.347896E-03	2.690337E-04
7.223994E+03	4.332730E-03	2.685829E-04
7.233958E+03	4.319754E-03	2.682627E-04
7.243922E+03	4.308937E-03	2.680720E-04
7.253886E+03	4.300409E-03	2.680199E-04
7.263850E+03	4.293915E-03	2.680911E-04
7.273814E+03	4.288983E-03	2.682569E-04
7.283778E+03	4.284907E-03	2.684737E-04
7.293743E+03	4.280587E-03	2.686727E-04
7.303707E+03	4.275126E-03	2.687977E-04
7.313671E+03	4.267675E-03	2.687947E-04
7.323635E+03	4.257986E-03	2.686476E-04
7.333599E+03	4.246110E-03	2.683590E-04
7.343563E+03	4.232769E-03	2.679739E-04
7.353527E+03	4.218869E-03	2.675495E-04
7.363491E+03	4.205624E-03	2.671626E-04
7.373456E+03	4.194327E-03	2.668960E-04
7.383420E+03	4.185827E-03	2.668045E-04
7.393384E+03	4.180731E-03	2.669276E-04
7.403348E+03	4.178925E-03	2.672595E-04
7.413312E+03	4.179916E-03	2.677696E-04
7.423276E+03	4.182976E-03	2.684122E-04
7.433240E+03	4.187116E-03	2.691245E-04
7.443204E+03	4.191140E-03	2.698299E-04
7.453169E+03	4.194449E-03	2.704898E-04
7.463133E+03	4.196098E-03	2.710431E-04
7.473097E+03	4.195994E-03	2.714833E-04
7.483061E+03	4.194295E-03	2.718201E-04
7.493025E+03	4.191523E-03	2.720871E-04
7.502989E+03	4.188640E-03	2.723465E-04
7.512953E+03	4.186849E-03	2.726768E-04
7.522917E+03	4.187033E-03	2.731360E-04
7.532882E+03	4.189807E-03	2.737650E-04
7.542846E+03	4.195326E-03	2.745749E-04
7.552810E+03	4.203021E-03	2.755293E-04
7.562774E+03	4.211558E-03	2.765416E-04
7.572738E+03	4.219723E-03	2.775322E-04
7.582702E+03	4.225574E-03	2.783731E-04
7.592666E+03	4.227805E-03	2.789776E-04
7.602631E+03	4.225309E-03	2.792715E-04
7.612595E+03	4.217436E-03	2.792102E-04
7.622559E+03	4.204271E-03	2.787977E-04
7.632523E+03	4.186461E-03	2.780755E-04
7.642487E+03	4.165151E-03	2.771181E-04
7.652451E+03	4.141530E-03	2.760039E-04
7.662415E+03	4.116589E-03	2.747982E-04
7.672379E+03	4.091167E-03	2.735568E-04
7.682344E+03	4.065890E-03	2.723215E-04
7.692308E+03	4.040919E-03	2.711034E-04
7.702272E+03	4.016364E-03	2.699098E-04
7.712236E+03	3.992356E-03	2.687499E-04
7.722200E+03	3.968824E-03	2.676190E-04
7.732164E+03	3.945914E-03	2.665273E-04
