#wls	flux	fluxerr
1.594261E+03	1.914611E-06	3.306574E-07
1.634117E+03	1.804874E-06	3.115867E-07
1.673974E+03	1.702166E-06	2.937393E-07
1.713830E+03	1.606974E-06	2.771988E-07
1.753687E+03	1.519492E-06	2.619973E-07
1.793543E+03	1.439745E-06	2.481382E-07
1.833400E+03	1.367183E-06	2.355254E-07
1.873256E+03	1.301627E-06	2.241270E-07
1.913113E+03	1.242498E-06	2.138418E-07
1.952969E+03	1.189638E-06	2.046418E-07
1.992826E+03	1.143378E-06	1.965824E-07
2.032682E+03	1.105434E-06	1.899569E-07
2.072539E+03	1.079238E-06	1.853530E-07
2.112395E+03	1.069720E-06	1.836138E-07
2.152252E+03	1.081637E-06	1.855501E-07
2.192108E+03	1.117691E-06	1.916186E-07
2.231965E+03	1.177629E-06	2.017679E-07
2.271821E+03	1.259707E-06	2.156914E-07
2.311678E+03	1.362253E-06	2.330944E-07
2.351534E+03	1.484633E-06	2.538603E-07
2.391391E+03	1.627678E-06	2.781229E-07
2.431248E+03	1.792725E-06	3.061014E-07
2.471104E+03	1.982217E-06	3.382023E-07
2.510961E+03	2.198422E-06	3.748007E-07
2.550817E+03	2.444036E-06	4.163428E-07
2.590674E+03	2.721547E-06	4.632371E-07
2.630530E+03	3.033880E-06	5.159642E-07
2.670387E+03	3.383173E-06	5.748685E-07
2.710243E+03	3.772616E-06	6.404706E-07
2.750100E+03	4.204586E-06	7.131507E-07
2.789956E+03	4.682210E-06	7.934128E-07
2.829813E+03	5.208377E-06	8.817180E-07
2.869669E+03	5.786824E-06	9.786668E-07
2.909526E+03	6.421485E-06	1.084890E-06
2.949382E+03	7.116872E-06	1.201111E-06
2.989239E+03	7.877807E-06	1.328100E-06
2.999203E+03	8.078931E-06	1.361634E-06
3.009167E+03	8.284658E-06	1.395922E-06
3.019131E+03	8.495103E-06	1.430984E-06
3.029095E+03	8.710927E-06	1.466929E-06
3.039059E+03	8.931516E-06	1.503653E-06
3.049024E+03	9.157709E-06	1.541297E-06
3.058988E+03	9.389605E-06	1.579877E-06
3.068952E+03	9.627304E-06	1.619407E-06
3.078916E+03	9.870922E-06	1.659907E-06
3.088880E+03	1.012058E-05	1.701396E-06
3.098844E+03	1.037641E-05	1.743894E-06
3.108808E+03	1.063854E-05	1.787424E-06
3.118772E+03	1.090714E-05	1.832010E-06
3.128737E+03	1.118237E-05	1.877679E-06
3.138701E+03	1.146439E-05	1.924458E-06
3.148665E+03	1.175339E-05	1.972376E-06
3.158629E+03	1.204956E-05	2.021464E-06
3.168593E+03	1.235311E-05	2.071755E-06
3.178557E+03	1.266424E-05	2.123284E-06
3.188521E+03	1.298320E-05	2.176088E-06
3.198485E+03	1.330947E-05	2.230079E-06
3.208450E+03	1.364476E-05	2.285544E-06
3.218414E+03	1.398860E-05	2.342401E-06
3.228378E+03	1.434127E-05	2.400695E-06
3.238342E+03	1.470221E-05	2.460332E-06
3.248306E+03	1.507332E-05	2.521627E-06
3.258270E+03	1.545409E-05	2.584493E-06
3.268234E+03	1.584480E-05	2.648975E-06
3.278198E+03	1.624485E-05	2.714971E-06
3.288163E+03	1.665631E-05	2.782823E-06
3.298127E+03	1.707763E-05	2.852272E-06
3.308091E+03	1.751098E-05	2.923679E-06
3.318055E+03	1.795568E-05	2.996925E-06
3.328019E+03	1.841098E-05	3.071885E-06
3.337983E+03	1.887915E-05	3.148933E-06
3.347947E+03	1.935830E-05	3.227756E-06
3.357912E+03	1.985074E-05	3.308731E-06
3.367876E+03	2.035445E-05	3.391524E-06
3.377840E+03	2.087176E-05	3.476517E-06
3.387804E+03	2.140043E-05	3.563334E-06
3.397768E+03	2.194280E-05	3.652363E-06
3.407732E+03	2.249637E-05	3.743188E-06
3.417696E+03	2.306220E-05	3.835978E-06
3.427660E+03	2.364134E-05	3.930907E-06
3.437625E+03	2.423084E-05	4.027483E-06
3.447589E+03	2.483154E-05	4.125840E-06
3.457553E+03	2.544430E-05	4.226123E-06
3.467517E+03	2.606560E-05	4.327739E-06
3.477481E+03	2.669597E-05	4.430779E-06
3.487445E+03	2.733444E-05	4.535077E-06
3.497409E+03	2.798140E-05	4.640695E-06
3.507373E+03	2.863249E-05	4.746910E-06
3.517338E+03	2.928796E-05	4.853762E-06
3.527302E+03	2.994714E-05	4.961137E-06
3.537266E+03	3.061127E-05	5.069240E-06
3.547230E+03	3.128460E-05	5.178773E-06
3.557194E+03	3.197361E-05	5.290805E-06
3.567158E+03	3.268740E-05	5.406840E-06
3.577122E+03	3.342939E-05	5.527435E-06
3.587086E+03	3.420740E-05	5.653879E-06
3.597051E+03	3.502491E-05	5.786737E-06
3.607015E+03	3.588135E-05	5.925907E-06
3.616979E+03	3.677233E-05	6.070658E-06
3.626943E+03	3.768971E-05	6.219637E-06
3.636907E+03	3.862149E-05	6.370857E-06
3.646871E+03	3.955111E-05	6.521588E-06
3.656835E+03	4.046955E-05	6.670340E-06
3.666800E+03	4.136475E-05	6.815128E-06
3.676764E+03	4.223078E-05	6.954978E-06
3.686728E+03	4.306688E-05	7.089772E-06
3.696692E+03	4.387863E-05	7.220434E-06
3.706656E+03	4.467607E-05	7.348617E-06
3.716620E+03	4.546783E-05	7.475744E-06
3.726584E+03	4.626925E-05	7.604335E-06
3.736548E+03	4.708630E-05	7.735369E-06
3.746513E+03	4.792443E-05	7.869737E-06
3.756477E+03	4.878218E-05	8.007196E-06
3.766441E+03	4.966286E-05	8.148280E-06
3.776405E+03	5.055971E-05	8.291879E-06
3.786369E+03	5.146451E-05	8.436639E-06
3.796333E+03	5.237704E-05	8.582523E-06
3.806297E+03	5.328590E-05	8.727659E-06
3.816261E+03	5.419271E-05	8.872314E-06
3.826226E+03	5.509155E-05	9.015517E-06
3.836190E+03	5.597808E-05	9.156563E-06
3.846154E+03	5.685995E-05	9.296700E-06
3.856118E+03	5.773470E-05	9.435529E-06
3.866082E+03	5.861574E-05	9.575241E-06
3.876046E+03	5.950741E-05	9.716542E-06
3.886010E+03	6.043058E-05	9.862835E-06
3.895974E+03	6.139573E-05	1.001582E-05
3.905939E+03	6.242630E-05	1.017932E-05
3.915903E+03	6.354717E-05	1.035736E-05
3.925867E+03	6.477057E-05	1.055192E-05
3.935831E+03	6.611871E-05	1.076659E-05
3.945795E+03	6.759452E-05	1.100181E-05
3.955759E+03	6.920642E-05	1.125894E-05
3.965723E+03	7.095134E-05	1.153743E-05
3.975688E+03	7.281920E-05	1.183561E-05
3.985652E+03	7.477249E-05	1.214737E-05
3.995616E+03	7.676707E-05	1.246552E-05
4.005580E+03	7.874193E-05	1.278013E-05
4.015544E+03	8.061681E-05	1.307820E-05
4.025508E+03	8.233051E-05	1.334982E-05
4.035472E+03	8.382459E-05	1.358556E-05
4.045436E+03	8.505557E-05	1.377842E-05
4.055401E+03	8.600608E-05	1.392565E-05
4.065365E+03	8.667651E-05	1.402738E-05
4.075329E+03	8.708158E-05	1.408606E-05
4.085293E+03	8.722936E-05	1.410306E-05
4.095257E+03	8.714132E-05	1.408190E-05
4.105221E+03	8.682490E-05	1.402384E-05
4.115185E+03	8.627940E-05	1.392883E-05
4.125149E+03	8.550386E-05	1.379677E-05
4.135114E+03	8.451931E-05	1.363110E-05
4.145078E+03	8.338379E-05	1.344123E-05
4.155042E+03	8.217275E-05	1.323935E-05
4.165006E+03	8.096165E-05	1.303764E-05
4.174970E+03	7.981553E-05	1.284657E-05
4.184934E+03	7.878980E-05	1.267504E-05
4.194898E+03	7.789090E-05	1.252404E-05
4.204862E+03	7.709760E-05	1.239015E-05
4.214827E+03	7.636785E-05	1.226657E-05
4.224791E+03	7.566328E-05	1.214714E-05
4.234755E+03	7.496995E-05	1.202962E-05
4.244719E+03	7.428921E-05	1.191421E-05
4.254683E+03	7.364753E-05	1.180515E-05
4.264647E+03	7.307017E-05	1.170650E-05
4.274611E+03	7.258944E-05	1.162340E-05
4.284576E+03	7.222778E-05	1.155942E-05
4.294540E+03	7.201104E-05	1.151866E-05
4.304504E+03	7.194218E-05	1.150157E-05
4.314468E+03	7.201350E-05	1.150688E-05
4.324432E+03	7.222054E-05	1.153383E-05
4.334396E+03	7.253897E-05	1.157851E-05
4.344360E+03	7.293978E-05	1.163627E-05
4.354324E+03	7.340524E-05	1.170426E-05
4.364289E+03	7.390168E-05	1.177708E-05
4.374253E+03	7.441625E-05	1.185270E-05
4.384217E+03	7.492663E-05	1.192755E-05
4.394181E+03	7.543230E-05	1.200155E-05
4.404145E+03	7.591896E-05	1.207242E-05
4.414109E+03	7.639310E-05	1.214121E-05
4.424073E+03	7.684425E-05	1.220625E-05
4.434037E+03	7.727795E-05	1.226843E-05
4.444002E+03	7.768219E-05	1.232585E-05
4.453966E+03	7.806280E-05	1.237944E-05
4.463930E+03	7.841173E-05	1.242794E-05
4.473894E+03	7.874258E-05	1.247349E-05
4.483858E+03	7.907495E-05	1.251922E-05
4.493822E+03	7.941871E-05	1.256668E-05
4.503786E+03	7.980143E-05	1.262023E-05
4.513750E+03	8.025182E-05	1.268441E-05
4.523715E+03	8.078161E-05	1.276103E-05
4.533679E+03	8.141123E-05	1.285332E-05
4.543643E+03	8.215599E-05	1.296365E-05
4.553607E+03	8.301027E-05	1.309112E-05
4.563571E+03	8.397380E-05	1.323565E-05
4.573535E+03	8.503407E-05	1.339523E-05
4.583499E+03	8.617283E-05	1.356698E-05
4.593464E+03	8.737106E-05	1.374788E-05
4.603428E+03	8.858845E-05	1.393158E-05
4.613392E+03	8.979532E-05	1.411340E-05
4.623356E+03	9.095557E-05	1.428767E-05
4.633320E+03	9.203367E-05	1.444884E-05
4.643284E+03	9.300730E-05	1.459342E-05
4.653248E+03	9.387763E-05	1.472162E-05
4.663212E+03	9.465321E-05	1.483481E-05
4.673177E+03	9.533318E-05	1.493289E-05
4.683141E+03	9.590120E-05	1.501332E-05
4.693105E+03	9.632298E-05	1.507076E-05
4.703069E+03	9.656945E-05	1.510072E-05
4.713033E+03	9.664349E-05	1.510368E-05
4.722997E+03	9.656492E-05	1.508279E-05
4.732961E+03	9.636582E-05	1.504310E-05
4.742925E+03	9.610268E-05	1.499346E-05
4.752890E+03	9.584018E-05	1.494397E-05
4.762854E+03	9.563334E-05	1.490320E-05
4.772818E+03	9.552515E-05	1.487783E-05
4.782782E+03	9.554318E-05	1.487214E-05
4.792746E+03	9.569466E-05	1.488721E-05
4.802710E+03	9.599323E-05	1.492512E-05
4.812674E+03	9.642522E-05	1.498373E-05
4.822639E+03	9.697152E-05	1.506002E-05
4.832603E+03	9.760479E-05	1.514971E-05
4.842567E+03	9.828517E-05	1.524661E-05
4.852531E+03	9.898444E-05	1.534633E-05
4.862495E+03	9.965466E-05	1.544144E-05
4.872459E+03	1.002523E-04	1.552519E-05
4.882423E+03	1.007289E-04	1.559013E-05
4.892387E+03	1.010585E-04	1.563225E-05
4.902352E+03	1.012103E-04	1.564684E-05
4.912316E+03	1.011834E-04	1.563380E-05
4.922280E+03	1.010345E-04	1.560195E-05
4.932244E+03	1.008229E-04	1.556047E-05
4.942208E+03	1.005994E-04	1.551720E-05
4.952172E+03	1.004080E-04	1.547895E-05
4.962136E+03	1.002473E-04	1.544548E-05
4.972100E+03	1.001295E-04	1.541864E-05
4.982065E+03	1.000418E-04	1.539650E-05
4.992029E+03	9.998426E-05	1.537902E-05
5.001993E+03	9.992070E-05	1.536066E-05
5.011957E+03	9.979823E-05	1.533328E-05
5.021921E+03	9.956852E-05	1.528947E-05
5.031885E+03	9.920352E-05	1.522497E-05
5.041849E+03	9.869929E-05	1.513920E-05
5.051813E+03	9.810148E-05	1.503920E-05
5.061778E+03	9.745620E-05	1.493205E-05
5.071742E+03	9.686237E-05	1.483292E-05
5.081706E+03	9.639300E-05	1.475297E-05
5.091670E+03	9.609794E-05	1.469979E-05
5.101634E+03	9.597749E-05	1.467338E-05
5.111598E+03	9.597805E-05	1.466552E-05
5.121562E+03	9.604897E-05	1.466844E-05
5.131527E+03	9.614427E-05	1.467510E-05
5.141491E+03	9.620916E-05	1.467714E-05
5.151455E+03	9.621944E-05	1.467088E-05
5.161419E+03	9.617308E-05	1.465602E-05
5.171383E+03	9.606809E-05	1.463228E-05
5.181347E+03	9.592738E-05	1.460316E-05
5.191311E+03	9.577227E-05	1.457192E-05
5.201275E+03	9.563131E-05	1.454289E-05
5.211240E+03	9.551707E-05	1.451798E-05
5.221204E+03	9.545872E-05	1.450163E-05
5.231168E+03	9.547652E-05	1.449689E-05
5.241132E+03	9.558527E-05	1.450600E-05
5.251096E+03	9.579872E-05	1.453102E-05
5.261060E+03	9.610465E-05	1.457008E-05
5.271024E+03	9.649698E-05	1.462223E-05
5.280988E+03	9.695449E-05	1.468424E-05
5.290953E+03	9.744825E-05	1.475173E-05
5.300917E+03	9.794719E-05	1.481997E-05
5.310881E+03	9.842472E-05	1.488496E-05
5.320845E+03	9.886136E-05	1.494376E-05
5.330809E+03	9.925369E-05	1.499585E-05
5.340773E+03	9.962060E-05	1.504411E-05
5.350737E+03	9.998945E-05	1.509267E-05
5.360701E+03	1.003811E-04	1.514468E-05
5.370666E+03	1.008023E-04	1.520115E-05
5.380630E+03	1.012369E-04	1.525965E-05
5.390594E+03	1.016484E-04	1.531466E-05
5.400558E+03	1.019874E-04	1.535879E-05
5.410522E+03	1.021904E-04	1.538245E-05
5.420486E+03	1.021925E-04	1.537593E-05
5.430450E+03	1.019509E-04	1.533284E-05
5.440415E+03	1.014485E-04	1.525064E-05
5.450379E+03	1.007156E-04	1.513395E-05
5.460343E+03	9.984465E-05	1.499669E-05
5.470307E+03	9.897429E-05	1.485970E-05
5.480271E+03	9.820541E-05	1.473812E-05
5.490235E+03	9.760616E-05	1.464216E-05
5.500199E+03	9.720686E-05	1.457633E-05
5.510163E+03	9.700660E-05	1.454045E-05
5.520128E+03	9.697403E-05	1.452978E-05
5.530092E+03	9.707619E-05	1.453937E-05
5.540056E+03	9.725221E-05	1.456008E-05
5.550020E+03	9.744362E-05	1.458314E-05
5.559984E+03	9.758693E-05	1.459905E-05
5.569948E+03	9.764741E-05	1.460262E-05
5.579912E+03	9.759483E-05	1.458935E-05
5.589876E+03	9.742478E-05	1.455861E-05
5.599841E+03	9.715784E-05	1.451348E-05
5.609805E+03	9.687179E-05	1.446558E-05
5.619769E+03	9.664007E-05	1.442590E-05
5.629733E+03	9.652643E-05	1.440393E-05
5.639697E+03	9.659582E-05	1.440933E-05
5.649661E+03	9.685590E-05	1.444323E-05
5.659625E+03	9.729201E-05	1.450341E-05
5.669589E+03	9.783035E-05	1.457885E-05
5.679554E+03	9.836237E-05	1.465336E-05
5.689518E+03	9.879436E-05	1.471298E-05
5.699482E+03	9.903983E-05	1.474486E-05
5.709446E+03	9.906149E-05	1.474348E-05
5.719410E+03	9.884473E-05	1.470668E-05
5.729374E+03	9.847012E-05	1.464648E-05
5.739338E+03	9.802341E-05	1.457567E-05
5.749303E+03	9.757266E-05	1.450436E-05
5.759267E+03	9.717612E-05	1.444120E-05
5.769231E+03	9.684720E-05	1.438819E-05
5.779195E+03	9.652340E-05	1.433603E-05
5.789159E+03	9.612128E-05	1.427233E-05
5.799123E+03	9.552390E-05	1.417974E-05
5.809087E+03	9.469558E-05	1.405298E-05
5.819051E+03	9.368646E-05	1.389953E-05
5.829016E+03	9.263242E-05	1.373955E-05
5.838980E+03	9.164459E-05	1.358953E-05
5.848944E+03	9.082146E-05	1.346406E-05
5.858908E+03	9.022859E-05	1.337284E-05
5.868872E+03	8.988412E-05	1.331852E-05
5.878836E+03	8.979382E-05	1.330193E-05
5.888800E+03	8.994088E-05	1.332057E-05
5.898764E+03	9.027404E-05	1.336680E-05
5.908729E+03	9.074066E-05	1.343282E-05
5.918693E+03	9.127083E-05	1.350827E-05
5.928657E+03	9.175900E-05	1.357754E-05
5.938621E+03	9.209974E-05	1.362501E-05
5.948585E+03	9.220008E-05	1.363697E-05
5.958549E+03	9.202649E-05	1.360846E-05
5.968513E+03	9.167346E-05	1.355350E-05
5.978477E+03	9.127681E-05	1.349217E-05
5.988442E+03	9.094173E-05	1.344001E-05
5.998406E+03	9.068696E-05	1.339980E-05
6.008370E+03	9.048680E-05	1.336772E-05
6.018334E+03	9.029150E-05	1.333643E-05
6.028298E+03	9.007469E-05	1.330203E-05
6.038262E+03	8.980660E-05	1.326013E-05
6.048226E+03	8.948969E-05	1.321108E-05
6.058191E+03	8.914910E-05	1.315862E-05
6.068155E+03	8.881381E-05	1.310701E-05
6.078119E+03	8.849524E-05	1.305793E-05
6.088083E+03	8.818804E-05	1.301060E-05
6.098047E+03	8.787803E-05	1.296293E-05
6.108011E+03	8.753855E-05	1.291098E-05
6.117975E+03	8.718178E-05	1.285655E-05
6.127939E+03	8.682447E-05	1.280211E-05
6.137904E+03	8.647109E-05	1.274832E-05
6.147868E+03	8.610901E-05	1.269331E-05
6.157832E+03	8.572289E-05	1.263483E-05
6.167796E+03	8.531185E-05	1.257275E-05
6.177760E+03	8.489566E-05	1.250997E-05
6.187724E+03	8.450709E-05	1.245133E-05
6.197688E+03	8.417708E-05	1.240139E-05
6.207652E+03	8.392288E-05	1.236268E-05
6.217617E+03	8.374543E-05	1.233533E-05
6.227581E+03	8.363194E-05	1.231747E-05
6.237545E+03	8.355922E-05	1.230567E-05
6.247509E+03	8.349715E-05	1.229549E-05
6.257473E+03	8.341490E-05	1.228240E-05
6.267437E+03	8.328842E-05	1.226285E-05
6.277401E+03	8.310484E-05	1.223495E-05
6.287365E+03	8.287000E-05	1.219957E-05
6.297330E+03	8.261340E-05	1.216104E-05
6.307294E+03	8.237884E-05	1.212582E-05
6.317258E+03	8.220967E-05	1.210029E-05
6.327222E+03	8.213999E-05	1.208945E-05
6.337186E+03	8.219492E-05	1.209701E-05
6.347150E+03	8.239225E-05	1.212559E-05
6.357114E+03	8.273649E-05	1.217584E-05
6.367079E+03	8.323728E-05	1.224918E-05
6.377043E+03	8.387734E-05	1.234307E-05
6.387007E+03	8.463148E-05	1.245380E-05
6.396971E+03	8.546154E-05	1.257576E-05
6.406935E+03	8.632363E-05	1.270250E-05
6.416899E+03	8.717554E-05	1.282779E-05
6.426863E+03	8.796699E-05	1.294426E-05
6.436827E+03	8.865739E-05	1.304591E-05
6.446792E+03	8.919020E-05	1.312445E-05
6.456756E+03	8.953562E-05	1.317547E-05
6.466720E+03	8.972639E-05	1.320381E-05
6.476684E+03	8.987535E-05	1.322606E-05
6.486648E+03	9.014796E-05	1.326657E-05
6.496612E+03	9.063968E-05	1.333939E-05
6.506576E+03	9.134557E-05	1.344380E-05
6.516540E+03	9.217955E-05	1.356713E-05
6.526505E+03	9.305106E-05	1.369606E-05
6.536469E+03	9.385974E-05	1.381582E-05
6.546433E+03	9.452511E-05	1.391456E-05
6.556397E+03	9.497736E-05	1.398199E-05
6.566361E+03	9.518414E-05	1.401335E-05
6.576325E+03	9.511679E-05	1.400441E-05
6.586289E+03	9.476995E-05	1.395438E-05
6.596253E+03	9.418145E-05	1.386881E-05
6.606218E+03	9.339688E-05	1.375440E-05
6.616182E+03	9.248978E-05	1.362199E-05
6.626146E+03	9.157646E-05	1.348869E-05
6.636110E+03	9.075788E-05	1.336937E-05
6.646074E+03	9.010006E-05	1.327375E-05
6.656038E+03	8.962954E-05	1.320577E-05
6.666002E+03	8.931780E-05	1.316122E-05
6.675967E+03	8.912622E-05	1.313441E-05
6.685931E+03	8.903593E-05	1.312257E-05
6.695895E+03	8.901066E-05	1.312036E-05
6.705859E+03	8.904796E-05	1.312741E-05
6.715823E+03	8.914311E-05	1.314304E-05
6.725787E+03	8.928683E-05	1.316587E-05
6.735751E+03	8.948133E-05	1.319625E-05
6.745715E+03	8.970913E-05	1.323158E-05
6.755680E+03	8.994770E-05	1.326855E-05
6.765644E+03	9.011458E-05	1.329500E-05
6.775608E+03	9.009962E-05	1.329466E-05
6.785572E+03	8.980071E-05	1.325245E-05
6.795536E+03	8.913573E-05	1.315624E-05
6.805500E+03	8.813570E-05	1.301058E-05
6.815464E+03	8.687921E-05	1.282705E-05
6.825428E+03	8.551120E-05	1.262702E-05
6.835393E+03	8.418968E-05	1.243384E-05
6.845357E+03	8.309105E-05	1.227355E-05
6.855321E+03	8.232910E-05	1.216297E-05
6.865285E+03	8.197941E-05	1.211331E-05
6.875249E+03	8.203202E-05	1.212312E-05
6.885213E+03	8.243587E-05	1.218487E-05
6.895177E+03	8.306580E-05	1.228010E-05
6.905141E+03	8.377529E-05	1.238716E-05
6.915106E+03	8.439042E-05	1.248032E-05
6.925070E+03	8.479262E-05	1.254206E-05
6.935034E+03	8.488961E-05	1.255868E-05
6.944998E+03	8.468301E-05	1.253043E-05
6.954962E+03	8.424732E-05	1.246828E-05
6.964926E+03	8.372143E-05	1.239278E-05
6.974890E+03	8.322275E-05	1.232131E-05
6.984855E+03	8.279784E-05	1.226076E-05
6.994819E+03	8.247330E-05	1.221508E-05
7.004783E+03	8.223474E-05	1.218214E-05
7.014747E+03	8.207670E-05	1.216115E-05
7.024711E+03	8.196831E-05	1.214752E-05
7.034675E+03	8.189094E-05	1.213851E-05
7.044639E+03	8.181927E-05	1.213037E-05
7.054603E+03	8.170823E-05	1.211640E-05
7.064568E+03	8.153343E-05	1.209300E-05
7.074532E+03	8.125230E-05	1.205383E-05
7.084496E+03	8.084479E-05	1.199591E-05
7.094460E+03	8.031471E-05	1.191980E-05
7.104424E+03	7.968557E-05	1.182897E-05
7.114388E+03	7.901272E-05	1.173164E-05
7.124352E+03	7.835048E-05	1.163585E-05
7.134316E+03	7.773338E-05	1.154675E-05
7.144281E+03	7.719852E-05	1.146984E-05
7.154245E+03	7.676468E-05	1.140793E-05
7.164209E+03	7.641965E-05	1.135922E-05
7.174173E+03	7.615491E-05	1.132243E-05
7.184137E+03	7.595786E-05	1.129571E-05
7.194101E+03	7.580263E-05	1.127522E-05
7.204065E+03	7.568081E-05	1.125971E-05
7.214029E+03	7.559106E-05	1.124897E-05
7.223994E+03	7.552827E-05	1.124226E-05
7.233958E+03	7.550787E-05	1.124188E-05
7.243922E+03	7.554625E-05	1.125026E-05
7.253886E+03	7.564419E-05	1.126754E-05
7.263850E+03	7.580998E-05	1.129495E-05
7.273814E+03	7.602750E-05	1.133010E-05
7.283778E+03	7.625878E-05	1.136734E-05
7.293743E+03	7.643826E-05	1.139688E-05
7.303707E+03	7.652008E-05	1.141189E-05
7.313671E+03	7.647392E-05	1.140783E-05
7.323635E+03	7.627761E-05	1.138138E-05
7.333599E+03	7.595185E-05	1.133562E-05
7.343563E+03	7.554078E-05	1.127711E-05
7.353527E+03	7.511214E-05	1.121596E-05
7.363491E+03	7.471969E-05	1.116020E-05
7.373456E+03	7.441947E-05	1.111821E-05
7.383420E+03	7.425064E-05	1.109585E-05
7.393384E+03	7.423441E-05	1.109630E-05
7.403348E+03	7.434336E-05	1.111548E-05
7.413312E+03	7.455036E-05	1.114936E-05
7.423276E+03	7.483008E-05	1.119414E-05
7.433240E+03	7.516593E-05	1.124736E-05
7.443204E+03	7.555311E-05	1.130831E-05
7.453169E+03	7.597170E-05	1.137401E-05
7.463133E+03	7.640389E-05	1.144179E-05
7.473097E+03	7.680097E-05	1.150437E-05
7.483061E+03	7.707055E-05	1.154790E-05
7.493025E+03	7.704818E-05	1.154770E-05
7.502989E+03	7.657615E-05	1.148012E-05
7.512953E+03	7.557682E-05	1.133344E-05
7.522917E+03	7.411214E-05	1.111689E-05
7.532882E+03	7.234055E-05	1.085418E-05
7.542846E+03	7.042946E-05	1.057041E-05
7.552810E+03	6.855131E-05	1.029144E-05
7.562774E+03	6.685189E-05	1.003916E-05
7.572738E+03	6.545135E-05	9.831655E-06
7.582702E+03	6.444695E-05	9.683566E-06
7.592666E+03	6.392237E-05	9.607522E-06
7.602631E+03	6.393315E-05	9.611936E-06
7.612595E+03	6.452838E-05	9.704263E-06
7.622559E+03	6.572085E-05	9.886501E-06
7.632523E+03	6.745658E-05	1.015061E-05
7.642487E+03	6.958296E-05	1.047370E-05
7.652451E+03	7.187193E-05	1.082147E-05
7.662415E+03	7.405876E-05	1.115409E-05
7.672379E+03	7.592321E-05	1.143836E-05
7.682344E+03	7.729676E-05	1.164883E-05
7.692308E+03	7.810256E-05	1.177387E-05
7.702272E+03	7.838563E-05	1.182019E-05
7.712236E+03	7.827439E-05	1.180707E-05
7.722200E+03	7.791821E-05	1.175700E-05
7.732164E+03	7.742716E-05	1.168657E-05
