#wls	flux	fluxerr
1.600000E+03	3.547809E-16	2.806962E-18
1.640000E+03	3.556018E-16	2.813457E-18
1.680000E+03	3.560063E-16	2.816657E-18
1.720000E+03	3.550672E-16	2.809227E-18
1.760000E+03	3.528402E-16	2.791607E-18
1.800000E+03	3.489239E-16	2.760622E-18
1.840000E+03	3.427247E-16	2.711576E-18
1.880000E+03	3.340971E-16	2.643315E-18
1.920000E+03	3.228536E-16	2.554359E-18
1.960000E+03	3.089242E-16	2.444152E-18
2.000000E+03	2.928154E-16	2.316702E-18
2.040000E+03	2.757342E-16	2.181559E-18
2.080000E+03	2.586479E-16	2.046375E-18
2.120000E+03	2.431817E-16	1.924009E-18
2.160000E+03	2.307726E-16	1.825831E-18
2.200000E+03	2.231188E-16	1.765275E-18
2.240000E+03	2.214116E-16	1.751768E-18
2.280000E+03	2.267427E-16	1.793947E-18
2.320000E+03	2.399766E-16	1.898651E-18
2.360000E+03	2.617921E-16	2.071252E-18
2.400000E+03	2.927286E-16	2.316015E-18
2.440000E+03	3.330197E-16	2.634791E-18
2.480000E+03	3.828214E-16	3.028813E-18
2.520000E+03	4.416228E-16	3.494039E-18
2.560000E+03	5.078938E-16	4.018362E-18
2.600000E+03	5.796644E-16	4.586199E-18
2.640000E+03	6.538411E-16	5.173070E-18
2.680000E+03	7.276586E-16	5.757101E-18
2.720000E+03	7.982482E-16	6.315593E-18
2.760000E+03	8.636670E-16	6.833175E-18
2.800000E+03	9.227402E-16	7.300551E-18
2.840000E+03	9.741576E-16	7.707356E-18
2.880000E+03	1.017615E-15	8.051186E-18
2.920000E+03	1.053506E-15	8.335149E-18
2.960000E+03	1.081958E-15	8.560252E-18
3.000000E+03	1.104372E-15	8.737588E-18
3.010000E+03	1.109023E-15	8.774386E-18
3.020000E+03	1.113747E-15	8.811761E-18
3.030000E+03	1.118269E-15	8.847537E-18
3.040000E+03	1.122326E-15	8.879638E-18
3.050000E+03	1.126507E-15	8.912715E-18
3.060000E+03	1.130831E-15	8.946926E-18
3.070000E+03	1.134782E-15	8.978185E-18
3.080000E+03	1.139214E-15	9.013252E-18
3.090000E+03	1.143626E-15	9.048157E-18
3.100000E+03	1.148331E-15	9.085383E-18
3.110000E+03	1.153124E-15	9.123302E-18
3.120000E+03	1.158582E-15	9.166489E-18
3.130000E+03	1.164510E-15	9.213391E-18
3.140000E+03	1.170981E-15	9.264589E-18
3.150000E+03	1.178321E-15	9.322663E-18
3.160000E+03	1.186607E-15	9.388219E-18
3.170000E+03	1.195685E-15	9.460043E-18
3.180000E+03	1.206131E-15	9.542685E-18
3.190000E+03	1.217560E-15	9.633112E-18
3.200000E+03	1.230550E-15	9.735888E-18
3.210000E+03	1.245202E-15	9.851809E-18
3.220000E+03	1.261388E-15	9.979869E-18
3.230000E+03	1.279448E-15	1.012275E-17
3.240000E+03	1.299716E-15	1.028311E-17
3.250000E+03	1.322073E-15	1.046000E-17
3.260000E+03	1.346852E-15	1.065604E-17
3.270000E+03	1.373933E-15	1.087030E-17
3.280000E+03	1.403865E-15	1.110712E-17
3.290000E+03	1.436741E-15	1.136723E-17
3.300000E+03	1.472431E-15	1.164960E-17
3.310000E+03	1.511235E-15	1.195661E-17
3.320000E+03	1.553443E-15	1.229056E-17
3.330000E+03	1.598886E-15	1.265009E-17
3.340000E+03	1.647819E-15	1.303724E-17
3.350000E+03	1.700252E-15	1.345208E-17
3.360000E+03	1.756398E-15	1.389630E-17
3.370000E+03	1.815998E-15	1.436784E-17
3.380000E+03	1.879438E-15	1.486977E-17
3.390000E+03	1.946360E-15	1.539924E-17
3.400000E+03	2.016494E-15	1.595413E-17
3.410000E+03	2.089848E-15	1.653449E-17
3.420000E+03	2.165284E-15	1.713133E-17
3.430000E+03	2.242389E-15	1.774137E-17
3.440000E+03	2.320095E-15	1.835617E-17
3.450000E+03	2.397229E-15	1.896644E-17
3.460000E+03	2.472875E-15	1.956493E-17
3.470000E+03	2.545800E-15	2.014190E-17
3.480000E+03	2.615507E-15	2.069341E-17
3.490000E+03	2.681577E-15	2.121614E-17
3.500000E+03	2.744178E-15	2.171143E-17
3.510000E+03	2.803308E-15	2.217925E-17
3.520000E+03	2.859848E-15	2.262659E-17
3.530000E+03	2.913827E-15	2.305366E-17
3.540000E+03	2.966177E-15	2.346785E-17
3.550000E+03	3.017092E-15	2.387067E-17
3.560000E+03	3.066917E-15	2.426488E-17
3.570000E+03	3.116405E-15	2.465642E-17
3.580000E+03	3.165526E-15	2.504506E-17
3.590000E+03	3.214856E-15	2.543534E-17
3.600000E+03	3.265715E-15	2.583774E-17
3.610000E+03	3.319586E-15	2.626395E-17
3.620000E+03	3.379065E-15	2.673454E-17
3.630000E+03	3.446400E-15	2.726728E-17
3.640000E+03	3.523820E-15	2.787981E-17
3.650000E+03	3.613028E-15	2.858561E-17
3.660000E+03	3.714697E-15	2.939000E-17
3.670000E+03	3.828468E-15	3.029013E-17
3.680000E+03	3.952371E-15	3.127043E-17
3.690000E+03	4.082704E-15	3.230160E-17
3.700000E+03	4.213466E-15	3.333617E-17
3.710000E+03	4.338148E-15	3.432263E-17
3.720000E+03	4.448855E-15	3.519852E-17
3.730000E+03	4.537747E-15	3.590182E-17
3.740000E+03	4.598986E-15	3.638633E-17
3.750000E+03	4.628799E-15	3.662221E-17
3.760000E+03	4.626519E-15	3.660417E-17
3.770000E+03	4.595867E-15	3.636165E-17
3.780000E+03	4.543128E-15	3.594439E-17
3.790000E+03	4.478149E-15	3.543029E-17
3.800000E+03	4.412448E-15	3.491047E-17
3.810000E+03	4.358663E-15	3.448494E-17
3.820000E+03	4.329795E-15	3.425654E-17
3.830000E+03	4.339022E-15	3.432954E-17
3.840000E+03	4.398768E-15	3.480224E-17
3.850000E+03	4.521297E-15	3.577166E-17
3.860000E+03	4.718113E-15	3.732884E-17
3.870000E+03	5.000997E-15	3.956696E-17
3.880000E+03	5.380557E-15	4.256997E-17
3.890000E+03	5.865923E-15	4.641010E-17
3.900000E+03	6.463377E-15	5.113705E-17
3.910000E+03	7.174184E-15	5.676082E-17
3.920000E+03	7.991843E-15	6.322999E-17
3.930000E+03	8.900271E-15	7.041730E-17
3.940000E+03	9.873778E-15	7.811951E-17
3.950000E+03	1.087717E-14	8.605815E-17
3.960000E+03	1.187024E-14	9.391518E-17
3.970000E+03	1.281310E-14	1.013749E-16
3.980000E+03	1.367090E-14	1.081616E-16
3.990000E+03	1.442009E-14	1.140891E-16
4.000000E+03	1.505041E-14	1.190761E-16
4.010000E+03	1.556310E-14	1.231324E-16
4.020000E+03	1.596960E-14	1.263485E-16
4.030000E+03	1.628484E-14	1.288427E-16
4.040000E+03	1.652189E-14	1.307182E-16
4.050000E+03	1.668909E-14	1.320410E-16
4.060000E+03	1.678743E-14	1.328190E-16
4.070000E+03	1.681012E-14	1.329986E-16
4.080000E+03	1.674507E-14	1.324839E-16
4.090000E+03	1.657935E-14	1.311727E-16
4.100000E+03	1.630222E-14	1.289801E-16
4.110000E+03	1.590934E-14	1.258718E-16
4.120000E+03	1.540462E-14	1.218785E-16
4.130000E+03	1.480121E-14	1.171045E-16
4.140000E+03	1.411984E-14	1.117136E-16
4.150000E+03	1.338688E-14	1.059145E-16
4.160000E+03	1.263165E-14	9.993926E-17
4.170000E+03	1.188364E-14	9.402116E-17
4.180000E+03	1.116936E-14	8.836990E-17
4.190000E+03	1.051172E-14	8.316679E-17
4.200000E+03	9.928865E-15	7.855534E-17
4.210000E+03	9.434249E-15	7.464203E-17
4.220000E+03	9.037573E-15	7.150361E-17
4.230000E+03	8.745896E-15	6.919591E-17
4.240000E+03	8.564948E-15	6.776428E-17
4.250000E+03	8.498903E-15	6.724175E-17
4.260000E+03	8.550822E-15	6.765252E-17
4.270000E+03	8.720899E-15	6.899814E-17
4.280000E+03	9.005464E-15	7.124957E-17
4.290000E+03	9.396298E-15	7.434177E-17
4.300000E+03	9.880910E-15	7.817593E-17
4.310000E+03	1.044096E-14	8.260690E-17
4.320000E+03	1.105313E-14	8.745031E-17
4.330000E+03	1.168740E-14	9.246855E-17
4.340000E+03	1.230780E-14	9.737702E-17
4.350000E+03	1.287306E-14	1.018493E-16
4.360000E+03	1.333578E-14	1.055102E-16
4.370000E+03	1.365277E-14	1.080182E-16
4.380000E+03	1.380208E-14	1.091995E-16
4.390000E+03	1.377429E-14	1.089797E-16
4.400000E+03	1.359178E-14	1.075357E-16
4.410000E+03	1.330531E-14	1.052691E-16
4.420000E+03	1.296946E-14	1.026120E-16
4.430000E+03	1.263899E-14	9.999736E-17
4.440000E+03	1.236481E-14	9.782806E-17
4.450000E+03	1.219414E-14	9.647777E-17
4.460000E+03	1.216956E-14	9.628330E-17
4.470000E+03	1.232876E-14	9.754289E-17
4.480000E+03	1.270471E-14	1.005173E-16
4.490000E+03	1.332427E-14	1.054192E-16
4.500000E+03	1.420652E-14	1.123994E-16
4.510000E+03	1.535933E-14	1.215202E-16
4.520000E+03	1.677195E-14	1.326965E-16
4.530000E+03	1.841223E-14	1.456742E-16
4.540000E+03	2.022796E-14	1.600399E-16
4.550000E+03	2.214972E-14	1.752445E-16
4.560000E+03	2.409588E-14	1.906421E-16
4.570000E+03	2.598183E-14	2.055635E-16
4.580000E+03	2.772445E-14	2.193507E-16
4.590000E+03	2.924873E-14	2.314105E-16
4.600000E+03	3.048600E-14	2.411996E-16
4.610000E+03	3.137650E-14	2.482451E-16
4.620000E+03	3.187190E-14	2.521646E-16
4.630000E+03	3.194043E-14	2.527068E-16
4.640000E+03	3.157127E-14	2.497860E-16
4.650000E+03	3.078204E-14	2.435418E-16
4.660000E+03	2.962260E-14	2.343685E-16
4.670000E+03	2.817061E-14	2.228806E-16
4.680000E+03	2.652182E-14	2.098358E-16
4.690000E+03	2.477552E-14	1.960193E-16
4.700000E+03	2.302449E-14	1.821655E-16
4.710000E+03	2.134704E-14	1.688939E-16
4.720000E+03	1.980204E-14	1.566701E-16
4.730000E+03	1.845377E-14	1.460028E-16
4.740000E+03	1.738765E-14	1.375678E-16
4.750000E+03	1.665911E-14	1.318038E-16
4.760000E+03	1.629839E-14	1.289498E-16
4.770000E+03	1.631879E-14	1.291113E-16
4.780000E+03	1.672053E-14	1.322897E-16
4.790000E+03	1.748997E-14	1.383774E-16
4.800000E+03	1.859562E-14	1.471251E-16
4.810000E+03	1.998186E-14	1.580928E-16
4.820000E+03	2.156244E-14	1.705980E-16
4.830000E+03	2.322065E-14	1.837175E-16
4.840000E+03	2.353516E-14	1.862058E-16
4.840324E+03	2.355594E-14	1.863702E-16
4.840649E+03	2.357671E-14	1.865345E-16
4.840973E+03	2.360009E-14	1.867196E-16
4.841298E+03	2.362087E-14	1.868840E-16
4.841622E+03	2.364426E-14	1.870690E-16
4.841947E+03	2.367025E-14	1.872747E-16
4.842271E+03	2.369756E-14	1.874907E-16
4.842595E+03	2.372095E-14	1.876757E-16
4.842920E+03	2.374563E-14	1.878710E-16
4.843244E+03	2.377033E-14	1.880664E-16
4.843569E+03	2.379371E-14	1.882514E-16
4.843893E+03	2.381840E-14	1.884468E-16
4.844217E+03	2.384309E-14	1.886421E-16
4.844542E+03	2.387169E-14	1.888684E-16
4.844866E+03	2.389900E-14	1.890844E-16
4.845191E+03	2.392629E-14	1.893004E-16
4.845515E+03	2.395489E-14	1.895267E-16
4.845840E+03	2.398350E-14	1.897530E-16
4.846164E+03	2.401210E-14	1.899793E-16
4.846488E+03	2.403810E-14	1.901850E-16
4.846813E+03	2.406670E-14	1.904113E-16
4.847137E+03	2.409661E-14	1.906479E-16
4.847462E+03	2.412652E-14	1.908845E-16
4.847786E+03	2.415773E-14	1.911315E-16
4.848110E+03	2.419025E-14	1.913888E-16
4.848435E+03	2.422407E-14	1.916563E-16
4.848759E+03	2.425789E-14	1.919239E-16
4.849084E+03	2.429171E-14	1.921915E-16
4.849408E+03	2.432684E-14	1.924694E-16
4.849733E+03	2.436196E-14	1.927473E-16
4.850057E+03	2.439840E-14	1.930356E-16
4.850381E+03	2.443483E-14	1.933238E-16
4.850706E+03	2.447126E-14	1.936120E-16
4.851030E+03	2.450768E-14	1.939003E-16
4.851355E+03	2.454411E-14	1.941885E-16
4.851679E+03	2.458054E-14	1.944767E-16
4.852003E+03	2.461697E-14	1.947649E-16
4.852328E+03	2.465340E-14	1.950531E-16
4.852652E+03	2.469113E-14	1.953517E-16
4.852977E+03	2.472756E-14	1.956399E-16
4.853301E+03	2.476791E-14	1.959591E-16
4.853626E+03	2.480694E-14	1.962679E-16
4.853950E+03	2.484467E-14	1.965664E-16
4.854274E+03	2.488370E-14	1.968752E-16
4.854599E+03	2.492274E-14	1.971841E-16
4.854923E+03	2.496177E-14	1.974929E-16
4.855248E+03	2.499820E-14	1.977811E-16
4.855572E+03	2.503594E-14	1.980797E-16
4.855896E+03	2.507627E-14	1.983988E-16
4.856221E+03	2.511791E-14	1.987283E-16
4.856545E+03	2.515826E-14	1.990475E-16
4.856870E+03	2.519990E-14	1.993769E-16
4.857194E+03	2.524284E-14	1.997167E-16
4.857519E+03	2.528579E-14	2.000565E-16
4.857843E+03	2.533134E-14	2.004169E-16
4.858167E+03	2.537690E-14	2.007774E-16
4.858492E+03	2.541985E-14	2.011171E-16
4.858816E+03	2.546149E-14	2.014466E-16
4.859141E+03	2.550313E-14	2.017760E-16
4.859465E+03	2.554477E-14	2.021055E-16
4.859789E+03	2.558771E-14	2.024452E-16
4.860114E+03	2.563196E-14	2.027953E-16
4.860438E+03	2.567621E-14	2.031454E-16
4.860763E+03	2.572046E-14	2.034955E-16
4.861087E+03	2.576340E-14	2.038352E-16
4.861412E+03	2.580765E-14	2.041853E-16
4.861736E+03	2.585319E-14	2.045457E-16
4.862060E+03	2.589874E-14	2.049060E-16
4.862385E+03	2.594299E-14	2.052561E-16
4.862709E+03	2.598724E-14	2.056062E-16
4.863034E+03	2.603278E-14	2.059666E-16
4.863358E+03	2.607964E-14	2.063373E-16
4.863682E+03	2.612388E-14	2.066873E-16
4.864007E+03	2.616552E-14	2.070167E-16
4.864331E+03	2.620585E-14	2.073358E-16
4.864656E+03	2.625008E-14	2.076858E-16
4.864980E+03	2.629694E-14	2.080565E-16
4.865305E+03	2.634117E-14	2.084065E-16
4.865629E+03	2.638411E-14	2.087462E-16
4.865953E+03	2.642705E-14	2.090859E-16
4.866278E+03	2.646868E-14	2.094153E-16
4.866602E+03	2.651162E-14	2.097550E-16
4.866927E+03	2.655715E-14	2.101153E-16
4.867251E+03	2.660140E-14	2.104653E-16
4.867575E+03	2.664433E-14	2.108050E-16
4.867900E+03	2.668465E-14	2.111240E-16
4.868224E+03	2.672498E-14	2.114430E-16
4.868549E+03	2.676791E-14	2.117827E-16
4.868873E+03	2.681083E-14	2.121223E-16
4.869198E+03	2.685247E-14	2.124518E-16
4.869522E+03	2.689409E-14	2.127811E-16
4.869846E+03	2.693441E-14	2.131000E-16
4.870171E+03	2.697473E-14	2.134191E-16
4.870495E+03	2.701505E-14	2.137381E-16
4.870820E+03	2.705667E-14	2.140674E-16
4.871144E+03	2.709700E-14	2.143864E-16
4.871468E+03	2.713601E-14	2.146951E-16
4.871793E+03	2.717241E-14	2.149830E-16
4.872117E+03	2.721012E-14	2.152814E-16
4.872442E+03	2.724783E-14	2.155798E-16
4.872766E+03	2.728553E-14	2.158781E-16
4.873091E+03	2.732064E-14	2.161558E-16
4.873415E+03	2.735573E-14	2.164335E-16
4.873739E+03	2.739213E-14	2.167214E-16
4.874064E+03	2.742853E-14	2.170095E-16
4.874388E+03	2.746494E-14	2.172975E-16
4.874713E+03	2.750003E-14	2.175752E-16
4.875037E+03	2.753382E-14	2.178425E-16
4.875362E+03	2.756761E-14	2.181098E-16
4.875686E+03	2.760140E-14	2.183771E-16
4.876010E+03	2.763519E-14	2.186445E-16
4.876335E+03	2.767029E-14	2.189222E-16
4.876659E+03	2.770277E-14	2.191792E-16
4.876984E+03	2.773525E-14	2.194361E-16
4.877308E+03	2.776773E-14	2.196932E-16
4.877632E+03	2.779892E-14	2.199399E-16
4.877957E+03	2.783139E-14	2.201968E-16
4.878281E+03	2.786127E-14	2.204332E-16
4.878606E+03	2.788854E-14	2.206489E-16
4.878930E+03	2.791710E-14	2.208749E-16
4.879255E+03	2.794306E-14	2.210803E-16
4.879579E+03	2.796771E-14	2.212753E-16
4.879903E+03	2.799629E-14	2.215014E-16
4.880228E+03	2.802354E-14	2.217171E-16
4.880552E+03	2.804950E-14	2.219224E-16
4.880877E+03	2.807285E-14	2.221072E-16
4.881201E+03	2.809489E-14	2.222815E-16
4.881525E+03	2.811563E-14	2.224456E-16
4.881850E+03	2.813637E-14	2.226097E-16
4.882174E+03	2.815841E-14	2.227841E-16
4.882499E+03	2.817785E-14	2.229379E-16
4.882823E+03	2.819858E-14	2.231019E-16
4.883148E+03	2.821932E-14	2.232660E-16
4.883472E+03	2.824006E-14	2.234301E-16
4.883796E+03	2.825819E-14	2.235735E-16
4.884121E+03	2.827109E-14	2.236756E-16
4.884445E+03	2.828401E-14	2.237778E-16
4.884770E+03	2.829952E-14	2.239005E-16
4.885094E+03	2.831504E-14	2.240234E-16
4.885418E+03	2.833055E-14	2.241461E-16
4.885743E+03	2.834477E-14	2.242585E-16
4.886067E+03	2.835899E-14	2.243711E-16
4.886392E+03	2.837189E-14	2.244731E-16
4.886716E+03	2.838610E-14	2.245856E-16
4.887041E+03	2.839901E-14	2.246877E-16
4.887365E+03	2.840931E-14	2.247692E-16
4.887690E+03	2.841700E-14	2.248300E-16
4.888014E+03	2.842600E-14	2.249012E-16
4.888338E+03	2.843760E-14	2.249930E-16
4.888663E+03	2.844789E-14	2.250745E-16
4.888987E+03	2.845820E-14	2.251560E-16
4.889311E+03	2.846328E-14	2.251962E-16
4.889636E+03	2.846575E-14	2.252157E-16
4.889960E+03	2.846822E-14	2.252352E-16
4.890285E+03	2.847329E-14	2.252754E-16
4.890609E+03	2.847838E-14	2.253157E-16
4.890934E+03	2.847824E-14	2.253146E-16
4.891258E+03	2.847680E-14	2.253031E-16
4.891583E+03	2.847667E-14	2.253021E-16
4.891907E+03	2.847653E-14	2.253010E-16
4.892231E+03	2.847508E-14	2.252896E-16
4.892556E+03	2.847494E-14	2.252885E-16
4.892880E+03	2.847350E-14	2.252771E-16
4.893205E+03	2.846815E-14	2.252347E-16
4.893529E+03	2.846149E-14	2.251820E-16
4.893853E+03	2.845222E-14	2.251087E-16
4.894178E+03	2.844295E-14	2.250354E-16
4.894502E+03	2.843369E-14	2.249621E-16
4.894827E+03	2.842312E-14	2.248784E-16
4.895151E+03	2.841384E-14	2.248051E-16
4.895475E+03	2.840067E-14	2.247008E-16
4.895800E+03	2.838749E-14	2.245965E-16
4.896124E+03	2.837692E-14	2.245129E-16
4.896449E+03	2.836503E-14	2.244189E-16
4.896773E+03	2.835186E-14	2.243146E-16
4.897098E+03	2.833868E-14	2.242104E-16
4.897422E+03	2.832289E-14	2.240854E-16
4.897746E+03	2.830710E-14	2.239605E-16
4.898071E+03	2.829001E-14	2.238253E-16
4.898395E+03	2.827161E-14	2.236797E-16
4.898720E+03	2.825452E-14	2.235446E-16
4.899044E+03	2.823743E-14	2.234093E-16
4.899368E+03	2.821512E-14	2.232328E-16
4.899693E+03	2.819542E-14	2.230770E-16
4.900017E+03	2.817311E-14	2.229004E-16
4.900342E+03	2.814689E-14	2.226930E-16
4.900666E+03	2.812328E-14	2.225062E-16
4.900991E+03	2.810228E-14	2.223400E-16
4.901315E+03	2.807606E-14	2.221326E-16
4.901639E+03	2.804983E-14	2.219251E-16
4.901964E+03	2.802231E-14	2.217074E-16
4.902288E+03	2.798957E-14	2.214483E-16
4.902613E+03	2.795422E-14	2.211686E-16
4.902937E+03	2.792149E-14	2.209096E-16
4.903261E+03	2.789005E-14	2.206609E-16
4.903586E+03	2.785731E-14	2.204019E-16
4.903910E+03	2.782196E-14	2.201222E-16
4.904235E+03	2.778531E-14	2.198322E-16
4.904559E+03	2.774866E-14	2.195423E-16
4.904884E+03	2.771331E-14	2.192626E-16
4.905208E+03	2.767405E-14	2.189520E-16
4.905532E+03	2.763219E-14	2.186208E-16
4.905857E+03	2.759293E-14	2.183102E-16
4.906181E+03	2.755368E-14	2.179996E-16
4.906506E+03	2.751050E-14	2.176580E-16
4.906830E+03	2.746342E-14	2.172855E-16
4.907154E+03	2.741895E-14	2.169337E-16
4.907479E+03	2.737318E-14	2.165715E-16
4.907803E+03	2.732610E-14	2.161991E-16
4.908128E+03	2.727902E-14	2.158266E-16
4.908452E+03	2.723455E-14	2.154747E-16
4.908777E+03	2.718617E-14	2.150919E-16
4.909101E+03	2.713387E-14	2.146782E-16
4.909426E+03	2.708289E-14	2.142748E-16
4.909750E+03	2.703190E-14	2.138714E-16
4.910074E+03	2.698483E-14	2.134989E-16
4.910399E+03	2.693514E-14	2.131058E-16
4.910723E+03	2.688285E-14	2.126921E-16
4.911048E+03	2.682926E-14	2.122681E-16
4.911372E+03	2.677565E-14	2.118440E-16
4.911696E+03	2.672077E-14	2.114097E-16
4.912021E+03	2.666587E-14	2.109754E-16
4.912345E+03	2.661357E-14	2.105617E-16
4.912670E+03	2.655867E-14	2.101273E-16
4.912994E+03	2.650508E-14	2.097033E-16
4.913319E+03	2.645149E-14	2.092793E-16
4.913643E+03	2.639791E-14	2.088553E-16
4.913967E+03	2.634301E-14	2.084210E-16
4.914292E+03	2.628681E-14	2.079764E-16
4.914616E+03	2.622931E-14	2.075215E-16
4.914941E+03	2.617572E-14	2.070974E-16
4.915265E+03	2.612083E-14	2.066632E-16
4.915589E+03	2.606463E-14	2.062185E-16
4.915914E+03	2.600844E-14	2.057739E-16
4.916238E+03	2.594963E-14	2.053087E-16
4.916563E+03	2.588822E-14	2.048228E-16
4.916887E+03	2.582942E-14	2.043576E-16
4.917212E+03	2.576801E-14	2.038717E-16
4.917536E+03	2.570661E-14	2.033860E-16
4.917860E+03	2.564781E-14	2.029207E-16
4.918185E+03	2.558640E-14	2.024349E-16
4.918509E+03	2.552499E-14	2.019490E-16
4.918834E+03	2.546750E-14	2.014941E-16
4.919158E+03	2.540870E-14	2.010289E-16
4.919482E+03	2.534730E-14	2.005432E-16
4.919807E+03	2.528460E-14	2.000470E-16
4.920131E+03	2.522319E-14	1.995612E-16
4.920456E+03	2.516309E-14	1.990857E-16
4.920780E+03	2.510299E-14	1.986102E-16
4.921105E+03	2.504029E-14	1.981141E-16
4.921429E+03	2.498280E-14	1.976593E-16
4.921753E+03	2.492531E-14	1.972044E-16
4.922078E+03	2.486651E-14	1.967392E-16
4.922402E+03	2.481033E-14	1.962947E-16
4.922727E+03	2.475153E-14	1.958295E-16
4.923051E+03	2.469145E-14	1.953542E-16
4.923375E+03	2.463004E-14	1.948683E-16
4.923700E+03	2.456865E-14	1.943826E-16
4.924024E+03	2.451116E-14	1.939278E-16
4.924349E+03	2.445367E-14	1.934729E-16
4.924673E+03	2.439620E-14	1.930182E-16
4.924998E+03	2.433740E-14	1.925530E-16
4.925322E+03	2.427993E-14	1.920983E-16
4.925646E+03	2.422635E-14	1.916744E-16
4.925971E+03	2.417538E-14	1.912712E-16
4.926295E+03	2.412442E-14	1.908680E-16
4.926620E+03	2.407346E-14	1.904648E-16
4.926944E+03	2.402380E-14	1.900718E-16
4.927269E+03	2.397415E-14	1.896790E-16
4.927593E+03	2.392448E-14	1.892861E-16
4.927917E+03	2.387874E-14	1.889242E-16
4.928242E+03	2.383429E-14	1.885725E-16
4.928566E+03	2.378725E-14	1.882003E-16
4.928891E+03	2.373890E-14	1.878178E-16
4.929215E+03	2.369055E-14	1.874352E-16
4.929539E+03	2.364480E-14	1.870733E-16
4.929864E+03	2.360036E-14	1.867216E-16
4.930188E+03	2.355461E-14	1.863597E-16
4.930513E+03	2.350626E-14	1.859772E-16
4.930837E+03	2.345531E-14	1.855741E-16
4.931162E+03	2.340826E-14	1.852018E-16
4.931486E+03	2.336512E-14	1.848605E-16
4.931810E+03	2.331808E-14	1.844884E-16
4.932135E+03	2.327365E-14	1.841368E-16
4.932459E+03	2.323051E-14	1.837955E-16
4.932784E+03	2.318999E-14	1.834749E-16
4.933108E+03	2.315076E-14	1.831645E-16
4.933432E+03	2.310893E-14	1.828336E-16
4.933757E+03	2.306972E-14	1.825233E-16
4.934081E+03	2.303310E-14	1.822336E-16
4.934406E+03	2.299388E-14	1.819233E-16
4.934730E+03	2.295727E-14	1.816336E-16
