#wls	flux	fluxerr
1.600000E+03	2.571987E-16	2.318639E-17
1.640000E+03	2.546233E-16	2.283195E-17
1.680000E+03	2.511520E-16	2.239709E-17
1.720000E+03	2.469922E-16	2.190159E-17
1.760000E+03	2.416307E-16	2.130137E-17
1.800000E+03	2.352816E-16	2.061718E-17
1.840000E+03	2.276842E-16	1.982809E-17
1.880000E+03	2.186898E-16	1.892349E-17
1.920000E+03	2.087279E-16	1.794294E-17
1.960000E+03	1.979145E-16	1.689835E-17
2.000000E+03	1.866821E-16	1.582826E-17
2.040000E+03	1.757164E-16	1.479156E-17
2.080000E+03	1.655525E-16	1.383291E-17
2.120000E+03	1.569940E-16	1.301783E-17
2.160000E+03	1.506260E-16	1.239173E-17
2.200000E+03	1.471808E-16	1.201032E-17
2.240000E+03	1.472244E-16	1.191371E-17
2.280000E+03	1.512703E-16	1.213593E-17
2.320000E+03	1.597950E-16	1.270633E-17
2.360000E+03	1.733449E-16	1.365799E-17
2.400000E+03	1.921439E-16	1.499680E-17
2.440000E+03	2.166013E-16	1.674184E-17
2.480000E+03	2.469760E-16	1.889890E-17
2.520000E+03	2.829755E-16	2.143066E-17
2.560000E+03	3.242670E-16	2.429715E-17
2.600000E+03	3.695622E-16	2.738813E-17
2.640000E+03	4.175851E-16	3.059807E-17
2.680000E+03	4.665727E-16	3.379009E-17
2.720000E+03	5.152456E-16	3.686781E-17
2.760000E+03	5.620281E-16	3.971832E-17
2.800000E+03	6.059811E-16	4.227884E-17
2.840000E+03	6.461674E-16	4.449039E-17
2.880000E+03	6.824211E-16	4.635013E-17
2.920000E+03	7.143427E-16	4.784063E-17
2.960000E+03	7.423486E-16	4.900026E-17
3.000000E+03	7.674394E-16	4.990418E-17
3.010000E+03	7.731572E-16	5.008464E-17
3.020000E+03	7.788980E-16	5.026301E-17
3.030000E+03	7.846718E-16	5.043988E-17
3.040000E+03	7.904905E-16	5.061599E-17
3.050000E+03	7.961262E-16	5.077675E-17
3.060000E+03	8.018428E-16	5.093905E-17
3.070000E+03	8.076604E-16	5.110409E-17
3.080000E+03	8.136018E-16	5.127322E-17
3.090000E+03	8.196928E-16	5.144795E-17
3.100000E+03	8.259620E-16	5.162994E-17
3.110000E+03	8.324415E-16	5.182102E-17
3.120000E+03	8.393933E-16	5.203729E-17
3.130000E+03	8.466231E-16	5.226635E-17
3.140000E+03	8.543948E-16	5.252420E-17
3.150000E+03	8.625236E-16	5.279909E-17
3.160000E+03	8.714937E-16	5.312024E-17
3.170000E+03	8.809059E-16	5.346273E-17
3.180000E+03	8.910253E-16	5.384223E-17
3.190000E+03	9.018973E-16	5.426087E-17
3.200000E+03	9.137805E-16	5.473354E-17
3.210000E+03	9.265068E-16	5.524938E-17
3.220000E+03	9.403335E-16	5.582296E-17
3.230000E+03	9.553035E-16	5.645591E-17
3.240000E+03	9.714594E-16	5.714979E-17
3.250000E+03	9.886361E-16	5.789395E-17
3.260000E+03	1.007490E-15	5.872580E-17
3.270000E+03	1.027439E-15	5.961009E-17
3.280000E+03	1.049125E-15	6.058306E-17
3.290000E+03	1.072163E-15	6.162106E-17
3.300000E+03	1.096976E-15	6.274718E-17
3.310000E+03	1.123365E-15	6.394860E-17
3.320000E+03	1.151530E-15	6.523521E-17
3.330000E+03	1.181454E-15	6.660461E-17
3.340000E+03	1.212905E-15	6.804225E-17
3.350000E+03	1.246243E-15	6.956692E-17
3.360000E+03	1.281411E-15	7.117379E-17
3.370000E+03	1.318336E-15	7.285728E-17
3.380000E+03	1.356926E-15	7.461077E-17
3.390000E+03	1.397050E-15	7.642563E-17
3.400000E+03	1.438716E-15	7.830095E-17
3.410000E+03	1.481443E-15	8.020934E-17
3.420000E+03	1.525280E-15	8.215241E-17
3.430000E+03	1.569789E-15	8.410579E-17
3.440000E+03	1.614287E-15	8.603237E-17
3.450000E+03	1.658488E-15	8.791700E-17
3.460000E+03	1.701945E-15	8.973626E-17
3.470000E+03	1.744302E-15	9.147212E-17
3.480000E+03	1.785726E-15	9.313408E-17
3.490000E+03	1.825720E-15	9.469722E-17
3.500000E+03	1.864723E-15	9.618536E-17
3.510000E+03	1.902690E-15	9.759695E-17
3.520000E+03	1.940038E-15	9.895419E-17
3.530000E+03	1.977028E-15	1.002708E-16
3.540000E+03	2.013938E-15	1.015612E-16
3.550000E+03	2.051238E-15	1.028488E-16
3.560000E+03	2.089030E-15	1.041386E-16
3.570000E+03	2.127992E-15	1.054635E-16
3.580000E+03	2.168118E-15	1.068224E-16
3.590000E+03	2.210034E-15	1.082447E-16
3.600000E+03	2.254454E-15	1.097639E-16
3.610000E+03	2.301678E-15	1.113921E-16
3.620000E+03	2.352760E-15	1.131776E-16
3.630000E+03	2.408216E-15	1.151417E-16
3.640000E+03	2.468602E-15	1.173069E-16
3.650000E+03	2.534050E-15	1.196752E-16
3.660000E+03	2.604806E-15	1.222536E-16
3.670000E+03	2.679763E-15	1.249859E-16
3.680000E+03	2.757850E-15	1.278187E-16
3.690000E+03	2.837183E-15	1.306624E-16
3.700000E+03	2.915299E-15	1.334034E-16
3.710000E+03	2.988987E-15	1.358966E-16
3.720000E+03	3.055400E-15	1.380175E-16
3.730000E+03	3.111699E-15	1.396451E-16
3.740000E+03	3.155871E-15	1.406986E-16
3.750000E+03	3.187325E-15	1.411627E-16
3.760000E+03	3.206538E-15	1.410695E-16
3.770000E+03	3.215605E-15	1.405216E-16
3.780000E+03	3.218345E-15	1.396938E-16
3.790000E+03	3.219341E-15	1.387892E-16
3.800000E+03	3.224661E-15	1.380695E-16
3.810000E+03	3.240791E-15	1.378066E-16
3.820000E+03	3.274787E-15	1.382891E-16
3.830000E+03	3.333908E-15	1.398057E-16
3.840000E+03	3.425749E-15	1.426507E-16
3.850000E+03	3.557872E-15	1.471081E-16
3.860000E+03	3.737522E-15	1.534401E-16
3.870000E+03	3.971887E-15	1.618981E-16
3.880000E+03	4.267589E-15	1.727024E-16
3.890000E+03	4.630498E-15	1.860355E-16
3.900000E+03	5.064395E-15	2.019898E-16
3.910000E+03	5.570088E-15	2.205359E-16
3.920000E+03	6.144278E-15	2.414825E-16
3.930000E+03	6.777512E-15	2.644020E-16
3.940000E+03	7.455267E-15	2.886821E-16
3.950000E+03	8.156817E-15	3.134890E-16
3.960000E+03	8.857841E-15	3.378761E-16
3.970000E+03	9.533570E-15	3.609082E-16
3.980000E+03	1.016342E-14	3.818358E-16
3.990000E+03	1.073301E-14	4.001640E-16
4.000000E+03	1.123488E-14	4.156710E-16
4.010000E+03	1.166992E-14	4.284488E-16
4.020000E+03	1.204465E-14	4.387942E-16
4.030000E+03	1.236660E-14	4.470327E-16
4.040000E+03	1.264020E-14	4.533692E-16
4.050000E+03	1.286534E-14	4.578427E-16
4.060000E+03	1.303559E-14	4.602681E-16
4.070000E+03	1.313744E-14	4.602197E-16
4.080000E+03	1.315398E-14	4.571679E-16
4.090000E+03	1.307019E-14	4.506666E-16
4.100000E+03	1.287709E-14	4.404916E-16
4.110000E+03	1.257470E-14	4.267333E-16
4.120000E+03	1.217074E-14	4.097404E-16
4.130000E+03	1.168225E-14	3.901625E-16
4.140000E+03	1.113140E-14	3.688008E-16
4.150000E+03	1.054341E-14	3.465316E-16
4.160000E+03	9.943263E-15	3.241968E-16
4.170000E+03	9.354218E-15	3.025552E-16
4.180000E+03	8.796326E-15	2.822388E-16
4.190000E+03	8.285562E-15	2.637289E-16
4.200000E+03	7.833962E-15	2.473667E-16
4.210000E+03	7.449958E-15	2.333689E-16
4.220000E+03	7.139162E-15	2.218568E-16
4.230000E+03	6.905608E-15	2.128983E-16
4.240000E+03	6.752466E-15	2.065322E-16
4.250000E+03	6.683896E-15	2.028255E-16
4.260000E+03	6.703213E-15	2.018169E-16
4.270000E+03	6.812423E-15	2.035044E-16
4.280000E+03	7.010374E-15	2.077923E-16
4.290000E+03	7.292992E-15	2.145015E-16
4.300000E+03	7.652283E-15	2.233441E-16
4.310000E+03	8.075204E-15	2.338949E-16
4.320000E+03	8.543274E-15	2.455854E-16
4.330000E+03	9.031566E-15	2.576808E-16
4.340000E+03	9.509863E-15	2.693184E-16
4.350000E+03	9.943426E-15	2.795345E-16
4.360000E+03	1.029591E-14	2.873485E-16
4.370000E+03	1.053601E-14	2.919478E-16
4.380000E+03	1.064823E-14	2.929774E-16
4.390000E+03	1.063516E-14	2.905851E-16
4.400000E+03	1.051546E-14	2.853506E-16
4.410000E+03	1.032139E-14	2.782025E-16
4.420000E+03	1.009054E-14	2.701865E-16
4.430000E+03	9.860521E-15	2.623203E-16
4.440000E+03	9.666088E-15	2.555203E-16
4.450000E+03	9.539386E-15	2.506111E-16
4.460000E+03	9.509960E-15	2.483298E-16
4.470000E+03	9.605196E-15	2.493402E-16
4.480000E+03	9.850075E-15	2.542304E-16
4.490000E+03	1.026664E-14	2.635023E-16
4.500000E+03	1.087465E-14	2.775911E-16
4.510000E+03	1.168892E-14	2.968006E-16
4.520000E+03	1.271343E-14	3.211586E-16
4.530000E+03	1.393905E-14	3.503660E-16
4.540000E+03	1.534141E-14	3.837519E-16
4.550000E+03	1.687824E-14	4.202162E-16
4.560000E+03	1.848930E-14	4.582368E-16
4.570000E+03	2.010335E-14	4.960481E-16
4.580000E+03	2.164779E-14	5.318832E-16
4.590000E+03	2.305301E-14	5.640762E-16
4.600000E+03	2.425496E-14	5.911222E-16
4.610000E+03	2.519615E-14	6.116958E-16
4.620000E+03	2.583127E-14	6.247820E-16
4.630000E+03	2.612551E-14	6.296287E-16
4.640000E+03	2.605644E-14	6.257861E-16
4.650000E+03	2.562124E-14	6.132749E-16
4.660000E+03	2.484017E-14	5.926595E-16
4.670000E+03	2.375748E-14	5.650632E-16
4.680000E+03	2.243728E-14	5.320612E-16
4.690000E+03	2.095820E-14	4.955499E-16
4.700000E+03	1.940349E-14	4.575111E-16
4.710000E+03	1.785433E-14	4.198537E-16
4.720000E+03	1.638710E-14	3.843549E-16
4.730000E+03	1.507445E-14	3.526870E-16
4.740000E+03	1.398438E-14	3.263991E-16
4.750000E+03	1.316843E-14	3.066456E-16
4.760000E+03	1.265857E-14	2.941180E-16
4.770000E+03	1.247474E-14	2.892270E-16
4.780000E+03	1.262594E-14	2.921301E-16
4.790000E+03	1.310712E-14	3.026625E-16
4.800000E+03	1.390278E-14	3.204232E-16
4.810000E+03	1.498321E-14	3.446901E-16
4.820000E+03	1.629279E-14	3.741544E-16
4.830000E+03	1.774654E-14	4.068443E-16
4.840000E+03	1.924088E-14	4.403770E-16
4.850000E+03	2.067371E-14	4.724185E-16
4.860000E+03	2.195450E-14	5.009135E-16
4.870000E+03	2.301276E-14	5.242739E-16
4.880000E+03	2.380659E-14	5.415709E-16
4.890000E+03	2.432822E-14	5.526537E-16
4.900000E+03	2.460244E-14	5.581100E-16
4.910000E+03	2.468306E-14	5.591809E-16
4.920000E+03	2.464267E-14	5.575241E-16
4.930000E+03	2.456054E-14	5.549395E-16
4.940000E+03	2.451220E-14	5.531333E-16
4.950000E+03	2.455456E-14	5.533825E-16
4.960000E+03	2.470435E-14	5.560546E-16
4.970000E+03	2.492360E-14	5.602851E-16
4.980000E+03	2.513057E-14	5.642311E-16
4.990000E+03	2.521685E-14	5.654611E-16
5.000000E+03	2.506153E-14	5.612761E-16
5.010000E+03	2.456525E-14	5.494724E-16
5.020000E+03	2.368999E-14	5.292278E-16
5.030000E+03	2.248127E-14	5.015896E-16
5.040000E+03	2.104530E-14	4.689521E-16
5.050000E+03	1.951673E-14	4.343312E-16
5.060000E+03	1.802865E-14	4.006932E-16
5.070000E+03	1.669273E-14	3.705139E-16
5.080000E+03	1.558925E-14	3.455599E-16
5.090000E+03	1.476870E-14	3.269293E-16
5.100000E+03	1.425714E-14	3.151732E-16
5.110000E+03	1.405813E-14	3.103425E-16
5.120000E+03	1.415422E-14	3.120237E-16
5.130000E+03	1.451450E-14	3.195086E-16
5.140000E+03	1.509640E-14	3.318359E-16
5.150000E+03	1.584022E-14	3.476733E-16
5.160000E+03	1.667139E-14	3.653697E-16
5.170000E+03	1.751127E-14	3.831947E-16
5.180000E+03	1.828900E-14	3.995984E-16
5.190000E+03	1.894925E-14	4.133792E-16
5.200000E+03	1.945995E-14	4.238498E-16
5.210000E+03	1.981828E-14	4.309644E-16
5.220000E+03	2.004709E-14	4.352349E-16
5.230000E+03	2.018588E-14	4.375313E-16
5.240000E+03	2.028265E-14	4.389024E-16
5.250000E+03	2.038580E-14	4.403988E-16
5.260000E+03	2.053532E-14	4.428828E-16
5.270000E+03	2.075695E-14	4.469042E-16
5.280000E+03	2.106309E-14	4.527225E-16
5.290000E+03	2.145516E-14	4.603593E-16
5.300000E+03	2.192123E-14	4.695505E-16
5.310000E+03	2.244050E-14	4.798444E-16
5.320000E+03	2.298770E-14	4.906965E-16
5.330000E+03	2.353414E-14	5.014935E-16
5.340000E+03	2.404921E-14	5.115862E-16
5.350000E+03	2.450111E-14	5.203039E-16
5.360000E+03	2.485905E-14	5.270029E-16
5.370000E+03	2.509687E-14	5.311411E-16
5.380000E+03	2.520131E-14	5.324538E-16
5.390000E+03	2.517555E-14	5.310234E-16
5.400000E+03	2.504126E-14	5.273219E-16
5.410000E+03	2.483967E-14	5.222288E-16
5.420000E+03	2.463032E-14	5.170023E-16
5.430000E+03	2.447567E-14	5.129532E-16
5.440000E+03	2.442528E-14	5.111147E-16
5.450000E+03	2.450801E-14	5.120814E-16
5.460000E+03	2.473029E-14	5.159755E-16
5.470000E+03	2.507705E-14	5.224701E-16
5.480000E+03	2.551205E-14	5.307999E-16
5.490000E+03	2.597875E-14	5.397822E-16
5.500000E+03	2.640064E-14	5.478267E-16
5.510000E+03	2.668830E-14	5.530838E-16
5.520000E+03	2.676086E-14	5.538889E-16
5.530000E+03	2.657618E-14	5.493859E-16
5.540000E+03	2.615426E-14	5.400052E-16
5.550000E+03	2.556141E-14	5.271297E-16
5.560000E+03	2.489265E-14	5.127267E-16
5.570000E+03	2.425628E-14	4.990279E-16
5.580000E+03	2.375017E-14	4.880398E-16
5.590000E+03	2.344199E-14	4.811401E-16
5.600000E+03	2.336189E-14	4.789310E-16
5.610000E+03	2.350884E-14	4.813732E-16
5.620000E+03	2.385103E-14	4.877982E-16
5.630000E+03	2.432591E-14	4.969123E-16
5.640000E+03	2.484784E-14	5.069568E-16
5.650000E+03	2.532442E-14	5.160437E-16
5.660000E+03	2.566849E-14	5.224006E-16
5.670000E+03	2.580702E-14	5.245518E-16
5.680000E+03	2.569109E-14	5.215188E-16
5.690000E+03	2.530565E-14	5.130156E-16
5.700000E+03	2.466385E-14	4.993300E-16
5.710000E+03	2.379979E-14	4.811725E-16
5.720000E+03	2.276403E-14	4.595831E-16
5.730000E+03	2.161818E-14	4.358199E-16
5.740000E+03	2.043208E-14	4.113001E-16
5.750000E+03	1.928120E-14	3.875459E-16
5.760000E+03	1.823869E-14	3.660242E-16
5.770000E+03	1.737102E-14	3.480588E-16
5.780000E+03	1.673749E-14	3.348207E-16
5.790000E+03	1.638633E-14	3.272515E-16
5.800000E+03	1.634949E-14	3.259608E-16
5.810000E+03	1.663999E-14	3.311760E-16
5.820000E+03	1.725592E-14	3.428246E-16
5.830000E+03	1.817479E-14	3.604248E-16
5.840000E+03	1.934230E-14	3.828676E-16
5.850000E+03	2.067087E-14	4.083933E-16
5.860000E+03	2.205472E-14	4.348959E-16
5.870000E+03	2.338562E-14	4.602370E-16
5.880000E+03	2.456405E-14	4.824664E-16
5.890000E+03	2.551352E-14	5.001020E-16
5.900000E+03	2.619397E-14	5.123866E-16
5.910000E+03	2.660113E-14	5.192697E-16
5.920000E+03	2.675603E-14	5.211951E-16
5.930000E+03	2.669523E-14	5.189056E-16
5.940000E+03	2.646298E-14	5.132881E-16
5.950000E+03	2.610491E-14	5.052488E-16
5.960000E+03	2.566182E-14	4.955937E-16
5.970000E+03	2.516937E-14	4.850228E-16
5.980000E+03	2.465470E-14	4.740659E-16
5.990000E+03	2.413857E-14	4.631260E-16
6.000000E+03	2.363611E-14	4.524953E-16
6.010000E+03	2.316017E-14	4.424191E-16
6.020000E+03	2.272129E-14	4.330966E-16
6.030000E+03	2.232960E-14	4.247180E-16
6.040000E+03	2.199418E-14	4.174514E-16
6.050000E+03	2.172351E-14	4.114522E-16
6.060000E+03	2.152183E-14	4.067949E-16
6.070000E+03	2.138671E-14	4.034274E-16
6.080000E+03	2.130764E-14	4.011466E-16
6.090000E+03	2.126827E-14	3.996413E-16
6.100000E+03	2.125254E-14	3.986085E-16
6.110000E+03	2.124715E-14	3.977994E-16
6.120000E+03	2.124720E-14	3.971239E-16
6.130000E+03	2.125939E-14	3.967098E-16
6.140000E+03	2.130244E-14	3.969072E-16
6.150000E+03	2.139961E-14	3.981500E-16
6.160000E+03	2.156538E-14	4.007059E-16
6.170000E+03	2.179604E-14	4.045054E-16
6.180000E+03	2.206608E-14	4.090759E-16
6.190000E+03	2.233216E-14	4.136172E-16
6.200000E+03	2.255565E-14	4.174201E-16
6.210000E+03	2.272647E-14	4.203047E-16
6.220000E+03	2.284513E-14	4.222864E-16
6.230000E+03	2.290507E-14	4.232470E-16
6.240000E+03	2.289295E-14	4.229411E-16
6.250000E+03	2.279471E-14	4.211101E-16
6.260000E+03	2.259829E-14	4.175303E-16
6.270000E+03	2.228988E-14	4.119440E-16
6.280000E+03	2.185055E-14	4.039972E-16
6.290000E+03	2.125636E-14	3.932396E-16
6.300000E+03	2.048478E-14	3.792443E-16
6.310000E+03	1.952612E-14	3.618177E-16
6.320000E+03	1.839175E-14	3.411535E-16
6.330000E+03	1.711930E-14	3.179300E-16
6.340000E+03	1.577316E-14	2.933251E-16
6.350000E+03	1.443699E-14	2.688795E-16
6.360000E+03	1.319465E-14	2.461471E-16
6.370000E+03	1.211630E-14	2.264371E-16
6.380000E+03	1.125485E-14	2.107476E-16
6.390000E+03	1.064671E-14	1.997779E-16
6.400000E+03	1.031838E-14	1.940512E-16
6.410000E+03	1.029307E-14	1.940374E-16
6.420000E+03	1.059715E-14	2.002754E-16
6.430000E+03	1.126065E-14	2.133841E-16
6.440000E+03	1.231216E-14	2.339667E-16
6.450000E+03	1.377168E-14	2.624753E-16
6.460000E+03	1.563558E-14	2.989209E-16
6.470000E+03	1.785388E-14	3.424293E-16
6.480000E+03	2.031606E-14	3.909534E-16
6.490000E+03	2.287197E-14	4.416554E-16
6.500000E+03	2.538119E-14	4.918463E-16
6.510000E+03	2.776190E-14	5.399369E-16
6.520000E+03	3.005113E-14	5.866325E-16
6.530000E+03	3.239456E-14	6.347756E-16
6.540000E+03	3.482696E-14	6.850681E-16
6.550000E+03	3.715342E-14	7.336871E-16
6.560000E+03	3.910834E-14	7.753456E-16
6.570000E+03	4.047140E-14	8.055727E-16
6.580000E+03	4.111687E-14	8.217131E-16
6.590000E+03	4.104903E-14	8.236764E-16
6.600000E+03	4.036983E-14	8.133378E-16
6.610000E+03	3.922868E-14	7.935633E-16
6.620000E+03	3.778429E-14	7.674562E-16
6.630000E+03	3.618093E-14	7.378778E-16
6.640000E+03	3.453040E-14	7.070721E-16
6.650000E+03	3.290667E-14	6.765439E-16
6.660000E+03	3.135404E-14	6.472104E-16
6.670000E+03	2.989613E-14	6.195757E-16
6.680000E+03	2.854319E-14	5.938745E-16
6.690000E+03	2.729834E-14	5.701962E-16
6.700000E+03	2.616095E-14	5.485529E-16
6.710000E+03	2.513302E-14	5.290124E-16
6.720000E+03	2.421539E-14	5.116180E-16
6.730000E+03	2.340652E-14	4.963638E-16
6.740000E+03	2.270425E-14	4.832291E-16
6.750000E+03	2.210249E-14	4.721086E-16
6.760000E+03	2.158958E-14	4.627755E-16
6.770000E+03	2.114940E-14	4.549035E-16
6.780000E+03	2.076204E-14	4.480786E-16
6.790000E+03	2.040591E-14	4.418449E-16
6.800000E+03	2.005956E-14	4.357433E-16
6.810000E+03	1.970397E-14	4.293614E-16
6.820000E+03	1.932584E-14	4.224069E-16
6.830000E+03	1.892087E-14	4.147821E-16
6.840000E+03	1.849212E-14	4.065494E-16
6.850000E+03	1.805047E-14	3.979457E-16
6.860000E+03	1.761432E-14	3.893769E-16
6.870000E+03	1.720490E-14	3.813159E-16
6.880000E+03	1.684333E-14	3.742381E-16
6.890000E+03	1.654856E-14	3.685749E-16
6.900000E+03	1.633534E-14	3.646674E-16
6.910000E+03	1.621146E-14	3.627032E-16
6.920000E+03	1.617756E-14	3.627102E-16
6.930000E+03	1.622784E-14	3.645704E-16
6.940000E+03	1.635077E-14	3.680350E-16
6.950000E+03	1.652960E-14	3.727342E-16
6.960000E+03	1.674371E-14	3.782076E-16
6.970000E+03	1.697151E-14	3.839689E-16
6.980000E+03	1.719147E-14	3.895302E-16
6.990000E+03	1.738337E-14	3.944297E-16
7.000000E+03	1.752991E-14	3.982703E-16
7.010000E+03	1.761801E-14	4.007493E-16
7.020000E+03	1.763931E-14	4.016708E-16
7.030000E+03	1.759168E-14	4.009810E-16
7.040000E+03	1.747890E-14	3.987617E-16
7.050000E+03	1.731105E-14	3.952401E-16
7.060000E+03	1.710301E-14	3.907544E-16
7.070000E+03	1.687437E-14	3.857519E-16
7.080000E+03	1.664629E-14	3.807178E-16
7.090000E+03	1.643827E-14	3.760995E-16
7.100000E+03	1.626597E-14	3.722581E-16
7.110000E+03	1.614004E-14	3.694390E-16
7.120000E+03	1.606496E-14	3.677469E-16
7.130000E+03	1.603749E-14	3.671083E-16
7.140000E+03	1.604882E-14	3.673221E-16
7.150000E+03	1.608772E-14	3.681316E-16
7.160000E+03	1.614097E-14	3.692338E-16
7.170000E+03	1.619733E-14	3.703717E-16
7.180000E+03	1.624878E-14	3.713622E-16
7.190000E+03	1.629306E-14	3.721537E-16
7.200000E+03	1.633265E-14	3.728039E-16
7.210000E+03	1.637296E-14	3.734368E-16
7.220000E+03	1.642185E-14	3.742316E-16
7.230000E+03	1.648587E-14	3.753374E-16
7.240000E+03	1.656989E-14	3.768647E-16
7.250000E+03	1.667240E-14	3.787781E-16
7.260000E+03	1.678802E-14	3.809545E-16
7.270000E+03	1.690769E-14	3.831878E-16
7.280000E+03	1.701900E-14	3.851969E-16
7.290000E+03	1.710819E-14	3.866723E-16
7.300000E+03	1.716403E-14	3.873632E-16
7.310000E+03	1.717924E-14	3.871101E-16
7.320000E+03	1.715150E-14	3.858659E-16
7.330000E+03	1.708407E-14	3.837098E-16
7.340000E+03	1.698564E-14	3.808424E-16
7.350000E+03	1.686772E-14	3.775269E-16
7.360000E+03	1.674251E-14	3.740399E-16
7.370000E+03	1.661894E-14	3.705829E-16
7.380000E+03	1.650379E-14	3.673086E-16
7.390000E+03	1.640106E-14	3.643062E-16
7.400000E+03	1.630946E-14	3.615475E-16
7.410000E+03	1.622670E-14	3.589818E-16
7.420000E+03	1.614836E-14	3.565120E-16
7.430000E+03	1.607013E-14	3.540442E-16
7.440000E+03	1.598799E-14	3.514917E-16
7.450000E+03	1.589901E-14	3.487925E-16
7.460000E+03	1.580062E-14	3.458929E-16
7.470000E+03	1.569138E-14	3.427635E-16
7.480000E+03	1.556939E-14	3.393652E-16
7.490000E+03	1.543344E-14	3.356734E-16
7.500000E+03	1.528129E-14	3.316422E-16
7.510000E+03	1.510971E-14	3.272042E-16
7.520000E+03	1.491438E-14	3.222694E-16
7.530000E+03	1.468998E-14	3.167270E-16
7.540000E+03	1.443107E-14	3.104643E-16
7.550000E+03	1.413625E-14	3.034566E-16
7.560000E+03	1.380693E-14	2.957400E-16
7.570000E+03	1.344889E-14	2.874429E-16
7.580000E+03	1.307274E-14	2.787962E-16
7.590000E+03	1.269165E-14	2.700829E-16
7.600000E+03	1.232128E-14	2.616367E-16
7.610000E+03	1.197880E-14	2.538202E-16
7.620000E+03	1.168108E-14	2.469863E-16
7.630000E+03	1.144310E-14	2.414458E-16
7.640000E+03	1.127856E-14	2.374793E-16
7.650000E+03	1.119809E-14	2.353010E-16
7.660000E+03	1.120943E-14	2.350630E-16
7.670000E+03	1.131694E-14	2.368459E-16
7.680000E+03	1.152150E-14	2.406569E-16
7.690000E+03	1.181833E-14	2.463864E-16
7.700000E+03	1.219487E-14	2.537637E-16
7.710000E+03	1.263157E-14	2.623757E-16
7.720000E+03	1.310196E-14	2.716695E-16
7.730000E+03	1.357312E-14	2.809633E-16
7.740000E+03	1.400853E-14	2.895055E-16
7.750000E+03	1.437489E-14	2.966161E-16
7.760000E+03	1.464943E-14	3.018354E-16
