#wls	flux	fluxerr
1.600000E+03	2.218200E-16	1.395967E-17
1.640000E+03	2.189363E-16	1.373241E-17
1.680000E+03	2.152554E-16	1.345537E-17
1.720000E+03	2.110043E-16	1.314323E-17
1.760000E+03	2.057639E-16	1.277042E-17
1.800000E+03	1.997864E-16	1.235325E-17
1.840000E+03	1.927561E-16	1.187289E-17
1.880000E+03	1.850244E-16	1.135172E-17
1.920000E+03	1.765957E-16	1.079067E-17
1.960000E+03	1.677286E-16	1.020611E-17
2.000000E+03	1.587834E-16	9.620347E-18
2.040000E+03	1.503070E-16	9.066588E-18
2.080000E+03	1.427727E-16	8.573022E-18
2.120000E+03	1.365874E-16	8.163324E-18
2.160000E+03	1.323488E-16	7.872016E-18
2.200000E+03	1.305278E-16	7.725367E-18
2.240000E+03	1.315683E-16	7.747405E-18
2.280000E+03	1.358958E-16	7.960445E-18
2.320000E+03	1.439304E-16	8.385818E-18
2.360000E+03	1.561804E-16	9.049293E-18
2.400000E+03	1.729635E-16	9.964831E-18
2.440000E+03	1.947207E-16	1.115283E-17
2.480000E+03	2.217872E-16	1.262686E-17
2.520000E+03	2.540291E-16	1.437324E-17
2.560000E+03	2.911834E-16	1.637098E-17
2.600000E+03	3.324167E-16	1.856735E-17
2.640000E+03	3.768213E-16	2.090654E-17
2.680000E+03	4.231964E-16	2.331776E-17
2.720000E+03	4.699188E-16	2.570880E-17
2.760000E+03	5.162104E-16	2.803588E-17
2.800000E+03	5.607823E-16	3.022887E-17
2.840000E+03	6.029479E-16	3.225204E-17
2.880000E+03	6.420037E-16	3.407001E-17
2.920000E+03	6.779904E-16	3.568787E-17
2.960000E+03	7.109981E-16	3.711338E-17
3.000000E+03	7.414518E-16	3.837164E-17
3.010000E+03	7.488850E-16	3.867168E-17
3.020000E+03	7.561412E-16	3.896054E-17
3.030000E+03	7.632335E-16	3.923892E-17
3.040000E+03	7.704143E-16	3.951983E-17
3.050000E+03	7.776968E-16	3.980390E-17
3.060000E+03	7.848619E-16	4.007990E-17
3.070000E+03	7.921645E-16	4.036084E-17
3.080000E+03	7.996240E-16	4.064765E-17
3.090000E+03	8.072624E-16	4.094138E-17
3.100000E+03	8.148763E-16	4.123166E-17
3.110000E+03	8.229483E-16	4.154286E-17
3.120000E+03	8.310537E-16	4.185340E-17
3.130000E+03	8.396723E-16	4.218737E-17
3.140000E+03	8.486107E-16	4.253489E-17
3.150000E+03	8.579025E-16	4.289751E-17
3.160000E+03	8.678006E-16	4.328768E-17
3.170000E+03	8.781202E-16	4.369600E-17
3.180000E+03	8.891134E-16	4.413480E-17
3.190000E+03	9.006002E-16	4.459491E-17
3.200000E+03	9.130418E-16	4.509891E-17
3.210000E+03	9.260468E-16	4.562714E-17
3.220000E+03	9.398608E-16	4.619146E-17
3.230000E+03	9.545154E-16	4.679309E-17
3.240000E+03	9.702473E-16	4.744327E-17
3.250000E+03	9.868742E-16	4.813268E-17
3.260000E+03	1.004420E-15	4.886213E-17
3.270000E+03	1.023109E-15	4.964212E-17
3.280000E+03	1.042954E-15	5.047280E-17
3.290000E+03	1.063960E-15	5.135402E-17
3.300000E+03	1.086130E-15	5.228531E-17
3.310000E+03	1.109452E-15	5.326577E-17
3.320000E+03	1.134114E-15	5.430384E-17
3.330000E+03	1.159884E-15	5.538790E-17
3.340000E+03	1.186928E-15	5.652535E-17
3.350000E+03	1.215190E-15	5.771312E-17
3.360000E+03	1.244604E-15	5.894746E-17
3.370000E+03	1.275083E-15	6.022381E-17
3.380000E+03	1.306721E-15	6.154608E-17
3.390000E+03	1.339178E-15	6.289793E-17
3.400000E+03	1.372491E-15	6.428058E-17
3.410000E+03	1.406657E-15	6.569361E-17
3.420000E+03	1.441246E-15	6.711655E-17
3.430000E+03	1.476002E-15	6.853738E-17
3.440000E+03	1.510668E-15	6.994396E-17
3.450000E+03	1.545390E-15	7.134314E-17
3.460000E+03	1.579743E-15	7.271522E-17
3.470000E+03	1.613549E-15	7.405219E-17
3.480000E+03	1.646890E-15	7.535794E-17
3.490000E+03	1.679532E-15	7.662194E-17
3.500000E+03	1.711898E-15	7.786374E-17
3.510000E+03	1.743887E-15	7.907883E-17
3.520000E+03	1.775650E-15	8.027407E-17
3.530000E+03	1.807563E-15	8.146654E-17
3.540000E+03	1.839660E-15	8.265762E-17
3.550000E+03	1.872551E-15	8.387459E-17
3.560000E+03	1.906311E-15	8.512038E-17
3.570000E+03	1.941403E-15	8.641523E-17
3.580000E+03	1.977943E-15	8.776368E-17
3.590000E+03	2.016434E-15	8.918734E-17
3.600000E+03	2.057206E-15	9.069986E-17
3.610000E+03	2.100589E-15	9.231475E-17
3.620000E+03	2.146880E-15	9.404389E-17
3.630000E+03	2.196304E-15	9.589583E-17
3.640000E+03	2.248958E-15	9.787336E-17
3.650000E+03	2.304759E-15	9.997149E-17
3.660000E+03	2.363553E-15	1.021821E-16
3.670000E+03	2.424390E-15	1.044630E-16
3.680000E+03	2.486358E-15	1.067740E-16
3.690000E+03	2.548573E-15	1.090768E-16
3.700000E+03	2.609243E-15	1.112947E-16
3.710000E+03	2.666779E-15	1.133609E-16
3.720000E+03	2.719617E-15	1.152104E-16
3.730000E+03	2.766483E-15	1.167914E-16
3.740000E+03	2.806514E-15	1.180703E-16
3.750000E+03	2.839855E-15	1.190561E-16
3.760000E+03	2.867331E-15	1.197861E-16
3.770000E+03	2.890490E-15	1.203275E-16
3.780000E+03	2.912233E-15	1.208025E-16
3.790000E+03	2.936075E-15	1.213568E-16
3.800000E+03	2.966129E-15	1.221592E-16
3.810000E+03	3.007347E-15	1.234099E-16
3.820000E+03	3.064616E-15	1.253039E-16
3.830000E+03	3.143618E-15	1.280654E-16
3.840000E+03	3.250144E-15	1.319196E-16
3.850000E+03	3.389898E-15	1.370849E-16
3.860000E+03	3.568616E-15	1.437774E-16
3.870000E+03	3.791855E-15	1.522025E-16
3.880000E+03	4.064593E-15	1.625392E-16
3.890000E+03	4.391176E-15	1.749381E-16
3.900000E+03	4.774139E-15	1.894753E-16
3.910000E+03	5.213673E-15	2.061328E-16
3.920000E+03	5.707192E-15	2.247829E-16
3.930000E+03	6.247029E-15	2.451001E-16
3.940000E+03	6.822373E-15	2.666406E-16
3.950000E+03	7.418004E-15	2.887956E-16
3.960000E+03	8.015966E-15	3.108593E-16
3.970000E+03	8.597627E-15	3.321109E-16
3.980000E+03	9.147999E-15	3.519809E-16
3.990000E+03	9.655597E-15	3.700433E-16
4.000000E+03	1.011382E-14	3.860656E-16
4.010000E+03	1.052151E-14	4.000264E-16
4.020000E+03	1.088125E-14	4.120465E-16
4.030000E+03	1.119546E-14	4.222394E-16
4.040000E+03	1.146438E-14	4.306347E-16
4.050000E+03	1.168461E-14	4.371261E-16
4.060000E+03	1.184808E-14	4.414352E-16
4.070000E+03	1.194164E-14	4.431006E-16
4.080000E+03	1.195015E-14	4.415945E-16
4.090000E+03	1.186157E-14	4.365129E-16
4.100000E+03	1.167064E-14	4.277080E-16
4.110000E+03	1.137941E-14	4.153011E-16
4.120000E+03	1.099752E-14	3.996890E-16
4.130000E+03	1.054214E-14	3.815341E-16
4.140000E+03	1.003492E-14	3.616507E-16
4.150000E+03	9.499027E-15	3.408936E-16
4.160000E+03	8.957261E-15	3.200906E-16
4.170000E+03	8.430136E-15	2.999743E-16
4.180000E+03	7.934796E-15	2.811455E-16
4.190000E+03	7.484818E-15	2.640684E-16
4.200000E+03	7.090258E-15	2.490758E-16
4.210000E+03	6.758020E-15	2.363838E-16
4.220000E+03	6.492714E-15	2.261247E-16
4.230000E+03	6.297165E-15	2.183660E-16
4.240000E+03	6.173954E-15	2.131654E-16
4.250000E+03	6.126118E-15	2.105945E-16
4.260000E+03	6.156540E-15	2.107184E-16
4.270000E+03	6.266894E-15	2.135589E-16
4.280000E+03	6.456478E-15	2.190567E-16
4.290000E+03	6.722103E-15	2.270688E-16
4.300000E+03	7.057244E-15	2.373424E-16
4.310000E+03	7.450413E-15	2.494624E-16
4.320000E+03	7.884024E-15	2.628173E-16
4.330000E+03	8.334734E-15	2.766152E-16
4.340000E+03	8.773397E-15	2.898863E-16
4.350000E+03	9.167241E-15	3.015587E-16
4.360000E+03	9.483348E-15	3.105747E-16
4.370000E+03	9.693160E-15	3.160378E-16
4.380000E+03	9.786639E-15	3.176692E-16
4.390000E+03	9.768870E-15	3.156839E-16
4.400000E+03	9.658126E-15	3.107182E-16
4.410000E+03	9.483564E-15	3.037459E-16
4.420000E+03	9.278330E-15	2.958513E-16
4.430000E+03	9.076000E-15	2.881131E-16
4.440000E+03	8.907324E-15	2.815018E-16
4.450000E+03	8.800351E-15	2.768854E-16
4.460000E+03	8.780550E-15	2.750357E-16
4.470000E+03	8.870863E-15	2.766316E-16
4.480000E+03	9.092854E-15	2.822970E-16
4.490000E+03	9.464974E-15	2.925481E-16
4.500000E+03	1.000474E-14	3.078627E-16
4.510000E+03	1.072625E-14	3.286054E-16
4.520000E+03	1.163591E-14	3.548990E-16
4.530000E+03	1.273064E-14	3.865754E-16
4.540000E+03	1.399559E-14	4.231140E-16
4.550000E+03	1.539946E-14	4.635067E-16
4.560000E+03	1.689480E-14	5.062792E-16
4.570000E+03	1.842113E-14	5.495945E-16
4.580000E+03	1.991360E-14	5.915173E-16
4.590000E+03	2.130505E-14	6.300780E-16
4.600000E+03	2.253001E-14	6.633915E-16
4.610000E+03	2.352828E-14	6.897602E-16
4.620000E+03	2.424765E-14	7.077499E-16
4.630000E+03	2.464687E-14	7.162704E-16
4.640000E+03	2.469720E-14	7.146129E-16
4.650000E+03	2.438725E-14	7.025819E-16
4.660000E+03	2.372776E-14	6.806205E-16
4.670000E+03	2.275218E-14	6.498134E-16
4.680000E+03	2.151598E-14	6.118537E-16
4.690000E+03	2.009207E-14	5.688992E-16
4.700000E+03	1.856451E-14	5.233856E-16
4.710000E+03	1.702147E-14	4.778229E-16
4.720000E+03	1.554682E-14	4.345570E-16
4.730000E+03	1.421691E-14	3.956852E-16
4.740000E+03	1.309917E-14	3.630210E-16
4.750000E+03	1.224188E-14	3.378189E-16
4.760000E+03	1.167572E-14	3.208276E-16
4.770000E+03	1.141988E-14	3.124686E-16
4.780000E+03	1.148367E-14	3.128867E-16
4.790000E+03	1.186419E-14	3.218925E-16
4.800000E+03	1.255084E-14	3.390920E-16
4.810000E+03	1.352362E-14	3.638437E-16
4.820000E+03	1.474088E-14	3.949369E-16
4.830000E+03	1.613523E-14	4.304949E-16
4.840000E+03	1.762027E-14	4.681656E-16
4.850000E+03	1.910412E-14	5.054914E-16
4.860000E+03	2.049880E-14	5.401574E-16
4.870000E+03	2.172664E-14	5.701582E-16
4.880000E+03	2.273188E-14	5.940928E-16
4.890000E+03	2.348656E-14	6.113081E-16
4.900000E+03	2.399255E-14	6.219339E-16
4.910000E+03	2.428081E-14	6.268497E-16
4.920000E+03	2.440334E-14	6.274619E-16
4.930000E+03	2.442531E-14	6.254912E-16
4.940000E+03	2.441428E-14	6.226922E-16
4.950000E+03	2.442790E-14	6.205391E-16
4.960000E+03	2.449304E-14	6.197047E-16
4.970000E+03	2.458953E-14	6.196647E-16
4.980000E+03	2.466147E-14	6.190064E-16
4.990000E+03	2.462953E-14	6.157541E-16
5.000000E+03	2.439879E-14	6.075751E-16
5.010000E+03	2.388687E-14	5.924844E-16
5.020000E+03	2.305741E-14	5.696654E-16
5.030000E+03	2.194088E-14	5.399586E-16
5.040000E+03	2.061875E-14	5.054426E-16
5.050000E+03	1.919835E-14	4.687943E-16
5.060000E+03	1.779124E-14	4.327523E-16
5.070000E+03	1.649653E-14	3.997116E-16
5.080000E+03	1.539082E-14	3.714865E-16
5.090000E+03	1.452738E-14	3.493030E-16
5.100000E+03	1.393788E-14	3.338504E-16
5.110000E+03	1.363257E-14	3.252970E-16
5.120000E+03	1.360064E-14	3.233075E-16
5.130000E+03	1.381987E-14	3.272817E-16
5.140000E+03	1.425741E-14	3.363775E-16
5.150000E+03	1.486568E-14	3.494199E-16
5.160000E+03	1.558292E-14	3.649186E-16
5.170000E+03	1.634209E-14	3.812832E-16
5.180000E+03	1.708003E-14	3.970360E-16
5.190000E+03	1.774231E-14	4.109241E-16
5.200000E+03	1.829062E-14	4.220845E-16
5.210000E+03	1.871037E-14	4.302119E-16
5.220000E+03	1.900926E-14	4.355161E-16
5.230000E+03	1.921219E-14	4.385967E-16
5.240000E+03	1.935554E-14	4.403054E-16
5.250000E+03	1.948094E-14	4.416008E-16
5.260000E+03	1.962593E-14	4.433361E-16
5.270000E+03	1.981781E-14	4.461219E-16
5.280000E+03	2.007414E-14	4.503422E-16
5.290000E+03	2.040198E-14	4.561405E-16
5.300000E+03	2.079546E-14	4.633712E-16
5.310000E+03	2.123926E-14	4.716809E-16
5.320000E+03	2.171218E-14	4.805907E-16
5.330000E+03	2.218882E-14	4.895356E-16
5.340000E+03	2.264152E-14	4.979088E-16
5.350000E+03	2.304116E-14	5.050785E-16
5.360000E+03	2.335878E-14	5.104251E-16
5.370000E+03	2.357038E-14	5.134442E-16
5.380000E+03	2.366040E-14	5.138212E-16
5.390000E+03	2.362762E-14	5.115543E-16
5.400000E+03	2.348492E-14	5.069468E-16
5.410000E+03	2.326200E-14	5.006591E-16
5.420000E+03	2.300554E-14	4.937078E-16
5.430000E+03	2.276911E-14	4.872451E-16
5.440000E+03	2.260319E-14	4.823446E-16
5.450000E+03	2.253591E-14	4.795920E-16
5.460000E+03	2.258587E-14	4.793646E-16
5.470000E+03	2.275940E-14	4.817762E-16
5.480000E+03	2.304910E-14	4.866509E-16
5.490000E+03	2.343240E-14	4.934947E-16
5.500000E+03	2.386380E-14	5.013387E-16
5.510000E+03	2.425791E-14	5.083866E-16
5.520000E+03	2.452397E-14	5.127477E-16
5.530000E+03	2.459515E-14	5.130470E-16
5.540000E+03	2.445280E-14	5.089239E-16
5.550000E+03	2.412151E-14	5.009183E-16
5.560000E+03	2.366047E-14	4.902808E-16
5.570000E+03	2.315616E-14	4.788148E-16
5.580000E+03	2.269943E-14	4.683983E-16
5.590000E+03	2.236284E-14	4.605175E-16
5.600000E+03	2.219189E-14	4.560904E-16
5.610000E+03	2.220589E-14	4.554920E-16
5.620000E+03	2.239668E-14	4.585325E-16
5.630000E+03	2.272416E-14	4.643712E-16
5.640000E+03	2.312393E-14	4.716797E-16
5.650000E+03	2.351837E-14	4.788693E-16
5.660000E+03	2.382536E-14	4.842719E-16
5.670000E+03	2.396682E-14	4.863130E-16
5.680000E+03	2.388101E-14	4.837585E-16
5.690000E+03	2.353626E-14	4.759906E-16
5.700000E+03	2.293111E-14	4.630046E-16
5.710000E+03	2.209137E-14	4.453440E-16
5.720000E+03	2.106627E-14	4.240204E-16
5.730000E+03	1.992142E-14	4.003672E-16
5.740000E+03	1.873216E-14	3.759045E-16
5.750000E+03	1.757719E-14	3.522111E-16
5.760000E+03	1.652930E-14	3.307379E-16
5.770000E+03	1.565138E-14	3.127299E-16
5.780000E+03	1.499622E-14	2.992244E-16
5.790000E+03	1.460566E-14	2.910355E-16
5.800000E+03	1.450721E-14	2.886884E-16
5.810000E+03	1.471429E-14	2.924259E-16
5.820000E+03	1.523072E-14	3.023000E-16
5.830000E+03	1.604640E-14	3.180878E-16
5.840000E+03	1.712554E-14	3.390592E-16
5.850000E+03	1.840401E-14	3.639280E-16
5.860000E+03	1.979756E-14	3.910174E-16
5.870000E+03	2.121067E-14	4.184370E-16
5.880000E+03	2.254353E-14	4.442205E-16
5.890000E+03	2.370380E-14	4.665578E-16
5.900000E+03	2.462528E-14	4.841600E-16
5.910000E+03	2.527296E-14	4.963568E-16
5.920000E+03	2.564080E-14	5.030476E-16
5.930000E+03	2.574721E-14	5.046118E-16
5.940000E+03	2.562868E-14	5.017795E-16
5.950000E+03	2.533197E-14	4.954789E-16
5.960000E+03	2.490673E-14	4.866901E-16
5.970000E+03	2.439977E-14	4.763340E-16
5.980000E+03	2.385100E-14	4.651928E-16
5.990000E+03	2.329136E-14	4.538711E-16
6.000000E+03	2.274438E-14	4.428270E-16
6.010000E+03	2.222722E-14	4.323930E-16
6.020000E+03	2.175231E-14	4.228090E-16
6.030000E+03	2.132883E-14	4.142502E-16
6.040000E+03	2.096486E-14	4.068711E-16
6.050000E+03	2.066678E-14	4.007925E-16
6.060000E+03	2.044014E-14	3.961186E-16
6.070000E+03	2.028534E-14	3.928546E-16
6.080000E+03	2.019847E-14	3.909216E-16
6.090000E+03	2.017121E-14	3.901567E-16
6.100000E+03	2.019421E-14	3.903775E-16
6.110000E+03	2.025728E-14	3.913855E-16
6.120000E+03	2.035145E-14	3.930070E-16
6.130000E+03	2.047121E-14	3.951354E-16
6.140000E+03	2.061650E-14	3.977697E-16
6.150000E+03	2.078901E-14	4.009423E-16
6.160000E+03	2.098750E-14	4.046298E-16
6.170000E+03	2.120403E-14	4.086795E-16
6.180000E+03	2.142774E-14	4.128832E-16
6.190000E+03	2.163959E-14	4.168747E-16
6.200000E+03	2.181996E-14	4.202776E-16
6.210000E+03	2.196489E-14	4.230169E-16
6.220000E+03	2.207336E-14	4.250740E-16
6.230000E+03	2.213649E-14	4.262787E-16
6.240000E+03	2.213919E-14	4.263399E-16
6.250000E+03	2.206269E-14	4.248961E-16
6.260000E+03	2.188626E-14	4.215468E-16
6.270000E+03	2.158804E-14	4.158699E-16
6.280000E+03	2.114483E-14	4.074159E-16
6.290000E+03	2.053513E-14	3.957671E-16
6.300000E+03	1.974537E-14	3.806582E-16
6.310000E+03	1.877751E-14	3.621213E-16
6.320000E+03	1.765429E-14	3.405892E-16
6.330000E+03	1.641815E-14	3.168746E-16
6.340000E+03	1.513016E-14	2.921507E-16
6.350000E+03	1.386259E-14	2.678093E-16
6.360000E+03	1.268625E-14	2.452164E-16
6.370000E+03	1.165977E-14	2.255061E-16
6.380000E+03	1.082860E-14	2.095605E-16
6.390000E+03	1.022430E-14	1.979957E-16
6.400000E+03	9.869411E-15	1.912559E-16
6.410000E+03	9.782019E-15	1.897010E-16
6.420000E+03	9.982279E-15	1.937332E-16
6.430000E+03	1.049257E-14	2.038004E-16
6.440000E+03	1.133552E-14	2.203580E-16
6.450000E+03	1.253008E-14	2.437925E-16
6.460000E+03	1.408350E-14	2.742657E-16
6.470000E+03	1.597527E-14	3.113989E-16
6.480000E+03	1.814718E-14	3.540779E-16
6.490000E+03	2.051424E-14	4.006618E-16
6.500000E+03	2.299107E-14	4.494949E-16
6.510000E+03	2.550332E-14	4.991319E-16
6.520000E+03	2.801991E-14	5.489674E-16
6.530000E+03	3.058877E-14	5.999438E-16
6.540000E+03	3.318991E-14	6.516729E-16
6.550000E+03	3.563046E-14	7.003667E-16
6.560000E+03	3.770556E-14	7.419838E-16
6.570000E+03	3.922997E-14	7.728499E-16
6.580000E+03	4.006962E-14	7.902838E-16
6.590000E+03	4.019879E-14	7.937302E-16
6.600000E+03	3.968609E-14	7.844964E-16
6.610000E+03	3.865799E-14	7.650401E-16
6.620000E+03	3.726783E-14	7.383634E-16
6.630000E+03	3.566518E-14	7.074073E-16
6.640000E+03	3.397525E-14	6.746428E-16
6.650000E+03	3.228749E-14	6.418418E-16
6.660000E+03	3.066001E-14	6.101602E-16
6.670000E+03	2.912830E-14	5.803091E-16
6.680000E+03	2.770837E-14	5.526139E-16
6.690000E+03	2.640632E-14	5.272039E-16
6.700000E+03	2.522239E-14	5.040918E-16
6.710000E+03	2.415576E-14	4.832684E-16
6.720000E+03	2.320434E-14	4.646999E-16
6.730000E+03	2.236438E-14	4.483186E-16
6.740000E+03	2.163133E-14	4.340397E-16
6.750000E+03	2.099851E-14	4.217361E-16
6.760000E+03	2.045564E-14	4.112066E-16
6.770000E+03	1.998842E-14	4.021691E-16
6.780000E+03	1.957983E-14	3.942851E-16
6.790000E+03	1.921158E-14	3.871891E-16
6.800000E+03	1.886496E-14	3.805060E-16
6.810000E+03	1.852291E-14	3.738928E-16
6.820000E+03	1.817299E-14	3.670982E-16
6.830000E+03	1.780893E-14	3.599962E-16
6.840000E+03	1.743074E-14	3.525860E-16
6.850000E+03	1.704377E-14	3.449763E-16
6.860000E+03	1.665992E-14	3.374082E-16
6.870000E+03	1.629489E-14	3.302004E-16
6.880000E+03	1.596432E-14	3.236714E-16
6.890000E+03	1.568349E-14	3.181325E-16
6.900000E+03	1.546605E-14	3.138626E-16
6.910000E+03	1.532018E-14	3.110302E-16
6.920000E+03	1.524952E-14	3.097108E-16
6.930000E+03	1.525208E-14	3.098662E-16
6.940000E+03	1.532162E-14	3.113704E-16
6.950000E+03	1.544644E-14	3.139868E-16
6.960000E+03	1.561128E-14	3.174055E-16
6.970000E+03	1.579850E-14	3.212680E-16
6.980000E+03	1.598933E-14	3.251920E-16
6.990000E+03	1.616557E-14	3.288072E-16
7.000000E+03	1.630976E-14	3.317576E-16
7.010000E+03	1.640814E-14	3.337629E-16
7.020000E+03	1.645065E-14	3.346180E-16
7.030000E+03	1.643187E-14	3.342131E-16
7.040000E+03	1.635244E-14	3.325615E-16
7.050000E+03	1.621856E-14	3.297897E-16
7.060000E+03	1.604113E-14	3.261203E-16
7.070000E+03	1.583601E-14	3.218767E-16
7.080000E+03	1.562106E-14	3.174228E-16
7.090000E+03	1.541413E-14	3.131219E-16
7.100000E+03	1.523001E-14	3.092750E-16
7.110000E+03	1.508027E-14	3.061171E-16
7.120000E+03	1.497176E-14	3.037868E-16
7.130000E+03	1.490550E-14	3.023042E-16
7.140000E+03	1.487709E-14	3.015792E-16
7.150000E+03	1.488036E-14	3.014860E-16
7.160000E+03	1.490640E-14	3.018432E-16
7.170000E+03	1.494603E-14	3.024648E-16
7.180000E+03	1.499191E-14	3.032018E-16
7.190000E+03	1.503992E-14	3.039712E-16
7.200000E+03	1.508973E-14	3.047661E-16
7.210000E+03	1.514267E-14	3.056134E-16
7.220000E+03	1.520243E-14	3.065881E-16
7.230000E+03	1.527415E-14	3.077933E-16
7.240000E+03	1.536045E-14	3.092816E-16
7.250000E+03	1.546136E-14	3.110534E-16
7.260000E+03	1.557336E-14	3.130369E-16
7.270000E+03	1.569019E-14	3.151068E-16
7.280000E+03	1.580198E-14	3.170644E-16
7.290000E+03	1.589721E-14	3.186798E-16
7.300000E+03	1.596533E-14	3.197427E-16
7.310000E+03	1.599824E-14	3.200935E-16
7.320000E+03	1.599147E-14	3.196449E-16
7.330000E+03	1.594527E-14	3.184051E-16
7.340000E+03	1.586585E-14	3.165008E-16
7.350000E+03	1.576293E-14	3.141283E-16
7.360000E+03	1.564785E-14	3.115156E-16
7.370000E+03	1.553052E-14	3.088608E-16
7.380000E+03	1.541980E-14	3.063410E-16
7.390000E+03	1.532162E-14	3.040742E-16
7.400000E+03	1.523768E-14	3.020938E-16
7.410000E+03	1.516697E-14	3.003795E-16
7.420000E+03	1.510697E-14	2.988814E-16
7.430000E+03	1.505333E-14	2.975135E-16
7.440000E+03	1.500152E-14	2.961865E-16
7.450000E+03	1.494675E-14	2.948067E-16
7.460000E+03	1.488502E-14	2.932958E-16
7.470000E+03	1.481332E-14	2.915958E-16
7.480000E+03	1.472913E-14	2.896580E-16
7.490000E+03	1.463015E-14	2.874376E-16
7.500000E+03	1.451473E-14	2.849036E-16
7.510000E+03	1.438141E-14	2.820281E-16
7.520000E+03	1.422630E-14	2.787362E-16
7.530000E+03	1.404229E-14	2.748898E-16
7.540000E+03	1.382335E-14	2.703724E-16
7.550000E+03	1.356585E-14	2.651152E-16
7.560000E+03	1.326982E-14	2.591199E-16
7.570000E+03	1.293915E-14	2.524649E-16
7.580000E+03	1.258223E-14	2.453144E-16
7.590000E+03	1.221110E-14	2.379045E-16
7.600000E+03	1.184069E-14	2.305259E-16
7.610000E+03	1.148893E-14	2.235270E-16
7.620000E+03	1.117425E-14	2.172653E-16
7.630000E+03	1.091422E-14	2.120803E-16
7.640000E+03	1.072508E-14	2.082854E-16
7.650000E+03	1.062057E-14	2.061449E-16
7.660000E+03	1.061161E-14	2.058679E-16
7.670000E+03	1.070491E-14	2.075822E-16
7.680000E+03	1.090327E-14	2.113401E-16
7.690000E+03	1.120377E-14	2.170831E-16
7.700000E+03	1.159513E-14	2.245915E-16
7.710000E+03	1.205781E-14	2.334867E-16
7.720000E+03	1.256484E-14	2.432474E-16
7.730000E+03	1.308121E-14	2.531970E-16
7.740000E+03	1.356673E-14	2.625598E-16
7.750000E+03	1.398331E-14	2.706008E-16
7.760000E+03	1.430298E-14	2.767810E-16
