#wls	flux	fluxerr
1.600000E+03	5.831441E-18	6.411864E-19
1.640000E+03	5.837597E-18	6.404064E-19
1.680000E+03	5.848504E-18	6.401043E-19
1.720000E+03	5.864759E-18	6.403401E-19
1.760000E+03	5.882214E-18	6.406570E-19
1.800000E+03	5.911042E-18	6.421576E-19
1.840000E+03	5.951907E-18	6.449031E-19
1.880000E+03	5.995968E-18	6.479258E-19
1.920000E+03	6.048693E-18	6.518103E-19
1.960000E+03	6.110805E-18	6.566241E-19
2.000000E+03	6.187902E-18	6.629561E-19
2.040000E+03	6.271055E-18	6.698353E-19
2.080000E+03	6.370813E-18	6.783759E-19
2.120000E+03	6.478102E-18	6.875948E-19
2.160000E+03	6.603696E-18	6.986203E-19
2.200000E+03	6.743467E-18	7.109934E-19
2.240000E+03	6.898251E-18	7.247819E-19
2.280000E+03	7.068891E-18	7.400521E-19
2.320000E+03	7.250774E-18	7.562990E-19
2.360000E+03	7.461170E-18	7.752976E-19
2.400000E+03	7.684548E-18	7.953992E-19
2.440000E+03	7.927270E-18	8.172359E-19
2.480000E+03	8.190245E-18	8.408685E-19
2.520000E+03	8.474411E-18	8.663574E-19
2.560000E+03	8.787152E-18	8.944163E-19
2.600000E+03	9.116866E-18	9.238200E-19
2.640000E+03	9.477694E-18	9.559593E-19
2.680000E+03	9.857347E-18	9.895434E-19
2.720000E+03	1.027104E-17	1.026051E-18
2.760000E+03	1.071336E-17	1.064879E-18
2.800000E+03	1.117803E-17	1.105346E-18
2.840000E+03	1.168235E-17	1.149100E-18
2.880000E+03	1.222077E-17	1.195519E-18
2.920000E+03	1.279569E-17	1.244759E-18
2.960000E+03	1.340991E-17	1.297008E-18
3.000000E+03	1.406674E-17	1.352491E-18
3.010000E+03	1.423805E-17	1.366899E-18
3.020000E+03	1.441232E-17	1.381530E-18
3.030000E+03	1.458963E-17	1.396390E-18
3.040000E+03	1.477007E-17	1.411485E-18
3.050000E+03	1.495370E-17	1.426819E-18
3.060000E+03	1.514061E-17	1.442399E-18
3.070000E+03	1.533088E-17	1.458231E-18
3.080000E+03	1.552460E-17	1.474321E-18
3.090000E+03	1.572186E-17	1.490677E-18
3.100000E+03	1.593356E-17	1.508326E-18
3.110000E+03	1.613834E-17	1.525244E-18
3.120000E+03	1.634698E-17	1.542451E-18
3.130000E+03	1.655959E-17	1.559954E-18
3.140000E+03	1.677629E-17	1.577762E-18
3.150000E+03	1.699720E-17	1.595884E-18
3.160000E+03	1.722246E-17	1.614332E-18
3.170000E+03	1.745221E-17	1.633114E-18
3.180000E+03	1.768658E-17	1.652241E-18
3.190000E+03	1.792574E-17	1.671726E-18
3.200000E+03	1.816984E-17	1.691579E-18
3.210000E+03	1.841905E-17	1.711813E-18
3.220000E+03	1.867354E-17	1.732443E-18
3.230000E+03	1.893351E-17	1.753481E-18
3.240000E+03	1.921191E-17	1.776122E-18
3.250000E+03	1.948357E-17	1.798035E-18
3.260000E+03	1.976134E-17	1.820404E-18
3.270000E+03	2.004540E-17	1.843243E-18
3.280000E+03	2.033603E-17	1.866574E-18
3.290000E+03	2.063347E-17	1.890413E-18
3.300000E+03	2.093796E-17	1.914781E-18
3.310000E+03	2.124980E-17	1.939699E-18
3.320000E+03	2.156927E-17	1.965188E-18
3.330000E+03	2.191105E-17	1.992579E-18
3.340000E+03	2.224692E-17	2.019297E-18
3.350000E+03	2.259139E-17	2.046659E-18
3.360000E+03	2.294479E-17	2.074691E-18
3.370000E+03	2.330753E-17	2.103423E-18
3.380000E+03	2.367997E-17	2.132881E-18
3.390000E+03	2.406254E-17	2.163099E-18
3.400000E+03	2.445565E-17	2.194107E-18
3.410000E+03	2.487590E-17	2.227384E-18
3.420000E+03	2.529174E-17	2.260096E-18
3.430000E+03	2.571955E-17	2.293704E-18
3.440000E+03	2.615984E-17	2.328248E-18
3.450000E+03	2.661319E-17	2.363768E-18
3.460000E+03	2.708014E-17	2.400308E-18
3.470000E+03	2.756131E-17	2.437910E-18
3.480000E+03	2.807537E-17	2.478215E-18
3.490000E+03	2.858717E-17	2.518107E-18
3.500000E+03	2.911519E-17	2.559210E-18
3.510000E+03	2.966011E-17	2.601575E-18
3.520000E+03	3.022271E-17	2.645256E-18
3.530000E+03	3.080377E-17	2.690312E-18
3.540000E+03	3.142415E-17	2.738549E-18
3.550000E+03	3.204502E-17	2.786566E-18
3.560000E+03	3.268695E-17	2.836145E-18
3.570000E+03	3.335089E-17	2.887356E-18
3.580000E+03	3.403780E-17	2.940267E-18
3.590000E+03	3.474874E-17	2.994954E-18
3.600000E+03	3.550719E-17	3.053420E-18
3.610000E+03	3.626985E-17	3.111921E-18
3.620000E+03	3.705986E-17	3.172433E-18
3.630000E+03	3.787846E-17	3.235044E-18
3.640000E+03	3.872687E-17	3.299839E-18
3.650000E+03	3.963130E-17	3.369026E-18
3.660000E+03	4.054387E-17	3.438508E-18
3.670000E+03	4.149036E-17	3.510459E-18
3.680000E+03	4.247222E-17	3.584979E-18
3.690000E+03	4.349095E-17	3.662172E-18
3.700000E+03	4.454813E-17	3.742143E-18
3.710000E+03	4.567381E-17	3.827385E-18
3.720000E+03	4.681347E-17	3.913296E-18
3.730000E+03	4.799661E-17	4.002325E-18
3.740000E+03	4.922502E-17	4.094590E-18
3.750000E+03	5.050055E-17	4.190213E-18
3.760000E+03	5.185715E-17	4.291973E-18
3.770000E+03	5.323343E-17	4.394746E-18
3.780000E+03	5.466271E-17	4.501261E-18
3.790000E+03	5.614700E-17	4.611646E-18
3.800000E+03	5.768844E-17	4.726037E-18
3.810000E+03	5.932561E-17	4.847546E-18
3.820000E+03	6.098878E-17	4.970428E-18
3.830000E+03	6.271574E-17	5.097730E-18
3.840000E+03	6.450875E-17	5.229593E-18
3.850000E+03	6.637014E-17	5.366157E-18
3.860000E+03	6.834398E-17	5.510926E-18
3.870000E+03	7.035044E-17	5.657404E-18
3.880000E+03	7.243253E-17	5.809013E-18
3.890000E+03	7.459268E-17	5.965893E-18
3.900000E+03	7.688003E-17	6.131907E-18
3.910000E+03	7.920511E-17	6.299849E-18
3.920000E+03	8.161577E-17	6.473484E-18
3.930000E+03	8.411450E-17	6.652946E-18
3.940000E+03	8.670377E-17	6.838366E-18
3.950000E+03	8.944000E-17	7.034113E-18
3.960000E+03	9.221940E-17	7.231943E-18
3.970000E+03	9.509675E-17	7.436105E-18
3.980000E+03	9.807443E-17	7.646711E-18
3.990000E+03	1.011548E-16	7.863866E-18
4.000000E+03	1.044025E-16	8.092515E-18
4.010000E+03	1.076968E-16	8.323189E-18
4.020000E+03	1.111002E-16	8.560675E-18
4.030000E+03	1.146148E-16	8.805051E-18
4.040000E+03	1.182425E-16	9.056378E-18
4.050000E+03	1.220575E-16	9.320227E-18
4.060000E+03	1.259184E-16	9.585708E-18
4.070000E+03	1.298969E-16	9.858219E-18
4.080000E+03	1.339942E-16	1.013775E-17
4.090000E+03	1.382113E-16	1.042430E-17
4.100000E+03	1.426329E-16	1.072413E-17
4.110000E+03	1.470937E-16	1.102470E-17
4.120000E+03	1.516751E-16	1.133207E-17
4.130000E+03	1.563771E-16	1.164612E-17
4.140000E+03	1.611989E-16	1.196671E-17
4.150000E+03	1.662370E-16	1.230089E-17
4.160000E+03	1.712975E-16	1.263418E-17
4.170000E+03	1.764730E-16	1.297338E-17
4.180000E+03	1.817610E-16	1.331820E-17
4.190000E+03	1.871583E-16	1.366832E-17
4.200000E+03	1.927735E-16	1.403155E-17
4.210000E+03	1.983802E-16	1.439130E-17
4.220000E+03	2.040826E-16	1.475511E-17
4.230000E+03	2.098745E-16	1.512244E-17
4.240000E+03	2.157490E-16	1.549274E-17
4.250000E+03	2.218270E-16	1.587457E-17
4.260000E+03	2.278458E-16	1.624904E-17
4.270000E+03	2.339207E-16	1.662439E-17
4.280000E+03	2.400411E-16	1.699981E-17
4.290000E+03	2.461948E-16	1.737439E-17
4.300000E+03	2.525143E-16	1.775743E-17
4.310000E+03	2.586975E-16	1.812762E-17
4.320000E+03	2.648708E-16	1.849389E-17
4.330000E+03	2.710173E-16	1.885505E-17
4.340000E+03	2.771188E-16	1.920987E-17
4.350000E+03	2.831562E-16	1.955703E-17
4.360000E+03	2.892739E-16	1.990654E-17
4.370000E+03	2.951232E-16	2.023441E-17
4.380000E+03	3.008437E-16	2.055037E-17
4.390000E+03	3.064131E-16	2.085301E-17
4.400000E+03	3.118175E-16	2.114149E-17
4.410000E+03	3.170512E-16	2.141555E-17
4.420000E+03	3.222932E-16	2.168737E-17
4.430000E+03	3.271769E-16	2.193235E-17
4.440000E+03	3.318800E-16	2.216265E-17
4.450000E+03	3.364003E-16	2.237824E-17
4.460000E+03	3.407364E-16	2.257918E-17
4.470000E+03	3.448870E-16	2.276554E-17
4.480000E+03	3.490480E-16	2.295032E-17
4.490000E+03	3.528274E-16	2.310785E-17
4.500000E+03	3.564197E-16	2.325112E-17
4.510000E+03	3.598252E-16	2.338030E-17
4.520000E+03	3.630443E-16	2.349555E-17
4.530000E+03	3.660776E-16	2.359707E-17
4.540000E+03	3.689264E-16	2.368508E-17
4.550000E+03	3.717997E-16	2.377310E-17
4.560000E+03	3.742852E-16	2.383484E-17
4.570000E+03	3.765914E-16	2.388383E-17
4.580000E+03	3.787208E-16	2.392037E-17
4.590000E+03	3.806762E-16	2.394476E-17
4.600000E+03	3.824606E-16	2.395733E-17
4.610000E+03	3.840775E-16	2.395843E-17
4.620000E+03	3.855302E-16	2.394841E-17
4.630000E+03	3.868231E-16	2.392764E-17
4.640000E+03	3.881747E-16	2.390973E-17
4.650000E+03	3.891606E-16	2.386859E-17
4.660000E+03	3.899998E-16	2.381789E-17
4.670000E+03	3.906971E-16	2.375803E-17
4.680000E+03	3.912577E-16	2.368945E-17
4.690000E+03	3.916869E-16	2.361257E-17
4.700000E+03	3.919900E-16	2.352782E-17
4.710000E+03	3.921728E-16	2.343565E-17
4.720000E+03	3.922410E-16	2.333648E-17
4.730000E+03	3.922002E-16	2.323076E-17
4.740000E+03	3.920566E-16	2.311893E-17
4.750000E+03	3.918160E-16	2.300141E-17
4.760000E+03	3.916980E-16	2.289113E-17
4.770000E+03	3.912810E-16	2.276346E-17
4.780000E+03	3.907851E-16	2.263139E-17
4.790000E+03	3.902161E-16	2.249533E-17
4.800000E+03	3.895801E-16	2.235569E-17
4.810000E+03	3.888830E-16	2.221286E-17
4.820000E+03	3.881307E-16	2.206724E-17
4.830000E+03	3.873290E-16	2.191919E-17
4.840000E+03	3.864835E-16	2.176909E-17
4.850000E+03	3.855998E-16	2.161729E-17
4.860000E+03	3.846836E-16	2.146415E-17
4.870000E+03	3.837402E-16	2.130998E-17
4.880000E+03	3.827747E-16	2.115512E-17
4.890000E+03	3.817926E-16	2.099988E-17
4.900000E+03	3.807988E-16	2.084455E-17
4.910000E+03	3.797982E-16	2.068942E-17
4.920000E+03	3.787956E-16	2.053477E-17
4.930000E+03	3.777957E-16	2.038085E-17
4.940000E+03	3.768033E-16	2.022794E-17
4.950000E+03	3.758225E-16	2.007625E-17
4.960000E+03	3.748578E-16	1.992604E-17
4.970000E+03	3.739134E-16	1.977752E-17
4.980000E+03	3.729932E-16	1.963089E-17
4.990000E+03	3.721014E-16	1.948636E-17
5.000000E+03	3.712417E-16	1.934411E-17
5.010000E+03	3.704180E-16	1.920434E-17
5.020000E+03	3.696336E-16	1.906721E-17
5.030000E+03	3.686969E-16	1.892284E-17
5.040000E+03	3.680024E-16	1.879154E-17
5.050000E+03	3.673575E-16	1.866334E-17
5.060000E+03	3.667655E-16	1.853838E-17
5.070000E+03	3.662293E-16	1.841677E-17
5.080000E+03	3.657519E-16	1.829866E-17
5.090000E+03	3.653362E-16	1.818414E-17
5.100000E+03	3.649849E-16	1.807333E-17
5.110000E+03	3.647008E-16	1.796632E-17
5.120000E+03	3.644865E-16	1.786322E-17
5.130000E+03	3.641532E-16	1.775479E-17
5.140000E+03	3.640860E-16	1.765981E-17
5.150000E+03	3.640957E-16	1.756898E-17
5.160000E+03	3.641846E-16	1.748236E-17
5.170000E+03	3.643550E-16	1.740004E-17
5.180000E+03	3.646091E-16	1.732207E-17
5.190000E+03	3.649488E-16	1.724853E-17
5.200000E+03	3.651860E-16	1.717051E-17
5.210000E+03	3.657034E-16	1.710602E-17
5.220000E+03	3.663125E-16	1.704612E-17
5.230000E+03	3.670154E-16	1.699086E-17
5.240000E+03	3.678142E-16	1.694031E-17
5.250000E+03	3.685195E-16	1.688575E-17
5.260000E+03	3.695154E-16	1.684479E-17
5.270000E+03	3.706132E-16	1.680870E-17
5.280000E+03	3.718149E-16	1.677753E-17
5.290000E+03	3.731225E-16	1.675135E-17
5.300000E+03	3.743451E-16	1.672159E-17
5.310000E+03	3.758709E-16	1.670560E-17
5.320000E+03	3.775094E-16	1.669480E-17
5.330000E+03	3.792630E-16	1.668927E-17
5.340000E+03	3.809384E-16	1.668050E-17
5.350000E+03	3.829293E-16	1.668577E-17
5.360000E+03	3.850432E-16	1.669656E-17
5.370000E+03	3.872829E-16	1.671297E-17
5.380000E+03	3.894516E-16	1.672654E-17
5.390000E+03	3.919505E-16	1.675451E-17
5.400000E+03	3.945839E-16	1.678841E-17
5.410000E+03	3.971517E-16	1.681976E-17
5.420000E+03	4.000616E-16	1.686585E-17
5.430000E+03	4.031144E-16	1.691819E-17
5.440000E+03	4.061056E-16	1.696822E-17
5.450000E+03	4.094497E-16	1.703331E-17
5.460000E+03	4.129425E-16	1.710487E-17
5.470000E+03	4.163728E-16	1.717420E-17
5.480000E+03	4.201615E-16	1.725871E-17
5.490000E+03	4.240962E-16	1.734961E-17
5.500000E+03	4.279593E-16	1.743806E-17
5.510000E+03	4.321916E-16	1.754207E-17
5.520000E+03	4.363663E-16	1.764432E-17
5.530000E+03	4.409311E-16	1.776297E-17
5.540000E+03	4.456740E-16	1.788945E-17
5.550000E+03	4.503737E-16	1.801493E-17
5.560000E+03	4.554884E-16	1.815781E-17
5.570000E+03	4.605658E-16	1.830008E-17
5.580000E+03	4.660728E-16	1.846037E-17
5.590000E+03	4.717840E-16	1.862974E-17
5.600000E+03	4.774635E-16	1.879897E-17
5.610000E+03	4.835928E-16	1.898710E-17
5.620000E+03	4.896916E-16	1.917526E-17
5.630000E+03	4.962523E-16	1.938277E-17
5.640000E+03	5.027824E-16	1.959040E-17
5.650000E+03	5.097860E-16	1.981781E-17
5.660000E+03	5.167576E-16	2.004536E-17
5.670000E+03	5.242138E-16	2.029314E-17
5.680000E+03	5.316350E-16	2.054105E-17
5.690000E+03	5.395512E-16	2.080962E-17
5.700000E+03	5.474275E-16	2.107824E-17
5.710000E+03	5.558075E-16	2.136790E-17
5.720000E+03	5.641405E-16	2.165747E-17
5.730000E+03	5.726990E-16	2.195749E-17
5.740000E+03	5.817712E-16	2.227906E-17
5.750000E+03	5.907798E-16	2.260012E-17
5.760000E+03	6.003056E-16	2.294296E-17
5.770000E+03	6.097521E-16	2.328485E-17
5.780000E+03	6.194083E-16	2.363692E-17
5.790000E+03	6.295808E-16	2.401094E-17
5.800000E+03	6.396421E-16	2.438305E-17
5.810000E+03	6.502138E-16	2.477705E-17
5.820000E+03	6.606468E-16	2.516829E-17
5.830000E+03	6.712475E-16	2.556854E-17
5.840000E+03	6.823408E-16	2.599026E-17
5.850000E+03	6.932432E-16	2.640752E-17
5.860000E+03	7.042718E-16	2.683250E-17
5.870000E+03	7.157631E-16	2.727813E-17
5.880000E+03	7.269974E-16	2.771707E-17
5.890000E+03	7.383029E-16	2.816194E-17
5.900000E+03	7.496583E-16	2.861201E-17
5.910000E+03	7.614157E-16	2.908083E-17
5.920000E+03	7.728061E-16	2.953915E-17
5.930000E+03	7.841735E-16	3.000018E-17
5.940000E+03	7.954908E-16	3.046296E-17
5.950000E+03	8.071261E-16	3.094171E-17
5.960000E+03	8.182623E-16	3.140517E-17
5.970000E+03	8.292602E-16	3.186724E-17
5.980000E+03	8.400883E-16	3.232677E-17
5.990000E+03	8.511316E-16	3.279865E-17
6.000000E+03	8.615282E-16	3.324974E-17
6.010000E+03	8.716575E-16	3.369466E-17
6.020000E+03	8.814862E-16	3.413215E-17
6.030000E+03	8.909814E-16	3.456094E-17
6.040000E+03	9.001102E-16	3.497975E-17
6.050000E+03	9.092848E-16	3.540461E-17
6.060000E+03	9.175893E-16	3.579988E-17
6.070000E+03	9.254335E-16	3.618141E-17
6.080000E+03	9.327883E-16	3.654801E-17
6.090000E+03	9.396259E-16	3.689851E-17
6.100000E+03	9.459206E-16	3.723182E-17
6.110000E+03	9.516485E-16	3.754686E-17
6.120000E+03	9.567876E-16	3.784267E-17
6.130000E+03	9.613186E-16	3.811832E-17
6.140000E+03	9.652245E-16	3.837298E-17
6.150000E+03	9.684908E-16	3.860591E-17
6.160000E+03	9.711057E-16	3.881646E-17
6.170000E+03	9.730607E-16	3.900406E-17
6.180000E+03	9.743494E-16	3.916827E-17
6.190000E+03	9.754418E-16	3.932778E-17
6.200000E+03	9.749192E-16	3.942518E-17
6.210000E+03	9.742025E-16	3.951750E-17
6.220000E+03	9.728244E-16	3.958563E-17
6.230000E+03	9.707931E-16	3.962965E-17
6.240000E+03	9.681191E-16	3.964971E-17
6.250000E+03	9.648157E-16	3.964608E-17
6.260000E+03	9.608982E-16	3.961909E-17
6.270000E+03	9.563843E-16	3.956919E-17
6.280000E+03	9.512931E-16	3.949688E-17
6.290000E+03	9.456459E-16	3.940275E-17
6.300000E+03	9.394651E-16	3.928745E-17
6.310000E+03	9.327745E-16	3.915168E-17
6.320000E+03	9.255990E-16	3.899620E-17
6.330000E+03	9.175218E-16	3.880309E-17
6.340000E+03	9.094575E-16	3.861069E-17
6.350000E+03	9.009869E-16	3.840106E-17
6.360000E+03	8.921363E-16	3.817507E-17
6.370000E+03	8.829330E-16	3.793361E-17
6.380000E+03	8.734034E-16	3.767750E-17
6.390000E+03	8.631585E-16	3.738957E-17
6.400000E+03	8.530587E-16	3.710670E-17
6.410000E+03	8.427084E-16	3.681154E-17
6.420000E+03	8.321310E-16	3.650481E-17
6.430000E+03	8.213483E-16	3.618721E-17
6.440000E+03	8.099923E-16	3.584218E-17
6.450000E+03	7.988648E-16	3.550488E-17
6.460000E+03	7.875889E-16	3.515848E-17
6.470000E+03	7.758083E-16	3.478676E-17
6.480000E+03	7.642856E-16	3.442365E-17
6.490000E+03	7.526544E-16	3.405260E-17
6.500000E+03	7.409234E-16	3.367379E-17
6.510000E+03	7.287499E-16	3.327139E-17
6.520000E+03	7.168405E-16	3.287743E-17
6.530000E+03	7.045042E-16	3.246010E-17
6.540000E+03	6.924384E-16	3.205130E-17
6.550000E+03	6.803411E-16	3.163706E-17
6.560000E+03	6.679307E-16	3.120408E-17
6.570000E+03	6.558842E-16	3.078385E-17
6.580000E+03	6.439049E-16	3.036250E-17
6.590000E+03	6.317156E-16	2.992686E-17
6.600000E+03	6.199470E-16	2.950671E-17
6.610000E+03	6.080203E-16	2.907458E-17
6.620000E+03	5.965382E-16	2.865922E-17
6.630000E+03	5.849397E-16	2.823379E-17
6.640000E+03	5.738017E-16	2.782611E-17
6.650000E+03	5.625823E-16	2.741001E-17
6.660000E+03	5.518333E-16	2.701240E-17
6.670000E+03	5.410318E-16	2.660780E-17
6.680000E+03	5.307063E-16	2.622225E-17
6.690000E+03	5.203526E-16	2.583098E-17
6.700000E+03	5.104771E-16	2.545918E-17
6.710000E+03	5.005934E-16	2.508276E-17
6.720000E+03	4.911872E-16	2.472613E-17
6.730000E+03	4.817896E-16	2.436585E-17
6.740000E+03	4.728666E-16	2.402557E-17
6.750000E+03	4.639658E-16	2.368250E-17
6.760000E+03	4.555345E-16	2.335956E-17
6.770000E+03	4.471364E-16	2.303456E-17
6.780000E+03	4.389922E-16	2.271892E-17
6.790000E+03	4.313067E-16	2.242345E-17
6.800000E+03	4.236657E-16	2.212680E-17
6.810000E+03	4.162767E-16	2.183988E-17
6.820000E+03	4.093325E-16	2.157301E-17
6.830000E+03	4.024391E-16	2.130561E-17
6.840000E+03	3.957919E-16	2.104810E-17
6.850000E+03	3.895732E-16	2.081039E-17
6.860000E+03	3.834071E-16	2.057257E-17
6.870000E+03	3.774784E-16	2.034465E-17
6.880000E+03	3.719600E-16	2.013613E-17
6.890000E+03	3.664925E-16	1.992776E-17
6.900000E+03	3.612510E-16	1.972912E-17
6.910000E+03	3.562314E-16	1.954015E-17
6.920000E+03	3.515960E-16	1.936992E-17
6.930000E+03	3.470046E-16	1.919989E-17
6.940000E+03	3.426214E-16	1.903920E-17
6.950000E+03	3.384420E-16	1.888775E-17
6.960000E+03	3.344611E-16	1.874538E-17
6.970000E+03	3.308309E-16	1.862079E-17
6.980000E+03	3.272308E-16	1.849611E-17
6.990000E+03	3.238145E-16	1.838008E-17
7.000000E+03	3.205770E-16	1.827253E-17
7.010000E+03	3.175130E-16	1.817329E-17
7.020000E+03	3.146178E-16	1.808221E-17
7.030000E+03	3.118859E-16	1.799909E-17
7.040000E+03	3.094593E-16	1.793226E-17
7.050000E+03	3.070384E-16	1.786452E-17
7.060000E+03	3.047663E-16	1.780420E-17
7.070000E+03	3.026378E-16	1.775114E-17
7.080000E+03	3.006484E-16	1.770514E-17
7.090000E+03	2.987933E-16	1.766602E-17
7.100000E+03	2.970677E-16	1.763360E-17
7.110000E+03	2.954671E-16	1.760769E-17
7.120000E+03	2.939871E-16	1.758811E-17
7.130000E+03	2.926235E-16	1.757469E-17
7.140000E+03	2.913715E-16	1.756723E-17
7.150000E+03	2.902275E-16	1.756558E-17
7.160000E+03	2.891873E-16	1.756956E-17
7.170000E+03	2.882469E-16	1.757900E-17
7.180000E+03	2.874025E-16	1.759373E-17
7.190000E+03	2.866506E-16	1.761360E-17
7.200000E+03	2.859876E-16	1.763846E-17
7.210000E+03	2.854103E-16	1.766815E-17
7.220000E+03	2.849153E-16	1.770254E-17
7.230000E+03	2.844996E-16	1.774149E-17
7.240000E+03	2.840256E-16	1.777643E-17
7.250000E+03	2.837601E-16	1.782408E-17
7.260000E+03	2.835655E-16	1.787592E-17
7.270000E+03	2.834394E-16	1.793183E-17
7.280000E+03	2.833796E-16	1.799173E-17
7.290000E+03	2.833839E-16	1.805550E-17
7.300000E+03	2.834503E-16	1.812308E-17
7.310000E+03	2.834427E-16	1.818576E-17
7.320000E+03	2.836280E-16	1.826068E-17
7.330000E+03	2.838705E-16	1.833920E-17
7.340000E+03	2.841687E-16	1.842126E-17
7.350000E+03	2.845216E-16	1.850682E-17
7.360000E+03	2.847928E-16	1.858702E-17
7.370000E+03	2.852515E-16	1.867945E-17
7.380000E+03	2.857620E-16	1.877529E-17
7.390000E+03	2.863237E-16	1.887455E-17
7.400000E+03	2.867998E-16	1.896819E-17
7.410000E+03	2.874620E-16	1.907421E-17
7.420000E+03	2.881740E-16	1.918365E-17
7.430000E+03	2.889356E-16	1.929652E-17
7.440000E+03	2.896094E-16	1.940364E-17
7.450000E+03	2.904697E-16	1.952340E-17
7.460000E+03	2.913796E-16	1.964668E-17
7.470000E+03	2.922004E-16	1.976414E-17
7.480000E+03	2.932094E-16	1.989452E-17
7.490000E+03	2.942687E-16	2.002856E-17
7.500000E+03	2.952380E-16	2.015671E-17
7.510000E+03	2.963978E-16	2.029813E-17
7.520000E+03	2.974674E-16	2.043365E-17
7.530000E+03	2.987293E-16	2.058268E-17
7.540000E+03	3.000431E-16	2.073563E-17
7.550000E+03	3.012659E-16	2.088263E-17
7.560000E+03	3.026841E-16	2.104353E-17
7.570000E+03	3.040106E-16	2.119843E-17
7.580000E+03	3.055345E-16	2.136749E-17
7.590000E+03	3.069658E-16	2.153050E-17
7.600000E+03	3.085963E-16	2.170791E-17
7.610000E+03	3.101329E-16	2.187918E-17
7.620000E+03	3.118705E-16	2.206510E-17
7.630000E+03	3.136620E-16	2.225537E-17
7.640000E+03	3.153569E-16	2.243931E-17
7.650000E+03	3.171034E-16	2.262742E-17
7.660000E+03	3.190533E-16	2.283060E-17
7.670000E+03	3.209026E-16	2.302716E-17
7.680000E+03	3.229559E-16	2.323895E-17
7.690000E+03	3.249051E-16	2.344387E-17
7.700000E+03	3.270584E-16	2.366415E-17
7.710000E+03	3.291034E-16	2.387724E-17
7.720000E+03	3.313521E-16	2.410579E-17
7.730000E+03	3.334876E-16	2.432677E-17
7.740000E+03	3.356651E-16	2.455150E-17
7.750000E+03	3.380447E-16	2.479172E-17
7.760000E+03	3.403017E-16	2.502369E-17
