#wls	flux	fluxerr
1.592848E+03	3.296286E-17	8.906501E-19
1.632669E+03	3.393571E-17	9.130001E-19
1.672491E+03	3.475345E-17	9.308812E-19
1.712312E+03	3.539094E-17	9.436710E-19
1.752133E+03	3.583639E-17	9.511155E-19
1.791954E+03	3.603633E-17	9.518686E-19
1.831775E+03	3.591881E-17	9.441291E-19
1.871597E+03	3.543244E-17	9.266754E-19
1.911418E+03	3.450930E-17	8.978885E-19
1.951239E+03	3.313270E-17	8.575193E-19
1.991060E+03	3.137207E-17	8.075522E-19
2.030881E+03	2.943059E-17	7.533638E-19
2.070703E+03	2.767610E-17	7.044094E-19
2.110524E+03	2.654966E-17	6.717816E-19
2.150345E+03	2.641388E-17	6.643290E-19
2.190166E+03	2.742668E-17	6.855463E-19
2.229987E+03	2.950177E-17	7.327459E-19
2.269809E+03	3.238379E-17	7.991014E-19
2.309630E+03	3.575904E-17	8.765044E-19
2.349451E+03	3.934611E-17	9.578270E-19
2.389272E+03	4.293198E-17	1.037778E-18
2.429093E+03	4.637840E-17	1.113002E-18
2.468915E+03	4.961900E-17	1.181958E-18
2.508736E+03	5.261176E-17	1.243725E-18
2.548557E+03	5.533521E-17	1.297905E-18
2.588378E+03	5.780218E-17	1.344915E-18
2.628199E+03	5.999959E-17	1.384571E-18
2.668021E+03	6.193969E-17	1.417283E-18
2.707842E+03	6.362770E-17	1.443299E-18
2.747663E+03	6.507720E-17	1.463054E-18
2.787484E+03	6.628642E-17	1.476637E-18
2.827305E+03	6.725487E-17	1.484170E-18
2.867127E+03	6.799247E-17	1.486012E-18
2.906948E+03	6.850403E-17	1.482402E-18
2.946769E+03	6.879813E-17	1.473667E-18
2.986590E+03	6.890223E-17	1.460528E-18
2.996546E+03	6.890530E-17	1.456712E-18
3.006501E+03	6.890276E-17	1.452762E-18
3.016456E+03	6.888061E-17	1.448384E-18
3.026411E+03	6.886211E-17	1.444070E-18
3.036367E+03	6.883833E-17	1.439633E-18
3.046322E+03	6.881418E-17	1.435175E-18
3.056277E+03	6.879848E-17	1.430880E-18
3.066233E+03	6.878952E-17	1.426711E-18
3.076188E+03	6.878590E-17	1.422638E-18
3.086143E+03	6.878643E-17	1.418636E-18
3.096099E+03	6.878317E-17	1.414541E-18
3.106054E+03	6.878895E-17	1.410616E-18
3.116009E+03	6.878944E-17	1.406567E-18
3.125964E+03	6.879749E-17	1.402657E-18
3.135920E+03	6.879919E-17	1.398602E-18
3.145875E+03	6.880750E-17	1.394665E-18
3.155830E+03	6.881552E-17	1.390706E-18
3.165786E+03	6.882950E-17	1.386851E-18
3.175741E+03	6.884282E-17	1.382965E-18
3.185696E+03	6.885545E-17	1.379050E-18
3.195652E+03	6.888020E-17	1.375359E-18
3.205607E+03	6.890430E-17	1.371638E-18
3.215562E+03	6.893421E-17	1.368013E-18
3.225517E+03	6.897007E-17	1.364488E-18
3.235473E+03	6.901197E-17	1.361063E-18
3.245428E+03	6.906629E-17	1.357861E-18
3.255383E+03	6.912698E-17	1.354763E-18
3.265339E+03	6.919440E-17	1.351773E-18
3.275294E+03	6.928074E-17	1.349129E-18
3.285249E+03	6.938011E-17	1.346712E-18
3.295205E+03	6.948685E-17	1.344410E-18
3.305160E+03	6.961293E-17	1.342453E-18
3.315115E+03	6.975851E-17	1.340840E-18
3.325070E+03	6.991785E-17	1.339457E-18
3.335026E+03	7.010271E-17	1.338526E-18
3.344981E+03	7.030730E-17	1.337933E-18
3.354936E+03	7.053174E-17	1.337675E-18
3.364892E+03	7.078169E-17	1.337856E-18
3.374847E+03	7.106276E-17	1.338576E-18
3.384802E+03	7.136366E-17	1.339617E-18
3.394758E+03	7.170094E-17	1.341285E-18
3.404713E+03	7.206334E-17	1.343363E-18
3.414668E+03	7.246165E-17	1.346045E-18
3.424623E+03	7.289554E-17	1.349320E-18
3.434579E+03	7.335933E-17	1.353074E-18
3.444534E+03	7.386888E-17	1.357593E-18
3.454489E+03	7.440791E-17	1.362570E-18
3.464445E+03	7.499221E-17	1.368287E-18
3.474400E+03	7.562181E-17	1.374735E-18
3.484355E+03	7.629167E-17	1.381814E-18
3.494311E+03	7.701284E-17	1.389713E-18
3.504266E+03	7.778096E-17	1.398346E-18
3.514221E+03	7.860240E-17	1.407815E-18
3.524176E+03	7.947862E-17	1.418136E-18
3.534132E+03	8.041142E-17	1.429329E-18
3.544087E+03	8.140781E-17	1.441507E-18
3.554042E+03	8.246488E-17	1.454604E-18
3.563998E+03	8.359504E-17	1.468826E-18
3.573953E+03	8.479084E-17	1.484028E-18
3.583908E+03	8.605520E-17	1.500245E-18
3.593864E+03	8.740103E-17	1.517688E-18
3.603819E+03	8.882676E-17	1.536312E-18
3.613774E+03	9.033134E-17	1.556082E-18
3.623729E+03	9.192371E-17	1.577134E-18
3.633685E+03	9.360857E-17	1.599530E-18
3.643640E+03	9.539086E-17	1.623334E-18
3.653595E+03	9.727123E-17	1.648535E-18
3.663551E+03	9.926058E-17	1.675297E-18
3.673506E+03	1.013655E-16	1.703707E-18
3.683461E+03	1.035881E-16	1.733775E-18
3.693417E+03	1.059361E-16	1.765604E-18
3.703372E+03	1.084177E-16	1.799300E-18
3.713327E+03	1.110412E-16	1.834977E-18
3.723282E+03	1.138205E-16	1.872828E-18
3.733238E+03	1.167546E-16	1.912804E-18
3.743193E+03	1.198527E-16	1.955020E-18
3.753148E+03	1.231284E-16	1.999664E-18
3.763104E+03	1.265859E-16	2.046761E-18
3.773059E+03	1.302337E-16	2.096410E-18
3.783014E+03	1.340799E-16	2.148699E-18
3.792970E+03	1.381271E-16	2.203624E-18
3.802925E+03	1.423818E-16	2.261246E-18
3.812880E+03	1.468548E-16	2.321688E-18
3.822835E+03	1.515451E-16	2.384887E-18
3.832791E+03	1.564438E-16	2.450657E-18
3.842746E+03	1.615670E-16	2.519199E-18
3.852701E+03	1.668953E-16	2.590165E-18
3.862657E+03	1.724277E-16	2.663492E-18
3.872612E+03	1.781482E-16	2.738889E-18
3.882567E+03	1.840479E-16	2.816179E-18
3.892523E+03	1.900962E-16	2.894855E-18
3.902478E+03	1.962752E-16	2.974613E-18
3.912433E+03	2.025507E-16	3.054907E-18
3.922388E+03	2.088904E-16	3.135231E-18
3.932344E+03	2.152518E-16	3.214936E-18
3.942299E+03	2.216018E-16	3.293524E-18
3.952254E+03	2.278858E-16	3.370190E-18
3.962210E+03	2.340655E-16	3.444386E-18
3.972165E+03	2.400890E-16	3.515373E-18
3.982120E+03	2.459029E-16	3.582411E-18
3.992076E+03	2.514673E-16	3.644965E-18
4.002031E+03	2.567363E-16	3.702432E-18
4.011986E+03	2.616471E-16	3.753974E-18
4.021941E+03	2.661794E-16	3.799384E-18
4.031897E+03	2.702790E-16	3.837976E-18
4.041852E+03	2.739247E-16	3.869547E-18
4.051807E+03	2.770971E-16	3.893929E-18
4.061763E+03	2.797727E-16	3.910896E-18
4.071718E+03	2.819632E-16	3.920723E-18
4.081673E+03	2.836569E-16	3.923360E-18
4.091629E+03	2.848825E-16	3.919312E-18
4.101584E+03	2.856567E-16	3.908914E-18
4.111539E+03	2.860025E-16	3.892578E-18
4.121494E+03	2.859598E-16	3.870944E-18
4.131450E+03	2.855602E-16	3.844523E-18
4.141405E+03	2.848437E-16	3.813933E-18
4.151360E+03	2.838522E-16	3.779802E-18
4.161316E+03	2.826223E-16	3.742680E-18
4.171271E+03	2.812026E-16	3.703258E-18
4.181226E+03	2.796291E-16	3.662054E-18
4.191182E+03	2.779430E-16	3.619638E-18
4.201137E+03	2.761887E-16	3.576614E-18
4.211092E+03	2.743930E-16	3.533342E-18
4.221047E+03	2.726020E-16	3.490422E-18
4.231003E+03	2.708439E-16	3.448216E-18
4.240958E+03	2.691552E-16	3.407181E-18
4.250913E+03	2.675611E-16	3.367618E-18
4.260869E+03	2.660901E-16	3.329866E-18
4.270824E+03	2.647742E-16	3.294300E-18
4.280779E+03	2.636398E-16	3.261213E-18
4.290735E+03	2.627075E-16	3.230822E-18
4.300690E+03	2.620117E-16	3.203506E-18
4.310645E+03	2.615726E-16	3.179462E-18
4.320601E+03	2.614201E-16	3.158997E-18
4.330556E+03	2.615750E-16	3.142306E-18
4.340511E+03	2.620678E-16	3.129688E-18
4.350466E+03	2.629288E-16	3.121435E-18
4.360422E+03	2.641754E-16	3.117678E-18
4.370377E+03	2.658417E-16	3.118740E-18
4.380332E+03	2.679493E-16	3.124788E-18
4.390288E+03	2.705286E-16	3.136089E-18
4.400243E+03	2.735997E-16	3.152780E-18
4.410198E+03	2.771806E-16	3.174973E-18
4.420154E+03	2.812998E-16	3.202894E-18
4.430109E+03	2.859746E-16	3.236634E-18
4.440064E+03	2.912098E-16	3.276141E-18
4.450019E+03	2.970141E-16	3.321412E-18
4.459975E+03	3.033998E-16	3.372475E-18
4.469930E+03	3.103533E-16	3.429076E-18
4.479885E+03	3.178603E-16	3.490956E-18
4.489841E+03	3.258988E-16	3.557777E-18
4.499796E+03	3.344273E-16	3.629000E-18
4.509751E+03	3.433781E-16	3.703813E-18
4.519707E+03	3.526799E-16	3.781387E-18
4.529662E+03	3.622335E-16	3.860614E-18
4.539617E+03	3.719328E-16	3.940341E-18
4.549572E+03	3.816422E-16	4.019131E-18
4.559528E+03	3.912311E-16	4.095637E-18
4.569483E+03	4.005590E-16	4.168438E-18
4.579438E+03	4.094807E-16	4.236102E-18
4.589394E+03	4.178579E-16	4.297303E-18
4.599349E+03	4.255742E-16	4.350972E-18
4.609304E+03	4.325155E-16	4.396087E-18
4.619260E+03	4.385880E-16	4.431860E-18
4.629215E+03	4.437071E-16	4.457611E-18
4.639170E+03	4.478190E-16	4.472988E-18
4.649125E+03	4.508542E-16	4.477490E-18
4.659081E+03	4.527857E-16	4.471050E-18
4.669036E+03	4.535847E-16	4.453582E-18
4.678991E+03	4.532460E-16	4.425234E-18
4.688947E+03	4.517857E-16	4.386359E-18
4.698902E+03	4.492400E-16	4.337492E-18
4.708857E+03	4.456839E-16	4.279531E-18
4.718813E+03	4.412035E-16	4.213457E-18
4.728768E+03	4.359268E-16	4.140627E-18
4.729352E+03	5.522009E-16	5.243395E-18
4.732850E+03	5.402442E-16	5.120202E-18
4.736347E+03	5.273571E-16	4.988689E-18
4.739844E+03	5.134967E-16	4.848493E-18
4.743341E+03	5.004161E-16	4.716188E-18
4.746839E+03	4.866245E-16	4.577704E-18
4.750336E+03	4.725037E-16	4.436657E-18
4.753833E+03	4.589789E-16	4.301735E-18
4.757331E+03	4.445554E-16	4.158918E-18
4.760828E+03	4.311527E-16	4.026174E-18
4.764325E+03	4.186279E-16	3.902113E-18
4.767822E+03	4.066777E-16	3.783867E-18
4.771320E+03	3.946792E-16	3.665616E-18
4.774816E+03	3.830179E-16	3.550936E-18
4.778313E+03	3.721344E-16	3.443880E-18
4.781811E+03	3.626169E-16	3.349842E-18
4.785308E+03	3.543093E-16	3.267312E-18
4.788805E+03	3.464403E-16	3.189129E-18
4.792303E+03	3.391583E-16	3.116631E-18
4.795800E+03	3.335212E-16	3.059495E-18
4.799297E+03	3.288376E-16	3.011305E-18
4.802794E+03	3.256994E-16	2.977429E-18
4.806292E+03	3.218578E-16	2.937269E-18
4.809789E+03	3.188144E-16	2.904537E-18
4.813286E+03	3.160339E-16	2.874325E-18
4.816783E+03	3.128312E-16	2.840404E-18
4.820280E+03	3.089766E-16	2.800704E-18
4.823777E+03	3.043874E-16	2.754510E-18
4.827275E+03	2.981585E-16	2.693674E-18
4.830772E+03	2.900968E-16	2.616525E-18
4.834269E+03	2.778339E-16	2.501818E-18
4.837766E+03	2.669143E-16	2.399577E-18
4.841264E+03	2.592489E-16	2.326894E-18
4.844761E+03	2.519354E-16	2.257613E-18
4.848258E+03	2.438768E-16	2.181904E-18
4.851756E+03	2.375128E-16	2.121588E-18
4.855252E+03	2.313273E-16	2.063071E-18
4.858749E+03	2.278212E-16	2.028609E-18
4.862247E+03	2.246487E-16	1.997234E-18
4.865744E+03	2.202452E-16	1.955043E-18
4.869241E+03	2.160516E-16	1.914857E-18
4.872738E+03	2.131596E-16	1.886325E-18
4.876236E+03	2.109718E-16	1.864116E-18
4.879733E+03	2.102553E-16	1.854967E-18
4.883230E+03	2.111916E-16	1.860417E-18
4.886728E+03	2.126082E-16	1.870088E-18
4.890225E+03	2.126164E-16	1.867372E-18
4.893722E+03	2.131040E-16	1.868882E-18
4.897219E+03	2.164186E-16	1.895155E-18
4.900717E+03	2.196564E-16	1.920690E-18
4.904213E+03	2.245900E-16	1.960972E-18
4.907710E+03	2.302336E-16	2.007339E-18
4.911208E+03	2.361621E-16	2.056065E-18
4.914705E+03	2.444020E-16	2.124759E-18
4.918202E+03	2.532490E-16	2.198541E-18
4.921700E+03	2.633673E-16	2.283149E-18
4.925197E+03	2.744287E-16	2.375697E-18
4.928694E+03	2.870577E-16	2.481552E-18
4.932191E+03	2.996531E-16	2.586838E-18
4.935689E+03	3.133782E-16	2.701587E-18
4.939186E+03	3.273903E-16	2.818506E-18
4.942683E+03	3.414265E-16	2.935330E-18
4.946180E+03	3.572226E-16	3.066964E-18
4.949677E+03	3.726705E-16	3.195274E-18
4.953174E+03	3.879501E-16	3.321816E-18
4.956672E+03	4.050938E-16	3.463980E-18
4.960169E+03	4.217093E-16	3.601274E-18
4.963666E+03	4.371816E-16	3.728476E-18
4.967163E+03	4.524009E-16	3.853210E-18
4.970661E+03	4.682051E-16	3.982614E-18
4.974158E+03	4.828753E-16	4.102071E-18
4.977655E+03	4.973465E-16	4.219553E-18
4.981153E+03	5.110017E-16	4.329841E-18
4.984650E+03	5.236283E-16	4.431167E-18
4.988146E+03	5.357988E-16	4.528405E-18
4.991644E+03	5.469650E-16	4.616941E-18
4.995141E+03	5.567999E-16	4.694056E-18
4.998638E+03	5.649913E-16	4.757164E-18
5.002135E+03	5.697034E-16	4.790879E-18
5.005633E+03	5.732680E-16	4.814898E-18
5.009130E+03	5.749332E-16	4.822949E-18
5.012627E+03	5.736218E-16	4.806063E-18
5.016125E+03	5.713185E-16	4.780942E-18
5.019622E+03	5.666485E-16	4.736123E-18
5.023119E+03	5.588420E-16	4.665251E-18
5.026616E+03	5.510354E-16	4.594570E-18
5.030114E+03	5.428458E-16	4.520890E-18
5.033610E+03	5.315056E-16	4.421198E-18
5.037107E+03	5.192502E-16	4.314157E-18
5.040605E+03	5.055375E-16	4.195294E-18
5.044102E+03	4.917723E-16	4.076291E-18
5.047599E+03	4.787376E-16	3.963631E-18
5.051097E+03	4.651669E-16	3.846817E-18
5.054594E+03	4.511445E-16	3.726556E-18
5.058091E+03	4.361838E-16	3.598846E-18
5.061588E+03	4.231832E-16	3.487596E-18
5.065086E+03	4.107606E-16	3.381370E-18
5.068583E+03	4.002629E-16	3.291226E-18
5.072080E+03	3.906064E-16	3.208207E-18
5.075578E+03	3.821518E-16	3.135247E-18
5.079074E+03	3.754186E-16	3.076570E-18
5.082571E+03	3.696360E-16	3.025814E-18
5.086069E+03	3.648924E-16	2.983677E-18
5.089566E+03	3.614929E-16	2.952622E-18
5.093063E+03	3.602472E-16	2.939217E-18
5.096560E+03	3.593882E-16	2.929003E-18
5.100058E+03	3.619460E-16	2.946638E-18
5.103555E+03	3.655040E-16	2.972377E-18
5.107052E+03	3.689956E-16	2.997530E-18
5.110550E+03	3.745897E-16	3.039699E-18
5.114047E+03	3.795128E-16	3.076346E-18
5.117543E+03	3.856173E-16	3.122492E-18
5.121041E+03	3.932544E-16	3.180943E-18
5.124538E+03	4.006283E-16	3.237153E-18
5.128035E+03	4.075642E-16	3.289716E-18
5.131532E+03	4.140317E-16	3.338400E-18
5.135030E+03	4.195204E-16	3.379106E-18
5.138527E+03	4.258042E-16	3.426131E-18
5.142024E+03	4.322729E-16	3.474554E-18
5.145522E+03	4.367830E-16	3.507156E-18
5.149019E+03	4.418109E-16	3.543852E-18
5.152516E+03	4.462330E-16	3.575625E-18
5.156013E+03	4.479419E-16	3.585621E-18
5.159510E+03	4.490235E-16	3.590589E-18
5.163007E+03	4.503698E-16	3.597667E-18
5.166504E+03	4.503247E-16	3.593633E-18
5.170002E+03	4.496625E-16	3.584693E-18
5.173499E+03	4.491303E-16	3.576813E-18
5.176996E+03	4.486696E-16	3.569524E-18
5.180494E+03	4.486778E-16	3.565982E-18
5.183991E+03	4.474925E-16	3.552975E-18
5.187488E+03	4.461421E-16	3.538690E-18
5.190985E+03	4.455993E-16	3.530838E-18
5.194483E+03	4.450839E-16	3.523222E-18
5.197980E+03	4.433258E-16	3.505798E-18
5.201477E+03	4.417261E-16	3.489665E-18
5.204975E+03	4.410842E-16	3.481125E-18
5.208471E+03	4.401734E-16	3.470487E-18
5.211968E+03	4.393635E-16	3.460667E-18
5.215466E+03	4.374237E-16	3.441978E-18
5.218963E+03	4.374091E-16	3.438462E-18
5.222460E+03	4.395323E-16	3.451744E-18
5.225957E+03	4.413303E-16	3.462451E-18
5.229455E+03	4.429512E-16	3.471750E-18
5.232952E+03	4.461517E-16	3.493401E-18
5.236449E+03	4.485212E-16	3.508510E-18
5.239947E+03	4.517431E-16	3.530252E-18
5.243444E+03	4.548938E-16	3.551396E-18
5.246940E+03	4.581822E-16	3.573575E-18
5.250438E+03	4.619974E-16	3.599814E-18
5.253935E+03	4.658318E-16	3.626152E-18
5.257432E+03	4.701944E-16	3.656547E-18
5.260929E+03	4.747418E-16	3.688317E-18
5.264427E+03	4.793243E-16	3.720298E-18
5.267924E+03	4.841671E-16	3.754233E-18
5.271421E+03	4.895411E-16	3.792217E-18
5.274919E+03	4.941997E-16	3.824589E-18
5.278416E+03	4.983968E-16	3.853329E-18
5.281913E+03	5.026884E-16	3.882742E-18
5.285411E+03	5.071048E-16	3.913058E-18
5.288907E+03	5.112993E-16	3.941604E-18
5.292404E+03	5.159202E-16	3.973375E-18
5.295901E+03	5.203946E-16	4.003954E-18
5.299399E+03	5.238757E-16	4.026836E-18
5.302896E+03	5.268453E-16	4.045742E-18
5.306393E+03	5.296804E-16	4.063577E-18
5.309891E+03	5.324867E-16	4.081153E-18
5.313388E+03	5.357036E-16	4.101834E-18
5.316885E+03	5.386493E-16	4.120397E-18
5.320382E+03	5.410501E-16	4.134755E-18
5.323880E+03	5.424946E-16	4.141779E-18
5.327377E+03	5.438775E-16	4.148315E-18
5.330874E+03	5.469171E-16	4.167457E-18
5.334372E+03	5.510235E-16	4.194678E-18
5.337868E+03	5.550556E-16	4.221276E-18
5.341365E+03	5.583444E-16	4.242169E-18
5.344863E+03	5.612525E-16	4.260124E-18
5.348360E+03	5.630931E-16	4.269944E-18
5.351857E+03	5.640478E-16	4.273027E-18
5.355354E+03	5.666197E-16	4.288336E-18
5.358852E+03	5.686261E-16	4.299333E-18
5.362349E+03	5.698512E-16	4.304400E-18
5.365846E+03	5.732486E-16	4.325842E-18
5.369344E+03	5.760030E-16	4.342387E-18
5.372841E+03	5.777462E-16	4.351276E-18
5.376337E+03	5.788894E-16	4.355627E-18
5.379835E+03	5.794931E-16	4.355904E-18
5.383332E+03	5.816601E-16	4.367911E-18
5.386829E+03	5.831657E-16	4.374925E-18
5.390326E+03	5.835466E-16	4.373487E-18
5.393824E+03	5.823550E-16	4.360269E-18
5.397321E+03	5.818658E-16	4.352322E-18
5.400818E+03	5.814806E-16	4.345158E-18
5.404316E+03	5.791794E-16	4.323696E-18
5.407813E+03	5.762857E-16	4.297848E-18
5.411310E+03	5.739400E-16	4.276124E-18
5.414808E+03	5.734865E-16	4.268517E-18
5.418305E+03	5.723645E-16	4.255945E-18
5.421801E+03	5.700316E-16	4.234394E-18
5.425298E+03	5.687902E-16	4.220975E-18
5.428796E+03	5.683631E-16	4.213608E-18
5.432293E+03	5.669409E-16	4.198877E-18
5.435790E+03	5.656678E-16	4.185269E-18
5.439288E+03	5.648699E-16	4.175189E-18
5.442785E+03	5.648105E-16	4.170573E-18
5.446282E+03	5.650571E-16	4.168212E-18
5.449779E+03	5.658121E-16	4.169592E-18
5.453277E+03	5.687524E-16	4.187047E-18
5.456774E+03	5.717222E-16	4.204672E-18
5.460271E+03	5.730270E-16	4.210019E-18
5.463769E+03	5.755417E-16	4.224224E-18
5.467265E+03	5.791735E-16	4.246582E-18
5.470762E+03	5.815438E-16	4.259641E-18
5.474260E+03	5.842695E-16	4.275263E-18
5.477757E+03	5.888770E-16	4.304598E-18
5.481254E+03	5.948544E-16	4.343866E-18
5.484751E+03	6.008946E-16	4.383499E-18
5.488249E+03	6.075425E-16	4.427469E-18
5.491746E+03	6.139250E-16	4.469405E-18
5.495243E+03	6.220083E-16	4.523612E-18
5.498741E+03	6.302640E-16	4.578948E-18
5.502238E+03	6.379274E-16	4.629858E-18
5.505735E+03	6.451846E-16	4.677705E-18
5.509232E+03	6.523627E-16	4.724870E-18
5.512729E+03	6.585247E-16	4.764570E-18
5.516226E+03	6.639349E-16	4.798739E-18
5.519723E+03	6.674342E-16	4.819027E-18
5.523221E+03	6.712590E-16	4.841606E-18
5.526718E+03	6.757225E-16	4.868725E-18
5.530215E+03	6.776315E-16	4.877387E-18
5.533713E+03	6.765912E-16	4.864810E-18
5.537210E+03	6.748089E-16	4.846914E-18
5.540707E+03	6.715625E-16	4.818535E-18
5.544205E+03	6.670716E-16	4.781281E-18
5.547702E+03	6.620547E-16	4.740325E-18
5.551198E+03	6.566073E-16	4.696362E-18
5.554695E+03	6.487681E-16	4.635386E-18
5.558193E+03	6.398839E-16	4.567066E-18
5.561690E+03	6.318075E-16	4.504635E-18
5.565187E+03	6.217757E-16	4.428396E-18
5.568685E+03	6.103376E-16	4.342300E-18
5.572182E+03	5.985450E-16	4.253853E-18
5.575679E+03	5.867590E-16	4.165629E-18
5.579176E+03	5.755920E-16	4.081970E-18
5.582674E+03	5.625628E-16	3.985284E-18
5.586171E+03	5.495407E-16	3.888844E-18
5.589668E+03	5.369188E-16	3.795428E-18
5.593166E+03	5.245719E-16	3.704142E-18
5.596663E+03	5.119028E-16	3.610769E-18
5.600159E+03	4.981411E-16	3.509890E-18
5.603657E+03	4.854259E-16	3.416582E-18
5.607154E+03	4.731442E-16	3.326513E-18
5.610651E+03	4.617057E-16	3.242552E-18
5.614148E+03	4.501196E-16	3.157728E-18
5.617646E+03	4.371113E-16	3.063114E-18
5.621143E+03	4.260646E-16	2.982427E-18
5.624640E+03	4.151230E-16	2.902643E-18
5.628138E+03	4.039402E-16	2.821341E-18
5.631635E+03	3.932566E-16	2.743691E-18
5.635132E+03	3.827733E-16	2.667599E-18
5.638630E+03	3.723802E-16	2.592296E-18
5.642126E+03	3.623927E-16	2.519973E-18
5.645623E+03	3.529214E-16	2.451386E-18
5.649120E+03	3.433521E-16	2.382264E-18
5.652618E+03	3.317162E-16	2.298967E-18
5.656115E+03	3.189587E-16	2.208083E-18
5.659612E+03	3.074425E-16	2.125980E-18
5.663110E+03	2.957660E-16	2.042947E-18
5.666607E+03	2.832993E-16	1.954640E-18
5.670104E+03	2.705623E-16	1.864665E-18
5.673602E+03	2.584849E-16	1.779426E-18
5.677099E+03	2.473665E-16	1.700968E-18
5.680595E+03	2.358841E-16	1.620183E-18
5.684092E+03	2.249516E-16	1.543348E-18
5.687590E+03	2.149316E-16	1.472935E-18
5.691087E+03	2.068956E-16	1.416259E-18
5.694584E+03	1.996464E-16	1.365087E-18
5.698082E+03	1.922859E-16	1.313268E-18
5.701579E+03	1.854604E-16	1.265212E-18
5.705076E+03	1.798158E-16	1.225310E-18
5.708574E+03	1.748008E-16	1.189780E-18
5.712071E+03	1.711399E-16	1.163535E-18
5.715568E+03	1.689119E-16	1.147078E-18
5.719065E+03	1.676598E-16	1.137275E-18
5.722563E+03	1.676041E-16	1.135599E-18
5.726060E+03	1.680831E-16	1.137542E-18
5.729556E+03	1.703409E-16	1.151504E-18
5.733054E+03	1.747708E-16	1.180098E-18
5.736551E+03	1.803015E-16	1.216048E-18
5.740048E+03	1.880507E-16	1.266860E-18
5.743545E+03	1.973251E-16	1.327816E-18
5.747043E+03	2.084390E-16	1.400995E-18
5.750540E+03	2.199436E-16	1.476626E-18
5.754037E+03	2.343572E-16	1.571589E-18
5.757535E+03	2.514740E-16	1.684438E-18
5.761032E+03	2.695620E-16	1.803525E-18
5.764529E+03	2.895648E-16	1.935133E-18
5.768027E+03	3.101915E-16	2.070602E-18
5.771523E+03	3.328259E-16	2.219144E-18
5.775020E+03	3.586783E-16	2.388776E-18
5.778517E+03	3.844287E-16	2.557337E-18
