#wls	flux	fluxerr
1.592848E+03	2.258061E-17	7.286212E-19
1.632669E+03	2.324823E-17	7.469943E-19
1.672491E+03	2.380450E-17	7.615416E-19
1.712312E+03	2.424121E-17	7.720407E-19
1.752133E+03	2.453737E-17	7.778713E-19
1.791954E+03	2.466617E-17	7.782448E-19
1.831775E+03	2.457868E-17	7.716971E-19
1.871597E+03	2.423231E-17	7.569970E-19
1.911418E+03	2.358168E-17	7.328592E-19
1.951239E+03	2.262211E-17	6.992924E-19
1.991060E+03	2.139075E-17	6.576022E-19
2.030881E+03	2.003754E-17	6.125229E-19
2.070703E+03	1.880442E-17	5.714864E-19
2.110524E+03	1.799328E-17	5.435622E-19
2.150345E+03	1.785180E-17	5.359655E-19
2.190166E+03	1.847266E-17	5.510875E-19
2.229987E+03	1.979817E-17	5.867733E-19
2.269809E+03	2.165147E-17	6.373854E-19
2.309630E+03	2.381991E-17	6.963654E-19
2.349451E+03	2.611657E-17	7.580638E-19
2.389272E+03	2.841801E-17	8.188098E-19
2.429093E+03	3.063567E-17	8.760339E-19
2.468915E+03	3.274105E-17	9.289488E-19
2.508736E+03	3.472763E-17	9.774130E-19
2.548557E+03	3.659176E-17	1.021375E-18
2.588378E+03	3.834795E-17	1.061292E-18
2.628199E+03	4.001387E-17	1.097696E-18
2.668021E+03	4.160756E-17	1.131117E-18
2.707842E+03	4.313980E-17	1.161871E-18
2.747663E+03	4.463307E-17	1.190580E-18
2.787484E+03	4.609509E-17	1.217451E-18
2.827305E+03	4.755221E-17	1.243173E-18
2.867127E+03	4.900900E-17	1.267843E-18
2.906948E+03	5.048202E-17	1.291861E-18
2.946769E+03	5.199312E-17	1.315739E-18
2.986590E+03	5.354184E-17	1.339409E-18
2.996546E+03	5.393726E-17	1.345346E-18
3.006501E+03	5.434001E-17	1.351389E-18
3.016456E+03	5.474314E-17	1.357363E-18
3.026411E+03	5.515446E-17	1.363461E-18
3.036367E+03	5.557801E-17	1.369781E-18
3.046322E+03	5.601059E-17	1.376240E-18
3.056277E+03	5.646020E-17	1.383032E-18
3.066233E+03	5.691852E-17	1.389949E-18
3.076188E+03	5.739776E-17	1.397287E-18
3.086143E+03	5.788303E-17	1.404679E-18
3.096099E+03	5.838673E-17	1.412422E-18
3.106054E+03	5.889415E-17	1.420158E-18
3.116009E+03	5.941783E-17	1.428185E-18
3.125964E+03	5.994325E-17	1.436154E-18
3.135920E+03	6.048306E-17	1.444363E-18
3.145875E+03	6.102968E-17	1.452629E-18
3.155830E+03	6.158226E-17	1.460930E-18
3.165786E+03	6.214014E-17	1.469248E-18
3.175741E+03	6.270934E-17	1.477724E-18
3.185696E+03	6.328917E-17	1.486337E-18
3.195652E+03	6.387239E-17	1.494915E-18
3.205607E+03	6.446509E-17	1.503599E-18
3.215562E+03	6.506011E-17	1.512219E-18
3.225517E+03	6.566360E-17	1.520917E-18
3.235473E+03	6.627508E-17	1.529679E-18
3.245428E+03	6.689414E-17	1.538494E-18
3.255383E+03	6.752032E-17	1.547347E-18
3.265339E+03	6.815330E-17	1.556230E-18
3.275294E+03	6.879271E-17	1.565132E-18
3.285249E+03	6.944472E-17	1.574190E-18
3.295205E+03	7.009596E-17	1.583099E-18
3.305160E+03	7.076577E-17	1.592293E-18
3.315115E+03	7.143428E-17	1.601322E-18
3.325070E+03	7.212076E-17	1.610616E-18
3.335026E+03	7.281201E-17	1.619876E-18
3.344981E+03	7.351431E-17	1.629240E-18
3.354936E+03	7.422743E-17	1.638698E-18
3.364892E+03	7.495130E-17	1.648246E-18
3.374847E+03	7.568575E-17	1.657878E-18
3.384802E+03	7.643706E-17	1.667725E-18
3.394758E+03	7.719882E-17	1.677645E-18
3.404713E+03	7.797108E-17	1.687635E-18
3.414668E+03	7.876011E-17	1.697826E-18
3.424623E+03	7.955977E-17	1.708083E-18
3.434579E+03	8.038260E-17	1.718668E-18
3.444534E+03	8.121643E-17	1.729318E-18
3.454489E+03	8.207376E-17	1.740293E-18
3.464445E+03	8.294876E-17	1.751462E-18
3.474400E+03	8.384182E-17	1.762830E-18
3.484355E+03	8.475948E-17	1.774526E-18
3.494311E+03	8.569616E-17	1.786429E-18
3.504266E+03	8.665852E-17	1.798670E-18
3.514221E+03	8.764720E-17	1.811254E-18
3.524176E+03	8.866297E-17	1.824190E-18
3.534132E+03	8.970668E-17	1.837487E-18
3.544087E+03	9.078509E-17	1.851274E-18
3.554042E+03	9.189342E-17	1.865444E-18
3.563998E+03	9.303276E-17	1.880011E-18
3.573953E+03	9.421593E-17	1.895223E-18
3.583908E+03	9.543255E-17	1.910858E-18
3.593864E+03	9.669551E-17	1.927165E-18
3.603819E+03	9.800041E-17	1.944041E-18
3.613774E+03	9.934873E-17	1.961505E-18
3.623729E+03	1.007476E-16	1.979682E-18
3.633685E+03	1.021930E-16	1.998478E-18
3.643640E+03	1.036975E-16	2.018126E-18
3.653595E+03	1.052515E-16	2.038421E-18
3.663551E+03	1.068676E-16	2.059592E-18
3.673506E+03	1.085417E-16	2.081540E-18
3.683461E+03	1.102751E-16	2.104273E-18
3.693417E+03	1.120800E-16	2.128006E-18
3.703372E+03	1.139464E-16	2.152528E-18
3.713327E+03	1.158807E-16	2.177941E-18
3.723282E+03	1.178835E-16	2.204235E-18
3.733238E+03	1.199606E-16	2.231498E-18
3.743193E+03	1.221066E-16	2.259606E-18
3.753148E+03	1.243265E-16	2.288633E-18
3.763104E+03	1.266197E-16	2.318543E-18
3.773059E+03	1.289793E-16	2.349189E-18
3.783014E+03	1.314145E-16	2.380720E-18
3.792970E+03	1.339177E-16	2.412972E-18
3.802925E+03	1.364859E-16	2.445871E-18
3.812880E+03	1.391210E-16	2.479434E-18
3.822835E+03	1.418188E-16	2.513564E-18
3.832791E+03	1.445688E-16	2.548058E-18
3.842746E+03	1.473712E-16	2.582900E-18
3.852701E+03	1.502192E-16	2.617962E-18
3.862657E+03	1.531061E-16	2.653106E-18
3.872612E+03	1.560240E-16	2.688190E-18
3.882567E+03	1.589700E-16	2.723152E-18
3.892523E+03	1.619241E-16	2.757644E-18
3.902478E+03	1.648878E-16	2.791687E-18
3.912433E+03	1.678509E-16	2.825110E-18
3.922388E+03	1.707978E-16	2.857649E-18
3.932344E+03	1.737179E-16	2.889133E-18
3.942299E+03	1.766057E-16	2.919482E-18
3.952254E+03	1.794507E-16	2.948531E-18
3.962210E+03	1.822314E-16	2.975946E-18
3.972165E+03	1.849540E-16	3.001842E-18
3.982120E+03	1.875924E-16	3.025823E-18
3.992076E+03	1.901484E-16	3.047940E-18
4.002031E+03	1.926134E-16	3.068086E-18
4.011986E+03	1.949696E-16	3.086004E-18
4.021941E+03	1.972159E-16	3.101712E-18
4.031897E+03	1.993520E-16	3.115244E-18
4.041852E+03	2.013637E-16	3.126409E-18
4.051807E+03	2.032483E-16	3.135210E-18
4.061763E+03	2.050094E-16	3.141741E-18
4.071718E+03	2.066422E-16	3.145967E-18
4.081673E+03	2.081479E-16	3.147949E-18
4.091629E+03	2.095245E-16	3.147700E-18
4.101584E+03	2.107811E-16	3.145393E-18
4.111539E+03	2.119135E-16	3.141008E-18
4.121494E+03	2.129380E-16	3.134823E-18
4.131450E+03	2.138483E-16	3.126783E-18
4.141405E+03	2.146580E-16	3.117125E-18
4.151360E+03	2.153772E-16	3.106023E-18
4.161316E+03	2.160076E-16	3.093536E-18
4.171271E+03	2.165652E-16	3.079920E-18
4.181226E+03	2.170579E-16	3.065312E-18
4.191182E+03	2.174942E-16	3.049854E-18
4.201137E+03	2.178872E-16	3.033749E-18
4.211092E+03	2.182506E-16	3.017203E-18
4.221047E+03	2.185898E-16	3.000302E-18
4.231003E+03	2.189190E-16	2.983252E-18
4.240958E+03	2.192483E-16	2.966195E-18
4.250913E+03	2.195917E-16	2.949325E-18
4.260869E+03	2.199556E-16	2.932727E-18
4.270824E+03	2.203579E-16	2.916634E-18
4.280779E+03	2.208009E-16	2.901073E-18
4.290735E+03	2.213057E-16	2.886308E-18
4.300690E+03	2.218708E-16	2.872310E-18
4.310645E+03	2.225128E-16	2.859279E-18
4.320601E+03	2.232370E-16	2.847265E-18
4.330556E+03	2.240552E-16	2.836401E-18
4.340511E+03	2.249682E-16	2.826675E-18
4.350466E+03	2.259864E-16	2.818195E-18
4.360422E+03	2.271117E-16	2.810964E-18
4.370377E+03	2.283481E-16	2.805006E-18
4.380332E+03	2.296910E-16	2.800242E-18
4.390288E+03	2.311404E-16	2.796649E-18
4.400243E+03	2.326878E-16	2.794104E-18
4.410198E+03	2.343228E-16	2.792467E-18
4.420154E+03	2.360372E-16	2.791622E-18
4.430109E+03	2.378175E-16	2.791398E-18
4.440064E+03	2.396557E-16	2.791691E-18
4.450019E+03	2.415518E-16	2.792495E-18
4.459975E+03	2.435016E-16	2.793753E-18
4.469930E+03	2.454957E-16	2.795352E-18
4.479885E+03	2.475368E-16	2.797319E-18
4.489841E+03	2.496066E-16	2.799448E-18
4.499796E+03	2.516988E-16	2.801672E-18
4.509751E+03	2.538030E-16	2.803877E-18
4.519707E+03	2.559081E-16	2.805950E-18
4.529662E+03	2.579989E-16	2.807737E-18
4.539617E+03	2.600635E-16	2.809122E-18
4.549572E+03	2.620864E-16	2.809956E-18
4.559528E+03	2.640555E-16	2.810133E-18
4.569483E+03	2.659561E-16	2.809521E-18
4.579438E+03	2.677774E-16	2.808035E-18
4.589394E+03	2.695098E-16	2.805603E-18
4.599349E+03	2.711380E-16	2.802101E-18
4.609304E+03	2.726619E-16	2.797563E-18
4.619260E+03	2.740662E-16	2.791866E-18
4.629215E+03	2.753512E-16	2.785053E-18
4.639170E+03	2.765155E-16	2.777145E-18
4.649125E+03	2.775569E-16	2.768159E-18
4.659081E+03	2.784752E-16	2.758127E-18
4.669036E+03	2.792824E-16	2.747206E-18
4.678991E+03	2.799794E-16	2.735434E-18
4.688947E+03	2.805753E-16	2.722936E-18
4.698902E+03	2.810851E-16	2.709882E-18
4.708857E+03	2.815212E-16	2.696421E-18
4.718813E+03	2.818948E-16	2.682679E-18
4.728768E+03	2.822242E-16	2.668852E-18
4.738723E+03	2.825256E-16	2.655109E-18
4.748678E+03	2.828155E-16	2.641618E-18
4.758634E+03	2.831177E-16	2.628610E-18
4.768589E+03	2.834428E-16	2.616190E-18
4.778544E+03	2.838048E-16	2.604493E-18
4.788500E+03	2.842176E-16	2.593647E-18
4.798455E+03	2.846910E-16	2.583744E-18
4.808410E+03	2.852373E-16	2.574893E-18
4.818366E+03	2.858643E-16	2.567154E-18
4.828321E+03	2.865818E-16	2.560596E-18
4.838276E+03	2.873947E-16	2.555248E-18
4.848231E+03	2.883096E-16	2.551151E-18
4.858187E+03	2.893316E-16	2.548331E-18
4.868142E+03	2.904605E-16	2.546771E-18
4.878097E+03	2.916976E-16	2.546465E-18
4.888053E+03	2.930459E-16	2.547422E-18
4.898008E+03	2.944964E-16	2.549551E-18
4.907963E+03	2.960520E-16	2.552860E-18
4.917919E+03	2.977003E-16	2.557232E-18
4.927874E+03	2.994377E-16	2.562623E-18
4.937829E+03	3.012559E-16	2.568950E-18
4.947784E+03	3.031421E-16	2.576097E-18
4.957740E+03	3.050896E-16	2.583996E-18
4.967695E+03	3.070873E-16	2.592549E-18
4.977650E+03	3.091242E-16	2.601655E-18
4.987606E+03	3.111859E-16	2.611189E-18
4.997561E+03	3.132647E-16	2.621082E-18
5.007516E+03	3.153501E-16	2.631244E-18
5.017472E+03	3.174324E-16	2.641592E-18
5.027427E+03	3.195027E-16	2.652048E-18
5.037382E+03	3.215529E-16	2.662545E-18
5.047337E+03	3.235761E-16	2.673025E-18
5.057293E+03	3.255664E-16	2.683439E-18
5.067248E+03	3.275226E-16	2.693777E-18
5.077203E+03	3.294372E-16	2.703976E-18
5.087159E+03	3.313075E-16	2.714013E-18
5.097114E+03	3.331311E-16	2.723870E-18
5.107069E+03	3.349099E-16	2.733563E-18
5.117025E+03	3.366429E-16	2.743081E-18
5.126980E+03	3.383254E-16	2.752388E-18
5.136935E+03	3.399566E-16	2.761477E-18
5.146890E+03	3.415427E-16	2.770399E-18
5.156846E+03	3.430755E-16	2.779085E-18
5.166801E+03	3.445570E-16	2.787555E-18
5.176756E+03	3.459852E-16	2.795790E-18
5.186712E+03	3.473579E-16	2.803774E-18
5.196667E+03	3.486718E-16	2.811482E-18
5.206622E+03	3.499237E-16	2.818886E-18
5.216578E+03	3.511091E-16	2.825953E-18
5.226533E+03	3.522233E-16	2.832646E-18
5.236488E+03	3.532612E-16	2.838924E-18
5.246443E+03	3.542206E-16	2.844772E-18
5.256399E+03	3.550917E-16	2.850112E-18
5.266354E+03	3.558679E-16	2.854894E-18
5.276309E+03	3.565464E-16	2.859095E-18
5.286265E+03	3.571127E-16	2.862602E-18
5.296220E+03	3.575712E-16	2.865451E-18
5.306175E+03	3.579042E-16	2.867503E-18
5.316131E+03	3.581124E-16	2.868764E-18
5.326086E+03	3.581896E-16	2.869188E-18
5.336041E+03	3.581230E-16	2.868670E-18
5.345996E+03	3.579147E-16	2.867232E-18
5.355952E+03	3.575603E-16	2.864837E-18
5.365907E+03	3.570490E-16	2.861400E-18
5.375862E+03	3.563852E-16	2.856958E-18
5.385818E+03	3.555639E-16	2.851467E-18
5.395773E+03	3.545878E-16	2.844951E-18
5.405728E+03	3.534506E-16	2.837358E-18
5.415684E+03	3.521612E-16	2.828757E-18
5.425639E+03	3.507159E-16	2.819117E-18
5.435594E+03	3.491269E-16	2.808533E-18
5.445549E+03	3.473936E-16	2.796999E-18
5.455505E+03	3.455314E-16	2.784634E-18
5.465460E+03	3.435436E-16	2.771457E-18
5.475415E+03	3.414487E-16	2.757601E-18
5.485371E+03	3.392602E-16	2.743155E-18
5.495326E+03	3.369864E-16	2.728169E-18
5.505281E+03	3.346545E-16	2.712847E-18
5.515237E+03	3.322731E-16	2.697241E-18
5.525192E+03	3.298692E-16	2.681557E-18
5.535147E+03	3.274612E-16	2.665927E-18
5.545102E+03	3.250722E-16	2.650530E-18
5.555058E+03	3.227262E-16	2.635546E-18
5.565013E+03	3.204478E-16	2.621169E-18
5.574968E+03	3.182624E-16	2.607596E-18
5.584924E+03	3.161952E-16	2.595026E-18
5.594879E+03	3.142743E-16	2.583687E-18
5.604834E+03	3.125214E-16	2.573753E-18
5.614790E+03	3.109602E-16	2.565417E-18
5.624745E+03	3.096136E-16	2.558868E-18
5.634700E+03	3.085056E-16	2.554305E-18
5.644655E+03	3.076495E-16	2.551843E-18
5.654611E+03	3.070687E-16	2.551678E-18
5.664566E+03	3.067747E-16	2.553914E-18
5.674521E+03	3.067826E-16	2.558683E-18
5.684477E+03	3.070954E-16	2.566016E-18
5.694432E+03	3.077216E-16	2.575995E-18
5.704387E+03	3.086665E-16	2.588671E-18
5.714343E+03	3.099222E-16	2.603990E-18
5.724298E+03	3.114862E-16	2.621937E-18
5.734253E+03	3.133489E-16	2.642442E-18
5.744209E+03	3.154961E-16	2.665395E-18
5.754164E+03	3.179097E-16	2.690650E-18
5.764119E+03	3.205640E-16	2.717998E-18
5.774074E+03	3.234323E-16	2.747218E-18
5.784030E+03	3.264870E-16	2.778080E-18
5.793985E+03	3.296904E-16	2.810268E-18
5.803940E+03	3.330077E-16	2.843488E-18
5.813896E+03	3.363918E-16	2.877337E-18
5.823851E+03	3.398061E-16	2.911502E-18
5.833806E+03	3.431996E-16	2.945543E-18
5.843762E+03	3.465337E-16	2.979124E-18
5.853717E+03	3.497569E-16	3.011796E-18
5.863672E+03	3.528290E-16	3.043204E-18
5.873627E+03	3.557052E-16	3.072953E-18
5.883583E+03	3.583509E-16	3.100735E-18
5.893538E+03	3.607291E-16	3.126215E-18
5.903493E+03	3.628111E-16	3.149135E-18
5.913449E+03	3.645743E-16	3.169284E-18
5.923404E+03	3.660063E-16	3.186542E-18
5.933359E+03	3.670906E-16	3.200753E-18
5.943315E+03	3.678291E-16	3.211918E-18
5.953270E+03	3.682265E-16	3.220068E-18
5.963225E+03	3.682914E-16	3.225267E-18
5.973180E+03	3.680423E-16	3.227665E-18
5.983136E+03	3.675032E-16	3.227465E-18
5.993091E+03	3.667071E-16	3.224949E-18
6.003046E+03	3.656805E-16	3.220343E-18
6.013002E+03	3.644603E-16	3.213968E-18
6.022957E+03	3.630893E-16	3.206198E-18
6.032912E+03	3.616009E-16	3.197328E-18
6.042868E+03	3.600435E-16	3.187784E-18
6.052823E+03	3.584469E-16	3.177835E-18
6.062778E+03	3.568578E-16	3.167897E-18
6.072733E+03	3.553067E-16	3.158245E-18
6.082689E+03	3.538322E-16	3.149229E-18
6.092644E+03	3.524627E-16	3.141111E-18
6.102599E+03	3.512236E-16	3.134124E-18
6.112555E+03	3.501465E-16	3.128560E-18
6.122510E+03	3.492487E-16	3.124585E-18
6.132465E+03	3.485469E-16	3.122360E-18
6.142421E+03	3.480565E-16	3.122036E-18
6.152376E+03	3.477855E-16	3.123695E-18
6.162331E+03	3.477404E-16	3.127411E-18
6.172286E+03	3.479132E-16	3.133124E-18
6.182242E+03	3.482982E-16	3.140797E-18
6.192197E+03	3.488887E-16	3.150384E-18
6.202152E+03	3.496674E-16	3.161737E-18
6.212108E+03	3.506201E-16	3.174734E-18
6.222063E+03	3.517296E-16	3.189228E-18
6.232018E+03	3.529696E-16	3.204983E-18
6.241974E+03	3.543217E-16	3.221840E-18
6.251929E+03	3.557557E-16	3.239526E-18
6.261884E+03	3.572503E-16	3.257851E-18
6.271839E+03	3.587765E-16	3.276554E-18
6.281795E+03	3.603051E-16	3.295368E-18
6.291750E+03	3.618110E-16	3.314067E-18
6.301705E+03	3.632668E-16	3.332396E-18
6.311661E+03	3.646504E-16	3.350153E-18
6.321616E+03	3.659346E-16	3.367084E-18
6.331571E+03	3.670984E-16	3.382993E-18
6.341527E+03	3.681312E-16	3.397778E-18
6.351482E+03	3.690179E-16	3.411295E-18
6.361437E+03	3.697393E-16	3.423360E-18
6.371392E+03	3.702900E-16	3.433917E-18
6.381348E+03	3.706680E-16	3.442942E-18
6.391303E+03	3.708622E-16	3.450323E-18
6.401258E+03	3.708755E-16	3.456081E-18
6.411214E+03	3.707053E-16	3.460184E-18
6.421169E+03	3.703505E-16	3.462614E-18
6.431124E+03	3.698191E-16	3.463438E-18
6.441080E+03	3.691049E-16	3.462591E-18
6.451035E+03	3.682100E-16	3.460081E-18
6.460990E+03	3.671447E-16	3.455989E-18
6.470945E+03	3.659083E-16	3.450289E-18
6.480901E+03	3.645075E-16	3.443030E-18
6.490856E+03	3.629567E-16	3.434328E-18
6.500811E+03	3.612695E-16	3.424298E-18
6.510767E+03	3.594511E-16	3.412974E-18
6.520722E+03	3.575094E-16	3.400417E-18
6.530677E+03	3.554593E-16	3.386753E-18
6.540633E+03	3.532961E-16	3.371926E-18
6.550588E+03	3.510299E-16	3.356019E-18
6.560543E+03	3.486670E-16	3.339078E-18
6.570498E+03	3.462060E-16	3.321082E-18
6.580454E+03	3.436534E-16	3.302081E-18
6.590409E+03	3.410162E-16	3.282131E-18
6.600364E+03	3.382909E-16	3.261188E-18
6.610320E+03	3.354932E-16	3.239396E-18
6.620275E+03	3.326215E-16	3.216732E-18
6.630230E+03	3.296867E-16	3.193291E-18
6.640186E+03	3.266970E-16	3.169147E-18
6.650141E+03	3.236587E-16	3.144356E-18
6.660096E+03	3.205902E-16	3.119091E-18
6.670051E+03	3.175009E-16	3.093439E-18
6.680007E+03	3.144016E-16	3.067501E-18
6.689962E+03	3.113149E-16	3.041497E-18
6.699917E+03	3.082506E-16	3.015522E-18
6.709873E+03	3.052302E-16	2.989785E-18
6.719828E+03	3.022724E-16	2.964469E-18
6.729783E+03	2.993999E-16	2.939798E-18
6.739739E+03	2.966251E-16	2.915898E-18
6.749694E+03	2.939712E-16	2.893000E-18
6.759649E+03	2.914541E-16	2.871263E-18
6.769604E+03	2.890993E-16	2.850942E-18
6.779560E+03	2.869214E-16	2.832186E-18
6.789515E+03	2.849339E-16	2.815134E-18
6.799470E+03	2.831595E-16	2.800014E-18
6.809426E+03	2.816056E-16	2.786905E-18
6.819381E+03	2.802884E-16	2.775972E-18
6.829336E+03	2.792187E-16	2.767327E-18
6.839292E+03	2.784024E-16	2.761032E-18
6.849247E+03	2.778532E-16	2.757228E-18
6.859202E+03	2.775696E-16	2.755901E-18
6.869157E+03	2.775612E-16	2.757151E-18
6.879113E+03	2.778222E-16	2.760922E-18
6.889068E+03	2.783548E-16	2.767237E-18
6.899023E+03	2.791557E-16	2.776063E-18
6.908979E+03	2.802162E-16	2.787313E-18
6.918934E+03	2.815359E-16	2.800982E-18
6.928889E+03	2.831024E-16	2.816944E-18
6.938845E+03	2.849015E-16	2.835056E-18
6.948800E+03	2.869246E-16	2.855226E-18
6.958755E+03	2.891616E-16	2.877351E-18
6.968710E+03	2.915909E-16	2.901211E-18
6.978666E+03	2.942007E-16	2.926682E-18
6.988621E+03	2.969749E-16	2.953598E-18
6.998576E+03	2.999005E-16	2.981825E-18
7.008532E+03	3.029535E-16	3.011115E-18
7.018487E+03	3.061207E-16	3.041331E-18
7.028442E+03	3.093854E-16	3.072300E-18
7.038398E+03	3.127307E-16	3.103848E-18
7.048353E+03	3.161403E-16	3.135806E-18
7.058308E+03	3.196016E-16	3.168042E-18
7.068263E+03	3.230903E-16	3.200308E-18
7.078219E+03	3.265978E-16	3.232515E-18
7.088174E+03	3.301030E-16	3.264449E-18
7.098129E+03	3.335884E-16	3.295931E-18
7.108085E+03	3.370352E-16	3.326772E-18
7.118040E+03	3.404238E-16	3.356775E-18
7.127995E+03	3.437370E-16	3.385771E-18
7.137951E+03	3.469478E-16	3.413490E-18
7.147906E+03	3.500312E-16	3.439689E-18
7.157861E+03	3.529604E-16	3.464107E-18
7.167817E+03	3.557112E-16	3.486512E-18
7.177772E+03	3.582488E-16	3.506567E-18
7.187727E+03	3.605462E-16	3.524016E-18
7.197682E+03	3.625659E-16	3.538505E-18
7.207638E+03	3.642797E-16	3.549771E-18
7.217593E+03	3.656502E-16	3.557467E-18
7.227548E+03	3.666509E-16	3.561353E-18
7.237504E+03	3.672480E-16	3.561121E-18
7.247459E+03	3.674204E-16	3.556594E-18
7.257414E+03	3.671465E-16	3.547587E-18
7.267370E+03	3.664097E-16	3.533971E-18
7.277325E+03	3.651947E-16	3.515629E-18
7.287280E+03	3.635025E-16	3.492603E-18
7.297235E+03	3.613363E-16	3.464961E-18
7.307191E+03	3.587069E-16	3.432839E-18
7.317146E+03	3.556324E-16	3.396448E-18
7.327101E+03	3.521428E-16	3.356110E-18
7.337057E+03	3.482654E-16	3.312118E-18
7.347012E+03	3.440383E-16	3.264869E-18
7.356967E+03	3.395090E-16	3.214844E-18
7.366923E+03	3.347245E-16	3.162519E-18
7.376878E+03	3.297394E-16	3.108432E-18
7.386833E+03	3.245961E-16	3.053007E-18
7.396788E+03	3.193557E-16	2.996839E-18
7.406744E+03	3.140699E-16	2.940427E-18
7.416699E+03	3.087845E-16	2.884213E-18
7.426654E+03	3.035476E-16	2.828654E-18
7.436610E+03	2.984044E-16	2.774177E-18
7.446565E+03	2.933926E-16	2.721134E-18
7.456520E+03	2.885504E-16	2.669879E-18
7.466476E+03	2.839118E-16	2.620722E-18
7.476431E+03	2.795035E-16	2.573904E-18
7.486386E+03	2.753555E-16	2.529693E-18
7.496341E+03	2.714906E-16	2.488287E-18
7.506297E+03	2.679204E-16	2.449784E-18
7.516252E+03	2.646686E-16	2.414383E-18
7.526207E+03	2.617408E-16	2.382124E-18
7.536163E+03	2.591513E-16	2.353113E-18
7.546118E+03	2.569079E-16	2.327403E-18
7.556073E+03	2.550125E-16	2.304988E-18
7.566029E+03	2.534712E-16	2.285906E-18
7.575984E+03	2.522837E-16	2.270130E-18
7.585939E+03	2.514427E-16	2.257578E-18
7.595894E+03	2.509411E-16	2.248166E-18
7.605850E+03	2.507722E-16	2.241819E-18
7.615805E+03	2.509199E-16	2.238377E-18
7.625760E+03	2.513699E-16	2.237696E-18
7.635716E+03	2.521100E-16	2.239658E-18
7.645671E+03	2.531169E-16	2.244041E-18
7.655626E+03	2.543799E-16	2.250746E-18
7.665582E+03	2.558777E-16	2.259573E-18
7.675537E+03	2.575950E-16	2.270384E-18
7.685492E+03	2.595052E-16	2.282939E-18
7.695447E+03	2.615951E-16	2.297121E-18
7.705403E+03	2.638400E-16	2.312712E-18
7.715358E+03	2.662217E-16	2.329555E-18
7.725313E+03	2.687097E-16	2.347387E-18
