#wls	flux	fluxerr
1.592848E+03	4.077612E-18	2.381469E-18
1.632669E+03	4.274422E-18	2.477772E-18
1.672491E+03	4.457981E-18	2.564425E-18
1.712312E+03	4.623523E-18	2.638841E-18
1.752133E+03	4.768405E-18	2.699730E-18
1.791954E+03	4.884260E-18	2.742642E-18
1.831775E+03	4.959642E-18	2.761580E-18
1.871597E+03	4.982504E-18	2.750447E-18
1.911418E+03	4.943020E-18	2.704613E-18
1.951239E+03	4.832972E-18	2.620537E-18
1.991060E+03	4.659251E-18	2.502988E-18
2.030881E+03	4.449701E-18	2.367776E-18
2.070703E+03	4.258154E-18	2.243861E-18
2.110524E+03	4.154810E-18	2.167628E-18
2.150345E+03	4.202766E-18	2.170297E-18
2.190166E+03	4.435753E-18	2.266676E-18
2.229987E+03	4.848390E-18	2.450993E-18
2.269809E+03	5.407823E-18	2.703771E-18
2.309630E+03	6.068400E-18	2.999863E-18
2.349451E+03	6.787231E-18	3.316442E-18
2.389272E+03	7.530848E-18	3.636175E-18
2.429093E+03	8.280912E-18	3.949703E-18
2.468915E+03	9.025272E-18	4.251004E-18
2.508736E+03	9.759188E-18	4.537793E-18
2.548557E+03	1.048324E-17	4.810341E-18
2.588378E+03	1.119869E-17	5.069226E-18
2.628199E+03	1.190598E-17	5.314624E-18
2.668021E+03	1.261088E-17	5.549051E-18
2.707842E+03	1.331411E-17	5.772692E-18
2.747663E+03	1.401785E-17	5.986333E-18
2.787484E+03	1.472605E-17	6.191453E-18
2.827305E+03	1.543855E-17	6.387721E-18
2.867127E+03	1.615900E-17	6.576366E-18
2.906948E+03	1.689119E-17	6.758563E-18
2.946769E+03	1.763447E-17	6.933637E-18
2.986590E+03	1.839020E-17	7.101711E-18
2.996546E+03	1.858058E-17	7.142391E-18
3.006501E+03	1.877347E-17	7.183262E-18
3.016456E+03	1.896652E-17	7.223420E-18
3.026411E+03	1.916252E-17	7.263909E-18
3.036367E+03	1.935811E-17	7.303446E-18
3.046322E+03	1.956186E-17	7.345250E-18
3.056277E+03	1.976699E-17	7.386741E-18
3.066233E+03	1.997793E-17	7.429554E-18
3.076188E+03	2.019430E-17	7.473514E-18
3.086143E+03	2.041077E-17	7.516625E-18
3.096099E+03	2.063196E-17	7.560577E-18
3.106054E+03	2.085758E-17	7.605238E-18
3.116009E+03	2.108483E-17	7.649566E-18
3.125964E+03	2.131346E-17	7.693449E-18
3.135920E+03	2.154577E-17	7.737712E-18
3.145875E+03	2.177900E-17	7.781342E-18
3.155830E+03	2.201295E-17	7.824257E-18
3.165786E+03	2.225004E-17	7.867314E-18
3.175741E+03	2.248754E-17	7.909521E-18
3.185696E+03	2.272795E-17	7.951753E-18
3.195652E+03	2.296851E-17	7.993031E-18
3.205607E+03	2.320912E-17	8.033313E-18
3.215562E+03	2.345239E-17	8.073496E-18
3.225517E+03	2.369556E-17	8.112617E-18
3.235473E+03	2.394131E-17	8.151585E-18
3.245428E+03	2.418688E-17	8.189447E-18
3.255383E+03	2.443223E-17	8.226189E-18
3.265339E+03	2.468013E-17	8.262733E-18
3.275294E+03	2.492779E-17	8.298139E-18
3.285249E+03	2.517804E-17	8.333336E-18
3.295205E+03	2.542809E-17	8.367392E-18
3.305160E+03	2.568081E-17	8.401241E-18
3.315115E+03	2.593341E-17	8.433958E-18
3.325070E+03	2.618592E-17	8.465551E-18
3.335026E+03	2.644127E-17	8.496958E-18
3.344981E+03	2.669955E-17	8.528188E-18
3.354936E+03	2.695504E-17	8.557407E-18
3.364892E+03	2.721361E-17	8.586478E-18
3.374847E+03	2.747537E-17	8.615415E-18
3.384802E+03	2.773749E-17	8.643314E-18
3.394758E+03	2.800300E-17	8.671111E-18
3.404713E+03	2.826609E-17	8.696992E-18
3.414668E+03	2.853577E-17	8.723724E-18
3.424623E+03	2.880620E-17	8.749494E-18
3.434579E+03	2.907750E-17	8.774325E-18
3.444534E+03	2.934975E-17	8.798239E-18
3.454489E+03	2.962914E-17	8.823066E-18
3.464445E+03	2.990671E-17	8.846113E-18
3.474400E+03	3.018865E-17	8.869204E-18
3.484355E+03	3.047513E-17	8.892361E-18
3.494311E+03	3.076010E-17	8.913804E-18
3.504266E+03	3.105296E-17	8.936239E-18
3.514221E+03	3.134458E-17	8.957009E-18
3.524176E+03	3.164438E-17	8.978791E-18
3.534132E+03	3.194317E-17	8.998944E-18
3.544087E+03	3.224734E-17	9.019260E-18
3.554042E+03	3.255705E-17	9.039745E-18
3.563998E+03	3.286929E-17	9.059535E-18
3.573953E+03	3.318419E-17	9.078648E-18
3.583908E+03	3.350509E-17	9.097968E-18
3.593864E+03	3.382892E-17	9.116634E-18
3.603819E+03	3.415908E-17	9.135530E-18
3.613774E+03	3.449245E-17	9.153789E-18
3.623729E+03	3.482921E-17	9.171434E-18
3.633685E+03	3.517272E-17	9.189321E-18
3.643640E+03	3.552321E-17	9.207464E-18
3.653595E+03	3.587420E-17	9.224151E-18
3.663551E+03	3.623579E-17	9.241953E-18
3.673506E+03	3.659816E-17	9.258318E-18
3.683461E+03	3.696812E-17	9.274947E-18
3.693417E+03	3.734583E-17	9.291830E-18
3.703372E+03	3.772473E-17	9.307296E-18
3.713327E+03	3.811511E-17	9.323855E-18
3.723282E+03	3.850696E-17	9.339004E-18
3.733238E+03	3.890722E-17	9.354398E-18
3.743193E+03	3.931608E-17	9.370029E-18
3.753148E+03	3.972680E-17	9.384251E-18
3.763104E+03	4.014995E-17	9.399520E-18
3.773059E+03	4.057525E-17	9.413373E-18
3.783014E+03	4.100984E-17	9.427438E-18
3.792970E+03	4.145036E-17	9.440885E-18
3.802925E+03	4.190053E-17	9.454514E-18
3.812880E+03	4.235694E-17	9.467503E-18
3.822835E+03	4.281981E-17	9.479856E-18
3.832791E+03	4.329283E-17	9.492343E-18
3.842746E+03	4.377262E-17	9.504163E-18
3.852701E+03	4.425934E-17	9.515301E-18
3.862657E+03	4.475679E-17	9.526528E-18
3.872612E+03	4.525778E-17	9.536254E-18
3.882567E+03	4.577356E-17	9.546803E-18
3.892523E+03	4.629327E-17	9.555836E-18
3.902478E+03	4.682440E-17	9.564861E-18
3.912433E+03	4.736352E-17	9.573109E-18
3.922388E+03	4.791451E-17	9.581301E-18
3.932344E+03	4.846996E-17	9.587900E-18
3.942299E+03	4.903770E-17	9.594407E-18
3.952254E+03	4.961406E-17	9.600031E-18
3.962210E+03	5.020312E-17	9.605499E-18
3.972165E+03	5.079726E-17	9.609289E-18
3.982120E+03	5.140447E-17	9.612861E-18
3.992076E+03	5.202106E-17	9.615452E-18
4.002031E+03	5.265116E-17	9.617757E-18
4.011986E+03	5.328697E-17	9.618280E-18
4.021941E+03	5.393674E-17	9.618460E-18
4.031897E+03	5.459656E-17	9.617517E-18
4.041852E+03	5.526664E-17	9.615429E-18
4.051807E+03	5.594718E-17	9.612164E-18
4.061763E+03	5.663829E-17	9.607676E-18
4.071718E+03	5.734439E-17	9.602642E-18
4.081673E+03	5.805728E-17	9.595614E-18
4.091629E+03	5.878549E-17	9.587943E-18
4.101584E+03	5.952510E-17	9.578903E-18
4.111539E+03	6.027183E-17	9.567749E-18
4.121494E+03	6.103451E-17	9.555821E-18
4.131450E+03	6.180898E-17	9.542381E-18
4.141405E+03	6.259989E-17	9.528068E-18
4.151360E+03	6.339846E-17	9.511465E-18
4.161316E+03	6.420928E-17	9.493213E-18
4.171271E+03	6.503251E-17	9.473261E-18
4.181226E+03	6.586818E-17	9.451547E-18
4.191182E+03	6.671649E-17	9.428027E-18
4.201137E+03	6.758217E-17	9.403291E-18
4.211092E+03	6.845609E-17	9.375989E-18
4.221047E+03	6.934288E-17	9.346705E-18
4.231003E+03	7.024267E-17	9.315388E-18
4.240958E+03	7.115553E-17	9.281982E-18
4.250913E+03	7.208148E-17	9.246418E-18
4.260869E+03	7.302054E-17	9.208637E-18
4.270824E+03	7.397278E-17	9.168582E-18
4.280779E+03	7.493321E-17	9.125581E-18
4.290735E+03	7.591172E-17	9.080788E-18
4.300690E+03	7.689827E-17	9.032933E-18
4.310645E+03	7.789783E-17	8.982563E-18
4.320601E+03	7.891028E-17	8.929609E-18
4.330556E+03	7.993547E-17	8.874005E-18
4.340511E+03	8.097338E-17	8.815697E-18
4.350466E+03	8.201852E-17	8.754054E-18
4.360422E+03	8.308125E-17	8.690150E-18
4.370377E+03	8.415080E-17	8.622813E-18
4.380332E+03	8.523213E-17	8.552535E-18
4.390288E+03	8.631968E-17	8.478745E-18
4.400243E+03	8.742382E-17	8.402448E-18
4.410198E+03	8.853349E-17	8.322553E-18
4.420154E+03	8.964803E-17	8.239021E-18
4.430109E+03	9.077827E-17	8.152855E-18
4.440064E+03	9.191260E-17	8.063003E-18
4.450019E+03	9.305604E-17	7.969939E-18
4.459975E+03	9.420822E-17	7.873652E-18
4.469930E+03	9.536275E-17	7.773647E-18
4.479885E+03	9.652476E-17	7.670404E-18
4.489841E+03	9.768784E-17	7.563474E-18
4.499796E+03	9.885708E-17	7.453337E-18
4.509751E+03	1.000318E-16	7.340013E-18
4.519707E+03	1.012053E-16	7.223115E-18
4.529662E+03	1.023829E-16	7.103134E-18
4.539617E+03	1.035636E-16	6.980132E-18
4.549572E+03	1.047405E-16	6.853789E-18
4.559528E+03	1.059189E-16	6.724618E-18
4.569483E+03	1.070916E-16	6.592353E-18
4.579438E+03	1.082640E-16	6.457541E-18
4.589394E+03	1.094285E-16	6.319973E-18
4.599349E+03	1.105907E-16	6.180226E-18
4.609304E+03	1.117431E-16	6.038172E-18
4.619260E+03	1.128909E-16	5.894429E-18
4.629215E+03	1.140332E-16	5.749282E-18
4.639170E+03	1.151559E-16	5.602422E-18
4.649125E+03	1.162772E-16	5.455203E-18
4.659081E+03	1.173832E-16	5.307414E-18
4.669036E+03	1.184724E-16	5.159557E-18
4.678991E+03	1.195506E-16	5.012467E-18
4.688947E+03	1.206096E-16	4.866463E-18
4.698902E+03	1.216553E-16	4.722501E-18
4.708857E+03	1.226798E-16	4.581061E-18
4.718813E+03	1.236886E-16	4.443226E-18
4.728768E+03	1.246740E-16	4.309654E-18
4.738723E+03	1.256417E-16	4.181575E-18
4.748678E+03	1.265769E-16	4.059601E-18
4.758634E+03	1.274995E-16	3.945550E-18
4.768589E+03	1.283949E-16	3.840169E-18
4.778544E+03	1.292622E-16	3.744698E-18
4.788500E+03	1.301078E-16	3.660578E-18
4.798455E+03	1.309240E-16	3.588806E-18
4.808410E+03	1.317103E-16	3.530502E-18
4.818366E+03	1.324734E-16	3.486835E-18
4.828321E+03	1.332057E-16	3.458345E-18
4.838276E+03	1.339140E-16	3.445173E-18
4.848231E+03	1.345907E-16	3.446476E-18
4.858187E+03	1.352356E-16	3.461362E-18
4.868142E+03	1.358557E-16	3.488930E-18
4.878097E+03	1.364435E-16	3.527767E-18
4.888053E+03	1.369989E-16	3.576556E-18
4.898008E+03	1.375291E-16	3.634131E-18
4.907963E+03	1.380339E-16	3.699144E-18
4.917919E+03	1.384988E-16	3.769894E-18
4.927874E+03	1.389382E-16	3.845521E-18
4.937829E+03	1.393523E-16	3.924863E-18
4.947784E+03	1.397264E-16	4.006427E-18
4.957740E+03	1.400752E-16	4.089646E-18
4.967695E+03	1.403988E-16	4.173637E-18
4.977650E+03	1.406898E-16	4.257388E-18
4.987606E+03	1.409485E-16	4.340188E-18
4.997561E+03	1.411824E-16	4.421637E-18
5.007516E+03	1.413840E-16	4.500955E-18
5.017472E+03	1.415538E-16	4.577663E-18
5.027427E+03	1.416991E-16	4.651579E-18
5.037382E+03	1.418129E-16	4.722112E-18
5.047337E+03	1.418952E-16	4.788954E-18
5.057293E+03	1.419537E-16	4.852095E-18
5.067248E+03	1.419811E-16	4.911083E-18
5.077203E+03	1.419778E-16	4.965749E-18
5.087159E+03	1.419512E-16	5.016217E-18
5.097114E+03	1.419015E-16	5.062397E-18
5.107069E+03	1.418146E-16	5.103714E-18
5.117025E+03	1.417051E-16	5.140655E-18
5.126980E+03	1.415732E-16	5.173218E-18
5.136935E+03	1.414049E-16	5.200910E-18
5.146890E+03	1.412219E-16	5.224568E-18
5.156846E+03	1.410030E-16	5.243478E-18
5.166801E+03	1.407628E-16	5.258267E-18
5.176756E+03	1.404945E-16	5.268795E-18
5.186712E+03	1.402054E-16	5.275464E-18
5.196667E+03	1.398887E-16	5.278173E-18
5.206622E+03	1.395519E-16	5.277371E-18
5.216578E+03	1.391811E-16	5.272726E-18
5.226533E+03	1.387976E-16	5.265248E-18
5.236488E+03	1.383810E-16	5.254383E-18
5.246443E+03	1.379522E-16	5.241163E-18
5.256399E+03	1.374910E-16	5.225076E-18
5.266354E+03	1.370114E-16	5.206917E-18
5.276309E+03	1.365070E-16	5.186718E-18
5.286265E+03	1.359848E-16	5.165045E-18
5.296220E+03	1.354386E-16	5.141951E-18
5.306175E+03	1.348753E-16	5.118014E-18
5.316131E+03	1.342887E-16	5.093311E-18
5.326086E+03	1.336792E-16	5.068175E-18
5.336041E+03	1.330538E-16	5.043196E-18
5.345996E+03	1.324129E-16	5.018709E-18
5.355952E+03	1.317437E-16	4.994556E-18
5.365907E+03	1.310664E-16	4.971807E-18
5.375862E+03	1.303619E-16	4.950051E-18
5.385818E+03	1.296498E-16	4.930328E-18
5.395773E+03	1.289117E-16	4.912211E-18
5.405728E+03	1.281605E-16	4.896462E-18
5.415684E+03	1.273968E-16	4.883338E-18
5.425639E+03	1.266149E-16	4.872749E-18
5.435594E+03	1.258154E-16	4.864504E-18
5.445549E+03	1.250060E-16	4.858583E-18
5.455505E+03	1.241877E-16	4.854722E-18
5.465460E+03	1.233559E-16	4.852418E-18
5.475415E+03	1.225120E-16	4.851413E-18
5.485371E+03	1.216636E-16	4.851681E-18
5.495326E+03	1.208118E-16	4.852969E-18
5.505281E+03	1.199523E-16	4.854796E-18
5.515237E+03	1.190864E-16	4.856926E-18
5.525192E+03	1.182215E-16	4.859374E-18
5.535147E+03	1.173587E-16	4.861927E-18
5.545102E+03	1.164937E-16	4.864152E-18
5.555058E+03	1.156334E-16	4.866099E-18
5.565013E+03	1.147735E-16	4.867366E-18
5.574968E+03	1.139152E-16	4.867795E-18
5.584924E+03	1.130708E-16	4.867717E-18
5.594879E+03	1.122248E-16	4.866297E-18
5.604834E+03	1.113949E-16	4.864131E-18
5.614790E+03	1.105712E-16	4.860642E-18
5.624745E+03	1.097547E-16	4.855740E-18
5.634700E+03	1.089518E-16	4.849588E-18
5.644655E+03	1.081635E-16	4.842118E-18
5.654611E+03	1.073854E-16	4.833036E-18
5.664566E+03	1.066236E-16	4.822531E-18
5.674521E+03	1.058737E-16	4.810330E-18
5.684477E+03	1.051418E-16	4.796638E-18
5.694432E+03	1.044286E-16	4.781430E-18
5.704387E+03	1.037297E-16	4.764458E-18
5.714343E+03	1.030510E-16	4.745941E-18
5.724298E+03	1.023931E-16	4.725875E-18
5.734253E+03	1.017517E-16	4.704028E-18
5.744209E+03	1.011323E-16	4.680632E-18
5.754164E+03	1.005308E-16	4.655468E-18
5.764119E+03	9.995255E-17	4.628771E-18
5.774074E+03	9.939813E-17	4.600553E-18
5.784030E+03	9.886332E-17	4.570606E-18
5.793985E+03	9.835338E-17	4.539165E-18
5.803940E+03	9.786416E-17	4.506032E-18
5.813896E+03	9.740569E-17	4.471662E-18
5.823851E+03	9.696888E-17	4.435634E-18
5.833806E+03	9.655426E-17	4.397970E-18
5.843762E+03	9.617183E-17	4.359123E-18
5.853717E+03	9.581257E-17	4.318678E-18
5.863672E+03	9.547707E-17	4.276663E-18
5.873627E+03	9.517508E-17	4.233513E-18
5.883583E+03	9.489782E-17	4.188830E-18
5.893538E+03	9.465031E-17	4.142834E-18
5.903493E+03	9.442858E-17	4.095348E-18
5.913449E+03	9.423760E-17	4.046585E-18
5.923404E+03	9.407794E-17	3.996562E-18
5.933359E+03	9.395010E-17	3.945292E-18
5.943315E+03	9.385002E-17	3.892599E-18
5.953270E+03	9.378736E-17	3.838875E-18
5.963225E+03	9.374898E-17	3.783574E-18
5.973180E+03	9.374918E-17	3.727271E-18
5.983136E+03	9.377937E-17	3.669611E-18
5.993091E+03	9.384929E-17	3.610970E-18
6.003046E+03	9.395045E-17	3.551010E-18
6.013002E+03	9.408341E-17	3.489755E-18
6.022957E+03	9.425809E-17	3.427574E-18
6.032912E+03	9.446600E-17	3.364153E-18
6.042868E+03	9.471235E-17	3.299689E-18
6.052823E+03	9.499799E-17	3.234223E-18
6.062778E+03	9.531899E-17	3.167641E-18
6.072733E+03	9.568082E-17	3.100159E-18
6.082689E+03	9.608899E-17	3.031991E-18
6.092644E+03	9.653502E-17	2.962916E-18
6.102599E+03	9.701966E-17	2.893038E-18
6.112555E+03	9.755347E-17	2.822765E-18
6.122510E+03	9.812777E-17	2.751956E-18
6.132465E+03	9.874839E-17	2.680924E-18
6.142421E+03	9.941644E-17	2.609879E-18
6.152376E+03	1.001329E-16	2.539066E-18
6.162331E+03	1.008990E-16	2.468783E-18
6.172286E+03	1.017109E-16	2.399268E-18
6.182242E+03	1.025798E-16	2.331178E-18
6.192197E+03	1.034968E-16	2.264779E-18
6.202152E+03	1.044685E-16	2.200772E-18
6.212108E+03	1.054959E-16	2.139830E-18
6.222063E+03	1.065805E-16	2.082733E-18
6.232018E+03	1.077182E-16	2.030257E-18
6.241974E+03	1.089204E-16	1.983575E-18
6.251929E+03	1.101768E-16	1.943541E-18
6.261884E+03	1.114929E-16	1.911365E-18
6.271839E+03	1.128681E-16	1.888172E-18
6.281795E+03	1.143017E-16	1.875046E-18
6.291750E+03	1.157920E-16	1.872573E-18
6.301705E+03	1.173368E-16	1.880389E-18
6.311661E+03	1.189280E-16	1.897769E-18
6.321616E+03	1.205751E-16	1.924131E-18
6.331571E+03	1.222636E-16	1.958414E-18
6.341527E+03	1.240028E-16	1.999893E-18
6.351482E+03	1.257779E-16	2.047441E-18
6.361437E+03	1.275918E-16	2.100258E-18
6.371392E+03	1.294415E-16	2.157498E-18
6.381348E+03	1.313237E-16	2.218391E-18
6.391303E+03	1.332349E-16	2.282260E-18
6.401258E+03	1.351715E-16	2.348524E-18
6.411214E+03	1.371296E-16	2.416707E-18
6.421169E+03	1.390984E-16	2.486317E-18
6.431124E+03	1.410876E-16	2.557339E-18
6.441080E+03	1.430787E-16	2.629365E-18
6.451035E+03	1.450816E-16	2.702616E-18
6.460990E+03	1.470771E-16	2.776888E-18
6.470945E+03	1.490753E-16	2.852627E-18
6.480901E+03	1.510564E-16	2.929831E-18
6.490856E+03	1.530228E-16	3.009015E-18
6.500811E+03	1.549776E-16	3.090817E-18
6.510767E+03	1.569007E-16	3.175505E-18
6.520722E+03	1.587958E-16	3.263896E-18
6.530677E+03	1.606589E-16	3.356729E-18
6.540633E+03	1.624867E-16	3.454803E-18
6.550588E+03	1.642759E-16	3.558960E-18
6.560543E+03	1.660240E-16	3.670071E-18
6.570498E+03	1.677288E-16	3.789010E-18
6.580454E+03	1.693888E-16	3.916641E-18
6.590409E+03	1.710029E-16	4.053523E-18
6.600364E+03	1.725704E-16	4.199405E-18
6.610320E+03	1.740910E-16	4.353839E-18
6.620275E+03	1.755644E-16	4.516309E-18
6.630230E+03	1.769903E-16	4.686266E-18
6.640186E+03	1.783686E-16	4.863124E-18
6.650141E+03	1.796994E-16	5.046291E-18
6.660096E+03	1.809827E-16	5.235163E-18
6.670051E+03	1.822187E-16	5.429134E-18
6.680007E+03	1.834076E-16	5.627615E-18
6.689962E+03	1.845403E-16	5.829720E-18
6.699917E+03	1.856359E-16	6.035475E-18
6.709873E+03	1.866857E-16	6.244041E-18
6.719828E+03	1.876900E-16	6.454888E-18
6.729783E+03	1.886494E-16	6.667510E-18
6.739739E+03	1.895645E-16	6.881412E-18
6.749694E+03	1.904359E-16	7.096129E-18
6.759649E+03	1.912642E-16	7.311214E-18
6.769604E+03	1.920403E-16	7.525845E-18
6.779560E+03	1.927844E-16	7.740380E-18
6.789515E+03	1.934878E-16	7.954055E-18
6.799470E+03	1.941508E-16	8.166495E-18
6.809426E+03	1.947743E-16	8.377341E-18
6.819381E+03	1.953591E-16	8.586259E-18
6.829336E+03	1.959058E-16	8.792922E-18
6.839292E+03	1.964150E-16	8.997022E-18
6.849247E+03	1.968876E-16	9.198260E-18
6.859202E+03	1.973242E-16	9.396364E-18
6.869157E+03	1.977151E-16	9.590558E-18
6.879113E+03	1.980817E-16	9.781582E-18
6.889068E+03	1.984143E-16	9.968702E-18
6.899023E+03	1.987133E-16	1.015168E-17
6.908979E+03	1.989795E-16	1.033029E-17
6.918934E+03	1.992133E-16	1.050433E-17
6.928889E+03	1.994155E-16	1.067360E-17
6.938845E+03	1.995863E-16	1.083790E-17
6.948800E+03	1.997263E-16	1.099705E-17
6.958755E+03	1.998360E-16	1.115086E-17
6.968710E+03	1.999158E-16	1.129918E-17
6.978666E+03	1.999661E-16	1.144184E-17
6.988621E+03	1.999872E-16	1.157870E-17
6.998576E+03	1.999691E-16	1.170898E-17
7.008532E+03	1.999333E-16	1.183380E-17
7.018487E+03	1.998693E-16	1.195239E-17
7.028442E+03	1.997776E-16	1.206465E-17
7.038398E+03	1.996586E-16	1.217046E-17
7.048353E+03	1.995124E-16	1.226972E-17
7.058308E+03	1.993290E-16	1.236167E-17
7.068263E+03	1.991296E-16	1.244751E-17
7.078219E+03	1.989040E-16	1.252653E-17
7.088174E+03	1.986420E-16	1.259797E-17
7.098129E+03	1.983650E-16	1.266311E-17
7.108085E+03	1.980627E-16	1.272120E-17
7.118040E+03	1.977250E-16	1.277153E-17
7.127995E+03	1.973732E-16	1.281540E-17
7.137951E+03	1.969866E-16	1.285141E-17
7.147906E+03	1.965866E-16	1.288089E-17
7.157861E+03	1.961526E-16	1.290246E-17
7.167817E+03	1.956955E-16	1.291679E-17
7.177772E+03	1.952262E-16	1.292456E-17
7.187727E+03	1.947242E-16	1.292439E-17
7.197682E+03	1.942005E-16	1.291698E-17
7.207638E+03	1.936555E-16	1.290236E-17
7.217593E+03	1.930897E-16	1.288055E-17
7.227548E+03	1.925038E-16	1.285158E-17
7.237504E+03	1.918981E-16	1.281548E-17
7.247459E+03	1.912632E-16	1.277164E-17
7.257414E+03	1.906201E-16	1.272148E-17
7.267370E+03	1.899490E-16	1.266368E-17
7.277325E+03	1.892710E-16	1.259969E-17
7.287280E+03	1.885663E-16	1.252822E-17
7.297235E+03	1.878561E-16	1.245071E-17
7.307191E+03	1.871209E-16	1.236590E-17
7.317146E+03	1.863713E-16	1.227456E-17
7.327101E+03	1.856082E-16	1.217679E-17
7.337057E+03	1.848224E-16	1.207204E-17
7.347012E+03	1.840347E-16	1.196172E-17
7.356967E+03	1.832359E-16	1.184531E-17
7.366923E+03	1.824167E-16	1.172227E-17
7.376878E+03	1.815879E-16	1.159337E-17
7.386833E+03	1.807603E-16	1.145937E-17
7.396788E+03	1.799149E-16	1.131913E-17
7.406744E+03	1.790524E-16	1.117279E-17
7.416699E+03	1.781933E-16	1.102172E-17
7.426654E+03	1.773285E-16	1.086544E-17
7.436610E+03	1.764491E-16	1.070349E-17
7.446565E+03	1.755751E-16	1.053717E-17
7.456520E+03	1.746880E-16	1.036548E-17
7.466476E+03	1.737982E-16	1.018912E-17
7.476431E+03	1.728966E-16	1.000768E-17
7.486386E+03	1.720030E-16	9.822413E-18
7.496341E+03	1.710990E-16	9.632368E-18
7.506297E+03	1.702041E-16	9.438755E-18
7.516252E+03	1.693000E-16	9.240664E-18
7.526207E+03	1.683965E-16	9.038770E-18
7.536163E+03	1.674849E-16	8.832729E-18
7.546118E+03	1.665841E-16	8.623679E-18
7.556073E+03	1.656761E-16	8.410808E-18
7.566029E+03	1.647704E-16	8.194764E-18
7.575984E+03	1.638673E-16	7.975710E-18
7.585939E+03	1.629671E-16	7.753820E-18
7.595894E+03	1.620700E-16	7.529276E-18
7.605850E+03	1.611673E-16	7.301865E-18
7.615805E+03	1.602680E-16	7.072223E-18
7.625760E+03	1.593724E-16	6.840580E-18
7.635716E+03	1.584807E-16	6.607187E-18
7.645671E+03	1.575837E-16	6.371955E-18
7.655626E+03	1.566907E-16	6.135576E-18
7.665582E+03	1.558016E-16	5.898401E-18
7.675537E+03	1.549163E-16	5.660819E-18
7.685492E+03	1.540348E-16	5.423288E-18
7.695447E+03	1.531484E-16	5.186042E-18
7.705403E+03	1.522656E-16	4.950016E-18
7.715358E+03	1.513865E-16	4.715940E-18
7.725313E+03	1.505108E-16	4.484679E-18
