#wls	flux	fluxerr
1.592848E+03	3.827257E-18	1.959062E-18
1.632669E+03	4.008290E-18	2.036836E-18
1.672491E+03	4.176069E-18	2.106325E-18
1.712312E+03	4.327616E-18	2.166154E-18
1.752133E+03	4.459853E-18	2.214950E-18
1.791954E+03	4.563495E-18	2.248337E-18
1.831775E+03	4.630248E-18	2.262580E-18
1.871597E+03	4.647450E-18	2.251973E-18
1.911418E+03	4.606111E-18	2.212800E-18
1.951239E+03	4.500296E-18	2.142968E-18
1.991060E+03	4.335051E-18	2.045695E-18
2.030881E+03	4.136474E-18	1.933976E-18
2.070703E+03	3.955374E-18	1.831816E-18
2.110524E+03	3.856212E-18	1.768581E-18
2.150345E+03	3.897985E-18	1.769975E-18
2.190166E+03	4.111049E-18	1.847702E-18
2.229987E+03	4.490779E-18	1.997284E-18
2.269809E+03	5.005057E-18	2.202158E-18
2.309630E+03	5.612060E-18	2.442092E-18
2.349451E+03	6.272999E-18	2.698921E-18
2.389272E+03	6.956135E-18	2.958209E-18
2.429093E+03	7.644676E-18	3.212421E-18
2.468915E+03	8.327552E-18	3.456728E-18
2.508736E+03	9.000610E-18	3.689364E-18
2.548557E+03	9.663209E-18	3.910074E-18
2.588378E+03	1.031813E-17	4.119987E-18
2.628199E+03	1.096770E-17	4.319995E-18
2.668021E+03	1.161281E-17	4.510383E-18
2.707842E+03	1.225758E-17	4.692666E-18
2.747663E+03	1.290447E-17	4.867627E-18
2.787484E+03	1.355574E-17	5.035921E-18
2.827305E+03	1.421141E-17	5.197346E-18
2.867127E+03	1.487739E-17	5.353800E-18
2.906948E+03	1.555351E-17	5.504898E-18
2.946769E+03	1.623927E-17	5.650132E-18
2.986590E+03	1.694304E-17	5.792048E-18
2.996546E+03	1.712082E-17	5.826616E-18
3.006501E+03	1.729913E-17	5.860744E-18
3.016456E+03	1.747799E-17	5.894431E-18
3.026411E+03	1.766014E-17	5.928589E-18
3.036367E+03	1.784456E-17	5.962861E-18
3.046322E+03	1.803249E-17	5.997645E-18
3.056277E+03	1.822436E-17	6.033069E-18
3.066233E+03	1.842222E-17	6.069785E-18
3.076188E+03	1.862327E-17	6.106845E-18
3.086143E+03	1.882718E-17	6.144119E-18
3.096099E+03	1.903361E-17	6.181488E-18
3.106054E+03	1.924229E-17	6.218842E-18
3.116009E+03	1.945547E-17	6.256899E-18
3.125964E+03	1.967042E-17	6.294757E-18
3.135920E+03	1.988692E-17	6.332334E-18
3.145875E+03	2.010476E-17	6.369556E-18
3.155830E+03	2.032376E-17	6.406357E-18
3.165786E+03	2.054641E-17	6.443507E-18
3.175741E+03	2.076997E-17	6.480131E-18
3.185696E+03	2.099430E-17	6.516180E-18
3.195652E+03	2.121929E-17	6.551616E-18
3.205607E+03	2.144758E-17	6.587238E-18
3.215562E+03	2.167641E-17	6.622185E-18
3.225517E+03	2.190570E-17	6.656432E-18
3.235473E+03	2.213541E-17	6.689956E-18
3.245428E+03	2.236829E-17	6.723584E-18
3.255383E+03	2.259874E-17	6.755620E-18
3.265339E+03	2.283236E-17	6.787740E-18
3.275294E+03	2.306635E-17	6.819093E-18
3.285249E+03	2.330357E-17	6.850523E-18
3.295205E+03	2.353832E-17	6.880338E-18
3.305160E+03	2.377637E-17	6.910231E-18
3.315115E+03	2.401489E-17	6.939360E-18
3.325070E+03	2.425392E-17	6.967731E-18
3.335026E+03	2.449646E-17	6.996198E-18
3.344981E+03	2.473963E-17	7.023924E-18
3.354936E+03	2.498349E-17	7.050918E-18
3.364892E+03	2.522810E-17	7.077190E-18
3.374847E+03	2.547354E-17	7.102754E-18
3.384802E+03	2.572292E-17	7.128472E-18
3.394758E+03	2.597023E-17	7.152660E-18
3.404713E+03	2.622478E-17	7.177878E-18
3.414668E+03	2.647743E-17	7.201595E-18
3.424623E+03	2.673134E-17	7.224676E-18
3.434579E+03	2.698975E-17	7.247983E-18
3.444534E+03	2.724965E-17	7.270684E-18
3.454489E+03	2.751114E-17	7.292794E-18
3.464445E+03	2.777430E-17	7.314330E-18
3.474400E+03	2.804249E-17	7.336151E-18
3.484355E+03	2.831260E-17	7.357427E-18
3.494311E+03	2.858475E-17	7.378173E-18
3.504266E+03	2.885905E-17	7.398404E-18
3.514221E+03	2.913560E-17	7.418134E-18
3.524176E+03	2.941785E-17	7.438218E-18
3.534132E+03	2.970262E-17	7.457826E-18
3.544087E+03	2.999002E-17	7.476970E-18
3.554042E+03	3.028018E-17	7.495666E-18
3.563998E+03	3.057321E-17	7.513922E-18
3.573953E+03	3.087265E-17	7.532585E-18
3.583908E+03	3.117523E-17	7.550828E-18
3.593864E+03	3.148108E-17	7.568661E-18
3.603819E+03	3.179031E-17	7.586092E-18
3.613774E+03	3.210305E-17	7.603130E-18
3.623729E+03	3.242295E-17	7.620609E-18
3.633685E+03	3.274663E-17	7.637706E-18
3.643640E+03	3.307423E-17	7.654427E-18
3.653595E+03	3.340587E-17	7.670774E-18
3.663551E+03	3.374166E-17	7.686752E-18
3.673506E+03	3.408537E-17	7.703185E-18
3.683461E+03	3.443354E-17	7.719253E-18
3.693417E+03	3.478629E-17	7.734957E-18
3.703372E+03	3.514371E-17	7.750290E-18
3.713327E+03	3.550596E-17	7.765259E-18
3.723282E+03	3.587319E-17	7.779864E-18
3.733238E+03	3.624926E-17	7.794911E-18
3.743193E+03	3.663055E-17	7.809575E-18
3.753148E+03	3.701722E-17	7.823862E-18
3.763104E+03	3.740940E-17	7.837763E-18
3.773059E+03	3.780718E-17	7.851267E-18
3.783014E+03	3.821070E-17	7.864370E-18
3.792970E+03	3.862406E-17	7.877873E-18
3.802925E+03	3.903947E-17	7.890149E-18
3.812880E+03	3.946503E-17	7.902804E-18
3.822835E+03	3.989686E-17	7.915010E-18
3.832791E+03	4.033509E-17	7.926759E-18
3.842746E+03	4.077991E-17	7.938048E-18
3.852701E+03	4.123548E-17	7.949640E-18
3.862657E+03	4.169376E-17	7.959942E-18
3.872612E+03	4.216313E-17	7.970522E-18
3.882567E+03	4.263542E-17	7.979786E-18
3.892523E+03	4.311905E-17	7.989277E-18
3.902478E+03	4.361007E-17	7.998205E-18
3.912433E+03	4.410853E-17	8.006539E-18
3.922388E+03	4.461461E-17	8.014269E-18
3.932344E+03	4.512833E-17	8.021356E-18
3.942299E+03	4.564992E-17	8.027794E-18
3.952254E+03	4.618382E-17	8.034315E-18
3.962210E+03	4.672144E-17	8.039368E-18
3.972165E+03	4.726717E-17	8.043681E-18
3.982120E+03	4.782572E-17	8.048004E-18
3.992076E+03	4.839270E-17	8.051531E-18
4.002031E+03	4.896366E-17	8.053485E-18
4.011986E+03	4.954786E-17	8.055352E-18
4.021941E+03	5.014081E-17	8.056335E-18
4.031897E+03	5.074259E-17	8.056400E-18
4.041852E+03	5.135339E-17	8.055527E-18
4.051807E+03	5.196839E-17	8.052924E-18
4.061763E+03	5.259732E-17	8.050058E-18
4.071718E+03	5.323544E-17	8.046136E-18
4.081673E+03	5.388288E-17	8.041130E-18
4.091629E+03	5.453972E-17	8.035002E-18
4.101584E+03	5.520596E-17	8.027704E-18
4.111539E+03	5.588173E-17	8.019205E-18
4.121494E+03	5.656706E-17	8.009462E-18
4.131450E+03	5.726202E-17	7.998437E-18
4.141405E+03	5.796662E-17	7.986081E-18
4.151360E+03	5.868091E-17	7.972357E-18
4.161316E+03	5.940493E-17	7.957220E-18
4.171271E+03	6.013871E-17	7.940629E-18
4.181226E+03	6.088222E-17	7.922534E-18
4.191182E+03	6.163549E-17	7.902892E-18
4.201137E+03	6.239848E-17	7.881657E-18
4.211092E+03	6.316574E-17	7.858105E-18
4.221047E+03	6.394816E-17	7.833559E-18
4.231003E+03	6.474019E-17	7.807279E-18
4.240958E+03	6.553623E-17	7.778559E-18
4.250913E+03	6.634736E-17	7.748689E-18
4.260869E+03	6.716222E-17	7.716292E-18
4.270824E+03	6.799216E-17	7.682651E-18
4.280779E+03	6.882549E-17	7.646400E-18
4.290735E+03	6.966785E-17	7.608159E-18
4.300690E+03	7.051910E-17	7.567883E-18
4.310645E+03	7.137905E-17	7.525529E-18
4.320601E+03	7.224760E-17	7.481062E-18
4.330556E+03	7.312447E-17	7.434433E-18
4.340511E+03	7.400339E-17	7.385001E-18
4.350466E+03	7.489632E-17	7.333960E-18
4.360422E+03	7.579069E-17	7.280055E-18
4.370377E+03	7.669233E-17	7.223866E-18
4.380332E+03	7.760103E-17	7.165374E-18
4.390288E+03	7.851640E-17	7.104546E-18
4.400243E+03	7.943821E-17	7.041370E-18
4.410198E+03	8.035949E-17	6.975257E-18
4.420154E+03	8.129290E-17	6.907334E-18
4.430109E+03	8.222496E-17	6.836473E-18
4.440064E+03	8.316180E-17	6.763239E-18
4.450019E+03	8.410290E-17	6.687630E-18
4.459975E+03	8.504786E-17	6.609660E-18
4.469930E+03	8.598937E-17	6.528831E-18
4.479885E+03	8.694051E-17	6.446209E-18
4.489841E+03	8.788710E-17	6.360805E-18
4.499796E+03	8.883533E-17	6.273172E-18
4.509751E+03	8.978465E-17	6.183366E-18
4.519707E+03	9.072745E-17	6.090978E-18
4.529662E+03	9.167001E-17	5.996571E-18
4.539617E+03	9.261182E-17	5.900239E-18
4.549572E+03	9.355213E-17	5.802079E-18
4.559528E+03	9.449036E-17	5.702211E-18
4.569483E+03	9.541838E-17	5.600330E-18
4.579438E+03	9.634280E-17	5.497041E-18
4.589394E+03	9.726291E-17	5.392510E-18
4.599349E+03	9.817799E-17	5.286927E-18
4.609304E+03	9.907973E-17	5.180108E-18
4.619260E+03	9.998250E-17	5.073089E-18
4.629215E+03	1.008703E-16	4.965347E-18
4.639170E+03	1.017423E-16	4.857194E-18
4.649125E+03	1.026131E-16	4.749696E-18
4.659081E+03	1.034663E-16	4.642472E-18
4.669036E+03	1.043092E-16	4.536275E-18
4.678991E+03	1.051327E-16	4.431180E-18
4.688947E+03	1.059442E-16	4.327992E-18
4.698902E+03	1.067429E-16	4.227202E-18
4.708857E+03	1.075279E-16	4.129326E-18
4.718813E+03	1.082986E-16	4.034929E-18
4.728768E+03	1.090462E-16	3.944309E-18
4.738723E+03	1.097780E-16	3.858395E-18
4.748678E+03	1.104853E-16	3.777553E-18
4.758634E+03	1.111752E-16	3.702731E-18
4.768589E+03	1.118475E-16	3.634594E-18
4.778544E+03	1.125016E-16	3.573797E-18
4.788500E+03	1.131286E-16	3.520711E-18
4.798455E+03	1.137364E-16	3.476184E-18
4.808410E+03	1.143247E-16	3.440741E-18
4.818366E+03	1.148929E-16	3.414783E-18
4.828321E+03	1.154325E-16	3.398048E-18
4.838276E+03	1.159513E-16	3.390456E-18
4.848231E+03	1.164410E-16	3.391338E-18
4.858187E+03	1.169095E-16	3.400416E-18
4.868142E+03	1.173568E-16	3.417097E-18
4.878097E+03	1.177827E-16	3.440732E-18
4.888053E+03	1.181785E-16	3.470382E-18
4.898008E+03	1.185528E-16	3.505585E-18
4.907963E+03	1.188968E-16	3.545371E-18
4.917919E+03	1.192277E-16	3.589543E-18
4.927874E+03	1.195199E-16	3.636643E-18
4.937829E+03	1.197988E-16	3.686784E-18
4.947784E+03	1.200476E-16	3.738823E-18
4.957740E+03	1.202748E-16	3.792433E-18
4.967695E+03	1.204804E-16	3.847072E-18
4.977650E+03	1.206561E-16	3.901969E-18
4.987606E+03	1.208105E-16	3.956934E-18
4.997561E+03	1.209438E-16	4.011556E-18
5.007516E+03	1.210476E-16	4.065173E-18
5.017472E+03	1.211305E-16	4.117733E-18
5.027427E+03	1.211843E-16	4.168647E-18
5.037382E+03	1.212262E-16	4.218236E-18
5.047337E+03	1.212394E-16	4.265684E-18
5.057293E+03	1.212242E-16	4.310787E-18
5.067248E+03	1.211977E-16	4.353976E-18
5.077203E+03	1.211433E-16	4.394505E-18
5.087159E+03	1.210613E-16	4.432254E-18
5.097114E+03	1.209603E-16	4.467436E-18
5.107069E+03	1.208407E-16	4.499981E-18
5.117025E+03	1.207028E-16	4.529845E-18
5.126980E+03	1.205385E-16	4.556680E-18
5.136935E+03	1.203565E-16	4.580796E-18
5.146890E+03	1.201570E-16	4.602192E-18
5.156846E+03	1.199322E-16	4.620579E-18
5.166801E+03	1.196907E-16	4.636313E-18
5.176756E+03	1.194328E-16	4.649444E-18
5.186712E+03	1.191505E-16	4.659722E-18
5.196667E+03	1.188526E-16	4.667546E-18
5.206622E+03	1.185393E-16	4.673005E-18
5.216578E+03	1.182028E-16	4.675886E-18
5.226533E+03	1.178518E-16	4.676620E-18
5.236488E+03	1.174864E-16	4.675331E-18
5.246443E+03	1.171071E-16	4.672152E-18
5.256399E+03	1.167063E-16	4.666904E-18
5.266354E+03	1.162843E-16	4.659738E-18
5.276309E+03	1.158575E-16	4.651444E-18
5.286265E+03	1.154104E-16	4.641552E-18
5.296220E+03	1.149512E-16	4.630543E-18
5.306175E+03	1.144726E-16	4.618277E-18
5.316131E+03	1.139906E-16	4.605557E-18
5.326086E+03	1.134899E-16	4.591933E-18
5.336041E+03	1.129710E-16	4.577588E-18
5.345996E+03	1.124497E-16	4.563323E-18
5.355952E+03	1.119111E-16	4.548702E-18
5.365907E+03	1.113556E-16	4.533900E-18
5.375862E+03	1.107989E-16	4.519714E-18
5.385818E+03	1.102261E-16	4.505697E-18
5.395773E+03	1.096452E-16	4.492324E-18
5.405728E+03	1.090492E-16	4.479453E-18
5.415684E+03	1.084461E-16	4.467540E-18
5.425639E+03	1.078361E-16	4.456712E-18
5.435594E+03	1.072198E-16	4.446930E-18
5.445549E+03	1.065978E-16	4.438063E-18
5.455505E+03	1.059641E-16	4.429694E-18
5.465460E+03	1.053197E-16	4.421695E-18
5.475415E+03	1.046797E-16	4.414542E-18
5.485371E+03	1.040309E-16	4.407514E-18
5.495326E+03	1.033814E-16	4.400792E-18
5.505281E+03	1.027319E-16	4.394261E-18
5.515237E+03	1.020835E-16	4.387809E-18
5.525192E+03	1.014302E-16	4.381035E-18
5.535147E+03	1.007796E-16	4.374131E-18
5.545102E+03	1.001259E-16	4.366708E-18
5.555058E+03	9.948354E-17	4.359269E-18
5.565013E+03	9.883974E-17	4.351138E-18
5.574968E+03	9.820206E-17	4.342532E-18
5.584924E+03	9.757129E-17	4.333384E-18
5.594879E+03	9.694163E-17	4.323335E-18
5.604834E+03	9.632040E-17	4.312618E-18
5.614790E+03	9.570825E-17	4.301180E-18
5.624745E+03	9.510589E-17	4.288972E-18
5.634700E+03	9.450772E-17	4.275670E-18
5.644655E+03	9.392068E-17	4.261521E-18
5.654611E+03	9.334541E-17	4.246494E-18
5.664566E+03	9.278257E-17	4.230562E-18
5.674521E+03	9.223268E-17	4.213702E-18
5.684477E+03	9.169024E-17	4.195615E-18
5.694432E+03	9.116193E-17	4.176566E-18
5.704387E+03	9.064830E-17	4.156543E-18
5.714343E+03	9.014388E-17	4.135263E-18
5.724298E+03	8.966125E-17	4.113274E-18
5.734253E+03	8.918883E-17	4.090019E-18
5.744209E+03	8.873317E-17	4.065774E-18
5.754164E+03	8.829473E-17	4.040541E-18
5.764119E+03	8.786805E-17	4.014051E-18
5.774074E+03	8.746538E-17	3.986848E-18
5.784030E+03	8.707543E-17	3.958402E-18
5.793985E+03	8.670449E-17	3.928988E-18
5.803940E+03	8.634720E-17	3.898352E-18
5.813896E+03	8.601555E-17	3.867025E-18
5.823851E+03	8.569840E-17	3.834497E-18
5.833806E+03	8.540192E-17	3.801037E-18
5.843762E+03	8.512657E-17	3.766655E-18
5.853717E+03	8.487263E-17	3.731359E-18
5.863672E+03	8.464060E-17	3.695161E-18
5.873627E+03	8.442521E-17	3.657826E-18
5.883583E+03	8.423810E-17	3.619853E-18
5.893538E+03	8.406846E-17	3.580769E-18
5.903493E+03	8.392230E-17	3.540825E-18
5.913449E+03	8.379441E-17	3.499800E-18
5.923404E+03	8.369646E-17	3.458176E-18
5.933359E+03	8.361762E-17	3.415496E-18
5.943315E+03	8.356952E-17	3.372233E-18
5.953270E+03	8.354147E-17	3.327946E-18
5.963225E+03	8.353941E-17	3.282875E-18
5.973180E+03	8.355826E-17	3.236818E-18
5.983136E+03	8.360968E-17	3.190228E-18
5.993091E+03	8.368852E-17	3.142901E-18
6.003046E+03	8.378972E-17	3.094653E-18
6.013002E+03	8.391938E-17	3.045720E-18
6.022957E+03	8.407796E-17	2.996125E-18
6.032912E+03	8.426605E-17	2.945902E-18
6.042868E+03	8.448427E-17	2.895088E-18
6.052823E+03	8.473311E-17	2.843722E-18
6.062778E+03	8.500757E-17	2.791670E-18
6.072733E+03	8.531388E-17	2.739182E-18
6.082689E+03	8.565844E-17	2.686507E-18
6.092644E+03	8.603044E-17	2.633360E-18
6.102599E+03	8.643639E-17	2.580022E-18
6.112555E+03	8.687691E-17	2.526602E-18
6.122510E+03	8.735282E-17	2.473228E-18
6.132465E+03	8.785899E-17	2.419891E-18
6.142421E+03	8.840798E-17	2.367094E-18
6.152376E+03	8.898878E-17	2.314721E-18
6.162331E+03	8.960819E-17	2.263172E-18
6.172286E+03	9.027321E-17	2.212871E-18
6.182242E+03	9.097260E-17	2.163830E-18
6.192197E+03	9.171338E-17	2.116561E-18
6.202152E+03	9.249655E-17	2.071473E-18
6.212108E+03	9.332313E-17	2.029024E-18
6.222063E+03	9.418777E-17	1.989592E-18
6.232018E+03	9.510410E-17	1.954007E-18
6.241974E+03	9.605986E-17	1.922601E-18
6.251929E+03	9.706834E-17	1.896271E-18
6.261884E+03	9.811652E-17	1.875415E-18
6.271839E+03	9.921050E-17	1.860820E-18
6.281795E+03	1.003562E-16	1.853214E-18
6.291750E+03	1.015388E-16	1.852486E-18
6.301705E+03	1.027634E-16	1.858550E-18
6.311661E+03	1.040284E-16	1.871117E-18
6.321616E+03	1.053249E-16	1.889719E-18
6.331571E+03	1.066652E-16	1.914224E-18
6.341527E+03	1.080403E-16	1.944094E-18
6.351482E+03	1.094408E-16	1.978772E-18
6.361437E+03	1.108794E-16	2.018108E-18
6.371392E+03	1.123388E-16	2.061427E-18
6.381348E+03	1.138317E-16	2.108633E-18
6.391303E+03	1.153404E-16	2.159104E-18
6.401258E+03	1.168778E-16	2.212835E-18
6.411214E+03	1.184255E-16	2.269281E-18
6.421169E+03	1.199883E-16	2.328389E-18
6.431124E+03	1.215634E-16	2.390015E-18
6.441080E+03	1.231477E-16	2.454066E-18
6.451035E+03	1.247379E-16	2.520505E-18
6.460990E+03	1.263309E-16	2.589348E-18
6.470945E+03	1.279231E-16	2.660657E-18
6.480901E+03	1.295111E-16	2.734548E-18
6.490856E+03	1.310823E-16	2.810987E-18
6.500811E+03	1.326509E-16	2.890558E-18
6.510767E+03	1.342045E-16	2.973317E-18
6.520722E+03	1.357309E-16	3.059346E-18
6.530677E+03	1.372457E-16	3.149374E-18
6.540633E+03	1.387369E-16	3.243543E-18
6.550588E+03	1.401925E-16	3.341989E-18
6.560543E+03	1.416296E-16	3.445541E-18
6.570498E+03	1.430272E-16	3.554122E-18
6.580454E+03	1.443937E-16	3.668332E-18
6.590409E+03	1.457381E-16	3.788485E-18
6.600364E+03	1.470399E-16	3.913787E-18
6.610320E+03	1.483085E-16	4.044169E-18
6.620275E+03	1.495434E-16	4.179286E-18
6.630230E+03	1.507546E-16	4.319074E-18
6.640186E+03	1.519209E-16	4.462577E-18
6.650141E+03	1.530525E-16	4.609706E-18
6.660096E+03	1.541489E-16	4.760081E-18
6.670051E+03	1.552101E-16	4.913329E-18
6.680007E+03	1.562359E-16	5.069072E-18
6.689962E+03	1.572262E-16	5.226943E-18
6.699917E+03	1.581808E-16	5.386578E-18
6.709873E+03	1.590999E-16	5.547626E-18
6.719828E+03	1.599835E-16	5.709742E-18
6.729783E+03	1.608205E-16	5.872185E-18
6.739739E+03	1.616332E-16	6.035429E-18
6.749694E+03	1.624108E-16	6.198768E-18
6.759649E+03	1.631533E-16	6.361893E-18
6.769604E+03	1.638610E-16	6.524516E-18
6.779560E+03	1.645228E-16	6.685886E-18
6.789515E+03	1.651617E-16	6.846651E-18
6.799470E+03	1.657668E-16	7.006096E-18
6.809426E+03	1.663265E-16	7.163464E-18
6.819381E+03	1.668646E-16	7.319509E-18
6.829336E+03	1.673581E-16	7.472982E-18
6.839292E+03	1.678308E-16	7.624703E-18
6.849247E+03	1.682595E-16	7.773393E-18
6.859202E+03	1.686683E-16	7.919937E-18
6.869157E+03	1.690340E-16	8.063039E-18
6.879113E+03	1.693807E-16	8.203634E-18
6.889068E+03	1.696851E-16	8.340408E-18
6.899023E+03	1.699595E-16	8.473751E-18
6.908979E+03	1.702163E-16	8.604120E-18
6.918934E+03	1.704322E-16	8.730160E-18
6.928889E+03	1.706194E-16	8.852320E-18
6.938845E+03	1.707786E-16	8.970471E-18
6.948800E+03	1.709101E-16	9.084485E-18
6.958755E+03	1.710266E-16	9.194892E-18
6.968710E+03	1.711043E-16	9.300284E-18
6.978666E+03	1.711559E-16	9.401209E-18
6.988621E+03	1.711817E-16	9.497554E-18
6.998576E+03	1.711824E-16	9.589238E-18
7.008532E+03	1.711582E-16	9.676168E-18
7.018487E+03	1.711098E-16	9.758273E-18
7.028442E+03	1.710376E-16	9.835478E-18
7.038398E+03	1.709300E-16	9.907015E-18
7.048353E+03	1.708117E-16	9.974225E-18
7.058308E+03	1.706710E-16	1.003636E-17
7.068263E+03	1.705084E-16	1.009336E-17
7.078219E+03	1.703123E-16	1.014447E-17
7.088174E+03	1.701073E-16	1.019109E-17
7.098129E+03	1.698819E-16	1.023248E-17
7.108085E+03	1.696244E-16	1.026787E-17
7.118040E+03	1.693594E-16	1.029871E-17
7.127995E+03	1.690633E-16	1.032352E-17
7.137951E+03	1.687486E-16	1.034300E-17
7.147906E+03	1.684278E-16	1.035791E-17
7.157861E+03	1.680773E-16	1.036677E-17
7.167817E+03	1.677097E-16	1.037031E-17
7.177772E+03	1.673254E-16	1.036855E-17
7.187727E+03	1.669248E-16	1.036150E-17
7.197682E+03	1.665204E-16	1.034992E-17
7.207638E+03	1.660769E-16	1.033161E-17
7.217593E+03	1.656304E-16	1.030882E-17
7.227548E+03	1.651696E-16	1.028084E-17
7.237504E+03	1.646950E-16	1.024771E-17
7.247459E+03	1.642068E-16	1.020945E-17
7.257414E+03	1.637058E-16	1.016612E-17
7.267370E+03	1.631805E-16	1.011703E-17
7.277325E+03	1.626550E-16	1.006369E-17
7.287280E+03	1.621062E-16	1.000470E-17
7.297235E+03	1.615464E-16	9.940845E-18
7.307191E+03	1.609877E-16	9.872896E-18
7.317146E+03	1.604071E-16	9.799485E-18
7.327101E+03	1.598170E-16	9.721398E-18
7.337057E+03	1.592176E-16	9.638696E-18
7.347012E+03	1.586094E-16	9.551455E-18
7.356967E+03	1.579929E-16	9.459742E-18
7.366923E+03	1.573685E-16	9.363639E-18
7.376878E+03	1.567366E-16	9.263217E-18
7.386833E+03	1.560864E-16	9.157895E-18
7.396788E+03	1.554408E-16	9.049088E-18
7.406744E+03	1.547891E-16	8.936213E-18
7.416699E+03	1.541202E-16	8.818707E-18
7.426654E+03	1.534460E-16	8.697325E-18
7.436610E+03	1.527666E-16	8.572151E-18
7.446565E+03	1.520939E-16	8.443903E-18
7.456520E+03	1.514056E-16	8.311428E-18
7.466476E+03	1.507134E-16	8.175454E-18
7.476431E+03	1.500066E-16	8.035492E-18
7.486386E+03	1.493076E-16	7.892837E-18
7.496341E+03	1.486055E-16	7.746993E-18
7.506297E+03	1.478898E-16	7.597510E-18
7.516252E+03	1.471826E-16	7.445639E-18
7.526207E+03	1.464625E-16	7.290390E-18
7.536163E+03	1.457405E-16	7.132444E-18
7.546118E+03	1.450170E-16	6.971937E-18
7.556073E+03	1.442920E-16	6.809002E-18
7.566029E+03	1.435659E-16	6.643786E-18
7.575984E+03	1.428388E-16	6.476445E-18
7.585939E+03	1.421109E-16	6.307139E-18
7.595894E+03	1.413719E-16	6.135593E-18
7.605850E+03	1.406325E-16	5.962477E-18
7.615805E+03	1.399033E-16	5.788429E-18
7.625760E+03	1.391634E-16	5.612799E-18
7.635716E+03	1.384236E-16	5.436278E-18
7.645671E+03	1.376840E-16	5.259146E-18
7.655626E+03	1.369444E-16	5.081704E-18
7.665582E+03	1.361950E-16	4.903926E-18
7.675537E+03	1.354562E-16	4.726949E-18
7.685492E+03	1.347077E-16	4.550485E-18
7.695447E+03	1.339698E-16	4.375729E-18
7.705403E+03	1.332224E-16	4.202577E-18
7.715358E+03	1.324757E-16	4.032022E-18
7.725313E+03	1.317296E-16	3.864820E-18
