#wls	flux	fluxerr
1.600000E+03	1.248727E-15	1.964330E-15
1.640000E+03	1.271512E-15	1.992880E-15
1.680000E+03	1.295774E-15	2.022827E-15
1.720000E+03	1.320752E-15	2.052872E-15
1.760000E+03	1.347329E-15	2.084269E-15
1.800000E+03	1.374741E-15	2.115700E-15
1.840000E+03	1.403892E-15	2.148412E-15
1.880000E+03	1.434867E-15	2.182359E-15
1.920000E+03	1.467755E-15	2.217483E-15
1.960000E+03	1.501791E-15	2.252416E-15
2.000000E+03	1.537927E-15	2.288367E-15
2.040000E+03	1.576276E-15	2.325234E-15
2.080000E+03	1.616065E-15	2.361590E-15
2.120000E+03	1.658292E-15	2.398590E-15
2.160000E+03	1.704003E-15	2.437368E-15
2.200000E+03	1.750601E-15	2.473803E-15
2.240000E+03	1.800970E-15	2.511570E-15
2.280000E+03	1.853403E-15	2.547779E-15
2.320000E+03	1.909942E-15	2.584705E-15
2.360000E+03	1.968840E-15	2.619363E-15
2.400000E+03	2.031207E-15	2.652608E-15
2.440000E+03	2.097202E-15	2.683927E-15
2.480000E+03	2.165961E-15	2.711446E-15
2.520000E+03	2.239653E-15	2.737051E-15
2.560000E+03	2.317401E-15	2.758680E-15
2.600000E+03	2.399310E-15	2.775454E-15
2.640000E+03	2.486543E-15	2.787612E-15
2.680000E+03	2.579184E-15	2.793993E-15
2.720000E+03	2.677259E-15	2.793307E-15
2.760000E+03	2.781877E-15	2.785293E-15
2.800000E+03	2.892964E-15	2.768328E-15
2.840000E+03	3.012729E-15	2.742857E-15
2.880000E+03	3.140977E-15	2.706829E-15
2.920000E+03	3.278591E-15	2.659133E-15
2.960000E+03	3.425087E-15	2.597516E-15
3.000000E+03	3.584912E-15	2.523468E-15
3.010000E+03	3.625507E-15	2.501763E-15
3.020000E+03	3.668651E-15	2.480318E-15
3.030000E+03	3.711751E-15	2.457317E-15
3.040000E+03	3.756089E-15	2.433601E-15
3.050000E+03	3.800345E-15	2.408294E-15
3.060000E+03	3.845809E-15	2.382211E-15
3.070000E+03	3.892470E-15	2.355312E-15
3.080000E+03	3.940314E-15	2.327559E-15
3.090000E+03	3.989330E-15	2.298916E-15
3.100000E+03	4.038175E-15	2.268606E-15
3.110000E+03	4.089490E-15	2.238115E-15
3.120000E+03	4.140600E-15	2.205944E-15
3.130000E+03	4.194160E-15	2.173522E-15
3.140000E+03	4.247481E-15	2.139432E-15
3.150000E+03	4.301888E-15	2.104385E-15
3.160000E+03	4.358718E-15	2.069026E-15
3.170000E+03	4.415264E-15	2.032070E-15
3.180000E+03	4.474220E-15	1.994802E-15
3.190000E+03	4.534228E-15	1.956611E-15
3.200000E+03	4.595283E-15	1.917538E-15
3.210000E+03	4.658745E-15	1.878181E-15
3.220000E+03	4.723255E-15	1.838016E-15
3.230000E+03	4.790183E-15	1.797625E-15
3.240000E+03	4.856806E-15	1.756046E-15
3.250000E+03	4.927237E-15	1.714855E-15
3.260000E+03	4.998761E-15	1.673127E-15
3.270000E+03	5.072769E-15	1.631414E-15
3.280000E+03	5.147917E-15	1.589356E-15
3.290000E+03	5.226986E-15	1.547892E-15
3.300000E+03	5.307264E-15	1.506264E-15
3.310000E+03	5.390171E-15	1.464973E-15
3.320000E+03	5.475756E-15	1.424092E-15
3.330000E+03	5.565453E-15	1.384028E-15
3.340000E+03	5.656562E-15	1.344132E-15
3.350000E+03	5.751909E-15	1.305111E-15
3.360000E+03	5.851564E-15	1.266932E-15
3.370000E+03	5.952836E-15	1.228962E-15
3.380000E+03	6.059952E-15	1.192004E-15
3.390000E+03	6.170228E-15	1.155369E-15
3.400000E+03	6.285134E-15	1.119167E-15
3.410000E+03	6.403372E-15	1.082945E-15
3.420000E+03	6.527809E-15	1.046924E-15
3.430000E+03	6.657149E-15	1.010548E-15
3.440000E+03	6.791474E-15	9.734695E-16
3.450000E+03	6.932245E-15	9.354862E-16
3.460000E+03	7.078105E-15	8.959617E-16
3.470000E+03	7.229035E-15	8.544395E-16
3.480000E+03	7.386329E-15	8.105940E-16
3.490000E+03	7.551166E-15	7.640399E-16
3.500000E+03	7.720343E-15	7.139561E-16
3.510000E+03	7.894626E-15	6.599958E-16
3.520000E+03	8.074487E-15	6.018239E-16
3.530000E+03	8.257217E-15	5.389873E-16
3.540000E+03	8.442491E-15	4.714584E-16
3.550000E+03	8.628095E-15	3.994963E-16
3.560000E+03	8.811317E-15	3.241847E-16
3.570000E+03	8.987585E-15	2.485139E-16
3.580000E+03	9.156174E-15	1.810475E-16
3.590000E+03	9.311995E-15	1.443361E-16
3.600000E+03	9.453232E-15	1.640854E-16
3.610000E+03	9.576733E-15	2.210140E-16
3.620000E+03	9.681704E-15	2.862952E-16
3.630000E+03	9.768783E-15	3.476266E-16
3.640000E+03	9.835685E-15	4.001508E-16
3.650000E+03	9.882301E-15	4.417892E-16
3.660000E+03	9.905360E-15	4.715714E-16
3.670000E+03	9.903547E-15	4.893785E-16
3.680000E+03	9.873777E-15	4.956210E-16
3.690000E+03	9.811626E-15	4.912025E-16
3.700000E+03	9.715268E-15	4.777044E-16
3.710000E+03	9.581421E-15	4.571416E-16
3.720000E+03	9.410279E-15	4.320369E-16
3.730000E+03	9.200575E-15	4.046945E-16
3.740000E+03	8.953149E-15	3.769097E-16
3.750000E+03	8.669248E-15	3.501076E-16
3.760000E+03	8.355880E-15	3.254724E-16
3.770000E+03	8.022871E-15	3.035314E-16
3.780000E+03	7.682368E-15	2.845830E-16
3.790000E+03	7.349557E-15	2.687978E-16
3.800000E+03	7.038879E-15	2.558994E-16
3.810000E+03	6.764473E-15	2.456728E-16
3.820000E+03	6.543081E-15	2.381509E-16
3.830000E+03	6.390209E-15	2.332273E-16
3.840000E+03	6.324580E-15	2.310966E-16
3.850000E+03	6.362921E-15	2.320739E-16
3.860000E+03	6.520824E-15	2.363768E-16
3.870000E+03	6.817973E-15	2.444829E-16
3.880000E+03	7.276059E-15	2.571165E-16
3.890000E+03	7.915837E-15	2.750455E-16
3.900000E+03	8.759965E-15	2.993879E-16
3.910000E+03	9.829581E-15	3.312725E-16
3.920000E+03	1.113076E-14	3.706937E-16
3.930000E+03	1.265462E-14	4.168508E-16
3.940000E+03	1.437361E-14	4.684143E-16
3.950000E+03	1.624865E-14	5.236529E-16
3.960000E+03	1.822791E-14	5.809158E-16
3.970000E+03	2.025524E-14	6.388974E-16
3.980000E+03	2.228364E-14	6.962115E-16
3.990000E+03	2.428256E-14	7.521466E-16
4.000000E+03	2.623249E-14	8.063798E-16
4.010000E+03	2.812629E-14	8.578128E-16
4.020000E+03	2.996108E-14	9.054098E-16
4.030000E+03	3.172888E-14	9.484880E-16
4.040000E+03	3.338935E-14	9.852008E-16
4.050000E+03	3.487693E-14	1.014197E-15
4.060000E+03	3.610670E-14	1.035128E-15
4.070000E+03	3.697379E-14	1.047323E-15
4.080000E+03	3.737881E-14	1.051288E-15
4.090000E+03	3.725742E-14	1.047685E-15
4.100000E+03	3.661078E-14	1.034998E-15
4.110000E+03	3.549359E-14	1.011981E-15
4.120000E+03	3.399823E-14	9.787975E-16
4.130000E+03	3.224530E-14	9.360013E-16
4.140000E+03	3.035595E-14	8.856729E-16
4.150000E+03	2.843933E-14	8.312351E-16
4.160000E+03	2.657977E-14	7.757288E-16
4.170000E+03	2.484033E-14	7.223222E-16
4.180000E+03	2.325554E-14	6.732784E-16
4.190000E+03	2.183812E-14	6.289511E-16
4.200000E+03	2.058877E-14	5.892467E-16
4.210000E+03	1.950891E-14	5.540787E-16
4.220000E+03	1.860207E-14	5.227385E-16
4.230000E+03	1.787638E-14	4.950006E-16
4.240000E+03	1.734603E-14	4.713910E-16
4.250000E+03	1.702893E-14	4.525903E-16
4.260000E+03	1.694656E-14	4.398889E-16
4.270000E+03	1.711049E-14	4.343055E-16
4.280000E+03	1.751079E-14	4.352826E-16
4.290000E+03	1.812820E-14	4.420224E-16
4.300000E+03	1.894327E-14	4.536074E-16
4.310000E+03	1.994294E-14	4.678768E-16
4.320000E+03	2.111441E-14	4.824380E-16
4.330000E+03	2.244582E-14	4.951024E-16
4.340000E+03	2.392086E-14	5.029847E-16
4.350000E+03	2.550762E-14	5.042400E-16
4.360000E+03	2.713132E-14	4.987018E-16
4.370000E+03	2.864479E-14	4.879436E-16
4.380000E+03	2.984457E-14	4.806974E-16
4.390000E+03	3.052270E-14	4.888087E-16
4.400000E+03	3.059345E-14	5.088838E-16
4.410000E+03	3.013390E-14	5.261172E-16
4.420000E+03	2.928769E-14	5.306100E-16
4.430000E+03	2.818983E-14	5.194636E-16
4.440000E+03	2.696867E-14	4.967542E-16
4.450000E+03	2.575724E-14	4.701162E-16
4.460000E+03	2.470816E-14	4.469373E-16
4.470000E+03	2.396477E-14	4.356294E-16
4.480000E+03	2.365145E-14	4.428880E-16
4.490000E+03	2.387262E-14	4.693213E-16
4.500000E+03	2.472790E-14	5.148901E-16
4.510000E+03	2.630377E-14	5.810190E-16
4.520000E+03	2.865123E-14	6.671915E-16
4.530000E+03	3.178800E-14	7.712319E-16
4.540000E+03	3.569207E-14	8.894736E-16
4.550000E+03	4.028746E-14	1.015325E-15
4.560000E+03	4.542273E-14	1.139951E-15
4.570000E+03	5.087899E-14	1.253816E-15
4.580000E+03	5.640695E-14	1.347924E-15
4.590000E+03	6.174649E-14	1.416972E-15
4.600000E+03	6.664513E-14	1.459954E-15
4.610000E+03	7.089786E-14	1.478336E-15
4.620000E+03	7.433550E-14	1.478330E-15
4.630000E+03	7.680041E-14	1.466783E-15
4.640000E+03	7.812647E-14	1.443216E-15
4.650000E+03	7.816445E-14	1.408740E-15
4.660000E+03	7.683317E-14	1.365242E-15
4.670000E+03	7.417565E-14	1.306697E-15
4.680000E+03	7.035096E-14	1.232254E-15
4.690000E+03	6.563360E-14	1.147343E-15
4.700000E+03	6.039917E-14	1.054532E-15
4.710000E+03	5.503497E-14	9.613617E-16
4.720000E+03	4.988279E-14	8.769600E-16
4.730000E+03	4.522341E-14	8.038990E-16
4.740000E+03	4.125427E-14	7.465489E-16
4.750000E+03	3.810241E-14	7.100066E-16
4.760000E+03	3.586263E-14	6.945231E-16
4.770000E+03	3.459787E-14	7.017843E-16
4.780000E+03	3.433494E-14	7.345413E-16
4.790000E+03	3.506215E-14	7.911166E-16
4.800000E+03	3.675915E-14	8.691934E-16
4.810000E+03	3.939710E-14	9.677016E-16
4.820000E+03	4.290535E-14	1.084158E-15
4.830000E+03	4.715719E-14	1.214660E-15
4.840000E+03	5.198530E-14	1.353041E-15
4.850000E+03	5.721821E-14	1.488509E-15
4.860000E+03	6.267053E-14	1.607479E-15
4.870000E+03	6.811982E-14	1.695979E-15
4.880000E+03	7.331435E-14	1.741664E-15
4.890000E+03	7.797090E-14	1.739812E-15
4.900000E+03	8.178338E-14	1.698366E-15
4.910000E+03	8.445020E-14	1.640713E-15
4.920000E+03	8.574789E-14	1.607253E-15
4.930000E+03	8.572901E-14	1.625929E-15
4.940000E+03	8.488319E-14	1.679638E-15
4.950000E+03	8.386808E-14	1.739666E-15
4.960000E+03	8.319783E-14	1.790754E-15
4.970000E+03	8.309637E-14	1.823372E-15
4.980000E+03	8.356662E-14	1.833533E-15
4.990000E+03	8.441332E-14	1.820206E-15
5.000000E+03	8.521958E-14	1.780237E-15
5.010000E+03	8.543269E-14	1.714459E-15
5.020000E+03	8.453651E-14	1.625936E-15
5.030000E+03	8.220899E-14	1.513105E-15
5.040000E+03	7.835811E-14	1.381781E-15
5.050000E+03	7.318076E-14	1.244373E-15
5.060000E+03	6.717469E-14	1.109924E-15
5.070000E+03	6.094418E-14	9.939017E-16
5.080000E+03	5.508047E-14	9.071457E-16
5.090000E+03	5.012691E-14	8.424845E-16
5.100000E+03	4.646229E-14	7.957437E-16
5.110000E+03	4.423501E-14	7.690139E-16
5.120000E+03	4.338866E-14	7.611118E-16
5.130000E+03	4.380227E-14	7.740878E-16
5.140000E+03	4.533416E-14	8.112445E-16
5.150000E+03	4.776489E-14	8.673516E-16
5.160000E+03	5.079664E-14	9.362313E-16
5.170000E+03	5.410574E-14	1.014469E-15
5.180000E+03	5.741483E-14	1.096081E-15
5.190000E+03	6.048616E-14	1.178481E-15
5.200000E+03	6.312932E-14	1.262099E-15
5.210000E+03	6.525538E-14	1.341459E-15
5.220000E+03	6.686468E-14	1.411785E-15
5.230000E+03	6.802419E-14	1.471281E-15
5.240000E+03	6.886511E-14	1.515112E-15
5.250000E+03	6.954995E-14	1.540607E-15
5.260000E+03	7.023345E-14	1.548914E-15
5.270000E+03	7.104159E-14	1.540928E-15
5.280000E+03	7.206052E-14	1.520539E-15
5.290000E+03	7.333238E-14	1.493639E-15
5.300000E+03	7.483023E-14	1.463276E-15
5.310000E+03	7.648537E-14	1.436153E-15
5.320000E+03	7.822814E-14	1.419243E-15
5.330000E+03	8.001746E-14	1.409789E-15
5.340000E+03	8.183160E-14	1.407559E-15
5.350000E+03	8.364693E-14	1.414069E-15
5.360000E+03	8.543274E-14	1.419278E-15
5.370000E+03	8.713934E-14	1.417354E-15
5.380000E+03	8.865259E-14	1.409128E-15
5.390000E+03	8.976100E-14	1.389462E-15
5.400000E+03	9.021700E-14	1.363763E-15
5.410000E+03	8.984249E-14	1.342860E-15
5.420000E+03	8.859818E-14	1.320587E-15
5.430000E+03	8.658825E-14	1.296522E-15
5.440000E+03	8.408587E-14	1.273514E-15
5.450000E+03	8.153850E-14	1.234477E-15
5.460000E+03	7.943998E-14	1.167857E-15
5.470000E+03	7.821542E-14	1.082178E-15
5.480000E+03	7.817218E-14	1.001948E-15
5.490000E+03	7.948026E-14	9.727817E-16
5.500000E+03	8.200756E-14	1.020803E-15
5.510000E+03	8.516404E-14	1.106248E-15
5.520000E+03	8.806837E-14	1.180089E-15
5.530000E+03	8.986793E-14	1.218008E-15
5.540000E+03	9.004002E-14	1.211348E-15
5.550000E+03	8.847061E-14	1.180397E-15
5.560000E+03	8.544872E-14	1.151906E-15
5.570000E+03	8.160690E-14	1.121863E-15
5.580000E+03	7.769566E-14	1.090076E-15
5.590000E+03	7.437030E-14	1.066438E-15
5.600000E+03	7.209825E-14	1.047842E-15
5.610000E+03	7.118308E-14	1.034827E-15
5.620000E+03	7.171826E-14	1.032742E-15
5.630000E+03	7.350464E-14	1.038045E-15
5.640000E+03	7.615351E-14	1.053725E-15
5.650000E+03	7.918505E-14	1.085088E-15
5.660000E+03	8.205086E-14	1.117725E-15
5.670000E+03	8.420921E-14	1.143201E-15
5.680000E+03	8.525638E-14	1.163014E-15
5.690000E+03	8.505150E-14	1.165012E-15
5.700000E+03	8.366825E-14	1.149337E-15
5.710000E+03	8.125798E-14	1.126416E-15
5.720000E+03	7.794757E-14	1.089770E-15
5.730000E+03	7.388349E-14	1.042490E-15
5.740000E+03	6.928325E-14	9.959572E-16
5.750000E+03	6.442203E-14	9.470006E-16
5.760000E+03	5.960342E-14	9.007673E-16
5.770000E+03	5.516291E-14	8.699701E-16
5.780000E+03	5.147111E-14	8.572041E-16
5.790000E+03	4.884107E-14	8.683007E-16
5.800000E+03	4.745285E-14	9.107535E-16
5.810000E+03	4.734882E-14	9.809061E-16
5.820000E+03	4.852673E-14	1.073193E-15
5.830000E+03	5.096554E-14	1.185438E-15
5.840000E+03	5.458374E-14	1.314760E-15
5.850000E+03	5.922737E-14	1.457461E-15
5.860000E+03	6.466674E-14	1.607627E-15
5.870000E+03	7.058408E-14	1.753103E-15
5.880000E+03	7.657048E-14	1.878419E-15
5.890000E+03	8.217523E-14	1.967928E-15
5.900000E+03	8.699559E-14	2.006725E-15
5.910000E+03	9.072054E-14	1.988150E-15
5.920000E+03	9.316652E-14	1.917489E-15
5.930000E+03	9.431222E-14	1.810275E-15
5.940000E+03	9.428309E-14	1.695385E-15
5.950000E+03	9.329816E-14	1.596658E-15
5.960000E+03	9.162725E-14	1.512149E-15
5.970000E+03	8.955251E-14	1.441447E-15
5.980000E+03	8.730492E-14	1.388063E-15
5.990000E+03	8.501927E-14	1.340764E-15
6.000000E+03	8.277351E-14	1.298187E-15
6.010000E+03	8.061970E-14	1.266827E-15
6.020000E+03	7.858076E-14	1.238891E-15
6.030000E+03	7.667533E-14	1.214185E-15
6.040000E+03	7.493933E-14	1.199670E-15
6.050000E+03	7.344417E-14	1.189651E-15
6.060000E+03	7.227461E-14	1.184067E-15
6.070000E+03	7.150276E-14	1.188309E-15
6.080000E+03	7.117855E-14	1.195566E-15
6.090000E+03	7.132536E-14	1.202272E-15
6.100000E+03	7.189925E-14	1.210322E-15
6.110000E+03	7.272882E-14	1.213873E-15
6.120000E+03	7.357611E-14	1.213130E-15
6.130000E+03	7.422254E-14	1.213926E-15
6.140000E+03	7.451472E-14	1.213168E-15
6.150000E+03	7.437186E-14	1.215240E-15
6.160000E+03	7.382973E-14	1.228607E-15
6.170000E+03	7.308839E-14	1.245166E-15
6.180000E+03	7.241539E-14	1.258821E-15
6.190000E+03	7.201890E-14	1.270312E-15
6.200000E+03	7.197499E-14	1.273246E-15
6.210000E+03	7.227661E-14	1.264776E-15
6.220000E+03	7.285825E-14	1.247577E-15
6.230000E+03	7.357172E-14	1.221136E-15
6.240000E+03	7.422814E-14	1.192784E-15
6.250000E+03	7.465714E-14	1.171472E-15
6.260000E+03	7.474095E-14	1.150611E-15
6.270000E+03	7.440042E-14	1.128888E-15
6.280000E+03	7.355360E-14	1.109587E-15
6.290000E+03	7.210297E-14	1.080813E-15
6.300000E+03	6.995636E-14	1.037639E-15
6.310000E+03	6.705071E-14	9.841422E-16
6.320000E+03	6.335564E-14	9.163126E-16
6.330000E+03	5.891809E-14	8.401961E-16
6.340000E+03	5.391962E-14	7.670515E-16
6.350000E+03	4.867076E-14	6.954462E-16
6.360000E+03	4.350946E-14	6.299346E-16
6.370000E+03	3.873265E-14	5.774509E-16
6.380000E+03	3.457668E-14	5.330492E-16
6.390000E+03	3.119291E-14	4.943651E-16
6.400000E+03	2.865144E-14	4.638935E-16
6.410000E+03	2.697608E-14	4.420632E-16
6.420000E+03	2.618095E-14	4.312063E-16
6.430000E+03	2.629941E-14	4.353916E-16
6.440000E+03	2.739604E-14	4.566892E-16
6.450000E+03	2.958426E-14	4.990409E-16
6.460000E+03	3.300394E-14	5.664969E-16
6.470000E+03	3.776339E-14	6.543958E-16
6.480000E+03	4.391140E-14	7.506744E-16
6.490000E+03	5.142773E-14	8.392959E-16
6.500000E+03	6.023090E-14	9.022811E-16
6.510000E+03	7.026247E-14	9.341998E-16
6.520000E+03	8.177161E-14	9.638262E-16
6.530000E+03	9.543048E-14	1.058412E-15
6.540000E+03	1.109400E-13	1.263504E-15
6.550000E+03	1.260368E-13	1.528618E-15
6.560000E+03	1.381021E-13	1.755798E-15
6.570000E+03	1.452569E-13	1.897416E-15
6.580000E+03	1.468072E-13	1.959188E-15
6.590000E+03	1.434490E-13	1.941311E-15
6.600000E+03	1.367472E-13	1.870516E-15
6.610000E+03	1.283461E-13	1.785737E-15
6.620000E+03	1.194889E-13	1.689157E-15
6.630000E+03	1.110130E-13	1.591167E-15
6.640000E+03	1.033899E-13	1.509070E-15
6.650000E+03	9.676387E-14	1.435066E-15
6.660000E+03	9.110330E-14	1.369332E-15
6.670000E+03	8.631331E-14	1.319346E-15
6.680000E+03	8.226599E-14	1.275958E-15
6.690000E+03	7.883064E-14	1.237346E-15
6.700000E+03	7.589138E-14	1.208540E-15
6.710000E+03	7.335585E-14	1.182441E-15
6.720000E+03	7.115215E-14	1.158312E-15
6.730000E+03	6.922471E-14	1.141157E-15
6.740000E+03	6.753435E-14	1.125517E-15
6.750000E+03	6.605374E-14	1.111235E-15
6.760000E+03	6.476082E-14	1.103056E-15
6.770000E+03	6.363341E-14	1.096195E-15
6.780000E+03	6.265293E-14	1.090300E-15
6.790000E+03	6.179723E-14	1.089396E-15
6.800000E+03	6.103711E-14	1.089004E-15
6.810000E+03	6.034030E-14	1.088415E-15
6.820000E+03	5.968222E-14	1.091051E-15
6.830000E+03	5.904034E-14	1.092859E-15
6.840000E+03	5.840007E-14	1.093305E-15
6.850000E+03	5.775335E-14	1.095576E-15
6.860000E+03	5.710183E-14	1.096363E-15
6.870000E+03	5.645073E-14	1.095608E-15
6.880000E+03	5.581126E-14	1.096801E-15
6.890000E+03	5.520234E-14	1.097699E-15
6.900000E+03	5.464521E-14	1.098859E-15
6.910000E+03	5.416341E-14	1.103607E-15
6.920000E+03	5.378643E-14	1.109526E-15
6.930000E+03	5.354432E-14	1.116228E-15
6.940000E+03	5.345135E-14	1.125791E-15
6.950000E+03	5.349852E-14	1.135552E-15
6.960000E+03	5.366257E-14	1.144957E-15
6.970000E+03	5.391115E-14	1.155883E-15
6.980000E+03	5.420025E-14	1.165969E-15
6.990000E+03	5.448113E-14	1.175160E-15
7.000000E+03	5.471375E-14	1.185614E-15
7.010000E+03	5.487248E-14	1.194727E-15
7.020000E+03	5.494163E-14	1.201977E-15
7.030000E+03	5.491613E-14	1.209274E-15
7.040000E+03	5.479642E-14	1.214106E-15
7.050000E+03	5.459100E-14	1.216244E-15
7.060000E+03	5.431069E-14	1.217848E-15
7.070000E+03	5.396673E-14	1.216999E-15
7.080000E+03	5.357347E-14	1.213971E-15
7.090000E+03	5.314694E-14	1.211219E-15
7.100000E+03	5.270653E-14	1.207335E-15
7.110000E+03	5.227600E-14	1.202955E-15
7.120000E+03	5.187956E-14	1.200623E-15
7.130000E+03	5.154414E-14	1.199059E-15
7.140000E+03	5.129739E-14	1.198753E-15
7.150000E+03	5.115659E-14	1.201820E-15
7.160000E+03	5.112300E-14	1.206451E-15
7.170000E+03	5.118800E-14	1.212326E-15
7.180000E+03	5.133717E-14	1.220824E-15
7.190000E+03	5.154876E-14	1.229775E-15
7.200000E+03	5.179766E-14	1.238629E-15
7.210000E+03	5.206533E-14	1.248740E-15
7.220000E+03	5.234292E-14	1.258263E-15
7.230000E+03	5.262846E-14	1.267157E-15
7.240000E+03	5.292028E-14	1.277115E-15
7.250000E+03	5.321090E-14	1.286230E-15
7.260000E+03	5.349131E-14	1.294211E-15
7.270000E+03	5.374845E-14	1.302428E-15
7.280000E+03	5.396048E-14	1.308625E-15
7.290000E+03	5.410097E-14	1.312153E-15
7.300000E+03	5.414950E-14	1.314290E-15
7.310000E+03	5.408970E-14	1.312992E-15
7.320000E+03	5.391437E-14	1.308187E-15
7.330000E+03	5.362640E-14	1.301740E-15
7.340000E+03	5.324307E-14	1.292350E-15
7.350000E+03	5.279114E-14	1.280627E-15
7.360000E+03	5.230382E-14	1.268964E-15
7.370000E+03	5.181531E-14	1.256354E-15
7.380000E+03	5.135916E-14	1.243453E-15
7.390000E+03	5.096078E-14	1.232411E-15
7.400000E+03	5.062985E-14	1.221847E-15
7.410000E+03	5.036684E-14	1.211901E-15
7.420000E+03	5.016217E-14	1.204068E-15
7.430000E+03	4.999701E-14	1.196366E-15
7.440000E+03	4.984675E-14	1.188344E-15
7.450000E+03	4.968729E-14	1.181131E-15
7.460000E+03	4.950277E-14	1.172706E-15
7.470000E+03	4.927739E-14	1.162736E-15
7.480000E+03	4.900176E-14	1.152667E-15
7.490000E+03	4.866847E-14	1.140694E-15
7.500000E+03	4.827255E-14	1.126842E-15
7.510000E+03	4.781288E-14	1.112866E-15
7.520000E+03	4.728986E-14	1.097249E-15
7.530000E+03	4.670731E-14	1.080309E-15
7.540000E+03	4.607185E-14	1.063950E-15
7.550000E+03	4.539678E-14	1.046795E-15
7.560000E+03	4.469601E-14	1.029088E-15
7.570000E+03	4.398732E-14	1.012488E-15
7.580000E+03	4.328431E-14	9.950342E-16
7.590000E+03	4.260034E-14	9.764214E-16
7.600000E+03	4.194526E-14	9.578854E-16
7.610000E+03	4.132646E-14	9.376234E-16
7.620000E+03	4.074482E-14	9.157410E-16
7.630000E+03	4.020449E-14	8.943728E-16
7.640000E+03	3.971468E-14	8.730444E-16
7.650000E+03	3.928685E-14	8.532717E-16
7.660000E+03	3.893963E-14	8.380512E-16
7.670000E+03	3.870600E-14	8.268707E-16
7.680000E+03	3.862439E-14	8.203974E-16
7.690000E+03	3.872721E-14	8.198789E-16
7.700000E+03	3.903660E-14	8.218194E-16
7.710000E+03	3.956496E-14	8.234530E-16
7.720000E+03	4.030083E-14	8.242242E-16
7.730000E+03	4.119066E-14	8.220639E-16
7.740000E+03	4.215223E-14	8.177989E-16
7.750000E+03	4.309467E-14	8.137418E-16
7.760000E+03	4.392739E-14	8.073957E-16
