#wls	flux	fluxerr
1.600000E+03	4.817677E-16	7.589741E-16
1.640000E+03	4.911116E-16	7.710101E-16
1.680000E+03	5.006790E-16	7.830581E-16
1.720000E+03	5.110219E-16	7.959422E-16
1.760000E+03	5.219010E-16	8.092412E-16
1.800000E+03	5.333438E-16	8.229472E-16
1.840000E+03	5.453802E-16	8.370504E-16
1.880000E+03	5.583164E-16	8.519561E-16
1.920000E+03	5.721942E-16	8.676517E-16
1.960000E+03	5.867828E-16	8.837040E-16
2.000000E+03	6.024060E-16	9.005113E-16
2.040000E+03	6.188381E-16	9.176334E-16
2.080000E+03	6.367020E-16	9.358796E-16
2.120000E+03	6.557865E-16	9.548006E-16
2.160000E+03	6.761670E-16	9.743589E-16
2.200000E+03	6.979265E-16	9.945106E-16
2.240000E+03	7.214536E-16	1.015621E-15
2.280000E+03	7.465594E-16	1.037211E-15
2.320000E+03	7.739647E-16	1.060042E-15
2.360000E+03	8.032000E-16	1.083193E-15
2.400000E+03	8.350279E-16	1.107392E-15
2.440000E+03	8.693081E-16	1.132101E-15
2.480000E+03	9.065431E-16	1.157589E-15
2.520000E+03	9.469444E-16	1.183679E-15
2.560000E+03	9.910762E-16	1.210574E-15
2.600000E+03	1.038863E-15	1.237614E-15
2.640000E+03	1.090568E-15	1.264505E-15
2.680000E+03	1.147176E-15	1.291704E-15
2.720000E+03	1.209016E-15	1.318779E-15
2.760000E+03	1.276044E-15	1.344827E-15
2.800000E+03	1.349314E-15	1.370028E-15
2.840000E+03	1.429132E-15	1.393649E-15
2.880000E+03	1.515344E-15	1.414450E-15
2.920000E+03	1.609282E-15	1.432528E-15
2.960000E+03	1.710541E-15	1.446275E-15
3.000000E+03	1.818838E-15	1.454255E-15
3.010000E+03	1.847052E-15	1.455244E-15
3.020000E+03	1.875871E-15	1.455910E-15
3.030000E+03	1.904841E-15	1.455881E-15
3.040000E+03	1.934380E-15	1.455465E-15
3.050000E+03	1.964023E-15	1.454296E-15
3.060000E+03	1.994189E-15	1.452672E-15
3.070000E+03	2.024852E-15	1.450555E-15
3.080000E+03	2.055983E-15	1.447903E-15
3.090000E+03	2.087092E-15	1.444360E-15
3.100000E+03	2.118136E-15	1.439895E-15
3.110000E+03	2.149985E-15	1.435090E-15
3.120000E+03	2.181675E-15	1.429283E-15
3.130000E+03	2.213612E-15	1.422737E-15
3.140000E+03	2.245272E-15	1.415112E-15
3.150000E+03	2.277522E-15	1.406953E-15
3.160000E+03	2.309358E-15	1.397626E-15
3.170000E+03	2.340699E-15	1.387096E-15
3.180000E+03	2.372403E-15	1.375879E-15
3.190000E+03	2.403434E-15	1.363368E-15
3.200000E+03	2.434167E-15	1.349794E-15
3.210000E+03	2.464494E-15	1.335106E-15
3.220000E+03	2.494303E-15	1.319255E-15
3.230000E+03	2.522991E-15	1.301946E-15
3.240000E+03	2.551383E-15	1.283629E-15
3.250000E+03	2.578382E-15	1.263773E-15
3.260000E+03	2.604317E-15	1.242583E-15
3.270000E+03	2.629032E-15	1.220017E-15
3.280000E+03	2.652358E-15	1.196042E-15
3.290000E+03	2.674124E-15	1.170627E-15
3.300000E+03	2.693673E-15	1.143545E-15
3.310000E+03	2.711767E-15	1.115188E-15
3.320000E+03	2.727738E-15	1.085338E-15
3.330000E+03	2.740920E-15	1.053814E-15
3.340000E+03	2.752051E-15	1.020990E-15
3.350000E+03	2.760002E-15	9.865363E-16
3.360000E+03	2.765499E-15	9.508221E-16
3.370000E+03	2.767438E-15	9.135733E-16
3.380000E+03	2.766545E-15	8.751577E-16
3.390000E+03	2.761755E-15	8.353636E-16
3.400000E+03	2.753809E-15	7.945605E-16
3.410000E+03	2.741710E-15	7.526033E-16
3.420000E+03	2.726228E-15	7.098656E-16
3.430000E+03	2.706877E-15	6.663718E-16
3.440000E+03	2.683650E-15	6.222888E-16
3.450000E+03	2.656597E-15	5.778005E-16
3.460000E+03	2.626218E-15	5.331843E-16
3.470000E+03	2.591916E-15	4.884876E-16
3.480000E+03	2.554726E-15	4.440823E-16
3.490000E+03	2.514625E-15	4.001195E-16
3.500000E+03	2.472081E-15	3.568326E-16
3.510000E+03	2.427673E-15	3.144564E-16
3.520000E+03	2.382430E-15	2.732643E-16
3.530000E+03	2.336834E-15	2.334499E-16
3.540000E+03	2.291839E-15	1.952830E-16
3.550000E+03	2.248528E-15	1.591110E-16
3.560000E+03	2.208371E-15	1.255109E-16
3.570000E+03	2.172299E-15	9.559341E-17
3.580000E+03	2.141509E-15	7.200484E-17
3.590000E+03	2.117260E-15	6.024859E-17
3.600000E+03	2.099783E-15	6.500626E-17
3.610000E+03	2.088842E-15	8.176895E-17
3.620000E+03	2.083086E-15	1.035427E-16
3.630000E+03	2.081264E-15	1.267267E-16
3.640000E+03	2.082399E-15	1.498176E-16
3.650000E+03	2.085388E-15	1.721149E-16
3.660000E+03	2.089074E-15	1.932148E-16
3.670000E+03	2.092744E-15	2.128726E-16
3.680000E+03	2.096119E-15	2.309474E-16
3.690000E+03	2.098615E-15	2.473019E-16
3.700000E+03	2.100291E-15	2.618926E-16
3.710000E+03	2.101107E-15	2.746879E-16
3.720000E+03	2.100920E-15	2.856589E-16
3.730000E+03	2.099930E-15	2.948360E-16
3.740000E+03	2.098867E-15	3.023410E-16
3.750000E+03	2.097635E-15	3.081932E-16
3.760000E+03	2.096649E-15	3.124926E-16
3.770000E+03	2.096577E-15	3.153859E-16
3.780000E+03	2.097898E-15	3.169965E-16
3.790000E+03	2.101109E-15	3.174529E-16
3.800000E+03	2.106515E-15	3.168537E-16
3.810000E+03	2.114845E-15	3.153588E-16
3.820000E+03	2.126618E-15	3.130929E-16
3.830000E+03	2.142355E-15	3.101767E-16
3.840000E+03	2.162381E-15	3.066984E-16
3.850000E+03	2.187421E-15	3.028028E-16
3.860000E+03	2.218009E-15	2.986058E-16
3.870000E+03	2.254683E-15	2.942284E-16
3.880000E+03	2.297992E-15	2.898007E-16
3.890000E+03	2.348269E-15	2.854390E-16
3.900000E+03	2.406198E-15	2.813178E-16
3.910000E+03	2.472315E-15	2.776024E-16
3.920000E+03	2.546295E-15	2.743709E-16
3.930000E+03	2.628176E-15	2.717589E-16
3.940000E+03	2.717292E-15	2.698371E-16
3.950000E+03	2.813345E-15	2.687149E-16
3.960000E+03	2.915107E-15	2.684084E-16
3.970000E+03	3.021348E-15	2.689281E-16
3.980000E+03	3.130398E-15	2.702256E-16
3.990000E+03	3.241148E-15	2.722764E-16
4.000000E+03	3.351344E-15	2.749276E-16
4.010000E+03	3.459559E-15	2.780608E-16
4.020000E+03	3.563146E-15	2.814309E-16
4.030000E+03	3.660254E-15	2.848398E-16
4.040000E+03	3.747710E-15	2.879771E-16
4.050000E+03	3.822972E-15	2.905902E-16
4.060000E+03	3.883487E-15	2.924456E-16
4.070000E+03	3.926063E-15	2.932835E-16
4.080000E+03	3.949075E-15	2.929843E-16
4.090000E+03	3.950611E-15	2.914165E-16
4.100000E+03	3.930894E-15	2.885999E-16
4.110000E+03	3.890490E-15	2.845666E-16
4.120000E+03	3.831141E-15	2.794169E-16
4.130000E+03	3.756375E-15	2.733593E-16
4.140000E+03	3.669463E-15	2.665715E-16
4.150000E+03	3.575062E-15	2.593290E-16
4.160000E+03	3.477193E-15	2.518633E-16
4.170000E+03	3.379901E-15	2.444192E-16
4.180000E+03	3.286537E-15	2.372068E-16
4.190000E+03	3.200439E-15	2.304470E-16
4.200000E+03	3.123745E-15	2.242863E-16
4.210000E+03	3.058309E-15	2.188597E-16
4.220000E+03	3.005590E-15	2.142730E-16
4.230000E+03	2.966759E-15	2.106092E-16
4.240000E+03	2.942793E-15	2.079286E-16
4.250000E+03	2.934348E-15	2.062538E-16
4.260000E+03	2.942396E-15	2.056178E-16
4.270000E+03	2.967159E-15	2.059914E-16
4.280000E+03	3.008692E-15	2.073265E-16
4.290000E+03	3.066703E-15	2.095494E-16
4.300000E+03	3.140355E-15	2.125542E-16
4.310000E+03	3.228872E-15	2.162475E-16
4.320000E+03	3.330357E-15	2.204822E-16
4.330000E+03	3.443111E-15	2.251573E-16
4.340000E+03	3.564242E-15	2.301335E-16
4.350000E+03	3.690871E-15	2.353258E-16
4.360000E+03	3.819509E-15	2.406639E-16
4.370000E+03	3.946464E-15	2.461031E-16
4.380000E+03	4.068126E-15	2.516158E-16
4.390000E+03	4.182414E-15	2.572341E-16
4.400000E+03	4.288264E-15	2.629498E-16
4.410000E+03	4.387268E-15	2.688098E-16
4.420000E+03	4.482271E-15	2.748782E-16
4.430000E+03	4.577796E-15	2.812998E-16
4.440000E+03	4.679127E-15	2.882851E-16
4.450000E+03	4.792342E-15	2.961282E-16
4.460000E+03	4.923973E-15	3.051829E-16
4.470000E+03	5.081501E-15	3.158925E-16
4.480000E+03	5.272330E-15	3.287168E-16
4.490000E+03	5.504470E-15	3.441572E-16
4.500000E+03	5.785325E-15	3.626793E-16
4.510000E+03	6.122046E-15	3.847267E-16
4.520000E+03	6.519867E-15	4.106001E-16
4.530000E+03	6.982128E-15	4.404592E-16
4.540000E+03	7.509500E-15	4.742688E-16
4.550000E+03	8.098480E-15	5.116895E-16
4.560000E+03	8.740348E-15	5.520191E-16
4.570000E+03	9.423068E-15	5.943218E-16
4.580000E+03	1.012930E-14	6.373063E-16
4.590000E+03	1.083818E-14	6.794755E-16
4.600000E+03	1.152604E-14	7.192046E-16
4.610000E+03	1.216819E-14	7.548828E-16
4.620000E+03	1.273855E-14	7.849391E-16
4.630000E+03	1.321422E-14	8.081576E-16
4.640000E+03	1.357351E-14	8.235467E-16
4.650000E+03	1.380170E-14	8.306773E-16
4.660000E+03	1.388902E-14	8.295016E-16
4.670000E+03	1.383552E-14	8.205522E-16
4.680000E+03	1.364965E-14	8.047906E-16
4.690000E+03	1.334829E-14	7.835457E-16
4.700000E+03	1.295505E-14	7.583548E-16
4.710000E+03	1.249951E-14	7.309477E-16
4.720000E+03	1.201109E-14	7.029108E-16
4.730000E+03	1.152136E-14	6.758453E-16
4.740000E+03	1.105742E-14	6.510422E-16
4.750000E+03	1.064349E-14	6.296092E-16
4.760000E+03	1.029984E-14	6.124160E-16
4.770000E+03	1.004141E-14	6.000489E-16
4.780000E+03	9.878954E-15	5.928865E-16
4.790000E+03	9.818023E-15	5.910219E-16
4.800000E+03	9.860728E-15	5.943873E-16
4.810000E+03	1.000589E-14	6.027788E-16
4.820000E+03	1.024946E-14	6.158798E-16
4.830000E+03	1.058398E-14	6.332333E-16
4.840000E+03	1.099970E-14	6.542946E-16
4.850000E+03	1.148587E-14	6.784851E-16
4.860000E+03	1.202890E-14	7.050929E-16
4.870000E+03	1.261409E-14	7.333649E-16
4.880000E+03	1.322529E-14	7.624655E-16
4.890000E+03	1.384633E-14	7.915854E-16
4.900000E+03	1.445819E-14	8.197896E-16
4.910000E+03	1.504227E-14	8.461940E-16
4.920000E+03	1.558062E-14	8.699959E-16
4.930000E+03	1.605859E-14	8.906054E-16
4.940000E+03	1.646843E-14	9.077885E-16
4.950000E+03	1.680811E-14	9.216127E-16
4.960000E+03	1.707995E-14	9.323578E-16
4.970000E+03	1.728905E-14	9.403949E-16
4.980000E+03	1.743933E-14	9.460124E-16
4.990000E+03	1.752831E-14	9.491408E-16
5.000000E+03	1.754498E-14	9.491980E-16
5.010000E+03	1.747523E-14	9.454068E-16
5.020000E+03	1.730413E-14	9.368905E-16
5.030000E+03	1.702356E-14	9.230341E-16
5.040000E+03	1.663400E-14	9.036240E-16
5.050000E+03	1.614750E-14	8.790378E-16
5.060000E+03	1.558861E-14	8.502992E-16
5.070000E+03	1.498866E-14	8.188387E-16
5.080000E+03	1.438325E-14	7.863890E-16
5.090000E+03	1.380798E-14	7.547396E-16
5.100000E+03	1.329474E-14	7.255721E-16
5.110000E+03	1.286913E-14	7.003110E-16
5.120000E+03	1.254905E-14	6.800082E-16
5.130000E+03	1.234571E-14	6.654009E-16
5.140000E+03	1.226140E-14	6.567681E-16
5.150000E+03	1.229198E-14	6.540373E-16
5.160000E+03	1.242713E-14	6.568065E-16
5.170000E+03	1.265392E-14	6.645066E-16
5.180000E+03	1.295619E-14	6.763327E-16
5.190000E+03	1.331758E-14	6.914422E-16
5.200000E+03	1.372289E-14	7.090513E-16
5.210000E+03	1.415715E-14	7.283714E-16
5.220000E+03	1.460974E-14	7.488561E-16
5.230000E+03	1.507114E-14	7.700263E-16
5.240000E+03	1.553559E-14	7.915484E-16
5.250000E+03	1.600088E-14	8.132426E-16
5.260000E+03	1.646722E-14	8.350123E-16
5.270000E+03	1.693794E-14	8.568357E-16
5.280000E+03	1.741838E-14	8.787747E-16
5.290000E+03	1.791321E-14	9.008765E-16
5.300000E+03	1.842672E-14	9.231742E-16
5.310000E+03	1.896030E-14	9.456182E-16
5.320000E+03	1.951522E-14	9.682137E-16
5.330000E+03	2.009042E-14	9.908508E-16
5.340000E+03	2.068279E-14	1.013356E-15
5.350000E+03	2.129018E-14	1.035623E-15
5.360000E+03	2.190842E-14	1.057392E-15
5.370000E+03	2.253232E-14	1.078333E-15
5.380000E+03	2.315390E-14	1.097939E-15
5.390000E+03	2.376159E-14	1.115424E-15
5.400000E+03	2.434061E-14	1.129846E-15
5.410000E+03	2.487458E-14	1.140241E-15
5.420000E+03	2.534866E-14	1.145769E-15
5.430000E+03	2.575179E-14	1.145970E-15
5.440000E+03	2.608508E-14	1.141254E-15
5.450000E+03	2.636013E-14	1.132887E-15
5.460000E+03	2.660173E-14	1.123368E-15
5.470000E+03	2.683904E-14	1.116137E-15
5.480000E+03	2.710267E-14	1.115190E-15
5.490000E+03	2.741400E-14	1.124122E-15
5.500000E+03	2.777633E-14	1.144329E-15
5.510000E+03	2.816567E-14	1.172943E-15
5.520000E+03	2.854128E-14	1.205265E-15
5.530000E+03	2.885336E-14	1.236301E-15
5.540000E+03	2.905402E-14	1.261783E-15
5.550000E+03	2.910973E-14	1.278982E-15
5.560000E+03	2.900608E-14	1.286762E-15
5.570000E+03	2.875334E-14	1.285464E-15
5.580000E+03	2.838468E-14	1.276678E-15
5.590000E+03	2.794703E-14	1.262675E-15
5.600000E+03	2.749222E-14	1.245865E-15
5.610000E+03	2.706605E-14	1.228441E-15
5.620000E+03	2.670057E-14	1.212095E-15
5.630000E+03	2.640363E-14	1.197495E-15
5.640000E+03	2.615961E-14	1.184383E-15
5.650000E+03	2.592655E-14	1.171406E-15
5.660000E+03	2.564280E-14	1.156260E-15
5.670000E+03	2.523484E-14	1.136062E-15
5.680000E+03	2.463699E-14	1.108136E-15
5.690000E+03	2.380512E-14	1.070490E-15
5.700000E+03	2.272725E-14	1.022435E-15
5.710000E+03	2.142937E-14	9.649280E-16
5.720000E+03	1.997083E-14	9.003685E-16
5.730000E+03	1.843365E-14	8.322692E-16
5.740000E+03	1.691018E-14	7.647208E-16
5.750000E+03	1.548754E-14	7.016127E-16
5.760000E+03	1.423894E-14	6.462923E-16
5.770000E+03	1.321869E-14	6.013057E-16
5.780000E+03	1.246199E-14	5.683189E-16
5.790000E+03	1.199091E-14	5.484208E-16
5.800000E+03	1.181868E-14	5.422984E-16
5.810000E+03	1.195312E-14	5.503293E-16
5.820000E+03	1.240268E-14	5.728957E-16
5.830000E+03	1.317655E-14	6.103625E-16
5.840000E+03	1.428207E-14	6.628829E-16
5.850000E+03	1.571867E-14	7.301388E-16
5.860000E+03	1.747043E-14	8.110291E-16
5.870000E+03	1.949831E-14	9.033145E-16
5.880000E+03	2.173243E-14	1.003421E-15
5.890000E+03	2.407160E-14	1.106562E-15
5.900000E+03	2.639199E-14	1.207186E-15
5.910000E+03	2.855960E-14	1.299653E-15
5.920000E+03	3.044979E-14	1.379007E-15
5.930000E+03	3.196686E-14	1.441557E-15
5.940000E+03	3.305643E-14	1.485393E-15
5.950000E+03	3.370756E-14	1.510394E-15
5.960000E+03	3.394400E-14	1.517679E-15
5.970000E+03	3.381750E-14	1.509515E-15
5.980000E+03	3.339561E-14	1.488865E-15
5.990000E+03	3.274729E-14	1.458665E-15
6.000000E+03	3.194264E-14	1.421999E-15
6.010000E+03	3.104302E-14	1.381638E-15
6.020000E+03	3.010387E-14	1.340009E-15
6.030000E+03	2.917225E-14	1.299192E-15
6.040000E+03	2.828755E-14	1.260907E-15
6.050000E+03	2.748380E-14	1.226475E-15
6.060000E+03	2.678880E-14	1.196916E-15
6.070000E+03	2.622452E-14	1.172979E-15
6.080000E+03	2.580822E-14	1.155115E-15
6.090000E+03	2.554951E-14	1.143518E-15
6.100000E+03	2.544765E-14	1.138078E-15
6.110000E+03	2.549156E-14	1.138320E-15
6.120000E+03	2.565764E-14	1.143392E-15
6.130000E+03	2.591692E-14	1.152331E-15
6.140000E+03	2.623287E-14	1.163807E-15
6.150000E+03	2.656994E-14	1.176570E-15
6.160000E+03	2.689881E-14	1.189600E-15
6.170000E+03	2.720120E-14	1.202138E-15
6.180000E+03	2.747191E-14	1.213870E-15
6.190000E+03	2.771294E-14	1.224671E-15
6.200000E+03	2.793255E-14	1.234465E-15
6.210000E+03	2.813988E-14	1.243209E-15
6.220000E+03	2.833557E-14	1.250610E-15
6.230000E+03	2.851082E-14	1.256047E-15
6.240000E+03	2.864543E-14	1.258631E-15
6.250000E+03	2.870986E-14	1.257288E-15
6.260000E+03	2.866986E-14	1.250804E-15
6.270000E+03	2.848647E-14	1.237860E-15
6.280000E+03	2.812370E-14	1.217250E-15
6.290000E+03	2.755120E-14	1.187813E-15
6.300000E+03	2.674972E-14	1.148843E-15
6.310000E+03	2.571584E-14	1.100347E-15
6.320000E+03	2.446495E-14	1.043070E-15
6.330000E+03	2.303362E-14	9.787064E-16
6.340000E+03	2.147510E-14	9.096445E-16
6.350000E+03	1.985729E-14	8.387360E-16
6.360000E+03	1.825130E-14	7.689252E-16
6.370000E+03	1.672575E-14	7.030174E-16
6.380000E+03	1.533989E-14	6.433270E-16
6.390000E+03	1.414075E-14	5.916915E-16
6.400000E+03	1.316337E-14	5.494813E-16
6.410000E+03	1.243374E-14	5.176438E-16
6.420000E+03	1.197292E-14	4.969257E-16
6.430000E+03	1.180166E-14	4.880214E-16
6.440000E+03	1.194542E-14	4.916684E-16
6.450000E+03	1.243903E-14	5.088359E-16
6.460000E+03	1.332792E-14	5.406935E-16
6.470000E+03	1.466944E-14	5.885167E-16
6.480000E+03	1.653190E-14	6.537043E-16
6.490000E+03	1.898999E-14	7.378279E-16
6.500000E+03	2.211602E-14	8.427884E-16
6.510000E+03	2.595879E-14	9.711038E-16
6.520000E+03	3.051666E-14	1.126226E-15
6.530000E+03	3.570065E-14	1.311682E-15
6.540000E+03	4.128529E-14	1.525690E-15
6.550000E+03	4.688615E-14	1.755297E-15
6.560000E+03	5.201271E-14	1.979321E-15
6.570000E+03	5.616966E-14	2.173701E-15
6.580000E+03	5.896550E-14	2.317679E-15
6.590000E+03	6.021754E-14	2.399386E-15
6.600000E+03	5.997366E-14	2.417844E-15
6.610000E+03	5.846453E-14	2.381045E-15
6.620000E+03	5.602652E-14	2.302134E-15
6.630000E+03	5.301463E-14	2.195757E-15
6.640000E+03	4.974334E-14	2.075314E-15
6.650000E+03	4.645516E-14	1.951205E-15
6.660000E+03	4.331365E-14	1.830703E-15
6.670000E+03	4.041575E-14	1.718400E-15
6.680000E+03	3.780709E-14	1.616578E-15
6.690000E+03	3.549678E-14	1.526013E-15
6.700000E+03	3.347422E-14	1.446641E-15
6.710000E+03	3.171635E-14	1.377693E-15
6.720000E+03	3.019644E-14	1.318245E-15
6.730000E+03	2.888585E-14	1.267297E-15
6.740000E+03	2.775816E-14	1.223821E-15
6.750000E+03	2.678805E-14	1.186860E-15
6.760000E+03	2.595352E-14	1.155613E-15
6.770000E+03	2.523390E-14	1.129235E-15
6.780000E+03	2.461204E-14	1.107053E-15
6.790000E+03	2.407077E-14	1.088408E-15
6.800000E+03	2.359748E-14	1.072753E-15
6.810000E+03	2.317938E-14	1.059539E-15
6.820000E+03	2.280630E-14	1.048344E-15
6.830000E+03	2.247067E-14	1.038767E-15
6.840000E+03	2.216517E-14	1.030426E-15
6.850000E+03	2.188515E-14	1.023078E-15
6.860000E+03	2.162867E-14	1.016549E-15
6.870000E+03	2.139377E-14	1.010718E-15
6.880000E+03	2.118089E-14	1.005639E-15
6.890000E+03	2.099101E-14	1.001386E-15
6.900000E+03	2.082552E-14	9.981007E-16
6.910000E+03	2.068534E-14	9.959392E-16
6.920000E+03	2.057188E-14	9.950104E-16
6.930000E+03	2.048615E-14	9.953964E-16
6.940000E+03	2.042722E-14	9.970802E-16
6.950000E+03	2.039588E-14	1.000048E-15
6.960000E+03	2.039061E-14	1.004180E-15
6.970000E+03	2.040898E-14	1.009337E-15
6.980000E+03	2.044666E-14	1.015249E-15
6.990000E+03	2.049908E-14	1.021675E-15
7.000000E+03	2.055980E-14	1.028327E-15
7.010000E+03	2.062203E-14	1.034872E-15
7.020000E+03	2.068004E-14	1.041061E-15
7.030000E+03	2.072909E-14	1.046718E-15
7.040000E+03	2.076493E-14	1.051633E-15
7.050000E+03	2.078647E-14	1.055763E-15
7.060000E+03	2.079271E-14	1.059084E-15
7.070000E+03	2.078578E-14	1.061676E-15
7.080000E+03	2.076807E-14	1.063653E-15
7.090000E+03	2.074353E-14	1.065236E-15
7.100000E+03	2.071684E-14	1.066640E-15
7.110000E+03	2.069447E-14	1.068204E-15
7.120000E+03	2.068253E-14	1.070267E-15
7.130000E+03	2.068643E-14	1.073095E-15
7.140000E+03	2.071252E-14	1.077017E-15
7.150000E+03	2.076664E-14	1.082353E-15
7.160000E+03	2.085307E-14	1.089298E-15
7.170000E+03	2.097523E-14	1.098015E-15
7.180000E+03	2.113481E-14	1.108597E-15
7.190000E+03	2.133136E-14	1.120988E-15
7.200000E+03	2.156285E-14	1.135067E-15
7.210000E+03	2.182467E-14	1.150606E-15
7.220000E+03	2.211109E-14	1.167282E-15
7.230000E+03	2.241502E-14	1.184722E-15
7.240000E+03	2.272866E-14	1.202539E-15
7.250000E+03	2.304238E-14	1.220200E-15
7.260000E+03	2.334586E-14	1.237150E-15
7.270000E+03	2.362805E-14	1.252809E-15
7.280000E+03	2.387558E-14	1.266420E-15
7.290000E+03	2.407708E-14	1.277350E-15
7.300000E+03	2.421959E-14	1.284912E-15
7.310000E+03	2.429471E-14	1.288628E-15
7.320000E+03	2.429638E-14	1.288185E-15
7.330000E+03	2.422170E-14	1.283467E-15
7.340000E+03	2.407410E-14	1.274662E-15
7.350000E+03	2.386000E-14	1.262142E-15
7.360000E+03	2.358832E-14	1.246437E-15
7.370000E+03	2.327032E-14	1.228151E-15
7.380000E+03	2.291837E-14	1.207966E-15
7.390000E+03	2.254330E-14	1.186496E-15
7.400000E+03	2.215520E-14	1.164262E-15
7.410000E+03	2.176120E-14	1.141642E-15
7.420000E+03	2.136635E-14	1.118923E-15
7.430000E+03	2.097401E-14	1.096258E-15
7.440000E+03	2.058346E-14	1.073609E-15
7.450000E+03	2.019478E-14	1.050998E-15
7.460000E+03	1.980659E-14	1.028336E-15
7.470000E+03	1.941717E-14	1.005543E-15
7.480000E+03	1.902627E-14	9.826433E-16
7.490000E+03	1.863407E-14	9.596546E-16
7.500000E+03	1.824276E-14	9.367299E-16
7.510000E+03	1.785511E-14	9.140783E-16
7.520000E+03	1.747590E-14	8.919762E-16
7.530000E+03	1.711025E-14	8.707247E-16
7.540000E+03	1.676506E-14	8.507040E-16
7.550000E+03	1.644605E-14	8.321568E-16
7.560000E+03	1.616090E-14	8.153978E-16
7.570000E+03	1.591473E-14	8.005785E-16
7.580000E+03	1.571353E-14	7.878241E-16
7.590000E+03	1.556052E-14	7.771295E-16
7.600000E+03	1.545862E-14	7.685106E-16
7.610000E+03	1.540868E-14	7.618947E-16
7.620000E+03	1.541105E-14	7.572769E-16
7.630000E+03	1.546298E-14	7.546069E-16
7.640000E+03	1.556196E-14	7.538927E-16
7.650000E+03	1.570222E-14	7.550587E-16
7.660000E+03	1.587743E-14	7.580298E-16
7.670000E+03	1.607943E-14	7.625700E-16
7.680000E+03	1.630018E-14	7.684067E-16
7.690000E+03	1.652993E-14	7.751080E-16
7.700000E+03	1.676164E-14	7.822010E-16
7.710000E+03	1.698800E-14	7.890759E-16
7.720000E+03	1.720297E-14	7.950424E-16
7.730000E+03	1.740252E-14	7.993192E-16
7.740000E+03	1.758225E-14	8.011119E-16
7.750000E+03	1.773778E-14	7.998105E-16
7.760000E+03	1.786154E-14	7.949030E-16
