#wls	flux	fluxerr
1.600000E+03	1.454418E-16	2.293100E-16
1.640000E+03	1.481979E-16	2.328650E-16
1.680000E+03	1.510949E-16	2.365423E-16
1.720000E+03	1.542201E-16	2.404661E-16
1.760000E+03	1.574189E-16	2.443819E-16
1.800000E+03	1.608610E-16	2.485393E-16
1.840000E+03	1.645564E-16	2.529354E-16
1.880000E+03	1.683501E-16	2.573139E-16
1.920000E+03	1.724175E-16	2.619234E-16
1.960000E+03	1.766877E-16	2.666325E-16
2.000000E+03	1.812577E-16	2.715624E-16
2.040000E+03	1.861433E-16	2.767064E-16
2.080000E+03	1.912763E-16	2.819308E-16
2.120000E+03	1.968469E-16	2.874800E-16
2.160000E+03	2.027043E-16	2.930911E-16
2.200000E+03	2.089583E-16	2.988794E-16
2.240000E+03	2.156353E-16	3.048317E-16
2.280000E+03	2.227649E-16	3.109330E-16
2.320000E+03	2.304711E-16	3.172917E-16
2.360000E+03	2.387015E-16	3.237616E-16
2.400000E+03	2.475905E-16	3.304447E-16
2.440000E+03	2.570926E-16	3.371889E-16
2.480000E+03	2.673550E-16	3.440877E-16
2.520000E+03	2.784388E-16	3.511041E-16
2.560000E+03	2.904116E-16	3.581954E-16
2.600000E+03	3.034506E-16	3.654346E-16
2.640000E+03	3.175414E-16	3.726399E-16
2.680000E+03	3.327764E-16	3.797442E-16
2.720000E+03	3.493654E-16	3.867889E-16
2.760000E+03	3.674273E-16	3.936796E-16
2.800000E+03	3.872049E-16	4.004229E-16
2.840000E+03	4.086145E-16	4.066531E-16
2.880000E+03	4.320367E-16	4.124515E-16
2.920000E+03	4.576409E-16	4.176344E-16
2.960000E+03	4.856045E-16	4.219862E-16
3.000000E+03	5.161102E-16	4.252530E-16
3.010000E+03	5.241512E-16	4.258630E-16
3.020000E+03	5.324568E-16	4.264548E-16
3.030000E+03	5.407640E-16	4.268103E-16
3.040000E+03	5.493414E-16	4.271366E-16
3.050000E+03	5.581941E-16	4.274266E-16
3.060000E+03	5.671898E-16	4.275690E-16
3.070000E+03	5.763302E-16	4.275583E-16
3.080000E+03	5.856167E-16	4.273888E-16
3.090000E+03	5.951917E-16	4.271554E-16
3.100000E+03	6.050600E-16	4.268494E-16
3.110000E+03	6.149403E-16	4.262631E-16
3.120000E+03	6.251188E-16	4.255891E-16
3.130000E+03	6.356004E-16	4.248174E-16
3.140000E+03	6.460962E-16	4.237452E-16
3.150000E+03	6.570476E-16	4.226540E-16
3.160000E+03	6.680149E-16	4.212467E-16
3.170000E+03	6.792964E-16	4.197048E-16
3.180000E+03	6.908966E-16	4.180165E-16
3.190000E+03	7.025132E-16	4.159880E-16
3.200000E+03	7.146068E-16	4.138828E-16
3.210000E+03	7.267176E-16	4.114188E-16
3.220000E+03	7.391566E-16	4.087647E-16
3.230000E+03	7.519281E-16	4.059065E-16
3.240000E+03	7.648760E-16	4.027457E-16
3.250000E+03	7.780004E-16	3.992716E-16
3.260000E+03	7.914644E-16	3.955551E-16
3.270000E+03	8.051076E-16	3.915006E-16
3.280000E+03	8.189297E-16	3.870967E-16
3.290000E+03	8.332657E-16	3.824858E-16
3.300000E+03	8.476170E-16	3.774204E-16
3.310000E+03	8.623198E-16	3.720404E-16
3.320000E+03	8.772061E-16	3.662564E-16
3.330000E+03	8.924487E-16	3.601257E-16
3.340000E+03	9.080511E-16	3.536297E-16
3.350000E+03	9.238395E-16	3.466831E-16
3.360000E+03	9.398115E-16	3.392720E-16
3.370000E+03	9.561435E-16	3.314446E-16
3.380000E+03	9.726536E-16	3.231200E-16
3.390000E+03	9.895173E-16	3.143414E-16
3.400000E+03	1.006544E-15	3.050308E-16
3.410000E+03	1.023906E-15	2.952262E-16
3.420000E+03	1.041399E-15	2.848531E-16
3.430000E+03	1.059184E-15	2.739440E-16
3.440000E+03	1.077037E-15	2.624287E-16
3.450000E+03	1.095098E-15	2.503350E-16
3.460000E+03	1.113107E-15	2.375988E-16
3.470000E+03	1.131170E-15	2.242460E-16
3.480000E+03	1.148972E-15	2.102235E-16
3.490000E+03	1.166555E-15	1.955619E-16
3.500000E+03	1.183722E-15	1.802610E-16
3.510000E+03	1.200020E-15	1.643097E-16
3.520000E+03	1.215130E-15	1.477598E-16
3.530000E+03	1.228861E-15	1.307287E-16
3.540000E+03	1.240742E-15	1.133751E-16
3.550000E+03	1.250017E-15	9.596769E-17
3.560000E+03	1.256062E-15	7.903107E-17
3.570000E+03	1.258612E-15	6.356430E-17
3.580000E+03	1.256411E-15	5.137536E-17
3.590000E+03	1.249499E-15	4.539214E-17
3.600000E+03	1.237190E-15	4.756886E-17
3.610000E+03	1.219929E-15	5.595667E-17
3.620000E+03	1.198712E-15	6.713787E-17
3.630000E+03	1.174418E-15	7.889369E-17
3.640000E+03	1.147730E-15	9.011952E-17
3.650000E+03	1.119607E-15	1.003278E-16
3.660000E+03	1.090717E-15	1.093128E-16
3.670000E+03	1.061463E-15	1.170017E-16
3.680000E+03	1.032311E-15	1.234164E-16
3.690000E+03	1.003917E-15	1.286601E-16
3.700000E+03	9.761284E-16	1.327691E-16
3.710000E+03	9.495860E-16	1.358999E-16
3.720000E+03	9.241780E-16	1.381200E-16
3.730000E+03	9.001607E-16	1.395516E-16
3.740000E+03	8.775019E-16	1.402750E-16
3.750000E+03	8.563925E-16	1.404035E-16
3.760000E+03	8.367658E-16	1.400058E-16
3.770000E+03	8.187727E-16	1.391819E-16
3.780000E+03	8.024350E-16	1.380061E-16
3.790000E+03	7.877679E-16	1.365458E-16
3.800000E+03	7.746818E-16	1.348448E-16
3.810000E+03	7.631908E-16	1.329599E-16
3.820000E+03	7.534958E-16	1.309755E-16
3.830000E+03	7.454047E-16	1.289031E-16
3.840000E+03	7.389214E-16	1.267846E-16
3.850000E+03	7.341358E-16	1.246730E-16
3.860000E+03	7.310382E-16	1.226008E-16
3.870000E+03	7.296126E-16	1.205970E-16
3.880000E+03	7.297471E-16	1.186726E-16
3.890000E+03	7.314951E-16	1.168644E-16
3.900000E+03	7.347199E-16	1.151767E-16
3.910000E+03	7.395276E-16	1.136514E-16
3.920000E+03	7.455709E-16	1.122586E-16
3.930000E+03	7.529984E-16	1.110443E-16
3.940000E+03	7.615013E-16	1.099840E-16
3.950000E+03	7.710041E-16	1.090876E-16
3.960000E+03	7.812309E-16	1.083348E-16
3.970000E+03	7.920535E-16	1.077255E-16
3.980000E+03	8.032324E-16	1.072420E-16
3.990000E+03	8.144169E-16	1.068508E-16
4.000000E+03	8.254144E-16	1.065377E-16
4.010000E+03	8.359305E-16	1.062732E-16
4.020000E+03	8.455744E-16	1.060142E-16
4.030000E+03	8.541361E-16	1.057390E-16
4.040000E+03	8.613285E-16	1.054144E-16
4.050000E+03	8.667998E-16	1.049987E-16
4.060000E+03	8.704162E-16	1.044750E-16
4.070000E+03	8.720059E-16	1.038211E-16
4.080000E+03	8.713745E-16	1.030105E-16
4.090000E+03	8.685794E-16	1.020460E-16
4.100000E+03	8.636704E-16	1.009276E-16
4.110000E+03	8.566958E-16	9.965418E-17
4.120000E+03	8.479535E-16	9.825258E-17
4.130000E+03	8.377235E-16	9.674640E-17
4.140000E+03	8.262626E-16	9.515588E-17
4.150000E+03	8.140278E-16	9.352393E-17
4.160000E+03	8.014147E-16	9.188625E-17
4.170000E+03	7.887496E-16	9.027085E-17
4.180000E+03	7.764980E-16	8.872211E-17
4.190000E+03	7.649552E-16	8.726557E-17
4.200000E+03	7.545274E-16	8.594013E-17
4.210000E+03	7.455100E-16	8.477275E-17
4.220000E+03	7.380930E-16	8.377900E-17
4.230000E+03	7.325590E-16	8.298563E-17
4.240000E+03	7.290828E-16	8.240758E-17
4.250000E+03	7.277380E-16	8.204882E-17
4.260000E+03	7.286889E-16	8.192401E-17
4.270000E+03	7.319382E-16	8.203011E-17
4.280000E+03	7.375804E-16	8.237504E-17
4.290000E+03	7.456158E-16	8.295687E-17
4.300000E+03	7.559524E-16	8.376442E-17
4.310000E+03	7.685963E-16	8.479864E-17
4.320000E+03	7.834050E-16	8.604540E-17
4.330000E+03	8.003453E-16	8.750414E-17
4.340000E+03	8.193126E-16	8.916790E-17
4.350000E+03	8.401374E-16	9.102397E-17
4.360000E+03	8.627965E-16	9.307652E-17
4.370000E+03	8.871629E-16	9.531879E-17
4.380000E+03	9.132931E-16	9.776345E-17
4.390000E+03	9.411677E-16	1.004139E-16
4.400000E+03	9.709872E-16	1.032952E-16
4.410000E+03	1.002895E-15	1.064242E-16
4.420000E+03	1.037275E-15	1.098410E-16
4.430000E+03	1.074529E-15	1.135858E-16
4.440000E+03	1.115060E-15	1.176968E-16
4.450000E+03	1.159417E-15	1.222266E-16
4.460000E+03	1.208283E-15	1.272412E-16
4.470000E+03	1.262285E-15	1.328000E-16
4.480000E+03	1.321948E-15	1.389510E-16
4.490000E+03	1.387829E-15	1.457458E-16
4.500000E+03	1.460486E-15	1.532356E-16
4.510000E+03	1.540125E-15	1.614342E-16
4.520000E+03	1.626941E-15	1.703540E-16
4.530000E+03	1.720631E-15	1.799549E-16
4.540000E+03	1.820772E-15	1.901842E-16
4.550000E+03	1.926308E-15	2.009234E-16
4.560000E+03	2.036004E-15	2.120360E-16
4.570000E+03	2.147923E-15	2.233143E-16
4.580000E+03	2.259850E-15	2.345241E-16
4.590000E+03	2.369389E-15	2.454167E-16
4.600000E+03	2.473629E-15	2.556944E-16
4.610000E+03	2.569737E-15	2.650735E-16
4.620000E+03	2.655176E-15	2.733064E-16
4.630000E+03	2.727563E-15	2.801672E-16
4.640000E+03	2.784667E-15	2.854500E-16
4.650000E+03	2.825616E-15	2.890912E-16
4.660000E+03	2.849792E-15	2.910536E-16
4.670000E+03	2.857755E-15	2.914181E-16
4.680000E+03	2.850333E-15	2.902890E-16
4.690000E+03	2.829779E-15	2.879090E-16
4.700000E+03	2.798553E-15	2.845348E-16
4.710000E+03	2.759171E-15	2.804210E-16
4.720000E+03	2.715027E-15	2.759045E-16
4.730000E+03	2.669023E-15	2.712664E-16
4.740000E+03	2.624238E-15	2.668016E-16
4.750000E+03	2.583014E-15	2.627274E-16
4.760000E+03	2.547958E-15	2.592871E-16
4.770000E+03	2.520812E-15	2.566361E-16
4.780000E+03	2.503049E-15	2.549041E-16
4.790000E+03	2.495728E-15	2.541799E-16
4.800000E+03	2.499645E-15	2.545283E-16
4.810000E+03	2.514795E-15	2.559350E-16
4.820000E+03	2.541385E-15	2.584099E-16
4.830000E+03	2.578862E-15	2.618890E-16
4.840000E+03	2.626503E-15	2.662939E-16
4.850000E+03	2.683285E-15	2.715199E-16
4.860000E+03	2.747912E-15	2.774378E-16
4.870000E+03	2.818835E-15	2.838972E-16
4.880000E+03	2.894294E-15	2.907303E-16
4.890000E+03	2.972360E-15	2.977560E-16
4.900000E+03	3.051157E-15	3.048024E-16
4.910000E+03	3.128289E-15	3.116478E-16
4.920000E+03	3.201868E-15	3.181241E-16
4.930000E+03	3.270127E-15	3.240756E-16
4.940000E+03	3.330957E-15	3.293132E-16
4.950000E+03	3.382978E-15	3.337186E-16
4.960000E+03	3.425075E-15	3.371977E-16
4.970000E+03	3.455893E-15	3.396298E-16
4.980000E+03	3.474906E-15	3.409723E-16
4.990000E+03	3.481741E-15	3.411935E-16
5.000000E+03	3.476382E-15	3.402923E-16
5.010000E+03	3.459201E-15	3.383017E-16
5.020000E+03	3.430825E-15	3.352756E-16
5.030000E+03	3.392825E-15	3.313568E-16
5.040000E+03	3.346524E-15	3.266618E-16
5.050000E+03	3.294291E-15	3.214075E-16
5.060000E+03	3.238141E-15	3.157766E-16
5.070000E+03	3.180760E-15	3.100177E-16
5.080000E+03	3.124579E-15	3.043562E-16
5.090000E+03	3.072397E-15	2.990557E-16
5.100000E+03	3.026223E-15	2.943054E-16
5.110000E+03	2.988216E-15	2.903116E-16
5.120000E+03	2.960032E-15	2.872333E-16
5.130000E+03	2.942800E-15	2.851807E-16
5.140000E+03	2.937532E-15	2.842531E-16
5.150000E+03	2.944722E-15	2.845006E-16
5.160000E+03	2.964519E-15	2.859402E-16
5.170000E+03	2.996641E-15	2.885469E-16
5.180000E+03	3.040821E-15	2.922966E-16
5.190000E+03	3.096464E-15	2.971331E-16
5.200000E+03	3.162696E-15	3.029721E-16
5.210000E+03	3.238830E-15	3.097461E-16
5.220000E+03	3.323866E-15	3.173561E-16
5.230000E+03	3.417100E-15	3.257299E-16
5.240000E+03	3.517742E-15	3.347848E-16
5.250000E+03	3.624928E-15	3.444292E-16
5.260000E+03	3.738205E-15	3.546079E-16
5.270000E+03	3.857077E-15	3.652599E-16
5.280000E+03	3.980985E-15	3.763155E-16
5.290000E+03	4.109611E-15	3.877264E-16
5.300000E+03	4.242883E-15	3.994652E-16
5.310000E+03	4.380596E-15	4.114906E-16
5.320000E+03	4.522360E-15	4.237425E-16
5.330000E+03	4.667927E-15	4.361735E-16
5.340000E+03	4.817188E-15	4.487484E-16
5.350000E+03	4.969763E-15	4.614067E-16
5.360000E+03	5.124950E-15	4.740599E-16
5.370000E+03	5.282116E-15	4.866289E-16
5.380000E+03	5.440723E-15	4.990496E-16
5.390000E+03	5.599687E-15	5.112170E-16
5.400000E+03	5.758274E-15	5.230725E-16
5.410000E+03	5.915248E-15	5.345303E-16
5.420000E+03	6.069822E-15	5.455701E-16
5.430000E+03	6.220763E-15	5.561584E-16
5.440000E+03	6.367106E-15	5.663163E-16
5.450000E+03	6.507915E-15	5.760942E-16
5.460000E+03	6.642491E-15	5.855831E-16
5.470000E+03	6.769783E-15	5.948484E-16
5.480000E+03	6.888010E-15	6.038776E-16
5.490000E+03	6.996179E-15	6.126916E-16
5.500000E+03	7.092471E-15	6.211806E-16
5.510000E+03	7.174252E-15	6.290931E-16
5.520000E+03	7.239840E-15	6.361971E-16
5.530000E+03	7.286767E-15	6.421441E-16
5.540000E+03	7.313388E-15	6.466308E-16
5.550000E+03	7.317969E-15	6.493404E-16
5.560000E+03	7.299681E-15	6.500473E-16
5.570000E+03	7.258378E-15	6.486103E-16
5.580000E+03	7.194554E-15	6.449753E-16
5.590000E+03	7.109466E-15	6.391888E-16
5.600000E+03	7.004126E-15	6.313058E-16
5.610000E+03	6.879906E-15	6.214394E-16
5.620000E+03	6.738346E-15	6.097389E-16
5.630000E+03	6.580306E-15	5.963075E-16
5.640000E+03	6.406535E-15	5.812474E-16
5.650000E+03	6.218493E-15	5.647298E-16
5.660000E+03	6.017355E-15	5.469002E-16
5.670000E+03	5.804343E-15	5.279047E-16
5.680000E+03	5.582263E-15	5.080274E-16
5.690000E+03	5.354113E-15	4.875629E-16
5.700000E+03	5.123799E-15	4.668805E-16
5.710000E+03	4.896712E-15	4.464791E-16
5.720000E+03	4.677651E-15	4.267979E-16
5.730000E+03	4.472360E-15	4.083598E-16
5.740000E+03	4.286440E-15	3.916734E-16
5.750000E+03	4.124653E-15	3.771703E-16
5.760000E+03	3.991811E-15	3.652880E-16
5.770000E+03	3.891636E-15	3.563652E-16
5.780000E+03	3.827368E-15	3.506969E-16
5.790000E+03	3.801672E-15	3.485257E-16
5.800000E+03	3.816850E-15	3.500601E-16
5.810000E+03	3.874348E-15	3.554281E-16
5.820000E+03	3.975672E-15	3.647609E-16
5.830000E+03	4.121189E-15	3.780824E-16
5.840000E+03	4.311017E-15	3.953906E-16
5.850000E+03	4.543590E-15	4.165271E-16
5.860000E+03	4.816491E-15	4.412549E-16
5.870000E+03	5.125072E-15	4.691339E-16
5.880000E+03	5.462831E-15	4.995589E-16
5.890000E+03	5.821233E-15	5.317456E-16
5.900000E+03	6.189939E-15	5.647542E-16
5.910000E+03	6.557542E-15	5.975583E-16
5.920000E+03	6.911463E-15	6.290349E-16
5.930000E+03	7.240202E-15	6.581676E-16
5.940000E+03	7.533701E-15	6.840766E-16
5.950000E+03	7.783393E-15	7.060190E-16
5.960000E+03	7.984293E-15	7.235750E-16
5.970000E+03	8.134552E-15	7.366037E-16
5.980000E+03	8.234806E-15	7.451829E-16
5.990000E+03	8.288352E-15	7.496228E-16
6.000000E+03	8.301432E-15	7.504926E-16
6.010000E+03	8.280913E-15	7.484108E-16
6.020000E+03	8.234454E-15	7.440614E-16
6.030000E+03	8.170725E-15	7.382153E-16
6.040000E+03	8.097257E-15	7.315366E-16
6.050000E+03	8.021153E-15	7.246493E-16
6.060000E+03	7.948554E-15	7.180899E-16
6.070000E+03	7.884467E-15	7.122935E-16
6.080000E+03	7.832687E-15	7.075878E-16
6.090000E+03	7.795776E-15	7.041929E-16
6.100000E+03	7.775110E-15	7.022251E-16
6.110000E+03	7.770950E-15	7.017046E-16
6.120000E+03	7.782564E-15	7.025656E-16
6.130000E+03	7.808364E-15	7.046679E-16
6.140000E+03	7.846070E-15	7.078103E-16
6.150000E+03	7.892866E-15	7.117439E-16
6.160000E+03	7.945557E-15	7.161841E-16
6.170000E+03	8.000958E-15	7.208448E-16
6.180000E+03	8.054936E-15	7.253518E-16
6.190000E+03	8.104033E-15	7.293888E-16
6.200000E+03	8.144710E-15	7.326307E-16
6.210000E+03	8.172571E-15	7.346750E-16
6.220000E+03	8.183977E-15	7.351897E-16
6.230000E+03	8.175335E-15	7.338501E-16
6.240000E+03	8.142446E-15	7.302822E-16
6.250000E+03	8.082566E-15	7.242481E-16
6.260000E+03	7.992581E-15	7.154816E-16
6.270000E+03	7.871414E-15	7.039022E-16
6.280000E+03	7.718517E-15	6.894785E-16
6.290000E+03	7.534925E-15	6.723197E-16
6.300000E+03	7.324128E-15	6.527516E-16
6.310000E+03	7.090608E-15	6.311837E-16
6.320000E+03	6.840676E-15	6.081831E-16
6.330000E+03	6.581719E-15	5.844064E-16
6.340000E+03	6.322640E-15	5.606383E-16
6.350000E+03	6.072117E-15	5.376368E-16
6.360000E+03	5.839036E-15	5.161722E-16
6.370000E+03	5.631928E-15	4.969769E-16
6.380000E+03	5.458937E-15	4.807417E-16
6.390000E+03	5.327062E-15	4.680488E-16
6.400000E+03	5.243301E-15	4.594713E-16
6.410000E+03	5.214306E-15	4.555410E-16
6.420000E+03	5.246159E-15	4.567278E-16
6.430000E+03	5.345800E-15	4.635635E-16
6.440000E+03	5.519878E-15	4.765421E-16
6.450000E+03	5.776161E-15	4.962461E-16
6.460000E+03	6.122163E-15	5.232360E-16
6.470000E+03	6.565130E-15	5.580647E-16
6.480000E+03	7.111798E-15	6.012805E-16
6.490000E+03	7.765860E-15	6.532418E-16
6.500000E+03	8.527255E-15	7.140910E-16
6.510000E+03	9.388856E-15	7.834992E-16
6.520000E+03	1.033595E-14	8.606206E-16
6.530000E+03	1.134401E-14	9.438629E-16
6.540000E+03	1.237707E-14	1.030653E-15
6.550000E+03	1.339147E-14	1.117631E-15
6.560000E+03	1.433655E-14	1.200647E-15
6.570000E+03	1.516125E-14	1.275273E-15
6.580000E+03	1.581982E-14	1.337301E-15
6.590000E+03	1.627769E-14	1.383303E-15
6.600000E+03	1.651567E-14	1.411082E-15
6.610000E+03	1.653229E-14	1.419959E-15
6.620000E+03	1.634113E-14	1.410632E-15
6.630000E+03	1.596874E-14	1.385033E-15
6.640000E+03	1.545146E-14	1.346079E-15
6.650000E+03	1.482756E-14	1.296983E-15
6.660000E+03	1.413552E-14	1.241073E-15
6.670000E+03	1.340859E-14	1.181298E-15
6.680000E+03	1.267618E-14	1.120312E-15
6.690000E+03	1.196003E-14	1.060127E-15
6.700000E+03	1.127622E-14	1.002258E-15
6.710000E+03	1.063538E-14	9.477426E-16
6.720000E+03	1.004367E-14	8.972118E-16
6.730000E+03	9.504063E-15	8.510070E-16
6.740000E+03	9.016083E-15	8.091493E-16
6.750000E+03	8.578683E-15	7.716005E-16
6.760000E+03	8.189062E-15	7.381555E-16
6.770000E+03	7.843278E-15	7.084982E-16
6.780000E+03	7.538127E-15	6.823719E-16
6.790000E+03	7.269355E-15	6.594187E-16
6.800000E+03	7.034003E-15	6.393927E-16
6.810000E+03	6.827947E-15	6.219379E-16
6.820000E+03	6.648273E-15	6.068040E-16
6.830000E+03	6.492357E-15	5.937643E-16
6.840000E+03	6.357482E-15	5.825810E-16
6.850000E+03	6.241665E-15	5.730816E-16
6.860000E+03	6.142625E-15	5.650645E-16
6.870000E+03	6.059149E-15	5.584251E-16
6.880000E+03	5.989670E-15	5.530253E-16
6.890000E+03	5.933208E-15	5.487802E-16
6.900000E+03	5.888370E-15	5.455666E-16
6.910000E+03	5.854639E-15	5.433409E-16
6.920000E+03	5.831196E-15	5.420312E-16
6.930000E+03	5.816893E-15	5.415344E-16
6.940000E+03	5.811336E-15	5.418167E-16
6.950000E+03	5.813563E-15	5.427909E-16
6.960000E+03	5.822956E-15	5.444014E-16
6.970000E+03	5.838491E-15	5.465551E-16
6.980000E+03	5.859304E-15	5.491734E-16
6.990000E+03	5.884714E-15	5.521951E-16
7.000000E+03	5.913492E-15	5.555082E-16
7.010000E+03	5.945412E-15	5.590953E-16
7.020000E+03	5.979206E-15	5.628412E-16
7.030000E+03	6.014704E-15	5.667339E-16
7.040000E+03	6.051336E-15	5.707240E-16
7.050000E+03	6.089136E-15	5.748186E-16
7.060000E+03	6.127977E-15	5.790091E-16
7.070000E+03	6.168166E-15	5.833274E-16
7.080000E+03	6.210443E-15	5.878455E-16
7.090000E+03	6.255359E-15	5.926171E-16
7.100000E+03	6.304043E-15	5.977498E-16
7.110000E+03	6.357346E-15	6.033240E-16
7.120000E+03	6.416390E-15	6.094453E-16
7.130000E+03	6.482516E-15	6.162395E-16
7.140000E+03	6.556578E-15	6.237855E-16
7.150000E+03	6.639715E-15	6.321888E-16
7.160000E+03	6.732421E-15	6.414929E-16
7.170000E+03	6.835105E-15	6.517327E-16
7.180000E+03	6.948036E-15	6.629296E-16
7.190000E+03	7.070595E-15	6.750197E-16
7.200000E+03	7.202123E-15	6.879350E-16
7.210000E+03	7.340948E-15	7.015108E-16
7.220000E+03	7.485301E-15	7.155730E-16
7.230000E+03	7.632350E-15	7.298461E-16
7.240000E+03	7.779209E-15	7.440500E-16
7.250000E+03	7.922007E-15	7.578108E-16
7.260000E+03	8.057018E-15	7.707698E-16
7.270000E+03	8.179775E-15	7.824987E-16
7.280000E+03	8.286052E-15	7.925936E-16
7.290000E+03	8.372109E-15	8.006993E-16
7.300000E+03	8.434381E-15	8.064791E-16
7.310000E+03	8.469691E-15	8.096348E-16
7.320000E+03	8.476284E-15	8.100061E-16
7.330000E+03	8.452833E-15	8.074745E-16
7.340000E+03	8.399347E-15	8.020496E-16
7.350000E+03	8.317419E-15	7.938924E-16
7.360000E+03	8.208156E-15	7.831174E-16
7.370000E+03	8.075097E-15	7.700700E-16
7.380000E+03	7.920672E-15	7.549895E-16
7.390000E+03	7.749283E-15	7.383014E-16
7.400000E+03	7.564106E-15	7.203138E-16
7.410000E+03	7.368816E-15	7.013813E-16
7.420000E+03	7.167150E-15	6.818630E-16
7.430000E+03	6.962303E-15	6.620660E-16
7.440000E+03	6.756921E-15	6.422439E-16
7.450000E+03	6.553571E-15	6.226416E-16
7.460000E+03	6.354941E-15	6.035148E-16
7.470000E+03	6.162544E-15	5.850059E-16
7.480000E+03	5.978111E-15	5.672771E-16
7.490000E+03	5.803375E-15	5.504887E-16
7.500000E+03	5.639680E-15	5.347629E-16
7.510000E+03	5.488036E-15	5.201883E-16
7.520000E+03	5.349714E-15	5.068764E-16
7.530000E+03	5.225655E-15	4.949061E-16
7.540000E+03	5.116497E-15	4.843258E-16
7.550000E+03	5.023100E-15	4.752042E-16
7.560000E+03	4.945821E-15	4.675611E-16
7.570000E+03	4.885201E-15	4.614339E-16
7.580000E+03	4.841424E-15	4.568263E-16
7.590000E+03	4.814479E-15	4.537248E-16
7.600000E+03	4.803974E-15	4.520813E-16
7.610000E+03	4.809458E-15	4.518443E-16
7.620000E+03	4.830570E-15	4.529733E-16
7.630000E+03	4.866016E-15	4.553425E-16
7.640000E+03	4.914573E-15	4.588351E-16
7.650000E+03	4.975105E-15	4.633441E-16
7.660000E+03	5.045531E-15	4.686746E-16
7.670000E+03	5.124068E-15	4.746593E-16
7.680000E+03	5.208396E-15	4.810787E-16
7.690000E+03	5.296432E-15	4.877324E-16
7.700000E+03	5.385864E-15	4.943944E-16
7.710000E+03	5.474206E-15	5.008195E-16
7.720000E+03	5.559674E-15	5.068233E-16
7.730000E+03	5.639893E-15	5.121669E-16
7.740000E+03	5.713160E-15	5.166742E-16
7.750000E+03	5.778555E-15	5.202440E-16
7.760000E+03	5.834762E-15	5.227451E-16
