#wls	flux	fluxerr
1.600000E+03	8.887738E-17	1.405291E-16
1.640000E+03	8.995554E-17	1.417949E-16
1.680000E+03	9.105289E-17	1.430426E-16
1.720000E+03	9.217112E-17	1.442703E-16
1.760000E+03	9.337104E-17	1.455679E-16
1.800000E+03	9.459605E-17	1.468410E-16
1.840000E+03	9.584838E-17	1.480872E-16
1.880000E+03	9.719007E-17	1.493954E-16
1.920000E+03	9.856471E-17	1.506711E-16
1.960000E+03	1.000353E-16	1.520023E-16
2.000000E+03	1.014856E-16	1.532032E-16
2.040000E+03	1.030999E-16	1.545432E-16
2.080000E+03	1.047018E-16	1.557457E-16
2.120000E+03	1.064171E-16	1.569878E-16
2.160000E+03	1.082521E-16	1.582644E-16
2.200000E+03	1.101517E-16	1.594802E-16
2.240000E+03	1.121224E-16	1.606302E-16
2.280000E+03	1.142341E-16	1.617980E-16
2.320000E+03	1.164332E-16	1.628880E-16
2.360000E+03	1.187287E-16	1.638942E-16
2.400000E+03	1.212597E-16	1.649849E-16
2.440000E+03	1.238465E-16	1.658891E-16
2.480000E+03	1.266320E-16	1.667735E-16
2.520000E+03	1.296332E-16	1.676281E-16
2.560000E+03	1.327358E-16	1.682719E-16
2.600000E+03	1.361612E-16	1.689503E-16
2.640000E+03	1.398000E-16	1.694811E-16
2.680000E+03	1.436792E-16	1.698528E-16
2.720000E+03	1.479011E-16	1.701343E-16
2.760000E+03	1.525058E-16	1.703085E-16
2.800000E+03	1.574667E-16	1.702763E-16
2.840000E+03	1.628347E-16	1.700189E-16
2.880000E+03	1.687469E-16	1.695919E-16
2.920000E+03	1.752011E-16	1.688892E-16
2.960000E+03	1.823633E-16	1.679535E-16
3.000000E+03	1.903409E-16	1.667402E-16
3.010000E+03	1.924218E-16	1.663393E-16
3.020000E+03	1.946423E-16	1.659850E-16
3.030000E+03	1.968355E-16	1.655310E-16
3.040000E+03	1.991741E-16	1.651207E-16
3.050000E+03	2.014882E-16	1.646092E-16
3.060000E+03	2.039540E-16	1.641381E-16
3.070000E+03	2.064873E-16	1.636344E-16
3.080000E+03	2.090012E-16	1.630267E-16
3.090000E+03	2.116764E-16	1.624537E-16
3.100000E+03	2.144271E-16	1.618432E-16
3.110000E+03	2.172557E-16	1.611935E-16
3.120000E+03	2.201652E-16	1.605025E-16
3.130000E+03	2.230644E-16	1.597007E-16
3.140000E+03	2.261429E-16	1.589210E-16
3.150000E+03	2.293106E-16	1.580931E-16
3.160000E+03	2.325702E-16	1.572141E-16
3.170000E+03	2.359246E-16	1.562811E-16
3.180000E+03	2.393763E-16	1.552910E-16
3.190000E+03	2.429279E-16	1.542403E-16
3.200000E+03	2.465819E-16	1.531252E-16
3.210000E+03	2.503403E-16	1.519420E-16
3.220000E+03	2.543090E-16	1.507477E-16
3.230000E+03	2.582832E-16	1.494139E-16
3.240000E+03	2.623665E-16	1.479980E-16
3.250000E+03	2.665600E-16	1.464947E-16
3.260000E+03	2.708635E-16	1.448984E-16
3.270000E+03	2.753875E-16	1.432607E-16
3.280000E+03	2.799105E-16	1.414591E-16
3.290000E+03	2.845398E-16	1.395455E-16
3.300000E+03	2.893873E-16	1.375676E-16
3.310000E+03	2.942196E-16	1.354076E-16
3.320000E+03	2.992630E-16	1.331662E-16
3.330000E+03	3.042753E-16	1.307293E-16
3.340000E+03	3.094857E-16	1.281931E-16
3.350000E+03	3.146422E-16	1.254476E-16
3.360000E+03	3.199767E-16	1.225843E-16
3.370000E+03	3.253532E-16	1.195450E-16
3.380000E+03	3.306268E-16	1.162771E-16
3.390000E+03	3.360331E-16	1.128653E-16
3.400000E+03	3.414246E-16	1.092570E-16
3.410000E+03	3.467784E-16	1.054472E-16
3.420000E+03	3.519353E-16	1.013934E-16
3.430000E+03	3.571370E-16	9.717304E-17
3.440000E+03	3.622241E-16	9.274576E-17
3.450000E+03	3.671702E-16	8.811425E-17
3.460000E+03	3.719505E-16	8.328416E-17
3.470000E+03	3.765426E-16	7.826462E-17
3.480000E+03	3.809287E-16	7.306884E-17
3.490000E+03	3.850975E-16	6.771488E-17
3.500000E+03	3.890465E-16	6.222669E-17
3.510000E+03	3.927848E-16	5.663573E-17
3.520000E+03	3.963361E-16	5.098364E-17
3.530000E+03	3.997417E-16	4.532709E-17
3.540000E+03	4.030635E-16	3.974675E-17
3.550000E+03	4.065352E-16	3.437698E-17
3.560000E+03	4.099692E-16	2.938573E-17
3.570000E+03	4.136448E-16	2.510942E-17
3.580000E+03	4.177077E-16	2.205187E-17
3.590000E+03	4.224494E-16	2.083582E-17
3.600000E+03	4.276515E-16	2.179331E-17
3.610000E+03	4.334468E-16	2.466233E-17
3.620000E+03	4.398925E-16	2.883634E-17
3.630000E+03	4.465450E-16	3.375316E-17
3.640000E+03	4.535873E-16	3.907590E-17
3.650000E+03	4.605770E-16	4.455527E-17
3.660000E+03	4.677328E-16	5.007777E-17
3.670000E+03	4.746414E-16	5.551271E-17
3.680000E+03	4.815692E-16	6.082738E-17
3.690000E+03	4.883055E-16	6.595208E-17
3.700000E+03	4.946505E-16	7.082287E-17
3.710000E+03	5.009359E-16	7.545812E-17
3.720000E+03	5.069949E-16	7.981359E-17
3.730000E+03	5.126674E-16	8.384614E-17
3.740000E+03	5.183324E-16	8.760402E-17
3.750000E+03	5.238507E-16	9.105646E-17
3.760000E+03	5.292653E-16	9.420449E-17
3.770000E+03	5.346246E-16	9.705264E-17
3.780000E+03	5.397974E-16	9.957437E-17
3.790000E+03	5.452021E-16	1.018456E-16
3.800000E+03	5.507115E-16	1.038436E-16
3.810000E+03	5.563792E-16	1.055793E-16
3.820000E+03	5.622568E-16	1.070635E-16
3.830000E+03	5.683929E-16	1.083064E-16
3.840000E+03	5.748315E-16	1.093173E-16
3.850000E+03	5.816116E-16	1.101039E-16
3.860000E+03	5.887659E-16	1.106727E-16
3.870000E+03	5.963202E-16	1.110283E-16
3.880000E+03	6.044901E-16	1.112102E-16
3.890000E+03	6.128915E-16	1.111469E-16
3.900000E+03	6.217207E-16	1.108753E-16
3.910000E+03	6.309687E-16	1.103951E-16
3.920000E+03	6.406170E-16	1.097058E-16
3.930000E+03	6.508462E-16	1.088426E-16
3.940000E+03	6.612013E-16	1.077366E-16
3.950000E+03	6.718408E-16	1.064277E-16
3.960000E+03	6.829245E-16	1.049571E-16
3.970000E+03	6.939524E-16	1.032704E-16
3.980000E+03	7.050639E-16	1.014204E-16
3.990000E+03	7.164020E-16	9.946383E-17
4.000000E+03	7.274263E-16	9.736955E-17
4.010000E+03	7.384949E-16	9.523763E-17
4.020000E+03	7.490434E-16	9.304907E-17
4.030000E+03	7.594278E-16	9.090429E-17
4.040000E+03	7.690612E-16	8.878377E-17
4.050000E+03	7.782980E-16	8.677534E-17
4.060000E+03	7.865334E-16	8.484891E-17
4.070000E+03	7.941241E-16	8.307408E-17
4.080000E+03	8.004569E-16	8.140875E-17
4.090000E+03	8.058992E-16	7.990814E-17
4.100000E+03	8.098487E-16	7.852409E-17
4.110000E+03	8.127100E-16	7.730392E-17
4.120000E+03	8.141835E-16	7.622022E-17
4.130000E+03	8.140189E-16	7.524542E-17
4.140000E+03	8.127605E-16	7.441878E-17
4.150000E+03	8.102746E-16	7.370946E-17
4.160000E+03	8.067314E-16	7.310829E-17
4.170000E+03	8.021077E-16	7.258277E-17
4.180000E+03	7.971274E-16	7.216321E-17
4.190000E+03	7.918053E-16	7.181204E-17
4.200000E+03	7.863972E-16	7.151157E-17
4.210000E+03	7.811493E-16	7.124312E-17
4.220000E+03	7.760648E-16	7.096752E-17
4.230000E+03	7.718135E-16	7.071029E-17
4.240000E+03	7.683585E-16	7.043812E-17
4.250000E+03	7.658726E-16	7.014353E-17
4.260000E+03	7.645083E-16	6.982415E-17
4.270000E+03	7.643974E-16	6.948221E-17
4.280000E+03	7.656511E-16	6.912368E-17
4.290000E+03	7.683599E-16	6.875719E-17
4.300000E+03	7.725943E-16	6.839299E-17
4.310000E+03	7.784056E-16	6.804223E-17
4.320000E+03	7.858291E-16	6.771712E-17
4.330000E+03	7.948883E-16	6.743127E-17
4.340000E+03	8.055992E-16	6.720020E-17
4.350000E+03	8.179754E-16	6.704174E-17
4.360000E+03	8.320342E-16	6.697618E-17
4.370000E+03	8.478030E-16	6.702583E-17
4.380000E+03	8.653271E-16	6.721428E-17
4.390000E+03	8.846793E-16	6.756511E-17
4.400000E+03	9.059702E-16	6.810014E-17
4.410000E+03	9.293565E-16	6.883811E-17
4.420000E+03	9.550489E-16	6.979329E-17
4.430000E+03	9.833178E-16	7.097448E-17
4.440000E+03	1.014497E-15	7.238515E-17
4.450000E+03	1.048982E-15	7.402404E-17
4.460000E+03	1.087229E-15	7.588588E-17
4.470000E+03	1.129741E-15	7.796288E-17
4.480000E+03	1.177051E-15	8.024597E-17
4.490000E+03	1.230019E-15	8.274789E-17
4.500000E+03	1.288482E-15	8.541536E-17
4.510000E+03	1.353134E-15	8.826074E-17
4.520000E+03	1.424162E-15	9.127315E-17
4.530000E+03	1.501475E-15	9.443779E-17
4.540000E+03	1.584612E-15	9.773171E-17
4.550000E+03	1.672657E-15	1.011197E-16
4.560000E+03	1.764683E-15	1.045798E-16
4.570000E+03	1.857939E-15	1.079938E-16
4.580000E+03	1.950668E-15	1.113099E-16
4.590000E+03	2.040448E-15	1.144403E-16
4.600000E+03	2.124828E-15	1.172938E-16
4.610000E+03	2.201509E-15	1.197838E-16
4.620000E+03	2.268497E-15	1.218373E-16
4.630000E+03	2.324809E-15	1.234353E-16
4.640000E+03	2.368141E-15	1.244911E-16
4.650000E+03	2.398503E-15	1.250462E-16
4.660000E+03	2.415868E-15	1.251435E-16
4.670000E+03	2.420775E-15	1.248545E-16
4.680000E+03	2.414323E-15	1.242741E-16
4.690000E+03	2.398143E-15	1.235129E-16
4.700000E+03	2.374931E-15	1.227207E-16
4.710000E+03	2.345924E-15	1.219599E-16
4.720000E+03	2.314409E-15	1.213900E-16
4.730000E+03	2.283165E-15	1.211369E-16
4.740000E+03	2.254968E-15	1.213173E-16
4.750000E+03	2.232499E-15	1.220283E-16
4.760000E+03	2.218241E-15	1.233366E-16
4.770000E+03	2.214371E-15	1.252698E-16
4.780000E+03	2.222634E-15	1.278093E-16
4.790000E+03	2.244268E-15	1.308888E-16
4.800000E+03	2.280565E-15	1.344390E-16
4.810000E+03	2.330645E-15	1.382733E-16
4.820000E+03	2.394805E-15	1.423011E-16
4.830000E+03	2.472286E-15	1.464100E-16
4.840000E+03	2.561808E-15	1.505093E-16
4.850000E+03	2.661574E-15	1.545359E-16
4.860000E+03	2.769309E-15	1.584571E-16
4.870000E+03	2.882363E-15	1.622635E-16
4.880000E+03	2.997834E-15	1.659561E-16
4.890000E+03	3.112678E-15	1.695290E-16
4.900000E+03	3.223838E-15	1.729518E-16
4.910000E+03	3.328399E-15	1.761582E-16
4.920000E+03	3.422962E-15	1.790093E-16
4.930000E+03	3.507106E-15	1.814825E-16
4.940000E+03	3.578684E-15	1.834369E-16
4.950000E+03	3.637057E-15	1.848006E-16
4.960000E+03	3.682179E-15	1.855368E-16
4.970000E+03	3.714345E-15	1.856409E-16
4.980000E+03	3.733810E-15	1.851307E-16
4.990000E+03	3.739529E-15	1.839865E-16
5.000000E+03	3.732489E-15	1.823116E-16
5.010000E+03	3.710623E-15	1.800730E-16
5.020000E+03	3.672764E-15	1.772827E-16
5.030000E+03	3.617451E-15	1.739219E-16
5.040000E+03	3.546786E-15	1.701177E-16
5.050000E+03	3.461691E-15	1.659077E-16
5.060000E+03	3.364589E-15	1.613704E-16
5.070000E+03	3.261386E-15	1.567303E-16
5.080000E+03	3.156251E-15	1.521190E-16
5.090000E+03	3.053582E-15	1.476772E-16
5.100000E+03	2.959553E-15	1.436369E-16
5.110000E+03	2.876837E-15	1.400681E-16
5.120000E+03	2.809904E-15	1.371365E-16
5.130000E+03	2.759609E-15	1.348469E-16
5.140000E+03	2.728361E-15	1.333002E-16
5.150000E+03	2.715081E-15	1.324470E-16
5.160000E+03	2.720279E-15	1.323337E-16
5.170000E+03	2.741216E-15	1.328597E-16
5.180000E+03	2.776925E-15	1.340156E-16
5.190000E+03	2.823479E-15	1.356487E-16
5.200000E+03	2.878553E-15	1.376792E-16
5.210000E+03	2.939174E-15	1.399873E-16
5.220000E+03	3.003149E-15	1.424830E-16
5.230000E+03	3.066507E-15	1.449881E-16
5.240000E+03	3.127545E-15	1.474300E-16
5.250000E+03	3.184283E-15	1.497233E-16
5.260000E+03	3.235189E-15	1.518040E-16
5.270000E+03	3.279245E-15	1.536303E-16
5.280000E+03	3.316709E-15	1.552177E-16
5.290000E+03	3.346215E-15	1.565027E-16
5.300000E+03	3.369085E-15	1.575419E-16
5.310000E+03	3.386355E-15	1.583740E-16
5.320000E+03	3.398652E-15	1.590140E-16
5.330000E+03	3.409051E-15	1.595843E-16
5.340000E+03	3.418572E-15	1.601064E-16
5.350000E+03	3.429074E-15	1.606364E-16
5.360000E+03	3.442446E-15	1.612282E-16
5.370000E+03	3.460519E-15	1.619349E-16
5.380000E+03	3.484206E-15	1.627741E-16
5.390000E+03	3.516371E-15	1.638647E-16
5.400000E+03	3.557267E-15	1.652176E-16
5.410000E+03	3.606658E-15	1.668363E-16
5.420000E+03	3.666106E-15	1.688196E-16
5.430000E+03	3.733644E-15	1.711142E-16
5.440000E+03	3.810069E-15	1.738007E-16
5.450000E+03	3.892731E-15	1.768013E-16
5.460000E+03	3.981142E-15	1.801334E-16
5.470000E+03	4.074653E-15	1.837978E-16
5.480000E+03	4.169758E-15	1.876528E-16
5.490000E+03	4.265052E-15	1.916405E-16
5.500000E+03	4.358609E-15	1.956692E-16
5.510000E+03	4.445167E-15	1.994894E-16
5.520000E+03	4.521733E-15	2.029563E-16
5.530000E+03	4.584377E-15	2.058930E-16
5.540000E+03	4.629613E-15	2.081493E-16
5.550000E+03	4.654896E-15	2.096151E-16
5.560000E+03	4.659011E-15	2.102248E-16
5.570000E+03	4.642235E-15	2.099544E-16
5.580000E+03	4.606170E-15	2.088193E-16
5.590000E+03	4.553332E-15	2.068675E-16
5.600000E+03	4.485727E-15	2.041280E-16
5.610000E+03	4.408057E-15	2.007709E-16
5.620000E+03	4.321705E-15	1.968433E-16
5.630000E+03	4.227323E-15	1.923888E-16
5.640000E+03	4.127274E-15	1.875607E-16
5.650000E+03	4.019644E-15	1.823449E-16
5.660000E+03	3.905317E-15	1.768723E-16
5.670000E+03	3.781798E-15	1.711271E-16
5.680000E+03	3.650177E-15	1.652492E-16
5.690000E+03	3.509339E-15	1.592549E-16
5.700000E+03	3.361583E-15	1.532837E-16
5.710000E+03	3.210327E-15	1.474872E-16
5.720000E+03	3.058152E-15	1.419377E-16
5.730000E+03	2.910483E-15	1.368040E-16
5.740000E+03	2.772517E-15	1.322234E-16
5.750000E+03	2.649502E-15	1.283273E-16
5.760000E+03	2.546353E-15	1.252404E-16
5.770000E+03	2.467404E-15	1.230804E-16
5.780000E+03	2.416372E-15	1.219595E-16
5.790000E+03	2.396466E-15	1.219907E-16
5.800000E+03	2.410063E-15	1.232679E-16
5.810000E+03	2.460732E-15	1.259620E-16
5.820000E+03	2.550407E-15	1.301666E-16
5.830000E+03	2.680582E-15	1.359509E-16
5.840000E+03	2.853512E-15	1.434183E-16
5.850000E+03	3.067939E-15	1.524947E-16
5.860000E+03	3.322763E-15	1.631239E-16
5.870000E+03	3.611542E-15	1.750048E-16
5.880000E+03	3.926245E-15	1.877923E-16
5.890000E+03	4.254794E-15	2.009840E-16
5.900000E+03	4.583243E-15	2.140238E-16
5.910000E+03	4.893615E-15	2.261954E-16
5.920000E+03	5.171039E-15	2.369407E-16
5.930000E+03	5.402404E-15	2.457735E-16
5.940000E+03	5.578724E-15	2.523740E-16
5.950000E+03	5.695864E-15	2.566113E-16
5.960000E+03	5.753373E-15	2.584846E-16
5.970000E+03	5.758243E-15	2.582991E-16
5.980000E+03	5.717094E-15	2.563228E-16
5.990000E+03	5.639480E-15	2.529416E-16
6.000000E+03	5.534736E-15	2.485295E-16
6.010000E+03	5.415552E-15	2.436150E-16
6.020000E+03	5.289885E-15	2.385199E-16
6.030000E+03	5.168976E-15	2.337234E-16
6.040000E+03	5.058776E-15	2.294752E-16
6.050000E+03	4.966898E-15	2.261023E-16
6.060000E+03	4.898507E-15	2.238198E-16
6.070000E+03	4.858270E-15	2.228123E-16
6.080000E+03	4.846687E-15	2.230610E-16
6.090000E+03	4.865789E-15	2.246080E-16
6.100000E+03	4.915470E-15	2.273965E-16
6.110000E+03	4.994487E-15	2.313211E-16
6.120000E+03	5.099597E-15	2.361979E-16
6.130000E+03	5.229583E-15	2.419581E-16
6.140000E+03	5.379689E-15	2.483939E-16
6.150000E+03	5.544705E-15	2.553041E-16
6.160000E+03	5.722598E-15	2.626561E-16
6.170000E+03	5.908672E-15	2.703063E-16
6.180000E+03	6.098770E-15	2.781422E-16
6.190000E+03	6.291694E-15	2.861815E-16
6.200000E+03	6.486913E-15	2.944554E-16
6.210000E+03	6.680220E-15	3.028092E-16
6.220000E+03	6.870189E-15	3.111931E-16
6.230000E+03	7.052629E-15	3.194084E-16
6.240000E+03	7.221351E-15	3.271509E-16
6.250000E+03	7.368101E-15	3.340157E-16
6.260000E+03	7.482951E-15	3.395189E-16
6.270000E+03	7.555263E-15	3.431497E-16
6.280000E+03	7.575096E-15	3.444378E-16
6.290000E+03	7.534751E-15	3.430200E-16
6.300000E+03	7.428782E-15	3.386401E-16
6.310000E+03	7.260620E-15	3.314470E-16
6.320000E+03	7.033304E-15	3.215642E-16
6.330000E+03	6.760191E-15	3.095801E-16
6.340000E+03	6.453454E-15	2.960257E-16
6.350000E+03	6.131860E-15	2.817340E-16
6.360000E+03	5.815047E-15	2.675918E-16
6.370000E+03	5.519042E-15	2.543418E-16
6.380000E+03	5.262021E-15	2.428469E-16
6.390000E+03	5.059483E-15	2.338679E-16
6.400000E+03	4.925757E-15	2.281265E-16
6.410000E+03	4.875013E-15	2.263429E-16
6.420000E+03	4.922749E-15	2.292990E-16
6.430000E+03	5.087630E-15	2.379155E-16
6.440000E+03	5.392583E-15	2.532908E-16
6.450000E+03	5.870827E-15	2.769723E-16
6.460000E+03	6.560628E-15	3.106826E-16
6.470000E+03	7.514662E-15	3.567099E-16
6.480000E+03	8.789798E-15	4.173573E-16
6.490000E+03	1.045334E-14	4.951659E-16
6.500000E+03	1.256048E-14	5.918007E-16
6.510000E+03	1.514830E-14	7.078312E-16
6.520000E+03	1.820375E-14	8.414683E-16
6.530000E+03	2.163625E-14	9.877107E-16
6.540000E+03	2.525452E-14	1.137743E-15
6.550000E+03	2.876545E-14	1.279209E-15
6.560000E+03	3.180890E-14	1.397834E-15
6.570000E+03	3.402727E-14	1.480195E-15
6.580000E+03	3.515167E-14	1.516844E-15
6.590000E+03	3.507177E-14	1.504624E-15
6.600000E+03	3.385281E-14	1.447007E-15
6.610000E+03	3.173005E-14	1.353853E-15
6.620000E+03	2.899825E-14	1.236971E-15
6.630000E+03	2.598432E-14	1.109385E-15
6.640000E+03	2.294587E-14	9.813035E-16
6.650000E+03	2.007973E-14	8.606019E-16
6.660000E+03	1.749930E-14	7.518617E-16
6.670000E+03	1.525344E-14	6.570984E-16
6.680000E+03	1.334571E-14	5.764900E-16
6.690000E+03	1.175256E-14	5.091037E-16
6.700000E+03	1.043733E-14	4.534523E-16
6.710000E+03	9.359357E-15	4.078648E-16
6.720000E+03	8.479407E-15	3.707175E-16
6.730000E+03	7.762284E-15	3.405469E-16
6.740000E+03	7.176429E-15	3.160295E-16
6.750000E+03	6.699218E-15	2.962228E-16
6.760000E+03	6.307210E-15	2.801383E-16
6.770000E+03	5.985714E-15	2.671631E-16
6.780000E+03	5.718626E-15	2.566122E-16
6.790000E+03	5.495901E-15	2.480608E-16
6.800000E+03	5.309549E-15	2.411626E-16
6.810000E+03	5.150534E-15	2.355088E-16
6.820000E+03	5.014417E-15	2.308826E-16
6.830000E+03	4.897191E-15	2.270688E-16
6.840000E+03	4.796129E-15	2.238973E-16
6.850000E+03	4.709636E-15	2.212435E-16
6.860000E+03	4.637081E-15	2.190276E-16
6.870000E+03	4.577711E-15	2.171774E-16
6.880000E+03	4.533725E-15	2.157852E-16
6.890000E+03	4.505000E-15	2.148606E-16
6.900000E+03	4.491437E-15	2.144370E-16
6.910000E+03	4.495214E-15	2.146697E-16
6.920000E+03	4.514954E-15	2.155452E-16
6.930000E+03	4.551387E-15	2.171454E-16
6.940000E+03	4.604907E-15	2.195250E-16
6.950000E+03	4.673015E-15	2.225853E-16
6.960000E+03	4.755289E-15	2.263127E-16
6.970000E+03	4.850033E-15	2.306207E-16
6.980000E+03	4.955091E-15	2.353904E-16
6.990000E+03	5.067880E-15	2.404802E-16
7.000000E+03	5.185463E-15	2.457358E-16
7.010000E+03	5.304674E-15	2.510006E-16
7.020000E+03	5.421295E-15	2.560824E-16
7.030000E+03	5.534199E-15	2.609513E-16
7.040000E+03	5.639737E-15	2.654703E-16
7.050000E+03	5.734817E-15	2.695409E-16
7.060000E+03	5.820350E-15	2.732589E-16
7.070000E+03	5.894177E-15	2.765728E-16
7.080000E+03	5.958550E-15	2.796306E-16
7.090000E+03	6.017106E-15	2.826322E-16
7.100000E+03	6.071473E-15	2.856620E-16
7.110000E+03	6.127567E-15	2.889875E-16
7.120000E+03	6.190899E-15	2.928409E-16
7.130000E+03	6.267401E-15	2.974601E-16
7.140000E+03	6.363293E-15	3.030930E-16
7.150000E+03	6.485065E-15	3.100060E-16
7.160000E+03	6.639489E-15	3.184873E-16
7.170000E+03	6.833603E-15	3.288505E-16
7.180000E+03	7.073329E-15	3.413661E-16
7.190000E+03	7.368360E-15	3.564886E-16
7.200000E+03	7.724144E-15	3.744648E-16
7.210000E+03	8.144687E-15	3.954566E-16
7.220000E+03	8.636113E-15	4.196984E-16
7.230000E+03	9.194956E-15	4.469201E-16
7.240000E+03	9.816943E-15	4.767690E-16
7.250000E+03	1.049107E-14	5.085290E-16
7.260000E+03	1.119215E-14	5.408000E-16
7.270000E+03	1.189139E-14	5.720786E-16
7.280000E+03	1.255009E-14	6.005121E-16
7.290000E+03	1.312439E-14	6.241724E-16
7.300000E+03	1.357039E-14	6.412904E-16
7.310000E+03	1.385048E-14	6.504949E-16
7.320000E+03	1.393934E-14	6.510130E-16
7.330000E+03	1.382832E-14	6.427783E-16
7.340000E+03	1.352428E-14	6.263016E-16
7.350000E+03	1.305730E-14	6.030154E-16
7.360000E+03	1.246051E-14	5.743682E-16
7.370000E+03	1.177213E-14	5.419637E-16
7.380000E+03	1.103601E-14	5.076501E-16
7.390000E+03	1.028210E-14	4.726641E-16
7.400000E+03	9.539114E-15	4.382293E-16
7.410000E+03	8.827120E-15	4.052231E-16
7.420000E+03	8.153777E-15	3.739968E-16
7.430000E+03	7.525898E-15	3.448909E-16
7.440000E+03	6.944369E-15	3.179962E-16
7.450000E+03	6.407608E-15	2.933032E-16
7.460000E+03	5.912907E-15	2.707536E-16
7.470000E+03	5.457410E-15	2.502812E-16
7.480000E+03	5.038748E-15	2.318330E-16
7.490000E+03	4.655321E-15	2.153715E-16
7.500000E+03	4.306316E-15	2.008711E-16
7.510000E+03	3.991584E-15	1.883058E-16
7.520000E+03	3.710733E-15	1.776013E-16
7.530000E+03	3.465663E-15	1.687608E-16
7.540000E+03	3.256095E-15	1.616579E-16
7.550000E+03	3.081761E-15	1.561478E-16
7.560000E+03	2.943909E-15	1.521589E-16
7.570000E+03	2.841263E-15	1.494989E-16
7.580000E+03	2.774093E-15	1.480648E-16
7.590000E+03	2.742620E-15	1.477660E-16
7.600000E+03	2.745683E-15	1.484549E-16
7.610000E+03	2.783849E-15	1.500966E-16
7.620000E+03	2.857324E-15	1.526625E-16
7.630000E+03	2.966271E-15	1.561584E-16
7.640000E+03	3.110433E-15	1.606175E-16
7.650000E+03	3.288515E-15	1.660783E-16
7.660000E+03	3.497376E-15	1.725457E-16
7.670000E+03	3.731266E-15	1.799493E-16
7.680000E+03	3.981433E-15	1.881151E-16
7.690000E+03	4.236325E-15	1.967482E-16
7.700000E+03	4.482386E-15	2.054295E-16
7.710000E+03	4.704529E-15	2.135989E-16
7.720000E+03	4.891376E-15	2.207645E-16
7.730000E+03	5.031759E-15	2.263385E-16
7.740000E+03	5.118252E-15	2.298321E-16
7.750000E+03	5.150512E-15	2.310569E-16
7.760000E+03	5.128321E-15	2.298575E-16
