#wls	flux	fluxerr
1.600000E+03	1.102022E-17	1.019532E-17
1.640000E+03	1.110344E-17	1.024213E-17
1.680000E+03	1.118971E-17	1.029086E-17
1.720000E+03	1.127936E-17	1.034179E-17
1.760000E+03	1.137474E-17	1.039702E-17
1.800000E+03	1.147242E-17	1.045334E-17
1.840000E+03	1.157679E-17	1.051470E-17
1.880000E+03	1.168450E-17	1.057796E-17
1.920000E+03	1.180012E-17	1.064712E-17
1.960000E+03	1.192436E-17	1.072270E-17
2.000000E+03	1.205600E-17	1.080341E-17
2.040000E+03	1.219586E-17	1.088978E-17
2.080000E+03	1.234686E-17	1.098420E-17
2.120000E+03	1.250795E-17	1.108545E-17
2.160000E+03	1.268225E-17	1.119599E-17
2.200000E+03	1.287092E-17	1.131645E-17
2.240000E+03	1.307522E-17	1.144752E-17
2.280000E+03	1.329438E-17	1.158804E-17
2.320000E+03	1.353194E-17	1.174053E-17
2.360000E+03	1.379164E-17	1.190759E-17
2.400000E+03	1.407084E-17	1.208619E-17
2.440000E+03	1.437576E-17	1.228084E-17
2.480000E+03	1.470619E-17	1.249036E-17
2.520000E+03	1.506429E-17	1.271548E-17
2.560000E+03	1.545240E-17	1.295690E-17
2.600000E+03	1.587550E-17	1.321730E-17
2.640000E+03	1.633653E-17	1.349744E-17
2.680000E+03	1.683628E-17	1.379600E-17
2.720000E+03	1.738077E-17	1.411570E-17
2.760000E+03	1.797404E-17	1.445724E-17
2.800000E+03	1.862060E-17	1.482128E-17
2.840000E+03	1.932274E-17	1.520627E-17
2.880000E+03	2.009158E-17	1.561706E-17
2.920000E+03	2.093081E-17	1.605197E-17
2.960000E+03	2.184460E-17	1.650908E-17
3.000000E+03	2.285004E-17	1.699533E-17
3.010000E+03	2.311517E-17	1.712024E-17
3.020000E+03	2.338578E-17	1.724623E-17
3.030000E+03	2.366200E-17	1.737331E-17
3.040000E+03	2.394720E-17	1.750380E-17
3.050000E+03	2.423837E-17	1.763536E-17
3.060000E+03	2.453566E-17	1.776797E-17
3.070000E+03	2.483924E-17	1.790162E-17
3.080000E+03	2.515260E-17	1.803867E-17
3.090000E+03	2.547264E-17	1.817673E-17
3.100000E+03	2.579952E-17	1.831577E-17
3.110000E+03	2.613344E-17	1.845576E-17
3.120000E+03	2.647456E-17	1.859668E-17
3.130000E+03	2.682660E-17	1.874093E-17
3.140000E+03	2.718629E-17	1.888604E-17
3.150000E+03	2.755384E-17	1.903198E-17
3.160000E+03	2.792946E-17	1.917870E-17
3.170000E+03	2.831335E-17	1.932615E-17
3.180000E+03	2.870942E-17	1.947679E-17
3.190000E+03	2.911428E-17	1.962806E-17
3.200000E+03	2.952814E-17	1.977990E-17
3.210000E+03	2.995124E-17	1.993226E-17
3.220000E+03	3.038768E-17	2.008759E-17
3.230000E+03	3.083391E-17	2.024330E-17
3.240000E+03	3.129019E-17	2.039930E-17
3.250000E+03	3.175678E-17	2.055549E-17
3.260000E+03	3.223796E-17	2.071438E-17
3.270000E+03	3.272596E-17	2.087067E-17
3.280000E+03	3.322918E-17	2.102945E-17
3.290000E+03	3.374386E-17	2.118801E-17
3.300000E+03	3.427449E-17	2.134885E-17
3.310000E+03	3.481296E-17	2.150657E-17
3.320000E+03	3.536805E-17	2.166630E-17
3.330000E+03	3.593583E-17	2.182526E-17
3.340000E+03	3.651658E-17	2.198326E-17
3.350000E+03	3.711512E-17	2.214282E-17
3.360000E+03	3.772733E-17	2.230108E-17
3.370000E+03	3.835354E-17	2.245784E-17
3.380000E+03	3.899404E-17	2.261288E-17
3.390000E+03	3.964912E-17	2.276598E-17
3.400000E+03	4.032391E-17	2.291962E-17
3.410000E+03	4.100915E-17	2.306810E-17
3.420000E+03	4.171974E-17	2.321937E-17
3.430000E+03	4.244140E-17	2.336493E-17
3.440000E+03	4.317927E-17	2.350721E-17
3.450000E+03	4.393878E-17	2.364867E-17
3.460000E+03	4.471523E-17	2.378623E-17
3.470000E+03	4.550889E-17	2.391954E-17
3.480000E+03	4.632003E-17	2.404824E-17
3.490000E+03	4.715433E-17	2.417473E-17
3.500000E+03	4.800678E-17	2.429583E-17
3.510000E+03	4.887759E-17	2.441112E-17
3.520000E+03	4.976700E-17	2.452017E-17
3.530000E+03	5.067518E-17	2.462253E-17
3.540000E+03	5.160816E-17	2.472051E-17
3.550000E+03	5.256043E-17	2.481084E-17
3.560000E+03	5.353210E-17	2.489299E-17
3.570000E+03	5.452328E-17	2.496643E-17
3.580000E+03	5.553402E-17	2.503062E-17
3.590000E+03	5.657063E-17	2.508778E-17
3.600000E+03	5.762701E-17	2.513453E-17
3.610000E+03	5.870309E-17	2.517025E-17
3.620000E+03	5.979877E-17	2.519435E-17
3.630000E+03	6.091388E-17	2.520617E-17
3.640000E+03	6.205495E-17	2.520783E-17
3.650000E+03	6.321515E-17	2.519589E-17
3.660000E+03	6.439412E-17	2.516968E-17
3.670000E+03	6.559144E-17	2.512853E-17
3.680000E+03	6.680659E-17	2.507175E-17
3.690000E+03	6.804624E-17	2.500133E-17
3.700000E+03	6.930264E-17	2.491387E-17
3.710000E+03	7.057502E-17	2.480870E-17
3.720000E+03	7.186246E-17	2.468515E-17
3.730000E+03	7.316398E-17	2.454256E-17
3.740000E+03	7.447844E-17	2.438030E-17
3.750000E+03	7.581249E-17	2.420029E-17
3.760000E+03	7.715707E-17	2.399939E-17
3.770000E+03	7.851067E-17	2.377707E-17
3.780000E+03	7.987161E-17	2.353286E-17
3.790000E+03	8.123811E-17	2.326636E-17
3.800000E+03	8.260821E-17	2.297726E-17
3.810000E+03	8.398834E-17	2.266762E-17
3.820000E+03	8.535927E-17	2.233267E-17
3.830000E+03	8.673577E-17	2.197699E-17
3.840000E+03	8.810672E-17	2.159842E-17
3.850000E+03	8.946940E-17	2.119725E-17
3.860000E+03	9.082093E-17	2.077398E-17
3.870000E+03	9.216744E-17	2.033135E-17
3.880000E+03	9.348756E-17	1.986620E-17
3.890000E+03	9.479641E-17	1.938372E-17
3.900000E+03	9.607198E-17	1.888155E-17
3.910000E+03	9.732952E-17	1.836528E-17
3.920000E+03	9.855609E-17	1.783522E-17
3.930000E+03	9.974800E-17	1.729395E-17
3.940000E+03	1.009015E-16	1.674451E-17
3.950000E+03	1.020129E-16	1.619039E-17
3.960000E+03	1.030784E-16	1.563554E-17
3.970000E+03	1.041043E-16	1.508583E-17
3.980000E+03	1.050674E-16	1.454314E-17
3.990000E+03	1.059748E-16	1.401406E-17
4.000000E+03	1.068350E-16	1.350492E-17
4.010000E+03	1.076378E-16	1.301912E-17
4.020000E+03	1.083742E-16	1.255973E-17
4.030000E+03	1.090672E-16	1.213254E-17
4.040000E+03	1.097102E-16	1.173869E-17
4.050000E+03	1.103074E-16	1.137942E-17
4.060000E+03	1.108636E-16	1.105498E-17
4.070000E+03	1.113731E-16	1.076362E-17
4.080000E+03	1.118612E-16	1.050583E-17
4.090000E+03	1.123228E-16	1.027855E-17
4.100000E+03	1.127635E-16	1.007929E-17
4.110000E+03	1.131893E-16	9.905178E-18
4.120000E+03	1.136070E-16	9.752738E-18
4.130000E+03	1.140233E-16	9.617873E-18
4.140000E+03	1.144452E-16	9.496095E-18
4.150000E+03	1.148791E-16	9.382847E-18
4.160000E+03	1.153302E-16	9.273720E-18
4.170000E+03	1.158030E-16	9.164620E-18
4.180000E+03	1.163008E-16	9.051837E-18
4.180300E+03	7.049121E-17	5.269105E-17
4.181570E+03	7.137026E-17	5.269132E-17
4.182840E+03	7.286238E-17	5.269251E-17
4.184110E+03	7.355009E-17	5.269253E-17
4.185380E+03	7.453027E-17	5.269299E-17
4.186651E+03	7.540072E-17	5.269330E-17
4.187921E+03	7.635832E-17	5.269375E-17
4.189191E+03	7.776865E-17	5.269494E-17
4.190461E+03	7.987633E-17	5.269729E-17
4.191731E+03	8.125279E-17	5.269850E-17
4.193002E+03	8.297226E-17	5.270032E-17
4.194272E+03	8.394367E-17	5.270091E-17
4.195542E+03	8.455793E-17	5.270090E-17
4.196812E+03	8.625755E-17	5.270278E-17
4.198083E+03	8.738631E-17	5.270369E-17
4.199353E+03	8.833506E-17	5.270430E-17
4.200623E+03	8.930907E-17	5.270497E-17
4.201893E+03	9.001594E-17	5.270517E-17
4.203163E+03	9.219326E-17	5.270808E-17
4.204434E+03	9.382505E-17	5.271004E-17
4.205704E+03	9.606406E-17	5.223330E-17
4.206974E+03	9.728804E-17	5.221495E-17
4.208244E+03	9.879874E-17	5.228138E-17
4.209514E+03	9.985112E-17	5.204949E-17
4.210784E+03	1.014095E-16	4.944536E-17
4.212055E+03	1.022931E-16	4.965938E-17
4.213325E+03	1.032020E-16	4.986503E-17
4.214595E+03	1.038775E-16	4.980651E-17
4.215865E+03	1.040301E-16	4.992355E-17
4.217136E+03	1.052115E-16	4.786676E-17
4.218406E+03	1.051645E-16	4.814317E-17
4.219676E+03	1.056741E-16	4.838159E-17
4.220946E+03	1.063438E-16	4.787457E-17
4.222216E+03	1.071400E-16	4.532176E-17
4.223487E+03	1.080514E-16	4.287686E-17
4.224757E+03	1.090499E-16	4.392343E-17
4.226027E+03	1.098488E-16	4.429148E-17
4.227297E+03	1.105662E-16	4.490025E-17
4.228567E+03	1.107579E-16	4.507900E-17
4.229838E+03	1.113151E-16	4.511298E-17
4.231108E+03	1.124061E-16	4.367215E-17
4.232378E+03	1.134775E-16	4.515564E-17
4.233648E+03	1.136017E-16	4.323079E-17
4.234918E+03	1.134083E-16	4.385372E-17
4.236189E+03	1.133583E-16	4.472636E-17
4.237459E+03	1.137129E-16	4.480743E-17
4.238729E+03	1.137781E-16	4.512022E-17
4.239999E+03	1.138460E-16	4.551985E-17
4.241270E+03	1.136892E-16	4.540352E-17
4.242540E+03	1.146957E-16	4.522297E-17
4.243810E+03	1.150586E-16	4.508559E-17
4.245080E+03	1.151462E-16	4.492230E-17
4.246350E+03	1.149275E-16	4.493184E-17
4.247620E+03	1.155911E-16	4.576140E-17
4.248891E+03	1.161647E-16	4.488808E-17
4.250161E+03	1.155527E-16	4.354425E-17
4.251431E+03	1.150249E-16	4.341298E-17
4.252701E+03	1.152417E-16	4.342368E-17
4.253972E+03	1.150651E-16	4.604572E-17
4.255242E+03	1.140626E-16	4.783750E-17
4.256512E+03	1.136136E-16	4.795852E-17
4.257782E+03	1.134258E-16	4.797653E-17
4.259052E+03	1.124009E-16	4.617183E-17
4.260323E+03	1.123256E-16	4.619012E-17
4.261593E+03	1.114749E-16	4.639699E-17
4.262863E+03	1.115709E-16	4.670979E-17
4.264133E+03	1.114955E-16	4.665245E-17
4.265403E+03	1.105747E-16	4.721494E-17
4.266674E+03	1.110217E-16	4.721483E-17
4.267944E+03	1.114941E-16	4.683106E-17
4.269214E+03	1.108205E-16	4.622615E-17
4.270484E+03	1.105288E-16	4.673405E-17
4.271755E+03	1.107175E-16	4.457986E-17
4.273025E+03	1.104399E-16	4.476006E-17
4.274295E+03	1.103898E-16	4.362770E-17
4.275565E+03	1.104604E-16	4.338323E-17
4.276835E+03	1.104890E-16	4.332621E-17
4.278105E+03	1.111494E-16	4.322601E-17
4.279376E+03	1.115457E-16	4.328469E-17
4.280646E+03	1.120291E-16	4.494476E-17
4.281916E+03	1.119902E-16	4.277982E-17
4.283186E+03	1.122124E-16	4.178588E-17
4.284457E+03	1.107667E-16	4.159353E-17
4.285727E+03	1.090739E-16	4.151251E-17
4.286997E+03	1.087178E-16	4.153010E-17
4.288267E+03	1.091253E-16	4.143213E-17
4.289537E+03	1.090836E-16	4.124066E-17
4.290808E+03	1.092132E-16	4.240122E-17
4.292078E+03	1.081243E-16	4.227986E-17
4.293348E+03	1.079955E-16	4.433575E-17
4.294618E+03	1.066849E-16	4.462270E-17
4.295888E+03	1.058010E-16	4.491070E-17
4.297159E+03	1.038419E-16	4.429193E-17
4.298429E+03	1.019025E-16	4.429204E-17
4.299699E+03	1.019059E-16	4.426852E-17
4.300969E+03	1.017324E-16	4.423620E-17
4.302239E+03	1.001890E-16	4.408327E-17
4.303510E+03	9.856146E-17	4.034105E-17
4.304780E+03	9.843013E-17	3.744061E-17
4.306050E+03	9.987068E-17	3.801675E-17
4.307320E+03	9.973089E-17	3.853016E-17
4.308591E+03	9.822700E-17	3.824564E-17
4.309861E+03	9.805918E-17	3.893254E-17
4.311131E+03	9.794749E-17	3.911592E-17
4.312401E+03	9.760005E-17	3.880905E-17
4.313671E+03	9.702529E-17	3.903330E-17
4.314941E+03	9.716901E-17	3.766442E-17
4.316212E+03	9.641186E-17	3.817915E-17
4.317482E+03	9.613744E-17	3.890497E-17
4.318752E+03	9.464508E-17	3.898443E-17
4.320022E+03	9.462887E-17	3.796760E-17
4.321293E+03	9.404301E-17	3.764065E-17
4.322563E+03	9.335334E-17	3.913229E-17
4.323833E+03	9.375244E-17	4.052870E-17
4.325103E+03	9.360716E-17	4.023903E-17
4.326373E+03	9.251909E-17	3.879428E-17
4.327644E+03	9.240751E-17	3.856633E-17
4.328914E+03	9.282621E-17	3.866137E-17
4.330184E+03	9.301483E-17	3.669956E-17
4.331454E+03	9.271244E-17	3.667267E-17
4.332724E+03	9.280846E-17	3.641455E-17
4.333995E+03	9.347959E-17	3.706966E-17
4.335265E+03	9.381965E-17	3.632266E-17
4.336535E+03	9.507704E-17	3.663231E-17
4.337805E+03	9.573123E-17	3.740473E-17
4.339075E+03	9.614693E-17	3.786334E-17
4.340346E+03	9.663555E-17	3.723142E-17
4.341616E+03	9.637517E-17	3.886028E-17
4.342886E+03	9.646824E-17	3.900766E-17
4.344156E+03	9.550943E-17	3.853449E-17
4.345426E+03	9.476664E-17	3.823525E-17
4.346697E+03	9.576288E-17	3.871752E-17
4.347967E+03	9.629909E-17	3.870368E-17
4.349237E+03	9.748595E-17	3.871371E-17
4.350507E+03	9.818195E-17	3.873101E-17
4.351778E+03	9.809823E-17	3.872133E-17
4.353048E+03	9.768078E-17	3.830543E-17
4.354318E+03	9.814673E-17	3.814885E-17
4.355588E+03	9.821725E-17	3.784598E-17
4.356858E+03	1.001358E-16	3.723452E-17
4.358129E+03	1.017037E-16	3.696621E-17
4.359399E+03	1.022031E-16	3.601077E-17
4.360669E+03	1.027502E-16	3.579042E-17
4.361939E+03	1.035468E-16	3.606519E-17
4.363209E+03	1.044471E-16	3.577596E-17
4.364480E+03	1.043380E-16	3.523277E-17
4.365750E+03	1.055158E-16	3.410964E-17
4.367020E+03	1.067693E-16	3.345339E-17
4.368290E+03	1.077367E-16	3.344955E-17
4.369560E+03	1.086956E-16	3.513143E-17
4.370831E+03	1.096994E-16	3.495171E-17
4.372101E+03	1.103947E-16	3.457582E-17
4.373371E+03	1.118917E-16	3.467110E-17
4.374641E+03	1.125000E-16	3.443740E-17
4.375912E+03	1.134054E-16	3.458122E-17
4.377182E+03	1.141426E-16	3.465202E-17
4.378452E+03	1.131866E-16	3.594562E-17
4.379722E+03	1.122616E-16	3.553726E-17
4.380992E+03	1.128305E-16	3.679362E-17
4.382262E+03	1.124857E-16	3.656266E-17
4.383533E+03	1.133405E-16	3.578804E-17
4.384803E+03	1.143213E-16	3.574501E-17
4.386073E+03	1.151311E-16	3.527470E-17
4.387343E+03	1.160727E-16	3.467384E-17
4.388614E+03	1.164788E-16	3.428073E-17
4.389884E+03	1.163805E-16	3.381092E-17
4.391154E+03	1.167643E-16	3.182952E-17
4.392424E+03	1.160298E-16	3.038891E-17
4.393694E+03	1.161445E-16	3.049683E-17
4.394965E+03	1.172679E-16	3.082805E-17
4.396235E+03	1.168614E-16	3.014074E-17
4.397505E+03	1.165361E-16	3.067313E-17
4.398775E+03	1.171579E-16	3.171004E-17
4.400045E+03	1.174182E-16	3.174042E-17
4.401316E+03	1.179978E-16	3.331795E-17
4.402586E+03	1.166359E-16	3.248231E-17
4.403856E+03	1.165628E-16	3.236396E-17
4.405126E+03	1.144949E-16	3.247910E-17
4.406396E+03	1.138559E-16	3.257082E-17
4.407667E+03	1.127435E-16	3.267230E-17
4.408937E+03	1.117124E-16	3.260405E-17
4.410207E+03	1.105385E-16	3.214241E-17
4.411477E+03	1.096672E-16	3.418801E-17
4.412748E+03	1.088603E-16	3.686576E-17
4.414018E+03	1.079022E-16	3.728639E-17
4.415288E+03	1.074596E-16	3.742088E-17
4.416558E+03	1.060674E-16	3.740515E-17
4.417828E+03	1.056416E-16	3.798914E-17
4.419099E+03	1.052102E-16	3.702947E-17
4.420369E+03	1.051430E-16	3.712861E-17
4.421639E+03	1.052661E-16	3.672860E-17
4.422909E+03	1.047872E-16	3.499341E-17
4.424179E+03	1.043867E-16	3.508054E-17
4.425450E+03	1.044370E-16	3.591099E-17
4.426720E+03	1.037173E-16	3.467763E-17
4.427990E+03	1.040112E-16	3.325195E-17
4.429260E+03	1.045096E-16	3.328840E-17
4.430530E+03	1.040055E-16	3.270319E-17
4.431801E+03	1.028210E-16	3.270732E-17
4.433071E+03	1.020734E-16	3.267360E-17
4.434341E+03	1.027173E-16	3.268533E-17
4.435611E+03	1.032576E-16	3.263546E-17
4.436881E+03	1.033555E-16	3.272662E-17
4.438152E+03	1.035514E-16	3.278178E-17
4.439422E+03	1.037165E-16	3.384901E-17
4.440692E+03	1.042343E-16	3.394957E-17
4.441962E+03	1.033299E-16	3.276671E-17
4.443233E+03	1.029463E-16	3.271441E-17
4.444503E+03	1.030666E-16	3.302864E-17
4.445773E+03	1.031672E-16	3.281032E-17
4.447043E+03	1.025289E-16	3.243122E-17
4.448313E+03	1.019494E-16	3.223069E-17
4.449583E+03	1.025399E-16	3.219209E-17
4.450854E+03	1.029372E-16	3.059535E-17
4.452124E+03	1.026460E-16	3.062691E-17
4.453394E+03	1.028949E-16	3.087445E-17
4.454664E+03	1.032362E-16	3.115288E-17
4.455935E+03	1.034403E-16	3.106039E-17
4.457205E+03	1.034933E-16	3.122380E-17
4.458475E+03	1.048475E-16	3.117899E-17
4.459745E+03	1.051803E-16	3.171083E-17
4.461015E+03	1.058880E-16	2.901910E-17
4.462286E+03	1.058009E-16	2.450451E-17
4.463556E+03	1.059461E-16	2.348469E-17
4.464826E+03	1.066957E-16	2.422525E-17
4.466096E+03	1.060575E-16	2.566937E-17
4.467366E+03	1.056543E-16	2.513803E-17
4.468637E+03	1.067703E-16	2.490945E-17
4.469907E+03	1.070888E-16	2.678187E-17
4.471177E+03	1.069654E-16	2.693082E-17
4.472447E+03	1.073483E-16	2.675726E-17
4.473717E+03	1.080696E-16	2.803037E-17
4.474988E+03	1.086259E-16	2.687208E-17
4.476258E+03	1.093667E-16	2.689007E-17
4.477528E+03	1.094949E-16	2.674632E-17
4.478798E+03	1.101685E-16	2.753940E-17
4.480069E+03	1.103722E-16	2.841262E-17
4.481339E+03	1.105926E-16	2.840107E-17
4.482609E+03	1.111571E-16	2.836556E-17
4.483879E+03	1.121214E-16	2.863983E-17
4.485149E+03	1.133345E-16	2.867024E-17
4.486419E+03	1.142595E-16	2.857194E-17
4.487690E+03	1.144239E-16	2.852686E-17
4.488960E+03	1.147252E-16	2.721859E-17
4.490230E+03	1.152782E-16	2.758224E-17
4.491500E+03	1.157249E-16	2.801305E-17
4.492771E+03	1.162023E-16	2.970330E-17
4.494041E+03	1.174429E-16	2.973647E-17
4.495311E+03	1.179007E-16	2.970334E-17
4.496581E+03	1.191104E-16	2.978923E-17
4.497851E+03	1.209548E-16	2.898831E-17
4.499122E+03	1.214011E-16	2.893302E-17
4.500392E+03	1.226442E-16	2.952449E-17
4.501662E+03	1.241723E-16	2.985305E-17
4.502932E+03	1.258262E-16	2.958506E-17
4.504202E+03	1.267755E-16	3.025873E-17
4.505473E+03	1.269057E-16	3.057443E-17
4.506743E+03	1.275306E-16	3.008376E-17
4.508013E+03	1.286475E-16	3.103556E-17
4.509283E+03	1.293366E-16	3.113085E-17
4.510553E+03	1.295617E-16	3.147736E-17
4.511824E+03	1.297226E-16	3.168483E-17
4.513094E+03	1.305150E-16	3.171930E-17
4.514364E+03	1.308993E-16	3.108343E-17
4.515634E+03	1.314373E-16	3.032344E-17
4.516904E+03	1.311397E-16	3.041830E-17
4.518175E+03	1.319795E-16	3.049464E-17
4.519445E+03	1.323525E-16	2.905235E-17
4.520715E+03	1.323567E-16	2.897901E-17
4.521985E+03	1.324307E-16	2.897522E-17
4.523256E+03	1.324432E-16	2.778847E-17
4.524526E+03	1.325396E-16	2.782052E-17
4.525796E+03	1.335942E-16	2.778756E-17
4.527066E+03	1.340927E-16	2.736717E-17
4.528336E+03	1.345745E-16	2.720046E-17
4.529607E+03	1.348886E-16	2.625622E-17
4.530877E+03	1.355324E-16	2.627926E-17
4.532147E+03	1.361062E-16	2.626084E-17
4.533417E+03	1.368783E-16	2.631922E-17
4.534687E+03	1.371252E-16	2.649394E-17
4.535958E+03	1.370677E-16	2.665148E-17
4.537228E+03	1.360494E-16	2.670419E-17
4.538498E+03	1.357209E-16	2.653600E-17
4.539768E+03	1.353702E-16	2.682168E-17
4.541038E+03	1.352261E-16	2.768113E-17
4.542309E+03	1.360678E-16	2.585852E-17
4.543579E+03	1.363705E-16	2.502724E-17
4.544849E+03	1.361147E-16	2.545376E-17
4.546119E+03	1.359063E-16	2.574327E-17
4.547390E+03	1.354886E-16	2.611666E-17
4.548660E+03	1.356935E-16	2.613302E-17
4.549930E+03	1.362502E-16	2.542547E-17
4.551200E+03	1.360893E-16	2.499180E-17
4.552470E+03	1.365007E-16	2.496564E-17
4.553740E+03	1.359964E-16	2.362452E-17
4.555011E+03	1.362375E-16	2.318995E-17
4.556281E+03	1.364088E-16	2.357161E-17
4.557551E+03	1.365634E-16	2.260101E-17
4.558821E+03	1.371115E-16	2.183315E-17
4.560092E+03	1.368919E-16	2.128404E-17
4.561362E+03	1.372418E-16	2.066024E-17
4.562632E+03	1.371115E-16	2.046997E-17
4.563902E+03	1.380223E-16	2.042311E-17
4.565172E+03	1.381823E-16	2.036445E-17
4.566443E+03	1.382306E-16	2.038788E-17
4.567713E+03	1.376789E-16	2.034119E-17
4.568983E+03	1.380900E-16	2.028044E-17
4.570253E+03	1.387075E-16	2.010737E-17
4.571523E+03	1.384126E-16	2.029104E-17
4.572794E+03	1.374507E-16	2.125145E-17
4.574064E+03	1.372535E-16	2.094888E-17
4.575334E+03	1.374385E-16	2.155167E-17
4.576604E+03	1.369873E-16	2.191847E-17
4.577874E+03	1.376549E-16	2.094591E-17
4.579145E+03	1.390256E-16	2.158964E-17
4.580415E+03	1.398967E-16	2.173276E-17
4.581685E+03	1.409464E-16	2.178428E-17
4.582955E+03	1.417700E-16	2.185238E-17
4.584225E+03	1.419603E-16	2.264563E-17
4.585496E+03	1.426666E-16	2.305602E-17
4.586766E+03	1.426505E-16	2.330956E-17
4.588036E+03	1.423888E-16	2.340848E-17
4.589306E+03	1.420185E-16	2.252844E-17
4.590577E+03	1.421473E-16	2.078817E-17
4.591847E+03	1.426248E-16	2.083466E-17
4.593117E+03	1.423688E-16	2.067633E-17
4.594387E+03	1.419259E-16	2.011489E-17
4.595657E+03	1.418539E-16	2.001870E-17
4.596928E+03	1.420106E-16	1.930745E-17
4.598198E+03	1.414145E-16	1.933798E-17
4.599468E+03	1.411613E-16	2.097529E-17
4.600738E+03	1.408941E-16	2.146662E-17
4.602008E+03	1.412376E-16	2.158939E-17
4.603279E+03	1.412688E-16	2.153410E-17
4.604549E+03	1.423064E-16	2.145910E-17
4.605819E+03	1.421954E-16	2.100619E-17
4.607089E+03	1.424272E-16	2.101061E-17
4.608359E+03	1.433308E-16	2.098651E-17
4.609630E+03	1.433982E-16	2.123003E-17
4.610900E+03	1.434013E-16	2.179084E-17
4.612170E+03	1.434184E-16	2.191075E-17
4.613440E+03	1.438508E-16	2.191075E-17
4.614711E+03	1.444699E-16	2.190140E-17
4.615981E+03	1.451113E-16	2.182844E-17
4.617251E+03	1.467726E-16	2.301164E-17
4.618521E+03	1.477008E-16	2.304689E-17
4.619791E+03	1.478626E-16	2.331838E-17
4.621061E+03	1.480634E-16	2.395817E-17
4.622332E+03	1.487100E-16	2.322155E-17
4.623602E+03	1.489386E-16	2.333108E-17
4.624872E+03	1.488022E-16	2.286794E-17
4.626142E+03	1.496465E-16	2.244938E-17
4.627413E+03	1.502790E-16	2.237991E-17
4.628683E+03	1.502178E-16	2.264759E-17
4.629953E+03	1.505187E-16	2.250005E-17
4.631223E+03	1.508307E-16	2.271141E-17
4.632493E+03	1.515883E-16	2.182866E-17
4.633764E+03	1.510897E-16	2.110995E-17
