#wls	flux	fluxerr
1.600000E+03	7.749658E-18	7.390776E-18
1.640000E+03	7.808421E-18	7.434247E-18
1.680000E+03	7.871034E-18	7.480824E-18
1.720000E+03	7.936417E-18	7.529433E-18
1.760000E+03	8.004885E-18	7.580322E-18
1.800000E+03	8.079597E-18	7.636418E-18
1.840000E+03	8.156738E-18	7.694040E-18
1.880000E+03	8.239550E-18	7.756165E-18
1.920000E+03	8.328517E-18	7.823152E-18
1.960000E+03	8.422717E-18	7.894018E-18
2.000000E+03	8.522686E-18	7.969144E-18
2.040000E+03	8.631973E-18	8.051701E-18
2.080000E+03	8.746808E-18	8.137999E-18
2.120000E+03	8.872383E-18	8.232682E-18
2.160000E+03	9.004947E-18	8.332049E-18
2.200000E+03	9.149926E-18	8.440876E-18
2.240000E+03	9.305179E-18	8.556895E-18
2.280000E+03	9.473275E-18	8.682147E-18
2.320000E+03	9.653719E-18	8.815807E-18
2.360000E+03	9.849318E-18	8.960024E-18
2.400000E+03	1.006142E-17	9.115536E-18
2.440000E+03	1.029151E-17	9.283126E-18
2.480000E+03	1.053945E-17	9.462053E-18
2.520000E+03	1.080872E-17	9.654717E-18
2.560000E+03	1.109945E-17	9.860418E-18
2.600000E+03	1.141554E-17	1.008170E-17
2.640000E+03	1.175939E-17	1.031959E-17
2.680000E+03	1.213365E-17	1.057518E-17
2.720000E+03	1.254125E-17	1.084959E-17
2.760000E+03	1.298335E-17	1.114220E-17
2.800000E+03	1.346553E-17	1.145596E-17
2.840000E+03	1.399179E-17	1.179213E-17
2.880000E+03	1.456426E-17	1.215002E-17
2.920000E+03	1.519002E-17	1.253277E-17
2.960000E+03	1.587452E-17	1.294159E-17
3.000000E+03	1.662381E-17	1.337766E-17
3.010000E+03	1.682227E-17	1.349126E-17
3.020000E+03	1.702514E-17	1.360652E-17
3.030000E+03	1.723253E-17	1.372344E-17
3.040000E+03	1.744455E-17	1.384204E-17
3.050000E+03	1.766132E-17	1.396232E-17
3.060000E+03	1.788294E-17	1.408431E-17
3.070000E+03	1.810955E-17	1.420799E-17
3.080000E+03	1.834125E-17	1.433338E-17
3.090000E+03	1.857818E-17	1.446048E-17
3.100000E+03	1.882046E-17	1.458931E-17
3.110000E+03	1.906821E-17	1.471985E-17
3.120000E+03	1.932457E-17	1.485441E-17
3.130000E+03	1.958371E-17	1.498840E-17
3.140000E+03	1.984874E-17	1.512411E-17
3.150000E+03	2.012289E-17	1.526388E-17
3.160000E+03	2.040014E-17	1.540301E-17
3.170000E+03	2.068689E-17	1.554622E-17
3.180000E+03	2.097694E-17	1.568874E-17
3.190000E+03	2.127686E-17	1.583536E-17
3.200000E+03	2.158363E-17	1.598365E-17
3.210000E+03	2.189405E-17	1.613114E-17
3.220000E+03	2.221493E-17	1.628272E-17
3.230000E+03	2.254314E-17	1.643590E-17
3.240000E+03	2.287533E-17	1.658814E-17
3.250000E+03	2.321863E-17	1.674444E-17
3.260000E+03	2.356973E-17	1.690224E-17
3.270000E+03	2.392883E-17	1.706151E-17
3.280000E+03	2.429608E-17	1.722220E-17
3.290000E+03	2.467166E-17	1.738426E-17
3.300000E+03	2.505574E-17	1.754762E-17
3.310000E+03	2.544851E-17	1.771224E-17
3.320000E+03	2.585012E-17	1.787805E-17
3.330000E+03	2.626473E-17	1.804768E-17
3.340000E+03	2.668464E-17	1.821565E-17
3.350000E+03	2.711393E-17	1.838457E-17
3.360000E+03	2.755277E-17	1.855436E-17
3.370000E+03	2.800555E-17	1.872771E-17
3.380000E+03	2.846410E-17	1.889894E-17
3.390000E+03	2.893272E-17	1.907073E-17
3.400000E+03	2.941598E-17	1.924582E-17
3.410000E+03	2.990533E-17	1.941837E-17
3.420000E+03	3.040979E-17	1.959401E-17
3.430000E+03	3.092052E-17	1.976680E-17
3.440000E+03	3.144682E-17	1.994243E-17
3.450000E+03	3.197956E-17	2.011487E-17
3.460000E+03	3.252831E-17	2.028987E-17
3.470000E+03	3.308854E-17	2.046432E-17
3.480000E+03	3.365541E-17	2.063498E-17
3.490000E+03	3.423891E-17	2.080773E-17
3.500000E+03	3.483427E-17	2.097935E-17
3.510000E+03	3.543639E-17	2.114652E-17
3.520000E+03	3.605570E-17	2.131522E-17
3.530000E+03	3.668716E-17	2.148214E-17
3.540000E+03	3.733085E-17	2.164704E-17
3.550000E+03	3.798683E-17	2.180969E-17
3.560000E+03	3.865514E-17	2.196982E-17
3.570000E+03	3.933583E-17	2.212719E-17
3.580000E+03	4.002889E-17	2.228152E-17
3.590000E+03	4.073434E-17	2.243254E-17
3.600000E+03	4.145215E-17	2.257998E-17
3.610000E+03	4.218228E-17	2.272353E-17
3.620000E+03	4.292468E-17	2.286292E-17
3.630000E+03	4.367926E-17	2.299784E-17
3.640000E+03	4.444591E-17	2.312798E-17
3.650000E+03	4.522452E-17	2.325306E-17
3.660000E+03	4.601493E-17	2.337274E-17
3.670000E+03	4.681696E-17	2.348674E-17
3.680000E+03	4.763724E-17	2.359811E-17
3.690000E+03	4.846200E-17	2.369979E-17
3.700000E+03	4.929770E-17	2.379484E-17
3.710000E+03	5.014407E-17	2.388296E-17
3.720000E+03	5.100078E-17	2.396384E-17
3.730000E+03	5.187489E-17	2.404061E-17
3.740000E+03	5.275139E-17	2.410614E-17
3.750000E+03	5.363716E-17	2.416355E-17
3.760000E+03	5.453951E-17	2.421601E-17
3.770000E+03	5.544266E-17	2.425638E-17
3.780000E+03	5.635376E-17	2.428783E-17
3.790000E+03	5.728040E-17	2.431356E-17
3.800000E+03	5.820604E-17	2.432646E-17
3.810000E+03	5.913811E-17	2.432975E-17
3.820000E+03	6.008452E-17	2.432663E-17
3.830000E+03	6.102794E-17	2.431006E-17
3.840000E+03	6.198481E-17	2.428669E-17
3.850000E+03	6.293731E-17	2.424954E-17
3.860000E+03	6.389343E-17	2.420184E-17
3.870000E+03	6.486163E-17	2.414683E-17
3.880000E+03	6.582336E-17	2.407759E-17
3.890000E+03	6.679626E-17	2.400072E-17
3.900000E+03	6.776132E-17	2.390940E-17
3.910000E+03	6.873667E-17	2.381013E-17
3.920000E+03	6.970286E-17	2.369617E-17
3.930000E+03	7.066877E-17	2.357070E-17
3.940000E+03	7.164381E-17	2.343679E-17
3.950000E+03	7.260785E-17	2.328779E-17
3.960000E+03	7.358036E-17	2.312997E-17
3.970000E+03	7.454078E-17	2.295672E-17
3.980000E+03	7.549876E-17	2.277104E-17
3.990000E+03	7.646442E-17	2.257574E-17
4.000000E+03	7.741659E-17	2.236432E-17
4.010000E+03	7.837604E-17	2.214260E-17
4.020000E+03	7.932121E-17	2.190412E-17
4.030000E+03	8.026241E-17	2.165153E-17
4.040000E+03	8.121045E-17	2.138726E-17
4.050000E+03	8.214309E-17	2.110495E-17
4.060000E+03	8.308228E-17	2.080981E-17
4.070000E+03	8.400533E-17	2.049553E-17
4.080000E+03	8.492309E-17	2.016434E-17
4.090000E+03	8.584683E-17	1.981820E-17
4.100000E+03	8.675309E-17	1.945098E-17
4.110000E+03	8.765289E-17	1.906461E-17
4.120000E+03	8.854573E-17	1.865832E-17
4.130000E+03	8.944302E-17	1.823371E-17
4.140000E+03	9.032011E-17	1.778502E-17
4.150000E+03	9.118810E-17	1.731393E-17
4.160000E+03	9.204604E-17	1.681967E-17
4.170000E+03	9.290528E-17	1.630367E-17
4.180000E+03	9.373986E-17	1.576083E-17
4.190000E+03	9.456075E-17	1.519287E-17
4.200000E+03	9.536645E-17	1.459936E-17
4.210000E+03	9.615532E-17	1.398010E-17
4.220000E+03	9.692558E-17	1.333511E-17
4.230000E+03	9.767536E-17	1.266479E-17
4.240000E+03	9.840265E-17	1.196994E-17
4.250000E+03	9.910540E-17	1.125197E-17
4.260000E+03	9.978149E-17	1.051309E-17
4.270000E+03	1.004288E-16	9.756591E-18
4.280000E+03	1.010453E-16	8.987318E-18
4.290000E+03	1.016291E-16	8.212365E-18
4.300000E+03	1.021783E-16	7.442152E-18
4.310000E+03	1.026779E-16	6.691238E-18
4.320000E+03	1.031535E-16	5.984446E-18
4.330000E+03	1.035908E-16	5.354571E-18
4.340000E+03	1.039892E-16	4.848761E-18
4.350000E+03	1.043348E-16	4.523886E-18
4.360000E+03	1.046550E-16	4.432526E-18
4.370000E+03	1.049223E-16	4.591731E-18
4.380000E+03	1.051641E-16	4.975577E-18
4.390000E+03	1.053668E-16	5.529080E-18
4.400000E+03	1.055169E-16	6.195767E-18
4.410000E+03	1.056285E-16	6.932230E-18
4.420000E+03	1.057162E-16	7.708278E-18
4.430000E+03	1.057537E-16	8.500753E-18
4.440000E+03	1.057697E-16	9.297314E-18
4.450000E+03	1.057384E-16	1.008575E-17
4.460000E+03	1.056751E-16	1.086028E-17
4.470000E+03	1.055814E-16	1.161604E-17
4.480000E+03	1.054588E-16	1.234961E-17
4.490000E+03	1.053090E-16	1.305855E-17
4.500000E+03	1.051467E-16	1.374292E-17
4.510000E+03	1.049464E-16	1.439812E-17
4.520000E+03	1.047094E-16	1.502313E-17
4.530000E+03	1.044635E-16	1.562127E-17
4.540000E+03	1.041962E-16	1.619046E-17
4.550000E+03	1.039083E-16	1.673069E-17
4.560000E+03	1.036004E-16	1.724204E-17
4.570000E+03	1.032734E-16	1.772473E-17
4.580000E+03	1.029145E-16	1.817679E-17
4.590000E+03	1.025507E-16	1.860317E-17
4.600000E+03	1.021564E-16	1.899967E-17
4.610000E+03	1.017583E-16	1.937161E-17
4.620000E+03	1.013313E-16	1.971471E-17
4.630000E+03	1.009019E-16	2.003459E-17
4.640000E+03	1.004456E-16	2.032694E-17
4.650000E+03	9.997649E-17	2.059503E-17
4.660000E+03	9.949586E-17	2.083971E-17
4.670000E+03	9.901784E-17	2.106455E-17
4.680000E+03	9.851926E-17	2.126522E-17
4.690000E+03	9.801469E-17	2.144539E-17
4.700000E+03	9.750642E-17	2.160615E-17
4.710000E+03	9.699690E-17	2.174862E-17
4.720000E+03	9.648879E-17	2.187401E-17
4.730000E+03	9.597291E-17	2.198078E-17
4.740000E+03	9.547626E-17	2.207567E-17
4.750000E+03	9.498982E-17	2.215723E-17
4.760000E+03	9.450488E-17	2.222395E-17
4.770000E+03	9.404817E-17	2.228264E-17
4.780000E+03	9.361090E-17	2.233179E-17
4.790000E+03	9.318446E-17	2.236983E-17
4.800000E+03	9.278340E-17	2.240068E-17
4.810000E+03	9.242184E-17	2.242825E-17
4.820000E+03	9.207924E-17	2.244797E-17
4.830000E+03	9.176927E-17	2.246354E-17
4.840000E+03	9.149381E-17	2.247580E-17
4.850000E+03	9.125437E-17	2.248543E-17
4.860000E+03	9.105210E-17	2.249301E-17
4.870000E+03	9.088776E-17	2.249898E-17
4.880000E+03	9.076166E-17	2.250364E-17
4.890000E+03	9.067372E-17	2.250714E-17
4.900000E+03	9.062340E-17	2.250950E-17
4.910000E+03	9.059857E-17	2.250782E-17
4.920000E+03	9.062016E-17	2.250736E-17
4.930000E+03	9.067519E-17	2.250494E-17
4.940000E+03	9.075034E-17	2.249729E-17
4.950000E+03	9.085423E-17	2.248651E-17
4.960000E+03	9.099517E-17	2.247463E-17
4.970000E+03	9.114777E-17	2.245531E-17
4.980000E+03	9.131992E-17	2.243041E-17
4.990000E+03	9.150819E-17	2.239899E-17
5.000000E+03	9.170915E-17	2.236008E-17
5.010000E+03	9.193055E-17	2.231542E-17
5.020000E+03	9.213538E-17	2.225589E-17
5.030000E+03	9.235410E-17	2.218871E-17
5.040000E+03	9.257251E-17	2.211026E-17
5.050000E+03	9.278791E-17	2.201973E-17
5.060000E+03	9.299796E-17	2.191636E-17
5.070000E+03	9.318936E-17	2.179682E-17
5.080000E+03	9.338321E-17	2.166586E-17
5.090000E+03	9.355573E-17	2.151771E-17
5.100000E+03	9.371762E-17	2.135465E-17
5.110000E+03	9.388007E-17	2.117893E-17
5.120000E+03	9.402058E-17	2.098518E-17
5.130000E+03	9.415119E-17	2.077586E-17
5.140000E+03	9.427299E-17	2.055088E-17
5.150000E+03	9.438737E-17	2.031020E-17
5.160000E+03	9.449607E-17	2.005383E-17
5.170000E+03	9.460107E-17	1.978177E-17
5.180000E+03	9.470458E-17	1.949405E-17
5.190000E+03	9.480895E-17	1.919066E-17
5.200000E+03	9.491669E-17	1.887157E-17
5.210000E+03	9.501890E-17	1.853448E-17
5.220000E+03	9.514108E-17	1.818380E-17
5.230000E+03	9.526292E-17	1.781490E-17
5.240000E+03	9.540994E-17	1.743187E-17
5.250000E+03	9.556169E-17	1.703014E-17
5.260000E+03	9.573211E-17	1.661143E-17
5.270000E+03	9.593505E-17	1.617718E-17
5.280000E+03	9.614972E-17	1.572285E-17
5.290000E+03	9.638975E-17	1.524974E-17
5.300000E+03	9.665708E-17	1.475704E-17
5.310000E+03	9.695356E-17	1.424386E-17
5.320000E+03	9.728081E-17	1.370922E-17
5.330000E+03	9.764033E-17	1.315203E-17
5.340000E+03	9.802165E-17	1.256962E-17
5.350000E+03	9.844927E-17	1.196380E-17
5.360000E+03	9.891233E-17	1.133170E-17
5.370000E+03	9.939954E-17	1.067065E-17
5.380000E+03	9.993494E-17	9.981924E-18
5.390000E+03	1.004947E-16	9.261686E-18
5.400000E+03	1.011026E-16	8.510986E-18
5.410000E+03	1.017339E-16	7.726678E-18
5.420000E+03	1.023996E-16	6.909291E-18
5.430000E+03	1.030986E-16	6.059093E-18
5.440000E+03	1.038417E-16	5.178614E-18
5.450000E+03	1.046023E-16	4.271868E-18
5.460000E+03	1.053908E-16	3.353031E-18
5.470000E+03	1.061922E-16	2.457894E-18
5.480000E+03	1.070291E-16	1.700020E-18
5.490000E+03	1.078862E-16	1.414546E-18
5.500000E+03	1.087598E-16	1.876823E-18
5.510000E+03	1.096456E-16	2.741421E-18
5.520000E+03	1.105257E-16	3.736635E-18
5.530000E+03	1.114213E-16	4.775666E-18
5.540000E+03	1.123013E-16	5.826729E-18
5.550000E+03	1.131879E-16	6.877642E-18
5.560000E+03	1.140504E-16	7.919892E-18
5.570000E+03	1.148988E-16	8.950002E-18
5.580000E+03	1.157439E-16	9.966405E-18
5.590000E+03	1.165564E-16	1.096491E-17
5.600000E+03	1.173485E-16	1.194514E-17
5.610000E+03	1.181197E-16	1.290606E-17
5.620000E+03	1.188704E-16	1.384692E-17
5.630000E+03	1.196018E-16	1.476728E-17
5.640000E+03	1.203161E-16	1.566696E-17
5.650000E+03	1.210160E-16	1.654606E-17
5.660000E+03	1.216910E-16	1.740289E-17
5.670000E+03	1.223741E-16	1.824208E-17
5.680000E+03	1.230559E-16	1.906254E-17
5.690000E+03	1.237270E-16	1.986299E-17
5.700000E+03	1.244223E-16	2.064932E-17
5.710000E+03	1.251181E-16	2.141816E-17
5.720000E+03	1.258497E-16	2.217605E-17
5.730000E+03	1.265929E-16	2.291944E-17
5.740000E+03	1.273825E-16	2.365532E-17
5.750000E+03	1.281932E-16	2.437979E-17
5.760000E+03	1.290439E-16	2.509711E-17
5.770000E+03	1.299374E-16	2.580874E-17
5.780000E+03	1.308762E-16	2.651592E-17
5.790000E+03	1.318612E-16	2.721975E-17
5.800000E+03	1.329084E-16	2.792435E-17
5.810000E+03	1.339695E-16	2.862039E-17
5.820000E+03	1.350896E-16	2.931807E-17
5.830000E+03	1.362499E-16	3.001412E-17
5.840000E+03	1.374462E-16	3.070824E-17
5.850000E+03	1.386733E-16	3.139988E-17
5.860000E+03	1.399254E-16	3.208823E-17
5.870000E+03	1.411793E-16	3.276839E-17
5.880000E+03	1.424612E-16	3.344681E-17
5.890000E+03	1.437306E-16	3.411432E-17
5.900000E+03	1.450140E-16	3.477747E-17
5.910000E+03	1.462704E-16	3.542670E-17
5.920000E+03	1.475278E-16	3.606894E-17
5.930000E+03	1.487459E-16	3.669449E-17
5.940000E+03	1.499549E-16	3.731089E-17
5.950000E+03	1.511160E-16	3.790861E-17
5.960000E+03	1.522446E-16	3.849151E-17
5.970000E+03	1.533400E-16	3.905948E-17
5.980000E+03	1.544033E-16	3.961280E-17
5.990000E+03	1.554552E-16	4.015692E-17
6.000000E+03	1.564632E-16	4.068355E-17
6.010000E+03	1.574514E-16	4.119894E-17
6.020000E+03	1.584270E-16	4.170506E-17
6.030000E+03	1.593983E-16	4.220425E-17
6.040000E+03	1.603749E-16	4.269919E-17
6.050000E+03	1.613483E-16	4.318771E-17
6.060000E+03	1.623674E-16	4.368312E-17
6.070000E+03	1.634248E-16	4.418364E-17
6.080000E+03	1.645319E-16	4.469263E-17
6.090000E+03	1.656803E-16	4.520805E-17
6.100000E+03	1.669199E-16	4.574371E-17
6.110000E+03	1.682410E-16	4.629735E-17
6.120000E+03	1.696326E-16	4.686616E-17
6.130000E+03	1.711419E-16	4.746352E-17
6.140000E+03	1.727347E-16	4.808023E-17
6.150000E+03	1.744556E-16	4.872902E-17
6.160000E+03	1.762656E-16	4.939933E-17
6.170000E+03	1.782061E-16	5.010300E-17
6.180000E+03	1.802327E-16	5.082786E-17
6.190000E+03	1.823612E-16	5.157861E-17
6.200000E+03	1.846059E-16	5.235954E-17
6.210000E+03	1.869134E-16	5.315575E-17
6.220000E+03	1.892925E-16	5.396992E-17
6.230000E+03	1.917282E-16	5.479793E-17
6.240000E+03	1.942029E-16	5.563494E-17
6.250000E+03	1.966970E-16	5.647546E-17
6.260000E+03	1.991892E-16	5.731342E-17
6.270000E+03	2.016802E-16	5.814918E-17
6.280000E+03	2.040985E-16	5.896216E-17
6.290000E+03	2.064186E-16	5.974496E-17
6.300000E+03	2.086641E-16	6.050441E-17
6.310000E+03	2.107863E-16	6.122641E-17
6.320000E+03	2.127617E-16	6.190406E-17
6.330000E+03	2.145681E-16	6.253086E-17
6.340000E+03	2.161855E-16	6.310084E-17
6.350000E+03	2.175961E-16	6.360875E-17
6.360000E+03	2.187592E-16	6.404251E-17
6.370000E+03	2.197148E-16	6.441370E-17
6.380000E+03	2.204287E-16	6.471216E-17
6.390000E+03	2.208697E-16	6.492859E-17
6.400000E+03	2.210886E-16	6.507773E-17
6.410000E+03	2.210612E-16	6.515228E-17
6.420000E+03	2.207661E-16	6.514577E-17
6.430000E+03	2.202634E-16	6.507576E-17
6.440000E+03	2.195110E-16	6.492966E-17
6.450000E+03	2.185733E-16	6.472636E-17
6.460000E+03	2.174122E-16	6.445445E-17
6.470000E+03	2.160945E-16	6.413357E-17
6.480000E+03	2.145847E-16	6.375307E-17
6.490000E+03	2.129249E-16	6.332532E-17
6.500000E+03	2.111563E-16	6.286254E-17
6.510000E+03	2.092446E-16	6.235443E-17
6.520000E+03	2.072306E-16	6.181305E-17
6.530000E+03	2.051534E-16	6.125002E-17
6.540000E+03	2.029778E-16	6.065481E-17
6.550000E+03	2.007413E-16	6.003858E-17
6.560000E+03	1.984556E-16	5.940484E-17
6.570000E+03	1.961314E-16	5.875681E-17
6.580000E+03	1.938017E-16	5.810431E-17
6.590000E+03	1.914286E-16	5.743612E-17
6.600000E+03	1.890436E-16	5.676160E-17
6.610000E+03	1.866538E-16	5.608296E-17
6.620000E+03	1.842655E-16	5.540218E-17
6.630000E+03	1.818849E-16	5.472110E-17
6.640000E+03	1.795175E-16	5.404146E-17
6.650000E+03	1.771685E-16	5.336489E-17
6.660000E+03	1.748431E-16	5.269301E-17
6.670000E+03	1.725464E-16	5.202738E-17
6.680000E+03	1.702833E-16	5.136959E-17
6.690000E+03	1.680390E-16	5.071521E-17
6.700000E+03	1.658591E-16	5.007807E-17
6.710000E+03	1.637289E-16	4.945377E-17
6.720000E+03	1.616541E-16	4.884409E-17
6.730000E+03	1.596406E-16	4.825090E-17
6.740000E+03	1.576760E-16	4.767042E-17
6.750000E+03	1.558045E-16	4.711610E-17
6.760000E+03	1.540138E-16	4.658420E-17
6.770000E+03	1.523105E-16	4.607682E-17
6.780000E+03	1.506836E-16	4.559058E-17
6.790000E+03	1.491761E-16	4.513854E-17
6.800000E+03	1.477591E-16	4.471192E-17
6.810000E+03	1.464747E-16	4.432350E-17
6.820000E+03	1.453118E-16	4.396985E-17
6.830000E+03	1.442593E-16	4.364762E-17
6.840000E+03	1.433579E-16	4.336908E-17
6.850000E+03	1.425786E-16	4.312543E-17
6.860000E+03	1.419609E-16	4.292853E-17
6.870000E+03	1.414750E-16	4.276939E-17
6.880000E+03	1.411421E-16	4.265428E-17
6.890000E+03	1.409822E-16	4.258923E-17
6.900000E+03	1.409643E-16	4.256473E-17
6.910000E+03	1.411239E-16	4.259147E-17
6.920000E+03	1.414284E-16	4.265944E-17
6.930000E+03	1.418948E-16	4.277375E-17
6.940000E+03	1.425397E-16	4.293924E-17
6.950000E+03	1.433275E-16	4.314508E-17
6.960000E+03	1.442729E-16	4.339558E-17
6.970000E+03	1.453728E-16	4.368965E-17
6.980000E+03	1.466408E-16	4.403123E-17
6.990000E+03	1.480367E-16	4.440817E-17
7.000000E+03	1.495724E-16	4.482384E-17
7.010000E+03	1.512413E-16	4.527614E-17
7.020000E+03	1.530361E-16	4.576276E-17
7.030000E+03	1.549490E-16	4.628117E-17
7.040000E+03	1.569713E-16	4.682867E-17
7.050000E+03	1.590939E-16	4.740239E-17
7.060000E+03	1.613073E-16	4.799933E-17
7.070000E+03	1.636015E-16	4.861641E-17
7.080000E+03	1.659663E-16	4.925043E-17
7.090000E+03	1.683912E-16	4.989814E-17
7.100000E+03	1.708654E-16	5.055626E-17
7.110000E+03	1.733783E-16	5.122145E-17
7.120000E+03	1.759188E-16	5.189036E-17
7.130000E+03	1.784759E-16	5.255963E-17
7.140000E+03	1.810385E-16	5.322585E-17
7.150000E+03	1.835730E-16	5.387906E-17
7.160000E+03	1.861120E-16	5.452875E-17
7.170000E+03	1.886219E-16	5.516491E-17
7.180000E+03	1.910903E-16	5.578389E-17
7.190000E+03	1.934812E-16	5.637512E-17
7.200000E+03	1.958281E-16	5.694829E-17
7.210000E+03	1.980940E-16	5.749260E-17
7.220000E+03	2.002402E-16	5.799681E-17
7.230000E+03	2.023000E-16	5.847059E-17
7.240000E+03	2.042337E-16	5.890245E-17
7.250000E+03	2.059998E-16	5.928056E-17
7.260000E+03	2.076315E-16	5.961455E-17
7.270000E+03	2.090614E-16	5.988523E-17
7.280000E+03	2.103231E-16	6.010239E-17
7.290000E+03	2.113485E-16	6.024682E-17
7.300000E+03	2.121724E-16	6.032875E-17
7.310000E+03	2.127277E-16	6.032937E-17
7.320000E+03	2.130516E-16	6.025966E-17
7.330000E+03	2.130794E-16	6.010174E-17
7.340000E+03	2.128262E-16	5.986038E-17
7.350000E+03	2.123096E-16	5.954101E-17
7.360000E+03	2.114720E-16	5.912801E-17
7.370000E+03	2.103366E-16	5.862853E-17
7.380000E+03	2.089040E-16	5.804333E-17
7.390000E+03	2.072033E-16	5.738117E-17
7.400000E+03	2.051911E-16	5.663060E-17
7.410000E+03	2.029035E-16	5.580236E-17
7.420000E+03	2.003546E-16	5.490093E-17
7.430000E+03	1.975612E-16	5.393165E-17
7.440000E+03	1.945433E-16	5.290052E-17
7.450000E+03	1.913228E-16	5.181417E-17
7.460000E+03	1.879240E-16	5.067969E-17
7.470000E+03	1.843723E-16	4.950448E-17
7.480000E+03	1.806943E-16	4.829616E-17
7.490000E+03	1.769171E-16	4.706235E-17
7.500000E+03	1.730677E-16	4.581061E-17
7.510000E+03	1.691730E-16	4.454827E-17
7.520000E+03	1.652587E-16	4.328233E-17
7.530000E+03	1.613495E-16	4.201935E-17
7.540000E+03	1.574492E-16	4.076037E-17
7.550000E+03	1.536183E-16	3.952107E-17
7.560000E+03	1.498565E-16	3.830114E-17
7.570000E+03	1.461810E-16	3.710478E-17
7.580000E+03	1.425896E-16	3.593112E-17
7.590000E+03	1.391308E-16	3.479207E-17
7.600000E+03	1.357973E-16	3.368528E-17
7.610000E+03	1.325816E-16	3.260837E-17
7.620000E+03	1.295234E-16	3.157056E-17
7.630000E+03	1.265952E-16	3.056440E-17
7.640000E+03	1.238315E-16	2.959755E-17
7.650000E+03	1.212027E-16	2.866208E-17
7.660000E+03	1.187389E-16	2.776432E-17
7.670000E+03	1.164089E-16	2.689599E-17
7.680000E+03	1.142249E-16	2.605906E-17
7.690000E+03	1.121969E-16	2.525479E-17
7.700000E+03	1.102921E-16	2.447472E-17
7.710000E+03	1.085190E-16	2.371977E-17
7.720000E+03	1.068847E-16	2.299038E-17
7.730000E+03	1.053555E-16	2.227815E-17
7.740000E+03	1.039374E-16	2.158341E-17
7.750000E+03	1.026227E-16	2.090345E-17
7.760000E+03	1.014035E-16	2.023555E-17
