#wls	flux	fluxerr
1.587144E+03	1.852068E-04	1.021923E-06
1.626823E+03	1.936784E-04	1.068667E-06
1.666501E+03	2.013983E-04	1.111263E-06
1.706180E+03	2.082432E-04	1.149031E-06
1.745859E+03	2.139484E-04	1.180511E-06
1.785537E+03	2.181314E-04	1.203591E-06
1.825216E+03	2.201737E-04	1.214860E-06
1.864894E+03	2.194916E-04	1.211097E-06
1.904573E+03	2.155176E-04	1.189169E-06
1.944252E+03	2.079672E-04	1.147507E-06
1.983930E+03	1.973565E-04	1.088961E-06
2.023609E+03	1.853145E-04	1.022516E-06
2.063287E+03	1.747270E-04	9.640969E-07
2.102966E+03	1.691131E-04	9.331207E-07
2.142645E+03	1.714647E-04	9.460962E-07
2.182323E+03	1.833064E-04	1.011435E-06
2.222002E+03	2.044431E-04	1.128062E-06
2.261680E+03	2.333337E-04	1.287472E-06
2.301359E+03	2.678077E-04	1.477690E-06
2.341038E+03	3.058362E-04	1.687521E-06
2.380716E+03	3.458092E-04	1.908081E-06
2.420395E+03	3.867021E-04	2.133717E-06
2.460073E+03	4.279032E-04	2.361053E-06
2.499752E+03	4.691883E-04	2.588852E-06
2.539431E+03	5.104913E-04	2.816751E-06
2.579109E+03	5.519023E-04	3.045245E-06
2.618788E+03	5.935007E-04	3.274773E-06
2.658466E+03	6.353777E-04	3.505839E-06
2.698145E+03	6.776166E-04	3.738901E-06
2.737824E+03	7.202163E-04	3.973954E-06
2.777502E+03	7.631552E-04	4.210878E-06
2.817181E+03	8.063706E-04	4.449328E-06
2.856859E+03	8.498332E-04	4.689142E-06
2.896538E+03	8.935962E-04	4.930614E-06
2.936217E+03	9.377966E-04	5.174499E-06
2.975895E+03	9.826993E-04	5.422259E-06
2.985815E+03	9.940719E-04	5.485010E-06
2.995735E+03	1.005495E-03	5.548038E-06
3.005654E+03	1.017011E-03	5.611584E-06
3.015574E+03	1.028606E-03	5.675556E-06
3.025494E+03	1.040433E-03	5.740816E-06
3.035413E+03	1.052610E-03	5.808005E-06
3.045333E+03	1.065124E-03	5.877054E-06
3.055252E+03	1.077898E-03	5.947536E-06
3.065172E+03	1.090968E-03	6.019653E-06
3.075092E+03	1.104261E-03	6.093002E-06
3.085011E+03	1.117795E-03	6.167679E-06
3.094931E+03	1.131544E-03	6.243542E-06
3.104851E+03	1.145462E-03	6.320338E-06
3.114770E+03	1.159572E-03	6.398189E-06
3.124690E+03	1.173828E-03	6.476849E-06
3.134610E+03	1.188232E-03	6.556331E-06
3.144529E+03	1.202767E-03	6.636529E-06
3.154449E+03	1.217412E-03	6.717336E-06
3.164369E+03	1.232172E-03	6.798778E-06
3.174288E+03	1.247030E-03	6.880758E-06
3.184208E+03	1.261946E-03	6.963060E-06
3.194128E+03	1.276948E-03	7.045837E-06
3.204047E+03	1.291998E-03	7.128877E-06
3.213967E+03	1.307101E-03	7.212212E-06
3.223887E+03	1.322241E-03	7.295750E-06
3.233806E+03	1.337379E-03	7.379281E-06
3.243726E+03	1.352544E-03	7.462953E-06
3.253645E+03	1.367673E-03	7.546434E-06
3.263565E+03	1.382793E-03	7.629861E-06
3.273485E+03	1.397885E-03	7.713133E-06
3.283404E+03	1.412887E-03	7.795909E-06
3.293324E+03	1.427821E-03	7.878312E-06
3.303244E+03	1.442667E-03	7.960225E-06
3.313163E+03	1.457380E-03	8.041410E-06
3.323083E+03	1.471938E-03	8.121733E-06
3.333003E+03	1.486315E-03	8.201063E-06
3.342922E+03	1.500487E-03	8.279259E-06
3.352842E+03	1.514426E-03	8.356170E-06
3.362762E+03	1.528105E-03	8.431649E-06
3.372681E+03	1.541476E-03	8.505428E-06
3.382601E+03	1.554492E-03	8.577243E-06
3.392521E+03	1.567165E-03	8.647168E-06
3.402440E+03	1.579410E-03	8.714732E-06
3.412360E+03	1.591224E-03	8.779920E-06
3.422280E+03	1.602569E-03	8.842518E-06
3.432199E+03	1.613431E-03	8.902454E-06
3.442119E+03	1.623768E-03	8.959489E-06
3.452038E+03	1.633564E-03	9.013541E-06
3.461958E+03	1.642838E-03	9.064711E-06
3.471878E+03	1.651585E-03	9.112973E-06
3.481797E+03	1.659858E-03	9.158621E-06
3.491717E+03	1.667657E-03	9.201653E-06
3.501637E+03	1.675082E-03	9.242626E-06
3.511556E+03	1.682209E-03	9.281945E-06
3.521476E+03	1.689156E-03	9.320278E-06
3.531396E+03	1.696075E-03	9.358459E-06
3.541315E+03	1.703107E-03	9.397255E-06
3.551235E+03	1.710471E-03	9.437889E-06
3.561155E+03	1.718323E-03	9.481212E-06
3.571074E+03	1.726746E-03	9.527690E-06
3.580994E+03	1.735768E-03	9.577468E-06
3.590914E+03	1.745307E-03	9.630104E-06
3.600833E+03	1.755318E-03	9.685342E-06
3.610753E+03	1.765778E-03	9.743055E-06
3.620673E+03	1.776697E-03	9.803302E-06
3.630592E+03	1.788124E-03	9.866357E-06
3.640512E+03	1.800142E-03	9.932666E-06
3.650432E+03	1.812871E-03	1.000290E-05
3.660351E+03	1.826448E-03	1.007782E-05
3.670271E+03	1.840987E-03	1.015804E-05
3.680190E+03	1.856655E-03	1.024449E-05
3.690110E+03	1.873525E-03	1.033757E-05
3.700030E+03	1.891744E-03	1.043810E-05
3.709949E+03	1.911440E-03	1.054677E-05
3.719869E+03	1.932795E-03	1.066460E-05
3.729789E+03	1.956085E-03	1.079311E-05
3.739708E+03	1.981580E-03	1.093378E-05
3.744906E+03	2.308543E-03	1.273788E-05
3.746364E+03	2.328711E-03	1.284916E-05
3.747823E+03	2.356188E-03	1.300077E-05
3.749281E+03	2.384845E-03	1.315889E-05
3.750739E+03	2.409706E-03	1.329606E-05
3.752197E+03	2.443380E-03	1.348186E-05
3.753655E+03	2.475915E-03	1.366138E-05
3.755114E+03	2.494690E-03	1.376498E-05
3.756572E+03	2.507498E-03	1.383565E-05
3.758030E+03	2.526630E-03	1.394121E-05
3.759488E+03	2.556912E-03	1.410830E-05
3.760946E+03	2.573913E-03	1.420211E-05
3.762405E+03	2.572962E-03	1.419686E-05
3.763863E+03	2.570846E-03	1.418519E-05
3.765321E+03	2.574721E-03	1.420657E-05
3.766779E+03	2.580098E-03	1.423624E-05
3.768237E+03	2.575152E-03	1.420895E-05
3.769695E+03	2.579701E-03	1.423405E-05
3.771154E+03	2.595255E-03	1.431987E-05
3.772612E+03	2.585475E-03	1.426591E-05
3.774070E+03	2.567016E-03	1.416405E-05
3.775528E+03	2.570236E-03	1.418182E-05
3.776986E+03	2.592153E-03	1.430275E-05
3.778445E+03	2.585367E-03	1.426531E-05
3.779903E+03	2.571228E-03	1.418729E-05
3.781361E+03	2.552568E-03	1.408433E-05
3.782819E+03	2.535233E-03	1.398868E-05
3.784277E+03	2.542632E-03	1.402951E-05
3.785736E+03	2.516251E-03	1.388394E-05
3.787194E+03	2.457894E-03	1.356195E-05
3.788652E+03	2.406694E-03	1.327945E-05
3.790110E+03	2.371701E-03	1.308636E-05
3.791568E+03	2.339698E-03	1.290978E-05
3.793026E+03	2.293600E-03	1.265542E-05
3.794485E+03	2.250822E-03	1.241939E-05
3.795943E+03	2.220254E-03	1.225072E-05
3.797401E+03	2.203587E-03	1.215876E-05
3.798859E+03	2.192614E-03	1.209821E-05
3.800317E+03	2.199760E-03	1.213764E-05
3.801776E+03	2.191297E-03	1.209094E-05
3.803234E+03	2.176782E-03	1.201085E-05
3.804692E+03	2.163434E-03	1.193720E-05
3.806150E+03	2.162850E-03	1.193398E-05
3.807608E+03	2.145116E-03	1.183613E-05
3.809067E+03	2.109710E-03	1.164077E-05
3.810525E+03	2.095480E-03	1.156225E-05
3.811983E+03	2.098408E-03	1.157841E-05
3.813441E+03	2.115146E-03	1.167077E-05
3.814899E+03	2.135434E-03	1.178271E-05
3.816358E+03	2.134505E-03	1.177758E-05
3.817816E+03	2.130543E-03	1.175572E-05
3.819274E+03	2.133660E-03	1.177292E-05
3.820732E+03	2.121262E-03	1.170451E-05
3.822190E+03	2.104805E-03	1.161371E-05
3.823648E+03	2.086144E-03	1.151074E-05
3.825107E+03	2.086212E-03	1.151111E-05
3.826565E+03	2.106044E-03	1.162054E-05
3.828023E+03	2.141774E-03	1.181769E-05
3.829481E+03	2.178037E-03	1.201778E-05
3.830939E+03	2.203336E-03	1.215737E-05
3.832398E+03	2.253858E-03	1.243614E-05
3.833856E+03	2.295617E-03	1.266655E-05
3.835314E+03	2.303212E-03	1.270846E-05
3.836772E+03	2.321651E-03	1.281020E-05
3.838230E+03	2.371274E-03	1.308400E-05
3.839689E+03	2.424661E-03	1.337858E-05
3.841147E+03	2.455201E-03	1.354709E-05
3.842605E+03	2.496617E-03	1.377561E-05
3.844063E+03	2.527376E-03	1.394533E-05
3.845521E+03	2.541018E-03	1.402060E-05
3.846979E+03	2.598470E-03	1.433761E-05
3.848438E+03	2.654436E-03	1.464641E-05
3.849896E+03	2.680372E-03	1.478952E-05
3.851354E+03	2.703269E-03	1.491585E-05
3.852812E+03	2.720402E-03	1.501039E-05
3.854270E+03	2.759658E-03	1.522699E-05
3.855729E+03	2.826675E-03	1.559678E-05
3.857187E+03	2.880637E-03	1.589452E-05
3.858645E+03	2.910802E-03	1.606097E-05
3.860103E+03	2.916122E-03	1.609032E-05
3.861561E+03	2.925707E-03	1.614320E-05
3.863020E+03	2.954901E-03	1.630429E-05
3.864478E+03	2.973033E-03	1.640433E-05
3.865936E+03	2.987426E-03	1.648375E-05
3.867394E+03	3.001661E-03	1.656230E-05
3.868852E+03	2.991325E-03	1.650527E-05
3.870310E+03	2.991229E-03	1.650473E-05
3.871769E+03	3.003261E-03	1.657112E-05
3.873227E+03	3.014277E-03	1.663191E-05
3.874685E+03	3.007695E-03	1.659559E-05
3.876143E+03	2.982980E-03	1.645922E-05
3.877601E+03	2.973303E-03	1.640583E-05
3.879060E+03	2.966358E-03	1.636750E-05
3.880518E+03	2.964030E-03	1.635466E-05
3.881976E+03	2.983281E-03	1.646088E-05
3.883434E+03	2.996550E-03	1.653409E-05
3.884892E+03	2.995089E-03	1.652603E-05
3.886351E+03	2.978025E-03	1.643188E-05
3.887809E+03	2.964895E-03	1.635943E-05
3.889267E+03	2.965996E-03	1.636551E-05
3.890725E+03	2.946673E-03	1.625889E-05
3.892183E+03	2.926993E-03	1.615030E-05
3.893642E+03	2.929973E-03	1.616674E-05
3.895100E+03	2.938970E-03	1.621638E-05
3.896558E+03	2.947802E-03	1.626512E-05
3.898016E+03	2.956470E-03	1.631294E-05
3.899474E+03	2.968241E-03	1.637789E-05
3.900932E+03	2.982086E-03	1.645429E-05
3.902391E+03	2.987679E-03	1.648515E-05
3.903849E+03	2.989487E-03	1.649512E-05
3.905307E+03	3.005942E-03	1.658592E-05
3.906765E+03	3.036370E-03	1.675381E-05
3.908223E+03	3.054925E-03	1.685619E-05
3.909682E+03	3.049519E-03	1.682637E-05
3.911140E+03	3.055843E-03	1.686126E-05
3.912598E+03	3.077017E-03	1.697809E-05
3.914056E+03	3.109949E-03	1.715980E-05
3.915514E+03	3.154308E-03	1.740456E-05
3.916973E+03	3.180210E-03	1.754748E-05
3.918431E+03	3.194377E-03	1.762565E-05
3.919889E+03	3.203194E-03	1.767430E-05
3.921347E+03	3.199562E-03	1.765425E-05
3.922805E+03	3.203715E-03	1.767717E-05
3.924263E+03	3.223108E-03	1.778418E-05
3.925722E+03	3.230219E-03	1.782341E-05
3.927180E+03	3.223821E-03	1.778811E-05
3.928638E+03	3.222099E-03	1.777861E-05
3.930096E+03	3.239449E-03	1.787434E-05
3.931554E+03	3.276588E-03	1.807927E-05
3.933013E+03	3.306121E-03	1.824222E-05
3.934471E+03	3.305470E-03	1.823863E-05
3.935929E+03	3.308814E-03	1.825708E-05
3.937387E+03	3.331792E-03	1.838386E-05
3.938845E+03	3.353745E-03	1.850499E-05
3.940304E+03	3.392233E-03	1.871736E-05
3.941762E+03	3.421532E-03	1.887902E-05
3.943220E+03	3.417794E-03	1.885840E-05
3.944678E+03	3.407962E-03	1.880415E-05
3.946136E+03	3.422501E-03	1.888437E-05
3.947594E+03	3.469278E-03	1.914247E-05
3.949053E+03	3.513303E-03	1.938539E-05
3.950511E+03	3.540103E-03	1.953326E-05
3.951969E+03	3.571109E-03	1.970435E-05
3.953427E+03	3.594464E-03	1.983321E-05
3.954885E+03	3.606318E-03	1.989861E-05
3.956344E+03	3.613816E-03	1.993999E-05
3.957802E+03	3.633722E-03	2.004982E-05
3.959260E+03	3.680028E-03	2.030533E-05
3.960718E+03	3.724971E-03	2.055331E-05
3.962176E+03	3.757534E-03	2.073298E-05
3.963635E+03	3.784349E-03	2.088094E-05
3.965093E+03	3.798411E-03	2.095853E-05
3.966551E+03	3.803380E-03	2.098595E-05
3.968009E+03	3.808178E-03	2.101242E-05
3.969467E+03	3.829274E-03	2.112882E-05
3.970926E+03	3.862833E-03	2.131399E-05
3.972384E+03	3.876603E-03	2.138997E-05
3.973842E+03	3.896172E-03	2.149795E-05
3.975300E+03	3.928038E-03	2.167378E-05
3.976758E+03	3.956069E-03	2.182844E-05
3.978216E+03	3.964104E-03	2.187278E-05
3.979675E+03	3.966170E-03	2.188418E-05
3.981133E+03	3.981066E-03	2.196637E-05
3.982591E+03	3.987539E-03	2.200208E-05
3.984049E+03	3.991023E-03	2.202131E-05
3.985507E+03	4.014925E-03	2.215319E-05
3.986966E+03	4.039723E-03	2.229002E-05
3.988424E+03	4.050102E-03	2.234729E-05
3.989882E+03	4.061898E-03	2.241237E-05
3.991340E+03	4.074055E-03	2.247945E-05
3.992798E+03	4.071941E-03	2.246779E-05
3.994257E+03	4.081467E-03	2.252035E-05
3.995715E+03	4.102468E-03	2.263623E-05
3.997173E+03	4.116427E-03	2.271325E-05
3.998631E+03	4.139224E-03	2.283904E-05
4.000089E+03	4.158685E-03	2.294642E-05
4.001547E+03	4.174627E-03	2.303438E-05
4.003006E+03	4.192523E-03	2.313312E-05
4.004464E+03	4.193457E-03	2.313828E-05
4.005922E+03	4.176526E-03	2.304486E-05
4.007380E+03	4.171966E-03	2.301970E-05
4.008838E+03	4.174843E-03	2.303557E-05
4.010297E+03	4.171698E-03	2.301822E-05
4.011755E+03	4.189107E-03	2.311427E-05
4.013213E+03	4.204756E-03	2.320062E-05
4.014671E+03	4.207293E-03	2.321462E-05
4.016129E+03	4.206283E-03	2.320905E-05
4.017588E+03	4.197288E-03	2.315942E-05
4.019046E+03	4.196099E-03	2.315286E-05
4.020504E+03	4.187091E-03	2.310315E-05
4.021962E+03	4.170793E-03	2.301322E-05
4.023420E+03	4.143817E-03	2.286438E-05
4.024878E+03	4.113795E-03	2.269873E-05
4.026337E+03	4.098871E-03	2.261638E-05
4.027795E+03	4.073437E-03	2.247604E-05
4.029253E+03	4.048159E-03	2.233656E-05
4.030711E+03	4.025889E-03	2.221368E-05
4.032169E+03	3.989344E-03	2.201204E-05
4.033628E+03	3.945999E-03	2.177288E-05
4.035086E+03	3.901909E-03	2.152960E-05
4.036544E+03	3.874550E-03	2.137864E-05
4.038002E+03	3.864659E-03	2.132406E-05
4.039460E+03	3.849582E-03	2.124088E-05
4.040919E+03	3.828421E-03	2.112411E-05
4.042377E+03	3.814568E-03	2.104768E-05
4.043835E+03	3.800346E-03	2.096921E-05
4.045293E+03	3.776279E-03	2.083641E-05
4.046751E+03	3.757380E-03	2.073213E-05
4.048210E+03	3.740434E-03	2.063863E-05
4.049668E+03	3.725980E-03	2.055888E-05
4.051126E+03	3.709008E-03	2.046523E-05
4.052584E+03	3.682526E-03	2.031911E-05
4.054042E+03	3.659070E-03	2.018969E-05
4.055500E+03	3.633085E-03	2.004631E-05
4.056959E+03	3.596137E-03	1.984244E-05
4.058417E+03	3.566696E-03	1.967999E-05
4.059875E+03	3.551772E-03	1.959765E-05
4.061333E+03	3.526780E-03	1.945975E-05
4.062791E+03	3.494940E-03	1.928406E-05
4.064250E+03	3.463075E-03	1.910824E-05
4.065708E+03	3.406910E-03	1.879834E-05
4.067166E+03	3.355737E-03	1.851598E-05
4.068624E+03	3.339432E-03	1.842602E-05
4.070082E+03	3.325095E-03	1.834691E-05
4.071541E+03	3.299940E-03	1.820811E-05
4.072999E+03	3.281251E-03	1.810499E-05
4.074457E+03	3.254075E-03	1.795504E-05
4.075915E+03	3.228320E-03	1.781293E-05
4.077373E+03	3.213367E-03	1.773042E-05
4.078831E+03	3.197499E-03	1.764287E-05
4.080290E+03	3.161581E-03	1.744468E-05
4.081748E+03	3.131232E-03	1.727723E-05
4.083206E+03	3.108626E-03	1.715250E-05
4.084664E+03	3.096847E-03	1.708750E-05
4.086122E+03	3.102957E-03	1.712122E-05
4.087581E+03	3.097857E-03	1.709307E-05
4.089039E+03	3.071401E-03	1.694710E-05
4.090497E+03	3.031347E-03	1.672609E-05
4.091955E+03	3.001221E-03	1.655986E-05
4.093413E+03	2.994803E-03	1.652445E-05
4.094872E+03	2.986566E-03	1.647900E-05
4.096330E+03	2.979229E-03	1.643852E-05
4.097788E+03	2.969166E-03	1.638299E-05
4.099246E+03	2.954194E-03	1.630038E-05
4.100704E+03	2.950646E-03	1.628081E-05
4.102162E+03	2.937651E-03	1.620911E-05
4.103621E+03	2.920649E-03	1.611529E-05
4.105079E+03	2.915446E-03	1.608658E-05
4.106537E+03	2.914966E-03	1.608393E-05
4.107995E+03	2.906845E-03	1.603913E-05
4.109453E+03	2.897444E-03	1.598725E-05
4.110912E+03	2.891675E-03	1.595542E-05
4.112370E+03	2.869330E-03	1.583213E-05
4.113828E+03	2.841684E-03	1.567958E-05
4.115286E+03	2.829688E-03	1.561339E-05
4.116744E+03	2.824427E-03	1.558437E-05
4.118203E+03	2.828829E-03	1.560865E-05
4.119661E+03	2.821008E-03	1.556550E-05
4.121119E+03	2.803506E-03	1.546893E-05
4.122577E+03	2.795302E-03	1.542367E-05
4.124035E+03	2.790563E-03	1.539751E-05
4.125494E+03	2.769737E-03	1.528260E-05
4.126952E+03	2.747979E-03	1.516255E-05
4.128410E+03	2.748883E-03	1.516753E-05
4.129868E+03	2.753995E-03	1.519574E-05
4.131326E+03	2.743734E-03	1.513913E-05
4.132784E+03	2.734198E-03	1.508651E-05
4.134243E+03	2.725569E-03	1.503890E-05
4.135701E+03	2.726462E-03	1.504382E-05
4.137159E+03	2.722221E-03	1.502043E-05
4.138617E+03	2.711191E-03	1.495956E-05
4.140075E+03	2.704187E-03	1.492092E-05
4.141534E+03	2.696444E-03	1.487819E-05
4.142992E+03	2.682266E-03	1.479996E-05
4.144450E+03	2.663852E-03	1.469836E-05
4.145908E+03	2.654427E-03	1.464635E-05
4.147366E+03	2.638743E-03	1.455982E-05
4.148825E+03	2.603920E-03	1.436767E-05
4.150283E+03	2.578268E-03	1.422613E-05
4.151741E+03	2.566030E-03	1.415861E-05
4.153199E+03	2.556544E-03	1.410626E-05
4.154657E+03	2.556259E-03	1.410469E-05
4.156115E+03	2.558921E-03	1.411938E-05
4.157574E+03	2.547760E-03	1.405779E-05
4.159032E+03	2.542305E-03	1.402770E-05
4.160490E+03	2.555294E-03	1.409937E-05
4.161948E+03	2.552235E-03	1.408249E-05
4.163406E+03	2.545481E-03	1.404522E-05
4.164865E+03	2.549433E-03	1.406703E-05
4.166323E+03	2.537127E-03	1.399913E-05
4.167781E+03	2.513905E-03	1.387100E-05
4.169239E+03	2.513224E-03	1.386724E-05
4.170697E+03	2.527895E-03	1.394819E-05
4.172156E+03	2.518519E-03	1.389646E-05
4.173614E+03	2.507839E-03	1.383752E-05
4.175072E+03	2.510855E-03	1.385416E-05
4.176530E+03	2.503496E-03	1.381356E-05
4.177988E+03	2.501135E-03	1.380054E-05
4.179446E+03	2.506374E-03	1.382944E-05
4.180905E+03	2.513286E-03	1.386758E-05
4.182363E+03	2.528923E-03	1.395386E-05
4.183821E+03	2.545500E-03	1.404533E-05
4.185279E+03	2.566731E-03	1.416247E-05
4.186737E+03	2.592994E-03	1.430739E-05
4.188196E+03	2.615559E-03	1.443189E-05
4.189654E+03	2.627915E-03	1.450007E-05
4.191112E+03	2.642325E-03	1.457958E-05
4.192570E+03	2.658792E-03	1.467044E-05
4.194028E+03	2.671920E-03	1.474288E-05
4.195487E+03	2.687291E-03	1.482769E-05
4.196945E+03	2.706399E-03	1.493312E-05
4.198403E+03	2.729248E-03	1.505920E-05
4.199861E+03	2.738877E-03	1.511232E-05
4.201319E+03	2.745340E-03	1.514799E-05
4.202778E+03	2.761883E-03	1.523927E-05
4.204236E+03	2.776758E-03	1.532134E-05
4.205694E+03	2.803592E-03	1.546940E-05
4.207152E+03	2.837731E-03	1.565777E-05
4.208610E+03	2.860870E-03	1.578545E-05
4.210068E+03	2.875052E-03	1.586370E-05
4.211527E+03	2.885504E-03	1.592137E-05
4.212985E+03	2.902697E-03	1.601623E-05
4.214443E+03	2.922147E-03	1.612356E-05
4.215901E+03	2.944420E-03	1.624645E-05
4.217359E+03	2.970641E-03	1.639113E-05
4.218818E+03	2.996505E-03	1.653384E-05
4.220276E+03	3.016203E-03	1.664253E-05
4.221734E+03	3.018663E-03	1.665610E-05
4.223192E+03	3.027314E-03	1.670383E-05
4.224650E+03	3.047041E-03	1.681268E-05
4.226109E+03	3.063402E-03	1.690296E-05
4.227567E+03	3.086159E-03	1.702853E-05
4.229025E+03	3.107617E-03	1.714692E-05
4.230483E+03	3.125142E-03	1.724362E-05
4.231941E+03	3.136663E-03	1.730719E-05
4.233399E+03	3.139351E-03	1.732202E-05
4.234858E+03	3.141476E-03	1.733375E-05
4.236316E+03	3.143788E-03	1.734650E-05
4.237774E+03	3.154761E-03	1.740705E-05
4.239232E+03	3.176289E-03	1.752584E-05
4.240690E+03	3.194440E-03	1.762599E-05
4.242149E+03	3.202611E-03	1.767108E-05
4.243607E+03	3.198719E-03	1.764960E-05
4.245065E+03	3.209536E-03	1.770928E-05
4.246523E+03	3.228850E-03	1.781585E-05
4.247981E+03	3.241759E-03	1.788708E-05
4.249440E+03	3.242400E-03	1.789062E-05
4.250898E+03	3.247952E-03	1.792125E-05
4.252356E+03	3.258230E-03	1.797796E-05
4.253814E+03	3.260384E-03	1.798985E-05
4.255272E+03	3.256297E-03	1.796729E-05
4.256730E+03	3.246150E-03	1.791131E-05
4.258189E+03	3.235993E-03	1.785527E-05
4.259647E+03	3.222418E-03	1.778036E-05
4.261105E+03	3.206748E-03	1.769390E-05
4.262563E+03	3.201107E-03	1.766277E-05
4.264021E+03	3.211382E-03	1.771947E-05
4.265480E+03	3.220525E-03	1.776991E-05
4.266938E+03	3.222463E-03	1.778061E-05
4.268396E+03	3.225540E-03	1.779759E-05
4.269854E+03	3.240766E-03	1.788160E-05
4.271312E+03	3.253342E-03	1.795099E-05
4.272771E+03	3.261175E-03	1.799421E-05
4.274229E+03	3.270723E-03	1.804689E-05
4.275687E+03	3.281986E-03	1.810904E-05
4.277145E+03	3.291163E-03	1.815968E-05
4.278603E+03	3.300154E-03	1.820929E-05
4.280062E+03	3.310101E-03	1.826417E-05
4.281520E+03	3.317768E-03	1.830647E-05
4.282978E+03	3.321248E-03	1.832568E-05
4.284436E+03	3.328539E-03	1.836591E-05
4.285894E+03	3.328971E-03	1.836829E-05
4.287352E+03	3.329211E-03	1.836961E-05
4.288811E+03	3.334216E-03	1.839723E-05
4.290269E+03	3.331781E-03	1.838379E-05
4.291727E+03	3.326098E-03	1.835243E-05
4.293185E+03	3.333200E-03	1.839162E-05
4.294643E+03	3.346034E-03	1.846243E-05
4.296102E+03	3.354098E-03	1.850693E-05
4.297560E+03	3.361783E-03	1.854933E-05
4.299018E+03	3.375015E-03	1.862235E-05
4.300476E+03	3.402982E-03	1.877666E-05
4.301934E+03	3.419294E-03	1.886666E-05
4.303393E+03	3.440208E-03	1.898206E-05
4.304851E+03	3.464581E-03	1.911654E-05
4.306309E+03	3.487052E-03	1.924054E-05
4.307767E+03	3.502831E-03	1.932760E-05
4.309225E+03	3.504434E-03	1.933644E-05
4.310683E+03	3.503542E-03	1.933152E-05
4.312142E+03	3.513388E-03	1.938585E-05
4.313600E+03	3.532831E-03	1.949313E-05
4.315058E+03	3.531365E-03	1.948504E-05
4.316516E+03	3.530661E-03	1.948116E-05
4.317974E+03	3.562989E-03	1.965953E-05
4.319433E+03	3.596298E-03	1.984332E-05
4.320891E+03	3.605985E-03	1.989677E-05
4.322349E+03	3.602025E-03	1.987492E-05
4.323807E+03	3.601521E-03	1.987214E-05
4.325265E+03	3.604285E-03	1.988739E-05
