#wls	flux	fluxerr
1.587144E+03	3.889378E-04	8.225394E-06
1.626823E+03	3.986493E-04	8.385206E-06
1.666501E+03	4.060175E-04	8.492718E-06
1.706180E+03	4.109529E-04	8.546817E-06
1.745859E+03	4.130362E-04	8.539650E-06
1.785537E+03	4.117533E-04	8.461668E-06
1.825216E+03	4.062107E-04	8.295876E-06
1.864894E+03	3.956785E-04	8.029131E-06
1.904573E+03	3.795621E-04	7.651475E-06
1.944252E+03	3.578849E-04	7.165732E-06
1.983930E+03	3.319073E-04	6.599415E-06
2.023609E+03	3.047343E-04	6.015830E-06
2.063287E+03	2.811897E-04	5.510244E-06
2.102966E+03	2.666286E-04	5.185430E-06
2.142645E+03	2.652428E-04	5.118409E-06
2.182323E+03	2.788067E-04	5.337184E-06
2.222002E+03	3.065651E-04	5.820370E-06
2.261680E+03	3.459805E-04	6.513241E-06
2.301359E+03	3.937652E-04	7.348464E-06
2.341038E+03	4.468249E-04	8.264248E-06
2.380716E+03	5.028080E-04	9.214357E-06
2.420395E+03	5.602245E-04	1.016972E-05
2.460073E+03	6.181786E-04	1.111294E-05
2.499752E+03	6.763848E-04	1.203810E-05
2.539431E+03	7.348740E-04	1.294504E-05
2.579109E+03	7.938555E-04	1.383673E-05
2.618788E+03	8.534815E-04	1.471494E-05
2.658466E+03	9.141646E-04	1.558579E-05
2.698145E+03	9.761907E-04	1.645295E-05
2.737824E+03	1.040016E-03	1.732267E-05
2.777502E+03	1.105874E-03	1.819715E-05
2.817181E+03	1.174259E-03	1.908266E-05
2.856859E+03	1.245368E-03	1.998023E-05
2.896538E+03	1.319605E-03	2.089398E-05
2.936217E+03	1.397785E-03	2.183413E-05
2.975895E+03	1.480554E-03	2.280754E-05
2.985815E+03	1.502167E-03	2.305880E-05
2.995735E+03	1.524108E-03	2.331248E-05
3.005654E+03	1.546481E-03	2.357007E-05
3.015574E+03	1.569344E-03	2.383241E-05
3.025494E+03	1.592887E-03	2.410226E-05
3.035413E+03	1.617217E-03	2.438112E-05
3.045333E+03	1.642486E-03	2.467112E-05
3.055252E+03	1.668668E-03	2.497175E-05
3.065172E+03	1.695559E-03	2.527975E-05
3.075092E+03	1.723323E-03	2.559747E-05
3.085011E+03	1.751947E-03	2.592453E-05
3.094931E+03	1.781419E-03	2.626061E-05
3.104851E+03	1.811731E-03	2.660545E-05
3.114770E+03	1.842878E-03	2.695883E-05
3.124690E+03	1.874860E-03	2.732056E-05
3.134610E+03	1.907771E-03	2.769189E-05
3.144529E+03	1.941618E-03	2.807273E-05
3.154449E+03	1.976310E-03	2.846164E-05
3.164369E+03	2.012053E-03	2.886136E-05
3.174288E+03	2.048761E-03	2.927051E-05
3.184208E+03	2.086450E-03	2.968914E-05
3.194128E+03	2.125238E-03	3.011872E-05
3.204047E+03	2.165245E-03	3.056077E-05
3.213967E+03	2.206296E-03	3.101260E-05
3.223887E+03	2.248617E-03	3.147717E-05
3.233806E+03	2.292136E-03	3.195327E-05
3.243726E+03	2.337088E-03	3.244392E-05
3.253645E+03	2.383403E-03	3.294792E-05
3.263565E+03	2.431119E-03	3.346550E-05
3.273485E+03	2.480373E-03	3.399833E-05
3.283404E+03	2.531206E-03	3.454667E-05
3.293324E+03	2.583763E-03	3.511220E-05
3.303244E+03	2.637980E-03	3.569375E-05
3.313163E+03	2.694111E-03	3.629443E-05
3.323083E+03	2.752093E-03	3.691306E-05
3.333003E+03	2.812075E-03	3.755130E-05
3.342922E+03	2.873990E-03	3.820788E-05
3.352842E+03	2.938204E-03	3.888730E-05
3.362762E+03	3.004537E-03	3.958678E-05
3.372681E+03	3.073132E-03	4.030782E-05
3.382601E+03	3.144131E-03	4.105183E-05
3.392521E+03	3.217562E-03	4.181877E-05
3.402440E+03	3.293435E-03	4.260834E-05
3.412360E+03	3.371884E-03	4.342180E-05
3.422280E+03	3.452906E-03	4.425865E-05
3.432199E+03	3.536612E-03	4.511988E-05
3.442119E+03	3.622757E-03	4.600184E-05
3.452038E+03	3.711659E-03	4.690817E-05
3.461958E+03	3.803186E-03	4.783667E-05
3.471878E+03	3.897299E-03	4.878643E-05
3.481797E+03	3.994102E-03	4.975825E-05
3.491717E+03	4.093476E-03	5.075019E-05
3.501637E+03	4.195576E-03	5.176371E-05
3.511556E+03	4.300378E-03	5.279804E-05
3.521476E+03	4.408072E-03	5.385503E-05
3.531396E+03	4.518706E-03	5.493474E-05
3.541315E+03	4.632812E-03	5.604311E-05
3.551235E+03	4.750756E-03	5.718395E-05
3.561155E+03	4.872717E-03	5.835871E-05
3.571074E+03	4.998893E-03	5.956909E-05
3.580994E+03	5.129050E-03	6.081154E-05
3.590914E+03	5.262836E-03	6.208126E-05
3.600833E+03	5.399573E-03	6.336967E-05
3.610753E+03	5.538862E-03	6.467160E-05
3.620673E+03	5.680229E-03	6.598115E-05
3.630592E+03	5.823408E-03	6.729492E-05
3.640512E+03	5.967909E-03	6.860700E-05
3.650432E+03	6.113806E-03	6.991805E-05
3.660351E+03	6.260499E-03	7.122103E-05
3.670271E+03	6.407769E-03	7.251336E-05
3.680190E+03	6.555517E-03	7.379386E-05
3.690110E+03	6.703234E-03	7.505678E-05
3.700030E+03	6.850769E-03	7.630051E-05
3.709949E+03	6.998312E-03	7.752722E-05
3.719869E+03	7.145959E-03	7.873803E-05
3.729789E+03	7.294661E-03	7.994337E-05
3.739708E+03	7.446093E-03	8.116138E-05
3.749628E+03	7.602764E-03	8.241884E-05
3.759548E+03	7.767893E-03	8.374957E-05
3.769467E+03	7.945687E-03	8.519726E-05
3.779387E+03	8.140855E-03	8.680994E-05
3.789307E+03	8.358825E-03	8.864221E-05
3.799226E+03	8.604936E-03	9.074642E-05
3.809146E+03	8.884756E-03	9.317611E-05
3.819066E+03	9.203517E-03	9.598004E-05
3.828985E+03	9.566973E-03	9.921117E-05
3.838905E+03	9.980197E-03	1.029142E-04
3.848825E+03	1.044808E-02	1.071306E-04
3.858744E+03	1.097454E-02	1.118912E-04
3.868664E+03	1.156327E-02	1.172233E-04
3.878583E+03	1.221583E-02	1.231321E-04
3.888503E+03	1.293230E-02	1.296078E-04
3.898423E+03	1.370986E-02	1.366116E-04
3.908342E+03	1.454263E-02	1.440751E-04
3.918262E+03	1.542181E-02	1.519023E-04
3.928182E+03	1.633341E-02	1.599492E-04
3.938101E+03	1.726032E-02	1.680439E-04
3.948021E+03	1.818010E-02	1.759673E-04
3.957941E+03	1.906553E-02	1.834592E-04
3.967860E+03	1.988527E-02	1.902264E-04
3.977780E+03	2.060334E-02	1.959384E-04
3.987700E+03	2.118337E-02	2.002690E-04
3.997619E+03	2.158975E-02	2.029073E-04
4.007539E+03	2.179355E-02	2.036123E-04
4.017459E+03	2.177649E-02	2.022486E-04
4.027378E+03	2.153356E-02	1.988065E-04
4.037298E+03	2.107663E-02	1.934324E-04
4.047218E+03	2.043201E-02	1.864013E-04
4.057137E+03	1.963819E-02	1.780927E-04
4.067057E+03	1.874096E-02	1.689432E-04
4.076976E+03	1.778777E-02	1.593943E-04
4.086896E+03	1.682209E-02	1.498414E-04
4.096816E+03	1.588159E-02	1.406197E-04
4.106735E+03	1.499497E-02	1.319767E-04
4.116655E+03	1.418343E-02	1.240889E-04
4.126575E+03	1.346050E-02	1.170613E-04
4.136494E+03	1.283463E-02	1.109526E-04
4.146414E+03	1.230999E-02	1.057832E-04
4.156334E+03	1.188776E-02	1.015468E-04
4.166253E+03	1.156704E-02	9.821999E-05
4.176173E+03	1.134561E-02	9.576822E-05
4.186093E+03	1.121912E-02	9.413974E-05
4.196012E+03	1.118288E-02	9.328144E-05
4.205932E+03	1.123101E-02	9.313104E-05
4.215852E+03	1.135732E-02	9.362539E-05
4.225771E+03	1.155445E-02	9.469296E-05
4.235691E+03	1.181398E-02	9.625538E-05
4.245611E+03	1.212537E-02	9.821891E-05
4.255530E+03	1.247580E-02	1.004735E-04
4.265450E+03	1.285049E-02	1.028960E-04
4.275370E+03	1.323114E-02	1.053382E-04
4.285289E+03	1.359803E-02	1.076438E-04
4.295209E+03	1.392993E-02	1.096485E-04
4.305128E+03	1.420607E-02	1.111950E-04
4.315048E+03	1.440783E-02	1.121466E-04
4.324968E+03	1.452063E-02	1.124007E-04
4.334887E+03	1.453706E-02	1.119120E-04
4.344807E+03	1.445735E-02	1.106949E-04
4.354727E+03	1.429080E-02	1.088323E-04
4.364646E+03	1.405475E-02	1.064660E-04
4.374566E+03	1.377287E-02	1.037828E-04
4.384486E+03	1.347205E-02	1.009889E-04
4.394405E+03	1.318027E-02	9.829467E-05
4.404325E+03	1.292344E-02	9.589069E-05
4.414245E+03	1.272505E-02	9.394579E-05
4.424164E+03	1.260476E-02	9.259745E-05
4.434084E+03	1.257927E-02	9.195898E-05
4.444004E+03	1.266234E-02	9.212007E-05
4.453923E+03	1.286542E-02	9.315237E-05
4.463843E+03	1.319735E-02	9.510743E-05
4.473763E+03	1.366509E-02	9.802261E-05
4.483682E+03	1.427211E-02	1.019099E-04
4.493602E+03	1.501814E-02	1.067549E-04
4.503521E+03	1.589864E-02	1.125133E-04
4.513441E+03	1.690300E-02	1.190992E-04
4.523361E+03	1.801376E-02	1.263805E-04
4.533280E+03	1.920643E-02	1.341784E-04
4.543200E+03	2.044774E-02	1.422562E-04
4.553120E+03	2.169717E-02	1.503313E-04
4.563039E+03	2.290513E-02	1.580626E-04
4.572959E+03	2.401607E-02	1.650743E-04
4.582879E+03	2.497116E-02	1.709732E-04
4.592798E+03	2.571415E-02	1.753897E-04
4.602718E+03	2.619734E-02	1.780177E-04
4.612638E+03	2.639136E-02	1.786790E-04
4.622557E+03	2.629166E-02	1.773647E-04
4.632477E+03	2.592187E-02	1.742550E-04
4.642397E+03	2.533136E-02	1.696990E-04
4.652316E+03	2.458733E-02	1.641599E-04
4.662236E+03	2.376451E-02	1.581438E-04
4.672156E+03	2.293318E-02	1.521209E-04
4.682075E+03	2.214924E-02	1.464598E-04
4.691995E+03	2.144968E-02	1.413999E-04
4.701914E+03	2.085267E-02	1.370545E-04
4.711834E+03	2.036098E-02	1.334345E-04
4.721754E+03	1.996539E-02	1.304728E-04
4.731673E+03	1.964945E-02	1.280562E-04
4.741593E+03	1.939412E-02	1.260562E-04
4.751513E+03	1.918053E-02	1.243469E-04
4.761432E+03	1.899430E-02	1.228327E-04
4.771352E+03	1.882828E-02	1.214658E-04
4.781272E+03	1.868453E-02	1.202583E-04
4.791191E+03	1.857148E-02	1.192625E-04
4.801111E+03	1.849992E-02	1.185458E-04
4.811031E+03	1.848014E-02	1.181719E-04
4.820950E+03	1.851958E-02	1.181860E-04
4.830870E+03	1.862211E-02	1.186101E-04
4.840790E+03	1.878754E-02	1.194406E-04
4.850709E+03	1.901453E-02	1.206668E-04
4.860629E+03	1.930247E-02	1.222826E-04
4.870549E+03	1.965461E-02	1.243069E-04
4.880468E+03	2.007874E-02	1.267869E-04
4.890388E+03	2.058566E-02	1.297890E-04
4.900308E+03	2.118838E-02	1.333929E-04
4.910227E+03	2.189387E-02	1.376402E-04
4.920147E+03	2.269675E-02	1.424950E-04
4.930066E+03	2.356922E-02	1.477814E-04
4.939986E+03	2.446143E-02	1.531859E-04
4.949906E+03	2.530270E-02	1.582668E-04
4.959825E+03	2.600867E-02	1.624987E-04
4.969745E+03	2.649457E-02	1.653560E-04
4.979665E+03	2.669271E-02	1.664213E-04
4.989584E+03	2.656838E-02	1.654840E-04
4.999504E+03	2.612699E-02	1.625832E-04
5.009424E+03	2.541434E-02	1.580087E-04
5.019343E+03	2.450775E-02	1.522444E-04
5.029263E+03	2.349822E-02	1.458573E-04
5.039183E+03	2.247357E-02	1.393926E-04
5.049102E+03	2.150640E-02	1.332996E-04
5.059022E+03	2.064868E-02	1.278984E-04
5.068942E+03	1.993043E-02	1.233729E-04
5.078861E+03	1.936212E-02	1.197855E-04
5.088781E+03	1.893886E-02	1.171039E-04
5.098701E+03	1.864658E-02	1.152393E-04
5.108620E+03	1.846527E-02	1.140666E-04
5.118540E+03	1.837219E-02	1.134443E-04
5.128459E+03	1.834661E-02	1.132436E-04
5.138379E+03	1.837158E-02	1.133595E-04
5.148299E+03	1.843647E-02	1.137261E-04
5.158218E+03	1.853780E-02	1.143218E-04
5.168138E+03	1.867972E-02	1.151720E-04
5.178058E+03	1.887351E-02	1.163462E-04
5.187977E+03	1.913498E-02	1.179420E-04
5.197897E+03	1.948308E-02	1.200761E-04
5.207817E+03	1.993625E-02	1.228624E-04
5.217736E+03	2.051027E-02	1.263984E-04
5.227656E+03	2.121506E-02	1.307457E-04
5.237576E+03	2.205273E-02	1.359180E-04
5.247495E+03	2.301789E-02	1.418831E-04
5.257415E+03	2.409576E-02	1.485509E-04
5.267335E+03	2.526233E-02	1.557749E-04
5.277254E+03	2.648481E-02	1.633540E-04
5.287174E+03	2.772196E-02	1.710354E-04
5.297094E+03	2.892768E-02	1.785359E-04
5.307013E+03	3.005495E-02	1.855662E-04
5.316933E+03	3.106111E-02	1.918633E-04
5.326852E+03	3.190950E-02	1.972008E-04
5.336772E+03	3.257200E-02	2.014046E-04
5.346692E+03	3.302837E-02	2.043481E-04
5.356611E+03	3.326897E-02	2.059704E-04
5.366531E+03	3.329447E-02	2.062729E-04
5.376451E+03	3.311747E-02	2.053305E-04
5.386370E+03	3.276466E-02	2.033054E-04
5.396290E+03	3.227969E-02	2.004652E-04
5.406210E+03	3.172183E-02	1.971755E-04
5.416129E+03	3.115817E-02	1.938514E-04
5.426049E+03	3.065698E-02	1.909173E-04
5.435969E+03	3.027793E-02	1.887454E-04
5.445888E+03	3.006350E-02	1.876024E-04
5.455808E+03	3.003193E-02	1.876049E-04
5.465728E+03	3.017407E-02	1.886990E-04
5.475647E+03	3.045489E-02	1.906685E-04
5.485567E+03	3.082086E-02	1.931807E-04
5.495487E+03	3.120601E-02	1.958232E-04
5.505406E+03	3.154548E-02	1.981887E-04
5.515326E+03	3.178795E-02	1.999532E-04
5.525246E+03	3.190556E-02	2.009389E-04
5.535165E+03	3.189444E-02	2.011180E-04
5.545085E+03	3.176944E-02	2.005810E-04
5.555004E+03	3.155593E-02	1.994854E-04
5.564924E+03	3.128339E-02	1.980152E-04
5.574844E+03	3.097876E-02	1.963392E-04
5.584763E+03	3.066009E-02	1.945713E-04
5.594683E+03	3.033778E-02	1.927765E-04
5.604603E+03	3.001236E-02	1.909580E-04
5.614522E+03	2.967780E-02	1.890771E-04
5.624442E+03	2.932132E-02	1.870518E-04
5.634362E+03	2.892577E-02	1.847717E-04
5.644281E+03	2.847313E-02	1.821204E-04
5.654201E+03	2.794699E-02	1.789913E-04
5.664121E+03	2.733846E-02	1.753252E-04
5.674040E+03	2.664794E-02	1.711225E-04
5.683960E+03	2.589001E-02	1.664748E-04
5.693880E+03	2.509320E-02	1.615639E-04
5.703799E+03	2.429833E-02	1.566520E-04
5.713719E+03	2.355403E-02	1.520530E-04
5.723639E+03	2.290829E-02	1.480785E-04
5.733558E+03	2.240409E-02	1.450088E-04
5.743478E+03	2.207594E-02	1.430715E-04
5.753397E+03	2.194706E-02	1.424216E-04
5.763317E+03	2.202936E-02	1.431415E-04
5.773237E+03	2.232258E-02	1.452349E-04
5.783156E+03	2.281676E-02	1.486423E-04
5.793076E+03	2.349051E-02	1.532292E-04
5.802996E+03	2.431326E-02	1.588006E-04
5.812915E+03	2.524640E-02	1.651077E-04
5.822835E+03	2.624636E-02	1.718680E-04
5.832755E+03	2.726522E-02	1.787693E-04
5.842674E+03	2.825422E-02	1.854918E-04
5.852594E+03	2.916622E-02	1.917252E-04
5.862514E+03	2.995964E-02	1.971939E-04
5.872433E+03	3.060384E-02	2.016933E-04
5.882353E+03	3.108156E-02	2.051056E-04
5.892273E+03	3.138755E-02	2.073924E-04
5.902192E+03	3.152774E-02	2.085887E-04
5.912112E+03	3.151474E-02	2.087737E-04
5.922032E+03	3.136339E-02	2.080424E-04
5.931951E+03	3.109013E-02	2.065004E-04
5.941871E+03	3.070876E-02	2.042365E-04
5.951790E+03	3.023417E-02	2.013473E-04
5.961710E+03	2.968197E-02	1.979344E-04
5.971630E+03	2.907064E-02	1.941192E-04
5.981549E+03	2.842188E-02	1.900455E-04
5.991469E+03	2.775878E-02	1.858666E-04
6.001389E+03	2.710338E-02	1.817303E-04
6.011308E+03	2.647825E-02	1.777880E-04
6.021228E+03	2.590284E-02	1.741717E-04
6.031148E+03	2.539362E-02	1.709935E-04
6.041067E+03	2.496178E-02	1.683309E-04
6.050987E+03	2.461216E-02	1.662189E-04
6.060907E+03	2.434027E-02	1.646297E-04
6.070826E+03	2.413255E-02	1.634738E-04
6.080746E+03	2.396537E-02	1.625932E-04
6.090666E+03	2.380472E-02	1.617580E-04
6.100585E+03	2.361352E-02	1.607163E-04
6.110505E+03	2.335570E-02	1.592213E-04
6.120425E+03	2.300470E-02	1.570895E-04
6.130344E+03	2.254818E-02	1.542333E-04
6.140264E+03	2.198910E-02	1.506692E-04
6.150184E+03	2.134448E-02	1.465101E-04
6.160103E+03	2.063888E-02	1.419209E-04
6.170023E+03	1.989557E-02	1.370591E-04
6.179942E+03	1.912991E-02	1.320284E-04
6.189862E+03	1.834771E-02	1.268673E-04
6.199782E+03	1.754852E-02	1.215715E-04
6.209701E+03	1.672725E-02	1.161043E-04
6.219621E+03	1.588229E-02	1.104529E-04
6.229541E+03	1.501940E-02	1.046560E-04
6.239460E+03	1.415433E-02	9.882219E-05
6.249380E+03	1.331111E-02	9.311903E-05
6.259300E+03	1.251781E-02	8.774377E-05
6.269219E+03	1.180410E-02	8.290635E-05
6.279139E+03	1.119733E-02	7.880237E-05
6.289059E+03	1.072199E-02	7.560880E-05
6.298978E+03	1.039889E-02	7.347794E-05
6.308898E+03	1.024520E-02	7.253777E-05
6.318818E+03	1.027406E-02	7.288852E-05
6.328737E+03	1.049531E-02	7.460791E-05
6.338657E+03	1.091705E-02	7.776165E-05
6.348577E+03	1.154637E-02	8.240884E-05
6.358496E+03	1.238891E-02	8.859856E-05
6.368416E+03	1.344559E-02	9.634634E-05
6.378335E+03	1.471038E-02	1.056176E-04
6.388255E+03	1.616434E-02	1.162848E-04
6.398175E+03	1.777393E-02	1.281135E-04
6.408094E+03	1.948892E-02	1.407473E-04
6.418014E+03	2.124565E-02	1.537293E-04
6.427934E+03	2.297042E-02	1.665262E-04
6.437853E+03	2.458761E-02	1.785869E-04
6.447773E+03	2.602858E-02	1.894067E-04
6.457693E+03	2.724029E-02	1.985911E-04
6.467612E+03	2.819043E-02	2.058942E-04
6.477532E+03	2.887270E-02	2.112587E-04
6.487452E+03	2.930212E-02	2.147840E-04
6.497371E+03	2.951366E-02	2.167162E-04
6.507291E+03	2.955349E-02	2.173863E-04
6.517211E+03	2.947251E-02	2.171626E-04
6.527130E+03	2.931974E-02	2.164023E-04
6.537050E+03	2.913676E-02	2.154098E-04
6.546970E+03	2.895561E-02	2.144214E-04
6.556889E+03	2.879853E-02	2.136020E-04
6.566809E+03	2.867742E-02	2.130409E-04
6.576728E+03	2.859607E-02	2.127675E-04
6.586648E+03	2.855284E-02	2.127708E-04
6.596568E+03	2.854124E-02	2.130037E-04
6.606487E+03	2.855275E-02	2.134035E-04
6.616407E+03	2.857652E-02	2.138897E-04
6.626327E+03	2.860089E-02	2.143752E-04
6.636246E+03	2.861268E-02	2.147610E-04
6.646166E+03	2.860078E-02	2.149633E-04
6.656086E+03	2.855470E-02	2.149022E-04
6.666005E+03	2.846560E-02	2.145102E-04
6.675925E+03	2.832809E-02	2.137455E-04
6.685845E+03	2.813938E-02	2.125855E-04
6.695764E+03	2.789941E-02	2.110287E-04
6.705684E+03	2.760995E-02	2.090871E-04
6.715604E+03	2.727567E-02	2.067950E-04
6.725523E+03	2.690081E-02	2.041837E-04
6.735443E+03	2.649183E-02	2.013015E-04
6.745363E+03	2.605384E-02	1.981868E-04
6.755282E+03	2.559336E-02	1.948887E-04
6.765202E+03	2.511538E-02	1.914452E-04
6.775122E+03	2.462474E-02	1.878931E-04
6.785041E+03	2.412582E-02	1.842660E-04
6.794961E+03	2.362305E-02	1.805979E-04
6.804880E+03	2.311973E-02	1.769143E-04
6.814800E+03	2.262060E-02	1.732521E-04
6.824720E+03	2.212969E-02	1.696424E-04
6.834639E+03	2.165180E-02	1.661227E-04
6.844559E+03	2.119230E-02	1.627348E-04
6.854479E+03	2.075750E-02	1.595278E-04
6.864398E+03	2.035333E-02	1.565484E-04
6.874318E+03	1.998739E-02	1.538557E-04
6.884238E+03	1.966636E-02	1.515023E-04
6.894157E+03	1.939656E-02	1.495380E-04
6.904077E+03	1.918424E-02	1.480121E-04
6.913997E+03	1.903296E-02	1.469535E-04
6.923916E+03	1.894428E-02	1.463754E-04
6.933836E+03	1.891699E-02	1.462697E-04
6.943756E+03	1.894658E-02	1.466029E-04
6.953675E+03	1.902629E-02	1.473235E-04
6.963595E+03	1.914576E-02	1.483525E-04
6.973515E+03	1.929263E-02	1.495949E-04
6.983434E+03	1.945392E-02	1.509506E-04
6.993354E+03	1.961580E-02	1.523127E-04
7.003273E+03	1.976475E-02	1.535765E-04
7.013193E+03	1.988802E-02	1.546428E-04
7.023113E+03	1.997524E-02	1.554309E-04
7.033032E+03	2.001802E-02	1.558752E-04
7.042952E+03	2.001090E-02	1.559325E-04
7.052872E+03	1.995131E-02	1.555824E-04
7.062791E+03	1.984083E-02	1.548366E-04
7.072711E+03	1.968385E-02	1.537287E-04
7.082631E+03	1.948836E-02	1.523208E-04
7.092550E+03	1.926427E-02	1.506897E-04
7.102470E+03	1.902291E-02	1.489238E-04
7.112390E+03	1.877576E-02	1.471131E-04
7.122309E+03	1.853423E-02	1.453469E-04
7.132229E+03	1.830921E-02	1.437112E-04
7.142149E+03	1.810871E-02	1.422693E-04
7.152068E+03	1.793947E-02	1.410751E-04
7.161988E+03	1.780667E-02	1.401701E-04
7.171908E+03	1.771216E-02	1.395702E-04
7.181827E+03	1.765693E-02	1.392841E-04
7.191747E+03	1.763869E-02	1.392952E-04
7.201667E+03	1.765412E-02	1.395786E-04
7.211586E+03	1.769772E-02	1.400918E-04
7.221506E+03	1.776244E-02	1.407805E-04
7.231425E+03	1.783917E-02	1.415733E-04
7.241345E+03	1.791808E-02	1.423929E-04
7.251265E+03	1.798892E-02	1.431583E-04
7.261184E+03	1.804236E-02	1.437954E-04
7.271104E+03	1.807058E-02	1.442416E-04
7.281024E+03	1.806832E-02	1.444544E-04
7.290943E+03	1.803458E-02	1.444249E-04
7.300863E+03	1.797205E-02	1.441738E-04
7.310783E+03	1.788730E-02	1.437531E-04
7.320702E+03	1.778955E-02	1.432362E-04
7.330622E+03	1.768937E-02	1.427079E-04
7.340542E+03	1.759623E-02	1.422450E-04
7.350461E+03	1.751839E-02	1.419150E-04
7.360381E+03	1.746230E-02	1.417710E-04
7.370301E+03	1.743040E-02	1.418344E-04
7.380220E+03	1.742429E-02	1.421200E-04
7.390140E+03	1.744353E-02	1.426260E-04
7.400060E+03	1.748723E-02	1.433470E-04
7.409979E+03	1.755479E-02	1.442801E-04
7.419899E+03	1.764566E-02	1.454227E-04
7.429818E+03	1.775711E-02	1.467547E-04
7.439738E+03	1.788414E-02	1.482365E-04
7.449658E+03	1.801732E-02	1.497915E-04
7.459577E+03	1.814079E-02	1.512888E-04
7.469497E+03	1.823600E-02	1.525730E-04
7.479417E+03	1.828254E-02	1.534712E-04
7.489336E+03	1.826409E-02	1.538421E-04
7.499256E+03	1.817088E-02	1.535976E-04
7.509176E+03	1.799860E-02	1.526937E-04
7.519095E+03	1.775154E-02	1.511591E-04
7.529015E+03	1.743970E-02	1.490711E-04
7.538935E+03	1.707540E-02	1.465280E-04
7.548854E+03	1.667376E-02	1.436536E-04
7.558774E+03	1.624894E-02	1.405653E-04
7.568694E+03	1.581565E-02	1.373871E-04
7.578613E+03	1.538896E-02	1.342480E-04
7.588533E+03	1.498261E-02	1.312679E-04
7.598453E+03	1.461117E-02	1.285761E-04
7.608372E+03	1.428940E-02	1.263060E-04
7.618292E+03	1.403056E-02	1.245801E-04
7.628211E+03	1.384606E-02	1.235070E-04
7.638131E+03	1.374357E-02	1.231639E-04
7.648051E+03	1.372738E-02	1.235990E-04
7.657970E+03	1.379796E-02	1.248276E-04
7.667890E+03	1.395097E-02	1.268209E-04
7.677810E+03	1.417868E-02	1.295195E-04
7.687729E+03	1.446930E-02	1.328252E-04
7.697649E+03	1.480954E-02	1.366243E-04
