#wls	flux	fluxerr
1.587144E+03	6.520417E-05	1.788473E-06
1.626823E+03	6.689093E-05	1.830946E-06
1.666501E+03	6.820972E-05	1.863082E-06
1.706180E+03	6.911370E-05	1.883660E-06
1.745859E+03	6.954161E-05	1.891082E-06
1.785537E+03	6.939974E-05	1.882890E-06
1.825216E+03	6.853622E-05	1.855078E-06
1.864894E+03	6.681971E-05	1.804241E-06
1.904573E+03	6.413064E-05	1.727331E-06
1.944252E+03	6.048947E-05	1.625106E-06
1.983930E+03	5.608648E-05	1.502875E-06
2.023609E+03	5.145175E-05	1.374985E-06
2.063287E+03	4.740633E-05	1.263389E-06
2.102966E+03	4.485452E-05	1.192007E-06
2.142645E+03	4.448088E-05	1.178653E-06
2.182323E+03	4.656356E-05	1.230175E-06
2.222002E+03	5.094953E-05	1.341949E-06
2.261680E+03	5.717666E-05	1.501259E-06
2.301359E+03	6.465217E-05	1.692103E-06
2.341038E+03	7.285331E-05	1.900487E-06
2.380716E+03	8.136338E-05	2.115341E-06
2.420395E+03	8.995241E-05	2.330578E-06
2.460073E+03	9.846666E-05	2.542156E-06
2.499752E+03	1.069070E-04	2.750067E-06
2.539431E+03	1.152575E-04	2.953872E-06
2.579109E+03	1.236091E-04	3.155869E-06
2.618788E+03	1.320056E-04	3.357120E-06
2.658466E+03	1.405119E-04	3.559203E-06
2.698145E+03	1.492336E-04	3.764694E-06
2.737824E+03	1.582417E-04	3.975257E-06
2.777502E+03	1.676067E-04	4.192509E-06
2.817181E+03	1.774428E-04	4.419118E-06
2.856859E+03	1.878258E-04	4.656750E-06
2.896538E+03	1.988569E-04	4.907651E-06
2.936217E+03	2.106193E-04	5.173579E-06
2.975895E+03	2.232754E-04	5.458174E-06
2.985815E+03	2.265907E-04	5.532478E-06
2.995735E+03	2.299445E-04	5.607495E-06
3.005654E+03	2.333888E-04	5.684485E-06
3.015574E+03	2.369074E-04	5.763046E-06
3.025494E+03	2.405283E-04	5.843848E-06
3.035413E+03	2.442811E-04	5.927603E-06
3.045333E+03	2.481347E-04	6.013540E-06
3.055252E+03	2.521635E-04	6.103448E-06
3.065172E+03	2.562845E-04	6.195309E-06
3.075092E+03	2.605207E-04	6.289661E-06
3.085011E+03	2.648688E-04	6.386418E-06
3.094931E+03	2.693538E-04	6.486165E-06
3.104851E+03	2.739462E-04	6.588182E-06
3.114770E+03	2.786441E-04	6.692411E-06
3.124690E+03	2.834459E-04	6.798800E-06
3.134610E+03	2.883788E-04	6.907992E-06
3.144529E+03	2.933850E-04	7.018587E-06
3.154449E+03	2.985212E-04	7.131931E-06
3.164369E+03	3.037877E-04	7.248020E-06
3.174288E+03	3.091260E-04	7.365442E-06
3.184208E+03	3.145952E-04	7.485598E-06
3.194128E+03	3.201663E-04	7.607782E-06
3.204047E+03	3.258705E-04	7.732721E-06
3.213967E+03	3.316787E-04	7.859712E-06
3.223887E+03	3.376230E-04	7.989505E-06
3.233806E+03	3.436743E-04	8.121394E-06
3.243726E+03	3.498341E-04	8.255401E-06
3.253645E+03	3.561361E-04	8.392311E-06
3.263565E+03	3.625832E-04	8.532172E-06
3.273485E+03	3.691131E-04	8.673505E-06
3.283404E+03	3.758262E-04	8.818654E-06
3.293324E+03	3.826606E-04	8.966150E-06
3.303244E+03	3.896520E-04	9.116814E-06
3.313163E+03	3.967705E-04	9.269929E-06
3.323083E+03	4.040534E-04	9.426347E-06
3.333003E+03	4.114703E-04	9.585345E-06
3.342922E+03	4.190945E-04	9.748610E-06
3.352842E+03	4.268608E-04	9.914604E-06
3.362762E+03	4.347733E-04	1.008340E-05
3.372681E+03	4.429072E-04	1.025673E-05
3.382601E+03	4.511962E-04	1.043304E-05
3.392521E+03	4.596808E-04	1.061323E-05
3.402440E+03	4.683669E-04	1.079742E-05
3.412360E+03	4.772588E-04	1.098569E-05
3.422280E+03	4.863255E-04	1.117730E-05
3.432199E+03	4.956472E-04	1.137407E-05
3.442119E+03	5.051542E-04	1.157438E-05
3.452038E+03	5.149282E-04	1.178006E-05
3.461958E+03	5.248994E-04	1.198949E-05
3.471878E+03	5.351116E-04	1.220366E-05
3.481797E+03	5.456108E-04	1.242357E-05
3.491717E+03	5.563246E-04	1.264756E-05
3.501637E+03	5.673395E-04	1.287755E-05
3.511556E+03	5.785815E-04	1.311183E-05
3.521476E+03	5.901384E-04	1.335236E-05
3.531396E+03	6.019355E-04	1.359742E-05
3.541315E+03	6.140622E-04	1.384900E-05
3.551235E+03	6.264845E-04	1.410629E-05
3.561155E+03	6.392523E-04	1.437037E-05
3.571074E+03	6.522877E-04	1.463947E-05
3.580994E+03	6.656841E-04	1.491562E-05
3.590914E+03	6.794053E-04	1.519800E-05
3.600833E+03	6.934595E-04	1.548674E-05
3.610753E+03	7.078538E-04	1.578195E-05
3.620673E+03	7.226411E-04	1.608477E-05
3.630592E+03	7.377841E-04	1.639434E-05
3.640512E+03	7.533372E-04	1.671181E-05
3.650432E+03	7.692616E-04	1.703627E-05
3.660351E+03	7.855652E-04	1.736786E-05
3.670271E+03	8.022549E-04	1.770667E-05
3.680190E+03	8.193870E-04	1.805391E-05
3.690110E+03	8.369700E-04	1.840971E-05
3.700030E+03	8.549636E-04	1.877313E-05
3.709949E+03	8.733739E-04	1.914426E-05
3.719869E+03	8.922592E-04	1.952431E-05
3.729789E+03	9.115763E-04	1.991229E-05
3.739708E+03	9.313838E-04	2.030943E-05
3.749628E+03	9.516376E-04	2.071470E-05
3.759548E+03	9.723437E-04	2.112818E-05
3.769467E+03	9.935612E-04	2.155110E-05
3.779387E+03	1.015298E-03	2.198357E-05
3.789307E+03	1.037506E-03	2.242449E-05
3.799226E+03	1.060245E-03	2.287510E-05
3.809146E+03	1.083467E-03	2.333429E-05
3.819066E+03	1.107176E-03	2.380207E-05
3.828985E+03	1.131431E-03	2.427969E-05
3.838905E+03	1.156239E-03	2.476721E-05
3.848825E+03	1.181545E-03	2.526339E-05
3.858744E+03	1.207352E-03	2.576823E-05
3.868664E+03	1.233720E-03	2.628297E-05
3.878583E+03	1.260592E-03	2.680631E-05
3.888503E+03	1.288029E-03	2.733949E-05
3.898423E+03	1.315970E-03	2.788115E-05
3.908342E+03	1.344414E-03	2.843120E-05
3.918262E+03	1.373420E-03	2.899086E-05
3.928182E+03	1.402923E-03	2.955867E-05
3.938101E+03	1.432984E-03	3.013585E-05
3.948021E+03	1.463467E-03	3.071950E-05
3.957941E+03	1.494496E-03	3.131214E-05
3.967860E+03	1.525997E-03	3.191219E-05
3.977780E+03	1.557961E-03	3.251940E-05
3.987700E+03	1.590444E-03	3.313488E-05
3.997619E+03	1.623301E-03	3.375553E-05
4.007539E+03	1.656650E-03	3.438382E-05
4.017459E+03	1.690341E-03	3.501653E-05
4.027378E+03	1.724494E-03	3.565613E-05
4.037298E+03	1.758951E-03	3.629929E-05
4.047218E+03	1.793759E-03	3.694699E-05
4.057137E+03	1.828897E-03	3.759871E-05
4.067057E+03	1.864339E-03	3.825392E-05
4.076976E+03	1.899986E-03	3.891056E-05
4.086896E+03	1.935882E-03	3.956949E-05
4.096816E+03	1.971921E-03	4.022855E-05
4.106735E+03	2.008147E-03	4.088860E-05
4.116655E+03	2.044448E-03	4.154737E-05
4.126575E+03	2.080863E-03	4.220565E-05
4.136494E+03	2.117279E-03	4.286113E-05
4.146414E+03	2.153654E-03	4.351300E-05
4.156334E+03	2.189947E-03	4.416043E-05
4.166253E+03	2.226114E-03	4.480257E-05
4.176173E+03	2.262110E-03	4.543853E-05
4.186093E+03	2.297811E-03	4.606587E-05
4.196012E+03	2.333328E-03	4.668683E-05
4.205932E+03	2.368455E-03	4.729736E-05
4.215852E+03	2.403144E-03	4.789656E-05
4.225771E+03	2.437427E-03	4.848512E-05
4.235691E+03	2.471257E-03	4.906218E-05
4.245611E+03	2.504507E-03	4.962529E-05
4.255530E+03	2.537049E-03	5.017198E-05
4.265450E+03	2.569000E-03	5.070470E-05
4.275370E+03	2.600236E-03	5.122108E-05
4.285289E+03	2.630716E-03	5.172040E-05
4.295209E+03	2.660320E-03	5.220041E-05
4.305128E+03	2.689092E-03	5.266211E-05
4.315048E+03	2.717002E-03	5.310502E-05
4.324968E+03	2.743938E-03	5.352706E-05
4.334887E+03	2.769958E-03	5.392952E-05
4.344807E+03	2.794879E-03	5.430894E-05
4.354727E+03	2.818857E-03	5.466851E-05
4.364646E+03	2.841811E-03	5.500678E-05
4.374566E+03	2.863752E-03	5.532410E-05
4.384486E+03	2.884701E-03	5.562100E-05
4.394405E+03	2.904603E-03	5.589657E-05
4.404325E+03	2.923574E-03	5.615317E-05
4.414245E+03	2.941653E-03	5.639168E-05
4.424164E+03	2.958800E-03	5.661145E-05
4.434084E+03	2.975146E-03	5.681509E-05
4.444004E+03	2.990659E-03	5.700209E-05
4.453923E+03	3.005395E-03	5.717362E-05
4.463843E+03	3.019411E-03	5.733085E-05
4.473763E+03	3.032767E-03	5.747504E-05
4.483682E+03	3.045525E-03	5.760741E-05
4.493602E+03	3.057750E-03	5.772927E-05
4.503521E+03	3.069505E-03	5.784188E-05
4.513441E+03	3.080856E-03	5.794656E-05
4.523361E+03	3.091790E-03	5.804309E-05
4.533280E+03	3.102372E-03	5.813277E-05
4.543200E+03	3.112828E-03	5.821985E-05
4.553120E+03	3.123061E-03	5.830258E-05
4.563039E+03	3.133136E-03	5.838217E-05
4.572959E+03	3.143114E-03	5.845979E-05
4.582879E+03	3.153132E-03	5.853803E-05
4.592798E+03	3.163168E-03	5.861647E-05
4.602718E+03	3.173275E-03	5.869610E-05
4.612638E+03	3.183581E-03	5.877928E-05
4.622557E+03	3.193974E-03	5.886398E-05
4.632477E+03	3.204651E-03	5.895379E-05
4.642397E+03	3.215492E-03	5.904652E-05
4.652316E+03	3.226685E-03	5.914558E-05
4.662236E+03	3.238176E-03	5.924999E-05
4.672156E+03	3.249911E-03	5.935875E-05
4.682075E+03	3.262067E-03	5.947505E-05
4.691995E+03	3.274511E-03	5.959648E-05
4.701914E+03	3.287423E-03	5.972628E-05
4.711834E+03	3.300676E-03	5.986213E-05
4.721754E+03	3.314370E-03	6.000583E-05
4.731673E+03	3.328603E-03	6.015910E-05
4.741593E+03	3.343233E-03	6.031938E-05
4.751513E+03	3.358347E-03	6.048819E-05
4.761432E+03	3.373868E-03	6.066416E-05
4.771352E+03	3.389951E-03	6.085001E-05
4.781272E+03	3.406509E-03	6.104418E-05
4.791191E+03	3.423452E-03	6.124504E-05
4.801111E+03	3.440920E-03	6.145501E-05
4.811031E+03	3.458734E-03	6.167093E-05
4.820950E+03	3.477025E-03	6.189507E-05
4.830870E+03	3.495607E-03	6.212413E-05
4.840790E+03	3.514603E-03	6.236025E-05
4.850709E+03	3.533820E-03	6.260000E-05
4.860629E+03	3.553374E-03	6.284543E-05
4.870549E+03	3.573063E-03	6.309297E-05
4.880468E+03	3.592999E-03	6.334456E-05
4.890388E+03	3.612972E-03	6.359656E-05
4.900308E+03	3.633089E-03	6.385081E-05
4.910227E+03	3.653215E-03	6.410497E-05
4.920147E+03	3.673371E-03	6.435941E-05
4.930066E+03	3.693338E-03	6.461033E-05
4.939986E+03	3.713213E-03	6.485944E-05
4.949906E+03	3.732850E-03	6.510425E-05
4.959825E+03	3.752186E-03	6.534365E-05
4.969745E+03	3.771150E-03	6.557650E-05
4.979665E+03	3.789757E-03	6.580305E-05
4.989584E+03	3.807935E-03	6.602216E-05
4.999504E+03	3.825454E-03	6.622985E-05
5.009424E+03	3.842406E-03	6.642778E-05
5.019343E+03	3.858720E-03	6.661481E-05
5.029263E+03	3.874245E-03	6.678839E-05
5.039183E+03	3.888913E-03	6.694742E-05
5.049102E+03	3.902738E-03	6.709222E-05
5.059022E+03	3.915654E-03	6.722173E-05
5.068942E+03	3.927515E-03	6.733356E-05
5.078861E+03	3.938343E-03	6.742812E-05
5.088781E+03	3.947996E-03	6.750312E-05
5.098701E+03	3.956502E-03	6.755910E-05
5.108620E+03	3.963809E-03	6.759528E-05
5.118540E+03	3.969788E-03	6.760954E-05
5.128459E+03	3.974477E-03	6.760266E-05
5.138379E+03	3.977838E-03	6.757406E-05
5.148299E+03	3.979756E-03	6.752190E-05
5.158218E+03	3.980284E-03	6.744718E-05
5.168138E+03	3.979400E-03	6.734962E-05
5.178058E+03	3.977086E-03	6.722901E-05
5.187977E+03	3.973250E-03	6.708391E-05
5.197897E+03	3.967969E-03	6.691568E-05
5.207817E+03	3.961241E-03	6.672442E-05
5.217736E+03	3.953075E-03	6.651034E-05
5.227656E+03	3.943402E-03	6.627239E-05
5.237576E+03	3.932320E-03	6.601228E-05
5.247495E+03	3.919854E-03	6.573052E-05
5.257415E+03	3.906031E-03	6.542763E-05
5.267335E+03	3.890884E-03	6.510427E-05
5.277254E+03	3.874375E-03	6.475982E-05
5.287174E+03	3.856700E-03	6.439765E-05
5.297094E+03	3.837750E-03	6.401600E-05
5.307013E+03	3.817651E-03	6.361701E-05
5.316933E+03	3.796453E-03	6.320154E-05
5.326852E+03	3.774209E-03	6.277049E-05
5.336772E+03	3.750973E-03	6.232474E-05
5.346692E+03	3.726723E-03	6.186397E-05
5.356611E+03	3.701661E-03	6.139155E-05
5.366531E+03	3.675692E-03	6.090587E-05
5.376451E+03	3.649013E-03	6.041021E-05
5.386370E+03	3.621526E-03	5.990295E-05
5.396290E+03	3.593350E-03	5.938603E-05
5.406210E+03	3.564528E-03	5.886018E-05
5.416129E+03	3.535171E-03	5.832722E-05
5.426049E+03	3.505180E-03	5.778547E-05
5.435969E+03	3.474670E-03	5.723684E-05
5.445888E+03	3.443693E-03	5.668217E-05
5.455808E+03	3.412388E-03	5.612373E-05
5.465728E+03	3.380705E-03	5.556065E-05
5.475647E+03	3.348879E-03	5.499680E-05
5.485567E+03	3.316945E-03	5.443272E-05
5.495487E+03	3.284941E-03	5.386898E-05
5.505406E+03	3.253093E-03	5.330928E-05
5.515326E+03	3.221491E-03	5.275503E-05
5.525246E+03	3.190088E-03	5.220545E-05
5.535165E+03	3.159090E-03	5.166384E-05
5.545085E+03	3.128501E-03	5.113024E-05
5.555004E+03	3.098385E-03	5.060566E-05
5.564924E+03	3.068860E-03	5.009198E-05
5.574844E+03	3.039918E-03	4.958901E-05
5.584763E+03	3.011605E-03	4.909748E-05
5.594683E+03	2.984025E-03	4.861902E-05
5.604603E+03	2.957158E-03	4.815326E-05
5.614522E+03	2.931097E-03	4.770170E-05
5.624442E+03	2.905818E-03	4.726385E-05
5.634362E+03	2.881408E-03	4.684114E-05
5.644281E+03	2.857895E-03	4.643394E-05
5.654201E+03	2.835247E-03	4.604171E-05
5.664121E+03	2.813544E-03	4.566571E-05
5.674040E+03	2.792753E-03	4.530535E-05
5.683960E+03	2.772950E-03	4.496182E-05
5.693880E+03	2.754154E-03	4.463541E-05
5.703799E+03	2.736383E-03	4.432635E-05
5.713719E+03	2.719598E-03	4.403400E-05
5.723639E+03	2.703871E-03	4.375948E-05
5.733558E+03	2.689218E-03	4.350298E-05
5.743478E+03	2.675651E-03	4.326471E-05
5.753397E+03	2.663186E-03	4.304487E-05
5.763317E+03	2.651835E-03	4.284363E-05
5.773237E+03	2.641612E-03	4.266117E-05
5.783156E+03	2.632528E-03	4.249766E-05
5.793076E+03	2.624543E-03	4.235243E-05
5.802996E+03	2.617777E-03	4.222736E-05
5.812915E+03	2.612187E-03	4.212176E-05
5.822835E+03	2.607786E-03	4.203579E-05
5.832755E+03	2.604585E-03	4.196963E-05
5.842674E+03	2.602597E-03	4.192344E-05
5.852594E+03	2.601834E-03	4.189740E-05
5.862514E+03	2.602361E-03	4.189255E-05
5.872433E+03	2.604084E-03	4.190737E-05
5.882353E+03	2.607123E-03	4.194373E-05
5.892273E+03	2.611437E-03	4.200099E-05
5.902192E+03	2.617040E-03	4.207934E-05
5.912112E+03	2.623944E-03	4.217899E-05
5.922032E+03	2.632218E-03	4.230098E-05
5.931951E+03	2.641766E-03	4.244382E-05
5.941871E+03	2.652710E-03	4.260944E-05
5.951790E+03	2.665011E-03	4.279718E-05
5.961710E+03	2.678737E-03	4.300814E-05
5.971630E+03	2.693844E-03	4.324162E-05
5.981549E+03	2.710347E-03	4.349786E-05
5.991469E+03	2.728256E-03	4.377700E-05
6.001389E+03	2.747581E-03	4.407922E-05
6.011308E+03	2.768389E-03	4.440559E-05
6.021228E+03	2.790630E-03	4.475529E-05
6.031148E+03	2.814307E-03	4.512842E-05
6.041067E+03	2.839483E-03	4.552595E-05
6.050987E+03	2.866096E-03	4.594691E-05
6.060907E+03	2.894139E-03	4.639123E-05
6.070826E+03	2.923663E-03	4.685969E-05
6.080746E+03	2.954589E-03	4.735107E-05
6.090666E+03	2.986893E-03	4.786502E-05
6.100585E+03	3.020543E-03	4.840100E-05
6.110505E+03	3.055562E-03	4.895944E-05
6.120425E+03	3.091840E-03	4.953859E-05
6.130344E+03	3.129390E-03	5.013868E-05
6.140264E+03	3.168095E-03	5.075786E-05
6.150184E+03	3.207906E-03	5.139539E-05
6.160103E+03	3.248849E-03	5.205172E-05
6.170023E+03	3.290821E-03	5.272522E-05
6.179942E+03	3.333779E-03	5.341526E-05
6.189862E+03	3.377747E-03	5.412225E-05
6.199782E+03	3.422601E-03	5.484424E-05
6.209701E+03	3.468347E-03	5.558137E-05
6.219621E+03	3.514842E-03	5.633140E-05
6.229541E+03	3.562078E-03	5.709425E-05
6.239460E+03	3.609892E-03	5.786734E-05
6.249380E+03	3.658186E-03	5.864917E-05
6.259300E+03	3.706933E-03	5.943931E-05
6.269219E+03	3.756025E-03	6.023605E-05
6.279139E+03	3.805265E-03	6.103627E-05
6.289059E+03	3.854532E-03	6.183802E-05
6.298978E+03	3.903866E-03	6.264197E-05
6.308898E+03	3.952889E-03	6.344207E-05
6.318818E+03	4.001725E-03	6.424032E-05
6.328737E+03	4.050071E-03	6.503189E-05
6.338657E+03	4.097793E-03	6.581462E-05
6.348577E+03	4.144937E-03	6.658923E-05
6.358496E+03	4.191194E-03	6.735079E-05
6.368416E+03	4.236432E-03	6.809718E-05
6.378335E+03	4.280709E-03	6.882931E-05
6.388255E+03	4.323717E-03	6.954223E-05
6.398175E+03	4.365428E-03	7.023549E-05
6.408094E+03	4.405730E-03	7.090727E-05
6.418014E+03	4.444514E-03	7.155578E-05
6.427934E+03	4.481579E-03	7.217780E-05
6.437853E+03	4.517023E-03	7.277486E-05
6.447773E+03	4.550561E-03	7.334237E-05
6.457693E+03	4.582310E-03	7.388214E-05
6.467612E+03	4.611995E-03	7.438975E-05
6.477532E+03	4.639649E-03	7.486567E-05
6.487452E+03	4.665318E-03	7.531063E-05
6.497371E+03	4.688747E-03	7.572044E-05
6.507291E+03	4.710102E-03	7.609775E-05
6.517211E+03	4.729247E-03	7.644032E-05
6.527130E+03	4.746157E-03	7.674773E-05
6.537050E+03	4.760817E-03	7.701963E-05
6.546970E+03	4.773325E-03	7.725759E-05
6.556889E+03	4.783576E-03	7.745985E-05
6.566809E+03	4.791577E-03	7.762646E-05
6.576728E+03	4.797343E-03	7.775763E-05
6.586648E+03	4.801004E-03	7.785539E-05
6.596568E+03	4.802480E-03	7.791840E-05
6.606487E+03	4.801915E-03	7.794893E-05
6.616407E+03	4.799239E-03	7.794580E-05
6.626327E+03	4.794500E-03	7.790971E-05
6.636246E+03	4.787853E-03	7.784315E-05
6.646166E+03	4.779355E-03	7.774697E-05
6.656086E+03	4.768954E-03	7.762028E-05
6.666005E+03	4.756712E-03	7.746402E-05
6.675925E+03	4.742909E-03	7.728270E-05
6.685845E+03	4.727287E-03	7.707207E-05
6.695764E+03	4.710236E-03	7.683844E-05
6.705684E+03	4.691612E-03	7.657941E-05
6.715604E+03	4.671591E-03	7.629779E-05
6.725523E+03	4.650243E-03	7.599471E-05
6.735443E+03	4.627535E-03	7.566953E-05
6.745363E+03	4.603642E-03	7.532511E-05
6.755282E+03	4.578635E-03	7.496256E-05
6.765202E+03	4.552479E-03	7.458126E-05
6.775122E+03	4.525451E-03	7.418571E-05
6.785041E+03	4.497411E-03	7.377357E-05
6.794961E+03	4.468527E-03	7.334758E-05
6.804880E+03	4.438863E-03	7.290877E-05
6.814800E+03	4.408381E-03	7.245643E-05
6.824720E+03	4.377345E-03	7.199492E-05
6.834639E+03	4.345609E-03	7.152179E-05
6.844559E+03	4.313331E-03	7.103962E-05
6.854479E+03	4.280566E-03	7.054928E-05
6.864398E+03	4.247365E-03	7.005161E-05
6.874318E+03	4.213680E-03	6.954575E-05
6.884238E+03	4.179753E-03	6.903574E-05
6.894157E+03	4.145435E-03	6.851906E-05
6.904077E+03	4.110868E-03	6.799803E-05
6.913997E+03	4.076090E-03	6.747331E-05
6.923916E+03	4.041046E-03	6.694394E-05
6.933836E+03	4.005963E-03	6.641366E-05
6.943756E+03	3.970687E-03	6.587992E-05
6.953675E+03	3.935344E-03	6.534482E-05
6.963595E+03	3.899967E-03	6.480886E-05
6.973515E+03	3.864493E-03	6.427100E-05
6.983434E+03	3.829041E-03	6.373324E-05
6.993354E+03	3.793639E-03	6.319600E-05
7.003273E+03	3.758312E-03	6.265970E-05
7.013193E+03	3.722995E-03	6.212327E-05
7.023113E+03	3.687801E-03	6.158858E-05
7.033032E+03	3.652663E-03	6.105451E-05
7.042952E+03	3.617692E-03	6.052292E-05
7.052872E+03	3.582822E-03	5.999269E-05
7.062791E+03	3.548244E-03	5.946703E-05
7.072711E+03	3.513722E-03	5.894198E-05
7.082631E+03	3.479446E-03	5.842073E-05
7.092550E+03	3.445434E-03	5.790359E-05
7.102470E+03	3.411621E-03	5.738947E-05
7.112390E+03	3.378028E-03	5.687872E-05
7.122309E+03	3.344753E-03	5.637300E-05
7.132229E+03	3.311736E-03	5.587130E-05
7.142149E+03	3.278994E-03	5.537392E-05
7.152068E+03	3.246548E-03	5.488121E-05
7.161988E+03	3.214496E-03	5.439483E-05
7.171908E+03	3.182776E-03	5.391377E-05
7.181827E+03	3.151408E-03	5.343837E-05
7.191747E+03	3.120414E-03	5.296898E-05
7.201667E+03	3.089887E-03	5.250722E-05
7.211586E+03	3.059696E-03	5.205090E-05
7.221506E+03	3.029939E-03	5.160164E-05
7.231425E+03	3.000706E-03	5.116104E-05
7.241345E+03	2.971872E-03	5.072697E-05
7.251265E+03	2.943530E-03	5.030102E-05
7.261184E+03	2.915699E-03	4.988356E-05
7.271104E+03	2.888398E-03	4.947492E-05
7.281024E+03	2.861646E-03	4.907546E-05
7.290943E+03	2.835461E-03	4.868550E-05
7.300863E+03	2.809792E-03	4.830420E-05
7.310783E+03	2.784723E-03	4.793304E-05
7.320702E+03	2.760272E-03	4.757232E-05
7.330622E+03	2.736450E-03	4.722231E-05
7.340542E+03	2.713205E-03	4.688212E-05
7.350461E+03	2.690548E-03	4.655196E-05
7.360381E+03	2.668620E-03	4.623433E-05
7.370301E+03	2.647297E-03	4.592709E-05
7.380220E+03	2.626582E-03	4.563037E-05
7.390140E+03	2.606545E-03	4.534538E-05
7.400060E+03	2.587117E-03	4.507100E-05
7.409979E+03	2.568363E-03	4.480836E-05
7.419899E+03	2.550211E-03	4.455628E-05
7.429818E+03	2.532716E-03	4.431576E-05
7.439738E+03	2.515808E-03	4.408558E-05
7.449658E+03	2.499540E-03	4.386675E-05
7.459577E+03	2.483781E-03	4.365702E-05
7.469497E+03	2.468713E-03	4.345959E-05
7.479417E+03	2.454149E-03	4.327120E-05
7.489336E+03	2.440205E-03	4.309396E-05
7.499256E+03	2.426816E-03	4.292669E-05
7.509176E+03	2.413973E-03	4.276926E-05
7.519095E+03	2.401726E-03	4.262259E-05
7.529015E+03	2.389942E-03	4.248430E-05
7.538935E+03	2.378726E-03	4.235632E-05
7.548854E+03	2.368001E-03	4.223728E-05
7.558774E+03	2.357810E-03	4.212793E-05
7.568694E+03	2.348013E-03	4.202585E-05
7.578613E+03	2.338710E-03	4.193280E-05
7.588533E+03	2.329821E-03	4.184737E-05
7.598453E+03	2.321323E-03	4.176918E-05
7.608372E+03	2.313197E-03	4.169788E-05
7.618292E+03	2.305420E-03	4.163308E-05
7.628211E+03	2.297972E-03	4.157442E-05
7.638131E+03	2.290888E-03	4.152256E-05
7.648051E+03	2.284033E-03	4.147506E-05
7.657970E+03	2.277445E-03	4.143260E-05
7.667890E+03	2.271161E-03	4.139588E-05
7.677810E+03	2.265048E-03	4.136246E-05
7.687729E+03	2.259202E-03	4.133412E-05
7.697649E+03	2.253549E-03	4.130948E-05
