#wls	flux	fluxerr
1.600000E+03	4.727637E-17	1.909126E-17
1.640000E+03	4.695647E-17	1.870701E-17
1.680000E+03	4.667540E-17	1.834561E-17
1.720000E+03	4.643265E-17	1.800630E-17
1.760000E+03	4.624126E-17	1.769345E-17
1.800000E+03	4.608706E-17	1.740085E-17
1.840000E+03	4.596952E-17	1.712759E-17
1.880000E+03	4.591487E-17	1.688261E-17
1.920000E+03	4.590891E-17	1.665957E-17
1.960000E+03	4.596421E-17	1.646198E-17
2.000000E+03	4.607993E-17	1.628831E-17
2.040000E+03	4.625523E-17	1.613701E-17
2.080000E+03	4.650243E-17	1.601102E-17
2.120000E+03	4.683367E-17	1.591299E-17
2.160000E+03	4.722194E-17	1.583214E-17
2.200000E+03	4.769257E-17	1.577547E-17
2.240000E+03	4.825768E-17	1.574517E-17
2.280000E+03	4.890368E-17	1.573487E-17
2.320000E+03	4.964296E-17	1.574667E-17
2.360000E+03	5.047527E-17	1.577840E-17
2.400000E+03	5.141332E-17	1.583185E-17
2.440000E+03	5.245745E-17	1.590471E-17
2.480000E+03	5.363354E-17	1.600222E-17
2.520000E+03	5.494270E-17	1.612175E-17
2.560000E+03	5.639919E-17	1.626430E-17
2.600000E+03	5.801794E-17	1.643062E-17
2.640000E+03	5.982706E-17	1.662465E-17
2.680000E+03	6.184329E-17	1.684646E-17
2.720000E+03	6.408473E-17	1.709583E-17
2.760000E+03	6.657111E-17	1.737233E-17
2.800000E+03	6.936080E-17	1.768463E-17
2.840000E+03	7.246564E-17	1.802807E-17
2.880000E+03	7.593709E-17	1.840693E-17
2.920000E+03	7.981798E-17	1.882172E-17
2.960000E+03	8.416771E-17	1.927514E-17
3.000000E+03	8.903876E-17	1.976624E-17
3.010000E+03	9.033875E-17	1.989342E-17
3.020000E+03	9.168631E-17	2.002510E-17
3.030000E+03	9.308210E-17	2.016113E-17
3.040000E+03	9.451448E-17	2.029869E-17
3.050000E+03	9.598414E-17	2.043765E-17
3.060000E+03	9.749179E-17	2.057791E-17
3.070000E+03	9.905056E-17	2.072196E-17
3.080000E+03	1.006613E-16	2.086960E-17
3.090000E+03	1.023248E-16	2.102068E-17
3.100000E+03	1.040297E-16	2.117249E-17
3.110000E+03	1.057892E-16	2.132740E-17
3.120000E+03	1.076043E-16	2.148526E-17
3.130000E+03	1.094636E-16	2.164340E-17
3.140000E+03	1.113931E-16	2.180661E-17
3.150000E+03	1.133815E-16	2.197220E-17
3.160000E+03	1.154300E-16	2.214000E-17
3.170000E+03	1.175398E-16	2.230981E-17
3.180000E+03	1.197121E-16	2.248142E-17
3.190000E+03	1.219610E-16	2.265702E-17
3.200000E+03	1.242752E-16	2.283399E-17
3.210000E+03	1.266562E-16	2.301213E-17
3.220000E+03	1.291310E-16	2.319585E-17
3.230000E+03	1.316629E-16	2.337793E-17
3.240000E+03	1.342922E-16	2.356504E-17
3.250000E+03	1.369946E-16	2.375233E-17
3.260000E+03	1.397851E-16	2.394179E-17
3.270000E+03	1.426655E-16	2.413313E-17
3.280000E+03	1.456379E-16	2.432605E-17
3.290000E+03	1.487042E-16	2.452022E-17
3.300000E+03	1.518800E-16	2.471750E-17
3.310000E+03	1.551542E-16	2.491535E-17
3.320000E+03	1.585291E-16	2.511344E-17
3.330000E+03	1.620071E-16	2.531142E-17
3.340000E+03	1.656041E-16	2.551101E-17
3.350000E+03	1.693229E-16	2.571178E-17
3.360000E+03	1.731525E-16	2.591126E-17
3.370000E+03	1.771232E-16	2.611309E-17
3.380000E+03	1.812104E-16	2.631275E-17
3.390000E+03	1.854309E-16	2.651180E-17
3.400000E+03	1.897877E-16	2.670974E-17
3.410000E+03	1.942983E-16	2.690802E-17
3.420000E+03	1.989378E-16	2.710221E-17
3.430000E+03	2.037520E-16	2.729753E-17
3.440000E+03	2.087021E-16	2.748766E-17
3.450000E+03	2.138201E-16	2.767582E-17
3.460000E+03	2.191099E-16	2.786134E-17
3.470000E+03	2.245610E-16	2.804175E-17
3.480000E+03	2.302064E-16	2.822002E-17
3.490000E+03	2.360212E-16	2.839181E-17
3.500000E+03	2.420242E-16	2.855822E-17
3.510000E+03	2.482196E-16	2.871851E-17
3.520000E+03	2.546270E-16	2.887362E-17
3.530000E+03	2.612360E-16	2.902101E-17
3.540000E+03	2.680512E-16	2.915989E-17
3.550000E+03	2.750771E-16	2.928944E-17
3.560000E+03	2.823494E-16	2.941207E-17
3.570000E+03	2.898267E-16	2.952199E-17
3.580000E+03	2.975606E-16	2.962314E-17
3.590000E+03	3.055249E-16	2.971141E-17
3.600000E+03	3.137404E-16	2.978745E-17
3.610000E+03	3.222284E-16	2.985180E-17
3.620000E+03	3.309620E-16	2.990049E-17
3.630000E+03	3.399625E-16	2.993409E-17
3.640000E+03	3.492516E-16	2.995307E-17
3.650000E+03	3.588349E-16	2.995645E-17
3.660000E+03	3.686843E-16	2.994050E-17
3.670000E+03	3.788555E-16	2.990845E-17
3.680000E+03	3.893202E-16	2.985668E-17
3.690000E+03	4.000834E-16	2.978441E-17
3.700000E+03	4.111848E-16	2.969345E-17
3.710000E+03	4.225950E-16	2.958052E-17
3.720000E+03	4.343542E-16	2.944751E-17
3.730000E+03	4.464500E-16	2.929261E-17
3.740000E+03	4.588691E-16	2.911431E-17
3.750000E+03	4.716706E-16	2.891580E-17
3.760000E+03	4.848046E-16	2.869357E-17
3.770000E+03	4.983122E-16	2.844995E-17
3.780000E+03	5.121791E-16	2.818418E-17
3.790000E+03	5.264278E-16	2.789783E-17
3.800000E+03	5.410429E-16	2.759063E-17
3.810000E+03	5.560462E-16	2.726454E-17
3.820000E+03	5.714201E-16	2.691970E-17
3.830000E+03	5.872036E-16	2.655912E-17
3.840000E+03	6.033563E-16	2.618223E-17
3.850000E+03	6.198742E-16	2.579040E-17
3.860000E+03	6.367706E-16	2.538583E-17
3.870000E+03	6.540357E-16	2.496994E-17
3.880000E+03	6.716550E-16	2.454431E-17
3.890000E+03	6.896080E-16	2.411073E-17
3.891242E+03	1.506539E-16	6.228450E-17
3.894284E+03	1.453536E-16	4.249905E-17
3.897325E+03	1.449330E-16	4.421356E-17
3.900367E+03	1.436064E-16	4.242247E-17
3.903408E+03	1.475777E-16	3.564979E-17
3.906449E+03	1.511457E-16	3.671267E-17
3.909491E+03	1.619016E-16	3.683553E-17
3.912532E+03	1.795593E-16	4.494020E-17
3.915574E+03	2.042400E-16	5.398656E-17
3.918615E+03	2.321552E-16	5.454180E-17
3.921656E+03	2.605466E-16	5.912693E-17
3.924698E+03	2.926414E-16	5.840757E-17
3.927739E+03	3.271351E-16	6.080780E-17
3.930781E+03	3.617798E-16	6.082974E-17
3.933822E+03	4.032491E-16	6.576010E-17
3.936863E+03	4.478270E-16	6.689946E-17
3.939905E+03	4.988515E-16	6.664925E-17
3.942946E+03	5.521522E-16	7.430516E-17
3.945988E+03	6.023056E-16	7.950627E-17
3.949029E+03	6.555699E-16	9.000941E-17
3.952070E+03	7.068658E-16	9.520079E-17
3.955112E+03	7.547590E-16	9.771010E-17
3.958153E+03	8.009183E-16	9.848119E-17
3.961195E+03	8.434921E-16	9.784683E-17
3.964236E+03	8.813360E-16	9.706479E-17
3.967278E+03	9.173893E-16	9.799407E-17
3.970319E+03	9.470044E-16	9.501001E-17
3.973360E+03	9.691627E-16	9.342656E-17
3.976402E+03	9.897090E-16	8.866277E-17
3.979443E+03	1.011475E-15	9.064961E-17
3.982485E+03	1.031103E-15	9.541014E-17
3.985526E+03	1.047646E-15	9.622648E-17
3.988567E+03	1.059506E-15	9.533406E-17
3.991609E+03	1.063194E-15	9.154929E-17
3.994650E+03	1.063686E-15	8.783214E-17
3.997692E+03	1.055330E-15	7.760042E-17
4.000733E+03	1.035453E-15	7.830433E-17
4.003774E+03	1.010485E-15	7.617908E-17
4.006816E+03	9.856580E-16	7.960829E-17
4.009857E+03	9.662426E-16	8.407425E-17
4.012899E+03	9.490958E-16	8.328962E-17
4.015940E+03	9.258203E-16	8.197857E-17
4.018981E+03	9.069947E-16	8.054669E-17
4.022023E+03	8.875476E-16	8.120101E-17
4.025064E+03	8.715518E-16	9.347575E-17
4.028106E+03	8.581899E-16	1.051371E-16
4.031147E+03	8.464986E-16	1.082891E-16
4.034189E+03	8.424256E-16	1.107465E-16
4.037230E+03	8.428626E-16	1.116799E-16
4.040271E+03	8.441364E-16	1.134269E-16
4.043313E+03	8.502130E-16	1.152121E-16
4.046354E+03	8.547989E-16	1.191232E-16
4.049396E+03	8.633156E-16	1.159118E-16
4.052437E+03	8.721249E-16	1.144496E-16
4.055479E+03	8.877600E-16	1.157676E-16
4.058520E+03	9.084754E-16	1.105307E-16
4.061561E+03	9.354738E-16	1.069695E-16
4.064603E+03	9.641698E-16	1.114821E-16
4.067644E+03	9.939084E-16	1.131581E-16
4.070686E+03	1.026219E-15	1.160187E-16
4.073727E+03	1.059956E-15	1.072251E-16
4.076768E+03	1.095647E-15	9.722757E-17
4.079810E+03	1.137117E-15	9.015573E-17
4.082851E+03	1.178357E-15	8.723829E-17
4.085893E+03	1.219568E-15	8.563748E-17
4.088934E+03	1.257344E-15	8.487074E-17
4.091975E+03	1.289625E-15	8.443163E-17
4.095017E+03	1.312292E-15	8.266101E-17
4.098058E+03	1.321717E-15	8.226845E-17
4.101100E+03	1.322835E-15	8.653038E-17
4.104141E+03	1.315425E-15	7.737929E-17
4.107182E+03	1.297060E-15	7.284503E-17
4.110224E+03	1.269524E-15	7.354811E-17
4.113265E+03	1.239833E-15	7.205026E-17
4.116307E+03	1.205232E-15	7.219020E-17
4.119348E+03	1.172212E-15	7.343039E-17
4.122390E+03	1.145585E-15	7.975339E-17
4.125431E+03	1.120231E-15	8.943053E-17
4.128472E+03	1.097315E-15	1.001752E-16
4.131514E+03	1.074906E-15	1.074010E-16
4.134555E+03	1.053971E-15	1.100339E-16
4.137596E+03	1.033342E-15	1.075714E-16
4.140638E+03	1.009644E-15	1.115293E-16
4.143679E+03	9.870194E-16	1.172350E-16
4.146721E+03	9.676928E-16	1.264891E-16
4.149762E+03	9.529246E-16	1.333138E-16
4.152804E+03	9.449424E-16	1.398126E-16
4.155845E+03	9.387656E-16	1.458082E-16
4.158886E+03	9.318759E-16	1.480758E-16
4.161928E+03	9.183771E-16	1.477605E-16
4.164969E+03	9.024481E-16	1.473684E-16
4.168011E+03	8.842524E-16	1.465213E-16
4.171052E+03	8.661996E-16	1.435992E-16
4.174093E+03	8.507913E-16	1.345312E-16
4.177135E+03	8.374987E-16	1.237010E-16
4.180176E+03	8.268336E-16	1.137413E-16
4.183218E+03	8.180662E-16	1.117135E-16
4.186259E+03	8.081282E-16	1.209586E-16
4.189301E+03	8.030844E-16	1.213242E-16
4.192342E+03	7.970713E-16	1.250894E-16
4.195383E+03	7.966117E-16	1.184772E-16
4.198425E+03	7.953297E-16	1.038852E-16
4.201466E+03	7.967887E-16	9.113515E-17
4.204508E+03	8.009346E-16	7.601472E-17
4.207549E+03	8.081518E-16	7.323594E-17
4.210590E+03	8.137617E-16	9.348709E-17
4.213632E+03	8.185317E-16	1.060609E-16
4.216673E+03	8.258804E-16	1.114461E-16
4.219715E+03	8.318591E-16	1.180243E-16
4.222756E+03	8.398686E-16	1.221913E-16
4.225797E+03	8.502202E-16	1.220389E-16
4.228839E+03	8.611224E-16	1.210102E-16
4.231880E+03	8.707644E-16	1.166930E-16
4.234922E+03	8.761826E-16	1.062306E-16
4.237963E+03	8.746867E-16	1.068295E-16
4.241005E+03	8.702449E-16	9.390472E-17
4.244046E+03	8.588312E-16	9.445378E-17
4.247087E+03	8.395469E-16	9.633057E-17
4.250129E+03	8.165077E-16	1.012609E-16
4.253170E+03	7.892915E-16	1.073956E-16
4.256212E+03	7.558290E-16	1.080103E-16
4.259253E+03	7.215369E-16	9.814261E-17
4.262294E+03	6.857192E-16	8.911005E-17
4.265336E+03	6.503163E-16	8.354506E-17
4.268377E+03	6.134973E-16	7.641168E-17
4.271419E+03	5.744743E-16	6.898533E-17
4.274460E+03	5.363235E-16	6.588923E-17
4.277501E+03	5.037337E-16	6.421296E-17
4.280543E+03	4.792157E-16	6.303662E-17
4.283584E+03	4.646035E-16	6.212213E-17
4.286626E+03	4.535428E-16	6.198420E-17
4.289667E+03	4.586212E-16	6.355732E-17
4.292708E+03	4.713229E-16	5.710705E-17
4.295750E+03	4.907520E-16	5.455814E-17
4.298791E+03	5.191644E-16	5.246837E-17
4.301833E+03	5.535384E-16	4.651909E-17
4.304874E+03	5.905945E-16	4.767177E-17
4.307916E+03	6.248158E-16	4.918820E-17
4.310957E+03	6.591716E-16	5.289525E-17
4.313998E+03	6.939184E-16	6.072090E-17
4.317040E+03	7.231522E-16	6.888471E-17
4.320081E+03	7.494938E-16	7.512510E-17
4.323123E+03	7.728874E-16	7.785590E-17
4.326164E+03	7.911681E-16	7.839431E-17
4.329205E+03	8.014180E-16	7.895727E-17
4.332247E+03	8.047907E-16	7.911997E-17
4.335288E+03	8.046416E-16	7.705729E-17
4.338330E+03	7.989699E-16	7.787049E-17
4.341371E+03	7.938293E-16	8.027669E-17
4.344412E+03	7.859536E-16	8.570295E-17
4.347454E+03	7.800217E-16	9.364328E-17
4.350495E+03	7.767502E-16	9.572858E-17
4.353537E+03	7.707430E-16	9.655420E-17
4.356578E+03	7.666623E-16	9.637376E-17
4.359619E+03	7.626727E-16	9.409354E-17
4.362661E+03	7.612711E-16	8.688977E-17
4.365702E+03	7.591715E-16	7.415758E-17
4.368744E+03	7.607259E-16	6.104969E-17
4.371785E+03	7.654760E-16	5.658705E-17
4.374827E+03	7.707780E-16	6.894953E-17
4.377868E+03	7.769074E-16	8.530451E-17
4.380909E+03	7.845810E-16	9.474956E-17
4.383951E+03	7.910618E-16	9.959074E-17
4.386992E+03	7.979112E-16	9.719769E-17
4.390034E+03	8.029426E-16	9.526888E-17
4.393075E+03	8.109703E-16	9.091721E-17
4.396116E+03	8.241268E-16	8.305679E-17
4.399158E+03	8.375613E-16	8.049375E-17
4.402199E+03	8.517886E-16	7.769238E-17
4.405241E+03	8.673051E-16	8.364054E-17
4.408282E+03	8.833575E-16	8.519481E-17
4.411323E+03	8.959193E-16	9.261740E-17
4.414365E+03	9.046954E-16	9.838520E-17
4.417406E+03	9.115606E-16	1.025464E-16
4.420448E+03	9.156315E-16	1.019616E-16
4.423489E+03	9.230505E-16	9.621956E-17
4.426530E+03	9.279140E-16	8.531406E-17
4.429572E+03	9.317666E-16	8.232602E-17
4.432613E+03	9.349023E-16	9.294267E-17
4.435655E+03	9.383329E-16	9.845946E-17
4.438696E+03	9.395192E-16	1.004805E-16
4.441738E+03	9.424539E-16	1.004622E-16
4.444779E+03	9.468613E-16	9.913089E-17
4.447820E+03	9.478461E-16	9.876173E-17
4.450862E+03	9.475058E-16	9.955636E-17
4.453903E+03	9.477175E-16	9.543429E-17
4.456945E+03	9.484632E-16	9.427806E-17
4.459986E+03	9.486014E-16	8.762796E-17
4.463027E+03	9.451490E-16	8.100445E-17
4.466069E+03	9.421010E-16	7.482775E-17
4.469110E+03	9.367872E-16	7.177043E-17
4.472152E+03	9.264074E-16	7.392503E-17
4.475193E+03	9.100945E-16	7.363512E-17
4.478234E+03	8.899102E-16	6.913825E-17
4.481276E+03	8.649876E-16	4.817359E-17
4.484317E+03	8.379233E-16	3.265991E-17
4.487359E+03	8.112228E-16	2.607639E-17
4.490400E+03	7.832829E-16	2.652756E-17
4.493441E+03	7.569047E-16	3.194819E-17
4.496483E+03	7.300057E-16	3.636614E-17
4.499524E+03	7.031021E-16	3.519263E-17
4.502566E+03	6.782768E-16	3.467047E-17
4.505607E+03	6.532628E-16	3.352251E-17
4.508649E+03	6.264374E-16	3.449216E-17
4.511690E+03	6.033506E-16	3.527802E-17
4.514731E+03	5.840030E-16	3.425692E-17
4.517773E+03	5.683221E-16	3.453791E-17
4.520814E+03	5.592044E-16	3.204626E-17
4.523856E+03	5.596398E-16	3.669964E-17
4.526897E+03	5.631742E-16	4.324062E-17
4.529938E+03	5.740332E-16	5.140228E-17
4.532980E+03	5.949677E-16	6.307453E-17
4.536021E+03	6.304086E-16	7.298954E-17
4.539063E+03	6.763737E-16	7.612689E-17
4.542104E+03	7.304109E-16	7.537925E-17
4.545145E+03	7.899384E-16	7.032808E-17
4.548187E+03	8.555663E-16	6.919135E-17
4.551228E+03	9.215553E-16	8.506801E-17
4.554270E+03	9.880713E-16	1.053539E-16
4.557311E+03	1.052326E-15	1.376769E-16
4.560352E+03	1.116499E-15	1.491521E-16
4.563394E+03	1.180865E-15	1.592450E-16
4.566435E+03	1.244004E-15	1.624196E-16
4.569477E+03	1.307446E-15	1.619972E-16
4.572518E+03	1.366501E-15	1.612918E-16
4.575560E+03	1.421963E-15	1.591958E-16
4.578601E+03	1.471834E-15	1.650476E-16
4.581642E+03	1.518607E-15	1.688892E-16
4.584684E+03	1.559252E-15	1.755447E-16
4.587725E+03	1.593102E-15	1.767028E-16
4.590767E+03	1.616885E-15	1.755742E-16
4.593808E+03	1.633055E-15	1.748191E-16
4.596850E+03	1.641464E-15	1.748743E-16
4.599891E+03	1.646823E-15	1.726322E-16
4.602932E+03	1.647338E-15	1.667281E-16
4.605974E+03	1.642066E-15	1.459716E-16
4.609015E+03	1.634055E-15	1.341175E-16
4.612056E+03	1.625800E-15	1.187615E-16
4.615098E+03	1.616267E-15	1.092076E-16
4.618139E+03	1.607210E-15	1.078694E-16
4.621181E+03	1.597115E-15	1.078750E-16
4.624222E+03	1.590012E-15	1.078076E-16
4.627264E+03	1.588139E-15	1.008800E-16
4.630305E+03	1.591201E-15	9.278690E-17
4.633346E+03	1.600492E-15	7.373333E-17
4.636388E+03	1.615608E-15	6.556504E-17
4.639429E+03	1.639619E-15	6.197766E-17
4.642471E+03	1.668180E-15	6.180295E-17
4.645512E+03	1.698257E-15	6.288955E-17
4.648553E+03	1.726003E-15	6.004460E-17
4.651595E+03	1.749178E-15	5.508205E-17
4.654636E+03	1.762881E-15	5.187879E-17
4.657678E+03	1.772808E-15	5.083174E-17
4.660719E+03	1.778106E-15	5.085224E-17
4.663761E+03	1.780848E-15	5.067102E-17
4.666802E+03	1.783957E-15	5.009666E-17
4.669843E+03	1.786915E-15	4.956316E-17
4.672885E+03	1.783689E-15	5.115162E-17
4.675926E+03	1.786990E-15	5.148525E-17
4.678967E+03	1.788142E-15	4.495152E-17
4.682009E+03	1.792120E-15	4.687586E-17
4.685050E+03	1.793930E-15	4.894812E-17
4.688092E+03	1.792220E-15	4.697702E-17
4.691133E+03	1.788729E-15	4.521006E-17
4.694175E+03	1.779294E-15	4.449732E-17
4.697216E+03	1.761934E-15	4.957974E-17
4.700257E+03	1.739240E-15	5.781220E-17
4.703299E+03	1.713858E-15	6.180866E-17
4.706340E+03	1.688008E-15	6.295934E-17
4.709382E+03	1.662377E-15	6.397396E-17
4.712423E+03	1.638388E-15	6.587943E-17
4.715465E+03	1.617134E-15	6.828576E-17
4.718506E+03	1.594119E-15	7.054725E-17
4.721547E+03	1.571099E-15	6.975765E-17
4.724589E+03	1.551666E-15	7.290272E-17
4.727630E+03	1.535633E-15	7.286855E-17
4.730672E+03	1.518172E-15	7.342809E-17
4.733713E+03	1.500856E-15	7.263314E-17
4.736754E+03	1.482111E-15	7.221709E-17
4.739796E+03	1.463734E-15	7.170113E-17
4.742837E+03	1.443465E-15	7.265925E-17
4.745879E+03	1.425340E-15	7.376854E-17
4.748920E+03	1.406953E-15	6.752728E-17
4.751961E+03	1.388507E-15	6.189918E-17
4.755003E+03	1.373000E-15	5.896101E-17
4.758044E+03	1.357749E-15	5.871031E-17
4.761086E+03	1.342458E-15	5.750319E-17
4.764127E+03	1.325926E-15	5.542759E-17
4.767168E+03	1.302972E-15	5.579714E-17
4.770210E+03	1.278981E-15	5.513607E-17
4.773251E+03	1.249645E-15	4.508704E-17
4.776293E+03	1.214538E-15	4.424124E-17
4.779334E+03	1.177582E-15	3.901618E-17
4.782376E+03	1.137725E-15	3.584194E-17
4.785417E+03	1.095596E-15	3.595802E-17
4.788458E+03	1.054283E-15	3.420215E-17
4.791500E+03	1.011494E-15	3.329676E-17
4.794541E+03	9.688753E-16	3.624941E-17
4.797583E+03	9.263528E-16	4.786634E-17
4.800624E+03	8.853871E-16	6.753528E-17
4.803665E+03	8.489348E-16	8.892008E-17
4.806707E+03	8.221312E-16	1.050253E-16
4.809748E+03	8.085024E-16	1.145976E-16
4.812790E+03	8.043313E-16	1.175442E-16
4.815831E+03	8.142695E-16	1.134074E-16
4.818872E+03	8.380903E-16	1.103189E-16
4.821914E+03	8.802019E-16	1.108933E-16
4.824955E+03	9.347440E-16	1.102969E-16
4.827997E+03	1.003871E-15	1.117779E-16
4.831038E+03	1.083037E-15	1.188735E-16
4.834079E+03	1.165978E-15	1.253987E-16
4.837121E+03	1.252637E-15	1.309174E-16
4.840162E+03	1.334985E-15	1.465281E-16
4.843204E+03	1.410108E-15	1.607317E-16
4.846245E+03	1.478378E-15	1.717782E-16
4.849287E+03	1.541086E-15	1.748969E-16
4.852328E+03	1.592870E-15	1.641873E-16
4.855369E+03	1.635449E-15	1.447605E-16
4.858411E+03	1.668291E-15	1.255910E-16
4.861452E+03	1.691181E-15	1.118438E-16
4.864494E+03	1.705486E-15	1.244685E-16
4.867535E+03	1.710972E-15	1.500081E-16
4.870576E+03	1.708472E-15	1.801825E-16
4.873618E+03	1.699759E-15	2.054208E-16
4.876659E+03	1.684394E-15	2.215023E-16
4.879701E+03	1.665788E-15	2.273093E-16
4.882742E+03	1.644659E-15	2.259400E-16
4.885783E+03	1.623495E-15	2.227181E-16
4.888825E+03	1.604466E-15	2.120374E-16
4.891866E+03	1.589613E-15	2.009825E-16
4.894908E+03	1.581121E-15	1.881660E-16
4.897949E+03	1.583234E-15	1.729981E-16
4.900990E+03	1.597284E-15	1.693905E-16
4.904032E+03	1.624293E-15	1.685763E-16
4.907073E+03	1.663609E-15	1.729730E-16
4.910115E+03	1.713310E-15	1.751636E-16
4.913156E+03	1.771204E-15	1.739635E-16
4.916198E+03	1.837118E-15	1.689302E-16
4.919239E+03	1.906550E-15	1.544269E-16
4.922280E+03	1.976853E-15	1.304300E-16
4.925322E+03	2.040689E-15	1.037522E-16
4.928363E+03	2.095680E-15	7.648549E-17
4.931405E+03	2.140731E-15	5.818847E-17
4.934446E+03	2.176035E-15	4.485054E-17
4.937487E+03	2.191155E-15	4.264482E-17
4.940529E+03	2.187027E-15	4.543265E-17
4.943570E+03	2.164765E-15	4.541369E-17
4.946612E+03	2.119810E-15	4.612829E-17
4.949653E+03	2.055843E-15	4.703152E-17
4.952694E+03	1.978004E-15	6.186772E-17
4.955736E+03	1.888503E-15	8.183092E-17
4.958777E+03	1.788356E-15	1.038015E-16
4.961819E+03	1.689034E-15	1.259761E-16
4.964860E+03	1.588912E-15	1.433433E-16
4.967901E+03	1.493853E-15	1.529044E-16
4.970943E+03	1.410336E-15	1.547595E-16
4.973984E+03	1.341945E-15	1.515654E-16
4.977026E+03	1.287516E-15	1.486352E-16
4.980067E+03	1.247199E-15	1.433973E-16
4.983109E+03	1.223861E-15	1.375645E-16
4.986150E+03	1.217230E-15	1.353181E-16
4.989191E+03	1.225556E-15	1.319420E-16
4.992233E+03	1.245217E-15	1.329391E-16
4.995274E+03	1.280262E-15	1.462719E-16
4.998316E+03	1.325631E-15	1.568673E-16
5.001357E+03	1.382967E-15	1.632252E-16
5.004398E+03	1.451495E-15	1.667029E-16
5.007440E+03	1.525363E-15	1.615170E-16
5.010481E+03	1.602786E-15	1.479597E-16
5.013523E+03	1.679871E-15	1.272326E-16
5.016564E+03	1.756364E-15	1.020690E-16
5.019605E+03	1.829323E-15	9.250648E-17
5.022647E+03	1.893365E-15	9.483336E-17
5.025688E+03	1.952634E-15	9.347900E-17
5.028730E+03	2.002966E-15	9.740533E-17
5.031771E+03	2.042740E-15	1.051822E-16
5.034812E+03	2.069796E-15	1.107578E-16
5.037854E+03	2.084148E-15	1.111493E-16
5.040895E+03	2.084908E-15	1.093910E-16
5.043937E+03	2.072274E-15	1.028887E-16
5.046978E+03	2.049336E-15	9.585455E-17
5.050020E+03	2.020265E-15	8.908550E-17
5.053061E+03	1.986696E-15	7.724434E-17
5.056102E+03	1.948635E-15	7.225685E-17
5.059144E+03	1.912767E-15	6.729426E-17
5.062185E+03	1.880713E-15	5.436954E-17
5.065227E+03	1.850846E-15	5.509839E-17
