#wls	flux	fluxerr
1.600000E+03	8.783157E-18	5.194802E-18
1.640000E+03	9.000595E-18	5.280533E-18
1.680000E+03	9.226449E-18	5.367787E-18
1.720000E+03	9.460809E-18	5.456364E-18
1.760000E+03	9.703752E-18	5.546047E-18
1.800000E+03	9.952640E-18	5.635070E-18
1.840000E+03	1.021018E-17	5.724709E-18
1.880000E+03	1.047915E-17	5.816211E-18
1.920000E+03	1.075408E-17	5.906221E-18
1.960000E+03	1.103769E-17	5.995943E-18
2.000000E+03	1.132993E-17	6.085026E-18
2.040000E+03	1.163075E-17	6.173095E-18
2.080000E+03	1.194290E-17	6.261247E-18
2.120000E+03	1.226342E-17	6.347541E-18
2.160000E+03	1.259215E-17	6.431521E-18
2.200000E+03	1.292888E-17	6.512702E-18
2.240000E+03	1.327628E-17	6.592035E-18
2.280000E+03	1.363114E-17	6.667501E-18
2.320000E+03	1.399609E-17	6.739971E-18
2.360000E+03	1.437076E-17	6.808814E-18
2.400000E+03	1.475473E-17	6.873372E-18
2.440000E+03	1.514446E-17	6.931571E-18
2.480000E+03	1.554545E-17	6.985496E-18
2.520000E+03	1.595403E-17	7.033012E-18
2.560000E+03	1.637256E-17	7.074703E-18
2.600000E+03	1.679718E-17	7.108434E-18
2.640000E+03	1.723011E-17	7.134722E-18
2.680000E+03	1.767350E-17	7.153988E-18
2.720000E+03	1.812320E-17	7.164071E-18
2.760000E+03	1.858435E-17	7.166552E-18
2.800000E+03	1.904943E-17	7.158075E-18
2.840000E+03	1.952654E-17	7.141289E-18
2.880000E+03	2.001108E-17	7.114030E-18
2.920000E+03	2.050464E-17	7.076469E-18
2.960000E+03	2.100557E-17	7.027639E-18
3.000000E+03	2.151837E-17	6.968673E-18
3.010000E+03	2.164928E-17	6.952570E-18
3.020000E+03	2.177902E-17	6.935184E-18
3.030000E+03	2.191068E-17	6.917506E-18
3.040000E+03	2.204112E-17	6.898527E-18
3.050000E+03	2.217342E-17	6.879221E-18
3.060000E+03	2.230755E-17	6.859561E-18
3.070000E+03	2.244035E-17	6.838569E-18
3.080000E+03	2.257491E-17	6.817191E-18
3.090000E+03	2.271120E-17	6.795403E-18
3.100000E+03	2.284606E-17	6.772253E-18
3.110000E+03	2.298258E-17	6.748663E-18
3.120000E+03	2.312071E-17	6.724609E-18
3.130000E+03	2.325731E-17	6.699172E-18
3.140000E+03	2.339546E-17	6.673244E-18
3.150000E+03	2.353512E-17	6.646803E-18
3.160000E+03	2.367624E-17	6.619828E-18
3.170000E+03	2.381878E-17	6.592298E-18
3.180000E+03	2.395962E-17	6.563346E-18
3.190000E+03	2.410180E-17	6.533818E-18
3.200000E+03	2.424530E-17	6.503697E-18
3.210000E+03	2.439006E-17	6.472962E-18
3.220000E+03	2.453605E-17	6.441598E-18
3.230000E+03	2.468322E-17	6.409587E-18
3.240000E+03	2.483152E-17	6.376913E-18
3.250000E+03	2.497787E-17	6.342785E-18
3.260000E+03	2.512833E-17	6.308751E-18
3.270000E+03	2.527981E-17	6.274012E-18
3.280000E+03	2.542921E-17	6.237810E-18
3.290000E+03	2.558258E-17	6.201634E-18
3.300000E+03	2.573684E-17	6.164719E-18
3.310000E+03	2.588891E-17	6.126339E-18
3.320000E+03	2.604481E-17	6.087928E-18
3.330000E+03	2.620147E-17	6.048751E-18
3.340000E+03	2.636184E-17	6.009489E-18
3.350000E+03	2.651988E-17	5.968756E-18
3.360000E+03	2.667856E-17	5.927243E-18
3.370000E+03	2.684080E-17	5.885603E-18
3.380000E+03	2.700359E-17	5.843159E-18
3.390000E+03	2.716689E-17	5.799911E-18
3.400000E+03	2.733360E-17	5.756485E-18
3.410000E+03	2.749778E-17	5.711628E-18
3.420000E+03	2.766529E-17	5.666578E-18
3.430000E+03	2.783608E-17	5.621312E-18
3.440000E+03	2.800716E-17	5.575224E-18
3.450000E+03	2.817851E-17	5.528323E-18
3.460000E+03	2.835299E-17	5.481183E-18
3.470000E+03	2.852766E-17	5.433233E-18
3.480000E+03	2.870248E-17	5.384487E-18
3.490000E+03	2.888032E-17	5.335493E-18
3.500000E+03	2.906112E-17	5.286239E-18
3.510000E+03	2.924197E-17	5.236202E-18
3.520000E+03	2.942571E-17	5.185906E-18
3.530000E+03	2.960944E-17	5.134852E-18
3.540000E+03	2.979599E-17	5.083548E-18
3.550000E+03	2.998530E-17	5.031993E-18
3.560000E+03	3.017454E-17	4.979723E-18
3.570000E+03	3.036931E-17	4.927679E-18
3.580000E+03	3.056114E-17	4.874501E-18
3.590000E+03	3.075844E-17	4.821562E-18
3.600000E+03	3.095559E-17	4.767988E-18
3.610000E+03	3.115813E-17	4.714659E-18
3.620000E+03	3.136051E-17	4.660742E-18
3.630000E+03	3.156547E-17	4.606683E-18
3.640000E+03	3.177301E-17	4.552502E-18
3.650000E+03	3.198311E-17	4.498223E-18
3.660000E+03	3.219307E-17	4.443495E-18
3.670000E+03	3.240833E-17	4.389108E-18
3.680000E+03	3.262617E-17	4.334708E-18
3.690000E+03	3.284659E-17	4.280330E-18
3.700000E+03	3.306963E-17	4.226011E-18
3.710000E+03	3.329530E-17	4.171791E-18
3.720000E+03	3.352365E-17	4.117713E-18
3.730000E+03	3.375734E-17	4.064142E-18
3.740000E+03	3.399114E-17	4.010480E-18
3.750000E+03	3.423037E-17	3.957410E-18
3.760000E+03	3.447246E-17	3.904665E-18
3.770000E+03	3.471748E-17	3.852303E-18
3.780000E+03	3.496811E-17	3.800664E-18
3.790000E+03	3.522182E-17	3.749515E-18
3.800000E+03	3.547874E-17	3.698918E-18
3.810000E+03	3.574153E-17	3.649201E-18
3.820000E+03	3.600776E-17	3.600157E-18
3.830000E+03	3.627756E-17	3.551854E-18
3.840000E+03	3.655363E-17	3.504604E-18
3.850000E+03	3.683360E-17	3.458225E-18
3.860000E+03	3.712019E-17	3.413017E-18
3.870000E+03	3.741358E-17	3.369036E-18
3.880000E+03	3.771149E-17	3.326115E-18
3.890000E+03	3.801416E-17	3.284325E-18
3.900000E+03	3.832438E-17	3.243944E-18
3.910000E+03	3.864242E-17	3.205024E-18
3.920000E+03	3.896612E-17	3.167414E-18
3.930000E+03	3.929831E-17	3.131372E-18
3.940000E+03	3.963937E-17	3.096941E-18
3.950000E+03	3.998725E-17	3.063975E-18
3.960000E+03	4.034486E-17	3.032707E-18
3.970000E+03	4.071268E-17	3.003168E-18
3.980000E+03	4.108880E-17	2.975211E-18
3.990000E+03	4.147621E-17	2.949040E-18
4.000000E+03	4.187554E-17	2.924674E-18
4.010000E+03	4.228741E-17	2.902123E-18
4.020000E+03	4.271014E-17	2.881231E-18
4.030000E+03	4.314687E-17	2.862169E-18
4.040000E+03	4.359841E-17	2.844933E-18
4.050000E+03	4.406559E-17	2.829513E-18
4.060000E+03	4.454933E-17	2.815897E-18
4.070000E+03	4.504819E-17	2.803921E-18
4.080000E+03	4.556557E-17	2.793720E-18
4.090000E+03	4.610254E-17	2.785273E-18
4.100000E+03	4.666020E-17	2.778557E-18
4.110000E+03	4.723975E-17	2.773552E-18
4.120000E+03	4.784002E-17	2.770097E-18
4.130000E+03	4.846708E-17	2.768452E-18
4.140000E+03	4.911748E-17	2.768326E-18
4.150000E+03	4.979501E-17	2.769845E-18
4.160000E+03	5.049871E-17	2.772871E-18
4.170000E+03	5.123488E-17	2.777668E-18
4.180000E+03	5.200025E-17	2.783982E-18
4.190000E+03	5.279882E-17	2.791959E-18
4.200000E+03	5.363221E-17	2.801626E-18
4.210000E+03	5.450211E-17	2.813018E-18
4.220000E+03	5.540776E-17	2.826058E-18
4.230000E+03	5.635335E-17	2.840932E-18
4.240000E+03	5.733816E-17	2.857591E-18
4.250000E+03	5.836894E-17	2.876370E-18
4.260000E+03	5.943997E-17	2.897000E-18
4.270000E+03	6.056059E-17	2.919967E-18
4.280000E+03	6.172755E-17	2.945155E-18
4.290000E+03	6.294516E-17	2.972831E-18
4.300000E+03	6.421263E-17	3.003031E-18
4.310000E+03	6.553163E-17	3.035923E-18
4.320000E+03	6.690646E-17	3.071809E-18
4.330000E+03	6.833879E-17	3.110874E-18
4.340000E+03	6.982750E-17	3.153190E-18
4.350000E+03	7.137405E-17	3.198950E-18
4.360000E+03	7.297977E-17	3.248348E-18
4.370000E+03	7.464864E-17	3.301692E-18
4.380000E+03	7.637903E-17	3.359036E-18
4.390000E+03	7.817185E-17	3.420538E-18
4.400000E+03	8.003062E-17	3.486378E-18
4.410000E+03	8.194997E-17	3.556250E-18
4.420000E+03	8.393285E-17	3.630179E-18
4.430000E+03	8.597908E-17	3.708027E-18
4.440000E+03	8.809120E-17	3.789744E-18
4.450000E+03	9.026233E-17	3.874850E-18
4.460000E+03	9.249424E-17	3.963217E-18
4.470000E+03	9.478212E-17	4.054412E-18
4.480000E+03	9.713017E-17	4.148371E-18
4.490000E+03	9.952619E-17	4.244318E-18
4.500000E+03	1.019767E-16	4.342270E-18
4.510000E+03	1.044716E-16	4.441525E-18
4.520000E+03	1.070065E-16	4.541635E-18
4.530000E+03	1.095800E-16	4.642281E-18
4.540000E+03	1.121831E-16	4.742842E-18
4.550000E+03	1.148100E-16	4.842836E-18
4.560000E+03	1.174573E-16	4.941929E-18
4.570000E+03	1.201108E-16	5.039345E-18
4.580000E+03	1.227697E-16	5.134922E-18
4.590000E+03	1.254222E-16	5.228069E-18
4.600000E+03	1.280556E-16	5.318216E-18
4.610000E+03	1.306644E-16	5.405139E-18
4.620000E+03	1.332386E-16	5.488503E-18
4.630000E+03	1.357685E-16	5.568022E-18
4.640000E+03	1.382398E-16	5.643309E-18
4.650000E+03	1.406461E-16	5.714352E-18
4.660000E+03	1.429729E-16	5.780888E-18
4.670000E+03	1.452139E-16	5.843037E-18
4.680000E+03	1.473550E-16	5.900668E-18
4.690000E+03	1.493864E-16	5.953872E-18
4.700000E+03	1.513026E-16	6.002964E-18
4.710000E+03	1.530870E-16	6.047831E-18
4.720000E+03	1.547394E-16	6.089045E-18
4.730000E+03	1.562446E-16	6.126577E-18
4.740000E+03	1.576043E-16	6.161056E-18
4.750000E+03	1.588053E-16	6.192487E-18
4.760000E+03	1.598474E-16	6.221349E-18
4.770000E+03	1.607277E-16	6.247943E-18
4.780000E+03	1.614406E-16	6.272389E-18
4.790000E+03	1.619897E-16	6.295008E-18
4.800000E+03	1.623717E-16	6.315559E-18
4.810000E+03	1.625928E-16	6.334033E-18
4.820000E+03	1.626524E-16	6.350080E-18
4.830000E+03	1.625550E-16	6.363481E-18
4.840000E+03	1.623102E-16	6.374161E-18
4.850000E+03	1.619208E-16	6.381743E-18
4.860000E+03	1.613947E-16	6.386021E-18
4.870000E+03	1.607404E-16	6.386815E-18
4.880000E+03	1.599672E-16	6.383983E-18
4.890000E+03	1.590850E-16	6.377428E-18
4.900000E+03	1.581044E-16	6.367105E-18
4.910000E+03	1.570360E-16	6.353026E-18
4.920000E+03	1.558910E-16	6.335255E-18
4.930000E+03	1.546772E-16	6.313778E-18
4.940000E+03	1.534095E-16	6.288912E-18
4.950000E+03	1.520989E-16	6.260882E-18
4.960000E+03	1.507567E-16	6.229959E-18
4.970000E+03	1.493907E-16	6.196318E-18
4.980000E+03	1.480115E-16	6.160302E-18
4.990000E+03	1.466327E-16	6.122409E-18
5.000000E+03	1.452643E-16	6.083019E-18
5.010000E+03	1.439128E-16	6.042397E-18
5.020000E+03	1.425903E-16	6.001064E-18
5.030000E+03	1.413026E-16	5.959291E-18
5.040000E+03	1.400580E-16	5.917467E-18
5.050000E+03	1.388670E-16	5.876087E-18
5.060000E+03	1.377340E-16	5.835390E-18
5.070000E+03	1.366658E-16	5.795717E-18
5.080000E+03	1.356715E-16	5.757504E-18
5.090000E+03	1.347516E-16	5.720816E-18
5.100000E+03	1.339195E-16	5.686264E-18
5.110000E+03	1.331721E-16	5.653754E-18
5.120000E+03	1.325169E-16	5.623621E-18
5.130000E+03	1.319606E-16	5.596167E-18
5.140000E+03	1.315045E-16	5.571447E-18
5.150000E+03	1.311521E-16	5.549606E-18
5.160000E+03	1.309067E-16	5.530760E-18
5.170000E+03	1.307736E-16	5.515107E-18
5.180000E+03	1.307506E-16	5.502507E-18
5.190000E+03	1.308450E-16	5.493213E-18
5.200000E+03	1.310565E-16	5.487149E-18
5.210000E+03	1.313868E-16	5.484317E-18
5.220000E+03	1.318379E-16	5.484705E-18
5.230000E+03	1.324110E-16	5.488279E-18
5.240000E+03	1.331074E-16	5.494991E-18
5.250000E+03	1.339307E-16	5.504873E-18
5.260000E+03	1.348767E-16	5.517649E-18
5.270000E+03	1.359510E-16	5.533425E-18
5.280000E+03	1.371490E-16	5.551898E-18
5.290000E+03	1.384758E-16	5.573154E-18
5.300000E+03	1.399288E-16	5.596972E-18
5.310000E+03	1.415074E-16	5.623224E-18
5.320000E+03	1.432136E-16	5.651875E-18
5.330000E+03	1.450410E-16	5.682593E-18
5.340000E+03	1.469907E-16	5.715341E-18
5.350000E+03	1.490632E-16	5.750085E-18
5.360000E+03	1.512508E-16	5.786500E-18
5.370000E+03	1.535557E-16	5.824667E-18
5.380000E+03	1.559718E-16	5.864382E-18
5.390000E+03	1.584947E-16	5.905557E-18
5.400000E+03	1.611195E-16	5.948129E-18
5.410000E+03	1.638407E-16	5.992061E-18
5.420000E+03	1.666519E-16	6.037346E-18
5.430000E+03	1.695491E-16	6.084120E-18
5.440000E+03	1.725187E-16	6.132253E-18
5.450000E+03	1.755582E-16	6.182068E-18
5.460000E+03	1.786527E-16	6.233524E-18
5.470000E+03	1.817983E-16	6.287038E-18
5.480000E+03	1.849791E-16	6.342660E-18
5.490000E+03	1.881904E-16	6.400890E-18
5.500000E+03	1.914181E-16	6.461784E-18
5.510000E+03	1.946499E-16	6.525035E-18
5.520000E+03	1.978733E-16	6.590237E-18
5.530000E+03	2.010726E-16	6.656869E-18
5.540000E+03	2.042420E-16	6.724730E-18
5.550000E+03	2.073661E-16	6.793312E-18
5.560000E+03	2.104301E-16	6.862123E-18
5.570000E+03	2.134297E-16	6.931023E-18
5.580000E+03	2.163514E-16	6.999583E-18
5.590000E+03	2.191824E-16	7.067411E-18
5.600000E+03	2.219179E-16	7.134383E-18
5.610000E+03	2.245507E-16	7.200312E-18
5.620000E+03	2.270746E-16	7.265062E-18
5.630000E+03	2.294849E-16	7.328551E-18
5.640000E+03	2.317744E-16	7.390626E-18
5.650000E+03	2.339441E-16	7.451410E-18
5.660000E+03	2.359928E-16	7.510954E-18
5.670000E+03	2.379203E-16	7.569338E-18
5.680000E+03	2.397238E-16	7.626552E-18
5.690000E+03	2.414088E-16	7.682831E-18
5.700000E+03	2.429743E-16	7.738179E-18
5.710000E+03	2.444273E-16	7.792829E-18
5.720000E+03	2.457681E-16	7.846756E-18
5.730000E+03	2.470049E-16	7.900147E-18
5.740000E+03	2.481386E-16	7.952912E-18
5.750000E+03	2.491782E-16	8.005156E-18
5.760000E+03	2.501247E-16	8.056697E-18
5.770000E+03	2.509831E-16	8.107422E-18
5.780000E+03	2.517583E-16	8.157172E-18
5.790000E+03	2.524585E-16	8.205862E-18
5.800000E+03	2.530842E-16	8.253127E-18
5.810000E+03	2.536390E-16	8.298693E-18
5.820000E+03	2.541263E-16	8.342265E-18
5.830000E+03	2.545488E-16	8.383538E-18
5.840000E+03	2.549091E-16	8.422211E-18
5.850000E+03	2.552090E-16	8.457993E-18
5.860000E+03	2.554502E-16	8.490620E-18
5.870000E+03	2.556340E-16	8.519859E-18
5.880000E+03	2.557614E-16	8.545522E-18
5.890000E+03	2.558297E-16	8.567341E-18
5.900000E+03	2.558436E-16	8.585352E-18
5.910000E+03	2.558040E-16	8.599519E-18
5.920000E+03	2.557123E-16	8.609860E-18
5.930000E+03	2.555662E-16	8.616321E-18
5.940000E+03	2.553712E-16	8.619146E-18
5.950000E+03	2.551259E-16	8.618370E-18
5.960000E+03	2.548366E-16	8.614315E-18
5.970000E+03	2.545064E-16	8.607205E-18
5.980000E+03	2.541353E-16	8.597159E-18
5.990000E+03	2.537274E-16	8.584434E-18
6.000000E+03	2.532908E-16	8.569414E-18
6.010000E+03	2.528268E-16	8.552233E-18
6.020000E+03	2.523405E-16	8.533138E-18
6.030000E+03	2.518412E-16	8.512487E-18
6.040000E+03	2.513307E-16	8.490373E-18
6.050000E+03	2.508149E-16	8.466993E-18
6.060000E+03	2.502994E-16	8.442524E-18
6.070000E+03	2.497936E-16	8.417240E-18
6.080000E+03	2.492993E-16	8.391157E-18
6.090000E+03	2.488220E-16	8.364393E-18
6.100000E+03	2.483666E-16	8.337053E-18
6.110000E+03	2.479415E-16	8.309348E-18
6.120000E+03	2.475439E-16	8.281129E-18
6.130000E+03	2.471848E-16	8.252710E-18
6.140000E+03	2.468642E-16	8.224054E-18
6.150000E+03	2.465853E-16	8.195237E-18
6.160000E+03	2.463504E-16	8.166340E-18
6.170000E+03	2.461618E-16	8.137444E-18
6.180000E+03	2.460246E-16	8.108744E-18
6.190000E+03	2.459328E-16	8.080095E-18
6.200000E+03	2.458941E-16	8.051805E-18
6.210000E+03	2.459051E-16	8.023838E-18
6.220000E+03	2.459655E-16	7.996266E-18
6.230000E+03	2.460779E-16	7.969264E-18
6.240000E+03	2.462377E-16	7.942771E-18
6.250000E+03	2.464396E-16	7.916697E-18
6.260000E+03	2.466921E-16	7.891356E-18
6.270000E+03	2.469822E-16	7.866373E-18
6.280000E+03	2.473141E-16	7.841913E-18
6.290000E+03	2.476811E-16	7.817790E-18
6.300000E+03	2.480832E-16	7.794021E-18
6.310000E+03	2.485131E-16	7.770388E-18
6.320000E+03	2.489668E-16	7.746769E-18
6.330000E+03	2.494433E-16	7.723140E-18
6.340000E+03	2.499381E-16	7.699363E-18
6.350000E+03	2.504428E-16	7.675189E-18
6.360000E+03	2.509561E-16	7.650593E-18
6.370000E+03	2.514690E-16	7.625346E-18
6.380000E+03	2.519832E-16	7.599568E-18
6.390000E+03	2.524861E-16	7.572983E-18
6.400000E+03	2.529718E-16	7.545576E-18
6.410000E+03	2.534415E-16	7.517607E-18
6.420000E+03	2.538856E-16	7.489085E-18
6.430000E+03	2.542942E-16	7.460107E-18
6.440000E+03	2.546681E-16	7.431181E-18
6.450000E+03	2.549974E-16	7.402606E-18
6.460000E+03	2.552756E-16	7.374896E-18
6.470000E+03	2.554962E-16	7.348679E-18
6.480000E+03	2.556530E-16	7.324694E-18
6.490000E+03	2.557434E-16	7.303882E-18
6.500000E+03	2.557578E-16	7.287060E-18
6.510000E+03	2.556906E-16	7.275203E-18
6.520000E+03	2.555403E-16	7.269412E-18
6.530000E+03	2.553021E-16	7.270637E-18
6.540000E+03	2.549683E-16	7.278687E-18
6.550000E+03	2.545389E-16	7.292120E-18
6.560000E+03	2.540112E-16	7.309273E-18
6.570000E+03	2.533795E-16	7.328429E-18
6.580000E+03	2.526503E-16	7.348289E-18
6.590000E+03	2.518166E-16	7.367266E-18
6.600000E+03	2.508833E-16	7.384256E-18
6.610000E+03	2.498566E-16	7.398340E-18
6.620000E+03	2.487329E-16	7.408467E-18
6.630000E+03	2.475241E-16	7.414211E-18
6.640000E+03	2.462328E-16	7.415013E-18
6.650000E+03	2.448657E-16	7.410604E-18
6.660000E+03	2.434308E-16	7.400884E-18
6.670000E+03	2.419407E-16	7.386016E-18
6.680000E+03	2.404046E-16	7.366191E-18
6.690000E+03	2.388259E-16	7.341506E-18
6.700000E+03	2.372258E-16	7.312696E-18
6.710000E+03	2.356084E-16	7.280041E-18
6.720000E+03	2.339883E-16	7.244208E-18
6.730000E+03	2.323737E-16	7.205698E-18
6.740000E+03	2.307792E-16	7.165257E-18
6.750000E+03	2.292162E-16	7.123545E-18
6.760000E+03	2.276957E-16	7.081226E-18
6.770000E+03	2.262283E-16	7.038959E-18
6.780000E+03	2.248243E-16	6.997394E-18
6.790000E+03	2.234936E-16	6.957157E-18
6.800000E+03	2.222454E-16	6.918852E-18
6.810000E+03	2.210885E-16	6.883054E-18
6.820000E+03	2.200312E-16	6.850306E-18
6.830000E+03	2.190810E-16	6.821118E-18
6.840000E+03	2.182484E-16	6.796070E-18
6.850000E+03	2.175364E-16	6.775500E-18
6.860000E+03	2.169508E-16	6.759815E-18
6.870000E+03	2.164970E-16	6.749386E-18
6.880000E+03	2.161828E-16	6.744649E-18
6.890000E+03	2.160122E-16	6.745902E-18
6.900000E+03	2.159823E-16	6.753196E-18
6.910000E+03	2.161023E-16	6.766953E-18
6.920000E+03	2.163746E-16	6.787347E-18
6.930000E+03	2.167977E-16	6.814405E-18
6.940000E+03	2.173759E-16	6.848312E-18
6.950000E+03	2.181066E-16	6.889000E-18
6.960000E+03	2.189930E-16	6.936561E-18
6.970000E+03	2.200347E-16	6.990938E-18
6.980000E+03	2.212272E-16	7.051916E-18
6.990000E+03	2.225724E-16	7.119454E-18
7.000000E+03	2.240682E-16	7.193364E-18
7.010000E+03	2.257085E-16	7.273304E-18
7.020000E+03	2.274937E-16	7.359126E-18
7.030000E+03	2.294202E-16	7.450544E-18
7.040000E+03	2.314803E-16	7.547126E-18
7.050000E+03	2.336770E-16	7.648779E-18
7.060000E+03	2.359977E-16	7.754914E-18
7.070000E+03	2.384407E-16	7.865293E-18
7.080000E+03	2.410002E-16	7.979545E-18
7.090000E+03	2.436697E-16	8.097291E-18
7.100000E+03	2.464384E-16	8.218010E-18
7.110000E+03	2.493067E-16	8.341564E-18
7.120000E+03	2.522589E-16	8.467275E-18
7.130000E+03	2.552905E-16	8.594846E-18
7.140000E+03	2.583925E-16	8.723833E-18
7.150000E+03	2.615555E-16	8.853765E-18
7.160000E+03	2.647695E-16	8.984148E-18
7.170000E+03	2.680239E-16	9.114457E-18
7.180000E+03	2.713076E-16	9.244137E-18
7.190000E+03	2.746090E-16	9.372599E-18
7.200000E+03	2.779158E-16	9.499221E-18
7.210000E+03	2.812109E-16	9.623193E-18
7.220000E+03	2.844904E-16	9.744152E-18
7.230000E+03	2.877363E-16	9.861241E-18
7.240000E+03	2.909301E-16	9.973582E-18
7.250000E+03	2.940673E-16	1.008079E-17
7.260000E+03	2.971243E-16	1.018182E-17
7.270000E+03	3.000968E-16	1.027632E-17
7.280000E+03	3.029610E-16	1.036331E-17
7.290000E+03	3.057134E-16	1.044252E-17
7.300000E+03	3.083305E-16	1.051306E-17
7.310000E+03	3.108049E-16	1.057464E-17
7.320000E+03	3.131299E-16	1.062707E-17
7.330000E+03	3.152839E-16	1.066973E-17
7.340000E+03	3.172675E-16	1.070280E-17
7.350000E+03	3.190611E-16	1.072589E-17
7.360000E+03	3.206624E-16	1.073925E-17
7.370000E+03	3.220705E-16	1.074330E-17
7.380000E+03	3.232696E-16	1.073798E-17
7.390000E+03	3.242673E-16	1.072412E-17
7.400000E+03	3.250506E-16	1.070194E-17
7.410000E+03	3.256244E-16	1.067227E-17
7.420000E+03	3.259957E-16	1.063608E-17
7.430000E+03	3.261556E-16	1.059384E-17
7.440000E+03	3.261139E-16	1.054663E-17
7.450000E+03	3.258815E-16	1.049558E-17
7.460000E+03	3.254539E-16	1.044128E-17
7.470000E+03	3.248501E-16	1.038506E-17
7.480000E+03	3.240678E-16	1.032750E-17
7.490000E+03	3.231227E-16	1.026967E-17
7.500000E+03	3.220311E-16	1.021261E-17
7.510000E+03	3.207933E-16	1.015672E-17
7.520000E+03	3.194271E-16	1.010288E-17
7.530000E+03	3.179507E-16	1.005187E-17
7.540000E+03	3.163656E-16	1.000381E-17
7.550000E+03	3.146962E-16	9.959468E-18
7.560000E+03	3.129442E-16	9.918781E-18
7.570000E+03	3.111282E-16	9.882129E-18
7.580000E+03	3.092665E-16	9.849806E-18
7.590000E+03	3.073601E-16	9.821490E-18
7.600000E+03	3.054318E-16	9.797503E-18
7.610000E+03	3.034818E-16	9.777393E-18
7.620000E+03	3.015254E-16	9.761116E-18
7.630000E+03	2.995759E-16	9.748228E-18
7.640000E+03	2.976283E-16	9.737633E-18
7.650000E+03	2.956992E-16	9.728959E-18
7.660000E+03	2.937822E-16	9.721146E-18
7.670000E+03	2.918919E-16	9.713888E-18
7.680000E+03	2.900207E-16	9.706209E-18
7.690000E+03	2.881762E-16	9.697728E-18
7.700000E+03	2.863654E-16	9.688125E-18
7.710000E+03	2.845787E-16	9.676597E-18
7.720000E+03	2.828274E-16	9.663129E-18
7.730000E+03	2.811010E-16	9.647044E-18
7.740000E+03	2.794100E-16	9.628453E-18
7.750000E+03	2.777433E-16	9.606802E-18
7.760000E+03	2.761110E-16	9.582324E-18
