#wls	flux	fluxerr
1.600000E+03	7.808789E-18	4.664648E-18
1.640000E+03	8.003127E-18	4.743624E-18
1.680000E+03	8.205258E-18	4.824244E-18
1.720000E+03	8.412907E-18	4.904961E-18
1.760000E+03	8.628519E-18	4.986990E-18
1.800000E+03	8.852187E-18	5.070142E-18
1.840000E+03	9.083993E-18	5.154211E-18
1.880000E+03	9.321538E-18	5.237583E-18
1.920000E+03	9.567305E-18	5.321405E-18
1.960000E+03	9.821334E-18	5.405415E-18
2.000000E+03	1.008365E-17	5.489327E-18
2.040000E+03	1.035425E-17	5.572838E-18
2.080000E+03	1.063571E-17	5.656991E-18
2.120000E+03	1.092285E-17	5.738688E-18
2.160000E+03	1.122077E-17	5.820292E-18
2.200000E+03	1.152682E-17	5.900034E-18
2.240000E+03	1.184086E-17	5.977494E-18
2.280000E+03	1.216542E-17	6.053563E-18
2.320000E+03	1.250038E-17	6.127746E-18
2.360000E+03	1.284556E-17	6.199523E-18
2.400000E+03	1.319802E-17	6.267039E-18
2.440000E+03	1.356297E-17	6.332343E-18
2.480000E+03	1.393460E-17	6.392244E-18
2.520000E+03	1.432092E-17	6.449955E-18
2.560000E+03	1.471317E-17	6.501007E-18
2.600000E+03	1.511937E-17	6.548483E-18
2.640000E+03	1.553624E-17	6.590395E-18
2.680000E+03	1.596328E-17	6.626004E-18
2.720000E+03	1.640280E-17	6.655731E-18
2.760000E+03	1.685419E-17	6.678754E-18
2.800000E+03	1.731681E-17	6.694248E-18
2.840000E+03	1.779284E-17	6.702486E-18
2.880000E+03	1.828155E-17	6.702575E-18
2.920000E+03	1.878212E-17	6.693630E-18
2.960000E+03	1.929958E-17	6.676824E-18
3.000000E+03	1.983303E-17	6.651147E-18
3.010000E+03	1.996731E-17	6.642735E-18
3.020000E+03	2.010399E-17	6.634187E-18
3.030000E+03	2.024306E-17	6.625476E-18
3.040000E+03	2.038155E-17	6.615617E-18
3.050000E+03	2.051944E-17	6.604608E-18
3.060000E+03	2.065968E-17	6.593389E-18
3.070000E+03	2.080224E-17	6.581934E-18
3.080000E+03	2.094415E-17	6.569291E-18
3.090000E+03	2.108836E-17	6.556377E-18
3.100000E+03	2.123485E-17	6.543166E-18
3.110000E+03	2.138065E-17	6.528730E-18
3.120000E+03	2.152869E-17	6.513964E-18
3.130000E+03	2.167600E-17	6.497956E-18
3.140000E+03	2.182553E-17	6.481585E-18
3.150000E+03	2.197726E-17	6.464825E-18
3.160000E+03	2.212821E-17	6.446792E-18
3.170000E+03	2.228428E-17	6.429192E-18
3.180000E+03	2.243659E-17	6.409444E-18
3.190000E+03	2.259398E-17	6.390082E-18
3.200000E+03	2.275053E-17	6.369404E-18
3.210000E+03	2.290918E-17	6.348230E-18
3.220000E+03	2.306991E-17	6.326539E-18
3.230000E+03	2.322975E-17	6.303509E-18
3.240000E+03	2.339459E-17	6.280726E-18
3.250000E+03	2.355851E-17	6.256577E-18
3.260000E+03	2.372443E-17	6.231843E-18
3.270000E+03	2.389236E-17	6.206503E-18
3.280000E+03	2.405932E-17	6.179780E-18
3.290000E+03	2.423119E-17	6.153177E-18
3.300000E+03	2.440206E-17	6.125170E-18
3.310000E+03	2.457486E-17	6.096498E-18
3.320000E+03	2.474958E-17	6.067143E-18
3.330000E+03	2.492621E-17	6.037086E-18
3.340000E+03	2.510471E-17	6.006312E-18
3.350000E+03	2.528509E-17	5.974804E-18
3.360000E+03	2.546439E-17	5.941862E-18
3.370000E+03	2.564846E-17	5.908848E-18
3.380000E+03	2.583435E-17	5.875055E-18
3.390000E+03	2.602206E-17	5.840468E-18
3.400000E+03	2.620865E-17	5.804429E-18
3.410000E+03	2.639994E-17	5.768227E-18
3.420000E+03	2.659301E-17	5.731195E-18
3.430000E+03	2.678784E-17	5.693322E-18
3.440000E+03	2.698442E-17	5.654598E-18
3.450000E+03	2.718273E-17	5.615014E-18
3.460000E+03	2.738278E-17	5.574562E-18
3.470000E+03	2.758455E-17	5.533235E-18
3.480000E+03	2.779093E-17	5.491597E-18
3.490000E+03	2.799901E-17	5.449054E-18
3.500000E+03	2.820589E-17	5.405047E-18
3.510000E+03	2.841735E-17	5.360689E-18
3.520000E+03	2.863049E-17	5.315415E-18
3.530000E+03	2.884818E-17	5.269749E-18
3.540000E+03	2.906754E-17	5.223148E-18
3.550000E+03	2.928856E-17	5.175613E-18
3.560000E+03	2.951125E-17	5.127147E-18
3.570000E+03	2.973559E-17	5.077753E-18
3.580000E+03	2.996446E-17	5.027917E-18
3.590000E+03	3.019498E-17	4.977147E-18
3.600000E+03	3.043001E-17	4.925913E-18
3.610000E+03	3.066384E-17	4.873294E-18
3.620000E+03	3.090503E-17	4.820658E-18
3.630000E+03	3.114503E-17	4.766663E-18
3.640000E+03	3.138954E-17	4.712201E-18
3.650000E+03	3.163854E-17	4.657263E-18
3.660000E+03	3.188921E-17	4.601435E-18
3.670000E+03	3.214155E-17	4.544739E-18
3.680000E+03	3.239840E-17	4.487589E-18
3.690000E+03	3.265694E-17	4.429606E-18
3.700000E+03	3.291998E-17	4.371192E-18
3.710000E+03	3.318472E-17	4.311989E-18
3.720000E+03	3.345398E-17	4.252390E-18
3.730000E+03	3.372776E-17	4.192410E-18
3.740000E+03	3.400326E-17	4.131725E-18
3.750000E+03	3.428049E-17	4.070385E-18
3.760000E+03	3.456504E-17	4.009085E-18
3.770000E+03	3.485134E-17	3.947203E-18
3.780000E+03	3.513941E-17	3.884799E-18
3.790000E+03	3.543202E-17	3.822239E-18
3.800000E+03	3.572917E-17	3.759568E-18
3.810000E+03	3.602811E-17	3.696559E-18
3.820000E+03	3.633161E-17	3.633570E-18
3.830000E+03	3.663966E-17	3.570669E-18
3.840000E+03	3.695226E-17	3.507930E-18
3.850000E+03	3.726667E-17	3.445184E-18
3.860000E+03	3.758563E-17	3.382790E-18
3.870000E+03	3.790914E-17	3.320849E-18
3.880000E+03	3.823445E-17	3.259237E-18
3.890000E+03	3.856704E-17	3.198546E-18
3.900000E+03	3.890143E-17	3.138446E-18
3.910000E+03	3.923763E-17	3.079093E-18
3.920000E+03	3.958108E-17	3.021066E-18
3.930000E+03	3.992905E-17	2.964302E-18
3.940000E+03	4.027886E-17	2.908764E-18
3.950000E+03	4.063324E-17	2.854826E-18
3.960000E+03	4.099224E-17	2.802652E-18
3.970000E+03	4.135593E-17	2.752406E-18
3.980000E+03	4.172175E-17	2.704071E-18
3.990000E+03	4.209523E-17	2.658148E-18
4.000000E+03	4.247122E-17	2.614427E-18
4.010000E+03	4.285267E-17	2.573200E-18
4.020000E+03	4.323993E-17	2.534565E-18
4.030000E+03	4.363340E-17	2.498602E-18
4.040000E+03	4.403355E-17	2.465370E-18
4.050000E+03	4.443828E-17	2.434760E-18
4.060000E+03	4.485354E-17	2.407084E-18
4.070000E+03	4.527473E-17	2.382049E-18
4.080000E+03	4.570795E-17	2.359916E-18
4.090000E+03	4.614874E-17	2.340367E-18
4.100000E+03	4.660069E-17	2.323485E-18
4.110000E+03	4.706214E-17	2.309074E-18
4.120000E+03	4.753943E-17	2.297317E-18
4.130000E+03	4.803101E-17	2.287999E-18
4.140000E+03	4.853536E-17	2.280905E-18
4.150000E+03	4.905633E-17	2.276071E-18
4.160000E+03	4.959781E-17	2.273529E-18
4.170000E+03	5.015310E-17	2.272826E-18
4.180000E+03	5.073150E-17	2.274245E-18
4.190000E+03	5.133171E-17	2.277590E-18
4.200000E+03	5.195245E-17	2.282677E-18
4.210000E+03	5.259784E-17	2.289572E-18
4.220000E+03	5.326934E-17	2.298231E-18
4.230000E+03	5.396847E-17	2.308619E-18
4.240000E+03	5.469405E-17	2.320600E-18
4.250000E+03	5.545306E-17	2.334392E-18
4.260000E+03	5.624169E-17	2.349762E-18
4.270000E+03	5.706155E-17	2.366716E-18
4.280000E+03	5.791977E-17	2.385495E-18
4.290000E+03	5.881257E-17	2.405891E-18
4.300000E+03	5.974161E-17	2.427928E-18
4.310000E+03	6.071137E-17	2.451748E-18
4.320000E+03	6.172355E-17	2.477380E-18
4.330000E+03	6.277984E-17	2.504858E-18
4.340000E+03	6.387903E-17	2.534101E-18
4.350000E+03	6.502262E-17	2.565140E-18
4.360000E+03	6.621785E-17	2.598231E-18
4.370000E+03	6.745744E-17	2.633059E-18
4.380000E+03	6.874842E-17	2.669871E-18
4.390000E+03	7.009198E-17	2.708680E-18
4.400000E+03	7.148609E-17	2.749357E-18
4.410000E+03	7.293145E-17	2.791862E-18
4.420000E+03	7.443160E-17	2.836256E-18
4.430000E+03	7.598068E-17	2.882231E-18
4.440000E+03	7.758797E-17	2.930051E-18
4.450000E+03	7.924382E-17	2.979255E-18
4.460000E+03	8.095387E-17	3.029954E-18
4.470000E+03	8.271394E-17	3.081890E-18
4.480000E+03	8.452255E-17	3.134903E-18
4.490000E+03	8.637782E-17	3.188823E-18
4.500000E+03	8.828073E-17	3.243591E-18
4.510000E+03	9.022170E-17	3.298771E-18
4.520000E+03	9.220066E-17	3.354290E-18
4.530000E+03	9.421714E-17	3.410079E-18
4.540000E+03	9.625964E-17	3.465694E-18
4.550000E+03	9.832647E-17	3.521073E-18
4.560000E+03	1.004119E-16	3.576038E-18
4.570000E+03	1.025095E-16	3.630419E-18
4.580000E+03	1.046125E-16	3.684059E-18
4.590000E+03	1.067096E-16	3.736683E-18
4.600000E+03	1.087966E-16	3.788290E-18
4.610000E+03	1.108655E-16	3.838763E-18
4.620000E+03	1.129077E-16	3.887999E-18
4.630000E+03	1.149108E-16	3.935776E-18
4.640000E+03	1.168661E-16	3.982016E-18
4.650000E+03	1.187688E-16	4.026791E-18
4.660000E+03	1.206105E-16	4.070048E-18
4.670000E+03	1.223789E-16	4.111608E-18
4.680000E+03	1.240663E-16	4.151440E-18
4.690000E+03	1.256690E-16	4.189654E-18
4.700000E+03	1.271761E-16	4.226108E-18
4.710000E+03	1.285811E-16	4.260806E-18
4.720000E+03	1.298781E-16	4.293770E-18
4.730000E+03	1.310660E-16	4.325176E-18
4.740000E+03	1.321364E-16	4.354941E-18
4.750000E+03	1.330855E-16	4.383132E-18
4.760000E+03	1.339107E-16	4.409821E-18
4.770000E+03	1.346059E-16	4.434945E-18
4.780000E+03	1.351787E-16	4.458832E-18
4.790000E+03	1.356251E-16	4.481352E-18
4.800000E+03	1.359467E-16	4.502370E-18
4.810000E+03	1.361420E-16	4.521574E-18
4.820000E+03	1.362227E-16	4.539028E-18
4.830000E+03	1.361850E-16	4.554249E-18
4.840000E+03	1.360383E-16	4.567150E-18
4.850000E+03	1.357843E-16	4.577384E-18
4.860000E+03	1.354335E-16	4.584888E-18
4.870000E+03	1.349925E-16	4.589502E-18
4.880000E+03	1.344648E-16	4.590980E-18
4.890000E+03	1.338615E-16	4.589391E-18
4.900000E+03	1.331902E-16	4.584727E-18
4.910000E+03	1.324549E-16	4.576917E-18
4.920000E+03	1.316636E-16	4.566072E-18
4.930000E+03	1.308278E-16	4.552479E-18
4.940000E+03	1.299515E-16	4.536224E-18
4.950000E+03	1.290428E-16	4.517553E-18
4.960000E+03	1.281127E-16	4.496862E-18
4.970000E+03	1.271653E-16	4.474326E-18
4.980000E+03	1.262081E-16	4.450250E-18
4.990000E+03	1.252516E-16	4.425053E-18
5.000000E+03	1.242964E-16	4.398802E-18
5.010000E+03	1.233557E-16	4.372004E-18
5.020000E+03	1.224328E-16	4.344808E-18
5.030000E+03	1.215340E-16	4.317453E-18
5.040000E+03	1.206684E-16	4.290265E-18
5.050000E+03	1.198355E-16	4.263225E-18
5.060000E+03	1.190438E-16	4.236624E-18
5.070000E+03	1.182987E-16	4.210629E-18
5.080000E+03	1.176052E-16	4.185400E-18
5.090000E+03	1.169709E-16	4.161192E-18
5.100000E+03	1.163948E-16	4.137955E-18
5.110000E+03	1.158841E-16	4.115945E-18
5.120000E+03	1.154430E-16	4.095318E-18
5.130000E+03	1.150728E-16	4.076136E-18
5.140000E+03	1.147828E-16	4.058754E-18
5.150000E+03	1.145712E-16	4.043139E-18
5.160000E+03	1.144466E-16	4.029642E-18
5.170000E+03	1.144068E-16	4.018228E-18
5.180000E+03	1.144547E-16	4.009047E-18
5.190000E+03	1.145981E-16	4.002416E-18
5.200000E+03	1.148340E-16	3.998269E-18
5.210000E+03	1.151670E-16	3.996792E-18
5.220000E+03	1.155986E-16	3.998056E-18
5.230000E+03	1.161277E-16	4.002016E-18
5.240000E+03	1.167580E-16	4.008780E-18
5.250000E+03	1.174903E-16	4.018341E-18
5.260000E+03	1.183253E-16	4.030669E-18
5.270000E+03	1.192609E-16	4.045624E-18
5.280000E+03	1.202974E-16	4.063144E-18
5.290000E+03	1.214377E-16	4.083239E-18
5.300000E+03	1.226820E-16	4.105822E-18
5.310000E+03	1.240277E-16	4.130707E-18
5.320000E+03	1.254774E-16	4.157886E-18
5.330000E+03	1.270310E-16	4.187254E-18
5.340000E+03	1.286855E-16	4.218614E-18
5.350000E+03	1.304404E-16	4.251857E-18
5.360000E+03	1.322977E-16	4.286956E-18
5.370000E+03	1.342563E-16	4.323790E-18
5.380000E+03	1.363119E-16	4.362137E-18
5.390000E+03	1.384627E-16	4.401853E-18
5.400000E+03	1.407089E-16	4.442880E-18
5.410000E+03	1.430444E-16	4.484962E-18
5.420000E+03	1.454685E-16	4.528025E-18
5.430000E+03	1.479733E-16	4.571797E-18
5.440000E+03	1.505531E-16	4.616099E-18
5.450000E+03	1.532046E-16	4.660847E-18
5.460000E+03	1.559204E-16	4.705865E-18
5.470000E+03	1.586857E-16	4.750797E-18
5.480000E+03	1.614976E-16	4.795685E-18
5.490000E+03	1.643462E-16	4.840404E-18
5.500000E+03	1.672138E-16	4.884619E-18
5.510000E+03	1.700951E-16	4.928294E-18
5.520000E+03	1.729742E-16	4.971113E-18
5.530000E+03	1.758420E-16	5.013002E-18
5.540000E+03	1.786821E-16	5.053739E-18
5.550000E+03	1.814819E-16	5.093256E-18
5.560000E+03	1.842295E-16	5.131544E-18
5.570000E+03	1.869134E-16	5.168652E-18
5.580000E+03	1.895270E-16	5.204779E-18
5.590000E+03	1.920573E-16	5.239970E-18
5.600000E+03	1.944965E-16	5.274404E-18
5.610000E+03	1.968379E-16	5.308290E-18
5.620000E+03	1.990762E-16	5.341861E-18
5.630000E+03	2.012075E-16	5.375371E-18
5.640000E+03	2.032330E-16	5.409194E-18
5.650000E+03	2.051436E-16	5.443414E-18
5.660000E+03	2.069464E-16	5.478550E-18
5.670000E+03	2.086341E-16	5.514727E-18
5.680000E+03	2.102159E-16	5.552502E-18
5.690000E+03	2.116896E-16	5.592130E-18
5.700000E+03	2.130540E-16	5.633850E-18
5.710000E+03	2.143201E-16	5.678187E-18
5.720000E+03	2.154836E-16	5.725186E-18
5.730000E+03	2.165572E-16	5.775234E-18
5.740000E+03	2.175377E-16	5.828186E-18
5.750000E+03	2.184345E-16	5.884097E-18
5.760000E+03	2.192579E-16	5.942891E-18
5.770000E+03	2.200059E-16	6.004025E-18
5.780000E+03	2.206848E-16	6.067033E-18
5.790000E+03	2.213089E-16	6.131549E-18
5.800000E+03	2.218758E-16	6.196651E-18
5.810000E+03	2.223987E-16	6.261787E-18
5.820000E+03	2.228736E-16	6.325901E-18
5.830000E+03	2.233038E-16	6.388155E-18
5.840000E+03	2.236998E-16	6.447972E-18
5.850000E+03	2.240548E-16	6.504370E-18
5.860000E+03	2.243735E-16	6.556804E-18
5.870000E+03	2.246517E-16	6.604603E-18
5.880000E+03	2.248929E-16	6.647456E-18
5.890000E+03	2.250960E-16	6.685062E-18
5.900000E+03	2.252557E-16	6.717130E-18
5.910000E+03	2.253749E-16	6.743739E-18
5.920000E+03	2.254525E-16	6.764968E-18
5.930000E+03	2.254840E-16	6.780882E-18
5.940000E+03	2.254734E-16	6.791884E-18
5.950000E+03	2.254175E-16	6.798213E-18
5.960000E+03	2.253219E-16	6.800405E-18
5.970000E+03	2.251849E-16	6.798791E-18
5.980000E+03	2.250136E-16	6.793956E-18
5.990000E+03	2.248079E-16	6.786233E-18
6.000000E+03	2.245760E-16	6.776173E-18
6.010000E+03	2.243185E-16	6.764041E-18
6.020000E+03	2.240447E-16	6.750281E-18
6.030000E+03	2.237558E-16	6.735031E-18
6.040000E+03	2.234574E-16	6.718465E-18
6.050000E+03	2.231592E-16	6.700790E-18
6.060000E+03	2.228667E-16	6.682013E-18
6.070000E+03	2.225816E-16	6.661947E-18
6.080000E+03	2.223091E-16	6.640464E-18
6.090000E+03	2.220579E-16	6.617509E-18
6.100000E+03	2.218286E-16	6.592775E-18
6.110000E+03	2.216250E-16	6.566075E-18
6.120000E+03	2.214545E-16	6.537361E-18
6.130000E+03	2.213200E-16	6.506520E-18
6.140000E+03	2.212160E-16	6.473273E-18
6.150000E+03	2.211521E-16	6.437875E-18
6.160000E+03	2.211300E-16	6.400434E-18
6.170000E+03	2.211469E-16	6.361034E-18
6.180000E+03	2.212036E-16	6.319950E-18
6.190000E+03	2.213045E-16	6.277641E-18
6.200000E+03	2.214461E-16	6.234413E-18
6.210000E+03	2.216322E-16	6.190843E-18
6.220000E+03	2.218584E-16	6.147334E-18
6.230000E+03	2.221277E-16	6.104536E-18
6.240000E+03	2.224345E-16	6.062908E-18
6.250000E+03	2.227806E-16	6.023127E-18
6.260000E+03	2.231596E-16	5.985647E-18
6.270000E+03	2.235682E-16	5.951032E-18
6.280000E+03	2.240067E-16	5.919942E-18
6.290000E+03	2.244715E-16	5.892913E-18
6.300000E+03	2.249548E-16	5.870349E-18
6.310000E+03	2.254566E-16	5.852803E-18
6.320000E+03	2.259694E-16	5.840548E-18
6.330000E+03	2.264934E-16	5.833956E-18
6.340000E+03	2.270252E-16	5.833183E-18
6.350000E+03	2.275573E-16	5.838145E-18
6.360000E+03	2.280905E-16	5.848827E-18
6.370000E+03	2.286217E-16	5.864976E-18
6.380000E+03	2.291439E-16	5.886114E-18
6.390000E+03	2.296581E-16	5.911859E-18
6.400000E+03	2.301615E-16	5.941641E-18
6.410000E+03	2.306510E-16	5.974832E-18
6.420000E+03	2.311192E-16	6.010666E-18
6.430000E+03	2.315709E-16	6.048691E-18
6.440000E+03	2.319941E-16	6.088063E-18
6.450000E+03	2.323888E-16	6.128300E-18
6.460000E+03	2.327505E-16	6.168883E-18
6.470000E+03	2.330745E-16	6.209365E-18
6.480000E+03	2.333556E-16	6.249373E-18
6.490000E+03	2.335882E-16	6.288608E-18
6.500000E+03	2.337667E-16	6.326834E-18
6.510000E+03	2.338848E-16	6.363867E-18
6.520000E+03	2.339364E-16	6.399565E-18
6.530000E+03	2.339191E-16	6.433921E-18
6.540000E+03	2.338185E-16	6.466308E-18
6.550000E+03	2.336364E-16	6.496143E-18
6.560000E+03	2.333627E-16	6.522507E-18
6.570000E+03	2.329921E-16	6.544652E-18
6.580000E+03	2.325245E-16	6.562028E-18
6.590000E+03	2.319482E-16	6.573829E-18
6.600000E+03	2.312739E-16	6.579942E-18
6.610000E+03	2.304887E-16	6.579673E-18
6.620000E+03	2.296024E-16	6.573035E-18
6.630000E+03	2.286137E-16	6.559818E-18
6.640000E+03	2.275314E-16	6.540164E-18
6.650000E+03	2.263618E-16	6.514208E-18
6.660000E+03	2.251083E-16	6.482067E-18
6.670000E+03	2.237799E-16	6.444057E-18
6.680000E+03	2.223901E-16	6.400669E-18
6.690000E+03	2.209496E-16	6.352327E-18
6.700000E+03	2.194694E-16	6.299484E-18
6.710000E+03	2.179571E-16	6.242504E-18
6.720000E+03	2.164286E-16	6.181990E-18
6.730000E+03	2.148918E-16	6.118329E-18
6.740000E+03	2.133660E-16	6.052243E-18
6.750000E+03	2.118547E-16	5.984020E-18
6.760000E+03	2.103726E-16	5.914276E-18
6.770000E+03	2.089296E-16	5.843522E-18
6.780000E+03	2.075351E-16	5.772275E-18
6.790000E+03	2.061977E-16	5.701061E-18
6.800000E+03	2.049255E-16	5.630425E-18
6.810000E+03	2.037222E-16	5.560838E-18
6.820000E+03	2.026020E-16	5.493109E-18
6.830000E+03	2.015677E-16	5.427788E-18
6.840000E+03	2.006252E-16	5.365571E-18
6.850000E+03	1.997801E-16	5.307204E-18
6.860000E+03	1.990377E-16	5.253476E-18
6.870000E+03	1.984030E-16	5.205204E-18
6.880000E+03	1.978802E-16	5.163221E-18
6.890000E+03	1.974773E-16	5.128448E-18
6.900000E+03	1.971941E-16	5.101583E-18
6.910000E+03	1.970339E-16	5.083355E-18
6.920000E+03	1.969989E-16	5.074401E-18
6.930000E+03	1.970912E-16	5.075226E-18
6.940000E+03	1.973155E-16	5.086264E-18
6.950000E+03	1.976686E-16	5.107571E-18
6.960000E+03	1.981537E-16	5.139188E-18
6.970000E+03	1.987662E-16	5.180752E-18
6.980000E+03	1.995042E-16	5.231805E-18
6.990000E+03	2.003654E-16	5.291717E-18
7.000000E+03	2.013506E-16	5.359830E-18
7.010000E+03	2.024564E-16	5.435302E-18
7.020000E+03	2.036752E-16	5.517133E-18
7.030000E+03	2.050026E-16	5.604411E-18
7.040000E+03	2.064379E-16	5.696344E-18
7.050000E+03	2.079722E-16	5.791968E-18
7.060000E+03	2.096042E-16	5.890589E-18
7.070000E+03	2.113244E-16	5.991363E-18
7.080000E+03	2.131312E-16	6.093747E-18
7.090000E+03	2.150187E-16	6.197170E-18
7.100000E+03	2.169767E-16	6.301019E-18
7.110000E+03	2.189990E-16	6.404875E-18
7.120000E+03	2.210833E-16	6.508510E-18
7.130000E+03	2.232232E-16	6.611637E-18
7.140000E+03	2.254076E-16	6.713880E-18
7.150000E+03	2.276338E-16	6.815147E-18
7.160000E+03	2.298947E-16	6.915228E-18
7.170000E+03	2.321781E-16	7.013768E-18
7.180000E+03	2.344808E-16	7.110655E-18
7.190000E+03	2.367947E-16	7.205599E-18
7.200000E+03	2.391069E-16	7.298108E-18
7.210000E+03	2.414136E-16	7.387906E-18
7.220000E+03	2.437063E-16	7.474498E-18
7.230000E+03	2.459713E-16	7.557173E-18
7.240000E+03	2.482046E-16	7.635450E-18
7.250000E+03	2.503973E-16	7.708657E-18
7.260000E+03	2.525350E-16	7.775943E-18
7.270000E+03	2.546136E-16	7.836752E-18
7.280000E+03	2.566237E-16	7.890396E-18
7.290000E+03	2.585559E-16	7.936219E-18
7.300000E+03	2.603959E-16	7.973462E-18
7.310000E+03	2.621452E-16	8.001920E-18
7.320000E+03	2.637847E-16	8.020842E-18
7.330000E+03	2.653064E-16	8.029914E-18
7.340000E+03	2.667139E-16	8.029280E-18
7.350000E+03	2.679902E-16	8.018587E-18
7.360000E+03	2.691356E-16	7.998137E-18
7.370000E+03	2.701459E-16	7.968252E-18
7.380000E+03	2.710182E-16	7.929441E-18
7.390000E+03	2.717448E-16	7.882254E-18
7.400000E+03	2.723301E-16	7.827764E-18
7.410000E+03	2.727742E-16	7.767088E-18
7.420000E+03	2.730777E-16	7.701539E-18
7.430000E+03	2.732421E-16	7.632619E-18
7.440000E+03	2.732638E-16	7.561840E-18
7.450000E+03	2.731569E-16	7.491327E-18
7.460000E+03	2.729136E-16	7.422679E-18
7.470000E+03	2.725434E-16	7.358014E-18
7.480000E+03	2.720508E-16	7.299284E-18
7.490000E+03	2.714351E-16	7.248199E-18
7.500000E+03	2.707133E-16	7.206754E-18
7.510000E+03	2.698800E-16	7.176069E-18
7.520000E+03	2.689477E-16	7.157364E-18
7.530000E+03	2.679239E-16	7.151282E-18
7.540000E+03	2.668167E-16	7.157998E-18
7.550000E+03	2.656349E-16	7.177230E-18
7.560000E+03	2.643822E-16	7.208128E-18
7.570000E+03	2.630797E-16	7.249986E-18
7.580000E+03	2.617258E-16	7.301258E-18
7.590000E+03	2.603360E-16	7.360741E-18
7.600000E+03	2.589196E-16	7.427041E-18
7.610000E+03	2.574856E-16	7.498792E-18
7.620000E+03	2.560420E-16	7.574656E-18
7.630000E+03	2.545898E-16	7.653030E-18
7.640000E+03	2.531457E-16	7.732878E-18
7.650000E+03	2.517032E-16	7.812645E-18
7.660000E+03	2.502714E-16	7.891431E-18
7.670000E+03	2.488531E-16	7.968316E-18
7.680000E+03	2.474501E-16	8.042523E-18
7.690000E+03	2.460633E-16	8.113405E-18
7.700000E+03	2.446934E-16	8.180436E-18
7.710000E+03	2.433347E-16	8.243016E-18
7.720000E+03	2.419978E-16	8.301192E-18
7.730000E+03	2.406715E-16	8.354363E-18
7.740000E+03	2.393606E-16	8.402559E-18
7.750000E+03	2.380702E-16	8.445882E-18
7.760000E+03	2.367891E-16	8.483916E-18
