#wls	flux	fluxerr
1.600000E+03	1.958028E-16	8.754049E-18
1.640000E+03	1.950973E-16	8.708099E-18
1.680000E+03	1.940923E-16	8.648529E-18
1.720000E+03	1.927717E-16	8.574688E-18
1.760000E+03	1.911643E-16	8.487938E-18
1.800000E+03	1.892914E-16	8.389285E-18
1.840000E+03	1.871903E-16	8.280450E-18
1.880000E+03	1.848898E-16	8.162770E-18
1.920000E+03	1.824111E-16	8.037235E-18
1.960000E+03	1.798105E-16	7.906372E-18
2.000000E+03	1.771119E-16	7.771281E-18
2.040000E+03	1.743600E-16	7.633951E-18
2.080000E+03	1.715780E-16	7.495427E-18
2.120000E+03	1.688157E-16	7.357892E-18
2.160000E+03	1.660901E-16	7.222101E-18
2.200000E+03	1.634332E-16	7.089443E-18
2.240000E+03	1.608549E-16	6.960329E-18
2.280000E+03	1.583779E-16	6.835734E-18
2.320000E+03	1.560194E-16	6.716374E-18
2.360000E+03	1.537772E-16	6.602128E-18
2.400000E+03	1.516615E-16	6.493403E-18
2.440000E+03	1.496721E-16	6.390156E-18
2.480000E+03	1.478147E-16	6.292590E-18
2.520000E+03	1.460749E-16	6.200062E-18
2.560000E+03	1.444720E-16	6.113350E-18
2.600000E+03	1.429957E-16	6.031968E-18
2.640000E+03	1.416577E-16	5.956374E-18
2.680000E+03	1.404682E-16	5.886942E-18
2.720000E+03	1.394481E-16	5.824487E-18
2.760000E+03	1.386132E-16	5.769597E-18
2.800000E+03	1.379966E-16	5.723573E-18
2.840000E+03	1.376332E-16	5.687756E-18
2.880000E+03	1.375652E-16	5.663775E-18
2.920000E+03	1.378433E-16	5.653556E-18
2.960000E+03	1.385256E-16	5.659317E-18
3.000000E+03	1.396801E-16	5.683605E-18
3.010000E+03	1.400480E-16	5.692770E-18
3.020000E+03	1.404567E-16	5.703531E-18
3.030000E+03	1.408984E-16	5.715566E-18
3.040000E+03	1.413834E-16	5.729290E-18
3.050000E+03	1.419043E-16	5.744393E-18
3.060000E+03	1.424669E-16	5.761113E-18
3.070000E+03	1.430728E-16	5.779500E-18
3.080000E+03	1.437235E-16	5.799617E-18
3.090000E+03	1.444209E-16	5.821527E-18
3.100000E+03	1.451662E-16	5.845276E-18
3.110000E+03	1.459569E-16	5.870755E-18
3.120000E+03	1.468039E-16	5.898397E-18
3.130000E+03	1.476998E-16	5.927895E-18
3.140000E+03	1.486509E-16	5.959496E-18
3.150000E+03	1.496596E-16	5.993284E-18
3.160000E+03	1.507274E-16	6.029319E-18
3.170000E+03	1.518566E-16	6.067675E-18
3.180000E+03	1.530493E-16	6.108436E-18
3.190000E+03	1.543031E-16	6.151489E-18
3.200000E+03	1.556293E-16	6.197280E-18
3.210000E+03	1.570212E-16	6.245528E-18
3.220000E+03	1.584857E-16	6.296501E-18
3.230000E+03	1.600253E-16	6.350280E-18
3.240000E+03	1.616424E-16	6.406959E-18
3.250000E+03	1.633398E-16	6.466629E-18
3.260000E+03	1.651151E-16	6.529187E-18
3.270000E+03	1.669808E-16	6.595113E-18
3.280000E+03	1.689299E-16	6.664118E-18
3.290000E+03	1.709703E-16	6.736498E-18
3.300000E+03	1.731049E-16	6.812354E-18
3.310000E+03	1.753365E-16	6.891781E-18
3.320000E+03	1.776634E-16	6.974698E-18
3.330000E+03	1.800987E-16	7.061601E-18
3.340000E+03	1.826354E-16	7.152204E-18
3.350000E+03	1.852820E-16	7.246813E-18
3.360000E+03	1.880418E-16	7.345550E-18
3.370000E+03	1.909182E-16	7.448522E-18
3.380000E+03	1.939093E-16	7.555638E-18
3.390000E+03	1.970294E-16	7.667433E-18
3.400000E+03	2.002711E-16	7.783606E-18
3.410000E+03	2.036436E-16	7.904487E-18
3.420000E+03	2.071448E-16	8.029975E-18
3.430000E+03	2.107897E-16	8.160626E-18
3.440000E+03	2.145707E-16	8.296128E-18
3.450000E+03	2.184972E-16	8.436814E-18
3.460000E+03	2.225728E-16	8.582805E-18
3.470000E+03	2.267957E-16	8.733999E-18
3.480000E+03	2.311812E-16	8.890963E-18
3.490000E+03	2.357213E-16	9.053363E-18
3.500000E+03	2.404256E-16	9.221540E-18
3.510000E+03	2.452918E-16	9.395377E-18
3.520000E+03	2.503296E-16	9.575211E-18
3.530000E+03	2.555427E-16	9.761163E-18
3.540000E+03	2.609350E-16	9.953342E-18
3.550000E+03	2.665034E-16	1.015160E-17
3.560000E+03	2.722579E-16	1.035629E-17
3.570000E+03	2.782020E-16	1.056751E-17
3.580000E+03	2.843322E-16	1.078509E-17
3.590000E+03	2.906588E-16	1.100940E-17
3.600000E+03	2.971853E-16	1.124051E-17
3.610000E+03	3.039148E-16	1.147852E-17
3.620000E+03	3.108432E-16	1.172324E-17
3.630000E+03	3.179734E-16	1.197473E-17
3.640000E+03	3.253158E-16	1.223335E-17
3.650000E+03	3.328737E-16	1.249919E-17
3.660000E+03	3.406501E-16	1.277232E-17
3.670000E+03	3.486402E-16	1.305251E-17
3.680000E+03	3.568549E-16	1.334013E-17
3.690000E+03	3.652891E-16	1.363495E-17
3.700000E+03	3.739541E-16	1.393736E-17
3.710000E+03	3.828447E-16	1.424711E-17
3.720000E+03	3.919729E-16	1.456459E-17
3.730000E+03	4.013331E-16	1.488957E-17
3.740000E+03	4.109380E-16	1.522247E-17
3.750000E+03	4.207916E-16	1.556339E-17
3.760000E+03	4.308789E-16	1.591172E-17
3.770000E+03	4.412325E-16	1.626862E-17
3.780000E+03	4.518376E-16	1.663350E-17
3.790000E+03	4.626985E-16	1.700645E-17
3.800000E+03	4.738296E-16	1.738797E-17
3.810000E+03	4.852252E-16	1.777779E-17
3.820000E+03	4.969006E-16	1.817641E-17
3.830000E+03	5.088490E-16	1.858353E-17
3.840000E+03	5.210745E-16	1.899925E-17
3.850000E+03	5.335916E-16	1.942404E-17
3.860000E+03	5.463922E-16	1.985755E-17
3.870000E+03	5.594899E-16	2.030020E-17
3.880000E+03	5.728742E-16	2.075157E-17
3.890000E+03	5.865449E-16	2.121159E-17
3.900000E+03	6.005132E-16	2.168060E-17
3.910000E+03	6.147640E-16	2.215799E-17
3.920000E+03	6.292933E-16	2.264358E-17
3.930000E+03	6.440955E-16	2.313708E-17
3.940000E+03	6.591775E-16	2.363871E-17
3.950000E+03	6.745185E-16	2.414765E-17
3.960000E+03	6.901098E-16	2.466354E-17
3.970000E+03	7.059427E-16	2.518602E-17
3.980000E+03	7.220228E-16	2.571522E-17
3.990000E+03	7.383279E-16	2.625032E-17
4.000000E+03	7.548507E-16	2.679100E-17
4.010000E+03	7.715856E-16	2.733702E-17
4.020000E+03	7.885295E-16	2.788822E-17
4.030000E+03	8.056816E-16	2.844453E-17
4.040000E+03	8.230610E-16	2.900657E-17
4.050000E+03	8.406417E-16	2.957338E-17
4.060000E+03	8.584665E-16	3.014642E-17
4.070000E+03	8.765166E-16	3.072498E-17
4.080000E+03	8.948440E-16	3.131082E-17
4.090000E+03	9.134541E-16	3.190407E-17
4.100000E+03	9.323547E-16	3.250496E-17
4.110000E+03	9.516101E-16	3.311565E-17
4.120000E+03	9.712341E-16	3.373654E-17
4.130000E+03	9.912410E-16	3.436806E-17
4.140000E+03	1.011701E-15	3.501257E-17
4.150000E+03	1.032610E-15	3.566979E-17
4.160000E+03	1.054036E-15	3.634202E-17
4.170000E+03	1.075967E-15	3.702875E-17
4.180000E+03	1.098445E-15	3.773128E-17
4.190000E+03	1.121485E-15	3.845001E-17
4.200000E+03	1.145091E-15	3.918499E-17
4.210000E+03	1.169237E-15	3.993519E-17
4.220000E+03	1.193944E-15	4.070125E-17
4.230000E+03	1.219134E-15	4.148037E-17
4.240000E+03	1.244774E-15	4.227133E-17
4.250000E+03	1.270767E-15	4.307075E-17
4.260000E+03	1.297058E-15	4.387671E-17
4.270000E+03	1.323480E-15	4.468352E-17
4.280000E+03	1.349884E-15	4.548611E-17
4.290000E+03	1.376141E-15	4.628011E-17
4.300000E+03	1.402001E-15	4.705721E-17
4.310000E+03	1.427234E-15	4.780974E-17
4.320000E+03	1.451641E-15	4.853119E-17
4.330000E+03	1.474874E-15	4.921012E-17
4.340000E+03	1.496730E-15	4.983997E-17
4.350000E+03	1.516875E-15	5.040996E-17
4.360000E+03	1.535040E-15	5.091148E-17
4.370000E+03	1.551008E-15	5.133774E-17
4.380000E+03	1.564581E-15	5.168265E-17
4.390000E+03	1.575610E-15	5.194176E-17
4.400000E+03	1.584075E-15	5.211498E-17
4.410000E+03	1.590098E-15	5.220677E-17
4.420000E+03	1.593816E-15	5.222217E-17
4.430000E+03	1.595471E-15	5.216949E-17
4.440000E+03	1.595269E-15	5.205595E-17
4.450000E+03	1.593485E-15	5.189086E-17
4.460000E+03	1.590305E-15	5.168053E-17
4.470000E+03	1.586029E-15	5.143505E-17
4.480000E+03	1.580775E-15	5.115839E-17
4.490000E+03	1.574759E-15	5.085777E-17
4.500000E+03	1.568085E-15	5.053670E-17
4.510000E+03	1.560852E-15	5.019848E-17
4.520000E+03	1.553124E-15	4.984530E-17
4.530000E+03	1.544962E-15	4.947915E-17
4.540000E+03	1.536346E-15	4.909959E-17
4.550000E+03	1.527266E-15	4.870630E-17
4.560000E+03	1.517692E-15	4.829846E-17
4.570000E+03	1.507583E-15	4.787486E-17
4.580000E+03	1.496915E-15	4.743488E-17
4.590000E+03	1.485594E-15	4.697563E-17
4.600000E+03	1.473621E-15	4.649730E-17
4.610000E+03	1.460936E-15	4.599815E-17
4.620000E+03	1.447516E-15	4.547755E-17
4.630000E+03	1.433325E-15	4.493458E-17
4.640000E+03	1.418416E-15	4.437103E-17
4.650000E+03	1.402789E-15	4.378703E-17
4.660000E+03	1.386482E-15	4.318396E-17
4.670000E+03	1.369552E-15	4.256374E-17
4.680000E+03	1.352055E-15	4.192818E-17
4.690000E+03	1.334119E-15	4.128139E-17
4.700000E+03	1.315822E-15	4.062587E-17
4.710000E+03	1.297254E-15	3.996450E-17
4.720000E+03	1.278553E-15	3.930153E-17
4.730000E+03	1.259842E-15	3.864079E-17
4.740000E+03	1.241263E-15	3.798663E-17
4.750000E+03	1.222883E-15	3.734107E-17
4.760000E+03	1.204880E-15	3.670951E-17
4.770000E+03	1.187353E-15	3.609485E-17
4.780000E+03	1.170394E-15	3.549985E-17
4.790000E+03	1.154127E-15	3.492809E-17
4.800000E+03	1.138645E-15	3.438224E-17
4.810000E+03	1.124016E-15	3.386424E-17
4.820000E+03	1.110332E-15	3.337664E-17
4.830000E+03	1.097656E-15	3.292117E-17
4.840000E+03	1.086040E-15	3.249916E-17
4.850000E+03	1.075507E-15	3.211111E-17
4.860000E+03	1.066101E-15	3.175809E-17
4.870000E+03	1.057836E-15	3.144032E-17
4.880000E+03	1.050701E-15	3.115721E-17
4.890000E+03	1.044701E-15	3.090871E-17
4.900000E+03	1.039816E-15	3.069398E-17
4.910000E+03	1.035998E-15	3.051140E-17
4.920000E+03	1.033219E-15	3.035994E-17
4.930000E+03	1.031412E-15	3.023744E-17
4.940000E+03	1.030533E-15	3.014238E-17
4.950000E+03	1.030498E-15	3.007217E-17
4.960000E+03	1.031251E-15	3.002496E-17
4.970000E+03	1.032714E-15	2.999843E-17
4.980000E+03	1.034798E-15	2.998976E-17
4.990000E+03	1.037424E-15	2.999660E-17
5.000000E+03	1.040534E-15	3.001715E-17
5.010000E+03	1.044040E-15	3.004884E-17
5.020000E+03	1.047893E-15	3.009015E-17
5.030000E+03	1.052034E-15	3.013929E-17
5.040000E+03	1.056378E-15	3.019388E-17
5.050000E+03	1.060925E-15	3.025381E-17
5.060000E+03	1.065590E-15	3.031665E-17
5.070000E+03	1.070384E-15	3.038271E-17
5.080000E+03	1.075232E-15	3.044984E-17
5.090000E+03	1.080138E-15	3.051817E-17
5.100000E+03	1.085064E-15	3.058660E-17
5.110000E+03	1.090001E-15	3.065490E-17
5.120000E+03	1.094910E-15	3.072199E-17
5.130000E+03	1.099765E-15	3.078715E-17
5.140000E+03	1.104553E-15	3.085004E-17
5.150000E+03	1.109227E-15	3.090936E-17
5.160000E+03	1.113765E-15	3.096456E-17
5.170000E+03	1.118111E-15	3.101412E-17
5.180000E+03	1.122221E-15	3.105687E-17
5.190000E+03	1.126047E-15	3.109152E-17
5.200000E+03	1.129552E-15	3.111716E-17
5.210000E+03	1.132669E-15	3.113197E-17
5.220000E+03	1.135358E-15	3.113497E-17
5.230000E+03	1.137534E-15	3.112392E-17
5.240000E+03	1.139175E-15	3.109834E-17
5.250000E+03	1.140231E-15	3.105697E-17
5.260000E+03	1.140625E-15	3.099782E-17
5.270000E+03	1.140349E-15	3.092084E-17
5.280000E+03	1.139354E-15	3.082480E-17
5.290000E+03	1.137632E-15	3.070968E-17
5.300000E+03	1.135139E-15	3.057436E-17
5.310000E+03	1.131901E-15	3.041977E-17
5.320000E+03	1.127929E-15	3.024629E-17
5.330000E+03	1.123216E-15	3.005387E-17
5.340000E+03	1.117828E-15	2.984444E-17
5.350000E+03	1.111799E-15	2.961899E-17
5.360000E+03	1.105190E-15	2.937931E-17
5.370000E+03	1.098092E-15	2.912785E-17
5.380000E+03	1.090558E-15	2.886617E-17
5.390000E+03	1.082711E-15	2.859757E-17
5.400000E+03	1.074651E-15	2.832471E-17
5.410000E+03	1.066451E-15	2.804957E-17
5.420000E+03	1.058241E-15	2.777560E-17
5.430000E+03	1.050104E-15	2.750497E-17
5.440000E+03	1.042131E-15	2.724001E-17
5.450000E+03	1.034394E-15	2.698262E-17
5.460000E+03	1.026963E-15	2.673453E-17
5.470000E+03	1.019853E-15	2.649609E-17
5.480000E+03	1.013062E-15	2.626719E-17
5.490000E+03	1.006566E-15	2.604714E-17
5.500000E+03	1.000260E-15	2.583315E-17
5.510000E+03	9.940432E-16	2.562264E-17
5.520000E+03	9.877627E-16	2.541160E-17
5.530000E+03	9.812236E-16	2.519505E-17
5.540000E+03	9.742812E-16	2.496931E-17
5.550000E+03	9.667630E-16	2.473001E-17
5.560000E+03	9.585315E-16	2.447372E-17
5.570000E+03	9.494791E-16	2.419778E-17
5.580000E+03	9.395478E-16	2.390081E-17
5.590000E+03	9.286953E-16	2.358186E-17
5.600000E+03	9.169450E-16	2.324163E-17
5.610000E+03	9.043250E-16	2.288093E-17
5.620000E+03	8.909470E-16	2.250269E-17
5.630000E+03	8.769192E-16	2.210971E-17
5.640000E+03	8.623981E-16	2.170600E-17
5.650000E+03	8.475250E-16	2.129516E-17
5.660000E+03	8.324968E-16	2.088214E-17
5.670000E+03	8.174928E-16	2.047144E-17
5.680000E+03	8.026692E-16	2.006693E-17
5.690000E+03	7.882173E-16	1.967334E-17
5.700000E+03	7.742845E-16	1.929429E-17
5.710000E+03	7.610229E-16	1.893346E-17
5.720000E+03	7.485456E-16	1.859358E-17
5.730000E+03	7.369558E-16	1.827709E-17
5.740000E+03	7.263436E-16	1.798610E-17
5.750000E+03	7.167587E-16	1.772171E-17
5.760000E+03	7.082379E-16	1.748470E-17
5.770000E+03	7.008058E-16	1.727555E-17
5.780000E+03	6.944483E-16	1.709378E-17
5.790000E+03	6.891413E-16	1.693868E-17
5.800000E+03	6.848516E-16	1.680930E-17
5.810000E+03	6.815123E-16	1.670391E-17
5.820000E+03	6.790600E-16	1.662085E-17
5.830000E+03	6.774014E-16	1.655774E-17
5.840000E+03	6.764422E-16	1.651220E-17
5.850000E+03	6.760885E-16	1.648189E-17
5.860000E+03	6.762246E-16	1.646392E-17
5.870000E+03	6.767488E-16	1.645578E-17
5.880000E+03	6.775424E-16	1.645456E-17
5.890000E+03	6.784983E-16	1.645763E-17
5.900000E+03	6.795317E-16	1.646295E-17
5.910000E+03	6.805230E-16	1.646760E-17
5.920000E+03	6.814059E-16	1.647000E-17
5.930000E+03	6.821095E-16	1.646845E-17
5.940000E+03	6.825683E-16	1.646139E-17
5.950000E+03	6.827415E-16	1.644787E-17
5.960000E+03	6.826131E-16	1.642752E-17
5.970000E+03	6.821753E-16	1.640018E-17
5.980000E+03	6.814283E-16	1.636589E-17
5.990000E+03	6.803974E-16	1.632527E-17
6.000000E+03	6.791400E-16	1.627973E-17
6.010000E+03	6.776839E-16	1.622995E-17
6.020000E+03	6.761210E-16	1.617814E-17
6.030000E+03	6.745097E-16	1.612571E-17
6.040000E+03	6.729344E-16	1.607468E-17
6.050000E+03	6.714938E-16	1.602739E-17
6.060000E+03	6.702819E-16	1.598611E-17
6.070000E+03	6.693951E-16	1.595309E-17
6.080000E+03	6.689216E-16	1.593044E-17
6.090000E+03	6.689569E-16	1.592041E-17
6.100000E+03	6.696107E-16	1.592558E-17
6.110000E+03	6.709545E-16	1.594764E-17
6.120000E+03	6.730716E-16	1.598855E-17
6.130000E+03	6.760560E-16	1.605051E-17
6.140000E+03	6.799593E-16	1.613471E-17
6.150000E+03	6.848503E-16	1.624279E-17
6.160000E+03	6.907788E-16	1.637590E-17
6.170000E+03	6.977740E-16	1.653471E-17
6.180000E+03	7.058695E-16	1.672002E-17
6.190000E+03	7.150741E-16	1.693202E-17
6.200000E+03	7.253692E-16	1.717028E-17
6.210000E+03	7.367406E-16	1.743444E-17
6.220000E+03	7.491083E-16	1.772260E-17
6.230000E+03	7.623834E-16	1.803268E-17
6.240000E+03	7.764328E-16	1.836151E-17
6.250000E+03	7.911096E-16	1.870566E-17
6.260000E+03	8.062536E-16	1.906133E-17
6.270000E+03	8.217114E-16	1.942493E-17
6.280000E+03	8.372555E-16	1.979110E-17
6.290000E+03	8.526654E-16	2.015465E-17
6.300000E+03	8.676957E-16	2.050979E-17
6.310000E+03	8.820963E-16	2.085065E-17
6.320000E+03	8.956201E-16	2.117138E-17
6.330000E+03	9.080312E-16	2.146644E-17
6.340000E+03	9.191113E-16	2.173066E-17
6.350000E+03	9.286537E-16	2.195916E-17
6.360000E+03	9.365156E-16	2.214855E-17
6.370000E+03	9.425502E-16	2.229535E-17
6.380000E+03	9.466566E-16	2.239715E-17
6.390000E+03	9.487567E-16	2.245205E-17
6.400000E+03	9.488441E-16	2.245988E-17
6.410000E+03	9.469090E-16	2.242036E-17
6.420000E+03	9.429728E-16	2.233393E-17
6.430000E+03	9.371225E-16	2.220260E-17
6.440000E+03	9.294325E-16	2.202806E-17
6.450000E+03	9.200108E-16	2.181282E-17
6.460000E+03	9.089823E-16	2.155976E-17
6.470000E+03	8.964846E-16	2.127209E-17
6.480000E+03	8.826647E-16	2.095321E-17
6.490000E+03	8.676865E-16	2.060695E-17
6.500000E+03	8.516816E-16	2.023638E-17
6.510000E+03	8.348264E-16	1.984561E-17
6.520000E+03	8.172605E-16	1.943792E-17
6.530000E+03	7.991297E-16	1.901671E-17
6.540000E+03	7.805726E-16	1.858524E-17
6.550000E+03	7.617201E-16	1.814657E-17
6.560000E+03	7.427039E-16	1.770380E-17
6.570000E+03	7.236261E-16	1.725933E-17
6.580000E+03	7.045894E-16	1.681559E-17
6.590000E+03	6.856865E-16	1.637475E-17
6.600000E+03	6.670007E-16	1.593878E-17
6.610000E+03	6.486145E-16	1.550966E-17
6.620000E+03	6.305839E-16	1.508870E-17
6.630000E+03	6.129739E-16	1.467745E-17
6.640000E+03	5.958171E-16	1.427669E-17
6.650000E+03	5.791714E-16	1.388781E-17
6.660000E+03	5.630643E-16	1.351148E-17
6.670000E+03	5.475326E-16	1.314860E-17
6.680000E+03	5.325932E-16	1.279956E-17
6.690000E+03	5.182656E-16	1.246487E-17
6.700000E+03	5.045720E-16	1.214508E-17
6.710000E+03	4.915172E-16	1.184031E-17
6.720000E+03	4.791096E-16	1.155080E-17
6.730000E+03	4.673610E-16	1.127685E-17
6.740000E+03	4.562680E-16	1.101841E-17
6.750000E+03	4.458375E-16	1.077567E-17
6.760000E+03	4.360623E-16	1.054849E-17
6.770000E+03	4.269398E-16	1.033683E-17
6.780000E+03	4.184715E-16	1.014077E-17
6.790000E+03	4.106464E-16	9.960072E-18
6.800000E+03	4.034638E-16	9.794747E-18
6.810000E+03	3.969107E-16	9.644523E-18
6.820000E+03	3.909844E-16	9.509365E-18
6.830000E+03	3.856711E-16	9.388974E-18
6.840000E+03	3.809665E-16	9.283284E-18
6.850000E+03	3.768554E-16	9.191964E-18
6.860000E+03	3.733327E-16	9.114923E-18
6.870000E+03	3.703824E-16	9.051812E-18
6.880000E+03	3.679980E-16	9.002510E-18
6.890000E+03	3.661675E-16	8.966761E-18
6.900000E+03	3.648732E-16	8.944176E-18
6.910000E+03	3.641021E-16	8.934468E-18
6.920000E+03	3.638450E-16	8.937457E-18
6.930000E+03	3.640873E-16	8.952819E-18
6.940000E+03	3.648084E-16	8.980086E-18
6.950000E+03	3.659964E-16	9.019008E-18
6.960000E+03	3.676287E-16	9.069064E-18
6.970000E+03	3.696916E-16	9.129952E-18
6.980000E+03	3.721646E-16	9.201207E-18
6.990000E+03	3.750215E-16	9.282212E-18
7.000000E+03	3.782442E-16	9.372559E-18
7.010000E+03	3.818084E-16	9.471677E-18
7.020000E+03	3.856828E-16	9.578824E-18
7.030000E+03	3.898451E-16	9.693476E-18
7.040000E+03	3.942605E-16	9.814797E-18
7.050000E+03	3.989092E-16	9.942324E-18
7.060000E+03	4.037420E-16	1.007485E-17
7.070000E+03	4.087414E-16	1.021198E-17
7.080000E+03	4.138607E-16	1.035254E-17
7.090000E+03	4.190685E-16	1.049578E-17
7.100000E+03	4.243262E-16	1.064074E-17
7.110000E+03	4.295884E-16	1.078630E-17
7.120000E+03	4.348201E-16	1.093158E-17
7.130000E+03	4.399802E-16	1.107556E-17
7.140000E+03	4.450264E-16	1.121717E-17
7.150000E+03	4.499101E-16	1.135518E-17
7.160000E+03	4.545951E-16	1.148867E-17
7.170000E+03	4.590392E-16	1.161656E-17
7.180000E+03	4.631946E-16	1.173761E-17
7.190000E+03	4.670340E-16	1.185113E-17
7.200000E+03	4.705052E-16	1.195575E-17
7.210000E+03	4.735784E-16	1.205068E-17
7.220000E+03	4.762118E-16	1.213484E-17
7.230000E+03	4.783811E-16	1.220754E-17
7.240000E+03	4.800649E-16	1.226821E-17
7.250000E+03	4.812253E-16	1.231583E-17
7.260000E+03	4.818421E-16	1.234982E-17
7.270000E+03	4.819142E-16	1.237010E-17
7.280000E+03	4.814176E-16	1.237599E-17
7.290000E+03	4.803545E-16	1.236749E-17
7.300000E+03	4.787259E-16	1.234456E-17
7.310000E+03	4.765384E-16	1.230731E-17
7.320000E+03	4.738046E-16	1.225599E-17
7.330000E+03	4.705358E-16	1.219082E-17
7.340000E+03	4.667629E-16	1.211255E-17
7.350000E+03	4.625150E-16	1.202187E-17
7.360000E+03	4.578262E-16	1.191959E-17
7.370000E+03	4.527353E-16	1.180668E-17
7.380000E+03	4.472781E-16	1.168401E-17
7.390000E+03	4.415138E-16	1.155307E-17
7.400000E+03	4.354777E-16	1.141474E-17
7.410000E+03	4.292268E-16	1.127048E-17
7.420000E+03	4.228124E-16	1.112161E-17
7.430000E+03	4.162865E-16	1.096945E-17
7.440000E+03	4.097005E-16	1.081534E-17
7.450000E+03	4.030986E-16	1.066044E-17
7.460000E+03	3.965413E-16	1.050634E-17
7.470000E+03	3.900629E-16	1.035394E-17
7.480000E+03	3.837123E-16	1.020455E-17
7.490000E+03	3.775290E-16	1.005923E-17
7.500000E+03	3.715485E-16	9.918947E-18
7.510000E+03	3.658023E-16	9.784563E-18
7.520000E+03	3.603119E-16	9.656684E-18
7.530000E+03	3.551108E-16	9.536232E-18
7.540000E+03	3.502064E-16	9.423440E-18
7.550000E+03	3.456186E-16	9.318877E-18
7.560000E+03	3.413583E-16	9.222879E-18
7.570000E+03	3.374342E-16	9.135724E-18
7.580000E+03	3.338541E-16	9.057663E-18
7.590000E+03	3.306250E-16	8.988942E-18
7.600000E+03	3.277545E-16	8.929812E-18
7.610000E+03	3.252428E-16	8.880335E-18
7.620000E+03	3.230932E-16	8.840653E-18
7.630000E+03	3.212688E-16	8.809813E-18
7.640000E+03	3.197407E-16	8.787073E-18
7.650000E+03	3.184598E-16	8.771124E-18
7.660000E+03	3.173939E-16	8.761119E-18
7.670000E+03	3.165092E-16	8.756156E-18
7.680000E+03	3.157741E-16	8.755385E-18
7.690000E+03	3.151580E-16	8.757984E-18
7.700000E+03	3.146270E-16	8.763021E-18
7.710000E+03	3.141619E-16	8.769974E-18
7.720000E+03	3.137248E-16	8.777793E-18
7.730000E+03	3.132979E-16	8.785976E-18
7.740000E+03	3.128445E-16	8.793491E-18
7.750000E+03	3.123435E-16	8.799737E-18
7.760000E+03	3.117750E-16	8.804132E-18
