#wls	flux	fluxerr
1.600000E+03	7.212165E-17	4.513732E-18
1.640000E+03	7.131395E-17	4.460038E-18
1.680000E+03	7.044420E-17	4.402454E-18
1.720000E+03	6.952176E-17	4.341573E-18
1.760000E+03	6.854378E-17	4.277226E-18
1.800000E+03	6.752477E-17	4.210328E-18
1.840000E+03	6.646309E-17	4.140784E-18
1.880000E+03	6.537353E-17	4.069523E-18
1.920000E+03	6.425899E-17	3.996733E-18
1.960000E+03	6.312280E-17	3.922628E-18
2.000000E+03	6.197933E-17	3.848106E-18
2.040000E+03	6.082809E-17	3.773141E-18
2.080000E+03	5.968266E-17	3.698578E-18
2.120000E+03	5.854570E-17	3.624586E-18
2.160000E+03	5.741982E-17	3.551326E-18
2.200000E+03	5.631388E-17	3.479348E-18
2.240000E+03	5.523291E-17	3.408963E-18
2.280000E+03	5.418157E-17	3.340455E-18
2.320000E+03	5.316416E-17	3.274087E-18
2.360000E+03	5.218466E-17	3.210101E-18
2.400000E+03	5.124406E-17	3.148553E-18
2.440000E+03	5.035147E-17	3.089996E-18
2.480000E+03	4.950494E-17	3.034304E-18
2.520000E+03	4.870811E-17	2.981691E-18
2.560000E+03	4.796962E-17	2.932679E-18
2.600000E+03	4.728816E-17	2.887173E-18
2.640000E+03	4.666778E-17	2.845412E-18
2.680000E+03	4.611752E-17	2.807932E-18
2.720000E+03	4.563505E-17	2.774574E-18
2.760000E+03	4.523242E-17	2.746054E-18
2.800000E+03	4.490853E-17	2.722285E-18
2.840000E+03	4.467630E-17	2.704029E-18
2.880000E+03	4.453602E-17	2.691275E-18
2.920000E+03	4.449963E-17	2.684719E-18
2.960000E+03	4.457544E-17	2.684829E-18
3.000000E+03	4.477047E-17	2.691991E-18
3.010000E+03	4.483741E-17	2.694853E-18
3.020000E+03	4.491473E-17	2.698327E-18
3.030000E+03	4.500045E-17	2.702296E-18
3.040000E+03	4.509476E-17	2.706769E-18
3.050000E+03	4.519571E-17	2.711629E-18
3.060000E+03	4.530772E-17	2.717141E-18
3.070000E+03	4.542887E-17	2.723188E-18
3.080000E+03	4.555934E-17	2.729780E-18
3.090000E+03	4.569932E-17	2.736928E-18
3.100000E+03	4.584903E-17	2.744644E-18
3.110000E+03	4.600652E-17	2.752810E-18
3.120000E+03	4.617628E-17	2.761695E-18
3.130000E+03	4.635638E-17	2.771182E-18
3.140000E+03	4.654705E-17	2.781283E-18
3.150000E+03	4.674851E-17	2.792011E-18
3.160000E+03	4.696098E-17	2.803378E-18
3.170000E+03	4.718472E-17	2.815399E-18
3.180000E+03	4.741994E-17	2.828084E-18
3.190000E+03	4.766692E-17	2.841449E-18
3.200000E+03	4.792588E-17	2.855508E-18
3.210000E+03	4.819711E-17	2.870274E-18
3.220000E+03	4.848085E-17	2.885762E-18
3.230000E+03	4.877737E-17	2.901986E-18
3.240000E+03	4.908473E-17	2.918831E-18
3.250000E+03	4.940765E-17	2.936575E-18
3.260000E+03	4.974423E-17	2.955103E-18
3.270000E+03	5.009474E-17	2.974430E-18
3.280000E+03	5.045950E-17	2.994575E-18
3.290000E+03	5.083881E-17	3.015552E-18
3.300000E+03	5.123301E-17	3.037382E-18
3.310000E+03	5.164242E-17	3.060081E-18
3.320000E+03	5.206738E-17	3.083668E-18
3.330000E+03	5.250822E-17	3.108160E-18
3.340000E+03	5.296531E-17	3.133579E-18
3.350000E+03	5.343902E-17	3.159943E-18
3.360000E+03	5.392970E-17	3.187273E-18
3.370000E+03	5.443775E-17	3.215589E-18
3.380000E+03	5.496356E-17	3.244914E-18
3.390000E+03	5.550753E-17	3.275268E-18
3.400000E+03	5.606759E-17	3.306527E-18
3.410000E+03	5.664911E-17	3.339006E-18
3.420000E+03	5.725005E-17	3.372583E-18
3.430000E+03	5.787087E-17	3.407283E-18
3.440000E+03	5.851202E-17	3.443129E-18
3.450000E+03	5.917397E-17	3.480148E-18
3.460000E+03	5.985720E-17	3.518364E-18
3.470000E+03	6.055957E-17	3.557651E-18
3.480000E+03	6.128684E-17	3.598343E-18
3.490000E+03	6.203691E-17	3.640314E-18
3.500000E+03	6.281032E-17	3.683594E-18
3.510000E+03	6.360485E-17	3.728051E-18
3.520000E+03	6.442656E-17	3.774035E-18
3.530000E+03	6.527329E-17	3.821418E-18
3.540000E+03	6.614563E-17	3.870231E-18
3.550000E+03	6.704130E-17	3.920338E-18
3.560000E+03	6.796666E-17	3.972108E-18
3.570000E+03	6.891948E-17	4.025406E-18
3.580000E+03	6.989744E-17	4.080095E-18
3.590000E+03	7.090713E-17	4.136555E-18
3.600000E+03	7.194321E-17	4.194471E-18
3.610000E+03	7.301248E-17	4.254237E-18
3.620000E+03	7.410945E-17	4.315529E-18
3.630000E+03	7.524113E-17	4.378749E-18
3.640000E+03	7.640187E-17	4.443568E-18
3.650000E+03	7.759889E-17	4.510399E-18
3.660000E+03	7.882639E-17	4.578902E-18
3.670000E+03	8.009178E-17	4.649502E-18
3.680000E+03	8.138911E-17	4.721851E-18
3.690000E+03	8.272251E-17	4.796182E-18
3.700000E+03	8.409275E-17	4.872537E-18
3.710000E+03	8.550424E-17	4.951166E-18
3.720000E+03	8.695064E-17	5.031697E-18
3.730000E+03	8.843630E-17	5.114377E-18
3.740000E+03	8.996201E-17	5.199245E-18
3.750000E+03	9.152856E-17	5.286343E-18
3.760000E+03	9.313674E-17	5.375712E-18
3.770000E+03	9.478732E-17	5.467388E-18
3.780000E+03	9.648105E-17	5.561412E-18
3.790000E+03	9.821866E-17	5.657818E-18
3.800000E+03	1.000009E-16	5.756643E-18
3.810000E+03	1.018284E-16	5.857918E-18
3.820000E+03	1.037018E-16	5.961676E-18
3.830000E+03	1.056217E-16	6.067942E-18
3.840000E+03	1.075886E-16	6.176744E-18
3.850000E+03	1.095986E-16	6.287842E-18
3.860000E+03	1.116610E-16	6.401768E-18
3.870000E+03	1.137717E-16	6.518282E-18
3.880000E+03	1.159261E-16	6.637114E-18
3.890000E+03	1.181339E-16	6.758811E-18
3.900000E+03	1.203856E-16	6.882819E-18
3.910000E+03	1.226907E-16	7.009681E-18
3.920000E+03	1.250393E-16	7.138819E-18
3.930000E+03	1.274357E-16	7.270479E-18
3.940000E+03	1.298848E-16	7.404923E-18
3.950000E+03	1.323755E-16	7.541517E-18
3.960000E+03	1.349119E-16	7.680492E-18
3.970000E+03	1.374932E-16	7.821789E-18
3.980000E+03	1.401177E-16	7.965310E-18
3.990000E+03	1.427842E-16	8.110975E-18
4.000000E+03	1.454909E-16	8.258676E-18
4.010000E+03	1.482358E-16	8.408301E-18
4.020000E+03	1.510169E-16	8.559722E-18
4.030000E+03	1.538326E-16	8.712842E-18
4.040000E+03	1.566748E-16	8.867205E-18
4.050000E+03	1.595549E-16	9.023447E-18
4.060000E+03	1.624663E-16	9.181188E-18
4.070000E+03	1.654031E-16	9.340090E-18
4.080000E+03	1.683794E-16	9.500940E-18
4.090000E+03	1.713833E-16	9.663072E-18
4.100000E+03	1.744236E-16	9.826966E-18
4.110000E+03	1.775093E-16	9.993123E-18
4.120000E+03	1.806290E-16	1.016091E-17
4.130000E+03	1.837928E-16	1.033087E-17
4.140000E+03	1.870047E-16	1.050322E-17
4.150000E+03	1.902693E-16	1.067823E-17
4.160000E+03	1.935924E-16	1.085620E-17
4.170000E+03	1.969798E-16	1.103745E-17
4.180000E+03	2.004374E-16	1.122231E-17
4.190000E+03	2.039699E-16	1.141102E-17
4.200000E+03	2.075729E-16	1.160332E-17
4.210000E+03	2.112642E-16	1.180021E-17
4.220000E+03	2.150273E-16	1.200074E-17
4.230000E+03	2.188766E-16	1.220571E-17
4.240000E+03	2.227904E-16	1.241390E-17
4.250000E+03	2.267784E-16	1.262583E-17
4.260000E+03	2.308136E-16	1.284000E-17
4.270000E+03	2.348919E-16	1.305616E-17
4.280000E+03	2.389975E-16	1.327344E-17
4.290000E+03	2.431121E-16	1.349080E-17
4.300000E+03	2.472136E-16	1.370703E-17
4.310000E+03	2.512767E-16	1.392072E-17
4.320000E+03	2.552628E-16	1.412974E-17
4.330000E+03	2.591585E-16	1.433336E-17
4.340000E+03	2.629184E-16	1.452908E-17
4.350000E+03	2.664935E-16	1.471421E-17
4.360000E+03	2.698642E-16	1.488770E-17
4.370000E+03	2.729715E-16	1.504632E-17
4.380000E+03	2.757914E-16	1.518879E-17
4.390000E+03	2.782988E-16	1.531376E-17
4.400000E+03	2.804795E-16	1.542050E-17
4.410000E+03	2.823328E-16	1.550902E-17
4.420000E+03	2.838708E-16	1.558002E-17
4.430000E+03	2.851153E-16	1.563475E-17
4.440000E+03	2.860948E-16	1.567481E-17
4.450000E+03	2.868304E-16	1.570140E-17
4.460000E+03	2.873761E-16	1.571749E-17
4.470000E+03	2.877415E-16	1.572365E-17
4.480000E+03	2.879771E-16	1.572266E-17
4.490000E+03	2.880868E-16	1.571475E-17
4.500000E+03	2.881022E-16	1.570166E-17
4.510000E+03	2.880396E-16	1.568429E-17
4.520000E+03	2.879100E-16	1.566326E-17
4.530000E+03	2.877195E-16	1.563890E-17
4.540000E+03	2.874592E-16	1.561074E-17
4.550000E+03	2.871490E-16	1.557987E-17
4.560000E+03	2.867738E-16	1.554548E-17
4.570000E+03	2.863173E-16	1.550670E-17
4.580000E+03	2.857838E-16	1.546378E-17
4.590000E+03	2.851779E-16	1.541697E-17
4.600000E+03	2.844731E-16	1.536486E-17
4.610000E+03	2.836766E-16	1.530784E-17
4.620000E+03	2.827872E-16	1.524587E-17
4.630000E+03	2.818060E-16	1.517903E-17
4.640000E+03	2.807269E-16	1.510700E-17
4.650000E+03	2.795773E-16	1.503126E-17
4.660000E+03	2.783455E-16	1.495120E-17
4.670000E+03	2.770640E-16	1.486858E-17
4.680000E+03	2.757248E-16	1.478298E-17
4.690000E+03	2.743528E-16	1.469574E-17
4.700000E+03	2.729628E-16	1.460765E-17
4.710000E+03	2.715705E-16	1.451957E-17
4.720000E+03	2.701920E-16	1.443236E-17
4.730000E+03	2.688440E-16	1.434689E-17
4.740000E+03	2.675343E-16	1.426359E-17
4.750000E+03	2.663014E-16	1.418450E-17
4.760000E+03	2.651459E-16	1.410965E-17
4.770000E+03	2.640996E-16	1.404070E-17
4.780000E+03	2.631946E-16	1.397936E-17
4.790000E+03	2.624344E-16	1.392578E-17
4.800000E+03	2.618512E-16	1.388166E-17
4.810000E+03	2.614566E-16	1.384758E-17
4.820000E+03	2.612875E-16	1.382547E-17
4.830000E+03	2.613498E-16	1.381561E-17
4.840000E+03	2.616449E-16	1.381803E-17
4.850000E+03	2.621895E-16	1.383358E-17
4.860000E+03	2.629961E-16	1.386288E-17
4.870000E+03	2.640461E-16	1.390493E-17
4.880000E+03	2.653474E-16	1.396009E-17
4.890000E+03	2.668870E-16	1.402764E-17
4.900000E+03	2.686788E-16	1.410829E-17
4.910000E+03	2.707075E-16	1.420118E-17
4.920000E+03	2.729559E-16	1.430540E-17
4.930000E+03	2.754260E-16	1.442100E-17
4.940000E+03	2.781192E-16	1.454803E-17
4.950000E+03	2.810068E-16	1.468496E-17
4.960000E+03	2.840791E-16	1.483124E-17
4.970000E+03	2.873471E-16	1.498744E-17
4.980000E+03	2.907918E-16	1.515253E-17
4.990000E+03	2.944053E-16	1.532608E-17
5.000000E+03	2.981714E-16	1.550722E-17
5.010000E+03	3.020965E-16	1.569626E-17
5.020000E+03	3.061797E-16	1.589313E-17
5.030000E+03	3.104226E-16	1.609790E-17
5.040000E+03	3.148303E-16	1.631080E-17
5.050000E+03	3.194109E-16	1.653224E-17
5.060000E+03	3.241760E-16	1.676279E-17
5.070000E+03	3.291285E-16	1.700258E-17
5.080000E+03	3.342960E-16	1.725300E-17
5.090000E+03	3.397069E-16	1.751549E-17
5.100000E+03	3.453518E-16	1.778954E-17
5.110000E+03	3.512520E-16	1.807620E-17
5.120000E+03	3.573964E-16	1.837489E-17
5.130000E+03	3.638025E-16	1.868645E-17
5.140000E+03	3.704275E-16	1.900866E-17
5.150000E+03	3.772693E-16	1.934139E-17
5.160000E+03	3.842635E-16	1.968131E-17
5.170000E+03	3.913751E-16	2.002661E-17
5.180000E+03	3.985466E-16	2.037434E-17
5.190000E+03	4.057127E-16	2.072117E-17
5.200000E+03	4.128029E-16	2.106349E-17
5.210000E+03	4.197296E-16	2.139687E-17
5.220000E+03	4.264349E-16	2.171838E-17
5.230000E+03	4.328676E-16	2.202546E-17
5.240000E+03	4.389405E-16	2.231371E-17
5.250000E+03	4.446215E-16	2.258156E-17
5.260000E+03	4.498584E-16	2.282643E-17
5.270000E+03	4.546554E-16	2.304860E-17
5.280000E+03	4.589790E-16	2.324644E-17
5.290000E+03	4.628014E-16	2.341861E-17
5.300000E+03	4.661324E-16	2.356568E-17
5.310000E+03	4.689702E-16	2.368763E-17
5.320000E+03	4.713154E-16	2.378457E-17
5.330000E+03	4.731713E-16	2.385675E-17
5.340000E+03	4.745254E-16	2.390359E-17
5.350000E+03	4.754146E-16	2.392702E-17
5.360000E+03	4.758096E-16	2.392565E-17
5.370000E+03	4.757293E-16	2.390048E-17
5.380000E+03	4.751746E-16	2.385164E-17
5.390000E+03	4.741450E-16	2.377916E-17
5.400000E+03	4.726390E-16	2.368304E-17
5.410000E+03	4.706380E-16	2.356239E-17
5.420000E+03	4.681714E-16	2.341877E-17
5.430000E+03	4.652047E-16	2.325051E-17
5.440000E+03	4.617522E-16	2.305838E-17
5.450000E+03	4.578133E-16	2.284242E-17
5.460000E+03	4.533880E-16	2.260269E-17
5.470000E+03	4.484616E-16	2.233852E-17
5.480000E+03	4.430674E-16	2.205163E-17
5.490000E+03	4.371802E-16	2.174081E-17
5.500000E+03	4.308296E-16	2.140759E-17
5.510000E+03	4.240457E-16	2.105353E-17
5.520000E+03	4.168662E-16	2.068053E-17
5.530000E+03	4.093329E-16	2.029070E-17
5.540000E+03	4.014770E-16	1.988563E-17
5.550000E+03	3.933727E-16	1.946902E-17
5.560000E+03	3.850423E-16	1.904199E-17
5.570000E+03	3.765511E-16	1.860779E-17
5.580000E+03	3.679553E-16	1.816920E-17
5.590000E+03	3.593056E-16	1.772873E-17
5.600000E+03	3.506973E-16	1.729108E-17
5.610000E+03	3.421833E-16	1.685883E-17
5.620000E+03	3.338675E-16	1.643707E-17
5.630000E+03	3.258084E-16	1.602868E-17
5.640000E+03	3.180968E-16	1.563806E-17
5.650000E+03	3.107961E-16	1.526828E-17
5.660000E+03	3.039932E-16	1.492358E-17
5.670000E+03	2.977235E-16	1.460561E-17
5.680000E+03	2.920530E-16	1.431757E-17
5.690000E+03	2.869957E-16	1.406005E-17
5.700000E+03	2.825847E-16	1.383463E-17
5.710000E+03	2.788333E-16	1.364188E-17
5.720000E+03	2.757364E-16	1.348148E-17
5.730000E+03	2.733081E-16	1.335407E-17
5.740000E+03	2.715182E-16	1.325809E-17
5.750000E+03	2.703561E-16	1.319296E-17
5.760000E+03	2.697944E-16	1.315731E-17
5.770000E+03	2.697989E-16	1.314939E-17
5.780000E+03	2.703175E-16	1.316663E-17
5.790000E+03	2.713176E-16	1.320739E-17
5.800000E+03	2.727215E-16	1.326784E-17
5.810000E+03	2.744694E-16	1.334507E-17
5.820000E+03	2.764834E-16	1.343525E-17
5.830000E+03	2.786751E-16	1.353406E-17
5.840000E+03	2.809467E-16	1.363676E-17
5.850000E+03	2.831811E-16	1.373765E-17
5.860000E+03	2.852723E-16	1.383161E-17
5.870000E+03	2.870992E-16	1.391279E-17
5.880000E+03	2.885399E-16	1.397529E-17
5.890000E+03	2.894767E-16	1.401347E-17
5.900000E+03	2.898047E-16	1.402227E-17
5.910000E+03	2.894315E-16	1.399728E-17
5.920000E+03	2.883266E-16	1.393709E-17
5.930000E+03	2.864617E-16	1.384036E-17
5.940000E+03	2.838776E-16	1.370912E-17
5.950000E+03	2.806332E-16	1.354627E-17
5.960000E+03	2.768466E-16	1.335753E-17
5.970000E+03	2.726212E-16	1.314793E-17
5.980000E+03	2.681107E-16	1.292490E-17
5.990000E+03	2.634389E-16	1.269442E-17
6.000000E+03	2.587568E-16	1.246376E-17
6.010000E+03	2.542026E-16	1.223957E-17
6.020000E+03	2.498990E-16	1.202775E-17
6.030000E+03	2.459858E-16	1.183499E-17
6.040000E+03	2.425609E-16	1.166600E-17
6.050000E+03	2.397387E-16	1.152623E-17
6.060000E+03	2.376185E-16	1.142041E-17
6.070000E+03	2.362932E-16	1.135299E-17
6.080000E+03	2.358440E-16	1.132783E-17
6.090000E+03	2.363737E-16	1.134981E-17
6.100000E+03	2.379543E-16	1.142235E-17
6.110000E+03	2.406844E-16	1.155015E-17
6.120000E+03	2.446613E-16	1.173783E-17
6.130000E+03	2.499923E-16	1.199051E-17
6.140000E+03	2.567892E-16	1.231349E-17
6.150000E+03	2.652047E-16	1.271406E-17
6.160000E+03	2.753750E-16	1.319872E-17
6.170000E+03	2.874805E-16	1.377607E-17
6.180000E+03	3.017121E-16	1.445523E-17
6.190000E+03	3.182673E-16	1.524561E-17
6.200000E+03	3.373880E-16	1.615879E-17
6.210000E+03	3.592826E-16	1.720471E-17
6.220000E+03	3.842028E-16	1.839541E-17
6.230000E+03	4.123344E-16	1.973976E-17
6.240000E+03	4.438346E-16	2.124529E-17
6.250000E+03	4.787113E-16	2.291237E-17
6.260000E+03	5.166110E-16	2.472408E-17
6.270000E+03	5.569239E-16	2.665128E-17
6.280000E+03	5.988167E-16	2.865414E-17
6.290000E+03	6.411909E-16	3.068015E-17
6.300000E+03	6.827343E-16	3.266658E-17
6.310000E+03	7.219930E-16	3.454396E-17
6.320000E+03	7.574509E-16	3.623982E-17
6.330000E+03	7.877486E-16	3.768919E-17
6.340000E+03	8.116398E-16	3.883247E-17
6.350000E+03	8.282815E-16	3.962939E-17
6.360000E+03	8.371983E-16	4.005719E-17
6.370000E+03	8.382969E-16	4.011137E-17
6.380000E+03	8.319539E-16	3.980993E-17
6.390000E+03	8.187574E-16	3.918092E-17
6.400000E+03	7.996081E-16	3.826737E-17
6.410000E+03	7.755185E-16	3.711763E-17
6.420000E+03	7.475558E-16	3.578270E-17
6.430000E+03	7.167708E-16	3.431277E-17
6.440000E+03	6.841216E-16	3.275361E-17
6.450000E+03	6.505255E-16	3.114908E-17
6.460000E+03	6.166786E-16	2.953243E-17
6.470000E+03	5.832017E-16	2.793334E-17
6.480000E+03	5.505409E-16	2.637314E-17
6.490000E+03	5.190737E-16	2.486988E-17
6.500000E+03	4.890153E-16	2.343385E-17
6.510000E+03	4.604966E-16	2.207133E-17
6.520000E+03	4.336109E-16	2.078677E-17
6.530000E+03	4.083798E-16	1.958124E-17
6.540000E+03	3.847840E-16	1.845380E-17
6.550000E+03	3.627620E-16	1.740154E-17
6.560000E+03	3.422669E-16	1.642221E-17
6.570000E+03	3.231902E-16	1.551064E-17
6.580000E+03	3.054508E-16	1.466295E-17
6.590000E+03	2.889532E-16	1.387458E-17
6.600000E+03	2.736043E-16	1.314110E-17
6.610000E+03	2.593179E-16	1.245836E-17
6.620000E+03	2.460074E-16	1.182225E-17
6.630000E+03	2.336204E-16	1.123026E-17
6.640000E+03	2.220797E-16	1.067870E-17
6.650000E+03	2.113389E-16	1.016538E-17
6.660000E+03	2.013493E-16	9.687950E-18
6.670000E+03	1.920596E-16	9.243978E-18
6.680000E+03	1.834407E-16	8.832080E-18
6.690000E+03	1.754412E-16	8.449807E-18
6.700000E+03	1.680308E-16	8.095718E-18
6.710000E+03	1.611760E-16	7.768216E-18
6.720000E+03	1.548457E-16	7.465824E-18
6.730000E+03	1.490115E-16	7.187196E-18
6.740000E+03	1.436429E-16	6.930874E-18
6.750000E+03	1.387261E-16	6.696212E-18
6.760000E+03	1.342305E-16	6.481758E-18
6.770000E+03	1.301423E-16	6.286857E-18
6.780000E+03	1.264447E-16	6.110720E-18
6.790000E+03	1.231234E-16	5.952667E-18
6.800000E+03	1.201618E-16	5.811928E-18
6.810000E+03	1.175573E-16	5.688381E-18
6.820000E+03	1.152928E-16	5.581228E-18
6.830000E+03	1.133640E-16	5.490275E-18
6.840000E+03	1.117640E-16	5.415207E-18
6.850000E+03	1.104870E-16	5.355766E-18
6.860000E+03	1.095251E-16	5.311580E-18
6.870000E+03	1.088821E-16	5.282861E-18
6.880000E+03	1.085487E-16	5.269176E-18
6.890000E+03	1.085275E-16	5.270675E-18
6.900000E+03	1.088184E-16	5.287370E-18
6.910000E+03	1.094220E-16	5.319316E-18
6.920000E+03	1.103362E-16	5.366428E-18
6.930000E+03	1.115699E-16	5.429171E-18
6.940000E+03	1.131185E-16	5.507335E-18
6.950000E+03	1.149882E-16	5.601255E-18
6.960000E+03	1.171857E-16	5.711282E-18
6.970000E+03	1.197025E-16	5.837025E-18
6.980000E+03	1.225524E-16	5.979188E-18
6.990000E+03	1.257332E-16	6.137689E-18
7.000000E+03	1.292416E-16	6.312398E-18
7.010000E+03	1.330809E-16	6.503504E-18
7.020000E+03	1.372538E-16	6.711168E-18
7.030000E+03	1.417473E-16	6.934788E-18
7.040000E+03	1.465545E-16	7.174060E-18
7.050000E+03	1.516762E-16	7.429042E-18
7.060000E+03	1.570906E-16	7.698706E-18
7.070000E+03	1.627934E-16	7.982864E-18
7.080000E+03	1.687566E-16	8.280180E-18
7.090000E+03	1.749662E-16	8.589990E-18
7.100000E+03	1.814011E-16	8.911281E-18
7.110000E+03	1.880386E-16	9.242970E-18
7.120000E+03	1.948484E-16	9.583587E-18
7.130000E+03	2.018175E-16	9.932515E-18
7.140000E+03	2.089054E-16	1.028778E-17
7.150000E+03	2.160876E-16	1.064819E-17
7.160000E+03	2.233293E-16	1.101204E-17
7.170000E+03	2.305904E-16	1.137738E-17
7.180000E+03	2.378242E-16	1.174189E-17
7.190000E+03	2.449762E-16	1.210290E-17
7.200000E+03	2.519754E-16	1.245689E-17
7.210000E+03	2.587593E-16	1.280076E-17
7.220000E+03	2.652493E-16	1.313060E-17
7.230000E+03	2.713612E-16	1.344222E-17
7.240000E+03	2.770078E-16	1.373127E-17
7.250000E+03	2.821016E-16	1.399336E-17
7.260000E+03	2.865578E-16	1.422424E-17
7.270000E+03	2.902891E-16	1.441950E-17
7.280000E+03	2.932369E-16	1.457616E-17
7.290000E+03	2.953542E-16	1.469180E-17
7.300000E+03	2.965773E-16	1.476316E-17
7.310000E+03	2.968736E-16	1.478854E-17
7.320000E+03	2.962414E-16	1.476774E-17
7.330000E+03	2.946591E-16	1.469959E-17
7.340000E+03	2.921142E-16	1.458335E-17
7.350000E+03	2.886336E-16	1.442027E-17
7.360000E+03	2.842191E-16	1.421033E-17
7.370000E+03	2.789174E-16	1.395575E-17
7.380000E+03	2.727847E-16	1.365925E-17
7.390000E+03	2.658901E-16	1.332418E-17
7.400000E+03	2.583517E-16	1.295638E-17
7.410000E+03	2.502795E-16	1.256129E-17
7.420000E+03	2.417989E-16	1.214513E-17
7.430000E+03	2.330601E-16	1.171540E-17
7.440000E+03	2.242065E-16	1.127928E-17
7.450000E+03	2.153755E-16	1.084366E-17
7.460000E+03	2.066930E-16	1.041488E-17
7.470000E+03	1.982688E-16	9.998487E-18
7.480000E+03	1.901863E-16	9.598712E-18
7.490000E+03	1.825272E-16	9.219717E-18
7.500000E+03	1.753271E-16	8.863346E-18
7.510000E+03	1.686217E-16	8.531455E-18
7.520000E+03	1.624234E-16	8.224727E-18
7.530000E+03	1.567315E-16	7.943178E-18
7.540000E+03	1.515346E-16	7.686300E-18
7.550000E+03	1.468134E-16	7.453161E-18
7.560000E+03	1.425375E-16	7.242283E-18
7.570000E+03	1.386864E-16	7.052667E-18
7.580000E+03	1.352167E-16	6.882167E-18
7.590000E+03	1.320969E-16	6.729213E-18
7.600000E+03	1.292899E-16	6.591967E-18
7.610000E+03	1.267593E-16	6.468607E-18
7.620000E+03	1.244728E-16	6.357519E-18
7.630000E+03	1.224090E-16	6.257634E-18
7.640000E+03	1.205636E-16	6.168764E-18
7.650000E+03	1.189164E-16	6.089900E-18
7.660000E+03	1.174630E-16	6.020847E-18
7.670000E+03	1.161823E-16	5.960544E-18
7.680000E+03	1.150642E-16	5.908493E-18
7.690000E+03	1.140933E-16	5.863927E-18
7.700000E+03	1.132495E-16	5.825831E-18
7.710000E+03	1.125235E-16	5.793741E-18
7.720000E+03	1.118937E-16	5.766560E-18
7.730000E+03	1.113383E-16	5.743179E-18
7.740000E+03	1.108430E-16	5.722865E-18
7.750000E+03	1.103934E-16	5.704881E-18
7.760000E+03	1.099643E-16	5.687935E-18
