#wls	flux	fluxerr
1.600000E+03	2.491320E-17	1.719297E-18
1.640000E+03	2.462436E-17	1.698469E-18
1.680000E+03	2.432534E-17	1.676937E-18
1.720000E+03	2.401725E-17	1.654780E-18
1.760000E+03	2.370318E-17	1.632210E-18
1.800000E+03	2.338051E-17	1.609049E-18
1.840000E+03	2.305245E-17	1.585519E-18
1.880000E+03	2.272032E-17	1.561712E-18
1.920000E+03	2.238541E-17	1.537718E-18
1.960000E+03	2.204909E-17	1.513632E-18
2.000000E+03	2.171270E-17	1.489546E-18
2.040000E+03	2.137920E-17	1.465665E-18
2.080000E+03	2.104656E-17	1.441848E-18
2.120000E+03	2.071773E-17	1.418299E-18
2.160000E+03	2.039398E-17	1.395105E-18
2.200000E+03	2.007652E-17	1.372349E-18
2.240000E+03	1.976652E-17	1.350109E-18
2.280000E+03	1.946512E-17	1.328463E-18
2.320000E+03	1.917343E-17	1.307488E-18
2.360000E+03	1.889251E-17	1.287252E-18
2.400000E+03	1.862340E-17	1.267827E-18
2.440000E+03	1.836711E-17	1.249280E-18
2.480000E+03	1.812326E-17	1.231583E-18
2.520000E+03	1.789559E-17	1.214988E-18
2.560000E+03	1.768366E-17	1.199462E-18
2.600000E+03	1.748714E-17	1.184982E-18
2.640000E+03	1.730962E-17	1.171787E-18
2.680000E+03	1.714947E-17	1.159764E-18
2.720000E+03	1.701025E-17	1.149151E-18
2.760000E+03	1.689041E-17	1.139837E-18
2.800000E+03	1.679227E-17	1.131976E-18
2.840000E+03	1.671687E-17	1.125634E-18
2.880000E+03	1.666530E-17	1.120876E-18
2.920000E+03	1.663866E-17	1.117774E-18
2.960000E+03	1.663684E-17	1.116313E-18
3.000000E+03	1.666350E-17	1.116731E-18
3.010000E+03	1.667487E-17	1.117146E-18
3.020000E+03	1.668680E-17	1.117595E-18
3.030000E+03	1.670177E-17	1.118246E-18
3.040000E+03	1.671735E-17	1.118935E-18
3.050000E+03	1.673601E-17	1.119828E-18
3.060000E+03	1.675653E-17	1.120843E-18
3.070000E+03	1.677772E-17	1.121899E-18
3.080000E+03	1.680205E-17	1.123163E-18
3.090000E+03	1.682708E-17	1.124470E-18
3.100000E+03	1.685529E-17	1.125987E-18
3.110000E+03	1.688422E-17	1.127548E-18
3.120000E+03	1.691638E-17	1.129322E-18
3.130000E+03	1.694930E-17	1.131144E-18
3.140000E+03	1.698548E-17	1.133180E-18
3.150000E+03	1.702246E-17	1.135265E-18
3.160000E+03	1.706275E-17	1.137568E-18
3.170000E+03	1.710387E-17	1.139921E-18
3.180000E+03	1.714833E-17	1.142494E-18
3.190000E+03	1.719367E-17	1.145121E-18
3.200000E+03	1.724238E-17	1.147969E-18
3.210000E+03	1.729199E-17	1.150872E-18
3.220000E+03	1.734502E-17	1.153999E-18
3.230000E+03	1.739899E-17	1.157183E-18
3.240000E+03	1.745516E-17	1.160509E-18
3.250000E+03	1.751480E-17	1.164062E-18
3.260000E+03	1.757542E-17	1.167674E-18
3.270000E+03	1.763956E-17	1.171515E-18
3.280000E+03	1.770470E-17	1.175417E-18
3.290000E+03	1.777210E-17	1.179464E-18
3.300000E+03	1.784311E-17	1.183745E-18
3.310000E+03	1.791512E-17	1.188087E-18
3.320000E+03	1.798946E-17	1.192578E-18
3.330000E+03	1.806743E-17	1.197303E-18
3.340000E+03	1.814645E-17	1.202092E-18
3.350000E+03	1.822782E-17	1.207031E-18
3.360000E+03	1.831288E-17	1.212207E-18
3.370000E+03	1.839899E-17	1.217447E-18
3.380000E+03	1.848749E-17	1.222838E-18
3.390000E+03	1.857838E-17	1.228381E-18
3.400000E+03	1.867299E-17	1.234163E-18
3.410000E+03	1.876868E-17	1.240009E-18
3.420000E+03	1.886677E-17	1.246006E-18
3.430000E+03	1.896725E-17	1.252154E-18
3.440000E+03	1.907015E-17	1.258453E-18
3.450000E+03	1.917682E-17	1.264994E-18
3.460000E+03	1.928453E-17	1.271596E-18
3.470000E+03	1.939463E-17	1.278347E-18
3.480000E+03	1.950713E-17	1.285248E-18
3.490000E+03	1.962199E-17	1.292296E-18
3.500000E+03	1.973923E-17	1.299493E-18
3.510000E+03	1.986024E-17	1.306928E-18
3.520000E+03	1.998219E-17	1.314417E-18
3.530000E+03	2.010645E-17	1.322049E-18
3.540000E+03	2.023304E-17	1.329824E-18
3.550000E+03	2.036190E-17	1.337739E-18
3.560000E+03	2.049301E-17	1.345793E-18
3.570000E+03	2.062635E-17	1.353983E-18
3.580000E+03	2.076190E-17	1.362309E-18
3.590000E+03	2.089959E-17	1.370765E-18
3.600000E+03	2.103943E-17	1.379351E-18
3.610000E+03	2.118135E-17	1.388063E-18
3.620000E+03	2.132531E-17	1.396899E-18
3.630000E+03	2.147125E-17	1.405854E-18
3.640000E+03	2.161916E-17	1.414926E-18
3.650000E+03	2.176895E-17	1.424110E-18
3.660000E+03	2.192056E-17	1.433403E-18
3.670000E+03	2.207395E-17	1.442800E-18
3.680000E+03	2.222905E-17	1.452297E-18
3.690000E+03	2.238421E-17	1.461787E-18
3.700000E+03	2.254249E-17	1.471469E-18
3.710000E+03	2.270227E-17	1.481237E-18
3.720000E+03	2.286346E-17	1.491084E-18
3.730000E+03	2.302598E-17	1.501006E-18
3.740000E+03	2.318973E-17	1.510995E-18
3.750000E+03	2.335301E-17	1.520942E-18
3.760000E+03	2.351898E-17	1.531051E-18
3.770000E+03	2.368591E-17	1.541210E-18
3.780000E+03	2.385373E-17	1.551413E-18
3.790000E+03	2.402064E-17	1.561545E-18
3.800000E+03	2.418989E-17	1.571816E-18
3.810000E+03	2.435973E-17	1.582112E-18
3.820000E+03	2.453006E-17	1.592426E-18
3.830000E+03	2.469904E-17	1.602639E-18
3.840000E+03	2.487003E-17	1.612970E-18
3.850000E+03	2.504121E-17	1.623299E-18
3.860000E+03	2.521074E-17	1.633508E-18
3.870000E+03	2.538201E-17	1.643816E-18
3.880000E+03	2.555324E-17	1.654107E-18
3.890000E+03	2.572252E-17	1.664259E-18
3.900000E+03	2.589337E-17	1.674498E-18
3.910000E+03	2.606212E-17	1.684589E-18
3.920000E+03	2.623236E-17	1.694761E-18
3.930000E+03	2.640039E-17	1.704777E-18
3.940000E+03	2.656985E-17	1.714872E-18
3.950000E+03	2.673705E-17	1.724806E-18
3.960000E+03	2.690569E-17	1.734820E-18
3.970000E+03	2.707206E-17	1.744674E-18
3.980000E+03	2.723993E-17	1.754610E-18
3.990000E+03	2.740561E-17	1.764391E-18
4.000000E+03	2.757295E-17	1.774266E-18
4.010000E+03	2.773822E-17	1.783992E-18
4.020000E+03	2.790347E-17	1.793704E-18
4.030000E+03	2.807074E-17	1.803531E-18
4.040000E+03	2.823633E-17	1.813237E-18
4.050000E+03	2.840434E-17	1.823083E-18
4.060000E+03	2.857103E-17	1.832831E-18
4.070000E+03	2.873860E-17	1.842621E-18
4.080000E+03	2.890731E-17	1.852469E-18
4.090000E+03	2.907943E-17	1.862522E-18
4.100000E+03	2.925127E-17	1.872541E-18
4.110000E+03	2.942512E-17	1.882674E-18
4.120000E+03	2.960135E-17	1.892945E-18
4.130000E+03	2.978234E-17	1.903505E-18
4.140000E+03	2.996440E-17	1.914118E-18
4.150000E+03	3.014995E-17	1.924937E-18
4.160000E+03	3.033938E-17	1.935989E-18
4.170000E+03	3.053312E-17	1.947299E-18
4.180000E+03	3.073159E-17	1.958895E-18
4.190000E+03	3.093735E-17	1.970938E-18
4.200000E+03	3.114659E-17	1.983185E-18
4.210000E+03	3.136189E-17	1.995800E-18
4.220000E+03	3.158369E-17	2.008810E-18
4.230000E+03	3.181241E-17	2.022242E-18
4.240000E+03	3.204853E-17	2.036124E-18
4.250000E+03	3.229249E-17	2.050484E-18
4.260000E+03	3.254470E-17	2.065348E-18
4.270000E+03	3.280563E-17	2.080744E-18
4.280000E+03	3.307569E-17	2.096697E-18
4.290000E+03	3.335531E-17	2.113233E-18
4.300000E+03	3.364489E-17	2.130378E-18
4.310000E+03	3.394253E-17	2.148008E-18
4.320000E+03	3.425324E-17	2.166441E-18
4.330000E+03	3.457511E-17	2.185553E-18
4.340000E+03	3.490851E-17	2.205368E-18
4.350000E+03	3.525381E-17	2.225907E-18
4.360000E+03	3.561135E-17	2.247191E-18
4.370000E+03	3.597904E-17	2.269086E-18
4.380000E+03	3.636208E-17	2.291918E-18
4.390000E+03	3.675835E-17	2.315553E-18
4.400000E+03	3.716818E-17	2.340010E-18
4.410000E+03	3.758929E-17	2.365144E-18
4.420000E+03	3.802707E-17	2.391292E-18
4.430000E+03	3.847924E-17	2.418309E-18
4.440000E+03	3.894341E-17	2.446045E-18
4.450000E+03	3.942513E-17	2.474844E-18
4.460000E+03	3.992198E-17	2.504554E-18
4.470000E+03	4.043146E-17	2.535017E-18
4.480000E+03	4.095925E-17	2.566586E-18
4.490000E+03	4.150003E-17	2.598927E-18
4.500000E+03	4.205962E-17	2.632401E-18
4.510000E+03	4.263253E-17	2.666665E-18
4.520000E+03	4.322473E-17	2.702089E-18
4.530000E+03	4.383059E-17	2.738319E-18
4.540000E+03	4.445623E-17	2.775737E-18
4.550000E+03	4.509589E-17	2.813980E-18
4.560000E+03	4.575588E-17	2.853440E-18
4.570000E+03	4.643031E-17	2.893747E-18
4.580000E+03	4.712249E-17	2.935107E-18
4.590000E+03	4.783599E-17	2.977739E-18
4.600000E+03	4.856474E-17	3.021264E-18
4.610000E+03	4.931230E-17	3.065901E-18
4.620000E+03	5.008248E-17	3.111885E-18
4.630000E+03	5.086910E-17	3.158828E-18
4.640000E+03	5.167599E-17	3.206968E-18
4.650000E+03	5.250379E-17	3.256341E-18
4.660000E+03	5.335677E-17	3.307210E-18
4.670000E+03	5.422854E-17	3.359176E-18
4.680000E+03	5.512345E-17	3.412507E-18
4.690000E+03	5.604244E-17	3.467257E-18
4.700000E+03	5.698648E-17	3.523484E-18
4.710000E+03	5.795661E-17	3.581250E-18
4.720000E+03	5.895400E-17	3.640624E-18
4.730000E+03	5.998390E-17	3.701926E-18
4.740000E+03	6.103961E-17	3.764740E-18
4.750000E+03	6.212646E-17	3.829391E-18
4.760000E+03	6.324591E-17	3.895967E-18
4.770000E+03	6.439946E-17	3.964556E-18
4.780000E+03	6.558868E-17	4.035250E-18
4.790000E+03	6.681072E-17	4.107870E-18
4.800000E+03	6.807612E-17	4.183061E-18
4.810000E+03	6.938219E-17	4.260651E-18
4.820000E+03	7.073065E-17	4.340744E-18
4.830000E+03	7.212328E-17	4.423441E-18
4.840000E+03	7.356182E-17	4.508847E-18
4.850000E+03	7.504806E-17	4.597065E-18
4.860000E+03	7.657866E-17	4.687885E-18
4.870000E+03	7.816546E-17	4.782028E-18
4.880000E+03	7.980519E-17	4.879287E-18
4.890000E+03	8.149952E-17	4.979757E-18
4.900000E+03	8.324453E-17	5.083195E-18
4.910000E+03	8.505277E-17	5.190360E-18
4.920000E+03	8.692031E-17	5.301007E-18
4.930000E+03	8.884266E-17	5.414854E-18
4.940000E+03	9.083283E-17	5.532688E-18
4.950000E+03	9.288007E-17	5.653849E-18
4.960000E+03	9.499768E-17	5.779138E-18
4.970000E+03	9.718060E-17	5.908242E-18
4.980000E+03	9.942299E-17	6.040798E-18
4.990000E+03	1.017386E-16	6.177633E-18
5.000000E+03	1.041144E-16	6.317955E-18
5.010000E+03	1.065573E-16	6.462171E-18
5.020000E+03	1.090745E-16	6.610713E-18
5.030000E+03	1.116515E-16	6.762691E-18
5.040000E+03	1.143023E-16	6.918952E-18
5.050000E+03	1.170111E-16	7.078533E-18
5.060000E+03	1.197841E-16	7.241804E-18
5.070000E+03	1.226281E-16	7.409159E-18
5.080000E+03	1.255248E-16	7.579502E-18
5.090000E+03	1.284801E-16	7.753171E-18
5.100000E+03	1.314912E-16	7.930003E-18
5.110000E+03	1.345635E-16	8.110314E-18
5.120000E+03	1.376762E-16	8.292838E-18
5.130000E+03	1.408335E-16	8.477835E-18
5.140000E+03	1.440307E-16	8.665019E-18
5.150000E+03	1.472628E-16	8.854077E-18
5.160000E+03	1.505239E-16	9.044668E-18
5.170000E+03	1.538180E-16	9.237014E-18
5.180000E+03	1.571182E-16	9.429507E-18
5.190000E+03	1.604271E-16	9.622306E-18
5.200000E+03	1.637372E-16	9.814958E-18
5.210000E+03	1.670402E-16	1.000697E-17
5.220000E+03	1.703275E-16	1.019783E-17
5.230000E+03	1.735786E-16	1.038632E-17
5.240000E+03	1.768070E-16	1.057324E-17
5.250000E+03	1.799918E-16	1.075736E-17
5.260000E+03	1.831230E-16	1.093808E-17
5.270000E+03	1.861908E-16	1.111483E-17
5.280000E+03	1.891849E-16	1.128700E-17
5.290000E+03	1.920950E-16	1.145398E-17
5.300000E+03	1.948982E-16	1.161443E-17
5.310000E+03	1.976098E-16	1.176927E-17
5.320000E+03	2.002068E-16	1.191714E-17
5.330000E+03	2.026796E-16	1.205747E-17
5.340000E+03	2.050049E-16	1.218892E-17
5.350000E+03	2.072003E-16	1.231253E-17
5.360000E+03	2.092298E-16	1.242619E-17
5.370000E+03	2.111122E-16	1.253102E-17
5.380000E+03	2.128259E-16	1.262577E-17
5.390000E+03	2.143495E-16	1.270918E-17
5.400000E+03	2.157042E-16	1.278254E-17
5.410000E+03	2.168556E-16	1.284382E-17
5.420000E+03	2.178272E-16	1.289442E-17
5.430000E+03	2.185857E-16	1.293242E-17
5.440000E+03	2.191563E-16	1.295931E-17
5.450000E+03	2.195077E-16	1.297326E-17
5.460000E+03	2.196529E-16	1.297507E-17
5.470000E+03	2.196058E-16	1.296558E-17
5.480000E+03	2.193389E-16	1.294318E-17
5.490000E+03	2.188699E-16	1.290893E-17
5.500000E+03	2.182192E-16	1.286406E-17
5.510000E+03	2.173689E-16	1.280754E-17
5.520000E+03	2.163462E-16	1.274097E-17
5.530000E+03	2.151657E-16	1.266523E-17
5.540000E+03	2.138425E-16	1.258124E-17
5.550000E+03	2.124060E-16	1.249072E-17
5.560000E+03	2.108441E-16	1.239297E-17
5.570000E+03	2.091864E-16	1.228975E-17
5.580000E+03	2.074483E-16	1.218196E-17
5.590000E+03	2.056446E-16	1.207047E-17
5.600000E+03	2.037900E-16	1.195616E-17
5.610000E+03	2.018979E-16	1.183982E-17
5.620000E+03	1.999817E-16	1.172222E-17
5.630000E+03	1.980532E-16	1.160406E-17
5.640000E+03	1.961238E-16	1.148601E-17
5.650000E+03	1.942037E-16	1.136867E-17
5.660000E+03	1.923022E-16	1.125257E-17
5.670000E+03	1.904150E-16	1.113746E-17
5.680000E+03	1.885740E-16	1.102521E-17
5.690000E+03	1.867728E-16	1.091543E-17
5.700000E+03	1.850164E-16	1.080841E-17
5.710000E+03	1.833087E-16	1.070439E-17
5.720000E+03	1.816409E-16	1.060283E-17
5.730000E+03	1.800387E-16	1.050523E-17
5.740000E+03	1.784914E-16	1.041097E-17
5.750000E+03	1.769880E-16	1.031940E-17
5.760000E+03	1.755512E-16	1.023183E-17
5.770000E+03	1.741571E-16	1.014687E-17
5.780000E+03	1.728270E-16	1.006576E-17
5.790000E+03	1.715475E-16	9.987716E-18
5.800000E+03	1.703058E-16	9.911975E-18
5.810000E+03	1.691212E-16	9.839672E-18
5.820000E+03	1.679697E-16	9.769398E-18
5.830000E+03	1.668600E-16	9.701653E-18
5.840000E+03	1.658003E-16	9.636924E-18
5.850000E+03	1.647676E-16	9.573861E-18
5.860000E+03	1.637815E-16	9.513601E-18
5.870000E+03	1.628198E-16	9.454852E-18
5.880000E+03	1.618928E-16	9.398212E-18
5.890000E+03	1.610007E-16	9.343693E-18
5.900000E+03	1.601547E-16	9.291939E-18
5.910000E+03	1.593357E-16	9.241837E-18
5.920000E+03	1.585566E-16	9.194137E-18
5.930000E+03	1.578207E-16	9.149022E-18
5.940000E+03	1.571319E-16	9.106726E-18
5.950000E+03	1.565050E-16	9.068094E-18
5.960000E+03	1.559251E-16	9.032270E-18
5.970000E+03	1.554087E-16	9.000195E-18
5.980000E+03	1.549620E-16	8.972240E-18
5.990000E+03	1.545926E-16	8.948829E-18
6.000000E+03	1.543077E-16	8.930384E-18
6.010000E+03	1.541153E-16	8.917357E-18
6.020000E+03	1.540232E-16	8.910203E-18
6.030000E+03	1.540396E-16	8.909393E-18
6.040000E+03	1.541624E-16	8.914799E-18
6.050000E+03	1.544196E-16	8.928033E-18
6.060000E+03	1.548086E-16	8.948952E-18
6.070000E+03	1.553365E-16	8.977961E-18
6.080000E+03	1.560099E-16	9.015428E-18
6.090000E+03	1.568243E-16	9.061107E-18
6.100000E+03	1.578051E-16	9.116445E-18
6.110000E+03	1.589458E-16	9.181083E-18
6.120000E+03	1.602491E-16	9.255156E-18
6.130000E+03	1.617053E-16	9.338120E-18
6.140000E+03	1.633348E-16	9.431143E-18
6.150000E+03	1.651139E-16	9.532857E-18
6.160000E+03	1.670586E-16	9.644187E-18
6.170000E+03	1.691400E-16	9.763465E-18
6.180000E+03	1.713693E-16	9.891335E-18
6.190000E+03	1.737106E-16	1.002573E-17
6.200000E+03	1.761689E-16	1.016694E-17
6.210000E+03	1.787006E-16	1.031245E-17
6.220000E+03	1.813036E-16	1.046214E-17
6.230000E+03	1.839261E-16	1.061302E-17
6.240000E+03	1.865487E-16	1.076398E-17
6.250000E+03	1.891532E-16	1.091395E-17
6.260000E+03	1.916865E-16	1.105991E-17
6.270000E+03	1.941317E-16	1.120085E-17
6.280000E+03	1.964715E-16	1.133579E-17
6.290000E+03	1.986492E-16	1.146146E-17
6.300000E+03	2.006450E-16	1.157672E-17
6.310000E+03	2.024264E-16	1.167969E-17
6.320000E+03	2.039620E-16	1.176857E-17
6.330000E+03	2.052215E-16	1.184160E-17
6.340000E+03	2.061773E-16	1.189719E-17
6.350000E+03	2.068184E-16	1.193471E-17
6.360000E+03	2.070980E-16	1.195145E-17
6.370000E+03	2.070135E-16	1.194726E-17
6.380000E+03	2.065543E-16	1.192152E-17
6.390000E+03	2.057020E-16	1.187316E-17
6.400000E+03	2.044834E-16	1.180373E-17
6.410000E+03	2.028908E-16	1.171277E-17
6.420000E+03	2.009353E-16	1.160092E-17
6.430000E+03	1.986325E-16	1.146906E-17
6.440000E+03	1.960027E-16	1.131836E-17
6.450000E+03	1.930697E-16	1.115020E-17
6.460000E+03	1.898484E-16	1.096541E-17
6.470000E+03	1.863928E-16	1.076711E-17
6.480000E+03	1.827216E-16	1.055636E-17
6.490000E+03	1.788552E-16	1.033434E-17
6.500000E+03	1.748490E-16	1.010425E-17
6.510000E+03	1.707232E-16	9.867231E-18
6.520000E+03	1.664985E-16	9.624481E-18
6.530000E+03	1.622260E-16	9.378954E-18
6.540000E+03	1.579129E-16	9.131051E-18
6.550000E+03	1.536059E-16	8.883466E-18
6.560000E+03	1.493092E-16	8.636441E-18
6.570000E+03	1.450638E-16	8.392349E-18
6.580000E+03	1.408704E-16	8.151218E-18
6.590000E+03	1.367646E-16	7.915114E-18
6.600000E+03	1.327434E-16	7.683859E-18
6.610000E+03	1.288287E-16	7.458716E-18
6.620000E+03	1.250392E-16	7.240771E-18
6.630000E+03	1.213674E-16	7.029594E-18
6.640000E+03	1.178288E-16	6.826073E-18
6.650000E+03	1.144360E-16	6.630953E-18
6.660000E+03	1.111784E-16	6.443613E-18
6.670000E+03	1.080663E-16	6.264654E-18
6.680000E+03	1.051015E-16	6.094181E-18
6.690000E+03	1.022847E-16	5.932243E-18
6.700000E+03	9.961589E-17	5.778843E-18
6.710000E+03	9.710065E-17	5.634303E-18
6.720000E+03	9.472508E-17	5.497825E-18
6.730000E+03	9.249386E-17	5.369681E-18
6.740000E+03	9.040487E-17	5.249755E-18
6.750000E+03	8.845575E-17	5.137915E-18
6.760000E+03	8.664391E-17	5.034013E-18
6.770000E+03	8.496116E-17	4.937579E-18
6.780000E+03	8.341564E-17	4.849090E-18
6.790000E+03	8.199892E-17	4.768062E-18
6.800000E+03	8.070807E-17	4.694330E-18
6.810000E+03	7.954021E-17	4.627730E-18
6.820000E+03	7.849246E-17	4.568101E-18
6.830000E+03	7.755703E-17	4.514994E-18
6.840000E+03	7.674116E-17	4.468835E-18
6.850000E+03	7.603712E-17	4.429180E-18
6.860000E+03	7.544229E-17	4.395882E-18
6.870000E+03	7.494933E-17	4.368518E-18
6.880000E+03	7.456532E-17	4.347505E-18
6.890000E+03	7.428301E-17	4.332428E-18
6.900000E+03	7.409523E-17	4.322873E-18
6.910000E+03	7.400908E-17	4.319258E-18
6.920000E+03	7.401267E-17	4.320896E-18
6.930000E+03	7.411305E-17	4.328204E-18
6.940000E+03	7.429826E-17	4.340489E-18
6.950000E+03	7.457526E-17	4.358163E-18
6.960000E+03	7.493190E-17	4.380519E-18
6.970000E+03	7.537015E-17	4.407680E-18
6.980000E+03	7.589193E-17	4.439762E-18
6.990000E+03	7.648446E-17	4.476024E-18
7.000000E+03	7.714922E-17	4.516556E-18
7.010000E+03	7.788762E-17	4.561446E-18
7.020000E+03	7.868590E-17	4.609893E-18
7.030000E+03	7.954481E-17	4.661945E-18
7.040000E+03	8.045985E-17	4.717343E-18
7.050000E+03	8.143140E-17	4.776114E-18
7.060000E+03	8.244387E-17	4.837347E-18
7.070000E+03	8.349678E-17	4.901018E-18
7.080000E+03	8.458411E-17	4.966776E-18
7.090000E+03	8.569943E-17	5.034247E-18
7.100000E+03	8.683589E-17	5.103030E-18
7.110000E+03	8.798628E-17	5.172705E-18
7.120000E+03	8.914299E-17	5.242825E-18
7.130000E+03	9.029805E-17	5.312922E-18
7.140000E+03	9.144319E-17	5.382511E-18
7.150000E+03	9.256990E-17	5.451089E-18
7.160000E+03	9.366942E-17	5.518142E-18
7.170000E+03	9.473287E-17	5.583144E-18
7.180000E+03	9.575131E-17	5.645565E-18
7.190000E+03	9.670967E-17	5.704515E-18
7.200000E+03	9.761142E-17	5.760194E-18
7.210000E+03	9.844191E-17	5.811734E-18
7.220000E+03	9.919288E-17	5.858641E-18
7.230000E+03	9.985016E-17	5.900073E-18
7.240000E+03	1.004192E-16	5.936348E-18
7.250000E+03	1.008872E-16	5.966694E-18
7.260000E+03	1.012417E-16	5.990375E-18
7.270000E+03	1.014908E-16	6.007856E-18
7.280000E+03	1.016239E-16	6.018510E-18
7.290000E+03	1.016317E-16	6.021764E-18
7.300000E+03	1.015252E-16	6.018266E-18
7.310000E+03	1.012907E-16	6.007192E-18
7.320000E+03	1.009414E-16	5.989322E-18
7.330000E+03	1.004661E-16	5.963966E-18
7.340000E+03	9.987366E-17	5.931656E-18
7.350000E+03	9.917425E-17	5.892977E-18
7.360000E+03	9.835984E-17	5.847443E-18
7.370000E+03	9.744868E-17	5.796129E-18
7.380000E+03	9.643469E-17	5.738665E-18
7.390000E+03	9.533134E-17	5.675843E-18
7.400000E+03	9.415241E-17	5.608475E-18
7.410000E+03	9.289402E-17	5.536322E-18
7.420000E+03	9.157081E-17	5.460250E-18
7.430000E+03	9.019152E-17	5.380772E-18
7.440000E+03	8.876496E-17	5.298409E-18
7.450000E+03	8.729988E-17	5.213678E-18
7.460000E+03	8.581029E-17	5.127412E-18
7.470000E+03	8.429341E-17	5.039439E-18
7.480000E+03	8.276271E-17	4.950563E-18
7.490000E+03	8.122564E-17	4.861226E-18
7.500000E+03	7.968913E-17	4.771840E-18
7.510000E+03	7.815957E-17	4.682788E-18
7.520000E+03	7.664274E-17	4.594416E-18
7.530000E+03	7.514384E-17	4.507036E-18
7.540000E+03	7.366745E-17	4.420922E-18
7.550000E+03	7.221755E-17	4.336314E-18
7.560000E+03	7.079299E-17	4.253146E-18
7.570000E+03	6.940577E-17	4.172140E-18
7.580000E+03	6.805353E-17	4.093157E-18
7.590000E+03	6.673806E-17	4.016306E-18
7.600000E+03	6.546062E-17	3.941667E-18
7.610000E+03	6.421789E-17	3.869043E-18
7.620000E+03	6.301846E-17	3.798954E-18
7.630000E+03	6.185798E-17	3.731140E-18
7.640000E+03	6.073587E-17	3.665572E-18
7.650000E+03	5.964746E-17	3.601970E-18
7.660000E+03	5.859937E-17	3.540736E-18
7.670000E+03	5.758275E-17	3.481339E-18
7.680000E+03	5.660368E-17	3.424150E-18
7.690000E+03	5.565690E-17	3.368853E-18
7.700000E+03	5.473734E-17	3.315145E-18
7.710000E+03	5.385047E-17	3.263359E-18
7.720000E+03	5.298771E-17	3.212977E-18
7.730000E+03	5.215423E-17	3.164317E-18
7.740000E+03	5.134170E-17	3.116874E-18
7.750000E+03	5.055187E-17	3.070756E-18
7.760000E+03	4.978639E-17	3.026067E-18
