#wls	flux	fluxerr
1.600000E+03	4.058063E-17	3.690222E-17
1.640000E+03	3.828203E-17	3.248584E-17
1.680000E+03	3.577924E-17	2.814769E-17
1.720000E+03	3.311427E-17	2.396412E-17
1.760000E+03	3.034205E-17	2.001036E-17
1.800000E+03	2.752647E-17	1.635441E-17
1.840000E+03	2.473653E-17	1.305226E-17
1.880000E+03	2.204565E-17	1.014648E-17
1.920000E+03	1.952058E-17	7.661357E-18
1.960000E+03	1.721621E-17	5.606006E-18
2.000000E+03	1.517130E-17	3.983198E-18
2.040000E+03	1.340328E-17	2.805181E-18
2.080000E+03	1.190610E-17	2.100921E-18
2.120000E+03	1.067228E-17	1.819936E-18
2.160000E+03	9.722003E-18	1.746836E-18
2.200000E+03	9.074727E-18	1.737800E-18
2.240000E+03	8.748354E-18	1.781557E-18
2.280000E+03	8.765678E-18	1.920351E-18
2.320000E+03	9.115418E-18	2.155227E-18
2.360000E+03	9.767740E-18	2.442972E-18
2.400000E+03	1.070655E-17	2.732909E-18
2.440000E+03	1.193505E-17	2.969874E-18
2.480000E+03	1.347078E-17	3.093119E-18
2.520000E+03	1.534166E-17	3.047826E-18
2.560000E+03	1.757267E-17	2.838937E-18
2.600000E+03	2.014990E-17	2.722363E-18
2.640000E+03	2.300422E-17	3.389203E-18
2.680000E+03	2.610689E-17	5.071330E-18
2.720000E+03	2.949272E-17	7.425839E-18
2.760000E+03	3.315405E-17	1.021607E-17
2.800000E+03	3.703912E-17	1.329471E-17
2.840000E+03	4.106142E-17	1.652740E-17
2.880000E+03	4.511818E-17	1.977241E-17
2.920000E+03	4.909795E-17	2.287901E-17
2.960000E+03	5.289720E-17	2.569771E-17
3.000000E+03	5.642569E-17	2.808807E-17
3.010000E+03	5.725623E-17	2.860352E-17
3.020000E+03	5.806688E-17	2.908386E-17
3.030000E+03	5.885368E-17	2.952585E-17
3.040000E+03	5.961963E-17	2.992980E-17
3.050000E+03	6.036092E-17	3.029265E-17
3.060000E+03	6.107910E-17	3.061405E-17
3.070000E+03	6.177595E-17	3.089383E-17
3.080000E+03	6.244793E-17	3.112918E-17
3.090000E+03	6.309706E-17	3.132013E-17
3.100000E+03	6.372180E-17	3.146497E-17
3.110000E+03	6.432638E-17	3.156485E-17
3.120000E+03	6.490955E-17	3.161828E-17
3.130000E+03	6.547012E-17	3.162382E-17
3.140000E+03	6.601281E-17	3.158291E-17
3.150000E+03	6.653473E-17	3.149334E-17
3.160000E+03	6.703894E-17	3.135577E-17
3.170000E+03	6.752868E-17	3.117092E-17
3.180000E+03	6.800133E-17	3.093677E-17
3.190000E+03	6.846035E-17	3.065413E-17
3.200000E+03	6.890732E-17	3.032290E-17
3.210000E+03	6.934188E-17	2.994213E-17
3.220000E+03	6.976989E-17	2.951354E-17
3.230000E+03	7.019116E-17	2.903616E-17
3.240000E+03	7.060553E-17	2.850907E-17
3.250000E+03	7.101913E-17	2.793386E-17
3.260000E+03	7.142975E-17	2.730870E-17
3.270000E+03	7.184147E-17	2.663423E-17
3.280000E+03	7.225621E-17	2.591016E-17
3.290000E+03	7.267583E-17	2.513617E-17
3.300000E+03	7.310201E-17	2.431183E-17
3.310000E+03	7.353623E-17	2.343664E-17
3.320000E+03	7.397965E-17	2.251007E-17
3.330000E+03	7.443084E-17	2.153091E-17
3.340000E+03	7.489441E-17	2.049995E-17
3.350000E+03	7.536547E-17	1.941557E-17
3.360000E+03	7.584716E-17	1.827885E-17
3.370000E+03	7.633258E-17	1.708912E-17
3.380000E+03	7.682027E-17	1.584830E-17
3.390000E+03	7.730499E-17	1.455928E-17
3.400000E+03	7.777975E-17	1.322748E-17
3.410000E+03	7.823566E-17	1.186256E-17
3.420000E+03	7.866205E-17	1.048142E-17
3.430000E+03	7.904701E-17	9.113682E-18
3.440000E+03	7.937665E-17	7.811562E-18
3.450000E+03	7.964846E-17	6.668197E-18
3.460000E+03	7.986227E-17	5.836085E-18
3.470000E+03	8.004947E-17	5.511842E-18
3.480000E+03	8.023380E-17	5.809646E-18
3.490000E+03	8.039255E-17	6.640640E-18
3.500000E+03	8.049489E-17	7.813949E-18
3.510000E+03	8.053240E-17	9.172198E-18
3.520000E+03	8.050995E-17	1.061777E-17
3.530000E+03	8.043766E-17	1.209456E-17
3.540000E+03	8.032668E-17	1.357033E-17
3.550000E+03	8.018493E-17	1.502572E-17
3.560000E+03	8.002606E-17	1.645035E-17
3.570000E+03	7.985477E-17	1.783704E-17
3.580000E+03	7.967419E-17	1.918119E-17
3.590000E+03	7.949083E-17	2.048097E-17
3.600000E+03	7.930760E-17	2.173510E-17
3.610000E+03	7.912879E-17	2.294366E-17
3.620000E+03	7.895078E-17	2.410510E-17
3.630000E+03	7.877647E-17	2.522013E-17
3.640000E+03	7.860354E-17	2.628816E-17
3.650000E+03	7.843645E-17	2.731103E-17
3.660000E+03	7.827231E-17	2.828833E-17
3.670000E+03	7.811040E-17	2.922043E-17
3.680000E+03	7.794761E-17	3.010682E-17
3.690000E+03	7.778781E-17	3.094970E-17
3.700000E+03	7.762548E-17	3.174763E-17
3.710000E+03	7.746218E-17	3.250197E-17
3.720000E+03	7.729717E-17	3.321317E-17
3.730000E+03	7.712978E-17	3.388172E-17
3.740000E+03	7.695942E-17	3.450812E-17
3.750000E+03	7.678560E-17	3.509289E-17
3.760000E+03	7.660789E-17	3.563658E-17
3.770000E+03	7.642598E-17	3.613978E-17
3.780000E+03	7.623962E-17	3.660309E-17
3.790000E+03	7.604635E-17	3.702601E-17
3.800000E+03	7.585072E-17	3.741144E-17
3.810000E+03	7.564809E-17	3.775776E-17
3.820000E+03	7.544311E-17	3.806794E-17
3.830000E+03	7.523127E-17	3.834035E-17
3.840000E+03	7.501499E-17	3.857683E-17
3.850000E+03	7.479444E-17	3.877803E-17
3.860000E+03	7.456979E-17	3.894464E-17
3.870000E+03	7.434120E-17	3.907728E-17
3.880000E+03	7.410885E-17	3.917657E-17
3.890000E+03	7.387289E-17	3.924311E-17
3.900000E+03	7.363348E-17	3.927744E-17
3.910000E+03	7.338845E-17	3.927887E-17
3.920000E+03	7.314238E-17	3.925029E-17
3.930000E+03	7.289081E-17	3.918972E-17
3.940000E+03	7.263821E-17	3.909995E-17
3.950000E+03	7.238002E-17	3.897891E-17
3.960000E+03	7.211837E-17	3.882812E-17
3.970000E+03	7.185308E-17	3.864784E-17
3.980000E+03	7.158614E-17	3.843948E-17
3.990000E+03	7.131286E-17	3.820087E-17
4.000000E+03	7.103512E-17	3.793339E-17
4.010000E+03	7.075039E-17	3.763604E-17
4.020000E+03	7.046266E-17	3.731133E-17
4.030000E+03	7.016932E-17	3.695828E-17
4.040000E+03	6.986994E-17	3.657711E-17
4.050000E+03	6.956192E-17	3.616694E-17
4.060000E+03	6.924913E-17	3.573033E-17
4.070000E+03	6.892684E-17	3.526544E-17
4.080000E+03	6.859677E-17	3.477385E-17
4.090000E+03	6.826066E-17	3.425721E-17
4.100000E+03	6.791387E-17	3.371405E-17
4.110000E+03	6.755823E-17	3.314630E-17
4.120000E+03	6.719343E-17	3.255496E-17
4.130000E+03	6.681924E-17	3.194120E-17
4.140000E+03	6.643548E-17	3.130641E-17
4.150000E+03	6.604200E-17	3.065220E-17
4.160000E+03	6.563872E-17	2.998040E-17
4.170000E+03	6.522358E-17	2.929223E-17
4.180000E+03	6.480068E-17	2.859194E-17
4.190000E+03	6.436602E-17	2.788046E-17
4.200000E+03	6.392375E-17	2.716259E-17
4.210000E+03	6.346999E-17	2.644004E-17
4.220000E+03	6.300891E-17	2.571827E-17
4.230000E+03	6.253673E-17	2.499981E-17
4.240000E+03	6.205565E-17	2.429004E-17
4.250000E+03	6.156587E-17	2.359390E-17
4.260000E+03	6.106761E-17	2.291665E-17
4.270000E+03	6.056108E-17	2.226385E-17
4.280000E+03	6.004648E-17	2.164125E-17
4.290000E+03	5.952397E-17	2.105468E-17
4.300000E+03	5.899373E-17	2.050985E-17
4.310000E+03	5.845591E-17	2.001221E-17
4.320000E+03	5.790880E-17	1.956600E-17
4.330000E+03	5.735620E-17	1.917653E-17
4.340000E+03	5.679456E-17	1.884557E-17
4.350000E+03	5.622760E-17	1.857599E-17
4.360000E+03	5.565182E-17	1.836683E-17
4.370000E+03	5.507082E-17	1.821794E-17
4.380000E+03	5.448115E-17	1.812532E-17
4.390000E+03	5.388460E-17	1.808537E-17
4.400000E+03	5.328116E-17	1.809274E-17
4.410000E+03	5.267079E-17	1.814124E-17
4.420000E+03	5.205339E-17	1.822414E-17
4.430000E+03	5.142882E-17	1.833444E-17
4.440000E+03	5.079687E-17	1.846516E-17
4.450000E+03	5.015728E-17	1.860956E-17
4.460000E+03	4.950975E-17	1.876127E-17
4.470000E+03	4.885391E-17	1.891445E-17
4.480000E+03	4.818783E-17	1.906317E-17
4.490000E+03	4.751419E-17	1.920394E-17
4.500000E+03	4.682952E-17	1.933141E-17
4.510000E+03	4.613642E-17	1.944328E-17
4.520000E+03	4.543151E-17	1.953530E-17
4.530000E+03	4.471740E-17	1.960621E-17
4.540000E+03	4.399092E-17	1.965276E-17
4.550000E+03	4.325332E-17	1.967397E-17
4.560000E+03	4.250450E-17	1.966867E-17
4.570000E+03	4.174447E-17	1.963604E-17
4.580000E+03	4.097470E-17	1.957624E-17
4.590000E+03	4.019278E-17	1.948785E-17
4.600000E+03	3.940049E-17	1.937161E-17
4.610000E+03	3.859715E-17	1.922732E-17
4.620000E+03	3.778601E-17	1.905682E-17
4.630000E+03	3.696666E-17	1.886037E-17
4.640000E+03	3.614016E-17	1.863900E-17
4.650000E+03	3.530652E-17	1.839336E-17
4.660000E+03	3.446937E-17	1.812604E-17
4.670000E+03	3.362899E-17	1.783796E-17
4.680000E+03	3.278584E-17	1.753020E-17
4.690000E+03	3.194372E-17	1.720565E-17
4.700000E+03	3.110223E-17	1.686499E-17
4.710000E+03	3.026419E-17	1.651068E-17
4.720000E+03	2.943234E-17	1.614512E-17
4.730000E+03	2.860654E-17	1.576917E-17
4.740000E+03	2.778954E-17	1.538526E-17
4.750000E+03	2.698311E-17	1.499525E-17
4.760000E+03	2.618893E-17	1.460098E-17
4.770000E+03	2.540863E-17	1.420419E-17
4.780000E+03	2.464377E-17	1.380657E-17
4.790000E+03	2.389579E-17	1.340972E-17
4.800000E+03	2.316604E-17	1.301513E-17
4.810000E+03	2.245575E-17	1.262421E-17
4.820000E+03	2.176604E-17	1.223823E-17
4.830000E+03	2.109791E-17	1.185837E-17
4.840000E+03	2.045157E-17	1.148532E-17
4.850000E+03	1.982914E-17	1.112077E-17
4.860000E+03	1.922996E-17	1.076483E-17
4.870000E+03	1.865584E-17	1.041894E-17
4.880000E+03	1.810659E-17	1.008335E-17
4.890000E+03	1.758196E-17	9.758243E-18
4.900000E+03	1.708283E-17	9.444392E-18
4.910000E+03	1.660992E-17	9.142422E-18
4.920000E+03	1.616223E-17	8.851959E-18
4.930000E+03	1.574037E-17	8.573476E-18
4.940000E+03	1.534485E-17	8.307335E-18
4.950000E+03	1.497460E-17	8.052994E-18
4.960000E+03	1.463004E-17	7.810694E-18
4.970000E+03	1.431109E-17	7.580334E-18
4.980000E+03	1.401761E-17	7.361763E-18
4.990000E+03	1.374950E-17	7.154784E-18
5.000000E+03	1.350662E-17	6.959159E-18
5.010000E+03	1.328889E-17	6.774613E-18
5.020000E+03	1.309621E-17	6.600842E-18
5.030000E+03	1.292855E-17	6.437513E-18
5.040000E+03	1.278590E-17	6.284268E-18
5.050000E+03	1.266790E-17	6.140522E-18
5.060000E+03	1.257551E-17	6.006294E-18
5.070000E+03	1.250851E-17	5.880957E-18
5.080000E+03	1.246674E-17	5.763888E-18
5.090000E+03	1.245144E-17	5.655029E-18
5.100000E+03	1.246267E-17	5.553721E-18
5.110000E+03	1.250062E-17	5.459300E-18
5.120000E+03	1.256687E-17	5.371639E-18
5.130000E+03	1.266148E-17	5.289851E-18
5.140000E+03	1.278594E-17	5.213576E-18
5.150000E+03	1.294192E-17	5.142416E-18
5.160000E+03	1.313000E-17	5.075411E-18
5.170000E+03	1.335229E-17	5.012092E-18
5.180000E+03	1.361117E-17	4.951930E-18
5.190000E+03	1.390790E-17	4.893837E-18
5.200000E+03	1.424544E-17	4.837165E-18
5.210000E+03	1.462658E-17	4.781022E-18
5.220000E+03	1.505452E-17	4.724426E-18
5.230000E+03	1.553280E-17	4.666291E-18
5.240000E+03	1.606599E-17	4.605572E-18
5.250000E+03	1.665745E-17	4.540614E-18
5.260000E+03	1.731266E-17	4.470084E-18
5.270000E+03	1.803708E-17	4.392316E-18
5.280000E+03	1.883604E-17	4.305300E-18
5.290000E+03	1.971723E-17	4.207255E-18
5.300000E+03	2.068686E-17	4.095707E-18
5.310000E+03	2.175197E-17	3.968077E-18
5.320000E+03	2.291940E-17	3.821508E-18
5.330000E+03	2.419527E-17	3.652872E-18
5.340000E+03	2.558301E-17	3.458680E-18
5.350000E+03	2.708518E-17	3.235647E-18
5.360000E+03	2.869570E-17	2.980152E-18
5.370000E+03	3.039814E-17	2.689030E-18
5.380000E+03	3.216334E-17	2.360607E-18
5.390000E+03	3.393648E-17	1.995614E-18
5.400000E+03	3.563579E-17	1.600581E-18
5.410000E+03	3.716855E-17	1.194646E-18
5.420000E+03	3.848611E-17	8.268068E-19
5.430000E+03	3.973296E-17	6.186763E-19
5.440000E+03	4.110101E-17	6.780788E-19
5.450000E+03	4.232353E-17	8.381886E-19
5.460000E+03	4.312038E-17	9.430382E-19
5.470000E+03	4.341208E-17	9.602730E-19
5.480000E+03	4.324872E-17	9.407150E-19
5.490000E+03	4.277925E-17	1.007439E-18
5.500000E+03	4.214095E-17	1.253081E-18
5.510000E+03	4.128976E-17	1.634252E-18
5.520000E+03	4.021798E-17	2.077402E-18
5.530000E+03	3.898098E-17	2.536857E-18
5.540000E+03	3.765092E-17	2.988670E-18
5.550000E+03	3.628638E-17	3.420590E-18
5.560000E+03	3.492914E-17	3.826673E-18
5.570000E+03	3.360758E-17	4.204593E-18
5.580000E+03	3.233576E-17	4.553531E-18
5.590000E+03	3.112395E-17	4.874175E-18
5.600000E+03	2.997632E-17	5.167690E-18
5.610000E+03	2.889396E-17	5.435570E-18
5.620000E+03	2.787601E-17	5.679478E-18
5.630000E+03	2.692050E-17	5.901144E-18
5.640000E+03	2.602483E-17	6.102306E-18
5.650000E+03	2.518607E-17	6.284673E-18
5.660000E+03	2.440119E-17	6.449896E-18
5.670000E+03	2.366714E-17	6.599558E-18
5.680000E+03	2.298096E-17	6.735156E-18
5.690000E+03	2.233901E-17	6.857859E-18
5.700000E+03	2.174018E-17	6.969471E-18
5.710000E+03	2.118108E-17	7.070980E-18
5.720000E+03	2.065929E-17	7.163518E-18
5.730000E+03	2.017250E-17	7.248128E-18
5.740000E+03	1.971858E-17	7.325763E-18
5.750000E+03	1.929480E-17	7.397023E-18
5.760000E+03	1.890065E-17	7.463221E-18
5.770000E+03	1.853364E-17	7.524798E-18
5.780000E+03	1.819208E-17	7.582387E-18
5.790000E+03	1.787373E-17	7.636271E-18
5.800000E+03	1.757840E-17	7.687497E-18
5.810000E+03	1.730402E-17	7.736226E-18
5.820000E+03	1.704865E-17	7.782558E-18
5.830000E+03	1.681228E-17	7.827385E-18
5.840000E+03	1.659311E-17	7.870710E-18
5.850000E+03	1.638944E-17	7.912491E-18
5.860000E+03	1.620141E-17	7.953505E-18
5.870000E+03	1.602746E-17	7.993640E-18
5.880000E+03	1.586607E-17	8.032750E-18
5.890000E+03	1.571755E-17	8.071536E-18
5.900000E+03	1.557993E-17	8.109510E-18
5.910000E+03	1.545361E-17	8.147343E-18
5.920000E+03	1.533673E-17	8.184503E-18
5.930000E+03	1.522977E-17	8.221639E-18
5.940000E+03	1.513153E-17	8.258494E-18
5.950000E+03	1.504089E-17	8.294792E-18
5.960000E+03	1.495843E-17	8.331166E-18
5.970000E+03	1.488254E-17	8.367021E-18
5.980000E+03	1.481384E-17	8.402983E-18
5.990000E+03	1.475082E-17	8.438445E-18
6.000000E+03	1.469362E-17	8.473720E-18
6.010000E+03	1.464240E-17	8.509125E-18
6.020000E+03	1.459574E-17	8.544035E-18
6.030000E+03	1.455438E-17	8.579080E-18
6.040000E+03	1.451694E-17	8.613626E-18
6.050000E+03	1.448423E-17	8.648308E-18
6.060000E+03	1.445490E-17	8.682486E-18
6.070000E+03	1.442978E-17	8.716802E-18
6.080000E+03	1.440757E-17	8.750608E-18
6.090000E+03	1.438861E-17	8.784228E-18
6.100000E+03	1.437324E-17	8.817993E-18
6.110000E+03	1.436020E-17	8.851251E-18
6.120000E+03	1.435040E-17	8.884666E-18
6.130000E+03	1.434263E-17	8.917584E-18
6.140000E+03	1.433728E-17	8.950347E-18
6.150000E+03	1.433478E-17	8.983303E-18
6.160000E+03	1.433393E-17	9.015797E-18
6.170000E+03	1.433518E-17	9.048183E-18
6.180000E+03	1.433898E-17	9.080823E-18
6.190000E+03	1.434418E-17	9.113060E-18
6.200000E+03	1.435179E-17	9.145606E-18
6.210000E+03	1.436066E-17	9.177798E-18
6.220000E+03	1.437130E-17	9.210010E-18
6.230000E+03	1.438420E-17	9.242621E-18
6.240000E+03	1.439822E-17	9.274961E-18
6.250000E+03	1.441387E-17	9.307407E-18
6.260000E+03	1.443167E-17	9.340339E-18
6.270000E+03	1.445046E-17	9.373070E-18
6.280000E+03	1.447077E-17	9.405970E-18
6.290000E+03	1.449308E-17	9.439409E-18
6.300000E+03	1.451623E-17	9.472673E-18
6.310000E+03	1.454071E-17	9.506111E-18
6.320000E+03	1.456699E-17	9.540073E-18
6.330000E+03	1.459386E-17	9.573800E-18
6.340000E+03	1.462231E-17	9.607980E-18
6.350000E+03	1.465111E-17	9.641821E-18
6.360000E+03	1.468064E-17	9.675616E-18
6.370000E+03	1.471130E-17	9.709646E-18
6.380000E+03	1.474176E-17	9.743057E-18
6.390000E+03	1.477236E-17	9.776095E-18
6.400000E+03	1.480342E-17	9.808991E-18
6.410000E+03	1.483353E-17	9.840827E-18
6.420000E+03	1.486296E-17	9.871798E-18
6.430000E+03	1.489199E-17	9.902092E-18
6.440000E+03	1.491912E-17	9.930732E-18
6.450000E+03	1.494516E-17	9.958262E-18
6.460000E+03	1.496860E-17	9.983679E-18
6.470000E+03	1.498966E-17	1.000713E-17
6.480000E+03	1.500855E-17	1.002876E-17
6.490000E+03	1.502375E-17	1.004756E-17
6.500000E+03	1.503609E-17	1.006408E-17
6.510000E+03	1.504406E-17	1.007730E-17
6.520000E+03	1.504854E-17	1.008782E-17
6.530000E+03	1.504808E-17	1.009466E-17
6.540000E+03	1.504303E-17	1.009806E-17
6.550000E+03	1.503379E-17	1.009829E-17
6.560000E+03	1.501905E-17	1.009445E-17
6.570000E+03	1.499989E-17	1.008729E-17
6.580000E+03	1.497510E-17	1.007598E-17
6.590000E+03	1.494587E-17	1.006135E-17
6.600000E+03	1.491110E-17	1.004264E-17
6.610000E+03	1.487210E-17	1.002075E-17
6.620000E+03	1.482789E-17	9.995030E-18
6.630000E+03	1.477986E-17	9.966427E-18
6.640000E+03	1.472713E-17	9.934356E-18
6.650000E+03	1.467119E-17	9.899834E-18
6.660000E+03	1.461122E-17	9.862327E-18
6.670000E+03	1.454877E-17	9.822894E-18
6.680000E+03	1.448367E-17	9.781430E-18
6.690000E+03	1.441575E-17	9.737845E-18
6.700000E+03	1.434659E-17	9.693222E-18
6.710000E+03	1.427549E-17	9.647093E-18
6.720000E+03	1.420400E-17	9.600534E-18
6.730000E+03	1.413198E-17	9.553458E-18
6.740000E+03	1.405927E-17	9.505769E-18
6.750000E+03	1.398738E-17	9.458511E-18
6.760000E+03	1.391555E-17	9.411181E-18
6.770000E+03	1.384527E-17	9.364784E-18
6.780000E+03	1.377627E-17	9.319166E-18
6.790000E+03	1.370885E-17	9.274534E-18
6.800000E+03	1.364272E-17	9.230698E-18
6.810000E+03	1.357921E-17	9.188573E-18
6.820000E+03	1.351797E-17	9.147925E-18
6.830000E+03	1.345863E-17	9.108506E-18
6.840000E+03	1.340242E-17	9.071155E-18
6.850000E+03	1.334888E-17	9.035577E-18
6.860000E+03	1.329811E-17	9.001829E-18
6.870000E+03	1.325013E-17	8.969945E-18
6.880000E+03	1.320444E-17	8.939573E-18
6.890000E+03	1.316209E-17	8.911439E-18
6.900000E+03	1.312251E-17	8.885152E-18
6.910000E+03	1.308563E-17	8.860669E-18
6.920000E+03	1.305135E-17	8.837932E-18
6.930000E+03	1.301957E-17	8.816866E-18
6.940000E+03	1.299015E-17	8.797382E-18
6.950000E+03	1.296294E-17	8.779379E-18
6.960000E+03	1.293777E-17	8.762744E-18
6.970000E+03	1.291445E-17	8.747356E-18
6.980000E+03	1.289281E-17	8.733085E-18
6.990000E+03	1.287264E-17	8.719799E-18
7.000000E+03	1.285372E-17	8.707357E-18
7.010000E+03	1.283587E-17	8.695621E-18
7.020000E+03	1.281885E-17	8.684449E-18
7.030000E+03	1.280248E-17	8.673703E-18
7.040000E+03	1.278655E-17	8.663249E-18
7.050000E+03	1.277087E-17	8.652954E-18
7.060000E+03	1.275525E-17	8.642695E-18
7.070000E+03	1.273952E-17	8.632354E-18
7.080000E+03	1.272351E-17	8.621820E-18
7.090000E+03	1.270761E-17	8.611352E-18
7.100000E+03	1.269062E-17	8.600136E-18
7.110000E+03	1.267294E-17	8.588446E-18
7.120000E+03	1.265445E-17	8.576205E-18
7.130000E+03	1.263506E-17	8.563344E-18
7.140000E+03	1.261520E-17	8.550158E-18
7.150000E+03	1.259372E-17	8.535869E-18
7.160000E+03	1.257108E-17	8.520783E-18
7.170000E+03	1.254772E-17	8.505209E-18
7.180000E+03	1.252252E-17	8.488377E-18
7.190000E+03	1.249593E-17	8.470599E-18
7.200000E+03	1.246840E-17	8.452182E-18
7.210000E+03	1.243880E-17	8.432358E-18
7.220000E+03	1.240811E-17	8.411787E-18
7.230000E+03	1.237517E-17	8.389696E-18
7.240000E+03	1.234096E-17	8.366738E-18
7.250000E+03	1.230432E-17	8.342131E-18
7.260000E+03	1.226619E-17	8.316520E-18
7.270000E+03	1.222543E-17	8.289118E-18
7.280000E+03	1.218295E-17	8.260560E-18
7.290000E+03	1.213812E-17	8.230412E-18
7.300000E+03	1.209031E-17	8.198243E-18
7.310000E+03	1.204043E-17	8.164681E-18
7.320000E+03	1.198786E-17	8.129297E-18
7.330000E+03	1.193197E-17	8.091671E-18
7.340000E+03	1.187370E-17	8.052436E-18
7.350000E+03	1.181244E-17	8.011183E-18
7.360000E+03	1.174813E-17	7.967863E-18
7.370000E+03	1.168019E-17	7.922094E-18
7.380000E+03	1.160961E-17	7.874537E-18
7.390000E+03	1.153586E-17	7.824835E-18
7.400000E+03	1.145894E-17	7.772989E-18
7.410000E+03	1.137888E-17	7.719016E-18
7.420000E+03	1.129574E-17	7.662949E-18
7.430000E+03	1.120958E-17	7.604838E-18
7.440000E+03	1.112050E-17	7.544749E-18
7.450000E+03	1.102864E-17	7.482763E-18
7.460000E+03	1.093414E-17	7.418980E-18
7.470000E+03	1.083717E-17	7.353510E-18
7.480000E+03	1.073791E-17	7.286479E-18
7.490000E+03	1.063658E-17	7.218025E-18
7.500000E+03	1.053340E-17	7.148296E-18
7.510000E+03	1.042860E-17	7.077444E-18
7.520000E+03	1.032241E-17	7.005633E-18
7.530000E+03	1.021554E-17	6.933330E-18
7.540000E+03	1.010732E-17	6.860084E-18
7.550000E+03	9.998456E-18	6.786365E-18
7.560000E+03	9.889173E-18	6.712332E-18
7.570000E+03	9.780132E-18	6.638428E-18
7.580000E+03	9.670669E-18	6.564203E-18
7.590000E+03	9.561414E-18	6.490082E-18
7.600000E+03	9.452961E-18	6.416468E-18
7.610000E+03	9.344614E-18	6.342890E-18
7.620000E+03	9.237340E-18	6.270003E-18
7.630000E+03	9.130414E-18	6.197316E-18
7.640000E+03	9.024738E-18	6.125442E-18
7.650000E+03	8.919557E-18	6.053871E-18
7.660000E+03	8.815712E-18	5.983175E-18
7.670000E+03	8.712422E-18	5.912826E-18
7.680000E+03	8.610472E-18	5.843359E-18
7.690000E+03	8.509447E-18	5.774494E-18
7.700000E+03	8.408936E-18	5.705954E-18
7.710000E+03	8.309658E-18	5.638231E-18
7.720000E+03	8.211177E-18	5.571032E-18
7.730000E+03	8.113437E-18	5.504320E-18
7.740000E+03	8.016014E-18	5.437810E-18
7.750000E+03	7.919579E-18	5.371962E-18
7.760000E+03	7.823706E-18	5.306488E-18
