#wls	flux	fluxerr
1.600000E+03	3.763360E-15	2.786453E-15
1.640000E+03	3.691491E-15	2.496965E-15
1.680000E+03	3.594655E-15	2.204438E-15
1.720000E+03	3.471847E-15	1.913703E-15
1.760000E+03	3.323009E-15	1.629883E-15
1.800000E+03	3.149573E-15	1.358421E-15
1.840000E+03	2.954826E-15	1.104842E-15
1.880000E+03	2.744519E-15	8.743313E-16
1.920000E+03	2.527288E-15	6.711138E-16
1.960000E+03	2.313886E-15	4.981051E-16
2.000000E+03	2.115658E-15	3.582168E-16
2.040000E+03	1.942798E-15	2.575679E-16
2.080000E+03	1.803557E-15	2.050005E-16
2.120000E+03	1.700004E-15	1.936850E-16
2.160000E+03	1.624484E-15	1.952575E-16
2.200000E+03	1.570724E-15	1.928998E-16
2.240000E+03	1.538646E-15	1.919463E-16
2.280000E+03	1.530782E-15	2.059997E-16
2.320000E+03	1.545471E-15	2.363444E-16
2.360000E+03	1.577762E-15	2.713601E-16
2.400000E+03	1.623930E-15	2.995727E-16
2.440000E+03	1.681650E-15	3.135180E-16
2.480000E+03	1.750237E-15	3.088686E-16
2.520000E+03	1.832420E-15	2.847825E-16
2.560000E+03	1.936434E-15	2.476666E-16
2.600000E+03	2.077044E-15	2.219091E-16
2.640000E+03	2.270727E-15	2.534182E-16
2.680000E+03	2.515621E-15	3.557086E-16
2.720000E+03	2.791647E-15	5.002320E-16
2.760000E+03	3.079117E-15	6.626231E-16
2.800000E+03	3.364400E-15	8.284648E-16
2.840000E+03	3.637303E-15	9.883006E-16
2.880000E+03	3.887930E-15	1.134639E-15
2.920000E+03	4.105766E-15	1.260694E-15
2.960000E+03	4.281598E-15	1.360613E-15
3.000000E+03	4.409851E-15	1.430246E-15
3.010000E+03	4.434250E-15	1.442634E-15
3.020000E+03	4.455650E-15	1.452994E-15
3.030000E+03	4.474095E-15	1.461321E-15
3.040000E+03	4.489574E-15	1.467599E-15
3.050000E+03	4.502152E-15	1.471835E-15
3.060000E+03	4.511964E-15	1.474062E-15
3.070000E+03	4.519083E-15	1.474295E-15
3.080000E+03	4.523585E-15	1.472551E-15
3.090000E+03	4.525479E-15	1.468825E-15
3.100000E+03	4.524837E-15	1.463136E-15
3.110000E+03	4.521793E-15	1.455521E-15
3.120000E+03	4.516414E-15	1.445998E-15
3.130000E+03	4.508761E-15	1.434582E-15
3.140000E+03	4.498826E-15	1.421268E-15
3.150000E+03	4.486665E-15	1.406071E-15
3.160000E+03	4.472465E-15	1.389048E-15
3.170000E+03	4.456084E-15	1.370153E-15
3.180000E+03	4.437776E-15	1.349463E-15
3.190000E+03	4.417471E-15	1.326956E-15
3.200000E+03	4.395300E-15	1.302673E-15
3.210000E+03	4.371271E-15	1.276616E-15
3.220000E+03	4.345530E-15	1.248830E-15
3.230000E+03	4.318101E-15	1.219323E-15
3.240000E+03	4.289208E-15	1.188163E-15
3.250000E+03	4.258768E-15	1.155329E-15
3.260000E+03	4.227084E-15	1.120910E-15
3.270000E+03	4.194150E-15	1.084911E-15
3.280000E+03	4.160097E-15	1.047377E-15
3.290000E+03	4.125181E-15	1.008386E-15
3.300000E+03	4.089356E-15	9.679446E-16
3.310000E+03	4.052946E-15	9.261562E-16
3.320000E+03	4.015978E-15	8.830610E-16
3.330000E+03	3.978663E-15	8.387542E-16
3.340000E+03	3.941100E-15	7.933227E-16
3.350000E+03	3.903522E-15	7.469034E-16
3.360000E+03	3.866117E-15	6.996537E-16
3.370000E+03	3.829047E-15	6.517685E-16
3.380000E+03	3.792627E-15	6.035279E-16
3.390000E+03	3.757172E-15	5.552906E-16
3.400000E+03	3.723018E-15	5.075321E-16
3.410000E+03	3.690710E-15	4.609205E-16
3.420000E+03	3.660804E-15	4.163562E-16
3.430000E+03	3.634110E-15	3.750975E-16
3.440000E+03	3.611539E-15	3.388455E-16
3.450000E+03	3.594093E-15	3.097952E-16
3.460000E+03	3.582962E-15	2.904764E-16
3.470000E+03	3.579139E-15	2.831278E-16
3.480000E+03	3.582985E-15	2.887431E-16
3.490000E+03	3.594043E-15	3.065185E-16
3.500000E+03	3.611161E-15	3.342869E-16
3.510000E+03	3.632952E-15	3.694710E-16
3.520000E+03	3.658207E-15	4.097698E-16
3.530000E+03	3.685754E-15	4.533568E-16
3.540000E+03	3.714759E-15	4.988823E-16
3.550000E+03	3.744328E-15	5.453236E-16
3.560000E+03	3.773823E-15	5.919297E-16
3.570000E+03	3.802792E-15	6.381453E-16
3.580000E+03	3.830830E-15	6.835441E-16
3.590000E+03	3.857625E-15	7.278012E-16
3.600000E+03	3.882877E-15	7.706577E-16
3.610000E+03	3.906463E-15	8.119380E-16
3.620000E+03	3.928194E-15	8.514916E-16
3.630000E+03	3.948038E-15	8.892319E-16
3.640000E+03	3.965938E-15	9.250930E-16
3.650000E+03	3.981866E-15	9.590354E-16
3.660000E+03	3.995753E-15	9.910259E-16
3.670000E+03	4.007672E-15	1.021079E-15
3.680000E+03	4.017588E-15	1.049192E-15
3.690000E+03	4.025601E-15	1.075406E-15
3.700000E+03	4.031762E-15	1.099757E-15
3.710000E+03	4.036128E-15	1.122287E-15
3.720000E+03	4.038702E-15	1.143026E-15
3.730000E+03	4.039621E-15	1.162043E-15
3.740000E+03	4.038960E-15	1.179394E-15
3.750000E+03	4.036743E-15	1.195116E-15
3.760000E+03	4.033121E-15	1.209288E-15
3.770000E+03	4.028191E-15	1.221970E-15
3.780000E+03	4.021992E-15	1.233204E-15
3.790000E+03	4.014694E-15	1.243071E-15
3.800000E+03	4.006412E-15	1.251635E-15
3.810000E+03	3.997201E-15	1.258940E-15
3.820000E+03	3.987310E-15	1.265087E-15
3.830000E+03	3.976744E-15	1.270102E-15
3.840000E+03	3.965633E-15	1.274048E-15
3.850000E+03	3.954171E-15	1.277004E-15
3.860000E+03	3.942489E-15	1.279032E-15
3.870000E+03	3.930717E-15	1.280189E-15
3.880000E+03	3.918917E-15	1.280508E-15
3.890000E+03	3.907330E-15	1.280079E-15
3.900000E+03	3.895879E-15	1.278886E-15
3.910000E+03	3.884846E-15	1.277029E-15
3.920000E+03	3.874192E-15	1.274498E-15
3.930000E+03	3.864046E-15	1.271338E-15
3.940000E+03	3.854458E-15	1.267564E-15
3.950000E+03	3.845400E-15	1.263163E-15
3.960000E+03	3.836947E-15	1.258152E-15
3.970000E+03	3.829090E-15	1.252521E-15
3.980000E+03	3.821804E-15	1.246247E-15
3.990000E+03	3.814979E-15	1.239282E-15
4.000000E+03	3.808612E-15	1.231605E-15
4.010000E+03	3.802619E-15	1.223171E-15
4.020000E+03	3.796904E-15	1.213925E-15
4.030000E+03	3.791295E-15	1.203790E-15
4.040000E+03	3.785733E-15	1.192719E-15
4.050000E+03	3.780093E-15	1.180645E-15
4.060000E+03	3.774185E-15	1.167479E-15
4.070000E+03	3.767943E-15	1.153171E-15
4.080000E+03	3.761243E-15	1.137650E-15
4.090000E+03	3.753970E-15	1.120849E-15
4.100000E+03	3.746019E-15	1.102704E-15
4.110000E+03	3.737240E-15	1.083136E-15
4.120000E+03	3.727615E-15	1.062108E-15
4.130000E+03	3.717024E-15	1.039554E-15
4.140000E+03	3.705546E-15	1.015464E-15
4.150000E+03	3.693032E-15	9.897664E-16
4.160000E+03	3.679535E-15	9.624470E-16
4.170000E+03	3.665058E-15	9.334818E-16
4.180000E+03	3.649622E-15	9.028541E-16
4.190000E+03	3.633202E-15	8.705416E-16
4.200000E+03	3.615903E-15	8.365613E-16
4.210000E+03	3.597784E-15	8.009265E-16
4.220000E+03	3.578855E-15	7.636528E-16
4.230000E+03	3.559316E-15	7.248121E-16
4.240000E+03	3.539144E-15	6.844494E-16
4.250000E+03	3.518504E-15	6.426772E-16
4.260000E+03	3.497514E-15	5.996362E-16
4.270000E+03	3.476249E-15	5.555134E-16
4.280000E+03	3.454964E-15	5.106023E-16
4.290000E+03	3.433694E-15	4.652741E-16
4.300000E+03	3.412649E-15	4.200990E-16
4.310000E+03	3.391923E-15	3.758974E-16
4.320000E+03	3.371769E-15	3.339237E-16
4.330000E+03	3.352200E-15	2.960339E-16
4.340000E+03	3.333371E-15	2.649426E-16
4.350000E+03	3.315357E-15	2.441222E-16
4.360000E+03	3.298216E-15	2.368297E-16
4.370000E+03	3.281968E-15	2.441604E-16
4.380000E+03	3.266768E-15	2.641052E-16
4.390000E+03	3.252718E-15	2.929810E-16
4.400000E+03	3.239886E-15	3.273018E-16
4.410000E+03	3.228294E-15	3.645073E-16
4.420000E+03	3.217921E-15	4.029046E-16
4.430000E+03	3.208651E-15	4.414057E-16
4.440000E+03	3.200441E-15	4.793296E-16
4.450000E+03	3.193165E-15	5.162352E-16
4.460000E+03	3.186677E-15	5.518360E-16
4.470000E+03	3.180755E-15	5.859325E-16
4.480000E+03	3.175328E-15	6.184166E-16
4.490000E+03	3.170095E-15	6.491805E-16
4.500000E+03	3.164911E-15	6.781720E-16
4.510000E+03	3.159566E-15	7.053454E-16
4.520000E+03	3.153846E-15	7.306651E-16
4.530000E+03	3.147531E-15	7.541021E-16
4.540000E+03	3.140343E-15	7.756181E-16
4.550000E+03	3.132108E-15	7.952030E-16
4.560000E+03	3.122650E-15	8.128508E-16
4.570000E+03	3.111576E-15	8.285014E-16
4.580000E+03	3.098818E-15	8.421811E-16
4.590000E+03	3.084096E-15	8.538639E-16
4.600000E+03	3.067196E-15	8.635421E-16
4.610000E+03	3.047858E-15	8.711988E-16
4.620000E+03	3.025951E-15	8.768541E-16
4.630000E+03	3.001313E-15	8.805223E-16
4.640000E+03	2.973813E-15	8.822278E-16
4.650000E+03	2.943356E-15	8.820068E-16
4.660000E+03	2.909893E-15	8.799083E-16
4.670000E+03	2.873372E-15	8.759800E-16
4.680000E+03	2.833946E-15	8.703301E-16
4.690000E+03	2.791624E-15	8.630200E-16
4.700000E+03	2.746617E-15	8.541715E-16
4.710000E+03	2.699142E-15	8.439038E-16
4.720000E+03	2.649461E-15	8.323472E-16
4.730000E+03	2.597876E-15	8.196410E-16
4.740000E+03	2.544671E-15	8.059156E-16
4.750000E+03	2.490285E-15	7.913467E-16
4.760000E+03	2.434980E-15	7.760516E-16
4.770000E+03	2.379186E-15	7.601983E-16
4.780000E+03	2.323143E-15	7.438912E-16
4.790000E+03	2.267188E-15	7.272648E-16
4.800000E+03	2.211582E-15	7.104267E-16
4.810000E+03	2.156549E-15	6.934707E-16
4.820000E+03	2.102234E-15	6.764649E-16
4.830000E+03	2.048866E-15	6.595016E-16
4.840000E+03	1.996528E-15	6.426259E-16
4.850000E+03	1.945288E-15	6.258762E-16
4.860000E+03	1.895272E-15	6.093094E-16
4.870000E+03	1.846601E-15	5.929794E-16
4.880000E+03	1.799300E-15	5.769079E-16
4.890000E+03	1.753505E-15	5.611518E-16
4.900000E+03	1.709331E-15	5.457598E-16
4.910000E+03	1.666907E-15	5.307838E-16
4.920000E+03	1.626373E-15	5.162781E-16
4.930000E+03	1.587851E-15	5.022884E-16
4.940000E+03	1.551549E-15	4.888867E-16
4.950000E+03	1.517587E-15	4.761141E-16
4.960000E+03	1.486075E-15	4.640068E-16
4.970000E+03	1.457195E-15	4.526197E-16
4.980000E+03	1.431001E-15	4.419653E-16
4.990000E+03	1.407606E-15	4.320720E-16
5.000000E+03	1.387105E-15	4.229581E-16
5.010000E+03	1.369492E-15	4.146092E-16
5.020000E+03	1.354824E-15	4.070258E-16
5.030000E+03	1.343114E-15	4.001926E-16
5.040000E+03	1.334364E-15	3.940877E-16
5.050000E+03	1.328568E-15	3.886831E-16
5.060000E+03	1.325710E-15	3.839459E-16
5.070000E+03	1.325750E-15	3.798319E-16
5.080000E+03	1.328720E-15	3.763146E-16
5.090000E+03	1.334577E-15	3.733426E-16
5.100000E+03	1.343281E-15	3.708616E-16
5.110000E+03	1.354868E-15	3.688351E-16
5.120000E+03	1.369303E-15	3.672019E-16
5.130000E+03	1.386550E-15	3.658971E-16
5.140000E+03	1.406650E-15	3.648723E-16
5.150000E+03	1.429542E-15	3.640459E-16
5.160000E+03	1.455238E-15	3.633518E-16
5.170000E+03	1.483746E-15	3.627168E-16
5.180000E+03	1.514983E-15	3.620400E-16
5.190000E+03	1.548935E-15	3.612329E-16
5.200000E+03	1.585573E-15	3.601982E-16
5.210000E+03	1.624758E-15	3.588084E-16
5.220000E+03	1.666407E-15	3.569469E-16
5.230000E+03	1.710376E-15	3.544808E-16
5.240000E+03	1.756479E-15	3.512677E-16
5.250000E+03	1.804479E-15	3.471576E-16
5.260000E+03	1.854122E-15	3.420017E-16
5.270000E+03	1.904988E-15	3.356293E-16
5.280000E+03	1.956701E-15	3.278923E-16
5.290000E+03	2.008793E-15	3.186460E-16
5.300000E+03	2.060745E-15	3.077630E-16
5.310000E+03	2.112002E-15	2.951443E-16
5.320000E+03	2.162003E-15	2.807298E-16
5.330000E+03	2.210208E-15	2.645120E-16
5.340000E+03	2.256148E-15	2.465481E-16
5.350000E+03	2.299465E-15	2.269739E-16
5.360000E+03	2.339960E-15	2.060173E-16
5.370000E+03	2.377614E-15	1.840145E-16
5.380000E+03	2.412576E-15	1.614358E-16
5.390000E+03	2.445092E-15	1.389329E-16
5.400000E+03	2.475357E-15	1.174281E-16
5.410000E+03	2.503302E-15	9.824990E-17
5.420000E+03	2.528408E-15	8.318281E-17
5.430000E+03	2.549835E-15	7.386800E-17
5.440000E+03	2.567248E-15	7.005783E-17
5.450000E+03	2.581471E-15	6.889242E-17
5.460000E+03	2.593659E-15	6.720964E-17
5.470000E+03	2.604198E-15	6.386974E-17
5.480000E+03	2.612436E-15	6.078971E-17
5.490000E+03	2.616874E-15	6.287347E-17
5.500000E+03	2.616583E-15	7.410903E-17
5.510000E+03	2.611711E-15	9.335802E-17
5.520000E+03	2.602897E-15	1.172906E-16
5.530000E+03	2.590567E-15	1.434467E-16
5.540000E+03	2.574863E-15	1.703802E-16
5.550000E+03	2.555569E-15	1.972010E-16
5.560000E+03	2.532585E-15	2.233227E-16
5.570000E+03	2.505886E-15	2.483297E-16
5.580000E+03	2.475418E-15	2.719064E-16
5.590000E+03	2.441429E-15	2.938404E-16
5.600000E+03	2.404290E-15	3.139975E-16
5.610000E+03	2.364322E-15	3.322903E-16
5.620000E+03	2.322108E-15	3.487137E-16
5.630000E+03	2.278111E-15	3.632897E-16
5.640000E+03	2.232803E-15	3.760768E-16
5.650000E+03	2.186775E-15	3.871850E-16
5.660000E+03	2.140445E-15	3.967220E-16
5.670000E+03	2.094189E-15	4.048072E-16
5.680000E+03	2.048465E-15	4.115922E-16
5.690000E+03	2.003547E-15	4.172055E-16
5.700000E+03	1.959703E-15	4.217814E-16
5.710000E+03	1.917150E-15	4.254494E-16
5.720000E+03	1.876059E-15	4.283311E-16
5.730000E+03	1.836561E-15	4.305393E-16
5.740000E+03	1.798744E-15	4.321766E-16
5.750000E+03	1.762664E-15	4.333350E-16
5.760000E+03	1.728382E-15	4.341047E-16
5.770000E+03	1.695818E-15	4.345373E-16
5.780000E+03	1.664982E-15	4.347012E-16
5.790000E+03	1.635858E-15	4.346547E-16
5.800000E+03	1.608306E-15	4.344182E-16
5.810000E+03	1.582312E-15	4.340404E-16
5.820000E+03	1.557743E-15	4.335340E-16
5.830000E+03	1.534461E-15	4.329045E-16
5.840000E+03	1.512422E-15	4.321795E-16
5.850000E+03	1.491482E-15	4.313541E-16
5.860000E+03	1.471530E-15	4.304293E-16
5.870000E+03	1.452460E-15	4.294044E-16
5.880000E+03	1.434177E-15	4.282778E-16
5.890000E+03	1.416594E-15	4.270484E-16
5.900000E+03	1.399636E-15	4.257163E-16
5.910000E+03	1.383273E-15	4.242928E-16
5.920000E+03	1.367396E-15	4.227635E-16
5.930000E+03	1.352029E-15	4.211532E-16
5.940000E+03	1.337085E-15	4.194519E-16
5.950000E+03	1.322608E-15	4.176881E-16
5.960000E+03	1.308559E-15	4.158637E-16
5.970000E+03	1.294931E-15	4.139903E-16
5.980000E+03	1.281693E-15	4.120705E-16
5.990000E+03	1.268900E-15	4.101340E-16
6.000000E+03	1.256550E-15	4.081907E-16
6.010000E+03	1.244582E-15	4.062317E-16
6.020000E+03	1.233018E-15	4.042738E-16
6.030000E+03	1.221877E-15	4.023322E-16
6.040000E+03	1.211092E-15	4.003939E-16
6.050000E+03	1.200706E-15	3.984803E-16
6.060000E+03	1.190649E-15	3.965760E-16
6.070000E+03	1.180959E-15	3.947001E-16
6.080000E+03	1.171590E-15	3.928444E-16
6.090000E+03	1.162525E-15	3.910085E-16
6.100000E+03	1.153745E-15	3.891921E-16
6.110000E+03	1.145234E-15	3.873944E-16
6.120000E+03	1.137000E-15	3.856232E-16
6.130000E+03	1.128977E-15	3.838602E-16
6.140000E+03	1.121175E-15	3.821137E-16
6.150000E+03	1.113611E-15	3.803924E-16
6.160000E+03	1.106248E-15	3.786881E-16
6.170000E+03	1.099081E-15	3.770020E-16
6.180000E+03	1.092106E-15	3.753362E-16
6.190000E+03	1.085323E-15	3.736936E-16
6.200000E+03	1.078736E-15	3.720782E-16
6.210000E+03	1.072351E-15	3.704948E-16
6.220000E+03	1.066202E-15	3.689581E-16
6.230000E+03	1.060252E-15	3.674576E-16
6.240000E+03	1.054566E-15	3.660181E-16
6.250000E+03	1.049112E-15	3.646310E-16
6.260000E+03	1.043958E-15	3.633222E-16
6.270000E+03	1.039100E-15	3.620926E-16
6.280000E+03	1.034560E-15	3.609518E-16
6.290000E+03	1.030382E-15	3.599180E-16
6.300000E+03	1.026538E-15	3.589835E-16
6.310000E+03	1.023098E-15	3.581749E-16
6.320000E+03	1.020031E-15	3.574840E-16
6.330000E+03	1.017403E-15	3.569362E-16
6.340000E+03	1.015206E-15	3.565307E-16
6.350000E+03	1.013452E-15	3.562746E-16
6.360000E+03	1.012152E-15	3.561737E-16
6.370000E+03	1.011311E-15	3.562327E-16
6.380000E+03	1.010933E-15	3.564546E-16
6.390000E+03	1.011038E-15	3.568488E-16
6.400000E+03	1.011591E-15	3.574050E-16
6.410000E+03	1.012548E-15	3.581096E-16
6.420000E+03	1.013931E-15	3.589713E-16
6.430000E+03	1.015675E-15	3.599681E-16
6.440000E+03	1.017727E-15	3.610818E-16
6.450000E+03	1.020046E-15	3.622977E-16
6.460000E+03	1.022502E-15	3.635683E-16
6.470000E+03	1.025052E-15	3.648761E-16
6.480000E+03	1.027536E-15	3.661624E-16
6.490000E+03	1.029888E-15	3.673993E-16
6.500000E+03	1.031955E-15	3.685280E-16
6.510000E+03	1.033605E-15	3.694966E-16
6.520000E+03	1.034730E-15	3.702613E-16
6.530000E+03	1.035153E-15	3.707525E-16
6.540000E+03	1.034806E-15	3.709407E-16
6.550000E+03	1.033536E-15	3.707655E-16
6.560000E+03	1.031311E-15	3.702113E-16
6.570000E+03	1.028047E-15	3.692444E-16
6.580000E+03	1.023714E-15	3.678511E-16
6.590000E+03	1.018309E-15	3.660295E-16
6.600000E+03	1.011882E-15	3.637983E-16
6.610000E+03	1.004435E-15	3.611596E-16
6.620000E+03	9.960965E-16	3.581623E-16
6.630000E+03	9.869359E-16	3.548356E-16
6.640000E+03	9.770650E-16	3.512244E-16
6.650000E+03	9.666048E-16	3.473776E-16
6.660000E+03	9.556815E-16	3.433459E-16
6.670000E+03	9.444452E-16	3.391887E-16
6.680000E+03	9.329687E-16	3.349373E-16
6.690000E+03	9.214144E-16	3.306547E-16
6.700000E+03	9.098620E-16	3.263735E-16
6.710000E+03	8.984037E-16	3.221301E-16
6.720000E+03	8.871193E-16	3.179559E-16
6.730000E+03	8.760764E-16	3.138771E-16
6.740000E+03	8.653532E-16	3.099230E-16
6.750000E+03	8.549718E-16	3.061025E-16
6.760000E+03	8.449458E-16	3.024205E-16
6.770000E+03	8.353481E-16	2.989033E-16
6.780000E+03	8.261786E-16	2.955501E-16
6.790000E+03	8.174767E-16	2.923745E-16
6.800000E+03	8.092135E-16	2.893653E-16
6.810000E+03	8.014446E-16	2.865414E-16
6.820000E+03	7.941383E-16	2.838902E-16
6.830000E+03	7.873466E-16	2.814294E-16
6.840000E+03	7.810565E-16	2.791533E-16
6.850000E+03	7.752954E-16	2.770704E-16
6.860000E+03	7.700254E-16	2.751664E-16
6.870000E+03	7.652681E-16	2.734483E-16
6.880000E+03	7.610405E-16	2.719212E-16
6.890000E+03	7.573134E-16	2.705745E-16
6.900000E+03	7.540734E-16	2.694027E-16
6.910000E+03	7.513011E-16	2.683989E-16
6.920000E+03	7.489719E-16	2.675539E-16
6.930000E+03	7.470761E-16	2.668645E-16
6.940000E+03	7.455384E-16	2.663037E-16
6.950000E+03	7.443609E-16	2.658723E-16
6.960000E+03	7.434812E-16	2.655483E-16
6.970000E+03	7.428549E-16	2.653160E-16
6.980000E+03	7.424559E-16	2.651661E-16
6.990000E+03	7.421959E-16	2.650674E-16
7.000000E+03	7.420677E-16	2.650173E-16
7.010000E+03	7.420029E-16	2.649914E-16
7.020000E+03	7.419336E-16	2.649657E-16
7.030000E+03	7.418761E-16	2.649460E-16
7.040000E+03	7.417257E-16	2.648948E-16
7.050000E+03	7.414637E-16	2.648054E-16
7.060000E+03	7.410766E-16	2.646730E-16
7.070000E+03	7.405154E-16	2.644798E-16
7.080000E+03	7.397590E-16	2.642182E-16
7.090000E+03	7.387944E-16	2.638833E-16
7.100000E+03	7.376173E-16	2.634732E-16
7.110000E+03	7.362321E-16	2.629894E-16
7.120000E+03	7.346727E-16	2.624434E-16
7.130000E+03	7.329386E-16	2.618348E-16
7.140000E+03	7.310567E-16	2.611728E-16
7.150000E+03	7.290584E-16	2.604683E-16
7.160000E+03	7.269782E-16	2.597333E-16
7.170000E+03	7.248510E-16	2.589799E-16
7.180000E+03	7.227315E-16	2.582276E-16
7.190000E+03	7.206298E-16	2.574797E-16
7.200000E+03	7.185723E-16	2.567457E-16
7.210000E+03	7.165796E-16	2.560330E-16
7.220000E+03	7.146660E-16	2.553470E-16
7.230000E+03	7.128593E-16	2.546978E-16
7.240000E+03	7.111182E-16	2.540709E-16
7.250000E+03	7.094771E-16	2.534793E-16
7.260000E+03	7.079017E-16	2.529109E-16
7.270000E+03	7.063726E-16	2.523593E-16
7.280000E+03	7.048650E-16	2.518161E-16
7.290000E+03	7.033705E-16	2.512786E-16
7.300000E+03	7.018153E-16	2.507210E-16
7.310000E+03	7.002058E-16	2.501457E-16
7.320000E+03	6.984852E-16	2.495329E-16
7.330000E+03	6.966169E-16	2.488696E-16
7.340000E+03	6.945856E-16	2.481508E-16
7.350000E+03	6.923155E-16	2.473494E-16
7.360000E+03	6.898154E-16	2.464688E-16
7.370000E+03	6.870145E-16	2.454839E-16
7.380000E+03	6.839276E-16	2.444002E-16
7.390000E+03	6.805317E-16	2.432094E-16
7.400000E+03	6.767667E-16	2.418903E-16
7.410000E+03	6.726379E-16	2.404449E-16
7.420000E+03	6.681548E-16	2.388765E-16
7.430000E+03	6.632901E-16	2.371753E-16
7.440000E+03	6.580418E-16	2.353407E-16
7.450000E+03	6.524129E-16	2.333733E-16
7.460000E+03	6.464312E-16	2.312830E-16
7.470000E+03	6.400710E-16	2.290601E-16
7.480000E+03	6.333919E-16	2.267255E-16
7.490000E+03	6.264012E-16	2.242811E-16
7.500000E+03	6.191328E-16	2.217381E-16
7.510000E+03	6.116279E-16	2.191104E-16
7.520000E+03	6.039345E-16	2.164140E-16
7.530000E+03	5.961257E-16	2.136740E-16
7.540000E+03	5.882239E-16	2.108971E-16
7.550000E+03	5.803295E-16	2.081180E-16
7.560000E+03	5.724892E-16	2.053522E-16
7.570000E+03	5.647854E-16	2.026284E-16
7.580000E+03	5.572444E-16	1.999550E-16
7.590000E+03	5.499573E-16	1.973640E-16
7.600000E+03	5.429374E-16	1.948600E-16
7.610000E+03	5.362570E-16	1.924687E-16
7.620000E+03	5.299251E-16	1.901938E-16
7.630000E+03	5.239717E-16	1.880465E-16
7.640000E+03	5.183645E-16	1.860159E-16
7.650000E+03	5.131248E-16	1.841107E-16
7.660000E+03	5.081972E-16	1.823119E-16
7.670000E+03	5.035823E-16	1.806208E-16
7.680000E+03	4.992247E-16	1.790185E-16
7.690000E+03	4.950965E-16	1.774960E-16
7.700000E+03	4.911200E-16	1.760262E-16
7.710000E+03	4.872815E-16	1.746049E-16
7.720000E+03	4.835219E-16	1.732113E-16
7.730000E+03	4.798020E-16	1.718316E-16
7.740000E+03	4.760874E-16	1.704539E-16
7.750000E+03	4.723494E-16	1.690678E-16
7.760000E+03	4.685649E-16	1.676652E-16
