#wls	flux	fluxerr
1.600000E+03	4.971129E-15	3.570667E-15
1.640000E+03	4.900943E-15	3.203605E-15
1.680000E+03	4.799000E-15	2.832517E-15
1.720000E+03	4.663321E-15	2.463476E-15
1.760000E+03	4.493138E-15	2.102917E-15
1.800000E+03	4.289206E-15	1.757561E-15
1.840000E+03	4.054570E-15	1.434387E-15
1.880000E+03	3.795827E-15	1.140162E-15
1.920000E+03	3.524131E-15	8.802390E-16
1.960000E+03	3.254877E-15	6.576370E-16
2.000000E+03	3.004751E-15	4.746417E-16
2.040000E+03	2.788454E-15	3.392308E-16
2.080000E+03	2.617513E-15	2.690124E-16
2.120000E+03	2.494933E-15	2.602968E-16
2.160000E+03	2.407504E-15	2.672193E-16
2.200000E+03	2.344294E-15	2.619449E-16
2.240000E+03	2.303253E-15	2.554596E-16
2.280000E+03	2.287394E-15	2.750377E-16
2.320000E+03	2.294608E-15	3.218975E-16
2.360000E+03	2.320116E-15	3.734349E-16
2.400000E+03	2.361735E-15	4.120779E-16
2.440000E+03	2.417847E-15	4.286939E-16
2.480000E+03	2.487530E-15	4.185395E-16
2.520000E+03	2.574959E-15	3.810162E-16
2.560000E+03	2.693093E-15	3.246488E-16
2.600000E+03	2.863819E-15	2.829778E-16
2.640000E+03	3.110684E-15	3.224278E-16
2.680000E+03	3.426756E-15	4.567893E-16
2.720000E+03	3.778914E-15	6.395480E-16
2.760000E+03	4.139265E-15	8.374273E-16
2.800000E+03	4.491730E-15	1.033607E-15
2.840000E+03	4.825525E-15	1.218516E-15
2.880000E+03	5.128664E-15	1.384744E-15
2.920000E+03	5.386859E-15	1.525145E-15
2.960000E+03	5.587407E-15	1.633383E-15
3.000000E+03	5.723196E-15	1.705200E-15
3.010000E+03	5.746842E-15	1.717219E-15
3.020000E+03	5.766610E-15	1.726902E-15
3.030000E+03	5.782362E-15	1.734193E-15
3.040000E+03	5.794433E-15	1.739182E-15
3.050000E+03	5.802711E-15	1.741827E-15
3.060000E+03	5.807549E-15	1.742226E-15
3.070000E+03	5.808917E-15	1.740364E-15
3.080000E+03	5.806937E-15	1.736272E-15
3.090000E+03	5.801800E-15	1.730003E-15
3.100000E+03	5.793536E-15	1.721562E-15
3.110000E+03	5.782317E-15	1.710998E-15
3.120000E+03	5.768228E-15	1.698332E-15
3.130000E+03	5.751266E-15	1.683560E-15
3.140000E+03	5.731498E-15	1.666699E-15
3.150000E+03	5.709056E-15	1.647786E-15
3.160000E+03	5.683994E-15	1.626833E-15
3.170000E+03	5.656287E-15	1.603832E-15
3.180000E+03	5.626065E-15	1.578817E-15
3.190000E+03	5.593311E-15	1.551783E-15
3.200000E+03	5.558095E-15	1.522749E-15
3.210000E+03	5.520642E-15	1.491775E-15
3.220000E+03	5.480824E-15	1.458825E-15
3.230000E+03	5.438966E-15	1.423988E-15
3.240000E+03	5.395045E-15	1.387255E-15
3.250000E+03	5.349201E-15	1.348665E-15
3.260000E+03	5.301658E-15	1.308276E-15
3.270000E+03	5.252516E-15	1.266114E-15
3.280000E+03	5.202025E-15	1.222244E-15
3.290000E+03	5.150378E-15	1.176717E-15
3.300000E+03	5.097709E-15	1.129576E-15
3.310000E+03	5.044299E-15	1.080901E-15
3.320000E+03	4.990301E-15	1.030752E-15
3.330000E+03	4.935947E-15	9.792189E-16
3.340000E+03	4.881614E-15	9.264360E-16
3.350000E+03	4.827429E-15	8.725133E-16
3.360000E+03	4.773682E-15	8.176272E-16
3.370000E+03	4.720768E-15	7.620187E-16
3.380000E+03	4.669004E-15	7.059820E-16
3.390000E+03	4.618973E-15	6.499449E-16
3.400000E+03	4.571042E-15	5.944355E-16
3.410000E+03	4.526013E-15	5.402326E-16
3.420000E+03	4.484705E-15	4.883866E-16
3.430000E+03	4.448039E-15	4.403453E-16
3.440000E+03	4.417219E-15	3.980972E-16
3.450000E+03	4.393512E-15	3.642103E-16
3.460000E+03	4.378145E-15	3.416337E-16
3.470000E+03	4.372173E-15	3.329937E-16
3.480000E+03	4.376103E-15	3.394662E-16
3.490000E+03	4.389171E-15	3.600707E-16
3.500000E+03	4.410250E-15	3.922572E-16
3.510000E+03	4.437645E-15	4.329861E-16
3.520000E+03	4.469784E-15	4.795456E-16
3.530000E+03	4.505291E-15	5.298037E-16
3.540000E+03	4.542907E-15	5.821592E-16
3.550000E+03	4.581499E-15	6.354188E-16
3.560000E+03	4.620242E-15	6.887098E-16
3.570000E+03	4.658347E-15	7.413628E-16
3.580000E+03	4.695297E-15	7.928891E-16
3.590000E+03	4.730636E-15	8.429136E-16
3.600000E+03	4.763949E-15	8.911427E-16
3.610000E+03	4.795037E-15	9.373809E-16
3.620000E+03	4.823646E-15	9.814675E-16
3.630000E+03	4.849713E-15	1.023317E-15
3.640000E+03	4.873162E-15	1.062869E-15
3.650000E+03	4.893888E-15	1.100084E-15
3.660000E+03	4.911955E-15	1.134975E-15
3.670000E+03	4.927388E-15	1.167562E-15
3.680000E+03	4.940161E-15	1.197867E-15
3.690000E+03	4.950335E-15	1.225937E-15
3.700000E+03	4.958121E-15	1.251866E-15
3.710000E+03	4.963464E-15	1.275685E-15
3.720000E+03	4.966456E-15	1.297464E-15
3.730000E+03	4.967262E-15	1.317293E-15
3.740000E+03	4.965987E-15	1.335247E-15
3.750000E+03	4.962672E-15	1.351382E-15
3.760000E+03	4.957502E-15	1.365792E-15
3.770000E+03	4.950603E-15	1.378553E-15
3.780000E+03	4.942037E-15	1.389720E-15
3.790000E+03	4.932015E-15	1.399389E-15
3.800000E+03	4.920688E-15	1.407636E-15
3.810000E+03	4.908146E-15	1.414516E-15
3.820000E+03	4.894627E-15	1.420127E-15
3.830000E+03	4.880239E-15	1.424524E-15
3.840000E+03	4.865232E-15	1.427804E-15
3.850000E+03	4.849792E-15	1.430043E-15
3.860000E+03	4.834108E-15	1.431314E-15
3.870000E+03	4.818296E-15	1.431670E-15
3.880000E+03	4.802538E-15	1.431177E-15
3.890000E+03	4.787144E-15	1.429939E-15
3.900000E+03	4.772137E-15	1.427973E-15
3.910000E+03	4.757732E-15	1.425350E-15
3.920000E+03	4.743986E-15	1.422090E-15
3.930000E+03	4.731073E-15	1.418245E-15
3.940000E+03	4.719071E-15	1.413838E-15
3.950000E+03	4.707965E-15	1.408858E-15
3.960000E+03	4.697845E-15	1.403323E-15
3.970000E+03	4.688705E-15	1.397219E-15
3.980000E+03	4.680437E-15	1.390500E-15
3.990000E+03	4.673040E-15	1.383147E-15
4.000000E+03	4.666418E-15	1.375110E-15
4.010000E+03	4.660445E-15	1.366328E-15
4.020000E+03	4.654905E-15	1.356710E-15
4.030000E+03	4.649697E-15	1.346199E-15
4.040000E+03	4.644570E-15	1.334690E-15
4.050000E+03	4.639399E-15	1.322113E-15
4.060000E+03	4.633986E-15	1.308377E-15
4.070000E+03	4.628136E-15	1.293387E-15
4.080000E+03	4.621592E-15	1.277035E-15
4.090000E+03	4.614248E-15	1.259249E-15
4.100000E+03	4.605947E-15	1.239947E-15
4.110000E+03	4.596486E-15	1.219030E-15
4.120000E+03	4.585890E-15	1.196463E-15
4.130000E+03	4.573939E-15	1.172144E-15
4.140000E+03	4.560576E-15	1.146014E-15
4.150000E+03	4.545836E-15	1.118038E-15
4.160000E+03	4.529710E-15	1.088171E-15
4.170000E+03	4.512209E-15	1.056372E-15
4.180000E+03	4.493365E-15	1.022609E-15
4.190000E+03	4.473157E-15	9.868404E-16
4.200000E+03	4.451712E-15	9.490661E-16
4.210000E+03	4.429035E-15	9.092662E-16
4.220000E+03	4.405343E-15	8.674772E-16
4.230000E+03	4.380603E-15	8.237009E-16
4.240000E+03	4.354992E-15	7.780054E-16
4.250000E+03	4.328577E-15	7.304695E-16
4.260000E+03	4.301640E-15	6.812534E-16
4.270000E+03	4.274227E-15	6.305394E-16
4.280000E+03	4.246602E-15	5.786344E-16
4.290000E+03	4.218923E-15	5.259611E-16
4.300000E+03	4.191562E-15	4.731691E-16
4.310000E+03	4.164644E-15	4.211914E-16
4.320000E+03	4.138489E-15	3.714823E-16
4.330000E+03	4.113344E-15	3.262659E-16
4.340000E+03	4.089368E-15	2.888548E-16
4.350000E+03	4.066815E-15	2.636496E-16
4.360000E+03	4.045849E-15	2.548989E-16
4.370000E+03	4.026614E-15	2.640788E-16
4.380000E+03	4.009245E-15	2.885703E-16
4.390000E+03	3.993782E-15	3.236329E-16
4.400000E+03	3.980336E-15	3.649181E-16
4.410000E+03	3.968895E-15	4.093350E-16
4.420000E+03	3.959328E-15	4.548945E-16
4.430000E+03	3.951640E-15	5.003785E-16
4.440000E+03	3.945548E-15	5.450084E-16
4.450000E+03	3.940924E-15	5.883137E-16
4.460000E+03	3.937555E-15	6.299937E-16
4.470000E+03	3.935209E-15	6.698568E-16
4.480000E+03	3.933583E-15	7.077693E-16
4.490000E+03	3.932485E-15	7.436612E-16
4.500000E+03	3.931654E-15	7.774790E-16
4.510000E+03	3.930823E-15	8.091853E-16
4.520000E+03	3.929716E-15	8.387515E-16
4.530000E+03	3.928051E-15	8.661538E-16
4.540000E+03	3.925475E-15	8.913563E-16
4.550000E+03	3.921752E-15	9.143509E-16
4.560000E+03	3.916573E-15	9.351164E-16
4.570000E+03	3.909623E-15	9.536319E-16
4.580000E+03	3.900516E-15	9.698622E-16
4.590000E+03	3.889050E-15	9.838200E-16
4.600000E+03	3.874775E-15	9.954604E-16
4.610000E+03	3.857432E-15	1.004790E-15
4.620000E+03	3.836716E-15	1.011808E-15
4.630000E+03	3.812345E-15	1.016523E-15
4.640000E+03	3.784071E-15	1.018954E-15
4.650000E+03	3.751634E-15	1.019120E-15
4.660000E+03	3.715012E-15	1.017103E-15
4.670000E+03	3.674016E-15	1.012935E-15
4.680000E+03	3.628718E-15	1.006719E-15
4.690000E+03	3.579218E-15	9.985596E-16
4.700000E+03	3.525708E-15	9.885797E-16
4.710000E+03	3.468415E-15	9.769059E-16
4.720000E+03	3.407820E-15	9.637280E-16
4.730000E+03	3.344249E-15	9.491864E-16
4.740000E+03	3.278252E-15	9.334779E-16
4.750000E+03	3.210355E-15	9.167874E-16
4.760000E+03	3.141096E-15	8.992984E-16
4.770000E+03	3.070996E-15	8.811866E-16
4.780000E+03	3.000540E-15	8.626146E-16
4.790000E+03	2.930161E-15	8.437271E-16
4.800000E+03	2.860175E-15	8.246339E-16
4.810000E+03	2.790964E-15	8.054627E-16
4.820000E+03	2.722649E-15	7.862647E-16
4.830000E+03	2.655424E-15	7.671113E-16
4.840000E+03	2.589384E-15	7.480440E-16
4.850000E+03	2.524586E-15	7.290940E-16
4.860000E+03	2.461072E-15	7.102876E-16
4.870000E+03	2.398892E-15	6.916524E-16
4.880000E+03	2.338115E-15	6.732222E-16
4.890000E+03	2.278808E-15	6.550299E-16
4.900000E+03	2.221197E-15	6.371533E-16
4.910000E+03	2.165398E-15	6.196381E-16
4.920000E+03	2.111714E-15	6.025825E-16
4.930000E+03	2.060329E-15	5.860495E-16
4.940000E+03	2.011552E-15	5.701349E-16
4.950000E+03	1.965652E-15	5.549212E-16
4.960000E+03	1.922883E-15	5.404839E-16
4.970000E+03	1.883474E-15	5.268871E-16
4.980000E+03	1.847615E-15	5.141813E-16
4.990000E+03	1.815455E-15	5.024015E-16
5.000000E+03	1.787100E-15	4.915670E-16
5.010000E+03	1.762584E-15	4.816736E-16
5.020000E+03	1.741993E-15	4.727278E-16
5.030000E+03	1.725293E-15	4.646994E-16
5.040000E+03	1.712423E-15	4.575481E-16
5.050000E+03	1.703394E-15	4.512493E-16
5.060000E+03	1.698086E-15	4.457405E-16
5.070000E+03	1.696488E-15	4.409849E-16
5.080000E+03	1.698470E-15	4.369110E-16
5.090000E+03	1.703990E-15	4.334669E-16
5.100000E+03	1.712974E-15	4.305896E-16
5.110000E+03	1.725382E-15	4.282207E-16
5.120000E+03	1.741087E-15	4.262757E-16
5.130000E+03	1.760048E-15	4.246888E-16
5.140000E+03	1.782195E-15	4.233823E-16
5.150000E+03	1.807454E-15	4.222733E-16
5.160000E+03	1.835745E-15	4.212733E-16
5.170000E+03	1.866980E-15	4.202873E-16
5.180000E+03	1.901061E-15	4.192133E-16
5.190000E+03	1.937871E-15	4.179416E-16
5.200000E+03	1.977279E-15	4.163546E-16
5.210000E+03	2.019127E-15	4.143263E-16
5.220000E+03	2.063234E-15	4.117226E-16
5.230000E+03	2.109384E-15	4.084014E-16
5.240000E+03	2.157328E-15	4.042144E-16
5.250000E+03	2.206779E-15	3.990078E-16
5.260000E+03	2.257408E-15	3.926260E-16
5.270000E+03	2.308851E-15	3.849146E-16
5.280000E+03	2.360705E-15	3.757263E-16
5.290000E+03	2.412544E-15	3.649263E-16
5.300000E+03	2.463925E-15	3.524010E-16
5.310000E+03	2.514411E-15	3.380663E-16
5.320000E+03	2.563591E-15	3.218783E-16
5.330000E+03	2.611103E-15	3.038442E-16
5.340000E+03	2.656662E-15	2.840341E-16
5.350000E+03	2.700081E-15	2.625951E-16
5.360000E+03	2.741272E-15	2.397676E-16
5.370000E+03	2.780237E-15	2.159093E-16
5.380000E+03	2.817027E-15	1.915330E-16
5.390000E+03	2.851672E-15	1.673692E-16
5.400000E+03	2.884106E-15	1.444580E-16
5.410000E+03	2.914110E-15	1.242433E-16
5.420000E+03	2.941401E-15	1.085020E-16
5.430000E+03	2.965553E-15	9.869550E-17
5.440000E+03	2.986473E-15	9.467675E-17
5.450000E+03	3.004196E-15	9.427826E-17
5.460000E+03	3.018865E-15	9.502301E-17
5.470000E+03	3.030288E-15	9.595065E-17
5.480000E+03	3.038171E-15	9.816725E-17
5.490000E+03	3.042082E-15	1.041546E-16
5.500000E+03	3.041552E-15	1.159778E-16
5.510000E+03	3.036633E-15	1.338109E-16
5.520000E+03	3.027469E-15	1.562949E-16
5.530000E+03	3.014291E-15	1.817048E-16
5.540000E+03	2.997444E-15	2.085920E-16
5.550000E+03	2.976997E-15	2.358747E-16
5.560000E+03	2.953005E-15	2.627814E-16
5.570000E+03	2.925453E-15	2.887565E-16
5.580000E+03	2.894535E-15	3.134198E-16
5.590000E+03	2.860344E-15	3.364951E-16
5.600000E+03	2.823112E-15	3.578055E-16
5.610000E+03	2.783207E-15	3.772573E-16
5.620000E+03	2.740894E-15	3.947986E-16
5.630000E+03	2.696650E-15	4.104497E-16
5.640000E+03	2.650919E-15	4.242652E-16
5.650000E+03	2.604202E-15	4.363397E-16
5.660000E+03	2.556838E-15	4.467658E-16
5.670000E+03	2.509344E-15	4.556858E-16
5.680000E+03	2.462054E-15	4.632259E-16
5.690000E+03	2.415267E-15	4.695156E-16
5.700000E+03	2.369383E-15	4.747115E-16
5.710000E+03	2.324617E-15	4.789395E-16
5.720000E+03	2.281186E-15	4.823279E-16
5.730000E+03	2.239267E-15	4.849969E-16
5.740000E+03	2.198996E-15	4.870567E-16
5.750000E+03	2.160511E-15	4.886166E-16
5.760000E+03	2.123785E-15	4.897449E-16
5.770000E+03	2.088926E-15	4.905369E-16
5.780000E+03	2.055840E-15	4.910368E-16
5.790000E+03	2.024570E-15	4.913156E-16
5.800000E+03	1.995004E-15	4.914035E-16
5.810000E+03	1.967048E-15	4.913290E-16
5.820000E+03	1.940548E-15	4.911007E-16
5.830000E+03	1.915487E-15	4.907575E-16
5.840000E+03	1.891605E-15	4.902718E-16
5.850000E+03	1.868793E-15	4.896496E-16
5.860000E+03	1.846903E-15	4.888835E-16
5.870000E+03	1.825832E-15	4.879747E-16
5.880000E+03	1.805415E-15	4.869045E-16
5.890000E+03	1.785508E-15	4.856567E-16
5.900000E+03	1.766095E-15	4.842482E-16
5.910000E+03	1.747076E-15	4.826707E-16
5.920000E+03	1.728408E-15	4.809303E-16
5.930000E+03	1.710070E-15	4.790380E-16
5.940000E+03	1.692094E-15	4.770183E-16
5.950000E+03	1.674419E-15	4.748693E-16
5.960000E+03	1.657136E-15	4.726304E-16
5.970000E+03	1.640233E-15	4.703118E-16
5.980000E+03	1.623701E-15	4.679238E-16
5.990000E+03	1.607631E-15	4.655044E-16
6.000000E+03	1.592041E-15	4.630700E-16
6.010000E+03	1.576875E-15	4.606155E-16
6.020000E+03	1.562173E-15	4.581622E-16
6.030000E+03	1.547966E-15	4.557289E-16
6.040000E+03	1.534182E-15	4.533030E-16
6.050000E+03	1.520875E-15	4.509083E-16
6.060000E+03	1.507994E-15	4.485381E-16
6.070000E+03	1.495521E-15	4.461934E-16
6.080000E+03	1.483432E-15	4.438743E-16
6.090000E+03	1.471706E-15	4.415800E-16
6.100000E+03	1.460348E-15	4.393182E-16
6.110000E+03	1.449304E-15	4.370776E-16
6.120000E+03	1.438519E-15	4.348467E-16
6.130000E+03	1.428034E-15	4.326424E-16
6.140000E+03	1.417799E-15	4.304536E-16
6.150000E+03	1.407798E-15	4.282795E-16
6.160000E+03	1.398047E-15	4.261289E-16
6.170000E+03	1.388478E-15	4.239841E-16
6.180000E+03	1.379147E-15	4.218655E-16
6.190000E+03	1.370023E-15	4.197669E-16
6.200000E+03	1.361113E-15	4.176929E-16
6.210000E+03	1.352427E-15	4.156495E-16
6.220000E+03	1.343981E-15	4.136443E-16
6.230000E+03	1.335826E-15	4.116950E-16
6.240000E+03	1.327928E-15	4.097939E-16
6.250000E+03	1.320374E-15	4.079701E-16
6.260000E+03	1.313166E-15	4.062269E-16
6.270000E+03	1.306337E-15	4.045768E-16
6.280000E+03	1.299922E-15	4.030329E-16
6.290000E+03	1.293984E-15	4.016174E-16
6.300000E+03	1.288498E-15	4.003251E-16
6.310000E+03	1.283554E-15	3.991870E-16
6.320000E+03	1.279155E-15	3.982062E-16
6.330000E+03	1.275329E-15	3.973948E-16
6.340000E+03	1.272103E-15	3.967642E-16
6.350000E+03	1.269503E-15	3.963253E-16
6.360000E+03	1.267580E-15	3.960973E-16
6.370000E+03	1.266323E-15	3.960804E-16
6.380000E+03	1.265748E-15	3.962825E-16
6.390000E+03	1.265863E-15	3.967095E-16
6.400000E+03	1.266668E-15	3.973645E-16
6.410000E+03	1.268152E-15	3.982471E-16
6.420000E+03	1.270319E-15	3.993611E-16
6.430000E+03	1.273098E-15	4.006862E-16
6.440000E+03	1.276428E-15	4.022042E-16
6.450000E+03	1.280224E-15	4.038884E-16
6.460000E+03	1.284377E-15	4.057035E-16
6.470000E+03	1.288782E-15	4.076138E-16
6.480000E+03	1.293220E-15	4.095458E-16
6.490000E+03	1.297569E-15	4.114551E-16
6.500000E+03	1.301598E-15	4.132615E-16
6.510000E+03	1.305124E-15	4.148981E-16
6.520000E+03	1.307866E-15	4.162665E-16
6.530000E+03	1.309670E-15	4.173077E-16
6.540000E+03	1.310275E-15	4.179278E-16
6.550000E+03	1.309565E-15	4.180806E-16
6.560000E+03	1.307364E-15	4.177019E-16
6.570000E+03	1.303602E-15	4.167621E-16
6.580000E+03	1.298161E-15	4.152192E-16
6.590000E+03	1.291095E-15	4.130892E-16
6.600000E+03	1.282419E-15	4.103766E-16
6.610000E+03	1.272223E-15	4.071137E-16
6.620000E+03	1.260636E-15	4.033479E-16
6.630000E+03	1.247855E-15	3.991488E-16
6.640000E+03	1.234005E-15	3.945657E-16
6.650000E+03	1.219349E-15	3.896919E-16
6.660000E+03	1.204062E-15	3.845933E-16
6.670000E+03	1.188376E-15	3.793530E-16
6.680000E+03	1.172421E-15	3.740218E-16
6.690000E+03	1.156431E-15	3.686812E-16
6.700000E+03	1.140501E-15	3.633680E-16
6.710000E+03	1.124819E-15	3.581470E-16
6.720000E+03	1.109492E-15	3.530561E-16
6.730000E+03	1.094552E-15	3.481074E-16
6.740000E+03	1.080119E-15	3.433411E-16
6.750000E+03	1.066190E-15	3.387559E-16
6.760000E+03	1.052854E-15	3.343798E-16
6.770000E+03	1.040132E-15	3.302192E-16
6.780000E+03	1.027991E-15	3.262617E-16
6.790000E+03	1.016495E-15	3.225259E-16
6.800000E+03	1.005602E-15	3.189969E-16
6.810000E+03	9.953728E-16	3.156921E-16
6.820000E+03	9.858194E-16	3.126129E-16
6.830000E+03	9.769041E-16	3.097455E-16
6.840000E+03	9.686903E-16	3.071079E-16
6.850000E+03	9.611418E-16	3.046869E-16
6.860000E+03	9.543186E-16	3.024998E-16
6.870000E+03	9.482271E-16	3.005473E-16
6.880000E+03	9.428192E-16	2.988132E-16
6.890000E+03	9.381361E-16	2.973095E-16
6.900000E+03	9.341131E-16	2.960153E-16
6.910000E+03	9.307723E-16	2.949374E-16
6.920000E+03	9.280782E-16	2.940644E-16
6.930000E+03	9.259388E-16	2.933674E-16
6.940000E+03	9.243505E-16	2.928455E-16
6.950000E+03	9.232076E-16	2.924654E-16
6.960000E+03	9.225198E-16	2.922308E-16
6.970000E+03	9.221495E-16	2.920983E-16
6.980000E+03	9.220529E-16	2.920544E-16
6.990000E+03	9.221849E-16	2.920852E-16
7.000000E+03	9.224514E-16	2.921610E-16
7.010000E+03	9.227823E-16	2.922598E-16
7.020000E+03	9.231076E-16	2.923596E-16
7.030000E+03	9.233589E-16	2.924389E-16
7.040000E+03	9.234954E-16	2.924845E-16
7.050000E+03	9.234313E-16	2.924693E-16
7.060000E+03	9.231123E-16	2.923761E-16
7.070000E+03	9.224933E-16	2.921903E-16
7.080000E+03	9.215652E-16	2.919088E-16
7.090000E+03	9.202832E-16	2.915170E-16
7.100000E+03	9.186421E-16	2.910129E-16
7.110000E+03	9.166524E-16	2.903992E-16
7.120000E+03	9.143395E-16	2.896836E-16
7.130000E+03	9.117676E-16	2.888857E-16
7.140000E+03	9.089380E-16	2.880053E-16
7.150000E+03	9.059589E-16	2.870760E-16
7.160000E+03	9.028692E-16	2.861094E-16
7.170000E+03	8.997578E-16	2.851331E-16
7.180000E+03	8.966367E-16	2.841507E-16
7.190000E+03	8.936107E-16	2.831948E-16
7.200000E+03	8.907019E-16	2.822726E-16
7.210000E+03	8.879466E-16	2.813957E-16
7.220000E+03	8.853941E-16	2.805798E-16
7.230000E+03	8.830077E-16	2.798141E-16
7.240000E+03	8.808369E-16	2.791147E-16
7.250000E+03	8.788461E-16	2.784712E-16
7.260000E+03	8.770383E-16	2.778852E-16
7.270000E+03	8.753335E-16	2.773322E-16
7.280000E+03	8.737415E-16	2.768159E-16
7.290000E+03	8.721923E-16	2.763149E-16
7.300000E+03	8.706352E-16	2.758136E-16
7.310000E+03	8.690160E-16	2.752954E-16
7.320000E+03	8.673039E-16	2.747508E-16
7.330000E+03	8.653939E-16	2.741470E-16
7.340000E+03	8.632808E-16	2.734825E-16
7.350000E+03	8.608886E-16	2.727335E-16
7.360000E+03	8.581942E-16	2.718931E-16
7.370000E+03	8.551053E-16	2.709321E-16
7.380000E+03	8.516328E-16	2.698543E-16
7.390000E+03	8.477192E-16	2.686416E-16
7.400000E+03	8.433368E-16	2.672855E-16
7.410000E+03	8.384873E-16	2.657867E-16
7.420000E+03	8.331044E-16	2.641245E-16
7.430000E+03	8.272241E-16	2.623102E-16
7.440000E+03	8.208148E-16	2.603341E-16
7.450000E+03	8.138988E-16	2.582030E-16
7.460000E+03	8.064333E-16	2.559031E-16
7.470000E+03	7.984778E-16	2.534531E-16
7.480000E+03	7.900294E-16	2.508513E-16
7.490000E+03	7.811185E-16	2.481066E-16
7.500000E+03	7.717869E-16	2.452311E-16
7.510000E+03	7.620882E-16	2.422403E-16
7.520000E+03	7.521111E-16	2.391606E-16
7.530000E+03	7.419112E-16	2.360078E-16
7.540000E+03	7.315780E-16	2.328080E-16
7.550000E+03	7.212103E-16	2.295905E-16
7.560000E+03	7.109337E-16	2.263929E-16
7.570000E+03	7.008322E-16	2.232399E-16
7.580000E+03	6.910088E-16	2.201626E-16
7.590000E+03	6.815583E-16	2.171900E-16
7.600000E+03	6.725626E-16	2.143475E-16
7.610000E+03	6.641066E-16	2.116621E-16
7.620000E+03	6.562143E-16	2.091419E-16
7.630000E+03	6.489076E-16	2.067950E-16
7.640000E+03	6.421855E-16	2.046225E-16
7.650000E+03	6.360247E-16	2.026187E-16
7.660000E+03	6.304012E-16	2.007781E-16
7.670000E+03	6.252360E-16	1.990773E-16
7.680000E+03	6.204574E-16	1.974955E-16
7.690000E+03	6.159866E-16	1.960093E-16
7.700000E+03	6.117430E-16	1.945944E-16
7.710000E+03	6.076673E-16	1.932328E-16
7.720000E+03	6.036688E-16	1.918966E-16
7.730000E+03	5.996851E-16	1.905662E-16
7.740000E+03	5.956648E-16	1.892254E-16
7.750000E+03	5.915862E-16	1.878670E-16
7.760000E+03	5.873828E-16	1.864698E-16
