#wls	flux	fluxerr
1.600000E+03	4.486980E-15	3.772170E-15
1.640000E+03	4.255455E-15	3.312302E-15
1.680000E+03	4.034570E-15	2.885147E-15
1.720000E+03	3.826980E-15	2.490476E-15
1.760000E+03	3.634832E-15	2.126897E-15
1.800000E+03	3.459423E-15	1.791990E-15
1.840000E+03	3.301017E-15	1.482694E-15
1.880000E+03	3.158712E-15	1.195851E-15
1.920000E+03	3.030409E-15	9.289268E-16
1.960000E+03	2.913237E-15	6.810690E-16
2.000000E+03	2.804888E-15	4.548966E-16
2.040000E+03	2.706793E-15	2.620304E-16
2.080000E+03	2.630558E-15	1.536824E-16
2.120000E+03	2.591953E-15	1.878946E-16
2.160000E+03	2.574167E-15	2.220325E-16
2.200000E+03	2.570275E-15	2.002369E-16
2.240000E+03	2.591116E-15	1.463201E-16
2.280000E+03	2.658249E-15	1.837661E-16
2.320000E+03	2.771315E-15	3.116002E-16
2.360000E+03	2.913742E-15	4.440494E-16
2.400000E+03	3.074584E-15	5.510799E-16
2.440000E+03	3.247081E-15	6.141613E-16
2.480000E+03	3.426631E-15	6.178834E-16
2.520000E+03	3.610568E-15	5.500338E-16
2.560000E+03	3.801301E-15	4.058695E-16
2.600000E+03	4.014672E-15	2.205738E-16
2.640000E+03	4.288568E-15	3.026745E-16
2.680000E+03	4.620818E-15	6.403663E-16
2.720000E+03	4.978894E-15	1.033323E-15
2.760000E+03	5.344388E-15	1.446587E-15
2.800000E+03	5.708159E-15	1.861738E-15
2.840000E+03	6.065686E-15	2.263236E-15
2.880000E+03	6.414519E-15	2.637099E-15
2.920000E+03	6.753261E-15	2.970757E-15
2.960000E+03	7.081124E-15	3.253014E-15
3.000000E+03	7.397774E-15	3.474019E-15
3.010000E+03	7.475168E-15	3.518664E-15
3.020000E+03	7.551875E-15	3.558823E-15
3.030000E+03	7.627853E-15	3.594359E-15
3.040000E+03	7.703142E-15	3.625176E-15
3.050000E+03	7.777737E-15	3.651162E-15
3.060000E+03	7.851592E-15	3.672193E-15
3.070000E+03	7.924740E-15	3.688182E-15
3.080000E+03	7.997126E-15	3.699011E-15
3.090000E+03	8.068776E-15	3.704603E-15
3.100000E+03	8.139669E-15	3.704864E-15
3.110000E+03	8.209738E-15	3.699687E-15
3.120000E+03	8.278948E-15	3.688988E-15
3.130000E+03	8.347349E-15	3.672725E-15
3.140000E+03	8.414810E-15	3.650786E-15
3.150000E+03	8.481276E-15	3.623103E-15
3.160000E+03	8.546733E-15	3.589633E-15
3.170000E+03	8.611114E-15	3.550325E-15
3.180000E+03	8.674298E-15	3.505114E-15
3.190000E+03	8.736247E-15	3.453985E-15
3.200000E+03	8.796870E-15	3.396917E-15
3.210000E+03	8.856022E-15	3.333882E-15
3.220000E+03	8.913595E-15	3.264887E-15
3.230000E+03	8.969571E-15	3.189988E-15
3.240000E+03	9.023734E-15	3.109193E-15
3.250000E+03	9.076004E-15	3.022578E-15
3.260000E+03	9.126203E-15	2.930211E-15
3.270000E+03	9.174241E-15	2.832214E-15
3.280000E+03	9.219981E-15	2.728719E-15
3.290000E+03	9.263230E-15	2.619870E-15
3.300000E+03	9.303898E-15	2.505872E-15
3.310000E+03	9.341793E-15	2.386930E-15
3.320000E+03	9.376879E-15	2.263320E-15
3.330000E+03	9.408922E-15	2.135303E-15
3.340000E+03	9.437800E-15	2.003202E-15
3.350000E+03	9.463502E-15	1.867397E-15
3.360000E+03	9.485829E-15	1.728269E-15
3.370000E+03	9.504701E-15	1.586269E-15
3.380000E+03	9.520171E-15	1.441920E-15
3.390000E+03	9.532112E-15	1.295788E-15
3.400000E+03	9.540592E-15	1.148569E-15
3.410000E+03	9.545621E-15	1.001114E-15
3.420000E+03	9.547419E-15	8.545811E-16
3.430000E+03	9.546058E-15	7.106588E-16
3.440000E+03	9.541781E-15	5.722164E-16
3.450000E+03	9.534998E-15	4.448365E-16
3.460000E+03	9.525962E-15	3.406627E-16
3.470000E+03	9.515090E-15	2.842809E-16
3.480000E+03	9.502986E-15	2.977389E-16
3.490000E+03	9.491494E-15	3.595270E-16
3.500000E+03	9.482490E-15	4.382454E-16
3.510000E+03	9.477479E-15	5.183505E-16
3.520000E+03	9.477350E-15	5.941004E-16
3.530000E+03	9.482451E-15	6.637274E-16
3.540000E+03	9.492710E-15	7.270154E-16
3.550000E+03	9.507772E-15	7.843453E-16
3.560000E+03	9.527369E-15	8.363188E-16
3.570000E+03	9.551320E-15	8.835875E-16
3.580000E+03	9.579657E-15	9.267953E-16
3.590000E+03	9.612610E-15	9.665557E-16
3.600000E+03	9.650504E-15	1.003438E-15
3.610000E+03	9.693620E-15	1.037957E-15
3.620000E+03	9.742020E-15	1.070549E-15
3.630000E+03	9.795635E-15	1.101577E-15
3.640000E+03	9.854156E-15	1.131315E-15
3.650000E+03	9.916931E-15	1.159923E-15
3.660000E+03	9.983417E-15	1.187496E-15
3.670000E+03	1.005308E-14	1.214060E-15
3.680000E+03	1.012557E-14	1.239598E-15
3.690000E+03	1.020073E-14	1.264074E-15
3.700000E+03	1.027862E-14	1.287451E-15
3.710000E+03	1.035942E-14	1.309688E-15
3.720000E+03	1.044322E-14	1.330719E-15
3.730000E+03	1.053009E-14	1.350462E-15
3.740000E+03	1.061961E-14	1.368751E-15
3.750000E+03	1.071094E-14	1.385367E-15
3.760000E+03	1.080266E-14	1.400049E-15
3.770000E+03	1.089278E-14	1.412523E-15
3.780000E+03	1.097876E-14	1.422550E-15
3.790000E+03	1.105760E-14	1.429947E-15
3.800000E+03	1.112610E-14	1.434614E-15
3.810000E+03	1.118111E-14	1.436543E-15
3.820000E+03	1.121969E-14	1.435776E-15
3.830000E+03	1.123991E-14	1.432454E-15
3.840000E+03	1.124062E-14	1.426754E-15
3.850000E+03	1.122224E-14	1.418967E-15
3.860000E+03	1.118632E-14	1.409450E-15
3.870000E+03	1.113565E-14	1.398662E-15
3.880000E+03	1.107383E-14	1.387127E-15
3.890000E+03	1.100490E-14	1.375378E-15
3.900000E+03	1.093264E-14	1.363848E-15
3.910000E+03	1.086061E-14	1.352855E-15
3.920000E+03	1.079148E-14	1.342495E-15
3.930000E+03	1.072717E-14	1.332678E-15
3.940000E+03	1.066860E-14	1.323132E-15
3.950000E+03	1.061616E-14	1.313546E-15
3.960000E+03	1.056950E-14	1.303610E-15
3.970000E+03	1.052797E-14	1.293135E-15
3.980000E+03	1.049058E-14	1.282073E-15
3.990000E+03	1.045639E-14	1.270548E-15
4.000000E+03	1.042462E-14	1.258810E-15
4.010000E+03	1.039486E-14	1.247184E-15
4.020000E+03	1.036694E-14	1.235979E-15
4.030000E+03	1.034086E-14	1.225422E-15
4.040000E+03	1.031698E-14	1.215660E-15
4.050000E+03	1.029538E-14	1.206701E-15
4.060000E+03	1.027573E-14	1.198423E-15
4.070000E+03	1.025732E-14	1.190597E-15
4.080000E+03	1.023908E-14	1.182905E-15
4.090000E+03	1.021966E-14	1.174940E-15
4.100000E+03	1.019787E-14	1.166259E-15
4.110000E+03	1.017278E-14	1.156403E-15
4.120000E+03	1.014407E-14	1.144977E-15
4.130000E+03	1.011200E-14	1.131681E-15
4.140000E+03	1.007729E-14	1.116339E-15
4.150000E+03	1.004117E-14	1.098906E-15
4.160000E+03	1.000524E-14	1.079441E-15
4.170000E+03	9.970829E-15	1.058008E-15
4.180000E+03	9.939183E-15	1.034672E-15
4.190000E+03	9.911233E-15	1.009471E-15
4.200000E+03	9.887410E-15	9.823962E-16
4.210000E+03	9.867756E-15	9.534190E-16
4.220000E+03	9.851982E-15	9.224850E-16
4.230000E+03	9.839801E-15	8.895227E-16
4.240000E+03	9.830764E-15	8.543912E-16
4.250000E+03	9.824541E-15	8.168786E-16
4.260000E+03	9.820304E-15	7.766433E-16
4.270000E+03	9.816903E-15	7.332539E-16
4.280000E+03	9.812321E-15	6.861957E-16
4.290000E+03	9.803521E-15	6.349461E-16
4.300000E+03	9.786370E-15	5.790942E-16
4.310000E+03	9.755670E-15	5.185197E-16
4.320000E+03	9.705716E-15	4.536726E-16
4.330000E+03	9.630322E-15	3.859645E-16
4.340000E+03	9.523902E-15	3.185403E-16
4.350000E+03	9.381882E-15	2.577162E-16
4.360000E+03	9.201366E-15	2.149976E-16
4.370000E+03	8.986014E-15	2.014415E-16
4.380000E+03	8.755439E-15	2.133290E-16
4.390000E+03	8.530147E-15	2.438933E-16
4.400000E+03	8.321114E-15	2.851188E-16
4.410000E+03	8.131134E-15	3.291970E-16
4.420000E+03	7.961333E-15	3.721933E-16
4.430000E+03	7.811610E-15	4.123788E-16
4.440000E+03	7.681153E-15	4.490939E-16
4.450000E+03	7.568701E-15	4.821928E-16
4.460000E+03	7.472783E-15	5.117738E-16
4.470000E+03	7.391900E-15	5.380422E-16
4.480000E+03	7.324688E-15	5.612395E-16
4.490000E+03	7.269834E-15	5.815888E-16
4.500000E+03	7.226238E-15	5.992783E-16
4.510000E+03	7.192999E-15	6.144438E-16
4.520000E+03	7.169198E-15	6.271454E-16
4.530000E+03	7.153986E-15	6.373767E-16
4.540000E+03	7.146512E-15	6.450687E-16
4.550000E+03	7.145704E-15	6.500849E-16
4.560000E+03	7.150436E-15	6.522543E-16
4.570000E+03	7.159309E-15	6.513736E-16
4.580000E+03	7.170820E-15	6.472483E-16
4.590000E+03	7.183402E-15	6.397256E-16
4.600000E+03	7.195396E-15	6.287220E-16
4.610000E+03	7.205130E-15	6.142605E-16
4.620000E+03	7.211183E-15	5.965181E-16
4.630000E+03	7.212270E-15	5.758335E-16
4.640000E+03	7.207540E-15	5.527377E-16
4.650000E+03	7.196473E-15	5.279406E-16
4.660000E+03	7.178893E-15	5.023129E-16
4.670000E+03	7.155152E-15	4.768627E-16
4.680000E+03	7.125711E-15	4.526396E-16
4.690000E+03	7.091472E-15	4.306536E-16
4.700000E+03	7.053526E-15	4.117159E-16
4.710000E+03	7.013471E-15	3.963150E-16
4.720000E+03	6.973111E-15	3.845175E-16
4.730000E+03	6.934913E-15	3.760338E-16
4.740000E+03	6.901536E-15	3.703432E-16
4.750000E+03	6.876119E-15	3.669001E-16
4.760000E+03	6.861653E-15	3.652528E-16
4.770000E+03	6.861063E-15	3.651279E-16
4.780000E+03	6.876702E-15	3.664154E-16
4.790000E+03	6.909777E-15	3.691030E-16
4.800000E+03	6.960309E-15	3.732195E-16
4.810000E+03	7.026398E-15	3.787336E-16
4.820000E+03	7.104260E-15	3.854963E-16
4.830000E+03	7.188262E-15	3.931951E-16
4.840000E+03	7.271384E-15	4.013501E-16
4.850000E+03	7.345730E-15	4.093385E-16
4.860000E+03	7.403600E-15	4.164737E-16
4.870000E+03	7.438457E-15	4.220949E-16
4.880000E+03	7.445533E-15	4.256390E-16
4.890000E+03	7.422884E-15	4.267311E-16
4.900000E+03	7.370918E-15	4.251770E-16
4.910000E+03	7.292852E-15	4.210034E-16
4.920000E+03	7.193749E-15	4.144222E-16
4.930000E+03	7.079830E-15	4.058166E-16
4.940000E+03	6.957782E-15	3.957205E-16
4.950000E+03	6.834020E-15	3.847752E-16
4.960000E+03	6.713991E-15	3.736581E-16
4.970000E+03	6.601773E-15	3.629971E-16
4.980000E+03	6.500039E-15	3.532883E-16
4.990000E+03	6.409881E-15	3.448157E-16
5.000000E+03	6.330980E-15	3.376330E-16
5.010000E+03	6.262052E-15	3.316100E-16
5.020000E+03	6.201333E-15	3.265172E-16
5.030000E+03	6.146726E-15	3.221004E-16
5.040000E+03	6.096618E-15	3.181736E-16
5.050000E+03	6.050012E-15	3.146433E-16
5.060000E+03	6.006786E-15	3.115065E-16
5.070000E+03	5.967663E-15	3.088187E-16
5.080000E+03	5.934189E-15	3.066702E-16
5.090000E+03	5.908290E-15	3.051624E-16
5.100000E+03	5.891663E-15	3.043953E-16
5.110000E+03	5.885645E-15	3.044751E-16
5.120000E+03	5.890605E-15	3.054730E-16
5.130000E+03	5.906029E-15	3.073928E-16
5.140000E+03	5.930224E-15	3.101048E-16
5.150000E+03	5.960714E-15	3.133334E-16
5.160000E+03	5.994506E-15	3.166828E-16
5.170000E+03	6.028405E-15	3.197110E-16
5.180000E+03	6.059578E-15	3.220407E-16
5.190000E+03	6.085514E-15	3.234286E-16
5.200000E+03	6.104424E-15	3.238221E-16
5.210000E+03	6.115271E-15	3.233409E-16
5.220000E+03	6.117770E-15	3.222072E-16
5.230000E+03	6.112363E-15	3.206568E-16
5.240000E+03	6.099858E-15	3.188574E-16
5.250000E+03	6.081652E-15	3.169056E-16
5.260000E+03	6.059135E-15	3.148156E-16
5.270000E+03	6.033741E-15	3.125478E-16
5.280000E+03	6.006744E-15	3.100115E-16
5.290000E+03	5.979223E-15	3.070635E-16
5.300000E+03	5.951816E-15	3.034988E-16
5.310000E+03	5.925171E-15	2.990928E-16
5.320000E+03	5.899686E-15	2.936205E-16
5.330000E+03	5.875593E-15	2.868918E-16
5.340000E+03	5.853343E-15	2.787835E-16
5.350000E+03	5.833191E-15	2.692060E-16
5.360000E+03	5.815346E-15	2.580739E-16
5.370000E+03	5.799827E-15	2.452667E-16
5.380000E+03	5.786114E-15	2.306308E-16
5.390000E+03	5.773195E-15	2.141119E-16
5.400000E+03	5.759207E-15	1.960409E-16
5.410000E+03	5.741561E-15	1.776586E-16
5.420000E+03	5.717049E-15	1.618244E-16
5.430000E+03	5.681902E-15	1.533410E-16
5.440000E+03	5.633771E-15	1.558336E-16
5.450000E+03	5.576606E-15	1.652110E-16
5.460000E+03	5.515604E-15	1.764412E-16
5.470000E+03	5.455610E-15	1.868892E-16
5.480000E+03	5.400730E-15	1.958977E-16
5.490000E+03	5.354466E-15	2.039610E-16
5.500000E+03	5.318458E-15	2.117383E-16
5.510000E+03	5.290833E-15	2.191030E-16
5.520000E+03	5.268863E-15	2.258202E-16
5.530000E+03	5.249592E-15	2.317185E-16
5.540000E+03	5.230103E-15	2.366889E-16
5.550000E+03	5.207935E-15	2.406890E-16
5.560000E+03	5.181365E-15	2.437405E-16
5.570000E+03	5.149430E-15	2.459114E-16
5.580000E+03	5.112178E-15	2.473060E-16
5.590000E+03	5.070382E-15	2.480313E-16
5.600000E+03	5.025305E-15	2.481778E-16
5.610000E+03	4.978507E-15	2.478229E-16
5.620000E+03	4.931567E-15	2.470418E-16
5.630000E+03	4.885691E-15	2.459117E-16
5.640000E+03	4.841801E-15	2.445282E-16
5.650000E+03	4.800345E-15	2.429921E-16
5.660000E+03	4.761297E-15	2.413951E-16
5.670000E+03	4.724637E-15	2.398230E-16
5.680000E+03	4.689962E-15	2.383193E-16
5.690000E+03	4.656986E-15	2.369020E-16
5.700000E+03	4.625585E-15	2.355714E-16
5.710000E+03	4.595741E-15	2.343188E-16
5.720000E+03	4.567547E-15	2.331376E-16
5.730000E+03	4.541269E-15	2.320330E-16
5.740000E+03	4.517267E-15	2.310208E-16
5.750000E+03	4.495812E-15	2.301161E-16
5.760000E+03	4.477000E-15	2.293282E-16
5.770000E+03	4.460793E-15	2.286609E-16
5.780000E+03	4.446980E-15	2.281093E-16
5.790000E+03	4.435079E-15	2.276531E-16
5.800000E+03	4.424373E-15	2.272587E-16
5.810000E+03	4.414100E-15	2.268872E-16
5.820000E+03	4.403569E-15	2.265030E-16
5.830000E+03	4.392175E-15	2.260759E-16
5.840000E+03	4.379506E-15	2.255872E-16
5.850000E+03	4.365502E-15	2.250368E-16
5.860000E+03	4.350459E-15	2.244407E-16
5.870000E+03	4.334869E-15	2.238208E-16
5.880000E+03	4.319266E-15	2.231972E-16
5.890000E+03	4.304469E-15	2.226031E-16
5.900000E+03	4.290950E-15	2.220542E-16
5.910000E+03	4.279100E-15	2.215659E-16
5.920000E+03	4.269134E-15	2.211506E-16
5.930000E+03	4.260917E-15	2.208082E-16
5.940000E+03	4.254210E-15	2.205365E-16
5.950000E+03	4.248515E-15	2.203200E-16
5.960000E+03	4.243369E-15	2.201411E-16
5.970000E+03	4.238213E-15	2.199734E-16
5.980000E+03	4.232671E-15	2.197963E-16
5.990000E+03	4.226384E-15	2.195870E-16
6.000000E+03	4.219188E-15	2.193317E-16
6.010000E+03	4.211107E-15	2.190273E-16
6.020000E+03	4.202234E-15	2.186760E-16
6.030000E+03	4.192713E-15	2.182855E-16
6.040000E+03	4.182827E-15	2.178728E-16
6.050000E+03	4.172974E-15	2.174625E-16
6.060000E+03	4.163473E-15	2.170752E-16
6.070000E+03	4.154671E-15	2.167320E-16
6.080000E+03	4.146885E-15	2.164508E-16
6.090000E+03	4.140239E-15	2.162382E-16
6.100000E+03	4.134571E-15	2.160862E-16
6.110000E+03	4.129809E-15	2.159915E-16
6.120000E+03	4.125403E-15	2.159246E-16
6.130000E+03	4.121001E-15	2.158636E-16
6.140000E+03	4.116154E-15	2.157775E-16
6.150000E+03	4.110398E-15	2.156325E-16
6.160000E+03	4.103706E-15	2.154192E-16
6.170000E+03	4.095893E-15	2.151254E-16
6.180000E+03	4.087198E-15	2.147692E-16
6.190000E+03	4.077767E-15	2.143723E-16
6.200000E+03	4.067845E-15	2.139676E-16
6.210000E+03	4.057472E-15	2.135761E-16
6.220000E+03	4.046590E-15	2.132040E-16
6.230000E+03	4.035032E-15	2.128345E-16
6.240000E+03	4.022393E-15	2.124205E-16
6.250000E+03	4.008262E-15	2.119043E-16
6.260000E+03	3.992329E-15	2.112348E-16
6.270000E+03	3.974315E-15	2.103767E-16
6.280000E+03	3.954232E-15	2.093318E-16
6.290000E+03	3.932436E-15	2.081413E-16
6.300000E+03	3.909480E-15	2.068680E-16
6.310000E+03	3.886289E-15	2.055921E-16
6.320000E+03	3.863797E-15	2.043794E-16
6.330000E+03	3.843209E-15	2.032872E-16
6.340000E+03	3.825484E-15	2.023353E-16
6.350000E+03	3.811507E-15	2.015210E-16
6.360000E+03	3.801803E-15	2.008193E-16
6.370000E+03	3.796687E-15	2.002094E-16
6.380000E+03	3.796213E-15	1.996867E-16
6.390000E+03	3.800279E-15	1.992704E-16
6.400000E+03	3.808504E-15	1.989904E-16
6.410000E+03	3.820471E-15	1.988893E-16
6.420000E+03	3.835806E-15	1.990173E-16
6.430000E+03	3.854042E-15	1.994154E-16
6.440000E+03	3.875082E-15	2.001325E-16
6.450000E+03	3.898910E-15	2.012037E-16
6.460000E+03	3.925581E-15	2.026500E-16
6.470000E+03	3.955537E-15	2.045051E-16
6.480000E+03	3.989092E-15	2.068198E-16
6.490000E+03	4.026531E-15	2.097132E-16
6.500000E+03	4.067873E-15	2.134101E-16
6.510000E+03	4.112764E-15	2.182632E-16
6.520000E+03	4.160181E-15	2.247122E-16
6.530000E+03	4.208621E-15	2.331840E-16
6.540000E+03	4.255123E-15	2.434649E-16
6.550000E+03	4.295044E-15	2.544289E-16
6.560000E+03	4.324013E-15	2.648197E-16
6.570000E+03	4.338195E-15	2.734634E-16
6.580000E+03	4.335114E-15	2.794370E-16
6.590000E+03	4.313454E-15	2.821378E-16
6.600000E+03	4.273143E-15	2.813270E-16
6.610000E+03	4.215647E-15	2.771456E-16
6.620000E+03	4.143591E-15	2.700478E-16
6.630000E+03	4.060343E-15	2.607036E-16
6.640000E+03	3.969849E-15	2.499065E-16
6.650000E+03	3.876148E-15	2.384630E-16
6.660000E+03	3.782964E-15	2.271047E-16
6.670000E+03	3.693393E-15	2.164261E-16
6.680000E+03	3.609790E-15	2.068560E-16
6.690000E+03	3.533514E-15	1.986359E-16
6.700000E+03	3.465435E-15	1.918552E-16
6.710000E+03	3.405653E-15	1.864524E-16
6.720000E+03	3.353871E-15	1.822649E-16
6.730000E+03	3.309450E-15	1.790715E-16
6.740000E+03	3.271521E-15	1.766397E-16
6.750000E+03	3.239084E-15	1.747631E-16
6.760000E+03	3.211104E-15	1.732802E-16
6.770000E+03	3.186647E-15	1.720794E-16
6.780000E+03	3.164712E-15	1.710788E-16
6.790000E+03	3.144657E-15	1.702360E-16
6.800000E+03	3.125842E-15	1.695173E-16
6.810000E+03	3.107808E-15	1.688988E-16
6.820000E+03	3.090445E-15	1.683677E-16
6.830000E+03	3.073656E-15	1.678996E-16
6.840000E+03	3.057544E-15	1.674668E-16
6.850000E+03	3.042315E-15	1.670371E-16
6.860000E+03	3.028228E-15	1.665792E-16
6.870000E+03	3.015553E-15	1.660715E-16
6.880000E+03	3.004532E-15	1.655115E-16
6.890000E+03	2.995334E-15	1.649174E-16
6.900000E+03	2.988032E-15	1.643232E-16
6.910000E+03	2.982571E-15	1.637675E-16
6.920000E+03	2.978766E-15	1.632828E-16
6.930000E+03	2.976324E-15	1.628878E-16
6.940000E+03	2.974882E-15	1.625855E-16
6.950000E+03	2.974057E-15	1.623653E-16
6.960000E+03	2.973497E-15	1.622080E-16
6.970000E+03	2.972923E-15	1.620919E-16
6.980000E+03	2.972143E-15	1.619971E-16
6.990000E+03	2.971062E-15	1.619093E-16
7.000000E+03	2.969660E-15	1.618208E-16
7.010000E+03	2.967965E-15	1.617295E-16
7.020000E+03	2.966017E-15	1.616359E-16
7.030000E+03	2.963837E-15	1.615398E-16
7.040000E+03	2.961389E-15	1.614370E-16
7.050000E+03	2.958558E-15	1.613188E-16
7.060000E+03	2.955130E-15	1.611726E-16
7.070000E+03	2.950735E-15	1.609787E-16
7.080000E+03	2.945092E-15	1.607253E-16
7.090000E+03	2.937661E-15	1.603887E-16
7.100000E+03	2.928174E-15	1.599621E-16
7.110000E+03	2.916274E-15	1.594341E-16
7.120000E+03	2.902050E-15	1.588164E-16
7.130000E+03	2.885634E-15	1.581192E-16
7.140000E+03	2.867584E-15	1.573707E-16
7.150000E+03	2.848601E-15	1.565999E-16
7.160000E+03	2.829484E-15	1.558338E-16
7.170000E+03	2.811026E-15	1.550915E-16
7.180000E+03	2.793917E-15	1.543826E-16
7.190000E+03	2.778627E-15	1.537061E-16
7.200000E+03	2.765600E-15	1.530671E-16
7.210000E+03	2.754872E-15	1.524619E-16
7.220000E+03	2.746495E-15	1.519025E-16
7.230000E+03	2.740422E-15	1.514087E-16
7.240000E+03	2.736389E-15	1.509950E-16
7.250000E+03	2.734232E-15	1.506818E-16
7.260000E+03	2.733902E-15	1.504897E-16
7.270000E+03	2.735178E-15	1.504205E-16
7.280000E+03	2.737797E-15	1.504640E-16
7.290000E+03	2.741536E-15	1.506049E-16
7.300000E+03	2.746015E-15	1.508155E-16
7.310000E+03	2.750762E-15	1.510618E-16
7.320000E+03	2.755253E-15	1.513069E-16
7.330000E+03	2.758983E-15	1.515153E-16
7.340000E+03	2.761488E-15	1.516544E-16
7.350000E+03	2.762581E-15	1.517091E-16
7.360000E+03	2.762214E-15	1.516755E-16
7.370000E+03	2.760533E-15	1.515643E-16
7.380000E+03	2.757837E-15	1.513974E-16
7.390000E+03	2.754450E-15	1.511984E-16
7.400000E+03	2.750865E-15	1.509992E-16
7.410000E+03	2.747245E-15	1.508117E-16
7.420000E+03	2.743755E-15	1.506467E-16
7.430000E+03	2.740233E-15	1.504955E-16
7.440000E+03	2.736484E-15	1.503481E-16
7.450000E+03	2.731898E-15	1.501749E-16
7.460000E+03	2.725925E-15	1.499545E-16
7.470000E+03	2.717911E-15	1.496678E-16
7.480000E+03	2.707170E-15	1.493047E-16
7.490000E+03	2.693246E-15	1.488791E-16
7.500000E+03	2.675806E-15	1.484208E-16
7.510000E+03	2.654769E-15	1.479752E-16
7.520000E+03	2.630347E-15	1.475930E-16
7.530000E+03	2.603000E-15	1.473111E-16
7.540000E+03	2.573589E-15	1.471468E-16
7.550000E+03	2.543121E-15	1.470773E-16
7.560000E+03	2.512649E-15	1.470385E-16
7.570000E+03	2.483338E-15	1.469452E-16
7.580000E+03	2.456200E-15	1.466985E-16
7.590000E+03	2.432095E-15	1.462113E-16
7.600000E+03	2.411659E-15	1.454272E-16
7.610000E+03	2.395521E-15	1.443491E-16
7.620000E+03	2.383870E-15	1.430171E-16
7.630000E+03	2.377065E-15	1.415390E-16
7.640000E+03	2.375005E-15	1.400358E-16
7.650000E+03	2.377550E-15	1.386444E-16
7.660000E+03	2.384274E-15	1.374797E-16
7.670000E+03	2.394458E-15	1.366155E-16
7.680000E+03	2.407299E-15	1.360855E-16
7.690000E+03	2.421815E-15	1.358754E-16
7.700000E+03	2.436934E-15	1.359313E-16
7.710000E+03	2.451761E-15	1.361829E-16
7.720000E+03	2.465482E-15	1.365476E-16
7.730000E+03	2.477419E-15	1.369443E-16
7.740000E+03	2.487231E-15	1.373134E-16
7.750000E+03	2.494735E-15	1.376132E-16
7.760000E+03	2.499936E-15	1.378228E-16
