#wls	flux	fluxerr
1.600000E+03	3.810233E-15	3.264995E-15
1.640000E+03	3.602211E-15	2.861291E-15
1.680000E+03	3.403473E-15	2.486366E-15
1.720000E+03	3.215932E-15	2.139977E-15
1.760000E+03	3.041051E-15	1.821024E-15
1.800000E+03	2.879559E-15	1.527657E-15
1.840000E+03	2.731443E-15	1.257674E-15
1.880000E+03	2.595769E-15	1.008898E-15
1.920000E+03	2.470985E-15	7.798570E-16
1.960000E+03	2.355351E-15	5.705648E-16
2.000000E+03	2.248329E-15	3.839700E-16
2.040000E+03	2.153167E-15	2.304566E-16
2.080000E+03	2.080826E-15	1.471877E-16
2.120000E+03	2.042131E-15	1.637106E-16
2.160000E+03	2.025967E-15	1.866996E-16
2.200000E+03	2.026157E-15	1.726750E-16
2.240000E+03	2.049970E-15	1.408677E-16
2.280000E+03	2.111683E-15	1.715361E-16
2.320000E+03	2.211688E-15	2.672768E-16
2.360000E+03	2.338601E-15	3.710588E-16
2.400000E+03	2.483263E-15	4.572390E-16
2.440000E+03	2.639307E-15	5.096430E-16
2.480000E+03	2.802284E-15	5.148524E-16
2.520000E+03	2.969964E-15	4.624668E-16
2.560000E+03	3.145225E-15	3.496486E-16
2.600000E+03	3.342772E-15	2.126411E-16
2.640000E+03	3.592035E-15	2.799857E-16
2.680000E+03	3.893347E-15	5.568436E-16
2.720000E+03	4.221569E-15	8.926702E-16
2.760000E+03	4.559627E-15	1.253192E-15
2.800000E+03	4.898033E-15	1.620763E-15
2.840000E+03	5.231709E-15	1.980472E-15
2.880000E+03	5.557679E-15	2.318695E-15
2.920000E+03	5.874167E-15	2.623040E-15
2.960000E+03	6.179954E-15	2.882325E-15
3.000000E+03	6.474267E-15	3.086646E-15
3.010000E+03	6.545986E-15	3.128098E-15
3.020000E+03	6.616910E-15	3.165427E-15
3.030000E+03	6.687064E-15	3.198533E-15
3.040000E+03	6.756438E-15	3.227299E-15
3.050000E+03	6.825018E-15	3.251616E-15
3.060000E+03	6.892790E-15	3.271377E-15
3.070000E+03	6.959700E-15	3.286463E-15
3.080000E+03	7.025764E-15	3.296796E-15
3.090000E+03	7.090960E-15	3.302283E-15
3.100000E+03	7.155262E-15	3.302837E-15
3.110000E+03	7.218599E-15	3.298359E-15
3.120000E+03	7.281017E-15	3.288810E-15
3.130000E+03	7.342395E-15	3.274084E-15
3.140000E+03	7.402729E-15	3.254135E-15
3.150000E+03	7.461926E-15	3.228892E-15
3.160000E+03	7.520015E-15	3.198344E-15
3.170000E+03	7.576850E-15	3.162417E-15
3.180000E+03	7.632406E-15	3.121102E-15
3.190000E+03	7.686609E-15	3.074385E-15
3.200000E+03	7.739380E-15	3.022261E-15
3.210000E+03	7.790590E-15	2.964726E-15
3.220000E+03	7.840190E-15	2.901823E-15
3.230000E+03	7.888085E-15	2.833596E-15
3.240000E+03	7.934173E-15	2.760108E-15
3.250000E+03	7.978346E-15	2.681442E-15
3.260000E+03	8.020495E-15	2.597701E-15
3.270000E+03	8.060458E-15	2.508999E-15
3.280000E+03	8.098164E-15	2.415506E-15
3.290000E+03	8.133493E-15	2.317403E-15
3.300000E+03	8.166325E-15	2.214898E-15
3.310000E+03	8.196541E-15	2.108232E-15
3.320000E+03	8.223978E-15	1.997668E-15
3.330000E+03	8.248618E-15	1.883536E-15
3.340000E+03	8.270264E-15	1.766160E-15
3.350000E+03	8.288871E-15	1.645936E-15
3.360000E+03	8.304365E-15	1.523295E-15
3.370000E+03	8.316691E-15	1.398719E-15
3.380000E+03	8.325779E-15	1.272747E-15
3.390000E+03	8.331738E-15	1.146018E-15
3.400000E+03	8.334532E-15	1.019257E-15
3.410000E+03	8.334378E-15	8.933895E-16
3.420000E+03	8.331373E-15	7.696000E-16
3.430000E+03	8.325841E-15	6.496015E-16
3.440000E+03	8.318161E-15	5.360699E-16
3.450000E+03	8.308836E-15	4.335840E-16
3.460000E+03	8.298470E-15	3.502340E-16
3.470000E+03	8.288061E-15	2.983744E-16
3.480000E+03	8.278883E-15	2.876544E-16
3.490000E+03	8.272681E-15	3.120977E-16
3.500000E+03	8.271402E-15	3.552319E-16
3.510000E+03	8.276310E-15	4.042732E-16
3.520000E+03	8.288013E-15	4.528519E-16
3.530000E+03	8.306229E-15	4.984230E-16
3.540000E+03	8.330107E-15	5.402231E-16
3.550000E+03	8.358415E-15	5.782255E-16
3.560000E+03	8.390232E-15	6.127013E-16
3.570000E+03	8.425042E-15	6.440275E-16
3.580000E+03	8.462887E-15	6.726320E-16
3.590000E+03	8.504286E-15	6.989744E-16
3.600000E+03	8.549998E-15	7.235294E-16
3.610000E+03	8.600718E-15	7.467605E-16
3.620000E+03	8.656816E-15	7.690870E-16
3.630000E+03	8.718194E-15	7.908521E-16
3.640000E+03	8.784297E-15	8.122961E-16
3.650000E+03	8.854245E-15	8.335430E-16
3.660000E+03	8.927121E-15	8.546076E-16
3.670000E+03	9.002005E-15	8.753945E-16
3.680000E+03	9.078498E-15	8.957619E-16
3.690000E+03	9.156600E-15	9.155522E-16
3.700000E+03	9.236791E-15	9.346479E-16
3.710000E+03	9.319664E-15	9.529624E-16
3.720000E+03	9.406098E-15	9.704442E-16
3.730000E+03	9.496560E-15	9.869663E-16
3.740000E+03	9.591315E-15	1.002321E-15
3.750000E+03	9.689835E-15	1.016173E-15
3.760000E+03	9.790903E-15	1.028129E-15
3.770000E+03	9.892494E-15	1.037814E-15
3.780000E+03	9.991785E-15	1.044946E-15
3.790000E+03	1.008531E-14	1.049402E-15
3.800000E+03	1.016893E-14	1.051216E-15
3.810000E+03	1.023852E-14	1.050592E-15
3.820000E+03	1.029006E-14	1.047805E-15
3.830000E+03	1.032038E-14	1.043148E-15
3.840000E+03	1.032776E-14	1.036896E-15
3.850000E+03	1.031214E-14	1.029294E-15
3.860000E+03	1.027569E-14	1.020676E-15
3.870000E+03	1.022214E-14	1.011478E-15
3.880000E+03	1.015642E-14	1.002255E-15
3.890000E+03	1.008399E-14	9.935986E-16
3.900000E+03	1.000985E-14	9.859899E-16
3.910000E+03	9.938238E-15	9.796879E-16
3.920000E+03	9.872213E-15	9.746162E-16
3.930000E+03	9.813634E-15	9.703517E-16
3.940000E+03	9.763086E-15	9.662062E-16
3.950000E+03	9.720274E-15	9.614247E-16
3.960000E+03	9.684269E-15	9.553792E-16
3.970000E+03	9.653571E-15	9.477023E-16
3.980000E+03	9.626539E-15	9.383834E-16
3.990000E+03	9.601640E-15	9.277628E-16
4.000000E+03	9.577532E-15	9.164253E-16
4.010000E+03	9.553549E-15	9.050758E-16
4.020000E+03	9.529621E-15	8.943546E-16
4.030000E+03	9.506434E-15	8.847360E-16
4.040000E+03	9.485108E-15	8.764865E-16
4.050000E+03	9.466520E-15	8.696665E-16
4.060000E+03	9.450723E-15	8.641645E-16
4.070000E+03	9.436772E-15	8.597424E-16
4.080000E+03	9.422875E-15	8.560594E-16
4.090000E+03	9.406692E-15	8.526520E-16
4.100000E+03	9.386170E-15	8.489487E-16
4.110000E+03	9.359828E-15	8.442968E-16
4.120000E+03	9.327023E-15	8.380798E-16
4.130000E+03	9.288149E-15	8.298669E-16
4.140000E+03	9.244558E-15	8.194956E-16
4.150000E+03	9.198220E-15	8.070493E-16
4.160000E+03	9.151469E-15	7.927700E-16
4.170000E+03	9.106542E-15	7.769267E-16
4.180000E+03	9.065319E-15	7.597267E-16
4.190000E+03	9.029107E-15	7.412943E-16
4.200000E+03	8.998190E-15	7.216911E-16
4.210000E+03	8.972381E-15	7.010258E-16
4.220000E+03	8.951045E-15	6.794597E-16
4.230000E+03	8.933820E-15	6.571817E-16
4.240000E+03	8.920515E-15	6.342787E-16
4.250000E+03	8.911581E-15	6.106848E-16
4.260000E+03	8.907488E-15	5.861266E-16
4.270000E+03	8.908464E-15	5.601433E-16
4.280000E+03	8.913486E-15	5.320765E-16
4.290000E+03	8.920291E-15	5.011618E-16
4.300000E+03	8.924948E-15	4.666533E-16
4.310000E+03	8.921992E-15	4.280486E-16
4.320000E+03	8.904730E-15	3.853909E-16
4.330000E+03	8.865816E-15	3.396874E-16
4.340000E+03	8.798143E-15	2.935122E-16
4.350000E+03	8.696240E-15	2.516925E-16
4.360000E+03	8.558566E-15	2.210864E-16
4.370000E+03	8.391032E-15	2.074702E-16
4.380000E+03	8.206995E-15	2.117536E-16
4.390000E+03	8.021803E-15	2.306145E-16
4.400000E+03	7.846477E-15	2.586345E-16
4.410000E+03	7.686590E-15	2.903447E-16
4.420000E+03	7.544049E-15	3.219358E-16
4.430000E+03	7.418853E-15	3.513949E-16
4.440000E+03	7.310220E-15	3.779156E-16
4.450000E+03	7.216878E-15	4.013458E-16
4.460000E+03	7.137244E-15	4.218427E-16
4.470000E+03	7.069799E-15	4.397013E-16
4.480000E+03	7.013192E-15	4.552614E-16
4.490000E+03	6.966385E-15	4.688591E-16
4.500000E+03	6.928465E-15	4.807713E-16
4.510000E+03	6.898998E-15	4.912080E-16
4.520000E+03	6.877369E-15	5.002545E-16
4.530000E+03	6.863225E-15	5.079104E-16
4.540000E+03	6.855943E-15	5.140725E-16
4.550000E+03	6.854783E-15	5.185698E-16
4.560000E+03	6.858632E-15	5.211693E-16
4.570000E+03	6.866185E-15	5.216177E-16
4.580000E+03	6.875773E-15	5.196591E-16
4.590000E+03	6.885629E-15	5.150923E-16
4.600000E+03	6.893781E-15	5.078002E-16
4.610000E+03	6.898391E-15	4.978101E-16
4.620000E+03	6.897692E-15	4.853115E-16
4.630000E+03	6.890364E-15	4.706850E-16
4.640000E+03	6.875469E-15	4.544719E-16
4.650000E+03	6.852778E-15	4.373450E-16
4.660000E+03	6.822636E-15	4.200334E-16
4.670000E+03	6.785882E-15	4.032521E-16
4.680000E+03	6.743879E-15	3.876473E-16
4.690000E+03	6.697954E-15	3.737176E-16
4.700000E+03	6.649613E-15	3.617943E-16
4.710000E+03	6.600553E-15	3.520227E-16
4.720000E+03	6.552440E-15	3.443489E-16
4.730000E+03	6.507341E-15	3.385814E-16
4.740000E+03	6.467496E-15	3.344626E-16
4.750000E+03	6.435309E-15	3.317618E-16
4.760000E+03	6.413218E-15	3.303401E-16
4.770000E+03	6.403815E-15	3.301980E-16
4.780000E+03	6.409309E-15	3.314537E-16
4.790000E+03	6.431560E-15	3.343187E-16
4.800000E+03	6.471101E-15	3.390017E-16
4.810000E+03	6.526963E-15	3.456349E-16
4.820000E+03	6.595926E-15	3.541455E-16
4.830000E+03	6.673041E-15	3.641968E-16
4.840000E+03	6.751781E-15	3.751474E-16
4.850000E+03	6.824966E-15	3.861144E-16
4.860000E+03	6.885774E-15	3.961050E-16
4.870000E+03	6.928186E-15	4.041578E-16
4.880000E+03	6.947895E-15	4.095106E-16
4.890000E+03	6.942455E-15	4.116912E-16
4.900000E+03	6.911858E-15	4.105793E-16
4.910000E+03	6.858045E-15	4.063552E-16
4.920000E+03	6.784796E-15	3.994424E-16
4.930000E+03	6.697144E-15	3.904206E-16
4.940000E+03	6.600780E-15	3.799612E-16
4.950000E+03	6.501219E-15	3.687699E-16
4.960000E+03	6.403424E-15	3.575518E-16
4.970000E+03	6.311137E-15	3.469317E-16
4.980000E+03	6.226771E-15	3.373772E-16
4.990000E+03	6.151293E-15	3.291231E-16
5.000000E+03	6.084454E-15	3.221559E-16
5.010000E+03	6.024718E-15	3.162427E-16
5.020000E+03	5.970220E-15	3.110613E-16
5.030000E+03	5.918885E-15	3.063054E-16
5.040000E+03	5.868994E-15	3.017973E-16
5.050000E+03	5.819786E-15	2.975463E-16
5.060000E+03	5.771588E-15	2.937022E-16
5.070000E+03	5.726127E-15	2.904656E-16
5.080000E+03	5.686138E-15	2.879829E-16
5.090000E+03	5.655019E-15	2.863314E-16
5.100000E+03	5.635873E-15	2.855510E-16
5.110000E+03	5.630668E-15	2.856798E-16
5.120000E+03	5.639825E-15	2.867539E-16
5.130000E+03	5.661933E-15	2.887565E-16
5.140000E+03	5.694069E-15	2.915664E-16
5.150000E+03	5.732258E-15	2.949242E-16
5.160000E+03	5.772240E-15	2.984570E-16
5.170000E+03	5.809901E-15	3.017369E-16
5.180000E+03	5.841733E-15	3.043711E-16
5.190000E+03	5.865341E-15	3.061007E-16
5.200000E+03	5.879170E-15	3.068371E-16
5.210000E+03	5.882848E-15	3.066809E-16
5.220000E+03	5.876827E-15	3.058471E-16
5.230000E+03	5.862231E-15	3.045717E-16
5.240000E+03	5.840557E-15	3.030305E-16
5.250000E+03	5.813647E-15	3.013201E-16
5.260000E+03	5.783135E-15	2.994497E-16
5.270000E+03	5.750445E-15	2.973655E-16
5.280000E+03	5.716880E-15	2.949637E-16
5.290000E+03	5.683215E-15	2.920659E-16
5.300000E+03	5.650139E-15	2.884461E-16
5.310000E+03	5.618167E-15	2.838554E-16
5.320000E+03	5.587569E-15	2.780685E-16
5.330000E+03	5.558823E-15	2.709551E-16
5.340000E+03	5.532203E-15	2.624831E-16
5.350000E+03	5.508197E-15	2.527173E-16
5.360000E+03	5.487032E-15	2.417334E-16
5.370000E+03	5.468691E-15	2.295496E-16
5.380000E+03	5.452879E-15	2.161251E-16
5.390000E+03	5.438471E-15	2.014819E-16
5.400000E+03	5.423543E-15	1.860251E-16
5.410000E+03	5.405260E-15	1.709777E-16
5.420000E+03	5.380179E-15	1.587200E-16
5.430000E+03	5.345287E-15	1.522675E-16
5.440000E+03	5.299646E-15	1.530360E-16
5.450000E+03	5.245657E-15	1.591947E-16
5.460000E+03	5.188031E-15	1.675730E-16
5.470000E+03	5.131652E-15	1.759836E-16
5.480000E+03	5.080806E-15	1.836726E-16
5.490000E+03	5.038316E-15	1.907660E-16
5.500000E+03	5.005294E-15	1.975632E-16
5.510000E+03	4.980590E-15	2.040981E-16
5.520000E+03	4.961726E-15	2.102047E-16
5.530000E+03	4.945680E-15	2.156816E-16
5.540000E+03	4.929483E-15	2.203603E-16
5.550000E+03	4.910480E-15	2.241238E-16
5.560000E+03	4.886823E-15	2.269305E-16
5.570000E+03	4.857626E-15	2.288158E-16
5.580000E+03	4.823042E-15	2.298798E-16
5.590000E+03	4.783950E-15	2.302547E-16
5.600000E+03	4.741825E-15	2.300882E-16
5.610000E+03	4.698405E-15	2.295235E-16
5.620000E+03	4.655166E-15	2.286742E-16
5.630000E+03	4.613447E-15	2.276384E-16
5.640000E+03	4.574023E-15	2.264914E-16
5.650000E+03	4.537097E-15	2.252879E-16
5.660000E+03	4.502693E-15	2.240729E-16
5.670000E+03	4.470436E-15	2.228662E-16
5.680000E+03	4.439970E-15	2.216802E-16
5.690000E+03	4.410845E-15	2.205103E-16
5.700000E+03	4.382965E-15	2.193598E-16
5.710000E+03	4.356327E-15	2.182321E-16
5.720000E+03	4.331012E-15	2.171343E-16
5.730000E+03	4.307433E-15	2.160925E-16
5.740000E+03	4.285920E-15	2.151291E-16
5.750000E+03	4.266868E-15	2.142696E-16
5.760000E+03	4.250460E-15	2.135292E-16
5.770000E+03	4.236728E-15	2.129170E-16
5.780000E+03	4.225449E-15	2.124288E-16
5.790000E+03	4.216165E-15	2.120495E-16
5.800000E+03	4.208068E-15	2.117421E-16
5.810000E+03	4.200240E-15	2.114546E-16
5.820000E+03	4.191797E-15	2.111338E-16
5.830000E+03	4.181923E-15	2.107357E-16
5.840000E+03	4.170166E-15	2.102434E-16
5.850000E+03	4.156528E-15	2.096685E-16
5.860000E+03	4.141316E-15	2.090348E-16
5.870000E+03	4.125216E-15	2.083732E-16
5.880000E+03	4.109098E-15	2.077141E-16
5.890000E+03	4.093897E-15	2.070874E-16
5.900000E+03	4.080310E-15	2.065094E-16
5.910000E+03	4.068884E-15	2.059939E-16
5.920000E+03	4.059710E-15	2.055450E-16
5.930000E+03	4.052770E-15	2.051775E-16
5.940000E+03	4.047689E-15	2.048957E-16
5.950000E+03	4.043810E-15	2.046861E-16
5.960000E+03	4.040608E-15	2.045308E-16
5.970000E+03	4.037435E-15	2.043992E-16
5.980000E+03	4.033865E-15	2.042663E-16
5.990000E+03	4.029475E-15	2.041018E-16
6.000000E+03	4.024199E-15	2.038919E-16
6.010000E+03	4.017988E-15	2.036270E-16
6.020000E+03	4.010779E-15	2.033010E-16
6.030000E+03	4.002800E-15	2.029270E-16
6.040000E+03	3.994229E-15	2.025190E-16
6.050000E+03	3.985459E-15	2.021042E-16
6.060000E+03	3.976827E-15	2.017080E-16
6.070000E+03	3.968920E-15	2.013650E-16
6.080000E+03	3.962174E-15	2.010948E-16
6.090000E+03	3.956753E-15	2.009011E-16
6.100000E+03	3.952768E-15	2.007886E-16
6.110000E+03	3.949874E-15	2.007428E-16
6.120000E+03	3.947519E-15	2.007407E-16
6.130000E+03	3.945066E-15	2.007498E-16
6.140000E+03	3.941800E-15	2.007218E-16
6.150000E+03	3.937236E-15	2.006123E-16
6.160000E+03	3.931185E-15	2.003941E-16
6.170000E+03	3.923835E-15	2.000697E-16
6.180000E+03	3.915529E-15	1.996634E-16
6.190000E+03	3.906787E-15	1.992247E-16
6.200000E+03	3.898085E-15	1.988171E-16
6.210000E+03	3.889700E-15	1.985003E-16
6.220000E+03	3.881660E-15	1.983030E-16
6.230000E+03	3.873565E-15	1.981903E-16
6.240000E+03	3.864802E-15	1.980757E-16
6.250000E+03	3.854688E-15	1.978494E-16
6.260000E+03	3.842411E-15	1.973999E-16
6.270000E+03	3.827572E-15	1.966656E-16
6.280000E+03	3.809946E-15	1.956398E-16
6.290000E+03	3.789846E-15	1.943876E-16
6.300000E+03	3.767880E-15	1.930111E-16
6.310000E+03	3.745279E-15	1.916368E-16
6.320000E+03	3.723374E-15	1.903736E-16
6.330000E+03	3.703611E-15	1.893068E-16
6.340000E+03	3.687273E-15	1.884725E-16
6.350000E+03	3.675335E-15	1.878437E-16
6.360000E+03	3.668456E-15	1.873544E-16
6.370000E+03	3.666840E-15	1.869401E-16
6.380000E+03	3.670435E-15	1.865807E-16
6.390000E+03	3.678929E-15	1.862983E-16
6.400000E+03	3.691778E-15	1.861328E-16
6.410000E+03	3.708322E-15	1.861266E-16
6.420000E+03	3.727650E-15	1.863095E-16
6.430000E+03	3.749107E-15	1.867210E-16
6.440000E+03	3.772024E-15	1.873925E-16
6.450000E+03	3.796044E-15	1.883650E-16
6.460000E+03	3.821176E-15	1.896912E-16
6.470000E+03	3.847565E-15	1.914223E-16
6.480000E+03	3.875833E-15	1.936397E-16
6.490000E+03	3.906475E-15	1.964718E-16
6.500000E+03	3.940126E-15	2.001650E-16
6.510000E+03	3.976901E-15	2.050780E-16
6.520000E+03	4.016352E-15	2.116176E-16
6.530000E+03	4.057074E-15	2.200085E-16
6.540000E+03	4.096375E-15	2.299671E-16
6.550000E+03	4.130525E-15	2.406290E-16
6.560000E+03	4.155320E-15	2.508159E-16
6.570000E+03	4.167294E-15	2.593736E-16
6.580000E+03	4.163675E-15	2.653424E-16
6.590000E+03	4.143166E-15	2.681026E-16
6.600000E+03	4.105580E-15	2.673935E-16
6.610000E+03	4.052070E-15	2.633231E-16
6.620000E+03	3.984918E-15	2.563120E-16
6.630000E+03	3.907270E-15	2.470087E-16
6.640000E+03	3.822801E-15	2.361874E-16
6.650000E+03	3.735367E-15	2.246529E-16
6.660000E+03	3.648364E-15	2.131420E-16
6.670000E+03	3.564788E-15	2.022881E-16
6.680000E+03	3.486868E-15	1.925753E-16
6.690000E+03	3.415901E-15	1.843113E-16
6.700000E+03	3.352739E-15	1.776404E-16
6.710000E+03	3.297451E-15	1.725154E-16
6.720000E+03	3.249878E-15	1.687396E-16
6.730000E+03	3.209280E-15	1.660008E-16
6.740000E+03	3.174881E-15	1.639849E-16
6.750000E+03	3.145625E-15	1.624350E-16
6.760000E+03	3.120484E-15	1.611850E-16
6.770000E+03	3.098714E-15	1.601488E-16
6.780000E+03	3.079580E-15	1.592751E-16
6.790000E+03	3.062548E-15	1.585367E-16
6.800000E+03	3.047157E-15	1.579115E-16
6.810000E+03	3.033197E-15	1.573897E-16
6.820000E+03	3.020379E-15	1.569531E-16
6.830000E+03	3.008526E-15	1.565821E-16
6.840000E+03	2.997446E-15	1.562502E-16
6.850000E+03	2.987112E-15	1.559354E-16
6.860000E+03	2.977356E-15	1.556054E-16
6.870000E+03	2.968091E-15	1.552361E-16
6.880000E+03	2.959241E-15	1.548141E-16
6.890000E+03	2.950957E-15	1.543506E-16
6.900000E+03	2.943231E-15	1.538595E-16
6.910000E+03	2.936267E-15	1.533732E-16
6.920000E+03	2.930019E-15	1.529118E-16
6.930000E+03	2.924585E-15	1.524999E-16
6.940000E+03	2.919783E-15	1.521412E-16
6.950000E+03	2.915588E-15	1.518384E-16
6.960000E+03	2.911747E-15	1.515751E-16
6.970000E+03	2.908172E-15	1.513404E-16
6.980000E+03	2.904761E-15	1.511216E-16
6.990000E+03	2.901463E-15	1.509104E-16
7.000000E+03	2.898278E-15	1.507067E-16
7.010000E+03	2.895246E-15	1.505174E-16
7.020000E+03	2.892420E-15	1.503531E-16
7.030000E+03	2.889842E-15	1.502190E-16
7.040000E+03	2.887503E-15	1.501103E-16
7.050000E+03	2.885262E-15	1.500122E-16
7.060000E+03	2.883028E-15	1.499151E-16
7.070000E+03	2.880350E-15	1.497940E-16
7.080000E+03	2.876782E-15	1.496284E-16
7.090000E+03	2.871703E-15	1.493925E-16
7.100000E+03	2.864465E-15	1.490627E-16
7.110000E+03	2.854561E-15	1.486263E-16
7.120000E+03	2.841792E-15	1.480855E-16
7.130000E+03	2.826370E-15	1.474575E-16
7.140000E+03	2.808855E-15	1.467722E-16
7.150000E+03	2.790252E-15	1.460788E-16
7.160000E+03	2.771467E-15	1.454108E-16
7.170000E+03	2.753519E-15	1.447931E-16
7.180000E+03	2.737185E-15	1.442267E-16
7.190000E+03	2.722982E-15	1.436958E-16
7.200000E+03	2.711092E-15	1.431761E-16
7.210000E+03	2.701617E-15	1.426607E-16
7.220000E+03	2.694276E-15	1.421490E-16
7.230000E+03	2.688875E-15	1.416661E-16
7.240000E+03	2.685181E-15	1.412438E-16
7.250000E+03	2.683042E-15	1.409142E-16
7.260000E+03	2.682343E-15	1.406994E-16
7.270000E+03	2.683193E-15	1.406160E-16
7.280000E+03	2.685460E-15	1.406524E-16
7.290000E+03	2.689054E-15	1.407925E-16
7.300000E+03	2.693628E-15	1.410069E-16
7.310000E+03	2.698618E-15	1.412586E-16
7.320000E+03	2.703261E-15	1.415016E-16
7.330000E+03	2.706898E-15	1.416933E-16
7.340000E+03	2.708951E-15	1.417909E-16
7.350000E+03	2.709090E-15	1.417660E-16
7.360000E+03	2.707288E-15	1.416148E-16
7.370000E+03	2.703762E-15	1.413569E-16
7.380000E+03	2.699083E-15	1.410371E-16
7.390000E+03	2.693904E-15	1.407037E-16
7.400000E+03	2.688873E-15	1.404004E-16
7.410000E+03	2.684429E-15	1.401571E-16
7.420000E+03	2.680842E-15	1.399905E-16
7.430000E+03	2.677992E-15	1.398904E-16
7.440000E+03	2.675449E-15	1.398285E-16
7.450000E+03	2.672565E-15	1.397670E-16
7.460000E+03	2.668527E-15	1.396609E-16
7.470000E+03	2.662623E-15	1.394742E-16
7.480000E+03	2.654102E-15	1.391759E-16
7.490000E+03	2.642555E-15	1.387623E-16
7.500000E+03	2.627610E-15	1.382405E-16
7.510000E+03	2.609419E-15	1.376506E-16
7.520000E+03	2.588465E-15	1.370481E-16
7.530000E+03	2.565514E-15	1.364911E-16
7.540000E+03	2.541676E-15	1.360313E-16
7.550000E+03	2.518079E-15	1.356915E-16
7.560000E+03	2.495703E-15	1.354619E-16
7.570000E+03	2.475428E-15	1.353095E-16
7.580000E+03	2.457783E-15	1.351720E-16
7.590000E+03	2.443004E-15	1.349738E-16
7.600000E+03	2.431038E-15	1.346445E-16
7.610000E+03	2.421782E-15	1.341469E-16
7.620000E+03	2.415018E-15	1.334785E-16
7.630000E+03	2.410475E-15	1.326711E-16
7.640000E+03	2.408049E-15	1.317915E-16
7.650000E+03	2.407644E-15	1.309186E-16
7.660000E+03	2.409144E-15	1.301279E-16
7.670000E+03	2.412526E-15	1.294864E-16
7.680000E+03	2.417629E-15	1.290344E-16
7.690000E+03	2.424092E-15	1.287807E-16
7.700000E+03	2.431519E-15	1.287117E-16
7.710000E+03	2.439347E-15	1.287877E-16
7.720000E+03	2.446923E-15	1.289498E-16
7.730000E+03	2.453769E-15	1.291402E-16
7.740000E+03	2.459478E-15	1.293079E-16
7.750000E+03	2.463740E-15	1.294216E-16
7.760000E+03	2.466529E-15	1.294817E-16
