#wls	flux	fluxerr
1.600000E+03	6.938828E-16	7.058723E-16
1.640000E+03	6.413074E-16	6.127808E-16
1.680000E+03	5.918208E-16	5.276619E-16
1.720000E+03	5.456344E-16	4.504679E-16
1.760000E+03	5.028928E-16	3.810422E-16
1.800000E+03	4.637102E-16	3.191722E-16
1.840000E+03	4.281902E-16	2.646239E-16
1.880000E+03	3.964442E-16	2.171768E-16
1.920000E+03	3.685675E-16	1.766481E-16
1.960000E+03	3.446873E-16	1.429847E-16
2.000000E+03	3.249027E-16	1.163293E-16
2.040000E+03	3.092354E-16	9.709128E-17
2.080000E+03	2.976087E-16	8.574779E-17
2.120000E+03	2.900468E-16	8.175948E-17
2.160000E+03	2.869803E-16	8.283915E-17
2.200000E+03	2.889230E-16	8.677558E-17
2.240000E+03	2.962934E-16	9.244547E-17
2.280000E+03	3.094860E-16	9.943207E-17
2.320000E+03	3.288746E-16	1.074113E-16
2.360000E+03	3.548338E-16	1.157515E-16
2.400000E+03	3.877364E-16	1.233553E-16
2.440000E+03	4.279432E-16	1.286958E-16
2.480000E+03	4.757950E-16	1.300685E-16
2.520000E+03	5.314698E-16	1.262748E-16
2.560000E+03	5.946813E-16	1.186039E-16
2.600000E+03	6.641204E-16	1.156331E-16
2.640000E+03	7.374414E-16	1.348316E-16
2.680000E+03	8.136708E-16	1.827676E-16
2.720000E+03	8.934560E-16	2.508407E-16
2.760000E+03	9.771916E-16	3.310732E-16
2.800000E+03	1.064548E-15	4.182553E-16
2.840000E+03	1.154630E-15	5.081899E-16
2.880000E+03	1.246200E-15	5.968397E-16
2.920000E+03	1.337743E-15	6.800595E-16
2.960000E+03	1.427618E-15	7.536619E-16
3.000000E+03	1.514111E-15	8.135736E-16
3.010000E+03	1.534996E-15	8.259596E-16
3.020000E+03	1.555545E-15	8.372051E-16
3.030000E+03	1.575713E-15	8.472488E-16
3.040000E+03	1.595473E-15	8.560419E-16
3.050000E+03	1.614819E-15	8.635493E-16
3.060000E+03	1.633724E-15	8.697288E-16
3.070000E+03	1.652146E-15	8.745311E-16
3.080000E+03	1.670059E-15	8.779211E-16
3.090000E+03	1.687460E-15	8.798784E-16
3.100000E+03	1.704307E-15	8.803656E-16
3.110000E+03	1.720599E-15	8.793710E-16
3.120000E+03	1.736295E-15	8.768662E-16
3.130000E+03	1.751397E-15	8.728493E-16
3.140000E+03	1.765867E-15	8.673020E-16
3.150000E+03	1.779688E-15	8.602220E-16
3.160000E+03	1.792870E-15	8.516230E-16
3.170000E+03	1.805401E-15	8.415135E-16
3.180000E+03	1.817229E-15	8.298876E-16
3.190000E+03	1.828412E-15	8.167961E-16
3.200000E+03	1.838881E-15	8.022350E-16
3.210000E+03	1.848703E-15	7.862660E-16
3.220000E+03	1.857813E-15	7.688980E-16
3.230000E+03	1.866264E-15	7.501944E-16
3.240000E+03	1.874067E-15	7.302044E-16
3.250000E+03	1.881214E-15	7.089747E-16
3.260000E+03	1.887726E-15	6.865668E-16
3.270000E+03	1.893651E-15	6.630562E-16
3.280000E+03	1.898996E-15	6.385068E-16
3.290000E+03	1.903820E-15	6.130046E-16
3.300000E+03	1.908144E-15	5.866249E-16
3.310000E+03	1.912039E-15	5.594640E-16
3.320000E+03	1.915537E-15	5.316097E-16
3.330000E+03	1.918724E-15	5.031700E-16
3.340000E+03	1.921645E-15	4.742482E-16
3.350000E+03	1.924377E-15	4.449641E-16
3.360000E+03	1.927026E-15	4.154560E-16
3.370000E+03	1.929659E-15	3.858700E-16
3.380000E+03	1.932396E-15	3.563888E-16
3.390000E+03	1.935337E-15	3.272284E-16
3.400000E+03	1.938541E-15	2.986554E-16
3.410000E+03	1.942186E-15	2.710412E-16
3.420000E+03	1.946307E-15	2.448601E-16
3.430000E+03	1.951081E-15	2.207819E-16
3.440000E+03	1.956533E-15	1.996821E-16
3.450000E+03	1.962802E-15	1.826781E-16
3.460000E+03	1.969974E-15	1.709786E-16
3.470000E+03	1.978116E-15	1.655368E-16
3.480000E+03	1.987358E-15	1.665892E-16
3.490000E+03	1.997795E-15	1.734423E-16
3.500000E+03	2.009555E-15	1.847777E-16
3.510000E+03	2.022784E-15	1.991645E-16
3.520000E+03	2.037582E-15	2.153954E-16
3.530000E+03	2.053970E-15	2.325792E-16
3.540000E+03	2.072067E-15	2.501238E-16
3.550000E+03	2.091841E-15	2.676356E-16
3.560000E+03	2.113296E-15	2.848728E-16
3.570000E+03	2.136444E-15	3.016948E-16
3.580000E+03	2.161243E-15	3.180171E-16
3.590000E+03	2.187694E-15	3.338035E-16
3.600000E+03	2.215743E-15	3.490355E-16
3.610000E+03	2.245390E-15	3.637180E-16
3.620000E+03	2.276572E-15	3.778560E-16
3.630000E+03	2.309283E-15	3.914672E-16
3.640000E+03	2.343455E-15	4.045602E-16
3.650000E+03	2.379076E-15	4.171519E-16
3.660000E+03	2.416105E-15	4.292510E-16
3.670000E+03	2.454438E-15	4.408512E-16
3.680000E+03	2.494124E-15	4.519683E-16
3.690000E+03	2.535028E-15	4.625792E-16
3.700000E+03	2.577197E-15	4.726884E-16
3.710000E+03	2.620477E-15	4.822575E-16
3.720000E+03	2.664898E-15	4.912753E-16
3.730000E+03	2.710265E-15	4.996838E-16
3.740000E+03	2.756561E-15	5.074519E-16
3.750000E+03	2.803565E-15	5.145063E-16
3.760000E+03	2.851087E-15	5.207759E-16
3.770000E+03	2.898945E-15	5.261878E-16
3.780000E+03	2.946859E-15	5.306498E-16
3.790000E+03	2.994610E-15	5.340804E-16
3.800000E+03	3.041906E-15	5.363849E-16
3.810000E+03	3.088558E-15	5.374873E-16
3.820000E+03	3.134384E-15	5.373132E-16
3.830000E+03	3.179227E-15	5.357935E-16
3.840000E+03	3.223054E-15	5.328810E-16
3.850000E+03	3.265966E-15	5.285530E-16
3.860000E+03	3.308123E-15	5.227982E-16
3.870000E+03	3.349733E-15	5.156179E-16
3.880000E+03	3.391121E-15	5.070390E-16
3.890000E+03	3.432757E-15	4.971207E-16
3.900000E+03	3.474920E-15	4.859094E-16
3.910000E+03	3.518156E-15	4.735129E-16
3.920000E+03	3.562717E-15	4.600298E-16
3.930000E+03	3.609078E-15	4.456324E-16
3.940000E+03	3.657417E-15	4.305127E-16
3.950000E+03	3.707919E-15	4.149384E-16
3.960000E+03	3.760721E-15	3.992592E-16
3.970000E+03	3.815805E-15	3.839031E-16
3.980000E+03	3.872987E-15	3.693700E-16
3.990000E+03	3.932049E-15	3.562173E-16
4.000000E+03	3.992527E-15	3.449814E-16
4.010000E+03	4.053906E-15	3.361102E-16
4.020000E+03	4.115398E-15	3.298498E-16
4.030000E+03	4.176150E-15	3.261933E-16
4.040000E+03	4.235026E-15	3.248538E-16
4.050000E+03	4.290836E-15	3.253417E-16
4.060000E+03	4.342195E-15	3.270536E-16
4.070000E+03	4.387579E-15	3.293796E-16
4.080000E+03	4.425599E-15	3.318010E-16
4.090000E+03	4.454963E-15	3.339300E-16
4.100000E+03	4.474645E-15	3.355273E-16
4.110000E+03	4.484163E-15	3.365030E-16
4.120000E+03	4.483715E-15	3.368874E-16
4.130000E+03	4.474101E-15	3.367847E-16
4.140000E+03	4.456666E-15	3.363318E-16
4.150000E+03	4.433333E-15	3.356753E-16
4.160000E+03	4.406228E-15	3.349299E-16
4.170000E+03	4.377467E-15	3.341621E-16
4.180000E+03	4.349145E-15	3.333979E-16
4.190000E+03	4.322972E-15	3.326093E-16
4.200000E+03	4.300426E-15	3.317400E-16
4.210000E+03	4.282557E-15	3.306994E-16
4.220000E+03	4.270007E-15	3.293627E-16
4.230000E+03	4.263206E-15	3.275744E-16
4.240000E+03	4.262184E-15	3.251179E-16
4.250000E+03	4.266815E-15	3.217225E-16
4.260000E+03	4.276644E-15	3.170514E-16
4.270000E+03	4.290866E-15	3.107163E-16
4.280000E+03	4.308453E-15	3.023181E-16
4.290000E+03	4.327934E-15	2.914771E-16
4.300000E+03	4.347348E-15	2.778911E-16
4.310000E+03	4.364409E-15	2.614257E-16
4.320000E+03	4.376379E-15	2.422079E-16
4.330000E+03	4.380215E-15	2.207674E-16
4.340000E+03	4.373065E-15	1.982225E-16
4.350000E+03	4.352587E-15	1.764441E-16
4.360000E+03	4.318013E-15	1.580964E-16
4.370000E+03	4.270836E-15	1.462079E-16
4.380000E+03	4.214844E-15	1.431595E-16
4.390000E+03	4.154930E-15	1.493752E-16
4.400000E+03	4.095229E-15	1.627581E-16
4.410000E+03	4.038444E-15	1.800203E-16
4.420000E+03	3.986332E-15	1.983851E-16
4.430000E+03	3.939660E-15	2.160749E-16
4.440000E+03	3.899075E-15	2.321488E-16
4.450000E+03	3.864689E-15	2.461880E-16
4.460000E+03	3.836641E-15	2.581129E-16
4.470000E+03	3.814921E-15	2.680350E-16
4.480000E+03	3.799642E-15	2.761880E-16
4.490000E+03	3.790920E-15	2.828610E-16
4.500000E+03	3.788929E-15	2.883624E-16
4.510000E+03	3.793832E-15	2.929847E-16
4.520000E+03	3.805902E-15	2.969928E-16
4.530000E+03	3.825255E-15	3.005914E-16
4.540000E+03	3.852060E-15	3.039351E-16
4.550000E+03	3.886105E-15	3.070965E-16
4.560000E+03	3.927121E-15	3.101002E-16
4.570000E+03	3.974474E-15	3.129120E-16
4.580000E+03	4.027367E-15	3.154700E-16
4.590000E+03	4.084676E-15	3.176884E-16
4.600000E+03	4.145033E-15	3.194796E-16
4.610000E+03	4.206817E-15	3.207672E-16
4.620000E+03	4.268402E-15	3.215145E-16
4.630000E+03	4.328065E-15	3.217203E-16
4.640000E+03	4.384136E-15	3.214225E-16
4.650000E+03	4.435015E-15	3.206836E-16
4.660000E+03	4.479431E-15	3.195899E-16
4.670000E+03	4.516285E-15	3.182245E-16
4.680000E+03	4.544659E-15	3.166600E-16
4.690000E+03	4.564020E-15	3.149665E-16
4.700000E+03	4.574058E-15	3.131934E-16
4.710000E+03	4.574812E-15	3.113682E-16
4.720000E+03	4.566759E-15	3.094969E-16
4.730000E+03	4.550802E-15	3.075722E-16
4.740000E+03	4.528469E-15	3.056114E-16
4.750000E+03	4.501631E-15	3.036641E-16
4.760000E+03	4.472355E-15	3.018213E-16
4.770000E+03	4.442953E-15	3.002245E-16
4.780000E+03	4.415326E-15	2.990178E-16
4.790000E+03	4.391257E-15	2.983613E-16
4.800000E+03	4.372000E-15	2.983942E-16
4.810000E+03	4.358565E-15	2.992387E-16
4.820000E+03	4.351266E-15	3.009365E-16
4.830000E+03	4.350174E-15	3.034350E-16
4.840000E+03	4.354867E-15	3.065332E-16
4.850000E+03	4.364532E-15	3.098836E-16
4.860000E+03	4.377962E-15	3.130416E-16
4.870000E+03	4.393851E-15	3.155768E-16
4.880000E+03	4.410774E-15	3.171684E-16
4.890000E+03	4.427048E-15	3.176582E-16
4.900000E+03	4.441505E-15	3.171124E-16
4.910000E+03	4.452956E-15	3.157291E-16
4.920000E+03	4.460553E-15	3.137712E-16
4.930000E+03	4.463975E-15	3.114883E-16
4.940000E+03	4.463212E-15	3.090527E-16
4.950000E+03	4.458542E-15	3.065642E-16
4.960000E+03	4.450334E-15	3.040781E-16
4.970000E+03	4.439205E-15	3.016534E-16
4.980000E+03	4.425482E-15	2.993329E-16
4.990000E+03	4.409640E-15	2.971654E-16
5.000000E+03	4.392026E-15	2.951712E-16
5.010000E+03	4.372904E-15	2.933327E-16
5.020000E+03	4.352449E-15	2.915919E-16
5.030000E+03	4.330696E-15	2.898610E-16
5.040000E+03	4.307866E-15	2.880751E-16
5.050000E+03	4.283979E-15	2.862015E-16
5.060000E+03	4.259395E-15	2.842891E-16
5.070000E+03	4.234573E-15	2.824384E-16
5.080000E+03	4.210105E-15	2.807704E-16
5.090000E+03	4.186558E-15	2.793871E-16
5.100000E+03	4.164600E-15	2.783667E-16
5.110000E+03	4.144418E-15	2.777255E-16
5.120000E+03	4.126182E-15	2.774583E-16
5.130000E+03	4.109556E-15	2.775202E-16
5.140000E+03	4.094253E-15	2.778771E-16
5.150000E+03	4.079892E-15	2.784987E-16
5.160000E+03	4.066167E-15	2.793570E-16
5.170000E+03	4.052894E-15	2.804085E-16
5.180000E+03	4.039970E-15	2.815729E-16
5.190000E+03	4.027595E-15	2.827473E-16
5.200000E+03	4.015795E-15	2.837858E-16
5.210000E+03	4.004889E-15	2.845537E-16
5.220000E+03	3.994952E-15	2.849100E-16
5.230000E+03	3.986239E-15	2.847505E-16
5.240000E+03	3.978920E-15	2.839940E-16
5.250000E+03	3.973134E-15	2.825840E-16
5.260000E+03	3.968972E-15	2.804836E-16
5.270000E+03	3.966465E-15	2.776719E-16
5.280000E+03	3.965572E-15	2.741434E-16
5.290000E+03	3.966165E-15	2.699085E-16
5.300000E+03	3.967957E-15	2.649857E-16
5.310000E+03	3.970762E-15	2.594084E-16
5.320000E+03	3.974060E-15	2.531757E-16
5.330000E+03	3.977515E-15	2.462614E-16
5.340000E+03	3.980491E-15	2.385605E-16
5.350000E+03	3.982571E-15	2.299190E-16
5.360000E+03	3.983052E-15	2.201368E-16
5.370000E+03	3.981397E-15	2.090707E-16
5.380000E+03	3.976968E-15	1.967256E-16
5.390000E+03	3.969101E-15	1.833778E-16
5.400000E+03	3.957207E-15	1.697007E-16
5.410000E+03	3.940597E-15	1.568563E-16
5.420000E+03	3.919002E-15	1.464877E-16
5.430000E+03	3.892475E-15	1.402760E-16
5.440000E+03	3.861516E-15	1.389503E-16
5.450000E+03	3.827084E-15	1.416717E-16
5.460000E+03	3.790655E-15	1.468285E-16
5.470000E+03	3.754469E-15	1.531455E-16
5.480000E+03	3.720911E-15	1.600385E-16
5.490000E+03	3.692312E-15	1.674211E-16
5.500000E+03	3.670248E-15	1.752933E-16
5.510000E+03	3.655170E-15	1.834647E-16
5.520000E+03	3.646625E-15	1.915807E-16
5.530000E+03	3.643546E-15	1.992597E-16
5.540000E+03	3.644683E-15	2.062068E-16
5.550000E+03	3.648375E-15	2.122376E-16
5.560000E+03	3.652927E-15	2.172927E-16
5.570000E+03	3.656712E-15	2.214093E-16
5.580000E+03	3.658354E-15	2.246815E-16
5.590000E+03	3.656858E-15	2.272235E-16
5.600000E+03	3.652034E-15	2.291693E-16
5.610000E+03	3.644230E-15	2.306494E-16
5.620000E+03	3.634554E-15	2.318074E-16
5.630000E+03	3.624605E-15	2.327895E-16
5.640000E+03	3.616102E-15	2.337223E-16
5.650000E+03	3.610470E-15	2.346820E-16
5.660000E+03	3.608522E-15	2.356719E-16
5.670000E+03	3.610330E-15	2.366355E-16
5.680000E+03	3.615278E-15	2.374973E-16
5.690000E+03	3.622232E-15	2.381999E-16
5.700000E+03	3.629771E-15	2.387163E-16
5.710000E+03	3.636445E-15	2.390384E-16
5.720000E+03	3.641046E-15	2.391654E-16
5.730000E+03	3.642903E-15	2.391078E-16
5.740000E+03	3.641782E-15	2.388800E-16
5.750000E+03	3.638246E-15	2.385319E-16
5.760000E+03	3.633279E-15	2.381325E-16
5.770000E+03	3.627760E-15	2.377421E-16
5.780000E+03	3.622493E-15	2.374185E-16
5.790000E+03	3.617762E-15	2.371927E-16
5.800000E+03	3.613125E-15	2.370545E-16
5.810000E+03	3.607722E-15	2.369724E-16
5.820000E+03	3.600844E-15	2.369383E-16
5.830000E+03	3.591966E-15	2.369771E-16
5.840000E+03	3.581256E-15	2.371680E-16
5.850000E+03	3.569398E-15	2.376001E-16
5.860000E+03	3.557582E-15	2.383244E-16
5.870000E+03	3.546791E-15	2.392693E-16
5.880000E+03	3.537864E-15	2.402500E-16
5.890000E+03	3.531052E-15	2.409950E-16
5.900000E+03	3.526361E-15	2.412552E-16
5.910000E+03	3.523385E-15	2.408699E-16
5.920000E+03	3.521180E-15	2.398008E-16
5.930000E+03	3.518799E-15	2.381650E-16
5.940000E+03	3.514929E-15	2.361626E-16
5.950000E+03	3.508602E-15	2.340457E-16
5.960000E+03	3.499000E-15	2.320142E-16
5.970000E+03	3.485960E-15	2.301802E-16
5.980000E+03	3.470007E-15	2.285557E-16
5.990000E+03	3.452207E-15	2.270914E-16
6.000000E+03	3.433774E-15	2.257316E-16
6.010000E+03	3.415626E-15	2.244427E-16
6.020000E+03	3.398198E-15	2.232163E-16
6.030000E+03	3.381254E-15	2.220374E-16
6.040000E+03	3.364591E-15	2.209038E-16
6.050000E+03	3.347860E-15	2.197965E-16
6.060000E+03	3.330862E-15	2.186973E-16
6.070000E+03	3.313680E-15	2.175994E-16
6.080000E+03	3.296288E-15	2.164858E-16
6.090000E+03	3.278514E-15	2.153377E-16
6.100000E+03	3.260369E-15	2.141724E-16
6.110000E+03	3.241844E-15	2.130344E-16
6.120000E+03	3.223045E-15	2.119842E-16
6.130000E+03	3.203999E-15	2.110432E-16
6.140000E+03	3.184799E-15	2.101688E-16
6.150000E+03	3.165463E-15	2.092519E-16
6.160000E+03	3.146158E-15	2.081819E-16
6.170000E+03	3.126904E-15	2.068888E-16
6.180000E+03	3.107595E-15	2.053803E-16
6.190000E+03	3.088320E-15	2.037610E-16
6.200000E+03	3.069198E-15	2.021815E-16
6.210000E+03	3.050256E-15	2.007686E-16
6.220000E+03	3.031587E-15	1.995817E-16
6.230000E+03	3.013258E-15	1.985900E-16
6.240000E+03	2.995262E-15	1.976946E-16
6.250000E+03	2.977489E-15	1.967706E-16
6.260000E+03	2.959777E-15	1.957111E-16
6.270000E+03	2.941721E-15	1.944434E-16
6.280000E+03	2.923158E-15	1.929752E-16
6.290000E+03	2.903860E-15	1.913609E-16
6.300000E+03	2.883861E-15	1.896837E-16
6.310000E+03	2.863446E-15	1.880140E-16
6.320000E+03	2.843145E-15	1.863906E-16
6.330000E+03	2.823698E-15	1.848294E-16
6.340000E+03	2.805709E-15	1.833186E-16
6.350000E+03	2.789920E-15	1.818516E-16
6.360000E+03	2.776735E-15	1.804096E-16
6.370000E+03	2.766409E-15	1.789833E-16
6.380000E+03	2.759025E-15	1.775722E-16
6.390000E+03	2.754269E-15	1.761564E-16
6.400000E+03	2.751822E-15	1.747019E-16
6.410000E+03	2.750931E-15	1.731250E-16
6.420000E+03	2.750903E-15	1.713342E-16
6.430000E+03	2.750843E-15	1.692356E-16
6.440000E+03	2.749769E-15	1.667593E-16
6.450000E+03	2.747040E-15	1.638999E-16
6.460000E+03	2.742330E-15	1.607258E-16
6.470000E+03	2.735642E-15	1.573935E-16
6.480000E+03	2.727511E-15	1.541763E-16
6.490000E+03	2.718889E-15	1.514634E-16
6.500000E+03	2.710962E-15	1.497342E-16
6.510000E+03	2.704934E-15	1.494954E-16
6.520000E+03	2.701522E-15	1.511586E-16
6.530000E+03	2.701139E-15	1.549025E-16
6.540000E+03	2.703432E-15	1.604991E-16
6.550000E+03	2.707603E-15	1.673438E-16
6.560000E+03	2.712611E-15	1.746566E-16
6.570000E+03	2.717159E-15	1.816649E-16
6.580000E+03	2.720250E-15	1.877440E-16
6.590000E+03	2.720905E-15	1.924429E-16
6.600000E+03	2.718482E-15	1.955122E-16
6.610000E+03	2.712730E-15	1.968949E-16
6.620000E+03	2.703589E-15	1.966840E-16
6.630000E+03	2.691585E-15	1.951137E-16
6.640000E+03	2.677370E-15	1.924869E-16
6.650000E+03	2.661836E-15	1.891473E-16
6.660000E+03	2.645905E-15	1.854383E-16
6.670000E+03	2.630433E-15	1.816783E-16
6.680000E+03	2.615890E-15	1.781273E-16
6.690000E+03	2.602735E-15	1.750019E-16
6.700000E+03	2.591065E-15	1.724352E-16
6.710000E+03	2.580892E-15	1.704786E-16
6.720000E+03	2.572194E-15	1.690960E-16
6.730000E+03	2.564773E-15	1.681718E-16
6.740000E+03	2.558392E-15	1.675626E-16
6.750000E+03	2.552971E-15	1.671534E-16
6.760000E+03	2.548335E-15	1.668610E-16
6.770000E+03	2.544220E-15	1.666310E-16
6.780000E+03	2.540592E-15	1.664455E-16
6.790000E+03	2.537225E-15	1.662828E-16
6.800000E+03	2.533896E-15	1.661211E-16
6.810000E+03	2.530324E-15	1.659344E-16
6.820000E+03	2.526243E-15	1.657011E-16
6.830000E+03	2.521224E-15	1.653949E-16
6.840000E+03	2.515128E-15	1.650131E-16
6.850000E+03	2.507764E-15	1.645509E-16
6.860000E+03	2.499200E-15	1.640187E-16
6.870000E+03	2.489470E-15	1.634226E-16
6.880000E+03	2.478925E-15	1.627864E-16
6.890000E+03	2.467774E-15	1.621200E-16
6.900000E+03	2.456240E-15	1.614308E-16
6.910000E+03	2.444458E-15	1.607189E-16
6.920000E+03	2.432518E-15	1.599818E-16
6.930000E+03	2.420326E-15	1.592067E-16
6.940000E+03	2.407813E-15	1.583864E-16
6.950000E+03	2.394941E-15	1.575211E-16
6.960000E+03	2.381742E-15	1.566197E-16
6.970000E+03	2.368386E-15	1.557039E-16
6.980000E+03	2.355008E-15	1.547932E-16
6.990000E+03	2.341840E-15	1.539095E-16
7.000000E+03	2.329111E-15	1.530662E-16
7.010000E+03	2.317053E-15	1.522679E-16
7.020000E+03	2.305650E-15	1.515009E-16
7.030000E+03	2.294992E-15	1.507666E-16
7.040000E+03	2.284895E-15	1.500595E-16
7.050000E+03	2.275171E-15	1.493811E-16
7.060000E+03	2.265389E-15	1.487149E-16
7.070000E+03	2.255265E-15	1.480479E-16
7.080000E+03	2.244322E-15	1.473508E-16
7.090000E+03	2.232143E-15	1.465978E-16
7.100000E+03	2.218431E-15	1.457709E-16
7.110000E+03	2.202913E-15	1.448555E-16
7.120000E+03	2.185518E-15	1.438501E-16
7.130000E+03	2.166612E-15	1.427800E-16
7.140000E+03	2.146469E-15	1.416607E-16
7.150000E+03	2.125780E-15	1.405315E-16
7.160000E+03	2.105109E-15	1.394179E-16
7.170000E+03	2.085205E-15	1.383527E-16
7.180000E+03	2.066610E-15	1.373514E-16
7.190000E+03	2.049610E-15	1.364113E-16
7.200000E+03	2.034512E-15	1.355338E-16
7.210000E+03	2.021318E-15	1.347061E-16
7.220000E+03	2.009957E-15	1.339213E-16
7.230000E+03	2.000297E-15	1.331799E-16
7.240000E+03	1.992246E-15	1.324962E-16
7.250000E+03	1.985647E-15	1.318871E-16
7.260000E+03	1.980439E-15	1.313773E-16
7.270000E+03	1.976595E-15	1.309886E-16
7.280000E+03	1.974064E-15	1.307327E-16
7.290000E+03	1.972759E-15	1.306070E-16
7.300000E+03	1.972341E-15	1.305802E-16
7.310000E+03	1.972355E-15	1.306013E-16
7.320000E+03	1.972275E-15	1.306099E-16
7.330000E+03	1.971406E-15	1.305387E-16
7.340000E+03	1.969352E-15	1.303506E-16
7.350000E+03	1.965787E-15	1.300257E-16
7.360000E+03	1.960732E-15	1.295763E-16
7.370000E+03	1.954583E-15	1.290446E-16
7.380000E+03	1.947927E-15	1.284857E-16
7.390000E+03	1.941589E-15	1.279672E-16
7.400000E+03	1.936431E-15	1.275544E-16
7.410000E+03	1.933173E-15	1.272999E-16
7.420000E+03	1.932288E-15	1.272349E-16
7.430000E+03	1.933773E-15	1.273545E-16
7.440000E+03	1.937301E-15	1.276285E-16
7.450000E+03	1.942261E-15	1.280068E-16
7.460000E+03	1.947932E-15	1.284312E-16
7.470000E+03	1.953468E-15	1.288363E-16
7.480000E+03	1.958163E-15	1.291697E-16
7.490000E+03	1.961513E-15	1.293974E-16
7.500000E+03	1.963296E-15	1.295097E-16
7.510000E+03	1.963650E-15	1.295263E-16
7.520000E+03	1.962885E-15	1.294822E-16
7.530000E+03	1.961534E-15	1.294297E-16
7.540000E+03	1.960207E-15	1.294258E-16
7.550000E+03	1.959249E-15	1.295046E-16
7.560000E+03	1.959007E-15	1.296893E-16
7.570000E+03	1.959428E-15	1.299589E-16
7.580000E+03	1.960347E-15	1.302629E-16
7.590000E+03	1.961286E-15	1.305158E-16
7.600000E+03	1.961916E-15	1.306475E-16
7.610000E+03	1.961783E-15	1.306067E-16
7.620000E+03	1.960596E-15	1.303914E-16
7.630000E+03	1.958210E-15	1.300452E-16
7.640000E+03	1.954690E-15	1.296446E-16
7.650000E+03	1.950108E-15	1.292591E-16
7.660000E+03	1.944645E-15	1.289340E-16
7.670000E+03	1.938508E-15	1.286779E-16
7.680000E+03	1.931658E-15	1.284576E-16
7.690000E+03	1.924148E-15	1.282439E-16
7.700000E+03	1.915782E-15	1.280053E-16
7.710000E+03	1.906401E-15	1.277305E-16
7.720000E+03	1.895974E-15	1.274272E-16
7.730000E+03	1.884467E-15	1.270991E-16
7.740000E+03	1.872208E-15	1.267569E-16
7.750000E+03	1.859494E-15	1.263830E-16
7.760000E+03	1.846773E-15	1.259435E-16
