#wls	flux	fluxerr
1.600000E+03	6.126336E-19	1.016521E-18
1.640000E+03	5.890491E-19	9.646441E-19
1.680000E+03	5.678070E-19	9.176851E-19
1.720000E+03	5.489554E-19	8.756329E-19
1.760000E+03	5.325409E-19	8.384644E-19
1.800000E+03	5.185694E-19	8.060834E-19
1.840000E+03	5.071832E-19	7.785978E-19
1.880000E+03	4.983603E-19	7.558516E-19
1.920000E+03	4.922211E-19	7.379004E-19
1.960000E+03	4.889009E-19	7.248118E-19
2.000000E+03	4.884350E-19	7.164958E-19
2.040000E+03	4.910080E-19	7.130770E-19
2.080000E+03	4.967949E-19	7.146547E-19
2.120000E+03	5.060074E-19	7.213712E-19
2.160000E+03	5.188986E-19	7.334165E-19
2.200000E+03	5.357681E-19	7.510340E-19
2.240000E+03	5.569676E-19	7.745250E-19
2.280000E+03	5.828570E-19	8.041850E-19
2.320000E+03	6.140024E-19	8.405734E-19
2.360000E+03	6.508424E-19	8.840459E-19
2.400000E+03	6.940955E-19	9.353070E-19
2.440000E+03	7.443423E-19	9.948284E-19
2.480000E+03	8.024169E-19	1.063366E-18
2.520000E+03	8.692674E-19	1.141744E-18
2.560000E+03	9.457363E-19	1.230546E-18
2.600000E+03	1.032989E-18	1.330637E-18
2.640000E+03	1.132257E-18	1.442784E-18
2.680000E+03	1.244917E-18	1.567705E-18
2.720000E+03	1.372406E-18	1.705888E-18
2.760000E+03	1.516679E-18	1.858100E-18
2.800000E+03	1.679592E-18	2.024517E-18
2.840000E+03	1.863194E-18	2.205008E-18
2.880000E+03	2.070260E-18	2.399666E-18
2.920000E+03	2.303238E-18	2.607463E-18
2.960000E+03	2.565592E-18	2.827726E-18
3.000000E+03	2.860337E-18	3.058401E-18
3.010000E+03	2.939421E-18	3.117360E-18
3.020000E+03	3.021081E-18	3.177073E-18
3.030000E+03	3.105138E-18	3.237243E-18
3.040000E+03	3.191389E-18	3.297551E-18
3.050000E+03	3.280423E-18	3.358497E-18
3.060000E+03	3.371763E-18	3.419478E-18
3.070000E+03	3.466031E-18	3.481010E-18
3.080000E+03	3.562717E-18	3.542464E-18
3.090000E+03	3.662476E-18	3.604377E-18
3.100000E+03	3.764765E-18	3.666094E-18
3.110000E+03	3.870272E-18	3.728168E-18
3.120000E+03	3.978419E-18	3.789925E-18
3.130000E+03	4.089925E-18	3.851935E-18
3.140000E+03	4.204175E-18	3.913503E-18
3.150000E+03	4.321921E-18	3.975220E-18
3.160000E+03	4.442506E-18	4.036369E-18
3.170000E+03	4.566716E-18	4.097566E-18
3.180000E+03	4.693847E-18	4.158075E-18
3.190000E+03	4.824719E-18	4.218536E-18
3.200000E+03	4.958577E-18	4.278199E-18
3.210000E+03	5.096274E-18	4.337732E-18
3.220000E+03	5.237000E-18	4.396371E-18
3.230000E+03	5.381190E-18	4.454442E-18
3.240000E+03	5.529322E-18	4.512293E-18
3.250000E+03	5.680490E-18	4.569152E-18
3.260000E+03	5.835629E-18	4.625765E-18
3.270000E+03	5.993760E-18	4.681359E-18
3.280000E+03	6.155849E-18	4.736718E-18
3.290000E+03	6.320841E-18	4.791067E-18
3.300000E+03	6.489187E-18	4.844824E-18
3.310000E+03	6.661378E-18	4.898436E-18
3.320000E+03	6.836231E-18	4.951135E-18
3.330000E+03	7.014779E-18	5.003804E-18
3.340000E+03	7.195745E-18	5.055678E-18
3.350000E+03	7.379569E-18	5.107251E-18
3.360000E+03	7.566728E-18	5.159041E-18
3.370000E+03	7.755798E-18	5.210282E-18
3.380000E+03	7.947866E-18	5.261938E-18
3.390000E+03	8.141400E-18	5.313232E-18
3.400000E+03	8.336811E-18	5.364698E-18
3.410000E+03	8.534552E-18	5.416879E-18
3.420000E+03	8.732927E-18	5.468957E-18
3.430000E+03	8.932327E-18	5.521448E-18
3.440000E+03	9.133190E-18	5.574871E-18
3.450000E+03	9.333649E-18	5.628326E-18
3.460000E+03	9.534082E-18	5.682277E-18
3.470000E+03	9.734910E-18	5.737180E-18
3.480000E+03	9.934102E-18	5.792018E-18
3.490000E+03	1.013202E-17	5.847171E-18
3.500000E+03	1.032908E-17	5.903004E-18
3.510000E+03	1.052307E-17	5.958360E-18
3.520000E+03	1.071436E-17	6.013525E-18
3.530000E+03	1.090334E-17	6.068762E-18
3.540000E+03	1.108766E-17	6.122783E-18
3.550000E+03	1.126764E-17	6.175782E-18
3.560000E+03	1.144368E-17	6.227946E-18
3.570000E+03	1.161327E-17	6.277874E-18
3.580000E+03	1.177673E-17	6.325707E-18
3.590000E+03	1.193342E-17	6.371051E-18
3.600000E+03	1.208372E-17	6.414045E-18
3.610000E+03	1.222494E-17	6.453214E-18
3.620000E+03	1.235741E-17	6.488689E-18
3.630000E+03	1.248049E-17	6.520080E-18
3.640000E+03	1.259456E-17	6.547555E-18
3.650000E+03	1.269690E-17	6.569657E-18
3.660000E+03	1.278792E-17	6.586595E-18
3.670000E+03	1.286707E-17	6.598060E-18
3.680000E+03	1.293489E-17	6.604327E-18
3.690000E+03	1.298873E-17	6.604046E-18
3.700000E+03	1.302927E-17	6.597564E-18
3.710000E+03	1.305616E-17	6.584721E-18
3.720000E+03	1.307022E-17	6.565945E-18
3.730000E+03	1.306908E-17	6.540059E-18
3.740000E+03	1.305372E-17	6.507583E-18
3.750000E+03	1.302413E-17	6.468536E-18
3.760000E+03	1.298039E-17	6.422980E-18
3.770000E+03	1.292375E-17	6.371559E-18
3.780000E+03	1.285229E-17	6.313355E-18
3.790000E+03	1.276746E-17	6.249106E-18
3.800000E+03	1.266968E-17	6.179057E-18
3.810000E+03	1.255947E-17	6.103491E-18
3.820000E+03	1.243848E-17	6.023237E-18
3.830000E+03	1.230528E-17	5.937635E-18
3.840000E+03	1.216166E-17	5.847588E-18
3.850000E+03	1.200841E-17	5.753513E-18
3.860000E+03	1.184638E-17	5.655849E-18
3.870000E+03	1.167645E-17	5.555052E-18
3.880000E+03	1.149952E-17	5.451591E-18
3.890000E+03	1.131747E-17	5.346387E-18
3.900000E+03	1.112931E-17	5.239005E-18
3.910000E+03	1.093691E-17	5.130368E-18
3.920000E+03	1.074119E-17	5.020931E-18
3.930000E+03	1.054301E-17	4.911130E-18
3.940000E+03	1.034321E-17	4.801381E-18
3.950000E+03	1.014257E-17	4.692078E-18
3.960000E+03	9.941864E-18	4.583584E-18
3.970000E+03	9.742595E-18	4.476615E-18
3.980000E+03	9.543761E-18	4.370717E-18
3.990000E+03	9.346802E-18	4.266557E-18
4.000000E+03	9.152277E-18	4.164387E-18
4.010000E+03	8.960703E-18	4.064439E-18
4.020000E+03	8.772561E-18	3.966917E-18
4.030000E+03	8.588298E-18	3.872010E-18
4.040000E+03	8.408335E-18	3.779886E-18
4.050000E+03	8.233072E-18	3.690701E-18
4.060000E+03	8.062885E-18	3.604597E-18
4.070000E+03	7.898134E-18	3.521707E-18
4.080000E+03	7.739162E-18	3.442154E-18
4.090000E+03	7.586291E-18	3.366049E-18
4.100000E+03	7.439826E-18	3.293496E-18
4.110000E+03	7.300046E-18	3.224588E-18
4.120000E+03	7.167810E-18	3.159672E-18
4.130000E+03	7.042121E-18	3.098275E-18
4.140000E+03	6.923779E-18	3.040721E-18
4.150000E+03	6.812929E-18	2.987041E-18
4.160000E+03	6.709670E-18	2.937246E-18
4.170000E+03	6.614053E-18	2.891327E-18
4.180000E+03	6.526078E-18	2.849250E-18
4.190000E+03	6.445694E-18	2.810960E-18
4.200000E+03	6.372794E-18	2.776375E-18
4.210000E+03	6.307225E-18	2.745393E-18
4.220000E+03	6.248781E-18	2.717889E-18
4.230000E+03	6.197212E-18	2.693717E-18
4.240000E+03	6.152226E-18	2.672714E-18
4.250000E+03	6.113494E-18	2.654702E-18
4.260000E+03	6.080655E-18	2.639488E-18
4.270000E+03	6.052811E-18	2.626647E-18
4.280000E+03	6.030575E-18	2.616413E-18
4.290000E+03	6.013007E-18	2.608345E-18
4.300000E+03	5.999669E-18	2.602225E-18
4.310000E+03	5.990116E-18	2.597831E-18
4.320000E+03	5.983900E-18	2.594943E-18
4.330000E+03	5.980575E-18	2.593347E-18
4.340000E+03	5.979705E-18	2.592832E-18
4.350000E+03	5.980862E-18	2.593195E-18
4.360000E+03	5.983636E-18	2.594243E-18
4.370000E+03	5.987637E-18	2.595795E-18
4.380000E+03	5.992502E-18	2.597685E-18
4.390000E+03	5.997893E-18	2.599760E-18
4.400000E+03	6.003509E-18	2.601884E-18
4.410000E+03	6.009083E-18	2.603940E-18
4.420000E+03	6.013880E-18	2.605611E-18
4.430000E+03	6.018728E-18	2.607259E-18
4.440000E+03	6.022976E-18	2.608605E-18
4.450000E+03	6.026522E-18	2.609613E-18
4.460000E+03	6.029310E-18	2.610266E-18
4.470000E+03	6.031324E-18	2.610566E-18
4.480000E+03	6.032591E-18	2.610535E-18
4.490000E+03	6.033178E-18	2.610212E-18
4.500000E+03	6.032680E-18	2.609433E-18
4.510000E+03	6.032256E-18	2.608710E-18
4.520000E+03	6.031570E-18	2.607907E-18
4.530000E+03	6.030823E-18	2.607122E-18
4.540000E+03	6.030243E-18	2.606461E-18
4.550000E+03	6.030083E-18	2.606041E-18
4.560000E+03	6.030612E-18	2.605987E-18
4.570000E+03	6.031610E-18	2.606205E-18
4.580000E+03	6.034396E-18	2.607272E-18
4.590000E+03	6.038771E-18	2.609102E-18
4.600000E+03	6.045052E-18	2.611833E-18
4.610000E+03	6.053556E-18	2.615601E-18
4.620000E+03	6.064600E-18	2.620540E-18
4.630000E+03	6.077978E-18	2.626558E-18
4.640000E+03	6.095015E-18	2.634220E-18
4.650000E+03	6.115479E-18	2.643420E-18
4.660000E+03	6.139628E-18	2.654259E-18
4.670000E+03	6.167694E-18	2.666828E-18
4.680000E+03	6.199348E-18	2.680970E-18
4.690000E+03	6.235794E-18	2.697191E-18
4.700000E+03	6.276621E-18	2.715296E-18
4.710000E+03	6.321891E-18	2.735291E-18
4.720000E+03	6.371073E-18	2.756922E-18
4.730000E+03	6.425189E-18	2.780606E-18
4.740000E+03	6.483593E-18	2.806033E-18
4.750000E+03	6.546112E-18	2.833095E-18
4.760000E+03	6.612513E-18	2.861654E-18
4.770000E+03	6.681935E-18	2.891297E-18
4.780000E+03	6.755156E-18	2.922319E-18
4.790000E+03	6.831216E-18	2.954258E-18
4.800000E+03	6.909672E-18	2.986875E-18
4.810000E+03	6.989457E-18	3.019659E-18
4.820000E+03	7.071248E-18	3.052854E-18
4.830000E+03	7.153950E-18	3.085934E-18
4.840000E+03	7.236441E-18	3.118367E-18
4.850000E+03	7.319450E-18	3.150419E-18
4.860000E+03	7.401913E-18	3.181587E-18
4.870000E+03	7.483418E-18	3.211650E-18
4.880000E+03	7.562972E-18	3.240145E-18
4.890000E+03	7.641574E-18	3.267467E-18
4.900000E+03	7.718393E-18	3.293229E-18
4.910000E+03	7.792664E-18	3.317083E-18
4.920000E+03	7.865697E-18	3.339566E-18
4.930000E+03	7.936925E-18	3.360422E-18
4.940000E+03	8.005854E-18	3.379432E-18
4.950000E+03	8.074114E-18	3.397275E-18
4.960000E+03	8.141392E-18	3.413812E-18
4.970000E+03	8.207421E-18	3.428927E-18
4.980000E+03	8.274083E-18	3.443400E-18
4.990000E+03	8.341226E-18	3.457158E-18
5.000000E+03	8.408707E-18	3.470133E-18
5.010000E+03	8.478534E-18	3.483139E-18
5.020000E+03	8.550586E-18	3.496105E-18
5.030000E+03	8.624703E-18	3.508940E-18
5.040000E+03	8.702884E-18	3.522426E-18
5.050000E+03	8.784902E-18	3.536425E-18
5.060000E+03	8.870443E-18	3.550763E-18
5.070000E+03	8.961380E-18	3.566132E-18
5.080000E+03	9.057260E-18	3.582280E-18
5.090000E+03	9.157514E-18	3.598905E-18
5.100000E+03	9.263804E-18	3.616576E-18
5.110000E+03	9.374585E-18	3.634592E-18
5.120000E+03	9.491365E-18	3.653435E-18
5.130000E+03	9.613185E-18	3.672621E-18
5.140000E+03	9.738953E-18	3.691616E-18
5.150000E+03	9.869962E-18	3.710790E-18
5.160000E+03	1.000411E-17	3.729221E-18
5.170000E+03	1.014259E-17	3.747223E-18
5.180000E+03	1.028398E-17	3.764138E-18
5.190000E+03	1.042677E-17	3.779282E-18
5.200000E+03	1.057204E-17	3.792923E-18
5.210000E+03	1.071729E-17	3.804033E-18
5.220000E+03	1.086356E-17	3.812874E-18
5.230000E+03	1.100822E-17	3.818414E-18
5.240000E+03	1.115231E-17	3.820926E-18
5.250000E+03	1.129404E-17	3.819718E-18
5.260000E+03	1.143153E-17	3.814116E-18
5.270000E+03	1.156579E-17	3.804439E-18
5.280000E+03	1.169389E-17	3.789736E-18
5.290000E+03	1.181679E-17	3.770383E-18
5.300000E+03	1.193142E-17	3.745503E-18
5.310000E+03	1.203869E-17	3.715549E-18
5.320000E+03	1.213536E-17	3.679753E-18
5.330000E+03	1.222223E-17	3.638674E-18
5.340000E+03	1.229592E-17	3.591691E-18
5.350000E+03	1.235712E-17	3.539504E-18
5.360000E+03	1.240226E-17	3.481685E-18
5.370000E+03	1.243192E-17	3.419112E-18
5.380000E+03	1.244241E-17	3.351591E-18
5.390000E+03	1.243422E-17	3.280211E-18
5.400000E+03	1.240361E-17	3.205039E-18
5.410000E+03	1.235110E-17	3.127382E-18
5.420000E+03	1.227306E-17	3.047559E-18
5.430000E+03	1.217019E-17	2.967043E-18
5.440000E+03	1.203922E-17	2.886317E-18
5.450000E+03	1.188128E-17	2.806884E-18
5.460000E+03	1.169380E-17	2.729204E-18
5.470000E+03	1.147869E-17	2.654567E-18
5.480000E+03	1.123448E-17	2.583135E-18
5.490000E+03	1.096440E-17	2.515700E-18
5.500000E+03	1.066885E-17	2.451846E-18
5.510000E+03	1.035301E-17	2.391701E-18
5.520000E+03	1.001908E-17	2.334330E-18
5.530000E+03	9.673086E-18	2.279512E-18
5.540000E+03	9.317623E-18	2.226225E-18
5.550000E+03	8.958452E-18	2.174299E-18
5.560000E+03	8.597881E-18	2.122921E-18
5.570000E+03	8.240234E-18	2.071991E-18
5.580000E+03	7.889329E-18	2.021537E-18
5.590000E+03	7.546515E-18	1.971200E-18
5.600000E+03	7.215426E-18	1.921427E-18
5.610000E+03	6.896698E-18	1.872077E-18
5.620000E+03	6.593047E-18	1.823729E-18
5.630000E+03	6.304460E-18	1.776356E-18
5.640000E+03	6.032331E-18	1.730420E-18
5.650000E+03	5.777660E-18	1.686364E-18
5.660000E+03	5.539680E-18	1.644172E-18
5.670000E+03	5.319382E-18	1.604380E-18
5.680000E+03	5.115666E-18	1.566921E-18
5.690000E+03	4.928683E-18	1.532111E-18
5.700000E+03	4.758390E-18	1.500211E-18
5.710000E+03	4.603416E-18	1.471057E-18
5.720000E+03	4.463950E-18	1.444961E-18
5.730000E+03	4.338551E-18	1.421696E-18
5.740000E+03	4.226918E-18	1.401382E-18
5.750000E+03	4.128691E-18	1.384101E-18
5.760000E+03	4.042439E-18	1.369558E-18
5.770000E+03	3.967814E-18	1.357795E-18
5.780000E+03	3.904453E-18	1.348833E-18
5.790000E+03	3.851010E-18	1.342337E-18
5.800000E+03	3.807506E-18	1.338421E-18
5.810000E+03	3.772673E-18	1.336737E-18
5.820000E+03	3.746270E-18	1.337277E-18
5.830000E+03	3.728087E-18	1.340036E-18
5.840000E+03	3.717004E-18	1.344667E-18
5.850000E+03	3.712914E-18	1.351177E-18
5.860000E+03	3.715763E-18	1.359585E-18
5.870000E+03	3.724603E-18	1.369573E-18
5.880000E+03	3.739505E-18	1.381188E-18
5.890000E+03	3.760611E-18	1.394502E-18
5.900000E+03	3.787163E-18	1.409247E-18
5.910000E+03	3.819441E-18	1.425534E-18
5.920000E+03	3.857807E-18	1.443502E-18
5.930000E+03	3.901703E-18	1.462946E-18
5.940000E+03	3.951631E-18	1.484050E-18
5.950000E+03	4.007831E-18	1.506901E-18
5.960000E+03	4.070961E-18	1.531739E-18
5.970000E+03	4.140696E-18	1.558428E-18
5.980000E+03	4.217804E-18	1.587243E-18
5.990000E+03	4.303129E-18	1.618482E-18
6.000000E+03	4.396454E-18	1.652037E-18
6.010000E+03	4.498691E-18	1.688221E-18
6.020000E+03	4.610810E-18	1.727361E-18
6.030000E+03	4.732617E-18	1.769341E-18
6.040000E+03	4.865093E-18	1.814478E-18
6.050000E+03	5.008826E-18	1.862933E-18
6.060000E+03	5.164838E-18	1.915021E-18
6.070000E+03	5.332800E-18	1.970545E-18
6.080000E+03	5.513659E-18	2.029776E-18
6.090000E+03	5.707883E-18	2.092794E-18
6.100000E+03	5.916396E-18	2.159840E-18
6.110000E+03	6.138546E-18	2.230566E-18
6.120000E+03	6.375103E-18	2.305138E-18
6.130000E+03	6.626266E-18	2.383500E-18
6.140000E+03	6.892743E-18	2.465766E-18
6.150000E+03	7.173389E-18	2.551375E-18
6.160000E+03	7.468704E-18	2.640341E-18
6.170000E+03	7.778515E-18	2.732424E-18
6.180000E+03	8.103247E-18	2.827574E-18
6.190000E+03	8.441154E-18	2.924961E-18
6.200000E+03	8.792425E-18	3.024416E-18
6.210000E+03	9.156469E-18	3.125475E-18
6.220000E+03	9.533410E-18	3.227892E-18
6.230000E+03	9.920825E-18	3.330535E-18
6.240000E+03	1.031858E-17	3.433030E-18
6.250000E+03	1.072564E-17	3.534678E-18
6.260000E+03	1.114084E-17	3.634723E-18
6.270000E+03	1.156390E-17	3.732684E-18
6.280000E+03	1.199145E-17	3.827076E-18
6.290000E+03	1.242291E-17	3.917331E-18
6.300000E+03	1.285660E-17	4.002544E-18
6.310000E+03	1.329071E-17	4.081795E-18
6.320000E+03	1.372443E-17	4.154524E-18
6.330000E+03	1.415330E-17	4.219117E-18
6.340000E+03	1.457615E-17	4.275060E-18
6.350000E+03	1.499050E-17	4.321539E-18
6.360000E+03	1.539364E-17	4.357822E-18
6.370000E+03	1.578269E-17	4.383276E-18
6.380000E+03	1.615595E-17	4.397783E-18
6.390000E+03	1.650738E-17	4.400247E-18
6.400000E+03	1.683485E-17	4.390911E-18
6.410000E+03	1.713471E-17	4.369871E-18
6.420000E+03	1.740321E-17	4.337492E-18
6.430000E+03	1.763649E-17	4.294436E-18
6.440000E+03	1.783222E-17	4.242056E-18
6.450000E+03	1.798355E-17	4.180926E-18
6.460000E+03	1.808838E-17	4.113053E-18
6.470000E+03	1.814336E-17	4.040354E-18
6.480000E+03	1.814556E-17	3.964953E-18
6.490000E+03	1.809260E-17	3.889068E-18
6.500000E+03	1.798277E-17	3.814858E-18
6.510000E+03	1.781678E-17	3.744554E-18
6.520000E+03	1.759170E-17	3.678940E-18
6.530000E+03	1.731056E-17	3.619076E-18
6.540000E+03	1.697633E-17	3.564795E-18
6.550000E+03	1.659346E-17	3.515086E-18
6.560000E+03	1.616747E-17	3.468386E-18
6.570000E+03	1.570455E-17	3.422915E-18
6.580000E+03	1.521125E-17	3.376936E-18
6.590000E+03	1.469432E-17	3.328941E-18
6.600000E+03	1.416164E-17	3.278051E-18
6.610000E+03	1.361721E-17	3.222931E-18
6.620000E+03	1.306845E-17	3.163513E-18
6.630000E+03	1.252109E-17	3.099815E-18
6.640000E+03	1.198031E-17	3.032172E-18
6.650000E+03	1.145075E-17	2.961175E-18
6.660000E+03	1.093642E-17	2.887592E-18
6.670000E+03	1.044073E-17	2.812309E-18
6.680000E+03	9.966457E-18	2.736263E-18
6.690000E+03	9.515820E-18	2.660400E-18
6.700000E+03	9.090476E-18	2.585625E-18
6.710000E+03	8.692348E-18	2.513000E-18
6.720000E+03	8.320610E-18	2.442841E-18
6.730000E+03	7.976391E-18	2.376035E-18
6.740000E+03	7.659704E-18	2.313147E-18
6.750000E+03	7.370296E-18	2.254642E-18
6.760000E+03	7.107706E-18	2.200896E-18
6.770000E+03	6.871317E-18	2.152201E-18
6.780000E+03	6.660400E-18	2.108780E-18
6.790000E+03	6.474160E-18	2.070792E-18
6.800000E+03	6.311766E-18	2.038347E-18
6.810000E+03	6.172379E-18	2.011519E-18
6.820000E+03	6.055178E-18	1.990348E-18
6.830000E+03	5.959372E-18	1.974857E-18
6.840000E+03	5.884212E-18	1.965048E-18
6.850000E+03	5.828994E-18	1.960917E-18
6.860000E+03	5.793063E-18	1.962450E-18
6.870000E+03	5.775811E-18	1.969630E-18
6.880000E+03	5.776668E-18	1.982432E-18
6.890000E+03	5.795098E-18	2.000829E-18
6.900000E+03	5.830591E-18	2.024789E-18
6.910000E+03	5.883169E-18	2.054452E-18
6.920000E+03	5.951326E-18	2.089418E-18
6.930000E+03	6.035092E-18	2.129808E-18
6.940000E+03	6.133985E-18	2.175563E-18
6.950000E+03	6.247517E-18	2.226611E-18
6.960000E+03	6.375197E-18	2.282876E-18
6.970000E+03	6.516527E-18	2.344274E-18
6.980000E+03	6.671010E-18	2.410715E-18
6.990000E+03	6.838155E-18	2.482109E-18
7.000000E+03	7.017484E-18	2.558363E-18
7.010000E+03	7.208541E-18	2.639388E-18
7.020000E+03	7.410901E-18	2.725102E-18
7.030000E+03	7.624179E-18	2.815428E-18
7.040000E+03	7.848042E-18	2.910303E-18
7.050000E+03	8.082210E-18	3.009674E-18
7.060000E+03	8.326465E-18	3.113503E-18
7.070000E+03	8.580651E-18	3.221767E-18
7.080000E+03	8.843899E-18	3.334164E-18
7.090000E+03	9.117696E-18	3.451269E-18
7.100000E+03	9.401301E-18	3.572810E-18
7.110000E+03	9.694762E-18	3.698802E-18
7.120000E+03	9.998146E-18	3.829257E-18
7.130000E+03	1.031152E-17	3.964180E-18
7.140000E+03	1.063495E-17	4.103558E-18
7.150000E+03	1.096844E-17	4.247353E-18
7.160000E+03	1.131194E-17	4.395492E-18
7.170000E+03	1.166532E-17	4.547860E-18
7.180000E+03	1.202832E-17	4.704285E-18
7.190000E+03	1.240058E-17	4.864535E-18
7.200000E+03	1.278157E-17	5.028308E-18
7.210000E+03	1.317057E-17	5.195225E-18
7.220000E+03	1.356671E-17	5.364824E-18
7.230000E+03	1.396889E-17	5.536559E-18
7.240000E+03	1.437584E-17	5.709798E-18
7.250000E+03	1.478605E-17	5.883823E-18
7.260000E+03	1.519783E-17	6.057836E-18
7.270000E+03	1.560930E-17	6.230965E-18
7.280000E+03	1.601838E-17	6.402273E-18
7.290000E+03	1.642288E-17	6.570773E-18
7.300000E+03	1.681898E-17	6.734851E-18
7.310000E+03	1.720719E-17	6.894636E-18
7.320000E+03	1.758362E-17	7.048510E-18
7.330000E+03	1.794582E-17	7.195458E-18
7.340000E+03	1.829140E-17	7.334507E-18
7.350000E+03	1.861811E-17	7.464752E-18
7.360000E+03	1.892383E-17	7.585369E-18
7.370000E+03	1.920668E-17	7.695641E-18
7.380000E+03	1.946504E-17	7.794970E-18
7.390000E+03	1.969758E-17	7.882890E-18
7.400000E+03	1.990332E-17	7.959075E-18
7.410000E+03	2.008166E-17	8.023352E-18
7.420000E+03	2.023059E-17	8.074985E-18
7.430000E+03	2.035382E-17	8.115526E-18
7.440000E+03	2.045017E-17	8.144547E-18
7.450000E+03	2.052060E-17	8.162474E-18
7.460000E+03	2.056644E-17	8.169870E-18
7.470000E+03	2.058940E-17	8.167425E-18
7.480000E+03	2.059150E-17	8.155946E-18
7.490000E+03	2.057508E-17	8.136340E-18
7.500000E+03	2.054269E-17	8.109600E-18
7.510000E+03	2.049532E-17	8.076072E-18
7.520000E+03	2.043951E-17	8.038289E-18
7.530000E+03	2.037648E-17	7.996664E-18
7.540000E+03	2.030930E-17	7.952325E-18
7.550000E+03	2.024102E-17	7.906373E-18
7.560000E+03	2.017457E-17	7.859859E-18
7.570000E+03	2.011276E-17	7.813753E-18
7.580000E+03	2.005816E-17	7.768925E-18
7.590000E+03	2.001308E-17	7.726120E-18
7.600000E+03	1.997773E-17	7.685256E-18
7.610000E+03	1.995725E-17	7.648132E-18
7.620000E+03	1.995106E-17	7.614328E-18
7.630000E+03	1.995994E-17	7.583924E-18
7.640000E+03	1.998421E-17	7.556820E-18
7.650000E+03	2.002376E-17	7.532734E-18
7.660000E+03	2.007806E-17	7.511216E-18
7.670000E+03	2.014440E-17	7.490999E-18
7.680000E+03	2.022505E-17	7.472673E-18
7.690000E+03	2.031663E-17	7.454722E-18
7.700000E+03	2.041730E-17	7.436214E-18
7.710000E+03	2.052502E-17	7.416161E-18
7.720000E+03	2.063761E-17	7.393552E-18
7.730000E+03	2.075101E-17	7.366725E-18
7.740000E+03	2.086665E-17	7.336013E-18
7.750000E+03	2.098052E-17	7.299842E-18
7.760000E+03	2.109051E-17	7.257373E-18
