#wls	flux	fluxerr
1.597604E+03	5.828971E-16	2.650383E-17
1.637544E+03	5.995734E-16	2.702698E-17
1.677484E+03	6.160151E-16	2.752162E-17
1.717424E+03	6.321806E-16	2.798575E-17
1.757364E+03	6.478976E-16	2.841170E-17
1.797304E+03	6.628116E-16	2.878419E-17
1.837244E+03	6.763563E-16	2.907948E-17
1.877184E+03	6.879527E-16	2.927432E-17
1.917124E+03	6.968890E-16	2.934099E-17
1.957064E+03	7.025228E-16	2.925606E-17
1.997004E+03	7.048962E-16	2.902561E-17
2.036945E+03	7.051949E-16	2.870240E-17
2.076885E+03	7.065013E-16	2.841330E-17
2.116825E+03	7.136818E-16	2.835012E-17
2.156765E+03	7.313654E-16	2.868550E-17
2.196705E+03	7.618846E-16	2.949348E-17
2.236645E+03	8.040679E-16	3.070884E-17
2.276585E+03	8.540244E-16	3.216577E-17
2.316525E+03	9.084564E-16	3.372823E-17
2.356465E+03	9.649680E-16	3.529999E-17
2.396405E+03	1.022158E-15	3.682576E-17
2.436345E+03	1.079453E-15	3.828264E-17
2.476286E+03	1.136867E-15	3.966965E-17
2.516226E+03	1.194689E-15	4.099510E-17
2.556166E+03	1.253256E-15	4.226843E-17
2.596106E+03	1.313033E-15	4.350247E-17
2.636046E+03	1.374478E-15	4.470875E-17
2.675986E+03	1.438045E-15	4.589757E-17
2.715926E+03	1.504209E-15	4.707883E-17
2.755866E+03	1.573613E-15	4.826640E-17
2.795806E+03	1.646816E-15	4.946998E-17
2.835746E+03	1.724628E-15	5.070528E-17
2.875686E+03	1.808356E-15	5.200022E-17
2.915627E+03	1.899925E-15	5.339672E-17
2.955567E+03	2.002301E-15	5.496033E-17
2.995507E+03	2.119600E-15	5.677959E-17
3.005492E+03	2.151843E-15	5.728648E-17
3.015477E+03	2.185445E-15	5.781805E-17
3.025462E+03	2.220541E-15	5.837727E-17
3.035447E+03	2.257256E-15	5.896657E-17
3.045432E+03	2.295716E-15	5.958846E-17
3.055417E+03	2.336196E-15	6.024917E-17
3.065402E+03	2.378705E-15	6.094789E-17
3.075387E+03	2.423366E-15	6.168674E-17
3.085372E+03	2.470043E-15	6.246122E-17
3.095357E+03	2.518477E-15	6.326383E-17
3.105342E+03	2.568037E-15	6.407791E-17
3.115327E+03	2.617881E-15	6.488209E-17
3.125312E+03	2.666986E-15	6.565103E-17
3.135297E+03	2.714292E-15	6.635921E-17
3.145282E+03	2.758842E-15	6.698434E-17
3.155267E+03	2.799765E-15	6.750683E-17
3.165252E+03	2.836671E-15	6.791919E-17
3.175237E+03	2.869393E-15	6.821955E-17
3.185222E+03	2.898308E-15	6.841892E-17
3.195207E+03	2.924183E-15	6.853727E-17
3.205192E+03	2.948085E-15	6.860103E-17
3.215177E+03	2.971484E-15	6.864516E-17
3.225162E+03	2.996236E-15	6.871257E-17
3.235147E+03	3.024024E-15	6.884092E-17
3.245132E+03	3.056229E-15	6.905994E-17
3.255117E+03	3.093489E-15	6.938182E-17
3.265102E+03	3.136189E-15	6.981260E-17
3.275087E+03	3.184200E-15	7.034676E-17
3.285072E+03	3.237800E-15	7.098785E-17
3.295057E+03	3.297424E-15	7.174255E-17
3.295686E+03	4.246636E-15	9.234990E-17
3.298683E+03	4.246043E-15	9.212366E-17
3.301680E+03	4.245923E-15	9.190773E-17
3.304677E+03	4.245167E-15	9.167821E-17
3.307674E+03	4.240080E-15	9.135547E-17
3.310671E+03	4.235343E-15	9.104092E-17
3.313668E+03	4.240806E-15	9.094561E-17
3.316665E+03	4.248341E-15	9.089423E-17
3.319663E+03	4.248099E-15	9.067613E-17
3.322659E+03	4.253499E-15	9.057834E-17
3.325656E+03	4.252355E-15	9.034108E-17
3.328653E+03	4.259190E-15	9.027310E-17
3.331650E+03	4.272773E-15	9.034727E-17
3.334647E+03	4.275627E-15	9.019380E-17
3.337644E+03	4.281783E-15	9.010971E-17
3.340641E+03	4.299482E-15	9.026738E-17
3.343638E+03	4.322075E-15	9.052599E-17
3.346635E+03	4.347473E-15	9.084097E-17
3.349632E+03	4.367555E-15	9.104282E-17
3.352628E+03	4.388718E-15	9.126527E-17
3.355626E+03	4.417355E-15	9.164070E-17
3.358622E+03	4.451864E-15	9.213501E-17
3.361620E+03	4.483393E-15	9.256442E-17
3.364616E+03	4.515629E-15	9.300547E-17
3.367614E+03	4.563069E-15	9.375577E-17
3.370610E+03	4.623126E-15	9.476020E-17
3.373608E+03	4.689160E-15	9.588096E-17
3.376604E+03	4.738574E-15	9.665636E-17
3.379602E+03	4.713178E-15	9.590471E-17
3.382598E+03	4.695503E-15	9.531256E-17
3.385595E+03	4.679042E-15	9.474688E-17
3.388592E+03	4.648454E-15	9.389759E-17
3.391589E+03	4.611970E-15	9.293274E-17
3.394586E+03	4.597681E-15	9.241774E-17
3.397583E+03	4.599567E-15	9.222873E-17
3.400580E+03	4.604374E-15	9.209808E-17
3.403577E+03	4.586237E-15	9.150939E-17
3.406574E+03	4.561346E-15	9.078818E-17
3.409571E+03	4.564140E-15	9.061935E-17
3.412567E+03	4.549395E-15	9.010307E-17
3.415565E+03	4.546395E-15	8.982040E-17
3.418561E+03	4.591132E-15	9.047905E-17
3.421559E+03	4.593105E-15	9.029278E-17
3.424555E+03	4.589060E-15	8.998860E-17
3.427553E+03	4.590628E-15	8.979472E-17
3.430549E+03	4.582390E-15	8.940964E-17
3.433547E+03	4.583676E-15	8.921089E-17
3.436543E+03	4.592523E-15	8.915909E-17
3.439541E+03	4.611249E-15	8.929787E-17
3.442537E+03	4.627379E-15	8.938499E-17
3.445534E+03	4.620393E-15	8.902538E-17
3.448531E+03	4.627193E-15	8.893156E-17
3.451528E+03	4.634337E-15	8.884399E-17
3.454525E+03	4.643535E-15	8.879516E-17
3.457522E+03	4.650023E-15	8.869409E-17
3.460519E+03	4.660394E-15	8.866644E-17
3.463516E+03	4.668424E-15	8.859367E-17
3.466513E+03	4.663506E-15	8.827524E-17
3.469510E+03	4.662352E-15	8.802868E-17
3.472507E+03	4.667639E-15	8.790372E-17
3.475504E+03	4.659262E-15	8.752192E-17
3.478500E+03	4.662562E-15	8.736000E-17
3.481498E+03	4.659391E-15	8.707702E-17
3.484494E+03	4.649997E-15	8.667871E-17
3.487492E+03	4.658598E-15	8.661607E-17
3.490488E+03	4.666446E-15	8.653901E-17
3.493486E+03	4.667097E-15	8.632832E-17
3.496482E+03	4.658008E-15	8.593822E-17
3.499480E+03	4.645871E-15	8.549312E-17
3.502476E+03	4.639190E-15	8.514971E-17
3.505473E+03	4.631283E-15	8.478478E-17
3.508470E+03	4.614139E-15	8.425218E-17
3.511467E+03	4.592259E-15	8.363534E-17
3.514464E+03	4.574015E-15	8.308687E-17
3.517461E+03	4.558800E-15	8.259538E-17
3.520458E+03	4.536913E-15	8.198502E-17
3.523455E+03	4.511270E-15	8.130941E-17
3.526452E+03	4.477272E-15	8.048629E-17
3.529449E+03	4.439047E-15	7.959094E-17
3.532446E+03	4.399866E-15	7.868236E-17
3.535443E+03	4.372433E-15	7.798739E-17
3.538439E+03	4.351174E-15	7.740514E-17
3.541437E+03	4.339343E-15	7.699243E-17
3.544433E+03	4.327266E-15	7.657685E-17
3.547431E+03	4.297547E-15	7.585132E-17
3.550427E+03	4.268562E-15	7.514185E-17
3.553425E+03	4.234877E-15	7.435285E-17
3.556421E+03	4.206030E-15	7.365207E-17
3.559419E+03	4.184790E-15	7.308711E-17
3.562415E+03	4.166686E-15	7.257914E-17
3.565413E+03	4.148945E-15	7.207943E-17
3.568409E+03	4.132770E-15	7.160890E-17
3.571407E+03	4.111417E-15	7.105067E-17
3.574403E+03	4.102584E-15	7.071060E-17
3.577400E+03	4.093383E-15	7.036538E-17
3.580397E+03	4.088144E-15	7.008923E-17
3.583394E+03	4.096478E-15	7.004606E-17
3.586391E+03	4.114521E-15	7.016804E-17
3.589388E+03	4.133736E-15	7.030874E-17
3.592385E+03	4.150999E-15	7.041494E-17
3.595382E+03	4.163434E-15	7.043833E-17
3.598379E+03	4.187356E-15	7.065478E-17
3.601376E+03	4.223590E-15	7.107673E-17
3.604373E+03	4.271160E-15	7.168603E-17
3.607370E+03	4.324900E-15	7.239485E-17
3.610366E+03	4.378336E-15	7.309424E-17
3.613364E+03	4.434341E-15	7.383201E-17
3.616360E+03	4.507501E-15	7.485019E-17
3.619358E+03	4.600780E-15	7.619548E-17
3.622354E+03	4.684397E-15	7.737348E-17
3.625352E+03	4.761828E-15	7.844262E-17
3.628348E+03	4.849316E-15	7.967075E-17
3.631346E+03	4.938374E-15	8.091737E-17
3.634342E+03	5.023991E-15	8.210056E-17
3.637339E+03	5.106527E-15	8.322660E-17
3.640336E+03	5.187893E-15	8.432693E-17
3.643333E+03	5.271544E-15	8.545785E-17
3.646331E+03	5.349856E-15	8.649572E-17
3.649327E+03	5.440088E-15	8.771968E-17
3.652325E+03	5.527834E-15	8.889637E-17
3.655321E+03	5.606441E-15	8.991962E-17
3.658319E+03	5.679366E-15	9.084576E-17
3.661315E+03	5.753386E-15	9.178381E-17
3.664313E+03	5.814733E-15	9.251443E-17
3.667309E+03	5.867577E-15	9.310561E-17
3.670306E+03	5.920703E-15	9.369738E-17
3.673303E+03	5.969252E-15	9.421294E-17
3.676300E+03	6.002811E-15	9.448915E-17
3.679297E+03	6.024363E-15	9.457456E-17
3.682294E+03	6.044688E-15	9.463969E-17
3.685291E+03	6.062846E-15	9.466978E-17
3.688288E+03	6.069858E-15	9.452550E-17
3.691285E+03	6.060428E-15	9.412582E-17
3.694282E+03	6.041313E-15	9.357759E-17
3.697279E+03	6.008044E-15	9.281283E-17
3.700276E+03	5.964419E-15	9.189197E-17
3.703272E+03	5.916582E-15	9.091060E-17
3.706270E+03	5.866073E-15	8.989275E-17
3.709266E+03	5.812778E-15	8.883713E-17
3.712264E+03	5.746938E-15	8.759520E-17
3.715260E+03	5.665991E-15	8.612965E-17
3.718258E+03	5.583003E-15	8.464026E-17
3.721254E+03	5.498686E-15	8.313816E-17
3.724252E+03	5.410107E-15	8.157912E-17
3.727248E+03	5.314810E-15	7.992685E-17
3.730245E+03	5.219727E-15	7.828600E-17
3.733242E+03	5.128372E-15	7.670904E-17
3.736239E+03	5.038983E-15	7.516931E-17
3.739236E+03	4.945940E-15	7.358284E-17
3.742233E+03	4.851706E-15	7.198669E-17
3.745230E+03	4.756636E-15	7.038610E-17
3.748227E+03	4.667857E-15	6.888646E-17
3.751224E+03	4.591548E-15	6.757781E-17
3.754221E+03	4.525704E-15	6.642931E-17
3.757218E+03	4.461677E-15	6.531299E-17
3.760215E+03	4.404592E-15	6.430356E-17
3.763211E+03	4.365271E-15	6.355768E-17
3.766209E+03	4.345311E-15	6.309639E-17
3.769205E+03	4.331649E-15	6.272832E-17
3.772203E+03	4.322644E-15	6.242894E-17
3.775199E+03	4.329446E-15	6.235838E-17
3.778197E+03	4.348539E-15	6.246420E-17
3.781193E+03	4.370618E-15	6.261177E-17
3.784191E+03	4.391850E-15	6.274587E-17
3.787187E+03	4.429392E-15	6.311118E-17
3.790184E+03	4.489586E-15	6.379589E-17
3.793181E+03	4.553864E-15	6.453420E-17
3.796178E+03	4.625114E-15	6.536658E-17
3.799175E+03	4.715000E-15	6.645654E-17
3.802172E+03	4.808696E-15	6.759369E-17
3.805169E+03	4.911506E-15	6.885182E-17
3.808166E+03	5.022838E-15	7.022179E-17
3.811163E+03	5.143249E-15	7.171032E-17
3.814160E+03	5.267768E-15	7.324736E-17
3.817157E+03	5.409748E-15	7.501757E-17
3.820154E+03	5.562019E-15	7.691996E-17
3.823150E+03	5.720188E-15	7.889277E-17
3.826148E+03	5.882176E-15	8.090669E-17
3.829144E+03	6.044294E-15	8.291091E-17
3.832142E+03	6.208610E-15	8.493358E-17
3.835138E+03	6.382122E-15	8.707012E-17
3.838136E+03	6.565383E-15	8.932693E-17
3.841132E+03	6.745653E-15	9.153027E-17
3.844130E+03	6.925225E-15	9.371140E-17
3.847126E+03	7.107080E-15	9.591081E-17
3.850123E+03	7.286976E-15	9.807116E-17
3.853120E+03	7.468350E-15	1.002387E-16
3.856117E+03	7.649830E-15	1.023952E-16
3.859114E+03	7.826267E-15	1.044718E-16
3.862111E+03	8.000758E-15	1.065105E-16
3.865108E+03	8.160874E-15	1.083462E-16
3.868105E+03	8.307330E-15	1.099904E-16
3.871102E+03	8.452905E-15	1.116131E-16
3.874099E+03	8.583366E-15	1.130271E-16
3.877096E+03	8.689887E-15	1.141181E-16
3.880093E+03	8.776367E-15	1.149399E-16
3.883089E+03	8.855451E-15	1.156598E-16
3.886087E+03	8.925119E-15	1.162521E-16
3.889083E+03	8.978234E-15	1.166254E-16
3.892081E+03	9.025156E-15	1.169154E-16
3.895077E+03	9.062826E-15	1.170836E-16
3.898075E+03	9.086516E-15	1.170698E-16
3.901071E+03	9.104956E-15	1.169878E-16
3.904069E+03	9.110815E-15	1.167441E-16
3.907065E+03	9.108528E-15	1.163969E-16
3.910063E+03	9.108598E-15	1.160806E-16
3.913059E+03	9.101900E-15	1.156794E-16
3.916056E+03	9.086847E-15	1.151736E-16
3.919053E+03	9.070351E-15	1.146514E-16
3.922050E+03	9.054878E-15	1.141442E-16
3.925047E+03	9.037512E-15	1.136151E-16
3.928044E+03	9.019149E-15	1.130758E-16
3.931041E+03	9.004399E-15	1.125836E-16
3.934038E+03	9.001019E-15	1.122353E-16
3.937035E+03	9.004704E-15	1.119759E-16
3.940032E+03	9.011974E-15	1.117617E-16
3.943029E+03	9.019459E-15	1.115506E-16
3.946026E+03	9.027596E-15	1.113480E-16
3.949023E+03	9.045917E-15	1.112710E-16
3.952020E+03	9.065323E-15	1.112071E-16
3.955016E+03	9.088954E-15	1.111946E-16
3.958014E+03	9.109985E-15	1.111498E-16
3.961010E+03	9.134332E-15	1.111449E-16
3.964008E+03	9.161549E-15	1.111742E-16
3.967004E+03	9.190515E-15	1.112240E-16
3.970002E+03	9.218326E-15	1.112588E-16
3.972999E+03	9.243539E-15	1.112618E-16
3.975995E+03	9.260918E-15	1.111701E-16
3.978993E+03	9.271937E-15	1.110020E-16
3.981989E+03	9.276826E-15	1.107613E-16
3.984987E+03	9.274923E-15	1.104403E-16
3.987983E+03	9.266146E-15	1.100391E-16
3.990981E+03	9.245059E-15	1.094936E-16
3.993977E+03	9.211795E-15	1.088068E-16
3.996975E+03	9.169158E-15	1.080128E-16
3.999971E+03	9.123034E-15	1.071816E-16
4.002969E+03	9.077635E-15	1.063630E-16
4.005965E+03	9.029634E-15	1.055180E-16
4.008963E+03	8.983802E-15	1.047023E-16
4.011959E+03	8.938473E-15	1.038966E-16
4.014956E+03	8.878411E-15	1.029240E-16
4.017953E+03	8.816556E-15	1.019355E-16
4.020950E+03	8.756100E-15	1.009681E-16
4.023947E+03	8.678647E-15	9.981005E-17
4.026944E+03	8.591821E-15	9.855046E-17
4.029941E+03	8.503464E-15	9.727971E-17
4.032938E+03	8.416430E-15	9.603064E-17
4.035935E+03	8.327973E-15	9.477167E-17
4.038932E+03	8.232714E-15	9.344206E-17
4.041929E+03	8.142080E-15	9.217156E-17
4.044926E+03	8.049587E-15	9.088670E-17
4.047922E+03	7.954694E-15	8.958142E-17
4.050920E+03	7.861571E-15	8.830269E-17
4.053916E+03	7.766276E-15	8.700630E-17
4.056914E+03	7.675261E-15	8.576436E-17
4.059910E+03	7.582614E-15	8.451074E-17
4.062908E+03	7.482327E-15	8.317860E-17
4.065904E+03	7.379989E-15	8.183069E-17
4.068902E+03	7.279649E-15	8.051178E-17
4.071898E+03	7.176594E-15	7.916982E-17
4.074895E+03	7.074874E-15	7.784951E-17
4.077892E+03	6.984837E-15	7.666419E-17
4.080889E+03	6.899381E-15	7.553525E-17
4.083886E+03	6.813385E-15	7.440621E-17
4.086883E+03	6.726523E-15	7.327369E-17
4.089880E+03	6.643904E-15	7.219309E-17
4.092877E+03	6.562589E-15	7.113231E-17
4.095874E+03	6.474108E-15	6.999953E-17
4.098871E+03	6.390949E-15	6.893009E-17
4.101867E+03	6.309416E-15	6.788371E-17
4.104865E+03	6.226581E-15	6.682875E-17
4.107861E+03	6.141689E-15	6.575731E-17
4.110859E+03	6.062967E-15	6.475728E-17
4.113855E+03	5.988025E-15	6.380279E-17
4.116853E+03	5.915126E-15	6.287494E-17
4.119849E+03	5.850965E-15	6.204466E-17
4.122847E+03	5.794336E-15	6.129840E-17
4.125843E+03	5.744256E-15	6.062529E-17
4.128841E+03	5.694783E-15	5.996217E-17
4.131837E+03	5.642358E-15	5.927169E-17
4.134835E+03	5.593021E-15	5.861724E-17
4.137831E+03	5.554620E-15	5.808074E-17
4.140828E+03	5.524232E-15	5.763085E-17
4.143825E+03	5.490664E-15	5.715045E-17
4.146822E+03	5.460689E-15	5.671016E-17
4.149819E+03	5.442569E-15	5.639527E-17
4.152816E+03	5.430703E-15	5.614713E-17
4.155813E+03	5.429478E-15	5.601047E-17
4.158810E+03	5.435874E-15	5.595358E-17
4.161807E+03	5.440879E-15	5.588332E-17
4.164804E+03	5.448884E-15	5.584489E-17
4.167800E+03	5.466094E-15	5.590151E-17
4.170798E+03	5.488425E-15	5.601092E-17
4.173794E+03	5.517369E-15	5.618805E-17
4.176792E+03	5.558361E-15	5.648769E-17
4.179788E+03	5.602092E-15	5.681479E-17
4.182786E+03	5.647492E-15	5.715831E-17
4.185782E+03	5.700317E-15	5.757642E-17
4.188780E+03	5.756398E-15	5.802661E-17
4.191776E+03	5.814346E-15	5.849485E-17
4.194773E+03	5.875009E-15	5.898957E-17
4.197770E+03	5.942108E-15	5.954792E-17
4.200767E+03	6.010742E-15	6.012064E-17
4.203764E+03	6.079100E-15	6.068959E-17
4.206761E+03	6.149414E-15	6.127715E-17
4.209758E+03	6.219029E-15	6.185682E-17
4.212755E+03	6.291979E-15	6.246882E-17
4.215752E+03	6.364970E-15	6.308034E-17
4.218749E+03	6.432279E-15	6.363492E-17
4.221746E+03	6.501015E-15	6.420307E-17
4.224743E+03	6.570540E-15	6.477857E-17
4.227740E+03	6.636303E-15	6.531660E-17
4.230737E+03	6.693551E-15	6.577078E-17
4.233733E+03	6.751072E-15	6.622780E-17
4.236731E+03	6.814257E-15	6.674045E-17
4.239727E+03	6.876654E-15	6.724556E-17
4.242725E+03	6.937210E-15	6.773286E-17
4.245721E+03	6.994768E-15	6.819131E-17
4.248719E+03	7.054816E-15	6.867447E-17
4.251715E+03	7.116720E-15	6.917623E-17
4.254713E+03	7.172361E-15	6.961771E-17
4.257709E+03	7.223021E-15	7.001172E-17
4.260706E+03	7.270073E-15	7.037181E-17
4.263703E+03	7.310050E-15	7.066464E-17
4.266700E+03	7.344118E-15	7.090187E-17
4.269697E+03	7.374920E-15	7.110919E-17
4.272694E+03	7.403921E-15	7.130094E-17
4.275691E+03	7.425889E-15	7.142686E-17
4.278688E+03	7.436835E-15	7.144897E-17
4.281685E+03	7.442861E-15	7.142617E-17
4.284682E+03	7.444607E-15	7.136484E-17
4.287679E+03	7.440192E-15	7.124708E-17
4.290676E+03	7.428683E-15	7.106420E-17
4.293673E+03	7.406838E-15	7.078541E-17
4.296670E+03	7.380126E-15	7.046324E-17
4.299667E+03	7.346971E-15	7.008278E-17
4.302664E+03	7.305813E-15	6.962927E-17
4.305661E+03	7.262006E-15	6.915393E-17
4.308658E+03	7.209696E-15	6.860103E-17
4.311655E+03	7.148580E-15	6.796790E-17
4.314652E+03	7.085242E-15	6.731721E-17
4.317649E+03	7.023028E-15	6.668073E-17
4.320646E+03	6.956825E-15	6.600985E-17
4.323643E+03	6.888305E-15	6.532047E-17
4.326639E+03	6.820596E-15	6.464219E-17
4.329637E+03	6.746407E-15	6.390587E-17
4.332633E+03	6.669598E-15	6.314809E-17
4.335631E+03	6.595580E-15	6.242003E-17
4.338627E+03	6.520503E-15	6.168514E-17
4.341625E+03	6.441560E-15	6.091681E-17
4.344621E+03	6.371226E-15	6.023297E-17
4.347619E+03	6.309076E-15	5.962942E-17
4.350615E+03	6.245545E-15	5.901567E-17
4.353612E+03	6.188730E-15	5.846816E-17
4.356609E+03	6.140286E-15	5.800243E-17
4.359606E+03	6.102276E-15	5.763788E-17
4.362603E+03	6.072095E-15	5.734985E-17
4.365600E+03	6.048285E-15	5.712453E-17
4.368597E+03	6.028972E-15	5.694420E-17
4.371594E+03	6.019745E-15	5.686163E-17
4.374591E+03	6.016347E-15	5.683665E-17
4.377588E+03	6.015772E-15	5.684082E-17
4.380585E+03	6.025155E-15	5.694159E-17
4.383582E+03	6.048830E-15	5.717998E-17
4.386578E+03	6.083889E-15	5.752858E-17
4.389576E+03	6.128150E-15	5.796689E-17
4.392572E+03	6.180982E-15	5.848906E-17
4.395570E+03	6.241244E-15	5.908441E-17
4.398566E+03	6.307997E-15	5.974420E-17
4.401564E+03	6.381548E-15	6.047147E-17
4.404560E+03	6.456626E-15	6.121640E-17
4.407558E+03	6.540865E-15	6.205153E-17
4.410554E+03	6.633227E-15	6.296718E-17
4.413552E+03	6.725352E-15	6.388421E-17
4.416548E+03	6.815593E-15	6.478701E-17
4.419545E+03	6.913433E-15	6.576582E-17
4.422542E+03	7.020101E-15	6.683261E-17
4.425539E+03	7.128176E-15	6.791692E-17
4.428536E+03	7.233235E-15	6.897673E-17
4.431533E+03	7.338356E-15	7.004140E-17
4.434530E+03	7.441909E-15	7.109546E-17
4.437527E+03	7.546459E-15	7.216344E-17
4.440524E+03	7.650056E-15	7.322683E-17
4.443521E+03	7.752490E-15	7.428361E-17
4.446518E+03	7.853571E-15	7.533204E-17
4.449515E+03	7.952873E-15	7.636801E-17
4.452511E+03	8.054414E-15	7.743017E-17
4.455509E+03	8.158910E-15	7.852560E-17
4.458505E+03	8.259890E-15	7.959202E-17
4.461503E+03	8.358377E-15	8.063932E-17
4.464499E+03	8.451826E-15	8.164282E-17
4.467497E+03	8.545352E-15	8.265191E-17
4.470493E+03	8.637435E-15	8.365187E-17
4.473491E+03	8.728778E-15	8.464957E-17
4.476487E+03	8.817544E-15	8.562712E-17
4.479484E+03	8.897992E-15	8.652866E-17
4.482481E+03	8.969308E-15	8.734600E-17
4.485478E+03	9.035094E-15	8.811382E-17
4.488475E+03	9.099436E-15	8.887190E-17
4.491472E+03	9.159069E-15	8.958817E-17
4.494469E+03	9.214917E-15	9.027158E-17
4.497466E+03	9.262773E-15	9.088059E-17
4.500463E+03	9.300000E-15	9.138902E-17
4.503460E+03	9.329965E-15	9.182940E-17
4.506457E+03	9.348889E-15	9.216424E-17
4.509454E+03	9.362109E-15	9.244557E-17
4.512451E+03	9.365218E-15	9.262961E-17
4.515448E+03	9.356998E-15	9.270364E-17
4.518444E+03	9.337767E-15	9.267027E-17
4.521442E+03	9.310284E-15	9.255638E-17
4.524438E+03	9.274243E-15	9.235833E-17
4.527436E+03	9.230783E-15	9.208709E-17
4.530432E+03	9.181127E-15	9.175431E-17
4.533430E+03	9.124762E-15	9.135458E-17
4.536426E+03	9.064259E-15	9.091313E-17
4.539424E+03	8.995825E-15	9.039167E-17
4.542420E+03	8.916720E-15	8.976199E-17
4.545417E+03	8.831530E-15	8.906972E-17
4.548414E+03	8.741489E-15	8.832696E-17
4.551411E+03	8.648637E-15	8.755390E-17
4.554408E+03	8.553074E-15	8.675141E-17
4.557405E+03	8.462769E-15	8.600011E-17
4.560402E+03	8.374649E-15	8.526907E-17
4.563399E+03	8.280041E-15	8.446975E-17
4.566396E+03	8.184865E-15	8.366230E-17
4.569393E+03	8.098099E-15	8.293843E-17
4.572389E+03	8.013612E-15	8.223576E-17
4.575387E+03	7.927940E-15	8.151875E-17
4.578383E+03	7.838232E-15	8.075780E-17
4.581381E+03	7.747847E-15	7.998738E-17
4.584377E+03	7.660454E-15	7.924523E-17
4.587375E+03	7.574326E-15	7.851365E-17
4.590371E+03	7.485882E-15	7.775537E-17
4.593369E+03	7.397481E-15	7.699486E-17
4.596365E+03	7.311151E-15	7.625308E-17
4.599363E+03	7.226374E-15	7.552480E-17
4.602359E+03	7.142144E-15	7.479945E-17
4.605357E+03	7.059065E-15	7.408342E-17
4.608353E+03	6.972454E-15	7.332739E-17
4.611350E+03	6.881497E-15	7.252256E-17
4.614347E+03	6.787316E-15	7.168048E-17
4.617344E+03	6.697542E-15	7.088152E-17
4.620341E+03	6.608814E-15	7.009043E-17
4.623338E+03	6.520421E-15	6.929953E-17
4.626335E+03	6.431345E-15	6.849806E-17
4.629332E+03	6.341788E-15	6.768800E-17
