#wls	flux	fluxerr
1.597604E+03	5.402229E-16	2.132621E-17
1.637544E+03	5.565796E-16	2.179913E-17
1.677484E+03	5.727687E-16	2.225162E-17
1.717424E+03	5.887503E-16	2.268191E-17
1.757364E+03	6.043623E-16	2.308367E-17
1.797304E+03	6.192711E-16	2.344427E-17
1.837244E+03	6.329426E-16	2.374403E-17
1.877184E+03	6.448298E-16	2.396358E-17
1.917124E+03	6.542526E-16	2.407947E-17
1.957064E+03	6.605973E-16	2.407176E-17
1.997004E+03	6.638876E-16	2.394450E-17
2.036945E+03	6.652269E-16	2.374038E-17
2.076885E+03	6.675203E-16	2.356411E-17
2.116825E+03	6.753749E-16	2.357534E-17
2.156765E+03	6.932074E-16	2.391971E-17
2.196705E+03	7.232786E-16	2.466190E-17
2.236645E+03	7.645333E-16	2.575068E-17
2.276585E+03	8.133194E-16	2.704975E-17
2.316525E+03	8.665285E-16	2.844644E-17
2.356465E+03	9.218933E-16	2.986045E-17
2.396405E+03	9.780852E-16	3.124533E-17
2.436345E+03	1.034559E-15	3.258162E-17
2.476286E+03	1.091335E-15	3.386844E-17
2.516226E+03	1.148696E-15	3.511283E-17
2.556166E+03	1.206974E-15	3.632290E-17
2.596106E+03	1.266629E-15	3.750988E-17
2.636046E+03	1.328120E-15	3.868406E-17
2.675986E+03	1.391905E-15	3.985488E-17
2.715926E+03	1.458468E-15	4.103156E-17
2.755866E+03	1.528468E-15	4.222712E-17
2.795806E+03	1.602487E-15	4.345121E-17
2.835746E+03	1.681363E-15	4.471905E-17
2.875686E+03	1.766432E-15	4.605711E-17
2.915627E+03	1.859659E-15	4.750503E-17
2.955567E+03	1.964056E-15	4.912458E-17
2.995507E+03	2.083809E-15	5.099970E-17
3.005492E+03	2.116746E-15	5.152002E-17
3.015477E+03	2.151074E-15	5.206463E-17
3.025462E+03	2.186935E-15	5.263637E-17
3.035447E+03	2.224450E-15	5.323749E-17
3.045432E+03	2.263749E-15	5.387039E-17
3.055417E+03	2.305102E-15	5.454077E-17
3.065402E+03	2.348518E-15	5.524796E-17
3.075387E+03	2.394109E-15	5.599377E-17
3.085372E+03	2.441730E-15	5.677390E-17
3.095357E+03	2.491122E-15	5.758156E-17
3.105342E+03	2.541681E-15	5.840212E-17
3.115327E+03	2.592610E-15	5.921692E-17
3.125312E+03	2.642925E-15	6.000345E-17
3.135297E+03	2.691606E-15	6.073896E-17
3.145282E+03	2.737733E-15	6.140353E-17
3.155267E+03	2.780466E-15	6.197947E-17
3.165252E+03	2.819421E-15	6.245970E-17
3.175237E+03	2.854414E-15	6.284177E-17
3.185222E+03	2.885761E-15	6.313423E-17
3.195207E+03	2.914081E-15	6.335209E-17
3.205192E+03	2.940196E-15	6.351439E-17
3.215177E+03	2.965351E-15	6.364881E-17
3.225162E+03	2.991343E-15	6.379409E-17
3.235147E+03	3.019782E-15	6.398403E-17
3.245132E+03	3.051962E-15	6.424493E-17
3.255117E+03	3.088577E-15	6.458978E-17
3.265102E+03	3.130035E-15	6.502526E-17
3.275087E+03	3.176177E-15	6.554614E-17
3.285072E+03	3.227344E-15	6.615755E-17
3.295057E+03	3.283921E-15	6.686531E-17
3.305042E+03	3.346367E-15	6.767652E-17
3.315027E+03	3.416101E-15	6.861737E-17
3.325012E+03	3.494240E-15	6.970718E-17
3.334998E+03	3.581104E-15	7.094894E-17
3.344983E+03	3.676839E-15	7.234204E-17
3.354968E+03	3.779868E-15	7.385214E-17
3.364953E+03	3.886951E-15	7.541350E-17
3.374938E+03	3.995055E-15	7.696618E-17
3.384923E+03	4.100372E-15	7.843706E-17
3.394908E+03	4.196961E-15	7.971461E-17
3.404893E+03	4.278712E-15	8.068730E-17
3.414878E+03	4.341520E-15	8.128452E-17
3.424863E+03	4.384040E-15	8.148905E-17
3.434848E+03	4.405537E-15	8.129570E-17
3.444833E+03	4.411125E-15	8.080675E-17
3.454818E+03	4.408096E-15	8.016131E-17
3.464803E+03	4.395706E-15	7.934953E-17
3.474788E+03	4.375401E-15	7.840112E-17
3.484773E+03	4.351634E-15	7.739852E-17
3.494758E+03	4.322085E-15	7.630225E-17
3.504743E+03	4.288043E-15	7.513720E-17
3.514728E+03	4.256793E-15	7.403192E-17
3.524713E+03	4.234344E-15	7.308911E-17
3.534698E+03	4.230964E-15	7.248126E-17
3.544683E+03	4.258238E-15	7.239804E-17
3.554668E+03	4.318445E-15	7.286617E-17
3.564653E+03	4.412272E-15	7.388467E-17
3.574638E+03	4.526548E-15	7.522208E-17
3.584623E+03	4.605489E-15	7.595100E-17
3.594608E+03	4.605599E-15	7.537330E-17
3.604593E+03	4.582323E-15	7.441933E-17
3.614578E+03	4.591679E-15	7.400073E-17
3.624563E+03	4.667137E-15	7.464079E-17
3.634548E+03	4.826287E-15	7.659452E-17
3.644533E+03	5.054535E-15	7.960184E-17
3.654518E+03	5.318088E-15	8.311001E-17
3.664503E+03	5.575482E-15	8.646385E-17
3.674488E+03	5.779747E-15	8.894342E-17
3.684473E+03	5.890429E-15	8.995040E-17
3.694458E+03	5.882017E-15	8.913165E-17
3.704443E+03	5.744577E-15	8.637968E-17
3.714428E+03	5.496109E-15	8.200777E-17
3.724413E+03	5.176741E-15	7.664796E-17
3.734398E+03	4.828279E-15	7.093807E-17
3.744383E+03	4.498743E-15	6.558725E-17
3.754368E+03	4.229640E-15	6.118872E-17
3.764353E+03	4.039652E-15	5.798960E-17
3.774338E+03	3.941941E-15	5.615045E-17
3.784324E+03	3.947090E-15	5.578994E-17
3.794309E+03	4.057998E-15	5.691484E-17
3.804294E+03	4.272585E-15	5.946185E-17
3.814279E+03	4.585739E-15	6.332725E-17
3.824264E+03	4.991234E-15	6.839472E-17
3.834249E+03	5.470300E-15	7.438053E-17
3.844234E+03	5.991196E-15	8.083432E-17
3.854219E+03	6.527943E-15	8.739643E-17
3.864204E+03	7.045846E-15	9.360242E-17
3.874189E+03	7.501467E-15	9.888689E-17
3.884174E+03	7.868620E-15	1.029277E-16
3.894159E+03	8.129949E-15	1.055277E-16
3.904144E+03	8.278112E-15	1.066249E-16
3.914129E+03	8.322784E-15	1.063774E-16
3.924114E+03	8.290052E-15	1.051472E-16
3.934099E+03	8.214210E-15	1.033886E-16
3.944084E+03	8.123155E-15	1.014625E-16
3.954069E+03	8.045286E-15	9.972539E-17
3.964054E+03	7.997937E-15	9.838655E-17
3.974039E+03	7.969352E-15	9.729397E-17
3.984024E+03	7.936121E-15	9.615886E-17
3.994009E+03	7.877722E-15	9.473589E-17
4.003994E+03	7.784918E-15	9.292165E-17
4.013979E+03	7.653027E-15	9.066992E-17
4.023964E+03	7.482246E-15	8.799317E-17
4.033949E+03	7.283067E-15	8.502374E-17
4.043934E+03	7.065968E-15	8.188994E-17
4.053919E+03	6.838288E-15	7.868022E-17
4.063904E+03	6.606364E-15	7.546901E-17
4.073889E+03	6.373811E-15	7.229770E-17
4.083874E+03	6.143003E-15	6.919251E-17
4.093859E+03	5.916222E-15	6.617782E-17
4.103844E+03	5.699347E-15	6.331730E-17
4.113829E+03	5.501167E-15	6.070493E-17
4.123814E+03	5.327729E-15	5.840216E-17
4.133799E+03	5.190581E-15	5.652877E-17
4.143784E+03	5.102683E-15	5.521684E-17
4.153769E+03	5.063747E-15	5.445284E-17
4.163754E+03	5.076998E-15	5.426138E-17
4.173739E+03	5.147168E-15	5.468287E-17
4.183724E+03	5.259922E-15	5.555575E-17
4.193709E+03	5.403026E-15	5.674467E-17
4.203694E+03	5.571210E-15	5.819045E-17
4.213679E+03	5.751215E-15	5.975248E-17
4.223665E+03	5.935653E-15	6.135405E-17
4.233650E+03	6.123103E-15	6.298154E-17
4.243635E+03	6.304260E-15	6.454102E-17
4.253620E+03	6.471639E-15	6.595889E-17
4.263605E+03	6.618376E-15	6.716912E-17
4.273590E+03	6.724821E-15	6.797736E-17
4.283575E+03	6.775487E-15	6.823386E-17
4.293560E+03	6.763841E-15	6.788026E-17
4.303545E+03	6.679569E-15	6.682028E-17
4.313530E+03	6.532698E-15	6.516064E-17
4.323515E+03	6.353711E-15	6.320919E-17
4.333500E+03	6.169119E-15	6.123038E-17
4.343485E+03	6.026840E-15	5.969792E-17
4.353470E+03	5.975414E-15	5.908827E-17
4.363455E+03	5.998945E-15	5.923975E-17
4.373440E+03	6.078922E-15	5.996726E-17
4.383425E+03	6.156188E-15	6.068700E-17
4.393410E+03	6.163963E-15	6.074160E-17
4.403395E+03	6.186979E-15	6.096642E-17
4.413380E+03	6.309510E-15	6.219186E-17
4.423365E+03	6.522972E-15	6.433477E-17
4.433350E+03	6.795511E-15	6.708377E-17
4.443335E+03	7.104019E-15	7.021393E-17
4.453320E+03	7.417007E-15	7.341694E-17
4.463305E+03	7.715503E-15	7.650687E-17
4.473290E+03	7.992443E-15	7.941457E-17
4.483275E+03	8.225931E-15	8.192215E-17
4.493260E+03	8.402746E-15	8.389572E-17
4.503245E+03	8.519983E-15	8.530244E-17
4.513230E+03	8.563986E-15	8.600031E-17
4.523215E+03	8.532497E-15	8.595954E-17
4.533200E+03	8.436875E-15	8.528666E-17
4.543185E+03	8.279326E-15	8.399609E-17
4.553170E+03	8.077551E-15	8.225966E-17
4.563155E+03	7.857457E-15	8.033525E-17
4.573140E+03	7.618829E-15	7.821654E-17
4.583125E+03	7.374414E-15	7.603073E-17
4.593110E+03	7.143116E-15	7.397094E-17
4.603095E+03	6.905395E-15	7.183404E-17
4.613080E+03	6.661067E-15	6.961556E-17
4.623065E+03	6.431055E-15	6.753266E-17
4.633050E+03	6.212450E-15	6.555538E-17
4.643035E+03	6.027398E-15	6.391900E-17
4.653020E+03	5.912188E-15	6.301449E-17
4.663005E+03	5.860784E-15	6.278763E-17
4.672991E+03	5.875469E-15	6.327290E-17
4.682976E+03	5.966280E-15	6.458969E-17
4.692961E+03	6.110968E-15	6.650874E-17
4.702946E+03	6.285913E-15	6.878091E-17
4.712931E+03	6.477253E-15	7.125912E-17
4.722916E+03	6.665731E-15	7.373333E-17
4.732901E+03	6.845919E-15	7.614274E-17
4.742886E+03	7.021527E-15	7.852732E-17
4.752871E+03	7.180098E-15	8.074613E-17
4.762856E+03	7.318448E-15	8.275993E-17
4.772841E+03	7.437289E-15	8.457290E-17
4.782826E+03	7.512045E-15	8.590012E-17
4.792811E+03	7.543363E-15	8.674029E-17
4.802796E+03	7.550891E-15	8.731186E-17
4.812781E+03	7.541060E-15	8.768464E-17
4.822766E+03	7.526960E-15	8.800792E-17
4.832751E+03	7.528901E-15	8.851925E-17
4.842736E+03	7.546117E-15	8.921233E-17
4.852721E+03	7.580712E-15	9.011478E-17
4.862706E+03	7.638496E-15	9.129913E-17
4.872691E+03	7.706319E-15	9.261151E-17
4.882676E+03	7.768911E-15	9.386905E-17
4.892661E+03	7.813650E-15	9.491711E-17
4.902646E+03	7.821280E-15	9.551668E-17
4.912631E+03	7.780706E-15	9.552407E-17
4.922616E+03	7.690671E-15	9.491414E-17
4.932601E+03	7.545405E-15	9.360556E-17
4.942586E+03	7.359796E-15	9.177323E-17
4.952571E+03	7.163351E-15	8.977914E-17
4.962556E+03	6.965753E-15	8.774318E-17
4.972541E+03	6.789964E-15	8.595581E-17
4.982526E+03	6.664757E-15	8.478721E-17
4.992511E+03	6.587664E-15	8.421531E-17
5.002496E+03	6.556392E-15	8.421952E-17
5.012481E+03	6.573063E-15	8.483560E-17
5.022466E+03	6.623324E-15	8.588606E-17
5.032451E+03	6.693575E-15	8.719965E-17
5.042436E+03	6.774714E-15	8.866058E-17
5.052421E+03	6.851104E-15	9.006501E-17
5.062406E+03	6.914934E-15	9.130871E-17
5.072391E+03	6.965990E-15	9.238642E-17
5.082376E+03	6.996042E-15	9.318609E-17
5.092361E+03	7.008802E-15	9.375362E-17
5.102346E+03	7.018176E-15	9.427277E-17
5.112332E+03	7.023036E-15	9.472762E-17
5.122317E+03	7.031401E-15	9.522596E-17
5.132302E+03	7.058794E-15	9.597935E-17
5.142287E+03	7.101516E-15	9.694025E-17
5.152272E+03	7.159176E-15	9.810566E-17
5.162257E+03	7.236049E-15	9.953655E-17
5.172242E+03	7.319290E-15	1.010584E-16
5.182227E+03	7.399747E-15	1.025451E-16
5.192212E+03	7.474948E-15	1.039617E-16
5.202197E+03	7.532108E-15	1.051288E-16
5.212182E+03	7.566441E-15	1.059765E-16
5.222167E+03	7.581843E-15	1.065562E-16
5.232152E+03	7.571914E-15	1.067748E-16
5.242137E+03	7.538911E-15	1.066606E-16
5.252122E+03	7.492541E-15	1.063484E-16
5.262107E+03	7.429902E-15	1.057950E-16
5.272092E+03	7.354598E-15	1.050499E-16
5.282077E+03	7.276575E-15	1.042540E-16
5.292062E+03	7.194156E-15	1.033831E-16
5.302047E+03	7.110048E-15	1.024758E-16
5.312032E+03	7.032424E-15	1.016502E-16
5.322017E+03	6.957903E-15	1.008583E-16
5.332002E+03	6.887636E-15	1.001175E-16
5.341987E+03	6.827027E-15	9.950715E-17
5.351972E+03	6.771286E-15	9.895859E-17
5.361957E+03	6.719911E-15	9.846519E-17
5.371942E+03	6.676838E-15	9.808541E-17
5.381927E+03	6.639440E-15	9.778164E-17
5.391912E+03	6.610308E-15	9.759289E-17
5.401897E+03	6.596903E-15	9.763058E-17
5.411882E+03	6.598217E-15	9.788152E-17
5.421867E+03	6.622095E-15	9.846398E-17
5.431852E+03	6.680109E-15	9.955274E-17
5.441837E+03	6.760262E-15	1.009720E-16
5.451822E+03	6.858011E-15	1.026559E-16
5.461807E+03	6.962142E-15	1.044375E-16
5.471792E+03	7.002645E-15	1.052649E-16
5.481777E+03	6.941693E-15	1.045621E-16
5.491762E+03	6.798923E-15	1.026163E-16
5.501747E+03	6.575326E-15	9.943520E-17
5.511732E+03	6.317671E-15	9.572068E-17
5.521717E+03	6.089471E-15	9.243440E-17
5.531702E+03	5.895983E-15	8.965916E-17
5.541687E+03	5.735389E-15	8.737051E-17
5.551672E+03	5.612176E-15	8.563984E-17
5.561658E+03	5.512250E-15	8.425486E-17
5.571643E+03	5.427481E-15	8.309306E-17
5.581628E+03	5.359306E-15	8.217777E-17
5.591613E+03	5.302192E-15	8.142530E-17
5.601598E+03	5.257730E-15	8.086101E-17
5.611583E+03	5.232050E-15	8.058026E-17
5.621568E+03	5.218868E-15	8.048736E-17
5.631553E+03	5.215541E-15	8.054233E-17
5.641538E+03	5.224049E-15	8.077638E-17
5.651523E+03	5.236932E-15	8.107467E-17
5.661508E+03	5.251512E-15	8.139594E-17
5.671493E+03	5.270665E-15	8.178486E-17
5.681478E+03	5.289634E-15	8.216771E-17
5.691463E+03	5.308010E-15	8.253809E-17
5.701448E+03	5.330171E-15	8.296409E-17
5.711433E+03	5.353386E-15	8.340330E-17
5.721418E+03	5.378153E-15	8.386345E-17
5.731403E+03	5.408536E-15	8.440802E-17
5.741388E+03	5.442000E-15	8.499758E-17
5.751373E+03	5.478771E-15	8.563571E-17
5.761358E+03	5.521255E-15	8.636011E-17
5.771343E+03	5.563330E-15	8.707507E-17
5.781328E+03	5.601651E-15	8.772812E-17
5.791313E+03	5.636263E-15	8.831981E-17
5.801298E+03	5.661035E-15	8.875389E-17
5.811283E+03	5.674568E-15	8.900815E-17
5.821268E+03	5.679447E-15	8.912291E-17
5.831253E+03	5.671259E-15	8.902874E-17
5.841238E+03	5.649697E-15	8.872067E-17
5.851223E+03	5.619443E-15	8.827209E-17
5.861208E+03	5.581017E-15	8.769116E-17
5.871193E+03	5.539173E-15	8.705263E-17
5.881178E+03	5.501293E-15	8.647263E-17
5.891163E+03	5.466027E-15	8.593008E-17
5.901148E+03	5.434339E-15	8.544029E-17
5.911133E+03	5.409428E-15	8.505371E-17
5.921118E+03	5.386103E-15	8.468881E-17
5.931103E+03	5.362089E-15	8.430996E-17
5.941088E+03	5.338924E-15	8.394144E-17
5.951073E+03	5.312992E-15	8.352649E-17
5.961058E+03	5.284613E-15	8.307028E-17
5.971043E+03	5.257466E-15	8.263077E-17
5.981028E+03	5.228298E-15	8.215696E-17
5.991013E+03	5.197504E-15	8.165519E-17
6.000999E+03	5.169139E-15	8.118929E-17
6.010984E+03	5.140847E-15	8.072236E-17
6.020969E+03	5.114055E-15	8.027693E-17
6.030954E+03	5.092031E-15	7.990437E-17
6.040939E+03	5.067976E-15	7.949809E-17
6.050924E+03	5.037288E-15	7.898606E-17
6.060909E+03	4.997845E-15	7.833530E-17
6.070894E+03	4.940142E-15	7.739718E-17
6.080879E+03	4.859331E-15	7.609632E-17
6.090864E+03	4.757098E-15	7.445979E-17
6.100849E+03	4.631615E-15	7.245965E-17
6.110834E+03	4.488541E-15	7.018515E-17
6.120819E+03	4.338947E-15	6.780995E-17
6.130804E+03	4.186609E-15	6.539338E-17
6.140789E+03	4.039960E-15	6.306736E-17
6.150774E+03	3.910001E-15	6.100356E-17
6.160759E+03	3.797750E-15	5.921758E-17
6.170744E+03	3.706806E-15	5.776515E-17
6.180729E+03	3.642896E-15	5.673500E-17
6.190714E+03	3.602657E-15	5.607413E-17
6.200699E+03	3.585005E-15	5.576511E-17
6.210684E+03	3.591049E-15	5.582462E-17
6.220669E+03	3.612857E-15	5.612886E-17
6.230654E+03	3.645673E-15	5.660358E-17
6.240639E+03	3.690782E-15	5.726852E-17
6.250624E+03	3.747584E-15	5.811413E-17
6.260609E+03	3.821864E-15	5.922981E-17
6.270594E+03	3.924393E-15	6.078204E-17
6.280579E+03	4.059731E-15	6.284074E-17
6.290564E+03	4.234330E-15	6.550497E-17
6.300549E+03	4.454771E-15	6.887563E-17
6.310534E+03	4.717109E-15	7.289078E-17
6.320519E+03	5.013028E-15	7.742123E-17
6.330504E+03	5.332701E-15	8.231475E-17
6.340489E+03	5.662474E-15	8.736057E-17
6.350474E+03	5.990193E-15	9.237145E-17
6.360459E+03	6.306796E-15	9.720828E-17
6.370444E+03	6.601311E-15	1.017027E-16
6.380429E+03	6.869571E-15	1.057917E-16
6.390414E+03	7.113202E-15	1.095011E-16
6.400399E+03	7.326502E-15	1.127442E-16
6.410384E+03	7.506911E-15	1.154826E-16
6.420369E+03	7.656685E-15	1.177520E-16
6.430354E+03	7.774730E-15	1.195365E-16
6.440339E+03	7.862247E-15	1.208551E-16
6.450325E+03	7.920456E-15	1.217270E-16
6.460310E+03	7.942160E-15	1.220418E-16
6.470295E+03	7.919953E-15	1.216857E-16
6.480280E+03	7.851135E-15	1.206173E-16
6.490265E+03	7.737411E-15	1.188625E-16
6.500250E+03	7.589094E-15	1.165795E-16
6.510235E+03	7.442019E-15	1.143186E-16
6.520220E+03	7.374403E-15	1.132808E-16
6.530205E+03	7.402039E-15	1.137085E-16
6.540190E+03	7.453036E-15	1.144971E-16
6.550175E+03	7.490248E-15	1.150758E-16
6.560160E+03	7.501482E-15	1.152571E-16
6.570145E+03	7.482081E-15	1.149691E-16
6.580130E+03	7.432528E-15	1.142189E-16
6.590115E+03	7.359203E-15	1.131040E-16
6.600100E+03	7.270763E-15	1.117573E-16
6.610085E+03	7.171293E-15	1.102412E-16
6.620070E+03	7.066083E-15	1.086368E-16
6.630055E+03	6.961206E-15	1.070371E-16
6.640040E+03	6.856747E-15	1.054434E-16
6.650025E+03	6.753633E-15	1.038696E-16
6.660010E+03	6.653270E-15	1.023373E-16
6.669995E+03	6.552530E-15	1.007981E-16
6.679980E+03	6.449911E-15	9.922884E-17
6.689965E+03	6.346290E-15	9.764288E-17
6.699950E+03	6.241015E-15	9.603001E-17
6.709935E+03	6.136401E-15	9.442580E-17
6.719920E+03	6.035798E-15	9.288168E-17
6.729905E+03	5.939553E-15	9.140294E-17
6.739890E+03	5.848677E-15	9.000506E-17
6.749875E+03	5.764806E-15	8.871316E-17
6.759860E+03	5.686251E-15	8.750119E-17
6.769845E+03	5.611779E-15	8.635014E-17
6.779830E+03	5.541576E-15	8.526278E-17
6.789815E+03	5.473332E-15	8.420352E-17
6.799800E+03	5.406371E-15	8.316196E-17
6.809785E+03	5.341371E-15	8.214843E-17
6.819770E+03	5.276740E-15	8.113846E-17
6.829755E+03	5.212032E-15	8.012517E-17
6.839740E+03	5.148144E-15	7.912233E-17
6.849725E+03	5.083531E-15	7.810619E-17
6.859710E+03	5.017909E-15	7.707243E-17
6.869695E+03	4.952683E-15	7.604265E-17
6.879680E+03	4.888089E-15	7.502049E-17
6.889666E+03	4.826241E-15	7.403840E-17
6.899651E+03	4.769878E-15	7.313838E-17
6.909636E+03	4.719439E-15	7.232703E-17
6.919621E+03	4.675581E-15	7.161434E-17
6.929606E+03	4.638784E-15	7.100748E-17
6.939591E+03	4.606429E-15	7.046621E-17
6.949576E+03	4.576246E-15	6.995572E-17
6.959561E+03	4.546771E-15	6.945355E-17
6.969546E+03	4.515500E-15	6.892152E-17
6.979531E+03	4.481611E-15	6.834714E-17
6.989516E+03	4.446250E-15	6.774802E-17
6.999501E+03	4.408401E-15	6.710878E-17
7.009486E+03	4.368926E-15	6.644272E-17
7.019471E+03	4.329677E-15	6.577805E-17
7.029456E+03	4.290898E-15	6.511857E-17
7.039441E+03	4.253748E-15	6.448186E-17
7.049426E+03	4.220133E-15	6.389679E-17
7.059411E+03	4.190071E-15	6.336347E-17
7.069396E+03	4.164312E-15	6.289312E-17
7.079381E+03	4.143786E-15	6.249954E-17
7.089366E+03	4.127039E-15	6.216055E-17
7.099351E+03	4.113023E-15	6.186020E-17
7.109336E+03	4.101102E-15	6.158882E-17
7.119321E+03	4.089406E-15	6.131821E-17
7.129306E+03	4.076785E-15	6.103121E-17
7.139291E+03	4.063173E-15	6.072695E-17
7.149276E+03	4.047532E-15	6.039004E-17
7.159261E+03	4.029812E-15	6.001994E-17
7.169246E+03	4.010645E-15	5.962630E-17
7.179231E+03	3.988948E-15	5.919324E-17
7.189216E+03	3.964350E-15	5.871551E-17
7.199201E+03	3.937411E-15	5.820177E-17
7.209186E+03	3.908037E-15	5.765091E-17
7.219171E+03	3.877404E-15	5.708058E-17
7.229156E+03	3.847537E-15	5.652074E-17
7.239141E+03	3.819140E-15	5.598175E-17
7.249126E+03	3.793535E-15	5.548293E-17
7.259111E+03	3.772327E-15	5.504754E-17
7.269096E+03	3.756203E-15	5.468522E-17
7.279081E+03	3.745420E-15	5.439930E-17
7.289066E+03	3.739829E-15	5.418715E-17
7.299051E+03	3.737420E-15	5.401928E-17
7.309036E+03	3.735590E-15	5.385788E-17
7.319021E+03	3.732329E-15	5.367408E-17
7.329006E+03	3.725809E-15	5.344192E-17
7.338992E+03	3.715331E-15	5.315185E-17
7.348977E+03	3.701040E-15	5.280652E-17
7.358962E+03	3.683230E-15	5.241064E-17
7.368947E+03	3.663069E-15	5.198135E-17
7.378932E+03	3.642229E-15	5.154270E-17
7.388917E+03	3.620205E-15	5.108780E-17
7.398902E+03	3.596720E-15	5.061302E-17
7.408887E+03	3.572439E-15	5.012803E-17
7.418872E+03	3.546615E-15	4.962260E-17
7.428857E+03	3.519525E-15	4.910095E-17
7.438842E+03	3.492315E-15	4.857932E-17
7.448827E+03	3.465714E-15	4.806800E-17
7.458812E+03	3.440919E-15	4.758361E-17
7.468797E+03	3.420041E-15	4.715521E-17
7.478782E+03	3.403577E-15	4.678931E-17
7.488767E+03	3.392391E-15	4.649735E-17
7.498752E+03	3.387278E-15	4.628973E-17
7.508737E+03	3.387922E-15	4.616158E-17
7.518722E+03	3.393960E-15	4.610745E-17
7.528707E+03	3.404319E-15	4.611234E-17
7.538692E+03	3.416798E-15	4.614622E-17
7.548677E+03	3.429160E-15	4.617892E-17
7.558662E+03	3.439922E-15	4.619076E-17
7.568647E+03	3.446860E-15	4.615239E-17
7.578632E+03	3.449437E-15	4.605729E-17
7.588617E+03	3.448056E-15	4.591156E-17
7.598602E+03	3.441772E-15	4.570331E-17
7.608587E+03	3.430746E-15	4.543544E-17
7.618572E+03	3.416154E-15	4.512418E-17
7.628557E+03	3.398432E-15	4.477588E-17
7.638542E+03	3.378918E-15	4.440862E-17
7.648527E+03	3.360109E-15	4.405552E-17
7.658512E+03	3.342508E-15	4.372329E-17
7.668497E+03	3.327616E-15	4.343158E-17
7.678482E+03	3.317059E-15	4.320158E-17
7.688467E+03	3.309510E-15	4.301590E-17
7.698452E+03	3.303994E-15	4.286188E-17
7.708437E+03	3.300463E-15	4.273899E-17
7.718422E+03	3.296053E-15	4.261035E-17
7.728407E+03	3.289564E-15	4.246077E-17
7.738392E+03	3.280559E-15	4.228500E-17
7.748377E+03	3.267089E-15	4.205832E-17
