#wls	flux	fluxerr
1.597604E+03	1.622547E-15	5.406747E-17
1.637544E+03	1.627835E-15	5.382684E-17
1.677484E+03	1.629069E-15	5.344235E-17
1.717424E+03	1.626547E-15	5.292668E-17
1.757364E+03	1.619452E-15	5.225652E-17
1.797304E+03	1.607678E-15	5.143220E-17
1.837244E+03	1.589926E-15	5.041658E-17
1.877184E+03	1.565488E-15	4.919267E-17
1.917124E+03	1.533458E-15	4.773838E-17
1.957064E+03	1.493415E-15	4.604783E-17
1.997004E+03	1.446256E-15	4.415621E-17
2.036945E+03	1.395535E-15	4.217811E-17
2.076885E+03	1.347969E-15	4.031850E-17
2.116825E+03	1.312230E-15	3.883188E-17
2.156765E+03	1.295874E-15	3.792861E-17
2.196705E+03	1.301287E-15	3.765931E-17
2.236645E+03	1.324675E-15	3.789387E-17
2.276585E+03	1.358870E-15	3.841141E-17
2.316525E+03	1.396776E-15	3.900236E-17
2.356465E+03	1.433274E-15	3.952127E-17
2.396405E+03	1.465440E-15	3.988959E-17
2.436345E+03	1.491952E-15	4.007610E-17
2.476286E+03	1.512120E-15	4.006840E-17
2.516226E+03	1.526056E-15	3.987628E-17
2.556166E+03	1.534077E-15	3.951482E-17
2.596106E+03	1.536576E-15	3.900076E-17
2.636046E+03	1.533703E-15	3.834440E-17
2.675986E+03	1.526075E-15	3.756742E-17
2.715926E+03	1.514093E-15	3.668550E-17
2.755866E+03	1.498508E-15	3.572217E-17
2.795806E+03	1.479848E-15	3.469466E-17
2.835746E+03	1.459204E-15	3.363241E-17
2.875686E+03	1.437516E-15	3.255984E-17
2.915627E+03	1.416363E-15	3.151405E-17
2.955567E+03	1.398235E-15	3.054962E-17
2.995507E+03	1.386092E-15	2.972718E-17
3.005492E+03	1.384544E-15	2.955483E-17
3.015477E+03	1.383672E-15	2.939712E-17
3.025462E+03	1.383633E-15	2.925724E-17
3.035447E+03	1.384523E-15	2.913695E-17
3.045432E+03	1.386438E-15	2.903801E-17
3.055417E+03	1.389459E-15	2.896178E-17
3.065402E+03	1.393803E-15	2.891251E-17
3.075387E+03	1.399529E-15	2.889096E-17
3.085372E+03	1.406535E-15	2.889468E-17
3.095357E+03	1.415029E-15	2.892754E-17
3.105342E+03	1.425071E-15	2.899034E-17
3.115327E+03	1.436746E-15	2.908437E-17
3.125312E+03	1.450189E-15	2.921187E-17
3.135297E+03	1.465611E-15	2.937656E-17
3.145282E+03	1.483336E-15	2.958434E-17
3.155267E+03	1.503908E-15	2.984534E-17
3.165252E+03	1.527972E-15	3.017150E-17
3.175237E+03	1.556308E-15	3.057712E-17
3.185222E+03	1.590151E-15	3.108513E-17
3.195207E+03	1.630750E-15	3.171824E-17
3.205192E+03	1.679668E-15	3.250474E-17
3.215177E+03	1.738777E-15	3.347830E-17
3.225162E+03	1.810175E-15	3.467618E-17
3.235147E+03	1.895924E-15	3.613417E-17
3.245132E+03	1.998617E-15	3.789734E-17
3.255117E+03	2.120789E-15	4.000872E-17
3.265102E+03	2.265443E-15	4.251918E-17
3.275087E+03	2.435466E-15	4.547627E-17
3.285072E+03	2.633912E-15	4.892971E-17
3.295057E+03	2.863889E-15	5.292899E-17
3.305042E+03	3.128065E-15	5.751452E-17
3.315027E+03	3.428514E-15	6.271486E-17
3.325012E+03	3.765939E-15	6.853300E-17
3.334998E+03	4.141075E-15	7.497234E-17
3.344983E+03	4.555301E-15	8.204774E-17
3.354968E+03	5.010106E-15	8.977568E-17
3.364953E+03	5.505339E-15	9.814300E-17
3.374938E+03	6.040736E-15	1.071348E-16
3.384923E+03	6.612396E-15	1.166721E-16
3.394908E+03	7.212643E-15	1.266116E-16
3.404893E+03	7.828674E-15	1.367230E-16
3.414878E+03	8.441608E-15	1.466754E-16
3.424863E+03	9.027277E-15	1.560532E-16
3.434848E+03	9.558444E-15	1.643966E-16
3.444833E+03	1.000601E-14	1.712232E-16
3.454818E+03	1.034549E-14	1.761391E-16
3.464803E+03	1.056335E-14	1.789442E-16
3.474788E+03	1.065742E-14	1.796338E-16
3.484773E+03	1.063257E-14	1.783216E-16
3.494758E+03	1.050415E-14	1.752938E-16
3.504743E+03	1.029226E-14	1.709101E-16
3.514728E+03	1.001881E-14	1.655529E-16
3.524713E+03	9.709707E-15	1.596626E-16
3.534698E+03	9.387606E-15	1.536181E-16
3.544683E+03	9.071978E-15	1.477390E-16
3.554668E+03	8.781218E-15	1.423210E-16
3.564653E+03	8.529300E-15	1.375834E-16
3.574638E+03	8.322272E-15	1.336136E-16
3.584623E+03	8.162587E-15	1.304402E-16
3.594608E+03	8.057799E-15	1.281724E-16
3.604593E+03	8.026004E-15	1.270847E-16
3.614578E+03	8.096955E-15	1.276302E-16
3.624563E+03	8.307059E-15	1.303586E-16
3.634548E+03	8.698608E-15	1.359024E-16
3.644533E+03	9.320536E-15	1.449867E-16
3.654518E+03	1.022067E-14	1.583081E-16
3.664503E+03	1.141996E-14	1.761377E-16
3.674488E+03	1.287233E-14	1.977141E-16
3.684473E+03	1.444099E-14	2.209021E-16
3.694458E+03	1.590172E-14	2.422702E-16
3.704443E+03	1.697390E-14	2.575864E-16
3.714428E+03	1.738887E-14	2.628638E-16
3.724413E+03	1.700660E-14	2.561112E-16
3.734398E+03	1.590205E-14	2.385882E-16
3.744383E+03	1.431028E-14	2.139252E-16
3.754368E+03	1.252855E-14	1.866231E-16
3.764353E+03	1.083087E-14	1.607724E-16
3.774338E+03	9.400143E-15	1.390589E-16
3.784324E+03	8.321924E-15	1.226977E-16
3.794309E+03	7.619563E-15	1.119755E-16
3.804294E+03	7.289929E-15	1.067894E-16
3.814279E+03	7.325455E-15	1.069752E-16
3.824264E+03	7.722107E-15	1.124240E-16
3.834249E+03	8.489085E-15	1.232224E-16
3.844234E+03	9.649579E-15	1.396604E-16
3.854219E+03	1.123230E-14	1.621063E-16
3.864204E+03	1.325496E-14	1.907681E-16
3.874189E+03	1.571000E-14	2.254910E-16
3.884174E+03	1.855523E-14	2.656283E-16
3.894159E+03	2.170721E-14	3.099527E-16
3.904144E+03	2.504233E-14	3.566795E-16
3.914129E+03	2.842186E-14	4.038274E-16
3.924114E+03	3.171131E-14	4.494951E-16
3.934099E+03	3.479433E-14	4.920553E-16
3.944084E+03	3.757655E-14	5.302048E-16
3.954069E+03	3.997589E-14	5.628240E-16
3.964054E+03	4.192472E-14	5.890041E-16
3.974039E+03	4.336510E-14	6.079776E-16
3.984024E+03	4.422533E-14	6.187888E-16
3.994009E+03	4.442367E-14	6.203469E-16
4.003994E+03	4.390094E-14	6.118810E-16
4.013979E+03	4.264013E-14	5.932102E-16
4.023964E+03	4.068860E-14	5.650450E-16
4.033949E+03	3.818560E-14	5.293623E-16
4.043934E+03	3.533581E-14	4.890286E-16
4.053919E+03	3.236433E-14	4.471710E-16
4.063904E+03	2.948306E-14	4.067140E-16
4.073889E+03	2.686128E-14	3.699765E-16
4.083874E+03	2.458700E-14	3.381464E-16
4.093859E+03	2.265102E-14	3.110709E-16
4.103844E+03	2.101010E-14	2.881324E-16
4.113829E+03	1.962100E-14	2.687184E-16
4.123814E+03	1.844463E-14	2.522772E-16
4.133799E+03	1.745058E-14	2.383793E-16
4.143784E+03	1.662762E-14	2.268601E-16
4.153769E+03	1.598487E-14	2.178337E-16
4.163754E+03	1.553974E-14	2.115267E-16
4.173739E+03	1.530146E-14	2.080548E-16
4.183724E+03	1.526229E-14	2.073028E-16
4.193709E+03	1.540441E-14	2.090203E-16
4.203694E+03	1.570132E-14	2.128404E-16
4.213679E+03	1.611037E-14	2.181798E-16
4.223665E+03	1.657911E-14	2.243248E-16
4.233650E+03	1.706060E-14	2.306395E-16
4.243635E+03	1.753352E-14	2.368357E-16
4.253620E+03	1.799033E-14	2.428127E-16
4.263605E+03	1.843610E-14	2.486398E-16
4.273590E+03	1.889882E-14	2.546951E-16
4.283575E+03	1.941348E-14	2.614498E-16
4.293560E+03	1.999290E-14	2.690756E-16
4.303545E+03	2.060208E-14	2.771006E-16
4.313530E+03	2.117762E-14	2.846724E-16
4.323515E+03	2.163796E-14	2.906971E-16
4.333500E+03	2.188318E-14	2.938357E-16
4.343485E+03	2.182181E-14	2.928656E-16
4.353470E+03	2.140850E-14	2.871842E-16
4.363455E+03	2.066875E-14	2.771396E-16
4.373440E+03	1.968129E-14	2.637918E-16
4.383425E+03	1.855930E-14	2.486599E-16
4.393410E+03	1.743371E-14	2.334978E-16
4.403395E+03	1.642787E-14	2.199555E-16
4.413380E+03	1.563063E-14	2.092192E-16
4.423365E+03	1.508718E-14	2.018898E-16
4.433350E+03	1.482071E-14	1.982741E-16
4.443335E+03	1.484318E-14	1.985286E-16
4.453320E+03	1.514955E-14	2.025827E-16
4.463305E+03	1.573201E-14	2.103294E-16
4.473290E+03	1.658264E-14	2.216607E-16
4.483275E+03	1.768431E-14	2.363455E-16
4.493260E+03	1.901425E-14	2.540783E-16
4.503245E+03	2.055288E-14	2.745955E-16
4.513230E+03	2.228594E-14	2.977057E-16
4.523215E+03	2.420898E-14	3.233482E-16
4.533200E+03	2.631338E-14	3.514065E-16
4.543185E+03	2.855682E-14	3.813142E-16
4.553170E+03	3.087109E-14	4.121595E-16
4.563155E+03	3.314736E-14	4.424886E-16
4.573140E+03	3.519193E-14	4.697153E-16
4.583125E+03	3.676832E-14	4.906844E-16
4.593110E+03	3.766586E-14	5.025864E-16
4.603095E+03	3.776243E-14	5.037956E-16
4.613080E+03	3.705031E-14	4.942130E-16
4.623065E+03	3.564709E-14	4.754122E-16
4.633050E+03	3.377800E-14	4.504011E-16
4.643035E+03	3.171882E-14	4.228600E-16
4.653020E+03	2.972867E-14	3.962448E-16
4.663005E+03	2.800915E-14	3.732419E-16
4.672991E+03	2.669848E-14	3.556909E-16
4.682976E+03	2.585944E-14	3.444247E-16
4.692961E+03	2.547213E-14	3.391733E-16
4.702946E+03	2.546418E-14	3.389687E-16
4.712931E+03	2.571853E-14	3.422483E-16
4.722916E+03	2.606477E-14	3.467414E-16
4.732901E+03	2.631793E-14	3.499864E-16
4.742886E+03	2.633978E-14	3.501467E-16
4.752871E+03	2.608350E-14	3.466031E-16
4.762856E+03	2.559749E-14	3.400030E-16
4.772841E+03	2.500009E-14	3.319216E-16
4.782826E+03	2.444322E-14	3.243773E-16
4.792811E+03	2.407894E-14	3.193867E-16
4.802796E+03	2.399655E-14	3.181302E-16
4.812781E+03	2.417033E-14	3.202610E-16
4.822766E+03	2.451050E-14	3.245845E-16
4.832751E+03	2.490051E-14	3.295538E-16
4.842736E+03	2.520064E-14	3.333194E-16
4.852721E+03	2.529679E-14	3.343747E-16
4.862706E+03	2.516794E-14	3.324472E-16
4.872691E+03	2.491808E-14	3.289155E-16
4.882676E+03	2.472920E-14	3.261838E-16
4.892661E+03	2.478140E-14	3.266243E-16
4.902646E+03	2.520354E-14	3.319266E-16
4.912631E+03	2.609019E-14	3.433231E-16
4.922616E+03	2.747245E-14	3.612068E-16
4.932601E+03	2.924572E-14	3.841857E-16
4.942586E+03	3.119239E-14	4.093881E-16
4.952571E+03	3.301438E-14	4.328973E-16
4.962556E+03	3.434207E-14	4.498738E-16
4.972541E+03	3.483390E-14	4.558653E-16
4.982526E+03	3.430576E-14	4.484968E-16
4.992511E+03	3.281143E-14	4.285120E-16
5.002496E+03	3.061682E-14	3.994212E-16
5.012481E+03	2.810043E-14	3.661889E-16
5.022466E+03	2.564674E-14	3.338364E-16
5.032451E+03	2.356786E-14	3.064214E-16
5.042436E+03	2.204068E-14	2.862265E-16
5.052421E+03	2.109418E-14	2.736037E-16
5.062406E+03	2.069909E-14	2.681477E-16
5.072391E+03	2.079579E-14	2.690608E-16
5.082376E+03	2.126469E-14	2.747741E-16
5.092361E+03	2.195280E-14	2.832944E-16
5.102346E+03	2.270688E-14	2.926353E-16
5.112332E+03	2.339326E-14	3.010727E-16
5.122317E+03	2.391159E-14	3.073201E-16
5.132302E+03	2.421001E-14	3.107209E-16
5.142287E+03	2.429373E-14	3.113534E-16
5.152272E+03	2.422095E-14	3.099747E-16
5.162257E+03	2.408198E-14	3.077480E-16
5.172242E+03	2.397322E-14	3.059071E-16
5.182227E+03	2.399681E-14	3.057525E-16
5.192212E+03	2.424401E-14	3.084378E-16
5.202197E+03	2.477157E-14	3.146714E-16
5.212182E+03	2.562094E-14	3.249629E-16
5.222167E+03	2.681259E-14	3.395530E-16
5.232152E+03	2.831609E-14	3.580366E-16
5.242137E+03	3.006522E-14	3.795596E-16
5.252122E+03	3.197558E-14	4.030439E-16
5.262107E+03	3.394195E-14	4.271556E-16
5.272092E+03	3.585206E-14	4.504813E-16
5.282077E+03	3.761240E-14	4.718518E-16
5.292062E+03	3.916513E-14	4.905521E-16
5.302047E+03	4.048663E-14	5.063002E-16
5.312032E+03	4.156901E-14	5.190124E-16
5.322017E+03	4.240092E-14	5.285621E-16
5.332002E+03	4.297484E-14	5.348720E-16
5.341987E+03	4.328247E-14	5.378550E-16
5.351972E+03	4.330398E-14	5.372817E-16
5.361957E+03	4.303680E-14	5.331380E-16
5.371942E+03	4.252303E-14	5.259619E-16
5.381927E+03	4.184876E-14	5.168316E-16
5.391912E+03	4.113529E-14	5.072526E-16
5.401897E+03	4.050382E-14	4.987194E-16
5.411882E+03	4.004559E-14	4.923501E-16
5.421867E+03	3.984105E-14	4.891234E-16
5.431852E+03	3.993257E-14	4.895456E-16
5.441837E+03	4.026958E-14	4.929835E-16
5.451822E+03	4.077046E-14	4.984275E-16
5.461807E+03	4.135631E-14	5.049077E-16
5.471792E+03	4.192579E-14	5.111859E-16
5.481777E+03	4.238286E-14	5.160951E-16
5.491762E+03	4.266013E-14	5.188227E-16
5.501747E+03	4.272060E-14	5.189276E-16
5.511732E+03	4.257178E-14	5.165100E-16
5.521717E+03	4.225052E-14	5.120245E-16
5.531702E+03	4.178707E-14	5.058434E-16
5.541687E+03	4.124217E-14	4.987056E-16
5.551672E+03	4.069498E-14	4.915691E-16
5.561658E+03	4.019642E-14	4.850472E-16
5.571643E+03	3.979367E-14	4.797056E-16
5.581628E+03	3.952938E-14	4.760534E-16
5.591613E+03	3.940837E-14	4.741426E-16
5.601598E+03	3.940638E-14	4.736760E-16
5.611583E+03	3.945301E-14	4.738036E-16
5.621568E+03	3.940202E-14	4.727682E-16
5.631553E+03	3.909202E-14	4.686377E-16
5.641538E+03	3.838693E-14	4.597893E-16
5.651523E+03	3.719214E-14	4.451022E-16
5.661508E+03	3.551163E-14	4.246375E-16
5.671493E+03	3.346527E-14	3.998404E-16
5.681478E+03	3.124865E-14	3.730554E-16
5.691463E+03	2.908491E-14	3.469476E-16
5.701448E+03	2.717574E-14	3.239184E-16
5.711433E+03	2.566742E-14	3.057018E-16
5.721418E+03	2.465429E-14	2.934086E-16
5.731403E+03	2.417991E-14	2.875425E-16
5.741388E+03	2.424008E-14	2.880386E-16
5.751373E+03	2.480499E-14	2.945280E-16
5.761358E+03	2.582187E-14	3.063709E-16
5.771343E+03	2.720344E-14	3.225201E-16
5.781328E+03	2.883848E-14	3.416480E-16
5.791313E+03	3.060491E-14	3.623026E-16
5.801298E+03	3.237879E-14	3.830138E-16
5.811283E+03	3.405750E-14	4.025685E-16
5.821268E+03	3.556895E-14	4.201171E-16
5.831253E+03	3.685618E-14	4.349917E-16
5.841238E+03	3.790251E-14	4.470012E-16
5.851223E+03	3.872509E-14	4.563538E-16
5.861208E+03	3.934273E-14	4.632766E-16
5.871193E+03	3.979127E-14	4.681970E-16
5.881178E+03	4.011466E-14	4.716356E-16
5.891163E+03	4.032716E-14	4.737635E-16
5.901148E+03	4.043707E-14	4.746809E-16
5.911133E+03	4.044546E-14	4.744030E-16
5.921118E+03	4.031789E-14	4.725293E-16
5.931103E+03	4.002175E-14	4.686811E-16
5.941088E+03	3.954637E-14	4.627389E-16
5.951073E+03	3.888645E-14	4.546456E-16
5.961058E+03	3.806410E-14	4.446650E-16
5.971043E+03	3.712990E-14	4.333925E-16
5.981028E+03	3.613519E-14	4.214301E-16
5.991013E+03	3.514676E-14	4.095584E-16
6.000999E+03	3.423048E-14	3.985442E-16
6.010984E+03	3.342450E-14	3.888297E-16
6.020969E+03	3.276234E-14	3.808011E-16
6.030954E+03	3.225455E-14	3.745773E-16
6.040939E+03	3.184860E-14	3.695441E-16
6.050924E+03	3.148402E-14	3.649977E-16
6.060909E+03	3.111871E-14	3.604498E-16
6.070894E+03	3.072052E-14	3.555282E-16
6.080879E+03	3.028321E-14	3.501620E-16
6.090864E+03	2.983321E-14	3.446583E-16
6.100849E+03	2.941779E-14	3.395632E-16
6.110834E+03	2.909724E-14	3.355713E-16
6.120819E+03	2.890442E-14	3.330585E-16
6.130804E+03	2.879949E-14	3.315628E-16
6.140789E+03	2.871794E-14	3.303397E-16
6.150774E+03	2.857534E-14	3.284186E-16
6.160759E+03	2.823960E-14	3.242848E-16
6.170744E+03	2.758403E-14	3.164904E-16
6.180729E+03	2.654342E-14	3.042976E-16
6.190714E+03	2.513276E-14	2.878888E-16
6.200699E+03	2.341637E-14	2.680108E-16
6.210684E+03	2.148066E-14	2.456597E-16
6.220669E+03	1.942519E-14	2.219787E-16
6.230654E+03	1.735646E-14	1.981861E-16
6.240639E+03	1.537800E-14	1.754631E-16
6.250624E+03	1.357659E-14	1.547955E-16
6.260609E+03	1.202969E-14	1.370607E-16
6.270594E+03	1.079968E-14	1.229614E-16
6.280579E+03	9.929948E-15	1.129835E-16
6.290564E+03	9.452924E-15	1.074867E-16
6.300549E+03	9.392442E-15	1.067331E-16
6.310534E+03	9.766837E-15	1.109223E-16
6.320519E+03	1.060636E-14	1.203895E-16
6.330504E+03	1.194946E-14	1.355630E-16
6.340489E+03	1.380844E-14	1.565751E-16
6.350474E+03	1.614722E-14	1.830105E-16
6.360459E+03	1.887224E-14	2.138051E-16
6.370444E+03	2.183867E-14	2.473167E-16
6.380429E+03	2.486586E-14	2.815015E-16
6.390414E+03	2.777239E-14	3.143101E-16
6.400399E+03	3.042531E-14	3.442445E-16
6.410384E+03	3.275628E-14	3.705379E-16
6.420369E+03	3.474386E-14	3.929546E-16
6.430354E+03	3.637463E-14	4.113486E-16
6.440339E+03	3.764533E-14	4.256866E-16
6.450325E+03	3.855870E-14	4.360015E-16
6.460310E+03	3.911645E-14	4.423128E-16
6.470295E+03	3.933446E-14	4.447996E-16
6.480280E+03	3.925936E-14	4.439873E-16
6.490265E+03	3.896740E-14	4.407363E-16
6.500250E+03	3.856485E-14	4.362462E-16
6.510235E+03	3.817035E-14	4.318569E-16
6.520220E+03	3.788973E-14	4.287645E-16
6.530205E+03	3.780806E-14	4.279310E-16
6.540190E+03	3.796793E-14	4.298387E-16
6.550175E+03	3.833638E-14	4.341150E-16
6.560160E+03	3.886028E-14	4.401585E-16
6.570145E+03	3.947764E-14	4.472672E-16
6.580130E+03	4.008478E-14	4.542657E-16
6.590115E+03	4.059140E-14	4.601291E-16
6.600100E+03	4.095025E-14	4.643193E-16
6.610085E+03	4.113990E-14	4.665905E-16
6.620070E+03	4.118308E-14	4.671977E-16
6.630055E+03	4.112655E-14	4.666690E-16
6.640040E+03	4.099410E-14	4.652723E-16
6.650025E+03	4.081412E-14	4.633279E-16
6.660010E+03	4.060727E-14	4.610691E-16
6.669995E+03	4.034717E-14	4.581948E-16
6.679980E+03	4.000585E-14	4.543861E-16
6.689965E+03	3.957625E-14	4.495615E-16
6.699950E+03	3.904751E-14	4.435965E-16
6.709935E+03	3.843019E-14	4.366102E-16
6.719920E+03	3.775319E-14	4.289302E-16
6.729905E+03	3.703252E-14	4.207384E-16
6.739890E+03	3.628972E-14	4.122791E-16
6.749875E+03	3.554598E-14	4.037932E-16
6.759860E+03	3.480031E-14	3.952698E-16
6.769845E+03	3.405018E-14	3.866802E-16
6.779830E+03	3.329804E-14	3.780527E-16
6.789815E+03	3.252972E-14	3.692267E-16
6.799800E+03	3.174214E-14	3.601682E-16
6.809785E+03	3.094084E-14	3.509409E-16
6.819770E+03	3.012379E-14	3.415228E-16
6.829755E+03	2.930110E-14	3.320296E-16
6.839740E+03	2.849415E-14	3.227043E-16
6.849725E+03	2.771404E-14	3.136737E-16
6.859710E+03	2.697940E-14	3.051489E-16
6.869695E+03	2.631383E-14	2.973965E-16
6.879680E+03	2.573305E-14	2.905935E-16
6.889666E+03	2.525026E-14	2.848872E-16
6.899651E+03	2.487948E-14	2.804334E-16
6.909636E+03	2.463029E-14	2.773368E-16
6.919621E+03	2.450891E-14	2.756632E-16
6.929606E+03	2.451125E-14	2.753618E-16
6.939591E+03	2.462041E-14	2.762378E-16
6.949576E+03	2.481722E-14	2.780711E-16
6.959561E+03	2.507736E-14	2.805847E-16
6.969546E+03	2.536484E-14	2.833726E-16
6.979531E+03	2.565145E-14	2.861175E-16
6.989516E+03	2.591928E-14	2.886190E-16
6.999501E+03	2.614746E-14	2.906452E-16
7.009486E+03	2.632671E-14	2.920945E-16
7.019471E+03	2.645771E-14	2.929766E-16
7.029456E+03	2.653099E-14	2.931896E-16
7.039441E+03	2.654319E-14	2.926998E-16
7.049426E+03	2.649785E-14	2.915501E-16
7.059411E+03	2.638706E-14	2.896580E-16
7.069396E+03	2.621139E-14	2.870349E-16
7.079381E+03	2.597876E-14	2.837729E-16
7.089366E+03	2.568658E-14	2.798490E-16
7.099351E+03	2.533916E-14	2.753160E-16
7.109336E+03	2.495307E-14	2.703592E-16
7.119321E+03	2.454313E-14	2.651433E-16
7.129306E+03	2.413219E-14	2.599181E-16
7.139291E+03	2.375244E-14	2.550305E-16
7.149276E+03	2.344016E-14	2.508667E-16
7.159261E+03	2.323456E-14	2.478389E-16
7.169246E+03	2.315964E-14	2.461918E-16
7.179231E+03	2.320151E-14	2.457639E-16
7.189216E+03	2.333474E-14	2.462736E-16
7.199201E+03	2.352991E-14	2.474010E-16
7.209186E+03	2.373296E-14	2.485717E-16
7.219171E+03	2.389150E-14	2.492381E-16
7.229156E+03	2.397665E-14	2.491052E-16
7.239141E+03	2.397418E-14	2.480353E-16
7.249126E+03	2.388856E-14	2.460860E-16
7.259111E+03	2.373846E-14	2.434605E-16
7.269096E+03	2.355112E-14	2.404463E-16
7.279081E+03	2.335530E-14	2.373419E-16
7.289066E+03	2.317353E-14	2.343771E-16
7.299051E+03	2.301502E-14	2.316435E-16
7.309036E+03	2.288782E-14	2.292191E-16
7.319021E+03	2.279809E-14	2.271614E-16
7.329006E+03	2.274014E-14	2.254089E-16
7.338992E+03	2.271493E-14	2.239669E-16
7.348977E+03	2.272913E-14	2.228961E-16
7.358962E+03	2.277953E-14	2.221596E-16
7.368947E+03	2.286712E-14	2.217616E-16
7.378932E+03	2.299706E-14	2.217461E-16
7.388917E+03	2.316201E-14	2.220362E-16
7.398902E+03	2.335564E-14	2.225662E-16
7.408887E+03	2.357205E-14	2.232755E-16
7.418872E+03	2.378782E-14	2.239406E-16
7.428857E+03	2.397971E-14	2.243443E-16
7.438842E+03	2.412270E-14	2.242592E-16
7.448827E+03	2.417838E-14	2.233399E-16
7.458812E+03	2.411210E-14	2.212849E-16
7.468797E+03	2.390708E-14	2.179645E-16
7.478782E+03	2.356401E-14	2.134112E-16
7.488767E+03	2.310294E-14	2.078322E-16
7.498752E+03	2.255687E-14	2.015453E-16
7.508737E+03	2.196216E-14	1.948903E-16
7.518722E+03	2.136170E-14	1.882558E-16
7.528707E+03	2.079238E-14	1.819671E-16
7.538692E+03	2.027677E-14	1.762161E-16
7.548677E+03	1.983664E-14	1.711820E-16
7.558662E+03	1.948683E-14	1.669796E-16
7.568647E+03	1.922357E-14	1.635615E-16
7.578632E+03	1.904101E-14	1.608641E-16
7.588617E+03	1.893435E-14	1.588339E-16
7.598602E+03	1.889109E-14	1.573547E-16
7.608587E+03	1.889497E-14	1.562826E-16
7.618572E+03	1.893639E-14	1.555322E-16
7.628557E+03	1.901435E-14	1.550910E-16
7.638542E+03	1.912576E-14	1.549299E-16
7.648527E+03	1.926317E-14	1.549856E-16
7.658512E+03	1.941609E-14	1.551729E-16
7.668497E+03	1.956764E-14	1.553579E-16
7.678482E+03	1.969891E-14	1.553946E-16
7.688467E+03	1.979348E-14	1.551605E-16
7.698452E+03	1.984030E-14	1.545780E-16
7.708437E+03	1.983733E-14	1.536408E-16
7.718422E+03	1.979557E-14	1.524432E-16
7.728407E+03	1.974010E-14	1.511849E-16
7.738392E+03	1.969752E-14	1.500728E-16
7.748377E+03	1.968733E-14	1.492557E-16
