#wls	flux	fluxerr
1.597604E+03	1.440465E-16	2.247771E-18
1.637544E+03	1.422828E-16	2.217030E-18
1.677484E+03	1.401621E-16	2.180742E-18
1.717424E+03	1.376659E-16	2.138642E-18
1.757364E+03	1.348426E-16	2.091514E-18
1.797304E+03	1.316487E-16	2.038709E-18
1.837244E+03	1.280063E-16	1.979058E-18
1.877184E+03	1.238816E-16	1.912076E-18
1.917124E+03	1.192286E-16	1.837097E-18
1.957064E+03	1.140466E-16	1.754163E-18
1.997004E+03	1.084585E-16	1.665209E-18
2.036945E+03	1.027260E-16	1.574291E-18
2.076885E+03	9.736369E-17	1.489300E-18
2.116825E+03	9.300158E-17	1.419833E-18
2.156765E+03	9.010202E-17	1.372853E-18
2.196705E+03	8.877338E-17	1.349881E-18
2.236645E+03	8.870113E-17	1.346000E-18
2.276585E+03	8.939324E-17	1.353643E-18
2.316525E+03	9.039363E-17	1.365842E-18
2.356465E+03	9.142898E-17	1.378444E-18
2.396405E+03	9.236395E-17	1.389408E-18
2.436345E+03	9.323777E-17	1.399330E-18
2.476286E+03	9.408614E-17	1.408751E-18
2.516226E+03	9.503864E-17	1.419605E-18
2.556166E+03	9.623212E-17	1.433919E-18
2.596106E+03	9.780703E-17	1.453753E-18
2.636046E+03	9.995332E-17	1.481876E-18
2.675986E+03	1.028498E-16	1.520864E-18
2.715926E+03	1.067765E-16	1.574756E-18
2.755866E+03	1.120380E-16	1.647902E-18
2.795806E+03	1.190483E-16	1.746206E-18
2.835746E+03	1.283741E-16	1.877736E-18
2.875686E+03	1.407648E-16	2.053117E-18
2.915627E+03	1.572653E-16	2.287142E-18
2.955567E+03	1.793146E-16	2.600129E-18
2.995507E+03	2.088914E-16	3.019930E-18
3.005492E+03	2.177353E-16	3.145402E-18
3.015477E+03	2.272941E-16	3.280992E-18
3.025462E+03	2.375733E-16	3.426753E-18
3.035447E+03	2.486560E-16	3.583861E-18
3.045432E+03	2.605794E-16	3.752821E-18
3.055417E+03	2.734762E-16	3.935515E-18
3.065402E+03	2.873582E-16	4.132079E-18
3.075387E+03	3.023225E-16	4.343874E-18
3.085372E+03	3.184421E-16	4.571909E-18
3.095357E+03	3.357924E-16	4.817225E-18
3.105342E+03	3.544501E-16	5.080879E-18
3.115327E+03	3.744928E-16	5.363936E-18
3.125312E+03	3.959973E-16	5.667448E-18
3.135297E+03	4.190387E-16	5.992434E-18
3.145282E+03	4.437299E-16	6.340455E-18
3.155267E+03	4.700986E-16	6.711846E-18
3.165252E+03	4.981560E-16	7.106707E-18
3.175237E+03	5.280869E-16	7.527611E-18
3.185222E+03	5.597851E-16	7.972979E-18
3.195207E+03	5.934180E-16	8.445128E-18
3.205192E+03	6.288270E-16	8.941733E-18
3.215177E+03	6.660899E-16	9.463836E-18
3.225162E+03	7.051551E-16	1.001063E-17
3.235147E+03	7.458729E-16	1.057994E-17
3.245132E+03	7.882489E-16	1.117176E-17
3.255117E+03	8.319910E-16	1.178191E-17
3.265102E+03	8.768887E-16	1.240736E-17
3.275087E+03	9.228386E-16	1.304660E-17
3.285072E+03	9.694811E-16	1.369450E-17
3.295057E+03	1.016400E-15	1.434517E-17
3.305042E+03	1.063384E-15	1.499560E-17
3.315027E+03	1.109943E-15	1.563892E-17
3.325012E+03	1.155641E-15	1.626895E-17
3.334998E+03	1.200108E-15	1.688055E-17
3.344983E+03	1.242791E-15	1.746597E-17
3.354968E+03	1.283218E-15	1.801866E-17
3.364953E+03	1.321037E-15	1.853375E-17
3.374938E+03	1.355824E-15	1.900539E-17
3.384923E+03	1.387096E-15	1.942693E-17
3.394908E+03	1.414607E-15	1.979505E-17
3.404893E+03	1.438058E-15	2.010570E-17
3.414878E+03	1.457071E-15	2.035376E-17
3.424863E+03	1.471582E-15	2.053848E-17
3.434848E+03	1.481229E-15	2.065498E-17
3.444833E+03	1.485785E-15	2.070029E-17
3.454818E+03	1.485220E-15	2.067419E-17
3.464803E+03	1.479382E-15	2.057472E-17
3.474788E+03	1.468771E-15	2.040904E-17
3.484773E+03	1.454018E-15	2.018611E-17
3.494758E+03	1.436104E-15	1.991965E-17
3.504743E+03	1.416193E-15	1.962595E-17
3.514728E+03	1.395780E-15	1.932576E-17
3.524713E+03	1.376287E-15	1.903877E-17
3.534698E+03	1.359032E-15	1.878319E-17
3.544683E+03	1.345132E-15	1.857434E-17
3.554668E+03	1.335424E-15	1.842365E-17
3.564653E+03	1.330511E-15	1.833927E-17
3.574638E+03	1.330516E-15	1.832273E-17
3.584623E+03	1.335392E-15	1.837319E-17
3.594608E+03	1.344659E-15	1.848387E-17
3.604593E+03	1.357826E-15	1.864785E-17
3.614578E+03	1.373890E-15	1.885125E-17
3.624563E+03	1.391816E-15	1.907976E-17
3.634548E+03	1.410198E-15	1.931404E-17
3.644533E+03	1.427343E-15	1.953092E-17
3.654518E+03	1.441019E-15	1.969994E-17
3.664503E+03	1.448667E-15	1.978627E-17
3.674488E+03	1.447486E-15	1.975193E-17
3.684473E+03	1.434456E-15	1.955606E-17
3.694458E+03	1.407055E-15	1.916476E-17
3.704443E+03	1.363316E-15	1.855184E-17
3.714428E+03	1.302941E-15	1.771383E-17
3.724413E+03	1.227241E-15	1.666920E-17
3.734398E+03	1.139678E-15	1.546548E-17
3.744383E+03	1.045050E-15	1.416819E-17
3.754368E+03	9.490058E-16	1.285411E-17
3.764353E+03	8.569680E-16	1.159666E-17
3.774338E+03	7.735468E-16	1.045803E-17
3.784324E+03	7.020225E-16	9.482194E-18
3.794309E+03	6.444073E-16	8.695861E-18
3.804294E+03	6.017569E-16	8.112734E-18
3.814279E+03	5.746237E-16	7.739688E-18
3.824264E+03	5.634105E-16	7.581556E-18
3.834249E+03	5.689111E-16	7.648412E-18
3.844234E+03	5.924483E-16	7.957387E-18
3.854219E+03	6.361654E-16	8.536564E-18
3.864204E+03	7.030187E-16	9.424816E-18
3.874189E+03	7.966453E-16	1.066999E-17
3.884174E+03	9.208830E-16	1.232242E-17
3.894159E+03	1.079059E-15	1.442546E-17
3.904144E+03	1.272797E-15	1.699952E-17
3.914129E+03	1.500547E-15	2.002257E-17
3.924114E+03	1.756784E-15	2.341971E-17
3.934099E+03	2.031526E-15	2.705694E-17
3.944084E+03	2.311561E-15	3.075777E-17
3.954069E+03	2.582621E-15	3.433234E-17
3.964054E+03	2.831678E-15	3.760800E-17
3.974039E+03	3.049744E-15	4.046631E-17
3.984024E+03	3.231965E-15	4.284410E-17
3.994009E+03	3.377662E-15	4.473371E-17
4.003994E+03	3.488869E-15	4.616344E-17
4.013979E+03	3.568454E-15	4.717249E-17
4.023964E+03	3.619121E-15	4.779774E-17
4.033949E+03	3.642800E-15	4.806573E-17
4.043934E+03	3.640604E-15	4.799216E-17
4.053919E+03	3.613409E-15	4.758949E-17
4.063904E+03	3.563148E-15	4.688408E-17
4.073889E+03	3.492636E-15	4.591378E-17
4.083874E+03	3.406077E-15	4.473456E-17
4.093859E+03	3.308603E-15	4.341431E-17
4.103844E+03	3.205981E-15	4.202904E-17
4.113829E+03	3.103369E-15	4.064649E-17
4.123814E+03	3.005274E-15	3.932563E-17
4.133799E+03	2.915192E-15	3.811198E-17
4.143784E+03	2.835305E-15	3.703376E-17
4.153769E+03	2.766988E-15	3.610853E-17
4.163754E+03	2.710715E-15	3.534207E-17
4.173739E+03	2.666228E-15	3.473058E-17
4.183724E+03	2.633015E-15	3.426697E-17
4.193709E+03	2.610255E-15	3.394018E-17
4.203694E+03	2.596918E-15	3.373645E-17
4.213679E+03	2.592166E-15	3.364458E-17
4.223665E+03	2.595212E-15	3.365406E-17
4.233650E+03	2.605513E-15	3.375759E-17
4.243635E+03	2.622841E-15	3.395199E-17
4.253620E+03	2.647174E-15	3.423671E-17
4.263605E+03	2.678511E-15	3.461153E-17
4.273590E+03	2.716788E-15	3.507538E-17
4.283575E+03	2.761739E-15	3.562459E-17
4.293560E+03	2.812808E-15	3.625181E-17
4.303545E+03	2.868925E-15	3.694305E-17
4.313530E+03	2.928488E-15	3.767754E-17
4.323515E+03	2.989075E-15	3.842405E-17
4.333500E+03	3.047433E-15	3.914079E-17
4.343485E+03	3.099082E-15	3.977034E-17
4.353470E+03	3.138133E-15	4.023743E-17
4.363455E+03	3.156906E-15	4.044410E-17
4.373440E+03	3.146422E-15	4.027607E-17
4.383425E+03	3.097150E-15	3.961237E-17
4.393410E+03	3.016054E-15	3.854325E-17
4.403395E+03	2.923334E-15	3.732762E-17
4.413380E+03	2.834993E-15	3.617000E-17
4.423365E+03	2.761956E-15	3.520954E-17
4.433350E+03	2.710954E-15	3.453146E-17
4.443335E+03	2.685710E-15	3.418248E-17
4.453320E+03	2.687979E-15	3.418410E-17
4.463305E+03	2.718395E-15	3.454356E-17
4.473290E+03	2.777317E-15	3.526458E-17
4.483275E+03	2.865158E-15	3.635154E-17
4.493260E+03	2.982287E-15	3.780830E-17
4.503245E+03	3.129091E-15	3.963890E-17
4.513230E+03	3.305185E-15	4.183763E-17
4.523215E+03	3.509298E-15	4.438761E-17
4.533200E+03	3.738379E-15	4.724947E-17
4.543185E+03	3.987104E-15	5.035533E-17
4.553170E+03	4.247831E-15	5.360822E-17
4.563155E+03	4.510866E-15	5.688559E-17
4.573140E+03	4.765266E-15	6.004952E-17
4.583125E+03	4.999858E-15	6.295959E-17
4.593110E+03	5.204483E-15	6.548857E-17
4.603095E+03	5.371726E-15	6.754404E-17
4.613080E+03	5.497211E-15	6.907208E-17
4.623065E+03	5.580522E-15	7.006860E-17
4.633050E+03	5.625060E-15	7.057742E-17
4.643035E+03	5.637373E-15	7.068167E-17
4.653020E+03	5.626251E-15	7.049236E-17
4.663005E+03	5.601333E-15	7.013075E-17
4.672991E+03	5.571798E-15	6.971206E-17
4.682976E+03	5.544735E-15	6.932501E-17
4.692961E+03	5.524194E-15	6.902014E-17
4.702946E+03	5.511138E-15	6.880929E-17
4.712931E+03	5.503467E-15	6.866605E-17
4.722916E+03	5.496638E-15	6.853362E-17
4.732901E+03	5.484449E-15	6.833470E-17
4.742886E+03	5.460174E-15	6.798567E-17
4.752871E+03	5.417197E-15	6.740450E-17
4.762856E+03	5.349355E-15	6.651502E-17
4.772841E+03	5.251775E-15	6.525731E-17
4.782826E+03	5.120949E-15	6.358855E-17
4.792811E+03	4.955522E-15	6.149273E-17
4.802796E+03	4.757270E-15	5.899273E-17
4.812781E+03	4.531282E-15	5.615243E-17
4.822766E+03	4.286402E-15	5.308202E-17
4.832751E+03	4.034501E-15	4.992888E-17
4.842736E+03	3.789256E-15	4.686230E-17
4.852721E+03	3.564344E-15	4.405114E-17
4.862706E+03	3.372043E-15	4.164651E-17
4.872691E+03	3.222317E-15	3.977057E-17
4.882676E+03	3.122785E-15	3.851622E-17
4.892661E+03	3.079025E-15	3.795096E-17
4.902646E+03	3.095252E-15	3.812532E-17
4.912631E+03	3.175007E-15	3.908137E-17
4.922616E+03	3.321346E-15	4.085515E-17
4.932601E+03	3.536547E-15	4.347297E-17
4.942586E+03	3.820725E-15	4.693454E-17
4.952571E+03	4.169877E-15	5.118898E-17
4.962556E+03	4.573064E-15	5.610047E-17
4.972541E+03	5.009477E-15	6.141255E-17
4.982526E+03	5.446523E-15	6.672506E-17
4.992511E+03	5.841245E-15	7.151208E-17
5.002496E+03	6.146211E-15	7.519434E-17
5.012481E+03	6.320186E-15	7.726991E-17
5.022466E+03	6.339649E-15	7.745472E-17
5.032451E+03	6.206708E-15	7.577838E-17
5.042436E+03	5.949273E-15	7.258524E-17
5.052421E+03	5.613125E-15	6.843661E-17
5.062406E+03	5.249609E-15	6.396011E-17
5.072391E+03	4.904268E-15	5.971093E-17
5.082376E+03	4.610523E-15	5.609526E-17
5.092361E+03	4.388581E-15	5.335747E-17
5.102346E+03	4.246762E-15	5.159683E-17
5.112332E+03	4.184428E-15	5.080352E-17
5.122317E+03	4.194524E-15	5.088993E-17
5.132302E+03	4.265105E-15	5.170933E-17
5.142287E+03	4.380417E-15	5.306928E-17
5.152272E+03	4.522139E-15	5.474679E-17
5.162257E+03	4.671350E-15	5.651228E-17
5.172242E+03	4.811199E-15	5.816180E-17
5.182227E+03	4.929346E-15	5.954651E-17
5.192212E+03	5.019804E-15	6.059468E-17
5.202197E+03	5.083055E-15	6.131287E-17
5.212182E+03	5.125028E-15	6.177325E-17
5.222167E+03	5.154629E-15	6.208364E-17
5.232152E+03	5.181324E-15	6.235829E-17
5.242137E+03	5.213456E-15	6.269760E-17
5.252122E+03	5.257100E-15	6.317443E-17
5.262107E+03	5.315358E-15	6.382568E-17
5.272092E+03	5.388559E-15	6.465491E-17
5.282077E+03	5.474874E-15	6.563972E-17
5.292062E+03	5.570454E-15	6.673364E-17
5.302047E+03	5.670797E-15	6.788250E-17
5.312032E+03	5.771126E-15	6.902900E-17
5.322017E+03	5.867288E-15	7.012348E-17
5.332002E+03	5.956399E-15	7.113160E-17
5.341987E+03	6.036736E-15	7.203299E-17
5.351972E+03	6.107881E-15	7.282288E-17
5.361957E+03	6.169784E-15	7.350094E-17
5.371942E+03	6.222086E-15	7.406313E-17
5.381927E+03	6.263651E-15	7.449622E-17
5.391912E+03	6.292542E-15	7.477749E-17
5.401897E+03	6.306906E-15	7.488532E-17
5.411882E+03	6.306146E-15	7.481302E-17
5.421867E+03	6.292788E-15	7.459102E-17
5.431852E+03	6.273930E-15	7.430375E-17
5.441837E+03	6.261425E-15	7.409160E-17
5.451822E+03	6.271314E-15	7.414406E-17
5.461807E+03	6.320736E-15	7.466287E-17
5.471792E+03	6.425658E-15	7.583523E-17
5.481777E+03	6.597174E-15	7.779019E-17
5.491762E+03	6.835826E-15	8.053199E-17
5.501747E+03	7.124097E-15	8.385227E-17
5.511732E+03	7.430643E-15	8.738080E-17
5.521717E+03	7.713469E-15	9.062350E-17
5.531702E+03	7.927334E-15	9.305006E-17
5.541687E+03	8.033160E-15	9.420440E-17
5.551672E+03	8.008845E-15	9.383108E-17
5.561658E+03	7.854840E-15	9.193967E-17
5.571643E+03	7.592150E-15	8.878015E-17
5.581628E+03	7.253899E-15	8.474317E-17
5.591613E+03	6.874561E-15	8.023372E-17
5.601598E+03	6.480123E-15	7.555627E-17
5.611583E+03	6.083215E-15	7.085856E-17
5.621568E+03	5.683268E-15	6.613410E-17
5.631553E+03	5.272281E-15	6.129014E-17
5.641538E+03	4.842501E-15	5.623709E-17
5.651523E+03	4.392410E-15	5.095813E-17
5.661508E+03	3.930478E-15	4.555223E-17
5.671493E+03	3.473960E-15	4.021971E-17
5.681478E+03	3.044709E-15	3.521325E-17
5.691463E+03	2.662731E-15	3.076308E-17
5.701448E+03	2.341867E-15	2.702732E-17
5.711433E+03	2.088881E-15	2.408181E-17
5.721418E+03	1.904959E-15	2.193772E-17
5.731403E+03	1.788226E-15	2.057097E-17
5.741388E+03	1.736388E-15	1.995269E-17
5.751373E+03	1.748366E-15	2.006805E-17
5.761358E+03	1.825468E-15	2.092962E-17
5.771343E+03	1.971783E-15	2.258167E-17
5.781328E+03	2.194043E-15	2.509851E-17
5.791313E+03	2.501366E-15	2.858126E-17
5.801298E+03	2.904148E-15	3.314516E-17
5.811283E+03	3.412113E-15	3.889713E-17
5.821268E+03	4.031396E-15	4.590268E-17
5.831253E+03	4.760230E-15	5.413705E-17
5.841238E+03	5.584639E-15	6.343680E-17
5.851223E+03	6.474392E-15	7.345482E-17
5.861208E+03	7.381671E-15	8.364626E-17
5.871193E+03	8.244679E-15	9.331072E-17
5.881178E+03	8.996317E-15	1.016913E-16
5.891163E+03	9.577252E-15	1.081227E-16
5.901148E+03	9.948349E-15	1.121706E-16
5.911133E+03	1.009861E-14	1.137201E-16
5.921118E+03	1.004559E-14	1.129779E-16
5.931103E+03	9.828190E-15	1.103899E-16
5.941088E+03	9.495266E-15	1.065114E-16
5.951073E+03	9.095054E-15	1.018878E-16
5.961058E+03	8.667466E-15	9.696893E-17
5.971043E+03	8.240948E-15	9.207380E-17
5.981028E+03	7.832076E-15	8.738750E-17
5.991013E+03	7.448871E-15	8.299872E-17
6.000999E+03	7.094151E-15	7.893778E-17
6.010984E+03	6.768437E-15	7.520928E-17
6.020969E+03	6.472115E-15	7.181625E-17
6.030954E+03	6.206411E-15	6.877102E-17
6.040939E+03	5.973212E-15	6.609310E-17
6.050924E+03	5.774799E-15	6.380625E-17
6.060909E+03	5.612863E-15	6.192754E-17
6.070894E+03	5.487856E-15	6.046024E-17
6.080879E+03	5.398663E-15	5.939036E-17
6.090864E+03	5.342411E-15	5.868463E-17
6.100849E+03	5.314869E-15	5.829507E-17
6.110834E+03	5.310544E-15	5.816008E-17
6.120819E+03	5.323228E-15	5.821067E-17
6.130804E+03	5.346896E-15	5.838017E-17
6.140789E+03	5.376670E-15	5.861487E-17
6.150774E+03	5.409873E-15	5.888531E-17
6.160759E+03	5.446657E-15	5.919295E-17
6.170744E+03	5.489838E-15	5.956814E-17
6.180729E+03	5.544238E-15	6.006280E-17
6.190714E+03	5.614980E-15	6.073172E-17
6.200699E+03	5.705686E-15	6.161317E-17
6.210684E+03	5.816359E-15	6.270608E-17
6.220669E+03	5.941753E-15	6.395291E-17
6.230654E+03	6.071109E-15	6.523722E-17
6.240639E+03	6.189420E-15	6.639777E-17
6.250624E+03	6.280087E-15	6.725737E-17
6.260609E+03	6.328423E-15	6.766044E-17
6.270594E+03	6.326359E-15	6.752313E-17
6.280579E+03	6.274767E-15	6.685752E-17
6.290564E+03	6.183717E-15	6.577345E-17
6.300549E+03	6.069141E-15	6.444228E-17
6.310534E+03	5.949710E-15	6.306327E-17
6.320519E+03	5.842742E-15	6.181998E-17
6.330504E+03	5.761298E-15	6.084968E-17
6.340489E+03	5.712918E-15	6.023045E-17
6.350474E+03	5.700076E-15	5.998646E-17
6.360459E+03	5.721062E-15	6.009774E-17
6.370444E+03	5.771269E-15	6.051401E-17
6.380429E+03	5.844661E-15	6.117042E-17
6.390414E+03	5.934763E-15	6.199796E-17
6.400399E+03	6.035038E-15	6.292746E-17
6.410384E+03	6.139152E-15	6.389239E-17
6.420369E+03	6.240172E-15	6.482047E-17
6.430354E+03	6.329796E-15	6.562579E-17
6.440339E+03	6.398735E-15	6.621288E-17
6.450325E+03	6.436782E-15	6.647755E-17
6.460310E+03	6.434574E-15	6.632515E-17
6.470295E+03	6.385362E-15	6.568869E-17
6.480280E+03	6.287914E-15	6.455838E-17
6.490265E+03	6.147376E-15	6.298993E-17
6.500250E+03	5.975936E-15	6.111067E-17
6.510235E+03	5.790685E-15	5.909695E-17
6.520220E+03	5.610129E-15	5.713817E-17
6.530205E+03	5.449299E-15	5.538687E-17
6.540190E+03	5.317802E-15	5.393929E-17
6.550175E+03	5.222629E-15	5.286440E-17
6.560160E+03	5.169222E-15	5.221492E-17
6.570145E+03	5.161620E-15	5.202893E-17
6.580130E+03	5.201897E-15	5.232439E-17
6.590115E+03	5.290025E-15	5.309794E-17
6.600100E+03	5.423125E-15	5.431769E-17
6.610085E+03	5.595190E-15	5.592066E-17
6.620070E+03	5.796881E-15	5.781115E-17
6.630055E+03	6.015632E-15	5.986214E-17
6.640040E+03	6.236251E-15	6.192161E-17
6.650025E+03	6.441338E-15	6.381701E-17
6.660010E+03	6.613293E-15	6.537531E-17
6.669995E+03	6.735780E-15	6.643752E-17
6.679980E+03	6.796043E-15	6.688136E-17
6.689965E+03	6.786987E-15	6.664127E-17
6.699950E+03	6.708139E-15	6.571728E-17
6.709935E+03	6.565946E-15	6.417708E-17
6.719920E+03	6.372302E-15	6.214096E-17
6.729905E+03	6.142574E-15	5.976195E-17
6.739890E+03	5.893211E-15	5.720225E-17
6.749875E+03	5.639268E-15	5.460902E-17
6.759860E+03	5.393150E-15	5.210250E-17
6.769845E+03	5.163210E-15	4.976272E-17
6.779830E+03	4.954027E-15	4.763265E-17
6.789815E+03	4.766190E-15	4.571659E-17
6.799800E+03	4.597226E-15	4.398942E-17
6.809785E+03	4.442516E-15	4.240579E-17
6.819770E+03	4.295951E-15	4.090659E-17
6.829755E+03	4.151804E-15	3.943688E-17
6.839740E+03	4.005417E-15	3.795238E-17
6.849725E+03	3.854503E-15	3.643169E-17
6.859710E+03	3.699681E-15	3.488100E-17
6.869695E+03	3.544562E-15	3.333457E-17
6.879680E+03	3.395284E-15	3.185006E-17
6.889666E+03	3.259680E-15	3.050037E-17
6.899651E+03	3.146199E-15	2.936341E-17
6.909636E+03	3.063365E-15	2.851697E-17
6.919621E+03	3.019169E-15	2.803307E-17
6.929606E+03	3.021081E-15	2.797811E-17
6.939591E+03	3.076208E-15	2.841443E-17
6.949576E+03	3.191379E-15	2.940109E-17
6.959561E+03	3.373250E-15	3.099486E-17
6.969546E+03	3.627636E-15	3.324419E-17
6.979531E+03	3.958589E-15	3.618078E-17
6.989516E+03	4.366654E-15	3.980398E-17
6.999501E+03	4.846459E-15	4.405925E-17
7.009486E+03	5.384315E-15	4.881721E-17
7.019471E+03	5.957226E-15	5.386559E-17
7.029456E+03	6.532746E-15	5.890920E-17
7.039441E+03	7.072001E-15	6.359819E-17
7.049426E+03	7.534973E-15	6.757633E-17
7.059411E+03	7.886796E-15	7.053740E-17
7.069396E+03	8.104552E-15	7.228517E-17
7.079381E+03	8.180847E-15	7.276383E-17
7.089366E+03	8.124507E-15	7.206214E-17
7.099351E+03	7.957607E-15	7.038522E-17
7.109336E+03	7.710807E-15	6.801172E-17
7.119321E+03	7.417485E-15	6.524117E-17
7.129306E+03	7.109491E-15	6.235642E-17
7.139291E+03	6.814071E-15	5.959686E-17
7.149276E+03	6.552490E-15	5.714707E-17
7.159261E+03	6.340390E-15	5.514058E-17
7.169246E+03	6.187791E-15	5.366064E-17
7.179231E+03	6.100955E-15	5.275701E-17
7.189216E+03	6.082651E-15	5.244873E-17
7.199201E+03	6.133129E-15	5.273288E-17
7.209186E+03	6.250220E-15	5.358584E-17
7.219171E+03	6.429506E-15	5.496494E-17
7.229156E+03	6.663999E-15	5.680611E-17
7.239141E+03	6.943627E-15	5.901969E-17
7.249126E+03	7.255101E-15	6.148986E-17
7.259111E+03	7.581398E-15	6.407046E-17
7.269096E+03	7.902188E-15	6.658921E-17
7.279081E+03	8.194953E-15	6.885742E-17
7.289066E+03	8.436135E-15	7.067983E-17
7.299051E+03	8.604297E-15	7.188121E-17
7.309036E+03	8.682712E-15	7.232759E-17
7.319021E+03	8.662670E-15	7.195318E-17
7.329006E+03	8.545089E-15	7.077268E-17
7.338992E+03	8.340753E-15	6.888217E-17
7.348977E+03	8.068307E-15	6.644134E-17
7.358962E+03	7.750970E-15	6.364566E-17
7.368947E+03	7.412895E-15	6.069600E-17
7.378932E+03	7.075692E-15	5.777019E-17
7.388917E+03	6.756138E-15	5.500466E-17
7.398902E+03	6.465403E-15	5.248879E-17
7.408887E+03	6.209028E-15	5.026537E-17
7.418872E+03	5.987277E-15	4.833411E-17
7.428857E+03	5.796818E-15	4.666576E-17
7.438842E+03	5.631344E-15	4.520752E-17
7.448827E+03	5.483033E-15	4.389506E-17
7.458812E+03	5.343991E-15	4.266416E-17
7.468797E+03	5.206973E-15	4.145650E-17
7.478782E+03	5.066309E-15	4.022689E-17
7.488767E+03	4.918497E-15	3.894779E-17
7.498752E+03	4.762348E-15	3.761022E-17
7.508737E+03	4.598445E-15	3.621923E-17
7.518722E+03	4.429033E-15	3.479289E-17
7.528707E+03	4.257237E-15	3.335593E-17
7.538692E+03	4.086897E-15	3.193842E-17
7.548677E+03	3.921839E-15	3.057000E-17
7.558662E+03	3.765897E-15	2.928009E-17
7.568647E+03	3.622550E-15	2.809501E-17
7.578632E+03	3.494835E-15	2.703746E-17
7.588617E+03	3.385336E-15	2.612638E-17
7.598602E+03	3.296027E-15	2.537588E-17
7.608587E+03	3.228570E-15	2.479756E-17
7.618572E+03	3.184115E-15	2.439898E-17
7.628557E+03	3.163802E-15	2.418763E-17
7.638542E+03	3.168597E-15	2.416959E-17
7.648527E+03	3.199631E-15	2.435222E-17
7.658512E+03	3.258102E-15	2.474335E-17
7.668497E+03	3.345479E-15	2.535285E-17
7.678482E+03	3.463026E-15	2.618902E-17
7.688467E+03	3.611881E-15	2.725918E-17
7.698452E+03	3.792194E-15	2.856324E-17
7.708437E+03	4.002820E-15	3.009145E-17
7.718422E+03	4.240114E-15	3.181543E-17
7.728407E+03	4.497292E-15	3.368361E-17
7.738392E+03	4.763752E-15	3.561629E-17
7.748377E+03	5.024560E-15	3.750206E-17
