#wls	flux	fluxerr
1.597604E+03	2.221852E-17	5.468013E-19
1.637544E+03	2.228321E-17	5.463555E-19
1.677484E+03	2.232396E-17	5.452707E-19
1.717424E+03	2.234252E-17	5.435952E-19
1.757364E+03	2.233905E-17	5.413386E-19
1.797304E+03	2.230636E-17	5.383340E-19
1.837244E+03	2.223402E-17	5.343387E-19
1.877184E+03	2.211303E-17	5.291506E-19
1.917124E+03	2.192219E-17	5.222794E-19
1.957064E+03	2.165788E-17	5.136625E-19
1.997004E+03	2.133429E-17	5.036604E-19
2.036945E+03	2.099070E-17	4.932170E-19
2.076885E+03	2.073390E-17	4.848384E-19
2.116825E+03	2.070309E-17	4.817357E-19
2.156765E+03	2.103765E-17	4.870583E-19
2.196705E+03	2.181192E-17	5.023883E-19
2.236645E+03	2.301176E-17	5.272407E-19
2.276585E+03	2.456601E-17	5.598330E-19
2.316525E+03	2.639740E-17	5.982747E-19
2.356465E+03	2.845551E-17	6.413161E-19
2.396405E+03	3.072486E-17	6.885139E-19
2.436345E+03	3.321929E-17	7.400836E-19
2.476286E+03	3.597996E-17	7.968369E-19
2.516226E+03	3.904376E-17	8.594675E-19
2.556166E+03	4.248374E-17	9.294388E-19
2.596106E+03	4.635357E-17	1.007751E-18
2.636046E+03	5.074473E-17	1.096188E-18
2.675986E+03	5.573218E-17	1.196126E-18
2.715926E+03	6.139311E-17	1.308944E-18
2.755866E+03	6.783989E-17	1.436720E-18
2.795806E+03	7.515446E-17	1.580823E-18
2.835746E+03	8.342395E-17	1.742683E-18
2.875686E+03	9.272303E-17	1.923420E-18
2.915627E+03	1.031047E-16	2.123661E-18
2.955567E+03	1.145881E-16	2.343310E-18
2.995507E+03	1.271453E-16	2.581311E-18
3.005492E+03	1.304436E-16	2.643445E-18
3.015477E+03	1.338017E-16	2.706543E-18
3.025462E+03	1.372176E-16	2.770556E-18
3.035447E+03	1.407149E-16	2.835954E-18
3.045432E+03	1.442437E-16	2.901726E-18
3.055417E+03	1.478334E-16	2.968458E-18
3.065402E+03	1.514797E-16	3.036055E-18
3.075387E+03	1.551776E-16	3.104415E-18
3.085372E+03	1.589224E-16	3.173437E-18
3.095357E+03	1.627089E-16	3.243012E-18
3.105342E+03	1.665316E-16	3.313027E-18
3.115327E+03	1.703851E-16	3.383372E-18
3.125312E+03	1.742636E-16	3.453929E-18
3.135297E+03	1.781613E-16	3.524581E-18
3.145282E+03	1.820724E-16	3.595212E-18
3.155267E+03	1.860237E-16	3.666350E-18
3.165252E+03	1.899445E-16	3.736600E-18
3.175237E+03	1.938613E-16	3.806486E-18
3.185222E+03	1.977684E-16	3.875900E-18
3.195207E+03	2.016605E-16	3.944738E-18
3.205192E+03	2.055327E-16	4.012909E-18
3.215177E+03	2.093805E-16	4.080328E-18
3.225162E+03	2.131999E-16	4.146922E-18
3.235147E+03	2.169877E-16	4.212632E-18
3.245132E+03	2.207416E-16	4.277419E-18
3.255117E+03	2.244993E-16	4.342016E-18
3.265102E+03	2.281824E-16	4.404914E-18
3.275087E+03	2.318308E-16	4.466888E-18
3.285072E+03	2.354467E-16	4.527988E-18
3.295057E+03	2.390345E-16	4.588302E-18
3.305042E+03	2.426003E-16	4.647954E-18
3.315027E+03	2.461528E-16	4.707112E-18
3.325012E+03	2.497467E-16	4.766826E-18
3.334998E+03	2.533095E-16	4.825710E-18
3.344983E+03	2.569015E-16	4.884917E-18
3.354968E+03	2.605415E-16	4.944804E-18
3.364953E+03	2.642426E-16	5.005613E-18
3.374938E+03	2.680028E-16	5.067306E-18
3.384923E+03	2.718107E-16	5.129662E-18
3.394908E+03	2.756434E-16	5.192247E-18
3.404893E+03	2.795055E-16	5.255147E-18
3.414878E+03	2.832397E-16	5.315412E-18
3.424863E+03	2.868073E-16	5.372331E-18
3.434848E+03	2.900742E-16	5.423418E-18
3.444833E+03	2.928807E-16	5.465726E-18
3.454818E+03	2.950613E-16	5.496224E-18
3.464803E+03	2.965008E-16	5.512839E-18
3.474788E+03	2.969480E-16	5.510982E-18
3.484773E+03	2.963708E-16	5.490168E-18
3.494758E+03	2.947909E-16	5.450900E-18
3.504743E+03	2.923083E-16	5.395129E-18
3.514728E+03	2.891043E-16	5.326286E-18
3.524713E+03	2.855143E-16	5.250613E-18
3.534698E+03	2.817666E-16	5.172336E-18
3.544683E+03	2.782279E-16	5.098192E-18
3.554668E+03	2.751829E-16	5.033366E-18
3.564653E+03	2.728660E-16	4.982088E-18
3.574638E+03	2.714554E-16	4.947537E-18
3.584623E+03	2.710577E-16	4.931563E-18
3.594608E+03	2.716854E-16	4.934298E-18
3.604593E+03	2.730452E-16	4.950325E-18
3.614578E+03	2.748709E-16	4.974761E-18
3.624563E+03	2.767558E-16	5.000214E-18
3.634548E+03	2.782570E-16	5.018692E-18
3.644533E+03	2.789755E-16	5.023045E-18
3.654518E+03	2.785998E-16	5.007753E-18
3.664503E+03	2.767302E-16	4.965740E-18
3.674488E+03	2.732178E-16	4.894474E-18
3.684473E+03	2.679541E-16	4.792163E-18
3.694458E+03	2.609003E-16	4.658266E-18
3.704443E+03	2.520914E-16	4.493563E-18
3.714428E+03	2.416882E-16	4.301065E-18
3.724413E+03	2.298458E-16	4.083658E-18
3.734398E+03	2.169912E-16	3.849037E-18
3.744383E+03	2.035811E-16	3.605365E-18
3.754368E+03	1.901391E-16	3.361939E-18
3.764353E+03	1.772961E-16	3.129891E-18
3.774338E+03	1.655362E-16	2.917692E-18
3.784324E+03	1.553065E-16	2.733115E-18
3.794309E+03	1.468971E-16	2.581120E-18
3.804294E+03	1.405169E-16	2.465219E-18
3.814279E+03	1.363131E-16	2.387821E-18
3.824264E+03	1.343869E-16	2.350519E-18
3.834249E+03	1.348873E-16	2.355732E-18
3.844234E+03	1.379456E-16	2.405560E-18
3.854219E+03	1.438060E-16	2.504059E-18
3.864204E+03	1.527843E-16	2.656507E-18
3.874189E+03	1.653087E-16	2.870110E-18
3.884174E+03	1.818886E-16	3.153441E-18
3.894159E+03	2.031492E-16	3.517035E-18
3.904144E+03	2.295759E-16	3.968954E-18
3.914129E+03	2.614361E-16	4.513464E-18
3.924114E+03	2.985079E-16	5.146368E-18
3.934099E+03	3.399878E-16	5.853495E-18
3.944084E+03	3.843161E-16	6.607754E-18
3.954069E+03	4.291133E-16	7.368127E-18
3.964054E+03	4.716595E-16	8.087981E-18
3.974039E+03	5.093407E-16	8.722744E-18
3.984024E+03	5.403177E-16	9.241317E-18
3.994009E+03	5.633770E-16	9.623445E-18
4.003994E+03	5.783242E-16	9.866355E-18
4.013979E+03	5.857916E-16	9.981355E-18
4.023964E+03	5.868232E-16	9.986696E-18
4.033949E+03	5.826740E-16	9.904117E-18
4.043934E+03	5.743490E-16	9.750997E-18
4.053919E+03	5.631466E-16	9.549600E-18
4.063904E+03	5.501483E-16	9.318409E-18
4.073889E+03	5.363274E-16	9.073986E-18
4.083874E+03	5.225699E-16	8.831337E-18
4.093859E+03	5.096663E-16	8.603795E-18
4.103844E+03	4.982830E-16	8.402537E-18
4.113829E+03	4.889442E-16	8.236300E-18
4.123814E+03	4.816103E-16	8.104301E-18
4.133799E+03	4.763323E-16	8.007285E-18
4.143784E+03	4.730395E-16	7.943954E-18
4.153769E+03	4.716597E-16	7.912999E-18
4.163754E+03	4.721268E-16	7.913212E-18
4.173739E+03	4.744130E-16	7.944045E-18
4.183724E+03	4.785656E-16	8.006203E-18
4.193709E+03	4.846503E-16	8.100710E-18
4.203694E+03	4.926321E-16	8.226899E-18
4.213679E+03	5.023609E-16	8.382194E-18
4.223665E+03	5.133058E-16	8.557683E-18
4.233650E+03	5.252003E-16	8.748891E-18
4.243635E+03	5.377858E-16	8.951492E-18
4.253620E+03	5.508568E-16	9.162055E-18
4.263605E+03	5.642226E-16	9.377413E-18
4.273590E+03	5.777108E-16	9.594710E-18
4.283575E+03	5.911377E-16	9.810911E-18
4.293560E+03	6.042063E-16	1.002111E-17
4.303545E+03	6.164073E-16	1.021690E-17
4.313530E+03	6.271342E-16	1.038828E-17
4.323515E+03	6.359047E-16	1.052733E-17
4.333500E+03	6.425267E-16	1.063093E-17
4.343485E+03	6.470289E-16	1.069964E-17
4.353470E+03	6.496178E-16	1.073693E-17
4.363455E+03	6.507011E-16	1.074960E-17
4.373440E+03	6.507694E-16	1.074578E-17
4.383425E+03	6.502456E-16	1.073249E-17
4.393410E+03	6.493989E-16	1.071417E-17
4.403395E+03	6.484956E-16	1.069523E-17
4.413380E+03	6.475012E-16	1.067511E-17
4.423365E+03	6.468820E-16	1.066149E-17
4.433350E+03	6.471436E-16	1.066269E-17
4.443335E+03	6.490984E-16	1.069209E-17
4.453320E+03	6.540921E-16	1.077184E-17
4.463305E+03	6.637598E-16	1.092883E-17
4.473290E+03	6.796782E-16	1.118897E-17
4.483275E+03	7.030558E-16	1.157213E-17
4.493260E+03	7.352559E-16	1.210072E-17
4.503245E+03	7.764928E-16	1.277824E-17
4.513230E+03	8.252524E-16	1.357979E-17
4.523215E+03	8.784418E-16	1.445452E-17
4.533200E+03	9.320494E-16	1.533647E-17
4.543185E+03	9.815805E-16	1.615174E-17
4.553170E+03	1.022338E-15	1.682309E-17
4.563155E+03	1.050506E-15	1.728773E-17
4.573140E+03	1.064549E-15	1.752040E-17
4.583125E+03	1.064842E-15	1.752720E-17
4.593110E+03	1.053147E-15	1.733706E-17
4.603095E+03	1.032500E-15	1.699988E-17
4.613080E+03	1.006404E-15	1.657321E-17
4.623065E+03	9.777452E-16	1.610452E-17
4.633050E+03	9.481760E-16	1.562097E-17
4.643035E+03	9.186265E-16	1.513783E-17
4.653020E+03	8.897644E-16	1.466609E-17
4.663005E+03	8.619281E-16	1.421128E-17
4.672991E+03	8.357743E-16	1.378423E-17
4.682976E+03	8.114256E-16	1.338694E-17
4.692961E+03	7.890855E-16	1.302277E-17
4.702946E+03	7.688926E-16	1.269403E-17
4.712931E+03	7.509038E-16	1.240167E-17
4.722916E+03	7.350773E-16	1.214500E-17
4.732901E+03	7.213133E-16	1.192242E-17
4.742886E+03	7.093360E-16	1.172938E-17
4.752871E+03	6.991570E-16	1.156609E-17
4.762856E+03	6.903851E-16	1.142612E-17
4.772841E+03	6.827257E-16	1.130459E-17
4.782826E+03	6.758433E-16	1.119597E-17
4.792811E+03	6.694353E-16	1.109525E-17
4.802796E+03	6.633169E-16	1.099937E-17
4.812781E+03	6.580353E-16	1.091740E-17
4.822766E+03	6.540035E-16	1.085622E-17
4.832751E+03	6.517866E-16	1.082523E-17
4.842736E+03	6.519447E-16	1.083379E-17
4.852721E+03	6.548377E-16	1.088794E-17
4.862706E+03	6.607215E-16	1.099201E-17
4.872691E+03	6.687174E-16	1.113146E-17
4.882676E+03	6.775999E-16	1.128593E-17
4.892661E+03	6.861659E-16	1.143540E-17
4.902646E+03	6.933807E-16	1.156261E-17
4.912631E+03	6.988474E-16	1.166088E-17
4.922616E+03	7.023932E-16	1.172729E-17
4.932601E+03	7.049221E-16	1.177686E-17
4.942586E+03	7.077171E-16	1.183102E-17
4.952571E+03	7.122891E-16	1.191504E-17
4.962556E+03	7.193271E-16	1.204051E-17
4.972541E+03	7.292438E-16	1.221441E-17
4.982526E+03	7.415543E-16	1.242871E-17
4.992511E+03	7.547916E-16	1.265890E-17
5.002496E+03	7.663393E-16	1.286107E-17
5.012481E+03	7.737295E-16	1.299374E-17
5.022466E+03	7.756561E-16	1.303482E-17
5.032451E+03	7.711899E-16	1.296848E-17
5.042436E+03	7.605232E-16	1.279774E-17
5.052421E+03	7.457988E-16	1.255847E-17
5.062406E+03	7.295358E-16	1.229297E-17
5.072391E+03	7.142742E-16	1.204401E-17
5.082376E+03	7.027096E-16	1.185710E-17
5.092361E+03	6.968696E-16	1.176661E-17
5.102346E+03	6.981258E-16	1.179590E-17
5.112332E+03	7.071831E-16	1.195713E-17
5.122317E+03	7.238242E-16	1.224690E-17
5.132302E+03	7.474059E-16	1.265457E-17
5.142287E+03	7.769447E-16	1.316373E-17
5.152272E+03	8.105305E-16	1.374219E-17
5.162257E+03	8.460475E-16	1.435419E-17
5.172242E+03	8.819155E-16	1.497297E-17
5.182227E+03	9.160481E-16	1.556308E-17
5.192212E+03	9.472191E-16	1.610362E-17
5.202197E+03	9.743991E-16	1.657696E-17
5.212182E+03	9.970046E-16	1.697302E-17
5.222167E+03	1.015066E-15	1.729217E-17
5.232152E+03	1.027873E-15	1.752212E-17
5.242137E+03	1.035417E-15	1.766255E-17
5.252122E+03	1.037116E-15	1.770335E-17
5.262107E+03	1.033225E-15	1.764864E-17
5.272092E+03	1.023645E-15	1.749656E-17
5.282077E+03	1.008535E-15	1.724962E-17
5.292062E+03	9.888696E-16	1.692434E-17
5.302047E+03	9.651305E-16	1.652879E-17
5.312032E+03	9.385153E-16	1.608336E-17
5.322017E+03	9.095626E-16	1.559720E-17
5.332002E+03	8.794224E-16	1.508997E-17
5.341987E+03	8.486341E-16	1.457089E-17
5.351972E+03	8.183542E-16	1.405982E-17
5.361957E+03	7.891089E-16	1.356582E-17
5.371942E+03	7.618587E-16	1.310546E-17
5.381927E+03	7.368911E-16	1.268374E-17
5.391912E+03	7.148944E-16	1.231261E-17
5.401897E+03	6.959314E-16	1.199324E-17
5.411882E+03	6.802944E-16	1.173076E-17
5.421867E+03	6.682020E-16	1.152906E-17
5.431852E+03	6.595348E-16	1.138619E-17
5.441837E+03	6.546548E-16	1.130850E-17
5.451822E+03	6.535018E-16	1.129506E-17
5.461807E+03	6.564006E-16	1.135161E-17
5.471792E+03	6.630764E-16	1.147350E-17
5.481777E+03	6.735043E-16	1.166042E-17
5.491762E+03	6.874653E-16	1.190866E-17
5.501747E+03	7.039448E-16	1.220075E-17
5.511732E+03	7.220848E-16	1.252187E-17
5.521717E+03	7.402668E-16	1.284397E-17
5.531702E+03	7.568059E-16	1.313780E-17
5.541687E+03	7.698196E-16	1.337061E-17
5.551672E+03	7.772391E-16	1.350635E-17
5.561658E+03	7.780560E-16	1.352734E-17
5.571643E+03	7.713028E-16	1.341658E-17
5.581628E+03	7.571116E-16	1.317616E-17
5.591613E+03	7.364788E-16	1.282326E-17
5.601598E+03	7.105231E-16	1.237720E-17
5.611583E+03	6.807840E-16	1.186469E-17
5.621568E+03	6.485788E-16	1.130862E-17
5.631553E+03	6.146868E-16	1.072253E-17
5.641538E+03	5.798408E-16	1.011919E-17
5.651523E+03	5.442070E-16	9.501483E-18
5.661508E+03	5.075813E-16	8.865843E-18
5.671493E+03	4.704275E-16	8.220367E-18
5.681478E+03	4.336048E-16	7.580072E-18
5.691463E+03	3.982171E-16	6.964288E-18
5.701448E+03	3.652166E-16	6.389719E-18
5.711433E+03	3.358274E-16	5.877851E-18
5.721418E+03	3.110549E-16	5.446376E-18
5.731403E+03	2.914347E-16	5.104774E-18
5.741388E+03	2.774486E-16	4.861602E-18
5.751373E+03	2.694598E-16	4.723342E-18
5.761358E+03	2.678966E-16	4.697619E-18
5.771343E+03	2.731273E-16	4.791018E-18
5.781328E+03	2.859145E-16	5.017042E-18
5.791313E+03	3.072955E-16	5.394033E-18
5.801298E+03	3.385381E-16	5.944393E-18
5.811283E+03	3.811808E-16	6.695307E-18
5.821268E+03	4.365495E-16	7.670246E-18
5.831253E+03	5.055329E-16	8.885023E-18
5.841238E+03	5.876723E-16	1.033177E-17
5.851223E+03	6.803983E-16	1.196547E-17
5.861208E+03	7.783723E-16	1.369235E-17
5.871193E+03	8.729109E-16	1.535966E-17
5.881178E+03	9.539181E-16	1.678963E-17
5.891163E+03	1.011727E-15	1.781183E-17
5.901148E+03	1.039565E-15	1.830666E-17
5.911133E+03	1.035609E-15	1.824159E-17
5.921118E+03	1.002865E-15	1.766916E-17
5.931103E+03	9.485938E-16	1.671695E-17
5.941088E+03	8.812626E-16	1.553399E-17
5.951073E+03	8.088181E-16	1.426024E-17
5.961058E+03	7.373777E-16	1.300353E-17
5.971043E+03	6.707482E-16	1.183105E-17
5.981028E+03	6.106913E-16	1.077397E-17
5.991013E+03	5.577784E-16	9.842446E-18
6.000999E+03	5.116986E-16	9.031095E-18
6.010984E+03	4.722612E-16	8.336636E-18
6.020969E+03	4.391604E-16	7.753745E-18
6.030954E+03	4.121886E-16	7.278832E-18
6.040939E+03	3.912892E-16	6.910966E-18
6.050924E+03	3.764560E-16	6.650094E-18
6.060909E+03	3.676199E-16	6.495056E-18
6.070894E+03	3.645986E-16	6.442688E-18
6.080879E+03	3.671298E-16	6.488402E-18
6.090864E+03	3.748420E-16	6.625677E-18
6.100849E+03	3.871863E-16	6.844847E-18
6.110834E+03	4.035756E-16	7.135568E-18
6.120819E+03	4.232810E-16	7.484973E-18
6.130804E+03	4.460440E-16	7.888514E-18
6.140789E+03	4.720399E-16	8.349304E-18
6.150774E+03	5.022877E-16	8.885391E-18
6.160759E+03	5.389961E-16	9.535869E-18
6.170744E+03	5.855258E-16	1.036024E-17
6.180729E+03	6.460841E-16	1.143300E-17
6.190714E+03	7.254181E-16	1.283824E-17
6.200699E+03	8.288581E-16	1.467039E-17
6.210684E+03	9.620633E-16	1.702975E-17
6.220669E+03	1.130078E-15	2.000575E-17
6.230654E+03	1.336305E-15	2.365880E-17
6.240639E+03	1.580762E-15	2.798938E-17
6.250624E+03	1.857418E-15	3.289083E-17
6.260609E+03	2.152228E-15	3.811457E-17
6.270594E+03	2.443155E-15	4.327032E-17
6.280579E+03	2.702817E-15	4.787309E-17
6.290564E+03	2.902950E-15	5.142205E-17
6.300549E+03	3.020502E-15	5.350854E-17
6.310534E+03	3.046142E-15	5.396694E-17
6.320519E+03	2.982455E-15	5.284267E-17
6.330504E+03	2.843411E-15	5.038291E-17
6.340489E+03	2.649817E-15	4.695607E-17
6.350474E+03	2.424503E-15	4.296657E-17
6.360459E+03	2.188378E-15	3.878486E-17
6.370444E+03	1.958125E-15	3.470661E-17
6.380429E+03	1.745415E-15	3.093874E-17
6.390414E+03	1.557147E-15	2.760357E-17
6.400399E+03	1.396319E-15	2.475440E-17
6.410384E+03	1.263272E-15	2.239738E-17
6.420369E+03	1.156595E-15	2.050758E-17
6.430354E+03	1.073578E-15	1.903706E-17
6.440339E+03	1.011647E-15	1.794028E-17
6.450325E+03	9.674314E-16	1.715754E-17
6.460310E+03	9.374487E-16	1.662714E-17
6.470295E+03	9.182022E-16	1.628713E-17
6.480280E+03	9.063608E-16	1.607846E-17
6.490265E+03	8.987781E-16	1.594535E-17
6.500250E+03	8.926535E-16	1.583812E-17
6.510235E+03	8.855965E-16	1.571438E-17
6.520220E+03	8.763988E-16	1.555267E-17
6.530205E+03	8.642062E-16	1.533783E-17
6.540190E+03	8.489446E-16	1.506852E-17
6.550175E+03	8.308471E-16	1.474886E-17
6.560160E+03	8.102851E-16	1.438542E-17
6.570145E+03	7.875287E-16	1.398299E-17
6.580130E+03	7.632234E-16	1.355300E-17
6.590115E+03	7.376681E-16	1.310075E-17
6.600100E+03	7.114076E-16	1.263590E-17
6.610085E+03	6.850293E-16	1.216888E-17
6.620070E+03	6.589342E-16	1.170681E-17
6.630055E+03	6.336200E-16	1.125852E-17
6.640040E+03	6.088992E-16	1.082069E-17
6.650025E+03	5.844494E-16	1.038759E-17
6.660010E+03	5.598238E-16	9.951270E-18
6.669995E+03	5.344886E-16	9.502238E-18
6.679980E+03	5.083810E-16	9.039368E-18
6.689965E+03	4.814966E-16	8.562573E-18
6.699950E+03	4.542572E-16	8.079344E-18
6.709935E+03	4.272573E-16	7.600250E-18
6.719920E+03	4.010139E-16	7.134489E-18
6.729905E+03	3.761249E-16	6.692703E-18
6.739890E+03	3.528074E-16	6.278761E-18
6.749875E+03	3.311947E-16	5.895047E-18
6.759860E+03	3.112577E-16	5.541056E-18
6.769845E+03	2.930756E-16	5.218208E-18
6.779830E+03	2.765584E-16	4.924914E-18
6.789815E+03	2.616457E-16	4.660112E-18
6.799800E+03	2.484269E-16	4.425405E-18
6.809785E+03	2.368575E-16	4.220015E-18
6.819770E+03	2.269367E-16	4.043941E-18
6.829755E+03	2.186286E-16	3.896558E-18
6.839740E+03	2.120222E-16	3.779464E-18
6.849725E+03	2.071154E-16	3.692638E-18
6.859710E+03	2.039375E-16	3.636618E-18
6.869695E+03	2.026501E-16	3.614301E-18
6.879680E+03	2.033387E-16	3.627230E-18
6.889666E+03	2.061481E-16	3.678010E-18
6.899651E+03	2.112076E-16	3.768967E-18
6.909636E+03	2.187663E-16	3.904568E-18
6.919621E+03	2.289743E-16	4.087521E-18
6.929606E+03	2.419687E-16	4.320299E-18
6.939591E+03	2.579794E-16	4.607037E-18
6.949576E+03	2.770588E-16	4.948705E-18
6.959561E+03	2.991458E-16	5.344245E-18
6.969546E+03	3.241718E-16	5.792460E-18
6.979531E+03	3.517142E-16	6.285836E-18
6.989516E+03	3.810851E-16	6.812104E-18
6.999501E+03	4.115424E-16	7.358017E-18
7.009486E+03	4.419221E-16	7.902778E-18
7.019471E+03	4.713271E-16	8.430340E-18
7.029456E+03	4.988133E-16	8.923809E-18
7.039441E+03	5.237344E-16	9.371603E-18
7.049426E+03	5.461047E-16	9.773950E-18
7.059411E+03	5.660879E-16	1.013376E-17
7.069396E+03	5.841848E-16	1.045996E-17
7.079381E+03	6.014424E-16	1.077131E-17
7.089366E+03	6.186463E-16	1.108185E-17
7.099351E+03	6.370106E-16	1.141334E-17
7.109336E+03	6.573765E-16	1.178089E-17
7.119321E+03	6.804820E-16	1.219774E-17
7.129306E+03	7.073684E-16	1.268260E-17
7.139291E+03	7.387039E-16	1.324751E-17
7.149276E+03	7.759026E-16	1.391790E-17
7.159261E+03	8.204849E-16	1.472112E-17
7.169246E+03	8.746161E-16	1.569614E-17
7.179231E+03	9.417060E-16	1.690430E-17
7.189216E+03	1.025377E-15	1.841084E-17
7.199201E+03	1.130551E-15	2.030436E-17
7.209186E+03	1.261768E-15	2.266676E-17
7.219171E+03	1.424098E-15	2.558955E-17
7.229156E+03	1.620811E-15	2.913193E-17
7.239141E+03	1.852363E-15	3.330265E-17
7.249126E+03	2.115468E-15	3.804318E-17
7.259111E+03	2.398886E-15	4.315184E-17
7.269096E+03	2.684782E-15	4.830810E-17
7.279081E+03	2.946211E-15	5.302710E-17
7.289066E+03	3.153952E-15	5.678247E-17
7.299051E+03	3.278806E-15	5.904757E-17
7.309036E+03	3.302793E-15	5.949724E-17
7.319021E+03	3.220355E-15	5.802975E-17
7.329006E+03	3.044243E-15	5.487316E-17
7.338992E+03	2.797878E-15	5.044816E-17
7.348977E+03	2.512926E-15	4.532465E-17
7.358962E+03	2.218141E-15	4.002070E-17
7.368947E+03	1.937588E-15	3.497036E-17
7.378932E+03	1.685130E-15	3.042412E-17
7.388917E+03	1.467750E-15	2.650849E-17
7.398902E+03	1.285076E-15	2.321737E-17
7.408887E+03	1.133899E-15	2.049332E-17
7.418872E+03	1.008337E-15	1.823058E-17
7.428857E+03	9.030284E-16	1.633263E-17
7.438842E+03	8.126204E-16	1.470298E-17
7.448827E+03	7.335038E-16	1.327657E-17
7.458812E+03	6.627020E-16	1.199972E-17
7.468797E+03	5.987767E-16	1.084651E-17
7.478782E+03	5.406208E-16	9.797014E-18
7.488767E+03	4.880289E-16	8.847607E-18
7.498752E+03	4.406667E-16	7.992328E-18
7.508737E+03	3.985978E-16	7.232433E-18
7.518722E+03	3.615559E-16	6.563193E-18
7.528707E+03	3.294309E-16	5.982711E-18
7.538692E+03	3.020350E-16	5.487682E-18
7.548677E+03	2.789951E-16	5.071426E-18
7.558662E+03	2.601454E-16	4.731029E-18
7.568647E+03	2.451529E-16	4.460531E-18
7.578632E+03	2.339022E-16	4.257929E-18
7.588617E+03	2.261590E-16	4.119047E-18
7.598602E+03	2.218682E-16	4.042977E-18
7.608587E+03	2.210338E-16	4.029886E-18
7.618572E+03	2.236119E-16	4.079072E-18
7.628557E+03	2.297693E-16	4.193683E-18
7.638542E+03	2.395628E-16	4.374871E-18
7.648527E+03	2.531775E-16	4.626132E-18
7.658512E+03	2.707763E-16	4.950574E-18
7.668497E+03	2.922999E-16	5.347255E-18
7.678482E+03	3.177172E-16	5.815746E-18
7.688467E+03	3.465632E-16	6.347680E-18
7.698452E+03	3.782240E-16	6.931942E-18
7.708437E+03	4.117558E-16	7.551348E-18
7.718422E+03	4.456422E-16	8.178158E-18
7.728407E+03	4.782138E-16	8.781760E-18
7.738392E+03	5.075455E-16	9.326755E-18
7.748377E+03	5.313343E-16	9.770696E-18
