#wls	flux	fluxerr
1.597604E+03	1.381378E-17	5.355730E-19
1.637544E+03	1.388533E-17	5.355236E-19
1.677484E+03	1.394365E-17	5.348854E-19
1.717424E+03	1.398959E-17	5.336987E-19
1.757364E+03	1.402302E-17	5.319654E-19
1.797304E+03	1.403913E-17	5.295114E-19
1.837244E+03	1.403095E-17	5.260862E-19
1.877184E+03	1.398981E-17	5.213829E-19
1.917124E+03	1.390667E-17	5.150899E-19
1.957064E+03	1.377597E-17	5.070320E-19
1.997004E+03	1.360353E-17	4.974569E-19
2.036945E+03	1.341858E-17	4.874584E-19
2.076885E+03	1.328413E-17	4.793210E-19
2.116825E+03	1.329179E-17	4.762922E-19
2.156765E+03	1.353143E-17	4.814641E-19
2.196705E+03	1.405131E-17	4.963634E-19
2.236645E+03	1.484234E-17	5.204511E-19
2.276585E+03	1.585784E-17	5.518828E-19
2.316525E+03	1.704926E-17	5.887949E-19
2.356465E+03	1.837560E-17	6.296293E-19
2.396405E+03	1.982639E-17	6.739087E-19
2.436345E+03	2.140661E-17	7.216849E-19
2.476286E+03	2.313815E-17	7.735679E-19
2.516226E+03	2.503923E-17	8.300203E-19
2.556166E+03	2.714581E-17	8.920638E-19
2.596106E+03	2.949988E-17	9.608733E-19
2.636046E+03	3.213209E-17	1.037207E-18
2.675986E+03	3.509207E-17	1.122390E-18
2.715926E+03	3.843544E-17	1.217878E-18
2.755866E+03	4.220169E-17	1.324549E-18
2.795806E+03	4.646184E-17	1.444213E-18
2.835746E+03	5.125982E-17	1.577758E-18
2.875686E+03	5.667588E-17	1.727123E-18
2.915627E+03	6.275548E-17	1.893100E-18
2.955567E+03	6.958595E-17	2.077677E-18
2.995507E+03	7.721046E-17	2.281433E-18
3.005492E+03	7.926085E-17	2.335878E-18
3.015477E+03	8.135281E-17	2.391224E-18
3.025462E+03	8.351615E-17	2.448337E-18
3.035447E+03	8.572340E-17	2.506396E-18
3.045432E+03	8.799135E-17	2.565881E-18
3.055417E+03	9.034239E-17	2.627430E-18
3.065402E+03	9.274510E-17	2.690113E-18
3.075387E+03	9.521576E-17	2.754389E-18
3.085372E+03	9.777246E-17	2.820764E-18
3.095357E+03	1.003813E-16	2.888243E-18
3.105342E+03	1.030782E-16	2.957850E-18
3.115327E+03	1.058277E-16	3.028543E-18
3.125312E+03	1.086484E-16	3.100844E-18
3.135297E+03	1.115608E-16	3.175326E-18
3.145282E+03	1.145264E-16	3.250871E-18
3.155267E+03	1.175864E-16	3.328632E-18
3.165252E+03	1.206999E-16	3.407440E-18
3.175237E+03	1.238882E-16	3.487880E-18
3.185222E+03	1.271746E-16	3.570590E-18
3.195207E+03	1.305148E-16	3.654308E-18
3.205192E+03	1.339553E-16	3.740324E-18
3.215177E+03	1.374490E-16	3.827305E-18
3.225162E+03	1.410443E-16	3.916583E-18
3.235147E+03	1.446910E-16	4.006749E-18
3.245132E+03	1.484126E-16	4.098438E-18
3.255117E+03	1.522345E-16	4.192340E-18
3.265102E+03	1.561002E-16	4.286881E-18
3.275087E+03	1.600610E-16	4.383456E-18
3.285072E+03	1.640547E-16	4.480350E-18
3.295057E+03	1.681018E-16	4.578116E-18
3.305042E+03	1.722227E-16	4.677301E-18
3.315027E+03	1.763437E-16	4.775892E-18
3.325012E+03	1.805098E-16	4.875113E-18
3.334998E+03	1.846358E-16	4.972660E-18
3.344983E+03	1.887263E-16	5.068669E-18
3.354968E+03	1.927828E-16	5.163193E-18
3.364953E+03	1.966972E-16	5.253357E-18
3.374938E+03	2.004917E-16	5.339789E-18
3.384923E+03	2.040404E-16	5.419174E-18
3.394908E+03	2.073527E-16	5.491822E-18
3.404893E+03	2.102854E-16	5.554006E-18
3.414878E+03	2.127992E-16	5.604783E-18
3.424863E+03	2.148528E-16	5.643160E-18
3.434848E+03	2.162885E-16	5.665114E-18
3.444833E+03	2.171040E-16	5.670719E-18
3.454818E+03	2.171476E-16	5.656169E-18
3.464803E+03	2.163937E-16	5.620962E-18
3.474788E+03	2.379452E-16	6.163732E-18
3.476785E+03	2.369041E-16	6.133379E-18
3.478782E+03	2.352722E-16	6.087770E-18
3.480779E+03	2.341613E-16	6.055685E-18
3.482776E+03	2.336402E-16	6.038882E-18
3.484773E+03	2.334784E-16	6.031377E-18
3.486770E+03	2.339245E-16	6.039573E-18
3.488767E+03	2.327263E-16	6.005331E-18
3.490764E+03	2.307820E-16	5.951886E-18
3.492761E+03	2.294451E-16	5.914154E-18
3.494758E+03	2.283818E-16	5.883512E-18
3.496755E+03	2.267779E-16	5.838982E-18
3.498752E+03	2.262964E-16	5.823386E-18
3.500749E+03	2.260635E-16	5.814200E-18
3.502746E+03	2.247321E-16	5.776788E-18
3.504743E+03	2.230482E-16	5.730358E-18
3.506740E+03	2.221102E-16	5.703133E-18
3.508737E+03	2.222451E-16	5.703472E-18
3.510734E+03	2.212720E-16	5.675390E-18
3.512731E+03	2.207796E-16	5.659662E-18
3.514728E+03	2.205275E-16	5.650107E-18
3.516725E+03	2.195102E-16	5.620970E-18
3.518722E+03	2.179593E-16	5.578207E-18
3.520719E+03	2.174999E-16	5.563408E-18
3.522716E+03	2.153884E-16	5.506393E-18
3.524713E+03	2.147560E-16	5.487231E-18
3.526710E+03	2.136585E-16	5.456211E-18
3.528707E+03	2.129305E-16	5.434658E-18
3.530704E+03	2.122452E-16	5.414218E-18
3.532701E+03	2.113357E-16	5.388083E-18
3.534698E+03	2.104257E-16	5.361963E-18
3.536695E+03	2.094807E-16	5.334981E-18
3.538692E+03	2.093370E-16	5.328425E-18
3.540689E+03	2.086068E-16	5.306957E-18
3.542686E+03	2.078676E-16	5.285283E-18
3.544683E+03	2.064984E-16	5.247620E-18
3.546680E+03	2.051974E-16	5.211733E-18
3.548677E+03	2.039648E-16	5.177622E-18
3.550674E+03	2.021617E-16	5.129073E-18
3.552671E+03	2.021023E-16	5.124793E-18
3.554668E+03	2.015418E-16	5.107818E-18
3.556665E+03	2.014304E-16	5.102237E-18
3.558662E+03	2.014659E-16	5.100381E-18
3.560659E+03	2.019424E-16	5.109686E-18
3.562656E+03	2.018137E-16	5.103679E-18
3.564653E+03	2.018927E-16	5.102926E-18
3.566650E+03	2.023005E-16	5.110481E-18
3.568647E+03	2.003372E-16	5.058163E-18
3.570644E+03	2.007623E-16	5.066170E-18
3.572641E+03	2.005813E-16	5.058886E-18
3.574638E+03	2.001406E-16	5.045061E-18
3.576635E+03	1.998729E-16	5.035612E-18
3.578632E+03	2.012169E-16	5.066757E-18
3.580629E+03	2.001866E-16	5.038115E-18
3.582626E+03	1.999015E-16	5.028248E-18
3.584623E+03	1.986710E-16	4.994624E-18
3.586620E+03	1.992269E-16	5.005924E-18
3.588617E+03	2.009633E-16	5.046858E-18
3.590614E+03	2.015028E-16	5.057710E-18
3.592611E+03	2.020861E-16	5.069647E-18
3.594608E+03	2.030345E-16	5.090728E-18
3.596605E+03	2.036620E-16	5.103746E-18
3.598602E+03	2.048374E-16	5.130472E-18
3.600599E+03	2.056745E-16	5.148702E-18
3.602596E+03	2.069815E-16	5.178672E-18
3.604593E+03	2.082979E-16	5.208846E-18
3.606590E+03	2.080582E-16	5.200094E-18
3.608587E+03	2.086622E-16	5.212432E-18
3.610584E+03	2.096584E-16	5.234546E-18
3.612581E+03	2.091665E-16	5.219506E-18
3.614578E+03	2.100676E-16	5.239226E-18
3.616575E+03	2.108038E-16	5.254814E-18
3.618572E+03	2.124292E-16	5.292539E-18
3.620569E+03	2.121992E-16	5.284026E-18
3.622566E+03	2.120649E-16	5.277906E-18
3.624563E+03	2.120267E-16	5.274180E-18
3.626560E+03	2.116134E-16	5.261135E-18
3.628557E+03	2.128052E-16	5.287992E-18
3.630554E+03	2.133084E-16	5.297717E-18
3.632551E+03	2.132532E-16	5.293573E-18
3.634548E+03	2.131893E-16	5.289219E-18
3.636545E+03	2.114660E-16	5.243723E-18
3.638542E+03	2.102224E-16	5.210162E-18
3.640539E+03	2.104112E-16	5.212121E-18
3.642536E+03	2.092017E-16	5.179459E-18
3.644533E+03	2.083500E-16	5.155688E-18
3.646530E+03	2.086349E-16	5.160053E-18
3.648527E+03	2.071179E-16	5.119871E-18
3.650524E+03	2.049263E-16	5.063066E-18
3.652521E+03	2.036439E-16	5.028772E-18
3.654518E+03	2.029649E-16	5.009410E-18
3.656515E+03	2.020318E-16	4.983797E-18
3.658512E+03	1.998979E-16	4.928607E-18
3.660509E+03	1.994279E-16	4.914480E-18
3.662506E+03	1.981863E-16	4.881364E-18
3.664503E+03	1.956114E-16	4.815459E-18
3.666500E+03	1.939647E-16	4.772464E-18
3.668497E+03	1.925015E-16	4.734025E-18
3.670494E+03	1.904847E-16	4.682019E-18
3.672491E+03	1.895640E-16	4.656997E-18
3.674488E+03	1.878878E-16	4.613450E-18
3.676485E+03	1.867991E-16	4.584368E-18
3.678482E+03	1.841812E-16	4.517809E-18
3.680479E+03	1.822123E-16	4.467227E-18
3.682476E+03	1.813234E-16	4.443165E-18
3.684473E+03	1.804693E-16	4.419980E-18
3.686470E+03	1.800457E-16	4.407359E-18
3.688467E+03	1.783727E-16	4.364183E-18
3.690464E+03	1.773325E-16	4.336526E-18
3.692461E+03	1.768022E-16	4.321363E-18
3.694458E+03	1.767384E-16	4.317611E-18
3.696455E+03	1.774321E-16	4.332361E-18
3.698452E+03	1.781879E-16	4.348614E-18
3.700449E+03	1.803367E-16	4.398828E-18
3.702446E+03	1.815523E-16	4.426245E-18
3.704443E+03	1.836152E-16	4.474280E-18
3.706440E+03	1.854148E-16	4.515856E-18
3.708437E+03	1.877626E-16	4.570735E-18
3.710434E+03	1.907031E-16	4.639982E-18
3.712431E+03	1.924623E-16	4.680435E-18
3.714428E+03	1.948143E-16	4.735257E-18
3.716425E+03	1.963022E-16	4.769032E-18
3.718422E+03	1.996376E-16	4.847638E-18
3.720419E+03	2.005534E-16	4.867442E-18
3.722416E+03	2.006034E-16	4.866224E-18
3.724413E+03	2.008038E-16	4.868657E-18
3.726410E+03	2.024020E-16	4.904966E-18
3.728407E+03	2.012937E-16	4.875680E-18
3.730404E+03	2.016983E-16	4.883054E-18
3.732401E+03	2.014923E-16	4.875647E-18
3.734398E+03	2.013039E-16	4.868677E-18
3.736395E+03	2.006194E-16	4.849721E-18
3.738392E+03	1.987914E-16	4.803156E-18
3.740389E+03	1.981148E-16	4.784447E-18
3.742386E+03	1.960723E-16	4.732787E-18
3.744383E+03	1.930884E-16	4.658469E-18
3.746380E+03	1.908837E-16	4.603013E-18
3.748377E+03	1.876393E-16	4.522555E-18
3.750374E+03	1.843042E-16	4.439994E-18
3.752371E+03	1.806653E-16	4.350201E-18
3.754368E+03	1.758072E-16	4.231154E-18
3.756365E+03	1.717639E-16	4.131824E-18
3.758362E+03	1.660559E-16	3.992570E-18
3.760359E+03	1.608603E-16	3.865766E-18
3.762356E+03	1.562842E-16	3.753967E-18
3.764353E+03	1.527285E-16	3.666777E-18
3.766350E+03	1.466076E-16	3.518118E-18
3.768347E+03	1.406878E-16	3.374427E-18
3.770344E+03	1.354413E-16	3.247017E-18
3.772341E+03	1.291584E-16	3.094897E-18
3.774338E+03	1.243774E-16	2.978899E-18
3.776335E+03	1.190589E-16	2.850144E-18
3.778333E+03	1.136390E-16	2.719090E-18
3.780330E+03	1.092861E-16	2.613681E-18
3.782327E+03	1.053676E-16	2.518759E-18
3.784324E+03	1.011434E-16	2.416623E-18
3.786321E+03	9.671131E-17	2.309623E-18
3.788318E+03	9.329447E-17	2.226960E-18
3.790315E+03	8.928602E-17	2.130261E-18
3.792312E+03	8.658858E-17	2.064921E-18
3.794309E+03	8.389926E-17	1.999837E-18
3.796306E+03	8.061561E-17	1.920655E-18
3.798303E+03	7.886459E-17	1.878048E-18
3.800300E+03	7.751689E-17	1.845081E-18
3.802297E+03	7.554732E-17	1.797352E-18
3.804294E+03	7.476886E-17	1.777993E-18
3.806291E+03	7.495173E-17	1.781502E-18
3.808288E+03	7.531205E-17	1.789225E-18
3.810285E+03	7.472553E-17	1.774458E-18
3.812282E+03	7.463524E-17	1.771484E-18
3.814279E+03	7.517790E-17	1.783530E-18
3.816276E+03	7.576578E-17	1.796637E-18
3.818273E+03	7.665189E-17	1.816802E-18
3.820270E+03	7.682335E-17	1.820019E-18
3.822267E+03	7.767811E-17	1.839414E-18
3.824264E+03	7.727807E-17	1.829092E-18
3.826261E+03	7.608821E-17	1.800096E-18
3.828258E+03	7.635328E-17	1.805532E-18
3.830255E+03	7.620954E-17	1.801301E-18
3.832252E+03	7.486449E-17	1.768694E-18
3.834249E+03	7.365088E-17	1.739222E-18
3.836246E+03	7.275588E-17	1.717298E-18
3.838243E+03	7.276571E-17	1.716743E-18
3.840240E+03	7.265587E-17	1.713367E-18
3.842237E+03	7.241450E-17	1.706895E-18
3.844234E+03	7.326129E-17	1.726068E-18
3.846231E+03	7.324169E-17	1.724821E-18
3.848228E+03	7.313373E-17	1.721496E-18
3.850225E+03	7.279489E-17	1.712743E-18
3.852222E+03	7.256322E-17	1.706520E-18
3.854219E+03	7.261207E-17	1.706897E-18
3.856216E+03	7.234953E-17	1.699959E-18
3.858213E+03	7.238937E-17	1.700130E-18
3.860210E+03	7.210860E-17	1.692775E-18
3.862207E+03	7.316940E-17	1.716907E-18
3.864204E+03	7.337772E-17	1.721025E-18
3.866201E+03	7.319557E-17	1.715986E-18
3.868198E+03	7.330368E-17	1.717754E-18
3.870195E+03	7.384613E-17	1.729695E-18
3.872192E+03	7.421435E-17	1.737548E-18
3.874189E+03	7.564743E-17	1.770316E-18
3.876186E+03	7.657794E-17	1.791299E-18
3.878183E+03	7.676082E-17	1.794784E-18
3.880180E+03	7.762899E-17	1.814284E-18
3.882177E+03	7.944953E-17	1.856015E-18
3.884174E+03	8.180447E-17	1.910190E-18
3.886171E+03	8.336823E-17	1.945853E-18
3.888168E+03	8.551291E-17	1.995038E-18
3.890165E+03	8.785418E-17	2.048767E-18
3.892162E+03	9.040672E-17	2.107375E-18
3.894159E+03	9.340067E-17	2.176218E-18
3.896156E+03	9.653931E-17	2.248373E-18
3.898153E+03	1.000436E-16	2.328979E-18
3.900150E+03	1.049050E-16	2.441098E-18
3.902147E+03	1.079961E-16	2.511945E-18
3.904144E+03	1.124177E-16	2.613666E-18
3.906141E+03	1.165420E-16	2.708391E-18
3.908138E+03	1.216341E-16	2.825521E-18
3.910135E+03	1.261104E-16	2.928254E-18
3.912132E+03	1.319837E-16	3.063324E-18
3.914129E+03	1.373596E-16	3.186745E-18
3.916126E+03	1.441615E-16	3.343130E-18
3.918123E+03	1.501290E-16	3.480045E-18
3.920120E+03	1.558451E-16	3.611021E-18
3.922117E+03	1.621766E-16	3.756144E-18
3.924114E+03	1.682294E-16	3.894695E-18
3.926111E+03	1.759576E-16	4.071903E-18
3.928108E+03	1.838281E-16	4.252259E-18
3.930105E+03	1.919598E-16	4.438508E-18
3.932102E+03	1.995305E-16	4.611637E-18
3.934099E+03	2.078927E-16	4.802914E-18
3.936096E+03	2.161053E-16	4.990579E-18
3.938093E+03	2.243143E-16	5.178012E-18
3.940090E+03	2.332339E-16	5.381691E-18
3.942087E+03	2.415553E-16	5.571408E-18
3.944084E+03	2.498000E-16	5.759208E-18
3.946081E+03	2.585269E-16	5.957971E-18
3.948078E+03	2.656467E-16	6.119553E-18
3.950075E+03	2.726337E-16	6.277954E-18
3.952072E+03	2.813503E-16	6.476039E-18
3.954069E+03	2.892837E-16	6.655952E-18
3.956066E+03	2.966627E-16	6.822974E-18
3.958063E+03	3.038358E-16	6.985133E-18
3.960060E+03	3.112251E-16	7.152137E-18
3.962057E+03	3.176272E-16	7.296336E-18
3.964054E+03	3.244383E-16	7.449818E-18
3.966051E+03	3.304542E-16	7.584931E-18
3.968048E+03	3.364284E-16	7.718986E-18
3.970045E+03	3.414314E-16	7.830669E-18
3.972042E+03	3.454992E-16	7.920828E-18
3.974039E+03	3.498828E-16	8.018165E-18
3.976036E+03	3.538091E-16	8.104952E-18
3.978033E+03	3.573143E-16	8.182039E-18
3.980030E+03	3.600754E-16	8.242041E-18
3.982027E+03	3.626726E-16	8.298252E-18
3.984024E+03	3.660648E-16	8.372613E-18
3.986021E+03	3.693396E-16	8.444238E-18
3.988018E+03	3.719983E-16	8.501736E-18
3.990015E+03	3.746959E-16	8.560085E-18
3.992012E+03	3.768135E-16	8.605154E-18
3.994009E+03	3.774912E-16	8.617327E-18
3.996006E+03	3.779475E-16	8.624447E-18
3.998003E+03	3.784321E-16	8.632215E-18
4.000000E+03	3.790650E-16	8.643367E-18
4.001997E+03	3.786158E-16	8.629855E-18
4.003994E+03	3.787125E-16	8.628800E-18
4.005991E+03	3.790500E-16	8.633240E-18
4.007988E+03	3.791378E-16	8.631999E-18
4.009985E+03	3.788180E-16	8.621492E-18
4.011982E+03	3.781549E-16	8.603193E-18
4.013979E+03	3.781221E-16	8.599248E-18
4.015976E+03	3.783676E-16	8.601643E-18
4.017973E+03	3.784369E-16	8.600043E-18
4.019970E+03	3.780330E-16	8.587701E-18
4.021967E+03	3.781303E-16	8.586760E-18
4.023964E+03	3.779397E-16	8.579293E-18
4.025961E+03	3.765596E-16	8.544848E-18
4.027958E+03	3.764149E-16	8.538462E-18
4.029955E+03	3.760563E-16	8.527238E-18
4.031952E+03	3.759951E-16	8.522774E-18
4.033949E+03	3.755524E-16	8.509678E-18
4.035946E+03	3.751374E-16	8.497227E-18
4.037943E+03	3.748152E-16	8.486896E-18
4.039940E+03	3.743437E-16	8.473204E-18
4.041937E+03	3.735552E-16	8.452357E-18
4.043934E+03	3.734932E-16	8.447967E-18
4.045931E+03	3.729557E-16	8.432838E-18
4.047928E+03	3.728002E-16	8.426365E-18
4.049925E+03	3.717955E-16	8.400716E-18
4.051922E+03	3.710701E-16	8.381406E-18
4.053919E+03	3.696157E-16	8.345658E-18
4.055916E+03	3.681603E-16	8.309921E-18
4.057913E+03	3.670778E-16	8.282632E-18
4.059910E+03	3.666116E-16	8.269273E-18
4.061907E+03	3.647796E-16	8.225137E-18
4.063904E+03	3.621884E-16	8.163928E-18
4.065901E+03	3.591929E-16	8.093659E-18
4.067898E+03	3.563731E-16	8.027407E-18
4.069895E+03	3.533922E-16	7.957579E-18
4.071892E+03	3.510649E-16	7.902523E-18
4.073889E+03	3.487172E-16	7.847055E-18
4.075886E+03	3.466398E-16	7.797711E-18
4.077883E+03	3.440732E-16	7.737409E-18
4.079880E+03	3.407071E-16	7.659185E-18
4.081877E+03	3.380426E-16	7.596788E-18
4.083874E+03	3.349724E-16	7.525327E-18
4.085871E+03	3.322382E-16	7.461468E-18
4.087868E+03	3.292013E-16	7.390864E-18
4.089865E+03	3.259930E-16	7.316469E-18
4.091862E+03	3.230080E-16	7.247141E-18
4.093859E+03	3.196259E-16	7.168959E-18
4.095856E+03	3.163165E-16	7.092467E-18
4.097853E+03	3.140779E-16	7.040035E-18
4.099850E+03	3.123180E-16	6.998372E-18
4.101847E+03	3.092945E-16	6.928437E-18
4.103844E+03	3.066550E-16	6.867157E-18
4.105841E+03	3.042117E-16	6.810315E-18
4.107838E+03	3.019175E-16	6.756855E-18
4.109835E+03	3.000368E-16	6.712687E-18
4.111832E+03	2.992967E-16	6.694065E-18
4.113829E+03	2.980366E-16	6.663840E-18
4.115826E+03	2.973142E-16	6.645658E-18
4.117823E+03	2.964777E-16	6.624949E-18
4.119820E+03	2.960754E-16	6.613960E-18
4.121817E+03	2.955499E-16	6.600235E-18
4.123814E+03	2.949673E-16	6.585252E-18
4.125811E+03	2.945735E-16	6.574501E-18
4.127808E+03	2.938007E-16	6.555310E-18
4.129805E+03	2.936713E-16	6.550488E-18
4.131802E+03	2.949626E-16	6.577361E-18
4.133799E+03	2.959611E-16	6.597699E-18
4.135796E+03	2.962020E-16	6.601151E-18
4.137793E+03	2.970594E-16	6.618345E-18
4.139790E+03	2.970826E-16	6.616959E-18
4.141787E+03	2.966029E-16	6.604384E-18
4.143784E+03	2.965500E-16	6.601327E-18
4.145781E+03	2.966964E-16	6.602717E-18
4.147778E+03	2.973940E-16	6.616379E-18
4.149775E+03	2.969326E-16	6.604263E-18
4.151772E+03	2.982296E-16	6.631265E-18
4.153769E+03	2.987287E-16	6.640522E-18
4.155766E+03	2.981246E-16	6.625267E-18
4.157763E+03	2.974342E-16	6.608115E-18
4.159760E+03	2.968672E-16	6.593720E-18
4.161757E+03	2.962234E-16	6.577640E-18
4.163754E+03	2.958174E-16	6.566855E-18
4.165751E+03	2.952967E-16	6.553542E-18
4.167748E+03	2.944037E-16	6.531985E-18
4.169745E+03	2.933764E-16	6.507470E-18
4.171742E+03	2.925774E-16	6.488040E-18
4.173739E+03	2.911574E-16	6.454862E-18
4.175736E+03	2.908630E-16	6.446661E-18
4.177733E+03	2.908167E-16	6.443971E-18
4.179730E+03	2.909328E-16	6.444890E-18
4.181727E+03	2.907909E-16	6.440103E-18
4.183724E+03	2.916242E-16	6.456921E-18
4.185721E+03	2.916832E-16	6.456602E-18
4.187718E+03	2.915127E-16	6.451212E-18
4.189715E+03	2.917918E-16	6.455784E-18
4.191712E+03	2.925691E-16	6.471383E-18
4.193709E+03	2.929637E-16	6.478522E-18
4.195706E+03	2.944607E-16	6.510040E-18
4.197703E+03	2.964766E-16	6.553020E-18
4.199700E+03	2.986377E-16	6.599200E-18
4.201697E+03	3.007140E-16	6.643495E-18
4.203694E+03	3.034636E-16	6.702652E-18
4.205691E+03	3.056967E-16	6.750386E-18
4.207688E+03	3.082292E-16	6.804717E-18
4.209685E+03	3.103599E-16	6.850166E-18
4.211682E+03	3.120019E-16	6.884821E-18
4.213679E+03	3.137796E-16	6.922465E-18
4.215676E+03	3.158568E-16	6.966710E-18
4.217673E+03	3.187437E-16	7.028802E-18
4.219670E+03	3.216327E-16	7.090923E-18
4.221667E+03	3.245912E-16	7.154560E-18
4.223665E+03	3.276963E-16	7.221411E-18
4.225662E+03	3.300808E-16	7.272368E-18
4.227659E+03	3.333057E-16	7.341828E-18
4.229656E+03	3.358096E-16	7.395392E-18
4.231653E+03	3.386433E-16	7.456206E-18
4.233650E+03	3.404464E-16	7.494320E-18
4.235647E+03	3.428202E-16	7.544992E-18
4.237644E+03	3.450799E-16	7.593144E-18
4.239641E+03	3.468677E-16	7.630909E-18
4.241638E+03	3.479125E-16	7.652329E-18
4.243635E+03	3.496638E-16	7.689288E-18
4.245632E+03	3.511069E-16	7.719469E-18
4.247629E+03	3.518542E-16	7.734359E-18
4.249626E+03	3.527375E-16	7.752243E-18
4.251623E+03	3.539409E-16	7.777168E-18
4.253620E+03	3.555616E-16	7.811265E-18
4.255617E+03	3.568345E-16	7.837724E-18
4.257614E+03	3.582149E-16	7.866546E-18
4.259611E+03	3.596448E-16	7.896457E-18
4.261608E+03	3.605808E-16	7.915531E-18
4.263605E+03	3.621773E-16	7.949107E-18
4.265602E+03	3.628527E-16	7.962473E-18
4.267599E+03	3.635285E-16	7.975855E-18
4.269596E+03	3.647292E-16	8.000763E-18
4.271593E+03	3.671552E-16	8.052549E-18
4.273590E+03	3.685718E-16	8.082197E-18
4.275587E+03	3.700574E-16	8.113363E-18
4.277584E+03	3.727114E-16	8.170145E-18
4.279581E+03	3.753088E-16	8.225682E-18
4.281578E+03	3.783461E-16	8.290854E-18
4.283575E+03	3.810349E-16	8.348384E-18
4.285572E+03	3.840470E-16	8.412993E-18
4.287569E+03	3.859697E-16	8.453735E-18
4.289566E+03	3.893170E-16	8.525679E-18
4.291563E+03	3.931446E-16	8.608129E-18
4.293560E+03	3.962430E-16	8.674608E-18
4.295557E+03	3.993339E-16	8.740917E-18
4.297554E+03	4.019581E-16	8.797008E-18
4.299551E+03	4.044377E-16	8.849933E-18
4.301548E+03	4.070263E-16	8.905247E-18
4.303545E+03	4.091573E-16	8.950548E-18
4.305542E+03	4.114951E-16	9.000376E-18
4.307539E+03	4.133845E-16	9.040402E-18
4.309536E+03	4.159600E-16	9.095435E-18
4.311533E+03	4.185764E-16	9.151365E-18
4.313530E+03	4.210084E-16	9.203266E-18
4.315527E+03	4.230307E-16	9.246215E-18
4.317524E+03	4.248975E-16	9.285771E-18
4.319521E+03	4.268341E-16	9.326862E-18
4.321518E+03	4.280855E-16	9.352989E-18
4.323515E+03	4.297105E-16	9.387286E-18
4.325512E+03	4.313855E-16	9.422687E-18
4.327509E+03	4.323056E-16	9.441612E-18
4.329506E+03	4.331576E-16	9.459061E-18
