#wls	flux	fluxerr
1.587302E+03	6.537304E-17	8.278950E-18
1.626984E+03	6.617557E-17	8.313535E-18
1.666667E+03	6.678462E-17	8.321006E-18
1.706349E+03	6.720407E-17	8.302390E-18
1.746032E+03	6.742251E-17	8.256845E-18
1.785714E+03	6.740709E-17	8.181002E-18
1.825397E+03	6.708062E-17	8.066335E-18
1.865079E+03	6.639281E-17	7.907902E-18
1.904762E+03	6.525545E-17	7.696567E-18
1.944444E+03	6.364242E-17	7.430909E-18
1.984127E+03	6.157845E-17	7.115572E-18
2.023810E+03	5.923807E-17	6.772271E-18
2.063492E+03	5.701660E-17	6.446872E-18
2.103175E+03	5.547853E-17	6.202180E-18
2.142857E+03	5.520515E-17	6.099904E-18
2.182540E+03	5.654593E-17	6.173281E-18
2.222222E+03	5.946304E-17	6.411728E-18
2.261905E+03	6.368405E-17	6.779667E-18
2.301587E+03	6.877025E-17	7.225347E-18
2.341270E+03	7.439035E-17	7.710450E-18
2.380952E+03	8.030084E-17	8.207418E-18
2.420635E+03	8.637454E-17	8.701764E-18
2.460317E+03	9.261454E-17	9.192649E-18
2.500000E+03	9.900884E-17	9.677721E-18
2.539683E+03	1.056518E-16	1.016492E-17
2.579365E+03	1.126302E-16	1.066086E-17
2.619048E+03	1.200085E-16	1.116950E-17
2.658730E+03	1.279307E-16	1.170164E-17
2.698413E+03	1.364998E-16	1.226339E-17
2.738095E+03	1.458478E-16	1.286272E-17
2.777778E+03	1.560989E-16	1.350594E-17
2.817460E+03	1.674099E-16	1.420122E-17
2.857143E+03	1.799738E-16	1.495859E-17
2.896825E+03	1.939243E-16	1.578179E-17
2.936508E+03	2.094900E-16	1.668110E-17
2.976190E+03	2.268938E-16	1.766461E-17
2.986111E+03	2.315488E-16	1.792372E-17
2.996032E+03	2.363142E-16	1.818689E-17
3.005952E+03	2.412482E-16	1.845844E-17
3.015873E+03	2.462951E-16	1.873387E-17
3.025794E+03	2.514866E-16	1.901544E-17
3.035714E+03	2.568303E-16	1.930349E-17
3.045635E+03	2.622895E-16	1.959507E-17
3.055556E+03	2.679509E-16	1.989643E-17
3.065476E+03	2.737458E-16	2.020224E-17
3.075397E+03	2.797301E-16	2.051638E-17
3.085317E+03	2.858310E-16	2.083328E-17
3.095238E+03	2.921036E-16	2.115677E-17
3.105159E+03	2.985041E-16	2.148344E-17
3.115079E+03	3.050191E-16	2.181213E-17
3.125000E+03	3.116332E-16	2.214161E-17
3.134921E+03	3.183644E-16	2.247296E-17
3.144841E+03	3.251944E-16	2.280476E-17
3.154762E+03	3.320661E-16	2.313286E-17
3.164683E+03	3.389546E-16	2.345548E-17
3.174603E+03	3.459069E-16	2.377581E-17
3.184524E+03	3.528202E-16	2.408675E-17
3.194444E+03	3.596996E-16	2.438867E-17
3.204365E+03	3.665105E-16	2.467930E-17
3.214286E+03	3.732549E-16	2.495885E-17
3.224206E+03	3.798548E-16	2.522224E-17
3.234127E+03	3.862679E-16	2.546688E-17
3.244048E+03	3.924495E-16	2.569009E-17
3.253968E+03	3.984332E-16	2.589440E-17
3.263889E+03	4.040900E-16	2.607175E-17
3.273810E+03	4.094086E-16	2.622188E-17
3.283730E+03	4.143345E-16	2.634182E-17
3.293651E+03	4.188511E-16	2.643107E-17
3.303571E+03	4.228562E-16	2.648382E-17
3.313492E+03	4.262850E-16	2.649678E-17
3.323413E+03	4.291095E-16	2.646904E-17
3.333333E+03	4.312581E-16	2.639709E-17
3.343254E+03	4.326986E-16	2.627995E-17
3.353175E+03	4.332809E-16	2.610961E-17
3.363095E+03	4.330234E-16	2.588838E-17
3.373016E+03	4.318785E-16	2.561466E-17
3.382937E+03	4.297854E-16	2.528616E-17
3.392857E+03	4.268318E-16	2.490936E-17
3.402778E+03	4.230342E-16	2.448647E-17
3.412698E+03	4.184989E-16	2.402480E-17
3.422619E+03	4.134556E-16	2.353851E-17
3.432540E+03	4.080438E-16	2.303621E-17
3.442460E+03	4.025520E-16	2.253459E-17
3.452381E+03	3.972617E-16	2.204942E-17
3.462302E+03	3.924957E-16	2.159817E-17
3.472222E+03	3.885321E-16	2.119529E-17
3.482143E+03	3.856171E-16	2.085297E-17
3.492063E+03	3.839454E-16	2.058014E-17
3.501984E+03	3.836428E-16	2.038176E-17
3.511905E+03	3.847810E-16	2.025965E-17
3.521825E+03	3.872790E-16	2.020756E-17
3.531746E+03	3.910317E-16	2.021813E-17
3.541667E+03	3.957013E-16	2.027232E-17
3.551587E+03	4.009361E-16	2.035098E-17
3.561508E+03	4.062142E-16	2.042710E-17
3.571429E+03	4.111439E-16	2.048114E-17
3.581349E+03	4.155398E-16	2.050447E-17
3.591270E+03	4.194400E-16	2.049972E-17
3.601190E+03	4.228658E-16	2.046866E-17
3.611111E+03	4.257931E-16	2.041082E-17
3.621032E+03	4.281506E-16	2.032352E-17
3.630952E+03	4.296743E-16	2.019519E-17
3.640873E+03	4.300406E-16	2.001191E-17
3.650794E+03	4.286847E-16	1.974926E-17
3.660714E+03	4.250181E-16	1.938279E-17
3.670635E+03	4.184773E-16	1.889026E-17
3.680556E+03	4.087645E-16	1.826233E-17
3.690476E+03	3.960107E-16	1.750919E-17
3.700397E+03	3.808265E-16	1.666173E-17
3.710317E+03	3.642778E-16	1.576942E-17
3.720238E+03	3.476811E-16	1.489051E-17
3.730159E+03	3.324080E-16	1.408315E-17
3.740079E+03	3.197145E-16	1.339809E-17
3.750000E+03	3.106535E-16	1.287540E-17
3.759921E+03	3.061171E-16	1.254661E-17
3.769841E+03	3.068763E-16	1.243670E-17
3.779762E+03	3.137731E-16	1.257211E-17
3.789683E+03	3.276639E-16	1.297831E-17
3.799603E+03	3.496396E-16	1.368837E-17
3.809524E+03	3.809464E-16	1.473942E-17
3.819444E+03	4.229061E-16	1.616917E-17
3.829365E+03	4.768123E-16	1.801189E-17
3.839286E+03	5.435993E-16	2.028607E-17
3.849206E+03	6.233443E-16	2.297693E-17
3.859127E+03	7.148419E-16	2.602289E-17
3.869048E+03	8.152244E-16	2.930482E-17
3.878968E+03	9.197544E-16	3.264251E-17
3.888889E+03	1.022606E-15	3.582631E-17
3.898810E+03	1.117623E-15	3.864576E-17
3.908730E+03	1.199814E-15	4.094135E-17
3.918651E+03	1.266525E-15	4.264145E-17
3.928571E+03	1.318017E-15	4.377595E-17
3.938492E+03	1.356917E-15	4.445179E-17
3.948413E+03	1.387489E-15	4.482404E-17
3.958333E+03	1.414158E-15	4.504508E-17
3.968254E+03	1.440403E-15	4.522965E-17
3.978175E+03	1.467829E-15	4.542809E-17
3.988095E+03	1.495739E-15	4.561778E-17
3.998016E+03	1.521371E-15	4.571528E-17
4.007937E+03	1.540275E-15	4.559212E-17
4.017857E+03	1.547254E-15	4.510612E-17
4.027778E+03	1.537938E-15	4.414800E-17
4.037698E+03	1.509805E-15	4.266852E-17
4.047619E+03	1.462936E-15	4.069515E-17
4.057540E+03	1.399929E-15	3.832387E-17
4.067460E+03	1.325285E-15	3.569726E-17
4.077381E+03	1.244364E-15	3.297251E-17
4.087302E+03	1.162495E-15	3.029646E-17
4.097222E+03	1.084226E-15	2.778660E-17
4.107143E+03	1.012830E-15	2.552041E-17
4.117063E+03	9.502300E-16	2.353627E-17
4.126984E+03	8.972112E-16	2.184169E-17
4.136905E+03	8.537514E-16	2.042367E-17
4.146825E+03	8.194046E-16	1.925943E-17
4.156746E+03	7.936462E-16	1.832529E-17
4.166667E+03	7.759352E-16	1.759825E-17
4.176587E+03	7.657585E-16	1.705703E-17
4.186508E+03	7.626794E-16	1.668306E-17
4.196429E+03	7.660003E-16	1.645307E-17
4.206349E+03	7.745171E-16	1.633446E-17
4.216270E+03	7.864204E-16	1.628417E-17
4.226190E+03	7.994932E-16	1.625384E-17
4.236111E+03	8.117861E-16	1.620389E-17
4.246032E+03	8.220467E-16	1.611132E-17
4.255952E+03	8.301660E-16	1.597691E-17
4.265873E+03	8.373233E-16	1.582590E-17
4.275794E+03	8.457928E-16	1.570218E-17
4.285714E+03	8.583802E-16	1.565636E-17
4.295635E+03	8.775347E-16	1.572924E-17
4.305556E+03	9.046041E-16	1.593957E-17
4.315476E+03	9.393092E-16	1.627681E-17
4.325397E+03	9.789666E-16	1.669044E-17
4.335317E+03	1.017581E-15	1.707786E-17
4.345238E+03	1.045594E-15	1.728419E-17
4.355159E+03	1.053373E-15	1.716237E-17
4.365079E+03	1.039127E-15	1.669910E-17
4.375000E+03	1.009943E-15	1.602152E-17
4.384921E+03	9.747473E-16	1.527799E-17
4.394841E+03	9.407223E-16	1.458208E-17
4.404762E+03	9.132475E-16	1.401448E-17
4.414683E+03	8.964796E-16	1.363433E-17
4.424603E+03	8.938549E-16	1.348853E-17
4.434524E+03	9.081999E-16	1.361415E-17
4.444444E+03	9.415276E-16	1.403630E-17
4.454365E+03	9.946433E-16	1.476326E-17
4.464286E+03	1.067098E-15	1.578638E-17
4.474206E+03	1.157032E-15	1.707790E-17
4.484127E+03	1.260944E-15	1.858745E-17
4.494048E+03	1.374159E-15	2.024856E-17
4.503968E+03	1.491746E-15	2.199153E-17
4.513889E+03	1.609979E-15	2.376438E-17
4.523810E+03	1.726605E-15	2.553626E-17
4.533730E+03	1.840691E-15	2.729515E-17
4.543651E+03	1.951676E-15	2.903389E-17
4.553571E+03	2.058431E-15	3.073619E-17
4.563492E+03	2.158001E-15	3.235760E-17
4.573413E+03	2.244953E-15	3.381504E-17
4.583333E+03	2.312426E-15	3.500170E-17
4.593254E+03	2.354021E-15	3.581510E-17
4.603175E+03	2.365918E-15	3.618949E-17
4.613095E+03	2.347901E-15	3.611266E-17
4.623016E+03	2.303855E-15	3.563542E-17
4.632937E+03	2.240779E-15	3.485811E-17
4.642857E+03	2.167244E-15	3.390815E-17
4.652778E+03	2.091508E-15	3.291132E-17
4.662698E+03	2.020415E-15	3.197415E-17
4.672619E+03	1.959261E-15	3.118124E-17
4.682540E+03	1.911495E-15	3.058969E-17
4.692460E+03	1.877389E-15	3.020680E-17
4.702381E+03	1.853543E-15	2.998055E-17
4.712302E+03	1.834683E-15	2.982729E-17
4.722222E+03	1.814888E-15	2.965108E-17
4.732143E+03	1.788655E-15	2.936095E-17
4.742063E+03	1.752208E-15	2.889290E-17
4.751984E+03	1.704493E-15	2.822713E-17
4.761905E+03	1.647740E-15	2.739835E-17
4.771825E+03	1.587356E-15	2.649510E-17
4.781746E+03	1.530750E-15	2.564104E-17
4.791667E+03	1.485064E-15	2.495716E-17
4.801587E+03	1.454918E-15	2.452336E-17
4.811508E+03	1.441708E-15	2.436561E-17
4.821429E+03	1.444267E-15	2.446632E-17
4.831349E+03	1.459895E-15	2.478119E-17
4.841270E+03	1.485433E-15	2.525728E-17
4.851190E+03	1.518184E-15	2.584883E-17
4.861111E+03	1.556768E-15	2.653198E-17
4.871032E+03	1.601730E-15	2.731539E-17
4.880952E+03	1.655332E-15	2.823676E-17
4.890873E+03	1.720734E-15	2.934892E-17
4.900794E+03	1.800995E-15	3.070245E-17
4.910714E+03	1.897449E-15	3.231795E-17
4.920635E+03	2.007503E-15	3.414849E-17
4.930556E+03	2.122962E-15	3.605163E-17
4.940476E+03	2.230145E-15	3.779260E-17
4.950397E+03	2.312559E-15	3.909115E-17
4.960317E+03	2.354876E-15	3.969033E-17
4.970238E+03	2.347558E-15	3.943488E-17
4.980159E+03	2.290616E-15	3.833352E-17
4.990079E+03	2.194100E-15	3.656432E-17
5.000000E+03	2.074572E-15	3.441239E-17
5.009921E+03	1.950332E-15	3.218758E-17
5.019841E+03	1.837263E-15	3.015443E-17
5.029762E+03	1.746765E-15	2.849832E-17
5.039683E+03	1.684987E-15	2.731424E-17
5.049603E+03	1.653515E-15	2.662011E-17
5.059524E+03	1.650748E-15	2.638100E-17
5.069444E+03	1.672852E-15	2.652620E-17
5.079365E+03	1.714303E-15	2.695932E-17
5.089286E+03	1.768325E-15	2.756659E-17
5.099206E+03	1.827704E-15	2.823068E-17
5.109127E+03	1.885747E-15	2.884614E-17
5.119048E+03	1.936902E-15	2.932880E-17
5.128968E+03	1.977504E-15	2.962648E-17
5.138889E+03	2.006202E-15	2.972402E-17
5.148810E+03	2.023874E-15	2.964022E-17
5.158730E+03	2.033075E-15	2.941797E-17
5.168651E+03	2.037594E-15	2.911632E-17
5.178571E+03	2.041396E-15	2.879433E-17
5.188492E+03	2.047977E-15	2.850169E-17
5.198413E+03	2.059890E-15	2.827257E-17
5.208333E+03	2.078602E-15	2.812445E-17
5.218254E+03	2.104596E-15	2.806053E-17
5.228175E+03	2.137632E-15	2.807416E-17
5.238095E+03	2.176911E-15	2.815167E-17
5.248016E+03	2.221459E-15	2.827790E-17
5.257937E+03	2.270047E-15	2.843546E-17
5.267857E+03	2.321058E-15	2.860336E-17
5.277778E+03	2.372018E-15	2.875177E-17
5.287698E+03	2.419131E-15	2.883736E-17
5.297619E+03	2.457578E-15	2.880810E-17
5.307540E+03	2.481994E-15	2.860966E-17
5.317460E+03	2.487590E-15	2.819842E-17
5.327381E+03	2.471470E-15	2.755528E-17
5.337302E+03	2.434049E-15	2.669912E-17
5.347222E+03	2.379931E-15	2.569300E-17
5.357143E+03	2.316701E-15	2.462758E-17
5.367063E+03	2.253499E-15	2.360414E-17
5.376984E+03	2.199075E-15	2.271380E-17
5.386905E+03	2.160066E-15	2.202124E-17
5.396825E+03	2.139192E-15	2.154880E-17
5.406746E+03	2.135255E-15	2.127965E-17
5.416667E+03	2.145130E-15	2.117974E-17
5.426587E+03	2.167093E-15	2.123111E-17
5.436508E+03	2.203994E-15	2.146200E-17
5.446429E+03	2.262651E-15	2.193978E-17
5.456349E+03	2.341924E-15	2.265496E-17
5.466270E+03	2.422583E-15	2.342285E-17
5.476190E+03	2.481293E-15	2.401928E-17
5.486111E+03	2.504939E-15	2.431627E-17
5.496032E+03	2.494466E-15	2.431826E-17
5.505952E+03	2.460852E-15	2.412511E-17
5.515873E+03	2.418354E-15	2.386930E-17
5.525794E+03	2.379470E-15	2.366876E-17
5.535714E+03	2.351981E-15	2.359814E-17
5.545635E+03	2.337739E-15	2.367538E-17
5.555556E+03	2.332701E-15	2.385963E-17
5.565476E+03	2.328707E-15	2.406643E-17
5.575397E+03	2.316145E-15	2.419296E-17
5.585317E+03	2.286834E-15	2.414734E-17
5.595238E+03	2.236469E-15	2.387528E-17
5.605159E+03	2.166514E-15	2.338281E-17
5.615079E+03	2.083827E-15	2.273570E-17
5.625000E+03	1.997898E-15	2.203236E-17
5.634921E+03	1.917421E-15	2.136714E-17
5.644841E+03	1.848353E-15	2.080800E-17
5.654762E+03	1.793706E-15	2.039227E-17
5.664683E+03	1.754246E-15	2.013295E-17
5.674603E+03	1.729119E-15	2.002443E-17
5.684524E+03	1.716724E-15	2.005192E-17
5.694444E+03	1.715356E-15	2.019848E-17
5.704365E+03	1.723785E-15	2.045195E-17
5.714286E+03	1.741340E-15	2.080611E-17
5.724206E+03	1.767999E-15	2.126208E-17
5.734127E+03	1.804182E-15	2.182601E-17
5.744048E+03	1.850320E-15	2.250396E-17
5.753968E+03	1.906043E-15	2.329197E-17
5.763889E+03	1.969791E-15	2.417095E-17
5.773810E+03	2.038621E-15	2.510416E-17
5.783730E+03	2.108582E-15	2.604160E-17
5.793651E+03	2.175214E-15	2.692633E-17
5.803571E+03	2.234586E-15	2.770755E-17
5.813492E+03	2.284383E-15	2.835450E-17
5.823413E+03	2.324741E-15	2.886720E-17
5.833333E+03	2.357620E-15	2.926878E-17
5.843254E+03	2.385807E-15	2.959306E-17
5.853175E+03	2.411774E-15	2.987016E-17
5.863095E+03	2.436986E-15	3.011774E-17
5.873016E+03	2.461563E-15	3.033688E-17
5.882937E+03	2.484086E-15	3.050982E-17
5.892857E+03	2.502109E-15	3.060658E-17
5.902778E+03	2.512572E-15	3.059049E-17
5.912698E+03	2.512616E-15	3.042832E-17
5.922619E+03	2.500071E-15	3.009638E-17
5.932540E+03	2.474160E-15	2.958882E-17
5.942460E+03	2.435880E-15	2.892172E-17
5.952381E+03	2.387957E-15	2.813171E-17
5.962302E+03	2.334527E-15	2.727137E-17
5.972222E+03	2.280578E-15	2.640173E-17
5.982143E+03	2.230810E-15	2.557855E-17
5.992063E+03	2.188445E-15	2.483862E-17
6.001984E+03	2.154589E-15	2.419328E-17
6.011905E+03	2.128367E-15	2.363109E-17
6.021825E+03	2.107307E-15	2.312335E-17
6.031746E+03	2.088009E-15	2.263247E-17
6.041667E+03	2.067441E-15	2.212656E-17
6.051587E+03	2.044380E-15	2.159456E-17
6.061508E+03	2.020226E-15	2.105348E-17
6.071429E+03	1.998487E-15	2.054124E-17
6.081349E+03	1.983948E-15	2.010676E-17
6.091270E+03	1.981384E-15	1.979606E-17
6.101190E+03	1.994166E-15	1.963872E-17
6.111111E+03	2.022499E-15	1.963177E-17
6.121032E+03	2.062581E-15	1.973413E-17
6.130952E+03	2.107429E-15	1.987718E-17
6.140873E+03	2.148771E-15	1.998444E-17
6.150794E+03	2.179169E-15	1.999135E-17
6.160714E+03	2.193667E-15	1.985920E-17
6.170635E+03	2.190629E-15	1.958096E-17
6.180556E+03	2.171647E-15	1.917826E-17
6.190476E+03	2.140657E-15	1.869119E-17
6.200397E+03	2.103550E-15	1.817360E-17
6.210317E+03	2.066901E-15	1.768258E-17
6.220238E+03	2.035458E-15	1.725752E-17
6.230159E+03	2.011036E-15	1.691185E-17
6.240079E+03	1.993088E-15	1.663916E-17
6.250000E+03	1.979826E-15	1.642326E-17
6.259921E+03	1.969530E-15	1.624921E-17
6.269841E+03	1.961417E-15	1.611033E-17
6.279762E+03	1.955659E-15	1.600806E-17
6.289683E+03	1.953245E-15	1.595072E-17
6.299603E+03	1.955394E-15	1.594862E-17
6.309524E+03	1.963052E-15	1.601014E-17
6.319444E+03	1.975922E-15	1.613387E-17
6.329365E+03	1.992197E-15	1.630642E-17
6.339286E+03	2.008648E-15	1.650289E-17
6.349206E+03	2.021204E-15	1.669117E-17
6.359127E+03	2.026070E-15	1.684060E-17
6.369048E+03	2.020940E-15	1.693173E-17
6.378968E+03	2.006422E-15	1.696844E-17
6.388889E+03	1.986442E-15	1.698233E-17
6.398810E+03	1.966998E-15	1.702377E-17
6.408730E+03	1.954100E-15	1.714549E-17
6.418651E+03	1.952453E-15	1.739074E-17
6.428571E+03	1.964796E-15	1.778671E-17
6.438492E+03	1.991758E-15	1.834352E-17
6.448413E+03	2.032122E-15	1.905530E-17
6.458333E+03	2.083345E-15	1.990339E-17
6.468254E+03	2.142659E-15	2.086562E-17
6.478175E+03	2.207269E-15	2.191780E-17
6.488095E+03	2.273193E-15	2.302166E-17
6.498016E+03	2.335164E-15	2.412247E-17
6.507937E+03	2.388933E-15	2.517173E-17
6.517857E+03	2.432332E-15	2.613954E-17
6.527778E+03	2.465037E-15	2.701422E-17
6.537698E+03	2.488088E-15	2.779883E-17
6.547619E+03	2.503167E-15	2.850462E-17
6.557540E+03	2.511757E-15	2.914195E-17
6.567460E+03	2.514630E-15	2.971419E-17
6.577381E+03	2.512052E-15	3.021932E-17
6.587302E+03	2.503881E-15	3.065075E-17
6.597222E+03	2.489958E-15	3.100169E-17
6.607143E+03	2.470341E-15	3.126817E-17
6.617063E+03	2.445560E-15	3.145251E-17
6.626984E+03	2.416778E-15	3.156597E-17
6.636905E+03	2.385752E-15	3.162883E-17
6.646825E+03	2.354600E-15	3.166776E-17
6.656746E+03	2.325561E-15	3.171283E-17
6.666667E+03	2.300626E-15	3.179242E-17
6.676587E+03	2.280839E-15	3.192310E-17
6.686508E+03	2.266086E-15	3.210569E-17
6.696429E+03	2.255140E-15	3.232485E-17
6.706349E+03	2.245859E-15	3.255111E-17
6.716270E+03	2.235565E-15	3.274573E-17
6.726190E+03	2.221666E-15	3.286962E-17
6.736111E+03	2.202235E-15	3.289228E-17
6.746032E+03	2.176509E-15	3.279988E-17
6.755952E+03	2.144992E-15	3.259771E-17
6.765873E+03	2.109200E-15	3.230715E-17
6.775794E+03	2.071393E-15	3.196200E-17
6.785714E+03	2.033993E-15	3.159979E-17
6.795635E+03	1.999026E-15	3.125289E-17
6.805556E+03	1.967755E-15	3.094251E-17
6.815476E+03	1.940740E-15	3.067899E-17
6.825397E+03	1.918116E-15	3.046602E-17
6.835317E+03	1.899744E-15	3.030276E-17
6.845238E+03	1.885415E-15	3.018706E-17
6.855159E+03	1.875081E-15	3.011909E-17
6.865079E+03	1.868822E-15	3.010093E-17
6.875000E+03	1.866730E-15	3.013471E-17
6.884921E+03	1.868795E-15	3.022071E-17
6.894841E+03	1.874691E-15	3.035391E-17
6.904762E+03	1.883785E-15	3.052416E-17
6.914683E+03	1.895197E-15	3.071707E-17
6.924603E+03	1.907864E-15	3.091521E-17
6.934524E+03	1.920697E-15	3.110066E-17
6.944444E+03	1.932745E-15	3.125776E-17
6.954365E+03	1.943153E-15	3.137255E-17
6.964286E+03	1.951341E-15	3.143565E-17
6.974206E+03	1.956949E-15	3.144144E-17
6.984127E+03	1.959839E-15	3.138803E-17
6.994048E+03	1.959971E-15	3.127524E-17
7.003968E+03	1.957408E-15	3.110476E-17
7.013889E+03	1.952241E-15	3.087875E-17
7.023810E+03	1.944545E-15	3.059931E-17
7.033730E+03	1.934352E-15	3.026792E-17
7.043651E+03	1.921637E-15	2.988533E-17
7.053571E+03	1.906427E-15	2.945319E-17
7.063492E+03	1.888896E-15	2.897553E-17
7.073413E+03	1.869384E-15	2.845894E-17
7.083333E+03	1.848699E-15	2.791702E-17
7.093254E+03	1.828064E-15	2.736927E-17
7.103175E+03	1.809230E-15	2.684236E-17
7.113095E+03	1.794110E-15	2.636442E-17
7.123016E+03	1.784378E-15	2.595892E-17
7.132937E+03	1.781098E-15	2.563934E-17
7.142857E+03	1.784723E-15	2.540974E-17
7.152778E+03	1.795006E-15	2.526379E-17
7.162698E+03	1.811012E-15	2.518561E-17
7.172619E+03	1.831237E-15	2.515202E-17
7.182540E+03	1.853827E-15	2.513607E-17
7.192460E+03	1.876712E-15	2.510922E-17
7.202381E+03	1.897789E-15	2.504404E-17
7.212302E+03	1.915086E-15	2.491640E-17
7.222222E+03	1.927040E-15	2.470908E-17
7.232143E+03	1.932668E-15	2.441347E-17
7.242063E+03	1.931652E-15	2.403016E-17
7.251984E+03	1.924533E-15	2.357060E-17
7.261905E+03	1.912577E-15	2.305463E-17
7.271825E+03	1.897557E-15	2.250723E-17
7.281746E+03	1.881469E-15	2.195461E-17
7.291667E+03	1.866340E-15	2.142185E-17
7.301587E+03	1.853901E-15	2.092913E-17
7.311508E+03	1.845389E-15	2.048992E-17
7.321429E+03	1.841477E-15	2.011069E-17
7.331349E+03	1.842325E-15	1.979204E-17
7.341270E+03	1.847645E-15	1.952990E-17
7.351190E+03	1.856756E-15	1.931651E-17
7.361111E+03	1.868699E-15	1.914190E-17
7.371032E+03	1.882232E-15	1.899405E-17
7.380952E+03	1.895766E-15	1.885843E-17
7.390873E+03	1.907339E-15	1.871773E-17
7.400794E+03	1.914423E-15	1.855014E-17
7.410714E+03	1.914169E-15	1.833115E-17
7.420635E+03	1.903787E-15	1.803748E-17
7.430556E+03	1.881537E-15	1.765613E-17
7.440476E+03	1.848096E-15	1.719630E-17
7.450397E+03	1.806732E-15	1.668963E-17
7.460317E+03	1.760304E-15	1.616119E-17
7.470238E+03	1.710212E-15	1.562157E-17
7.480159E+03	1.659613E-15	1.509691E-17
7.490079E+03	1.614242E-15	1.463639E-17
7.500000E+03	1.579966E-15	1.428995E-17
7.509921E+03	1.559686E-15	1.408082E-17
7.519841E+03	1.551143E-15	1.398610E-17
7.529762E+03	1.546509E-15	1.393332E-17
7.539683E+03	1.533194E-15	1.380760E-17
7.549603E+03	1.497977E-15	1.348858E-17
7.559524E+03	1.437332E-15	1.294324E-17
7.569444E+03	1.364501E-15	1.228948E-17
7.579365E+03	1.298900E-15	1.170112E-17
7.589286E+03	1.254916E-15	1.130701E-17
7.599206E+03	1.239175E-15	1.116635E-17
7.609127E+03	1.251429E-15	1.127647E-17
7.619048E+03	1.287130E-15	1.159582E-17
7.628968E+03	1.339667E-15	1.206416E-17
7.638889E+03	1.402000E-15	1.261732E-17
7.648810E+03	1.467456E-15	1.319450E-17
7.658730E+03	1.530467E-15	1.374503E-17
7.668651E+03	1.587278E-15	1.423487E-17
7.678571E+03	1.635926E-15	1.464637E-17
7.688492E+03	1.676096E-15	1.497703E-17
7.698413E+03	1.708522E-15	1.523392E-17
