#wls	flux	fluxerr
1.587302E+03	8.487721E-18	2.527243E-19
1.626984E+03	8.654121E-18	2.567549E-19
1.666667E+03	8.797800E-18	2.600563E-19
1.706349E+03	8.918662E-18	2.626319E-19
1.746032E+03	9.013093E-18	2.643819E-19
1.785714E+03	9.077471E-18	2.652085E-19
1.825397E+03	9.099140E-18	2.647531E-19
1.865079E+03	9.068415E-18	2.627500E-19
1.904762E+03	8.972188E-18	2.588401E-19
1.944444E+03	8.805304E-18	2.529003E-19
1.984127E+03	8.567074E-18	2.449392E-19
2.023810E+03	8.282573E-18	2.357000E-19
2.063492E+03	8.005555E-18	2.267256E-19
2.103175E+03	7.816159E-18	2.202735E-19
2.142857E+03	7.796278E-18	2.186050E-19
2.182540E+03	7.994967E-18	2.230158E-19
2.222222E+03	8.409590E-18	2.333358E-19
2.261905E+03	8.995498E-18	2.482327E-19
2.301587E+03	9.692125E-18	2.659615E-19
2.341270E+03	1.044737E-17	2.850426E-19
2.380952E+03	1.122089E-17	3.043468E-19
2.420635E+03	1.199573E-17	3.234009E-19
2.460317E+03	1.276175E-17	3.419249E-19
2.500000E+03	1.351788E-17	3.598870E-19
2.539683E+03	1.426693E-17	3.773596E-19
2.579365E+03	1.501349E-17	3.944595E-19
2.619048E+03	1.576529E-17	4.113821E-19
2.658730E+03	1.652534E-17	4.281957E-19
2.698413E+03	1.730160E-17	4.450927E-19
2.738095E+03	1.809676E-17	4.621257E-19
2.777778E+03	1.891617E-17	4.794117E-19
2.817460E+03	1.976856E-17	4.971488E-19
2.857143E+03	2.065760E-17	5.154009E-19
2.896825E+03	2.159413E-17	5.344068E-19
2.936508E+03	2.258447E-17	5.542841E-19
2.976190E+03	2.364028E-17	5.752749E-19
2.986111E+03	2.391823E-17	5.807823E-19
2.996032E+03	2.419767E-17	5.862921E-19
3.005952E+03	2.448604E-17	5.919833E-19
3.015873E+03	2.478015E-17	5.977780E-19
3.025794E+03	2.508063E-17	6.036899E-19
3.035714E+03	2.538858E-17	6.097442E-19
3.045635E+03	2.570388E-17	6.159371E-19
3.055556E+03	2.602956E-17	6.223394E-19
3.065476E+03	2.636950E-17	6.290417E-19
3.075397E+03	2.671611E-17	6.358612E-19
3.085317E+03	2.707729E-17	6.429839E-19
3.095238E+03	2.744539E-17	6.502264E-19
3.105159E+03	2.782860E-17	6.577807E-19
3.115079E+03	2.822331E-17	6.655587E-19
3.125000E+03	2.862987E-17	6.735673E-19
3.134921E+03	2.904454E-17	6.817161E-19
3.144841E+03	2.948039E-17	6.903095E-19
3.154762E+03	2.992541E-17	6.990635E-19
3.164683E+03	3.038442E-17	7.080885E-19
3.174603E+03	3.085812E-17	7.173981E-19
3.184524E+03	3.135173E-17	7.271110E-19
3.194444E+03	3.185722E-17	7.370376E-19
3.204365E+03	3.238449E-17	7.474045E-19
3.214286E+03	3.292543E-17	7.580205E-19
3.224206E+03	3.349034E-17	7.691201E-19
3.234127E+03	3.407581E-17	7.806204E-19
3.244048E+03	3.468306E-17	7.925460E-19
3.253968E+03	3.531345E-17	8.049232E-19
3.263889E+03	3.596838E-17	8.177805E-19
3.273810E+03	3.664940E-17	8.311478E-19
3.283730E+03	3.735813E-17	8.450571E-19
3.293651E+03	3.810162E-17	8.596623E-19
3.303571E+03	3.887117E-17	8.747617E-19
3.313492E+03	3.967947E-17	8.906348E-19
3.323413E+03	4.051767E-17	9.070767E-19
3.333333E+03	4.139909E-17	9.243790E-19
3.343254E+03	4.232054E-17	9.424627E-19
3.353175E+03	4.328445E-17	9.613746E-19
3.363095E+03	4.429340E-17	9.811637E-19
3.373016E+03	4.535006E-17	1.001881E-18
3.382937E+03	4.645720E-17	1.023578E-18
3.392857E+03	4.761782E-17	1.046312E-18
3.402778E+03	4.883484E-17	1.070136E-18
3.412698E+03	5.011828E-17	1.095259E-18
3.422619E+03	5.145782E-17	1.121445E-18
3.432540E+03	5.286344E-17	1.148898E-18
3.442460E+03	5.434576E-17	1.177837E-18
3.452381E+03	5.590120E-17	1.208170E-18
3.462302E+03	5.752537E-17	1.239789E-18
3.472222E+03	5.923673E-17	1.273078E-18
3.482143E+03	6.103095E-17	1.307927E-18
3.492063E+03	6.291101E-17	1.344384E-18
3.501984E+03	6.487957E-17	1.382490E-18
3.511905E+03	6.693892E-17	1.422277E-18
3.521825E+03	6.909078E-17	1.463764E-18
3.531746E+03	7.133622E-17	1.506955E-18
3.541667E+03	7.367537E-17	1.551836E-18
3.551587E+03	7.611723E-17	1.598579E-18
3.561508E+03	7.863976E-17	1.646700E-18
3.571429E+03	8.125921E-17	1.696526E-18
3.581349E+03	8.394863E-17	1.747475E-18
3.591270E+03	8.672149E-17	1.799814E-18
3.601190E+03	8.954558E-17	1.852861E-18
3.611111E+03	9.243209E-17	1.906835E-18
3.621032E+03	9.535654E-17	1.961222E-18
3.630952E+03	9.830453E-17	2.015718E-18
3.640873E+03	1.012608E-16	2.070007E-18
3.650794E+03	1.041966E-16	2.123500E-18
3.660714E+03	1.071232E-16	2.176431E-18
3.670635E+03	1.100137E-16	2.228254E-18
3.680556E+03	1.128709E-16	2.279033E-18
3.690476E+03	1.156580E-16	2.328036E-18
3.700397E+03	1.183861E-16	2.375494E-18
3.710317E+03	1.210578E-16	2.421474E-18
3.720238E+03	1.236831E-16	2.466181E-18
3.730159E+03	1.262950E-16	2.510282E-18
3.740079E+03	1.288866E-16	2.553643E-18
3.750000E+03	1.315049E-16	2.597195E-18
3.759921E+03	1.342041E-16	2.641997E-18
3.769841E+03	1.369929E-16	2.688206E-18
3.779762E+03	1.399508E-16	2.737359E-18
3.789683E+03	1.430911E-16	2.789684E-18
3.799603E+03	1.464977E-16	2.846774E-18
3.809524E+03	1.501820E-16	2.908799E-18
3.819444E+03	1.542251E-16	2.977271E-18
3.829365E+03	1.586477E-16	3.052520E-18
3.839286E+03	1.634602E-16	3.134671E-18
3.849206E+03	1.687215E-16	3.224774E-18
3.859127E+03	1.744169E-16	3.322463E-18
3.869048E+03	1.805340E-16	3.427418E-18
3.878968E+03	1.870173E-16	3.538507E-18
3.888889E+03	1.938566E-16	3.655465E-18
3.898810E+03	2.009509E-16	3.776328E-18
3.908730E+03	2.081977E-16	3.899123E-18
3.918651E+03	2.154726E-16	4.021497E-18
3.928571E+03	2.226064E-16	4.140300E-18
3.938492E+03	2.294983E-16	4.253690E-18
3.948413E+03	2.359640E-16	4.358308E-18
3.958333E+03	2.418487E-16	4.451386E-18
3.968254E+03	2.470081E-16	4.530390E-18
3.978175E+03	2.513155E-16	4.593146E-18
3.988095E+03	2.546685E-16	4.637953E-18
3.998016E+03	2.569634E-16	4.663115E-18
4.007937E+03	2.582225E-16	4.669240E-18
4.017857E+03	2.584142E-16	4.655961E-18
4.027778E+03	2.575764E-16	4.624166E-18
4.037698E+03	2.557847E-16	4.575412E-18
4.047619E+03	2.531488E-16	4.511834E-18
4.057540E+03	2.497756E-16	4.435500E-18
4.067460E+03	2.458787E-16	4.350331E-18
4.077381E+03	2.415912E-16	4.258779E-18
4.087302E+03	2.370751E-16	4.163766E-18
4.097222E+03	2.324843E-16	4.068028E-18
4.107143E+03	2.279323E-16	3.973558E-18
4.117063E+03	2.235953E-16	3.883415E-18
4.126984E+03	2.195513E-16	3.798903E-18
4.136905E+03	2.158617E-16	3.721026E-18
4.146825E+03	2.126453E-16	3.651754E-18
4.156746E+03	2.099289E-16	3.591455E-18
4.166667E+03	2.077261E-16	3.540265E-18
4.176587E+03	2.061089E-16	3.499304E-18
4.186508E+03	2.050419E-16	3.467862E-18
4.196429E+03	2.045731E-16	3.446640E-18
4.206349E+03	2.046462E-16	3.434578E-18
4.216270E+03	2.052642E-16	3.431623E-18
4.226190E+03	2.064197E-16	3.437542E-18
4.236111E+03	2.080241E-16	3.450765E-18
4.246032E+03	2.100478E-16	3.470716E-18
4.255952E+03	2.124277E-16	3.496274E-18
4.265873E+03	2.150910E-16	3.526179E-18
4.275794E+03	2.179807E-16	3.559447E-18
4.285714E+03	2.209596E-16	3.593803E-18
4.295635E+03	2.239567E-16	3.628081E-18
4.305556E+03	2.268470E-16	3.660263E-18
4.315476E+03	2.295788E-16	3.689539E-18
4.325397E+03	2.320263E-16	3.713928E-18
4.335317E+03	2.340963E-16	3.732001E-18
4.345238E+03	2.356880E-16	3.742232E-18
4.355159E+03	2.368201E-16	3.745009E-18
4.365079E+03	2.374793E-16	3.740217E-18
4.375000E+03	2.378282E-16	3.730492E-18
4.384921E+03	2.379639E-16	3.717416E-18
4.394841E+03	2.381038E-16	3.704410E-18
4.404762E+03	2.383639E-16	3.693270E-18
4.414683E+03	2.389334E-16	3.686890E-18
4.424603E+03	2.399643E-16	3.687549E-18
4.434524E+03	2.415932E-16	3.697246E-18
4.444444E+03	2.439368E-16	3.717648E-18
4.454365E+03	2.470879E-16	3.750025E-18
4.464286E+03	2.510824E-16	3.794766E-18
4.474206E+03	2.560010E-16	3.852927E-18
4.484127E+03	2.617746E-16	3.923296E-18
4.494048E+03	2.683963E-16	4.005609E-18
4.503968E+03	2.756953E-16	4.097168E-18
4.513889E+03	2.835334E-16	4.195800E-18
4.523810E+03	2.917264E-16	4.298690E-18
4.533730E+03	2.999571E-16	4.401115E-18
4.543651E+03	3.079716E-16	4.499362E-18
4.553571E+03	3.154729E-16	4.589150E-18
4.563492E+03	3.221352E-16	4.665857E-18
4.573413E+03	3.277576E-16	4.726746E-18
4.583333E+03	3.320441E-16	4.767760E-18
4.593254E+03	3.348924E-16	4.787689E-18
4.603175E+03	3.361272E-16	4.784307E-18
4.613095E+03	3.357861E-16	4.758451E-18
4.623016E+03	3.338385E-16	4.709983E-18
4.632937E+03	3.304270E-16	4.641208E-18
4.642857E+03	3.257163E-16	4.554701E-18
4.652778E+03	3.198800E-16	4.453125E-18
4.662698E+03	3.132202E-16	4.340874E-18
4.672619E+03	3.059485E-16	4.221021E-18
4.682540E+03	2.982761E-16	4.096582E-18
4.692460E+03	2.904641E-16	3.971200E-18
4.702381E+03	2.827484E-16	3.848111E-18
4.712302E+03	2.752504E-16	3.728942E-18
4.722222E+03	2.681537E-16	3.616126E-18
4.732143E+03	2.615844E-16	3.511283E-18
4.742063E+03	2.556173E-16	3.415311E-18
4.751984E+03	2.503834E-16	3.329842E-18
4.761905E+03	2.458891E-16	3.254823E-18
4.771825E+03	2.422271E-16	3.191338E-18
4.781746E+03	2.393748E-16	3.138935E-18
4.791667E+03	2.373724E-16	3.097991E-18
4.801587E+03	2.362225E-16	3.068381E-18
4.811508E+03	2.359150E-16	3.049816E-18
4.821429E+03	2.364258E-16	3.041831E-18
4.831349E+03	2.376912E-16	3.043462E-18
4.841270E+03	2.397050E-16	3.054489E-18
4.851190E+03	2.423501E-16	3.073292E-18
4.861111E+03	2.455718E-16	3.099066E-18
4.871032E+03	2.492847E-16	3.130634E-18
4.880952E+03	2.534002E-16	3.166800E-18
4.890873E+03	2.578276E-16	3.206366E-18
4.900794E+03	2.624708E-16	3.248088E-18
4.910714E+03	2.671927E-16	3.290242E-18
4.920635E+03	2.719112E-16	3.331809E-18
4.930556E+03	2.764027E-16	3.370067E-18
4.940476E+03	2.804892E-16	3.402905E-18
4.950397E+03	2.839411E-16	3.427625E-18
4.960317E+03	2.865263E-16	3.441559E-18
4.970238E+03	2.880440E-16	3.442469E-18
4.980159E+03	2.883634E-16	3.428995E-18
4.990079E+03	2.874271E-16	3.400674E-18
5.000000E+03	2.853807E-16	3.359452E-18
5.009921E+03	2.823693E-16	3.307223E-18
5.019841E+03	2.787137E-16	3.247902E-18
5.029762E+03	2.747593E-16	3.185608E-18
5.039683E+03	2.708637E-16	3.124521E-18
5.049603E+03	2.673348E-16	3.068162E-18
5.059524E+03	2.645113E-16	3.020336E-18
5.069444E+03	2.625623E-16	2.982842E-18
5.079365E+03	2.616936E-16	2.957856E-18
5.089286E+03	2.619406E-16	2.945590E-18
5.099206E+03	2.633548E-16	2.946433E-18
5.109127E+03	2.659070E-16	2.959865E-18
5.119048E+03	2.694942E-16	2.984555E-18
5.128968E+03	2.740518E-16	3.019626E-18
5.138889E+03	2.793759E-16	3.062685E-18
5.148810E+03	2.853460E-16	3.112301E-18
5.158730E+03	2.917159E-16	3.165706E-18
5.168651E+03	2.983173E-16	3.221028E-18
5.178571E+03	3.049596E-16	3.276195E-18
5.188492E+03	3.114673E-16	3.329339E-18
5.198413E+03	3.176568E-16	3.378539E-18
5.208333E+03	3.234637E-16	3.423183E-18
5.218254E+03	3.287265E-16	3.461643E-18
5.228175E+03	3.334345E-16	3.493906E-18
5.238095E+03	3.374676E-16	3.518819E-18
5.248016E+03	3.408158E-16	3.536397E-18
5.257937E+03	3.434459E-16	3.546412E-18
5.267857E+03	3.452974E-16	3.548362E-18
5.277778E+03	3.464178E-16	3.542859E-18
5.287698E+03	3.467292E-16	3.529225E-18
5.297619E+03	3.463012E-16	3.508294E-18
5.307540E+03	3.450856E-16	3.479690E-18
5.317460E+03	3.431569E-16	3.444277E-18
5.327381E+03	3.405801E-16	3.402807E-18
5.337302E+03	3.374482E-16	3.356296E-18
5.347222E+03	3.338842E-16	3.306037E-18
5.357143E+03	3.300100E-16	3.253288E-18
5.367063E+03	3.260748E-16	3.200534E-18
5.376984E+03	3.222278E-16	3.149237E-18
5.386905E+03	3.187373E-16	3.101997E-18
5.396825E+03	3.158553E-16	3.061209E-18
5.406746E+03	3.138405E-16	3.029294E-18
5.416667E+03	3.129451E-16	3.008578E-18
5.426587E+03	3.134017E-16	3.001162E-18
5.436508E+03	3.153738E-16	3.008459E-18
5.446429E+03	3.190425E-16	3.032037E-18
5.456349E+03	3.243263E-16	3.070956E-18
5.466270E+03	3.310802E-16	3.123696E-18
5.476190E+03	3.388846E-16	3.186172E-18
5.486111E+03	3.473176E-16	3.254345E-18
5.496032E+03	3.558626E-16	3.323344E-18
5.505952E+03	3.639358E-16	3.387741E-18
5.515873E+03	3.710621E-16	3.443182E-18
5.525794E+03	3.767068E-16	3.484818E-18
5.535714E+03	3.804153E-16	3.508586E-18
5.545635E+03	3.819176E-16	3.512165E-18
5.555556E+03	3.810719E-16	3.494431E-18
5.565476E+03	3.777527E-16	3.454408E-18
5.575397E+03	3.720557E-16	3.393143E-18
5.585317E+03	3.641264E-16	3.312115E-18
5.595238E+03	3.541379E-16	3.213031E-18
5.605159E+03	3.424073E-16	3.098875E-18
5.615079E+03	3.291761E-16	2.971917E-18
5.625000E+03	3.147182E-16	2.834688E-18
5.634921E+03	2.994017E-16	2.690543E-18
5.644841E+03	2.836241E-16	2.543065E-18
5.654762E+03	2.677321E-16	2.395350E-18
5.664683E+03	2.521783E-16	2.251415E-18
5.674603E+03	2.373824E-16	2.114948E-18
5.684524E+03	2.237300E-16	1.989308E-18
5.694444E+03	2.115249E-16	1.877106E-18
5.704365E+03	2.010550E-16	1.780793E-18
5.714286E+03	1.924651E-16	1.701545E-18
5.724206E+03	1.858320E-16	1.639929E-18
5.734127E+03	1.812124E-16	1.596341E-18
5.744048E+03	1.786218E-16	1.570815E-18
5.753968E+03	1.780004E-16	1.562725E-18
5.763889E+03	1.793248E-16	1.571778E-18
5.773810E+03	1.825420E-16	1.597425E-18
5.783730E+03	1.875830E-16	1.638984E-18
5.793651E+03	1.943549E-16	1.695575E-18
5.803571E+03	2.027112E-16	1.765855E-18
5.813492E+03	2.125173E-16	1.848599E-18
5.823413E+03	2.235052E-16	1.941432E-18
5.833333E+03	2.354252E-16	2.042153E-18
5.843254E+03	2.478760E-16	2.147260E-18
5.853175E+03	2.604849E-16	2.253518E-18
5.863095E+03	2.727363E-16	2.356477E-18
5.873016E+03	2.841636E-16	2.452130E-18
5.882937E+03	2.942868E-16	2.536375E-18
5.892857E+03	3.026765E-16	2.605564E-18
5.902778E+03	3.089954E-16	2.656852E-18
5.912698E+03	3.130010E-16	2.688226E-18
5.922619E+03	3.146850E-16	2.699682E-18
5.932540E+03	3.140957E-16	2.691703E-18
5.942460E+03	3.114129E-16	2.665889E-18
5.952381E+03	3.070120E-16	2.625506E-18
5.962302E+03	3.012205E-16	2.573392E-18
5.972222E+03	2.945164E-16	2.513660E-18
5.982143E+03	2.872608E-16	2.449406E-18
5.992063E+03	2.798697E-16	2.384184E-18
6.001984E+03	2.726826E-16	2.320881E-18
6.011905E+03	2.659859E-16	2.261923E-18
6.021825E+03	2.600165E-16	2.209307E-18
6.031746E+03	2.549719E-16	2.164694E-18
6.041667E+03	2.510218E-16	2.129498E-18
6.051587E+03	2.483191E-16	2.104995E-18
6.061508E+03	2.469871E-16	2.092203E-18
6.071429E+03	2.472222E-16	2.092761E-18
6.081349E+03	2.491600E-16	2.107789E-18
6.091270E+03	2.529534E-16	2.138558E-18
6.101190E+03	2.588552E-16	2.187179E-18
6.111111E+03	2.670559E-16	2.255237E-18
6.121032E+03	2.778594E-16	2.345276E-18
6.130952E+03	2.915838E-16	2.459958E-18
6.140873E+03	3.086037E-16	2.602426E-18
6.150794E+03	3.292113E-16	2.775128E-18
6.160714E+03	3.537488E-16	2.980937E-18
6.170635E+03	3.824403E-16	3.221736E-18
6.180556E+03	4.153485E-16	3.498062E-18
6.190476E+03	4.522961E-16	3.808438E-18
6.200397E+03	4.927902E-16	4.148742E-18
6.210317E+03	5.359639E-16	4.511721E-18
6.220238E+03	5.805003E-16	4.886345E-18
6.230159E+03	6.248841E-16	5.259927E-18
6.240079E+03	6.671707E-16	5.616165E-18
6.250000E+03	7.052694E-16	5.937527E-18
6.259921E+03	7.373406E-16	6.208578E-18
6.269841E+03	7.615240E-16	6.413684E-18
6.279762E+03	7.766795E-16	6.543244E-18
6.289683E+03	7.819640E-16	6.590120E-18
6.299603E+03	7.774257E-16	6.554652E-18
6.309524E+03	7.637764E-16	6.442744E-18
6.319444E+03	7.420642E-16	6.263114E-18
6.329365E+03	7.139464E-16	6.029619E-18
6.339286E+03	6.811742E-16	5.756914E-18
6.349206E+03	6.455270E-16	5.459915E-18
6.359127E+03	6.084055E-16	5.150363E-18
6.369048E+03	5.711312E-16	4.839359E-18
6.378968E+03	5.346625E-16	4.534962E-18
6.388889E+03	4.996807E-16	4.242900E-18
6.398810E+03	4.666350E-16	3.966950E-18
6.408730E+03	4.357601E-16	3.709090E-18
6.418651E+03	4.073119E-16	3.471501E-18
6.428571E+03	3.813674E-16	3.254858E-18
6.438492E+03	3.580517E-16	3.060263E-18
6.448413E+03	3.374919E-16	2.888854E-18
6.458333E+03	3.199587E-16	2.743017E-18
6.468254E+03	3.056339E-16	2.624399E-18
6.478175E+03	2.945749E-16	2.533597E-18
6.488095E+03	2.865281E-16	2.468544E-18
6.498016E+03	2.807288E-16	2.422752E-18
6.507937E+03	2.764432E-16	2.389964E-18
6.517857E+03	2.729324E-16	2.363836E-18
6.527778E+03	2.697031E-16	2.340114E-18
6.537698E+03	2.662920E-16	2.314773E-18
6.547619E+03	2.624397E-16	2.285536E-18
6.557540E+03	2.579964E-16	2.251064E-18
6.567460E+03	2.528316E-16	2.210177E-18
6.577381E+03	2.469688E-16	2.163037E-18
6.587302E+03	2.404661E-16	2.110111E-18
6.597222E+03	2.334461E-16	2.052435E-18
6.607143E+03	2.259869E-16	1.990664E-18
6.617063E+03	2.182454E-16	1.926154E-18
6.626984E+03	2.103526E-16	1.860044E-18
6.636905E+03	2.024301E-16	1.793397E-18
6.646825E+03	1.945859E-16	1.727167E-18
6.656746E+03	1.869120E-16	1.662173E-18
6.666667E+03	1.794839E-16	1.599094E-18
6.676587E+03	1.723601E-16	1.538462E-18
6.686508E+03	1.655829E-16	1.480671E-18
6.696429E+03	1.591652E-16	1.425851E-18
6.706349E+03	1.531551E-16	1.374452E-18
6.716270E+03	1.475440E-16	1.326416E-18
6.726190E+03	1.423327E-16	1.281771E-18
6.736111E+03	1.375042E-16	1.240382E-18
6.746032E+03	1.330792E-16	1.202455E-18
6.755952E+03	1.290361E-16	1.167814E-18
6.765873E+03	1.253543E-16	1.136290E-18
6.775794E+03	1.220513E-16	1.108060E-18
6.785714E+03	1.191089E-16	1.082973E-18
6.795635E+03	1.165124E-16	1.060913E-18
6.805556E+03	1.142850E-16	1.042106E-18
6.815476E+03	1.124071E-16	1.026389E-18
6.825397E+03	1.109069E-16	1.014031E-18
6.835317E+03	1.097708E-16	1.004924E-18
6.845238E+03	1.090199E-16	9.992723E-19
6.855159E+03	1.086760E-16	9.972892E-19
6.865079E+03	1.087293E-16	9.988972E-19
6.875000E+03	1.092013E-16	1.004304E-18
6.884921E+03	1.101115E-16	1.013700E-18
6.894841E+03	1.114437E-16	1.026945E-18
6.904762E+03	1.132093E-16	1.044152E-18
6.914683E+03	1.154029E-16	1.065278E-18
6.924603E+03	1.180131E-16	1.090223E-18
6.934524E+03	1.210210E-16	1.118817E-18
6.944444E+03	1.244135E-16	1.150940E-18
6.954365E+03	1.281344E-16	1.186071E-18
6.964286E+03	1.321582E-16	1.223972E-18
6.974206E+03	1.364425E-16	1.264248E-18
6.984127E+03	1.409280E-16	1.306343E-18
6.994048E+03	1.455942E-16	1.350061E-18
7.003968E+03	1.503799E-16	1.394827E-18
7.013889E+03	1.552393E-16	1.440207E-18
7.023810E+03	1.601316E-16	1.485815E-18
7.033730E+03	1.650242E-16	1.531335E-18
7.043651E+03	1.698785E-16	1.576403E-18
7.053571E+03	1.747206E-16	1.621249E-18
7.063492E+03	1.795438E-16	1.665803E-18
7.073413E+03	1.843768E-16	1.710322E-18
7.083333E+03	1.892502E-16	1.755078E-18
7.093254E+03	1.942718E-16	1.801062E-18
7.103175E+03	1.994963E-16	1.848771E-18
7.113095E+03	2.050764E-16	1.899607E-18
7.123016E+03	2.111037E-16	1.954401E-18
7.132937E+03	2.177644E-16	2.014860E-18
7.142857E+03	2.251659E-16	2.081954E-18
7.152778E+03	2.334746E-16	2.157192E-18
7.162698E+03	2.428441E-16	2.241961E-18
7.172619E+03	2.533283E-16	2.336715E-18
7.182540E+03	2.650098E-16	2.442173E-18
7.192460E+03	2.778903E-16	2.558297E-18
7.202381E+03	2.919246E-16	2.684616E-18
7.212302E+03	3.068842E-16	2.818973E-18
7.222222E+03	3.225108E-16	2.958946E-18
7.232143E+03	3.383917E-16	3.100704E-18
7.242063E+03	3.539908E-16	3.239308E-18
7.251984E+03	3.686706E-16	3.368918E-18
7.261905E+03	3.817394E-16	3.483237E-18
7.271825E+03	3.925182E-16	3.576125E-18
7.281746E+03	4.004154E-16	3.642282E-18
7.291667E+03	4.049532E-16	3.677486E-18
7.301587E+03	4.059770E-16	3.680485E-18
7.311508E+03	4.034292E-16	3.650923E-18
7.321429E+03	3.974985E-16	3.590687E-18
7.331349E+03	3.885027E-16	3.502825E-18
7.341270E+03	3.769966E-16	3.392501E-18
7.351190E+03	3.634416E-16	3.264015E-18
7.361111E+03	3.484647E-16	3.123120E-18
7.371032E+03	3.325188E-16	2.973969E-18
7.380952E+03	3.161424E-16	2.821449E-18
7.390873E+03	2.996668E-16	2.668559E-18
7.400794E+03	2.834453E-16	2.518469E-18
7.410714E+03	2.677503E-16	2.373602E-18
7.420635E+03	2.527058E-16	2.235043E-18
7.430556E+03	2.384655E-16	2.104128E-18
7.440476E+03	2.251108E-16	1.981543E-18
7.450397E+03	2.126898E-16	1.867668E-18
7.460317E+03	2.012267E-16	1.762669E-18
7.470238E+03	1.907294E-16	1.666568E-18
7.480159E+03	1.811974E-16	1.579307E-18
7.490079E+03	1.726278E-16	1.500808E-18
7.500000E+03	1.650199E-16	1.431007E-18
7.509921E+03	1.583778E-16	1.369887E-18
7.519841E+03	1.526960E-16	1.317339E-18
7.529762E+03	1.480202E-16	1.273699E-18
7.539683E+03	1.443496E-16	1.238899E-18
7.549603E+03	1.416851E-16	1.212882E-18
7.559524E+03	1.400693E-16	1.195950E-18
7.569444E+03	1.394838E-16	1.187882E-18
7.579365E+03	1.399648E-16	1.188922E-18
7.589286E+03	1.414861E-16	1.198784E-18
7.599206E+03	1.440572E-16	1.217488E-18
7.609127E+03	1.476626E-16	1.244844E-18
7.619048E+03	1.522870E-16	1.280667E-18
7.628968E+03	1.578480E-16	1.324214E-18
7.638889E+03	1.642818E-16	1.374907E-18
7.648810E+03	1.714753E-16	1.431765E-18
7.658730E+03	1.792755E-16	1.493489E-18
7.668651E+03	1.874874E-16	1.558442E-18
7.678571E+03	1.958765E-16	1.624682E-18
7.688492E+03	2.041560E-16	1.689850E-18
7.698413E+03	2.120844E-16	1.751983E-18
