#wls	flux	fluxerr
1.587302E+03	5.715021E-18	2.684380E-19
1.626984E+03	5.814629E-18	2.720490E-19
1.666667E+03	5.899604E-18	2.749171E-19
1.706349E+03	5.967925E-18	2.769552E-19
1.746032E+03	6.018287E-18	2.781115E-19
1.785714E+03	6.046300E-18	2.781935E-19
1.825397E+03	6.046856E-18	2.769801E-19
1.865079E+03	6.010569E-18	2.740598E-19
1.904762E+03	5.932222E-18	2.692191E-19
1.944444E+03	5.805696E-18	2.622095E-19
1.984127E+03	5.633005E-18	2.531545E-19
2.023810E+03	5.431032E-18	2.428419E-19
2.063492E+03	5.233357E-18	2.327881E-19
2.103175E+03	5.094177E-18	2.253904E-19
2.142857E+03	5.065339E-18	2.228907E-19
2.182540E+03	5.178576E-18	2.265975E-19
2.222222E+03	5.429115E-18	2.361965E-19
2.261905E+03	5.788819E-18	2.503636E-19
2.301587E+03	6.216992E-18	2.672601E-19
2.341270E+03	6.678729E-18	2.853347E-19
2.380952E+03	7.150364E-18	3.035492E-19
2.420635E+03	7.620494E-18	3.214078E-19
2.460317E+03	8.083167E-18	3.386552E-19
2.500000E+03	8.538463E-18	3.552944E-19
2.539683E+03	8.989086E-18	3.714367E-19
2.579365E+03	9.440655E-18	3.873104E-19
2.619048E+03	9.894549E-18	4.029643E-19
2.658730E+03	1.035892E-17	4.187195E-19
2.698413E+03	1.083899E-17	4.347702E-19
2.738095E+03	1.133636E-17	4.511582E-19
2.777778E+03	1.186040E-17	4.682313E-19
2.817460E+03	1.241322E-17	4.860401E-19
2.857143E+03	1.300802E-17	5.050619E-19
2.896825E+03	1.364618E-17	5.253026E-19
2.936508E+03	1.433885E-17	5.471363E-19
2.976190E+03	1.509914E-17	5.709969E-19
2.986111E+03	1.530084E-17	5.773097E-19
2.996032E+03	1.550760E-17	5.837745E-19
3.005952E+03	1.571966E-17	5.903985E-19
3.015873E+03	1.593730E-17	5.971912E-19
3.025794E+03	1.616097E-17	6.041673E-19
3.035714E+03	1.639140E-17	6.113531E-19
3.045635E+03	1.662858E-17	6.187454E-19
3.055556E+03	1.687450E-17	6.264165E-19
3.065476E+03	1.712920E-17	6.343659E-19
3.075397E+03	1.739279E-17	6.425944E-19
3.085317E+03	1.766536E-17	6.511036E-19
3.095238E+03	1.794708E-17	6.598966E-19
3.105159E+03	1.823811E-17	6.689773E-19
3.115079E+03	1.853867E-17	6.783504E-19
3.125000E+03	1.884898E-17	6.880220E-19
3.134921E+03	1.917254E-17	6.981162E-19
3.144841E+03	1.950324E-17	7.084075E-19
3.154762E+03	1.984457E-17	7.190204E-19
3.164683E+03	2.019688E-17	7.299643E-19
3.174603E+03	2.056055E-17	7.412497E-19
3.184524E+03	2.093596E-17	7.528876E-19
3.194444E+03	2.132714E-17	7.650187E-19
3.204365E+03	2.172745E-17	7.774011E-19
3.214286E+03	2.214089E-17	7.901748E-19
3.224206E+03	2.256797E-17	8.033544E-19
3.234127E+03	2.300924E-17	8.169552E-19
3.244048E+03	2.346918E-17	8.311321E-19
3.253968E+03	2.394062E-17	8.456262E-19
3.263889E+03	2.442803E-17	8.605918E-19
3.273810E+03	2.493204E-17	8.760469E-19
3.283730E+03	2.545759E-17	8.921592E-19
3.293651E+03	2.599697E-17	9.086530E-19
3.303571E+03	2.655505E-17	9.256945E-19
3.313492E+03	2.713258E-17	9.433043E-19
3.323413E+03	2.773494E-17	9.616633E-19
3.333333E+03	2.835378E-17	9.804756E-19
3.343254E+03	2.899443E-17	9.999203E-19
3.353175E+03	2.966263E-17	1.020188E-18
3.363095E+03	3.034948E-17	1.040967E-18
3.373016E+03	3.106062E-17	1.062443E-18
3.382937E+03	3.180219E-17	1.084820E-18
3.392857E+03	3.256461E-17	1.107762E-18
3.402778E+03	3.335389E-17	1.131468E-18
3.412698E+03	3.417654E-17	1.156150E-18
3.422619E+03	3.502220E-17	1.181449E-18
3.432540E+03	3.589722E-17	1.207572E-18
3.442460E+03	3.680847E-17	1.234740E-18
3.452381E+03	3.774469E-17	1.262568E-18
3.462302E+03	3.871893E-17	1.291482E-18
3.472222E+03	3.971922E-17	1.321075E-18
3.482143E+03	4.075240E-17	1.351565E-18
3.492063E+03	4.182592E-17	1.383189E-18
3.501984E+03	4.292658E-17	1.415500E-18
3.511905E+03	4.406875E-17	1.448964E-18
3.521825E+03	4.523835E-17	1.483107E-18
3.531746E+03	4.645023E-17	1.518405E-18
3.541667E+03	4.768934E-17	1.554357E-18
3.551587E+03	4.896299E-17	1.591193E-18
3.561508E+03	5.027923E-17	1.629164E-18
3.571429E+03	5.162143E-17	1.667719E-18
3.581349E+03	5.300587E-17	1.707377E-18
3.591270E+03	5.441490E-17	1.747558E-18
3.601190E+03	5.586552E-17	1.788800E-18
3.611111E+03	5.733903E-17	1.830495E-18
3.621032E+03	5.885329E-17	1.873204E-18
3.630952E+03	6.038864E-17	1.916292E-18
3.640873E+03	6.196391E-17	1.960350E-18
3.650794E+03	6.355853E-17	2.004717E-18
3.660714E+03	6.519264E-17	2.050021E-18
3.670635E+03	6.684499E-17	2.095586E-18
3.680556E+03	6.852580E-17	2.141726E-18
3.690476E+03	7.024677E-17	2.188797E-18
3.700397E+03	7.198572E-17	2.236099E-18
3.710317E+03	7.376640E-17	2.284363E-18
3.720238E+03	7.556615E-17	2.332875E-18
3.730159E+03	7.741045E-17	2.382416E-18
3.740079E+03	7.927572E-17	2.432248E-18
3.750000E+03	8.118894E-17	2.483192E-18
3.759921E+03	8.312564E-17	2.534486E-18
3.769841E+03	8.511393E-17	2.586978E-18
3.779762E+03	8.712780E-17	2.639866E-18
3.789683E+03	8.919617E-17	2.694014E-18
3.799603E+03	9.129090E-17	2.748561E-18
3.809524E+03	9.344105E-17	2.804371E-18
3.819444E+03	9.561584E-17	2.860506E-18
3.829365E+03	9.784390E-17	2.917813E-18
3.839286E+03	1.000909E-16	2.975258E-18
3.849206E+03	1.023849E-16	3.033660E-18
3.859127E+03	1.046874E-16	3.091878E-18
3.869048E+03	1.070253E-16	3.150694E-18
3.878968E+03	1.093561E-16	3.208853E-18
3.888889E+03	1.116873E-16	3.266577E-18
3.898810E+03	1.140267E-16	3.324094E-18
3.908730E+03	1.163264E-16	3.380004E-18
3.918651E+03	1.186110E-16	3.435036E-18
3.928571E+03	1.208300E-16	3.487732E-18
3.938492E+03	1.230087E-16	3.538843E-18
3.948413E+03	1.250952E-16	3.586890E-18
3.958333E+03	1.271171E-16	3.632689E-18
3.968254E+03	1.290228E-16	3.674786E-18
3.978175E+03	1.308435E-16	3.714101E-18
3.988095E+03	1.325293E-16	3.749251E-18
3.998016E+03	1.340951E-16	3.780687E-18
4.007937E+03	1.355587E-16	3.808949E-18
4.017857E+03	1.368756E-16	3.832820E-18
4.027778E+03	1.380906E-16	3.853591E-18
4.037698E+03	1.391634E-16	3.870168E-18
4.047619E+03	1.401219E-16	3.883371E-18
4.057540E+03	1.409971E-16	3.894083E-18
4.067460E+03	1.417542E-16	3.901376E-18
4.077381E+03	1.424276E-16	3.906222E-18
4.087302E+03	1.430532E-16	3.909632E-18
4.097222E+03	1.435996E-16	3.910760E-18
4.107143E+03	1.441271E-16	3.911265E-18
4.117063E+03	1.446043E-16	3.910309E-18
4.126984E+03	1.450686E-16	3.908911E-18
4.136905E+03	1.455568E-16	3.908062E-18
4.146825E+03	1.460355E-16	3.906862E-18
4.156746E+03	1.465392E-16	3.906235E-18
4.166667E+03	1.470779E-16	3.906439E-18
4.176587E+03	1.476836E-16	3.908311E-18
4.186508E+03	1.483159E-16	3.910769E-18
4.196429E+03	1.490031E-16	3.914546E-18
4.206349E+03	1.497718E-16	3.920322E-18
4.216270E+03	1.505755E-16	3.926865E-18
4.226190E+03	1.514371E-16	3.934757E-18
4.236111E+03	1.523540E-16	3.943917E-18
4.246032E+03	1.533466E-16	3.954853E-18
4.255952E+03	1.543611E-16	3.966162E-18
4.265873E+03	1.554152E-16	3.978295E-18
4.275794E+03	1.565020E-16	3.991061E-18
4.285714E+03	1.576143E-16	4.004268E-18
4.295635E+03	1.587448E-16	4.017726E-18
4.305556E+03	1.599120E-16	4.031900E-18
4.315476E+03	1.610603E-16	4.045377E-18
4.325397E+03	1.622101E-16	4.058680E-18
4.335317E+03	1.633590E-16	4.071745E-18
4.345238E+03	1.645059E-16	4.084548E-18
4.355159E+03	1.656512E-16	4.097101E-18
4.365079E+03	1.667959E-16	4.109427E-18
4.375000E+03	1.679411E-16	4.121560E-18
4.384921E+03	1.690893E-16	4.133555E-18
4.394841E+03	1.702436E-16	4.145492E-18
4.404762E+03	1.714079E-16	4.157460E-18
4.414683E+03	1.725861E-16	4.169554E-18
4.424603E+03	1.738094E-16	4.182515E-18
4.434524E+03	1.749987E-16	4.194435E-18
4.444444E+03	1.762368E-16	4.207300E-18
4.454365E+03	1.774958E-16	4.220427E-18
4.464286E+03	1.787725E-16	4.233738E-18
4.474206E+03	1.800610E-16	4.247086E-18
4.484127E+03	1.813528E-16	4.260266E-18
4.494048E+03	1.826369E-16	4.273018E-18
4.503968E+03	1.838993E-16	4.285019E-18
4.513889E+03	1.851244E-16	4.295909E-18
4.523810E+03	1.862945E-16	4.305290E-18
4.533730E+03	1.873911E-16	4.312750E-18
4.543651E+03	1.883656E-16	4.317197E-18
4.553571E+03	1.892581E-16	4.319578E-18
4.563492E+03	1.900219E-16	4.318853E-18
4.573413E+03	1.906413E-16	4.314704E-18
4.583333E+03	1.911033E-16	4.306878E-18
4.593254E+03	1.913683E-16	4.294533E-18
4.603175E+03	1.914900E-16	4.278920E-18
4.613095E+03	1.914364E-16	4.259372E-18
4.623016E+03	1.911802E-16	4.235330E-18
4.632937E+03	1.907873E-16	4.208306E-18
4.642857E+03	1.902383E-16	4.177915E-18
4.652778E+03	1.895178E-16	4.143864E-18
4.662698E+03	1.887022E-16	4.107864E-18
4.672619E+03	1.877815E-16	4.069729E-18
4.682540E+03	1.867488E-16	4.029336E-18
4.692460E+03	1.856852E-16	3.988460E-18
4.702381E+03	1.845565E-16	3.946382E-18
4.712302E+03	1.834437E-16	3.904843E-18
4.722222E+03	1.823127E-16	3.863116E-18
4.732143E+03	1.812418E-16	3.822860E-18
4.742063E+03	1.801949E-16	3.783295E-18
4.751984E+03	1.792457E-16	3.745961E-18
4.761905E+03	1.783543E-16	3.709995E-18
4.771825E+03	1.775890E-16	3.676798E-18
4.781746E+03	1.769051E-16	3.645411E-18
4.791667E+03	1.763648E-16	3.617088E-18
4.801587E+03	1.759183E-16	3.590768E-18
4.811508E+03	1.755946E-16	3.567017E-18
4.821429E+03	1.754199E-16	3.546327E-18
4.831349E+03	1.753364E-16	3.527493E-18
4.841270E+03	1.753653E-16	3.510913E-18
4.851190E+03	1.755254E-16	3.496930E-18
4.861111E+03	1.757523E-16	3.484231E-18
4.871032E+03	1.760613E-16	3.473096E-18
4.880952E+03	1.764390E-16	3.463242E-18
4.890873E+03	1.768988E-16	3.454907E-18
4.900794E+03	1.773713E-16	3.446726E-18
4.910714E+03	1.778695E-16	3.438943E-18
4.920635E+03	1.783790E-16	3.431277E-18
4.930556E+03	1.788869E-16	3.423479E-18
4.940476E+03	1.793817E-16	3.415331E-18
4.950397E+03	1.798539E-16	3.406661E-18
4.960317E+03	1.802966E-16	3.397346E-18
4.970238E+03	1.807332E-16	3.387834E-18
4.980159E+03	1.811068E-16	3.377072E-18
4.990079E+03	1.814467E-16	3.365620E-18
5.000000E+03	1.817574E-16	3.353576E-18
5.009921E+03	1.820458E-16	3.341076E-18
5.019841E+03	1.822930E-16	3.327787E-18
5.029762E+03	1.825657E-16	3.314930E-18
5.039683E+03	1.828474E-16	3.302208E-18
5.049603E+03	1.831502E-16	3.289834E-18
5.059524E+03	1.834855E-16	3.278011E-18
5.069444E+03	1.838636E-16	3.266915E-18
5.079365E+03	1.842933E-16	3.256693E-18
5.089286E+03	1.847810E-16	3.247446E-18
5.099206E+03	1.853025E-16	3.238737E-18
5.109127E+03	1.859154E-16	3.231563E-18
5.119048E+03	1.865900E-16	3.225386E-18
5.128968E+03	1.873215E-16	3.220114E-18
5.138889E+03	1.880743E-16	3.215122E-18
5.148810E+03	1.888960E-16	3.211221E-18
5.158730E+03	1.897463E-16	3.207715E-18
5.168651E+03	1.905831E-16	3.203892E-18
5.178571E+03	1.914501E-16	3.200493E-18
5.188492E+03	1.923036E-16	3.196787E-18
5.198413E+03	1.930992E-16	3.192054E-18
5.208333E+03	1.938816E-16	3.187044E-18
5.218254E+03	1.945783E-16	3.180589E-18
5.228175E+03	1.952370E-16	3.173489E-18
5.238095E+03	1.957883E-16	3.164641E-18
5.248016E+03	1.962842E-16	3.154918E-18
5.257937E+03	1.966599E-16	3.143303E-18
5.267857E+03	1.969730E-16	3.130751E-18
5.277778E+03	1.971639E-16	3.116344E-18
5.287698E+03	1.972959E-16	3.101115E-18
5.297619E+03	1.973152E-16	3.084245E-18
5.307540E+03	1.972607E-16	3.066374E-18
5.317460E+03	1.971734E-16	3.048161E-18
5.327381E+03	1.970067E-16	3.028904E-18
5.337302E+03	1.968054E-16	3.009314E-18
5.347222E+03	1.966154E-16	2.990104E-18
5.357143E+03	1.963935E-16	2.970621E-18
5.367063E+03	1.961856E-16	2.951574E-18
5.376984E+03	1.960072E-16	2.933193E-18
5.386905E+03	1.959016E-16	2.916123E-18
5.396825E+03	1.958201E-16	2.899633E-18
5.406746E+03	1.958005E-16	2.884278E-18
5.416667E+03	1.958462E-16	2.870103E-18
5.426587E+03	1.959567E-16	2.857089E-18
5.436508E+03	1.961263E-16	2.845148E-18
5.446429E+03	1.963742E-16	2.834552E-18
5.456349E+03	1.966271E-16	2.824234E-18
5.466270E+03	1.968968E-16	2.814369E-18
5.476190E+03	1.971625E-16	2.804650E-18
5.486111E+03	1.974000E-16	2.794733E-18
5.496032E+03	1.975827E-16	2.784241E-18
5.505952E+03	1.976826E-16	2.772787E-18
5.515873E+03	1.976717E-16	2.759991E-18
5.525794E+03	1.975232E-16	2.745495E-18
5.535714E+03	1.972131E-16	2.728986E-18
5.545635E+03	1.966918E-16	2.709803E-18
5.555556E+03	1.960042E-16	2.688595E-18
5.565476E+03	1.951123E-16	2.664862E-18
5.575397E+03	1.940144E-16	2.638611E-18
5.585317E+03	1.927161E-16	2.609944E-18
5.595238E+03	1.912305E-16	2.579062E-18
5.605159E+03	1.895774E-16	2.546252E-18
5.615079E+03	1.877545E-16	2.511505E-18
5.625000E+03	1.858506E-16	2.476020E-18
5.634921E+03	1.838729E-16	2.439897E-18
5.644841E+03	1.818611E-16	2.403662E-18
5.654762E+03	1.798290E-16	2.367495E-18
5.664683E+03	1.778735E-16	2.332659E-18
5.674603E+03	1.760084E-16	2.299316E-18
5.684524E+03	1.742472E-16	2.267619E-18
5.694444E+03	1.726797E-16	2.238711E-18
5.704365E+03	1.713126E-16	2.212642E-18
5.714286E+03	1.701491E-16	2.189420E-18
5.724206E+03	1.692647E-16	2.169975E-18
5.734127E+03	1.686264E-16	2.153844E-18
5.744048E+03	1.682980E-16	2.141799E-18
5.753968E+03	1.682353E-16	2.133233E-18
5.763889E+03	1.684900E-16	2.128759E-18
5.773810E+03	1.690059E-16	2.127626E-18
5.783730E+03	1.698229E-16	2.130296E-18
5.793651E+03	1.708732E-16	2.135882E-18
5.803571E+03	1.721867E-16	2.144721E-18
5.813492E+03	1.736848E-16	2.155809E-18
5.823413E+03	1.753895E-16	2.169388E-18
5.833333E+03	1.772143E-16	2.184371E-18
5.843254E+03	1.791496E-16	2.200623E-18
5.853175E+03	1.811859E-16	2.218018E-18
5.863095E+03	1.832323E-16	2.235434E-18
5.873016E+03	1.852805E-16	2.252775E-18
5.882937E+03	1.873273E-16	2.269999E-18
5.892857E+03	1.892882E-16	2.286095E-18
5.902778E+03	1.911694E-16	2.301147E-18
5.912698E+03	1.929840E-16	2.315328E-18
5.922619E+03	1.946657E-16	2.327856E-18
5.932540E+03	1.962426E-16	2.339085E-18
5.942460E+03	1.977215E-16	2.349114E-18
5.952381E+03	1.991171E-16	2.358133E-18
5.962302E+03	2.004814E-16	2.366769E-18
5.972222E+03	2.017823E-16	2.374653E-18
5.982143E+03	2.030831E-16	2.382544E-18
5.992063E+03	2.044222E-16	2.390893E-18
6.001984E+03	2.058408E-16	2.400185E-18
6.011905E+03	2.073826E-16	2.410926E-18
6.021825E+03	2.090920E-16	2.423628E-18
6.031746E+03	2.110457E-16	2.439166E-18
6.041667E+03	2.132240E-16	2.457300E-18
6.051587E+03	2.157000E-16	2.478859E-18
6.061508E+03	2.185127E-16	2.504273E-18
6.071429E+03	2.216968E-16	2.533919E-18
6.081349E+03	2.252822E-16	2.568119E-18
6.091270E+03	2.292930E-16	2.607128E-18
6.101190E+03	2.337457E-16	2.651114E-18
6.111111E+03	2.386486E-16	2.700156E-18
6.121032E+03	2.440001E-16	2.754220E-18
6.130952E+03	2.497871E-16	2.813149E-18
6.140873E+03	2.559838E-16	2.876649E-18
6.150794E+03	2.625106E-16	2.943826E-18
6.160714E+03	2.693904E-16	3.014947E-18
6.170635E+03	2.765131E-16	3.088794E-18
6.180556E+03	2.837908E-16	3.164411E-18
6.190476E+03	2.911199E-16	3.240675E-18
6.200397E+03	2.983822E-16	3.316312E-18
6.210317E+03	3.054476E-16	3.389924E-18
6.220238E+03	3.121295E-16	3.459499E-18
6.230159E+03	3.183779E-16	3.524543E-18
6.240079E+03	3.240038E-16	3.583027E-18
6.250000E+03	3.288711E-16	3.633512E-18
6.259921E+03	3.328558E-16	3.674692E-18
6.269841E+03	3.358018E-16	3.704902E-18
6.279762E+03	3.377274E-16	3.724399E-18
6.289683E+03	3.385273E-16	3.732063E-18
6.299603E+03	3.381760E-16	3.727645E-18
6.309524E+03	3.366278E-16	3.710664E-18
6.319444E+03	3.340198E-16	3.682636E-18
6.329365E+03	3.303638E-16	3.643685E-18
6.339286E+03	3.256972E-16	3.594204E-18
6.349206E+03	3.202253E-16	3.536427E-18
6.359127E+03	3.140179E-16	3.471087E-18
6.369048E+03	3.071568E-16	3.399033E-18
6.378968E+03	2.998672E-16	3.322672E-18
6.388889E+03	2.921867E-16	3.242340E-18
6.398810E+03	2.843270E-16	3.160304E-18
6.408730E+03	2.763555E-16	3.077240E-18
6.418651E+03	2.683320E-16	2.993744E-18
6.428571E+03	2.604243E-16	2.911627E-18
6.438492E+03	2.526236E-16	2.830740E-18
6.448413E+03	2.450627E-16	2.752527E-18
6.458333E+03	2.377074E-16	2.676568E-18
6.468254E+03	2.306578E-16	2.603961E-18
6.478175E+03	2.238579E-16	2.534054E-18
6.488095E+03	2.173816E-16	2.467665E-18
6.498016E+03	2.111593E-16	2.403994E-18
6.507937E+03	2.052460E-16	2.343655E-18
6.517857E+03	1.995635E-16	2.285752E-18
6.527778E+03	1.941542E-16	2.230765E-18
6.537698E+03	1.889379E-16	2.177770E-18
6.547619E+03	1.839234E-16	2.126864E-18
6.557540E+03	1.791175E-16	2.078124E-18
6.567460E+03	1.744466E-16	2.030694E-18
6.577381E+03	1.699480E-16	1.985006E-18
6.587302E+03	1.655563E-16	1.940295E-18
6.597222E+03	1.612878E-16	1.896748E-18
6.607143E+03	1.571592E-16	1.854561E-18
6.617063E+03	1.531186E-16	1.813121E-18
6.626984E+03	1.491888E-16	1.772701E-18
6.636905E+03	1.453929E-16	1.733575E-18
6.646825E+03	1.416894E-16	1.695253E-18
6.656746E+03	1.381050E-16	1.658060E-18
6.666667E+03	1.346452E-16	1.622065E-18
6.676587E+03	1.313356E-16	1.587589E-18
6.686508E+03	1.281422E-16	1.554232E-18
6.696429E+03	1.250914E-16	1.522323E-18
6.706349E+03	1.222077E-16	1.492173E-18
6.716270E+03	1.194590E-16	1.463407E-18
6.726190E+03	1.168694E-16	1.436333E-18
6.736111E+03	1.144430E-16	1.411017E-18
6.746032E+03	1.121837E-16	1.387527E-18
6.755952E+03	1.101111E-16	1.366122E-18
6.765873E+03	1.081943E-16	1.346437E-18
6.775794E+03	1.064523E-16	1.328726E-18
6.785714E+03	1.048867E-16	1.313026E-18
6.795635E+03	1.034983E-16	1.299367E-18
6.805556E+03	1.022880E-16	1.287778E-18
6.815476E+03	1.012561E-16	1.278278E-18
6.825397E+03	1.004175E-16	1.271077E-18
6.835317E+03	9.974141E-17	1.265798E-18
6.845238E+03	9.924225E-17	1.262642E-18
6.855159E+03	9.891916E-17	1.261610E-18
6.865079E+03	9.877033E-17	1.262696E-18
6.875000E+03	9.879405E-17	1.265889E-18
6.884921E+03	9.898803E-17	1.271173E-18
6.894841E+03	9.934945E-17	1.278522E-18
6.904762E+03	9.987511E-17	1.287906E-18
6.914683E+03	1.005615E-16	1.299286E-18
6.924603E+03	1.014042E-16	1.312615E-18
6.934524E+03	1.023989E-16	1.327842E-18
6.944444E+03	1.035404E-16	1.344904E-18
6.954365E+03	1.048234E-16	1.363734E-18
6.964286E+03	1.062419E-16	1.384259E-18
6.974206E+03	1.077900E-16	1.406402E-18
6.984127E+03	1.094613E-16	1.430077E-18
6.994048E+03	1.112495E-16	1.455203E-18
7.003968E+03	1.131484E-16	1.481692E-18
7.013889E+03	1.151514E-16	1.509456E-18
7.023810E+03	1.172525E-16	1.538411E-18
7.033730E+03	1.194457E-16	1.568473E-18
7.043651E+03	1.217253E-16	1.599559E-18
7.053571E+03	1.240671E-16	1.631341E-18
7.063492E+03	1.265027E-16	1.664230E-18
7.073413E+03	1.290085E-16	1.697903E-18
7.083333E+03	1.315785E-16	1.732272E-18
7.093254E+03	1.342067E-16	1.767247E-18
7.103175E+03	1.368858E-16	1.802722E-18
7.113095E+03	1.396074E-16	1.838575E-18
7.123016E+03	1.423397E-16	1.874373E-18
7.132937E+03	1.451131E-16	1.910509E-18
7.142857E+03	1.478914E-16	1.946490E-18
7.152778E+03	1.506563E-16	1.982066E-18
7.162698E+03	1.533627E-16	2.016633E-18
7.172619E+03	1.560319E-16	2.050459E-18
7.182540E+03	1.586117E-16	2.082851E-18
7.192460E+03	1.610697E-16	2.113374E-18
7.202381E+03	1.633451E-16	2.141229E-18
7.212302E+03	1.654497E-16	2.166564E-18
7.222222E+03	1.673193E-16	2.188543E-18
7.232143E+03	1.689141E-16	2.206649E-18
7.242063E+03	1.701696E-16	2.220048E-18
7.251984E+03	1.711020E-16	2.228965E-18
7.261905E+03	1.716539E-16	2.232672E-18
7.271825E+03	1.717737E-16	2.230521E-18
7.281746E+03	1.714959E-16	2.222990E-18
7.291667E+03	1.707845E-16	2.209643E-18
7.301587E+03	1.696135E-16	2.190179E-18
7.311508E+03	1.680439E-16	2.165431E-18
7.321429E+03	1.660431E-16	2.135016E-18
7.331349E+03	1.636894E-16	2.099990E-18
7.341270E+03	1.609928E-16	2.060520E-18
7.351190E+03	1.579711E-16	2.016877E-18
7.361111E+03	1.547199E-16	1.970328E-18
7.371032E+03	1.512421E-16	1.920942E-18
7.380952E+03	1.476368E-16	1.870016E-18
7.390873E+03	1.439109E-16	1.817665E-18
7.400794E+03	1.401603E-16	1.765127E-18
7.410714E+03	1.363907E-16	1.712490E-18
7.420635E+03	1.326902E-16	1.660879E-18
7.430556E+03	1.290598E-16	1.610308E-18
7.440476E+03	1.255772E-16	1.561753E-18
7.450397E+03	1.222366E-16	1.515138E-18
7.460317E+03	1.191049E-16	1.471286E-18
7.470238E+03	1.161693E-16	1.430023E-18
7.480159E+03	1.134864E-16	1.392032E-18
7.490079E+03	1.110373E-16	1.357060E-18
7.500000E+03	1.088699E-16	1.325668E-18
7.509921E+03	1.069602E-16	1.297537E-18
7.519841E+03	1.053490E-16	1.273134E-18
7.529762E+03	1.040085E-16	1.252091E-18
7.539683E+03	1.029578E-16	1.234608E-18
7.549603E+03	1.022137E-16	1.220851E-18
7.559524E+03	1.017435E-16	1.210397E-18
7.569444E+03	1.015606E-16	1.203371E-18
7.579365E+03	1.016761E-16	1.199872E-18
7.589286E+03	1.020530E-16	1.199426E-18
7.599206E+03	1.026987E-16	1.202094E-18
7.609127E+03	1.036198E-16	1.207921E-18
7.619048E+03	1.047729E-16	1.216370E-18
7.628968E+03	1.061600E-16	1.227444E-18
7.638889E+03	1.077819E-16	1.241128E-18
7.648810E+03	1.095876E-16	1.256815E-18
7.658730E+03	1.115735E-16	1.274451E-18
7.668651E+03	1.137175E-16	1.293776E-18
7.678571E+03	1.160137E-16	1.314715E-18
7.688492E+03	1.184016E-16	1.336582E-18
7.698413E+03	1.208728E-16	1.359288E-18
