#wls	flux	fluxerr
1.587302E+03	4.461532E-18	2.744069E-19
1.626984E+03	4.537578E-18	2.778903E-19
1.666667E+03	4.601426E-18	2.805631E-19
1.706349E+03	4.653158E-18	2.824387E-19
1.746032E+03	4.690134E-18	2.833664E-19
1.785714E+03	4.710650E-18	2.832551E-19
1.825397E+03	4.708249E-18	2.817320E-19
1.865079E+03	4.679025E-18	2.785843E-19
1.904762E+03	4.616458E-18	2.734502E-19
1.944444E+03	4.515878E-18	2.660860E-19
1.984127E+03	4.380530E-18	2.567190E-19
2.023810E+03	4.222009E-18	2.460605E-19
2.063492E+03	4.067956E-18	2.357378E-19
2.103175E+03	3.959738E-18	2.281324E-19
2.142857E+03	3.936963E-18	2.254682E-19
2.182540E+03	4.024335E-18	2.290638E-19
2.222222E+03	4.219615E-18	2.386751E-19
2.261905E+03	4.500430E-18	2.529255E-19
2.301587E+03	4.834517E-18	2.699152E-19
2.341270E+03	5.196682E-18	2.881813E-19
2.380952E+03	5.568019E-18	3.066439E-19
2.420635E+03	5.938942E-18	3.247614E-19
2.460317E+03	6.304946E-18	3.422824E-19
2.500000E+03	6.668609E-18	3.593451E-19
2.539683E+03	7.031359E-18	3.760218E-19
2.579365E+03	7.398019E-18	3.925633E-19
2.619048E+03	7.770011E-18	4.090332E-19
2.658730E+03	8.152791E-18	4.257034E-19
2.698413E+03	8.550721E-18	4.427798E-19
2.738095E+03	8.969927E-18	4.605513E-19
2.777778E+03	9.412120E-18	4.790706E-19
2.817460E+03	9.885707E-18	4.987252E-19
2.857143E+03	1.039294E-17	5.195790E-19
2.896825E+03	1.094367E-17	5.420676E-19
2.936508E+03	1.154322E-17	5.663861E-19
2.976190E+03	1.219961E-17	5.928492E-19
2.986111E+03	1.237309E-17	5.998143E-19
2.996032E+03	1.255083E-17	6.069407E-19
3.005952E+03	1.273299E-17	6.142343E-19
3.015873E+03	1.292203E-17	6.218125E-19
3.025794E+03	1.311379E-17	6.294726E-19
3.035714E+03	1.331108E-17	6.373480E-19
3.045635E+03	1.351384E-17	6.454339E-19
3.055556E+03	1.372605E-17	6.539181E-19
3.065476E+03	1.394295E-17	6.625704E-19
3.075397E+03	1.416693E-17	6.715027E-19
3.085317E+03	1.439804E-17	6.807142E-19
3.095238E+03	1.463891E-17	6.903264E-19
3.105159E+03	1.488452E-17	7.001002E-19
3.115079E+03	1.513752E-17	7.101571E-19
3.125000E+03	1.539801E-17	7.204997E-19
3.134921E+03	1.566887E-17	7.312594E-19
3.144841E+03	1.594482E-17	7.421865E-19
3.154762E+03	1.622871E-17	7.534115E-19
3.164683E+03	1.652363E-17	7.650741E-19
3.174603E+03	1.682405E-17	7.769149E-19
3.184524E+03	1.713301E-17	7.890722E-19
3.194444E+03	1.745074E-17	8.015532E-19
3.204365E+03	1.778060E-17	8.145081E-19
3.214286E+03	1.811668E-17	8.276627E-19
3.224206E+03	1.846230E-17	8.411660E-19
3.234127E+03	1.882103E-17	8.551764E-19
3.244048E+03	1.918667E-17	8.694077E-19
3.253968E+03	1.956273E-17	8.840167E-19
3.263889E+03	1.995302E-17	8.991708E-19
3.273810E+03	2.035098E-17	9.145698E-19
3.283730E+03	2.076037E-17	9.303792E-19
3.293651E+03	2.118153E-17	9.466103E-19
3.303571E+03	2.161860E-17	9.634426E-19
3.313492E+03	2.206448E-17	9.805556E-19
3.323413E+03	2.252326E-17	9.981261E-19
3.333333E+03	2.299931E-17	1.016344E-18
3.343254E+03	2.348512E-17	1.034870E-18
3.353175E+03	2.398499E-17	1.053891E-18
3.363095E+03	2.450360E-17	1.073606E-18
3.373016E+03	2.503292E-17	1.093657E-18
3.382937E+03	2.557753E-17	1.114241E-18
3.392857E+03	2.614238E-17	1.135566E-18
3.402778E+03	2.671890E-17	1.157253E-18
3.412698E+03	2.731193E-17	1.179509E-18
3.422619E+03	2.792673E-17	1.202552E-18
3.432540E+03	2.855410E-17	1.225981E-18
3.442460E+03	2.919917E-17	1.250010E-18
3.452381E+03	2.986750E-17	1.274870E-18
3.462302E+03	3.054921E-17	1.300132E-18
3.472222E+03	3.125513E-17	1.326252E-18
3.482143E+03	3.197489E-17	1.352780E-18
3.492063E+03	3.271408E-17	1.379950E-18
3.501984E+03	3.347882E-17	1.408010E-18
3.511905E+03	3.425788E-17	1.436481E-18
3.521825E+03	3.505719E-17	1.465606E-18
3.531746E+03	3.588318E-17	1.495646E-18
3.541667E+03	3.672375E-17	1.526089E-18
3.551587E+03	3.758515E-17	1.557188E-18
3.561508E+03	3.847419E-17	1.589218E-18
3.571429E+03	3.937785E-17	1.621633E-18
3.581349E+03	4.030280E-17	1.654701E-18
3.591270E+03	4.125635E-17	1.688716E-18
3.601190E+03	4.222454E-17	1.723097E-18
3.611111E+03	4.322198E-17	1.758435E-18
3.621032E+03	4.423403E-17	1.794125E-18
3.630952E+03	4.526810E-17	1.830462E-18
3.640873E+03	4.633229E-17	1.867767E-18
3.650794E+03	4.741084E-17	1.905396E-18
3.660714E+03	4.851163E-17	1.943659E-18
3.670635E+03	4.964321E-17	1.982892E-18
3.680556E+03	5.078865E-17	2.022410E-18
3.690476E+03	5.195623E-17	2.062535E-18
3.700397E+03	5.315503E-17	2.103621E-18
3.710317E+03	5.436680E-17	2.144936E-18
3.720238E+03	5.560984E-17	2.187195E-18
3.730159E+03	5.686493E-17	2.229633E-18
3.740079E+03	5.814120E-17	2.272603E-18
3.750000E+03	5.944840E-17	2.316479E-18
3.759921E+03	6.076588E-17	2.360445E-18
3.769841E+03	6.210306E-17	2.404865E-18
3.779762E+03	6.347013E-17	2.450124E-18
3.789683E+03	6.484479E-17	2.495354E-18
3.799603E+03	6.623678E-17	2.540925E-18
3.809524E+03	6.765679E-17	2.587240E-18
3.819444E+03	6.908048E-17	2.633362E-18
3.829365E+03	7.051805E-17	2.679676E-18
3.839286E+03	7.198044E-17	2.726593E-18
3.849206E+03	7.344159E-17	2.773120E-18
3.859127E+03	7.492475E-17	2.820131E-18
3.869048E+03	7.640268E-17	2.866597E-18
3.878968E+03	7.788602E-17	2.912919E-18
3.888889E+03	7.938631E-17	2.959523E-18
3.898810E+03	8.087453E-17	3.005327E-18
3.908730E+03	8.236185E-17	3.050747E-18
3.918651E+03	8.386039E-17	3.096232E-18
3.928571E+03	8.533946E-17	3.140647E-18
3.938492E+03	8.681098E-17	3.184438E-18
3.948413E+03	8.828789E-17	3.228080E-18
3.958333E+03	8.973821E-17	3.270405E-18
3.968254E+03	9.117472E-17	3.311886E-18
3.978175E+03	9.261159E-17	3.353043E-18
3.988095E+03	9.401555E-17	3.392673E-18
3.998016E+03	9.540081E-17	3.431300E-18
4.007937E+03	9.678270E-17	3.469479E-18
4.017857E+03	9.812720E-17	3.505997E-18
4.027778E+03	9.944985E-17	3.541420E-18
4.037698E+03	1.007673E-16	3.576347E-18
4.047619E+03	1.020449E-16	3.609551E-18
4.057540E+03	1.032996E-16	3.641645E-18
4.067460E+03	1.045314E-16	3.672639E-18
4.077381E+03	1.057586E-16	3.703183E-18
4.087302E+03	1.069457E-16	3.732035E-18
4.097222E+03	1.081112E-16	3.759855E-18
4.107143E+03	1.092744E-16	3.787320E-18
4.117063E+03	1.103988E-16	3.813170E-18
4.126984E+03	1.115038E-16	3.838086E-18
4.136905E+03	1.126094E-16	3.862760E-18
4.146825E+03	1.136782E-16	3.885912E-18
4.156746E+03	1.147299E-16	3.908230E-18
4.166667E+03	1.157653E-16	3.929745E-18
4.176587E+03	1.168049E-16	3.951159E-18
4.186508E+03	1.178097E-16	3.971149E-18
4.196429E+03	1.187998E-16	3.990409E-18
4.206349E+03	1.197755E-16	4.008955E-18
4.216270E+03	1.207579E-16	4.027491E-18
4.226190E+03	1.217061E-16	4.044657E-18
4.236111E+03	1.226408E-16	4.061153E-18
4.246032E+03	1.235622E-16	4.076989E-18
4.255952E+03	1.244918E-16	4.092876E-18
4.265873E+03	1.253875E-16	4.107435E-18
4.275794E+03	1.262709E-16	4.121383E-18
4.285714E+03	1.271426E-16	4.134741E-18
4.295635E+03	1.280251E-16	4.148243E-18
4.305556E+03	1.288758E-16	4.160513E-18
4.315476E+03	1.297175E-16	4.172292E-18
4.325397E+03	1.305512E-16	4.183623E-18
4.335317E+03	1.313782E-16	4.194543E-18
4.345238E+03	1.322218E-16	4.205800E-18
4.355159E+03	1.330375E-16	4.215978E-18
4.365079E+03	1.338467E-16	4.225761E-18
4.375000E+03	1.346468E-16	4.235075E-18
4.384921E+03	1.354350E-16	4.243832E-18
4.394841E+03	1.362311E-16	4.252653E-18
4.404762E+03	1.369853E-16	4.259994E-18
4.414683E+03	1.377175E-16	4.266478E-18
4.424603E+03	1.384243E-16	4.272009E-18
4.434524E+03	1.391028E-16	4.276500E-18
4.444444E+03	1.397499E-16	4.279874E-18
4.454365E+03	1.403869E-16	4.282782E-18
4.464286E+03	1.409637E-16	4.283705E-18
4.474206E+03	1.415017E-16	4.283310E-18
4.484127E+03	1.419988E-16	4.281551E-18
4.494048E+03	1.424533E-16	4.278380E-18
4.503968E+03	1.428634E-16	4.273764E-18
4.513889E+03	1.432277E-16	4.267674E-18
4.523810E+03	1.435451E-16	4.260092E-18
4.533730E+03	1.438391E-16	4.251727E-18
4.543651E+03	1.440605E-16	4.241133E-18
4.553571E+03	1.442331E-16	4.229040E-18
4.563492E+03	1.443570E-16	4.215465E-18
4.573413E+03	1.444328E-16	4.200438E-18
4.583333E+03	1.444611E-16	4.183993E-18
4.593254E+03	1.444431E-16	4.166183E-18
4.603175E+03	1.443804E-16	4.147067E-18
4.613095E+03	1.442749E-16	4.126715E-18
4.623016E+03	1.441289E-16	4.105208E-18
4.632937E+03	1.439450E-16	4.082633E-18
4.642857E+03	1.437264E-16	4.059092E-18
4.652778E+03	1.434762E-16	4.034686E-18
4.662698E+03	1.431980E-16	4.009527E-18
4.672619E+03	1.428957E-16	3.983728E-18
4.682540E+03	1.425731E-16	3.957410E-18
4.692460E+03	1.422344E-16	3.930692E-18
4.702381E+03	1.418835E-16	3.903689E-18
4.712302E+03	1.415247E-16	3.876521E-18
4.722222E+03	1.411618E-16	3.849298E-18
4.732143E+03	1.407990E-16	3.822130E-18
4.742063E+03	1.404399E-16	3.795117E-18
4.751984E+03	1.400880E-16	3.768354E-18
4.761905E+03	1.397467E-16	3.741926E-18
4.771825E+03	1.394188E-16	3.715909E-18
4.781746E+03	1.391072E-16	3.690370E-18
4.791667E+03	1.388142E-16	3.665365E-18
4.801587E+03	1.385418E-16	3.640943E-18
4.811508E+03	1.382916E-16	3.617135E-18
4.821429E+03	1.380649E-16	3.593972E-18
4.831349E+03	1.378627E-16	3.571469E-18
4.841270E+03	1.376858E-16	3.549637E-18
4.851190E+03	1.375343E-16	3.528472E-18
4.861111E+03	1.374085E-16	3.507970E-18
4.871032E+03	1.373080E-16	3.488117E-18
4.880952E+03	1.372095E-16	3.468311E-18
4.890873E+03	1.371585E-16	3.449701E-18
4.900794E+03	1.371313E-16	3.431675E-18
4.910714E+03	1.371271E-16	3.414204E-18
4.920635E+03	1.371450E-16	3.397259E-18
4.930556E+03	1.371841E-16	3.380810E-18
4.940476E+03	1.372433E-16	3.364827E-18
4.950397E+03	1.372988E-16	3.348722E-18
4.960317E+03	1.373959E-16	3.333595E-18
4.970238E+03	1.375106E-16	3.318856E-18
4.980159E+03	1.376422E-16	3.304482E-18
4.990079E+03	1.377900E-16	3.290451E-18
5.000000E+03	1.379301E-16	3.276192E-18
5.009921E+03	1.381084E-16	3.262795E-18
5.019841E+03	1.383011E-16	3.249690E-18
5.029762E+03	1.385077E-16	3.236859E-18
5.039683E+03	1.387277E-16	3.224291E-18
5.049603E+03	1.389371E-16	3.211429E-18
5.059524E+03	1.391822E-16	3.199339E-18
5.069444E+03	1.394388E-16	3.187465E-18
5.079365E+03	1.397064E-16	3.175789E-18
5.089286E+03	1.399605E-16	3.163758E-18
5.099206E+03	1.402471E-16	3.152417E-18
5.109127E+03	1.405418E-16	3.141208E-18
5.119048E+03	1.408433E-16	3.130106E-18
5.128968E+03	1.411267E-16	3.118558E-18
5.138889E+03	1.414376E-16	3.107583E-18
5.148810E+03	1.417510E-16	3.096626E-18
5.158730E+03	1.420413E-16	3.085135E-18
5.168651E+03	1.423545E-16	3.074113E-18
5.178571E+03	1.426649E-16	3.063010E-18
5.188492E+03	1.429467E-16	3.051279E-18
5.198413E+03	1.432460E-16	3.039915E-18
5.208333E+03	1.435373E-16	3.028377E-18
5.218254E+03	1.437946E-16	3.016129E-18
5.228175E+03	1.440646E-16	3.004163E-18
5.238095E+03	1.443218E-16	2.991951E-18
5.248016E+03	1.445405E-16	2.978977E-18
5.257937E+03	1.447683E-16	2.966231E-18
5.267857E+03	1.449555E-16	2.952709E-18
5.277778E+03	1.451502E-16	2.939402E-18
5.287698E+03	1.453275E-16	2.925814E-18
5.297619E+03	1.454627E-16	2.911461E-18
5.307540E+03	1.456045E-16	2.897337E-18
5.317460E+03	1.457041E-16	2.882479E-18
5.327381E+03	1.458107E-16	2.867874E-18
5.337302E+03	1.458757E-16	2.852579E-18
5.347222E+03	1.459485E-16	2.837576E-18
5.357143E+03	1.460055E-16	2.822409E-18
5.367063E+03	1.460227E-16	2.806631E-18
5.376984E+03	1.460498E-16	2.791212E-18
5.386905E+03	1.460385E-16	2.775237E-18
5.396825E+03	1.460383E-16	2.759662E-18
5.406746E+03	1.460009E-16	2.743579E-18
5.416667E+03	1.459753E-16	2.727924E-18
5.426587E+03	1.459126E-16	2.711793E-18
5.436508E+03	1.458614E-16	2.696100E-18
5.446429E+03	1.457722E-16	2.679938E-18
5.456349E+03	1.456931E-16	2.664205E-18
5.466270E+03	1.455746E-16	2.648001E-18
5.476190E+03	1.454403E-16	2.631758E-18
5.486111E+03	1.453136E-16	2.615897E-18
5.496032E+03	1.451448E-16	2.599519E-18
5.505952E+03	1.449818E-16	2.583479E-18
5.515873E+03	1.447752E-16	2.566895E-18
5.525794E+03	1.445731E-16	2.550621E-18
5.535714E+03	1.443274E-16	2.533799E-18
5.545635E+03	1.440625E-16	2.516864E-18
5.555556E+03	1.438039E-16	2.500254E-18
5.565476E+03	1.435050E-16	2.483154E-18
5.575397E+03	1.432161E-16	2.466435E-18
5.585317E+03	1.428922E-16	2.449314E-18
5.595238E+03	1.425606E-16	2.432259E-18
5.605159E+03	1.422491E-16	2.415737E-18
5.615079E+03	1.419147E-16	2.399008E-18
5.625000E+03	1.415857E-16	2.382549E-18
5.634921E+03	1.412911E-16	2.366837E-18
5.644841E+03	1.409890E-16	2.351158E-18
5.654762E+03	1.407084E-16	2.335993E-18
5.664683E+03	1.404786E-16	2.321811E-18
5.674603E+03	1.402580E-16	2.307913E-18
5.684524E+03	1.400755E-16	2.294766E-18
5.694444E+03	1.399596E-16	2.282821E-18
5.704365E+03	1.398686E-16	2.271382E-18
5.714286E+03	1.398303E-16	2.260887E-18
5.724206E+03	1.398486E-16	2.251388E-18
5.734127E+03	1.399507E-16	2.243302E-18
5.744048E+03	1.400927E-16	2.235909E-18
5.753968E+03	1.403007E-16	2.229612E-18
5.763889E+03	1.405999E-16	2.224794E-18
5.773810E+03	1.409448E-16	2.220719E-18
5.783730E+03	1.413599E-16	2.217757E-18
5.793651E+03	1.418454E-16	2.215898E-18
5.803571E+03	1.424012E-16	2.215123E-18
5.813492E+03	1.430505E-16	2.215781E-18
5.823413E+03	1.437450E-16	2.217104E-18
5.833333E+03	1.445073E-16	2.219432E-18
5.843254E+03	1.453360E-16	2.222730E-18
5.853175E+03	1.462296E-16	2.226965E-18
5.863095E+03	1.472113E-16	2.232474E-18
5.873016E+03	1.482304E-16	2.238481E-18
5.882937E+03	1.493102E-16	2.245328E-18
5.892857E+03	1.504494E-16	2.252988E-18
5.902778E+03	1.516471E-16	2.261440E-18
5.912698E+03	1.529027E-16	2.270668E-18
5.922619E+03	1.542416E-16	2.281040E-18
5.932540E+03	1.556125E-16	2.291792E-18
5.942460E+03	1.570415E-16	2.303305E-18
5.952381E+03	1.585291E-16	2.315583E-18
5.962302E+03	1.600763E-16	2.328636E-18
5.972222E+03	1.616844E-16	2.342481E-18
5.982143E+03	1.633547E-16	2.357132E-18
5.992063E+03	1.650885E-16	2.372609E-18
6.001984E+03	1.669150E-16	2.389328E-18
6.011905E+03	1.687799E-16	2.406511E-18
6.021825E+03	1.707116E-16	2.424566E-18
6.031746E+03	1.727104E-16	2.443498E-18
6.041667E+03	1.747760E-16	2.463307E-18
6.051587E+03	1.769072E-16	2.483981E-18
6.061508E+03	1.791020E-16	2.505496E-18
6.071429E+03	1.813571E-16	2.527816E-18
6.081349E+03	1.836679E-16	2.550885E-18
6.091270E+03	1.860287E-16	2.574636E-18
6.101190E+03	1.884319E-16	2.598979E-18
6.111111E+03	1.908686E-16	2.623805E-18
6.121032E+03	1.933279E-16	2.648988E-18
6.130952E+03	1.957974E-16	2.674377E-18
6.140873E+03	1.982630E-16	2.699805E-18
6.150794E+03	2.007087E-16	2.725085E-18
6.160714E+03	2.031172E-16	2.750013E-18
6.170635E+03	2.054697E-16	2.774367E-18
6.180556E+03	2.077463E-16	2.797917E-18
6.190476E+03	2.099261E-16	2.820419E-18
6.200397E+03	2.119876E-16	2.841626E-18
6.210317E+03	2.139091E-16	2.861291E-18
6.220238E+03	2.156689E-16	2.879166E-18
6.230159E+03	2.172459E-16	2.895015E-18
6.240079E+03	2.186199E-16	2.908613E-18
6.250000E+03	2.197724E-16	2.919755E-18
6.259921E+03	2.206862E-16	2.928256E-18
6.269841E+03	2.213468E-16	2.933959E-18
6.279762E+03	2.217417E-16	2.936737E-18
6.289683E+03	2.218618E-16	2.936498E-18
6.299603E+03	2.217003E-16	2.933180E-18
6.309524E+03	2.212541E-16	2.926764E-18
6.319444E+03	2.204861E-16	2.916776E-18
6.329365E+03	2.194732E-16	2.904239E-18
6.339286E+03	2.181845E-16	2.888751E-18
6.349206E+03	2.166288E-16	2.870426E-18
6.359127E+03	2.148176E-16	2.849407E-18
6.369048E+03	2.127648E-16	2.825847E-18
6.378968E+03	2.104863E-16	2.799904E-18
6.388889E+03	2.079994E-16	2.771747E-18
6.398810E+03	2.052883E-16	2.741105E-18
6.408730E+03	2.024413E-16	2.709091E-18
6.418651E+03	1.994430E-16	2.675438E-18
6.428571E+03	1.963128E-16	2.640343E-18
6.438492E+03	1.930697E-16	2.604000E-18
6.448413E+03	1.897320E-16	2.566594E-18
6.458333E+03	1.863170E-16	2.528303E-18
6.468254E+03	1.828107E-16	2.488879E-18
6.478175E+03	1.792908E-16	2.449325E-18
6.488095E+03	1.757417E-16	2.409382E-18
6.498016E+03	1.721787E-16	2.369216E-18
6.507937E+03	1.686166E-16	2.328987E-18
6.517857E+03	1.650410E-16	2.288459E-18
6.527778E+03	1.615196E-16	2.248535E-18
6.537698E+03	1.580347E-16	2.208942E-18
6.547619E+03	1.545953E-16	2.169783E-18
6.557540E+03	1.512097E-16	2.131149E-18
6.567460E+03	1.478601E-16	2.092773E-18
6.577381E+03	1.446027E-16	2.055434E-18
6.587302E+03	1.414178E-16	2.018841E-18
6.597222E+03	1.383101E-16	1.983055E-18
6.607143E+03	1.352612E-16	1.947803E-18
6.617063E+03	1.323205E-16	1.913794E-18
6.626984E+03	1.294679E-16	1.880739E-18
6.636905E+03	1.267064E-16	1.848682E-18
6.646825E+03	1.240178E-16	1.817360E-18
6.656746E+03	1.214460E-16	1.787423E-18
6.666667E+03	1.189716E-16	1.758592E-18
6.676587E+03	1.165962E-16	1.730902E-18
6.686508E+03	1.143020E-16	1.704095E-18
6.696429E+03	1.121286E-16	1.678773E-18
6.706349E+03	1.100572E-16	1.654671E-18
6.716270E+03	1.080705E-16	1.631537E-18
6.726190E+03	1.062052E-16	1.609939E-18
6.736111E+03	1.044430E-16	1.589619E-18
6.746032E+03	1.027669E-16	1.570328E-18
6.755952E+03	1.012111E-16	1.552605E-18
6.765873E+03	9.975785E-17	1.536194E-18
6.775794E+03	9.839010E-17	1.520848E-18
6.785714E+03	9.714023E-17	1.507080E-18
6.795635E+03	9.599065E-17	1.494636E-18
6.805556E+03	9.492447E-17	1.483265E-18
6.815476E+03	9.397239E-17	1.473461E-18
6.825397E+03	9.311713E-17	1.464969E-18
6.835317E+03	9.234170E-17	1.457535E-18
6.845238E+03	9.167563E-17	1.451635E-18
6.855159E+03	9.110164E-17	1.447011E-18
6.865079E+03	9.060262E-17	1.443402E-18
6.875000E+03	9.020716E-17	1.441272E-18
6.884921E+03	8.989790E-17	1.440357E-18
6.894841E+03	8.965767E-17	1.440389E-18
6.904762E+03	8.951419E-17	1.441821E-18
6.914683E+03	8.943502E-17	1.444139E-18
6.924603E+03	8.944755E-17	1.447791E-18
6.934524E+03	8.953410E-17	1.452498E-18
6.944444E+03	8.967683E-17	1.457975E-18
6.954365E+03	8.990278E-17	1.464664E-18
6.964286E+03	9.017872E-17	1.472028E-18
6.974206E+03	9.053156E-17	1.480507E-18
6.984127E+03	9.092754E-17	1.489551E-18
6.994048E+03	9.139347E-17	1.499599E-18
7.003968E+03	9.191041E-17	1.510342E-18
7.013889E+03	9.245889E-17	1.521456E-18
7.023810E+03	9.306567E-17	1.533381E-18
7.033730E+03	9.369523E-17	1.545528E-18
7.043651E+03	9.437441E-17	1.558338E-18
7.053571E+03	9.506671E-17	1.571203E-18
7.063492E+03	9.579904E-17	1.584565E-18
7.073413E+03	9.653407E-17	1.597800E-18
7.083333E+03	9.729874E-17	1.611351E-18
7.093254E+03	9.805471E-17	1.624576E-18
7.103175E+03	9.882901E-17	1.637918E-18
7.113095E+03	9.958250E-17	1.650724E-18
7.123016E+03	1.003422E-16	1.663435E-18
7.132937E+03	1.010683E-16	1.675387E-18
7.142857E+03	1.017881E-16	1.687028E-18
7.152778E+03	1.024612E-16	1.697683E-18
7.162698E+03	1.031152E-16	1.707807E-18
7.172619E+03	1.037094E-16	1.716720E-18
7.182540E+03	1.042722E-16	1.724894E-18
7.192460E+03	1.047627E-16	1.731647E-18
7.202381E+03	1.052103E-16	1.737469E-18
7.212302E+03	1.055747E-16	1.741691E-18
7.222222E+03	1.058865E-16	1.744823E-18
7.232143E+03	1.061061E-16	1.746214E-18
7.242063E+03	1.062658E-16	1.746401E-18
7.251984E+03	1.063275E-16	1.744763E-18
7.261905E+03	1.063252E-16	1.741866E-18
7.271825E+03	1.062224E-16	1.737121E-18
7.281746E+03	1.060553E-16	1.731128E-18
7.291667E+03	1.057894E-16	1.723334E-18
7.301587E+03	1.054450E-16	1.714084E-18
7.311508E+03	1.050431E-16	1.703731E-18
7.321429E+03	1.045527E-16	1.691783E-18
7.331349E+03	1.040142E-16	1.678909E-18
7.341270E+03	1.033987E-16	1.664657E-18
7.351190E+03	1.027307E-16	1.649434E-18
7.361111E+03	1.020349E-16	1.633650E-18
7.371032E+03	1.012848E-16	1.616892E-18
7.380952E+03	1.005231E-16	1.599859E-18
7.390873E+03	9.972487E-17	1.582160E-18
7.400794E+03	9.891580E-17	1.564217E-18
7.410714E+03	9.812143E-17	1.546442E-18
7.420635E+03	9.731769E-17	1.528463E-18
7.430556E+03	9.654598E-17	1.510938E-18
7.440476E+03	9.578229E-17	1.493497E-18
7.450397E+03	9.505108E-17	1.476525E-18
7.460317E+03	9.437585E-17	1.460389E-18
7.470238E+03	9.373196E-17	1.444708E-18
7.480159E+03	9.314208E-17	1.429833E-18
7.490079E+03	9.262766E-17	1.416089E-18
7.500000E+03	9.216309E-17	1.403081E-18
7.509921E+03	9.176873E-17	1.391117E-18
7.519841E+03	9.146416E-17	1.380486E-18
7.529762E+03	9.122209E-17	1.370770E-18
7.539683E+03	9.106076E-17	1.362237E-18
7.549603E+03	9.099774E-17	1.355141E-18
7.559524E+03	9.100380E-17	1.349038E-18
7.569444E+03	9.109536E-17	1.344165E-18
7.579365E+03	9.128779E-17	1.340741E-18
7.589286E+03	9.155003E-17	1.338299E-18
7.599206E+03	9.189642E-17	1.337044E-18
7.609127E+03	9.234081E-17	1.337172E-18
7.619048E+03	9.284988E-17	1.338192E-18
7.628968E+03	9.343607E-17	1.340282E-18
7.638889E+03	9.409599E-17	1.343392E-18
7.648810E+03	9.484125E-17	1.347685E-18
7.658730E+03	9.563544E-17	1.352644E-18
7.668651E+03	9.648906E-17	1.358424E-18
7.678571E+03	9.741257E-17	1.365177E-18
7.688492E+03	9.836690E-17	1.372362E-18
7.698413E+03	9.936142E-17	1.380124E-18
