#wls	flux	fluxerr
1.587302E+03	4.588979E-18	2.746639E-19
1.626984E+03	4.667183E-18	2.781610E-19
1.666667E+03	4.733673E-18	2.808967E-19
1.706349E+03	4.785990E-18	2.827334E-19
1.746032E+03	4.824824E-18	2.837217E-19
1.785714E+03	4.845845E-18	2.836181E-19
1.825397E+03	4.843267E-18	2.820998E-19
1.865079E+03	4.813072E-18	2.789535E-19
1.904762E+03	4.748555E-18	2.738169E-19
1.944444E+03	4.645741E-18	2.664930E-19
1.984127E+03	4.507086E-18	2.571582E-19
2.023810E+03	4.343742E-18	2.464805E-19
2.063492E+03	4.184967E-18	2.361369E-19
2.103175E+03	4.073321E-18	2.285133E-19
2.142857E+03	4.049532E-18	2.258372E-19
2.182540E+03	4.139713E-18	2.294690E-19
2.222222E+03	4.340078E-18	2.390830E-19
2.261905E+03	4.628289E-18	2.533389E-19
2.301587E+03	4.971998E-18	2.703798E-19
2.341270E+03	5.343541E-18	2.886455E-19
2.380952E+03	5.724266E-18	3.070979E-19
2.420635E+03	6.104284E-18	3.251931E-19
2.460317E+03	6.480065E-18	3.427381E-19
2.500000E+03	6.853217E-18	3.598153E-19
2.539683E+03	7.223895E-18	3.764291E-19
2.579365E+03	7.598153E-18	3.928892E-19
2.619048E+03	7.977428E-18	4.092586E-19
2.658730E+03	8.368751E-18	4.258828E-19
2.698413E+03	8.775232E-18	4.428976E-19
2.738095E+03	9.201500E-18	4.605095E-19
2.777778E+03	9.652466E-18	4.789308E-19
2.817460E+03	1.013341E-17	4.983833E-19
2.857143E+03	1.065013E-17	5.191039E-19
2.896825E+03	1.120910E-17	5.413512E-19
2.936508E+03	1.181759E-17	5.654110E-19
2.976190E+03	1.248607E-17	5.917060E-19
2.986111E+03	1.266224E-17	5.986033E-19
2.996032E+03	1.284276E-17	6.056615E-19
3.005952E+03	1.303007E-17	6.129942E-19
3.015873E+03	1.321986E-17	6.203966E-19
3.025794E+03	1.341472E-17	6.279888E-19
3.035714E+03	1.361762E-17	6.359080E-19
3.045635E+03	1.382379E-17	6.439284E-19
3.055556E+03	1.403963E-17	6.523471E-19
3.065476E+03	1.426030E-17	6.609355E-19
3.075397E+03	1.448824E-17	6.698049E-19
3.085317E+03	1.472608E-17	6.790738E-19
3.095238E+03	1.496878E-17	6.885073E-19
3.105159E+03	1.521897E-17	6.982238E-19
3.115079E+03	1.547947E-17	7.083493E-19
3.125000E+03	1.574504E-17	7.186414E-19
3.134921E+03	1.602128E-17	7.293531E-19
3.144841E+03	1.630282E-17	7.402365E-19
3.154762E+03	1.659258E-17	7.514223E-19
3.164683E+03	1.689372E-17	7.630493E-19
3.174603E+03	1.720060E-17	7.748602E-19
3.184524E+03	1.751940E-17	7.871301E-19
3.194444E+03	1.784433E-17	7.995951E-19
3.204365E+03	1.818180E-17	8.125397E-19
3.214286E+03	1.852583E-17	8.256922E-19
3.224206E+03	1.887981E-17	8.392015E-19
3.234127E+03	1.924738E-17	8.532255E-19
3.244048E+03	1.962225E-17	8.674805E-19
3.253968E+03	2.001151E-17	8.822766E-19
3.263889E+03	2.040861E-17	8.973207E-19
3.273810E+03	2.082095E-17	9.129338E-19
3.283730E+03	2.124172E-17	9.288137E-19
3.293651E+03	2.167862E-17	9.452924E-19
3.303571E+03	2.212460E-17	9.620573E-19
3.313492E+03	2.258765E-17	9.794519E-19
3.323413E+03	2.306044E-17	9.971529E-19
3.333333E+03	2.354722E-17	1.015340E-18
3.343254E+03	2.405258E-17	1.034206E-18
3.353175E+03	2.456871E-17	1.053408E-18
3.363095E+03	2.510448E-17	1.073323E-18
3.373016E+03	2.565171E-17	1.093594E-18
3.382937E+03	2.621966E-17	1.114610E-18
3.392857E+03	2.679976E-17	1.136002E-18
3.402778E+03	2.740165E-17	1.158173E-18
3.412698E+03	2.801639E-17	1.180736E-18
3.422619E+03	2.865398E-17	1.204110E-18
3.432540E+03	2.930507E-17	1.227893E-18
3.442460E+03	2.998009E-17	1.252515E-18
3.452381E+03	3.066918E-17	1.277560E-18
3.462302E+03	3.138322E-17	1.303472E-18
3.472222E+03	3.211185E-17	1.329814E-18
3.482143E+03	3.286640E-17	1.357049E-18
3.492063E+03	3.363594E-17	1.384719E-18
3.501984E+03	3.443229E-17	1.413302E-18
3.511905E+03	3.524395E-17	1.442319E-18
3.521825E+03	3.608320E-17	1.472266E-18
3.531746E+03	3.693795E-17	1.502640E-18
3.541667E+03	3.782098E-17	1.533957E-18
3.551587E+03	3.871956E-17	1.565690E-18
3.561508E+03	3.964704E-17	1.598373E-18
3.571429E+03	4.059004E-17	1.631459E-18
3.581349E+03	4.156255E-17	1.665502E-18
3.591270E+03	4.255056E-17	1.699933E-18
3.601190E+03	4.356870E-17	1.735331E-18
3.611111E+03	4.460227E-17	1.771101E-18
3.621032E+03	4.566658E-17	1.807844E-18
3.630952E+03	4.674620E-17	1.844941E-18
3.640873E+03	4.785711E-17	1.883017E-18
3.650794E+03	4.898309E-17	1.921424E-18
3.660714E+03	5.014084E-17	1.960812E-18
3.670635E+03	5.131341E-17	2.000510E-18
3.680556E+03	5.251811E-17	2.041184E-18
3.690476E+03	5.373706E-17	2.082132E-18
3.700397E+03	5.498850E-17	2.124052E-18
3.710317E+03	5.625352E-17	2.166207E-18
3.720238E+03	5.755115E-17	2.209320E-18
3.730159E+03	5.886155E-17	2.252622E-18
3.740079E+03	6.020437E-17	2.296859E-18
3.750000E+03	6.155879E-17	2.341226E-18
3.759921E+03	6.294526E-17	2.386496E-18
3.769841E+03	6.434179E-17	2.431826E-18
3.779762E+03	6.576954E-17	2.478010E-18
3.789683E+03	6.720535E-17	2.524168E-18
3.799603E+03	6.867104E-17	2.571112E-18
3.809524E+03	7.014216E-17	2.617921E-18
3.819444E+03	7.164123E-17	2.665431E-18
3.829365E+03	7.314254E-17	2.712678E-18
3.839286E+03	7.466919E-17	2.760515E-18
3.849206E+03	7.619406E-17	2.807935E-18
3.859127E+03	7.774109E-17	2.855816E-18
3.869048E+03	7.928173E-17	2.903107E-18
3.878968E+03	8.084060E-17	2.950708E-18
3.888889E+03	8.238791E-17	2.997528E-18
3.898810E+03	8.394902E-17	3.044492E-18
3.908730E+03	8.549296E-17	3.090474E-18
3.918651E+03	8.704607E-17	3.136430E-18
3.928571E+03	8.857615E-17	3.181201E-18
3.938492E+03	9.011063E-17	3.225775E-18
3.948413E+03	9.161642E-17	3.268972E-18
3.958333E+03	9.312212E-17	3.311817E-18
3.968254E+03	9.459384E-17	3.353109E-18
3.978175E+03	9.606153E-17	3.393919E-18
3.988095E+03	9.749075E-17	3.433034E-18
3.998016E+03	9.891279E-17	3.471567E-18
4.007937E+03	1.002928E-16	3.508301E-18
4.017857E+03	1.016637E-16	3.544396E-18
4.027778E+03	1.029902E-16	3.578632E-18
4.037698E+03	1.043068E-16	3.612214E-18
4.047619E+03	1.055778E-16	3.643921E-18
4.057540E+03	1.068210E-16	3.674375E-18
4.067460E+03	1.080551E-16	3.704231E-18
4.077381E+03	1.092443E-16	3.732264E-18
4.087302E+03	1.104263E-16	3.759776E-18
4.097222E+03	1.115648E-16	3.785535E-18
4.107143E+03	1.126987E-16	3.810876E-18
4.117063E+03	1.137911E-16	3.834558E-18
4.126984E+03	1.148820E-16	3.857931E-18
4.136905E+03	1.159338E-16	3.879745E-18
4.146825E+03	1.169673E-16	3.900700E-18
4.156746E+03	1.180038E-16	3.921515E-18
4.166667E+03	1.190045E-16	3.940906E-18
4.176587E+03	1.200109E-16	3.960251E-18
4.186508E+03	1.209834E-16	3.978247E-18
4.196429E+03	1.219432E-16	3.995600E-18
4.206349E+03	1.229117E-16	4.013016E-18
4.216270E+03	1.238481E-16	4.029162E-18
4.226190E+03	1.247949E-16	4.045428E-18
4.236111E+03	1.257104E-16	4.060462E-18
4.246032E+03	1.266160E-16	4.074966E-18
4.255952E+03	1.275339E-16	4.089652E-18
4.265873E+03	1.284213E-16	4.103155E-18
4.275794E+03	1.293222E-16	4.116883E-18
4.285714E+03	1.301937E-16	4.129469E-18
4.295635E+03	1.310582E-16	4.141636E-18
4.305556E+03	1.319391E-16	4.154118E-18
4.315476E+03	1.327927E-16	4.165544E-18
4.325397E+03	1.336423E-16	4.176649E-18
4.335317E+03	1.345114E-16	4.188171E-18
4.345238E+03	1.353555E-16	4.198716E-18
4.355159E+03	1.361969E-16	4.208990E-18
4.365079E+03	1.370579E-16	4.219675E-18
4.375000E+03	1.378901E-16	4.229286E-18
4.384921E+03	1.387138E-16	4.238448E-18
4.394841E+03	1.395492E-16	4.247786E-18
4.404762E+03	1.403461E-16	4.255768E-18
4.414683E+03	1.411244E-16	4.263008E-18
4.424603E+03	1.418807E-16	4.269409E-18
4.434524E+03	1.426357E-16	4.275600E-18
4.444444E+03	1.433381E-16	4.280047E-18
4.454365E+03	1.440089E-16	4.283386E-18
4.464286E+03	1.446694E-16	4.286262E-18
4.474206E+03	1.452680E-16	4.287155E-18
4.484127E+03	1.458265E-16	4.286721E-18
4.494048E+03	1.463422E-16	4.284898E-18
4.503968E+03	1.468377E-16	4.282355E-18
4.513889E+03	1.472614E-16	4.277598E-18
4.523810E+03	1.476361E-16	4.271313E-18
4.533730E+03	1.479603E-16	4.263471E-18
4.543651E+03	1.482577E-16	4.254767E-18
4.553571E+03	1.484774E-16	4.243757E-18
4.563492E+03	1.486441E-16	4.231166E-18
4.573413E+03	1.487575E-16	4.217005E-18
4.583333E+03	1.488181E-16	4.201305E-18
4.593254E+03	1.488518E-16	4.184811E-18
4.603175E+03	1.488099E-16	4.166170E-18
4.613095E+03	1.487192E-16	4.146154E-18
4.623016E+03	1.485823E-16	4.124849E-18
4.632937E+03	1.484018E-16	4.102345E-18
4.642857E+03	1.481811E-16	4.078748E-18
4.652778E+03	1.479239E-16	4.054175E-18
4.662698E+03	1.476590E-16	4.029424E-18
4.672619E+03	1.473411E-16	4.003265E-18
4.682540E+03	1.469997E-16	3.976514E-18
4.692460E+03	1.466393E-16	3.949302E-18
4.702381E+03	1.462648E-16	3.921769E-18
4.712302E+03	1.458811E-16	3.894045E-18
4.722222E+03	1.454928E-16	3.866260E-18
4.732143E+03	1.451045E-16	3.838538E-18
4.742063E+03	1.447450E-16	3.811633E-18
4.751984E+03	1.443697E-16	3.784368E-18
4.761905E+03	1.440068E-16	3.757487E-18
4.771825E+03	1.436597E-16	3.731070E-18
4.781746E+03	1.433316E-16	3.705197E-18
4.791667E+03	1.430251E-16	3.679927E-18
4.801587E+03	1.427422E-16	3.655307E-18
4.811508E+03	1.424850E-16	3.631379E-18
4.821429E+03	1.422547E-16	3.608166E-18
4.831349E+03	1.420522E-16	3.585681E-18
4.841270E+03	1.418781E-16	3.563930E-18
4.851190E+03	1.417325E-16	3.542905E-18
4.861111E+03	1.416152E-16	3.522595E-18
4.871032E+03	1.415258E-16	3.502978E-18
4.880952E+03	1.414636E-16	3.484025E-18
4.890873E+03	1.414276E-16	3.465709E-18
4.900794E+03	1.414167E-16	3.447989E-18
4.910714E+03	1.414299E-16	3.430834E-18
4.920635E+03	1.414658E-16	3.414205E-18
4.930556E+03	1.415232E-16	3.398065E-18
4.940476E+03	1.416009E-16	3.382378E-18
4.950397E+03	1.416976E-16	3.367110E-18
4.960317E+03	1.417888E-16	3.351671E-18
4.970238E+03	1.419207E-16	3.337157E-18
4.980159E+03	1.420688E-16	3.322980E-18
4.990079E+03	1.422324E-16	3.309118E-18
5.000000E+03	1.424109E-16	3.295554E-18
5.009921E+03	1.426036E-16	3.282273E-18
5.019841E+03	1.428102E-16	3.269260E-18
5.029762E+03	1.430304E-16	3.256506E-18
5.039683E+03	1.432636E-16	3.243999E-18
5.049603E+03	1.434856E-16	3.231189E-18
5.059524E+03	1.437438E-16	3.219145E-18
5.069444E+03	1.440137E-16	3.207313E-18
5.079365E+03	1.442949E-16	3.195679E-18
5.089286E+03	1.445864E-16	3.184225E-18
5.099206E+03	1.448634E-16	3.172404E-18
5.109127E+03	1.451729E-16	3.161250E-18
5.119048E+03	1.454895E-16	3.150206E-18
5.128968E+03	1.458118E-16	3.139243E-18
5.138889E+03	1.461384E-16	3.128330E-18
5.148810E+03	1.464428E-16	3.116911E-18
5.158730E+03	1.467722E-16	3.105992E-18
5.168651E+03	1.471001E-16	3.095015E-18
5.178571E+03	1.474244E-16	3.083941E-18
5.188492E+03	1.477185E-16	3.072223E-18
5.198413E+03	1.480296E-16	3.060851E-18
5.208333E+03	1.483311E-16	3.049280E-18
5.218254E+03	1.486210E-16	3.037478E-18
5.228175E+03	1.488731E-16	3.024919E-18
5.238095E+03	1.491351E-16	3.012592E-18
5.248016E+03	1.493812E-16	2.999974E-18
5.257937E+03	1.495853E-16	2.986561E-18
5.267857E+03	1.497963E-16	2.973345E-18
5.277778E+03	1.499890E-16	2.959827E-18
5.287698E+03	1.501380E-16	2.945526E-18
5.297619E+03	1.502934E-16	2.931439E-18
5.307540E+03	1.504303E-16	2.917088E-18
5.317460E+03	1.505242E-16	2.902014E-18
5.327381E+03	1.506259E-16	2.887210E-18
5.337302E+03	1.506859E-16	2.871740E-18
5.347222E+03	1.507554E-16	2.856590E-18
5.357143E+03	1.508100E-16	2.841307E-18
5.367063E+03	1.508256E-16	2.825451E-18
5.376984E+03	1.508531E-16	2.809988E-18
5.386905E+03	1.508428E-16	2.794003E-18
5.396825E+03	1.508453E-16	2.778444E-18
5.406746E+03	1.508105E-16	2.762395E-18
5.416667E+03	1.507883E-16	2.746786E-18
5.426587E+03	1.507528E-16	2.731150E-18
5.436508E+03	1.506780E-16	2.715030E-18
5.446429E+03	1.506130E-16	2.699319E-18
5.456349E+03	1.505062E-16	2.683105E-18
5.466270E+03	1.504065E-16	2.667270E-18
5.476190E+03	1.502629E-16	2.650907E-18
5.486111E+03	1.501242E-16	2.634877E-18
5.496032E+03	1.499395E-16	2.618283E-18
5.505952E+03	1.497574E-16	2.601973E-18
5.515873E+03	1.495272E-16	2.585065E-18
5.525794E+03	1.492734E-16	2.567985E-18
5.535714E+03	1.490205E-16	2.551151E-18
5.545635E+03	1.487195E-16	2.533719E-18
5.555556E+03	1.484207E-16	2.516547E-18
5.565476E+03	1.480765E-16	2.498825E-18
5.575397E+03	1.477385E-16	2.481421E-18
5.585317E+03	1.473607E-16	2.463558E-18
5.595238E+03	1.469714E-16	2.445709E-18
5.605159E+03	1.465994E-16	2.428348E-18
5.615079E+03	1.462011E-16	2.410743E-18
5.625000E+03	1.458305E-16	2.393781E-18
5.634921E+03	1.454451E-16	2.376755E-18
5.644841E+03	1.450758E-16	2.360163E-18
5.654762E+03	1.447528E-16	2.344485E-18
5.664683E+03	1.444347E-16	2.329039E-18
5.674603E+03	1.441522E-16	2.314310E-18
5.684524E+03	1.439355E-16	2.300769E-18
5.694444E+03	1.437431E-16	2.287734E-18
5.704365E+03	1.436045E-16	2.275666E-18
5.714286E+03	1.435487E-16	2.265006E-18
5.724206E+03	1.435330E-16	2.255062E-18
5.734127E+03	1.435851E-16	2.246256E-18
5.744048E+03	1.437323E-16	2.238997E-18
5.753968E+03	1.439297E-16	2.232565E-18
5.763889E+03	1.442030E-16	2.227347E-18
5.773810E+03	1.445535E-16	2.223343E-18
5.783730E+03	1.450057E-16	2.220914E-18
5.793651E+03	1.455115E-16	2.219305E-18
5.803571E+03	1.460944E-16	2.218858E-18
5.813492E+03	1.467529E-16	2.219539E-18
5.823413E+03	1.475098E-16	2.221676E-18
5.833333E+03	1.483144E-16	2.224489E-18
5.843254E+03	1.491888E-16	2.228301E-18
5.853175E+03	1.501306E-16	2.233061E-18
5.863095E+03	1.511374E-16	2.238726E-18
5.873016E+03	1.522321E-16	2.245622E-18
5.882937E+03	1.533624E-16	2.252967E-18
5.892857E+03	1.545514E-16	2.261096E-18
5.902778E+03	1.557979E-16	2.269983E-18
5.912698E+03	1.571009E-16	2.279607E-18
5.922619E+03	1.584598E-16	2.289956E-18
5.932540E+03	1.599014E-16	2.301407E-18
5.942460E+03	1.613735E-16	2.313206E-18
5.952381E+03	1.629034E-16	2.325742E-18
5.962302E+03	1.644930E-16	2.339038E-18
5.972222E+03	1.661441E-16	2.353120E-18
5.982143E+03	1.678591E-16	2.368018E-18
5.992063E+03	1.696406E-16	2.383767E-18
6.001984E+03	1.714911E-16	2.400402E-18
6.011905E+03	1.734419E-16	2.418357E-18
6.021825E+03	1.754381E-16	2.436866E-18
6.031746E+03	1.775096E-16	2.456350E-18
6.041667E+03	1.796577E-16	2.476825E-18
6.051587E+03	1.818823E-16	2.498298E-18
6.061508E+03	1.841825E-16	2.520758E-18
6.071429E+03	1.865561E-16	2.544181E-18
6.081349E+03	1.889992E-16	2.568523E-18
6.091270E+03	1.915064E-16	2.593721E-18
6.101190E+03	1.940704E-16	2.619687E-18
6.111111E+03	1.966818E-16	2.646312E-18
6.121032E+03	1.993293E-16	2.673458E-18
6.130952E+03	2.019992E-16	2.700965E-18
6.140873E+03	2.046760E-16	2.728650E-18
6.150794E+03	2.073417E-16	2.756300E-18
6.160714E+03	2.099768E-16	2.783685E-18
6.170635E+03	2.125594E-16	2.810552E-18
6.180556E+03	2.150666E-16	2.836630E-18
6.190476E+03	2.174739E-16	2.861639E-18
6.200397E+03	2.197561E-16	2.885287E-18
6.210317E+03	2.218873E-16	2.907279E-18
6.220238E+03	2.238422E-16	2.927327E-18
6.230159E+03	2.255955E-16	2.945147E-18
6.240079E+03	2.271237E-16	2.960474E-18
6.250000E+03	2.284042E-16	2.973061E-18
6.259921E+03	2.294174E-16	2.982693E-18
6.269841E+03	2.301458E-16	2.989183E-18
6.279762E+03	2.305754E-16	2.992384E-18
6.289683E+03	2.306574E-16	2.991694E-18
6.299603E+03	2.304611E-16	2.988042E-18
6.309524E+03	2.299454E-16	2.980912E-18
6.319444E+03	2.291111E-16	2.970332E-18
6.329365E+03	2.279629E-16	2.956370E-18
6.339286E+03	2.265089E-16	2.939135E-18
6.349206E+03	2.247610E-16	2.918775E-18
6.359127E+03	2.227337E-16	2.895468E-18
6.369048E+03	2.204446E-16	2.869411E-18
6.378968E+03	2.178768E-16	2.840327E-18
6.388889E+03	2.151243E-16	2.809377E-18
6.398810E+03	2.121724E-16	2.776310E-18
6.408730E+03	2.090437E-16	2.741357E-18
6.418651E+03	2.057609E-16	2.704749E-18
6.428571E+03	2.023460E-16	2.666716E-18
6.438492E+03	1.987876E-16	2.627040E-18
6.448413E+03	1.951725E-16	2.586809E-18
6.458333E+03	1.914865E-16	2.545778E-18
6.468254E+03	1.877477E-16	2.504134E-18
6.478175E+03	1.839730E-16	2.462052E-18
6.488095E+03	1.801495E-16	2.419306E-18
6.498016E+03	1.763536E-16	2.376882E-18
6.507937E+03	1.725699E-16	2.334533E-18
6.517857E+03	1.688122E-16	2.292411E-18
6.527778E+03	1.650923E-16	2.250644E-18
6.537698E+03	1.613941E-16	2.208985E-18
6.547619E+03	1.577805E-16	2.168270E-18
6.557540E+03	1.542320E-16	2.128214E-18
6.567460E+03	1.507552E-16	2.088891E-18
6.577381E+03	1.473312E-16	2.050027E-18
6.587302E+03	1.440143E-16	2.012364E-18
6.597222E+03	1.407835E-16	1.975606E-18
6.607143E+03	1.376423E-16	1.939798E-18
6.617063E+03	1.345716E-16	1.904667E-18
6.626984E+03	1.316191E-16	1.870887E-18
6.636905E+03	1.287643E-16	1.838172E-18
6.646825E+03	1.259883E-16	1.806257E-18
6.656746E+03	1.233352E-16	1.775777E-18
6.666667E+03	1.207851E-16	1.746457E-18
6.676587E+03	1.183197E-16	1.718040E-18
6.686508E+03	1.159798E-16	1.691128E-18
6.696429E+03	1.137463E-16	1.665458E-18
6.706349E+03	1.116015E-16	1.640781E-18
6.716270E+03	1.095833E-16	1.617664E-18
6.726190E+03	1.076731E-16	1.595854E-18
6.736111E+03	1.058537E-16	1.575106E-18
6.746032E+03	1.041606E-16	1.555962E-18
6.755952E+03	1.025756E-16	1.538171E-18
6.765873E+03	1.010817E-16	1.521489E-18
6.775794E+03	9.971211E-17	1.506433E-18
6.785714E+03	9.844926E-17	1.492754E-18
6.795635E+03	9.727622E-17	1.480209E-18
6.805556E+03	9.622436E-17	1.469290E-18
6.815476E+03	9.527637E-17	1.459749E-18
6.825397E+03	9.441517E-17	1.451338E-18
6.835317E+03	9.367094E-17	1.444533E-18
6.845238E+03	9.301088E-17	1.438843E-18
6.855159E+03	9.246418E-17	1.434731E-18
6.865079E+03	9.201358E-17	1.431943E-18
6.875000E+03	9.164189E-17	1.430220E-18
6.884921E+03	9.137746E-17	1.430015E-18
6.894841E+03	9.118763E-17	1.430826E-18
6.904762E+03	9.110046E-17	1.433102E-18
6.914683E+03	9.108308E-17	1.436334E-18
6.924603E+03	9.116307E-17	1.440962E-18
6.934524E+03	9.132252E-17	1.446711E-18
6.944444E+03	9.154340E-17	1.453298E-18
6.954365E+03	9.185283E-17	1.461158E-18
6.964286E+03	9.221713E-17	1.469758E-18
6.974206E+03	9.266339E-17	1.479531E-18
6.984127E+03	9.315739E-17	1.489933E-18
6.994048E+03	9.372602E-17	1.501392E-18
7.003968E+03	9.433440E-17	1.513351E-18
7.013889E+03	9.500950E-17	1.526240E-18
7.023810E+03	9.571534E-17	1.539479E-18
7.033730E+03	9.647917E-17	1.553502E-18
7.043651E+03	9.726399E-17	1.567712E-18
7.053571E+03	9.809686E-17	1.582538E-18
7.063492E+03	9.893997E-17	1.597368E-18
7.073413E+03	9.982036E-17	1.612632E-18
7.083333E+03	1.006992E-16	1.627696E-18
7.093254E+03	1.016033E-16	1.642991E-18
7.103175E+03	1.024927E-16	1.657863E-18
7.113095E+03	1.033947E-16	1.672745E-18
7.123016E+03	1.042679E-16	1.686966E-18
7.132937E+03	1.051397E-16	1.700960E-18
7.142857E+03	1.059678E-16	1.714039E-18
7.152778E+03	1.067622E-16	1.726360E-18
7.162698E+03	1.075332E-16	1.738084E-18
7.172619E+03	1.082376E-16	1.748510E-18
7.182540E+03	1.089038E-16	1.758096E-18
7.192460E+03	1.094887E-16	1.766141E-18
7.202381E+03	1.100215E-16	1.773120E-18
7.212302E+03	1.104595E-16	1.778342E-18
7.222222E+03	1.108150E-16	1.782008E-18
7.232143E+03	1.111015E-16	1.784340E-18
7.242063E+03	1.112778E-16	1.784680E-18
7.251984E+03	1.113774E-16	1.783574E-18
7.261905E+03	1.113612E-16	1.780400E-18
7.271825E+03	1.112464E-16	1.775447E-18
7.281746E+03	1.110517E-16	1.769023E-18
7.291667E+03	1.107416E-16	1.760572E-18
7.301587E+03	1.103554E-16	1.750734E-18
7.311508E+03	1.098601E-16	1.739000E-18
7.321429E+03	1.092795E-16	1.725760E-18
7.331349E+03	1.086378E-16	1.711413E-18
7.341270E+03	1.079060E-16	1.695515E-18
7.351190E+03	1.071105E-16	1.678499E-18
7.361111E+03	1.062782E-16	1.660800E-18
7.371032E+03	1.053829E-16	1.642025E-18
7.380952E+03	1.044529E-16	1.622627E-18
7.390873E+03	1.035160E-16	1.603050E-18
7.400794E+03	1.025480E-16	1.582934E-18
7.410714E+03	1.015773E-16	1.562724E-18
7.420635E+03	1.006311E-16	1.542851E-18
7.430556E+03	9.968617E-17	1.522961E-18
7.440476E+03	9.876925E-17	1.503474E-18
7.450397E+03	9.790632E-17	1.484785E-18
7.460317E+03	9.707356E-17	1.466535E-18
7.470238E+03	9.629570E-17	1.449101E-18
7.480159E+03	9.558049E-17	1.432596E-18
7.490079E+03	9.495059E-17	1.417356E-18
7.500000E+03	9.438051E-17	1.402996E-18
7.509921E+03	9.389165E-17	1.389830E-18
7.519841E+03	9.348864E-17	1.377919E-18
7.529762E+03	9.319094E-17	1.367540E-18
7.539683E+03	9.297047E-17	1.358272E-18
7.549603E+03	9.284524E-17	1.350371E-18
7.559524E+03	9.281683E-17	1.343848E-18
7.569444E+03	9.290160E-17	1.338930E-18
7.579365E+03	9.306864E-17	1.335161E-18
7.589286E+03	9.333299E-17	1.332748E-18
7.599206E+03	9.369308E-17	1.331659E-18
7.609127E+03	9.416276E-17	1.332083E-18
7.619048E+03	9.470781E-17	1.333527E-18
7.628968E+03	9.534058E-17	1.336160E-18
7.638889E+03	9.605677E-17	1.339920E-18
7.648810E+03	9.686780E-17	1.344961E-18
7.658730E+03	9.773612E-17	1.350761E-18
7.668651E+03	9.867148E-17	1.357460E-18
7.678571E+03	9.966735E-17	1.364971E-18
7.688492E+03	1.007163E-16	1.373202E-18
7.698413E+03	1.018106E-16	1.382057E-18
