#wls	flux	fluxerr
1.600000E+03	1.754437E-15	6.127757E-18
1.640000E+03	1.770847E-15	6.185073E-18
1.680000E+03	1.786042E-15	6.238147E-18
1.720000E+03	1.800018E-15	6.286959E-18
1.760000E+03	1.812750E-15	6.331428E-18
1.800000E+03	1.824229E-15	6.371523E-18
1.840000E+03	1.834203E-15	6.406359E-18
1.880000E+03	1.842507E-15	6.435362E-18
1.920000E+03	1.848635E-15	6.456765E-18
1.960000E+03	1.851926E-15	6.468261E-18
2.000000E+03	1.851559E-15	6.466979E-18
2.040000E+03	1.847148E-15	6.451572E-18
2.080000E+03	1.839374E-15	6.424418E-18
2.120000E+03	1.830703E-15	6.394135E-18
2.160000E+03	1.823794E-15	6.370002E-18
2.200000E+03	1.822655E-15	6.366025E-18
2.240000E+03	1.832753E-15	6.401295E-18
2.280000E+03	1.859504E-15	6.494727E-18
2.320000E+03	1.905337E-15	6.654809E-18
2.360000E+03	1.970098E-15	6.881001E-18
2.400000E+03	2.053448E-15	7.172118E-18
2.440000E+03	2.154927E-15	7.526557E-18
2.480000E+03	2.273359E-15	7.940208E-18
2.520000E+03	2.406892E-15	8.406600E-18
2.560000E+03	2.553305E-15	8.917981E-18
2.600000E+03	2.710844E-15	9.468218E-18
2.640000E+03	2.879328E-15	1.005669E-17
2.680000E+03	3.056358E-15	1.067500E-17
2.720000E+03	3.238366E-15	1.131071E-17
2.760000E+03	3.423903E-15	1.195874E-17
2.800000E+03	3.612713E-15	1.261820E-17
2.840000E+03	3.805370E-15	1.329109E-17
2.880000E+03	4.002329E-15	1.397901E-17
2.920000E+03	4.203978E-15	1.468332E-17
2.960000E+03	4.410380E-15	1.540422E-17
3.000000E+03	4.621551E-15	1.614178E-17
3.010000E+03	4.675011E-15	1.632850E-17
3.020000E+03	4.728733E-15	1.651614E-17
3.030000E+03	4.782772E-15	1.670488E-17
3.040000E+03	4.836967E-15	1.689417E-17
3.050000E+03	4.891372E-15	1.708419E-17
3.060000E+03	4.945969E-15	1.727488E-17
3.070000E+03	5.000741E-15	1.746619E-17
3.080000E+03	5.055671E-15	1.765804E-17
3.090000E+03	5.110740E-15	1.785038E-17
3.100000E+03	5.165931E-15	1.804315E-17
3.110000E+03	5.221229E-15	1.823629E-17
3.120000E+03	5.276543E-15	1.842949E-17
3.130000E+03	5.331928E-15	1.862293E-17
3.140000E+03	5.387300E-15	1.881633E-17
3.150000E+03	5.442640E-15	1.900962E-17
3.160000E+03	5.497936E-15	1.920275E-17
3.170000E+03	5.553102E-15	1.939543E-17
3.180000E+03	5.608197E-15	1.958786E-17
3.190000E+03	5.663068E-15	1.977951E-17
3.200000E+03	5.717775E-15	1.997059E-17
3.210000E+03	5.772237E-15	2.016081E-17
3.220000E+03	5.826378E-15	2.034991E-17
3.230000E+03	5.880192E-15	2.053786E-17
3.240000E+03	5.933674E-15	2.072466E-17
3.250000E+03	5.986753E-15	2.091005E-17
3.260000E+03	6.039359E-15	2.109379E-17
3.270000E+03	6.091426E-15	2.127564E-17
3.280000E+03	6.142958E-15	2.145563E-17
3.290000E+03	6.193966E-15	2.163379E-17
3.300000E+03	6.244254E-15	2.180943E-17
3.310000E+03	6.293909E-15	2.198286E-17
3.320000E+03	6.342882E-15	2.215391E-17
3.330000E+03	6.391066E-15	2.232220E-17
3.340000E+03	6.438424E-15	2.248761E-17
3.350000E+03	6.484933E-15	2.265005E-17
3.360000E+03	6.530641E-15	2.280970E-17
3.370000E+03	6.575479E-15	2.296631E-17
3.380000E+03	6.619452E-15	2.311989E-17
3.390000E+03	6.662590E-15	2.327056E-17
3.400000E+03	6.704871E-15	2.341824E-17
3.410000E+03	6.746366E-15	2.356317E-17
3.420000E+03	6.787175E-15	2.370570E-17
3.430000E+03	6.827430E-15	2.384630E-17
3.440000E+03	6.867238E-15	2.398534E-17
3.450000E+03	6.906872E-15	2.412377E-17
3.460000E+03	6.946450E-15	2.426200E-17
3.470000E+03	6.986249E-15	2.440101E-17
3.478000E+03	6.956439E-15	2.429689E-17
3.479470E+03	6.936059E-15	2.422571E-17
3.480940E+03	6.916089E-15	2.415596E-17
3.482410E+03	6.900935E-15	2.410303E-17
3.483880E+03	6.889633E-15	2.406356E-17
3.485350E+03	6.875162E-15	2.401301E-17
3.486820E+03	6.861239E-15	2.396438E-17
3.488290E+03	6.850894E-15	2.392825E-17
3.489760E+03	6.849775E-15	2.392434E-17
3.491230E+03	6.849893E-15	2.392476E-17
3.492700E+03	6.842436E-15	2.389871E-17
3.494170E+03	6.838145E-15	2.388372E-17
3.495640E+03	6.840464E-15	2.389182E-17
3.497110E+03	6.838236E-15	2.388404E-17
3.498580E+03	6.833942E-15	2.386904E-17
3.500050E+03	6.833089E-15	2.386607E-17
3.501520E+03	6.834027E-15	2.386934E-17
3.502990E+03	6.836618E-15	2.387839E-17
3.504460E+03	6.837278E-15	2.388070E-17
3.505930E+03	6.835733E-15	2.387530E-17
3.507400E+03	6.835151E-15	2.387327E-17
3.508870E+03	6.834706E-15	2.387171E-17
3.510340E+03	6.837292E-15	2.388075E-17
3.511810E+03	6.844427E-15	2.390566E-17
3.513280E+03	6.854594E-15	2.394117E-17
3.514750E+03	6.867931E-15	2.398776E-17
3.516220E+03	6.879201E-15	2.402712E-17
3.517690E+03	6.885508E-15	2.404915E-17
3.519160E+03	6.891952E-15	2.407166E-17
3.520630E+03	6.900050E-15	2.409994E-17
3.522100E+03	6.911183E-15	2.413883E-17
3.523570E+03	6.922591E-15	2.417867E-17
3.525040E+03	6.939240E-15	2.423682E-17
3.526510E+03	6.962096E-15	2.431665E-17
3.527980E+03	6.984815E-15	2.439600E-17
3.529450E+03	7.002432E-15	2.445753E-17
3.530920E+03	7.016188E-15	2.450558E-17
3.532390E+03	7.038083E-15	2.458205E-17
3.533860E+03	7.063013E-15	2.466913E-17
3.535330E+03	7.086980E-15	2.475284E-17
3.536800E+03	7.107361E-15	2.482402E-17
3.538270E+03	7.130089E-15	2.490340E-17
3.539740E+03	7.154197E-15	2.498761E-17
3.541210E+03	7.183413E-15	2.508965E-17
3.542680E+03	7.219531E-15	2.521580E-17
3.544150E+03	7.253305E-15	2.533376E-17
3.545620E+03	7.282665E-15	2.543631E-17
3.547090E+03	7.310370E-15	2.553307E-17
3.548560E+03	7.339181E-15	2.563370E-17
3.550030E+03	7.359712E-15	2.570541E-17
3.551500E+03	7.378173E-15	2.576989E-17
3.552970E+03	7.400501E-15	2.584788E-17
3.554440E+03	7.422691E-15	2.592538E-17
3.555910E+03	7.445020E-15	2.600337E-17
3.557380E+03	7.462379E-15	2.606400E-17
3.558850E+03	7.474907E-15	2.610776E-17
3.560320E+03	7.484396E-15	2.614090E-17
3.561790E+03	7.496924E-15	2.618465E-17
3.563260E+03	7.509727E-15	2.622937E-17
3.564730E+03	7.523221E-15	2.627650E-17
3.566200E+03	7.529948E-15	2.630000E-17
3.567670E+03	7.533496E-15	2.631239E-17
3.569140E+03	7.541464E-15	2.634022E-17
3.570610E+03	7.546669E-15	2.635840E-17
3.572080E+03	7.546485E-15	2.635776E-17
3.573550E+03	7.546853E-15	2.635904E-17
3.575020E+03	7.552055E-15	2.637721E-17
3.576490E+03	7.556289E-15	2.639200E-17
3.577960E+03	7.555686E-15	2.638989E-17
3.579430E+03	7.553147E-15	2.638102E-17
3.580900E+03	7.563594E-15	2.641752E-17
3.582370E+03	7.584544E-15	2.649069E-17
3.583840E+03	7.596375E-15	2.653201E-17
3.585310E+03	7.598944E-15	2.654098E-17
3.586780E+03	7.601652E-15	2.655044E-17
3.588250E+03	7.608090E-15	2.657293E-17
3.589720E+03	7.617706E-15	2.660651E-17
3.591190E+03	7.626492E-15	2.663720E-17
3.592660E+03	7.635691E-15	2.666933E-17
3.594130E+03	7.647932E-15	2.671208E-17
3.595600E+03	7.664043E-15	2.676836E-17
3.597070E+03	7.677943E-15	2.681690E-17
3.598540E+03	7.695851E-15	2.687945E-17
3.600010E+03	7.713898E-15	2.694248E-17
3.601480E+03	7.725722E-15	2.698378E-17
3.602950E+03	7.730080E-15	2.699900E-17
3.604420E+03	7.731255E-15	2.700311E-17
3.605890E+03	7.742386E-15	2.704199E-17
3.607360E+03	7.758496E-15	2.709825E-17
3.608830E+03	7.768243E-15	2.713230E-17
3.610300E+03	7.777990E-15	2.716634E-17
3.611770E+03	7.788012E-15	2.720134E-17
3.613240E+03	7.790011E-15	2.720833E-17
3.614710E+03	7.788413E-15	2.720274E-17
3.616180E+03	7.786260E-15	2.719522E-17
3.617650E+03	7.784657E-15	2.718963E-17
3.619120E+03	7.771848E-15	2.714489E-17
3.620590E+03	7.761941E-15	2.711029E-17
3.622060E+03	7.752032E-15	2.707568E-17
3.623530E+03	7.737693E-15	2.702560E-17
3.625000E+03	7.726673E-15	2.698710E-17
3.626470E+03	7.707900E-15	2.692153E-17
3.627940E+03	7.683312E-15	2.683566E-17
3.629410E+03	7.662597E-15	2.676330E-17
3.630880E+03	7.643538E-15	2.669674E-17
3.632350E+03	7.630150E-15	2.664998E-17
3.633820E+03	7.615790E-15	2.659982E-17
3.635290E+03	7.595199E-15	2.652790E-17
3.636760E+03	7.581941E-15	2.648160E-17
3.638230E+03	7.572833E-15	2.644978E-17
3.639700E+03	7.557771E-15	2.639718E-17
3.641170E+03	7.529555E-15	2.629863E-17
3.642640E+03	7.498844E-15	2.619136E-17
3.644110E+03	7.470897E-15	2.609375E-17
3.645580E+03	7.437825E-15	2.597824E-17
3.647050E+03	7.403640E-15	2.585884E-17
3.648520E+03	7.371389E-15	2.574620E-17
3.649990E+03	7.340935E-15	2.563983E-17
3.651460E+03	7.305907E-15	2.551749E-17
3.652930E+03	7.267829E-15	2.538449E-17
3.654400E+03	7.231269E-15	2.525680E-17
3.655870E+03	7.193736E-15	2.512571E-17
3.657340E+03	7.154814E-15	2.498976E-17
3.658810E+03	7.115888E-15	2.485380E-17
3.660280E+03	7.083466E-15	2.474056E-17
3.661750E+03	7.054780E-15	2.464037E-17
3.663220E+03	7.020688E-15	2.452130E-17
3.664690E+03	6.982577E-15	2.438818E-17
3.666160E+03	6.948062E-15	2.426763E-17
3.667630E+03	6.916175E-15	2.415626E-17
3.669100E+03	6.889548E-15	2.406326E-17
3.670570E+03	6.872199E-15	2.400267E-17
3.672040E+03	6.858450E-15	2.395464E-17
3.673510E+03	6.844975E-15	2.390758E-17
3.674980E+03	6.847569E-15	2.391664E-17
3.676450E+03	6.862216E-15	2.396780E-17
3.677920E+03	6.872429E-15	2.400347E-17
3.679390E+03	6.881669E-15	2.403574E-17
3.680860E+03	6.900749E-15	2.410238E-17
3.682330E+03	6.931606E-15	2.421016E-17
3.683800E+03	6.959554E-15	2.430777E-17
3.685270E+03	6.987225E-15	2.440442E-17
3.686740E+03	7.024874E-15	2.453592E-17
3.688210E+03	7.072087E-15	2.470082E-17
3.689680E+03	7.126231E-15	2.488993E-17
3.691150E+03	7.193821E-15	2.512600E-17
3.692620E+03	7.262383E-15	2.536547E-17
3.694090E+03	7.324850E-15	2.558365E-17
3.695560E+03	7.394112E-15	2.582556E-17
3.697030E+03	7.470584E-15	2.609266E-17
3.698500E+03	7.550664E-15	2.637235E-17
3.699970E+03	7.632687E-15	2.665884E-17
3.701440E+03	7.724141E-15	2.697826E-17
3.702910E+03	7.821422E-15	2.731803E-17
3.704380E+03	7.916350E-15	2.764959E-17
3.705850E+03	8.009895E-15	2.797632E-17
3.707320E+03	8.100394E-15	2.829241E-17
3.708790E+03	8.193947E-15	2.861916E-17
3.710260E+03	8.291387E-15	2.895949E-17
3.711730E+03	8.393546E-15	2.931630E-17
3.713200E+03	8.495153E-15	2.967119E-17
3.714670E+03	8.591218E-15	3.000672E-17
3.716140E+03	8.683959E-15	3.033063E-17
3.717610E+03	8.778090E-15	3.065941E-17
3.719080E+03	8.870144E-15	3.098093E-17
3.720550E+03	8.963312E-15	3.130634E-17
3.722020E+03	9.056482E-15	3.163175E-17
3.723490E+03	9.153261E-15	3.196978E-17
3.724960E+03	9.257257E-15	3.233301E-17
3.726430E+03	9.357511E-15	3.268316E-17
3.727900E+03	9.450002E-15	3.300621E-17
3.729370E+03	9.544714E-15	3.333701E-17
3.730840E+03	9.645533E-15	3.368914E-17
3.732310E+03	9.739420E-15	3.401706E-17
3.733780E+03	9.819716E-15	3.429752E-17
3.735250E+03	9.901403E-15	3.458283E-17
3.736720E+03	9.982255E-15	3.486522E-17
3.738190E+03	1.005950E-14	3.513503E-17
3.739660E+03	1.014119E-14	3.542035E-17
3.741130E+03	1.021457E-14	3.567663E-17
3.742600E+03	1.027836E-14	3.589945E-17
3.744070E+03	1.034563E-14	3.613438E-17
3.745540E+03	1.041027E-14	3.636015E-17
3.747010E+03	1.046588E-14	3.655437E-17
3.748480E+03	1.052302E-14	3.675397E-17
3.749950E+03	1.057655E-14	3.694094E-17
3.751420E+03	1.062247E-14	3.710129E-17
3.752890E+03	1.066864E-14	3.726257E-17
3.754360E+03	1.071912E-14	3.743890E-17
3.755830E+03	1.076711E-14	3.760649E-17
3.757300E+03	1.081051E-14	3.775809E-17
3.758770E+03	1.085281E-14	3.790583E-17
3.760240E+03	1.089052E-14	3.803753E-17
3.761710E+03	1.091700E-14	3.813002E-17
3.763180E+03	1.093680E-14	3.819919E-17
3.764650E+03	1.095162E-14	3.825093E-17
3.766120E+03	1.096435E-14	3.829540E-17
3.767590E+03	1.097388E-14	3.832870E-17
3.769060E+03	1.097163E-14	3.832082E-17
3.770530E+03	1.097047E-14	3.831677E-17
3.772000E+03	1.097222E-14	3.832290E-17
3.773470E+03	1.096856E-14	3.831012E-17
3.774940E+03	1.095922E-14	3.827747E-17
3.776410E+03	1.094361E-14	3.822297E-17
3.777880E+03	1.092287E-14	3.815053E-17
3.779350E+03	1.090019E-14	3.807129E-17
3.780820E+03	1.087736E-14	3.799156E-17
3.782290E+03	1.085758E-14	3.792247E-17
3.783760E+03	1.083266E-14	3.783543E-17
3.785230E+03	1.080149E-14	3.772657E-17
3.786700E+03	1.076546E-14	3.760072E-17
3.788170E+03	1.071749E-14	3.743319E-17
3.789640E+03	1.066326E-14	3.724379E-17
3.791110E+03	1.061056E-14	3.705973E-17
3.792580E+03	1.055661E-14	3.687127E-17
3.794050E+03	1.049487E-14	3.665564E-17
3.795520E+03	1.043730E-14	3.645456E-17
3.796990E+03	1.037722E-14	3.624473E-17
3.798460E+03	1.029923E-14	3.597233E-17
3.799930E+03	1.022095E-14	3.569893E-17
3.801400E+03	1.014601E-14	3.543717E-17
3.802870E+03	1.006036E-14	3.513802E-17
3.804340E+03	9.969016E-15	3.481898E-17
3.805810E+03	9.876423E-15	3.449558E-17
3.807280E+03	9.782016E-15	3.416584E-17
3.808750E+03	9.687882E-15	3.383706E-17
3.810220E+03	9.592216E-15	3.350292E-17
3.811690E+03	9.495849E-15	3.316634E-17
3.813160E+03	9.399757E-15	3.283072E-17
3.814630E+03	9.307269E-15	3.250768E-17
3.816100E+03	9.217138E-15	3.219288E-17
3.817570E+03	9.120336E-15	3.185478E-17
3.819040E+03	9.024641E-15	3.152054E-17
3.820510E+03	8.936441E-15	3.121248E-17
3.821980E+03	8.851430E-15	3.091556E-17
3.823450E+03	8.775442E-15	3.065016E-17
3.824920E+03	8.713617E-15	3.043422E-17
3.826390E+03	8.648177E-15	3.020566E-17
3.827860E+03	8.569401E-15	2.993052E-17
3.829330E+03	8.495621E-15	2.967282E-17
3.830800E+03	8.431560E-15	2.944907E-17
3.832270E+03	8.367079E-15	2.922386E-17
3.833740E+03	8.302594E-15	2.899863E-17
3.835210E+03	8.246717E-15	2.880347E-17
3.836680E+03	8.201810E-15	2.864662E-17
3.838150E+03	8.156345E-15	2.848783E-17
3.839620E+03	8.116573E-15	2.834891E-17
3.841090E+03	8.084437E-15	2.823667E-17
3.842560E+03	8.048271E-15	2.811036E-17
3.844030E+03	8.014881E-15	2.799373E-17
3.845500E+03	7.988849E-15	2.790281E-17
3.846970E+03	7.965872E-15	2.782256E-17
3.848440E+03	7.949422E-15	2.776510E-17
3.849910E+03	7.933525E-15	2.770958E-17
3.851380E+03	7.915821E-15	2.764774E-17
3.852850E+03	7.903809E-15	2.760579E-17
3.854320E+03	7.891518E-15	2.756286E-17
3.855790E+03	7.878393E-15	2.751702E-17
3.857260E+03	7.873183E-15	2.749882E-17
3.858730E+03	7.877973E-15	2.751555E-17
3.860200E+03	7.880679E-15	2.752500E-17
3.861670E+03	7.878520E-15	2.751746E-17
3.863140E+03	7.882611E-15	2.753175E-17
3.864610E+03	7.890035E-15	2.755768E-17
3.866080E+03	7.899680E-15	2.759137E-17
3.867550E+03	7.912242E-15	2.763524E-17
3.869020E+03	7.924801E-15	2.767911E-17
3.870490E+03	7.941249E-15	2.773656E-17
3.871960E+03	7.955750E-15	2.778721E-17
3.873430E+03	7.971500E-15	2.784222E-17
3.874900E+03	7.990862E-15	2.790984E-17
3.876370E+03	8.010777E-15	2.797940E-17
3.877840E+03	8.033331E-15	2.805817E-17
3.879310E+03	8.055467E-15	2.813549E-17
3.880780E+03	8.075378E-15	2.820503E-17
3.882250E+03	8.100011E-15	2.829107E-17
3.883720E+03	8.125755E-15	2.838098E-17
3.885190E+03	8.150802E-15	2.846847E-17
3.886660E+03	8.173486E-15	2.854770E-17
3.888130E+03	8.202004E-15	2.864730E-17
3.889600E+03	8.237190E-15	2.877019E-17
3.891070E+03	8.267233E-15	2.887513E-17
3.892540E+03	8.298802E-15	2.898539E-17
3.894010E+03	8.336345E-15	2.911652E-17
3.895480E+03	8.367218E-15	2.922435E-17
3.896950E+03	8.398367E-15	2.933314E-17
3.898420E+03	8.436877E-15	2.946765E-17
3.899890E+03	8.476081E-15	2.960458E-17
3.901360E+03	8.521119E-15	2.976188E-17
3.902830E+03	8.568935E-15	2.992889E-17
3.904300E+03	8.613136E-15	3.008327E-17
3.905770E+03	8.659003E-15	3.024347E-17
3.907240E+03	8.707786E-15	3.041386E-17
3.908710E+03	8.754205E-15	3.057598E-17
3.910180E+03	8.793675E-15	3.071384E-17
3.911650E+03	8.832032E-15	3.084781E-17
3.913120E+03	8.875667E-15	3.100022E-17
3.914590E+03	8.919856E-15	3.115456E-17
3.916060E+03	8.968074E-15	3.132297E-17
3.917530E+03	9.020457E-15	3.150593E-17
3.919000E+03	9.076589E-15	3.170198E-17
3.920470E+03	9.134248E-15	3.190337E-17
3.921940E+03	9.188154E-15	3.209165E-17
3.923410E+03	9.239140E-15	3.226973E-17
3.924880E+03	9.288317E-15	3.244149E-17
3.926350E+03	9.336243E-15	3.260888E-17
3.927820E+03	9.387362E-15	3.278742E-17
3.929290E+03	9.442508E-15	3.298003E-17
3.930760E+03	9.503209E-15	3.319204E-17
3.932230E+03	9.563630E-15	3.340308E-17
3.933700E+03	9.622799E-15	3.360974E-17
3.935170E+03	9.684467E-15	3.382513E-17
3.936640E+03	9.743353E-15	3.403080E-17
3.938110E+03	9.802236E-15	3.423646E-17
3.939580E+03	9.866397E-15	3.446056E-17
3.941050E+03	9.931250E-15	3.468707E-17
3.942520E+03	9.992493E-15	3.490098E-17
3.943990E+03	1.005275E-14	3.511144E-17
3.945460E+03	1.010912E-14	3.530833E-17
3.946930E+03	1.015785E-14	3.547853E-17
3.948400E+03	1.020727E-14	3.565114E-17
3.949870E+03	1.026585E-14	3.585574E-17
3.951340E+03	1.032693E-14	3.606909E-17
3.952810E+03	1.037524E-14	3.623780E-17
3.954280E+03	1.042811E-14	3.642248E-17
3.955750E+03	1.048516E-14	3.662173E-17
3.957220E+03	1.053415E-14	3.679282E-17
3.958690E+03	1.058229E-14	3.696099E-17
3.960160E+03	1.062878E-14	3.712335E-17
3.961630E+03	1.067623E-14	3.728907E-17
3.963100E+03	1.072576E-14	3.746208E-17
3.964570E+03	1.077028E-14	3.761757E-17
3.966040E+03	1.080869E-14	3.775172E-17
3.967510E+03	1.084710E-14	3.788587E-17
3.968980E+03	1.088772E-14	3.802777E-17
3.970450E+03	1.092904E-14	3.817208E-17
3.971920E+03	1.097064E-14	3.831737E-17
3.973390E+03	1.100806E-14	3.844807E-17
3.974860E+03	1.104548E-14	3.857878E-17
3.976330E+03	1.107999E-14	3.869928E-17
3.977800E+03	1.111128E-14	3.880860E-17
3.979270E+03	1.114703E-14	3.893344E-17
3.980740E+03	1.117861E-14	3.904374E-17
3.982210E+03	1.120392E-14	3.913216E-17
3.983680E+03	1.122869E-14	3.921866E-17
3.985150E+03	1.125192E-14	3.929980E-17
3.986620E+03	1.127028E-14	3.936393E-17
3.988090E+03	1.128337E-14	3.940965E-17
3.989560E+03	1.129436E-14	3.944804E-17
3.991030E+03	1.130369E-14	3.948061E-17
3.992500E+03	1.130913E-14	3.949961E-17
3.993970E+03	1.131123E-14	3.950697E-17
3.995440E+03	1.131319E-14	3.951379E-17
3.996910E+03	1.131570E-14	3.952257E-17
3.998380E+03	1.131654E-14	3.952552E-17
3.999850E+03	1.131363E-14	3.951535E-17
4.001320E+03	1.130836E-14	3.949694E-17
4.002790E+03	1.130295E-14	3.947804E-17
4.004260E+03	1.129795E-14	3.946056E-17
4.005730E+03	1.129711E-14	3.945766E-17
4.007200E+03	1.130183E-14	3.947411E-17
4.008670E+03	1.130890E-14	3.949883E-17
4.010140E+03	1.131375E-14	3.951577E-17
4.011610E+03	1.131902E-14	3.953417E-17
4.013080E+03	1.133429E-14	3.958749E-17
4.014550E+03	1.135121E-14	3.964661E-17
4.016020E+03	1.136813E-14	3.970569E-17
4.017490E+03	1.138894E-14	3.977838E-17
4.018960E+03	1.140628E-14	3.983893E-17
4.020430E+03	1.142597E-14	3.990771E-17
4.021900E+03	1.144955E-14	3.999007E-17
4.023370E+03	1.147312E-14	4.007240E-17
4.024840E+03	1.149710E-14	4.015616E-17
4.026310E+03	1.152290E-14	4.024624E-17
4.027780E+03	1.155035E-14	4.034212E-17
4.029250E+03	1.157961E-14	4.044432E-17
4.030720E+03	1.161163E-14	4.055616E-17
4.032190E+03	1.164435E-14	4.067045E-17
4.033660E+03	1.167498E-14	4.077744E-17
4.035130E+03	1.170506E-14	4.088248E-17
4.036600E+03	1.173596E-14	4.099043E-17
4.038070E+03	1.176631E-14	4.109642E-17
4.039540E+03	1.179484E-14	4.119606E-17
4.041010E+03	1.181949E-14	4.128216E-17
4.042480E+03	1.183843E-14	4.134832E-17
4.043950E+03	1.185863E-14	4.141888E-17
4.045420E+03	1.188173E-14	4.149957E-17
4.046890E+03	1.189887E-14	4.155941E-17
4.048360E+03	1.190726E-14	4.158872E-17
4.049830E+03	1.191591E-14	4.161894E-17
4.051300E+03	1.192416E-14	4.164773E-17
4.052770E+03	1.192351E-14	4.164546E-17
4.054240E+03	1.191773E-14	4.162527E-17
4.055710E+03	1.191318E-14	4.160941E-17
4.057180E+03	1.190323E-14	4.157464E-17
4.058650E+03	1.188314E-14	4.150447E-17
4.060120E+03	1.185680E-14	4.141250E-17
4.061590E+03	1.183130E-14	4.132341E-17
4.063060E+03	1.180773E-14	4.124109E-17
4.064530E+03	1.178000E-14	4.114422E-17
4.066000E+03	1.174769E-14	4.103138E-17
4.067470E+03	1.171024E-14	4.090059E-17
4.068940E+03	1.167126E-14	4.076445E-17
4.070410E+03	1.162590E-14	4.060600E-17
4.071880E+03	1.157693E-14	4.043498E-17
4.073350E+03	1.152726E-14	4.026150E-17
4.074820E+03	1.147219E-14	4.006914E-17
4.076290E+03	1.141544E-14	3.987095E-17
4.077760E+03	1.135899E-14	3.967376E-17
4.079230E+03	1.130501E-14	3.948525E-17
4.080700E+03	1.125313E-14	3.930403E-17
4.082170E+03	1.119750E-14	3.910971E-17
4.083640E+03	1.114561E-14	3.892849E-17
4.085110E+03	1.109609E-14	3.875554E-17
4.086580E+03	1.103935E-14	3.855736E-17
4.088050E+03	1.098261E-14	3.835917E-17
4.089520E+03	1.093086E-14	3.817844E-17
4.090990E+03	1.087981E-14	3.800014E-17
4.092460E+03	1.082890E-14	3.782231E-17
4.093930E+03	1.078340E-14	3.766338E-17
4.095400E+03	1.074094E-14	3.751510E-17
4.096870E+03	1.070446E-14	3.738768E-17
4.098340E+03	1.067214E-14	3.727479E-17
4.099810E+03	1.064356E-14	3.717497E-17
4.101280E+03	1.061900E-14	3.708920E-17
4.102750E+03	1.059375E-14	3.700100E-17
4.104220E+03	1.057529E-14	3.693654E-17
4.105690E+03	1.056072E-14	3.688564E-17
4.107160E+03	1.054684E-14	3.683715E-17
