#wls	flux	fluxerr
1.600000E+03	1.072351E-15	4.647847E-17
1.640000E+03	1.079956E-15	4.613038E-17
1.680000E+03	1.086942E-15	4.574305E-17
1.720000E+03	1.093385E-15	4.532133E-17
1.760000E+03	1.099129E-15	4.486065E-17
1.800000E+03	1.104189E-15	4.436365E-17
1.840000E+03	1.108414E-15	4.382653E-17
1.880000E+03	1.111617E-15	4.324455E-17
1.920000E+03	1.113629E-15	4.261416E-17
1.960000E+03	1.114116E-15	4.192612E-17
2.000000E+03	1.113035E-15	4.118284E-17
2.040000E+03	1.110646E-15	4.039797E-17
2.080000E+03	1.107845E-15	3.960714E-17
2.120000E+03	1.106091E-15	3.886363E-17
2.160000E+03	1.107031E-15	3.822363E-17
2.200000E+03	1.113024E-15	3.776367E-17
2.240000E+03	1.126997E-15	3.757385E-17
2.280000E+03	1.152231E-15	3.774931E-17
2.320000E+03	1.190224E-15	3.832011E-17
2.360000E+03	1.241014E-15	3.926628E-17
2.400000E+03	1.304435E-15	4.056183E-17
2.440000E+03	1.380296E-15	4.218082E-17
2.480000E+03	1.467994E-15	4.408598E-17
2.520000E+03	1.566914E-15	4.624122E-17
2.560000E+03	1.676129E-15	4.860300E-17
2.600000E+03	1.795014E-15	5.113850E-17
2.640000E+03	1.922724E-15	5.381021E-17
2.680000E+03	2.058273E-15	5.657854E-17
2.720000E+03	2.200353E-15	5.939738E-17
2.760000E+03	2.348038E-15	6.223341E-17
2.800000E+03	2.500992E-15	6.507068E-17
2.840000E+03	2.659318E-15	6.790521E-17
2.880000E+03	2.823420E-15	7.074078E-17
2.920000E+03	2.993633E-15	7.357848E-17
2.960000E+03	3.170342E-15	7.641736E-17
3.000000E+03	3.353474E-15	7.924346E-17
3.010000E+03	3.400155E-15	7.994403E-17
3.020000E+03	3.447267E-15	8.064353E-17
3.030000E+03	3.494722E-15	8.133970E-17
3.040000E+03	3.542506E-15	8.203203E-17
3.050000E+03	3.590674E-15	8.272160E-17
3.060000E+03	3.639070E-15	8.340461E-17
3.070000E+03	3.687818E-15	8.408380E-17
3.080000E+03	3.736831E-15	8.475699E-17
3.090000E+03	3.786096E-15	8.542369E-17
3.100000E+03	3.835596E-15	8.608338E-17
3.110000E+03	3.885385E-15	8.673714E-17
3.120000E+03	3.935309E-15	8.738135E-17
3.130000E+03	3.985351E-15	8.801553E-17
3.140000E+03	4.035640E-15	8.864240E-17
3.150000E+03	4.086020E-15	8.925841E-17
3.160000E+03	4.136478E-15	8.986319E-17
3.170000E+03	4.187002E-15	9.045637E-17
3.180000E+03	4.237584E-15	9.103769E-17
3.190000E+03	4.288212E-15	9.160681E-17
3.200000E+03	4.338809E-15	9.216205E-17
3.210000E+03	4.389368E-15	9.270320E-17
3.220000E+03	4.439886E-15	9.323014E-17
3.230000E+03	4.490290E-15	9.374134E-17
3.240000E+03	4.540582E-15	9.423679E-17
3.250000E+03	4.590765E-15	9.471659E-17
3.260000E+03	4.640776E-15	9.517942E-17
3.270000E+03	4.690558E-15	9.562413E-17
3.280000E+03	4.740124E-15	9.605107E-17
3.290000E+03	4.789494E-15	9.646068E-17
3.300000E+03	4.838693E-15	9.685347E-17
3.310000E+03	4.887548E-15	9.722606E-17
3.320000E+03	4.936232E-15	9.758199E-17
3.330000E+03	4.984655E-15	9.791952E-17
3.340000E+03	5.032803E-15	9.823848E-17
3.350000E+03	5.080743E-15	9.854024E-17
3.360000E+03	5.128547E-15	9.882628E-17
3.370000E+03	5.176239E-15	9.909710E-17
3.380000E+03	5.223784E-15	9.935210E-17
3.390000E+03	5.271299E-15	9.959357E-17
3.400000E+03	5.318919E-15	9.982403E-17
3.410000E+03	5.366726E-15	1.000450E-16
3.420000E+03	5.414822E-15	1.002584E-16
3.430000E+03	5.463327E-15	1.004663E-16
3.440000E+03	5.512377E-15	1.006711E-16
3.450000E+03	5.562252E-15	1.008776E-16
3.460000E+03	5.612979E-15	1.010862E-16
3.470000E+03	5.664911E-15	1.013029E-16
3.480000E+03	5.718051E-15	1.015272E-16
3.490000E+03	5.772568E-15	1.017619E-16
3.500000E+03	5.828447E-15	1.020062E-16
3.510000E+03	5.885628E-15	1.022586E-16
3.520000E+03	5.944067E-15	1.025180E-16
3.530000E+03	6.003665E-15	1.027822E-16
3.540000E+03	6.064211E-15	1.030472E-16
3.550000E+03	6.125526E-15	1.033094E-16
3.560000E+03	6.187417E-15	1.035653E-16
3.570000E+03	6.249693E-15	1.038112E-16
3.580000E+03	6.312058E-15	1.040419E-16
3.590000E+03	6.374510E-15	1.042573E-16
3.600000E+03	6.437017E-15	1.044566E-16
3.610000E+03	6.500432E-15	1.046534E-16
3.620000E+03	6.566112E-15	1.048688E-16
3.630000E+03	6.635253E-15	1.051208E-16
3.640000E+03	6.709081E-15	1.054271E-16
3.650000E+03	6.788498E-15	1.057998E-16
3.660000E+03	6.874154E-15	1.062465E-16
3.670000E+03	6.966256E-15	1.067676E-16
3.680000E+03	7.064442E-15	1.073547E-16
3.690000E+03	7.167765E-15	1.079909E-16
3.700000E+03	7.274381E-15	1.086464E-16
3.710000E+03	7.382005E-15	1.092856E-16
3.720000E+03	7.487780E-15	1.098658E-16
3.730000E+03	7.588579E-15	1.103421E-16
3.740000E+03	7.681303E-15	1.106713E-16
3.750000E+03	7.763205E-15	1.108171E-16
3.760000E+03	7.832215E-15	1.107543E-16
3.770000E+03	7.887204E-15	1.104720E-16
3.780000E+03	7.928166E-15	1.099755E-16
3.790000E+03	7.956280E-15	1.092865E-16
3.800000E+03	7.973848E-15	1.084413E-16
3.810000E+03	7.984103E-15	1.074877E-16
3.820000E+03	7.990918E-15	1.064802E-16
3.830000E+03	7.998548E-15	1.054763E-16
3.840000E+03	8.011003E-15	1.045278E-16
3.850000E+03	8.032236E-15	1.036839E-16
3.860000E+03	8.065401E-15	1.029809E-16
3.870000E+03	8.113055E-15	1.024463E-16
3.880000E+03	8.176783E-15	1.020936E-16
3.890000E+03	8.257369E-15	1.019256E-16
3.900000E+03	8.354807E-15	1.019351E-16
3.910000E+03	8.468100E-15	1.021028E-16
3.920000E+03	8.595598E-15	1.024022E-16
3.930000E+03	8.734773E-15	1.027973E-16
3.940000E+03	8.882677E-15	1.032490E-16
3.950000E+03	9.035484E-15	1.037096E-16
3.960000E+03	9.189475E-15	1.041349E-16
3.970000E+03	9.340417E-15	1.044773E-16
3.980000E+03	9.484457E-15	1.046959E-16
3.990000E+03	9.617696E-15	1.047516E-16
4.000000E+03	9.736887E-15	1.046148E-16
4.010000E+03	9.839230E-15	1.042627E-16
4.020000E+03	9.922499E-15	1.036800E-16
4.030000E+03	9.985038E-15	1.028591E-16
4.040000E+03	1.002582E-14	1.017995E-16
4.050000E+03	1.004408E-14	1.005042E-16
4.060000E+03	1.003990E-14	9.898504E-17
4.070000E+03	1.001343E-14	9.725460E-17
4.080000E+03	9.965559E-15	9.533231E-17
4.090000E+03	9.897222E-15	9.323763E-17
4.100000E+03	9.809762E-15	9.099325E-17
4.110000E+03	9.704579E-15	8.862157E-17
4.120000E+03	9.583388E-15	8.614695E-17
4.130000E+03	9.448205E-15	8.359535E-17
4.140000E+03	9.301532E-15	8.099578E-17
4.150000E+03	9.146252E-15	7.837898E-17
4.160000E+03	8.986005E-15	7.578038E-17
4.170000E+03	8.824874E-15	7.323707E-17
4.180000E+03	8.667582E-15	7.078906E-17
4.190000E+03	8.518989E-15	6.847502E-17
4.200000E+03	8.384082E-15	6.633217E-17
4.210000E+03	8.267407E-15	6.439197E-17
4.220000E+03	8.172735E-15	6.267801E-17
4.230000E+03	8.102936E-15	6.120567E-17
4.240000E+03	8.059472E-15	5.997912E-17
4.250000E+03	8.042542E-15	5.899325E-17
4.260000E+03	8.050965E-15	5.823369E-17
4.270000E+03	8.082120E-15	5.767708E-17
4.280000E+03	8.132451E-15	5.729532E-17
4.290000E+03	8.197683E-15	5.705738E-17
4.300000E+03	8.272682E-15	5.692847E-17
4.310000E+03	8.352206E-15	5.687517E-17
4.320000E+03	8.430561E-15	5.686286E-17
4.330000E+03	8.502560E-15	5.686180E-17
4.340000E+03	8.562949E-15	5.684277E-17
4.350000E+03	8.607356E-15	5.678281E-17
4.360000E+03	8.631954E-15	5.666239E-17
4.370000E+03	8.634031E-15	5.646848E-17
4.380000E+03	8.612402E-15	5.619667E-17
4.390000E+03	8.567020E-15	5.584674E-17
4.400000E+03	8.501656E-15	5.543993E-17
4.410000E+03	8.423173E-15	5.501626E-17
4.420000E+03	8.339176E-15	5.461997E-17
4.430000E+03	8.257518E-15	5.429704E-17
4.440000E+03	8.186157E-15	5.409491E-17
4.450000E+03	8.132384E-15	5.405791E-17
4.460000E+03	8.102439E-15	5.422516E-17
4.470000E+03	8.101192E-15	5.462843E-17
4.480000E+03	8.131753E-15	5.528951E-17
4.490000E+03	8.195090E-15	5.621711E-17
4.500000E+03	8.289978E-15	5.740588E-17
4.510000E+03	8.413041E-15	5.883590E-17
4.520000E+03	8.558872E-15	6.047253E-17
4.530000E+03	8.720647E-15	6.226986E-17
4.540000E+03	8.890132E-15	6.417000E-17
4.550000E+03	9.058751E-15	6.611006E-17
4.560000E+03	9.217548E-15	6.802153E-17
4.570000E+03	9.358163E-15	6.983731E-17
4.580000E+03	9.473016E-15	7.149325E-17
4.590000E+03	9.555865E-15	7.293267E-17
4.600000E+03	9.601876E-15	7.410756E-17
4.610000E+03	9.608269E-15	7.498422E-17
4.620000E+03	9.574507E-15	7.554578E-17
4.630000E+03	9.501965E-15	7.579056E-17
4.640000E+03	9.394141E-15	7.573472E-17
4.650000E+03	9.256347E-15	7.541068E-17
4.660000E+03	9.095445E-15	7.486578E-17
4.670000E+03	8.919209E-15	7.415760E-17
4.680000E+03	8.736116E-15	7.335254E-17
4.690000E+03	8.554903E-15	7.252229E-17
4.700000E+03	8.384117E-15	7.173993E-17
4.710000E+03	8.231527E-15	7.107466E-17
4.720000E+03	8.104398E-15	7.059374E-17
4.730000E+03	8.008859E-15	7.035655E-17
4.740000E+03	7.949820E-15	7.041332E-17
4.750000E+03	7.930829E-15	7.080322E-17
4.760000E+03	7.953770E-15	7.155107E-17
4.770000E+03	8.018628E-15	7.266453E-17
4.780000E+03	8.123333E-15	7.413200E-17
4.790000E+03	8.263438E-15	7.591899E-17
4.800000E+03	8.432449E-15	7.797052E-17
4.810000E+03	8.621903E-15	8.021131E-17
4.820000E+03	8.821946E-15	8.255083E-17
4.830000E+03	9.021797E-15	8.488750E-17
4.840000E+03	9.210547E-15	8.711623E-17
4.850000E+03	9.378120E-15	8.913790E-17
4.860000E+03	9.515686E-15	9.086365E-17
4.870000E+03	9.616715E-15	9.222563E-17
4.880000E+03	9.677227E-15	9.318001E-17
4.890000E+03	9.696215E-15	9.371177E-17
4.900000E+03	9.675191E-15	9.383085E-17
4.910000E+03	9.617815E-15	9.356899E-17
4.920000E+03	9.529534E-15	9.297647E-17
4.930000E+03	9.416455E-15	9.211117E-17
4.940000E+03	9.284537E-15	9.103062E-17
4.950000E+03	9.139346E-15	8.978943E-17
4.960000E+03	8.985489E-15	8.843341E-17
4.970000E+03	8.826656E-15	8.699988E-17
4.980000E+03	8.665636E-15	8.551763E-17
4.990000E+03	8.504460E-15	8.400811E-17
5.000000E+03	8.344734E-15	8.248871E-17
5.010000E+03	8.187890E-15	8.097511E-17
5.020000E+03	8.035500E-15	7.948440E-17
5.030000E+03	7.889038E-15	7.803266E-17
5.040000E+03	7.750184E-15	7.663790E-17
5.050000E+03	7.620842E-15	7.532027E-17
5.060000E+03	7.502697E-15	7.409757E-17
5.070000E+03	7.397356E-15	7.298664E-17
5.080000E+03	7.306274E-15	7.200261E-17
5.090000E+03	7.230305E-15	7.115446E-17
5.100000E+03	7.169957E-15	7.044752E-17
5.110000E+03	7.125098E-15	6.988066E-17
5.120000E+03	7.095280E-15	6.944949E-17
5.130000E+03	7.079406E-15	6.914315E-17
5.140000E+03	7.076057E-15	6.894765E-17
5.150000E+03	7.083656E-15	6.884744E-17
5.160000E+03	7.100245E-15	6.882337E-17
5.170000E+03	7.123851E-15	6.885632E-17
5.180000E+03	7.152592E-15	6.892821E-17
5.190000E+03	7.184569E-15	6.902100E-17
5.200000E+03	7.218272E-15	6.912067E-17
5.210000E+03	7.252226E-15	6.921371E-17
5.220000E+03	7.285262E-15	6.928976E-17
5.230000E+03	7.316500E-15	6.934140E-17
5.240000E+03	7.345111E-15	6.936188E-17
5.250000E+03	7.370548E-15	6.934725E-17
5.260000E+03	7.392317E-15	6.929419E-17
5.270000E+03	7.410098E-15	6.920113E-17
5.280000E+03	7.423461E-15	6.906557E-17
5.290000E+03	7.432377E-15	6.888880E-17
5.300000E+03	7.436783E-15	6.867183E-17
5.310000E+03	7.436625E-15	6.841582E-17
5.320000E+03	7.432057E-15	6.812379E-17
5.330000E+03	7.423192E-15	6.779842E-17
5.340000E+03	7.410128E-15	6.744222E-17
5.350000E+03	7.393258E-15	6.706031E-17
5.360000E+03	7.372809E-15	6.665628E-17
5.370000E+03	7.349447E-15	6.623758E-17
5.380000E+03	7.323700E-15	6.581031E-17
5.390000E+03	7.296487E-15	6.538399E-17
5.400000E+03	7.268519E-15	6.496613E-17
5.410000E+03	7.240476E-15	6.456384E-17
5.420000E+03	7.212833E-15	6.418233E-17
5.430000E+03	7.185823E-15	6.382440E-17
5.440000E+03	7.159321E-15	6.348937E-17
5.450000E+03	7.132966E-15	6.317439E-17
5.460000E+03	7.106161E-15	6.287452E-17
5.470000E+03	7.078423E-15	6.258527E-17
5.480000E+03	7.049671E-15	6.230478E-17
5.490000E+03	7.020034E-15	6.203297E-17
5.500000E+03	6.989692E-15	6.177015E-17
5.510000E+03	6.958334E-15	6.151228E-17
5.520000E+03	6.925711E-15	6.125588E-17
5.530000E+03	6.891894E-15	6.100028E-17
5.540000E+03	6.857238E-15	6.074730E-17
5.550000E+03	6.822213E-15	6.049984E-17
5.560000E+03	6.787297E-15	6.026090E-17
5.570000E+03	6.752756E-15	6.003161E-17
5.580000E+03	6.718992E-15	5.981441E-17
5.590000E+03	6.685951E-15	5.960769E-17
5.600000E+03	6.653533E-15	5.940948E-17
5.610000E+03	6.621474E-15	5.921638E-17
5.620000E+03	6.589323E-15	5.902334E-17
5.630000E+03	6.556649E-15	5.882551E-17
5.640000E+03	6.523036E-15	5.861819E-17
5.650000E+03	6.488162E-15	5.839753E-17
5.660000E+03	6.451728E-15	5.815996E-17
5.670000E+03	6.413903E-15	5.790613E-17
5.680000E+03	6.374754E-15	5.763584E-17
5.690000E+03	6.334853E-15	5.735352E-17
5.700000E+03	6.294925E-15	5.706509E-17
5.710000E+03	6.255886E-15	5.677825E-17
5.720000E+03	6.218652E-15	5.650080E-17
5.730000E+03	6.184323E-15	5.624230E-17
5.740000E+03	6.154030E-15	5.601265E-17
5.750000E+03	6.128588E-15	5.581891E-17
5.760000E+03	6.108792E-15	5.566801E-17
5.770000E+03	6.095031E-15	5.556317E-17
5.780000E+03	6.087430E-15	5.550521E-17
5.790000E+03	6.085702E-15	5.549116E-17
5.800000E+03	6.089284E-15	5.551551E-17
5.810000E+03	6.097319E-15	5.557005E-17
5.820000E+03	6.108661E-15	5.564396E-17
5.830000E+03	6.122168E-15	5.572643E-17
5.840000E+03	6.136499E-15	5.580488E-17
5.850000E+03	6.150554E-15	5.586901E-17
5.860000E+03	6.163515E-15	5.591111E-17
5.870000E+03	6.174660E-15	5.592447E-17
5.880000E+03	6.183767E-15	5.590694E-17
5.890000E+03	6.190749E-15	5.585770E-17
5.900000E+03	6.195866E-15	5.577908E-17
5.910000E+03	6.199326E-15	5.567301E-17
5.920000E+03	6.201606E-15	5.554386E-17
5.930000E+03	6.203076E-15	5.539503E-17
5.940000E+03	6.204142E-15	5.523028E-17
5.950000E+03	6.205221E-15	5.505342E-17
5.960000E+03	6.206447E-15	5.486579E-17
5.970000E+03	6.208066E-15	5.466971E-17
5.980000E+03	6.210155E-15	5.446602E-17
5.990000E+03	6.212640E-15	5.425428E-17
6.000000E+03	6.215506E-15	5.403458E-17
6.010000E+03	6.218553E-15	5.380548E-17
6.020000E+03	6.221691E-15	5.356654E-17
6.030000E+03	6.224755E-15	5.331675E-17
6.040000E+03	6.227520E-15	5.305463E-17
6.050000E+03	6.229919E-15	5.278016E-17
6.060000E+03	6.231773E-15	5.249245E-17
6.070000E+03	6.233148E-15	5.219270E-17
6.080000E+03	6.234010E-15	5.188137E-17
6.090000E+03	6.234290E-15	5.155865E-17
6.100000E+03	6.234015E-15	5.122561E-17
6.110000E+03	6.233358E-15	5.088456E-17
6.120000E+03	6.232253E-15	5.053589E-17
6.130000E+03	6.230703E-15	5.018062E-17
6.140000E+03	6.228538E-15	4.981843E-17
6.150000E+03	6.225455E-15	4.944804E-17
6.160000E+03	6.221150E-15	4.906831E-17
6.170000E+03	6.214912E-15	4.867502E-17
6.180000E+03	6.206233E-15	4.826572E-17
6.190000E+03	6.194353E-15	4.783619E-17
6.200000E+03	6.178747E-15	4.738424E-17
6.210000E+03	6.158800E-15	4.690708E-17
6.220000E+03	6.133944E-15	4.640248E-17
6.230000E+03	6.103644E-15	4.586852E-17
6.240000E+03	6.067396E-15	4.530343E-17
6.250000E+03	6.025370E-15	4.471027E-17
6.260000E+03	5.978724E-15	4.409932E-17
6.270000E+03	5.928374E-15	4.347878E-17
6.280000E+03	5.874928E-15	4.285443E-17
6.290000E+03	5.818580E-15	4.222886E-17
6.300000E+03	5.759460E-15	4.160415E-17
6.310000E+03	5.697462E-15	4.098056E-17
6.320000E+03	5.632836E-15	4.036083E-17
6.330000E+03	5.566202E-15	3.975024E-17
6.340000E+03	5.498963E-15	3.915945E-17
6.350000E+03	5.433005E-15	3.860239E-17
6.360000E+03	5.371274E-15	3.810031E-17
6.370000E+03	5.317263E-15	3.767823E-17
6.380000E+03	5.275006E-15	3.736498E-17
6.390000E+03	5.248576E-15	3.718983E-17
6.400000E+03	5.241985E-15	3.718205E-17
6.410000E+03	5.258606E-15	3.736695E-17
6.420000E+03	5.300873E-15	3.776398E-17
6.430000E+03	5.370018E-15	3.838496E-17
6.440000E+03	5.465625E-15	3.923082E-17
6.450000E+03	5.585890E-15	4.029272E-17
6.460000E+03	5.727183E-15	4.154787E-17
6.470000E+03	5.884907E-15	4.296621E-17
6.480000E+03	6.053563E-15	4.451057E-17
6.490000E+03	6.227538E-15	4.614196E-17
6.500000E+03	6.402285E-15	4.782806E-17
6.510000E+03	6.574536E-15	4.954491E-17
6.520000E+03	6.743699E-15	5.128781E-17
6.530000E+03	6.911507E-15	5.306948E-17
6.540000E+03	7.076602E-15	5.487895E-17
6.550000E+03	7.230292E-15	5.664716E-17
6.560000E+03	7.364983E-15	5.831066E-17
6.570000E+03	7.474827E-15	5.981707E-17
6.580000E+03	7.555829E-15	6.112657E-17
6.590000E+03	7.605363E-15	6.220872E-17
6.600000E+03	7.622839E-15	6.304856E-17
6.610000E+03	7.608657E-15	6.363891E-17
6.620000E+03	7.564902E-15	6.398672E-17
6.630000E+03	7.494203E-15	6.410423E-17
6.640000E+03	7.400240E-15	6.401375E-17
6.650000E+03	7.286926E-15	6.374099E-17
6.660000E+03	7.158594E-15	6.331697E-17
6.670000E+03	7.019434E-15	6.277324E-17
6.680000E+03	6.873310E-15	6.214016E-17
6.690000E+03	6.723734E-15	6.144658E-17
6.700000E+03	6.574060E-15	6.072138E-17
6.710000E+03	6.426802E-15	5.998706E-17
6.720000E+03	6.284032E-15	5.926311E-17
6.730000E+03	6.147193E-15	5.856390E-17
6.740000E+03	6.017432E-15	5.790164E-17
6.750000E+03	5.895370E-15	5.728393E-17
6.760000E+03	5.781092E-15	5.671342E-17
6.770000E+03	5.674787E-15	5.619384E-17
6.780000E+03	5.576169E-15	5.572431E-17
6.790000E+03	5.484841E-15	5.530270E-17
6.800000E+03	5.400599E-15	5.492874E-17
6.810000E+03	5.322882E-15	5.459841E-17
6.820000E+03	5.251313E-15	5.430940E-17
6.830000E+03	5.185639E-15	5.406054E-17
6.840000E+03	5.125472E-15	5.384916E-17
6.850000E+03	5.070544E-15	5.367369E-17
6.860000E+03	5.020523E-15	5.353178E-17
6.870000E+03	4.975329E-15	5.342367E-17
6.880000E+03	4.934537E-15	5.334580E-17
6.890000E+03	4.897945E-15	5.329688E-17
6.900000E+03	4.865148E-15	5.327334E-17
6.910000E+03	4.835786E-15	5.327192E-17
6.920000E+03	4.809546E-15	5.328980E-17
6.930000E+03	4.785847E-15	5.332104E-17
6.940000E+03	4.764413E-15	5.336296E-17
6.950000E+03	4.744654E-15	5.340927E-17
6.960000E+03	4.726153E-15	5.345549E-17
6.970000E+03	4.708681E-15	5.349918E-17
6.980000E+03	4.691657E-15	5.353382E-17
6.990000E+03	4.674943E-15	5.355786E-17
7.000000E+03	4.658220E-15	5.356767E-17
7.010000E+03	4.641301E-15	5.356109E-17
7.020000E+03	4.623977E-15	5.353568E-17
7.030000E+03	4.606329E-15	5.349235E-17
7.040000E+03	4.588168E-15	5.342891E-17
7.050000E+03	4.569582E-15	5.334641E-17
7.060000E+03	4.550611E-15	5.324532E-17
7.070000E+03	4.531235E-15	5.312547E-17
7.080000E+03	4.511524E-15	5.298775E-17
7.090000E+03	4.491548E-15	5.283307E-17
7.100000E+03	4.471451E-15	5.266323E-17
7.110000E+03	4.451131E-15	5.247715E-17
7.120000E+03	4.430794E-15	5.227740E-17
7.130000E+03	4.410331E-15	5.206285E-17
7.140000E+03	4.389950E-15	5.183609E-17
7.150000E+03	4.369555E-15	5.159616E-17
7.160000E+03	4.349296E-15	5.134502E-17
7.170000E+03	4.329258E-15	5.108385E-17
7.180000E+03	4.309456E-15	5.081302E-17
7.190000E+03	4.290064E-15	5.053474E-17
7.200000E+03	4.271090E-15	5.024931E-17
7.210000E+03	4.252690E-15	4.995874E-17
7.220000E+03	4.234921E-15	4.966386E-17
7.230000E+03	4.217739E-15	4.936434E-17
7.240000E+03	4.201160E-15	4.906051E-17
7.250000E+03	4.185250E-15	4.875333E-17
7.260000E+03	4.169983E-15	4.844263E-17
7.270000E+03	4.155241E-15	4.812719E-17
7.280000E+03	4.141043E-15	4.780741E-17
7.290000E+03	4.127251E-15	4.748185E-17
7.300000E+03	4.113877E-15	4.715082E-17
7.310000E+03	4.100780E-15	4.681286E-17
7.320000E+03	4.087972E-15	4.646834E-17
7.330000E+03	4.075398E-15	4.611680E-17
7.340000E+03	4.063008E-15	4.575790E-17
7.350000E+03	4.050682E-15	4.539051E-17
7.360000E+03	4.038469E-15	4.501542E-17
7.370000E+03	4.026423E-15	4.463349E-17
7.380000E+03	4.014379E-15	4.424312E-17
7.390000E+03	4.002410E-15	4.384541E-17
7.400000E+03	3.990599E-15	4.344153E-17
7.410000E+03	3.978801E-15	4.303018E-17
7.420000E+03	3.967185E-15	4.261348E-17
7.430000E+03	3.955686E-15	4.219101E-17
7.440000E+03	3.944319E-15	4.176323E-17
7.450000E+03	3.933171E-15	4.133137E-17
7.460000E+03	3.922097E-15	4.089420E-17
7.470000E+03	3.911258E-15	4.045374E-17
7.480000E+03	3.900502E-15	4.000873E-17
7.490000E+03	3.889986E-15	3.956113E-17
7.500000E+03	3.879630E-15	3.911046E-17
7.510000E+03	3.869431E-15	3.865706E-17
7.520000E+03	3.859463E-15	3.820204E-17
7.530000E+03	3.849645E-15	3.774496E-17
7.540000E+03	3.839972E-15	3.728620E-17
7.550000E+03	3.830526E-15	3.682695E-17
7.560000E+03	3.821306E-15	3.636761E-17
7.570000E+03	3.812240E-15	3.590768E-17
7.580000E+03	3.803332E-15	3.544736E-17
7.590000E+03	3.794671E-15	3.498765E-17
7.600000E+03	3.786190E-15	3.452812E-17
7.610000E+03	3.778060E-15	3.407053E-17
7.620000E+03	3.770047E-15	3.361299E-17
7.630000E+03	3.762359E-15	3.315764E-17
7.640000E+03	3.754797E-15	3.270305E-17
7.650000E+03	3.747401E-15	3.224993E-17
7.660000E+03	3.740133E-15	3.179840E-17
7.670000E+03	3.732882E-15	3.134797E-17
7.680000E+03	3.725783E-15	3.090035E-17
7.690000E+03	3.718655E-15	3.045463E-17
7.700000E+03	3.711562E-15	3.001202E-17
7.710000E+03	3.704574E-15	2.957381E-17
7.720000E+03	3.697522E-15	2.913946E-17
7.730000E+03	3.690558E-15	2.871107E-17
7.740000E+03	3.683596E-15	2.828891E-17
7.750000E+03	3.676630E-15	2.787397E-17
7.760000E+03	3.669732E-15	2.746792E-17
