#wls	flux	fluxerr
1.600000E+03	5.492411E-18	3.221849E-19
1.640000E+03	5.646187E-18	3.307595E-19
1.680000E+03	5.804608E-18	3.395691E-19
1.720000E+03	5.969467E-18	3.487158E-19
1.760000E+03	6.140870E-18	3.582030E-19
1.800000E+03	6.315339E-18	3.678248E-19
1.840000E+03	6.498256E-18	3.778920E-19
1.880000E+03	6.686102E-18	3.881963E-19
1.920000E+03	6.880726E-18	3.988419E-19
1.960000E+03	7.082178E-18	4.098278E-19
2.000000E+03	7.288595E-18	4.210427E-19
2.040000E+03	7.501848E-18	4.325910E-19
2.080000E+03	7.721940E-18	4.444686E-19
2.120000E+03	7.948852E-18	4.566701E-19
2.160000E+03	8.184540E-18	4.693033E-19
2.200000E+03	8.424980E-18	4.821326E-19
2.240000E+03	8.674098E-18	4.953781E-19
2.280000E+03	8.929795E-18	5.089145E-19
2.320000E+03	9.191938E-18	5.227292E-19
2.360000E+03	9.462475E-18	5.369276E-19
2.400000E+03	9.741285E-18	5.514968E-19
2.440000E+03	1.002608E-17	5.663009E-19
2.480000E+03	1.032094E-17	5.815652E-19
2.520000E+03	1.062355E-17	5.971511E-19
2.560000E+03	1.093146E-17	6.129151E-19
2.600000E+03	1.125102E-17	6.292065E-19
2.640000E+03	1.157757E-17	6.457562E-19
2.680000E+03	1.191303E-17	6.626651E-19
2.720000E+03	1.225712E-17	6.799082E-19
2.760000E+03	1.260950E-17	6.974594E-19
2.800000E+03	1.296982E-17	7.152910E-19
2.840000E+03	1.334232E-17	7.336280E-19
2.880000E+03	1.372438E-17	7.523157E-19
2.920000E+03	1.411558E-17	7.713217E-19
2.960000E+03	1.451552E-17	7.906149E-19
3.000000E+03	1.492849E-17	8.104182E-19
3.010000E+03	1.503293E-17	8.154014E-19
3.020000E+03	1.513946E-17	8.204855E-19
3.030000E+03	1.524574E-17	8.255425E-19
3.040000E+03	1.535175E-17	8.305710E-19
3.050000E+03	1.545986E-17	8.356998E-19
3.060000E+03	1.556769E-17	8.407995E-19
3.070000E+03	1.567760E-17	8.459981E-19
3.080000E+03	1.578722E-17	8.511664E-19
3.090000E+03	1.589654E-17	8.563044E-19
3.100000E+03	1.600793E-17	8.615393E-19
3.110000E+03	1.612138E-17	8.668711E-19
3.120000E+03	1.623451E-17	8.721704E-19
3.130000E+03	1.634729E-17	8.774363E-19
3.140000E+03	1.646214E-17	8.827979E-19
3.150000E+03	1.657663E-17	8.881251E-19
3.160000E+03	1.669316E-17	8.935463E-19
3.170000E+03	1.680932E-17	8.989319E-19
3.180000E+03	1.692752E-17	9.044107E-19
3.190000E+03	1.704773E-17	9.099812E-19
3.200000E+03	1.716515E-17	9.153868E-19
3.210000E+03	1.728698E-17	9.210111E-19
3.220000E+03	1.740843E-17	9.265983E-19
3.230000E+03	1.752945E-17	9.321464E-19
3.240000E+03	1.765246E-17	9.377835E-19
3.250000E+03	1.777747E-17	9.435095E-19
3.260000E+03	1.790204E-17	9.491948E-19
3.270000E+03	1.802619E-17	9.548406E-19
3.280000E+03	1.815229E-17	9.605721E-19
3.290000E+03	1.828036E-17	9.663901E-19
3.300000E+03	1.841038E-17	9.722932E-19
3.310000E+03	1.853753E-17	9.780267E-19
3.320000E+03	1.866904E-17	9.839712E-19
3.330000E+03	1.880006E-17	9.898716E-19
3.340000E+03	1.893303E-17	9.958558E-19
3.350000E+03	1.906550E-17	1.001795E-18
3.360000E+03	1.919990E-17	1.007816E-18
3.370000E+03	1.933620E-17	1.013917E-18
3.380000E+03	1.947201E-17	1.019973E-18
3.390000E+03	1.960973E-17	1.026109E-18
3.400000E+03	1.974934E-17	1.032324E-18
3.410000E+03	1.988843E-17	1.038491E-18
3.420000E+03	2.002941E-17	1.044736E-18
3.430000E+03	2.016987E-17	1.050933E-18
3.440000E+03	2.031460E-17	1.057333E-18
3.450000E+03	2.045880E-17	1.063682E-18
3.460000E+03	2.060247E-17	1.069983E-18
3.470000E+03	2.075039E-17	1.076483E-18
3.480000E+03	2.089778E-17	1.082933E-18
3.490000E+03	2.104702E-17	1.089456E-18
3.500000E+03	2.119570E-17	1.095929E-18
3.510000E+03	2.134622E-17	1.102474E-18
3.520000E+03	2.149860E-17	1.109091E-18
3.530000E+03	2.165280E-17	1.115780E-18
3.540000E+03	2.180884E-17	1.122539E-18
3.550000E+03	2.196430E-17	1.129245E-18
3.560000E+03	2.212159E-17	1.136021E-18
3.570000E+03	2.228070E-17	1.142866E-18
3.580000E+03	2.243924E-17	1.149657E-18
3.590000E+03	2.260197E-17	1.156639E-18
3.600000E+03	2.276413E-17	1.163566E-18
3.610000E+03	2.292810E-17	1.170559E-18
3.620000E+03	2.309387E-17	1.177619E-18
3.630000E+03	2.325905E-17	1.184623E-18
3.640000E+03	2.342842E-17	1.191815E-18
3.650000E+03	2.359720E-17	1.198949E-18
3.660000E+03	2.376777E-17	1.206148E-18
3.670000E+03	2.394013E-17	1.213410E-18
3.680000E+03	2.411427E-17	1.220736E-18
3.690000E+03	2.429020E-17	1.228124E-18
3.700000E+03	2.446553E-17	1.235453E-18
3.710000E+03	2.464501E-17	1.242964E-18
3.720000E+03	2.482389E-17	1.250415E-18
3.730000E+03	2.500454E-17	1.257927E-18
3.740000E+03	2.518695E-17	1.265499E-18
3.750000E+03	2.537112E-17	1.273129E-18
3.760000E+03	2.555706E-17	1.280818E-18
3.770000E+03	2.574474E-17	1.288564E-18
3.780000E+03	2.593416E-17	1.296366E-18
3.790000E+03	2.612296E-17	1.304107E-18
3.800000E+03	2.631586E-17	1.312021E-18
3.810000E+03	2.650814E-17	1.319872E-18
3.820000E+03	2.670213E-17	1.327777E-18
3.830000E+03	2.690018E-17	1.335852E-18
3.840000E+03	2.709758E-17	1.343862E-18
3.850000E+03	2.729668E-17	1.351923E-18
3.860000E+03	2.749746E-17	1.360034E-18
3.870000E+03	2.769990E-17	1.368194E-18
3.880000E+03	2.790399E-17	1.376402E-18
3.890000E+03	2.810973E-17	1.384657E-18
3.900000E+03	2.831710E-17	1.392957E-18
3.910000E+03	2.852373E-17	1.401187E-18
3.920000E+03	2.873428E-17	1.409574E-18
3.930000E+03	2.894639E-17	1.418002E-18
3.940000E+03	2.915771E-17	1.426356E-18
3.950000E+03	2.937288E-17	1.434862E-18
3.960000E+03	2.958953E-17	1.443404E-18
3.970000E+03	2.980531E-17	1.451867E-18
3.980000E+03	3.002482E-17	1.460474E-18
3.990000E+03	3.024340E-17	1.468999E-18
4.000000E+03	3.046563E-17	1.477663E-18
4.010000E+03	3.068684E-17	1.486241E-18
4.020000E+03	3.090931E-17	1.494841E-18
4.030000E+03	3.113527E-17	1.503571E-18
4.040000E+03	3.136008E-17	1.512207E-18
4.050000E+03	3.158596E-17	1.520856E-18
4.060000E+03	3.181286E-17	1.529514E-18
4.070000E+03	3.204298E-17	1.538289E-18
4.080000E+03	3.227169E-17	1.546955E-18
4.090000E+03	3.250117E-17	1.555619E-18
4.100000E+03	3.273135E-17	1.564276E-18
4.110000E+03	3.296212E-17	1.572921E-18
4.120000E+03	3.319340E-17	1.581550E-18
4.130000E+03	3.342279E-17	1.590048E-18
4.140000E+03	3.365473E-17	1.598627E-18
4.150000E+03	3.388682E-17	1.607173E-18
4.160000E+03	3.411893E-17	1.615678E-18
4.170000E+03	3.434864E-17	1.624028E-18
4.180000E+03	3.458035E-17	1.632433E-18
4.190000E+03	3.480937E-17	1.640669E-18
4.200000E+03	3.503778E-17	1.648836E-18
4.210000E+03	3.526542E-17	1.656925E-18
4.220000E+03	3.549210E-17	1.664929E-18
4.230000E+03	3.571759E-17	1.672836E-18
4.240000E+03	3.594172E-17	1.680639E-18
4.250000E+03	3.616426E-17	1.688327E-18
4.260000E+03	3.638273E-17	1.695785E-18
4.270000E+03	3.660136E-17	1.703210E-18
4.280000E+03	3.681546E-17	1.710386E-18
4.290000E+03	3.702699E-17	1.717402E-18
4.300000E+03	3.723566E-17	1.724247E-18
4.310000E+03	3.744121E-17	1.730910E-18
4.320000E+03	3.764118E-17	1.737276E-18
4.330000E+03	3.783748E-17	1.743437E-18
4.340000E+03	3.803200E-17	1.749479E-18
4.350000E+03	3.821796E-17	1.755091E-18
4.360000E+03	3.840165E-17	1.760563E-18
4.370000E+03	3.857849E-17	1.765687E-18
4.380000E+03	3.875047E-17	1.770555E-18
4.390000E+03	3.891748E-17	1.775164E-18
4.400000E+03	3.907945E-17	1.779510E-18
4.410000E+03	3.923422E-17	1.783497E-18
4.420000E+03	3.938403E-17	1.787229E-18
4.430000E+03	3.952682E-17	1.790613E-18
4.440000E+03	3.966697E-17	1.793849E-18
4.450000E+03	3.979834E-17	1.796660E-18
4.460000E+03	3.992740E-17	1.799340E-18
4.470000E+03	4.005016E-17	1.801708E-18
4.480000E+03	4.016891E-17	1.803871E-18
4.490000E+03	4.028180E-17	1.805744E-18
4.500000E+03	4.039110E-17	1.807431E-18
4.510000E+03	4.049498E-17	1.808850E-18
4.520000E+03	4.059568E-17	1.810103E-18
4.530000E+03	4.069139E-17	1.811109E-18
4.540000E+03	4.078433E-17	1.811969E-18
4.550000E+03	4.087469E-17	1.812690E-18
4.560000E+03	4.096067E-17	1.813193E-18
4.570000E+03	4.104247E-17	1.813489E-18
4.580000E+03	4.112226E-17	1.813672E-18
4.590000E+03	4.119824E-17	1.813666E-18
4.600000E+03	4.127061E-17	1.813478E-18
4.610000E+03	4.134149E-17	1.813203E-18
4.620000E+03	4.141100E-17	1.812846E-18
4.630000E+03	4.147550E-17	1.812247E-18
4.640000E+03	4.153895E-17	1.811581E-18
4.650000E+03	4.159962E-17	1.810772E-18
4.660000E+03	4.165951E-17	1.809909E-18
4.670000E+03	4.171690E-17	1.808915E-18
4.680000E+03	4.177192E-17	1.807797E-18
4.690000E+03	4.182473E-17	1.806561E-18
4.700000E+03	4.187726E-17	1.805294E-18
4.710000E+03	4.192600E-17	1.803841E-18
4.720000E+03	4.197470E-17	1.802365E-18
4.730000E+03	4.202167E-17	1.800795E-18
4.740000E+03	4.206701E-17	1.799133E-18
4.750000E+03	4.211261E-17	1.797461E-18
4.760000E+03	4.215501E-17	1.795632E-18
4.770000E+03	4.219788E-17	1.793801E-18
4.780000E+03	4.223775E-17	1.791822E-18
4.790000E+03	4.227825E-17	1.789848E-18
4.800000E+03	4.231598E-17	1.787737E-18
4.810000E+03	4.235450E-17	1.785636E-18
4.820000E+03	4.239042E-17	1.783406E-18
4.830000E+03	4.242727E-17	1.781193E-18
4.840000E+03	4.246172E-17	1.778858E-18
4.850000E+03	4.249723E-17	1.776545E-18
4.860000E+03	4.253051E-17	1.774118E-18
4.870000E+03	4.256330E-17	1.771649E-18
4.880000E+03	4.259567E-17	1.769141E-18
4.890000E+03	4.262770E-17	1.766596E-18
4.900000E+03	4.265945E-17	1.764018E-18
4.910000E+03	4.268934E-17	1.761342E-18
4.920000E+03	4.271907E-17	1.758637E-18
4.930000E+03	4.274872E-17	1.755906E-18
4.940000E+03	4.277832E-17	1.753152E-18
4.950000E+03	4.280792E-17	1.750375E-18
4.960000E+03	4.283602E-17	1.747514E-18
4.970000E+03	4.286424E-17	1.744635E-18
4.980000E+03	4.289262E-17	1.741741E-18
4.990000E+03	4.291969E-17	1.738771E-18
5.000000E+03	4.294702E-17	1.735789E-18
5.010000E+03	4.297469E-17	1.732797E-18
5.020000E+03	4.300119E-17	1.729735E-18
5.030000E+03	4.302660E-17	1.726607E-18
5.040000E+03	4.305401E-17	1.723536E-18
5.050000E+03	4.308042E-17	1.720401E-18
5.060000E+03	4.310588E-17	1.717205E-18
5.070000E+03	4.313196E-17	1.714011E-18
5.080000E+03	4.315870E-17	1.710819E-18
5.090000E+03	4.318463E-17	1.707572E-18
5.100000E+03	4.320984E-17	1.704272E-18
5.110000E+03	4.323584E-17	1.700980E-18
5.120000E+03	4.326120E-17	1.697639E-18
5.130000E+03	4.328744E-17	1.694308E-18
5.140000E+03	4.331314E-17	1.690932E-18
5.150000E+03	4.333979E-17	1.687570E-18
5.160000E+03	4.336599E-17	1.684166E-18
5.170000E+03	4.339181E-17	1.680722E-18
5.180000E+03	4.341869E-17	1.677296E-18
5.190000E+03	4.344529E-17	1.673834E-18
5.200000E+03	4.347162E-17	1.670337E-18
5.210000E+03	4.349916E-17	1.666862E-18
5.220000E+03	4.352512E-17	1.663302E-18
5.230000E+03	4.355379E-17	1.659820E-18
5.240000E+03	4.358097E-17	1.656257E-18
5.250000E+03	4.360951E-17	1.652721E-18
5.260000E+03	4.363808E-17	1.649161E-18
5.270000E+03	4.366670E-17	1.645578E-18
5.280000E+03	4.369544E-17	1.641975E-18
5.290000E+03	4.372569E-17	1.638402E-18
5.300000E+03	4.375614E-17	1.634812E-18
5.310000E+03	4.378546E-17	1.631155E-18
5.320000E+03	4.381779E-17	1.627584E-18
5.330000E+03	4.384907E-17	1.623949E-18
5.340000E+03	4.388073E-17	1.620302E-18
5.350000E+03	4.391415E-17	1.616695E-18
5.360000E+03	4.394667E-17	1.613028E-18
5.370000E+03	4.398103E-17	1.609404E-18
5.380000E+03	4.401459E-17	1.605725E-18
5.390000E+03	4.405006E-17	1.602090E-18
5.400000E+03	4.408615E-17	1.598452E-18
5.410000E+03	4.412290E-17	1.594811E-18
5.420000E+03	4.416034E-17	1.591170E-18
5.430000E+03	4.419854E-17	1.587529E-18
5.440000E+03	4.423751E-17	1.583891E-18
5.450000E+03	4.427731E-17	1.580256E-18
5.460000E+03	4.431796E-17	1.576626E-18
5.470000E+03	4.435950E-17	1.573001E-18
5.480000E+03	4.440198E-17	1.569383E-18
5.490000E+03	4.444412E-17	1.565727E-18
5.500000E+03	4.448856E-17	1.562127E-18
5.510000E+03	4.453402E-17	1.558536E-18
5.520000E+03	4.458054E-17	1.554956E-18
5.530000E+03	4.462684E-17	1.551342E-18
5.540000E+03	4.467555E-17	1.547786E-18
5.550000E+03	4.472410E-17	1.544199E-18
5.560000E+03	4.477382E-17	1.540625E-18
5.570000E+03	4.482470E-17	1.537066E-18
5.580000E+03	4.487679E-17	1.533523E-18
5.590000E+03	4.493010E-17	1.529994E-18
5.600000E+03	4.498465E-17	1.526483E-18
5.610000E+03	4.503921E-17	1.522946E-18
5.620000E+03	4.509505E-17	1.519427E-18
5.630000E+03	4.515220E-17	1.515926E-18
5.640000E+03	4.521069E-17	1.512445E-18
5.650000E+03	4.527053E-17	1.508983E-18
5.660000E+03	4.533172E-17	1.505542E-18
5.670000E+03	4.539307E-17	1.502081E-18
5.680000E+03	4.545585E-17	1.498642E-18
5.690000E+03	4.552005E-17	1.495226E-18
5.700000E+03	4.558449E-17	1.491793E-18
5.710000E+03	4.565041E-17	1.488385E-18
5.720000E+03	4.571784E-17	1.485002E-18
5.730000E+03	4.578680E-17	1.481645E-18
5.740000E+03	4.585733E-17	1.478315E-18
5.750000E+03	4.592819E-17	1.474973E-18
5.760000E+03	4.600067E-17	1.471660E-18
5.770000E+03	4.607355E-17	1.468339E-18
5.780000E+03	4.614810E-17	1.465048E-18
5.790000E+03	4.622434E-17	1.461789E-18
5.800000E+03	4.630230E-17	1.458564E-18
5.810000E+03	4.638078E-17	1.455334E-18
5.820000E+03	4.646104E-17	1.452140E-18
5.830000E+03	4.654311E-17	1.448983E-18
5.840000E+03	4.662579E-17	1.445826E-18
5.850000E+03	4.671035E-17	1.442708E-18
5.860000E+03	4.679558E-17	1.439593E-18
5.870000E+03	4.688277E-17	1.436520E-18
5.880000E+03	4.697194E-17	1.433492E-18
5.890000E+03	4.706190E-17	1.430471E-18
5.900000E+03	4.715392E-17	1.427497E-18
5.910000E+03	4.724803E-17	1.424572E-18
5.920000E+03	4.734306E-17	1.421660E-18
5.930000E+03	4.744027E-17	1.418801E-18
5.940000E+03	4.753848E-17	1.415959E-18
5.950000E+03	4.763896E-17	1.413172E-18
5.960000E+03	4.774052E-17	1.410408E-18
5.970000E+03	4.784446E-17	1.407703E-18
5.980000E+03	4.795081E-17	1.405060E-18
5.990000E+03	4.805839E-17	1.402446E-18
6.000000E+03	4.816849E-17	1.399898E-18
6.010000E+03	4.827994E-17	1.397383E-18
6.020000E+03	4.839401E-17	1.394939E-18
6.030000E+03	4.851077E-17	1.392569E-18
6.040000E+03	4.862904E-17	1.390240E-18
6.050000E+03	4.874887E-17	1.387954E-18
6.060000E+03	4.887281E-17	1.385785E-18
6.070000E+03	4.899719E-17	1.383630E-18
6.080000E+03	4.912581E-17	1.381597E-18
6.090000E+03	4.925498E-17	1.379584E-18
6.100000E+03	4.938853E-17	1.377699E-18
6.110000E+03	4.952401E-17	1.375874E-18
6.120000E+03	4.966148E-17	1.374114E-18
6.130000E+03	4.980227E-17	1.372455E-18
6.140000E+03	4.994645E-17	1.370902E-18
6.150000E+03	5.009280E-17	1.369422E-18
6.160000E+03	5.024268E-17	1.368054E-18
6.170000E+03	5.039485E-17	1.366765E-18
6.180000E+03	5.055065E-17	1.365595E-18
6.190000E+03	5.071015E-17	1.364545E-18
6.200000E+03	5.087212E-17	1.363584E-18
6.210000E+03	5.103788E-17	1.362751E-18
6.220000E+03	5.120620E-17	1.362014E-18
6.230000E+03	5.137840E-17	1.361409E-18
6.240000E+03	5.155321E-17	1.360907E-18
6.250000E+03	5.173196E-17	1.360542E-18
6.260000E+03	5.191465E-17	1.360319E-18
6.270000E+03	5.209999E-17	1.360206E-18
6.280000E+03	5.228926E-17	1.360237E-18
6.290000E+03	5.248113E-17	1.360382E-18
6.300000E+03	5.267685E-17	1.360675E-18
6.310000E+03	5.287638E-17	1.361118E-18
6.320000E+03	5.307830E-17	1.361677E-18
6.330000E+03	5.328381E-17	1.362386E-18
6.340000E+03	5.349279E-17	1.363245E-18
6.350000E+03	5.370373E-17	1.364220E-18
6.360000E+03	5.391777E-17	1.365341E-18
6.370000E+03	5.413465E-17	1.366607E-18
6.380000E+03	5.435274E-17	1.367980E-18
6.390000E+03	5.457309E-17	1.369489E-18
6.400000E+03	5.479530E-17	1.371130E-18
6.410000E+03	5.501898E-17	1.372897E-18
6.420000E+03	5.524225E-17	1.374746E-18
6.430000E+03	5.546598E-17	1.376704E-18
6.440000E+03	5.568820E-17	1.378728E-18
6.450000E+03	5.591105E-17	1.380875E-18
6.460000E+03	5.613111E-17	1.383064E-18
6.470000E+03	5.634907E-17	1.385319E-18
6.480000E+03	5.656422E-17	1.387628E-18
6.490000E+03	5.677446E-17	1.389943E-18
6.500000E+03	5.698054E-17	1.392290E-18
6.510000E+03	5.718189E-17	1.394658E-18
6.520000E+03	5.737806E-17	1.397044E-18
6.530000E+03	5.756875E-17	1.399445E-18
6.540000E+03	5.775384E-17	1.401863E-18
6.550000E+03	5.793196E-17	1.404270E-18
6.560000E+03	5.810628E-17	1.406749E-18
6.570000E+03	5.827428E-17	1.409243E-18
6.580000E+03	5.843790E-17	1.411805E-18
6.590000E+03	5.859769E-17	1.414451E-18
6.600000E+03	5.875425E-17	1.417202E-18
6.610000E+03	5.890817E-17	1.420075E-18
6.620000E+03	5.906002E-17	1.423090E-18
6.630000E+03	5.920890E-17	1.426227E-18
6.640000E+03	5.935826E-17	1.429575E-18
6.650000E+03	5.950712E-17	1.433113E-18
6.660000E+03	5.965589E-17	1.436850E-18
6.670000E+03	5.980347E-17	1.440760E-18
6.680000E+03	5.995319E-17	1.444921E-18
6.690000E+03	6.010387E-17	1.449304E-18
6.700000E+03	6.025573E-17	1.453913E-18
6.710000E+03	6.040750E-17	1.458716E-18
6.720000E+03	6.056240E-17	1.463789E-18
6.730000E+03	6.071907E-17	1.469099E-18
6.740000E+03	6.087761E-17	1.474646E-18
6.750000E+03	6.103967E-17	1.480470E-18
6.760000E+03	6.120224E-17	1.486495E-18
6.770000E+03	6.136689E-17	1.492757E-18
6.780000E+03	6.153522E-17	1.499296E-18
6.790000E+03	6.170409E-17	1.506032E-18
6.800000E+03	6.187664E-17	1.513040E-18
6.810000E+03	6.205127E-17	1.520280E-18
6.820000E+03	6.222952E-17	1.527789E-18
6.830000E+03	6.240817E-17	1.535485E-18
6.840000E+03	6.259034E-17	1.543443E-18
6.850000E+03	6.277438E-17	1.551621E-18
6.860000E+03	6.296017E-17	1.560015E-18
6.870000E+03	6.314764E-17	1.568621E-18
6.880000E+03	6.333832E-17	1.577474E-18
6.890000E+03	6.352887E-17	1.586491E-18
6.900000E+03	6.372408E-17	1.595789E-18
6.910000E+03	6.391893E-17	1.605241E-18
6.920000E+03	6.411661E-17	1.614925E-18
6.930000E+03	6.431535E-17	1.624794E-18
6.940000E+03	6.451504E-17	1.634844E-18
6.950000E+03	6.471724E-17	1.645113E-18
6.960000E+03	6.492016E-17	1.655552E-18
6.970000E+03	6.512370E-17	1.666158E-18
6.980000E+03	6.532944E-17	1.676969E-18
6.990000E+03	6.553554E-17	1.687937E-18
7.000000E+03	6.574366E-17	1.699100E-18
7.010000E+03	6.595192E-17	1.710411E-18
7.020000E+03	6.616024E-17	1.721863E-18
7.030000E+03	6.637024E-17	1.733497E-18
7.040000E+03	6.658007E-17	1.745263E-18
7.050000E+03	6.679140E-17	1.757203E-18
7.060000E+03	6.700235E-17	1.769266E-18
7.070000E+03	6.721285E-17	1.781446E-18
7.080000E+03	6.742455E-17	1.793786E-18
7.090000E+03	6.763739E-17	1.806283E-18
7.100000E+03	6.784949E-17	1.818883E-18
7.110000E+03	6.806075E-17	1.831583E-18
7.120000E+03	6.827289E-17	1.844426E-18
7.130000E+03	6.848588E-17	1.857409E-18
7.140000E+03	6.869594E-17	1.870428E-18
7.150000E+03	6.890853E-17	1.883630E-18
7.160000E+03	6.911990E-17	1.896910E-18
7.170000E+03	6.932997E-17	1.910263E-18
7.180000E+03	6.954244E-17	1.923790E-18
7.190000E+03	6.975160E-17	1.937331E-18
7.200000E+03	6.996116E-17	1.950986E-18
7.210000E+03	7.017110E-17	1.964752E-18
7.220000E+03	7.037945E-17	1.978574E-18
7.230000E+03	7.058810E-17	1.992501E-18
7.240000E+03	7.079702E-17	2.006531E-18
7.250000E+03	7.100423E-17	2.020606E-18
7.260000E+03	7.121165E-17	2.034779E-18
7.270000E+03	7.141729E-17	2.048992E-18
7.280000E+03	7.162310E-17	2.063296E-18
7.290000E+03	7.182708E-17	2.077635E-18
7.300000E+03	7.203320E-17	2.092119E-18
7.310000E+03	7.223546E-17	2.106574E-18
7.320000E+03	7.243985E-17	2.121172E-18
7.330000E+03	7.264238E-17	2.135794E-18
7.340000E+03	7.284504E-17	2.150498E-18
7.350000E+03	7.304580E-17	2.165222E-18
7.360000E+03	7.324671E-17	2.180025E-18
7.370000E+03	7.344780E-17	2.194905E-18
7.380000E+03	7.364700E-17	2.209800E-18
7.390000E+03	7.384642E-17	2.224771E-18
7.400000E+03	7.404604E-17	2.239817E-18
7.410000E+03	7.424594E-17	2.254938E-18
7.420000E+03	7.444401E-17	2.270069E-18
7.430000E+03	7.464025E-17	2.285208E-18
7.440000E+03	7.483894E-17	2.300485E-18
7.450000E+03	7.503588E-17	2.315770E-18
7.460000E+03	7.523319E-17	2.331126E-18
7.470000E+03	7.543097E-17	2.346556E-18
7.480000E+03	7.562701E-17	2.361990E-18
7.490000E+03	7.582356E-17	2.377496E-18
7.500000E+03	7.602063E-17	2.393074E-18
7.510000E+03	7.621827E-17	2.408725E-18
7.520000E+03	7.641429E-17	2.424379E-18
7.530000E+03	7.661092E-17	2.440104E-18
7.540000E+03	7.680819E-17	2.455902E-18
7.550000E+03	7.700388E-17	2.471699E-18
7.560000E+03	7.720024E-17	2.487568E-18
7.570000E+03	7.739726E-17	2.503508E-18
7.580000E+03	7.759499E-17	2.519518E-18
7.590000E+03	7.779341E-17	2.535599E-18
7.600000E+03	7.799021E-17	2.551673E-18
7.610000E+03	7.818765E-17	2.567815E-18
7.620000E+03	7.838571E-17	2.584022E-18
7.630000E+03	7.858202E-17	2.600215E-18
7.640000E+03	7.878118E-17	2.616547E-18
7.650000E+03	7.897844E-17	2.632859E-18
7.660000E+03	7.917606E-17	2.649225E-18
7.670000E+03	7.937152E-17	2.665561E-18
7.680000E+03	7.956950E-17	2.682022E-18
7.690000E+03	7.976503E-17	2.698441E-18
7.700000E+03	7.996034E-17	2.714892E-18
7.710000E+03	8.015522E-17	2.731367E-18
7.720000E+03	8.034700E-17	2.747775E-18
7.730000E+03	8.054031E-17	2.764272E-18
7.740000E+03	8.072991E-17	2.780678E-18
7.750000E+03	8.091794E-17	2.797065E-18
7.760000E+03	8.110401E-17	2.813419E-18
