#wls	flux	fluxerr
1.600000E+03	3.408906E-18	1.573562E-19
1.640000E+03	3.514569E-18	1.620153E-19
1.680000E+03	3.623186E-18	1.667916E-19
1.720000E+03	3.735992E-18	1.717407E-19
1.760000E+03	3.853109E-18	1.768669E-19
1.800000E+03	3.975876E-18	1.822298E-19
1.840000E+03	4.103249E-18	1.877798E-19
1.880000E+03	4.235355E-18	1.935210E-19
1.920000E+03	4.372321E-18	1.994573E-19
1.960000E+03	4.515574E-18	2.056517E-19
2.000000E+03	4.663984E-18	2.120506E-19
2.040000E+03	4.817679E-18	2.186576E-19
2.080000E+03	4.978152E-18	2.255380E-19
2.120000E+03	5.144202E-18	2.326348E-19
2.160000E+03	5.317371E-18	2.400151E-19
2.200000E+03	5.497852E-18	2.476845E-19
2.240000E+03	5.684365E-18	2.555824E-19
2.280000E+03	5.878521E-18	2.637780E-19
2.320000E+03	6.080508E-18	2.722764E-19
2.360000E+03	6.288960E-18	2.810126E-19
2.400000E+03	6.507136E-18	2.901288E-19
2.440000E+03	6.733692E-18	2.995606E-19
2.480000E+03	6.967166E-18	3.092388E-19
2.520000E+03	7.210976E-18	3.193110E-19
2.560000E+03	7.463683E-18	3.297083E-19
2.600000E+03	7.727171E-18	3.405089E-19
2.640000E+03	7.999939E-18	3.516413E-19
2.680000E+03	8.282142E-18	3.631068E-19
2.720000E+03	8.577552E-18	3.750650E-19
2.760000E+03	8.882815E-18	3.873625E-19
2.800000E+03	9.199945E-18	4.000808E-19
2.840000E+03	9.527271E-18	4.131404E-19
2.880000E+03	9.868792E-18	4.267076E-19
2.920000E+03	1.022482E-17	4.407879E-19
2.960000E+03	1.059169E-17	4.552143E-19
3.000000E+03	1.097356E-17	4.701581E-19
3.010000E+03	1.107217E-17	4.740080E-19
3.020000E+03	1.117124E-17	4.778691E-19
3.030000E+03	1.127076E-17	4.817406E-19
3.040000E+03	1.137074E-17	4.856233E-19
3.050000E+03	1.147117E-17	4.895162E-19
3.060000E+03	1.157414E-17	4.935081E-19
3.070000E+03	1.167757E-17	4.975108E-19
3.080000E+03	1.178146E-17	5.015238E-19
3.090000E+03	1.188791E-17	5.056367E-19
3.100000E+03	1.199274E-17	5.096710E-19
3.110000E+03	1.210015E-17	5.138048E-19
3.120000E+03	1.221014E-17	5.180389E-19
3.130000E+03	1.231851E-17	5.221942E-19
3.140000E+03	1.242948E-17	5.264494E-19
3.150000E+03	1.254094E-17	5.307155E-19
3.160000E+03	1.265289E-17	5.349920E-19
3.170000E+03	1.276533E-17	5.392787E-19
3.180000E+03	1.288041E-17	5.436664E-19
3.190000E+03	1.299600E-17	5.480646E-19
3.200000E+03	1.311208E-17	5.524726E-19
3.210000E+03	1.323084E-17	5.569829E-19
3.220000E+03	1.335012E-17	5.615036E-19
3.230000E+03	1.346990E-17	5.660339E-19
3.240000E+03	1.359020E-17	5.705744E-19
3.250000E+03	1.371321E-17	5.752173E-19
3.260000E+03	1.383452E-17	5.797772E-19
3.270000E+03	1.396080E-17	5.845334E-19
3.280000E+03	1.408537E-17	5.892056E-19
3.290000E+03	1.421271E-17	5.939815E-19
3.300000E+03	1.434057E-17	5.987669E-19
3.310000E+03	1.446896E-17	6.035617E-19
3.320000E+03	1.460014E-17	6.084602E-19
3.330000E+03	1.473186E-17	6.133681E-19
3.340000E+03	1.486412E-17	6.182854E-19
3.350000E+03	1.499691E-17	6.232115E-19
3.360000E+03	1.513254E-17	6.282422E-19
3.370000E+03	1.526871E-17	6.332818E-19
3.380000E+03	1.540774E-17	6.384260E-19
3.390000E+03	1.554500E-17	6.434827E-19
3.400000E+03	1.568513E-17	6.486444E-19
3.410000E+03	1.582814E-17	6.539108E-19
3.420000E+03	1.596938E-17	6.590891E-19
3.430000E+03	1.611351E-17	6.643726E-19
3.440000E+03	1.625819E-17	6.696636E-19
3.450000E+03	1.640580E-17	6.750602E-19
3.460000E+03	1.655398E-17	6.804647E-19
3.470000E+03	1.670271E-17	6.858766E-19
3.480000E+03	1.685440E-17	6.913939E-19
3.490000E+03	1.700424E-17	6.968198E-19
3.500000E+03	1.715945E-17	7.024498E-19
3.510000E+03	1.731282E-17	7.079879E-19
3.520000E+03	1.746916E-17	7.136312E-19
3.530000E+03	1.762607E-17	7.192809E-19
3.540000E+03	1.778354E-17	7.249364E-19
3.550000E+03	1.794400E-17	7.306970E-19
3.560000E+03	1.810502E-17	7.364630E-19
3.570000E+03	1.826905E-17	7.423338E-19
3.580000E+03	1.843365E-17	7.482101E-19
3.590000E+03	1.859880E-17	7.540906E-19
3.600000E+03	1.876450E-17	7.599754E-19
3.610000E+03	1.893322E-17	7.659642E-19
3.620000E+03	1.910249E-17	7.719565E-19
3.630000E+03	1.927480E-17	7.780529E-19
3.640000E+03	1.944765E-17	7.841517E-19
3.650000E+03	1.962102E-17	7.902526E-19
3.660000E+03	1.979744E-17	7.964566E-19
3.670000E+03	1.997439E-17	8.026619E-19
3.680000E+03	2.015184E-17	8.088676E-19
3.690000E+03	2.032978E-17	8.150731E-19
3.700000E+03	2.051077E-17	8.213802E-19
3.710000E+03	2.069480E-17	8.277884E-19
3.720000E+03	2.087674E-17	8.340921E-19
3.730000E+03	2.106170E-17	8.404957E-19
3.740000E+03	2.124970E-17	8.469988E-19
3.750000E+03	2.143814E-17	8.534980E-19
3.760000E+03	2.162699E-17	8.599919E-19
3.770000E+03	2.181626E-17	8.664801E-19
3.780000E+03	2.200851E-17	8.730651E-19
3.790000E+03	2.220113E-17	8.796418E-19
3.800000E+03	2.239673E-17	8.863140E-19
3.810000E+03	2.259004E-17	8.928725E-19
3.820000E+03	2.278892E-17	8.996281E-19
3.830000E+03	2.298544E-17	9.062673E-19
3.840000E+03	2.318487E-17	9.129976E-19
3.850000E+03	2.338452E-17	9.197129E-19
3.860000E+03	2.358704E-17	9.265171E-19
3.870000E+03	2.378975E-17	9.333042E-19
3.880000E+03	2.399260E-17	9.400725E-19
3.890000E+03	2.419824E-17	9.469253E-19
3.900000E+03	2.440395E-17	9.537560E-19
3.910000E+03	2.461239E-17	9.606686E-19
3.920000E+03	2.481814E-17	9.674503E-19
3.930000E+03	2.502925E-17	9.744159E-19
3.940000E+03	2.523755E-17	9.812463E-19
3.950000E+03	2.544845E-17	9.881517E-19
3.960000E+03	2.565916E-17	9.950240E-19
3.970000E+03	2.587237E-17	1.001967E-18
3.980000E+03	2.608530E-17	1.008872E-18
3.990000E+03	2.629788E-17	1.015738E-18
4.000000E+03	2.651280E-17	1.022667E-18
4.010000E+03	2.672727E-17	1.029551E-18
4.020000E+03	2.694121E-17	1.036388E-18
4.030000E+03	2.715454E-17	1.043175E-18
4.040000E+03	2.736999E-17	1.050016E-18
4.050000E+03	2.758748E-17	1.056907E-18
4.060000E+03	2.780139E-17	1.063633E-18
4.070000E+03	2.801718E-17	1.070405E-18
4.080000E+03	2.823480E-17	1.077218E-18
4.090000E+03	2.844860E-17	1.083857E-18
4.100000E+03	2.866403E-17	1.090531E-18
4.110000E+03	2.888107E-17	1.097237E-18
4.120000E+03	2.909399E-17	1.103759E-18
4.130000E+03	2.930831E-17	1.110306E-18
4.140000E+03	2.952394E-17	1.116875E-18
4.150000E+03	2.973517E-17	1.123249E-18
4.160000E+03	2.994752E-17	1.129637E-18
4.170000E+03	3.016092E-17	1.136036E-18
4.180000E+03	3.036958E-17	1.142228E-18
4.190000E+03	3.057908E-17	1.148424E-18
4.200000E+03	3.078647E-17	1.154513E-18
4.210000E+03	3.099450E-17	1.160597E-18
4.220000E+03	3.120022E-17	1.166567E-18
4.230000E+03	3.140353E-17	1.172419E-18
4.240000E+03	3.160431E-17	1.178149E-18
4.250000E+03	3.180532E-17	1.183859E-18
4.260000E+03	3.200360E-17	1.189441E-18
4.270000E+03	3.219905E-17	1.194890E-18
4.280000E+03	3.239443E-17	1.200308E-18
4.290000E+03	3.258395E-17	1.205483E-18
4.300000E+03	3.277321E-17	1.210622E-18
4.310000E+03	3.296211E-17	1.215720E-18
4.320000E+03	3.314490E-17	1.220567E-18
4.330000E+03	3.332718E-17	1.225369E-18
4.340000E+03	3.350604E-17	1.230019E-18
4.350000E+03	3.368426E-17	1.234619E-18
4.360000E+03	3.385608E-17	1.238960E-18
4.370000E+03	3.402714E-17	1.243248E-18
4.380000E+03	3.419457E-17	1.247379E-18
4.390000E+03	3.436114E-17	1.251453E-18
4.400000E+03	3.452114E-17	1.255264E-18
4.410000E+03	3.468023E-17	1.259018E-18
4.420000E+03	3.483553E-17	1.262611E-18
4.430000E+03	3.498704E-17	1.266043E-18
4.440000E+03	3.513754E-17	1.269416E-18
4.450000E+03	3.528142E-17	1.272527E-18
4.460000E+03	3.542429E-17	1.275579E-18
4.470000E+03	3.556335E-17	1.278472E-18
4.480000E+03	3.569862E-17	1.281207E-18
4.490000E+03	3.583292E-17	1.283885E-18
4.500000E+03	3.596070E-17	1.286309E-18
4.510000E+03	3.608756E-17	1.288678E-18
4.520000E+03	3.621077E-17	1.290896E-18
4.530000E+03	3.633037E-17	1.292965E-18
4.540000E+03	3.644642E-17	1.294887E-18
4.550000E+03	3.656175E-17	1.296764E-18
4.560000E+03	3.667089E-17	1.298401E-18
4.570000E+03	3.677941E-17	1.299996E-18
4.580000E+03	3.688464E-17	1.301455E-18
4.590000E+03	3.698665E-17	1.302782E-18
4.600000E+03	3.708553E-17	1.303979E-18
4.610000E+03	3.718134E-17	1.305050E-18
4.620000E+03	3.727418E-17	1.305998E-18
4.630000E+03	3.736682E-17	1.306921E-18
4.640000E+03	3.745397E-17	1.307633E-18
4.650000E+03	3.754107E-17	1.308325E-18
4.660000E+03	3.762287E-17	1.308815E-18
4.670000E+03	3.770478E-17	1.309292E-18
4.680000E+03	3.778423E-17	1.309665E-18
4.690000E+03	3.786132E-17	1.309939E-18
4.700000E+03	3.793349E-17	1.310026E-18
4.710000E+03	3.800609E-17	1.310112E-18
4.720000E+03	3.807661E-17	1.310109E-18
4.730000E+03	3.814511E-17	1.310019E-18
4.740000E+03	3.821169E-17	1.309847E-18
4.750000E+03	3.827902E-17	1.309684E-18
4.760000E+03	3.834201E-17	1.309357E-18
4.770000E+03	3.840333E-17	1.308956E-18
4.780000E+03	3.846309E-17	1.308486E-18
4.790000E+03	3.852136E-17	1.307949E-18
4.800000E+03	3.857821E-17	1.307349E-18
4.810000E+03	3.863375E-17	1.306688E-18
4.820000E+03	3.868805E-17	1.305970E-18
4.830000E+03	3.874120E-17	1.305197E-18
4.840000E+03	3.879325E-17	1.304372E-18
4.850000E+03	3.884430E-17	1.303498E-18
4.860000E+03	3.889444E-17	1.302578E-18
4.870000E+03	3.894372E-17	1.301614E-18
4.880000E+03	3.898976E-17	1.300526E-18
4.890000E+03	3.903757E-17	1.299483E-18
4.900000E+03	3.908475E-17	1.298403E-18
4.910000E+03	3.912892E-17	1.297208E-18
4.920000E+03	3.917263E-17	1.295983E-18
4.930000E+03	3.921834E-17	1.294809E-18
4.940000E+03	3.926129E-17	1.293529E-18
4.950000E+03	3.930397E-17	1.292224E-18
4.960000E+03	3.934643E-17	1.290898E-18
4.970000E+03	3.938875E-17	1.289552E-18
4.980000E+03	3.942858E-17	1.288110E-18
4.990000E+03	3.947080E-17	1.286731E-18
5.000000E+03	3.951067E-17	1.285260E-18
5.010000E+03	3.955066E-17	1.283779E-18
5.020000E+03	3.959316E-17	1.282363E-18
5.030000E+03	3.963118E-17	1.280788E-18
5.040000E+03	3.967183E-17	1.279283E-18
5.050000E+03	3.971282E-17	1.277773E-18
5.060000E+03	3.975186E-17	1.276186E-18
5.070000E+03	3.979135E-17	1.274598E-18
5.080000E+03	3.983135E-17	1.273012E-18
5.090000E+03	3.987190E-17	1.271428E-18
5.100000E+03	3.991075E-17	1.269774E-18
5.110000E+03	3.995027E-17	1.268127E-18
5.120000E+03	3.999051E-17	1.266487E-18
5.130000E+03	4.003151E-17	1.264856E-18
5.140000E+03	4.007330E-17	1.263235E-18
5.150000E+03	4.011370E-17	1.261554E-18
5.160000E+03	4.015500E-17	1.259886E-18
5.170000E+03	4.019725E-17	1.258232E-18
5.180000E+03	4.023825E-17	1.256524E-18
5.190000E+03	4.028031E-17	1.254833E-18
5.200000E+03	4.032346E-17	1.253161E-18
5.210000E+03	4.036773E-17	1.251507E-18
5.220000E+03	4.041096E-17	1.249806E-18
5.230000E+03	4.045542E-17	1.248126E-18
5.240000E+03	4.050114E-17	1.246470E-18
5.250000E+03	4.054597E-17	1.244770E-18
5.260000E+03	4.059214E-17	1.243095E-18
5.270000E+03	4.063969E-17	1.241446E-18
5.280000E+03	4.068649E-17	1.239757E-18
5.290000E+03	4.073476E-17	1.238097E-18
5.300000E+03	4.078453E-17	1.236467E-18
5.310000E+03	4.083368E-17	1.234800E-18
5.320000E+03	4.088439E-17	1.233165E-18
5.330000E+03	4.093673E-17	1.231562E-18
5.340000E+03	4.098857E-17	1.229926E-18
5.350000E+03	4.104210E-17	1.228325E-18
5.360000E+03	4.109735E-17	1.226758E-18
5.370000E+03	4.115221E-17	1.225162E-18
5.380000E+03	4.120672E-17	1.223539E-18
5.390000E+03	4.126520E-17	1.222016E-18
5.400000E+03	4.132340E-17	1.220468E-18
5.410000E+03	4.138136E-17	1.218895E-18
5.420000E+03	4.144124E-17	1.217361E-18
5.430000E+03	4.150307E-17	1.215866E-18
5.440000E+03	4.156477E-17	1.214350E-18
5.450000E+03	4.162847E-17	1.212875E-18
5.460000E+03	4.169209E-17	1.211379E-18
5.470000E+03	4.175778E-17	1.209926E-18
5.480000E+03	4.182556E-17	1.208515E-18
5.490000E+03	4.189334E-17	1.207085E-18
5.500000E+03	4.196116E-17	1.205639E-18
5.510000E+03	4.203114E-17	1.204236E-18
5.520000E+03	4.210332E-17	1.202878E-18
5.530000E+03	4.217560E-17	1.201504E-18
5.540000E+03	4.225010E-17	1.200175E-18
5.550000E+03	4.232476E-17	1.198832E-18
5.560000E+03	4.240169E-17	1.197534E-18
5.570000E+03	4.247881E-17	1.196223E-18
5.580000E+03	4.255614E-17	1.194899E-18
5.590000E+03	4.263788E-17	1.193680E-18
5.600000E+03	4.271780E-17	1.192391E-18
5.610000E+03	4.280213E-17	1.191206E-18
5.620000E+03	4.288467E-17	1.189952E-18
5.630000E+03	4.297166E-17	1.188802E-18
5.640000E+03	4.305689E-17	1.187585E-18
5.650000E+03	4.314452E-17	1.186415E-18
5.660000E+03	4.323457E-17	1.185291E-18
5.670000E+03	4.332497E-17	1.184159E-18
5.680000E+03	4.341780E-17	1.183073E-18
5.690000E+03	4.351100E-17	1.181979E-18
5.700000E+03	4.360459E-17	1.180875E-18
5.710000E+03	4.370064E-17	1.179819E-18
5.720000E+03	4.379918E-17	1.178811E-18
5.730000E+03	4.389604E-17	1.177738E-18
5.740000E+03	4.399746E-17	1.176769E-18
5.750000E+03	4.409723E-17	1.175737E-18
5.760000E+03	4.420157E-17	1.174807E-18
5.770000E+03	4.430428E-17	1.173815E-18
5.780000E+03	4.440949E-17	1.172871E-18
5.790000E+03	4.451721E-17	1.171974E-18
5.800000E+03	4.462538E-17	1.171070E-18
5.810000E+03	4.473399E-17	1.170159E-18
5.820000E+03	4.484512E-17	1.169295E-18
5.830000E+03	4.495669E-17	1.168424E-18
5.840000E+03	4.507078E-17	1.167601E-18
5.850000E+03	4.518530E-17	1.166771E-18
5.860000E+03	4.530026E-17	1.165934E-18
5.870000E+03	4.541773E-17	1.165144E-18
5.880000E+03	4.553563E-17	1.164347E-18
5.890000E+03	4.565601E-17	1.163597E-18
5.900000E+03	4.577681E-17	1.162840E-18
5.910000E+03	4.589799E-17	1.162077E-18
5.920000E+03	4.602165E-17	1.161359E-18
5.930000E+03	4.614777E-17	1.160687E-18
5.940000E+03	4.627214E-17	1.159955E-18
5.950000E+03	4.639894E-17	1.159269E-18
5.960000E+03	4.652816E-17	1.158627E-18
5.970000E+03	4.665767E-17	1.157978E-18
5.980000E+03	4.678744E-17	1.157320E-18
5.990000E+03	4.691956E-17	1.156706E-18
6.000000E+03	4.705189E-17	1.156084E-18
6.010000E+03	4.718439E-17	1.155452E-18
6.020000E+03	4.731914E-17	1.154862E-18
6.030000E+03	4.745401E-17	1.154263E-18
6.040000E+03	4.759106E-17	1.153705E-18
6.050000E+03	4.772812E-17	1.153135E-18
6.060000E+03	4.786514E-17	1.152554E-18
6.070000E+03	4.800423E-17	1.152012E-18
6.080000E+03	4.814317E-17	1.151456E-18
6.090000E+03	4.828405E-17	1.150938E-18
6.100000E+03	4.842466E-17	1.150405E-18
6.110000E+03	4.856495E-17	1.149856E-18
6.120000E+03	4.870699E-17	1.149342E-18
6.130000E+03	4.884853E-17	1.148809E-18
6.140000E+03	4.898950E-17	1.148258E-18
6.150000E+03	4.913200E-17	1.147737E-18
6.160000E+03	4.927374E-17	1.147195E-18
6.170000E+03	4.941681E-17	1.146681E-18
6.180000E+03	4.955895E-17	1.146143E-18
6.190000E+03	4.970003E-17	1.145578E-18
6.200000E+03	4.984212E-17	1.145038E-18
6.210000E+03	4.998294E-17	1.144468E-18
6.220000E+03	5.012456E-17	1.143918E-18
6.230000E+03	5.026463E-17	1.143336E-18
6.240000E+03	5.040303E-17	1.142720E-18
6.250000E+03	5.054185E-17	1.142118E-18
6.260000E+03	5.067874E-17	1.141479E-18
6.270000E+03	5.081576E-17	1.140850E-18
6.280000E+03	5.095054E-17	1.140180E-18
6.290000E+03	5.108294E-17	1.139466E-18
6.300000E+03	5.121504E-17	1.138756E-18
6.310000E+03	5.134444E-17	1.138000E-18
6.320000E+03	5.147327E-17	1.137244E-18
6.330000E+03	5.159684E-17	1.136387E-18
6.340000E+03	5.172178E-17	1.135578E-18
6.350000E+03	5.184343E-17	1.134714E-18
6.360000E+03	5.196165E-17	1.133796E-18
6.370000E+03	5.207628E-17	1.132820E-18
6.380000E+03	5.218948E-17	1.131836E-18
6.390000E+03	5.230113E-17	1.130842E-18
6.400000E+03	5.240883E-17	1.129789E-18
6.410000E+03	5.251249E-17	1.128676E-18
6.420000E+03	5.261200E-17	1.127504E-18
6.430000E+03	5.271189E-17	1.126369E-18
6.440000E+03	5.280519E-17	1.125127E-18
6.450000E+03	5.289645E-17	1.123874E-18
6.460000E+03	5.298336E-17	1.122565E-18
6.470000E+03	5.306818E-17	1.121249E-18
6.480000E+03	5.314861E-17	1.119878E-18
6.490000E+03	5.322695E-17	1.118503E-18
6.500000E+03	5.330088E-17	1.117078E-18
6.510000E+03	5.337275E-17	1.115652E-18
6.520000E+03	5.344021E-17	1.114179E-18
6.530000E+03	5.350325E-17	1.112660E-18
6.540000E+03	5.356412E-17	1.111141E-18
6.550000E+03	5.362279E-17	1.109621E-18
6.560000E+03	5.367447E-17	1.108001E-18
6.570000E+03	5.372611E-17	1.106425E-18
6.580000E+03	5.377057E-17	1.104745E-18
6.590000E+03	5.381479E-17	1.103104E-18
6.600000E+03	5.385162E-17	1.101355E-18
6.610000E+03	5.388804E-17	1.099641E-18
6.620000E+03	5.391692E-17	1.097815E-18
6.630000E+03	5.394291E-17	1.095972E-18
6.640000E+03	5.396599E-17	1.094113E-18
6.650000E+03	5.398376E-17	1.092186E-18
6.660000E+03	5.399859E-17	1.090242E-18
6.670000E+03	5.400811E-17	1.088230E-18
6.680000E+03	5.401234E-17	1.086151E-18
6.690000E+03	5.401369E-17	1.084054E-18
6.700000E+03	5.401219E-17	1.081939E-18
6.710000E+03	5.400552E-17	1.079759E-18
6.720000E+03	5.399610E-17	1.077561E-18
6.730000E+03	5.398165E-17	1.075300E-18
6.740000E+03	5.396222E-17	1.072977E-18
6.750000E+03	5.394024E-17	1.070640E-18
6.760000E+03	5.391583E-17	1.068290E-18
6.770000E+03	5.388664E-17	1.065880E-18
6.780000E+03	5.385517E-17	1.063460E-18
6.790000E+03	5.381910E-17	1.060983E-18
6.800000E+03	5.378089E-17	1.058497E-18
6.810000E+03	5.373824E-17	1.055957E-18
6.820000E+03	5.369360E-17	1.053409E-18
6.830000E+03	5.364705E-17	1.050856E-18
6.840000E+03	5.359627E-17	1.048252E-18
6.850000E+03	5.354135E-17	1.045597E-18
6.860000E+03	5.348471E-17	1.042938E-18
6.870000E+03	5.342642E-17	1.040277E-18
6.880000E+03	5.336416E-17	1.037568E-18
6.890000E+03	5.330035E-17	1.034857E-18
6.900000E+03	5.323506E-17	1.032145E-18
6.910000E+03	5.316594E-17	1.029387E-18
6.920000E+03	5.309304E-17	1.026582E-18
6.930000E+03	5.301878E-17	1.023778E-18
6.940000E+03	5.294318E-17	1.020974E-18
6.950000E+03	5.286390E-17	1.018125E-18
6.960000E+03	5.278334E-17	1.015277E-18
6.970000E+03	5.270151E-17	1.012429E-18
6.980000E+03	5.261608E-17	1.009536E-18
6.990000E+03	5.252941E-17	1.006644E-18
7.000000E+03	5.243915E-17	1.003707E-18
7.010000E+03	5.234769E-17	1.000771E-18
7.020000E+03	5.225502E-17	9.978348E-19
7.030000E+03	5.215878E-17	9.948534E-19
7.040000E+03	5.206133E-17	9.918718E-19
7.050000E+03	5.196032E-17	9.888449E-19
7.060000E+03	5.185807E-17	9.858168E-19
7.070000E+03	5.175461E-17	9.827878E-19
7.080000E+03	5.164754E-17	9.797123E-19
7.090000E+03	5.153922E-17	9.766350E-19
7.100000E+03	5.142961E-17	9.735550E-19
7.110000E+03	5.131637E-17	9.704279E-19
7.120000E+03	5.120182E-17	9.672976E-19
7.130000E+03	5.108592E-17	9.641634E-19
7.140000E+03	5.096632E-17	9.609808E-19
7.150000E+03	5.084532E-17	9.577935E-19
7.160000E+03	5.072291E-17	9.546010E-19
7.170000E+03	5.059672E-17	9.513591E-19
7.180000E+03	5.046905E-17	9.481108E-19
7.190000E+03	5.033985E-17	9.448558E-19
7.200000E+03	5.020680E-17	9.415502E-19
7.210000E+03	5.007216E-17	9.382368E-19
7.220000E+03	4.993590E-17	9.349153E-19
7.230000E+03	4.979567E-17	9.315416E-19
7.240000E+03	4.965374E-17	9.281587E-19
7.250000E+03	4.951007E-17	9.247661E-19
7.260000E+03	4.936233E-17	9.213203E-19
7.270000E+03	4.921505E-17	9.179063E-19
7.280000E+03	4.906133E-17	9.143958E-19
7.290000E+03	4.890799E-17	9.109159E-19
7.300000E+03	4.875040E-17	9.073811E-19
7.310000E+03	4.859082E-17	9.038335E-19
7.320000E+03	4.842918E-17	9.002725E-19
7.330000E+03	4.826543E-17	8.966973E-19
7.340000E+03	4.809727E-17	8.930655E-19
7.350000E+03	4.792692E-17	8.894189E-19
7.360000E+03	4.775207E-17	8.857149E-19
7.370000E+03	4.757716E-17	8.820365E-19
7.380000E+03	4.739766E-17	8.783000E-19
7.390000E+03	4.721576E-17	8.745463E-19
7.400000E+03	4.702916E-17	8.707335E-19
7.410000E+03	4.684228E-17	8.669439E-19
7.420000E+03	4.665062E-17	8.630944E-19
7.430000E+03	4.645411E-17	8.591845E-19
7.440000E+03	4.625717E-17	8.552960E-19
7.450000E+03	4.605529E-17	8.513463E-19
7.460000E+03	4.585282E-17	8.474162E-19
7.470000E+03	4.564313E-17	8.433836E-19
7.480000E+03	4.543275E-17	8.393696E-19
7.490000E+03	4.521725E-17	8.352927E-19
7.500000E+03	4.500095E-17	8.312333E-19
7.510000E+03	4.477726E-17	8.270699E-19
7.520000E+03	4.455266E-17	8.229228E-19
7.530000E+03	4.432492E-17	8.187511E-19
7.540000E+03	4.409185E-17	8.145148E-19
7.550000E+03	4.385557E-17	8.102533E-19
7.560000E+03	4.361604E-17	8.059663E-19
7.570000E+03	4.337109E-17	8.016137E-19
7.580000E+03	4.312495E-17	7.972745E-19
7.590000E+03	4.287333E-17	7.928693E-19
7.600000E+03	4.261836E-17	7.884377E-19
7.610000E+03	4.235998E-17	7.839791E-19
7.620000E+03	4.209614E-17	7.794553E-19
7.630000E+03	4.183097E-17	7.749432E-19
7.640000E+03	4.156033E-17	7.703661E-19
7.650000E+03	4.128631E-17	7.657629E-19
7.660000E+03	4.100690E-17	7.610960E-19
7.670000E+03	4.072621E-17	7.564419E-19
7.680000E+03	4.044020E-17	7.517257E-19
7.690000E+03	4.015300E-17	7.470237E-19
7.700000E+03	3.986063E-17	7.422619E-19
7.710000E+03	3.956319E-17	7.374421E-19
7.720000E+03	3.926480E-17	7.326403E-19
7.730000E+03	3.896354E-17	7.278211E-19
7.740000E+03	3.865761E-17	7.229501E-19
7.750000E+03	3.834914E-17	7.180668E-19
7.760000E+03	3.803830E-17	7.131740E-19
