#wls	flux	fluxerr
1.600000E+03	3.308666E-18	1.489486E-19
1.640000E+03	3.409380E-18	1.532822E-19
1.680000E+03	3.515225E-18	1.578292E-19
1.720000E+03	3.625236E-18	1.625448E-19
1.760000E+03	3.738373E-18	1.673810E-19
1.800000E+03	3.857092E-18	1.724466E-19
1.840000E+03	3.980373E-18	1.776941E-19
1.880000E+03	4.108353E-18	1.831280E-19
1.920000E+03	4.241168E-18	1.887527E-19
1.960000E+03	4.380238E-18	1.946294E-19
2.000000E+03	4.524461E-18	2.007072E-19
2.040000E+03	4.673977E-18	2.069900E-19
2.080000E+03	4.828924E-18	2.134820E-19
2.120000E+03	4.990818E-18	2.202477E-19
2.160000E+03	5.159872E-18	2.272939E-19
2.200000E+03	5.334869E-18	2.345642E-19
2.240000E+03	5.515946E-18	2.420619E-19
2.280000E+03	5.704719E-18	2.498552E-19
2.320000E+03	5.901402E-18	2.579499E-19
2.360000E+03	6.106209E-18	2.663521E-19
2.400000E+03	6.317786E-18	2.749991E-19
2.440000E+03	6.539450E-18	2.840315E-19
2.480000E+03	6.768252E-18	2.933171E-19
2.520000E+03	7.005964E-18	3.029287E-19
2.560000E+03	7.252797E-18	3.128711E-19
2.600000E+03	7.510668E-18	3.232220E-19
2.640000E+03	7.778129E-18	3.339140E-19
2.680000E+03	8.055384E-18	3.449506E-19
2.720000E+03	8.344438E-18	3.564122E-19
2.760000E+03	8.643747E-18	3.682267E-19
2.800000E+03	8.955375E-18	3.804760E-19
2.840000E+03	9.277712E-18	3.930852E-19
2.880000E+03	9.612882E-18	4.061374E-19
2.920000E+03	9.963131E-18	4.197200E-19
2.960000E+03	1.032485E-17	4.336732E-19
3.000000E+03	1.070026E-17	4.480820E-19
3.010000E+03	1.079686E-17	4.517799E-19
3.020000E+03	1.089396E-17	4.554907E-19
3.030000E+03	1.099154E-17	4.592138E-19
3.040000E+03	1.109170E-17	4.630362E-19
3.050000E+03	1.119236E-17	4.668711E-19
3.060000E+03	1.129354E-17	4.707192E-19
3.070000E+03	1.139523E-17	4.745802E-19
3.080000E+03	1.149743E-17	4.784535E-19
3.090000E+03	1.160015E-17	4.823398E-19
3.100000E+03	1.170548E-17	4.863259E-19
3.110000E+03	1.181135E-17	4.903252E-19
3.120000E+03	1.191773E-17	4.943368E-19
3.130000E+03	1.202679E-17	4.984497E-19
3.140000E+03	1.213424E-17	5.024869E-19
3.150000E+03	1.224437E-17	5.066256E-19
3.160000E+03	1.235504E-17	5.107766E-19
3.170000E+03	1.246841E-17	5.150300E-19
3.180000E+03	1.258018E-17	5.192066E-19
3.190000E+03	1.269465E-17	5.234853E-19
3.200000E+03	1.280969E-17	5.277767E-19
3.210000E+03	1.292528E-17	5.320807E-19
3.220000E+03	1.304363E-17	5.364879E-19
3.230000E+03	1.316256E-17	5.409080E-19
3.240000E+03	1.328204E-17	5.453402E-19
3.250000E+03	1.340209E-17	5.497846E-19
3.260000E+03	1.352271E-17	5.542414E-19
3.270000E+03	1.364614E-17	5.588024E-19
3.280000E+03	1.377016E-17	5.633759E-19
3.290000E+03	1.389474E-17	5.679610E-19
3.300000E+03	1.402219E-17	5.726514E-19
3.310000E+03	1.415022E-17	5.773539E-19
3.320000E+03	1.427884E-17	5.820685E-19
3.330000E+03	1.440805E-17	5.867946E-19
3.340000E+03	1.453783E-17	5.915322E-19
3.350000E+03	1.467053E-17	5.963758E-19
3.360000E+03	1.480382E-17	6.012308E-19
3.370000E+03	1.493769E-17	6.060969E-19
3.380000E+03	1.507452E-17	6.110700E-19
3.390000E+03	1.521195E-17	6.160537E-19
3.400000E+03	1.534998E-17	6.210489E-19
3.410000E+03	1.548860E-17	6.260545E-19
3.420000E+03	1.563020E-17	6.311667E-19
3.430000E+03	1.577241E-17	6.362899E-19
3.440000E+03	1.591523E-17	6.414235E-19
3.450000E+03	1.605864E-17	6.465669E-19
3.460000E+03	1.620507E-17	6.518174E-19
3.470000E+03	1.635210E-17	6.570778E-19
3.480000E+03	1.649975E-17	6.623480E-19
3.490000E+03	1.665043E-17	6.677250E-19
3.500000E+03	1.680172E-17	6.731114E-19
3.510000E+03	1.695362E-17	6.785068E-19
3.520000E+03	1.710610E-17	6.839102E-19
3.530000E+03	1.726166E-17	6.894210E-19
3.540000E+03	1.741782E-17	6.949399E-19
3.550000E+03	1.757457E-17	7.004663E-19
3.560000E+03	1.773442E-17	7.060998E-19
3.570000E+03	1.789486E-17	7.117405E-19
3.580000E+03	1.805588E-17	7.173873E-19
3.590000E+03	1.821748E-17	7.230406E-19
3.600000E+03	1.838218E-17	7.288002E-19
3.610000E+03	1.854746E-17	7.345650E-19
3.620000E+03	1.871329E-17	7.403345E-19
3.630000E+03	1.888225E-17	7.462100E-19
3.640000E+03	1.905175E-17	7.520890E-19
3.650000E+03	1.922180E-17	7.579717E-19
3.660000E+03	1.939497E-17	7.639592E-19
3.670000E+03	1.956867E-17	7.699489E-19
3.680000E+03	1.974289E-17	7.759403E-19
3.690000E+03	1.991760E-17	7.819324E-19
3.700000E+03	2.009542E-17	7.880274E-19
3.710000E+03	2.027374E-17	7.941224E-19
3.720000E+03	2.045250E-17	8.002156E-19
3.730000E+03	2.063437E-17	8.064105E-19
3.740000E+03	2.081667E-17	8.126024E-19
3.750000E+03	2.099940E-17	8.187908E-19
3.760000E+03	2.118252E-17	8.249743E-19
3.770000E+03	2.136870E-17	8.312563E-19
3.780000E+03	2.155524E-17	8.375317E-19
3.790000E+03	2.174483E-17	8.439043E-19
3.800000E+03	2.193473E-17	8.502679E-19
3.810000E+03	2.212494E-17	8.566222E-19
3.820000E+03	2.231541E-17	8.629650E-19
3.830000E+03	2.250885E-17	8.694011E-19
3.840000E+03	2.270252E-17	8.758237E-19
3.850000E+03	2.289637E-17	8.822312E-19
3.860000E+03	2.309036E-17	8.886222E-19
3.870000E+03	2.328724E-17	8.951016E-19
3.880000E+03	2.348420E-17	9.015614E-19
3.890000E+03	2.368397E-17	9.081063E-19
3.900000E+03	2.388378E-17	9.146293E-19
3.910000E+03	2.408356E-17	9.211278E-19
3.920000E+03	2.428328E-17	9.276007E-19
3.930000E+03	2.448567E-17	9.341523E-19
3.940000E+03	2.468792E-17	9.406743E-19
3.950000E+03	2.488996E-17	9.471644E-19
3.960000E+03	2.509456E-17	9.537281E-19
3.970000E+03	2.529605E-17	9.601489E-19
3.980000E+03	2.550281E-17	9.667457E-19
3.990000E+03	2.570635E-17	9.731956E-19
4.000000E+03	2.591224E-17	9.797102E-19
4.010000E+03	2.611761E-17	9.861799E-19
4.020000E+03	2.632239E-17	9.926025E-19
4.030000E+03	2.652937E-17	9.990830E-19
4.040000E+03	2.673562E-17	1.005511E-18
4.050000E+03	2.694108E-17	1.011884E-18
4.060000E+03	2.714569E-17	1.018199E-18
4.070000E+03	2.735222E-17	1.024562E-18
4.080000E+03	2.755776E-17	1.030861E-18
4.090000E+03	2.776511E-17	1.037202E-18
4.100000E+03	2.796840E-17	1.043366E-18
4.110000E+03	2.817333E-17	1.049566E-18
4.120000E+03	2.837696E-17	1.055692E-18
4.130000E+03	2.858208E-17	1.061847E-18
4.140000E+03	2.878280E-17	1.067813E-18
4.150000E+03	2.898487E-17	1.073803E-18
4.160000E+03	2.918527E-17	1.079705E-18
4.170000E+03	2.938685E-17	1.085626E-18
4.180000E+03	2.958660E-17	1.091453E-18
4.190000E+03	2.978443E-17	1.097183E-18
4.200000E+03	2.998025E-17	1.102813E-18
4.210000E+03	3.017398E-17	1.108342E-18
4.220000E+03	3.036846E-17	1.113872E-18
4.230000E+03	3.056069E-17	1.119294E-18
4.240000E+03	3.075056E-17	1.124604E-18
4.250000E+03	3.094094E-17	1.129908E-18
4.260000E+03	3.112882E-17	1.135095E-18
4.270000E+03	3.131410E-17	1.140162E-18
4.280000E+03	3.149673E-17	1.145108E-18
4.290000E+03	3.167662E-17	1.149930E-18
4.300000E+03	3.185665E-17	1.154732E-18
4.310000E+03	3.203382E-17	1.159406E-18
4.320000E+03	3.220807E-17	1.163950E-18
4.330000E+03	3.237933E-17	1.168362E-18
4.340000E+03	3.255051E-17	1.172747E-18
4.350000E+03	3.271567E-17	1.176892E-18
4.360000E+03	3.288066E-17	1.181008E-18
4.370000E+03	3.304250E-17	1.184987E-18
4.380000E+03	3.320410E-17	1.188934E-18
4.390000E+03	3.335957E-17	1.192640E-18
4.400000E+03	3.351473E-17	1.196312E-18
4.410000E+03	3.366664E-17	1.199846E-18
4.420000E+03	3.381524E-17	1.203240E-18
4.430000E+03	3.396052E-17	1.206494E-18
4.440000E+03	3.410245E-17	1.209608E-18
4.450000E+03	3.424395E-17	1.212686E-18
4.460000E+03	3.438206E-17	1.215623E-18
4.470000E+03	3.451679E-17	1.218419E-18
4.480000E+03	3.464815E-17	1.221076E-18
4.490000E+03	3.477616E-17	1.223595E-18
4.500000E+03	3.490082E-17	1.225976E-18
4.510000E+03	3.502504E-17	1.228322E-18
4.520000E+03	3.514307E-17	1.230430E-18
4.530000E+03	3.526072E-17	1.232507E-18
4.540000E+03	3.537513E-17	1.234450E-18
4.550000E+03	3.548635E-17	1.236263E-18
4.560000E+03	3.559441E-17	1.237948E-18
4.570000E+03	3.569938E-17	1.239506E-18
4.580000E+03	3.580130E-17	1.240940E-18
4.590000E+03	3.590308E-17	1.242351E-18
4.600000E+03	3.599907E-17	1.243544E-18
4.610000E+03	3.609503E-17	1.244718E-18
4.620000E+03	3.618818E-17	1.245777E-18
4.630000E+03	3.627578E-17	1.246628E-18
4.640000E+03	3.636352E-17	1.247466E-18
4.650000E+03	3.644866E-17	1.248198E-18
4.660000E+03	3.653127E-17	1.248827E-18
4.670000E+03	3.661143E-17	1.249354E-18
4.680000E+03	3.668922E-17	1.249785E-18
4.690000E+03	3.676471E-17	1.250121E-18
4.700000E+03	3.683798E-17	1.250365E-18
4.710000E+03	3.690910E-17	1.250520E-18
4.720000E+03	3.698091E-17	1.250683E-18
4.730000E+03	3.704799E-17	1.250669E-18
4.740000E+03	3.711316E-17	1.250576E-18
4.750000E+03	3.717651E-17	1.250406E-18
4.760000E+03	3.724083E-17	1.250253E-18
4.770000E+03	3.730077E-17	1.249937E-18
4.780000E+03	3.735911E-17	1.249554E-18
4.790000E+03	3.741597E-17	1.249105E-18
4.800000E+03	3.747405E-17	1.248682E-18
4.810000E+03	3.752811E-17	1.248110E-18
4.820000E+03	3.758090E-17	1.247482E-18
4.830000E+03	3.763250E-17	1.246799E-18
4.840000E+03	3.768296E-17	1.246064E-18
4.850000E+03	3.773239E-17	1.245280E-18
4.860000E+03	3.778083E-17	1.244449E-18
4.870000E+03	3.782838E-17	1.243575E-18
4.880000E+03	3.787510E-17	1.242658E-18
4.890000E+03	3.792106E-17	1.241703E-18
4.900000E+03	3.796633E-17	1.240711E-18
4.910000E+03	3.800841E-17	1.239601E-18
4.920000E+03	3.805253E-17	1.238543E-18
4.930000E+03	3.809360E-17	1.237372E-18
4.940000E+03	3.813681E-17	1.236256E-18
4.950000E+03	3.817714E-17	1.235033E-18
4.960000E+03	3.821720E-17	1.233787E-18
4.970000E+03	3.825705E-17	1.232520E-18
4.980000E+03	3.829675E-17	1.231235E-18
4.990000E+03	3.833636E-17	1.229933E-18
5.000000E+03	3.837595E-17	1.228616E-18
5.010000E+03	3.841309E-17	1.227207E-18
5.020000E+03	3.845281E-17	1.225866E-18
5.030000E+03	3.849020E-17	1.224437E-18
5.040000E+03	3.852782E-17	1.223002E-18
5.050000E+03	3.856571E-17	1.221561E-18
5.060000E+03	3.860149E-17	1.220040E-18
5.070000E+03	3.864009E-17	1.218594E-18
5.080000E+03	3.867671E-17	1.217071E-18
5.090000E+03	3.871382E-17	1.215550E-18
5.100000E+03	3.875148E-17	1.214032E-18
5.110000E+03	3.878976E-17	1.212519E-18
5.120000E+03	3.882868E-17	1.211012E-18
5.130000E+03	3.886590E-17	1.209438E-18
5.140000E+03	3.890388E-17	1.207874E-18
5.150000E+03	3.894267E-17	1.206320E-18
5.160000E+03	3.898231E-17	1.204778E-18
5.170000E+03	3.902049E-17	1.203177E-18
5.180000E+03	3.905961E-17	1.201591E-18
5.190000E+03	3.909973E-17	1.200021E-18
5.200000E+03	3.914091E-17	1.198469E-18
5.210000E+03	3.918316E-17	1.196934E-18
5.220000E+03	3.922420E-17	1.195349E-18
5.230000E+03	3.926641E-17	1.193784E-18
5.240000E+03	3.930753E-17	1.192171E-18
5.250000E+03	3.935222E-17	1.190652E-18
5.260000E+03	3.939590E-17	1.189087E-18
5.270000E+03	3.944095E-17	1.187548E-18
5.280000E+03	3.948504E-17	1.185966E-18
5.290000E+03	3.953059E-17	1.184412E-18
5.300000E+03	3.957760E-17	1.182887E-18
5.310000E+03	3.962612E-17	1.181391E-18
5.320000E+03	3.967388E-17	1.179858E-18
5.330000E+03	3.972323E-17	1.178356E-18
5.340000E+03	3.977420E-17	1.176886E-18
5.350000E+03	3.982454E-17	1.175382E-18
5.360000E+03	3.987658E-17	1.173912E-18
5.370000E+03	3.993033E-17	1.172477E-18
5.380000E+03	3.998359E-17	1.171012E-18
5.390000E+03	4.003864E-17	1.169583E-18
5.400000E+03	4.009551E-17	1.168190E-18
5.410000E+03	4.015199E-17	1.166770E-18
5.420000E+03	4.021035E-17	1.165389E-18
5.430000E+03	4.026839E-17	1.163981E-18
5.440000E+03	4.033061E-17	1.162678E-18
5.450000E+03	4.039033E-17	1.161286E-18
5.460000E+03	4.045430E-17	1.159999E-18
5.470000E+03	4.051806E-17	1.158690E-18
5.480000E+03	4.058165E-17	1.157359E-18
5.490000E+03	4.064954E-17	1.156133E-18
5.500000E+03	4.071510E-17	1.154824E-18
5.510000E+03	4.078501E-17	1.153621E-18
5.520000E+03	4.085484E-17	1.152398E-18
5.530000E+03	4.092464E-17	1.151158E-18
5.540000E+03	4.099884E-17	1.150023E-18
5.550000E+03	4.107082E-17	1.148809E-18
5.560000E+03	4.114725E-17	1.147702E-18
5.570000E+03	4.122371E-17	1.146577E-18
5.580000E+03	4.130022E-17	1.145436E-18
5.590000E+03	4.137903E-17	1.144341E-18
5.600000E+03	4.146012E-17	1.143291E-18
5.610000E+03	4.154131E-17	1.142226E-18
5.620000E+03	4.162483E-17	1.141207E-18
5.630000E+03	4.170848E-17	1.140173E-18
5.640000E+03	4.179447E-17	1.139186E-18
5.650000E+03	4.188283E-17	1.138244E-18
5.660000E+03	4.197135E-17	1.137288E-18
5.670000E+03	4.206005E-17	1.136319E-18
5.680000E+03	4.215114E-17	1.135396E-18
5.690000E+03	4.224462E-17	1.134520E-18
5.700000E+03	4.233831E-17	1.133630E-18
5.710000E+03	4.243221E-17	1.132728E-18
5.720000E+03	4.253072E-17	1.131931E-18
5.730000E+03	4.262726E-17	1.131062E-18
5.740000E+03	4.272623E-17	1.130240E-18
5.750000E+03	4.282762E-17	1.129464E-18
5.760000E+03	4.292925E-17	1.128676E-18
5.770000E+03	4.303332E-17	1.127934E-18
5.780000E+03	4.313761E-17	1.127179E-18
5.790000E+03	4.324435E-17	1.126470E-18
5.800000E+03	4.335132E-17	1.125750E-18
5.810000E+03	4.346073E-17	1.125074E-18
5.820000E+03	4.357035E-17	1.124387E-18
5.830000E+03	4.368242E-17	1.123744E-18
5.840000E+03	4.379469E-17	1.123090E-18
5.850000E+03	4.390939E-17	1.122480E-18
5.860000E+03	4.402429E-17	1.121858E-18
5.870000E+03	4.414159E-17	1.121279E-18
5.880000E+03	4.425907E-17	1.120689E-18
5.890000E+03	4.437893E-17	1.120142E-18
5.900000E+03	4.449894E-17	1.119582E-18
5.910000E+03	4.462131E-17	1.119065E-18
5.920000E+03	4.474380E-17	1.118535E-18
5.930000E+03	4.486861E-17	1.118047E-18
5.940000E+03	4.499349E-17	1.117544E-18
5.950000E+03	4.511842E-17	1.117028E-18
5.960000E+03	4.524786E-17	1.116609E-18
5.970000E+03	4.537504E-17	1.116119E-18
5.980000E+03	4.550443E-17	1.115669E-18
5.990000E+03	4.563601E-17	1.115258E-18
6.000000E+03	4.576748E-17	1.114831E-18
6.010000E+03	4.589881E-17	1.114388E-18
6.020000E+03	4.603221E-17	1.113982E-18
6.030000E+03	4.616538E-17	1.113558E-18
6.040000E+03	4.630054E-17	1.113170E-18
6.050000E+03	4.643539E-17	1.112763E-18
6.060000E+03	4.657212E-17	1.112390E-18
6.070000E+03	4.670843E-17	1.111997E-18
6.080000E+03	4.684652E-17	1.111636E-18
6.090000E+03	4.698406E-17	1.111253E-18
6.100000E+03	4.712325E-17	1.110900E-18
6.110000E+03	4.726177E-17	1.110524E-18
6.120000E+03	4.740181E-17	1.110175E-18
6.130000E+03	4.754100E-17	1.109801E-18
6.140000E+03	4.767927E-17	1.109398E-18
6.150000E+03	4.781882E-17	1.109020E-18
6.160000E+03	4.795959E-17	1.108667E-18
6.170000E+03	4.809916E-17	1.108281E-18
6.180000E+03	4.823744E-17	1.107863E-18
6.190000E+03	4.837664E-17	1.107465E-18
6.200000E+03	4.851435E-17	1.107031E-18
6.210000E+03	4.865277E-17	1.106614E-18
6.220000E+03	4.878946E-17	1.106158E-18
6.230000E+03	4.892666E-17	1.105715E-18
6.240000E+03	4.906189E-17	1.105231E-18
6.250000E+03	4.919741E-17	1.104757E-18
6.260000E+03	4.933072E-17	1.104239E-18
6.270000E+03	4.946405E-17	1.103727E-18
6.280000E+03	4.959492E-17	1.103168E-18
6.290000E+03	4.972321E-17	1.102559E-18
6.300000E+03	4.985114E-17	1.101953E-18
6.310000E+03	4.997862E-17	1.101348E-18
6.320000E+03	5.010312E-17	1.100688E-18
6.330000E+03	5.022450E-17	1.099974E-18
6.340000E+03	5.034505E-17	1.099257E-18
6.350000E+03	5.046466E-17	1.098535E-18
6.360000E+03	5.057838E-17	1.097702E-18
6.370000E+03	5.069334E-17	1.096915E-18
6.380000E+03	5.080461E-17	1.096069E-18
6.390000E+03	5.091207E-17	1.095161E-18
6.400000E+03	5.101809E-17	1.094246E-18
6.410000E+03	5.112011E-17	1.093270E-18
6.420000E+03	5.122052E-17	1.092285E-18
6.430000E+03	5.131680E-17	1.091239E-18
6.440000E+03	5.141134E-17	1.090186E-18
6.450000E+03	5.150410E-17	1.089124E-18
6.460000E+03	5.159012E-17	1.087952E-18
6.470000E+03	5.167675E-17	1.086826E-18
6.480000E+03	5.175905E-17	1.085643E-18
6.490000E+03	5.183700E-17	1.084405E-18
6.500000E+03	5.191306E-17	1.083165E-18
6.510000E+03	5.198475E-17	1.081873E-18
6.520000E+03	5.205457E-17	1.080583E-18
6.530000E+03	5.212002E-17	1.079242E-18
6.540000E+03	5.218358E-17	1.077904E-18
6.550000E+03	5.224513E-17	1.076565E-18
6.560000E+03	5.230209E-17	1.075172E-18
6.570000E+03	5.235435E-17	1.073722E-18
6.580000E+03	5.240431E-17	1.072266E-18
6.590000E+03	5.245192E-17	1.070801E-18
6.600000E+03	5.249455E-17	1.069274E-18
6.610000E+03	5.253217E-17	1.067684E-18
6.620000E+03	5.256720E-17	1.066080E-18
6.630000E+03	5.259960E-17	1.064461E-18
6.640000E+03	5.262684E-17	1.062775E-18
6.650000E+03	5.265138E-17	1.061073E-18
6.660000E+03	5.267068E-17	1.059303E-18
6.670000E+03	5.268726E-17	1.057514E-18
6.680000E+03	5.270112E-17	1.055708E-18
6.690000E+03	5.270975E-17	1.053832E-18
6.700000E+03	5.271316E-17	1.051888E-18
6.710000E+03	5.271390E-17	1.049926E-18
6.720000E+03	5.271199E-17	1.047946E-18
6.730000E+03	5.270496E-17	1.045899E-18
6.740000E+03	5.269536E-17	1.043834E-18
6.750000E+03	5.268071E-17	1.041703E-18
6.760000E+03	5.266359E-17	1.039556E-18
6.770000E+03	5.264407E-17	1.037394E-18
6.780000E+03	5.261965E-17	1.035168E-18
6.790000E+03	5.259292E-17	1.032928E-18
6.800000E+03	5.256140E-17	1.030624E-18
6.810000E+03	5.252769E-17	1.028309E-18
6.820000E+03	5.248932E-17	1.025932E-18
6.830000E+03	5.244886E-17	1.023544E-18
6.840000E+03	5.240636E-17	1.021146E-18
6.850000E+03	5.235936E-17	1.018689E-18
6.860000E+03	5.231044E-17	1.016223E-18
6.870000E+03	5.225710E-17	1.013699E-18
6.880000E+03	5.220193E-17	1.011168E-18
6.890000E+03	5.214498E-17	1.008628E-18
6.900000E+03	5.208374E-17	1.006032E-18
6.910000E+03	5.202080E-17	1.003430E-18
6.920000E+03	5.195618E-17	1.000822E-18
6.930000E+03	5.188739E-17	9.981582E-19
6.940000E+03	5.181699E-17	9.954887E-19
6.950000E+03	5.174248E-17	9.927652E-19
6.960000E+03	5.166641E-17	9.900363E-19
6.970000E+03	5.158879E-17	9.873019E-19
6.980000E+03	5.150965E-17	9.845620E-19
6.990000E+03	5.142648E-17	9.817687E-19
7.000000E+03	5.133928E-17	9.789218E-19
7.010000E+03	5.125312E-17	9.761178E-19
7.020000E+03	5.116044E-17	9.732123E-19
7.030000E+03	5.106880E-17	9.703492E-19
7.040000E+03	5.097316E-17	9.674325E-19
7.050000E+03	5.087604E-17	9.645099E-19
7.060000E+03	5.077744E-17	9.615812E-19
7.070000E+03	5.067483E-17	9.585986E-19
7.080000E+03	5.057072E-17	9.556093E-19
7.090000E+03	5.046511E-17	9.526132E-19
7.100000E+03	5.035546E-17	9.495626E-19
7.110000E+03	5.024427E-17	9.465044E-19
7.120000E+03	5.013153E-17	9.434384E-19
7.130000E+03	5.001472E-17	9.403172E-19
7.140000E+03	4.989631E-17	9.371875E-19
7.150000E+03	4.977629E-17	9.340488E-19
7.160000E+03	4.965213E-17	9.308542E-19
7.170000E+03	4.952631E-17	9.276498E-19
7.180000E+03	4.939880E-17	9.244353E-19
7.190000E+03	4.926956E-17	9.212102E-19
7.200000E+03	4.913609E-17	9.179279E-19
7.210000E+03	4.900084E-17	9.146341E-19
7.220000E+03	4.886378E-17	9.113285E-19
7.230000E+03	4.872241E-17	9.079649E-19
7.240000E+03	4.857916E-17	9.045887E-19
7.250000E+03	4.843400E-17	9.011994E-19
7.260000E+03	4.828687E-17	8.977964E-19
7.270000E+03	4.813533E-17	8.943343E-19
7.280000E+03	4.798175E-17	8.908576E-19
7.290000E+03	4.782610E-17	8.873662E-19
7.300000E+03	4.766593E-17	8.838146E-19
7.310000E+03	4.750363E-17	8.802475E-19
7.320000E+03	4.733914E-17	8.766644E-19
7.330000E+03	4.717243E-17	8.730648E-19
7.340000E+03	4.700105E-17	8.694038E-19
7.350000E+03	4.682738E-17	8.657257E-19
7.360000E+03	4.665136E-17	8.620301E-19
7.370000E+03	4.647297E-17	8.583166E-19
7.380000E+03	4.628976E-17	8.545405E-19
7.390000E+03	4.610648E-17	8.507898E-19
7.400000E+03	4.591832E-17	8.469761E-19
7.410000E+03	4.572526E-17	8.430995E-19
7.420000E+03	4.553198E-17	8.392468E-19
7.430000E+03	4.533373E-17	8.353306E-19
7.440000E+03	4.513283E-17	8.313942E-19
7.450000E+03	4.492924E-17	8.274374E-19
7.460000E+03	4.472060E-17	8.234167E-19
7.470000E+03	4.451154E-17	8.194180E-19
7.480000E+03	4.429737E-17	8.153554E-19
7.490000E+03	4.408038E-17	8.112713E-19
7.500000E+03	4.385826E-17	8.071234E-19
7.510000E+03	4.363560E-17	8.029968E-19
7.520000E+03	4.340774E-17	7.988059E-19
7.530000E+03	4.317701E-17	7.945939E-19
7.540000E+03	4.294336E-17	7.903604E-19
7.550000E+03	4.270679E-17	7.861053E-19
7.560000E+03	4.246504E-17	7.817875E-19
7.570000E+03	4.222038E-17	7.774490E-19
7.580000E+03	4.197282E-17	7.730900E-19
7.590000E+03	4.172235E-17	7.687108E-19
7.600000E+03	4.146900E-17	7.643121E-19
7.610000E+03	4.121056E-17	7.598534E-19
7.620000E+03	4.094933E-17	7.553767E-19
7.630000E+03	4.068531E-17	7.508826E-19
7.640000E+03	4.041858E-17	7.463722E-19
7.650000E+03	4.014917E-17	7.418466E-19
7.660000E+03	3.987499E-17	7.372669E-19
7.670000E+03	3.960047E-17	7.327149E-19
7.680000E+03	3.932137E-17	7.281121E-19
7.690000E+03	3.903995E-17	7.235005E-19
7.700000E+03	3.875634E-17	7.188818E-19
7.710000E+03	3.846856E-17	7.142198E-19
7.720000E+03	3.818097E-17	7.095947E-19
7.730000E+03	3.788953E-17	7.049316E-19
7.740000E+03	3.759653E-17	7.002724E-19
7.750000E+03	3.730216E-17	6.956206E-19
7.760000E+03	3.700664E-17	6.909798E-19
