#wls	flux	fluxerr
1.600000E+03	2.984462E-18	1.362186E-19
1.640000E+03	3.075728E-18	1.402029E-19
1.680000E+03	3.170855E-18	1.443476E-19
1.720000E+03	3.269984E-18	1.486578E-19
1.760000E+03	3.372157E-18	1.530888E-19
1.800000E+03	3.479712E-18	1.577453E-19
1.840000E+03	3.590568E-18	1.625315E-19
1.880000E+03	3.707161E-18	1.675563E-19
1.920000E+03	3.827328E-18	1.727200E-19
1.960000E+03	3.953601E-18	1.781354E-19
2.000000E+03	4.083734E-18	1.836992E-19
2.040000E+03	4.220362E-18	1.895282E-19
2.080000E+03	4.361147E-18	1.955152E-19
2.120000E+03	4.508829E-18	2.017810E-19
2.160000E+03	4.662324E-18	2.082745E-19
2.200000E+03	4.823189E-18	2.150627E-19
2.240000E+03	4.988897E-18	2.220303E-19
2.280000E+03	5.162414E-18	2.293067E-19
2.320000E+03	5.342564E-18	2.368363E-19
2.360000E+03	5.531031E-18	2.446909E-19
2.400000E+03	5.726596E-18	2.528128E-19
2.440000E+03	5.931008E-18	2.612758E-19
2.480000E+03	6.142994E-18	2.700198E-19
2.520000E+03	6.364375E-18	2.791210E-19
2.560000E+03	6.593821E-18	2.885168E-19
2.600000E+03	6.833227E-18	2.982855E-19
2.640000E+03	7.082912E-18	3.084362E-19
2.680000E+03	7.341458E-18	3.189020E-19
2.720000E+03	7.610868E-18	3.297648E-19
2.760000E+03	7.893290E-18	3.411117E-19
2.800000E+03	8.185461E-18	3.527952E-19
2.840000E+03	8.489497E-18	3.649008E-19
2.880000E+03	8.807666E-18	3.775187E-19
2.920000E+03	9.136485E-18	3.904925E-19
2.960000E+03	9.480185E-18	4.039956E-19
3.000000E+03	9.837170E-18	4.179519E-19
3.010000E+03	9.928412E-18	4.215074E-19
3.020000E+03	1.002024E-17	4.250802E-19
3.030000E+03	1.011267E-17	4.286707E-19
3.040000E+03	1.020777E-17	4.323672E-19
3.050000E+03	1.030142E-17	4.359937E-19
3.060000E+03	1.039776E-17	4.397263E-19
3.070000E+03	1.049472E-17	4.434774E-19
3.080000E+03	1.059232E-17	4.472466E-19
3.090000E+03	1.069267E-17	4.511240E-19
3.100000E+03	1.079152E-17	4.549294E-19
3.110000E+03	1.089315E-17	4.588436E-19
3.120000E+03	1.099327E-17	4.626853E-19
3.130000E+03	1.109619E-17	4.666360E-19
3.140000E+03	1.119975E-17	4.706049E-19
3.150000E+03	1.130617E-17	4.746845E-19
3.160000E+03	1.141105E-17	4.786901E-19
3.170000E+03	1.151880E-17	4.828069E-19
3.180000E+03	1.162498E-17	4.868489E-19
3.190000E+03	1.173406E-17	4.910022E-19
3.200000E+03	1.184380E-17	4.951735E-19
3.210000E+03	1.195423E-17	4.993637E-19
3.220000E+03	1.206759E-17	5.036663E-19
3.230000E+03	1.217936E-17	5.078925E-19
3.240000E+03	1.229409E-17	5.122317E-19
3.250000E+03	1.240951E-17	5.165892E-19
3.260000E+03	1.252562E-17	5.209650E-19
3.270000E+03	1.264241E-17	5.253584E-19
3.280000E+03	1.275990E-17	5.297699E-19
3.290000E+03	1.288042E-17	5.342960E-19
3.300000E+03	1.299929E-17	5.387427E-19
3.310000E+03	1.312120E-17	5.433041E-19
3.320000E+03	1.324382E-17	5.478834E-19
3.330000E+03	1.336952E-17	5.525787E-19
3.340000E+03	1.349354E-17	5.571926E-19
3.350000E+03	1.361826E-17	5.618234E-19
3.360000E+03	1.374608E-17	5.665703E-19
3.370000E+03	1.387462E-17	5.713345E-19
3.380000E+03	1.400386E-17	5.761151E-19
3.390000E+03	1.413381E-17	5.809122E-19
3.400000E+03	1.426692E-17	5.858268E-19
3.410000E+03	1.439826E-17	5.906556E-19
3.420000E+03	1.453279E-17	5.956023E-19
3.430000E+03	1.466801E-17	6.005642E-19
3.440000E+03	1.480394E-17	6.055416E-19
3.450000E+03	1.494308E-17	6.106368E-19
3.460000E+03	1.508039E-17	6.156436E-19
3.470000E+03	1.522094E-17	6.207686E-19
3.480000E+03	1.536218E-17	6.259076E-19
3.490000E+03	1.550410E-17	6.310603E-19
3.500000E+03	1.564670E-17	6.362264E-19
3.510000E+03	1.579257E-17	6.415105E-19
3.520000E+03	1.593652E-17	6.467019E-19
3.530000E+03	1.608373E-17	6.520109E-19
3.540000E+03	1.623160E-17	6.573316E-19
3.550000E+03	1.638013E-17	6.626637E-19
3.560000E+03	1.652930E-17	6.680060E-19
3.570000E+03	1.668176E-17	6.734659E-19
3.580000E+03	1.683486E-17	6.789355E-19
3.590000E+03	1.698858E-17	6.844144E-19
3.600000E+03	1.714292E-17	6.899020E-19
3.610000E+03	1.729785E-17	6.953969E-19
3.620000E+03	1.745337E-17	7.008991E-19
3.630000E+03	1.761217E-17	7.065163E-19
3.640000E+03	1.777155E-17	7.121400E-19
3.650000E+03	1.793149E-17	7.177688E-19
3.660000E+03	1.809195E-17	7.234014E-19
3.670000E+03	1.825571E-17	7.291485E-19
3.680000E+03	1.841720E-17	7.347871E-19
3.690000E+03	1.858196E-17	7.405385E-19
3.700000E+03	1.874719E-17	7.462906E-19
3.710000E+03	1.891288E-17	7.520430E-19
3.720000E+03	1.908182E-17	7.579063E-19
3.730000E+03	1.924835E-17	7.636551E-19
3.740000E+03	1.941811E-17	7.695133E-19
3.750000E+03	1.958823E-17	7.753674E-19
3.760000E+03	1.975871E-17	7.812162E-19
3.770000E+03	1.992949E-17	7.870580E-19
3.780000E+03	2.010346E-17	7.930061E-19
3.790000E+03	2.027480E-17	7.988311E-19
3.800000E+03	2.044928E-17	8.047601E-19
3.810000E+03	2.062397E-17	8.106774E-19
3.820000E+03	2.080177E-17	8.166971E-19
3.830000E+03	2.097678E-17	8.225869E-19
3.840000E+03	2.115485E-17	8.285762E-19
3.850000E+03	2.133004E-17	8.344326E-19
3.860000E+03	2.150825E-17	8.403862E-19
3.870000E+03	2.168645E-17	8.463187E-19
3.880000E+03	2.186761E-17	8.523458E-19
3.890000E+03	2.204572E-17	8.582327E-19
3.900000E+03	2.222672E-17	8.642112E-19
3.910000E+03	2.240756E-17	8.701622E-19
3.920000E+03	2.258823E-17	8.760845E-19
3.930000E+03	2.276864E-17	8.819757E-19
3.940000E+03	2.295183E-17	8.879525E-19
3.950000E+03	2.313163E-17	8.937765E-19
3.960000E+03	2.331412E-17	8.996827E-19
3.970000E+03	2.349619E-17	9.055503E-19
3.980000E+03	2.367779E-17	9.113777E-19
3.990000E+03	2.386195E-17	9.172811E-19
4.000000E+03	2.404246E-17	9.230221E-19
4.010000E+03	2.422544E-17	9.288354E-19
4.020000E+03	2.440463E-17	9.344809E-19
4.030000E+03	2.458620E-17	9.401954E-19
4.040000E+03	2.477012E-17	9.459765E-19
4.050000E+03	2.495007E-17	9.515838E-19
4.060000E+03	2.512913E-17	9.571338E-19
4.070000E+03	2.531038E-17	9.627452E-19
4.080000E+03	2.549063E-17	9.682952E-19
4.090000E+03	2.566983E-17	9.737825E-19
4.100000E+03	2.584792E-17	9.792047E-19
4.110000E+03	2.602483E-17	9.845596E-19
4.120000E+03	2.620370E-17	9.899655E-19
4.130000E+03	2.638128E-17	9.953001E-19
4.140000E+03	2.655435E-17	1.000441E-18
4.150000E+03	2.672922E-17	1.005628E-18
4.160000E+03	2.690266E-17	1.010737E-18
4.170000E+03	2.707782E-17	1.015888E-18
4.180000E+03	2.724822E-17	1.020838E-18
4.190000E+03	2.742025E-17	1.025826E-18
4.200000E+03	2.758743E-17	1.030611E-18
4.210000E+03	2.775615E-17	1.035429E-18
4.220000E+03	2.792315E-17	1.040162E-18
4.230000E+03	2.808837E-17	1.044805E-18
4.240000E+03	2.825180E-17	1.049359E-18
4.250000E+03	2.841662E-17	1.053943E-18
4.260000E+03	2.857633E-17	1.058315E-18
4.270000E+03	2.873737E-17	1.062714E-18
4.280000E+03	2.889647E-17	1.067019E-18
4.290000E+03	2.905362E-17	1.071230E-18
4.300000E+03	2.920879E-17	1.075346E-18
4.310000E+03	2.936194E-17	1.079366E-18
4.320000E+03	2.951307E-17	1.083290E-18
4.330000E+03	2.966215E-17	1.087118E-18
4.340000E+03	2.981244E-17	1.090969E-18
4.350000E+03	2.995741E-17	1.094604E-18
4.360000E+03	3.010356E-17	1.098261E-18
4.370000E+03	3.024763E-17	1.101821E-18
4.380000E+03	3.038962E-17	1.105285E-18
4.390000E+03	3.052951E-17	1.108652E-18
4.400000E+03	3.066730E-17	1.111922E-18
4.410000E+03	3.080295E-17	1.115094E-18
4.420000E+03	3.093969E-17	1.118285E-18
4.430000E+03	3.107097E-17	1.121260E-18
4.440000E+03	3.120327E-17	1.124251E-18
4.450000E+03	3.133007E-17	1.127025E-18
4.460000E+03	3.145785E-17	1.129814E-18
4.470000E+03	3.158331E-17	1.132501E-18
4.480000E+03	3.170646E-17	1.135085E-18
4.490000E+03	3.182403E-17	1.137451E-18
4.500000E+03	3.194250E-17	1.139829E-18
4.510000E+03	3.205860E-17	1.142105E-18
4.520000E+03	3.217555E-17	1.144392E-18
4.530000E+03	3.228691E-17	1.146461E-18
4.540000E+03	3.239590E-17	1.148428E-18
4.550000E+03	3.250252E-17	1.150292E-18
4.560000E+03	3.260999E-17	1.152168E-18
4.570000E+03	3.271189E-17	1.153830E-18
4.580000E+03	3.281466E-17	1.155504E-18
4.590000E+03	3.291190E-17	1.156965E-18
4.600000E+03	3.301003E-17	1.158440E-18
4.610000E+03	3.310269E-17	1.159706E-18
4.620000E+03	3.319628E-17	1.160987E-18
4.630000E+03	3.328445E-17	1.162061E-18
4.640000E+03	3.337362E-17	1.163153E-18
4.650000E+03	3.346061E-17	1.164152E-18
4.660000E+03	3.354547E-17	1.165060E-18
4.670000E+03	3.362507E-17	1.165769E-18
4.680000E+03	3.370580E-17	1.166500E-18
4.690000E+03	3.378451E-17	1.167145E-18
4.700000E+03	3.386126E-17	1.167707E-18
4.710000E+03	3.393296E-17	1.168078E-18
4.720000E+03	3.400592E-17	1.168476E-18
4.730000E+03	3.407709E-17	1.168797E-18
4.740000E+03	3.414647E-17	1.169042E-18
4.750000E+03	3.421414E-17	1.169211E-18
4.760000E+03	3.427706E-17	1.169203E-18
4.770000E+03	3.434148E-17	1.169232E-18
4.780000E+03	3.440435E-17	1.169192E-18
4.790000E+03	3.446266E-17	1.168982E-18
4.800000E+03	3.452261E-17	1.168813E-18
4.810000E+03	3.458119E-17	1.168582E-18
4.820000E+03	3.463540E-17	1.168189E-18
4.830000E+03	3.469142E-17	1.167843E-18
4.840000E+03	3.474625E-17	1.167442E-18
4.850000E+03	3.479690E-17	1.166885E-18
4.860000E+03	3.484650E-17	1.166280E-18
4.870000E+03	3.489810E-17	1.165727E-18
4.880000E+03	3.494575E-17	1.165028E-18
4.890000E+03	3.499253E-17	1.164286E-18
4.900000E+03	3.504148E-17	1.163602E-18
4.910000E+03	3.508667E-17	1.162779E-18
4.920000E+03	3.513117E-17	1.161919E-18
4.930000E+03	3.517503E-17	1.161024E-18
4.940000E+03	3.521832E-17	1.160096E-18
4.950000E+03	3.526108E-17	1.159137E-18
4.960000E+03	3.530044E-17	1.158053E-18
4.970000E+03	3.534236E-17	1.157040E-18
4.980000E+03	3.538394E-17	1.156001E-18
4.990000E+03	3.542231E-17	1.154844E-18
5.000000E+03	3.546047E-17	1.153666E-18
5.010000E+03	3.550140E-17	1.152565E-18
5.020000E+03	3.553930E-17	1.151352E-18
5.030000E+03	3.557716E-17	1.150125E-18
5.040000E+03	3.561505E-17	1.148885E-18
5.050000E+03	3.565299E-17	1.147633E-18
5.060000E+03	3.568819E-17	1.146279E-18
5.070000E+03	3.572645E-17	1.145010E-18
5.080000E+03	3.576209E-17	1.143644E-18
5.090000E+03	3.580087E-17	1.142364E-18
5.100000E+03	3.583714E-17	1.140991E-18
5.110000E+03	3.587381E-17	1.139617E-18
5.120000E+03	3.591093E-17	1.138244E-18
5.130000E+03	3.594855E-17	1.136873E-18
5.140000E+03	3.598390E-17	1.135417E-18
5.150000E+03	3.602267E-17	1.134054E-18
5.160000E+03	3.605927E-17	1.132611E-18
5.170000E+03	3.609659E-17	1.131175E-18
5.180000E+03	3.613465E-17	1.129750E-18
5.190000E+03	3.617352E-17	1.128335E-18
5.200000E+03	3.621322E-17	1.126933E-18
5.210000E+03	3.625104E-17	1.125458E-18
5.220000E+03	3.628980E-17	1.123999E-18
5.230000E+03	3.632953E-17	1.122556E-18
5.240000E+03	3.637031E-17	1.121131E-18
5.250000E+03	3.641213E-17	1.119724E-18
5.260000E+03	3.645508E-17	1.118337E-18
5.270000E+03	3.649643E-17	1.116887E-18
5.280000E+03	3.653898E-17	1.115459E-18
5.290000E+03	3.658277E-17	1.114054E-18
5.300000E+03	3.662784E-17	1.112674E-18
5.310000E+03	3.667149E-17	1.111237E-18
5.320000E+03	3.671923E-17	1.109908E-18
5.330000E+03	3.676563E-17	1.108524E-18
5.340000E+03	3.681347E-17	1.107169E-18
5.350000E+03	3.686007E-17	1.105761E-18
5.360000E+03	3.691088E-17	1.104465E-18
5.370000E+03	3.696051E-17	1.103118E-18
5.380000E+03	3.701173E-17	1.101803E-18
5.390000E+03	3.706456E-17	1.100521E-18
5.400000E+03	3.711632E-17	1.099192E-18
5.410000E+03	3.717245E-17	1.097977E-18
5.420000E+03	3.722760E-17	1.096716E-18
5.430000E+03	3.728447E-17	1.095491E-18
5.440000E+03	3.734042E-17	1.094223E-18
5.450000E+03	3.740084E-17	1.093069E-18
5.460000E+03	3.746041E-17	1.091875E-18
5.470000E+03	3.752181E-17	1.090718E-18
5.480000E+03	3.758241E-17	1.089521E-18
5.490000E+03	3.764491E-17	1.088363E-18
5.500000E+03	3.770932E-17	1.087245E-18
5.510000E+03	3.777567E-17	1.086165E-18
5.520000E+03	3.784396E-17	1.085124E-18
5.530000E+03	3.791158E-17	1.084048E-18
5.540000E+03	3.798117E-17	1.083010E-18
5.550000E+03	3.805277E-17	1.082014E-18
5.560000E+03	3.812373E-17	1.080982E-18
5.570000E+03	3.819673E-17	1.079990E-18
5.580000E+03	3.827176E-17	1.079039E-18
5.590000E+03	3.834886E-17	1.078129E-18
5.600000E+03	3.842536E-17	1.077185E-18
5.610000E+03	3.850395E-17	1.076281E-18
5.620000E+03	3.858460E-17	1.075418E-18
5.630000E+03	3.866471E-17	1.074522E-18
5.640000E+03	3.874692E-17	1.073667E-18
5.650000E+03	3.883122E-17	1.072852E-18
5.660000E+03	3.891499E-17	1.072005E-18
5.670000E+03	3.900352E-17	1.071272E-18
5.680000E+03	3.909152E-17	1.070505E-18
5.690000E+03	3.917897E-17	1.069706E-18
5.700000E+03	3.926856E-17	1.068948E-18
5.710000E+03	3.936025E-17	1.068229E-18
5.720000E+03	3.945406E-17	1.067550E-18
5.730000E+03	3.954732E-17	1.066838E-18
5.740000E+03	3.964537E-17	1.066238E-18
5.750000E+03	3.974020E-17	1.065533E-18
5.760000E+03	3.983979E-17	1.064938E-18
5.770000E+03	3.993882E-17	1.064310E-18
5.780000E+03	4.003727E-17	1.063649E-18
5.790000E+03	4.014047E-17	1.063097E-18
5.800000E+03	4.024306E-17	1.062511E-18
5.810000E+03	4.034773E-17	1.061963E-18
5.820000E+03	4.045176E-17	1.061381E-18
5.830000E+03	4.055783E-17	1.060835E-18
5.840000E+03	4.066591E-17	1.060325E-18
5.850000E+03	4.077601E-17	1.059850E-18
5.860000E+03	4.088541E-17	1.059340E-18
5.870000E+03	4.099676E-17	1.058864E-18
5.880000E+03	4.110738E-17	1.058353E-18
5.890000E+03	4.121993E-17	1.057876E-18
5.900000E+03	4.133438E-17	1.057431E-18
5.910000E+03	4.144800E-17	1.056950E-18
5.920000E+03	4.156619E-17	1.056569E-18
5.930000E+03	4.168079E-17	1.056082E-18
5.940000E+03	4.179990E-17	1.055695E-18
5.950000E+03	4.191805E-17	1.055268E-18
5.960000E+03	4.203795E-17	1.054871E-18
5.970000E+03	4.215683E-17	1.054435E-18
5.980000E+03	4.227737E-17	1.054026E-18
5.990000E+03	4.239953E-17	1.053645E-18
6.000000E+03	4.252055E-17	1.053222E-18
6.010000E+03	4.264311E-17	1.052826E-18
6.020000E+03	4.276719E-17	1.052454E-18
6.030000E+03	4.288997E-17	1.052039E-18
6.040000E+03	4.301417E-17	1.051648E-18
6.050000E+03	4.313697E-17	1.051213E-18
6.060000E+03	4.326385E-17	1.050867E-18
6.070000E+03	4.338926E-17	1.050475E-18
6.080000E+03	4.351308E-17	1.050036E-18
6.090000E+03	4.363806E-17	1.049617E-18
6.100000E+03	4.376415E-17	1.049217E-18
6.110000E+03	4.389128E-17	1.048835E-18
6.120000E+03	4.401661E-17	1.048403E-18
6.130000E+03	4.414286E-17	1.047987E-18
6.140000E+03	4.426716E-17	1.047521E-18
6.150000E+03	4.439226E-17	1.047069E-18
6.160000E+03	4.451808E-17	1.046631E-18
6.170000E+03	4.464175E-17	1.046139E-18
6.180000E+03	4.476600E-17	1.045660E-18
6.190000E+03	4.489079E-17	1.045192E-18
6.200000E+03	4.501319E-17	1.044668E-18
6.210000E+03	4.513596E-17	1.044154E-18
6.220000E+03	4.525904E-17	1.043648E-18
6.230000E+03	4.537952E-17	1.043085E-18
6.240000E+03	4.550014E-17	1.042529E-18
6.250000E+03	4.561798E-17	1.041914E-18
6.260000E+03	4.573582E-17	1.041305E-18
6.270000E+03	4.585359E-17	1.040701E-18
6.280000E+03	4.597123E-17	1.040101E-18
6.290000E+03	4.608575E-17	1.039440E-18
6.300000E+03	4.619998E-17	1.038782E-18
6.310000E+03	4.631093E-17	1.038062E-18
6.320000E+03	4.642143E-17	1.037343E-18
6.330000E+03	4.653139E-17	1.036626E-18
6.340000E+03	4.663784E-17	1.035845E-18
6.350000E+03	4.674358E-17	1.035064E-18
6.360000E+03	4.684858E-17	1.034284E-18
6.370000E+03	4.694979E-17	1.033439E-18
6.380000E+03	4.705009E-17	1.032592E-18
6.390000E+03	4.714940E-17	1.031745E-18
6.400000E+03	4.724469E-17	1.030832E-18
6.410000E+03	4.733881E-17	1.029916E-18
6.420000E+03	4.743172E-17	1.028999E-18
6.430000E+03	4.752036E-17	1.028015E-18
6.440000E+03	4.760760E-17	1.027027E-18
6.450000E+03	4.769039E-17	1.025973E-18
6.460000E+03	4.777462E-17	1.024979E-18
6.470000E+03	4.785423E-17	1.023917E-18
6.480000E+03	4.792915E-17	1.022788E-18
6.490000E+03	4.800226E-17	1.021653E-18
6.500000E+03	4.807349E-17	1.020514E-18
6.510000E+03	4.814276E-17	1.019370E-18
6.520000E+03	4.820697E-17	1.018156E-18
6.530000E+03	4.826904E-17	1.016936E-18
6.540000E+03	4.832893E-17	1.015709E-18
6.550000E+03	4.838361E-17	1.014410E-18
6.560000E+03	4.843610E-17	1.013103E-18
6.570000E+03	4.848335E-17	1.011725E-18
6.580000E+03	4.853144E-17	1.010401E-18
6.590000E+03	4.857427E-17	1.009006E-18
6.600000E+03	4.861186E-17	1.007539E-18
6.610000E+03	4.864724E-17	1.006062E-18
6.620000E+03	4.868038E-17	1.004576E-18
6.630000E+03	4.871130E-17	1.003079E-18
6.640000E+03	4.873694E-17	1.001510E-18
6.650000E+03	4.876034E-17	9.999298E-19
6.660000E+03	4.878150E-17	9.983387E-19
6.670000E+03	4.880041E-17	9.967358E-19
6.680000E+03	4.881402E-17	9.950589E-19
6.690000E+03	4.882234E-17	9.933078E-19
6.700000E+03	4.883144E-17	9.916059E-19
6.710000E+03	4.883525E-17	9.898294E-19
6.720000E+03	4.883679E-17	9.880395E-19
6.730000E+03	4.883302E-17	9.861742E-19
6.740000E+03	4.883006E-17	9.843568E-19
6.750000E+03	4.882179E-17	9.824635E-19
6.760000E+03	4.880823E-17	9.804946E-19
6.770000E+03	4.879547E-17	9.785722E-19
6.780000E+03	4.877743E-17	9.765736E-19
6.790000E+03	4.875410E-17	9.744988E-19
6.800000E+03	4.873161E-17	9.724699E-19
6.810000E+03	4.870387E-17	9.703648E-19
6.820000E+03	4.867392E-17	9.682438E-19
6.830000E+03	4.864178E-17	9.661072E-19
6.840000E+03	4.860442E-17	9.638941E-19
6.850000E+03	4.856490E-17	9.616654E-19
6.860000E+03	4.852321E-17	9.594205E-19
6.870000E+03	4.847634E-17	9.570993E-19
6.880000E+03	4.842735E-17	9.547620E-19
6.890000E+03	4.837624E-17	9.524086E-19
6.900000E+03	4.832303E-17	9.500391E-19
6.910000E+03	4.826469E-17	9.475935E-19
6.920000E+03	4.820428E-17	9.451316E-19
6.930000E+03	4.814180E-17	9.426533E-19
6.940000E+03	4.807727E-17	9.401588E-19
6.950000E+03	4.800766E-17	9.375885E-19
6.960000E+03	4.793603E-17	9.350018E-19
6.970000E+03	4.786239E-17	9.323990E-19
6.980000E+03	4.778370E-17	9.297207E-19
6.990000E+03	4.770302E-17	9.270260E-19
7.000000E+03	4.762035E-17	9.243150E-19
7.010000E+03	4.753569E-17	9.215873E-19
7.020000E+03	4.744907E-17	9.188435E-19
7.030000E+03	4.735745E-17	9.160244E-19
7.040000E+03	4.726388E-17	9.131891E-19
7.050000E+03	4.716835E-17	9.103373E-19
7.060000E+03	4.706786E-17	9.074108E-19
7.070000E+03	4.696541E-17	9.044678E-19
7.080000E+03	4.686102E-17	9.015085E-19
7.090000E+03	4.675468E-17	8.985325E-19
7.100000E+03	4.664341E-17	8.954825E-19
7.110000E+03	4.653318E-17	8.924733E-19
7.120000E+03	4.641801E-17	8.893901E-19
7.130000E+03	4.630090E-17	8.862903E-19
7.140000E+03	4.617887E-17	8.831171E-19
7.150000E+03	4.605488E-17	8.799272E-19
7.160000E+03	4.593190E-17	8.767774E-19
7.170000E+03	4.580105E-17	8.734981E-19
7.180000E+03	4.567119E-17	8.702585E-19
7.190000E+03	4.553936E-17	8.670023E-19
7.200000E+03	4.540262E-17	8.636737E-19
7.210000E+03	4.526389E-17	8.603285E-19
7.220000E+03	4.512026E-17	8.569113E-19
7.230000E+03	4.497759E-17	8.535337E-19
7.240000E+03	4.483000E-17	8.500845E-19
7.250000E+03	4.468333E-17	8.466743E-19
7.260000E+03	4.452885E-17	8.431379E-19
7.270000E+03	4.437527E-17	8.396409E-19
7.280000E+03	4.421968E-17	8.361280E-19
7.290000E+03	4.405920E-17	8.325452E-19
7.300000E+03	4.389672E-17	8.289473E-19
7.310000E+03	4.373222E-17	8.253343E-19
7.320000E+03	4.356572E-17	8.217068E-19
7.330000E+03	4.339434E-17	8.180107E-19
7.340000E+03	4.322096E-17	8.143007E-19
7.350000E+03	4.304558E-17	8.105771E-19
7.360000E+03	4.286822E-17	8.068403E-19
7.370000E+03	4.268885E-17	8.030904E-19
7.380000E+03	4.250750E-17	7.993281E-19
7.390000E+03	4.232136E-17	7.955009E-19
7.400000E+03	4.213325E-17	7.916621E-19
7.410000E+03	4.194321E-17	7.878127E-19
7.420000E+03	4.175123E-17	7.839531E-19
7.430000E+03	4.155456E-17	7.800317E-19
7.440000E+03	4.135877E-17	7.761537E-19
7.450000E+03	4.115836E-17	7.722158E-19
7.460000E+03	4.095612E-17	7.682707E-19
7.470000E+03	4.075206E-17	7.643193E-19
7.480000E+03	4.054623E-17	7.603625E-19
7.490000E+03	4.033594E-17	7.563502E-19
7.500000E+03	4.012397E-17	7.523349E-19
7.510000E+03	3.991306E-17	7.483681E-19
7.520000E+03	3.969785E-17	7.443498E-19
7.530000E+03	3.948109E-17	7.403316E-19
7.540000E+03	3.926019E-17	7.362652E-19
7.550000E+03	3.904054E-17	7.322520E-19
7.560000E+03	3.881687E-17	7.281935E-19
7.570000E+03	3.859195E-17	7.241416E-19
7.580000E+03	3.836581E-17	7.200974E-19
7.590000E+03	3.813858E-17	7.160631E-19
7.600000E+03	3.791031E-17	7.120402E-19
7.610000E+03	3.768110E-17	7.080306E-19
7.620000E+03	3.744845E-17	7.039876E-19
7.630000E+03	3.721510E-17	6.999624E-19
7.640000E+03	3.698113E-17	6.959571E-19
7.650000E+03	3.674667E-17	6.919739E-19
7.660000E+03	3.651183E-17	6.880152E-19
7.670000E+03	3.627672E-17	6.840831E-19
7.680000E+03	3.603897E-17	6.801329E-19
7.690000E+03	3.580375E-17	6.762620E-19
7.700000E+03	3.556617E-17	6.723787E-19
7.710000E+03	3.532890E-17	6.685328E-19
7.720000E+03	3.509207E-17	6.647270E-19
7.730000E+03	3.485584E-17	6.609645E-19
7.740000E+03	3.462034E-17	6.572477E-19
7.750000E+03	3.438332E-17	6.535336E-19
7.760000E+03	3.414978E-17	6.499174E-19
