#wls	flux	fluxerr
1.600000E+03	7.468244E-18	6.762549E-18
1.640000E+03	7.516955E-18	6.781702E-18
1.680000E+03	7.570681E-18	6.802854E-18
1.720000E+03	7.628089E-18	6.824540E-18
1.760000E+03	7.692244E-18	6.849213E-18
1.800000E+03	7.761837E-18	6.875365E-18
1.840000E+03	7.837021E-18	6.902775E-18
1.880000E+03	7.919469E-18	6.932512E-18
1.920000E+03	8.007860E-18	6.962971E-18
1.960000E+03	8.103904E-18	6.995155E-18
2.000000E+03	8.209374E-18	7.030031E-18
2.040000E+03	8.321412E-18	7.064535E-18
2.080000E+03	8.444952E-18	7.102190E-18
2.120000E+03	8.577147E-18	7.139818E-18
2.160000E+03	8.719869E-18	7.178160E-18
2.200000E+03	8.875061E-18	7.217875E-18
2.240000E+03	9.041469E-18	7.256893E-18
2.280000E+03	9.221099E-18	7.295693E-18
2.320000E+03	9.414370E-18	7.333331E-18
2.360000E+03	9.623412E-18	7.370049E-18
2.400000E+03	9.848736E-18	7.404650E-18
2.440000E+03	1.009088E-17	7.435798E-18
2.480000E+03	1.035215E-17	7.463283E-18
2.520000E+03	1.063321E-17	7.485435E-18
2.560000E+03	1.093653E-17	7.501648E-18
2.600000E+03	1.126290E-17	7.509854E-18
2.640000E+03	1.161685E-17	7.510175E-18
2.680000E+03	1.199752E-17	7.498845E-18
2.720000E+03	1.241163E-17	7.476541E-18
2.760000E+03	1.285857E-17	7.438940E-18
2.800000E+03	1.334550E-17	7.385908E-18
2.840000E+03	1.387215E-17	7.312508E-18
2.880000E+03	1.444823E-17	7.218712E-18
2.920000E+03	1.507593E-17	7.099795E-18
2.960000E+03	1.576376E-17	6.953539E-18
3.000000E+03	1.651863E-17	6.776135E-18
3.010000E+03	1.671882E-17	6.726488E-18
3.020000E+03	1.692266E-17	6.674112E-18
3.030000E+03	1.713228E-17	6.619747E-18
3.040000E+03	1.734775E-17	6.563274E-18
3.050000E+03	1.756700E-17	6.503791E-18
3.060000E+03	1.779220E-17	6.441996E-18
3.070000E+03	1.802126E-17	6.377016E-18
3.080000E+03	1.825852E-17	6.310270E-18
3.090000E+03	1.849974E-17	6.240146E-18
3.100000E+03	1.874927E-17	6.168008E-18
3.110000E+03	1.900284E-17	6.092308E-18
3.120000E+03	1.926264E-17	6.013676E-18
3.130000E+03	1.953091E-17	5.932682E-18
3.140000E+03	1.980329E-17	5.847888E-18
3.150000E+03	2.008420E-17	5.760529E-18
3.160000E+03	2.037147E-17	5.669863E-18
3.170000E+03	2.066732E-17	5.576429E-18
3.180000E+03	2.096729E-17	5.478954E-18
3.190000E+03	2.127583E-17	5.378587E-18
3.200000E+03	2.159291E-17	5.275254E-18
3.210000E+03	2.191624E-17	5.168366E-18
3.220000E+03	2.224801E-17	5.058457E-18
3.230000E+03	2.258813E-17	4.945519E-18
3.240000E+03	2.293419E-17	4.829090E-18
3.250000E+03	2.329063E-17	4.710203E-18
3.260000E+03	2.365267E-17	4.588003E-18
3.270000E+03	2.402236E-17	4.463107E-18
3.280000E+03	2.440175E-17	4.336112E-18
3.290000E+03	2.478820E-17	4.206811E-18
3.300000E+03	2.518132E-17	4.075509E-18
3.310000E+03	2.558063E-17	3.942576E-18
3.320000E+03	2.598794E-17	3.808803E-18
3.330000E+03	2.640029E-17	3.674330E-18
3.340000E+03	2.681931E-17	3.540058E-18
3.350000E+03	2.724419E-17	3.406582E-18
3.360000E+03	2.767399E-17	3.274517E-18
3.370000E+03	2.810763E-17	3.144466E-18
3.380000E+03	2.854153E-17	3.016717E-18
3.390000E+03	2.897913E-17	2.892234E-18
3.400000E+03	2.941899E-17	2.771294E-18
3.410000E+03	2.985478E-17	2.653592E-18
3.420000E+03	3.028969E-17	2.539532E-18
3.430000E+03	3.072202E-17	2.428825E-18
3.440000E+03	3.114762E-17	2.320772E-18
3.450000E+03	3.156939E-17	2.215007E-18
3.460000E+03	3.198050E-17	2.110277E-18
3.470000E+03	3.238352E-17	2.005892E-18
3.480000E+03	3.277133E-17	1.900507E-18
3.490000E+03	3.314621E-17	1.793449E-18
3.500000E+03	3.350564E-17	1.683934E-18
3.510000E+03	3.384484E-17	1.571427E-18
3.520000E+03	3.416391E-17	1.456176E-18
3.530000E+03	3.446084E-17	1.339104E-18
3.540000E+03	3.473400E-17	1.222286E-18
3.550000E+03	3.498213E-17	1.109439E-18
3.560000E+03	3.520447E-17	1.006507E-18
3.570000E+03	3.540293E-17	9.221186E-19
3.580000E+03	3.557765E-17	8.666677E-19
3.590000E+03	3.572710E-17	8.488782E-19
3.600000E+03	3.585655E-17	8.705332E-19
3.610000E+03	3.596282E-17	9.243445E-19
3.620000E+03	3.605138E-17	9.989076E-19
3.630000E+03	3.612149E-17	1.083427E-18
3.640000E+03	3.617481E-17	1.169978E-18
3.650000E+03	3.621529E-17	1.253504E-18
3.660000E+03	3.624722E-17	1.331101E-18
3.670000E+03	3.626956E-17	1.401157E-18
3.680000E+03	3.628776E-17	1.463301E-18
3.690000E+03	3.630762E-17	1.517881E-18
3.700000E+03	3.633152E-17	1.565577E-18
3.710000E+03	3.636570E-17	1.607534E-18
3.720000E+03	3.641274E-17	1.644905E-18
3.730000E+03	3.648025E-17	1.679114E-18
3.740000E+03	3.656852E-17	1.711201E-18
3.750000E+03	3.668443E-17	1.742384E-18
3.760000E+03	3.683117E-17	1.773550E-18
3.770000E+03	3.701028E-17	1.805326E-18
3.780000E+03	3.722516E-17	1.838273E-18
3.790000E+03	3.748272E-17	1.873006E-18
3.800000E+03	3.778396E-17	1.909745E-18
3.810000E+03	3.813662E-17	1.948940E-18
3.820000E+03	3.854402E-17	1.990683E-18
3.830000E+03	3.901120E-17	2.035001E-18
3.840000E+03	3.954309E-17	2.081788E-18
3.850000E+03	4.014735E-17	2.130993E-18
3.860000E+03	4.082504E-17	2.182166E-18
3.870000E+03	4.157966E-17	2.234967E-18
3.880000E+03	4.241690E-17	2.289186E-18
3.890000E+03	4.333552E-17	2.344264E-18
3.900000E+03	4.433922E-17	2.399959E-18
3.910000E+03	4.542590E-17	2.455777E-18
3.920000E+03	4.659196E-17	2.511221E-18
3.930000E+03	4.783673E-17	2.566035E-18
3.940000E+03	4.915325E-17	2.619701E-18
3.950000E+03	5.053437E-17	2.671767E-18
3.960000E+03	5.197304E-17	2.721849E-18
3.970000E+03	5.345631E-17	2.769316E-18
3.980000E+03	5.497684E-17	2.813893E-18
3.990000E+03	5.652206E-17	2.855119E-18
4.000000E+03	5.807914E-17	2.892634E-18
4.010000E+03	5.963996E-17	2.926447E-18
4.020000E+03	6.118950E-17	2.956372E-18
4.030000E+03	6.271700E-17	2.982577E-18
4.040000E+03	6.420925E-17	3.005221E-18
4.050000E+03	6.564901E-17	3.024344E-18
4.060000E+03	6.702569E-17	3.040298E-18
4.070000E+03	6.832451E-17	3.053159E-18
4.080000E+03	6.953445E-17	3.063049E-18
4.090000E+03	7.064632E-17	3.070002E-18
4.100000E+03	7.165712E-17	3.074135E-18
4.110000E+03	7.256860E-17	3.075618E-18
4.120000E+03	7.338525E-17	3.074628E-18
4.130000E+03	7.411849E-17	3.071555E-18
4.140000E+03	7.477729E-17	3.066633E-18
4.150000E+03	7.537523E-17	3.060231E-18
4.160000E+03	7.592759E-17	3.052725E-18
4.170000E+03	7.644253E-17	3.044176E-18
4.180000E+03	7.693481E-17	3.034903E-18
4.190000E+03	7.740950E-17	3.024851E-18
4.200000E+03	7.787762E-17	3.014214E-18
4.210000E+03	7.834212E-17	3.002858E-18
4.220000E+03	7.880588E-17	2.990573E-18
4.230000E+03	7.927175E-17	2.976999E-18
4.240000E+03	7.973969E-17	2.961420E-18
4.250000E+03	8.020981E-17	2.942766E-18
4.260000E+03	8.067804E-17	2.919396E-18
4.270000E+03	8.114339E-17	2.889351E-18
4.280000E+03	8.159921E-17	2.850118E-18
4.290000E+03	8.203902E-17	2.799099E-18
4.300000E+03	8.245648E-17	2.733957E-18
4.310000E+03	8.284148E-17	2.652866E-18
4.320000E+03	8.318623E-17	2.555139E-18
4.330000E+03	8.348177E-17	2.441610E-18
4.340000E+03	8.372003E-17	2.315407E-18
4.350000E+03	8.389411E-17	2.182964E-18
4.360000E+03	8.399852E-17	2.055221E-18
4.370000E+03	8.403076E-17	1.948338E-18
4.380000E+03	8.398771E-17	1.881685E-18
4.390000E+03	8.387983E-17	1.870209E-18
4.400000E+03	8.373131E-17	1.913501E-18
4.410000E+03	8.357985E-17	1.996586E-18
4.420000E+03	8.347099E-17	2.101372E-18
4.430000E+03	8.344436E-17	2.213940E-18
4.440000E+03	8.353140E-17	2.325820E-18
4.450000E+03	8.375806E-17	2.432769E-18
4.460000E+03	8.413910E-17	2.532973E-18
4.470000E+03	8.467759E-17	2.625808E-18
4.480000E+03	8.537089E-17	2.711250E-18
4.490000E+03	8.620895E-17	2.789412E-18
4.500000E+03	8.717850E-17	2.860525E-18
4.510000E+03	8.826398E-17	2.924949E-18
4.520000E+03	8.944900E-17	2.983226E-18
4.530000E+03	9.071586E-17	3.036058E-18
4.540000E+03	9.204806E-17	3.084298E-18
4.550000E+03	9.343131E-17	3.128792E-18
4.560000E+03	9.484600E-17	3.169863E-18
4.570000E+03	9.627631E-17	3.207321E-18
4.580000E+03	9.770155E-17	3.239986E-18
4.590000E+03	9.910358E-17	3.266020E-18
4.600000E+03	1.004587E-16	3.282892E-18
4.610000E+03	1.017483E-16	3.287947E-18
4.620000E+03	1.029525E-16	3.278373E-18
4.630000E+03	1.040554E-16	3.251489E-18
4.640000E+03	1.050433E-16	3.204879E-18
4.650000E+03	1.059076E-16	3.136861E-18
4.660000E+03	1.066459E-16	3.047184E-18
4.670000E+03	1.072615E-16	2.937922E-18
4.680000E+03	1.077602E-16	2.814753E-18
4.690000E+03	1.081519E-16	2.688552E-18
4.700000E+03	1.084469E-16	2.576431E-18
4.710000E+03	1.086551E-16	2.500589E-18
4.720000E+03	1.087846E-16	2.481428E-18
4.730000E+03	1.088390E-16	2.524876E-18
4.740000E+03	1.088207E-16	2.617904E-18
4.750000E+03	1.087329E-16	2.739200E-18
4.760000E+03	1.085759E-16	2.869773E-18
4.770000E+03	1.083484E-16	2.996752E-18
4.780000E+03	1.080520E-16	3.113205E-18
4.790000E+03	1.076867E-16	3.216483E-18
4.800000E+03	1.072523E-16	3.306564E-18
4.810000E+03	1.067486E-16	3.384639E-18
4.820000E+03	1.061780E-16	3.452167E-18
4.830000E+03	1.055475E-16	3.510460E-18
4.840000E+03	1.048675E-16	3.560492E-18
4.850000E+03	1.041541E-16	3.603033E-18
4.860000E+03	1.034276E-16	3.638808E-18
4.870000E+03	1.027109E-16	3.668641E-18
4.880000E+03	1.020299E-16	3.693665E-18
4.890000E+03	1.014115E-16	3.715325E-18
4.900000E+03	1.008825E-16	3.735358E-18
4.910000E+03	1.004685E-16	3.755688E-18
4.920000E+03	1.001922E-16	3.778289E-18
4.930000E+03	1.000767E-16	3.805158E-18
4.940000E+03	1.001412E-16	3.838013E-18
4.950000E+03	1.004016E-16	3.878154E-18
4.960000E+03	1.008671E-16	3.926229E-18
4.970000E+03	1.015437E-16	3.982237E-18
4.980000E+03	1.024243E-16	4.045174E-18
4.990000E+03	1.034960E-16	4.113366E-18
5.000000E+03	1.047315E-16	4.184178E-18
5.010000E+03	1.060938E-16	4.254306E-18
5.020000E+03	1.075379E-16	4.319979E-18
5.030000E+03	1.090105E-16	4.377211E-18
5.040000E+03	1.104523E-16	4.422279E-18
5.050000E+03	1.118097E-16	4.452679E-18
5.060000E+03	1.130287E-16	4.467225E-18
5.070000E+03	1.140637E-16	4.466500E-18
5.080000E+03	1.148840E-16	4.452897E-18
5.090000E+03	1.154748E-16	4.430092E-18
5.100000E+03	1.158362E-16	4.402151E-18
5.110000E+03	1.159916E-16	4.372951E-18
5.120000E+03	1.159780E-16	4.345144E-18
5.130000E+03	1.158460E-16	4.320142E-18
5.140000E+03	1.156482E-16	4.297999E-18
5.150000E+03	1.154360E-16	4.277839E-18
5.160000E+03	1.152545E-16	4.258336E-18
5.170000E+03	1.151366E-16	4.238096E-18
5.180000E+03	1.151028E-16	4.216030E-18
5.190000E+03	1.151604E-16	4.191529E-18
5.200000E+03	1.153089E-16	4.164672E-18
5.210000E+03	1.155402E-16	4.136118E-18
5.220000E+03	1.158382E-16	4.106912E-18
5.230000E+03	1.161891E-16	4.078590E-18
5.240000E+03	1.165804E-16	4.052791E-18
5.250000E+03	1.170007E-16	4.030890E-18
5.260000E+03	1.174445E-16	4.013799E-18
5.270000E+03	1.179107E-16	4.001733E-18
5.280000E+03	1.184035E-16	3.994351E-18
5.290000E+03	1.189258E-16	3.990826E-18
5.300000E+03	1.194815E-16	3.990110E-18
5.310000E+03	1.200724E-16	3.991030E-18
5.320000E+03	1.206933E-16	3.992161E-18
5.330000E+03	1.213352E-16	3.991972E-18
5.340000E+03	1.219814E-16	3.988785E-18
5.350000E+03	1.226140E-16	3.981046E-18
5.360000E+03	1.232114E-16	3.967102E-18
5.370000E+03	1.237572E-16	3.945142E-18
5.380000E+03	1.242392E-16	3.912746E-18
5.390000E+03	1.246525E-16	3.866692E-18
5.400000E+03	1.250017E-16	3.803252E-18
5.410000E+03	1.253003E-16	3.718731E-18
5.420000E+03	1.255668E-16	3.610124E-18
5.430000E+03	1.258219E-16	3.476065E-18
5.440000E+03	1.260966E-16	3.318372E-18
5.450000E+03	1.264180E-16	3.143467E-18
5.460000E+03	1.268230E-16	2.965270E-18
5.470000E+03	1.273486E-16	2.807656E-18
5.480000E+03	1.280369E-16	2.704977E-18
5.490000E+03	1.289233E-16	2.693432E-18
5.500000E+03	1.300270E-16	2.790141E-18
5.510000E+03	1.313409E-16	2.980376E-18
5.520000E+03	1.328354E-16	3.231874E-18
5.530000E+03	1.344705E-16	3.513392E-18
5.540000E+03	1.361984E-16	3.801397E-18
5.550000E+03	1.379615E-16	4.079654E-18
5.560000E+03	1.396922E-16	4.337125E-18
5.570000E+03	1.413231E-16	4.566511E-18
5.580000E+03	1.427831E-16	4.763064E-18
5.590000E+03	1.440024E-16	4.924143E-18
5.600000E+03	1.449262E-16	5.049296E-18
5.610000E+03	1.455116E-16	5.139782E-18
5.620000E+03	1.457313E-16	5.198261E-18
5.630000E+03	1.455855E-16	5.228803E-18
5.640000E+03	1.450849E-16	5.235963E-18
5.650000E+03	1.442616E-16	5.224886E-18
5.660000E+03	1.431584E-16	5.200697E-18
5.670000E+03	1.418211E-16	5.168049E-18
5.680000E+03	1.402997E-16	5.131040E-18
5.690000E+03	1.386375E-16	5.092818E-18
5.700000E+03	1.368803E-16	5.056045E-18
5.710000E+03	1.350654E-16	5.022680E-18
5.720000E+03	1.332327E-16	4.994489E-18
5.730000E+03	1.314234E-16	4.973045E-18
5.740000E+03	1.296791E-16	4.959657E-18
5.750000E+03	1.280502E-16	4.955608E-18
5.760000E+03	1.265957E-16	4.962146E-18
5.770000E+03	1.253751E-16	4.980145E-18
5.780000E+03	1.244532E-16	5.010280E-18
5.790000E+03	1.238938E-16	5.052828E-18
5.800000E+03	1.237559E-16	5.107592E-18
5.810000E+03	1.240871E-16	5.173685E-18
5.820000E+03	1.249253E-16	5.249766E-18
5.830000E+03	1.262961E-16	5.334137E-18
5.840000E+03	1.282103E-16	5.424789E-18
5.850000E+03	1.306684E-16	5.519673E-18
5.860000E+03	1.336489E-16	5.616353E-18
5.870000E+03	1.371150E-16	5.712366E-18
5.880000E+03	1.410107E-16	5.805306E-18
5.890000E+03	1.452566E-16	5.892843E-18
5.900000E+03	1.497532E-16	5.973084E-18
5.910000E+03	1.543812E-16	6.044703E-18
5.920000E+03	1.590047E-16	6.107011E-18
5.930000E+03	1.634774E-16	6.159905E-18
5.940000E+03	1.676500E-16	6.203661E-18
5.950000E+03	1.713803E-16	6.238543E-18
5.960000E+03	1.745401E-16	6.264208E-18
5.970000E+03	1.770366E-16	6.279751E-18
5.980000E+03	1.788029E-16	6.282850E-18
5.990000E+03	1.798132E-16	6.270272E-18
6.000000E+03	1.800779E-16	6.238364E-18
6.010000E+03	1.796373E-16	6.183865E-18
6.020000E+03	1.785546E-16	6.104605E-18
6.030000E+03	1.769065E-16	5.999898E-18
6.040000E+03	1.747819E-16	5.870746E-18
6.050000E+03	1.722714E-16	5.719173E-18
6.060000E+03	1.694616E-16	5.547302E-18
6.070000E+03	1.664437E-16	5.356662E-18
6.080000E+03	1.632973E-16	5.147022E-18
6.090000E+03	1.601010E-16	4.916696E-18
6.100000E+03	1.569222E-16	4.662668E-18
6.110000E+03	1.538229E-16	4.381452E-18
6.120000E+03	1.508513E-16	4.069826E-18
6.130000E+03	1.480527E-16	3.726388E-18
6.140000E+03	1.454590E-16	3.352965E-18
6.150000E+03	1.430958E-16	2.957731E-18
6.160000E+03	1.409781E-16	2.560550E-18
6.170000E+03	1.391132E-16	2.202739E-18
6.180000E+03	1.374996E-16	1.957058E-18
6.190000E+03	1.361279E-16	1.907462E-18
6.200000E+03	1.349820E-16	2.071272E-18
6.210000E+03	1.340464E-16	2.376434E-18
6.220000E+03	1.333027E-16	2.739541E-18
6.230000E+03	1.327285E-16	3.108203E-18
6.240000E+03	1.322977E-16	3.455733E-18
6.250000E+03	1.319798E-16	3.769777E-18
6.260000E+03	1.317404E-16	4.045472E-18
6.270000E+03	1.315414E-16	4.281958E-18
6.280000E+03	1.313442E-16	4.480675E-18
6.290000E+03	1.311040E-16	4.644168E-18
6.300000E+03	1.307836E-16	4.776017E-18
6.310000E+03	1.303438E-16	4.880105E-18
6.320000E+03	1.297582E-16	4.960709E-18
6.330000E+03	1.290105E-16	5.022020E-18
6.340000E+03	1.281024E-16	5.067949E-18
6.350000E+03	1.270458E-16	5.101587E-18
6.360000E+03	1.258704E-16	5.125505E-18
6.370000E+03	1.246142E-16	5.141598E-18
6.380000E+03	1.233203E-16	5.151218E-18
6.390000E+03	1.220348E-16	5.155328E-18
6.400000E+03	1.207984E-16	5.154444E-18
6.410000E+03	1.196494E-16	5.148984E-18
6.420000E+03	1.186171E-16	5.139279E-18
6.430000E+03	1.177245E-16	5.125959E-18
6.440000E+03	1.169867E-16	5.110004E-18
6.450000E+03	1.164104E-16	5.092729E-18
6.460000E+03	1.159937E-16	5.075565E-18
6.470000E+03	1.157280E-16	5.059937E-18
6.480000E+03	1.155990E-16	5.046963E-18
6.490000E+03	1.155866E-16	5.037182E-18
6.500000E+03	1.156693E-16	5.030594E-18
6.510000E+03	1.158230E-16	5.026731E-18
6.520000E+03	1.160285E-16	5.025217E-18
6.530000E+03	1.162633E-16	5.025580E-18
6.540000E+03	1.165114E-16	5.027757E-18
6.550000E+03	1.167591E-16	5.031809E-18
6.560000E+03	1.169982E-16	5.037922E-18
6.570000E+03	1.172295E-16	5.046321E-18
6.580000E+03	1.174600E-16	5.057018E-18
6.590000E+03	1.177055E-16	5.069839E-18
6.600000E+03	1.179855E-16	5.084361E-18
6.610000E+03	1.183204E-16	5.100071E-18
6.620000E+03	1.187298E-16	5.116534E-18
6.630000E+03	1.192249E-16	5.133362E-18
6.640000E+03	1.198113E-16	5.150523E-18
6.650000E+03	1.204832E-16	5.168234E-18
6.660000E+03	1.212245E-16	5.187061E-18
6.670000E+03	1.220100E-16	5.207893E-18
6.680000E+03	1.228067E-16	5.231827E-18
6.690000E+03	1.235765E-16	5.259963E-18
6.700000E+03	1.242794E-16	5.293145E-18
6.710000E+03	1.248758E-16	5.331733E-18
6.720000E+03	1.253302E-16	5.375610E-18
6.730000E+03	1.256092E-16	5.424018E-18
6.740000E+03	1.256878E-16	5.475827E-18
6.750000E+03	1.255450E-16	5.529323E-18
6.760000E+03	1.251686E-16	5.582411E-18
6.770000E+03	1.245536E-16	5.632587E-18
6.780000E+03	1.237055E-16	5.677196E-18
6.790000E+03	1.226298E-16	5.713160E-18
6.800000E+03	1.213458E-16	5.737814E-18
6.810000E+03	1.198756E-16	5.748681E-18
6.820000E+03	1.182450E-16	5.743752E-18
6.830000E+03	1.164853E-16	5.721803E-18
6.840000E+03	1.146335E-16	5.682623E-18
6.850000E+03	1.127218E-16	5.626662E-18
6.860000E+03	1.107916E-16	5.555770E-18
6.870000E+03	1.088774E-16	5.472388E-18
6.880000E+03	1.070169E-16	5.379901E-18
6.890000E+03	1.052433E-16	5.282043E-18
6.900000E+03	1.035901E-16	5.182836E-18
6.910000E+03	1.020865E-16	5.086060E-18
6.920000E+03	1.007579E-16	4.995040E-18
6.930000E+03	9.963113E-17	4.912799E-18
6.940000E+03	9.872616E-17	4.841659E-18
6.950000E+03	9.806537E-17	4.783681E-18
6.960000E+03	9.766712E-17	4.740401E-18
6.970000E+03	9.755110E-17	4.713110E-18
6.980000E+03	9.772900E-17	4.702406E-18
6.990000E+03	9.821156E-17	4.708528E-18
7.000000E+03	9.900335E-17	4.731103E-18
7.010000E+03	1.000977E-16	4.768890E-18
7.020000E+03	1.014825E-16	4.820146E-18
7.030000E+03	1.031351E-16	4.882457E-18
7.040000E+03	1.050211E-16	4.952875E-18
7.050000E+03	1.071009E-16	5.028412E-18
7.060000E+03	1.093228E-16	5.105989E-18
7.070000E+03	1.116307E-16	5.182982E-18
7.080000E+03	1.139659E-16	5.257458E-18
7.090000E+03	1.162651E-16	5.328046E-18
7.100000E+03	1.184713E-16	5.394321E-18
7.110000E+03	1.205343E-16	5.456463E-18
7.120000E+03	1.224085E-16	5.514787E-18
7.130000E+03	1.240673E-16	5.569979E-18
7.140000E+03	1.254942E-16	5.622574E-18
7.150000E+03	1.266830E-16	5.672941E-18
7.160000E+03	1.276456E-16	5.721809E-18
7.170000E+03	1.283997E-16	5.769937E-18
7.180000E+03	1.289740E-16	5.818632E-18
7.190000E+03	1.293998E-16	5.869479E-18
7.200000E+03	1.297134E-16	5.924424E-18
7.210000E+03	1.299533E-16	5.985481E-18
7.220000E+03	1.301549E-16	6.054183E-18
7.230000E+03	1.303476E-16	6.131190E-18
7.240000E+03	1.305578E-16	6.216185E-18
7.250000E+03	1.308006E-16	6.307391E-18
7.260000E+03	1.310867E-16	6.402019E-18
7.270000E+03	1.314174E-16	6.496322E-18
7.280000E+03	1.317861E-16	6.585905E-18
7.290000E+03	1.321839E-16	6.666268E-18
7.300000E+03	1.325958E-16	6.732785E-18
7.310000E+03	1.330028E-16	6.780982E-18
7.320000E+03	1.333834E-16	6.806708E-18
7.330000E+03	1.337121E-16	6.806214E-18
7.340000E+03	1.339661E-16	6.776551E-18
7.350000E+03	1.341224E-16	6.715490E-18
7.360000E+03	1.341549E-16	6.621404E-18
7.370000E+03	1.340396E-16	6.493460E-18
7.380000E+03	1.337619E-16	6.331925E-18
7.390000E+03	1.333030E-16	6.137312E-18
7.400000E+03	1.326528E-16	5.910928E-18
7.410000E+03	1.318120E-16	5.654844E-18
7.420000E+03	1.307852E-16	5.371648E-18
7.430000E+03	1.295837E-16	5.064777E-18
7.440000E+03	1.282312E-16	4.739274E-18
7.450000E+03	1.267482E-16	4.401991E-18
7.460000E+03	1.251677E-16	4.063266E-18
7.470000E+03	1.235169E-16	3.737643E-18
7.480000E+03	1.218266E-16	3.445529E-18
7.490000E+03	1.201200E-16	3.212967E-18
7.500000E+03	1.184213E-16	3.068407E-18
7.510000E+03	1.167482E-16	3.032531E-18
7.520000E+03	1.151195E-16	3.105904E-18
7.530000E+03	1.135495E-16	3.267948E-18
7.540000E+03	1.120513E-16	3.489700E-18
7.550000E+03	1.106332E-16	3.744940E-18
7.560000E+03	1.093051E-16	4.014464E-18
7.570000E+03	1.080688E-16	4.285482E-18
7.580000E+03	1.069289E-16	4.550397E-18
7.590000E+03	1.058866E-16	4.804952E-18
7.600000E+03	1.049455E-16	5.047253E-18
7.610000E+03	1.041080E-16	5.276730E-18
7.620000E+03	1.033746E-16	5.493586E-18
7.630000E+03	1.027470E-16	5.698583E-18
7.640000E+03	1.022276E-16	5.892823E-18
7.650000E+03	1.018137E-16	6.077275E-18
7.660000E+03	1.015076E-16	6.253228E-18
7.670000E+03	1.013081E-16	6.421715E-18
7.680000E+03	1.012110E-16	6.583424E-18
7.690000E+03	1.012167E-16	6.739186E-18
7.700000E+03	1.013202E-16	6.889232E-18
7.710000E+03	1.015210E-16	7.033966E-18
7.720000E+03	1.018138E-16	7.173361E-18
7.730000E+03	1.021950E-16	7.307495E-18
7.740000E+03	1.026559E-16	7.436103E-18
7.750000E+03	1.031918E-16	7.559326E-18
7.760000E+03	1.037930E-16	7.677018E-18
