#wls	flux	fluxerr
1.600000E+03	2.019051E-18	1.856342E-18
1.640000E+03	2.017402E-18	1.850921E-18
1.680000E+03	2.015067E-18	1.844554E-18
1.720000E+03	2.012744E-18	1.837861E-18
1.760000E+03	2.010057E-18	1.830476E-18
1.800000E+03	2.006989E-18	1.822361E-18
1.840000E+03	2.003523E-18	1.813479E-18
1.880000E+03	1.999997E-18	1.804111E-18
1.920000E+03	1.996041E-18	1.793896E-18
1.960000E+03	1.991641E-18	1.782799E-18
2.000000E+03	1.986785E-18	1.770782E-18
2.040000E+03	1.981812E-18	1.758122E-18
2.080000E+03	1.976364E-18	1.744471E-18
2.120000E+03	1.970437E-18	1.729802E-18
2.160000E+03	1.964031E-18	1.714087E-18
2.200000E+03	1.957493E-18	1.697602E-18
2.240000E+03	1.950486E-18	1.680025E-18
2.280000E+03	1.943028E-18	1.661346E-18
2.320000E+03	1.935142E-18	1.641558E-18
2.360000E+03	1.927195E-18	1.620945E-18
2.400000E+03	1.918888E-18	1.599226E-18
2.440000E+03	1.910276E-18	1.576420E-18
2.480000E+03	1.901752E-18	1.552823E-18
2.520000E+03	1.893062E-18	1.528197E-18
2.560000E+03	1.884304E-18	1.502591E-18
2.600000E+03	1.875590E-18	1.476068E-18
2.640000E+03	1.867375E-18	1.448950E-18
2.680000E+03	1.859495E-18	1.421068E-18
2.720000E+03	1.852132E-18	1.392525E-18
2.760000E+03	1.845817E-18	1.363669E-18
2.800000E+03	1.840478E-18	1.334392E-18
2.840000E+03	1.836402E-18	1.304842E-18
2.880000E+03	1.833918E-18	1.275185E-18
2.920000E+03	1.833713E-18	1.245815E-18
2.960000E+03	1.835911E-18	1.216715E-18
3.000000E+03	1.841014E-18	1.188109E-18
3.010000E+03	1.842654E-18	1.180965E-18
3.020000E+03	1.844831E-18	1.174070E-18
3.030000E+03	1.847244E-18	1.167228E-18
3.040000E+03	1.849597E-18	1.160250E-18
3.050000E+03	1.852517E-18	1.153531E-18
3.060000E+03	1.855708E-18	1.146879E-18
3.070000E+03	1.858870E-18	1.140109E-18
3.080000E+03	1.862637E-18	1.133609E-18
3.090000E+03	1.866711E-18	1.127191E-18
3.100000E+03	1.870794E-18	1.120674E-18
3.110000E+03	1.875522E-18	1.114440E-18
3.120000E+03	1.880598E-18	1.108305E-18
3.130000E+03	1.886038E-18	1.102276E-18
3.140000E+03	1.891542E-18	1.096176E-18
3.150000E+03	1.897755E-18	1.090379E-18
3.160000E+03	1.904378E-18	1.084707E-18
3.170000E+03	1.911431E-18	1.079168E-18
3.180000E+03	1.918931E-18	1.073769E-18
3.190000E+03	1.926896E-18	1.068518E-18
3.200000E+03	1.935026E-18	1.063247E-18
3.210000E+03	1.943980E-18	1.058317E-18
3.220000E+03	1.953461E-18	1.053561E-18
3.230000E+03	1.963491E-18	1.048988E-18
3.240000E+03	1.974093E-18	1.044607E-18
3.250000E+03	1.985291E-18	1.040430E-18
3.260000E+03	1.997109E-18	1.036466E-18
3.270000E+03	2.009574E-18	1.032727E-18
3.280000E+03	2.022713E-18	1.029226E-18
3.290000E+03	2.036555E-18	1.025975E-18
3.300000E+03	2.051128E-18	1.022987E-18
3.310000E+03	2.066465E-18	1.020275E-18
3.320000E+03	2.082596E-18	1.017856E-18
3.330000E+03	2.099555E-18	1.015743E-18
3.340000E+03	2.117378E-18	1.013954E-18
3.350000E+03	2.136101E-18	1.012505E-18
3.360000E+03	2.155762E-18	1.011414E-18
3.370000E+03	2.176401E-18	1.010699E-18
3.380000E+03	2.198059E-18	1.010381E-18
3.390000E+03	2.220779E-18	1.010480E-18
3.400000E+03	2.244606E-18	1.011016E-18
3.410000E+03	2.269587E-18	1.012013E-18
3.420000E+03	2.295772E-18	1.013493E-18
3.430000E+03	2.323589E-18	1.015647E-18
3.440000E+03	2.352338E-18	1.018167E-18
3.450000E+03	2.382449E-18	1.021246E-18
3.460000E+03	2.413980E-18	1.024909E-18
3.470000E+03	2.446990E-18	1.029185E-18
3.480000E+03	2.481541E-18	1.034101E-18
3.490000E+03	2.518106E-18	1.039855E-18
3.500000E+03	2.555939E-18	1.046139E-18
3.510000E+03	2.595515E-18	1.053151E-18
3.520000E+03	2.636903E-18	1.060920E-18
3.530000E+03	2.680180E-18	1.069476E-18
3.540000E+03	2.725863E-18	1.079025E-18
3.550000E+03	2.773157E-18	1.089249E-18
3.560000E+03	2.822578E-18	1.100350E-18
3.570000E+03	2.874212E-18	1.112358E-18
3.580000E+03	2.928147E-18	1.125301E-18
3.590000E+03	2.984956E-18	1.139391E-18
3.600000E+03	3.043778E-18	1.154290E-18
3.610000E+03	3.105184E-18	1.170205E-18
3.620000E+03	3.169782E-18	1.187352E-18
3.630000E+03	3.236667E-18	1.205374E-18
3.640000E+03	3.306443E-18	1.224480E-18
3.650000E+03	3.379220E-18	1.244690E-18
3.660000E+03	3.455665E-18	1.266225E-18
3.670000E+03	3.534794E-18	1.288696E-18
3.680000E+03	3.617270E-18	1.312316E-18
3.690000E+03	3.703214E-18	1.337094E-18
3.700000E+03	3.793356E-18	1.363255E-18
3.710000E+03	3.886624E-18	1.390371E-18
3.720000E+03	3.983741E-18	1.418657E-18
3.730000E+03	4.085494E-18	1.448340E-18
3.740000E+03	4.190729E-18	1.478956E-18
3.750000E+03	4.300223E-18	1.510721E-18
3.760000E+03	4.414820E-18	1.543865E-18
3.770000E+03	4.533276E-18	1.577882E-18
3.780000E+03	4.656423E-18	1.612989E-18
3.790000E+03	4.784410E-18	1.649154E-18
3.800000E+03	4.918169E-18	1.686613E-18
3.810000E+03	5.056310E-18	1.724792E-18
3.820000E+03	5.199749E-18	1.763908E-18
3.830000E+03	5.349489E-18	1.804193E-18
3.840000E+03	5.504012E-18	1.845019E-18
3.850000E+03	5.664301E-18	1.886600E-18
3.860000E+03	5.831434E-18	1.929165E-18
3.870000E+03	6.003746E-18	1.972026E-18
3.880000E+03	6.182291E-18	2.015390E-18
3.890000E+03	6.368225E-18	2.059480E-18
3.900000E+03	6.559717E-18	2.103543E-18
3.910000E+03	6.757891E-18	2.147777E-18
3.920000E+03	6.962891E-18	2.192052E-18
3.930000E+03	7.175984E-18	2.236578E-18
3.940000E+03	7.395078E-18	2.280506E-18
3.950000E+03	7.621394E-18	2.324019E-18
3.960000E+03	7.856290E-18	2.367315E-18
3.970000E+03	8.097440E-18	2.409468E-18
3.980000E+03	8.346144E-18	2.450648E-18
3.990000E+03	8.602494E-18	2.490644E-18
4.000000E+03	8.867957E-18	2.529629E-18
4.010000E+03	9.139859E-18	2.566583E-18
4.020000E+03	9.419599E-18	2.601650E-18
4.030000E+03	9.707212E-18	2.634571E-18
4.040000E+03	1.000428E-17	2.665494E-18
4.050000E+03	1.030772E-17	2.693308E-18
4.060000E+03	1.061903E-17	2.718134E-18
4.070000E+03	1.093816E-17	2.739671E-18
4.080000E+03	1.126505E-17	2.757608E-18
4.090000E+03	1.160142E-17	2.772059E-18
4.100000E+03	1.194359E-17	2.781835E-18
4.110000E+03	1.229318E-17	2.787035E-18
4.120000E+03	1.265001E-17	2.787322E-18
4.130000E+03	1.301388E-17	2.782357E-18
4.140000E+03	1.338666E-17	2.772231E-18
4.150000E+03	1.376396E-17	2.755741E-18
4.160000E+03	1.414754E-17	2.732983E-18
4.170000E+03	1.453706E-17	2.703627E-18
4.180000E+03	1.493217E-17	2.667350E-18
4.190000E+03	1.533247E-17	2.623842E-18
4.200000E+03	1.573756E-17	2.572804E-18
4.210000E+03	1.614697E-17	2.513956E-18
4.220000E+03	1.656022E-17	2.447040E-18
4.230000E+03	1.697942E-17	2.372190E-18
4.240000E+03	1.739884E-17	2.288457E-18
4.250000E+03	1.782047E-17	2.196052E-18
4.260000E+03	1.824370E-17	2.094856E-18
4.270000E+03	1.866791E-17	1.984801E-18
4.280000E+03	1.909246E-17	1.865889E-18
4.290000E+03	1.951667E-17	1.738210E-18
4.300000E+03	1.993988E-17	1.601976E-18
4.310000E+03	2.036137E-17	1.457574E-18
4.320000E+03	2.078045E-17	1.305658E-18
4.330000E+03	2.119314E-17	1.147150E-18
4.340000E+03	2.160518E-17	9.843271E-19
4.350000E+03	2.201267E-17	8.204702E-19
4.360000E+03	2.241489E-17	6.625241E-19
4.370000E+03	2.281116E-17	5.254556E-19
4.380000E+03	2.320079E-17	4.403167E-19
4.390000E+03	2.358314E-17	4.472299E-19
4.400000E+03	2.395765E-17	5.442368E-19
4.410000E+03	2.432010E-17	6.909464E-19
4.420000E+03	2.467742E-17	8.580520E-19
4.430000E+03	2.502556E-17	1.030956E-18
4.440000E+03	2.536416E-17	1.202394E-18
4.450000E+03	2.568900E-17	1.368029E-18
4.460000E+03	2.600759E-17	1.525580E-18
4.470000E+03	2.631587E-17	1.672936E-18
4.480000E+03	2.661366E-17	1.808599E-18
4.490000E+03	2.689676E-17	1.931052E-18
4.500000E+03	2.717324E-17	2.039834E-18
4.510000E+03	2.743905E-17	2.133784E-18
4.520000E+03	2.768999E-17	2.211803E-18
4.530000E+03	2.793454E-17	2.273897E-18
4.540000E+03	2.816438E-17	2.318829E-18
4.550000E+03	2.838820E-17	2.346833E-18
4.560000E+03	2.859764E-17	2.356827E-18
4.570000E+03	2.880161E-17	2.349241E-18
4.580000E+03	2.899609E-17	2.323519E-18
4.590000E+03	2.917700E-17	2.279215E-18
4.600000E+03	2.934909E-17	2.216693E-18
4.610000E+03	2.951721E-17	2.136401E-18
4.620000E+03	2.967290E-17	2.037942E-18
4.630000E+03	2.982553E-17	1.922384E-18
4.640000E+03	2.996660E-17	1.789809E-18
4.650000E+03	3.010562E-17	1.641816E-18
4.660000E+03	3.023399E-17	1.479493E-18
4.670000E+03	3.035674E-17	1.305706E-18
4.680000E+03	3.047436E-17	1.124882E-18
4.690000E+03	3.059194E-17	9.452835E-19
4.700000E+03	3.070075E-17	7.824687E-19
4.710000E+03	3.080584E-17	6.671084E-19
4.720000E+03	3.090762E-17	6.434188E-19
4.730000E+03	3.101114E-17	7.315871E-19
4.740000E+03	3.110740E-17	9.018937E-19
4.750000E+03	3.120130E-17	1.117962E-18
4.760000E+03	3.129310E-17	1.357712E-18
4.770000E+03	3.138300E-17	1.609694E-18
4.780000E+03	3.147120E-17	1.867794E-18
4.790000E+03	3.155786E-17	2.128485E-18
4.800000E+03	3.164312E-17	2.389555E-18
4.810000E+03	3.172714E-17	2.649506E-18
4.820000E+03	3.181003E-17	2.907251E-18
4.830000E+03	3.189189E-17	3.161956E-18
4.840000E+03	3.197285E-17	3.412948E-18
4.850000E+03	3.205298E-17	3.659661E-18
4.860000E+03	3.213238E-17	3.901605E-18
4.870000E+03	3.221112E-17	4.138343E-18
4.880000E+03	3.228930E-17	4.369480E-18
4.890000E+03	3.236698E-17	4.594652E-18
4.900000E+03	3.243940E-17	4.812805E-18
4.910000E+03	3.251629E-17	5.025026E-18
4.920000E+03	3.259289E-17	5.230332E-18
4.930000E+03	3.266926E-17	5.428440E-18
4.940000E+03	3.274060E-17	5.618247E-18
4.950000E+03	3.281669E-17	5.801142E-18
4.960000E+03	3.289273E-17	5.976075E-18
4.970000E+03	3.296387E-17	6.141898E-18
4.980000E+03	3.303995E-17	6.300193E-18
4.990000E+03	3.311122E-17	6.448899E-18
5.000000E+03	3.318754E-17	6.589708E-18
5.010000E+03	3.326405E-17	6.721488E-18
5.020000E+03	3.333583E-17	6.843035E-18
5.030000E+03	3.341281E-17	6.956183E-18
5.040000E+03	3.348509E-17	7.058713E-18
5.050000E+03	3.355766E-17	7.151481E-18
5.060000E+03	3.363552E-17	7.235402E-18
5.070000E+03	3.370871E-17	7.308193E-18
5.080000E+03	3.378722E-17	7.371866E-18
5.090000E+03	3.386105E-17	7.424106E-18
5.100000E+03	3.393519E-17	7.465869E-18
5.110000E+03	3.400963E-17	7.497031E-18
5.120000E+03	3.408939E-17	7.518589E-18
5.130000E+03	3.416437E-17	7.528208E-18
5.140000E+03	3.423957E-17	7.526897E-18
5.150000E+03	3.431496E-17	7.514562E-18
5.160000E+03	3.439049E-17	7.491115E-18
5.170000E+03	3.447121E-17	7.457580E-18
5.180000E+03	3.454689E-17	7.411680E-18
5.190000E+03	3.462256E-17	7.354463E-18
5.200000E+03	3.469816E-17	7.285882E-18
5.210000E+03	3.477362E-17	7.205903E-18
5.220000E+03	3.484887E-17	7.114507E-18
5.230000E+03	3.492385E-17	7.011689E-18
5.240000E+03	3.499848E-17	6.897460E-18
5.250000E+03	3.507270E-17	6.771855E-18
5.260000E+03	3.514125E-17	6.633949E-18
5.270000E+03	3.521441E-17	6.485799E-18
5.280000E+03	3.528694E-17	6.326516E-18
5.290000E+03	3.535878E-17	6.156242E-18
5.300000E+03	3.542986E-17	5.975160E-18
5.310000E+03	3.550014E-17	5.783498E-18
5.320000E+03	3.556433E-17	5.580719E-18
5.330000E+03	3.563285E-17	5.368849E-18
5.340000E+03	3.570044E-17	5.147473E-18
5.350000E+03	3.576182E-17	4.916410E-18
5.360000E+03	3.582747E-17	4.677814E-18
5.370000E+03	3.589216E-17	4.431776E-18
5.380000E+03	3.595061E-17	4.178755E-18
5.390000E+03	3.601340E-17	3.921396E-18
5.400000E+03	3.606999E-17	3.660301E-18
5.410000E+03	3.613100E-17	3.398946E-18
5.420000E+03	3.618590E-17	3.139448E-18
5.430000E+03	3.624537E-17	2.887021E-18
5.440000E+03	3.629884E-17	2.646551E-18
5.450000E+03	3.635705E-17	2.426611E-18
5.460000E+03	3.640941E-17	2.236584E-18
5.470000E+03	3.646132E-17	2.089202E-18
5.480000E+03	3.651819E-17	1.997899E-18
5.490000E+03	3.656936E-17	1.972865E-18
5.500000E+03	3.662018E-17	2.018396E-18
5.510000E+03	3.667589E-17	2.129355E-18
5.520000E+03	3.672561E-17	2.293856E-18
5.530000E+03	3.677452E-17	2.499253E-18
5.540000E+03	3.682244E-17	2.733748E-18
5.550000E+03	3.687458E-17	2.988225E-18
5.560000E+03	3.691995E-17	3.254548E-18
5.570000E+03	3.696376E-17	3.527657E-18
5.580000E+03	3.700582E-17	3.803479E-18
5.590000E+03	3.704597E-17	4.078948E-18
5.600000E+03	3.708405E-17	4.351718E-18
5.610000E+03	3.711990E-17	4.619964E-18
5.620000E+03	3.715339E-17	4.882238E-18
5.630000E+03	3.718439E-17	5.137367E-18
5.640000E+03	3.721279E-17	5.384392E-18
5.650000E+03	3.723850E-17	5.622507E-18
5.660000E+03	3.726141E-17	5.851031E-18
5.670000E+03	3.728145E-17	6.069382E-18
5.680000E+03	3.729855E-17	6.277054E-18
5.690000E+03	3.731264E-17	6.473605E-18
5.700000E+03	3.731823E-17	6.657674E-18
5.710000E+03	3.732617E-17	6.830838E-18
5.720000E+03	3.733097E-17	6.991848E-18
5.730000E+03	3.733260E-17	7.140433E-18
5.740000E+03	3.733102E-17	7.276355E-18
5.750000E+03	3.732076E-17	7.398319E-18
5.760000E+03	3.731270E-17	7.508283E-18
5.770000E+03	3.730136E-17	7.605018E-18
5.780000E+03	3.728130E-17	7.687258E-18
5.790000E+03	3.726336E-17	7.757112E-18
5.800000E+03	3.724210E-17	7.813365E-18
5.810000E+03	3.721206E-17	7.854781E-18
5.820000E+03	3.718410E-17	7.883579E-18
5.830000E+03	3.714733E-17	7.897409E-18
5.840000E+03	3.711260E-17	7.898539E-18
5.850000E+03	3.706904E-17	7.884646E-18
5.860000E+03	3.702745E-17	7.858025E-18
5.870000E+03	3.697702E-17	7.816393E-18
5.880000E+03	3.692852E-17	7.762061E-18
5.890000E+03	3.687114E-17	7.692801E-18
5.900000E+03	3.681564E-17	7.610922E-18
5.910000E+03	3.675125E-17	7.514268E-18
5.920000E+03	3.668334E-17	7.404054E-18
5.930000E+03	3.661722E-17	7.281448E-18
5.940000E+03	3.654221E-17	7.144434E-18
5.950000E+03	3.646364E-17	6.994236E-18
5.960000E+03	3.638682E-17	6.832011E-18
5.970000E+03	3.630114E-17	6.655921E-18
5.980000E+03	3.621191E-17	6.467188E-18
5.990000E+03	3.611915E-17	6.266034E-18
6.000000E+03	3.602814E-17	6.053588E-18
6.010000E+03	3.592839E-17	5.828323E-18
6.020000E+03	3.582521E-17	5.591455E-18
6.030000E+03	3.571864E-17	5.343318E-18
6.040000E+03	3.560875E-17	5.084286E-18
6.050000E+03	3.549561E-17	4.814780E-18
6.060000E+03	3.538445E-17	4.535946E-18
6.070000E+03	3.526504E-17	4.246982E-18
6.080000E+03	3.514265E-17	3.949259E-18
6.090000E+03	3.501740E-17	3.643599E-18
6.100000E+03	3.488941E-17	3.331043E-18
6.110000E+03	3.475882E-17	3.012967E-18
6.120000E+03	3.462576E-17	2.691282E-18
6.130000E+03	3.449038E-17	2.368782E-18
6.140000E+03	3.435285E-17	2.049818E-18
6.150000E+03	3.421332E-17	1.741593E-18
6.160000E+03	3.407194E-17	1.456748E-18
6.170000E+03	3.392887E-17	1.217997E-18
6.180000E+03	3.377935E-17	1.062726E-18
6.190000E+03	3.363337E-17	1.034204E-18
6.200000E+03	3.348613E-17	1.142317E-18
6.210000E+03	3.333769E-17	1.351346E-18
6.220000E+03	3.318815E-17	1.618888E-18
6.230000E+03	3.303757E-17	1.916874E-18
6.240000E+03	3.288124E-17	2.229294E-18
6.250000E+03	3.272882E-17	2.548093E-18
6.260000E+03	3.257559E-17	2.868024E-18
6.270000E+03	3.242162E-17	3.186092E-18
6.280000E+03	3.226228E-17	3.499900E-18
6.290000E+03	3.210711E-17	3.809186E-18
6.300000E+03	3.195148E-17	4.112651E-18
6.310000E+03	3.179086E-17	4.409079E-18
6.320000E+03	3.163467E-17	4.699314E-18
6.330000E+03	3.147837E-17	4.982479E-18
6.340000E+03	3.131752E-17	5.257616E-18
6.350000E+03	3.116142E-17	5.526094E-18
6.360000E+03	3.100564E-17	5.787111E-18
6.370000E+03	3.084582E-17	6.039751E-18
6.380000E+03	3.069114E-17	6.285732E-18
6.390000E+03	3.053279E-17	6.523281E-18
6.400000E+03	3.037986E-17	6.754308E-18
6.410000E+03	3.022363E-17	6.976938E-18
6.420000E+03	3.007311E-17	7.193250E-18
6.430000E+03	2.991968E-17	7.401268E-18
6.440000E+03	2.977226E-17	7.603222E-18
6.450000E+03	2.962230E-17	7.797033E-18
6.460000E+03	2.947863E-17	7.985069E-18
6.470000E+03	2.933281E-17	8.165153E-18
6.480000E+03	2.919357E-17	8.339775E-18
6.490000E+03	2.905252E-17	8.506665E-18
6.500000E+03	2.891833E-17	8.668422E-18
6.510000E+03	2.878268E-17	8.822686E-18
6.520000E+03	2.864997E-17	8.970847E-18
6.530000E+03	2.852448E-17	9.114386E-18
6.540000E+03	2.839802E-17	9.250813E-18
6.550000E+03	2.827489E-17	9.381591E-18
6.560000E+03	2.815934E-17	9.508257E-18
6.570000E+03	2.804323E-17	9.628202E-18
6.580000E+03	2.793080E-17	9.742943E-18
6.590000E+03	2.782624E-17	9.854067E-18
6.600000E+03	2.772150E-17	9.958852E-18
6.610000E+03	2.762074E-17	1.005886E-17
6.620000E+03	2.752406E-17	1.015423E-17
6.630000E+03	2.743554E-17	1.024658E-17
6.640000E+03	2.734724E-17	1.033307E-17
6.650000E+03	2.726325E-17	1.041529E-17
6.660000E+03	2.718362E-17	1.049337E-17
6.670000E+03	2.710841E-17	1.056741E-17
6.680000E+03	2.703768E-17	1.063752E-17
6.690000E+03	2.697542E-17	1.070537E-17
6.700000E+03	2.691376E-17	1.076791E-17
6.710000E+03	2.685670E-17	1.082680E-17
6.720000E+03	2.680426E-17	1.088212E-17
6.730000E+03	2.675646E-17	1.093392E-17
6.740000E+03	2.671332E-17	1.098229E-17
6.750000E+03	2.667485E-17	1.102726E-17
6.760000E+03	2.664106E-17	1.106890E-17
6.770000E+03	2.661194E-17	1.110724E-17
6.780000E+03	2.658748E-17	1.114232E-17
6.790000E+03	2.656767E-17	1.117415E-17
6.800000E+03	2.655250E-17	1.120277E-17
6.810000E+03	2.654192E-17	1.122817E-17
6.820000E+03	2.653593E-17	1.125036E-17
6.830000E+03	2.653446E-17	1.126933E-17
6.840000E+03	2.653749E-17	1.128507E-17
6.850000E+03	2.654495E-17	1.129754E-17
6.860000E+03	2.655680E-17	1.130672E-17
6.870000E+03	2.657296E-17	1.131256E-17
6.880000E+03	2.659336E-17	1.131502E-17
6.890000E+03	2.661792E-17	1.131404E-17
6.900000E+03	2.664657E-17	1.130955E-17
6.910000E+03	2.667919E-17	1.130147E-17
6.920000E+03	2.671569E-17	1.128973E-17
6.930000E+03	2.675203E-17	1.127258E-17
6.940000E+03	2.679594E-17	1.125323E-17
6.950000E+03	2.684336E-17	1.122992E-17
6.960000E+03	2.689417E-17	1.120254E-17
6.970000E+03	2.694822E-17	1.117096E-17
6.980000E+03	2.700137E-17	1.113342E-17
6.990000E+03	2.706140E-17	1.109307E-17
7.000000E+03	2.712416E-17	1.104811E-17
7.010000E+03	2.718948E-17	1.099841E-17
7.020000E+03	2.725716E-17	1.094381E-17
7.030000E+03	2.732297E-17	1.088256E-17
7.040000E+03	2.739472E-17	1.081769E-17
7.050000E+03	2.746818E-17	1.074744E-17
7.060000E+03	2.753905E-17	1.067007E-17
7.070000E+03	2.761518E-17	1.058855E-17
7.080000E+03	2.769227E-17	1.050113E-17
7.090000E+03	2.776597E-17	1.040611E-17
7.100000E+03	2.784414E-17	1.030638E-17
7.110000E+03	2.792243E-17	1.020023E-17
7.120000E+03	2.799641E-17	1.008599E-17
7.130000E+03	2.807399E-17	9.966495E-18
7.140000E+03	2.814661E-17	9.838612E-18
7.150000E+03	2.822221E-17	9.705103E-18
7.160000E+03	2.829631E-17	9.564345E-18
7.170000E+03	2.836438E-17	9.414801E-18
7.180000E+03	2.843443E-17	9.259133E-18
7.190000E+03	2.849771E-17	9.094460E-18
7.200000E+03	2.856225E-17	8.923374E-18
7.210000E+03	2.861927E-17	8.743115E-18
7.220000E+03	2.867682E-17	8.556203E-18
7.230000E+03	2.872607E-17	8.360016E-18
7.240000E+03	2.877511E-17	8.156997E-18
7.250000E+03	2.881508E-17	7.944676E-18
7.260000E+03	2.885410E-17	7.725421E-18
7.270000E+03	2.888328E-17	7.496929E-18
7.280000E+03	2.891079E-17	7.261489E-18
7.290000E+03	2.892771E-17	7.016985E-18
7.300000E+03	2.893797E-17	6.764623E-18
7.310000E+03	2.894551E-17	6.505496E-18
7.320000E+03	2.894144E-17	6.237804E-18
7.330000E+03	2.893401E-17	5.963634E-18
7.340000E+03	2.891436E-17	5.681426E-18
7.350000E+03	2.888649E-17	5.392398E-18
7.360000E+03	2.885441E-17	5.097653E-18
7.370000E+03	2.880935E-17	4.796051E-18
7.380000E+03	2.875537E-17	4.488882E-18
7.390000E+03	2.869653E-17	4.177356E-18
7.400000E+03	2.862416E-17	3.860901E-18
7.410000E+03	2.854239E-17	3.541072E-18
7.420000E+03	2.845113E-17	3.218996E-18
7.430000E+03	2.835450E-17	2.896592E-18
7.440000E+03	2.824403E-17	2.574999E-18
7.450000E+03	2.812394E-17	2.257652E-18
7.460000E+03	2.799424E-17	1.949069E-18
7.470000E+03	2.785498E-17	1.656552E-18
7.480000E+03	2.771035E-17	1.392661E-18
7.490000E+03	2.755220E-17	1.177889E-18
7.500000E+03	2.738479E-17	1.044055E-18
7.510000E+03	2.720827E-17	1.022627E-18
7.520000E+03	2.702281E-17	1.116763E-18
7.530000E+03	2.682859E-17	1.296267E-18
7.540000E+03	2.662978E-17	1.526294E-18
7.550000E+03	2.641864E-17	1.782115E-18
7.560000E+03	2.619941E-17	2.049634E-18
7.570000E+03	2.597235E-17	2.320633E-18
7.580000E+03	2.573776E-17	2.590242E-18
7.590000E+03	2.549595E-17	2.855445E-18
7.600000E+03	2.524724E-17	3.114302E-18
7.610000E+03	2.499198E-17	3.365518E-18
7.620000E+03	2.473054E-17	3.608211E-18
7.630000E+03	2.446329E-17	3.841775E-18
7.640000E+03	2.419063E-17	4.065795E-18
7.650000E+03	2.391295E-17	4.279993E-18
7.660000E+03	2.363068E-17	4.484197E-18
7.670000E+03	2.334422E-17	4.678314E-18
7.680000E+03	2.305400E-17	4.862319E-18
7.690000E+03	2.276044E-17	5.036236E-18
7.700000E+03	2.246396E-17	5.200137E-18
7.710000E+03	2.216167E-17	5.353328E-18
7.720000E+03	2.186067E-17	5.497528E-18
7.730000E+03	2.155800E-17	5.632129E-18
7.740000E+03	2.125406E-17	5.757320E-18
7.750000E+03	2.094926E-17	5.873315E-18
7.760000E+03	2.064398E-17	5.980341E-18
