#wls	flux	fluxerr
1.600000E+03	1.910044E-18	1.757515E-18
1.640000E+03	1.907686E-18	1.751787E-18
1.680000E+03	1.905368E-18	1.745809E-18
1.720000E+03	1.902735E-18	1.739239E-18
1.760000E+03	1.899774E-18	1.732043E-18
1.800000E+03	1.896470E-18	1.724190E-18
1.840000E+03	1.893147E-18	1.715952E-18
1.880000E+03	1.889121E-18	1.706688E-18
1.920000E+03	1.885052E-18	1.696972E-18
1.960000E+03	1.880595E-18	1.686470E-18
2.000000E+03	1.875743E-18	1.675154E-18
2.040000E+03	1.870822E-18	1.663289E-18
2.080000E+03	1.865169E-18	1.650263E-18
2.120000E+03	1.859445E-18	1.636636E-18
2.160000E+03	1.853325E-18	1.622098E-18
2.200000E+03	1.847144E-18	1.606914E-18
2.240000E+03	1.840270E-18	1.590510E-18
2.280000E+03	1.833370E-18	1.573439E-18
2.320000E+03	1.826152E-18	1.555422E-18
2.360000E+03	1.818653E-18	1.536467E-18
2.400000E+03	1.810921E-18	1.516589E-18
2.440000E+03	1.803329E-18	1.496074E-18
2.480000E+03	1.795632E-18	1.474685E-18
2.520000E+03	1.787913E-18	1.452467E-18
2.560000E+03	1.780275E-18	1.429472E-18
2.600000E+03	1.773142E-18	1.406010E-18
2.640000E+03	1.766038E-18	1.381666E-18
2.680000E+03	1.759736E-18	1.357013E-18
2.720000E+03	1.754417E-18	1.332139E-18
2.760000E+03	1.749691E-18	1.306700E-18
2.800000E+03	1.746407E-18	1.281280E-18
2.840000E+03	1.744249E-18	1.255585E-18
2.880000E+03	1.744437E-18	1.230423E-18
2.920000E+03	1.746448E-18	1.205335E-18
2.960000E+03	1.751008E-18	1.180737E-18
3.000000E+03	1.758905E-18	1.157053E-18
3.010000E+03	1.761418E-18	1.151271E-18
3.020000E+03	1.764166E-18	1.145554E-18
3.030000E+03	1.767159E-18	1.139906E-18
3.040000E+03	1.770406E-18	1.134330E-18
3.050000E+03	1.773918E-18	1.128833E-18
3.060000E+03	1.777707E-18	1.123418E-18
3.070000E+03	1.781784E-18	1.118090E-18
3.080000E+03	1.786161E-18	1.112856E-18
3.090000E+03	1.790851E-18	1.107719E-18
3.100000E+03	1.795865E-18	1.102686E-18
3.110000E+03	1.801219E-18	1.097762E-18
3.120000E+03	1.806925E-18	1.092953E-18
3.130000E+03	1.812997E-18	1.088266E-18
3.140000E+03	1.819452E-18	1.083706E-18
3.150000E+03	1.826304E-18	1.079280E-18
3.160000E+03	1.833878E-18	1.075177E-18
3.170000E+03	1.841575E-18	1.071040E-18
3.180000E+03	1.849719E-18	1.067059E-18
3.190000E+03	1.858330E-18	1.063242E-18
3.200000E+03	1.867426E-18	1.059596E-18
3.210000E+03	1.877026E-18	1.056131E-18
3.220000E+03	1.887468E-18	1.053031E-18
3.230000E+03	1.898142E-18	1.049952E-18
3.240000E+03	1.909383E-18	1.047081E-18
3.250000E+03	1.921217E-18	1.044428E-18
3.260000E+03	1.933666E-18	1.042003E-18
3.270000E+03	1.947082E-18	1.039992E-18
3.280000E+03	1.960841E-18	1.038057E-18
3.290000E+03	1.975294E-18	1.036386E-18
3.300000E+03	1.990469E-18	1.034990E-18
3.310000E+03	2.006731E-18	1.034055E-18
3.320000E+03	2.023443E-18	1.033249E-18
3.330000E+03	2.040970E-18	1.032761E-18
3.340000E+03	2.059345E-18	1.032604E-18
3.350000E+03	2.078948E-18	1.032967E-18
3.360000E+03	2.099128E-18	1.033521E-18
3.370000E+03	2.120264E-18	1.034455E-18
3.380000E+03	2.142752E-18	1.035960E-18
3.390000E+03	2.165924E-18	1.037708E-18
3.400000E+03	2.190175E-18	1.039893E-18
3.410000E+03	2.215918E-18	1.042705E-18
3.420000E+03	2.242467E-18	1.045820E-18
3.430000E+03	2.270234E-18	1.049430E-18
3.440000E+03	2.299649E-18	1.053734E-18
3.450000E+03	2.330007E-18	1.058403E-18
3.460000E+03	2.361738E-18	1.063635E-18
3.470000E+03	2.395295E-18	1.069629E-18
3.480000E+03	2.429948E-18	1.076057E-18
3.490000E+03	2.466556E-18	1.083298E-18
3.500000E+03	2.504373E-18	1.091019E-18
3.510000E+03	2.543865E-18	1.099423E-18
3.520000E+03	2.585525E-18	1.108718E-18
3.530000E+03	2.628577E-18	1.118564E-18
3.540000E+03	2.673954E-18	1.129353E-18
3.550000E+03	2.720856E-18	1.140740E-18
3.560000E+03	2.770250E-18	1.153124E-18
3.570000E+03	2.821311E-18	1.166151E-18
3.580000E+03	2.874570E-18	1.180032E-18
3.590000E+03	2.930593E-18	1.194986E-18
3.600000E+03	2.988514E-18	1.210645E-18
3.610000E+03	3.049397E-18	1.227426E-18
3.620000E+03	3.112344E-18	1.244948E-18
3.630000E+03	3.178462E-18	1.263635E-18
3.640000E+03	3.246819E-18	1.283093E-18
3.650000E+03	3.318570E-18	1.303756E-18
3.660000E+03	3.392746E-18	1.325213E-18
3.670000E+03	3.470552E-18	1.347907E-18
3.680000E+03	3.550977E-18	1.371408E-18
3.690000E+03	3.635282E-18	1.396170E-18
3.700000E+03	3.722409E-18	1.421743E-18
3.710000E+03	3.813057E-18	1.448354E-18
3.720000E+03	3.907984E-18	1.476242E-18
3.730000E+03	4.006056E-18	1.504924E-18
3.740000E+03	4.108689E-18	1.534877E-18
3.750000E+03	4.214691E-18	1.565595E-18
3.760000E+03	4.325550E-18	1.597566E-18
3.770000E+03	4.440009E-18	1.630254E-18
3.780000E+03	4.559631E-18	1.664158E-18
3.790000E+03	4.683091E-18	1.698714E-18
3.800000E+03	4.812030E-18	1.734431E-18
3.810000E+03	4.945048E-18	1.770711E-18
3.820000E+03	5.083870E-18	1.808076E-18
3.830000E+03	5.227012E-18	1.845891E-18
3.840000E+03	5.376290E-18	1.884688E-18
3.850000E+03	5.530128E-18	1.923796E-18
3.860000E+03	5.690437E-18	1.963757E-18
3.870000E+03	5.855541E-18	2.003860E-18
3.880000E+03	6.027450E-18	2.044655E-18
3.890000E+03	6.204382E-18	2.085389E-18
3.900000E+03	6.388448E-18	2.126621E-18
3.910000E+03	6.577748E-18	2.167554E-18
3.920000E+03	6.773412E-18	2.208399E-18
3.930000E+03	6.976687E-18	2.249380E-18
3.940000E+03	7.185475E-18	2.289633E-18
3.950000E+03	7.402170E-18	2.329733E-18
3.960000E+03	7.624528E-18	2.368766E-18
3.970000E+03	7.855064E-18	2.407311E-18
3.980000E+03	8.091376E-18	2.444410E-18
3.990000E+03	8.336105E-18	2.480642E-18
4.000000E+03	8.586677E-18	2.515004E-18
4.010000E+03	8.845862E-18	2.548076E-18
4.020000E+03	9.110903E-18	2.578811E-18
4.030000E+03	9.383200E-18	2.607371E-18
4.040000E+03	9.664308E-18	2.633922E-18
4.050000E+03	9.951165E-18	2.657362E-18
4.060000E+03	1.024689E-17	2.678264E-18
4.070000E+03	1.054819E-17	2.695492E-18
4.080000E+03	1.085659E-17	2.709184E-18
4.090000E+03	1.117380E-17	2.719477E-18
4.100000E+03	1.149616E-17	2.725203E-18
4.110000E+03	1.182527E-17	2.726488E-18
4.120000E+03	1.216291E-17	2.723458E-18
4.130000E+03	1.250506E-17	2.714933E-18
4.140000E+03	1.285543E-17	2.701467E-18
4.150000E+03	1.320972E-17	2.681888E-18
4.160000E+03	1.356965E-17	2.656324E-18
4.170000E+03	1.393714E-17	2.624895E-18
4.180000E+03	1.430746E-17	2.586470E-18
4.190000E+03	1.468241E-17	2.541194E-18
4.200000E+03	1.506159E-17	2.488802E-18
4.210000E+03	1.544702E-17	2.429433E-18
4.220000E+03	1.583341E-17	2.362078E-18
4.230000E+03	1.622266E-17	2.286931E-18
4.240000E+03	1.661691E-17	2.204168E-18
4.250000E+03	1.701040E-17	2.112939E-18
4.260000E+03	1.740517E-17	2.013510E-18
4.270000E+03	1.780063E-17	1.905835E-18
4.280000E+03	1.819907E-17	1.790218E-18
4.290000E+03	1.859419E-17	1.666177E-18
4.300000E+03	1.898818E-17	1.534231E-18
4.310000E+03	1.938043E-17	1.394766E-18
4.320000E+03	1.977031E-17	1.248430E-18
4.330000E+03	2.015717E-17	1.096302E-18
4.340000E+03	2.054364E-17	9.404082E-19
4.350000E+03	2.092267E-17	7.838809E-19
4.360000E+03	2.129683E-17	6.337789E-19
4.370000E+03	2.166551E-17	5.047374E-19
4.380000E+03	2.202814E-17	4.259600E-19
4.390000E+03	2.238416E-17	4.324963E-19
4.400000E+03	2.273306E-17	5.223504E-19
4.410000E+03	2.307439E-17	6.600087E-19
4.420000E+03	2.340772E-17	8.177491E-19
4.430000E+03	2.373267E-17	9.814315E-19
4.440000E+03	2.404890E-17	1.143902E-18
4.450000E+03	2.435611E-17	1.301110E-18
4.460000E+03	2.465791E-17	1.450685E-18
4.470000E+03	2.494250E-17	1.590093E-18
4.480000E+03	2.522131E-17	1.718589E-18
4.490000E+03	2.549035E-17	1.834787E-18
4.500000E+03	2.574957E-17	1.937715E-18
4.510000E+03	2.599895E-17	2.026545E-18
4.520000E+03	2.623853E-17	2.100561E-18
4.530000E+03	2.646837E-17	2.159151E-18
4.540000E+03	2.668862E-17	2.201795E-18
4.550000E+03	2.689944E-17	2.228061E-18
4.560000E+03	2.710106E-17	2.237601E-18
4.570000E+03	2.729371E-17	2.230148E-18
4.580000E+03	2.747343E-17	2.205182E-18
4.590000E+03	2.764906E-17	2.163304E-18
4.600000E+03	2.781673E-17	2.104174E-18
4.610000E+03	2.797681E-17	2.027907E-18
4.620000E+03	2.812972E-17	1.934750E-18
4.630000E+03	2.827150E-17	1.824836E-18
4.640000E+03	2.841136E-17	1.699399E-18
4.650000E+03	2.854539E-17	1.559134E-18
4.660000E+03	2.866961E-17	1.405374E-18
4.670000E+03	2.879337E-17	1.241102E-18
4.680000E+03	2.891269E-17	1.070407E-18
4.690000E+03	2.902354E-17	9.011086E-19
4.700000E+03	2.913532E-17	7.489215E-19
4.710000E+03	2.924398E-17	6.424814E-19
4.720000E+03	2.934534E-17	6.211940E-19
4.730000E+03	2.944881E-17	7.026243E-19
4.740000E+03	2.954558E-17	8.619035E-19
4.750000E+03	2.964503E-17	1.065883E-18
4.760000E+03	2.973819E-17	1.293091E-18
4.770000E+03	2.983443E-17	1.532696E-18
4.780000E+03	2.992469E-17	1.778260E-18
4.790000E+03	3.001833E-17	2.026844E-18
4.800000E+03	3.010621E-17	2.275705E-18
4.810000E+03	3.019770E-17	2.524058E-18
4.820000E+03	3.028358E-17	2.770110E-18
4.830000E+03	3.037323E-17	3.013873E-18
4.840000E+03	3.045738E-17	3.253801E-18
4.850000E+03	3.054073E-17	3.489774E-18
4.860000E+03	3.062806E-17	3.721886E-18
4.870000E+03	3.070998E-17	3.948598E-18
4.880000E+03	3.079123E-17	4.170058E-18
4.890000E+03	3.087662E-17	4.386582E-18
4.900000E+03	3.095667E-17	4.596517E-18
4.910000E+03	3.103617E-17	4.800190E-18
4.920000E+03	3.111514E-17	4.997300E-18
4.930000E+03	3.119842E-17	5.188364E-18
4.940000E+03	3.127645E-17	5.371542E-18
4.950000E+03	3.135405E-17	5.547346E-18
4.960000E+03	3.143126E-17	5.715530E-18
4.970000E+03	3.150809E-17	5.875857E-18
4.980000E+03	3.158459E-17	6.028103E-18
4.990000E+03	3.166077E-17	6.172050E-18
5.000000E+03	3.173666E-17	6.307493E-18
5.010000E+03	3.181717E-17	6.435220E-18
5.020000E+03	3.189256E-17	6.553085E-18
5.030000E+03	3.196773E-17	6.661874E-18
5.040000E+03	3.204268E-17	6.761415E-18
5.050000E+03	3.211744E-17	6.851541E-18
5.060000E+03	3.218708E-17	6.931032E-18
5.070000E+03	3.226144E-17	7.001851E-18
5.080000E+03	3.233563E-17	7.062805E-18
5.090000E+03	3.240962E-17	7.113758E-18
5.100000E+03	3.248341E-17	7.154582E-18
5.110000E+03	3.255700E-17	7.185157E-18
5.120000E+03	3.263035E-17	7.205369E-18
5.130000E+03	3.270346E-17	7.215113E-18
5.140000E+03	3.277130E-17	7.213191E-18
5.150000E+03	3.284382E-17	7.201722E-18
5.160000E+03	3.291602E-17	7.179524E-18
5.170000E+03	3.298784E-17	7.146529E-18
5.180000E+03	3.305420E-17	7.101593E-18
5.190000E+03	3.312515E-17	7.046848E-18
5.200000E+03	3.319559E-17	6.981166E-18
5.210000E+03	3.326042E-17	6.903474E-18
5.220000E+03	3.332971E-17	6.815884E-18
5.230000E+03	3.339836E-17	6.717340E-18
5.240000E+03	3.346121E-17	6.606862E-18
5.250000E+03	3.352841E-17	6.486531E-18
5.260000E+03	3.358969E-17	6.354422E-18
5.270000E+03	3.365524E-17	6.212589E-18
5.280000E+03	3.371478E-17	6.059245E-18
5.290000E+03	3.377852E-17	5.896418E-18
5.300000E+03	3.383615E-17	5.722485E-18
5.310000E+03	3.389794E-17	5.539461E-18
5.320000E+03	3.395355E-17	5.345931E-18
5.330000E+03	3.401331E-17	5.143918E-18
5.340000E+03	3.406686E-17	4.932276E-18
5.350000E+03	3.411937E-17	4.712372E-18
5.360000E+03	3.417606E-17	4.485571E-18
5.370000E+03	3.422656E-17	4.251328E-18
5.380000E+03	3.427611E-17	4.011431E-18
5.390000E+03	3.432996E-17	3.767822E-18
5.400000E+03	3.437776E-17	3.521086E-18
5.410000E+03	3.442478E-17	3.274142E-18
5.420000E+03	3.447110E-17	3.030055E-18
5.430000E+03	3.452206E-17	2.793343E-18
5.440000E+03	3.456729E-17	2.568614E-18
5.450000E+03	3.461211E-17	2.363612E-18
5.460000E+03	3.465664E-17	2.187694E-18
5.470000E+03	3.470096E-17	2.052039E-18
5.480000E+03	3.474517E-17	1.968260E-18
5.490000E+03	3.479457E-17	1.945764E-18
5.500000E+03	3.483862E-17	1.987087E-18
5.510000E+03	3.488249E-17	2.088219E-18
5.520000E+03	3.492601E-17	2.239484E-18
5.530000E+03	3.496902E-17	2.429366E-18
5.540000E+03	3.501131E-17	2.647125E-18
5.550000E+03	3.505269E-17	2.883903E-18
5.560000E+03	3.509294E-17	3.132823E-18
5.570000E+03	3.513187E-17	3.388685E-18
5.580000E+03	3.516928E-17	3.647572E-18
5.590000E+03	3.519967E-17	3.905921E-18
5.600000E+03	3.523350E-17	4.162592E-18
5.610000E+03	3.526531E-17	4.415248E-18
5.620000E+03	3.529493E-17	4.662469E-18
5.630000E+03	3.532222E-17	4.903104E-18
5.640000E+03	3.534706E-17	5.136209E-18
5.650000E+03	3.536933E-17	5.360990E-18
5.660000E+03	3.538358E-17	5.575934E-18
5.670000E+03	3.540042E-17	5.782123E-18
5.680000E+03	3.541440E-17	5.978247E-18
5.690000E+03	3.542546E-17	6.163871E-18
5.700000E+03	3.542818E-17	6.337654E-18
5.710000E+03	3.543320E-17	6.501150E-18
5.720000E+03	3.543513E-17	6.653129E-18
5.730000E+03	3.542856E-17	6.792297E-18
5.740000E+03	3.542416E-17	6.920453E-18
5.750000E+03	3.541654E-17	7.036382E-18
5.760000E+03	3.540033E-17	7.138822E-18
5.770000E+03	3.538619E-17	7.229754E-18
5.780000E+03	3.536342E-17	7.306871E-18
5.790000E+03	3.534267E-17	7.372251E-18
5.800000E+03	3.531326E-17	7.423577E-18
5.810000E+03	3.528583E-17	7.463003E-18
5.820000E+03	3.524972E-17	7.488218E-18
5.830000E+03	3.521556E-17	7.501431E-18
5.840000E+03	3.517269E-17	7.500350E-18
5.850000E+03	3.513175E-17	7.487224E-18
5.860000E+03	3.508210E-17	7.459791E-18
5.870000E+03	3.503435E-17	7.420326E-18
5.880000E+03	3.497789E-17	7.366613E-18
5.890000E+03	3.491803E-17	7.299830E-18
5.900000E+03	3.486004E-17	7.221134E-18
5.910000E+03	3.479337E-17	7.128412E-18
5.920000E+03	3.472332E-17	7.022863E-18
5.930000E+03	3.465512E-17	6.905644E-18
5.940000E+03	3.457831E-17	6.774780E-18
5.950000E+03	3.449816E-17	6.631479E-18
5.960000E+03	3.441989E-17	6.476882E-18
5.970000E+03	3.433313E-17	6.309192E-18
5.980000E+03	3.424312E-17	6.129612E-18
5.990000E+03	3.414992E-17	5.938364E-18
6.000000E+03	3.405358E-17	5.735693E-18
6.010000E+03	3.395928E-17	5.522701E-18
6.020000E+03	3.385684E-17	5.297984E-18
6.030000E+03	3.375148E-17	5.062737E-18
6.040000E+03	3.364330E-17	4.817325E-18
6.050000E+03	3.353240E-17	4.562162E-18
6.060000E+03	3.341889E-17	4.297718E-18
6.070000E+03	3.330291E-17	4.024543E-18
6.080000E+03	3.318959E-17	3.743855E-18
6.090000E+03	3.306905E-17	3.455283E-18
6.100000E+03	3.294647E-17	3.160455E-18
6.110000E+03	3.282202E-17	2.860719E-18
6.120000E+03	3.269587E-17	2.557954E-18
6.130000E+03	3.256820E-17	2.254911E-18
6.140000E+03	3.243918E-17	1.955868E-18
6.150000E+03	3.230901E-17	1.667875E-18
6.160000E+03	3.217784E-17	1.403149E-18
6.170000E+03	3.204586E-17	1.183120E-18
6.180000E+03	3.191321E-17	1.041794E-18
6.190000E+03	3.178005E-17	1.015930E-18
6.200000E+03	3.164168E-17	1.113709E-18
6.210000E+03	3.150775E-17	1.305755E-18
6.220000E+03	3.137351E-17	1.554275E-18
6.230000E+03	3.123898E-17	1.833115E-18
6.240000E+03	3.110419E-17	2.127198E-18
6.250000E+03	3.096915E-17	2.428056E-18
6.260000E+03	3.083390E-17	2.730787E-18
6.270000E+03	3.069381E-17	3.031964E-18
6.280000E+03	3.055821E-17	3.330579E-18
6.290000E+03	3.042249E-17	3.624985E-18
6.300000E+03	3.028668E-17	3.914348E-18
6.310000E+03	3.015085E-17	4.198087E-18
6.320000E+03	3.001053E-17	4.475119E-18
6.330000E+03	2.987487E-17	4.746468E-18
6.340000E+03	2.973941E-17	5.011295E-18
6.350000E+03	2.960424E-17	5.269461E-18
6.360000E+03	2.946501E-17	5.520042E-18
6.370000E+03	2.933075E-17	5.764611E-18
6.380000E+03	2.919710E-17	6.002349E-18
6.390000E+03	2.905979E-17	6.232314E-18
6.400000E+03	2.892774E-17	6.456374E-18
6.410000E+03	2.879668E-17	6.673660E-18
6.420000E+03	2.866241E-17	6.883184E-18
6.430000E+03	2.853373E-17	7.087057E-18
6.440000E+03	2.840216E-17	7.283246E-18
6.450000E+03	2.827642E-17	7.474007E-18
6.460000E+03	2.815235E-17	7.658361E-18
6.470000E+03	2.802584E-17	7.835224E-18
6.480000E+03	2.790553E-17	8.007043E-18
6.490000E+03	2.778309E-17	8.171536E-18
6.500000E+03	2.766707E-17	8.331264E-18
6.510000E+03	2.754922E-17	8.483851E-18
6.520000E+03	2.743802E-17	8.631962E-18
6.530000E+03	2.732528E-17	8.773134E-18
6.540000E+03	2.721939E-17	8.910122E-18
6.550000E+03	2.711222E-17	9.040380E-18
6.560000E+03	2.701210E-17	9.166746E-18
6.570000E+03	2.691095E-17	9.286596E-18
6.580000E+03	2.681703E-17	9.402841E-18
6.590000E+03	2.672231E-17	9.512781E-18
6.600000E+03	2.663094E-17	9.617940E-18
6.610000E+03	2.654704E-17	9.719908E-18
6.620000E+03	2.646263E-17	9.815877E-18
6.630000E+03	2.638581E-17	9.908912E-18
6.640000E+03	2.630867E-17	9.996138E-18
6.650000E+03	2.623525E-17	1.007914E-17
6.660000E+03	2.616959E-17	1.015957E-17
6.670000E+03	2.610381E-17	1.023445E-17
6.680000E+03	2.604192E-17	1.030539E-17
6.690000E+03	2.598790E-17	1.037405E-17
6.700000E+03	2.593391E-17	1.043739E-17
6.710000E+03	2.588393E-17	1.049702E-17
6.720000E+03	2.583797E-17	1.055303E-17
6.730000E+03	2.579998E-17	1.060708E-17
6.740000E+03	2.576213E-17	1.065602E-17
6.750000E+03	2.572835E-17	1.070148E-17
6.760000E+03	2.570255E-17	1.074515E-17
6.770000E+03	2.567692E-17	1.078381E-17
6.780000E+03	2.565535E-17	1.081910E-17
6.790000E+03	2.563784E-17	1.085105E-17
6.800000E+03	2.562435E-17	1.087967E-17
6.810000E+03	2.561875E-17	1.090661E-17
6.820000E+03	2.561323E-17	1.092856E-17
6.830000E+03	2.561165E-17	1.094718E-17
6.840000E+03	2.561396E-17	1.096244E-17
6.850000E+03	2.562010E-17	1.097432E-17
6.860000E+03	2.563001E-17	1.098278E-17
6.870000E+03	2.564364E-17	1.098779E-17
6.880000E+03	2.566480E-17	1.099095E-17
6.890000E+03	2.568564E-17	1.098889E-17
6.900000E+03	2.570995E-17	1.098321E-17
6.910000E+03	2.573764E-17	1.097384E-17
6.920000E+03	2.576862E-17	1.096069E-17
6.930000E+03	2.580277E-17	1.094370E-17
6.940000E+03	2.583997E-17	1.092275E-17
6.950000E+03	2.588011E-17	1.089777E-17
6.960000E+03	2.592304E-17	1.086863E-17
6.970000E+03	2.596864E-17	1.083524E-17
6.980000E+03	2.601674E-17	1.079747E-17
6.990000E+03	2.606718E-17	1.075521E-17
7.000000E+03	2.611981E-17	1.070832E-17
7.010000E+03	2.617444E-17	1.065667E-17
7.020000E+03	2.623089E-17	1.060013E-17
7.030000E+03	2.628896E-17	1.053855E-17
7.040000E+03	2.634845E-17	1.047179E-17
7.050000E+03	2.640914E-17	1.039971E-17
7.060000E+03	2.647081E-17	1.032214E-17
7.070000E+03	2.653322E-17	1.023895E-17
7.080000E+03	2.659613E-17	1.014997E-17
7.090000E+03	2.665930E-17	1.005507E-17
7.100000E+03	2.672246E-17	9.954071E-18
7.110000E+03	2.678126E-17	9.845343E-18
7.120000E+03	2.684357E-17	9.731747E-18
7.130000E+03	2.690503E-17	9.611624E-18
7.140000E+03	2.696536E-17	9.484835E-18
7.150000E+03	2.702426E-17	9.351245E-18
7.160000E+03	2.708140E-17	9.210728E-18
7.170000E+03	2.713649E-17	9.063163E-18
7.180000E+03	2.718505E-17	8.907083E-18
7.190000E+03	2.723505E-17	8.745128E-18
7.200000E+03	2.728201E-17	8.575828E-18
7.210000E+03	2.732562E-17	8.399108E-18
7.220000E+03	2.736136E-17	8.213655E-18
7.230000E+03	2.739724E-17	8.021958E-18
7.240000E+03	2.742877E-17	7.822710E-18
7.250000E+03	2.745561E-17	7.615902E-18
7.260000E+03	2.747326E-17	7.400417E-18
7.270000E+03	2.748976E-17	7.178581E-18
7.280000E+03	2.750062E-17	6.949291E-18
7.290000E+03	2.750554E-17	6.712630E-18
7.300000E+03	2.750001E-17	6.467723E-18
7.310000E+03	2.749216E-17	6.216724E-18
7.320000E+03	2.747751E-17	5.958784E-18
7.330000E+03	2.745161E-17	5.693243E-18
7.340000E+03	2.742263E-17	5.422133E-18
7.350000E+03	2.738614E-17	5.144839E-18
7.360000E+03	2.733777E-17	4.860965E-18
7.370000E+03	2.728570E-17	4.572451E-18
7.380000E+03	2.722143E-17	4.278339E-18
7.390000E+03	2.715316E-17	3.980562E-18
7.400000E+03	2.707663E-17	3.679119E-18
7.410000E+03	2.698762E-17	3.374360E-18
7.420000E+03	2.689435E-17	3.068470E-18
7.430000E+03	2.678856E-17	2.761918E-18
7.440000E+03	2.667847E-17	2.457601E-18
7.450000E+03	2.655592E-17	2.157617E-18
7.460000E+03	2.642913E-17	1.867084E-18
7.470000E+03	2.629005E-17	1.592471E-18
7.480000E+03	2.614688E-17	1.346130E-18
7.490000E+03	2.599169E-17	1.147159E-18
7.500000E+03	2.583262E-17	1.024337E-18
7.510000E+03	2.566186E-17	1.004218E-18
7.520000E+03	2.548747E-17	1.089583E-18
7.530000E+03	2.530174E-17	1.254417E-18
7.540000E+03	2.511261E-17	1.467762E-18
7.550000E+03	2.491251E-17	1.706609E-18
7.560000E+03	2.470930E-17	1.957802E-18
7.570000E+03	2.449556E-17	2.212800E-18
7.580000E+03	2.427906E-17	2.467472E-18
7.590000E+03	2.405254E-17	2.718130E-18
7.600000E+03	2.382003E-17	2.963198E-18
7.610000E+03	2.358544E-17	3.201885E-18
7.620000E+03	2.334175E-17	3.432369E-18
7.630000E+03	2.309295E-17	3.654498E-18
7.640000E+03	2.284286E-17	3.868450E-18
7.650000E+03	2.258477E-17	4.072781E-18
7.660000E+03	2.232255E-17	4.267872E-18
7.670000E+03	2.205997E-17	4.454305E-18
7.680000E+03	2.179055E-17	4.630691E-18
7.690000E+03	2.151808E-17	4.797698E-18
7.700000E+03	2.124620E-17	4.956140E-18
7.710000E+03	2.096870E-17	5.104598E-18
7.720000E+03	2.068925E-17	5.243930E-18
7.730000E+03	2.040821E-17	5.374278E-18
7.740000E+03	2.012904E-17	5.496657E-18
7.750000E+03	1.984585E-17	5.609572E-18
7.760000E+03	1.956211E-17	5.714057E-18
