#wls	flux	fluxerr
1.600000E+03	1.857998E-18	1.710302E-18
1.640000E+03	1.855663E-18	1.704755E-18
1.680000E+03	1.853042E-18	1.698674E-18
1.720000E+03	1.850452E-18	1.692333E-18
1.760000E+03	1.847550E-18	1.685397E-18
1.800000E+03	1.843997E-18	1.677539E-18
1.840000E+03	1.840438E-18	1.669328E-18
1.880000E+03	1.836860E-18	1.660728E-18
1.920000E+03	1.832603E-18	1.651123E-18
1.960000E+03	1.828311E-18	1.641069E-18
2.000000E+03	1.823329E-18	1.629961E-18
2.040000E+03	1.818303E-18	1.618352E-18
2.080000E+03	1.812910E-18	1.605930E-18
2.120000E+03	1.807473E-18	1.592957E-18
2.160000E+03	1.801361E-18	1.578854E-18
2.200000E+03	1.795225E-18	1.564168E-18
2.240000E+03	1.788764E-18	1.548612E-18
2.280000E+03	1.782003E-18	1.532184E-18
2.320000E+03	1.774977E-18	1.514889E-18
2.360000E+03	1.767726E-18	1.496737E-18
2.400000E+03	1.760609E-18	1.478006E-18
2.440000E+03	1.753375E-18	1.458457E-18
2.480000E+03	1.746099E-18	1.438125E-18
2.520000E+03	1.738869E-18	1.417055E-18
2.560000E+03	1.732088E-18	1.395545E-18
2.600000E+03	1.725572E-18	1.373411E-18
2.640000E+03	1.719164E-18	1.350497E-18
2.680000E+03	1.713919E-18	1.327594E-18
2.720000E+03	1.709130E-18	1.304106E-18
2.760000E+03	1.705311E-18	1.280384E-18
2.800000E+03	1.702999E-18	1.256776E-18
2.840000E+03	1.702181E-18	1.233204E-18
2.880000E+03	1.703181E-18	1.209833E-18
2.920000E+03	1.706369E-18	1.186848E-18
2.960000E+03	1.712458E-18	1.164649E-18
3.000000E+03	1.721350E-18	1.143062E-18
3.010000E+03	1.724267E-18	1.137919E-18
3.020000E+03	1.727421E-18	1.132845E-18
3.030000E+03	1.730529E-18	1.127654E-18
3.040000E+03	1.734188E-18	1.122735E-18
3.050000E+03	1.738116E-18	1.117900E-18
3.060000E+03	1.742027E-18	1.112963E-18
3.070000E+03	1.746525E-18	1.108311E-18
3.080000E+03	1.751325E-18	1.103756E-18
3.090000E+03	1.756440E-18	1.099306E-18
3.100000E+03	1.761583E-18	1.094780E-18
3.110000E+03	1.767366E-18	1.090555E-18
3.120000E+03	1.773503E-18	1.086452E-18
3.130000E+03	1.780008E-18	1.082476E-18
3.140000E+03	1.786897E-18	1.078634E-18
3.150000E+03	1.793882E-18	1.074750E-18
3.160000E+03	1.801584E-18	1.071196E-18
3.170000E+03	1.809717E-18	1.067797E-18
3.180000E+03	1.818299E-18	1.064559E-18
3.190000E+03	1.827347E-18	1.061491E-18
3.200000E+03	1.836881E-18	1.058601E-18
3.210000E+03	1.846608E-18	1.055719E-18
3.220000E+03	1.857170E-18	1.053211E-18
3.230000E+03	1.868278E-18	1.050907E-18
3.240000E+03	1.879953E-18	1.048816E-18
3.250000E+03	1.892219E-18	1.046949E-18
3.260000E+03	1.905099E-18	1.045316E-18
3.270000E+03	1.918617E-18	1.043927E-18
3.280000E+03	1.932800E-18	1.042795E-18
3.290000E+03	1.947674E-18	1.041930E-18
3.300000E+03	1.963267E-18	1.041345E-18
3.310000E+03	1.979608E-18	1.041053E-18
3.320000E+03	1.996727E-18	1.041067E-18
3.330000E+03	2.014655E-18	1.041400E-18
3.340000E+03	2.033084E-18	1.041894E-18
3.350000E+03	2.052728E-18	1.042911E-18
3.360000E+03	2.073282E-18	1.044293E-18
3.370000E+03	2.094785E-18	1.046056E-18
3.380000E+03	2.117275E-18	1.048217E-18
3.390000E+03	2.140791E-18	1.050792E-18
3.400000E+03	2.165375E-18	1.053801E-18
3.410000E+03	2.191071E-18	1.057261E-18
3.420000E+03	2.218293E-18	1.061369E-18
3.430000E+03	2.246352E-18	1.065790E-18
3.440000E+03	2.275663E-18	1.070722E-18
3.450000E+03	2.306276E-18	1.076186E-18
3.460000E+03	2.338244E-18	1.082201E-18
3.470000E+03	2.371620E-18	1.088791E-18
3.480000E+03	2.406462E-18	1.095976E-18
3.490000E+03	2.442828E-18	1.103780E-18
3.500000E+03	2.480779E-18	1.112224E-18
3.510000E+03	2.520377E-18	1.121332E-18
3.520000E+03	2.561688E-18	1.131126E-18
3.530000E+03	2.604780E-18	1.141629E-18
3.540000E+03	2.649722E-18	1.152864E-18
3.550000E+03	2.696586E-18	1.164854E-18
3.560000E+03	2.745448E-18	1.177620E-18
3.570000E+03	2.796849E-18	1.191382E-18
3.580000E+03	2.849949E-18	1.205769E-18
3.590000E+03	2.905286E-18	1.220997E-18
3.600000E+03	2.962946E-18	1.237086E-18
3.610000E+03	3.023016E-18	1.254054E-18
3.620000E+03	3.085587E-18	1.271920E-18
3.630000E+03	3.150751E-18	1.290699E-18
3.640000E+03	3.218604E-18	1.310408E-18
3.650000E+03	3.289245E-18	1.331060E-18
3.660000E+03	3.363330E-18	1.352889E-18
3.670000E+03	3.439865E-18	1.375463E-18
3.680000E+03	3.519500E-18	1.399010E-18
3.690000E+03	3.602344E-18	1.423534E-18
3.700000E+03	3.688510E-18	1.449038E-18
3.710000E+03	3.778112E-18	1.475523E-18
3.720000E+03	3.871267E-18	1.502986E-18
3.730000E+03	3.968095E-18	1.531419E-18
3.740000E+03	4.069386E-18	1.561071E-18
3.750000E+03	4.173946E-18	1.591419E-18
3.760000E+03	4.282551E-18	1.622698E-18
3.770000E+03	4.395333E-18	1.654887E-18
3.780000E+03	4.512420E-18	1.687958E-18
3.790000E+03	4.633945E-18	1.721882E-18
3.800000E+03	4.760041E-18	1.756621E-18
3.810000E+03	4.890845E-18	1.792134E-18
3.820000E+03	5.027313E-18	1.828672E-18
3.830000E+03	5.167959E-18	1.865590E-18
3.840000E+03	5.313722E-18	1.903120E-18
3.850000E+03	5.464737E-18	1.941194E-18
3.860000E+03	5.621141E-18	1.979740E-18
3.870000E+03	5.783069E-18	2.018674E-18
3.880000E+03	5.950654E-18	2.057907E-18
3.890000E+03	6.124027E-18	2.097342E-18
3.900000E+03	6.304345E-18	2.137218E-18
3.910000E+03	6.489709E-18	2.176731E-18
3.920000E+03	6.681237E-18	2.216097E-18
3.930000E+03	6.879048E-18	2.255182E-18
3.940000E+03	7.083253E-18	2.293842E-18
3.950000E+03	7.293956E-18	2.331923E-18
3.960000E+03	7.511257E-18	2.369259E-18
3.970000E+03	7.735243E-18	2.405677E-18
3.980000E+03	7.965997E-18	2.440991E-18
3.990000E+03	8.204920E-18	2.475406E-18
4.000000E+03	8.449449E-18	2.507918E-18
4.010000E+03	8.700924E-18	2.538708E-18
4.020000E+03	8.959379E-18	2.567547E-18
4.030000E+03	9.224833E-18	2.594199E-18
4.040000E+03	9.497291E-18	2.618417E-18
4.050000E+03	9.776740E-18	2.639946E-18
4.060000E+03	1.006315E-17	2.658522E-18
4.070000E+03	1.035647E-17	2.673872E-18
4.080000E+03	1.065662E-17	2.685718E-18
4.090000E+03	1.096353E-17	2.693773E-18
4.100000E+03	1.127706E-17	2.697748E-18
4.110000E+03	1.159709E-17	2.697347E-18
4.120000E+03	1.192344E-17	2.692275E-18
4.130000E+03	1.225594E-17	2.682233E-18
4.140000E+03	1.259436E-17	2.666924E-18
4.150000E+03	1.293846E-17	2.646054E-18
4.160000E+03	1.328797E-17	2.619331E-18
4.170000E+03	1.364259E-17	2.586472E-18
4.180000E+03	1.400199E-17	2.547202E-18
4.190000E+03	1.436582E-17	2.501257E-18
4.200000E+03	1.473368E-17	2.448388E-18
4.210000E+03	1.510518E-17	2.388362E-18
4.220000E+03	1.547985E-17	2.320967E-18
4.230000E+03	1.585725E-17	2.246014E-18
4.240000E+03	1.623688E-17	2.163344E-18
4.250000E+03	1.661822E-17	2.072831E-18
4.260000E+03	1.700075E-17	1.974389E-18
4.270000E+03	1.738390E-17	1.867983E-18
4.280000E+03	1.776711E-17	1.753639E-18
4.290000E+03	1.814689E-17	1.631203E-18
4.300000E+03	1.852841E-17	1.501435E-18
4.310000E+03	1.890822E-17	1.364433E-18
4.320000E+03	1.928572E-17	1.220821E-18
4.330000E+03	1.966033E-17	1.071635E-18
4.340000E+03	2.003146E-17	9.186531E-19
4.350000E+03	2.039853E-17	7.651307E-19
4.360000E+03	2.075766E-17	6.174494E-19
4.370000E+03	2.111486E-17	4.897644E-19
4.380000E+03	2.146634E-17	4.107317E-19
4.390000E+03	2.181158E-17	4.172178E-19
4.400000E+03	2.214658E-17	5.070154E-19
4.410000E+03	2.247789E-17	6.429637E-19
4.420000E+03	2.280163E-17	7.976914E-19
4.430000E+03	2.311741E-17	9.577335E-19
4.440000E+03	2.342117E-17	1.116171E-18
4.450000E+03	2.372000E-17	1.269507E-18
4.460000E+03	2.400997E-17	1.415115E-18
4.470000E+03	2.429087E-17	1.551217E-18
4.480000E+03	2.455863E-17	1.676172E-18
4.490000E+03	2.482090E-17	1.789372E-18
4.500000E+03	2.506977E-17	1.889331E-18
4.510000E+03	2.531314E-17	1.975829E-18
4.520000E+03	2.554710E-17	2.047892E-18
4.530000E+03	2.576767E-17	2.104594E-18
4.540000E+03	2.598308E-17	2.146090E-18
4.550000E+03	2.618947E-17	2.171639E-18
4.560000E+03	2.638287E-17	2.180558E-18
4.570000E+03	2.657186E-17	2.173282E-18
4.580000E+03	2.674834E-17	2.148956E-18
4.590000E+03	2.692108E-17	2.108175E-18
4.600000E+03	2.708194E-17	2.050280E-18
4.610000E+03	2.723985E-17	1.976041E-18
4.620000E+03	2.738664E-17	1.885067E-18
4.630000E+03	2.753134E-17	1.778371E-18
4.640000E+03	2.766575E-17	1.656004E-18
4.650000E+03	2.779902E-17	1.519469E-18
4.660000E+03	2.792286E-17	1.369756E-18
4.670000E+03	2.804211E-17	1.209536E-18
4.680000E+03	2.816164E-17	1.043087E-18
4.690000E+03	2.827305E-17	8.776013E-19
4.700000E+03	2.838564E-17	7.280793E-19
4.710000E+03	2.849091E-17	6.223366E-19
4.720000E+03	2.859367E-17	6.008805E-19
4.730000E+03	2.869874E-17	6.821612E-19
4.740000E+03	2.879741E-17	8.393101E-19
4.750000E+03	2.889437E-17	1.039117E-18
4.760000E+03	2.898981E-17	1.261225E-18
4.770000E+03	2.908847E-17	1.495242E-18
4.780000E+03	2.918135E-17	1.735043E-18
4.790000E+03	2.927311E-17	1.977532E-18
4.800000E+03	2.936384E-17	2.220640E-18
4.810000E+03	2.945823E-17	2.463347E-18
4.820000E+03	2.954712E-17	2.703899E-18
4.830000E+03	2.963515E-17	2.941854E-18
4.840000E+03	2.972237E-17	3.176573E-18
4.850000E+03	2.980880E-17	3.407514E-18
4.860000E+03	2.989448E-17	3.634204E-18
4.870000E+03	2.997942E-17	3.856220E-18
4.880000E+03	3.006366E-17	4.073174E-18
4.890000E+03	3.014721E-17	4.284709E-18
4.900000E+03	3.023009E-17	4.490489E-18
4.910000E+03	3.031705E-17	4.690930E-18
4.920000E+03	3.039867E-17	4.884300E-18
4.930000E+03	3.047493E-17	5.070225E-18
4.940000E+03	3.055534E-17	5.249986E-18
4.950000E+03	3.063520E-17	5.422562E-18
4.960000E+03	3.071451E-17	5.587705E-18
4.970000E+03	3.079330E-17	5.745179E-18
4.980000E+03	3.087159E-17	5.894755E-18
4.990000E+03	3.094941E-17	6.036217E-18
5.000000E+03	3.102676E-17	6.169355E-18
5.010000E+03	3.110368E-17	6.293970E-18
5.020000E+03	3.118017E-17	6.409872E-18
5.030000E+03	3.125138E-17	6.515865E-18
5.040000E+03	3.132705E-17	6.613787E-18
5.050000E+03	3.140233E-17	6.702473E-18
5.060000E+03	3.147723E-17	6.781766E-18
5.070000E+03	3.155174E-17	6.851516E-18
5.080000E+03	3.162097E-17	6.910507E-18
5.090000E+03	3.169471E-17	6.960743E-18
5.100000E+03	3.176806E-17	7.001033E-18
5.110000E+03	3.183607E-17	7.030167E-18
5.120000E+03	3.190859E-17	7.050213E-18
5.130000E+03	3.198068E-17	7.059983E-18
5.140000E+03	3.204734E-17	7.058289E-18
5.150000E+03	3.211848E-17	7.047237E-18
5.160000E+03	3.218412E-17	7.024568E-18
5.170000E+03	3.225420E-17	6.992402E-18
5.180000E+03	3.232370E-17	6.949590E-18
5.190000E+03	3.238756E-17	6.895025E-18
5.200000E+03	3.245579E-17	6.830820E-18
5.210000E+03	3.251828E-17	6.754838E-18
5.220000E+03	3.258506E-17	6.669183E-18
5.230000E+03	3.264602E-17	6.571795E-18
5.240000E+03	3.270614E-17	6.463757E-18
5.250000E+03	3.277044E-17	6.346107E-18
5.260000E+03	3.282877E-17	6.216944E-18
5.270000E+03	3.289123E-17	6.078312E-18
5.280000E+03	3.294762E-17	5.928443E-18
5.290000E+03	3.300299E-17	5.768465E-18
5.300000E+03	3.306242E-17	5.599450E-18
5.310000E+03	3.311569E-17	5.419892E-18
5.320000E+03	3.316789E-17	5.230989E-18
5.330000E+03	3.322412E-17	5.033890E-18
5.340000E+03	3.327416E-17	4.827464E-18
5.350000E+03	3.332313E-17	4.613075E-18
5.360000E+03	3.337106E-17	4.391407E-18
5.370000E+03	3.342313E-17	4.163956E-18
5.380000E+03	3.346909E-17	3.930469E-18
5.390000E+03	3.351413E-17	3.692985E-18
5.400000E+03	3.355832E-17	3.453254E-18
5.410000E+03	3.360175E-17	3.213558E-18
5.420000E+03	3.364450E-17	2.976910E-18
5.430000E+03	3.368667E-17	2.747312E-18
5.440000E+03	3.373355E-17	2.530490E-18
5.450000E+03	3.377488E-17	2.332650E-18
5.460000E+03	3.381594E-17	2.163148E-18
5.470000E+03	3.385685E-17	2.032565E-18
5.480000E+03	3.389768E-17	1.951849E-18
5.490000E+03	3.393851E-17	1.929781E-18
5.500000E+03	3.397934E-17	1.969577E-18
5.510000E+03	3.402006E-17	2.066810E-18
5.520000E+03	3.406050E-17	2.212228E-18
5.530000E+03	3.410048E-17	2.394971E-18
5.540000E+03	3.413455E-17	2.604456E-18
5.550000E+03	3.417301E-17	2.832974E-18
5.560000E+03	3.421041E-17	3.073523E-18
5.570000E+03	3.424655E-17	3.321047E-18
5.580000E+03	3.428124E-17	3.571715E-18
5.590000E+03	3.431430E-17	3.822611E-18
5.600000E+03	3.434555E-17	4.071482E-18
5.610000E+03	3.436954E-17	4.315905E-18
5.620000E+03	3.439670E-17	4.555763E-18
5.630000E+03	3.442159E-17	4.789295E-18
5.640000E+03	3.444410E-17	5.015562E-18
5.650000E+03	3.445881E-17	5.232978E-18
5.660000E+03	3.447620E-17	5.442455E-18
5.670000E+03	3.449089E-17	5.642652E-18
5.680000E+03	3.450280E-17	5.833079E-18
5.690000E+03	3.450654E-17	6.012381E-18
5.700000E+03	3.451265E-17	6.182001E-18
5.710000E+03	3.451047E-17	6.339735E-18
5.720000E+03	3.451054E-17	6.487214E-18
5.730000E+03	3.450753E-17	6.623226E-18
5.740000E+03	3.449609E-17	6.746503E-18
5.750000E+03	3.448679E-17	6.858894E-18
5.760000E+03	3.446900E-17	6.958133E-18
5.770000E+03	3.445328E-17	7.046183E-18
5.780000E+03	3.442903E-17	7.120763E-18
5.790000E+03	3.440680E-17	7.183929E-18
5.800000E+03	3.437602E-17	7.233392E-18
5.810000E+03	3.434722E-17	7.271285E-18
5.820000E+03	3.430984E-17	7.295323E-18
5.830000E+03	3.427442E-17	7.307693E-18
5.840000E+03	3.423041E-17	7.306131E-18
5.850000E+03	3.418833E-17	7.292862E-18
5.860000E+03	3.413768E-17	7.265654E-18
5.870000E+03	3.408893E-17	7.226755E-18
5.880000E+03	3.403162E-17	7.173980E-18
5.890000E+03	3.397099E-17	7.108495E-18
5.900000E+03	3.391226E-17	7.031446E-18
5.910000E+03	3.384501E-17	6.940745E-18
5.920000E+03	3.377448E-17	6.837581E-18
5.930000E+03	3.370586E-17	6.723100E-18
5.940000E+03	3.362881E-17	6.595352E-18
5.950000E+03	3.354855E-17	6.455530E-18
5.960000E+03	3.346512E-17	6.303800E-18
5.970000E+03	3.338366E-17	6.141284E-18
5.980000E+03	3.329400E-17	5.966274E-18
5.990000E+03	3.320130E-17	5.779955E-18
6.000000E+03	3.310564E-17	5.582571E-18
6.010000E+03	3.300709E-17	5.374385E-18
6.020000E+03	3.291078E-17	5.156483E-18
6.030000E+03	3.280670E-17	4.927570E-18
6.040000E+03	3.270001E-17	4.688833E-18
6.050000E+03	3.259083E-17	4.440677E-18
6.060000E+03	3.247929E-17	4.183568E-18
6.070000E+03	3.236552E-17	3.918046E-18
6.080000E+03	3.224967E-17	3.644757E-18
6.090000E+03	3.213190E-17	3.364491E-18
6.100000E+03	3.201237E-17	3.078256E-18
6.110000E+03	3.189126E-17	2.787385E-18
6.120000E+03	3.176876E-17	2.493729E-18
6.130000E+03	3.164991E-17	2.200333E-18
6.140000E+03	3.152517E-17	1.910672E-18
6.150000E+03	3.139960E-17	1.632000E-18
6.160000E+03	3.126860E-17	1.375927E-18
6.170000E+03	3.114195E-17	1.163484E-18
6.180000E+03	3.101500E-17	1.026929E-18
6.190000E+03	3.088789E-17	1.001836E-18
6.200000E+03	3.076071E-17	1.096521E-18
6.210000E+03	3.063353E-17	1.282017E-18
6.220000E+03	3.050634E-17	1.522338E-18
6.230000E+03	3.037917E-17	1.792427E-18
6.240000E+03	3.025202E-17	2.077726E-18
6.250000E+03	3.012487E-17	2.369991E-18
6.260000E+03	2.999774E-17	2.664412E-18
6.270000E+03	2.986604E-17	2.957609E-18
6.280000E+03	2.973895E-17	3.248581E-18
6.290000E+03	2.961190E-17	3.535694E-18
6.300000E+03	2.948491E-17	3.818112E-18
6.310000E+03	2.935802E-17	4.095257E-18
6.320000E+03	2.923126E-17	4.366716E-18
6.330000E+03	2.910024E-17	4.631487E-18
6.340000E+03	2.897396E-17	4.890744E-18
6.350000E+03	2.884801E-17	5.143669E-18
6.360000E+03	2.872248E-17	5.390165E-18
6.370000E+03	2.859307E-17	5.629306E-18
6.380000E+03	2.846866E-17	5.862750E-18
6.390000E+03	2.834496E-17	6.089662E-18
6.400000E+03	2.821776E-17	6.309084E-18
6.410000E+03	2.809582E-17	6.522946E-18
6.420000E+03	2.797494E-17	6.730356E-18
6.430000E+03	2.785096E-17	6.930303E-18
6.440000E+03	2.773256E-17	7.124948E-18
6.450000E+03	2.761558E-17	7.313331E-18
6.460000E+03	2.749592E-17	7.494384E-18
6.470000E+03	2.738217E-17	7.670468E-18
6.480000E+03	2.727022E-17	7.840553E-18
6.490000E+03	2.715602E-17	8.003512E-18
6.500000E+03	2.704805E-17	8.161879E-18
6.510000E+03	2.693811E-17	8.313282E-18
6.520000E+03	2.683460E-17	8.460359E-18
6.530000E+03	2.672938E-17	8.600649E-18
6.540000E+03	2.663079E-17	8.736886E-18
6.550000E+03	2.653075E-17	8.866522E-18
6.560000E+03	2.643752E-17	8.992376E-18
6.570000E+03	2.634307E-17	9.111822E-18
6.580000E+03	2.625559E-17	9.227752E-18
6.590000E+03	2.616711E-17	9.337464E-18
6.600000E+03	2.608575E-17	9.443920E-18
6.610000E+03	2.600358E-17	9.544346E-18
6.620000E+03	2.592868E-17	9.641762E-18
6.630000E+03	2.585313E-17	9.733327E-18
6.640000E+03	2.578497E-17	9.822115E-18
6.650000E+03	2.571631E-17	9.905220E-18
6.660000E+03	2.565513E-17	9.985763E-18
6.670000E+03	2.559358E-17	1.006078E-17
6.680000E+03	2.553567E-17	1.013187E-17
6.690000E+03	2.548534E-17	1.020068E-17
6.700000E+03	2.543480E-17	1.026416E-17
6.710000E+03	2.539189E-17	1.032552E-17
6.720000E+03	2.534883E-17	1.038167E-17
6.730000E+03	2.530956E-17	1.043422E-17
6.740000E+03	2.527796E-17	1.048485E-17
6.750000E+03	2.524627E-17	1.053039E-17
6.760000E+03	2.521837E-17	1.057246E-17
6.770000E+03	2.519815E-17	1.061275E-17
6.780000E+03	2.517785E-17	1.064800E-17
6.790000E+03	2.516131E-17	1.067987E-17
6.800000E+03	2.514853E-17	1.070837E-17
6.810000E+03	2.514334E-17	1.073514E-17
6.820000E+03	2.513797E-17	1.075690E-17
6.830000E+03	2.513626E-17	1.077527E-17
6.840000E+03	2.513815E-17	1.079023E-17
6.850000E+03	2.514748E-17	1.080342E-17
6.860000E+03	2.515644E-17	1.081150E-17
6.870000E+03	2.516883E-17	1.081607E-17
6.880000E+03	2.518459E-17	1.081709E-17
6.890000E+03	2.520363E-17	1.081451E-17
6.900000E+03	2.522977E-17	1.080993E-17
6.910000E+03	2.525513E-17	1.079996E-17
6.920000E+03	2.528350E-17	1.078618E-17
6.930000E+03	2.531478E-17	1.076851E-17
6.940000E+03	2.534885E-17	1.074687E-17
6.950000E+03	2.538559E-17	1.072117E-17
6.960000E+03	2.542879E-17	1.069294E-17
6.970000E+03	2.547047E-17	1.065879E-17
6.980000E+03	2.551441E-17	1.062026E-17
6.990000E+03	2.556044E-17	1.057722E-17
7.000000E+03	2.560842E-17	1.052957E-17
7.010000E+03	2.565815E-17	1.047717E-17
7.020000E+03	2.570947E-17	1.041989E-17
7.030000E+03	2.576218E-17	1.035760E-17
7.040000E+03	2.581609E-17	1.029017E-17
7.050000E+03	2.587098E-17	1.021746E-17
7.060000E+03	2.592665E-17	1.013932E-17
7.070000E+03	2.598287E-17	1.005562E-17
7.080000E+03	2.603940E-17	9.966206E-18
7.090000E+03	2.609601E-17	9.870948E-18
7.100000E+03	2.615244E-17	9.769702E-18
7.110000E+03	2.620844E-17	9.662328E-18
7.120000E+03	2.626374E-17	9.548690E-18
7.130000E+03	2.631806E-17	9.428657E-18
7.140000E+03	2.637114E-17	9.302101E-18
7.150000E+03	2.642268E-17	9.168900E-18
7.160000E+03	2.647239E-17	9.028939E-18
7.170000E+03	2.651997E-17	8.882112E-18
7.180000E+03	2.656513E-17	8.728321E-18
7.190000E+03	2.660755E-17	8.567478E-18
7.200000E+03	2.664693E-17	8.399508E-18
7.210000E+03	2.668295E-17	8.224346E-18
7.220000E+03	2.671531E-17	8.041946E-18
7.230000E+03	2.673956E-17	7.851057E-18
7.240000E+03	2.676367E-17	7.654124E-18
7.250000E+03	2.678318E-17	7.449905E-18
7.260000E+03	2.679780E-17	7.238422E-18
7.270000E+03	2.680723E-17	7.019717E-18
7.280000E+03	2.681118E-17	6.793857E-18
7.290000E+03	2.680938E-17	6.560933E-18
7.300000E+03	2.679739E-17	6.320083E-18
7.310000E+03	2.678326E-17	6.073451E-18
7.320000E+03	2.676261E-17	5.820200E-18
7.330000E+03	2.673519E-17	5.560542E-18
7.340000E+03	2.670079E-17	5.294730E-18
7.350000E+03	2.665509E-17	5.022280E-18
7.360000E+03	2.660617E-17	4.745140E-18
7.370000E+03	2.654976E-17	4.462895E-18
7.380000E+03	2.648572E-17	4.176023E-18
7.390000E+03	2.640984E-17	3.884494E-18
7.400000E+03	2.633025E-17	3.590251E-18
7.410000E+03	2.624278E-17	3.293502E-18
7.420000E+03	2.614334E-17	2.994873E-18
7.430000E+03	2.604007E-17	2.696778E-18
7.440000E+03	2.592891E-17	2.400685E-18
7.450000E+03	2.580590E-17	2.109118E-18
7.460000E+03	2.567915E-17	1.827108E-18
7.470000E+03	2.554473E-17	1.561201E-18
7.480000E+03	2.539879E-17	1.322642E-18
7.490000E+03	2.524940E-17	1.130643E-18
7.500000E+03	2.509272E-17	1.011998E-18
7.510000E+03	2.492504E-17	9.923305E-19
7.520000E+03	2.475426E-17	1.074374E-18
7.530000E+03	2.457661E-17	1.233251E-18
7.540000E+03	2.438842E-17	1.438903E-18
7.550000E+03	2.419743E-17	1.670088E-18
7.560000E+03	2.399625E-17	1.913110E-18
7.570000E+03	2.379255E-17	2.160740E-18
7.580000E+03	2.357906E-17	2.407654E-18
7.590000E+03	2.336339E-17	2.651636E-18
7.600000E+03	2.313844E-17	2.889997E-18
7.610000E+03	2.291171E-17	3.122327E-18
7.620000E+03	2.267627E-17	3.346818E-18
7.630000E+03	2.243953E-17	3.563872E-18
7.640000E+03	2.219472E-17	3.771990E-18
7.650000E+03	2.194912E-17	3.972028E-18
7.660000E+03	2.169617E-17	4.162590E-18
7.670000E+03	2.144299E-17	4.344834E-18
7.680000E+03	2.118318E-17	4.517381E-18
7.690000E+03	2.092375E-17	4.681614E-18
7.700000E+03	2.065844E-17	4.836139E-18
7.710000E+03	2.039410E-17	4.982515E-18
7.720000E+03	2.012465E-17	5.119316E-18
7.730000E+03	1.985678E-17	5.248250E-18
7.740000E+03	1.958455E-17	5.367850E-18
7.750000E+03	1.931145E-17	5.479090E-18
7.760000E+03	1.904078E-17	5.583036E-18
