#wls	flux	fluxerr
1.600000E+03	8.614637E-18	7.490064E-18
1.640000E+03	8.650254E-18	7.516750E-18
1.680000E+03	8.689628E-18	7.546042E-18
1.720000E+03	8.734483E-18	7.579337E-18
1.760000E+03	8.784991E-18	7.616665E-18
1.800000E+03	8.842927E-18	7.659427E-18
1.840000E+03	8.908505E-18	7.707649E-18
1.880000E+03	8.983560E-18	7.762730E-18
1.920000E+03	9.068355E-18	7.824679E-18
1.960000E+03	9.164797E-18	7.894886E-18
2.000000E+03	9.273203E-18	7.973325E-18
2.040000E+03	9.397213E-18	8.062771E-18
2.080000E+03	9.535577E-18	8.161736E-18
2.120000E+03	9.693722E-18	8.274376E-18
2.160000E+03	9.870480E-18	8.399108E-18
2.200000E+03	1.006976E-17	8.538576E-18
2.240000E+03	1.029044E-17	8.691022E-18
2.280000E+03	1.053307E-17	8.855996E-18
2.320000E+03	1.079822E-17	9.032898E-18
2.360000E+03	1.108642E-17	9.220944E-18
2.400000E+03	1.139816E-17	9.419137E-18
2.440000E+03	1.173029E-17	9.623273E-18
2.480000E+03	1.208669E-17	9.834732E-18
2.520000E+03	1.246392E-17	1.004866E-17
2.560000E+03	1.286194E-17	1.026275E-17
2.600000E+03	1.328237E-17	1.047574E-17
2.640000E+03	1.372095E-17	1.068145E-17
2.680000E+03	1.418060E-17	1.087906E-17
2.720000E+03	1.466011E-17	1.106419E-17
2.760000E+03	1.515585E-17	1.123042E-17
2.800000E+03	1.566553E-17	1.137217E-17
2.840000E+03	1.618617E-17	1.148326E-17
2.880000E+03	1.671011E-17	1.155423E-17
2.920000E+03	1.723280E-17	1.157815E-17
2.960000E+03	1.774895E-17	1.154792E-17
3.000000E+03	1.825658E-17	1.145912E-17
3.010000E+03	1.838171E-17	1.142715E-17
3.020000E+03	1.850491E-17	1.139045E-17
3.030000E+03	1.862810E-17	1.135017E-17
3.040000E+03	1.874914E-17	1.130498E-17
3.050000E+03	1.887197E-17	1.125722E-17
3.060000E+03	1.899041E-17	1.120317E-17
3.070000E+03	1.911043E-17	1.114636E-17
3.080000E+03	1.922788E-17	1.108432E-17
3.090000E+03	1.934466E-17	1.101816E-17
3.100000E+03	1.946069E-17	1.094780E-17
3.110000E+03	1.957587E-17	1.087318E-17
3.120000E+03	1.969009E-17	1.079423E-17
3.130000E+03	1.980327E-17	1.071090E-17
3.140000E+03	1.991330E-17	1.062207E-17
3.150000E+03	2.002617E-17	1.053094E-17
3.160000E+03	2.013575E-17	1.043425E-17
3.170000E+03	2.024601E-17	1.033410E-17
3.180000E+03	2.035489E-17	1.022943E-17
3.190000E+03	2.046234E-17	1.012026E-17
3.200000E+03	2.057236E-17	1.000854E-17
3.210000E+03	2.068091E-17	9.892314E-18
3.220000E+03	2.078999E-17	9.772559E-18
3.230000E+03	2.089763E-17	9.648370E-18
3.240000E+03	2.100785E-17	9.521625E-18
3.250000E+03	2.111869E-17	9.391427E-18
3.260000E+03	2.123220E-17	9.258686E-18
3.270000E+03	2.134650E-17	9.122572E-18
3.280000E+03	2.146169E-17	8.983164E-18
3.290000E+03	2.158183E-17	8.842161E-18
3.300000E+03	2.170315E-17	8.697993E-18
3.310000E+03	2.182972E-17	8.552309E-18
3.320000E+03	2.195784E-17	8.403649E-18
3.330000E+03	2.209353E-17	8.254337E-18
3.340000E+03	2.223313E-17	8.102966E-18
3.350000E+03	2.237879E-17	7.950354E-18
3.360000E+03	2.253076E-17	7.796597E-18
3.370000E+03	2.269117E-17	7.642456E-18
3.380000E+03	2.286023E-17	7.488018E-18
3.390000E+03	2.303623E-17	7.332801E-18
3.400000E+03	2.322313E-17	7.178185E-18
3.410000E+03	2.341915E-17	7.023750E-18
3.420000E+03	2.362434E-17	6.869750E-18
3.430000E+03	2.384239E-17	6.717558E-18
3.440000E+03	2.407313E-17	6.567462E-18
3.450000E+03	2.431439E-17	6.419357E-18
3.460000E+03	2.456569E-17	6.273798E-18
3.470000E+03	2.483192E-17	6.132836E-18
3.480000E+03	2.510661E-17	5.995846E-18
3.490000E+03	2.539414E-17	5.865110E-18
3.500000E+03	2.569123E-17	5.741281E-18
3.510000E+03	2.599618E-17	5.625664E-18
3.520000E+03	2.630882E-17	5.520135E-18
3.530000E+03	2.662694E-17	5.426317E-18
3.540000E+03	2.694811E-17	5.345948E-18
3.550000E+03	2.727162E-17	5.281154E-18
3.560000E+03	2.759312E-17	5.233281E-18
3.570000E+03	2.791201E-17	5.204174E-18
3.580000E+03	2.822615E-17	5.194986E-18
3.590000E+03	2.853568E-17	5.206712E-18
3.600000E+03	2.883617E-17	5.238800E-18
3.610000E+03	2.912922E-17	5.291042E-18
3.620000E+03	2.941716E-17	5.362643E-18
3.630000E+03	2.969948E-17	5.451726E-18
3.640000E+03	2.997789E-17	5.556406E-18
3.650000E+03	3.025614E-17	5.674926E-18
3.660000E+03	3.053493E-17	5.804862E-18
3.670000E+03	3.081683E-17	5.944151E-18
3.680000E+03	3.110452E-17	6.090864E-18
3.690000E+03	3.140234E-17	6.243573E-18
3.700000E+03	3.171142E-17	6.400434E-18
3.710000E+03	3.203451E-17	6.560140E-18
3.720000E+03	3.237430E-17	6.721600E-18
3.730000E+03	3.273496E-17	6.884248E-18
3.740000E+03	3.311449E-17	7.046420E-18
3.750000E+03	3.351996E-17	7.208539E-18
3.760000E+03	3.395076E-17	7.369556E-18
3.770000E+03	3.441070E-17	7.529501E-18
3.780000E+03	3.490045E-17	7.687845E-18
3.790000E+03	3.542350E-17	7.844770E-18
3.800000E+03	3.597876E-17	7.999530E-18
3.810000E+03	3.657073E-17	8.152695E-18
3.820000E+03	3.719639E-17	8.303226E-18
3.830000E+03	3.786109E-17	8.452008E-18
3.840000E+03	3.856261E-17	8.598294E-18
3.850000E+03	3.929975E-17	8.741629E-18
3.860000E+03	4.007522E-17	8.882474E-18
3.870000E+03	4.088546E-17	9.019971E-18
3.880000E+03	4.172932E-17	9.153854E-18
3.890000E+03	4.260653E-17	9.284120E-18
3.900000E+03	4.351344E-17	9.410092E-18
3.910000E+03	4.444440E-17	9.530748E-18
3.920000E+03	4.540051E-17	9.646580E-18
3.930000E+03	4.637372E-17	9.756193E-18
3.940000E+03	4.736137E-17	9.859404E-18
3.950000E+03	4.835757E-17	9.955405E-18
3.960000E+03	4.935913E-17	1.004398E-17
3.970000E+03	5.035832E-17	1.012403E-17
3.980000E+03	5.135180E-17	1.019534E-17
3.990000E+03	5.233339E-17	1.025716E-17
4.000000E+03	5.329864E-17	1.030904E-17
4.010000E+03	5.424196E-17	1.035030E-17
4.020000E+03	5.516118E-17	1.038087E-17
4.030000E+03	5.605032E-17	1.039992E-17
4.040000E+03	5.690848E-17	1.040751E-17
4.050000E+03	5.773261E-17	1.040324E-17
4.060000E+03	5.852198E-17	1.038703E-17
4.070000E+03	5.927670E-17	1.035890E-17
4.080000E+03	5.999638E-17	1.031868E-17
4.090000E+03	6.068441E-17	1.026675E-17
4.100000E+03	6.133928E-17	1.020257E-17
4.110000E+03	6.196892E-17	1.012710E-17
4.120000E+03	6.257337E-17	1.003986E-17
4.130000E+03	6.316043E-17	9.941575E-18
4.140000E+03	6.373267E-17	9.832004E-18
4.150000E+03	6.429718E-17	9.711557E-18
4.160000E+03	6.485841E-17	9.580154E-18
4.170000E+03	6.542073E-17	9.437667E-18
4.180000E+03	6.599240E-17	9.284493E-18
4.190000E+03	6.657710E-17	9.120342E-18
4.200000E+03	6.717783E-17	8.944876E-18
4.210000E+03	6.779951E-17	8.758079E-18
4.220000E+03	6.844331E-17	8.559550E-18
4.230000E+03	6.911056E-17	8.349105E-18
4.240000E+03	6.980260E-17	8.126813E-18
4.250000E+03	7.051527E-17	7.892453E-18
4.260000E+03	7.124824E-17	7.646734E-18
4.270000E+03	7.199687E-17	7.390475E-18
4.280000E+03	7.275228E-17	7.124818E-18
4.290000E+03	7.350942E-17	6.852203E-18
4.300000E+03	7.425922E-17	6.575667E-18
4.310000E+03	7.499022E-17	6.299139E-18
4.320000E+03	7.569165E-17	6.027739E-18
4.330000E+03	7.635392E-17	5.767746E-18
4.340000E+03	7.696661E-17	5.526287E-18
4.350000E+03	7.751922E-17	5.311113E-18
4.360000E+03	7.800729E-17	5.130475E-18
4.370000E+03	7.842410E-17	4.991621E-18
4.380000E+03	7.877116E-17	4.900153E-18
4.390000E+03	7.905326E-17	4.858081E-18
4.400000E+03	7.928624E-17	4.863231E-18
4.410000E+03	7.948761E-17	4.909083E-18
4.420000E+03	7.968226E-17	4.986934E-18
4.430000E+03	7.989768E-17	5.087608E-18
4.440000E+03	8.016223E-17	5.202781E-18
4.450000E+03	8.050394E-17	5.325647E-18
4.460000E+03	8.094822E-17	5.450999E-18
4.470000E+03	8.152079E-17	5.575344E-18
4.480000E+03	8.224198E-17	5.696292E-18
4.490000E+03	8.313111E-17	5.812584E-18
4.500000E+03	8.420230E-17	5.923565E-18
4.510000E+03	8.546283E-17	6.028845E-18
4.520000E+03	8.692022E-17	6.128628E-18
4.530000E+03	8.857319E-17	6.222909E-18
4.540000E+03	9.041630E-17	6.311627E-18
4.550000E+03	9.243836E-17	6.394372E-18
4.560000E+03	9.462218E-17	6.470162E-18
4.570000E+03	9.694303E-17	6.537140E-18
4.580000E+03	9.937131E-17	6.592598E-18
4.590000E+03	1.018716E-16	6.632816E-18
4.600000E+03	1.044018E-16	6.653040E-18
4.610000E+03	1.069188E-16	6.647971E-18
4.620000E+03	1.093740E-16	6.611816E-18
4.630000E+03	1.117197E-16	6.539187E-18
4.640000E+03	1.139085E-16	6.425785E-18
4.650000E+03	1.158995E-16	6.269780E-18
4.660000E+03	1.176527E-16	6.072753E-18
4.670000E+03	1.191412E-16	5.841831E-18
4.680000E+03	1.203401E-16	5.590649E-18
4.690000E+03	1.212373E-16	5.341080E-18
4.700000E+03	1.218263E-16	5.122469E-18
4.710000E+03	1.221116E-16	4.967724E-18
4.720000E+03	1.221075E-16	4.903635E-18
4.730000E+03	1.218402E-16	4.939174E-18
4.740000E+03	1.213412E-16	5.061345E-18
4.750000E+03	1.206530E-16	5.243642E-18
4.760000E+03	1.198182E-16	5.457411E-18
4.770000E+03	1.188807E-16	5.679260E-18
4.780000E+03	1.178827E-16	5.893070E-18
4.790000E+03	1.168632E-16	6.089236E-18
4.800000E+03	1.158561E-16	6.262921E-18
4.810000E+03	1.148947E-16	6.412631E-18
4.820000E+03	1.140061E-16	6.538661E-18
4.830000E+03	1.132168E-16	6.642552E-18
4.840000E+03	1.125489E-16	6.726393E-18
4.850000E+03	1.120207E-16	6.792638E-18
4.860000E+03	1.116482E-16	6.844074E-18
4.870000E+03	1.114397E-16	6.883422E-18
4.880000E+03	1.114041E-16	6.913814E-18
4.890000E+03	1.115437E-16	6.938214E-18
4.900000E+03	1.118552E-16	6.959374E-18
4.910000E+03	1.123335E-16	6.979951E-18
4.920000E+03	1.129673E-16	7.002161E-18
4.930000E+03	1.137415E-16	7.027847E-18
4.940000E+03	1.146324E-16	7.058167E-18
4.950000E+03	1.156100E-16	7.093766E-18
4.960000E+03	1.166381E-16	7.134730E-18
4.970000E+03	1.176708E-16	7.180430E-18
4.980000E+03	1.186542E-16	7.229562E-18
4.990000E+03	1.195336E-16	7.280565E-18
5.000000E+03	1.202496E-16	7.331271E-18
5.010000E+03	1.207479E-16	7.379370E-18
5.020000E+03	1.209850E-16	7.422545E-18
5.030000E+03	1.209304E-16	7.458410E-18
5.040000E+03	1.205713E-16	7.484596E-18
5.050000E+03	1.199180E-16	7.499108E-18
5.060000E+03	1.190004E-16	7.500251E-18
5.070000E+03	1.178672E-16	7.487036E-18
5.080000E+03	1.165775E-16	7.459190E-18
5.090000E+03	1.151994E-16	7.417599E-18
5.100000E+03	1.138042E-16	7.364386E-18
5.110000E+03	1.124586E-16	7.302584E-18
5.120000E+03	1.112271E-16	7.236304E-18
5.130000E+03	1.101613E-16	7.169836E-18
5.140000E+03	1.093076E-16	7.107791E-18
5.150000E+03	1.087015E-16	7.054378E-18
5.160000E+03	1.083711E-16	7.013230E-18
5.170000E+03	1.083337E-16	6.986954E-18
5.180000E+03	1.086009E-16	6.977299E-18
5.190000E+03	1.091781E-16	6.985168E-18
5.200000E+03	1.100678E-16	7.010954E-18
5.210000E+03	1.112621E-16	7.054238E-18
5.220000E+03	1.127544E-16	7.114689E-18
5.230000E+03	1.145316E-16	7.191633E-18
5.240000E+03	1.165765E-16	7.284208E-18
5.250000E+03	1.188675E-16	7.391270E-18
5.260000E+03	1.213775E-16	7.511137E-18
5.270000E+03	1.240775E-16	7.641563E-18
5.280000E+03	1.269328E-16	7.779208E-18
5.290000E+03	1.299027E-16	7.919410E-18
5.300000E+03	1.329463E-16	8.056449E-18
5.310000E+03	1.360144E-16	8.183263E-18
5.320000E+03	1.390544E-16	8.292119E-18
5.330000E+03	1.420159E-16	8.375434E-18
5.340000E+03	1.448422E-16	8.425750E-18
5.350000E+03	1.474835E-16	8.436787E-18
5.360000E+03	1.498949E-16	8.403484E-18
5.370000E+03	1.520353E-16	8.321846E-18
5.380000E+03	1.538798E-16	8.189426E-18
5.390000E+03	1.554179E-16	8.004970E-18
5.400000E+03	1.566517E-16	7.768156E-18
5.410000E+03	1.576061E-16	7.480254E-18
5.420000E+03	1.583236E-16	7.144292E-18
5.430000E+03	1.588657E-16	6.766213E-18
5.440000E+03	1.593043E-16	6.356309E-18
5.450000E+03	1.597278E-16	5.932360E-18
5.460000E+03	1.602242E-16	5.522719E-18
5.470000E+03	1.608811E-16	5.169858E-18
5.480000E+03	1.617695E-16	4.928540E-18
5.490000E+03	1.629355E-16	4.851832E-18
5.500000E+03	1.643863E-16	4.964767E-18
5.510000E+03	1.660813E-16	5.248582E-18
5.520000E+03	1.679414E-16	5.654226E-18
5.530000E+03	1.698623E-16	6.127139E-18
5.540000E+03	1.717339E-16	6.621862E-18
5.550000E+03	1.734459E-16	7.104887E-18
5.560000E+03	1.749078E-16	7.553528E-18
5.570000E+03	1.760399E-16	7.953030E-18
5.580000E+03	1.767962E-16	8.295688E-18
5.590000E+03	1.771501E-16	8.578942E-18
5.600000E+03	1.771074E-16	8.805091E-18
5.610000E+03	1.766819E-16	8.979360E-18
5.620000E+03	1.759077E-16	9.109737E-18
5.630000E+03	1.748207E-16	9.205189E-18
5.640000E+03	1.734525E-16	9.274476E-18
5.650000E+03	1.718366E-16	9.325673E-18
5.660000E+03	1.699971E-16	9.364923E-18
5.670000E+03	1.679513E-16	9.396202E-18
5.680000E+03	1.657162E-16	9.421541E-18
5.690000E+03	1.633124E-16	9.441277E-18
5.700000E+03	1.607643E-16	9.454245E-18
5.710000E+03	1.581034E-16	9.458188E-18
5.720000E+03	1.553732E-16	9.450353E-18
5.730000E+03	1.526291E-16	9.427902E-18
5.740000E+03	1.499342E-16	9.388161E-18
5.750000E+03	1.473573E-16	9.329111E-18
5.760000E+03	1.449744E-16	9.250166E-18
5.770000E+03	1.428618E-16	9.152334E-18
5.780000E+03	1.410933E-16	9.038503E-18
5.790000E+03	1.397420E-16	8.913695E-18
5.800000E+03	1.388786E-16	8.784938E-18
5.810000E+03	1.385667E-16	8.660713E-18
5.820000E+03	1.388668E-16	8.550838E-18
5.830000E+03	1.398306E-16	8.465562E-18
5.840000E+03	1.414974E-16	8.414710E-18
5.850000E+03	1.438919E-16	8.406838E-18
5.860000E+03	1.470175E-16	8.448151E-18
5.870000E+03	1.508498E-16	8.541718E-18
5.880000E+03	1.553329E-16	8.687121E-18
5.890000E+03	1.603716E-16	8.880085E-18
5.900000E+03	1.658340E-16	9.112762E-18
5.910000E+03	1.715602E-16	9.374297E-18
5.920000E+03	1.773596E-16	9.650727E-18
5.930000E+03	1.830334E-16	9.926476E-18
5.940000E+03	1.883811E-16	1.018527E-17
5.950000E+03	1.932123E-16	1.041151E-17
5.960000E+03	1.973697E-16	1.059235E-17
5.970000E+03	2.007278E-16	1.071809E-17
5.980000E+03	2.031987E-16	1.078275E-17
5.990000E+03	2.047426E-16	1.078448E-17
6.000000E+03	2.053666E-16	1.072514E-17
6.010000E+03	2.051078E-16	1.060878E-17
6.020000E+03	2.040457E-16	1.044167E-17
6.030000E+03	2.022865E-16	1.023061E-17
6.040000E+03	1.999564E-16	9.981971E-18
6.050000E+03	1.971977E-16	9.700964E-18
6.060000E+03	1.941589E-16	9.390983E-18
6.070000E+03	1.909818E-16	9.053271E-18
6.080000E+03	1.878034E-16	8.687673E-18
6.090000E+03	1.847377E-16	8.292832E-18
6.100000E+03	1.818827E-16	7.867633E-18
6.110000E+03	1.793046E-16	7.411544E-18
6.120000E+03	1.770512E-16	6.926034E-18
6.130000E+03	1.751478E-16	6.415555E-18
6.140000E+03	1.735969E-16	5.889629E-18
6.150000E+03	1.723925E-16	5.367179E-18
6.160000E+03	1.715236E-16	4.882221E-18
6.170000E+03	1.709708E-16	4.488910E-18
6.180000E+03	1.707165E-16	4.257498E-18
6.190000E+03	1.707427E-16	4.246442E-18
6.200000E+03	1.710291E-16	4.461119E-18
6.210000E+03	1.715492E-16	4.847731E-18
6.220000E+03	1.722723E-16	5.331440E-18
6.230000E+03	1.731436E-16	5.849521E-18
6.240000E+03	1.740978E-16	6.360434E-18
6.250000E+03	1.750574E-16	6.839735E-18
6.260000E+03	1.759343E-16	7.274104E-18
6.270000E+03	1.766424E-16	7.657084E-18
6.280000E+03	1.771052E-16	7.986194E-18
6.290000E+03	1.772575E-16	8.260953E-18
6.300000E+03	1.770551E-16	8.482096E-18
6.310000E+03	1.764821E-16	8.651401E-18
6.320000E+03	1.755455E-16	8.771385E-18
6.330000E+03	1.742791E-16	8.845822E-18
6.340000E+03	1.727349E-16	8.879719E-18
6.350000E+03	1.709875E-16	8.879815E-18
6.360000E+03	1.691185E-16	8.853888E-18
6.370000E+03	1.672166E-16	8.810496E-18
6.380000E+03	1.653654E-16	8.758017E-18
6.390000E+03	1.636465E-16	8.704398E-18
6.400000E+03	1.621240E-16	8.656027E-18
6.410000E+03	1.608517E-16	8.617946E-18
6.420000E+03	1.598609E-16	8.593268E-18
6.430000E+03	1.591695E-16	8.583796E-18
6.440000E+03	1.587793E-16	8.590060E-18
6.450000E+03	1.586845E-16	8.611953E-18
6.460000E+03	1.588656E-16	8.648533E-18
6.470000E+03	1.593078E-16	8.699031E-18
6.480000E+03	1.599936E-16	8.762493E-18
6.490000E+03	1.609085E-16	8.838054E-18
6.500000E+03	1.620405E-16	8.924953E-18
6.510000E+03	1.633825E-16	9.022664E-18
6.520000E+03	1.649176E-16	9.130188E-18
6.530000E+03	1.666276E-16	9.246535E-18
6.540000E+03	1.684823E-16	9.370146E-18
6.550000E+03	1.704387E-16	9.498891E-18
6.560000E+03	1.724411E-16	9.630165E-18
6.570000E+03	1.744254E-16	9.761313E-18
6.580000E+03	1.763170E-16	9.889572E-18
6.590000E+03	1.780485E-16	1.001293E-17
6.600000E+03	1.795604E-16	1.012970E-17
6.610000E+03	1.808021E-16	1.023795E-17
6.620000E+03	1.817403E-16	1.033539E-17
6.630000E+03	1.823581E-16	1.041925E-17
6.640000E+03	1.826486E-16	1.048617E-17
6.650000E+03	1.826111E-16	1.053259E-17
6.660000E+03	1.822576E-16	1.055578E-17
6.670000E+03	1.815962E-16	1.055346E-17
6.680000E+03	1.806481E-16	1.052521E-17
6.690000E+03	1.794327E-16	1.047187E-17
6.700000E+03	1.779793E-16	1.039608E-17
6.710000E+03	1.763181E-16	1.030157E-17
6.720000E+03	1.744902E-16	1.019326E-17
6.730000E+03	1.725326E-16	1.007580E-17
6.740000E+03	1.704927E-16	9.953976E-18
6.750000E+03	1.684122E-16	9.831410E-18
6.760000E+03	1.663358E-16	9.710946E-18
6.770000E+03	1.642999E-16	9.594248E-18
6.780000E+03	1.623389E-16	9.482530E-18
6.790000E+03	1.604741E-16	9.376409E-18
6.800000E+03	1.587220E-16	9.276658E-18
6.810000E+03	1.570820E-16	9.183503E-18
6.820000E+03	1.555444E-16	9.096912E-18
6.830000E+03	1.540905E-16	9.016314E-18
6.840000E+03	1.526968E-16	8.940659E-18
6.850000E+03	1.513336E-16	8.868169E-18
6.860000E+03	1.499739E-16	8.796864E-18
6.870000E+03	1.485991E-16	8.724934E-18
6.880000E+03	1.471893E-16	8.650277E-18
6.890000E+03	1.457454E-16	8.571968E-18
6.900000E+03	1.442706E-16	8.489335E-18
6.910000E+03	1.427848E-16	8.402991E-18
6.920000E+03	1.413165E-16	8.314470E-18
6.930000E+03	1.399027E-16	8.226252E-18
6.940000E+03	1.385859E-16	8.141548E-18
6.950000E+03	1.374088E-16	8.063855E-18
6.960000E+03	1.364171E-16	7.996939E-18
6.970000E+03	1.356432E-16	7.943680E-18
6.980000E+03	1.351139E-16	7.906381E-18
6.990000E+03	1.348400E-16	7.886070E-18
7.000000E+03	1.348164E-16	7.882473E-18
7.010000E+03	1.350199E-16	7.893965E-18
7.020000E+03	1.354159E-16	7.918122E-18
7.030000E+03	1.359570E-16	7.951756E-18
7.040000E+03	1.365876E-16	7.991221E-18
7.050000E+03	1.372536E-16	8.032948E-18
7.060000E+03	1.379025E-16	8.073331E-18
7.070000E+03	1.384856E-16	8.108846E-18
7.080000E+03	1.389714E-16	8.136981E-18
7.090000E+03	1.393354E-16	8.155836E-18
7.100000E+03	1.395673E-16	8.164741E-18
7.110000E+03	1.396683E-16	8.164152E-18
7.120000E+03	1.396474E-16	8.155343E-18
7.130000E+03	1.395235E-16	8.140420E-18
7.140000E+03	1.393167E-16	8.121698E-18
7.150000E+03	1.390455E-16	8.101443E-18
7.160000E+03	1.387263E-16	8.081833E-18
7.170000E+03	1.383777E-16	8.065131E-18
7.180000E+03	1.380148E-16	8.053457E-18
7.190000E+03	1.376522E-16	8.048977E-18
7.200000E+03	1.373089E-16	8.054357E-18
7.210000E+03	1.370075E-16	8.072835E-18
7.220000E+03	1.367730E-16	8.108050E-18
7.230000E+03	1.366364E-16	8.163974E-18
7.240000E+03	1.366238E-16	8.243727E-18
7.250000E+03	1.367620E-16	8.349301E-18
7.260000E+03	1.370725E-16	8.480616E-18
7.270000E+03	1.375693E-16	8.635006E-18
7.280000E+03	1.382537E-16	8.806807E-18
7.290000E+03	1.391256E-16	8.988201E-18
7.300000E+03	1.401674E-16	9.168672E-18
7.310000E+03	1.413617E-16	9.336733E-18
7.320000E+03	1.426810E-16	9.480042E-18
7.330000E+03	1.440926E-16	9.586442E-18
7.340000E+03	1.455606E-16	9.644839E-18
7.350000E+03	1.470432E-16	9.645590E-18
7.360000E+03	1.484964E-16	9.581237E-18
7.370000E+03	1.498717E-16	9.446588E-18
7.380000E+03	1.511185E-16	9.239000E-18
7.390000E+03	1.521863E-16	8.958318E-18
7.400000E+03	1.530285E-16	8.606739E-18
7.410000E+03	1.536031E-16	8.188290E-18
7.420000E+03	1.538710E-16	7.708284E-18
7.430000E+03	1.538056E-16	7.173713E-18
7.440000E+03	1.533896E-16	6.593435E-18
7.450000E+03	1.526155E-16	5.979244E-18
7.460000E+03	1.514879E-16	5.347865E-18
7.470000E+03	1.500205E-16	4.724104E-18
7.480000E+03	1.482372E-16	4.146209E-18
7.490000E+03	1.461736E-16	3.671732E-18
7.500000E+03	1.438614E-16	3.373721E-18
7.510000E+03	1.413200E-16	3.308893E-18
7.520000E+03	1.385487E-16	3.469221E-18
7.530000E+03	1.355213E-16	3.782081E-18
7.540000E+03	1.322067E-16	4.161776E-18
7.550000E+03	1.285889E-16	4.544468E-18
7.560000E+03	1.246758E-16	4.891600E-18
7.570000E+03	1.205087E-16	5.183077E-18
7.580000E+03	1.161516E-16	5.410521E-18
7.590000E+03	1.116994E-16	5.573893E-18
7.600000E+03	1.072546E-16	5.678381E-18
7.610000E+03	1.029256E-16	5.733006E-18
7.620000E+03	9.881809E-17	5.749207E-18
7.630000E+03	9.502522E-17	5.739389E-18
7.640000E+03	9.163185E-17	5.716376E-18
7.650000E+03	8.870036E-17	5.691845E-18
7.660000E+03	8.628489E-17	5.676624E-18
7.670000E+03	8.442433E-17	5.679860E-18
7.680000E+03	8.313984E-17	5.708571E-18
7.690000E+03	8.244727E-17	5.768353E-18
7.700000E+03	8.234701E-17	5.862687E-18
7.710000E+03	8.282533E-17	5.993102E-18
7.720000E+03	8.385996E-17	6.159711E-18
7.730000E+03	8.541613E-17	6.361120E-18
7.740000E+03	8.744366E-17	6.594413E-18
7.750000E+03	8.988021E-17	6.855562E-18
7.760000E+03	9.265037E-17	7.139487E-18
