#wls	flux	fluxerr
1.568627E+03	4.841117E-18	7.842729E-20
1.607843E+03	4.978409E-18	8.057232E-20
1.647059E+03	5.114299E-18	8.268846E-20
1.686275E+03	5.249177E-18	8.478190E-20
1.725490E+03	5.380861E-18	8.681731E-20
1.764706E+03	5.508664E-18	8.878363E-20
1.803922E+03	5.627382E-18	9.059709E-20
1.843137E+03	5.733183E-18	9.219640E-20
1.882353E+03	5.820459E-18	9.349201E-20
1.921569E+03	5.883162E-18	9.438781E-20
1.960784E+03	5.920614E-18	9.487424E-20
2.000000E+03	5.939179E-18	9.505453E-20
2.039216E+03	5.959134E-18	9.525389E-20
2.078431E+03	6.015255E-18	9.602734E-20
2.117647E+03	6.146470E-18	9.799320E-20
2.156863E+03	6.378396E-18	1.015544E-19
2.196078E+03	6.711814E-18	1.067166E-19
2.235294E+03	7.126622E-18	1.131537E-19
2.274510E+03	7.595587E-18	1.204277E-19
2.313725E+03	8.097799E-18	1.282035E-19
2.352941E+03	8.619172E-18	1.362553E-19
2.392157E+03	9.153942E-18	1.444901E-19
2.431373E+03	9.700293E-18	1.528778E-19
2.470588E+03	1.026094E-17	1.614595E-19
2.509804E+03	1.083918E-17	1.702852E-19
2.549020E+03	1.144010E-17	1.794325E-19
2.588235E+03	1.206775E-17	1.889627E-19
2.627451E+03	1.272630E-17	1.989379E-19
2.666667E+03	1.341992E-17	2.094198E-19
2.705882E+03	1.415145E-17	2.204493E-19
2.745098E+03	1.492381E-17	2.320675E-19
2.784314E+03	1.573956E-17	2.443105E-19
2.823529E+03	1.660237E-17	2.572300E-19
2.862745E+03	1.751787E-17	2.709084E-19
2.901961E+03	1.849367E-17	2.854578E-19
2.941176E+03	1.954022E-17	3.010328E-19
2.950980E+03	1.981431E-17	3.051074E-19
2.960784E+03	2.009337E-17	3.092541E-19
2.970588E+03	2.037838E-17	3.134876E-19
2.980392E+03	2.066859E-17	3.177964E-19
2.990196E+03	2.096538E-17	3.222015E-19
3.000000E+03	2.126929E-17	3.267109E-19
3.009804E+03	2.158066E-17	3.313300E-19
3.019608E+03	2.189854E-17	3.360436E-19
3.029412E+03	2.222421E-17	3.408715E-19
3.039216E+03	2.255679E-17	3.457998E-19
3.049020E+03	2.289736E-17	3.508449E-19
3.058824E+03	2.324621E-17	3.560113E-19
3.068627E+03	2.360277E-17	3.612898E-19
3.078431E+03	2.396781E-17	3.666921E-19
3.088235E+03	2.434076E-17	3.722090E-19
3.098039E+03	2.472192E-17	3.778453E-19
3.107843E+03	2.511116E-17	3.835987E-19
3.117647E+03	2.550836E-17	3.894669E-19
3.127451E+03	2.591381E-17	3.954544E-19
3.137255E+03	2.632738E-17	4.015589E-19
3.147059E+03	2.674842E-17	4.077703E-19
3.156863E+03	2.717769E-17	4.141000E-19
3.166667E+03	2.761453E-17	4.205378E-19
3.176471E+03	2.805920E-17	4.270872E-19
3.186275E+03	2.851146E-17	4.337446E-19
3.196078E+03	2.897060E-17	4.404990E-19
3.205882E+03	2.943728E-17	4.473602E-19
3.215686E+03	2.991027E-17	4.543093E-19
3.225490E+03	3.039018E-17	4.613554E-19
3.235294E+03	3.087666E-17	4.684930E-19
3.245098E+03	3.136840E-17	4.757022E-19
3.254902E+03	3.186594E-17	4.829908E-19
3.264706E+03	3.236886E-17	4.903524E-19
3.274510E+03	3.287622E-17	4.977727E-19
3.284314E+03	3.338758E-17	5.052449E-19
3.294118E+03	3.390244E-17	5.127614E-19
3.303922E+03	3.442034E-17	5.203149E-19
3.313725E+03	3.494079E-17	5.278981E-19
3.323529E+03	3.546334E-17	5.355041E-19
3.333333E+03	3.598709E-17	5.431192E-19
3.343137E+03	3.651120E-17	5.507309E-19
3.352941E+03	3.703632E-17	5.583488E-19
3.362745E+03	3.756085E-17	5.659488E-19
3.372549E+03	3.808522E-17	5.735373E-19
3.382353E+03	3.860907E-17	5.811092E-19
3.392157E+03	3.913275E-17	5.886693E-19
3.401961E+03	3.965591E-17	5.962128E-19
3.411765E+03	4.017899E-17	6.037460E-19
3.421569E+03	4.070325E-17	6.112879E-19
3.431373E+03	4.122938E-17	6.188491E-19
3.441176E+03	4.175947E-17	6.264606E-19
3.450980E+03	4.229417E-17	6.341321E-19
3.460784E+03	4.283643E-17	6.419078E-19
3.470588E+03	4.338819E-17	6.498166E-19
3.480392E+03	4.395216E-17	6.578988E-19
3.490196E+03	4.453121E-17	6.661969E-19
3.500000E+03	4.512720E-17	6.747385E-19
3.509804E+03	4.574354E-17	6.835742E-19
3.519608E+03	4.638170E-17	6.927253E-19
3.529412E+03	4.704242E-17	7.022023E-19
3.539216E+03	4.772696E-17	7.120238E-19
3.549020E+03	4.843395E-17	7.221684E-19
3.558824E+03	4.916225E-17	7.326187E-19
3.568627E+03	4.991027E-17	7.433505E-19
3.578431E+03	5.067613E-17	7.543355E-19
3.588235E+03	5.145793E-17	7.655450E-19
3.598039E+03	5.225387E-17	7.769516E-19
3.607843E+03	5.306285E-17	7.885388E-19
3.617647E+03	5.388409E-17	8.002947E-19
3.627451E+03	5.471669E-17	8.122058E-19
3.637255E+03	5.556212E-17	8.242935E-19
3.647059E+03	5.641981E-17	8.365490E-19
3.656863E+03	5.729152E-17	8.489985E-19
3.666667E+03	5.817846E-17	8.616592E-19
3.676471E+03	5.908268E-17	8.745613E-19
3.686275E+03	6.000758E-17	8.877549E-19
3.696078E+03	6.095438E-17	9.012571E-19
3.705882E+03	6.192705E-17	9.151266E-19
3.715686E+03	6.292942E-17	9.294189E-19
3.725490E+03	6.396371E-17	9.441666E-19
3.735294E+03	6.503466E-17	9.594385E-19
3.745098E+03	6.614617E-17	9.752916E-19
3.754902E+03	6.730121E-17	9.917683E-19
3.764706E+03	6.850290E-17	1.008914E-18
3.774510E+03	6.975537E-17	1.026788E-18
3.784314E+03	7.105925E-17	1.045399E-18
3.794118E+03	7.241622E-17	1.064771E-18
3.803922E+03	7.382496E-17	1.084881E-18
3.813725E+03	7.528287E-17	1.105693E-18
3.823529E+03	7.678456E-17	1.127124E-18
3.833333E+03	7.832055E-17	1.149035E-18
3.843137E+03	7.987908E-17	1.171253E-18
3.852941E+03	8.144559E-17	1.193565E-18
3.862745E+03	8.300070E-17	1.215686E-18
3.872549E+03	8.452167E-17	1.237283E-18
3.882353E+03	8.598377E-17	1.257997E-18
3.892157E+03	8.735976E-17	1.277430E-18
3.901961E+03	8.862233E-17	1.295185E-18
3.911765E+03	8.974509E-17	1.310880E-18
3.921569E+03	9.070412E-17	1.324169E-18
3.931373E+03	9.147800E-17	1.334743E-18
3.941176E+03	9.205226E-17	1.342397E-18
3.950980E+03	9.241888E-17	1.347017E-18
3.960784E+03	9.257699E-17	1.348597E-18
3.970588E+03	9.253188E-17	1.347218E-18
3.980392E+03	9.229515E-17	1.343055E-18
3.990196E+03	9.188440E-17	1.336366E-18
4.000000E+03	9.132053E-17	1.327461E-18
4.009804E+03	9.062772E-17	1.316695E-18
4.019608E+03	8.983085E-17	1.304431E-18
4.029412E+03	8.895548E-17	1.291042E-18
4.039216E+03	8.802576E-17	1.276882E-18
4.049020E+03	8.706421E-17	1.262277E-18
4.058824E+03	8.609174E-17	1.247532E-18
4.068627E+03	8.512632E-17	1.232907E-18
4.078431E+03	8.418390E-17	1.218632E-18
4.088235E+03	8.327651E-17	1.204881E-18
4.098039E+03	8.241507E-17	1.191812E-18
4.107843E+03	8.160681E-17	1.179527E-18
4.117647E+03	8.085870E-17	1.168126E-18
4.127451E+03	8.017397E-17	1.157655E-18
4.137255E+03	7.955510E-17	1.148148E-18
4.147059E+03	7.900121E-17	1.139591E-18
4.156863E+03	7.851250E-17	1.131985E-18
4.166667E+03	7.808542E-17	1.125277E-18
4.176471E+03	7.771780E-17	1.119436E-18
4.186275E+03	7.740396E-17	1.114378E-18
4.196078E+03	7.713840E-17	1.110023E-18
4.205882E+03	7.691648E-17	1.106304E-18
4.215686E+03	7.673042E-17	1.103107E-18
4.225490E+03	7.657480E-17	1.100354E-18
4.235294E+03	7.644122E-17	1.097924E-18
4.245098E+03	7.632406E-17	1.095735E-18
4.254902E+03	7.621611E-17	1.093685E-18
4.264706E+03	7.611037E-17	1.091672E-18
4.274510E+03	7.600169E-17	1.089623E-18
4.284314E+03	7.588574E-17	1.087476E-18
4.294118E+03	7.576223E-17	1.085226E-18
4.303922E+03	7.563436E-17	1.082920E-18
4.313725E+03	7.550778E-17	1.080639E-18
4.323529E+03	7.538680E-17	1.078444E-18
4.333333E+03	7.528047E-17	1.076464E-18
4.343137E+03	7.519974E-17	1.074856E-18
4.352941E+03	7.515604E-17	1.073783E-18
4.362745E+03	7.515885E-17	1.073379E-18
4.372549E+03	7.521746E-17	1.073776E-18
4.382353E+03	7.533874E-17	1.075071E-18
4.392157E+03	7.552783E-17	1.077336E-18
4.401961E+03	7.578676E-17	1.080600E-18
4.411765E+03	7.611601E-17	1.084868E-18
4.421569E+03	7.651268E-17	1.090097E-18
4.431373E+03	7.697242E-17	1.096225E-18
4.441176E+03	7.748623E-17	1.103122E-18
4.450980E+03	7.804342E-17	1.110636E-18
4.460784E+03	7.863075E-17	1.118577E-18
4.470588E+03	7.923091E-17	1.126700E-18
4.480392E+03	7.982665E-17	1.134759E-18
4.490196E+03	8.039715E-17	1.142457E-18
4.500000E+03	8.092198E-17	1.149506E-18
4.509804E+03	8.137921E-17	1.155596E-18
4.519608E+03	8.175011E-17	1.160460E-18
4.529412E+03	8.201624E-17	1.163839E-18
4.539216E+03	8.216128E-17	1.165503E-18
4.549020E+03	8.217409E-17	1.165296E-18
4.558824E+03	8.204779E-17	1.163122E-18
4.568627E+03	8.177979E-17	1.158946E-18
4.578431E+03	8.137166E-17	1.152793E-18
4.588235E+03	8.083285E-17	1.144798E-18
4.598039E+03	8.017602E-17	1.135142E-18
4.607843E+03	7.941634E-17	1.124042E-18
4.617647E+03	7.857394E-17	1.111783E-18
4.627451E+03	7.767120E-17	1.098682E-18
4.637255E+03	7.672365E-17	1.084961E-18
4.647059E+03	7.573745E-17	1.070707E-18
4.656863E+03	7.471809E-17	1.055996E-18
4.666667E+03	7.367478E-17	1.040961E-18
4.676471E+03	7.261830E-17	1.025752E-18
4.686275E+03	7.156032E-17	1.010535E-18
4.696078E+03	7.051506E-17	9.955104E-19
4.705882E+03	6.949579E-17	9.808649E-19
4.715686E+03	6.851653E-17	9.667959E-19
4.725490E+03	6.758922E-17	9.534713E-19
4.735294E+03	6.672496E-17	9.410469E-19
4.745098E+03	6.593294E-17	9.296511E-19
4.754902E+03	6.522101E-17	9.193940E-19
4.764706E+03	6.459371E-17	9.103386E-19
4.774510E+03	6.405416E-17	9.025279E-19
4.784314E+03	6.360297E-17	8.959694E-19
4.794118E+03	6.324072E-17	8.906703E-19
4.803922E+03	6.296457E-17	8.865898E-19
4.813725E+03	6.277079E-17	8.836747E-19
4.823529E+03	6.265375E-17	8.818447E-19
4.833333E+03	6.260781E-17	8.810199E-19
4.843137E+03	6.262521E-17	8.810905E-19
4.852941E+03	6.269805E-17	8.819447E-19
4.862745E+03	6.281852E-17	8.834724E-19
4.872549E+03	6.297749E-17	8.855449E-19
4.882353E+03	6.316665E-17	8.880448E-19
4.892157E+03	6.337769E-17	8.908554E-19
4.901961E+03	6.360461E-17	8.938921E-19
4.911765E+03	6.384227E-17	8.970827E-19
4.921569E+03	6.408671E-17	9.003713E-19
4.931373E+03	6.433655E-17	9.037388E-19
4.941176E+03	6.459238E-17	9.071935E-19
4.950980E+03	6.485596E-17	9.107598E-19
4.960784E+03	6.513176E-17	9.145008E-19
4.970588E+03	6.542470E-17	9.184854E-19
4.980392E+03	6.573912E-17	9.227745E-19
4.990196E+03	6.608149E-17	9.274588E-19
5.000000E+03	6.645759E-17	9.326194E-19
5.009804E+03	6.687209E-17	9.383217E-19
5.019608E+03	6.732963E-17	9.446308E-19
5.029412E+03	6.783397E-17	9.515992E-19
5.039216E+03	6.838774E-17	9.592637E-19
5.049020E+03	6.899191E-17	9.676377E-19
5.058824E+03	6.964743E-17	9.767345E-19
5.068627E+03	7.035219E-17	9.865246E-19
5.078431E+03	7.110497E-17	9.969905E-19
5.088235E+03	7.190174E-17	1.008076E-18
5.098039E+03	7.273821E-17	1.019721E-18
5.107843E+03	7.360857E-17	1.031844E-18
5.117647E+03	7.450546E-17	1.044341E-18
5.127451E+03	7.541861E-17	1.057070E-18
5.137255E+03	7.633858E-17	1.069897E-18
5.147059E+03	7.725209E-17	1.082637E-18
5.156863E+03	7.814460E-17	1.095087E-18
5.166667E+03	7.899911E-17	1.107008E-18
5.176471E+03	7.979783E-17	1.118152E-18
5.186275E+03	8.052199E-17	1.128255E-18
5.196078E+03	8.115225E-17	1.137047E-18
5.205882E+03	8.166986E-17	1.144266E-18
5.215686E+03	8.205643E-17	1.149653E-18
5.225490E+03	8.229834E-17	1.153020E-18
5.235294E+03	8.238203E-17	1.154175E-18
5.245098E+03	8.229987E-17	1.153012E-18
5.254902E+03	8.205057E-17	1.149514E-18
5.264706E+03	8.163497E-17	1.143691E-18
5.274510E+03	8.106262E-17	1.135678E-18
5.284314E+03	8.034575E-17	1.125645E-18
5.294118E+03	7.950292E-17	1.113853E-18
5.303922E+03	7.855531E-17	1.100598E-18
5.313725E+03	7.752956E-17	1.086253E-18
5.323529E+03	7.645209E-17	1.071187E-18
5.333333E+03	7.535241E-17	1.055814E-18
5.343137E+03	7.425791E-17	1.040517E-18
5.352941E+03	7.319752E-17	1.025702E-18
5.362745E+03	7.219730E-17	1.011733E-18
5.372549E+03	7.128110E-17	9.989449E-19
5.382353E+03	7.047205E-17	9.876612E-19
5.392157E+03	6.978057E-17	9.780282E-19
5.401961E+03	6.919131E-17	9.698311E-19
5.411765E+03	6.868503E-17	9.628000E-19
5.421569E+03	6.824086E-17	9.566426E-19
5.431373E+03	6.784007E-17	9.510962E-19
5.441176E+03	6.746172E-17	9.458676E-19
5.450980E+03	6.708956E-17	9.407285E-19
5.460784E+03	6.670704E-17	9.354468E-19
5.470588E+03	6.630004E-17	9.298245E-19
5.480392E+03	6.585793E-17	9.237123E-19
5.490196E+03	6.537330E-17	9.170058E-19
5.500000E+03	6.484138E-17	9.096380E-19
5.509804E+03	6.426279E-17	9.016173E-19
5.519608E+03	6.363880E-17	8.929609E-19
5.529412E+03	6.297633E-17	8.837658E-19
5.539216E+03	6.228238E-17	8.741298E-19
5.549020E+03	6.156887E-17	8.642200E-19
5.558824E+03	6.084816E-17	8.542097E-19
5.568627E+03	6.013337E-17	8.442828E-19
5.578431E+03	5.943963E-17	8.346519E-19
5.588235E+03	5.878177E-17	8.255249E-19
5.598039E+03	5.817504E-17	8.171163E-19
5.607843E+03	5.763339E-17	8.096223E-19
5.617647E+03	5.716917E-17	8.032165E-19
5.627451E+03	5.679504E-17	7.980775E-19
5.637255E+03	5.652066E-17	7.943411E-19
5.647059E+03	5.635298E-17	7.921060E-19
5.656863E+03	5.629782E-17	7.914544E-19
5.666667E+03	5.635847E-17	7.924332E-19
5.676471E+03	5.653502E-17	7.950447E-19
5.686275E+03	5.682436E-17	7.992457E-19
5.696078E+03	5.722205E-17	8.049746E-19
5.705882E+03	5.772129E-17	8.121367E-19
5.715686E+03	5.831252E-17	8.205980E-19
5.725490E+03	5.898362E-17	8.301888E-19
5.735294E+03	5.972201E-17	8.407325E-19
5.745098E+03	6.051307E-17	8.520240E-19
5.754902E+03	6.134166E-17	8.638504E-19
5.764706E+03	6.219108E-17	8.759770E-19
5.774510E+03	6.304329E-17	8.881498E-19
5.784314E+03	6.388136E-17	9.001305E-19
5.794118E+03	6.468709E-17	9.116623E-19
5.803922E+03	6.544574E-17	9.225375E-19
5.813725E+03	6.613940E-17	9.325030E-19
5.823529E+03	6.675462E-17	9.413688E-19
5.833333E+03	6.728014E-17	9.489754E-19
5.843137E+03	6.770561E-17	9.551761E-19
5.852941E+03	6.802410E-17	9.598722E-19
5.862745E+03	6.823211E-17	9.630134E-19
5.872549E+03	6.832713E-17	9.645633E-19
5.882353E+03	6.831057E-17	9.645406E-19
5.892157E+03	6.818350E-17	9.629595E-19
5.901961E+03	6.795192E-17	9.599038E-19
5.911765E+03	6.762012E-17	9.554330E-19
5.921569E+03	6.719671E-17	9.496676E-19
5.931373E+03	6.668720E-17	9.426847E-19
5.941176E+03	6.610163E-17	9.346255E-19
5.950980E+03	6.544801E-17	9.256021E-19
5.960784E+03	6.473518E-17	9.157391E-19
5.970588E+03	6.397034E-17	9.051376E-19
5.980392E+03	6.316347E-17	8.939382E-19
5.990196E+03	6.232033E-17	8.822220E-19
6.000000E+03	6.145009E-17	8.701183E-19
6.009804E+03	6.055782E-17	8.576985E-19
6.019608E+03	5.965066E-17	8.450635E-19
6.029412E+03	5.873512E-17	8.323051E-19
6.039216E+03	5.781881E-17	8.195312E-19
6.049020E+03	5.690803E-17	8.068311E-19
6.058824E+03	5.601254E-17	7.943430E-19
6.068627E+03	5.514304E-17	7.822189E-19
6.078431E+03	5.430714E-17	7.705666E-19
6.088235E+03	5.350555E-17	7.593969E-19
6.098039E+03	5.274237E-17	7.487681E-19
6.107843E+03	5.202462E-17	7.387802E-19
6.117647E+03	5.135965E-17	7.295381E-19
6.127451E+03	5.075652E-17	7.211710E-19
6.137255E+03	5.022464E-17	7.138132E-19
6.147059E+03	4.977248E-17	7.075860E-19
6.156863E+03	4.940825E-17	7.026071E-19
6.166667E+03	4.913799E-17	6.989633E-19
6.176471E+03	4.896575E-17	6.967133E-19
6.186275E+03	4.889386E-17	6.958914E-19
6.196078E+03	4.892065E-17	6.964752E-19
6.205882E+03	4.904309E-17	6.984226E-19
6.215686E+03	4.925347E-17	7.016250E-19
6.225490E+03	4.954296E-17	7.059576E-19
6.235294E+03	4.989987E-17	7.112549E-19
6.245098E+03	5.031142E-17	7.173354E-19
6.254902E+03	5.076205E-17	7.239780E-19
6.264706E+03	5.123600E-17	7.309582E-19
6.274510E+03	5.171646E-17	7.380366E-19
6.284314E+03	5.218605E-17	7.449651E-19
6.294118E+03	5.262905E-17	7.515191E-19
6.303922E+03	5.303209E-17	7.575074E-19
6.313725E+03	5.338412E-17	7.627713E-19
6.323529E+03	5.367703E-17	7.671945E-19
6.333333E+03	5.390691E-17	7.707201E-19
6.343137E+03	5.407355E-17	7.733443E-19
6.352941E+03	5.417956E-17	7.751036E-19
6.362745E+03	5.423005E-17	7.760704E-19
6.372549E+03	5.423537E-17	7.763919E-19
6.382353E+03	5.420622E-17	7.762207E-19
6.392157E+03	5.415359E-17	7.757139E-19
6.401961E+03	5.409038E-17	7.750559E-19
6.411765E+03	5.402805E-17	7.744108E-19
6.421569E+03	5.397588E-17	7.739116E-19
6.431373E+03	5.394204E-17	7.736757E-19
6.441176E+03	5.393401E-17	7.738105E-19
6.450980E+03	5.395231E-17	7.743241E-19
6.460784E+03	5.399897E-17	7.752456E-19
6.470588E+03	5.407150E-17	7.765399E-19
6.480392E+03	5.416307E-17	7.781093E-19
6.490196E+03	5.426809E-17	7.798734E-19
6.500000E+03	5.437559E-17	7.816749E-19
6.509804E+03	5.447691E-17	7.833892E-19
6.519608E+03	5.455920E-17	7.848314E-19
6.529412E+03	5.461250E-17	7.858580E-19
6.539216E+03	5.462695E-17	7.863266E-19
6.549020E+03	5.459346E-17	7.861056E-19
6.558824E+03	5.450613E-17	7.851094E-19
6.568627E+03	5.436263E-17	7.833036E-19
6.578431E+03	5.416146E-17	7.806659E-19
6.588235E+03	5.390465E-17	7.772246E-19
6.598039E+03	5.359640E-17	7.730395E-19
6.607843E+03	5.324264E-17	7.681953E-19
6.617647E+03	5.285039E-17	7.627928E-19
6.627451E+03	5.242725E-17	7.569411E-19
6.637255E+03	5.197988E-17	7.507357E-19
6.647059E+03	5.151630E-17	7.442925E-19
6.656863E+03	5.104279E-17	7.377016E-19
6.666667E+03	5.056369E-17	7.310259E-19
6.676471E+03	5.008414E-17	7.243394E-19
6.686275E+03	4.960654E-17	7.176769E-19
6.696078E+03	4.913351E-17	7.110762E-19
6.705882E+03	4.866723E-17	7.045693E-19
6.715686E+03	4.820969E-17	6.981847E-19
6.725490E+03	4.776369E-17	6.919632E-19
6.735294E+03	4.732951E-17	6.859090E-19
6.745098E+03	4.691015E-17	6.800659E-19
6.754902E+03	4.650785E-17	6.744664E-19
6.764706E+03	4.612400E-17	6.691309E-19
6.774510E+03	4.576163E-17	6.641040E-19
6.784314E+03	4.542279E-17	6.594153E-19
6.794118E+03	4.510838E-17	6.550785E-19
6.803922E+03	4.481988E-17	6.511152E-19
6.813725E+03	4.455927E-17	6.475550E-19
6.823529E+03	4.432648E-17	6.443970E-19
6.833333E+03	4.412199E-17	6.416485E-19
6.843137E+03	4.394593E-17	6.393121E-19
6.852941E+03	4.379817E-17	6.373861E-19
6.862745E+03	4.367743E-17	6.358526E-19
6.872549E+03	4.358472E-17	6.347264E-19
6.882353E+03	4.351729E-17	6.339680E-19
6.892157E+03	4.347462E-17	6.335702E-19
6.901961E+03	4.345415E-17	6.334962E-19
6.911765E+03	4.345382E-17	6.337162E-19
6.921569E+03	4.347219E-17	6.342094E-19
6.931373E+03	4.350591E-17	6.349274E-19
6.941176E+03	4.355153E-17	6.358198E-19
6.950980E+03	4.360823E-17	6.368752E-19
6.960784E+03	4.367274E-17	6.380458E-19
6.970588E+03	4.374199E-17	6.392869E-19
6.980392E+03	4.381491E-17	6.405829E-19
6.990196E+03	4.388896E-17	6.418968E-19
7.000000E+03	4.396360E-17	6.432207E-19
7.009804E+03	4.403669E-17	6.445231E-19
7.019608E+03	4.410793E-17	6.458000E-19
7.029412E+03	4.417426E-17	6.470063E-19
7.039216E+03	4.423516E-17	6.481342E-19
7.049020E+03	4.428982E-17	6.491721E-19
7.058824E+03	4.433436E-17	6.500629E-19
7.068627E+03	4.436640E-17	6.507713E-19
7.078431E+03	4.438418E-17	6.512715E-19
7.088235E+03	4.438485E-17	6.515215E-19
7.098039E+03	4.436451E-17	6.514638E-19
7.107843E+03	4.432121E-17	6.510692E-19
7.117647E+03	4.425127E-17	6.502833E-19
7.127451E+03	4.415225E-17	6.490700E-19
7.137255E+03	4.402308E-17	6.474128E-19
7.147059E+03	4.386127E-17	6.452749E-19
7.156863E+03	4.366680E-17	6.426554E-19
7.166667E+03	4.343840E-17	6.395349E-19
7.176471E+03	4.317639E-17	6.359175E-19
7.186275E+03	4.288360E-17	6.318447E-19
7.196078E+03	4.255973E-17	6.273112E-19
7.205882E+03	4.220881E-17	6.223761E-19
7.215686E+03	4.183254E-17	6.170641E-19
7.225490E+03	4.143490E-17	6.114331E-19
7.235294E+03	4.102014E-17	6.055459E-19
7.245098E+03	4.059093E-17	5.994413E-19
7.254902E+03	4.015285E-17	5.932017E-19
7.264706E+03	3.970977E-17	5.868841E-19
7.274510E+03	3.926667E-17	5.805620E-19
7.284314E+03	3.882782E-17	5.742984E-19
7.294118E+03	3.839780E-17	5.681612E-19
7.303922E+03	3.798250E-17	5.622380E-19
7.313725E+03	3.758568E-17	5.565845E-19
7.323529E+03	3.721355E-17	5.512928E-19
7.333333E+03	3.687213E-17	5.464530E-19
7.343137E+03	3.657002E-17	5.421928E-19
7.352941E+03	3.631480E-17	5.386256E-19
7.362745E+03	3.611455E-17	5.358717E-19
7.372549E+03	3.597061E-17	5.339523E-19
7.382353E+03	3.587392E-17	5.327339E-19
7.392157E+03	3.581474E-17	5.320726E-19
7.401961E+03	3.578619E-17	5.318666E-19
7.411765E+03	3.578001E-17	5.319941E-19
7.421569E+03	3.579258E-17	5.324014E-19
7.431373E+03	3.581883E-17	5.330134E-19
7.441176E+03	3.585554E-17	5.337825E-19
7.450980E+03	3.589952E-17	5.346611E-19
7.460784E+03	3.595001E-17	5.356384E-19
7.470588E+03	3.600599E-17	5.366990E-19
7.480392E+03	3.606688E-17	5.378344E-19
7.490196E+03	3.613157E-17	5.390282E-19
7.500000E+03	3.620095E-17	5.402937E-19
7.509804E+03	3.627434E-17	5.416208E-19
7.519608E+03	3.635393E-17	5.430422E-19
7.529412E+03	3.643744E-17	5.445240E-19
7.539216E+03	3.652814E-17	5.461152E-19
7.549020E+03	3.662567E-17	5.478105E-19
7.558824E+03	3.672967E-17	5.496045E-19
7.568627E+03	3.684154E-17	5.515186E-19
7.578431E+03	3.696169E-17	5.535587E-19
7.588235E+03	3.709036E-17	5.557287E-19
7.598039E+03	3.722761E-17	5.580297E-19
7.607843E+03	3.737423E-17	5.604737E-19
