#wls	flux	fluxerr
1.592167E+03	8.117132E-04	3.658997E-05
1.631971E+03	8.056515E-04	3.620459E-05
1.671775E+03	7.964076E-04	3.567581E-05
1.711579E+03	7.835043E-04	3.498373E-05
1.751383E+03	7.668030E-04	3.412388E-05
1.791187E+03	7.460564E-04	3.308711E-05
1.830992E+03	7.212461E-04	3.187462E-05
1.870796E+03	6.922027E-04	3.048107E-05
1.910600E+03	6.592644E-04	2.892360E-05
1.950404E+03	6.229495E-04	2.722704E-05
1.990208E+03	5.843119E-04	2.543934E-05
2.030012E+03	5.447434E-04	2.362241E-05
2.069817E+03	5.059518E-04	2.185090E-05
2.109621E+03	4.701733E-04	2.022097E-05
2.149425E+03	4.392908E-04	1.881200E-05
2.189229E+03	4.150546E-04	1.769625E-05
2.229033E+03	3.985737E-04	1.691729E-05
2.268837E+03	3.906849E-04	1.650621E-05
2.308641E+03	3.914880E-04	1.646225E-05
2.348446E+03	4.010080E-04	1.678125E-05
2.388250E+03	4.187029E-04	1.743522E-05
2.428054E+03	4.436881E-04	1.838224E-05
2.467858E+03	4.746480E-04	1.956316E-05
2.507662E+03	5.096368E-04	2.089403E-05
2.547466E+03	5.462464E-04	2.227358E-05
2.587271E+03	5.818532E-04	2.359393E-05
2.627075E+03	6.138979E-04	2.475216E-05
2.666879E+03	6.402536E-04	2.566507E-05
2.706683E+03	6.594017E-04	2.627586E-05
2.746487E+03	6.709153E-04	2.657254E-05
2.786291E+03	6.757420E-04	2.659784E-05
2.826096E+03	6.755180E-04	2.642062E-05
2.865900E+03	6.723884E-04	2.612804E-05
2.905704E+03	6.689582E-04	2.582294E-05
2.945508E+03	6.675775E-04	2.559572E-05
2.985312E+03	6.705619E-04	2.553299E-05
2.995263E+03	6.722647E-04	2.555305E-05
3.005214E+03	6.744022E-04	2.558922E-05
3.015165E+03	6.770050E-04	2.564258E-05
3.025116E+03	6.801045E-04	2.571423E-05
3.035067E+03	6.837298E-04	2.580515E-05
3.045019E+03	6.880022E-04	2.591981E-05
3.054970E+03	6.928620E-04	2.605582E-05
3.064921E+03	6.983397E-04	2.621423E-05
3.074872E+03	7.045558E-04	2.639940E-05
3.084823E+03	7.114514E-04	2.660898E-05
3.094774E+03	7.191484E-04	2.684738E-05
3.104725E+03	7.275866E-04	2.711220E-05
3.114676E+03	7.368884E-04	2.740780E-05
3.124627E+03	7.470858E-04	2.773522E-05
3.134578E+03	7.581177E-04	2.809199E-05
3.144529E+03	7.701986E-04	2.848585E-05
3.154480E+03	7.831743E-04	2.891091E-05
3.164431E+03	7.971657E-04	2.937140E-05
3.174382E+03	8.122008E-04	2.986815E-05
3.184333E+03	8.283053E-04	3.040187E-05
3.194284E+03	8.456004E-04	3.097676E-05
3.204235E+03	8.640105E-04	3.158980E-05
3.214186E+03	8.835522E-04	3.224134E-05
3.224137E+03	9.042378E-04	3.293158E-05
3.234088E+03	9.261759E-04	3.366421E-05
3.244039E+03	9.493717E-04	3.443915E-05
3.253990E+03	9.737153E-04	3.525213E-05
3.263941E+03	9.992983E-04	3.610620E-05
3.273892E+03	1.026100E-03	3.700033E-05
3.283843E+03	1.054086E-03	3.793301E-05
3.293795E+03	1.083210E-03	3.890232E-05
3.303746E+03	1.113411E-03	3.990578E-05
3.313697E+03	1.144725E-03	4.094447E-05
3.323648E+03	1.176822E-03	4.200629E-05
3.333599E+03	1.209933E-03	4.309935E-05
3.343550E+03	1.243675E-03	4.420973E-05
3.353501E+03	1.277865E-03	4.533085E-05
3.363452E+03	1.312537E-03	4.646378E-05
3.373403E+03	1.347189E-03	4.759068E-05
3.383354E+03	1.381777E-03	4.870991E-05
3.393305E+03	1.415692E-03	4.980017E-05
3.403256E+03	1.448794E-03	5.085658E-05
3.413207E+03	1.480628E-03	5.186341E-05
3.423158E+03	1.510551E-03	5.279849E-05
3.433109E+03	1.538148E-03	5.364770E-05
3.443060E+03	1.562857E-03	5.439205E-05
3.453011E+03	1.584048E-03	5.501030E-05
3.462962E+03	1.601693E-03	5.550222E-05
3.472913E+03	1.615784E-03	5.586843E-05
3.482864E+03	1.626294E-03	5.610869E-05
3.492815E+03	1.633965E-03	5.624943E-05
3.502766E+03	1.638910E-03	5.629517E-05
3.512717E+03	1.641623E-03	5.626343E-05
3.522668E+03	1.642428E-03	5.616584E-05
3.532620E+03	1.641606E-03	5.601238E-05
3.542571E+03	1.639379E-03	5.581104E-05
3.552522E+03	1.636035E-03	5.557185E-05
3.562473E+03	1.631677E-03	5.529860E-05
3.572424E+03	1.626357E-03	5.499328E-05
3.582375E+03	1.620078E-03	5.465619E-05
3.592326E+03	1.612805E-03	5.428639E-05
3.602277E+03	1.604472E-03	5.388188E-05
3.612228E+03	1.595099E-03	5.344363E-05
3.622179E+03	1.584493E-03	5.296535E-05
3.632130E+03	1.572673E-03	5.244806E-05
3.642081E+03	1.559684E-03	5.189345E-05
3.652032E+03	1.545318E-03	5.129494E-05
3.661983E+03	1.529815E-03	5.066082E-05
3.671934E+03	1.513207E-03	4.999239E-05
3.681885E+03	1.495794E-03	4.929980E-05
3.691836E+03	1.477875E-03	4.859310E-05
3.701787E+03	1.459846E-03	4.788541E-05
3.711738E+03	1.442192E-03	4.719260E-05
3.721689E+03	1.425476E-03	4.653297E-05
3.731640E+03	1.410395E-03	4.592907E-05
3.741591E+03	1.397543E-03	4.539973E-05
3.751542E+03	1.387755E-03	4.497152E-05
3.761493E+03	1.381590E-03	4.466179E-05
3.771444E+03	1.379815E-03	4.449439E-05
3.781396E+03	1.383112E-03	4.449022E-05
3.791347E+03	1.392205E-03	4.467131E-05
3.801298E+03	1.407732E-03	4.505665E-05
3.811249E+03	1.430177E-03	4.566018E-05
3.821200E+03	1.460317E-03	4.650491E-05
3.831151E+03	1.498642E-03	4.760462E-05
3.841102E+03	1.545609E-03	4.897172E-05
3.851053E+03	1.601812E-03	5.062292E-05
3.861004E+03	1.667524E-03	5.256450E-05
3.870955E+03	1.743181E-03	5.480788E-05
3.880906E+03	1.828967E-03	5.735639E-05
3.890857E+03	1.924761E-03	6.020369E-05
3.900808E+03	2.030513E-03	6.334575E-05
3.910759E+03	2.145785E-03	6.676651E-05
3.920710E+03	2.269774E-03	7.043861E-05
3.930661E+03	2.401506E-03	7.432972E-05
3.940612E+03	2.539593E-03	7.839510E-05
3.950563E+03	2.682235E-03	8.257765E-05
3.960514E+03	2.827411E-03	8.681415E-05
3.970465E+03	2.973061E-03	9.104088E-05
3.980416E+03	3.116530E-03	9.517654E-05
3.990367E+03	3.255610E-03	9.915440E-05
4.000318E+03	3.388023E-03	1.029063E-04
4.010269E+03	3.511638E-03	1.063694E-04
4.020221E+03	3.624781E-03	1.094951E-04
4.030172E+03	3.726240E-03	1.122496E-04
4.040123E+03	3.815317E-03	1.146148E-04
4.050074E+03	3.891853E-03	1.165891E-04
4.060025E+03	3.956103E-03	1.181830E-04
4.069976E+03	4.009007E-03	1.194279E-04
4.079927E+03	4.051689E-03	1.203598E-04
4.089878E+03	4.085580E-03	1.210237E-04
4.099829E+03	4.112510E-03	1.214759E-04
4.109780E+03	4.134189E-03	1.217685E-04
4.119731E+03	4.152409E-03	1.219555E-04
4.129682E+03	4.168847E-03	1.220868E-04
4.139633E+03	4.184793E-03	1.222007E-04
4.149584E+03	4.201573E-03	1.223358E-04
4.159535E+03	4.220035E-03	1.225166E-04
4.169486E+03	4.240821E-03	1.227613E-04
4.179437E+03	4.264199E-03	1.230769E-04
4.189388E+03	4.290191E-03	1.234635E-04
4.199339E+03	4.318710E-03	1.239180E-04
4.209290E+03	4.349533E-03	1.244332E-04
4.219241E+03	4.382188E-03	1.249953E-04
4.229192E+03	4.416368E-03	1.255950E-04
4.239143E+03	4.451710E-03	1.262216E-04
4.249094E+03	4.488005E-03	1.268690E-04
4.259045E+03	4.524944E-03	1.275282E-04
4.268997E+03	4.562537E-03	1.281993E-04
4.278948E+03	4.600496E-03	1.288742E-04
4.288899E+03	4.638781E-03	1.295516E-04
4.298850E+03	4.677307E-03	1.302292E-04
4.308801E+03	4.715738E-03	1.308975E-04
4.318752E+03	4.753792E-03	1.315488E-04
4.328703E+03	4.790913E-03	1.321679E-04
4.338654E+03	4.826541E-03	1.327396E-04
4.348605E+03	4.860164E-03	1.332504E-04
4.358556E+03	4.891279E-03	1.336870E-04
4.368507E+03	4.919511E-03	1.340398E-04
4.378458E+03	4.945308E-03	1.343219E-04
4.388409E+03	4.969387E-03	1.345533E-04
4.398360E+03	4.992797E-03	1.347627E-04
4.408311E+03	5.016654E-03	1.349804E-04
4.418262E+03	5.041979E-03	1.352337E-04
4.428213E+03	5.069544E-03	1.355430E-04
4.438164E+03	5.100101E-03	1.359277E-04
4.448115E+03	5.133993E-03	1.363962E-04
4.458066E+03	5.171418E-03	1.369529E-04
4.468017E+03	5.212203E-03	1.375925E-04
4.477968E+03	5.255769E-03	1.382988E-04
4.487919E+03	5.301657E-03	1.390592E-04
4.497870E+03	5.348866E-03	1.398469E-04
4.507822E+03	5.396564E-03	1.406398E-04
4.517773E+03	5.443596E-03	1.414078E-04
4.527724E+03	5.489088E-03	1.421284E-04
4.537675E+03	5.532300E-03	1.427830E-04
4.547626E+03	5.572661E-03	1.433574E-04
4.557577E+03	5.609875E-03	1.438447E-04
4.567528E+03	5.643936E-03	1.442455E-04
4.577479E+03	5.675211E-03	1.445701E-04
4.587430E+03	5.704198E-03	1.448317E-04
4.597381E+03	5.731519E-03	1.450466E-04
4.607332E+03	5.757892E-03	1.452334E-04
4.617283E+03	5.783825E-03	1.454050E-04
4.627234E+03	5.809683E-03	1.455708E-04
4.637185E+03	5.835481E-03	1.457311E-04
4.647136E+03	5.860698E-03	1.458729E-04
4.657087E+03	5.884539E-03	1.459767E-04
4.667038E+03	5.905830E-03	1.460138E-04
4.676989E+03	5.923088E-03	1.459483E-04
4.686940E+03	5.934531E-03	1.457373E-04
4.696891E+03	5.938591E-03	1.453441E-04
4.706842E+03	5.933713E-03	1.447325E-04
4.716793E+03	5.918959E-03	1.438819E-04
4.726744E+03	5.893770E-03	1.427812E-04
4.736695E+03	5.858461E-03	1.414407E-04
4.746646E+03	5.814051E-03	1.398873E-04
4.756598E+03	5.762362E-03	1.381671E-04
4.766549E+03	5.706036E-03	1.363449E-04
4.776500E+03	5.648015E-03	1.344919E-04
4.786451E+03	5.591893E-03	1.326939E-04
4.796402E+03	5.541338E-03	1.310372E-04
4.806353E+03	5.500046E-03	1.296073E-04
4.816304E+03	5.471578E-03	1.284857E-04
4.826255E+03	5.459218E-03	1.277461E-04
4.836206E+03	5.465933E-03	1.274537E-04
4.846157E+03	5.494127E-03	1.276596E-04
4.856108E+03	5.545630E-03	1.284010E-04
4.866059E+03	5.621622E-03	1.296993E-04
4.876010E+03	5.722300E-03	1.315531E-04
4.885961E+03	5.847177E-03	1.339453E-04
4.895912E+03	5.994596E-03	1.368321E-04
4.905863E+03	6.161762E-03	1.401444E-04
4.915814E+03	6.344778E-03	1.437892E-04
4.925765E+03	6.538382E-03	1.476439E-04
4.935716E+03	6.736635E-03	1.515724E-04
4.945667E+03	6.932739E-03	1.554212E-04
4.955618E+03	7.119519E-03	1.590307E-04
4.965569E+03	7.290235E-03	1.622533E-04
4.975520E+03	7.438555E-03	1.649525E-04
4.985471E+03	7.559722E-03	1.670288E-04
4.995423E+03	7.650373E-03	1.684149E-04
5.005374E+03	7.709103E-03	1.690874E-04
5.015325E+03	7.736495E-03	1.690669E-04
5.025276E+03	7.734723E-03	1.684083E-04
5.035227E+03	7.707530E-03	1.671999E-04
5.045178E+03	7.659546E-03	1.655479E-04
5.055129E+03	7.595823E-03	1.635661E-04
5.065080E+03	7.521627E-03	1.613712E-04
5.075031E+03	7.441809E-03	1.590696E-04
5.084982E+03	7.360631E-03	1.567533E-04
5.094933E+03	7.281589E-03	1.544968E-04
5.104884E+03	7.207374E-03	1.523566E-04
5.114835E+03	7.139894E-03	1.503717E-04
5.124786E+03	7.080377E-03	1.485663E-04
5.134737E+03	7.029485E-03	1.469524E-04
5.144688E+03	6.987486E-03	1.455337E-04
5.154639E+03	6.954379E-03	1.443081E-04
5.164590E+03	6.930028E-03	1.432707E-04
5.174541E+03	6.914259E-03	1.424162E-04
5.184492E+03	6.906926E-03	1.417395E-04
5.194443E+03	6.907910E-03	1.412364E-04
5.204394E+03	6.917121E-03	1.409033E-04
5.214345E+03	6.934518E-03	1.407376E-04
5.224296E+03	6.959749E-03	1.407304E-04
5.234248E+03	6.992528E-03	1.408744E-04
5.244199E+03	7.032249E-03	1.411559E-04
5.254150E+03	7.078021E-03	1.415557E-04
5.264101E+03	7.128550E-03	1.420467E-04
5.274052E+03	7.182431E-03	1.426004E-04
5.284003E+03	7.237669E-03	1.431767E-04
5.293954E+03	7.292259E-03	1.437359E-04
5.303905E+03	7.343917E-03	1.442335E-04
5.313856E+03	7.390506E-03	1.446287E-04
5.323807E+03	7.429964E-03	1.448823E-04
5.333758E+03	7.460444E-03	1.449603E-04
5.343709E+03	7.480662E-03	1.448398E-04
5.353660E+03	7.489712E-03	1.445057E-04
5.363611E+03	7.487343E-03	1.439554E-04
5.373562E+03	7.473984E-03	1.431998E-04
5.383513E+03	7.450490E-03	1.422574E-04
5.393464E+03	7.418213E-03	1.411560E-04
5.403415E+03	7.379127E-03	1.399349E-04
5.413366E+03	7.335245E-03	1.386336E-04
5.423317E+03	7.288684E-03	1.372928E-04
5.433268E+03	7.241724E-03	1.359558E-04
5.443219E+03	7.196109E-03	1.346556E-04
5.453170E+03	7.153334E-03	1.334196E-04
5.463121E+03	7.114365E-03	1.322654E-04
5.473072E+03	7.079315E-03	1.311944E-04
5.483024E+03	7.047413E-03	1.301918E-04
5.492975E+03	7.017299E-03	1.292317E-04
5.502926E+03	6.987302E-03	1.282829E-04
5.512877E+03	6.955340E-03	1.273073E-04
5.522828E+03	6.919660E-03	1.262729E-04
5.532779E+03	6.878287E-03	1.251442E-04
5.542730E+03	6.829670E-03	1.238939E-04
5.552681E+03	6.772482E-03	1.224988E-04
5.562632E+03	6.706021E-03	1.209474E-04
5.572583E+03	6.629892E-03	1.192340E-04
5.582534E+03	6.544557E-03	1.173678E-04
5.592485E+03	6.451262E-03	1.153725E-04
5.602436E+03	6.351907E-03	1.132827E-04
5.612387E+03	6.249505E-03	1.111528E-04
5.622338E+03	6.147628E-03	1.090461E-04
5.632289E+03	6.050776E-03	1.070419E-04
5.642240E+03	5.963673E-03	1.052227E-04
5.652191E+03	5.891539E-03	1.036786E-04
5.662142E+03	5.839372E-03	1.024952E-04
5.672093E+03	5.812154E-03	1.017568E-04
5.682044E+03	5.814433E-03	1.015392E-04
5.691995E+03	5.850240E-03	1.019089E-04
5.701946E+03	5.922922E-03	1.029195E-04
5.711897E+03	6.035192E-03	1.046133E-04
5.721849E+03	6.188759E-03	1.070150E-04
5.731800E+03	6.384426E-03	1.101333E-04
5.741751E+03	6.621592E-03	1.139531E-04
5.751702E+03	6.898511E-03	1.184394E-04
5.761653E+03	7.211676E-03	1.235278E-04
5.771604E+03	7.555975E-03	1.291270E-04
5.781555E+03	7.924650E-03	1.351185E-04
5.791506E+03	8.309343E-03	1.413578E-04
5.801457E+03	8.700652E-03	1.476839E-04
5.811408E+03	9.088271E-03	1.539222E-04
5.821359E+03	9.461761E-03	1.598970E-04
5.831310E+03	9.811170E-03	1.654426E-04
5.841261E+03	1.012722E-02	1.704061E-04
5.851212E+03	1.040233E-02	1.746640E-04
5.861163E+03	1.063056E-02	1.781217E-04
5.871114E+03	1.080779E-02	1.807155E-04
5.881065E+03	1.093194E-02	1.824164E-04
5.891016E+03	1.100290E-02	1.832278E-04
5.900967E+03	1.102187E-02	1.831755E-04
5.910918E+03	1.099189E-02	1.823151E-04
5.920869E+03	1.091663E-02	1.807120E-04
5.930820E+03	1.080122E-02	1.784554E-04
5.940771E+03	1.065075E-02	1.756329E-04
5.950722E+03	1.047116E-02	1.723456E-04
5.960673E+03	1.026816E-02	1.686896E-04
5.970625E+03	1.004747E-02	1.647607E-04
5.980576E+03	9.814388E-03	1.606469E-04
5.990527E+03	9.574004E-03	1.564323E-04
6.000478E+03	9.330750E-03	1.521895E-04
6.010429E+03	9.088353E-03	1.479791E-04
6.020380E+03	8.849908E-03	1.438510E-04
6.030331E+03	8.618098E-03	1.398482E-04
6.040282E+03	8.394619E-03	1.359974E-04
6.050233E+03	8.180798E-03	1.323190E-04
6.060184E+03	7.977246E-03	1.288219E-04
6.070135E+03	7.784115E-03	1.255076E-04
6.080086E+03	7.601101E-03	1.223700E-04
6.090037E+03	7.427421E-03	1.193957E-04
6.099988E+03	7.262028E-03	1.165669E-04
6.109939E+03	7.103617E-03	1.138620E-04
6.119890E+03	6.950701E-03	1.112566E-04
6.129841E+03	6.801679E-03	1.087243E-04
6.139792E+03	6.655217E-03	1.062436E-04
6.149743E+03	6.510037E-03	1.037937E-04
6.159694E+03	6.365210E-03	1.013596E-04
6.169645E+03	6.220146E-03	9.893155E-05
6.179596E+03	6.075061E-03	9.651295E-05
6.189547E+03	5.930592E-03	9.411364E-05
6.199498E+03	5.788029E-03	9.175386E-05
6.209450E+03	5.649249E-03	8.946299E-05
6.219401E+03	5.516420E-03	8.727494E-05
6.229352E+03	5.392124E-03	8.523008E-05
6.239303E+03	5.278843E-03	8.336699E-05
6.249254E+03	5.179040E-03	8.172394E-05
6.259205E+03	5.094897E-03	8.033463E-05
6.269156E+03	5.028105E-03	7.922506E-05
6.279107E+03	4.979832E-03	7.841295E-05
6.289058E+03	4.950622E-03	7.790624E-05
6.299009E+03	4.940447E-03	7.770399E-05
6.308960E+03	4.948406E-03	7.779161E-05
6.318911E+03	4.973105E-03	7.814691E-05
6.328862E+03	5.012416E-03	7.873628E-05
6.338813E+03	5.063603E-03	7.951676E-05
6.348764E+03	5.123710E-03	8.044199E-05
6.358715E+03	5.189276E-03	8.145786E-05
6.368666E+03	5.256981E-03	8.251253E-05
6.378617E+03	5.323765E-03	8.355825E-05
6.388568E+03	5.387043E-03	8.455479E-05
6.398519E+03	5.444987E-03	8.547379E-05
6.408470E+03	5.496788E-03	8.630277E-05
6.418421E+03	5.542685E-03	8.704572E-05
6.428372E+03	5.583970E-03	8.772298E-05
6.438323E+03	5.622844E-03	8.836899E-05
6.448274E+03	5.662415E-03	8.903253E-05
6.458226E+03	5.706538E-03	8.977417E-05
6.468177E+03	5.759432E-03	9.066034E-05
6.478128E+03	5.825837E-03	9.176595E-05
6.488079E+03	5.910177E-03	9.316108E-05
6.498030E+03	6.016205E-03	9.490558E-05
6.507981E+03	6.145723E-03	9.702874E-05
6.517932E+03	6.297846E-03	9.951763E-05
6.527883E+03	6.470305E-03	1.023374E-04
6.537834E+03	6.659727E-03	1.054357E-04
6.547785E+03	6.862174E-03	1.087511E-04
6.557736E+03	7.073503E-03	1.122188E-04
6.567687E+03	7.289016E-03	1.157645E-04
6.577638E+03	7.503855E-03	1.193116E-04
6.587589E+03	7.713098E-03	1.227817E-04
6.597540E+03	7.911951E-03	1.260982E-04
6.607491E+03	8.096026E-03	1.291906E-04
6.617442E+03	8.261311E-03	1.319938E-04
6.627393E+03	8.404526E-03	1.344542E-04
6.637344E+03	8.523248E-03	1.365315E-04
6.647295E+03	8.615739E-03	1.381962E-04
6.657246E+03	8.680904E-03	1.394288E-04
6.667197E+03	8.718587E-03	1.402249E-04
6.677148E+03	8.728803E-03	1.405827E-04
6.687099E+03	8.712324E-03	1.405124E-04
6.697051E+03	8.670212E-03	1.400293E-04
6.707002E+03	8.603868E-03	1.391539E-04
6.716953E+03	8.515039E-03	1.379126E-04
6.726904E+03	8.405922E-03	1.363392E-04
6.736855E+03	8.278936E-03	1.344714E-04
6.746806E+03	8.137107E-03	1.323568E-04
6.756757E+03	7.983726E-03	1.300477E-04
6.766708E+03	7.822594E-03	1.276052E-04
6.776659E+03	7.658016E-03	1.250989E-04
6.786610E+03	7.494158E-03	1.225964E-04
6.796561E+03	7.335429E-03	1.201699E-04
6.806512E+03	7.186282E-03	1.178926E-04
6.816463E+03	7.050549E-03	1.158281E-04
6.826414E+03	6.931880E-03	1.140372E-04
6.836365E+03	6.833264E-03	1.125703E-04
6.846316E+03	6.757035E-03	1.114670E-04
6.856267E+03	6.704775E-03	1.107549E-04
6.866218E+03	6.677290E-03	1.104490E-04
6.876169E+03	6.674478E-03	1.105490E-04
6.886120E+03	6.695626E-03	1.110446E-04
6.896071E+03	6.738856E-03	1.119061E-04
6.906022E+03	6.801763E-03	1.130947E-04
6.915973E+03	6.880843E-03	1.145532E-04
6.925924E+03	6.972198E-03	1.162175E-04
6.935875E+03	7.071072E-03	1.180087E-04
6.945827E+03	7.172584E-03	1.198456E-04
6.955778E+03	7.271672E-03	1.216435E-04
6.965729E+03	7.363451E-03	1.233202E-04
6.975680E+03	7.443401E-03	1.247992E-04
6.985631E+03	7.508010E-03	1.260209E-04
6.995582E+03	7.554344E-03	1.269349E-04
7.005533E+03	7.580720E-03	1.275117E-04
7.015484E+03	7.586764E-03	1.277440E-04
7.025435E+03	7.572706E-03	1.276345E-04
7.035386E+03	7.540256E-03	1.272110E-04
7.045337E+03	7.491312E-03	1.265045E-04
7.055288E+03	7.428716E-03	1.255625E-04
7.065239E+03	7.355394E-03	1.244337E-04
7.075190E+03	7.274118E-03	1.231648E-04
7.085141E+03	7.187858E-03	1.218057E-04
7.095092E+03	7.099007E-03	1.203970E-04
7.105043E+03	7.009643E-03	1.189739E-04
7.114994E+03	6.921295E-03	1.175624E-04
7.124945E+03	6.835279E-03	1.161851E-04
7.134896E+03	6.752115E-03	1.148510E-04
7.144847E+03	6.672245E-03	1.135679E-04
7.154798E+03	6.595354E-03	1.123307E-04
7.164749E+03	6.521339E-03	1.111377E-04
7.174700E+03	6.449487E-03	1.099771E-04
7.184652E+03	6.379117E-03	1.088373E-04
7.194603E+03	6.309572E-03	1.077074E-04
7.204554E+03	6.240054E-03	1.065739E-04
7.214505E+03	6.169902E-03	1.054256E-04
7.224456E+03	6.098653E-03	1.042546E-04
7.234407E+03	6.025748E-03	1.030516E-04
7.244358E+03	5.951101E-03	1.018151E-04
7.254309E+03	5.874568E-03	1.005429E-04
7.264260E+03	5.796164E-03	9.923521E-05
7.274211E+03	5.716282E-03	9.789895E-05
7.284162E+03	5.635128E-03	9.653777E-05
7.294113E+03	5.553236E-03	9.516094E-05
7.304064E+03	5.471120E-03	9.377744E-05
7.314015E+03	5.389326E-03	9.239676E-05
7.323966E+03	5.308408E-03	9.102857E-05
7.333917E+03	5.228824E-03	8.968089E-05
7.343868E+03	5.151118E-03	8.836321E-05
7.353819E+03	5.075704E-03	8.708283E-05
7.363770E+03	5.002915E-03	8.584558E-05
7.373721E+03	4.932979E-03	8.465558E-05
7.383672E+03	4.865979E-03	8.351439E-05
7.393623E+03	4.802085E-03	8.242508E-05
7.403574E+03	4.741248E-03	8.138697E-05
7.413525E+03	4.683279E-03	8.039694E-05
7.423476E+03	4.628046E-03	7.945288E-05
7.433428E+03	4.575207E-03	7.854903E-05
7.443379E+03	4.524571E-03	7.768226E-05
7.453330E+03	4.475896E-03	7.684851E-05
7.463281E+03	4.428916E-03	7.604337E-05
7.473232E+03	4.383527E-03	7.526514E-05
7.483183E+03	4.339590E-03	7.451158E-05
7.493134E+03	4.297147E-03	7.378350E-05
7.503085E+03	4.256223E-03	7.308145E-05
7.513036E+03	4.216964E-03	7.240806E-05
7.522987E+03	4.179583E-03	7.176709E-05
7.532938E+03	4.144346E-03	7.116321E-05
7.542889E+03	4.111582E-03	7.060221E-05
7.552840E+03	4.081468E-03	7.008721E-05
7.562791E+03	4.054365E-03	6.962452E-05
7.572742E+03	4.030442E-03	6.921718E-05
7.582693E+03	4.009858E-03	6.886802E-05
7.592644E+03	3.992701E-03	6.857869E-05
7.602595E+03	3.979045E-03	6.835058E-05
7.612546E+03	3.968723E-03	6.818096E-05
7.622497E+03	3.961654E-03	6.806861E-05
7.632448E+03	3.957689E-03	6.801106E-05
7.642399E+03	3.956506E-03	6.800299E-05
7.652350E+03	3.957745E-03	6.803834E-05
7.662301E+03	3.961170E-03	6.811325E-05
7.672253E+03	3.966416E-03	6.822160E-05
7.682204E+03	3.973018E-03	6.835559E-05
7.692155E+03	3.980728E-03	6.851110E-05
7.702106E+03	3.989101E-03	6.868070E-05
7.712057E+03	3.997933E-03	6.886102E-05
7.722008E+03	4.006941E-03	6.904740E-05
