#wls	flux	fluxerr
1.592167E+03	5.904901E-04	1.530735E-05
1.631971E+03	5.870347E-04	1.519374E-05
1.671775E+03	5.814739E-04	1.502544E-05
1.711579E+03	5.737262E-04	1.480061E-05
1.751383E+03	5.636286E-04	1.451535E-05
1.791187E+03	5.510738E-04	1.416724E-05
1.830992E+03	5.360386E-04	1.375603E-05
1.870796E+03	5.187195E-04	1.328714E-05
1.910600E+03	4.993576E-04	1.276711E-05
1.950404E+03	4.782886E-04	1.220485E-05
1.990208E+03	4.563266E-04	1.162142E-05
2.030012E+03	4.341867E-04	1.103518E-05
2.069817E+03	4.128921E-04	1.047219E-05
2.109621E+03	3.933543E-04	9.955451E-06
2.149425E+03	3.765990E-04	9.510642E-06
2.189229E+03	3.635081E-04	9.159583E-06
2.229033E+03	3.546353E-04	8.915611E-06
2.268837E+03	3.504532E-04	8.789885E-06
2.308641E+03	3.510810E-04	8.784568E-06
2.348446E+03	3.566737E-04	8.902657E-06
2.388250E+03	3.667869E-04	9.132149E-06
2.428054E+03	3.811364E-04	9.465096E-06
2.467858E+03	3.989560E-04	9.881646E-06
2.507662E+03	4.194008E-04	1.036018E-05
2.547466E+03	4.413943E-04	1.087356E-05
2.587271E+03	4.638479E-04	1.139465E-05
2.627075E+03	4.856992E-04	1.189723E-05
2.666879E+03	5.058736E-04	1.235509E-05
2.706683E+03	5.238114E-04	1.275488E-05
2.746487E+03	5.393535E-04	1.309315E-05
2.786291E+03	5.525422E-04	1.337139E-05
2.826096E+03	5.640977E-04	1.360746E-05
2.865900E+03	5.750909E-04	1.382742E-05
2.905704E+03	5.867575E-04	1.406099E-05
2.945508E+03	6.004876E-04	1.434114E-05
2.985312E+03	6.180000E-04	1.470823E-05
2.995263E+03	6.231558E-04	1.481791E-05
3.005214E+03	6.287159E-04	1.493692E-05
3.015165E+03	6.346240E-04	1.506391E-05
3.025116E+03	6.409024E-04	1.519937E-05
3.035067E+03	6.476557E-04	1.534577E-05
3.045019E+03	6.548259E-04	1.550169E-05
3.054970E+03	6.625990E-04	1.567151E-05
3.064921E+03	6.708363E-04	1.585190E-05
3.074872E+03	6.795601E-04	1.604337E-05
3.084823E+03	6.889579E-04	1.625030E-05
3.094774E+03	6.988888E-04	1.646933E-05
3.104725E+03	7.095403E-04	1.670482E-05
3.114676E+03	7.207688E-04	1.695337E-05
3.124627E+03	7.326792E-04	1.721738E-05
3.134578E+03	7.453770E-04	1.749929E-05
3.144529E+03	7.587126E-04	1.779553E-05
3.154480E+03	7.728751E-04	1.811050E-05
3.164431E+03	7.877963E-04	1.844252E-05
3.174382E+03	8.034898E-04	1.879188E-05
3.184333E+03	8.200564E-04	1.916086E-05
3.194284E+03	8.375077E-04	1.954968E-05
3.204235E+03	8.556692E-04	1.995419E-05
3.214186E+03	8.748140E-04	2.038072E-05
3.224137E+03	8.947573E-04	2.082489E-05
3.234088E+03	9.155822E-04	2.128856E-05
3.244039E+03	9.372737E-04	2.177133E-05
3.253990E+03	9.598086E-04	2.227260E-05
3.263941E+03	9.831547E-04	2.279154E-05
3.273892E+03	1.007269E-03	2.332710E-05
3.283843E+03	1.032096E-03	2.387796E-05
3.293795E+03	1.057568E-03	2.444247E-05
3.303746E+03	1.083702E-03	2.502099E-05
3.313697E+03	1.110403E-03	2.561126E-05
3.323648E+03	1.137449E-03	2.620814E-05
3.333599E+03	1.164704E-03	2.680844E-05
3.343550E+03	1.192223E-03	2.741341E-05
3.353501E+03	1.219615E-03	2.801407E-05
3.363452E+03	1.246789E-03	2.860830E-05
3.373403E+03	1.273635E-03	2.919363E-05
3.383354E+03	1.299698E-03	2.975960E-05
3.393305E+03	1.324942E-03	3.030550E-05
3.403256E+03	1.349103E-03	3.082532E-05
3.413207E+03	1.371798E-03	3.131040E-05
3.423158E+03	1.392756E-03	3.175464E-05
3.433109E+03	1.411938E-03	3.215732E-05
3.443060E+03	1.428885E-03	3.250809E-05
3.453011E+03	1.443623E-03	3.280770E-05
3.462962E+03	1.455798E-03	3.304830E-05
3.472913E+03	1.465584E-03	3.323400E-05
3.482864E+03	1.473005E-03	3.336555E-05
3.492815E+03	1.478035E-03	3.344250E-05
3.502766E+03	1.480897E-03	3.347009E-05
3.512717E+03	1.481735E-03	3.345173E-05
3.522668E+03	1.480708E-03	3.339117E-05
3.532620E+03	1.477985E-03	3.329234E-05
3.542571E+03	1.473739E-03	3.315927E-05
3.552522E+03	1.468238E-03	3.299809E-05
3.562473E+03	1.461550E-03	3.281043E-05
3.572424E+03	1.454019E-03	3.260412E-05
3.582375E+03	1.445610E-03	3.237839E-05
3.592326E+03	1.436558E-03	3.213860E-05
3.602277E+03	1.427087E-03	3.188981E-05
3.612228E+03	1.417241E-03	3.163303E-05
3.622179E+03	1.407235E-03	3.137309E-05
3.632130E+03	1.397121E-03	3.111115E-05
3.642081E+03	1.387194E-03	3.085377E-05
3.652032E+03	1.377438E-03	3.060060E-05
3.661983E+03	1.368155E-03	3.035835E-05
3.671934E+03	1.359501E-03	3.013042E-05
3.681885E+03	1.351504E-03	2.991737E-05
3.691836E+03	1.344559E-03	2.972789E-05
3.701787E+03	1.338785E-03	2.956454E-05
3.711738E+03	1.334386E-03	2.943171E-05
3.721689E+03	1.331574E-03	2.933399E-05
3.731640E+03	1.330573E-03	2.927614E-05
3.741591E+03	1.331734E-03	2.926575E-05
3.751542E+03	1.335162E-03	2.930494E-05
3.761493E+03	1.341152E-03	2.940000E-05
3.771444E+03	1.349933E-03	2.955575E-05
3.781396E+03	1.361737E-03	2.977699E-05
3.791347E+03	1.376841E-03	3.006955E-05
3.801298E+03	1.395399E-03	3.043652E-05
3.811249E+03	1.417726E-03	3.088445E-05
3.821200E+03	1.443890E-03	3.141452E-05
3.831151E+03	1.474109E-03	3.203113E-05
3.841102E+03	1.508520E-03	3.273690E-05
3.851053E+03	1.547226E-03	3.353374E-05
3.861004E+03	1.590355E-03	3.442400E-05
3.870955E+03	1.637871E-03	3.540658E-05
3.880906E+03	1.689807E-03	3.648177E-05
3.890857E+03	1.746084E-03	3.764748E-05
3.900808E+03	1.806495E-03	3.889891E-05
3.910759E+03	1.870892E-03	4.023246E-05
3.920710E+03	1.939057E-03	4.164314E-05
3.930661E+03	2.010518E-03	4.312045E-05
3.940612E+03	2.084917E-03	4.465647E-05
3.950563E+03	2.161777E-03	4.624067E-05
3.960514E+03	2.240563E-03	4.786144E-05
3.970465E+03	2.320768E-03	4.950775E-05
3.980416E+03	2.401655E-03	5.116377E-05
3.990367E+03	2.482750E-03	5.281933E-05
4.000318E+03	2.563313E-03	5.445869E-05
4.010269E+03	2.642842E-03	5.607119E-05
4.020221E+03	2.720886E-03	5.764740E-05
4.030172E+03	2.796846E-03	5.917472E-05
4.040123E+03	2.870342E-03	6.064530E-05
4.050074E+03	2.941161E-03	6.205484E-05
4.060025E+03	3.009114E-03	6.339958E-05
4.069976E+03	3.073958E-03	6.467467E-05
4.079927E+03	3.135843E-03	6.588351E-05
4.089878E+03	3.194710E-03	6.702509E-05
4.099829E+03	3.250796E-03	6.810467E-05
4.109780E+03	3.304253E-03	6.912565E-05
4.119731E+03	3.355283E-03	7.009247E-05
4.129682E+03	3.404339E-03	7.101482E-05
4.139633E+03	3.451524E-03	7.189498E-05
4.149584E+03	3.497239E-03	7.274146E-05
4.159535E+03	3.541801E-03	7.356096E-05
4.169486E+03	3.585434E-03	7.435825E-05
4.179437E+03	3.628338E-03	7.513755E-05
4.189388E+03	3.670754E-03	7.590388E-05
4.199339E+03	3.712815E-03	7.666003E-05
4.209290E+03	3.754692E-03	7.740957E-05
4.219241E+03	3.796449E-03	7.815380E-05
4.229192E+03	3.838189E-03	7.889485E-05
4.239143E+03	3.879844E-03	7.963135E-05
4.249094E+03	3.921462E-03	8.036426E-05
4.259045E+03	3.962999E-03	8.109268E-05
4.268997E+03	4.004460E-03	8.181674E-05
4.278948E+03	4.045704E-03	8.253352E-05
4.288899E+03	4.086647E-03	8.324138E-05
4.298850E+03	4.127207E-03	8.393863E-05
4.308801E+03	4.167304E-03	8.462371E-05
4.318752E+03	4.206801E-03	8.529386E-05
4.328703E+03	4.245642E-03	8.594800E-05
4.338654E+03	4.283715E-03	8.658395E-05
4.348605E+03	4.320921E-03	8.719978E-05
4.358556E+03	4.357232E-03	8.779499E-05
4.368507E+03	4.392383E-03	8.836433E-05
4.378458E+03	4.426482E-03	8.891010E-05
4.388409E+03	4.459425E-03	8.943031E-05
4.398360E+03	4.491125E-03	8.992330E-05
4.408311E+03	4.521614E-03	9.038988E-05
4.418262E+03	4.550856E-03	9.082940E-05
4.428213E+03	4.578737E-03	9.123975E-05
4.438164E+03	4.605449E-03	9.162484E-05
4.448115E+03	4.631032E-03	9.198561E-05
4.458066E+03	4.655753E-03	9.232747E-05
4.468017E+03	4.679659E-03	9.265140E-05
4.477968E+03	4.702948E-03	9.296145E-05
4.487919E+03	4.725663E-03	9.325849E-05
4.497870E+03	4.747878E-03	9.354403E-05
4.507822E+03	4.769518E-03	9.381665E-05
4.517773E+03	4.790737E-03	9.407943E-05
4.527724E+03	4.811365E-03	9.432907E-05
4.537675E+03	4.831346E-03	9.456453E-05
4.547626E+03	4.850754E-03	9.478732E-05
4.557577E+03	4.869476E-03	9.499528E-05
4.567528E+03	4.887457E-03	9.518742E-05
4.577479E+03	4.904657E-03	9.536302E-05
4.587430E+03	4.921025E-03	9.552118E-05
4.597381E+03	4.936457E-03	9.565994E-05
4.607332E+03	4.950958E-03	9.577951E-05
4.617283E+03	4.964480E-03	9.587905E-05
4.627234E+03	4.976950E-03	9.595725E-05
4.637185E+03	4.988240E-03	9.601175E-05
4.647136E+03	4.998273E-03	9.604118E-05
4.657087E+03	5.007034E-03	9.604539E-05
4.667038E+03	5.014340E-03	9.602098E-05
4.676989E+03	5.020284E-03	9.596989E-05
4.686940E+03	5.024804E-03	9.589108E-05
4.696891E+03	5.027961E-03	9.578584E-05
4.706842E+03	5.029885E-03	9.565680E-05
4.716793E+03	5.030735E-03	9.550709E-05
4.726744E+03	5.030804E-03	9.534235E-05
4.736695E+03	5.030442E-03	9.516934E-05
4.746646E+03	5.030202E-03	9.499850E-05
4.756598E+03	5.030549E-03	9.483861E-05
4.766549E+03	5.032206E-03	9.470321E-05
4.776500E+03	5.035777E-03	9.460355E-05
4.786451E+03	5.041957E-03	9.455246E-05
4.796402E+03	5.051568E-03	9.456507E-05
4.806353E+03	5.065234E-03	9.465270E-05
4.816304E+03	5.083644E-03	9.482783E-05
4.826255E+03	5.107234E-03	9.509807E-05
4.836206E+03	5.136499E-03	9.547214E-05
4.846157E+03	5.171735E-03	9.595497E-05
4.856108E+03	5.213016E-03	9.654733E-05
4.866059E+03	5.260359E-03	9.724895E-05
4.876010E+03	5.313389E-03	9.805228E-05
4.885961E+03	5.371719E-03	9.894967E-05
4.895912E+03	5.434627E-03	9.992729E-05
4.905863E+03	5.501325E-03	1.009702E-04
4.915814E+03	5.570646E-03	1.020568E-04
4.925765E+03	5.641491E-03	1.031665E-04
4.935716E+03	5.712565E-03	1.042757E-04
4.945667E+03	5.782469E-03	1.053588E-04
4.955618E+03	5.849919E-03	1.063927E-04
4.965569E+03	5.913500E-03	1.073518E-04
4.975520E+03	5.972158E-03	1.082176E-04
4.985471E+03	6.024755E-03	1.089698E-04
4.995423E+03	6.070543E-03	1.095957E-04
5.005374E+03	6.108964E-03	1.100858E-04
5.015325E+03	6.139700E-03	1.104353E-04
5.025276E+03	6.162714E-03	1.106442E-04
5.035227E+03	6.178129E-03	1.107155E-04
5.045178E+03	6.186435E-03	1.106587E-04
5.055129E+03	6.188168E-03	1.104842E-04
5.065080E+03	6.184200E-03	1.102081E-04
5.075031E+03	6.175254E-03	1.098440E-04
5.084982E+03	6.162220E-03	1.094080E-04
5.094933E+03	6.146141E-03	1.089192E-04
5.104884E+03	6.127780E-03	1.083913E-04
5.114835E+03	6.107975E-03	1.078394E-04
5.124786E+03	6.087625E-03	1.072795E-04
5.134737E+03	6.067346E-03	1.067224E-04
5.144688E+03	6.047664E-03	1.061775E-04
5.154639E+03	6.029136E-03	1.056544E-04
5.164590E+03	6.012213E-03	1.051609E-04
5.174541E+03	5.997074E-03	1.047000E-04
5.184492E+03	5.983980E-03	1.042762E-04
5.194443E+03	5.973124E-03	1.038925E-04
5.204394E+03	5.964412E-03	1.035472E-04
5.214345E+03	5.957934E-03	1.032416E-04
5.224296E+03	5.953516E-03	1.029725E-04
5.234248E+03	5.950974E-03	1.027366E-04
5.244199E+03	5.950082E-03	1.025298E-04
5.254150E+03	5.950539E-03	1.023467E-04
5.264101E+03	5.952086E-03	1.021829E-04
5.274052E+03	5.954293E-03	1.020309E-04
5.284003E+03	5.956782E-03	1.018842E-04
5.293954E+03	5.959164E-03	1.017361E-04
5.303905E+03	5.961131E-03	1.015814E-04
5.313856E+03	5.962272E-03	1.014132E-04
5.323807E+03	5.962285E-03	1.012265E-04
5.333758E+03	5.960914E-03	1.010171E-04
5.343709E+03	5.958028E-03	1.007829E-04
5.353660E+03	5.953389E-03	1.005200E-04
5.363611E+03	5.947060E-03	1.002298E-04
5.373562E+03	5.938979E-03	9.991126E-05
5.383513E+03	5.929211E-03	9.956577E-05
5.393464E+03	5.917843E-03	9.919494E-05
5.403415E+03	5.904981E-03	9.880071E-05
5.413366E+03	5.890673E-03	9.838404E-05
5.423317E+03	5.875119E-03	9.794843E-05
5.433268E+03	5.858247E-03	9.749278E-05
5.443219E+03	5.840068E-03	9.701745E-05
5.453170E+03	5.820687E-03	9.652430E-05
5.463121E+03	5.799944E-03	9.601079E-05
5.473072E+03	5.778063E-03	9.548080E-05
5.483024E+03	5.755261E-03	9.493797E-05
5.492975E+03	5.731771E-03	9.438626E-05
5.502926E+03	5.707906E-03	9.383085E-05
5.512877E+03	5.684029E-03	9.327769E-05
5.522828E+03	5.660357E-03	9.273035E-05
5.532779E+03	5.637280E-03	9.219518E-05
5.542730E+03	5.614967E-03	9.167487E-05
5.552681E+03	5.593793E-03	9.117545E-05
5.562632E+03	5.574134E-03	9.070295E-05
5.572583E+03	5.556438E-03	9.026451E-05
5.582534E+03	5.541263E-03	8.986900E-05
5.592485E+03	5.529244E-03	8.952650E-05
5.602436E+03	5.521193E-03	8.924989E-05
5.612387E+03	5.517894E-03	8.905150E-05
5.622338E+03	5.520326E-03	8.894674E-05
5.632289E+03	5.529424E-03	8.895019E-05
5.642240E+03	5.546202E-03	8.907765E-05
5.652191E+03	5.571748E-03	8.934596E-05
5.662142E+03	5.607000E-03	8.976953E-05
5.672093E+03	5.652877E-03	9.036231E-05
5.682044E+03	5.710251E-03	9.113747E-05
5.691995E+03	5.779739E-03	9.210402E-05
5.701946E+03	5.861823E-03	9.326880E-05
5.711897E+03	5.956744E-03	9.463476E-05
5.721849E+03	6.064553E-03	9.620186E-05
5.731800E+03	6.184885E-03	9.796345E-05
5.741751E+03	6.317040E-03	9.990766E-05
5.751702E+03	6.460160E-03	1.020202E-04
5.761653E+03	6.612848E-03	1.042784E-04
5.771604E+03	6.773364E-03	1.066543E-04
5.781555E+03	6.939756E-03	1.091168E-04
5.791506E+03	7.109714E-03	1.116293E-04
5.801457E+03	7.280696E-03	1.141519E-04
5.811408E+03	7.449902E-03	1.166408E-04
5.821359E+03	7.614503E-03	1.190520E-04
5.831310E+03	7.771756E-03	1.213432E-04
5.841261E+03	7.918838E-03	1.234709E-04
5.851212E+03	8.053198E-03	1.253962E-04
5.861163E+03	8.172618E-03	1.270855E-04
5.871114E+03	8.274993E-03	1.285071E-04
5.881065E+03	8.358859E-03	1.296396E-04
5.891016E+03	8.423019E-03	1.304656E-04
5.900967E+03	8.466988E-03	1.309788E-04
5.910918E+03	8.490319E-03	1.311737E-04
5.920869E+03	8.493412E-03	1.310576E-04
5.930820E+03	8.476822E-03	1.306402E-04
5.940771E+03	8.441533E-03	1.299380E-04
5.950722E+03	8.388808E-03	1.289713E-04
5.960673E+03	8.320146E-03	1.277642E-04
5.970625E+03	8.237117E-03	1.263415E-04
5.980576E+03	8.141467E-03	1.247307E-04
5.990527E+03	8.035047E-03	1.229608E-04
6.000478E+03	7.919464E-03	1.210568E-04
6.010429E+03	7.796483E-03	1.190462E-04
6.020380E+03	7.667699E-03	1.169534E-04
6.030331E+03	7.534418E-03	1.147987E-04
6.040282E+03	7.398103E-03	1.126044E-04
6.050233E+03	7.259768E-03	1.103860E-04
6.060184E+03	7.120417E-03	1.081587E-04
6.070135E+03	6.980826E-03	1.059343E-04
6.080086E+03	6.841772E-03	1.037244E-04
6.090037E+03	6.703713E-03	1.015358E-04
6.099988E+03	6.567124E-03	9.937566E-05
6.109939E+03	6.432341E-03	9.724880E-05
6.119890E+03	6.299579E-03	9.515830E-05
6.129841E+03	6.169148E-03	9.310864E-05
6.139792E+03	6.041157E-03	9.110130E-05
6.149743E+03	5.915839E-03	8.913957E-05
6.159694E+03	5.793569E-03	8.722891E-05
6.169645E+03	5.674670E-03	8.537395E-05
6.179596E+03	5.559713E-03	8.358304E-05
6.189547E+03	5.449072E-03	8.186161E-05
6.199498E+03	5.343295E-03	8.021762E-05
6.209450E+03	5.242721E-03	7.865594E-05
6.219401E+03	5.147900E-03	7.718453E-05
6.229352E+03	5.059198E-03	7.580867E-05
6.239303E+03	4.976953E-03	7.453313E-05
6.249254E+03	4.901595E-03	7.336414E-05
6.259205E+03	4.833249E-03	7.230331E-05
6.269156E+03	4.772095E-03	7.135313E-05
6.279107E+03	4.718290E-03	7.051571E-05
6.289058E+03	4.671753E-03	6.978966E-05
6.299009E+03	4.632361E-03	6.917296E-05
6.308960E+03	4.599959E-03	6.866315E-05
6.318911E+03	4.574325E-03	6.825677E-05
6.328862E+03	4.555036E-03	6.794738E-05
6.338813E+03	4.541823E-03	6.773091E-05
6.348764E+03	4.534317E-03	6.760178E-05
6.358715E+03	4.532115E-03	6.755392E-05
6.368666E+03	4.534897E-03	6.758254E-05
6.378617E+03	4.542443E-03	6.768435E-05
6.388568E+03	4.554539E-03	6.785618E-05
6.398519E+03	4.571051E-03	6.809601E-05
6.408470E+03	4.592053E-03	6.840501E-05
6.418421E+03	4.617619E-03	6.878430E-05
6.428372E+03	4.647958E-03	6.923699E-05
6.438323E+03	4.683242E-03	6.976564E-05
6.448274E+03	4.723791E-03	7.037506E-05
6.458226E+03	4.769839E-03	7.106878E-05
6.468177E+03	4.821375E-03	7.184666E-05
6.478128E+03	4.878361E-03	7.270823E-05
6.488079E+03	4.940413E-03	7.364785E-05
6.498030E+03	5.007101E-03	7.465916E-05
6.507981E+03	5.078203E-03	7.573899E-05
6.517932E+03	5.153897E-03	7.689006E-05
6.527883E+03	5.234356E-03	7.811511E-05
6.537834E+03	5.319487E-03	7.941284E-05
6.547785E+03	5.408747E-03	8.077529E-05
6.557736E+03	5.501456E-03	8.219244E-05
6.567687E+03	5.596594E-03	8.364916E-05
6.577638E+03	5.692977E-03	8.512787E-05
6.587589E+03	5.789306E-03	8.660922E-05
6.597540E+03	5.884285E-03	8.807388E-05
6.607491E+03	5.976559E-03	8.950157E-05
6.617442E+03	6.064799E-03	9.087239E-05
6.627393E+03	6.147840E-03	9.216881E-05
6.637344E+03	6.224414E-03	9.337171E-05
6.647295E+03	6.293684E-03	9.446839E-05
6.657246E+03	6.354775E-03	9.544554E-05
6.667197E+03	6.407082E-03	9.629382E-05
6.677148E+03	6.450272E-03	9.700800E-05
6.687099E+03	6.484086E-03	9.758387E-05
6.697051E+03	6.508622E-03	9.802262E-05
6.707002E+03	6.523981E-03	9.832544E-05
6.716953E+03	6.530748E-03	9.850082E-05
6.726904E+03	6.529562E-03	9.855810E-05
6.736855E+03	6.521147E-03	9.850786E-05
6.746806E+03	6.506379E-03	9.836305E-05
6.756757E+03	6.486544E-03	9.814284E-05
6.766708E+03	6.462576E-03	9.786115E-05
6.776659E+03	6.435753E-03	9.753713E-05
6.786610E+03	6.407373E-03	9.719028E-05
6.796561E+03	6.378568E-03	9.683768E-05
6.806512E+03	6.350488E-03	9.649674E-05
6.816463E+03	6.324194E-03	9.618354E-05
6.826414E+03	6.300624E-03	9.591240E-05
6.836365E+03	6.280644E-03	9.569658E-05
6.846316E+03	6.264716E-03	9.554322E-05
6.856267E+03	6.253349E-03	9.546022E-05
6.866218E+03	6.246835E-03	9.545220E-05
6.876169E+03	6.245040E-03	9.551730E-05
6.886120E+03	6.247916E-03	9.565492E-05
6.896071E+03	6.254989E-03	9.585802E-05
6.906022E+03	6.265611E-03	9.611681E-05
6.915973E+03	6.279174E-03	9.642207E-05
6.925924E+03	6.294724E-03	9.675928E-05
6.935875E+03	6.311204E-03	9.711221E-05
6.945827E+03	6.327710E-03	9.746700E-05
6.955778E+03	6.343105E-03	9.780607E-05
6.965729E+03	6.356254E-03	9.811182E-05
6.975680E+03	6.366336E-03	9.837146E-05
6.985631E+03	6.372377E-03	9.856973E-05
6.995582E+03	6.373631E-03	9.869486E-05
7.005533E+03	6.369425E-03	9.873615E-05
7.015484E+03	6.359480E-03	9.868898E-05
7.025435E+03	6.343478E-03	9.854810E-05
7.035386E+03	6.321333E-03	9.831182E-05
7.045337E+03	6.293139E-03	9.798127E-05
7.055288E+03	6.259113E-03	9.755947E-05
7.065239E+03	6.219591E-03	9.705137E-05
7.075190E+03	6.175080E-03	9.646453E-05
7.085141E+03	6.125903E-03	9.580375E-05
7.095092E+03	6.072649E-03	9.507794E-05
7.105043E+03	6.015912E-03	9.429619E-05
7.114994E+03	5.956111E-03	9.346484E-05
7.124945E+03	5.893712E-03	9.259102E-05
7.134896E+03	5.829138E-03	9.168124E-05
7.144847E+03	5.762756E-03	9.074110E-05
7.154798E+03	5.694949E-03	8.977652E-05
7.164749E+03	5.625836E-03	8.878928E-05
7.174700E+03	5.555851E-03	8.778614E-05
7.184652E+03	5.484945E-03	8.676625E-05
7.194603E+03	5.413399E-03	8.573398E-05
7.204554E+03	5.341267E-03	8.469014E-05
7.214505E+03	5.268715E-03	8.363730E-05
7.224456E+03	5.195766E-03	8.257578E-05
7.234407E+03	5.122589E-03	8.150824E-05
7.244358E+03	5.049277E-03	8.043611E-05
7.254309E+03	4.975881E-03	7.936020E-05
7.264260E+03	4.902581E-03	7.828333E-05
7.274211E+03	4.829511E-03	7.720766E-05
7.284162E+03	4.756747E-03	7.613440E-05
7.294113E+03	4.684571E-03	7.506805E-05
7.304064E+03	4.613072E-03	7.401008E-05
7.314015E+03	4.542406E-03	7.296299E-05
7.323966E+03	4.472788E-03	7.193032E-05
7.333917E+03	4.404309E-03	7.091354E-05
7.343868E+03	4.337161E-03	6.991583E-05
7.353819E+03	4.271415E-03	6.893837E-05
7.363770E+03	4.207184E-03	6.798308E-05
7.373721E+03	4.144617E-03	6.705244E-05
7.383672E+03	4.083790E-03	6.614777E-05
7.393623E+03	4.024659E-03	6.526845E-05
7.403574E+03	3.967318E-03	6.441610E-05
7.413525E+03	3.911807E-03	6.359147E-05
7.423476E+03	3.858140E-03	6.279488E-05
7.433428E+03	3.806382E-03	6.202749E-05
7.443379E+03	3.756480E-03	6.128856E-05
7.453330E+03	3.708436E-03	6.057821E-05
7.463281E+03	3.662245E-03	5.989646E-05
7.473232E+03	3.617902E-03	5.924337E-05
7.483183E+03	3.575357E-03	5.861819E-05
7.493134E+03	3.534711E-03	5.802270E-05
7.503085E+03	3.495822E-03	5.745466E-05
7.513036E+03	3.458793E-03	5.691589E-05
7.522987E+03	3.423585E-03	5.640583E-05
7.532938E+03	3.390252E-03	5.592552E-05
7.542889E+03	3.358708E-03	5.547363E-05
7.552840E+03	3.329003E-03	5.505108E-05
7.562791E+03	3.301088E-03	5.465721E-05
7.572742E+03	3.275044E-03	5.429344E-05
7.582693E+03	3.250761E-03	5.395806E-05
7.592644E+03	3.228208E-03	5.365069E-05
7.602595E+03	3.207388E-03	5.337147E-05
7.612546E+03	3.188202E-03	5.311888E-05
7.622497E+03	3.170630E-03	5.289266E-05
7.632448E+03	3.154550E-03	5.269091E-05
7.642399E+03	3.139919E-03	5.251299E-05
7.652350E+03	3.126598E-03	5.235667E-05
7.662301E+03	3.114486E-03	5.222034E-05
7.672253E+03	3.103475E-03	5.210227E-05
7.682204E+03	3.093498E-03	5.200143E-05
7.692155E+03	3.084402E-03	5.191529E-05
7.702106E+03	3.076121E-03	5.184281E-05
7.712057E+03	3.068506E-03	5.178155E-05
7.722008E+03	3.061457E-03	5.172986E-05
