#wls	flux	fluxerr
1.592167E+03	2.790854E-04	8.877519E-06
1.631971E+03	2.796613E-04	8.891250E-06
1.671775E+03	2.799753E-04	8.896570E-06
1.711579E+03	2.800723E-04	8.894918E-06
1.751383E+03	2.798609E-04	8.883410E-06
1.791187E+03	2.794561E-04	8.865709E-06
1.830992E+03	2.788399E-04	8.841255E-06
1.870796E+03	2.781039E-04	8.812964E-06
1.910600E+03	2.772577E-04	8.781148E-06
1.950404E+03	2.764645E-04	8.750985E-06
1.990208E+03	2.757575E-04	8.723519E-06
2.030012E+03	2.752254E-04	8.701555E-06
2.069817E+03	2.749626E-04	8.688070E-06
2.109621E+03	2.751549E-04	8.688917E-06
2.149425E+03	2.758502E-04	8.705584E-06
2.189229E+03	2.771365E-04	8.740822E-06
2.229033E+03	2.790926E-04	8.797080E-06
2.268837E+03	2.818726E-04	8.879176E-06
2.308641E+03	2.854841E-04	8.987308E-06
2.348446E+03	2.899628E-04	9.122547E-06
2.388250E+03	2.954156E-04	9.288208E-06
2.428054E+03	3.018010E-04	9.482932E-06
2.467858E+03	3.091053E-04	9.706239E-06
2.507662E+03	3.174370E-04	9.961475E-06
2.547466E+03	3.266689E-04	1.024460E-05
2.587271E+03	3.368012E-04	1.055557E-05
2.627075E+03	3.478783E-04	1.089573E-05
2.666879E+03	3.598049E-04	1.126204E-05
2.706683E+03	3.725814E-04	1.165448E-05
2.746487E+03	3.862140E-04	1.207321E-05
2.786291E+03	4.007656E-04	1.252014E-05
2.826096E+03	4.161037E-04	1.299111E-05
2.865900E+03	4.323977E-04	1.349136E-05
2.905704E+03	4.495599E-04	1.401813E-05
2.945508E+03	4.675903E-04	1.457140E-05
2.985312E+03	4.865220E-04	1.515217E-05
2.995263E+03	4.914031E-04	1.530188E-05
3.005214E+03	4.963291E-04	1.545295E-05
3.015165E+03	5.012977E-04	1.560532E-05
3.025116E+03	5.063072E-04	1.575892E-05
3.035067E+03	5.114086E-04	1.591534E-05
3.045019E+03	5.164917E-04	1.607116E-05
3.054970E+03	5.216615E-04	1.622964E-05
3.064921E+03	5.268616E-04	1.638903E-05
3.074872E+03	5.321431E-04	1.655091E-05
3.084823E+03	5.374484E-04	1.671350E-05
3.094774E+03	5.427746E-04	1.687670E-05
3.104725E+03	5.481179E-04	1.704039E-05
3.114676E+03	5.535298E-04	1.720619E-05
3.124627E+03	5.589518E-04	1.737227E-05
3.134578E+03	5.644357E-04	1.754023E-05
3.144529E+03	5.699230E-04	1.770827E-05
3.154480E+03	5.754095E-04	1.787624E-05
3.164431E+03	5.809472E-04	1.804578E-05
3.174382E+03	5.865326E-04	1.821677E-05
3.184333E+03	5.921077E-04	1.838740E-05
3.194284E+03	5.976684E-04	1.855756E-05
3.204235E+03	6.033233E-04	1.873062E-05
3.214186E+03	6.089032E-04	1.890131E-05
3.224137E+03	6.145723E-04	1.907475E-05
3.234088E+03	6.202178E-04	1.924742E-05
3.244039E+03	6.258938E-04	1.942102E-05
3.253990E+03	6.315988E-04	1.959548E-05
3.263941E+03	6.372772E-04	1.976910E-05
3.273892E+03	6.429853E-04	1.994362E-05
3.283843E+03	6.487232E-04	2.011903E-05
3.293795E+03	6.544932E-04	2.029542E-05
3.303746E+03	6.602973E-04	2.047284E-05
3.313697E+03	6.660841E-04	2.064971E-05
3.323648E+03	6.719682E-04	2.082957E-05
3.333599E+03	6.778451E-04	2.100919E-05
3.343550E+03	6.838310E-04	2.119217E-05
3.353501E+03	6.898238E-04	2.137534E-05
3.363452E+03	6.959425E-04	2.156240E-05
3.373403E+03	7.021414E-04	2.175193E-05
3.383354E+03	7.083776E-04	2.194259E-05
3.393305E+03	7.147732E-04	2.213817E-05
3.403256E+03	7.212868E-04	2.233740E-05
3.413207E+03	7.279894E-04	2.254246E-05
3.423158E+03	7.348412E-04	2.275212E-05
3.433109E+03	7.418046E-04	2.296523E-05
3.443060E+03	7.490616E-04	2.318741E-05
3.453011E+03	7.564632E-04	2.341405E-05
3.462962E+03	7.641303E-04	2.364890E-05
3.472913E+03	7.720691E-04	2.389213E-05
3.482864E+03	7.802252E-04	2.414208E-05
3.492815E+03	7.885970E-04	2.439869E-05
3.502766E+03	7.972366E-04	2.466357E-05
3.512717E+03	8.060874E-04	2.493497E-05
3.522668E+03	8.152006E-04	2.521447E-05
3.532620E+03	8.245754E-04	2.550205E-05
3.542571E+03	8.341560E-04	2.579597E-05
3.552522E+03	8.439961E-04	2.609791E-05
3.562473E+03	8.540968E-04	2.640789E-05
3.572424E+03	8.644590E-04	2.672594E-05
3.582375E+03	8.750300E-04	2.705042E-05
3.592326E+03	8.858675E-04	2.738313E-05
3.602277E+03	8.969752E-04	2.772417E-05
3.612228E+03	9.083583E-04	2.807370E-05
3.622179E+03	9.200216E-04	2.843187E-05
3.632130E+03	9.319169E-04	2.879720E-05
3.642081E+03	9.441609E-04	2.917328E-05
3.652032E+03	9.567067E-04	2.955866E-05
3.661983E+03	9.695071E-04	2.995189E-05
3.671934E+03	9.826826E-04	3.035668E-05
3.681885E+03	9.961869E-04	3.077161E-05
3.691836E+03	1.010030E-03	3.119698E-05
3.701787E+03	1.024223E-03	3.163314E-05
3.711738E+03	1.038777E-03	3.208041E-05
3.721689E+03	1.053758E-03	3.254085E-05
3.731640E+03	1.069066E-03	3.301138E-05
3.741591E+03	1.084825E-03	3.349579E-05
3.751542E+03	1.100990E-03	3.399270E-05
3.761493E+03	1.117628E-03	3.450420E-05
3.771444E+03	1.134694E-03	3.502890E-05
3.781396E+03	1.152142E-03	3.556533E-05
3.791347E+03	1.170153E-03	3.611912E-05
3.801298E+03	1.188564E-03	3.668524E-05
3.811249E+03	1.207500E-03	3.726753E-05
3.821200E+03	1.226911E-03	3.786446E-05
3.831151E+03	1.246863E-03	3.847803E-05
3.841102E+03	1.267304E-03	3.910667E-05
3.851053E+03	1.288240E-03	3.975053E-05
3.861004E+03	1.309733E-03	4.041154E-05
3.870955E+03	1.331727E-03	4.108801E-05
3.880906E+03	1.354225E-03	4.177997E-05
3.890857E+03	1.377227E-03	4.248742E-05
3.900808E+03	1.400791E-03	4.321221E-05
3.910759E+03	1.424856E-03	4.395239E-05
3.920710E+03	1.449478E-03	4.470974E-05
3.930661E+03	1.474531E-03	4.548033E-05
3.940612E+03	1.500131E-03	4.626774E-05
3.950563E+03	1.526207E-03	4.706980E-05
3.960514E+03	1.552750E-03	4.788624E-05
3.970465E+03	1.579812E-03	4.871863E-05
3.980416E+03	1.607256E-03	4.956274E-05
3.990367E+03	1.635192E-03	5.042200E-05
4.000318E+03	1.663479E-03	5.129206E-05
4.010269E+03	1.692165E-03	5.217436E-05
4.020221E+03	1.721296E-03	5.307033E-05
4.030172E+03	1.750725E-03	5.397545E-05
4.040123E+03	1.780497E-03	5.489111E-05
4.050074E+03	1.810526E-03	5.581465E-05
4.060025E+03	1.840921E-03	5.674945E-05
4.069976E+03	1.871530E-03	5.769079E-05
4.079927E+03	1.902331E-03	5.863799E-05
4.089878E+03	1.933366E-03	5.959237E-05
4.099829E+03	1.964546E-03	6.055118E-05
4.109780E+03	1.995848E-03	6.151371E-05
4.119731E+03	2.027248E-03	6.247923E-05
4.129682E+03	2.058792E-03	6.344915E-05
4.139633E+03	2.090323E-03	6.441861E-05
4.149584E+03	2.121887E-03	6.538905E-05
4.159535E+03	2.153463E-03	6.635984E-05
4.169486E+03	2.185033E-03	6.733040E-05
4.179437E+03	2.216513E-03	6.829811E-05
4.189388E+03	2.247884E-03	6.926248E-05
4.199339E+03	2.279205E-03	7.022524E-05
4.209290E+03	2.310396E-03	7.118397E-05
4.219241E+03	2.341452E-03	7.213849E-05
4.229192E+03	2.372301E-03	7.308661E-05
4.239143E+03	2.403085E-03	7.403267E-05
4.249094E+03	2.433673E-03	7.497270E-05
4.259045E+03	2.464083E-03	7.590716E-05
4.268997E+03	2.494406E-03	7.683893E-05
4.278948E+03	2.524605E-03	7.776684E-05
4.288899E+03	2.554723E-03	7.869223E-05
4.298850E+03	2.584741E-03	7.961452E-05
4.308801E+03	2.614867E-03	8.054007E-05
4.318752E+03	2.645034E-03	8.146687E-05
4.328703E+03	2.675328E-03	8.239754E-05
4.338654E+03	2.705914E-03	8.333715E-05
4.348605E+03	2.736813E-03	8.428640E-05
4.358556E+03	2.768112E-03	8.524790E-05
4.368507E+03	2.799867E-03	8.622342E-05
4.378458E+03	2.832027E-03	8.721138E-05
4.388409E+03	2.864641E-03	8.821325E-05
4.398360E+03	2.897581E-03	8.922517E-05
4.408311E+03	2.930851E-03	9.024718E-05
4.418262E+03	2.964301E-03	9.127467E-05
4.428213E+03	2.997777E-03	9.230296E-05
4.438164E+03	3.031352E-03	9.333424E-05
4.448115E+03	3.064811E-03	9.436188E-05
4.458066E+03	3.098162E-03	9.538618E-05
4.468017E+03	3.131277E-03	9.640316E-05
4.477968E+03	3.164180E-03	9.741358E-05
4.487919E+03	3.196680E-03	9.841153E-05
4.497870E+03	3.228888E-03	9.940044E-05
4.507822E+03	3.260697E-03	1.003771E-04
4.517773E+03	3.292082E-03	1.013406E-04
4.527724E+03	3.322943E-03	1.022879E-04
4.537675E+03	3.353413E-03	1.032232E-04
4.547626E+03	3.383250E-03	1.041389E-04
4.557577E+03	3.412666E-03	1.050416E-04
4.567528E+03	3.441426E-03	1.059241E-04
4.577479E+03	3.469671E-03	1.067906E-04
4.587430E+03	3.497395E-03	1.076411E-04
4.597381E+03	3.524442E-03	1.084708E-04
4.607332E+03	3.550960E-03	1.092841E-04
4.617283E+03	3.576872E-03	1.100787E-04
4.627234E+03	3.602174E-03	1.108544E-04
4.637185E+03	3.626791E-03	1.116091E-04
4.647136E+03	3.650875E-03	1.123473E-04
4.657087E+03	3.674351E-03	1.130668E-04
4.667038E+03	3.697143E-03	1.137651E-04
4.676989E+03	3.719405E-03	1.144471E-04
4.686940E+03	3.740985E-03	1.151081E-04
4.696891E+03	3.761962E-03	1.157505E-04
4.706842E+03	3.782337E-03	1.163742E-04
4.716793E+03	3.802109E-03	1.169795E-04
4.726744E+03	3.821281E-03	1.175661E-04
4.736695E+03	3.839776E-03	1.181319E-04
4.746646E+03	3.857745E-03	1.186816E-04
4.756598E+03	3.875036E-03	1.192102E-04
4.766549E+03	3.891723E-03	1.197203E-04
4.776500E+03	3.907803E-03	1.202116E-04
4.786451E+03	3.923273E-03	1.206841E-04
4.796402E+03	3.938053E-03	1.211354E-04
4.806353E+03	3.952289E-03	1.215698E-04
4.816304E+03	3.965901E-03	1.219851E-04
4.826255E+03	3.978880E-03	1.223808E-04
4.836206E+03	3.991143E-03	1.227544E-04
4.846157E+03	4.002834E-03	1.231104E-04
4.856108E+03	4.013944E-03	1.234485E-04
4.866059E+03	4.024307E-03	1.237636E-04
4.876010E+03	4.034072E-03	1.240602E-04
4.885961E+03	4.043145E-03	1.243355E-04
4.895912E+03	4.051518E-03	1.245893E-04
4.905863E+03	4.059253E-03	1.248234E-04
4.915814E+03	4.066261E-03	1.250351E-04
4.925765E+03	4.072610E-03	1.252265E-04
4.935716E+03	4.078209E-03	1.253947E-04
4.945667E+03	4.083126E-03	1.255420E-04
4.955618E+03	4.087345E-03	1.256678E-04
4.965569E+03	4.090781E-03	1.257694E-04
4.975520E+03	4.093505E-03	1.258491E-04
4.985471E+03	4.095499E-03	1.259064E-04
4.995423E+03	4.096767E-03	1.259413E-04
5.005374E+03	4.097295E-03	1.259534E-04
5.015325E+03	4.097006E-03	1.259404E-04
5.025276E+03	4.096044E-03	1.259067E-04
5.035227E+03	4.094338E-03	1.258500E-04
5.045178E+03	4.091808E-03	1.257680E-04
5.055129E+03	4.088611E-03	1.256655E-04
5.065080E+03	4.084749E-03	1.255425E-04
5.075031E+03	4.080080E-03	1.253947E-04
5.084982E+03	4.074688E-03	1.252247E-04
5.094933E+03	4.068652E-03	1.250348E-04
5.104884E+03	4.061918E-03	1.248235E-04
5.114835E+03	4.054573E-03	1.245934E-04
5.124786E+03	4.046486E-03	1.243404E-04
5.134737E+03	4.037900E-03	1.240721E-04
5.144688E+03	4.028616E-03	1.237824E-04
5.154639E+03	4.018802E-03	1.234764E-04
5.164590E+03	4.008419E-03	1.231528E-04
5.174541E+03	3.997565E-03	1.228148E-04
5.184492E+03	3.986201E-03	1.224612E-04
5.194443E+03	3.974362E-03	1.220929E-04
5.204394E+03	3.962156E-03	1.217134E-04
5.214345E+03	3.949622E-03	1.213237E-04
5.224296E+03	3.936733E-03	1.209233E-04
5.234248E+03	3.923536E-03	1.205133E-04
5.244199E+03	3.910145E-03	1.200974E-04
5.254150E+03	3.896546E-03	1.196750E-04
5.264101E+03	3.882858E-03	1.192500E-04
5.274052E+03	3.869073E-03	1.188220E-04
5.284003E+03	3.855250E-03	1.183928E-04
5.293954E+03	3.841519E-03	1.179665E-04
5.303905E+03	3.827883E-03	1.175431E-04
5.313856E+03	3.814477E-03	1.171268E-04
5.323807E+03	3.801312E-03	1.167178E-04
5.333758E+03	3.788531E-03	1.163208E-04
5.343709E+03	3.776154E-03	1.159360E-04
5.353660E+03	3.764333E-03	1.155684E-04
5.363611E+03	3.753097E-03	1.152188E-04
5.373562E+03	3.742546E-03	1.148902E-04
5.383513E+03	3.732847E-03	1.145877E-04
5.393464E+03	3.724047E-03	1.143129E-04
5.403415E+03	3.716323E-03	1.140711E-04
5.413366E+03	3.709732E-03	1.138640E-04
5.423317E+03	3.704396E-03	1.136955E-04
5.433268E+03	3.700504E-03	1.135713E-04
5.443219E+03	3.698171E-03	1.134950E-04
5.453170E+03	3.697438E-03	1.134677E-04
5.463121E+03	3.698443E-03	1.134938E-04
5.473072E+03	3.701150E-03	1.135721E-04
5.483024E+03	3.705597E-03	1.137038E-04
5.492975E+03	3.711654E-03	1.138848E-04
5.502926E+03	3.719287E-03	1.141142E-04
5.512877E+03	3.728390E-03	1.143886E-04
5.522828E+03	3.738786E-03	1.147027E-04
5.532779E+03	3.750427E-03	1.150550E-04
5.542730E+03	3.763201E-03	1.154419E-04
5.552681E+03	3.777002E-03	1.158603E-04
5.562632E+03	3.791725E-03	1.163070E-04
5.572583E+03	3.807206E-03	1.167768E-04
5.582534E+03	3.823476E-03	1.172708E-04
5.592485E+03	3.840311E-03	1.177821E-04
5.602436E+03	3.857749E-03	1.183118E-04
5.612387E+03	3.875569E-03	1.188532E-04
5.622338E+03	3.893815E-03	1.194076E-04
5.632289E+03	3.912332E-03	1.199702E-04
5.642240E+03	3.931033E-03	1.205385E-04
5.652191E+03	3.949902E-03	1.211118E-04
5.662142E+03	3.968784E-03	1.216854E-04
5.672093E+03	3.987595E-03	1.222569E-04
5.682044E+03	4.006318E-03	1.228256E-04
5.691995E+03	4.024800E-03	1.233868E-04
5.701946E+03	4.043020E-03	1.239399E-04
5.711897E+03	4.060831E-03	1.244805E-04
5.721849E+03	4.078218E-03	1.250080E-04
5.731800E+03	4.095093E-03	1.255198E-04
5.741751E+03	4.111305E-03	1.260112E-04
5.751702E+03	4.126839E-03	1.264818E-04
5.761653E+03	4.141617E-03	1.269291E-04
5.771604E+03	4.155561E-03	1.273509E-04
5.781555E+03	4.168515E-03	1.277423E-04
5.791506E+03	4.180550E-03	1.281055E-04
5.801457E+03	4.191451E-03	1.284339E-04
5.811408E+03	4.201286E-03	1.287297E-04
5.821359E+03	4.209851E-03	1.289865E-04
5.831310E+03	4.217152E-03	1.292046E-04
5.841261E+03	4.223202E-03	1.293843E-04
5.851212E+03	4.227804E-03	1.295196E-04
5.861163E+03	4.231056E-03	1.296136E-04
5.871114E+03	4.232765E-03	1.296604E-04
5.881065E+03	4.233051E-03	1.296635E-04
5.891016E+03	4.231798E-03	1.296196E-04
5.900967E+03	4.228987E-03	1.295279E-04
5.910918E+03	4.224604E-03	1.293881E-04
5.920869E+03	4.218636E-03	1.291998E-04
5.930820E+03	4.211085E-03	1.289630E-04
5.940771E+03	4.202017E-03	1.286798E-04
5.950722E+03	4.191378E-03	1.283486E-04
5.960673E+03	4.179113E-03	1.279676E-04
5.970625E+03	4.165389E-03	1.275420E-04
5.980576E+03	4.150170E-03	1.270707E-04
5.990527E+03	4.133561E-03	1.265569E-04
6.000478E+03	4.115466E-03	1.259976E-04
6.010429E+03	4.096075E-03	1.253988E-04
6.020380E+03	4.075303E-03	1.247578E-04
6.030331E+03	4.053356E-03	1.240808E-04
6.040282E+03	4.030221E-03	1.233677E-04
6.050233E+03	4.005975E-03	1.226205E-04
6.060184E+03	3.980685E-03	1.218416E-04
6.070135E+03	3.954433E-03	1.210332E-04
6.080086E+03	3.927367E-03	1.202001E-04
6.090037E+03	3.899427E-03	1.193403E-04
6.099988E+03	3.870838E-03	1.184608E-04
6.109939E+03	3.841615E-03	1.175619E-04
6.119890E+03	3.811777E-03	1.166444E-04
6.129841E+03	3.781546E-03	1.157149E-04
6.139792E+03	3.750943E-03	1.147742E-04
6.149743E+03	3.720052E-03	1.138248E-04
6.159694E+03	3.689030E-03	1.128714E-04
6.169645E+03	3.657827E-03	1.119127E-04
6.179596E+03	3.626596E-03	1.109532E-04
6.189547E+03	3.595485E-03	1.099975E-04
6.199498E+03	3.564448E-03	1.090442E-04
6.209450E+03	3.533694E-03	1.080997E-04
6.219401E+03	3.503173E-03	1.071624E-04
6.229352E+03	3.473093E-03	1.062387E-04
6.239303E+03	3.443463E-03	1.053289E-04
6.249254E+03	3.414358E-03	1.044353E-04
6.259205E+03	3.385911E-03	1.035619E-04
6.269156E+03	3.358068E-03	1.027071E-04
6.279107E+03	3.331021E-03	1.018768E-04
6.289058E+03	3.304772E-03	1.010710E-04
6.299009E+03	3.279388E-03	1.002917E-04
6.308960E+03	3.254988E-03	9.954265E-05
6.318911E+03	3.231513E-03	9.882200E-05
6.328862E+03	3.209140E-03	9.813515E-05
6.338813E+03	3.187924E-03	9.748378E-05
6.348764E+03	3.167799E-03	9.686589E-05
6.358715E+03	3.148993E-03	9.628842E-05
6.368666E+03	3.131377E-03	9.574743E-05
6.378617E+03	3.115111E-03	9.524783E-05
6.388568E+03	3.100236E-03	9.479088E-05
6.398519E+03	3.086731E-03	9.437587E-05
6.408470E+03	3.074624E-03	9.400374E-05
6.418421E+03	3.064058E-03	9.367878E-05
6.428372E+03	3.054875E-03	9.339622E-05
6.438323E+03	3.047258E-03	9.316164E-05
6.448274E+03	3.041093E-03	9.297152E-05
6.458226E+03	3.036428E-03	9.282736E-05
6.468177E+03	3.033248E-03	9.272865E-05
6.478128E+03	3.031528E-03	9.267469E-05
6.488079E+03	3.031246E-03	9.266476E-05
6.498030E+03	3.032318E-03	9.269631E-05
6.507981E+03	3.034838E-03	9.277219E-05
6.517932E+03	3.038723E-03	9.288986E-05
6.527883E+03	3.043949E-03	9.304862E-05
6.537834E+03	3.050493E-03	9.324772E-05
6.547785E+03	3.058325E-03	9.348627E-05
6.557736E+03	3.067410E-03	9.376319E-05
6.567687E+03	3.077762E-03	9.407892E-05
6.577638E+03	3.089270E-03	9.443005E-05
6.587589E+03	3.101934E-03	9.481657E-05
6.597540E+03	3.115567E-03	9.523278E-05
6.607491E+03	3.130278E-03	9.568202E-05
6.617442E+03	3.145871E-03	9.615827E-05
6.627393E+03	3.162266E-03	9.665911E-05
6.637344E+03	3.179507E-03	9.718585E-05
6.647295E+03	3.197386E-03	9.773221E-05
6.657246E+03	3.215822E-03	9.829562E-05
6.667197E+03	3.234857E-03	9.887742E-05
6.677148E+03	3.254282E-03	9.947122E-05
6.687099E+03	3.274081E-03	1.000765E-04
6.697051E+03	3.294172E-03	1.006908E-04
6.707002E+03	3.314478E-03	1.013117E-04
6.716953E+03	3.334856E-03	1.019349E-04
6.726904E+03	3.355364E-03	1.025621E-04
6.736855E+03	3.375863E-03	1.031892E-04
6.746806E+03	3.396284E-03	1.038139E-04
6.756757E+03	3.416559E-03	1.044343E-04
6.766708E+03	3.436623E-03	1.050482E-04
6.776659E+03	3.456484E-03	1.056561E-04
6.786610E+03	3.475943E-03	1.062517E-04
6.796561E+03	3.495082E-03	1.068376E-04
6.806512E+03	3.513777E-03	1.074100E-04
6.816463E+03	3.531977E-03	1.079674E-04
6.826414E+03	3.549704E-03	1.085104E-04
6.836365E+03	3.566768E-03	1.090331E-04
6.846316E+03	3.583270E-03	1.095388E-04
6.856267E+03	3.599168E-03	1.100261E-04
6.866218E+03	3.614280E-03	1.104895E-04
6.876169E+03	3.628713E-03	1.109322E-04
6.886120E+03	3.642363E-03	1.113510E-04
6.896071E+03	3.655272E-03	1.117472E-04
6.906022E+03	3.667337E-03	1.121177E-04
6.915973E+03	3.678532E-03	1.124617E-04
6.925924E+03	3.688833E-03	1.127784E-04
6.935875E+03	3.698295E-03	1.130696E-04
6.945827E+03	3.706822E-03	1.133322E-04
6.955778E+03	3.714399E-03	1.135659E-04
6.965729E+03	3.721088E-03	1.137725E-04
6.975680E+03	3.726724E-03	1.139470E-04
6.985631E+03	3.731452E-03	1.140937E-04
6.995582E+03	3.735189E-03	1.142103E-04
7.005533E+03	3.737929E-03	1.142964E-04
7.015484E+03	3.739673E-03	1.143522E-04
7.025435E+03	3.740497E-03	1.143799E-04
7.035386E+03	3.740251E-03	1.143749E-04
7.045337E+03	3.739016E-03	1.143398E-04
7.055288E+03	3.736880E-03	1.142772E-04
7.065239E+03	3.733698E-03	1.141826E-04
7.075190E+03	3.729558E-03	1.140588E-04
7.085141E+03	3.724555E-03	1.139087E-04
7.095092E+03	3.718550E-03	1.137280E-04
7.105043E+03	3.711562E-03	1.135173E-04
7.114994E+03	3.703768E-03	1.132820E-04
7.124945E+03	3.695035E-03	1.130180E-04
7.134896E+03	3.685467E-03	1.127286E-04
7.144847E+03	3.675012E-03	1.124120E-04
7.154798E+03	3.663776E-03	1.120716E-04
7.164749E+03	3.651712E-03	1.117060E-04
7.174700E+03	3.638927E-03	1.113183E-04
7.184652E+03	3.625376E-03	1.109073E-04
7.194603E+03	3.611170E-03	1.104763E-04
7.204554E+03	3.596266E-03	1.100239E-04
7.214505E+03	3.580699E-03	1.095513E-04
7.224456E+03	3.564505E-03	1.090595E-04
7.234407E+03	3.547794E-03	1.085520E-04
7.244358E+03	3.530452E-03	1.080252E-04
7.254309E+03	3.512666E-03	1.074849E-04
7.264260E+03	3.494323E-03	1.069275E-04
7.274211E+03	3.475607E-03	1.063588E-04
7.284162E+03	3.456407E-03	1.057753E-04
7.294113E+03	3.436833E-03	1.051804E-04
7.304064E+03	3.416919E-03	1.045751E-04
7.314015E+03	3.396700E-03	1.039604E-04
7.323966E+03	3.376138E-03	1.033354E-04
7.333917E+03	3.355339E-03	1.027030E-04
7.343868E+03	3.334334E-03	1.020644E-04
7.353819E+03	3.313084E-03	1.014184E-04
7.363770E+03	3.291692E-03	1.007680E-04
7.373721E+03	3.270116E-03	1.001119E-04
7.383672E+03	3.248454E-03	9.945333E-05
7.393623E+03	3.226665E-03	9.879083E-05
7.403574E+03	3.204845E-03	9.812738E-05
7.413525E+03	3.182880E-03	9.745953E-05
7.423476E+03	3.161001E-03	9.679432E-05
7.433428E+03	3.139025E-03	9.612618E-05
7.443379E+03	3.117111E-03	9.545993E-05
7.453330E+03	3.095211E-03	9.479413E-05
7.463281E+03	3.073345E-03	9.412938E-05
7.473232E+03	3.051597E-03	9.346828E-05
7.483183E+03	3.029853E-03	9.280729E-05
7.493134E+03	3.008260E-03	9.215093E-05
7.503085E+03	2.986767E-03	9.149768E-05
7.513036E+03	2.965390E-03	9.084796E-05
7.522987E+03	2.944140E-03	9.020218E-05
7.532938E+03	2.923031E-03	8.956072E-05
7.542889E+03	2.902075E-03	8.892393E-05
7.552840E+03	2.881281E-03	8.829216E-05
7.562791E+03	2.860724E-03	8.766763E-05
7.572742E+03	2.840287E-03	8.704681E-05
7.582693E+03	2.820043E-03	8.643191E-05
7.592644E+03	2.800062E-03	8.582507E-05
7.602595E+03	2.780229E-03	8.522281E-05
7.612546E+03	2.760615E-03	8.462725E-05
7.622497E+03	2.741229E-03	8.403867E-05
7.632448E+03	2.722137E-03	8.345916E-05
7.642399E+03	2.703229E-03	8.288529E-05
7.652350E+03	2.684574E-03	8.231918E-05
7.662301E+03	2.666121E-03	8.175931E-05
7.672253E+03	2.647999E-03	8.120958E-05
7.682204E+03	2.630159E-03	8.066851E-05
7.692155E+03	2.612611E-03	8.013641E-05
7.702106E+03	2.595308E-03	7.961186E-05
7.712057E+03	2.578322E-03	7.909705E-05
7.722008E+03	2.561666E-03	7.859236E-05
