#wls	flux	fluxerr
1.592167E+03	1.109387E-04	2.308276E-06
1.631971E+03	1.115021E-04	2.312076E-06
1.671775E+03	1.120913E-04	2.316140E-06
1.711579E+03	1.127297E-04	2.320943E-06
1.751383E+03	1.134016E-04	2.326142E-06
1.791187E+03	1.141115E-04	2.331819E-06
1.830992E+03	1.148644E-04	2.338056E-06
1.870796E+03	1.156657E-04	2.344949E-06
1.910600E+03	1.165418E-04	2.353010E-06
1.950404E+03	1.174581E-04	2.361519E-06
1.990208E+03	1.184629E-04	2.371423E-06
2.030012E+03	1.195642E-04	2.382848E-06
2.069817E+03	1.207280E-04	2.395090E-06
2.109621E+03	1.220052E-04	2.409125E-06
2.149425E+03	1.233840E-04	2.424681E-06
2.189229E+03	1.248744E-04	2.441914E-06
2.229033E+03	1.265090E-04	2.461415E-06
2.268837E+03	1.282776E-04	2.482931E-06
2.308641E+03	1.301923E-04	2.506645E-06
2.348446E+03	1.322663E-04	2.532749E-06
2.388250E+03	1.345368E-04	2.561889E-06
2.428054E+03	1.369728E-04	2.593400E-06
2.467858E+03	1.396616E-04	2.628856E-06
2.507662E+03	1.425498E-04	2.667158E-06
2.547466E+03	1.457053E-04	2.709481E-06
2.587271E+03	1.490991E-04	2.755181E-06
2.627075E+03	1.528307E-04	2.805979E-06
2.666879E+03	1.568475E-04	2.860776E-06
2.706683E+03	1.612294E-04	2.920893E-06
2.746487E+03	1.659789E-04	2.986217E-06
2.786291E+03	1.711274E-04	3.057145E-06
2.826096E+03	1.767385E-04	3.134631E-06
2.865900E+03	1.827897E-04	3.218069E-06
2.905704E+03	1.893812E-04	3.309012E-06
2.945508E+03	1.965580E-04	3.407998E-06
2.985312E+03	2.042998E-04	3.514411E-06
2.995263E+03	2.063601E-04	3.542771E-06
3.005214E+03	2.084269E-04	3.571079E-06
3.015165E+03	2.105353E-04	3.599935E-06
3.025116E+03	2.127219E-04	3.629956E-06
3.035067E+03	2.149162E-04	3.659936E-06
3.045019E+03	2.171910E-04	3.691108E-06
3.054970E+03	2.194746E-04	3.722249E-06
3.064921E+03	2.218409E-04	3.754607E-06
3.074872E+03	2.242169E-04	3.786942E-06
3.084823E+03	2.266781E-04	3.820522E-06
3.094774E+03	2.291881E-04	3.854728E-06
3.104725E+03	2.317093E-04	3.888922E-06
3.114676E+03	2.343193E-04	3.924403E-06
3.124627E+03	2.369413E-04	3.959877E-06
3.134578E+03	2.396547E-04	3.996666E-06
3.144529E+03	2.424215E-04	4.034127E-06
3.154480E+03	2.452014E-04	4.071588E-06
3.164431E+03	2.480769E-04	4.110409E-06
3.174382E+03	2.509665E-04	4.149236E-06
3.184333E+03	2.539541E-04	4.189451E-06
3.194284E+03	2.569996E-04	4.230379E-06
3.204235E+03	2.601036E-04	4.272028E-06
3.214186E+03	2.632235E-04	4.313691E-06
3.224137E+03	2.664470E-04	4.356801E-06
3.234088E+03	2.697319E-04	4.400656E-06
3.244039E+03	2.730340E-04	4.444531E-06
3.253990E+03	2.764440E-04	4.489896E-06
3.263941E+03	2.799181E-04	4.536031E-06
3.273892E+03	2.834574E-04	4.582944E-06
3.283843E+03	2.870629E-04	4.630645E-06
3.293795E+03	2.906875E-04	4.678369E-06
3.303746E+03	2.944276E-04	4.727661E-06
3.313697E+03	2.982367E-04	4.777764E-06
3.323648E+03	3.021159E-04	4.828689E-06
3.333599E+03	3.060664E-04	4.880443E-06
3.343550E+03	3.100891E-04	4.933037E-06
3.353501E+03	3.141336E-04	4.985659E-06
3.363452E+03	3.183035E-04	5.039952E-06
3.373403E+03	3.225492E-04	5.095114E-06
3.383354E+03	3.268719E-04	5.151157E-06
3.393305E+03	3.312728E-04	5.208093E-06
3.403256E+03	3.357533E-04	5.265935E-06
3.413207E+03	3.403148E-04	5.324696E-06
3.423158E+03	3.449588E-04	5.384390E-06
3.433109E+03	3.496869E-04	5.445033E-06
3.443060E+03	3.545006E-04	5.506641E-06
3.453011E+03	3.594018E-04	5.569232E-06
3.462962E+03	3.643326E-04	5.631906E-06
3.472913E+03	3.694133E-04	5.696511E-06
3.482864E+03	3.745870E-04	5.762158E-06
3.492815E+03	3.798559E-04	5.828870E-06
3.502766E+03	3.852221E-04	5.896671E-06
3.512717E+03	3.906879E-04	5.965585E-06
3.522668E+03	3.962558E-04	6.035639E-06
3.532620E+03	4.019280E-04	6.106859E-06
3.542571E+03	4.077073E-04	6.179275E-06
3.552522E+03	4.135962E-04	6.252914E-06
3.562473E+03	4.195975E-04	6.327810E-06
3.572424E+03	4.257140E-04	6.403992E-06
3.582375E+03	4.320187E-04	6.482543E-06
3.592326E+03	4.383754E-04	6.561408E-06
3.602277E+03	4.448563E-04	6.641659E-06
3.612228E+03	4.514644E-04	6.723331E-06
3.622179E+03	4.582029E-04	6.806457E-06
3.632130E+03	4.650749E-04	6.891075E-06
3.642081E+03	4.720838E-04	6.977218E-06
3.652032E+03	4.792327E-04	7.064923E-06
3.661983E+03	4.865250E-04	7.154226E-06
3.671934E+03	4.939642E-04	7.245164E-06
3.681885E+03	5.015531E-04	7.337768E-06
3.691836E+03	5.092949E-04	7.432070E-06
3.701787E+03	5.171935E-04	7.528114E-06
3.711738E+03	5.252522E-04	7.625934E-06
3.721689E+03	5.334739E-04	7.725558E-06
3.731640E+03	5.418614E-04	7.827015E-06
3.741591E+03	5.505063E-04	7.931610E-06
3.751542E+03	5.592370E-04	8.036855E-06
3.761493E+03	5.681427E-04	8.144021E-06
3.771444E+03	5.772271E-04	8.253151E-06
3.781396E+03	5.864916E-04	8.364250E-06
3.791347E+03	5.959401E-04	8.477360E-06
3.801298E+03	6.055738E-04	8.592486E-06
3.811249E+03	6.153963E-04	8.709663E-06
3.821200E+03	6.254088E-04	8.828896E-06
3.831151E+03	6.356136E-04	8.950206E-06
3.841102E+03	6.460122E-04	9.073598E-06
3.851053E+03	6.566063E-04	9.199088E-06
3.861004E+03	6.675031E-04	9.328159E-06
3.870955E+03	6.784924E-04	9.457858E-06
3.880906E+03	6.896803E-04	9.589662E-06
3.890857E+03	7.010667E-04	9.723558E-06
3.900808E+03	7.126515E-04	9.859533E-06
3.910759E+03	7.244341E-04	9.997569E-06
3.920710E+03	7.364142E-04	1.013766E-05
3.930661E+03	7.485899E-04	1.027976E-05
3.940612E+03	7.609604E-04	1.042385E-05
3.950563E+03	7.735228E-04	1.056990E-05
3.960514E+03	7.862753E-04	1.071786E-05
3.970465E+03	7.992139E-04	1.086769E-05
3.980416E+03	8.123361E-04	1.101933E-05
3.990367E+03	8.256367E-04	1.117273E-05
4.000318E+03	8.391113E-04	1.132781E-05
4.010269E+03	8.527547E-04	1.148451E-05
4.020221E+03	8.665605E-04	1.164274E-05
4.030172E+03	8.805225E-04	1.180241E-05
4.040123E+03	8.946330E-04	1.196344E-05
4.050074E+03	9.088838E-04	1.212572E-05
4.060025E+03	9.232669E-04	1.228914E-05
4.069976E+03	9.377725E-04	1.245358E-05
4.079927E+03	9.523902E-04	1.261891E-05
4.089878E+03	9.671090E-04	1.278501E-05
4.099829E+03	9.819175E-04	1.295173E-05
4.109780E+03	9.968034E-04	1.311893E-05
4.119731E+03	1.011753E-03	1.328643E-05
4.129682E+03	1.026753E-03	1.345409E-05
4.139633E+03	1.041788E-03	1.362172E-05
4.149584E+03	1.056842E-03	1.378915E-05
4.159535E+03	1.071900E-03	1.395620E-05
4.169486E+03	1.086945E-03	1.412265E-05
4.179437E+03	1.101787E-03	1.428609E-05
4.189388E+03	1.116749E-03	1.445075E-05
4.199339E+03	1.131643E-03	1.461420E-05
4.209290E+03	1.146449E-03	1.477623E-05
4.219241E+03	1.161147E-03	1.493661E-05
4.229192E+03	1.175717E-03	1.509512E-05
4.239143E+03	1.190138E-03	1.525154E-05
4.249094E+03	1.204203E-03	1.540323E-05
4.259045E+03	1.218261E-03	1.555475E-05
4.268997E+03	1.232105E-03	1.570347E-05
4.278948E+03	1.245715E-03	1.584917E-05
4.288899E+03	1.258875E-03	1.598915E-05
4.298850E+03	1.271950E-03	1.612812E-05
4.308801E+03	1.284727E-03	1.626342E-05
4.318752E+03	1.297186E-03	1.639483E-05
4.328703E+03	1.309104E-03	1.651959E-05
4.338654E+03	1.320867E-03	1.664262E-05
4.348605E+03	1.332255E-03	1.676121E-05
4.358556E+03	1.343046E-03	1.687260E-05
4.368507E+03	1.353638E-03	1.698186E-05
4.378458E+03	1.363816E-03	1.708635E-05
4.388409E+03	1.373362E-03	1.718336E-05
4.398360E+03	1.382695E-03	1.727820E-05
4.408311E+03	1.391389E-03	1.736559E-05
4.418262E+03	1.399871E-03	1.745092E-05
4.428213E+03	1.407714E-03	1.752889E-05
4.438164E+03	1.415352E-03	1.760497E-05
4.448115E+03	1.422358E-03	1.767387E-05
4.458066E+03	1.429173E-03	1.774111E-05
4.468017E+03	1.435366E-03	1.780137E-05
4.477968E+03	1.441387E-03	1.786021E-05
4.487919E+03	1.446802E-03	1.791230E-05
4.497870E+03	1.452066E-03	1.796327E-05
4.507822E+03	1.456745E-03	1.800776E-05
4.517773E+03	1.461298E-03	1.805144E-05
4.527724E+03	1.465289E-03	1.808894E-05
4.537675E+03	1.468956E-03	1.812320E-05
4.547626E+03	1.472537E-03	1.815716E-05
4.557577E+03	1.475596E-03	1.818545E-05
4.567528E+03	1.478373E-03	1.821101E-05
4.577479E+03	1.481109E-03	1.823682E-05
4.587430E+03	1.483367E-03	1.825749E-05
4.597381E+03	1.485388E-03	1.827598E-05
4.607332E+03	1.487187E-03	1.829247E-05
4.617283E+03	1.489006E-03	1.830994E-05
4.627234E+03	1.490408E-03	1.832298E-05
4.637185E+03	1.491634E-03	1.833457E-05
4.647136E+03	1.492700E-03	1.834489E-05
4.657087E+03	1.493619E-03	1.835410E-05
4.667038E+03	1.494408E-03	1.836238E-05
4.676989E+03	1.495081E-03	1.836989E-05
4.686940E+03	1.495652E-03	1.837681E-05
4.696891E+03	1.496136E-03	1.838331E-05
4.706842E+03	1.496546E-03	1.838952E-05
4.716793E+03	1.497122E-03	1.839839E-05
4.726744E+03	1.497198E-03	1.840173E-05
4.736695E+03	1.497466E-03	1.840802E-05
4.746646E+03	1.497712E-03	1.841461E-05
4.756598E+03	1.497948E-03	1.842167E-05
4.766549E+03	1.498185E-03	1.842929E-05
4.776500E+03	1.498434E-03	1.843761E-05
4.786451E+03	1.498706E-03	1.844675E-05
4.796402E+03	1.499012E-03	1.845682E-05
4.806353E+03	1.499360E-03	1.846794E-05
4.816304E+03	1.499534E-03	1.847741E-05
4.826255E+03	1.499994E-03	1.849091E-05
4.836206E+03	1.500523E-03	1.850574E-05
4.846157E+03	1.501129E-03	1.852198E-05
4.856108E+03	1.501593E-03	1.853694E-05
4.866059E+03	1.502372E-03	1.855625E-05
4.876010E+03	1.503248E-03	1.857720E-05
4.885961E+03	1.504000E-03	1.859706E-05
4.895912E+03	1.505086E-03	1.862146E-05
4.905863E+03	1.506058E-03	1.864488E-05
4.915814E+03	1.507371E-03	1.867294E-05
4.925765E+03	1.508804E-03	1.870290E-05
4.935716E+03	1.510134E-03	1.873196E-05
4.945667E+03	1.511815E-03	1.876578E-05
4.955618E+03	1.513397E-03	1.879875E-05
4.965569E+03	1.515107E-03	1.883370E-05
4.975520E+03	1.517174E-03	1.887345E-05
4.985471E+03	1.519145E-03	1.891237E-05
4.995423E+03	1.521473E-03	1.895610E-05
5.005374E+03	1.523703E-03	1.899898E-05
5.015325E+03	1.526061E-03	1.904380E-05
5.025276E+03	1.528775E-03	1.909341E-05
5.035227E+03	1.531386E-03	1.914207E-05
5.045178E+03	1.534118E-03	1.919259E-05
5.055129E+03	1.536969E-03	1.924493E-05
5.065080E+03	1.540167E-03	1.930193E-05
5.075031E+03	1.543245E-03	1.935778E-05
5.084982E+03	1.546430E-03	1.941528E-05
5.094933E+03	1.549716E-03	1.947437E-05
5.104884E+03	1.553099E-03	1.953498E-05
5.114835E+03	1.556570E-03	1.959703E-05
5.124786E+03	1.560125E-03	1.966043E-05
5.134737E+03	1.563756E-03	1.972509E-05
5.144688E+03	1.567455E-03	1.979091E-05
5.154639E+03	1.571214E-03	1.985779E-05
5.164590E+03	1.575025E-03	1.992561E-05
5.174541E+03	1.578878E-03	1.999425E-05
5.184492E+03	1.582765E-03	2.006361E-05
5.194443E+03	1.586675E-03	2.013354E-05
5.204394E+03	1.590598E-03	2.020392E-05
5.214345E+03	1.594524E-03	2.027460E-05
5.224296E+03	1.598442E-03	2.034545E-05
5.234248E+03	1.602101E-03	2.041327E-05
5.244199E+03	1.605968E-03	2.048398E-05
5.254150E+03	1.609790E-03	2.055439E-05
5.264101E+03	1.613558E-03	2.062434E-05
5.274052E+03	1.617017E-03	2.069058E-05
5.284003E+03	1.620635E-03	2.075910E-05
5.293954E+03	1.624160E-03	2.082666E-05
5.303905E+03	1.627337E-03	2.088998E-05
5.313856E+03	1.630637E-03	2.095508E-05
5.323807E+03	1.633804E-03	2.101869E-05
5.333758E+03	1.636583E-03	2.107751E-05
5.343709E+03	1.639447E-03	2.113762E-05
5.353660E+03	1.641897E-03	2.119258E-05
5.363611E+03	1.644407E-03	2.124849E-05
5.373562E+03	1.646478E-03	2.129890E-05
5.383513E+03	1.648587E-03	2.134995E-05
5.393464E+03	1.650233E-03	2.139517E-05
5.403415E+03	1.651651E-03	2.143757E-05
5.413366E+03	1.653075E-03	2.148019E-05
5.423317E+03	1.654007E-03	2.151654E-05
5.433268E+03	1.654929E-03	2.155287E-05
5.443219E+03	1.655345E-03	2.158270E-05
5.453170E+03	1.655493E-03	2.160915E-05
5.463121E+03	1.655371E-03	2.163215E-05
5.473072E+03	1.655221E-03	2.165487E-05
5.483024E+03	1.654557E-03	2.167092E-05
5.492975E+03	1.653627E-03	2.168353E-05
5.502926E+03	1.652436E-03	2.169275E-05
5.512877E+03	1.650992E-03	2.169866E-05
5.522828E+03	1.649302E-03	2.170135E-05
5.532779E+03	1.647620E-03	2.170414E-05
5.542730E+03	1.645467E-03	2.170072E-05
5.552681E+03	1.643098E-03	2.169443E-05
5.562632E+03	1.640525E-03	2.168539E-05
5.572583E+03	1.637760E-03	2.167377E-05
5.582534E+03	1.634813E-03	2.165968E-05
5.592485E+03	1.631697E-03	2.164330E-05
5.602436E+03	1.628426E-03	2.162478E-05
5.612387E+03	1.625012E-03	2.160427E-05
5.622338E+03	1.621468E-03	2.158195E-05
5.632289E+03	1.617568E-03	2.155478E-05
5.642240E+03	1.613802E-03	2.152930E-05
5.652191E+03	1.609945E-03	2.150250E-05
5.662142E+03	1.606010E-03	2.147453E-05
5.672093E+03	1.602008E-03	2.144555E-05
5.682044E+03	1.597952E-03	2.141572E-05
5.691995E+03	1.593620E-03	2.138207E-05
5.701946E+03	1.589493E-03	2.135103E-05
5.711897E+03	1.585349E-03	2.131962E-05
5.721849E+03	1.580965E-03	2.128485E-05
5.731800E+03	1.576818E-03	2.125313E-05
5.741751E+03	1.572686E-03	2.122149E-05
5.751702E+03	1.568348E-03	2.118691E-05
5.761653E+03	1.564277E-03	2.115579E-05
5.771604E+03	1.560250E-03	2.112514E-05
5.781555E+03	1.556048E-03	2.109197E-05
5.791506E+03	1.552136E-03	2.106260E-05
5.801457E+03	1.548068E-03	2.103096E-05
5.811408E+03	1.544305E-03	2.100334E-05
5.821359E+03	1.540401E-03	2.097365E-05
5.831310E+03	1.536815E-03	2.094818E-05
5.841261E+03	1.533102E-03	2.092084E-05
5.851212E+03	1.529720E-03	2.089787E-05
5.861163E+03	1.526222E-03	2.087321E-05
5.871114E+03	1.522839E-03	2.085000E-05
5.881065E+03	1.519799E-03	2.083137E-05
5.891016E+03	1.516659E-03	2.081124E-05
5.900967E+03	1.513868E-03	2.079581E-05
5.910918E+03	1.510984E-03	2.077899E-05
5.920869E+03	1.508233E-03	2.076388E-05
5.930820E+03	1.505615E-03	2.075053E-05
5.940771E+03	1.503353E-03	2.074199E-05
5.950722E+03	1.501007E-03	2.073221E-05
5.960673E+03	1.498798E-03	2.072423E-05
5.970625E+03	1.496726E-03	2.071807E-05
5.980576E+03	1.495011E-03	2.071677E-05
5.990527E+03	1.493211E-03	2.071424E-05
6.000478E+03	1.491546E-03	2.071352E-05
6.010429E+03	1.490012E-03	2.071456E-05
6.020380E+03	1.488609E-03	2.071738E-05
6.030331E+03	1.487333E-03	2.072191E-05
6.040282E+03	1.486181E-03	2.072813E-05
6.050233E+03	1.485149E-03	2.073599E-05
6.060184E+03	1.484451E-03	2.074850E-05
6.070135E+03	1.483646E-03	2.075948E-05
6.080086E+03	1.482946E-03	2.077192E-05
6.090037E+03	1.482347E-03	2.078576E-05
6.099988E+03	1.481843E-03	2.080091E-05
6.109939E+03	1.481426E-03	2.081730E-05
6.119890E+03	1.481090E-03	2.083482E-05
6.129841E+03	1.480610E-03	2.085031E-05
6.139792E+03	1.480413E-03	2.086980E-05
6.149743E+03	1.480273E-03	2.089011E-05
6.159694E+03	1.480182E-03	2.091113E-05
6.169645E+03	1.480131E-03	2.093274E-05
6.179596E+03	1.480110E-03	2.095479E-05
6.189547E+03	1.480109E-03	2.097717E-05
6.199498E+03	1.480118E-03	2.099973E-05
6.209450E+03	1.479908E-03	2.101921E-05
6.219401E+03	1.479906E-03	2.104167E-05
6.229352E+03	1.479880E-03	2.106384E-05
6.239303E+03	1.479819E-03	2.108557E-05
6.249254E+03	1.479496E-03	2.110359E-05
6.259205E+03	1.479331E-03	2.112393E-05
6.269156E+03	1.479096E-03	2.114331E-05
6.279107E+03	1.478779E-03	2.116155E-05
6.289058E+03	1.478148E-03	2.117537E-05
6.299009E+03	1.477626E-03	2.119080E-05
6.308960E+03	1.476983E-03	2.120455E-05
6.318911E+03	1.475989E-03	2.121330E-05
6.328862E+03	1.475065E-03	2.122311E-05
6.338813E+03	1.473982E-03	2.123067E-05
6.348764E+03	1.472510E-03	2.123267E-05
6.358715E+03	1.471069E-03	2.123518E-05
6.368666E+03	1.469215E-03	2.123175E-05
6.378617E+03	1.467368E-03	2.122847E-05
6.388568E+03	1.465084E-03	2.121890E-05
6.398519E+03	1.462786E-03	2.120915E-05
6.408470E+03	1.460029E-03	2.119277E-05
6.418421E+03	1.457234E-03	2.117587E-05
6.428372E+03	1.453964E-03	2.115207E-05
6.438323E+03	1.450637E-03	2.112744E-05
6.448274E+03	1.446819E-03	2.109564E-05
6.458226E+03	1.442929E-03	2.106277E-05
6.468177E+03	1.438538E-03	2.102253E-05
6.478128E+03	1.434064E-03	2.098104E-05
6.488079E+03	1.429084E-03	2.093205E-05
6.498030E+03	1.424018E-03	2.088174E-05
6.507981E+03	1.418451E-03	2.082397E-05
6.517932E+03	1.412597E-03	2.076188E-05
6.527883E+03	1.406673E-03	2.069863E-05
6.537834E+03	1.400273E-03	2.062824E-05
6.547785E+03	1.393617E-03	2.055392E-05
6.557736E+03	1.386921E-03	2.047885E-05
6.567687E+03	1.379788E-03	2.039714E-05
6.577638E+03	1.372437E-03	2.031203E-05
6.587589E+03	1.364883E-03	2.022371E-05
6.597540E+03	1.357341E-03	2.013535E-05
6.607491E+03	1.349424E-03	2.004121E-05
6.617442E+03	1.341347E-03	1.994448E-05
6.627393E+03	1.333127E-03	1.984537E-05
6.637344E+03	1.324975E-03	1.974703E-05
6.647295E+03	1.316513E-03	1.964381E-05
6.657246E+03	1.307954E-03	1.953888E-05
6.667197E+03	1.299311E-03	1.943243E-05
6.677148E+03	1.290601E-03	1.932471E-05
6.687099E+03	1.282026E-03	1.921873E-05
6.697051E+03	1.273221E-03	1.910903E-05
6.707002E+03	1.264392E-03	1.899866E-05
6.716953E+03	1.255550E-03	1.888783E-05
6.726904E+03	1.246709E-03	1.877672E-05
6.736855E+03	1.237883E-03	1.866553E-05
6.746806E+03	1.229083E-03	1.855444E-05
6.756757E+03	1.220322E-03	1.844364E-05
6.766708E+03	1.211610E-03	1.833329E-05
6.776659E+03	1.202959E-03	1.822356E-05
6.786610E+03	1.194556E-03	1.811730E-05
6.796561E+03	1.186057E-03	1.800929E-05
6.806512E+03	1.177648E-03	1.790235E-05
6.816463E+03	1.169341E-03	1.779667E-05
6.826414E+03	1.161143E-03	1.769235E-05
6.836365E+03	1.153062E-03	1.758954E-05
6.846316E+03	1.144937E-03	1.748577E-05
6.856267E+03	1.137115E-03	1.738634E-05
6.866218E+03	1.129434E-03	1.728879E-05
6.876169E+03	1.121900E-03	1.719321E-05
6.886120E+03	1.114518E-03	1.709970E-05
6.896071E+03	1.107295E-03	1.700837E-05
6.906022E+03	1.100236E-03	1.691929E-05
6.915973E+03	1.093347E-03	1.683258E-05
6.925924E+03	1.086632E-03	1.674829E-05
6.935875E+03	1.080096E-03	1.666652E-05
6.945827E+03	1.073743E-03	1.658734E-05
6.955778E+03	1.067419E-03	1.650836E-05
6.965729E+03	1.061443E-03	1.643455E-05
6.975680E+03	1.055661E-03	1.636353E-05
6.985631E+03	1.050076E-03	1.629535E-05
6.995582E+03	1.044690E-03	1.623005E-05
7.005533E+03	1.039353E-03	1.616529E-05
7.015484E+03	1.034374E-03	1.610593E-05
7.025435E+03	1.029601E-03	1.604959E-05
7.035386E+03	1.025037E-03	1.599632E-05
7.045337E+03	1.020531E-03	1.594379E-05
7.055288E+03	1.016388E-03	1.589677E-05
7.065239E+03	1.012458E-03	1.585293E-05
7.075190E+03	1.008742E-03	1.581228E-05
7.085141E+03	1.005091E-03	1.577252E-05
7.095092E+03	1.001807E-03	1.573836E-05
7.105043E+03	9.987384E-04	1.570748E-05
7.114994E+03	9.957391E-04	1.567757E-05
7.124945E+03	9.931061E-04	1.565331E-05
7.134896E+03	9.905434E-04	1.563006E-05
7.144847E+03	9.883465E-04	1.561248E-05
7.154798E+03	9.863684E-04	1.559827E-05
7.164749E+03	9.844620E-04	1.558512E-05
7.174700E+03	9.829206E-04	1.557767E-05
7.184652E+03	9.814516E-04	1.557131E-05
7.194603E+03	9.803467E-04	1.557066E-05
7.204554E+03	9.794592E-04	1.557342E-05
7.214505E+03	9.786435E-04	1.557729E-05
7.224456E+03	9.781905E-04	1.558689E-05
7.234407E+03	9.778079E-04	1.559759E-05
7.244358E+03	9.777860E-04	1.561403E-05
7.254309E+03	9.778336E-04	1.563157E-05
7.264260E+03	9.782403E-04	1.565485E-05
7.274211E+03	9.787135E-04	1.567919E-05
7.284162E+03	9.795443E-04	1.570929E-05
7.294113E+03	9.804396E-04	1.574044E-05
7.304064E+03	9.815434E-04	1.577497E-05
7.314015E+03	9.830006E-04	1.581521E-05
7.323966E+03	9.845169E-04	1.585646E-05
7.333917E+03	9.863845E-04	1.590341E-05
7.343868E+03	9.883065E-04	1.595131E-05
7.353819E+03	9.904285E-04	1.600250E-05
7.363770E+03	9.928964E-04	1.605936E-05
7.373721E+03	9.954105E-04	1.611705E-05
7.383672E+03	9.982669E-04	1.618038E-05
7.393623E+03	1.001164E-03	1.624446E-05
7.403574E+03	1.004247E-03	1.631168E-05
7.413525E+03	1.007664E-03	1.638444E-05
7.423476E+03	1.011111E-03	1.645780E-05
7.433428E+03	1.014734E-03	1.653417E-05
7.443379E+03	1.018529E-03	1.661346E-05
7.453330E+03	1.022646E-03	1.669815E-05
7.463281E+03	1.026772E-03	1.678315E-05
7.473232E+03	1.031057E-03	1.687090E-05
7.483183E+03	1.035496E-03	1.696133E-05
7.493134E+03	1.040237E-03	1.705690E-05
7.503085E+03	1.044966E-03	1.715244E-05
7.513036E+03	1.049830E-03	1.725038E-05
7.522987E+03	1.054823E-03	1.735064E-05
7.532938E+03	1.059938E-03	1.745309E-05
7.542889E+03	1.065167E-03	1.755764E-05
7.552840E+03	1.070664E-03	1.766680E-05
7.562791E+03	1.076099E-03	1.777517E-05
7.572742E+03	1.081623E-03	1.788523E-05
7.582693E+03	1.087228E-03	1.799685E-05
7.592644E+03	1.092903E-03	1.810986E-05
7.602595E+03	1.098639E-03	1.822411E-05
7.612546E+03	1.104424E-03	1.833942E-05
7.622497E+03	1.110247E-03	1.845561E-05
7.632448E+03	1.116097E-03	1.857250E-05
7.642399E+03	1.121962E-03	1.868988E-05
7.652350E+03	1.127828E-03	1.880753E-05
7.662301E+03	1.133682E-03	1.892524E-05
7.672253E+03	1.139511E-03	1.904280E-05
7.682204E+03	1.145300E-03	1.915994E-05
7.692155E+03	1.151034E-03	1.927642E-05
7.702106E+03	1.156698E-03	1.939200E-05
7.712057E+03	1.162275E-03	1.950640E-05
7.722008E+03	1.167751E-03	1.961934E-05
