#wls	flux	fluxerr
1.577598E+03	1.656586E-03	1.132403E-04
1.617038E+03	1.733578E-03	1.177267E-04
1.656478E+03	1.806866E-03	1.218761E-04
1.695918E+03	1.875688E-03	1.256401E-04
1.735358E+03	1.938495E-03	1.289195E-04
1.774798E+03	1.992194E-03	1.315164E-04
1.814238E+03	2.032318E-03	1.331495E-04
1.853678E+03	2.053566E-03	1.334931E-04
1.893118E+03	2.051573E-03	1.322936E-04
1.932558E+03	2.022783E-03	1.293597E-04
1.971998E+03	1.968839E-03	1.248391E-04
2.011438E+03	1.901494E-03	1.195131E-04
2.050878E+03	1.843949E-03	1.148512E-04
2.090317E+03	1.828050E-03	1.128036E-04
2.129757E+03	1.882619E-03	1.150599E-04
2.169197E+03	2.025617E-03	1.225800E-04
2.208637E+03	2.257002E-03	1.351965E-04
2.248077E+03	2.562972E-03	1.519199E-04
2.287517E+03	2.922539E-03	1.713681E-04
2.326957E+03	3.312231E-03	1.920640E-04
2.366397E+03	3.711968E-03	2.127832E-04
2.405837E+03	4.104481E-03	2.325126E-04
2.445277E+03	4.474635E-03	2.504050E-04
2.484717E+03	4.809916E-03	2.658010E-04
2.524157E+03	5.100203E-03	2.782092E-04
2.563597E+03	5.339348E-03	2.873840E-04
2.603037E+03	5.523385E-03	2.932173E-04
2.642477E+03	5.654312E-03	2.959288E-04
2.681917E+03	5.736606E-03	2.958644E-04
2.721357E+03	5.779297E-03	2.935914E-04
2.760797E+03	5.794894E-03	2.898264E-04
2.800237E+03	5.796125E-03	2.852601E-04
2.839677E+03	5.795543E-03	2.805354E-04
2.879117E+03	5.804122E-03	2.761800E-04
2.918556E+03	5.835841E-03	2.728260E-04
2.957996E+03	5.902844E-03	2.709735E-04
2.967856E+03	5.926348E-03	2.707912E-04
2.977716E+03	5.953713E-03	2.707706E-04
2.987576E+03	5.984706E-03	2.708984E-04
2.997436E+03	6.019720E-03	2.711902E-04
3.007296E+03	6.059540E-03	2.716785E-04
3.017156E+03	6.104986E-03	2.723966E-04
3.027016E+03	6.156175E-03	2.733462E-04
3.036876E+03	6.213262E-03	2.745303E-04
3.046736E+03	6.276900E-03	2.759736E-04
3.056596E+03	6.346841E-03	2.776610E-04
3.066456E+03	6.423341E-03	2.795994E-04
3.076316E+03	6.507156E-03	2.818172E-04
3.086176E+03	6.598138E-03	2.843029E-04
3.096036E+03	6.697119E-03	2.870875E-04
3.105896E+03	6.804501E-03	2.901827E-04
3.115756E+03	6.920239E-03	2.935808E-04
3.125616E+03	7.045287E-03	2.973164E-04
3.135476E+03	7.180655E-03	3.014256E-04
3.145336E+03	7.325928E-03	3.058839E-04
3.155196E+03	7.482693E-03	3.107503E-04
3.165056E+03	7.650592E-03	3.160023E-04
3.174916E+03	7.831841E-03	3.217232E-04
3.184776E+03	8.026151E-03	3.278919E-04
3.194636E+03	8.234277E-03	3.345300E-04
3.204496E+03	8.458085E-03	3.417034E-04
3.214356E+03	8.697326E-03	3.493911E-04
3.224216E+03	8.953939E-03	3.576598E-04
3.234076E+03	9.228214E-03	3.665089E-04
3.243936E+03	9.521547E-03	3.759812E-04
3.253796E+03	9.834138E-03	3.860713E-04
3.263656E+03	1.016728E-02	3.968160E-04
3.273516E+03	1.052220E-02	4.082488E-04
3.283376E+03	1.089875E-02	4.203481E-04
3.293236E+03	1.129781E-02	4.331330E-04
3.303096E+03	1.171939E-02	4.465877E-04
3.312956E+03	1.216315E-02	4.606838E-04
3.322816E+03	1.262908E-02	4.754049E-04
3.332676E+03	1.311601E-02	4.906918E-04
3.342536E+03	1.362223E-02	5.064660E-04
3.352396E+03	1.414620E-02	5.226569E-04
3.362256E+03	1.468499E-02	5.391447E-04
3.372116E+03	1.523663E-02	5.558468E-04
3.381976E+03	1.579527E-02	5.725417E-04
3.391836E+03	1.635763E-02	5.891069E-04
3.401696E+03	1.691910E-02	6.053748E-04
3.411556E+03	1.747374E-02	6.211345E-04
3.421416E+03	1.801607E-02	6.361976E-04
3.431276E+03	1.854038E-02	6.503723E-04
3.441136E+03	1.903897E-02	6.634037E-04
3.450996E+03	1.950870E-02	6.752014E-04
3.460856E+03	1.994095E-02	6.854894E-04
3.470716E+03	2.033082E-02	6.941271E-04
3.480576E+03	2.067162E-02	7.009179E-04
3.490436E+03	2.095873E-02	7.057416E-04
3.500296E+03	2.118566E-02	7.084194E-04
3.510156E+03	2.134912E-02	7.088846E-04
3.520016E+03	2.144807E-02	7.071479E-04
3.529876E+03	2.148552E-02	7.033546E-04
3.539736E+03	2.146277E-02	6.975899E-04
3.549596E+03	2.138410E-02	6.900346E-04
3.559456E+03	2.125219E-02	6.808142E-04
3.569316E+03	2.107075E-02	6.700838E-04
3.579176E+03	2.084215E-02	6.579535E-04
3.589036E+03	2.057235E-02	6.446425E-04
3.598896E+03	2.026383E-02	6.302577E-04
3.608756E+03	1.992283E-02	6.150180E-04
3.618616E+03	1.955473E-02	5.991114E-04
3.628476E+03	1.916630E-02	5.827627E-04
3.638336E+03	1.876377E-02	5.661739E-04
3.648196E+03	1.835662E-02	5.496387E-04
3.658056E+03	1.795235E-02	5.333835E-04
3.667916E+03	1.756020E-02	5.176779E-04
3.677776E+03	1.718907E-02	5.027745E-04
3.687636E+03	1.684855E-02	4.889369E-04
3.697496E+03	1.654763E-02	4.764023E-04
3.707356E+03	1.629605E-02	4.654224E-04
3.717216E+03	1.610180E-02	4.561891E-04
3.727076E+03	1.597348E-02	4.489052E-04
3.736936E+03	1.591933E-02	4.437554E-04
3.746796E+03	1.594726E-02	4.409081E-04
3.756655E+03	1.606407E-02	4.404943E-04
3.766515E+03	1.627811E-02	4.426815E-04
3.776375E+03	1.659542E-02	4.475675E-04
3.786235E+03	1.702362E-02	4.552872E-04
3.796095E+03	1.756917E-02	4.659390E-04
3.805955E+03	1.823854E-02	4.796156E-04
3.815815E+03	1.903739E-02	4.963842E-04
3.825675E+03	1.996974E-02	5.162649E-04
3.835535E+03	2.103773E-02	5.392268E-04
3.845395E+03	2.224185E-02	5.651962E-04
3.855255E+03	2.357820E-02	5.939899E-04
3.865115E+03	2.503846E-02	6.253179E-04
3.874975E+03	2.660949E-02	6.587799E-04
3.884835E+03	2.827219E-02	6.938417E-04
3.894695E+03	3.000033E-02	7.298128E-04
3.904555E+03	3.176111E-02	7.658684E-04
3.914415E+03	3.351710E-02	8.011013E-04
3.924275E+03	3.522507E-02	8.344994E-04
3.934135E+03	3.683990E-02	8.650432E-04
3.943995E+03	3.831583E-02	8.917353E-04
3.953855E+03	3.961014E-02	9.136863E-04
3.963715E+03	4.068691E-02	9.301963E-04
3.973575E+03	4.151978E-02	9.408099E-04
3.983435E+03	4.209077E-02	9.452789E-04
3.993295E+03	4.239452E-02	9.436488E-04
4.003155E+03	4.244007E-02	9.362833E-04
4.013015E+03	4.224437E-02	9.237103E-04
4.022875E+03	4.183463E-02	9.066627E-04
4.032735E+03	4.124657E-02	8.860331E-04
4.042595E+03	4.051878E-02	8.627452E-04
4.052455E+03	3.969223E-02	8.377413E-04
4.062315E+03	3.880704E-02	8.119140E-04
4.072175E+03	3.789924E-02	7.860398E-04
4.082035E+03	3.700257E-02	7.608213E-04
4.091895E+03	3.614496E-02	7.368181E-04
4.101755E+03	3.534819E-02	7.144467E-04
4.111615E+03	3.462873E-02	6.940018E-04
4.121475E+03	3.399974E-02	6.757028E-04
4.131335E+03	3.346759E-02	6.596272E-04
4.141195E+03	3.303655E-02	6.458094E-04
4.151055E+03	3.270668E-02	6.342006E-04
4.160915E+03	3.247646E-02	6.247237E-04
4.170775E+03	3.234067E-02	6.172343E-04
4.180635E+03	3.229478E-02	6.116054E-04
4.190495E+03	3.232995E-02	6.076341E-04
4.200355E+03	3.243711E-02	6.051202E-04
4.210215E+03	3.260418E-02	6.038144E-04
4.220075E+03	3.281884E-02	6.034706E-04
4.229935E+03	3.306374E-02	6.037596E-04
4.239795E+03	3.332076E-02	6.043471E-04
4.249655E+03	3.356809E-02	6.048424E-04
4.259515E+03	3.378248E-02	6.048388E-04
4.269375E+03	3.393709E-02	6.038756E-04
4.279235E+03	3.400772E-02	6.015499E-04
4.289095E+03	3.396984E-02	5.974604E-04
4.298955E+03	3.380291E-02	5.912820E-04
4.308815E+03	3.349471E-02	5.828357E-04
4.318675E+03	3.304255E-02	5.721044E-04
4.328535E+03	3.245776E-02	5.593103E-04
4.338395E+03	3.176984E-02	5.449797E-04
4.348255E+03	3.102028E-02	5.298317E-04
4.358115E+03	3.025612E-02	5.146666E-04
4.367975E+03	2.952342E-02	5.002537E-04
4.377835E+03	2.886055E-02	4.872221E-04
4.387695E+03	2.829914E-02	4.760786E-04
4.397555E+03	2.786224E-02	4.671817E-04
4.407415E+03	2.756598E-02	4.607710E-04
4.417275E+03	2.742058E-02	4.569877E-04
4.427135E+03	2.743151E-02	4.558945E-04
4.436995E+03	2.760044E-02	4.574927E-04
4.446855E+03	2.792586E-02	4.617333E-04
4.456715E+03	2.840349E-02	4.685242E-04
4.466575E+03	2.902590E-02	4.777241E-04
4.476435E+03	2.978309E-02	4.891517E-04
4.486295E+03	3.066208E-02	5.025800E-04
4.496155E+03	3.164545E-02	5.177121E-04
4.506015E+03	3.271246E-02	5.341994E-04
4.515875E+03	3.383775E-02	5.516205E-04
4.525735E+03	3.499136E-02	5.694827E-04
4.535595E+03	3.614094E-02	5.872569E-04
4.545455E+03	3.724975E-02	6.043454E-04
4.555315E+03	3.828193E-02	6.201686E-04
4.565175E+03	3.919994E-02	6.341214E-04
4.575035E+03	3.997012E-02	6.456649E-04
4.584894E+03	4.056407E-02	6.543469E-04
4.594754E+03	4.095845E-02	6.597988E-04
4.604614E+03	4.113919E-02	6.618028E-04
4.614474E+03	4.110019E-02	6.602704E-04
4.624334E+03	4.084322E-02	6.552397E-04
4.634194E+03	4.037869E-02	6.468874E-04
4.644054E+03	3.972343E-02	6.354929E-04
4.653914E+03	3.889888E-02	6.214080E-04
4.663774E+03	3.793020E-02	6.050433E-04
4.673634E+03	3.684617E-02	5.868648E-04
4.683494E+03	3.567537E-02	5.673344E-04
4.693354E+03	3.444739E-02	5.469279E-04
4.703214E+03	3.319067E-02	5.261001E-04
4.713074E+03	3.193237E-02	5.052842E-04
4.722934E+03	3.069810E-02	4.848861E-04
4.732794E+03	2.951012E-02	4.652562E-04
4.742654E+03	2.838792E-02	4.466991E-04
4.752514E+03	2.734900E-02	4.294860E-04
4.762374E+03	2.640806E-02	4.138412E-04
4.772234E+03	2.557645E-02	3.999349E-04
4.782094E+03	2.486348E-02	3.879034E-04
4.791954E+03	2.427596E-02	3.778415E-04
4.801814E+03	2.381799E-02	3.698008E-04
4.811674E+03	2.349183E-02	3.638022E-04
4.821534E+03	2.329751E-02	3.598314E-04
4.831394E+03	2.323296E-02	3.578405E-04
4.841254E+03	2.329366E-02	3.577430E-04
4.851114E+03	2.347337E-02	3.594259E-04
4.860974E+03	2.376204E-02	3.627184E-04
4.870834E+03	2.414761E-02	3.674198E-04
4.880694E+03	2.461356E-02	3.732633E-04
4.890554E+03	2.514090E-02	3.799474E-04
4.900414E+03	2.570642E-02	3.871106E-04
4.910274E+03	2.628438E-02	3.943577E-04
4.920134E+03	2.684746E-02	4.012761E-04
4.929994E+03	2.736795E-02	4.074532E-04
4.939854E+03	2.781986E-02	4.125093E-04
4.949714E+03	2.818106E-02	4.161283E-04
4.959574E+03	2.843652E-02	4.181052E-04
4.969434E+03	2.857808E-02	4.183403E-04
4.979294E+03	2.860771E-02	4.168844E-04
4.989154E+03	2.853552E-02	4.139075E-04
4.999014E+03	2.837883E-02	4.096817E-04
5.008874E+03	2.816103E-02	4.045622E-04
5.018734E+03	2.790796E-02	3.989336E-04
5.028594E+03	2.764589E-02	3.931794E-04
5.038454E+03	2.739920E-02	3.876490E-04
5.048314E+03	2.718864E-02	3.826337E-04
5.058174E+03	2.703198E-02	3.783767E-04
5.068034E+03	2.694084E-02	3.750294E-04
5.077894E+03	2.692406E-02	3.727017E-04
5.087754E+03	2.698579E-02	3.714353E-04
5.097614E+03	2.712744E-02	3.712332E-04
5.107474E+03	2.734716E-02	3.720533E-04
5.117334E+03	2.764144E-02	3.738316E-04
5.127194E+03	2.800446E-02	3.764737E-04
5.137054E+03	2.842970E-02	3.798785E-04
5.146914E+03	2.890938E-02	3.839297E-04
5.156774E+03	2.943463E-02	3.885002E-04
5.166634E+03	2.999667E-02	3.934665E-04
5.176494E+03	3.058585E-02	3.986973E-04
5.186354E+03	3.119167E-02	4.040541E-04
5.196214E+03	3.180362E-02	4.094018E-04
5.206074E+03	3.241014E-02	4.145957E-04
5.215934E+03	3.299896E-02	4.194865E-04
5.225794E+03	3.355659E-02	4.239137E-04
5.235654E+03	3.406920E-02	4.277171E-04
5.245514E+03	3.452293E-02	4.307404E-04
5.255374E+03	3.490304E-02	4.328213E-04
5.265234E+03	3.519610E-02	4.338175E-04
5.275094E+03	3.538913E-02	4.335960E-04
5.284954E+03	3.547199E-02	4.320618E-04
5.294814E+03	3.543691E-02	4.291503E-04
5.304674E+03	3.528032E-02	4.248485E-04
5.314534E+03	3.500481E-02	4.192172E-04
5.324394E+03	3.461797E-02	4.123737E-04
5.334254E+03	3.413376E-02	4.045077E-04
5.344114E+03	3.357371E-02	3.958927E-04
5.353974E+03	3.296374E-02	3.868470E-04
5.363834E+03	3.233536E-02	3.777471E-04
5.373694E+03	3.172223E-02	3.689866E-04
5.383554E+03	3.115906E-02	3.609639E-04
5.393414E+03	3.067790E-02	3.540359E-04
5.403274E+03	3.030605E-02	3.484971E-04
5.413134E+03	3.006059E-02	3.445219E-04
5.422993E+03	2.994402E-02	3.421183E-04
5.432853E+03	2.994225E-02	3.411064E-04
5.442713E+03	3.002801E-02	3.411606E-04
5.452573E+03	3.016605E-02	3.418696E-04
5.462433E+03	3.031958E-02	3.428091E-04
5.472293E+03	3.045072E-02	3.435470E-04
5.482153E+03	3.052418E-02	3.436838E-04
5.492013E+03	3.051062E-02	3.428895E-04
5.501873E+03	3.038632E-02	3.408992E-04
5.511733E+03	3.013721E-02	3.375567E-04
5.521593E+03	2.975639E-02	3.327865E-04
5.531453E+03	2.924651E-02	3.266195E-04
5.541313E+03	2.861776E-02	3.191702E-04
5.551173E+03	2.788704E-02	3.106267E-04
5.561033E+03	2.707621E-02	3.012314E-04
5.570893E+03	2.621051E-02	2.912631E-04
5.580753E+03	2.531702E-02	2.810204E-04
5.590613E+03	2.442224E-02	2.707942E-04
5.600473E+03	2.355218E-02	2.608693E-04
5.610333E+03	2.272931E-02	2.514906E-04
5.620193E+03	2.197464E-02	2.428864E-04
5.630053E+03	2.130511E-02	2.352394E-04
5.639913E+03	2.073452E-02	2.286975E-04
5.649773E+03	2.027442E-02	2.233832E-04
5.659633E+03	1.993291E-02	2.193806E-04
5.669493E+03	1.971669E-02	2.167583E-04
5.679353E+03	1.962990E-02	2.155567E-04
5.689213E+03	1.967517E-02	2.157987E-04
5.699073E+03	1.985338E-02	2.174883E-04
5.708933E+03	2.016353E-02	2.206086E-04
5.718793E+03	2.060261E-02	2.251206E-04
5.728653E+03	2.116443E-02	2.309506E-04
5.738513E+03	2.183974E-02	2.379917E-04
5.748373E+03	2.261534E-02	2.460944E-04
5.758233E+03	2.347374E-02	2.550637E-04
5.768093E+03	2.439300E-02	2.646571E-04
5.777953E+03	2.534709E-02	2.745894E-04
5.787813E+03	2.630662E-02	2.845415E-04
5.797673E+03	2.724033E-02	2.941758E-04
5.807533E+03	2.811655E-02	3.031531E-04
5.817393E+03	2.890616E-02	3.111646E-04
5.827253E+03	2.958392E-02	3.179453E-04
5.837113E+03	3.013003E-02	3.232912E-04
5.846973E+03	3.053303E-02	3.270894E-04
5.856833E+03	3.078845E-02	3.293025E-04
5.866693E+03	3.089918E-02	3.299725E-04
5.876553E+03	3.087507E-02	3.292155E-04
5.886413E+03	3.073033E-02	3.271930E-04
5.896273E+03	3.048292E-02	3.241054E-04
5.906133E+03	3.015143E-02	3.201583E-04
5.915993E+03	2.975563E-02	3.155684E-04
5.925853E+03	2.931423E-02	3.105398E-04
5.935713E+03	2.884453E-02	3.052601E-04
5.945573E+03	2.836142E-02	2.998905E-04
5.955433E+03	2.787905E-02	2.945836E-04
5.965293E+03	2.740828E-02	2.894564E-04
5.975153E+03	2.695898E-02	2.846152E-04
5.985013E+03	2.653773E-02	2.801312E-04
5.994873E+03	2.615011E-02	2.760656E-04
6.004733E+03	2.579849E-02	2.724454E-04
6.014593E+03	2.548419E-02	2.692871E-04
6.024453E+03	2.520679E-02	2.665893E-04
6.034313E+03	2.496417E-02	2.643326E-04
6.044173E+03	2.475299E-02	2.624856E-04
6.054033E+03	2.456908E-02	2.610076E-04
6.063893E+03	2.440773E-02	2.598529E-04
6.073753E+03	2.426363E-02	2.589685E-04
6.083613E+03	2.413082E-02	2.582949E-04
6.093473E+03	2.400255E-02	2.577626E-04
6.103333E+03	2.387172E-02	2.572981E-04
6.113193E+03	2.373051E-02	2.568157E-04
6.123053E+03	2.357184E-02	2.562318E-04
6.132913E+03	2.338898E-02	2.554635E-04
6.142773E+03	2.317791E-02	2.544562E-04
6.152633E+03	2.293746E-02	2.531852E-04
6.162493E+03	2.267029E-02	2.516670E-04
6.172353E+03	2.238218E-02	2.499540E-04
6.182213E+03	2.208247E-02	2.481393E-04
6.192073E+03	2.178208E-02	2.463364E-04
6.201933E+03	2.149250E-02	2.446690E-04
6.211793E+03	2.122524E-02	2.432645E-04
6.221653E+03	2.098962E-02	2.422293E-04
6.231513E+03	2.079319E-02	2.416529E-04
6.241373E+03	2.064044E-02	2.415916E-04
6.251232E+03	2.053312E-02	2.420720E-04
6.261092E+03	2.047102E-02	2.430988E-04
6.270952E+03	2.045069E-02	2.446378E-04
6.280812E+03	2.046710E-02	2.466353E-04
6.290672E+03	2.051366E-02	2.490172E-04
6.300532E+03	2.058265E-02	2.516935E-04
6.310392E+03	2.066571E-02	2.545636E-04
6.320252E+03	2.075410E-02	2.575192E-04
6.330112E+03	2.083967E-02	2.604567E-04
6.339972E+03	2.091510E-02	2.632795E-04
6.349832E+03	2.097433E-02	2.659049E-04
6.359692E+03	2.101302E-02	2.682698E-04
6.369552E+03	2.102869E-02	2.703337E-04
6.379412E+03	2.102101E-02	2.720831E-04
6.389272E+03	2.099220E-02	2.735380E-04
6.399132E+03	2.094605E-02	2.747399E-04
6.408992E+03	2.088840E-02	2.757587E-04
6.418852E+03	2.082642E-02	2.766847E-04
6.428712E+03	2.076833E-02	2.776242E-04
6.438572E+03	2.072224E-02	2.786854E-04
6.448432E+03	2.069689E-02	2.799871E-04
6.458292E+03	2.069984E-02	2.816354E-04
6.468152E+03	2.073749E-02	2.837222E-04
6.478012E+03	2.081467E-02	2.863196E-04
6.487872E+03	2.093474E-02	2.894808E-04
6.497732E+03	2.109800E-02	2.932163E-04
6.507592E+03	2.130360E-02	2.975209E-04
6.517452E+03	2.154732E-02	3.023409E-04
6.527312E+03	2.182283E-02	3.075914E-04
6.537172E+03	2.212158E-02	3.131540E-04
6.547032E+03	2.243349E-02	3.188858E-04
6.556892E+03	2.274714E-02	3.246226E-04
6.566752E+03	2.304999E-02	3.301815E-04
6.576612E+03	2.332995E-02	3.353830E-04
6.586472E+03	2.357649E-02	3.400686E-04
6.596332E+03	2.377948E-02	3.440836E-04
6.606192E+03	2.393168E-02	3.473139E-04
6.616052E+03	2.402805E-02	3.496777E-04
6.625912E+03	2.406500E-02	3.511140E-04
6.635772E+03	2.404263E-02	3.516163E-04
6.645632E+03	2.396151E-02	3.511862E-04
6.655492E+03	2.382452E-02	3.498604E-04
6.665352E+03	2.363638E-02	3.477043E-04
6.675212E+03	2.340159E-02	3.447811E-04
6.685072E+03	2.312602E-02	3.411758E-04
6.694932E+03	2.281553E-02	3.369748E-04
6.704792E+03	2.247611E-02	3.322673E-04
6.714652E+03	2.211366E-02	3.271422E-04
6.724512E+03	2.173444E-02	3.216944E-04
6.734372E+03	2.134378E-02	3.160059E-04
6.744232E+03	2.094817E-02	3.101763E-04
6.754092E+03	2.055340E-02	3.042947E-04
6.763952E+03	2.016548E-02	2.984540E-04
6.773812E+03	1.979048E-02	2.927475E-04
6.783672E+03	1.943437E-02	2.872667E-04
6.793532E+03	1.910316E-02	2.821032E-04
6.803392E+03	1.880201E-02	2.773355E-04
6.813252E+03	1.853586E-02	2.730380E-04
6.823112E+03	1.830930E-02	2.692788E-04
6.832972E+03	1.812538E-02	2.661027E-04
6.842832E+03	1.798729E-02	2.635550E-04
6.852692E+03	1.789643E-02	2.616543E-04
6.862552E+03	1.785334E-02	2.604052E-04
6.872412E+03	1.785732E-02	2.597938E-04
6.882272E+03	1.790637E-02	2.597868E-04
6.892132E+03	1.799739E-02	2.603342E-04
6.901992E+03	1.812515E-02	2.613556E-04
6.911852E+03	1.828383E-02	2.627625E-04
6.921712E+03	1.846639E-02	2.644496E-04
6.931572E+03	1.866397E-02	2.662867E-04
6.941432E+03	1.886745E-02	2.681420E-04
6.951292E+03	1.906790E-02	2.698882E-04
6.961152E+03	1.925544E-02	2.713869E-04
6.971012E+03	1.942167E-02	2.725233E-04
6.980872E+03	1.955918E-02	2.731989E-04
6.990732E+03	1.966205E-02	2.733381E-04
7.000592E+03	1.972675E-02	2.729010E-04
7.010452E+03	1.975244E-02	2.718854E-04
7.020312E+03	1.973999E-02	2.703142E-04
7.030172E+03	1.969269E-02	2.682432E-04
7.040032E+03	1.961556E-02	2.657509E-04
7.049892E+03	1.951508E-02	2.629347E-04
7.059752E+03	1.939753E-02	2.598874E-04
7.069612E+03	1.927014E-02	2.567131E-04
7.079472E+03	1.913918E-02	2.535007E-04
7.089331E+03	1.901098E-02	2.503386E-04
7.099191E+03	1.888943E-02	2.472810E-04
7.109051E+03	1.877861E-02	2.443838E-04
7.118911E+03	1.868052E-02	2.416744E-04
7.128771E+03	1.859647E-02	2.391712E-04
7.138631E+03	1.852575E-02	2.368664E-04
7.148491E+03	1.846746E-02	2.347505E-04
7.158351E+03	1.841924E-02	2.327957E-04
7.168211E+03	1.837859E-02	2.309733E-04
7.178071E+03	1.834194E-02	2.292426E-04
7.187931E+03	1.830599E-02	2.275671E-04
7.197791E+03	1.826660E-02	2.259013E-04
7.207651E+03	1.822064E-02	2.242130E-04
7.217511E+03	1.816516E-02	2.224729E-04
7.227371E+03	1.809749E-02	2.206564E-04
7.237231E+03	1.801600E-02	2.187513E-04
7.247091E+03	1.792010E-02	2.167582E-04
7.256951E+03	1.780915E-02	2.146768E-04
7.266811E+03	1.768400E-02	2.125245E-04
7.276671E+03	1.754550E-02	2.103178E-04
7.286531E+03	1.739544E-02	2.080837E-04
7.296391E+03	1.723503E-02	2.058416E-04
7.306251E+03	1.706635E-02	2.036205E-04
7.316111E+03	1.689094E-02	2.014421E-04
7.325971E+03	1.671051E-02	1.993294E-04
7.335831E+03	1.652663E-02	1.973030E-04
7.345691E+03	1.634096E-02	1.953842E-04
7.355551E+03	1.615425E-02	1.935828E-04
7.365411E+03	1.596837E-02	1.919216E-04
7.375271E+03	1.578377E-02	1.904060E-04
7.385131E+03	1.560154E-02	1.890486E-04
7.394991E+03	1.542236E-02	1.878570E-04
7.404851E+03	1.524705E-02	1.868385E-04
7.414711E+03	1.507585E-02	1.859896E-04
7.424571E+03	1.490940E-02	1.853120E-04
7.434431E+03	1.474809E-02	1.848042E-04
7.444291E+03	1.459228E-02	1.844651E-04
7.454151E+03	1.444243E-02	1.842948E-04
7.464011E+03	1.429916E-02	1.842958E-04
7.473871E+03	1.416350E-02	1.844772E-04
7.483731E+03	1.403637E-02	1.848468E-04
7.493591E+03	1.391940E-02	1.854235E-04
7.503451E+03	1.381382E-02	1.862220E-04
7.513311E+03	1.372073E-02	1.872566E-04
7.523171E+03	1.363999E-02	1.885256E-04
7.533031E+03	1.357081E-02	1.900193E-04
7.542891E+03	1.351238E-02	1.917271E-04
7.552751E+03	1.346410E-02	1.936418E-04
7.562611E+03	1.342560E-02	1.957591E-04
7.572471E+03	1.339661E-02	1.980770E-04
7.582331E+03	1.337714E-02	2.005974E-04
7.592191E+03	1.336649E-02	2.033119E-04
7.602051E+03	1.336481E-02	2.062252E-04
7.611911E+03	1.337148E-02	2.093303E-04
7.621771E+03	1.338604E-02	2.126224E-04
7.631631E+03	1.340793E-02	2.160953E-04
7.641491E+03	1.343651E-02	2.197409E-04
7.651351E+03	1.347107E-02	2.235496E-04
