#wls	flux	fluxerr
1.577598E+03	3.472321E-04	5.762936E-06
1.617038E+03	3.596820E-04	5.959267E-06
1.656478E+03	3.708058E-04	6.132676E-06
1.695918E+03	3.806051E-04	6.283275E-06
1.735358E+03	3.886352E-04	6.403827E-06
1.774798E+03	3.943967E-04	6.486259E-06
1.814238E+03	3.969207E-04	6.514861E-06
1.853678E+03	3.955191E-04	6.478667E-06
1.893118E+03	3.891811E-04	6.361543E-06
1.932558E+03	3.775477E-04	6.158149E-06
1.971998E+03	3.612085E-04	5.878662E-06
2.011438E+03	3.424710E-04	5.561097E-06
2.050878E+03	3.256632E-04	5.275878E-06
2.090317E+03	3.161301E-04	5.109211E-06
2.129757E+03	3.184273E-04	5.133720E-06
2.169197E+03	3.346059E-04	5.380971E-06
2.208637E+03	3.638150E-04	5.835570E-06
2.248077E+03	4.029037E-04	6.445396E-06
2.287517E+03	4.480203E-04	7.147608E-06
2.326957E+03	4.956430E-04	7.885243E-06
2.366397E+03	5.429596E-04	8.613196E-06
2.405837E+03	5.881770E-04	9.302988E-06
2.445277E+03	6.304944E-04	9.942130E-06
2.484717E+03	6.693645E-04	1.052228E-05
2.524157E+03	7.048358E-04	1.104457E-05
2.563597E+03	7.372417E-04	1.151458E-05
2.603037E+03	7.668815E-04	1.193731E-05
2.642477E+03	7.946017E-04	1.232622E-05
2.681917E+03	8.211682E-04	1.269334E-05
2.721357E+03	8.476340E-04	1.305497E-05
2.760797E+03	8.752181E-04	1.342972E-05
2.800237E+03	9.053145E-04	1.383859E-05
2.839677E+03	9.396467E-04	1.430725E-05
2.879117E+03	9.798978E-04	1.486033E-05
2.918556E+03	1.028577E-03	1.553447E-05
2.957996E+03	1.088138E-03	1.636478E-05
2.967856E+03	1.104969E-03	1.660011E-05
2.977716E+03	1.122813E-03	1.685000E-05
2.987576E+03	1.141722E-03	1.711519E-05
2.997436E+03	1.161629E-03	1.739460E-05
3.007296E+03	1.182690E-03	1.769053E-05
3.017156E+03	1.205225E-03	1.800768E-05
3.027016E+03	1.229115E-03	1.834423E-05
3.036876E+03	1.254554E-03	1.870295E-05
3.046736E+03	1.281587E-03	1.908447E-05
3.056596E+03	1.310265E-03	1.948941E-05
3.066456E+03	1.340477E-03	1.991609E-05
3.076316E+03	1.372442E-03	2.036763E-05
3.086176E+03	1.406216E-03	2.084479E-05
3.096036E+03	1.441866E-03	2.134844E-05
3.105896E+03	1.479456E-03	2.187942E-05
3.115756E+03	1.519051E-03	2.243860E-05
3.125616E+03	1.560900E-03	2.302952E-05
3.135476E+03	1.604715E-03	2.364783E-05
3.145336E+03	1.650926E-03	2.429971E-05
3.155196E+03	1.699420E-03	2.498339E-05
3.165056E+03	1.750260E-03	2.569964E-05
3.174916E+03	1.803702E-03	2.645209E-05
3.184776E+03	1.859811E-03	2.724153E-05
3.194636E+03	1.918443E-03	2.806569E-05
3.204496E+03	1.979843E-03	2.892801E-05
3.214356E+03	2.044052E-03	2.982892E-05
3.224216E+03	2.110878E-03	3.076545E-05
3.234076E+03	2.180764E-03	3.174388E-05
3.243936E+03	2.253265E-03	3.275755E-05
3.253796E+03	2.328801E-03	3.381242E-05
3.263656E+03	2.407099E-03	3.490432E-05
3.273516E+03	2.488083E-03	3.603197E-05
3.283376E+03	2.571887E-03	3.719715E-05
3.293236E+03	2.658136E-03	3.839425E-05
3.303096E+03	2.746908E-03	3.962424E-05
3.312956E+03	2.837738E-03	4.088025E-05
3.322816E+03	2.930904E-03	4.216614E-05
3.332676E+03	3.025586E-03	4.346998E-05
3.342536E+03	3.121993E-03	4.479463E-05
3.352396E+03	3.219200E-03	4.612673E-05
3.362256E+03	3.317340E-03	4.746810E-05
3.372116E+03	3.415669E-03	4.880806E-05
3.381976E+03	3.513974E-03	5.014348E-05
3.391836E+03	3.611722E-03	5.146677E-05
3.401696E+03	3.708041E-03	5.276554E-05
3.411556E+03	3.802632E-03	5.403558E-05
3.421416E+03	3.894878E-03	5.526822E-05
3.431276E+03	3.984461E-03	5.645907E-05
3.441136E+03	4.070133E-03	5.759060E-05
3.450996E+03	4.151884E-03	5.866291E-05
3.460856E+03	4.229110E-03	5.966767E-05
3.470716E+03	4.301224E-03	6.059687E-05
3.480576E+03	4.367360E-03	6.143864E-05
3.490436E+03	4.427325E-03	6.219060E-05
3.500296E+03	4.480977E-03	6.285114E-05
3.510156E+03	4.527611E-03	6.341076E-05
3.520016E+03	4.566908E-03	6.386544E-05
3.529876E+03	4.598940E-03	6.421661E-05
3.539736E+03	4.623555E-03	6.446261E-05
3.549596E+03	4.640696E-03	6.460313E-05
3.559456E+03	4.650416E-03	6.463937E-05
3.569316E+03	4.652874E-03	6.457399E-05
3.579176E+03	4.648622E-03	6.441512E-05
3.589036E+03	4.637752E-03	6.416445E-05
3.598896E+03	4.621021E-03	6.383290E-05
3.608756E+03	4.599004E-03	6.342877E-05
3.618616E+03	4.572366E-03	6.296158E-05
3.628476E+03	4.542109E-03	6.244537E-05
3.638336E+03	4.508788E-03	6.188806E-05
3.648196E+03	4.473518E-03	6.130511E-05
3.658056E+03	4.436970E-03	6.070586E-05
3.667916E+03	4.400549E-03	6.010959E-05
3.677776E+03	4.364971E-03	5.952605E-05
3.687636E+03	4.331192E-03	5.896823E-05
3.697496E+03	4.300380E-03	5.845187E-05
3.707356E+03	4.273256E-03	5.798658E-05
3.717216E+03	4.251138E-03	5.758998E-05
3.727076E+03	4.234508E-03	5.726824E-05
3.736936E+03	4.224615E-03	5.703786E-05
3.746796E+03	4.222085E-03	5.690681E-05
3.756655E+03	4.227709E-03	5.688525E-05
3.766515E+03	4.242431E-03	5.698527E-05
3.776375E+03	4.266968E-03	5.721586E-05
3.786235E+03	4.302182E-03	5.758788E-05
3.796095E+03	4.348376E-03	5.810461E-05
3.805955E+03	4.406339E-03	5.877582E-05
3.815815E+03	4.476811E-03	5.961049E-05
3.825675E+03	4.560302E-03	6.061452E-05
3.835535E+03	4.657083E-03	6.179055E-05
3.845395E+03	4.767673E-03	6.314450E-05
3.855255E+03	4.892480E-03	6.468076E-05
3.865115E+03	5.031249E-03	6.639489E-05
3.874975E+03	5.184051E-03	6.828683E-05
3.884835E+03	5.350564E-03	7.035127E-05
3.894695E+03	5.530371E-03	7.258172E-05
3.904555E+03	5.722198E-03	7.496049E-05
3.914415E+03	5.925318E-03	7.747714E-05
3.924275E+03	6.137501E-03	8.010172E-05
3.934135E+03	6.357008E-03	8.281085E-05
3.943995E+03	6.581276E-03	8.557061E-05
3.953855E+03	6.807088E-03	8.833887E-05
3.963715E+03	7.030987E-03	9.107069E-05
3.973575E+03	7.249147E-03	9.371668E-05
3.983435E+03	7.457672E-03	9.622699E-05
3.993295E+03	7.652198E-03	9.854605E-05
4.003155E+03	7.828741E-03	1.006237E-04
4.013015E+03	7.983569E-03	1.024134E-04
4.022875E+03	8.114253E-03	1.038855E-04
4.032735E+03	8.218450E-03	1.050121E-04
4.042595E+03	8.295291E-03	1.057840E-04
4.052455E+03	8.345213E-03	1.062088E-04
4.062315E+03	8.369110E-03	1.062999E-04
4.072175E+03	8.369430E-03	1.060903E-04
4.082035E+03	8.349006E-03	1.056177E-04
4.091895E+03	8.311231E-03	1.049266E-04
4.101755E+03	8.260357E-03	1.040718E-04
4.111615E+03	8.199782E-03	1.030971E-04
4.121475E+03	8.133241E-03	1.020501E-04
4.131335E+03	8.064220E-03	1.009750E-04
4.141195E+03	7.995095E-03	9.990162E-05
4.151055E+03	7.928639E-03	9.886464E-05
4.160915E+03	7.866416E-03	9.788329E-05
4.170775E+03	7.810207E-03	9.697939E-05
4.180635E+03	7.760951E-03	9.616411E-05
4.190495E+03	7.719489E-03	9.544731E-05
4.200355E+03	7.685958E-03	9.483010E-05
4.210215E+03	7.660332E-03	9.431153E-05
4.220075E+03	7.641968E-03	9.388308E-05
4.229935E+03	7.629647E-03	9.352926E-05
4.239795E+03	7.621909E-03	9.323173E-05
4.249655E+03	7.616931E-03	9.296787E-05
4.259515E+03	7.612562E-03	9.271129E-05
4.269375E+03	7.606088E-03	9.242895E-05
4.279235E+03	7.595031E-03	9.209101E-05
4.289095E+03	7.576194E-03	9.165914E-05
4.298955E+03	7.547063E-03	9.110364E-05
4.308815E+03	7.504695E-03	9.038992E-05
4.318675E+03	7.447323E-03	8.949782E-05
4.328535E+03	7.373581E-03	8.841218E-05
4.338395E+03	7.286904E-03	8.717547E-05
4.348255E+03	7.194829E-03	8.587869E-05
4.358115E+03	7.104656E-03	8.460926E-05
4.367975E+03	7.022783E-03	8.344306E-05
4.377835E+03	6.954524E-03	8.244241E-05
4.387695E+03	6.903985E-03	8.165478E-05
4.397555E+03	6.873939E-03	8.111144E-05
4.407415E+03	6.866441E-03	8.083489E-05
4.417275E+03	6.882590E-03	8.083622E-05
4.427135E+03	6.923218E-03	8.112321E-05
4.436995E+03	6.988985E-03	8.170155E-05
4.446855E+03	7.080282E-03	8.257374E-05
4.456715E+03	7.197798E-03	8.374566E-05
4.466575E+03	7.341973E-03	8.522023E-05
4.476435E+03	7.512989E-03	8.699735E-05
4.486295E+03	7.710694E-03	8.907300E-05
4.496155E+03	7.934452E-03	9.143762E-05
4.506015E+03	8.182644E-03	9.407040E-05
4.515875E+03	8.452890E-03	9.694199E-05
4.525735E+03	8.741630E-03	1.000098E-04
4.535595E+03	9.044559E-03	1.032231E-04
4.545455E+03	9.356901E-03	1.065263E-04
4.555315E+03	9.672938E-03	1.098536E-04
4.565175E+03	9.987194E-03	1.131427E-04
4.575035E+03	1.029447E-02	1.163350E-04
4.584894E+03	1.058967E-02	1.193735E-04
4.594754E+03	1.086813E-02	1.222068E-04
4.604614E+03	1.112578E-02	1.247906E-04
4.614474E+03	1.135822E-02	1.270775E-04
4.624334E+03	1.156146E-02	1.290250E-04
4.634194E+03	1.173124E-02	1.305883E-04
4.644054E+03	1.186321E-02	1.317217E-04
4.653914E+03	1.195283E-02	1.323783E-04
4.663774E+03	1.199607E-02	1.325171E-04
4.673634E+03	1.198872E-02	1.320957E-04
4.683494E+03	1.192750E-02	1.310823E-04
4.693354E+03	1.181051E-02	1.294608E-04
4.703214E+03	1.163685E-02	1.272261E-04
4.713074E+03	1.140759E-02	1.243945E-04
4.722934E+03	1.112577E-02	1.210042E-04
4.732794E+03	1.079680E-02	1.171183E-04
4.742654E+03	1.042919E-02	1.128329E-04
4.752514E+03	1.003476E-02	1.082788E-04
4.762374E+03	9.626633E-03	1.035997E-04
4.772234E+03	9.218832E-03	9.894724E-05
4.782094E+03	8.824522E-03	9.446242E-05
4.791954E+03	8.455742E-03	9.027258E-05
4.801814E+03	8.122944E-03	8.648687E-05
4.811674E+03	7.834584E-03	8.319200E-05
4.821534E+03	7.597810E-03	8.045988E-05
4.831394E+03	7.418304E-03	7.834608E-05
4.841254E+03	7.300541E-03	7.689283E-05
4.851114E+03	7.248631E-03	7.613801E-05
4.860974E+03	7.265931E-03	7.611110E-05
4.870834E+03	7.355475E-03	7.683787E-05
4.880694E+03	7.519794E-03	7.833847E-05
4.890554E+03	7.760672E-03	8.062499E-05
4.900414E+03	8.078526E-03	8.369519E-05
4.910274E+03	8.471514E-03	8.752342E-05
4.920134E+03	8.935346E-03	9.205902E-05
4.929994E+03	9.461356E-03	9.720690E-05
4.939854E+03	1.003598E-02	1.028228E-04
4.949714E+03	1.063963E-02	1.087024E-04
4.959574E+03	1.124570E-02	1.145721E-04
4.969434E+03	1.182213E-02	1.201063E-04
4.979294E+03	1.233390E-02	1.249525E-04
4.989154E+03	1.274755E-02	1.287786E-04
4.999014E+03	1.303615E-02	1.313216E-04
5.008874E+03	1.318526E-02	1.324473E-04
5.018734E+03	1.319690E-02	1.321877E-04
5.028594E+03	1.308706E-02	1.307147E-04
5.038454E+03	1.288200E-02	1.282999E-04
5.048314E+03	1.261238E-02	1.252562E-04
5.058174E+03	1.230980E-02	1.219019E-04
5.068034E+03	1.200171E-02	1.185108E-04
5.077894E+03	1.170977E-02	1.152968E-04
5.087754E+03	1.144942E-02	1.124099E-04
5.097614E+03	1.123002E-02	1.099392E-04
5.107474E+03	1.105550E-02	1.079196E-04
5.117334E+03	1.092543E-02	1.063431E-04
5.127194E+03	1.083750E-02	1.051835E-04
5.137054E+03	1.078765E-02	1.043981E-04
5.146914E+03	1.077144E-02	1.039407E-04
5.156774E+03	1.078485E-02	1.037701E-04
5.166634E+03	1.082432E-02	1.038495E-04
5.176494E+03	1.088760E-02	1.041552E-04
5.186354E+03	1.097289E-02	1.046684E-04
5.196214E+03	1.107935E-02	1.053791E-04
5.206074E+03	1.120619E-02	1.062782E-04
5.215934E+03	1.135301E-02	1.073603E-04
5.225794E+03	1.151862E-02	1.086127E-04
5.235654E+03	1.170149E-02	1.100194E-04
5.245514E+03	1.189893E-02	1.115541E-04
5.255374E+03	1.210790E-02	1.131872E-04
5.265234E+03	1.232409E-02	1.148776E-04
5.275094E+03	1.254255E-02	1.165790E-04
5.284954E+03	1.275778E-02	1.182403E-04
5.294814E+03	1.296339E-02	1.198028E-04
5.304674E+03	1.315329E-02	1.212113E-04
5.314534E+03	1.332093E-02	1.224070E-04
5.324394E+03	1.346091E-02	1.233424E-04
5.334254E+03	1.356876E-02	1.239786E-04
5.344114E+03	1.364198E-02	1.242958E-04
5.353974E+03	1.368115E-02	1.243019E-04
5.363834E+03	1.368976E-02	1.240311E-04
5.373694E+03	1.367567E-02	1.235571E-04
5.383554E+03	1.365020E-02	1.229834E-04
5.393414E+03	1.362777E-02	1.224406E-04
5.403274E+03	1.362597E-02	1.220860E-04
5.413134E+03	1.366369E-02	1.220871E-04
5.422993E+03	1.375482E-02	1.225647E-04
5.432853E+03	1.389678E-02	1.234921E-04
5.442713E+03	1.408316E-02	1.248089E-04
5.452573E+03	1.430562E-02	1.264383E-04
5.462433E+03	1.455334E-02	1.282825E-04
5.472293E+03	1.481313E-02	1.302239E-04
5.482153E+03	1.506905E-02	1.321219E-04
5.492013E+03	1.530337E-02	1.338220E-04
5.501873E+03	1.549648E-02	1.351547E-04
5.511733E+03	1.562936E-02	1.359577E-04
5.521593E+03	1.568437E-02	1.360819E-04
5.531453E+03	1.564720E-02	1.354089E-04
5.541313E+03	1.551023E-02	1.338791E-04
5.551173E+03	1.527314E-02	1.314962E-04
5.561033E+03	1.494228E-02	1.283214E-04
5.570893E+03	1.452935E-02	1.244608E-04
5.580753E+03	1.404981E-02	1.200515E-04
5.590613E+03	1.352093E-02	1.152449E-04
5.600473E+03	1.296092E-02	1.101986E-04
5.610333E+03	1.238728E-02	1.050626E-04
5.620193E+03	1.181733E-02	9.998415E-05
5.630053E+03	1.126743E-02	9.510061E-05
5.639913E+03	1.075296E-02	9.053996E-05
5.649773E+03	1.028790E-02	8.641729E-05
5.659633E+03	9.884290E-03	8.283022E-05
5.669493E+03	9.552238E-03	7.985929E-05
5.679353E+03	9.299982E-03	7.756884E-05
5.689213E+03	9.134101E-03	7.600878E-05
5.699073E+03	9.059439E-03	7.521426E-05
5.708933E+03	9.080111E-03	7.521408E-05
5.718793E+03	9.199190E-03	7.602826E-05
5.728653E+03	9.418637E-03	7.766753E-05
5.738513E+03	9.739357E-03	8.013390E-05
5.748373E+03	1.016134E-02	8.342195E-05
5.758233E+03	1.068278E-02	8.751167E-05
5.768093E+03	1.129929E-02	9.236216E-05
5.777953E+03	1.200374E-02	9.791073E-05
5.787813E+03	1.278463E-02	1.040595E-04
5.797673E+03	1.362580E-02	1.106739E-04
5.807533E+03	1.450627E-02	1.175812E-04
5.817393E+03	1.540051E-02	1.245738E-04
5.827253E+03	1.627947E-02	1.314169E-04
5.837113E+03	1.711315E-02	1.378702E-04
5.846973E+03	1.787335E-02	1.437098E-04
5.856833E+03	1.853548E-02	1.487425E-04
5.866693E+03	1.908095E-02	1.528244E-04
5.876553E+03	1.949935E-02	1.558781E-04
5.886413E+03	1.978789E-02	1.578877E-04
5.896273E+03	1.995129E-02	1.588968E-04
5.906133E+03	2.000034E-02	1.589969E-04
5.915993E+03	1.994954E-02	1.583081E-04
5.925853E+03	1.981377E-02	1.569526E-04
5.935713E+03	1.960638E-02	1.550394E-04
5.945573E+03	1.933908E-02	1.526639E-04
5.955433E+03	1.902145E-02	1.499040E-04
5.965293E+03	1.866116E-02	1.468216E-04
5.975153E+03	1.826592E-02	1.434789E-04
5.985013E+03	1.784397E-02	1.399416E-04
5.994873E+03	1.740576E-02	1.362922E-04
6.004733E+03	1.696240E-02	1.326178E-04
6.014593E+03	1.652520E-02	1.290067E-04
6.024453E+03	1.610462E-02	1.255398E-04
6.034313E+03	1.570974E-02	1.222870E-04
6.044173E+03	1.534771E-02	1.193027E-04
6.054033E+03	1.502331E-02	1.166227E-04
6.063893E+03	1.473938E-02	1.142675E-04
6.073753E+03	1.449712E-02	1.122452E-04
6.083613E+03	1.429686E-02	1.105566E-04
6.093473E+03	1.413768E-02	1.091936E-04
6.103333E+03	1.401772E-02	1.081403E-04
6.113193E+03	1.393380E-02	1.073712E-04
6.123053E+03	1.388175E-02	1.068533E-04
6.132913E+03	1.385734E-02	1.065533E-04
6.142773E+03	1.385571E-02	1.064330E-04
6.152633E+03	1.387202E-02	1.064546E-04
6.162493E+03	1.390140E-02	1.065806E-04
6.172353E+03	1.393768E-02	1.067632E-04
6.182213E+03	1.397540E-02	1.069604E-04
6.192073E+03	1.400959E-02	1.071342E-04
6.201933E+03	1.403608E-02	1.072527E-04
6.211793E+03	1.405100E-02	1.072865E-04
6.221653E+03	1.405199E-02	1.072178E-04
6.231513E+03	1.403809E-02	1.070392E-04
6.241373E+03	1.400896E-02	1.067485E-04
6.251232E+03	1.396559E-02	1.063532E-04
6.261092E+03	1.390898E-02	1.058611E-04
6.270952E+03	1.384093E-02	1.052859E-04
6.280812E+03	1.376283E-02	1.046383E-04
6.290672E+03	1.367576E-02	1.039263E-04
6.300532E+03	1.357987E-02	1.031512E-04
6.310392E+03	1.347489E-02	1.023108E-04
6.320252E+03	1.335972E-02	1.013968E-04
6.330112E+03	1.323237E-02	1.003939E-04
6.339972E+03	1.309054E-02	9.928487E-05
6.349832E+03	1.293204E-02	9.805278E-05
6.359692E+03	1.275438E-02	9.667885E-05
6.369552E+03	1.255586E-02	9.515017E-05
6.379412E+03	1.233553E-02	9.345942E-05
6.389272E+03	1.209358E-02	9.160808E-05
6.399132E+03	1.183189E-02	8.961019E-05
6.408992E+03	1.155373E-02	8.749047E-05
6.418852E+03	1.126487E-02	8.529237E-05
6.428712E+03	1.097244E-02	8.306986E-05
6.438572E+03	1.068589E-02	8.089409E-05
6.448432E+03	1.041556E-02	7.884330E-05
6.458292E+03	1.017193E-02	7.699662E-05
6.468152E+03	9.965452E-03	7.543287E-05
6.478012E+03	9.805571E-03	7.422348E-05
6.487872E+03	9.700771E-03	7.343258E-05
6.497732E+03	9.658148E-03	7.311385E-05
6.507592E+03	9.683695E-03	7.331267E-05
6.517452E+03	9.782209E-03	7.406548E-05
6.527312E+03	9.957619E-03	7.540220E-05
6.537172E+03	1.021230E-02	7.734112E-05
6.547032E+03	1.054691E-02	7.988742E-05
6.556892E+03	1.095934E-02	8.302571E-05
6.566752E+03	1.144439E-02	8.671693E-05
6.576612E+03	1.199250E-02	9.088922E-05
6.586472E+03	1.258937E-02	9.543456E-05
6.596332E+03	1.321609E-02	1.002102E-04
6.606192E+03	1.385110E-02	1.050530E-04
6.616052E+03	1.447259E-02	1.097977E-04
6.625912E+03	1.505940E-02	1.142839E-04
6.635772E+03	1.559245E-02	1.183668E-04
6.645632E+03	1.605680E-02	1.219327E-04
6.655492E+03	1.644066E-02	1.248918E-04
6.665352E+03	1.673624E-02	1.271843E-04
6.675212E+03	1.693897E-02	1.287749E-04
6.685072E+03	1.704671E-02	1.296465E-04
6.694932E+03	1.706075E-02	1.298081E-04
6.704792E+03	1.698484E-02	1.292875E-04
6.714652E+03	1.682500E-02	1.281294E-04
6.724512E+03	1.658894E-02	1.263917E-04
6.734372E+03	1.628569E-02	1.241423E-04
6.744232E+03	1.592522E-02	1.214565E-04
6.754092E+03	1.551840E-02	1.184162E-04
6.763952E+03	1.507605E-02	1.151035E-04
6.773812E+03	1.460994E-02	1.116077E-04
6.783672E+03	1.413242E-02	1.080226E-04
6.793532E+03	1.365580E-02	1.044421E-04
6.803392E+03	1.319314E-02	1.009659E-04
6.813252E+03	1.275667E-02	9.768775E-05
6.823112E+03	1.235881E-02	9.470310E-05
6.832972E+03	1.201064E-02	9.209717E-05
6.842832E+03	1.172200E-02	8.994627E-05
6.852692E+03	1.150113E-02	8.831442E-05
6.862552E+03	1.135505E-02	8.725660E-05
6.872412E+03	1.128848E-02	8.681041E-05
6.882272E+03	1.130376E-02	8.699516E-05
6.892132E+03	1.140183E-02	8.781966E-05
6.901992E+03	1.158193E-02	8.927953E-05
6.911852E+03	1.184161E-02	9.135767E-05
6.921712E+03	1.217600E-02	9.401814E-05
6.931572E+03	1.257826E-02	9.720983E-05
6.941432E+03	1.303785E-02	1.008528E-04
6.951292E+03	1.354060E-02	1.048388E-04
6.961152E+03	1.406917E-02	1.090347E-04
6.971012E+03	1.460227E-02	1.132764E-04
6.980872E+03	1.511663E-02	1.173835E-04
6.990732E+03	1.558936E-02	1.211782E-04
7.000592E+03	1.600053E-02	1.245045E-04
7.010452E+03	1.633475E-02	1.272417E-04
7.020312E+03	1.658269E-02	1.293151E-04
7.030172E+03	1.674112E-02	1.306976E-04
7.040032E+03	1.681366E-02	1.314153E-04
7.049892E+03	1.680897E-02	1.315337E-04
7.059752E+03	1.673907E-02	1.311451E-04
7.069612E+03	1.661848E-02	1.303614E-04
7.079472E+03	1.646238E-02	1.293005E-04
7.089331E+03	1.628551E-02	1.280770E-04
7.099191E+03	1.610156E-02	1.267983E-04
7.109051E+03	1.592187E-02	1.255534E-04
7.118911E+03	1.575652E-02	1.244220E-04
7.128771E+03	1.561276E-02	1.234619E-04
7.138631E+03	1.549587E-02	1.227155E-04
7.148491E+03	1.540833E-02	1.222034E-04
7.158351E+03	1.535081E-02	1.219321E-04
7.168211E+03	1.532262E-02	1.218970E-04
7.178071E+03	1.532137E-02	1.220804E-04
7.187931E+03	1.534379E-02	1.224574E-04
7.197791E+03	1.538587E-02	1.229967E-04
7.207651E+03	1.544253E-02	1.236586E-04
7.217511E+03	1.550774E-02	1.243956E-04
7.227371E+03	1.557530E-02	1.251582E-04
7.237231E+03	1.563824E-02	1.258907E-04
7.247091E+03	1.569012E-02	1.265410E-04
7.256951E+03	1.572511E-02	1.270617E-04
7.266811E+03	1.573854E-02	1.274143E-04
7.276671E+03	1.572751E-02	1.275744E-04
7.286531E+03	1.569015E-02	1.275258E-04
7.296391E+03	1.562558E-02	1.272600E-04
7.306251E+03	1.553433E-02	1.267800E-04
7.316111E+03	1.541782E-02	1.260961E-04
7.325971E+03	1.527781E-02	1.252213E-04
7.335831E+03	1.511675E-02	1.241744E-04
7.345691E+03	1.493749E-02	1.229777E-04
7.355551E+03	1.474252E-02	1.216506E-04
7.365411E+03	1.453423E-02	1.202118E-04
7.375271E+03	1.431548E-02	1.186840E-04
7.385131E+03	1.408797E-02	1.170804E-04
7.394991E+03	1.385419E-02	1.154208E-04
7.404851E+03	1.361586E-02	1.137190E-04
7.414711E+03	1.337489E-02	1.119901E-04
7.424571E+03	1.313244E-02	1.102435E-04
7.434431E+03	1.289027E-02	1.084934E-04
7.444291E+03	1.264942E-02	1.067484E-04
7.454151E+03	1.241085E-02	1.050163E-04
7.464011E+03	1.217591E-02	1.033084E-04
7.473871E+03	1.194524E-02	1.016299E-04
7.483731E+03	1.171989E-02	9.999004E-05
7.493591E+03	1.150082E-02	9.839688E-05
7.503451E+03	1.128906E-02	9.685950E-05
7.513311E+03	1.108545E-02	9.538549E-05
7.523171E+03	1.089005E-02	9.397548E-05
7.533031E+03	1.070309E-02	9.263204E-05
7.542891E+03	1.052428E-02	9.135289E-05
7.552751E+03	1.035408E-02	9.014257E-05
7.562611E+03	1.019268E-02	8.900307E-05
7.572471E+03	1.004007E-02	8.793489E-05
7.582331E+03	9.896345E-03	8.693934E-05
7.592191E+03	9.761658E-03	8.601828E-05
7.602051E+03	9.635816E-03	8.517057E-05
7.611911E+03	9.518677E-03	8.439553E-05
7.621771E+03	9.410138E-03	8.369280E-05
7.631631E+03	9.309755E-03	8.305899E-05
7.641491E+03	9.217249E-03	8.249218E-05
7.651351E+03	9.132015E-03	8.198745E-05
