#wls	flux	fluxerr
1.577598E+03	2.519530E-04	1.005465E-05
1.617038E+03	2.604972E-04	1.037486E-05
1.656478E+03	2.681031E-04	1.065586E-05
1.695918E+03	2.745668E-04	1.088974E-05
1.735358E+03	2.797774E-04	1.107235E-05
1.774798E+03	2.831682E-04	1.118159E-05
1.814238E+03	2.843246E-04	1.120158E-05
1.853678E+03	2.824478E-04	1.110149E-05
1.893118E+03	2.771149E-04	1.086559E-05
1.932558E+03	2.679490E-04	1.048016E-05
1.971998E+03	2.555142E-04	9.968362E-06
2.011438E+03	2.414301E-04	9.394278E-06
2.050878E+03	2.287240E-04	8.875982E-06
2.090317E+03	2.212216E-04	8.561180E-06
2.129757E+03	2.219711E-04	8.565884E-06
2.169197E+03	2.324415E-04	8.943890E-06
2.208637E+03	2.517900E-04	9.659502E-06
2.248077E+03	2.779527E-04	1.063057E-05
2.287517E+03	3.082253E-04	1.175136E-05
2.326957E+03	3.401057E-04	1.292506E-05
2.366397E+03	3.718390E-04	1.408431E-05
2.405837E+03	4.024261E-04	1.519119E-05
2.445277E+03	4.311460E-04	1.621872E-05
2.484717E+03	4.579145E-04	1.716423E-05
2.524157E+03	4.828340E-04	1.803208E-05
2.563597E+03	5.060103E-04	1.882671E-05
2.603037E+03	5.279736E-04	1.956830E-05
2.642477E+03	5.490249E-04	2.026826E-05
2.681917E+03	5.697845E-04	2.094959E-05
2.721357E+03	5.908686E-04	2.163475E-05
2.760797E+03	6.129708E-04	2.234869E-05
2.800237E+03	6.368704E-04	2.311900E-05
2.839677E+03	6.635325E-04	2.397944E-05
2.879117E+03	6.940386E-04	2.496732E-05
2.918556E+03	7.296104E-04	2.612415E-05
2.957996E+03	7.716367E-04	2.749652E-05
2.967856E+03	7.833971E-04	2.788159E-05
2.977716E+03	7.956302E-04	2.828227E-05
2.987576E+03	8.083600E-04	2.869936E-05
2.997436E+03	8.218250E-04	2.914123E-05
3.007296E+03	8.359335E-04	2.960454E-05
3.017156E+03	8.508893E-04	3.009639E-05
3.027016E+03	8.666052E-04	3.061359E-05
3.036876E+03	8.832942E-04	3.116353E-05
3.046736E+03	9.008750E-04	3.174321E-05
3.056596E+03	9.192644E-04	3.234958E-05
3.066456E+03	9.386885E-04	3.299046E-05
3.076316E+03	9.590694E-04	3.366295E-05
3.086176E+03	9.804331E-04	3.436783E-05
3.096036E+03	1.002807E-03	3.510592E-05
3.105896E+03	1.026330E-03	3.588188E-05
3.115756E+03	1.050815E-03	3.668906E-05
3.125616E+03	1.076626E-03	3.753996E-05
3.135476E+03	1.103464E-03	3.842403E-05
3.145336E+03	1.131706E-03	3.935412E-05
3.155196E+03	1.161044E-03	4.031940E-05
3.165056E+03	1.191865E-03	4.133308E-05
3.174916E+03	1.223974E-03	4.238816E-05
3.184776E+03	1.257528E-03	4.348992E-05
3.194636E+03	1.292566E-03	4.463945E-05
3.204496E+03	1.329128E-03	4.583786E-05
3.214356E+03	1.367251E-03	4.708623E-05
3.224216E+03	1.406968E-03	4.838544E-05
3.234076E+03	1.448310E-03	4.973628E-05
3.243936E+03	1.491440E-03	5.114407E-05
3.253796E+03	1.536248E-03	5.260477E-05
3.263656E+03	1.582749E-03	5.411859E-05
3.273516E+03	1.631087E-03	5.569020E-05
3.283376E+03	1.681125E-03	5.731459E-05
3.293236E+03	1.732988E-03	5.899580E-05
3.303096E+03	1.786657E-03	6.073279E-05
3.312956E+03	1.842088E-03	6.252381E-05
3.322816E+03	1.899223E-03	6.436660E-05
3.332676E+03	1.958137E-03	6.626340E-05
3.342536E+03	2.018414E-03	6.819980E-05
3.352396E+03	2.080071E-03	7.017621E-05
3.362256E+03	2.143277E-03	7.219800E-05
3.372116E+03	2.207348E-03	7.424192E-05
3.381976E+03	2.272556E-03	7.631691E-05
3.391836E+03	2.338303E-03	7.840276E-05
3.401696E+03	2.404463E-03	8.049504E-05
3.411556E+03	2.470703E-03	8.258262E-05
3.421416E+03	2.536658E-03	8.465317E-05
3.431276E+03	2.601923E-03	8.669330E-05
3.441136E+03	2.666252E-03	8.869481E-05
3.450996E+03	2.729005E-03	9.063659E-05
3.460856E+03	2.789886E-03	9.250905E-05
3.470716E+03	2.848208E-03	9.428976E-05
3.480576E+03	2.903834E-03	9.597446E-05
3.490436E+03	2.956055E-03	9.754028E-05
3.500296E+03	3.004161E-03	9.896426E-05
3.510156E+03	3.048007E-03	1.002423E-04
3.520016E+03	3.087082E-03	1.013584E-04
3.529876E+03	3.120708E-03	1.022909E-04
3.539736E+03	3.148608E-03	1.030318E-04
3.549596E+03	3.170360E-03	1.035682E-04
3.559456E+03	3.185412E-03	1.038831E-04
3.569316E+03	3.193826E-03	1.039796E-04
3.579176E+03	3.195203E-03	1.038458E-04
3.589036E+03	3.189598E-03	1.034848E-04
3.598896E+03	3.176842E-03	1.028922E-04
3.608756E+03	3.157237E-03	1.020790E-04
3.618616E+03	3.131056E-03	1.010553E-04
3.628476E+03	3.098724E-03	9.983573E-05
3.638336E+03	3.060819E-03	9.844009E-05
3.648196E+03	3.018212E-03	9.689724E-05
3.658056E+03	2.971469E-03	9.522622E-05
3.667916E+03	2.921992E-03	9.347259E-05
3.677776E+03	2.870566E-03	9.166187E-05
3.687636E+03	2.818586E-03	8.983897E-05
3.697496E+03	2.766964E-03	8.803300E-05
3.707356E+03	2.717012E-03	8.628557E-05
3.717216E+03	2.670012E-03	8.463711E-05
3.727076E+03	2.626975E-03	8.311907E-05
3.736936E+03	2.589087E-03	8.176828E-05
3.746796E+03	2.557253E-03	8.061232E-05
3.756655E+03	2.532519E-03	7.968310E-05
3.766515E+03	2.515746E-03	7.900642E-05
3.776375E+03	2.507730E-03	7.860581E-05
3.786235E+03	2.509201E-03	7.850257E-05
3.796095E+03	2.520821E-03	7.871569E-05
3.805955E+03	2.543198E-03	7.926225E-05
3.815815E+03	2.576968E-03	8.016016E-05
3.825675E+03	2.622524E-03	8.141952E-05
3.835535E+03	2.680285E-03	8.305121E-05
3.845395E+03	2.750671E-03	8.506596E-05
3.855255E+03	2.833824E-03	8.746584E-05
3.865115E+03	2.929942E-03	9.025459E-05
3.874975E+03	3.038876E-03	9.342525E-05
3.884835E+03	3.160383E-03	9.696798E-05
3.894695E+03	3.294093E-03	1.008691E-04
3.904555E+03	3.439183E-03	1.051011E-04
3.914415E+03	3.594747E-03	1.096344E-04
3.924275E+03	3.759260E-03	1.144204E-04
3.934135E+03	3.931312E-03	1.194147E-04
3.943995E+03	4.108873E-03	1.245543E-04
3.953855E+03	4.289634E-03	1.297681E-04
3.963715E+03	4.471290E-03	1.349861E-04
3.973575E+03	4.651156E-03	1.401270E-04
3.983435E+03	4.826594E-03	1.451118E-04
3.993295E+03	4.995126E-03	1.498671E-04
4.003155E+03	5.154038E-03	1.543126E-04
4.013015E+03	5.301103E-03	1.583838E-04
4.022875E+03	5.434556E-03	1.620302E-04
4.032735E+03	5.552654E-03	1.652023E-04
4.042595E+03	5.654377E-03	1.678729E-04
4.052455E+03	5.739318E-03	1.700330E-04
4.062315E+03	5.807168E-03	1.716765E-04
4.072175E+03	5.858330E-03	1.728186E-04
4.082035E+03	5.893488E-03	1.734826E-04
4.091895E+03	5.913912E-03	1.737089E-04
4.101755E+03	5.920752E-03	1.735339E-04
4.111615E+03	5.915581E-03	1.730064E-04
4.121475E+03	5.900068E-03	1.721771E-04
4.131335E+03	5.875654E-03	1.710903E-04
4.141195E+03	5.843980E-03	1.697952E-04
4.151055E+03	5.806583E-03	1.683378E-04
4.160915E+03	5.764746E-03	1.667564E-04
4.170775E+03	5.719587E-03	1.650841E-04
4.180635E+03	5.672043E-03	1.633486E-04
4.190495E+03	5.622971E-03	1.615749E-04
4.200355E+03	5.573028E-03	1.597823E-04
4.210215E+03	5.522490E-03	1.579787E-04
4.220075E+03	5.471579E-03	1.561708E-04
4.229935E+03	5.420559E-03	1.543661E-04
4.239795E+03	5.369383E-03	1.525633E-04
4.249655E+03	5.317918E-03	1.507587E-04
4.259515E+03	5.265990E-03	1.489475E-04
4.269375E+03	5.213584E-03	1.471293E-04
4.279235E+03	5.160542E-03	1.452999E-04
4.289095E+03	5.106878E-03	1.434597E-04
4.298955E+03	5.052729E-03	1.416128E-04
4.308815E+03	4.998412E-03	1.397681E-04
4.318675E+03	4.944468E-03	1.379408E-04
4.328535E+03	4.891789E-03	1.361556E-04
4.338395E+03	4.841548E-03	1.344449E-04
4.348255E+03	4.795085E-03	1.328454E-04
4.358115E+03	4.753959E-03	1.313994E-04
4.367975E+03	4.719834E-03	1.301519E-04
4.377835E+03	4.694123E-03	1.291403E-04
4.387695E+03	4.678345E-03	1.284047E-04
4.397555E+03	4.673685E-03	1.279757E-04
4.407415E+03	4.681169E-03	1.278791E-04
4.417275E+03	4.701669E-03	1.281363E-04
4.427135E+03	4.735952E-03	1.287657E-04
4.436995E+03	4.784360E-03	1.297738E-04
4.446855E+03	4.847463E-03	1.311734E-04
4.456715E+03	4.925268E-03	1.329618E-04
4.466575E+03	5.017928E-03	1.351403E-04
4.476435E+03	5.125134E-03	1.376977E-04
4.486295E+03	5.246627E-03	1.406243E-04
4.496155E+03	5.381705E-03	1.438984E-04
4.506015E+03	5.529607E-03	1.474973E-04
4.515875E+03	5.689077E-03	1.513850E-04
4.525735E+03	5.858696E-03	1.555216E-04
4.535595E+03	6.036733E-03	1.598592E-04
4.545455E+03	6.221146E-03	1.643424E-04
4.555315E+03	6.409599E-03	1.689083E-04
4.565175E+03	6.599404E-03	1.734855E-04
4.575035E+03	6.787792E-03	1.780011E-04
4.584894E+03	6.971727E-03	1.823759E-04
4.594754E+03	7.147941E-03	1.865256E-04
4.604614E+03	7.313182E-03	1.903669E-04
4.614474E+03	7.464274E-03	1.938195E-04
4.624334E+03	7.597947E-03	1.968015E-04
4.634194E+03	7.711266E-03	1.992403E-04
4.644054E+03	7.801474E-03	2.010689E-04
4.653914E+03	7.866088E-03	2.022278E-04
4.663774E+03	7.903205E-03	2.026733E-04
4.673634E+03	7.911614E-03	2.023796E-04
4.683494E+03	7.890627E-03	2.013347E-04
4.693354E+03	7.840456E-03	1.995497E-04
4.703214E+03	7.762354E-03	1.970621E-04
4.713074E+03	7.658109E-03	1.939226E-04
4.722934E+03	7.530727E-03	1.902120E-04
4.732794E+03	7.383747E-03	1.860242E-04
4.742654E+03	7.221545E-03	1.814727E-04
4.752514E+03	7.048918E-03	1.766808E-04
4.762374E+03	6.870983E-03	1.717785E-04
4.772234E+03	6.693054E-03	1.668993E-04
4.782094E+03	6.520364E-03	1.621733E-04
4.791954E+03	6.357905E-03	1.577235E-04
4.801814E+03	6.210169E-03	1.536589E-04
4.811674E+03	6.081470E-03	1.500831E-04
4.821534E+03	5.975278E-03	1.470780E-04
4.831394E+03	5.894814E-03	1.447183E-04
4.841254E+03	5.842647E-03	1.430619E-04
4.851114E+03	5.820897E-03	1.421551E-04
4.860974E+03	5.831120E-03	1.420300E-04
4.870834E+03	5.874406E-03	1.427070E-04
4.880694E+03	5.951157E-03	1.441893E-04
4.890554E+03	6.061253E-03	1.464677E-04
4.900414E+03	6.203822E-03	1.495148E-04
4.910274E+03	6.376984E-03	1.532791E-04
4.920134E+03	6.577977E-03	1.576886E-04
4.929994E+03	6.802844E-03	1.626434E-04
4.939854E+03	7.046456E-03	1.680167E-04
4.949714E+03	7.302623E-03	1.736576E-04
4.959574E+03	7.564047E-03	1.793909E-04
4.969434E+03	7.822851E-03	1.850291E-04
4.979294E+03	8.071044E-03	1.903844E-04
4.989154E+03	8.300999E-03	1.952795E-04
4.999014E+03	8.505775E-03	1.995551E-04
5.008874E+03	8.680083E-03	2.030924E-04
5.018734E+03	8.820721E-03	2.058224E-04
5.028594E+03	8.926431E-03	2.077224E-04
5.038454E+03	8.997880E-03	2.088147E-04
5.048314E+03	9.038007E-03	2.091737E-04
5.058174E+03	9.050977E-03	2.089017E-04
5.068034E+03	9.042167E-03	2.081276E-04
5.077894E+03	9.017286E-03	2.069866E-04
5.087754E+03	8.982182E-03	2.056156E-04
5.097614E+03	8.942559E-03	2.041469E-04
5.107474E+03	8.903147E-03	2.026890E-04
5.117334E+03	8.868184E-03	2.013381E-04
5.127194E+03	8.840992E-03	2.001686E-04
5.137054E+03	8.823964E-03	1.992332E-04
5.146914E+03	8.819012E-03	1.985731E-04
5.156774E+03	8.827089E-03	1.982074E-04
5.166634E+03	8.848656E-03	1.981441E-04
5.176494E+03	8.883684E-03	1.983801E-04
5.186354E+03	8.931827E-03	1.989053E-04
5.196214E+03	8.992208E-03	1.996979E-04
5.206074E+03	9.063845E-03	2.007339E-04
5.215934E+03	9.145314E-03	2.019800E-04
5.225794E+03	9.235147E-03	2.034022E-04
5.235654E+03	9.331498E-03	2.049584E-04
5.245514E+03	9.432637E-03	2.066098E-04
5.255374E+03	9.536336E-03	2.083068E-04
5.265234E+03	9.640593E-03	2.100057E-04
5.275094E+03	9.743331E-03	2.116613E-04
5.284954E+03	9.842692E-03	2.132338E-04
5.294814E+03	9.936754E-03	2.146824E-04
5.304674E+03	1.002435E-02	2.159830E-04
5.314534E+03	1.010459E-02	2.171179E-04
5.324394E+03	1.017699E-02	2.180781E-04
5.334254E+03	1.024213E-02	2.188776E-04
5.344114E+03	1.030104E-02	2.195395E-04
5.353974E+03	1.035563E-02	2.201060E-04
5.363834E+03	1.040829E-02	2.206285E-04
5.373694E+03	1.046210E-02	2.211723E-04
5.383554E+03	1.052021E-02	2.218041E-04
5.393414E+03	1.058586E-02	2.225915E-04
5.403274E+03	1.066200E-02	2.235951E-04
5.413134E+03	1.075058E-02	2.248541E-04
5.422993E+03	1.085256E-02	2.263865E-04
5.432853E+03	1.096710E-02	2.281731E-04
5.442713E+03	1.109224E-02	2.301714E-04
5.452573E+03	1.122421E-02	2.323016E-04
5.462433E+03	1.135809E-02	2.344612E-04
5.472293E+03	1.148749E-02	2.365186E-04
5.482153E+03	1.160562E-02	2.383351E-04
5.492013E+03	1.170485E-02	2.397563E-04
5.501873E+03	1.177761E-02	2.406307E-04
5.511733E+03	1.181678E-02	2.408172E-04
5.521593E+03	1.181621E-02	2.401965E-04
5.531453E+03	1.177128E-02	2.386805E-04
5.541313E+03	1.167926E-02	2.362210E-04
5.551173E+03	1.153964E-02	2.328149E-04
5.561033E+03	1.135425E-02	2.285058E-04
5.570893E+03	1.112703E-02	2.233797E-04
5.580753E+03	1.086403E-02	2.175636E-04
5.590613E+03	1.057297E-02	2.112168E-04
5.600473E+03	1.026248E-02	2.045149E-04
5.610333E+03	9.941945E-03	1.976473E-04
5.620193E+03	9.620588E-03	1.907977E-04
5.630053E+03	9.307620E-03	1.841482E-04
5.639913E+03	9.011529E-03	1.778650E-04
5.649773E+03	8.739893E-03	1.720943E-04
5.659633E+03	8.499451E-03	1.669649E-04
5.669493E+03	8.296059E-03	1.625870E-04
5.679353E+03	8.134417E-03	1.590471E-04
5.689213E+03	8.018725E-03	1.564213E-04
5.699073E+03	7.952137E-03	1.547645E-04
5.708933E+03	7.937421E-03	1.541238E-04
5.718793E+03	7.976631E-03	1.545321E-04
5.728653E+03	8.071453E-03	1.560148E-04
5.738513E+03	8.222770E-03	1.585818E-04
5.748373E+03	8.431129E-03	1.622364E-04
5.758233E+03	8.695941E-03	1.669602E-04
5.768093E+03	9.015825E-03	1.727198E-04
5.777953E+03	9.387937E-03	1.794542E-04
5.787813E+03	9.808072E-03	1.870771E-04
5.797673E+03	1.027006E-02	1.954656E-04
5.807533E+03	1.076591E-02	2.044633E-04
5.817393E+03	1.128570E-02	2.138786E-04
5.827253E+03	1.181774E-02	2.234883E-04
5.837113E+03	1.234883E-02	2.330425E-04
5.846973E+03	1.286514E-02	2.422815E-04
5.856833E+03	1.335261E-02	2.509434E-04
5.866693E+03	1.379769E-02	2.587783E-04
5.876553E+03	1.418845E-02	2.655681E-04
5.886413E+03	1.451526E-02	2.711400E-04
5.896273E+03	1.477109E-02	2.753706E-04
5.906133E+03	1.495168E-02	2.781887E-04
5.915993E+03	1.505642E-02	2.795918E-04
5.925853E+03	1.508737E-02	2.796265E-04
5.935713E+03	1.504905E-02	2.783843E-04
5.945573E+03	1.494835E-02	2.760001E-04
5.955433E+03	1.479361E-02	2.726338E-04
5.965293E+03	1.459417E-02	2.684628E-04
5.975153E+03	1.436001E-02	2.636747E-04
5.985013E+03	1.410099E-02	2.584534E-04
5.994873E+03	1.382648E-02	2.529726E-04
6.004733E+03	1.354574E-02	2.474024E-04
6.014593E+03	1.326644E-02	2.418834E-04
6.024453E+03	1.299578E-02	2.365457E-04
6.034313E+03	1.273940E-02	2.314910E-04
6.044173E+03	1.250206E-02	2.268039E-04
6.054033E+03	1.228723E-02	2.225451E-04
6.063893E+03	1.209724E-02	2.187547E-04
6.073753E+03	1.193324E-02	2.154511E-04
6.083613E+03	1.179552E-02	2.126370E-04
6.093473E+03	1.168319E-02	2.102943E-04
6.103333E+03	1.159515E-02	2.084006E-04
6.113193E+03	1.152897E-02	2.069109E-04
6.123053E+03	1.148218E-02	2.057786E-04
6.132913E+03	1.145169E-02	2.049475E-04
6.142773E+03	1.143425E-02	2.043576E-04
6.152633E+03	1.142686E-02	2.039546E-04
6.162493E+03	1.142643E-02	2.036824E-04
6.172353E+03	1.143004E-02	2.034883E-04
6.182213E+03	1.143515E-02	2.033271E-04
6.192073E+03	1.143973E-02	2.031621E-04
6.201933E+03	1.144151E-02	2.029531E-04
6.211793E+03	1.143899E-02	2.026736E-04
6.221653E+03	1.143046E-02	2.022932E-04
6.231513E+03	1.141433E-02	2.017846E-04
6.241373E+03	1.138945E-02	2.011272E-04
6.251232E+03	1.135473E-02	2.003023E-04
6.261092E+03	1.130920E-02	1.992933E-04
6.270952E+03	1.125227E-02	1.980901E-04
6.280812E+03	1.118383E-02	1.966911E-04
6.290672E+03	1.110352E-02	1.950906E-04
6.300532E+03	1.101158E-02	1.932930E-04
6.310392E+03	1.090843E-02	1.913061E-04
6.320252E+03	1.079443E-02	1.891366E-04
6.330112E+03	1.067044E-02	1.867997E-04
6.339972E+03	1.053725E-02	1.843096E-04
6.349832E+03	1.039593E-02	1.816849E-04
6.359692E+03	1.024747E-02	1.789432E-04
6.369552E+03	1.009351E-02	1.761133E-04
6.379412E+03	9.935573E-03	1.732216E-04
6.389272E+03	9.775533E-03	1.703007E-04
6.399132E+03	9.615501E-03	1.673871E-04
6.408992E+03	9.457846E-03	1.645220E-04
6.418852E+03	9.304868E-03	1.617449E-04
6.428712E+03	9.159488E-03	1.591062E-04
6.438572E+03	9.024295E-03	1.566504E-04
6.448432E+03	8.902467E-03	1.544322E-04
6.458292E+03	8.796741E-03	1.524983E-04
6.468152E+03	8.710175E-03	1.509011E-04
6.478012E+03	8.645407E-03	1.496854E-04
6.487872E+03	8.605222E-03	1.488986E-04
6.497732E+03	8.591718E-03	1.485763E-04
6.507592E+03	8.606863E-03	1.487514E-04
6.517452E+03	8.651942E-03	1.494454E-04
6.527312E+03	8.727745E-03	1.506710E-04
6.537172E+03	8.834375E-03	1.524292E-04
6.547032E+03	8.971262E-03	1.547091E-04
6.556892E+03	9.136765E-03	1.574820E-04
6.566752E+03	9.328415E-03	1.607045E-04
6.576612E+03	9.542859E-03	1.643183E-04
6.586472E+03	9.775665E-03	1.682467E-04
6.596332E+03	1.002136E-02	1.723954E-04
6.606192E+03	1.027399E-02	1.766616E-04
6.616052E+03	1.052652E-02	1.809246E-04
6.625912E+03	1.077187E-02	1.850628E-04
6.635772E+03	1.100286E-02	1.889536E-04
6.645632E+03	1.121233E-02	1.924741E-04
6.655492E+03	1.139392E-02	1.955161E-04
6.665352E+03	1.154204E-02	1.979841E-04
6.675212E+03	1.165209E-02	1.998003E-04
6.685072E+03	1.172125E-02	2.009170E-04
6.694932E+03	1.174775E-02	2.013049E-04
6.704792E+03	1.173151E-02	2.009632E-04
6.714652E+03	1.167391E-02	1.999162E-04
6.724512E+03	1.157783E-02	1.982142E-04
6.734372E+03	1.144724E-02	1.959254E-04
6.744232E+03	1.128696E-02	1.931328E-04
6.754092E+03	1.110296E-02	1.899389E-04
6.763952E+03	1.090121E-02	1.864459E-04
6.773812E+03	1.068835E-02	1.827676E-04
6.783672E+03	1.047105E-02	1.790181E-04
6.793532E+03	1.025550E-02	1.753029E-04
6.803392E+03	1.004807E-02	1.717308E-04
6.813252E+03	9.854440E-03	1.683988E-04
6.823112E+03	9.679660E-03	1.653929E-04
6.832972E+03	9.528301E-03	1.627911E-04
6.842832E+03	9.404409E-03	1.606623E-04
6.852692E+03	9.311246E-03	1.590620E-04
6.862552E+03	9.251294E-03	1.580327E-04
6.872412E+03	9.226572E-03	1.576087E-04
6.882272E+03	9.238289E-03	1.578107E-04
6.892132E+03	9.286825E-03	1.586455E-04
6.901992E+03	9.372140E-03	1.601125E-04
6.911852E+03	9.492949E-03	1.621902E-04
6.921712E+03	9.647459E-03	1.648483E-04
6.931572E+03	9.833005E-03	1.680419E-04
6.941432E+03	1.004565E-02	1.717042E-04
6.951292E+03	1.028107E-02	1.757619E-04
6.961152E+03	1.053360E-02	1.801191E-04
6.971012E+03	1.079744E-02	1.846772E-04
6.980872E+03	1.106593E-02	1.893228E-04
6.990732E+03	1.133233E-02	1.939414E-04
7.000592E+03	1.159006E-02	1.984209E-04
7.010452E+03	1.183316E-02	2.026597E-04
7.020312E+03	1.205620E-02	2.065651E-04
7.030172E+03	1.225499E-02	2.100656E-04
7.040032E+03	1.242683E-02	2.131145E-04
7.049892E+03	1.257007E-02	2.156838E-04
7.059752E+03	1.268482E-02	2.177749E-04
7.069612E+03	1.277229E-02	2.194083E-04
7.079472E+03	1.283465E-02	2.206207E-04
7.089331E+03	1.287520E-02	2.214686E-04
7.099191E+03	1.289750E-02	2.220127E-04
7.109051E+03	1.290585E-02	2.223267E-04
7.118911E+03	1.290389E-02	2.224733E-04
7.128771E+03	1.289570E-02	2.225224E-04
7.138631E+03	1.288444E-02	2.225286E-04
7.148491E+03	1.287287E-02	2.225400E-04
7.158351E+03	1.286313E-02	2.225934E-04
7.168211E+03	1.285681E-02	2.227169E-04
7.178071E+03	1.285447E-02	2.229207E-04
7.187931E+03	1.285619E-02	2.232064E-04
7.197791E+03	1.286173E-02	2.235706E-04
7.207651E+03	1.286964E-02	2.239886E-04
7.217511E+03	1.287837E-02	2.244335E-04
7.227371E+03	1.288633E-02	2.248782E-04
7.237231E+03	1.289105E-02	2.252797E-04
7.247091E+03	1.289028E-02	2.255986E-04
7.256951E+03	1.288196E-02	2.257987E-04
7.266811E+03	1.286384E-02	2.258400E-04
7.276671E+03	1.283424E-02	2.256924E-04
7.286531E+03	1.279130E-02	2.253224E-04
7.296391E+03	1.273389E-02	2.247089E-04
7.306251E+03	1.266150E-02	2.238415E-04
7.316111E+03	1.257354E-02	2.227084E-04
7.325971E+03	1.247036E-02	2.213140E-04
7.335831E+03	1.235218E-02	2.196607E-04
7.345691E+03	1.222038E-02	2.177713E-04
7.355551E+03	1.207580E-02	2.156588E-04
7.365411E+03	1.191993E-02	2.133482E-04
7.375271E+03	1.175420E-02	2.108635E-04
7.385131E+03	1.158025E-02	2.082326E-04
7.394991E+03	1.139955E-02	2.054799E-04
7.404851E+03	1.121334E-02	2.026261E-04
7.414711E+03	1.102307E-02	1.996960E-04
7.424571E+03	1.082978E-02	1.967069E-04
7.434431E+03	1.063456E-02	1.936771E-04
7.444291E+03	1.043849E-02	1.906255E-04
7.454151E+03	1.024230E-02	1.875640E-04
7.464011E+03	1.004691E-02	1.845089E-04
7.473871E+03	9.852814E-03	1.814683E-04
7.483731E+03	9.660938E-03	1.784588E-04
7.493591E+03	9.472165E-03	1.754963E-04
7.503451E+03	9.287460E-03	1.725984E-04
7.513311E+03	9.107687E-03	1.697811E-04
7.523171E+03	8.933774E-03	1.670619E-04
7.533031E+03	8.766756E-03	1.644604E-04
7.542891E+03	8.607461E-03	1.619929E-04
7.552751E+03	8.456861E-03	1.596783E-04
7.562611E+03	8.315978E-03	1.575372E-04
7.572471E+03	8.185379E-03	1.555814E-04
7.582331E+03	8.065816E-03	1.538269E-04
7.592191E+03	7.957869E-03	1.522862E-04
7.602051E+03	7.861595E-03	1.509623E-04
7.611911E+03	7.777185E-03	1.498609E-04
7.621771E+03	7.704521E-03	1.489816E-04
7.631631E+03	7.643289E-03	1.483203E-04
7.641491E+03	7.593075E-03	1.478712E-04
7.651351E+03	7.552967E-03	1.476183E-04
