#wls	flux	fluxerr
1.577598E+03	1.625428E-04	8.112027E-06
1.617038E+03	1.665806E-04	8.301145E-06
1.656478E+03	1.697839E-04	8.447802E-06
1.695918E+03	1.721591E-04	8.552494E-06
1.735358E+03	1.735371E-04	8.607005E-06
1.774798E+03	1.736948E-04	8.600504E-06
1.814238E+03	1.722992E-04	8.516839E-06
1.853678E+03	1.690611E-04	8.342119E-06
1.893118E+03	1.637455E-04	8.065277E-06
1.932558E+03	1.562387E-04	7.681296E-06
1.971998E+03	1.469697E-04	7.211870E-06
2.011438E+03	1.369584E-04	6.707507E-06
2.050878E+03	1.279557E-04	6.254057E-06
2.090317E+03	1.220299E-04	5.952166E-06
2.129757E+03	1.207799E-04	5.878769E-06
2.169197E+03	1.247602E-04	6.059355E-06
2.208637E+03	1.333865E-04	6.463925E-06
2.248077E+03	1.454060E-04	7.030326E-06
2.287517E+03	1.593130E-04	7.684707E-06
2.326957E+03	1.738388E-04	8.365262E-06
2.366397E+03	1.881612E-04	9.032180E-06
2.405837E+03	2.017248E-04	9.658814E-06
2.445277E+03	2.143335E-04	1.023596E-05
2.484717E+03	2.259408E-04	1.076165E-05
2.524157E+03	2.366334E-04	1.124026E-05
2.563597E+03	2.465172E-04	1.167707E-05
2.603037E+03	2.556836E-04	1.207663E-05
2.642477E+03	2.643402E-04	1.244890E-05
2.681917E+03	2.725901E-04	1.279885E-05
2.721357E+03	2.806111E-04	1.313491E-05
2.760797E+03	2.885474E-04	1.346380E-05
2.800237E+03	2.965484E-04	1.379243E-05
2.839677E+03	3.047717E-04	1.412800E-05
2.879117E+03	3.134277E-04	1.448004E-05
2.918556E+03	3.227450E-04	1.485877E-05
2.957996E+03	3.328943E-04	1.527162E-05
2.967856E+03	3.355642E-04	1.538022E-05
2.977716E+03	3.383276E-04	1.549281E-05
2.987576E+03	3.411886E-04	1.560956E-05
2.997436E+03	3.441189E-04	1.572918E-05
3.007296E+03	3.471944E-04	1.585511E-05
3.017156E+03	3.504096E-04	1.598708E-05
3.027016E+03	3.538020E-04	1.612679E-05
3.036876E+03	3.573259E-04	1.627212E-05
3.046736E+03	3.609785E-04	1.642293E-05
3.056596E+03	3.648422E-04	1.658294E-05
3.066456E+03	3.687889E-04	1.674632E-05
3.076316E+03	3.729460E-04	1.691882E-05
3.086176E+03	3.771847E-04	1.709457E-05
3.096036E+03	3.816351E-04	1.727947E-05
3.105896E+03	3.862120E-04	1.746961E-05
3.115756E+03	3.909167E-04	1.766504E-05
3.125616E+03	3.957951E-04	1.786782E-05
3.135476E+03	4.008498E-04	1.807802E-05
3.145336E+03	4.060391E-04	1.829375E-05
3.155196E+03	4.114107E-04	1.851714E-05
3.165056E+03	4.169224E-04	1.874625E-05
3.174916E+03	4.226230E-04	1.898326E-05
3.184776E+03	4.284697E-04	1.922621E-05
3.194636E+03	4.345117E-04	1.947729E-05
3.204496E+03	4.407530E-04	1.973665E-05
3.214356E+03	4.471490E-04	2.000225E-05
3.224216E+03	4.537497E-04	2.027632E-05
3.234076E+03	4.605578E-04	2.055893E-05
3.243936E+03	4.675266E-04	2.084796E-05
3.253796E+03	4.747057E-04	2.114562E-05
3.263656E+03	4.820462E-04	2.144967E-05
3.273516E+03	4.895971E-04	2.176227E-05
3.283376E+03	4.973576E-04	2.208336E-05
3.293236E+03	5.052741E-04	2.241051E-05
3.303096E+03	5.133941E-04	2.274582E-05
3.312956E+03	5.216606E-04	2.308671E-05
3.322816E+03	5.301722E-04	2.343752E-05
3.332676E+03	5.387621E-04	2.379085E-05
3.342536E+03	5.475810E-04	2.415332E-05
3.352396E+03	5.565097E-04	2.451965E-05
3.362256E+03	5.655899E-04	2.489165E-05
3.372116E+03	5.747509E-04	2.526618E-05
3.381976E+03	5.840878E-04	2.564740E-05
3.391836E+03	5.934134E-04	2.602706E-05
3.401696E+03	6.028772E-04	2.641172E-05
3.411556E+03	6.123429E-04	2.679539E-05
3.421416E+03	6.218445E-04	2.717953E-05
3.431276E+03	6.312982E-04	2.756049E-05
3.441136E+03	6.407962E-04	2.794228E-05
3.450996E+03	6.501926E-04	2.831855E-05
3.460856E+03	6.594589E-04	2.868804E-05
3.470716E+03	6.686882E-04	2.905484E-05
3.480576E+03	6.777312E-04	2.941246E-05
3.490436E+03	6.865600E-04	2.975972E-05
3.500296E+03	6.952724E-04	3.010087E-05
3.510156E+03	7.037203E-04	3.042952E-05
3.520016E+03	7.118810E-04	3.074475E-05
3.529876E+03	7.198618E-04	3.105120E-05
3.539736E+03	7.275214E-04	3.134282E-05
3.549596E+03	7.349124E-04	3.162192E-05
3.559456E+03	7.419650E-04	3.188555E-05
3.569316E+03	7.488069E-04	3.213922E-05
3.579176E+03	7.553162E-04	3.237775E-05
3.589036E+03	7.615050E-04	3.260171E-05
3.598896E+03	7.675219E-04	3.281749E-05
3.608756E+03	7.732652E-04	3.302079E-05
3.618616E+03	7.787698E-04	3.321312E-05
3.628476E+03	7.842072E-04	3.340185E-05
3.638336E+03	7.894988E-04	3.358361E-05
3.648196E+03	7.947025E-04	3.376091E-05
3.658056E+03	8.000124E-04	3.394198E-05
3.667916E+03	8.053716E-04	3.412440E-05
3.677776E+03	8.109230E-04	3.431420E-05
3.687636E+03	8.166862E-04	3.451218E-05
3.697496E+03	8.228148E-04	3.472477E-05
3.707356E+03	8.294020E-04	3.495585E-05
3.717216E+03	8.365445E-04	3.520941E-05
3.727076E+03	8.442767E-04	3.548678E-05
3.736936E+03	8.526992E-04	3.579210E-05
3.746796E+03	8.620435E-04	3.613494E-05
3.756655E+03	8.722808E-04	3.651393E-05
3.766515E+03	8.835108E-04	3.693308E-05
3.776375E+03	8.959641E-04	3.740185E-05
3.786235E+03	9.096036E-04	3.791847E-05
3.796095E+03	9.245205E-04	3.848652E-05
3.805955E+03	9.408687E-04	3.911218E-05
3.815815E+03	9.587309E-04	3.979861E-05
3.825675E+03	9.781124E-04	4.054576E-05
3.835535E+03	9.991504E-04	4.135904E-05
3.845395E+03	1.021832E-03	4.223763E-05
3.855255E+03	1.046279E-03	4.318621E-05
3.865115E+03	1.072456E-03	4.420302E-05
3.874975E+03	1.100463E-03	4.529190E-05
3.884835E+03	1.130318E-03	4.645317E-05
3.894695E+03	1.161942E-03	4.768332E-05
3.904555E+03	1.195320E-03	4.898136E-05
3.914415E+03	1.230503E-03	5.034907E-05
3.924275E+03	1.267449E-03	5.178440E-05
3.934135E+03	1.305928E-03	5.327759E-05
3.943995E+03	1.346122E-03	5.483581E-05
3.953855E+03	1.387676E-03	5.644426E-05
3.963715E+03	1.430757E-03	5.810945E-05
3.973575E+03	1.474967E-03	5.981500E-05
3.983435E+03	1.520363E-03	6.156293E-05
3.993295E+03	1.566705E-03	6.334339E-05
4.003155E+03	1.613945E-03	6.515416E-05
4.013015E+03	1.661824E-03	6.698465E-05
4.022875E+03	1.710178E-03	6.882814E-05
4.032735E+03	1.758953E-03	7.068236E-05
4.042595E+03	1.807877E-03	7.253628E-05
4.052455E+03	1.856789E-03	7.438344E-05
4.062315E+03	1.905532E-03	7.621754E-05
4.072175E+03	1.954080E-03	7.803753E-05
4.082035E+03	2.002179E-03	7.983332E-05
4.091895E+03	2.049700E-03	8.159985E-05
4.101755E+03	2.096530E-03	8.333277E-05
4.111615E+03	2.142571E-03	8.502821E-05
4.121475E+03	2.187866E-03	8.668810E-05
4.131335E+03	2.232090E-03	8.829970E-05
4.141195E+03	2.275452E-03	8.987143E-05
4.151055E+03	2.317787E-03	9.139698E-05
4.160915E+03	2.358936E-03	9.287025E-05
4.170775E+03	2.399170E-03	9.430212E-05
4.180635E+03	2.438361E-03	9.568772E-05
4.190495E+03	2.476537E-03	9.702838E-05
4.200355E+03	2.513738E-03	9.832585E-05
4.210215E+03	2.550018E-03	9.958237E-05
4.220075E+03	2.585295E-03	1.007950E-04
4.229935E+03	2.619934E-03	1.019781E-04
4.239795E+03	2.653734E-03	1.031239E-04
4.249655E+03	2.687080E-03	1.042476E-04
4.259515E+03	2.719785E-03	1.053421E-04
4.269375E+03	2.752099E-03	1.064171E-04
4.279235E+03	2.784143E-03	1.074773E-04
4.289095E+03	2.815879E-03	1.085214E-04
4.298955E+03	2.847726E-03	1.095656E-04
4.308815E+03	2.879497E-03	1.106026E-04
4.318675E+03	2.911454E-03	1.116425E-04
4.328535E+03	2.943550E-03	1.126835E-04
4.338395E+03	2.976036E-03	1.137351E-04
4.348255E+03	3.009002E-03	1.148008E-04
4.358115E+03	3.042534E-03	1.158837E-04
4.367975E+03	3.076537E-03	1.169801E-04
4.377835E+03	3.111065E-03	1.180920E-04
4.387695E+03	3.146477E-03	1.192329E-04
4.397555E+03	3.182479E-03	1.203914E-04
4.407415E+03	3.219076E-03	1.215678E-04
4.417275E+03	3.256422E-03	1.227676E-04
4.427135E+03	3.294328E-03	1.239837E-04
4.436995E+03	3.332915E-03	1.252205E-04
4.446855E+03	3.371955E-03	1.264694E-04
4.456715E+03	3.411533E-03	1.277333E-04
4.466575E+03	3.451381E-03	1.290023E-04
4.476435E+03	3.491551E-03	1.302782E-04
4.486295E+03	3.531735E-03	1.315495E-04
4.496155E+03	3.571782E-03	1.328105E-04
4.506015E+03	3.611518E-03	1.340548E-04
4.515875E+03	3.650941E-03	1.352825E-04
4.525735E+03	3.689857E-03	1.364864E-04
4.535595E+03	3.727718E-03	1.376463E-04
4.545455E+03	3.764670E-03	1.387680E-04
4.555315E+03	3.800333E-03	1.398374E-04
4.565175E+03	3.834681E-03	1.408541E-04
4.575035E+03	3.867338E-03	1.418043E-04
4.584894E+03	3.897939E-03	1.426752E-04
4.594754E+03	3.926854E-03	1.434807E-04
4.604614E+03	3.953388E-03	1.441956E-04
4.614474E+03	3.977772E-03	1.448289E-04
4.624334E+03	3.999542E-03	1.453642E-04
4.634194E+03	4.018985E-03	1.458124E-04
4.644054E+03	4.035879E-03	1.461658E-04
4.653914E+03	4.050218E-03	1.464248E-04
4.663774E+03	4.062217E-03	1.465976E-04
4.673634E+03	4.071574E-03	1.466739E-04
4.683494E+03	4.078763E-03	1.466711E-04
4.693354E+03	4.083745E-03	1.465884E-04
4.703214E+03	4.086696E-03	1.464323E-04
4.713074E+03	4.087651E-03	1.462047E-04
4.722934E+03	4.087396E-03	1.459339E-04
4.732794E+03	4.085657E-03	1.456104E-04
4.742654E+03	4.082916E-03	1.452516E-04
4.752514E+03	4.079483E-03	1.448689E-04
4.762374E+03	4.075865E-03	1.444802E-04
4.772234E+03	4.072043E-03	1.440850E-04
4.782094E+03	4.068534E-03	1.437016E-04
4.791954E+03	4.065853E-03	1.433480E-04
4.801814E+03	4.064153E-03	1.430295E-04
4.811674E+03	4.063575E-03	1.427510E-04
4.821534E+03	4.064768E-03	1.425349E-04
4.831394E+03	4.067837E-03	1.423845E-04
4.841254E+03	4.072855E-03	1.423022E-04
4.851114E+03	4.080397E-03	1.423076E-04
4.860974E+03	4.090476E-03	1.424007E-04
4.870834E+03	4.103247E-03	1.425864E-04
4.880694E+03	4.118833E-03	1.428685E-04
4.890554E+03	4.137315E-03	1.432492E-04
4.900414E+03	4.158744E-03	1.437299E-04
4.910274E+03	4.183132E-03	1.443104E-04
4.920134E+03	4.210456E-03	1.449894E-04
4.929994E+03	4.240667E-03	1.457646E-04
4.939854E+03	4.273682E-03	1.466327E-04
4.949714E+03	4.309398E-03	1.475897E-04
4.959574E+03	4.347687E-03	1.486308E-04
4.969434E+03	4.388586E-03	1.497566E-04
4.979294E+03	4.431580E-03	1.509494E-04
4.989154E+03	4.476687E-03	1.522092E-04
4.999014E+03	4.523743E-03	1.535303E-04
5.008874E+03	4.572773E-03	1.549131E-04
5.018734E+03	4.623249E-03	1.563395E-04
5.028594E+03	4.675401E-03	1.578169E-04
5.038454E+03	4.728721E-03	1.593281E-04
5.048314E+03	4.783475E-03	1.608818E-04
5.058174E+03	4.839178E-03	1.624615E-04
5.068034E+03	4.896145E-03	1.640776E-04
5.077894E+03	4.954120E-03	1.657215E-04
5.087754E+03	5.013059E-03	1.673916E-04
5.097614E+03	5.072937E-03	1.690868E-04
5.107474E+03	5.133745E-03	1.708068E-04
5.117334E+03	5.195481E-03	1.725515E-04
5.127194E+03	5.258156E-03	1.743210E-04
5.137054E+03	5.321782E-03	1.761157E-04
5.146914E+03	5.386587E-03	1.779431E-04
5.156774E+03	5.452160E-03	1.797895E-04
5.166634E+03	5.518937E-03	1.816691E-04
5.176494E+03	5.586480E-03	1.835675E-04
5.186354E+03	5.655210E-03	1.854984E-04
5.196214E+03	5.724873E-03	1.874534E-04
5.206074E+03	5.795410E-03	1.894304E-04
5.215934E+03	5.866737E-03	1.914268E-04
5.225794E+03	5.938980E-03	1.934466E-04
5.235654E+03	6.011530E-03	1.954699E-04
5.245514E+03	6.084678E-03	1.975062E-04
5.255374E+03	6.157733E-03	1.995332E-04
5.265234E+03	6.230922E-03	2.015583E-04
5.275094E+03	6.303710E-03	2.035643E-04
5.284954E+03	6.376005E-03	2.055486E-04
5.294814E+03	6.446925E-03	2.074828E-04
5.304674E+03	6.516539E-03	2.093696E-04
5.314534E+03	6.583865E-03	2.111779E-04
5.324394E+03	6.648888E-03	2.129075E-04
5.334254E+03	6.711049E-03	2.145412E-04
5.344114E+03	6.769218E-03	2.160435E-04
5.353974E+03	6.823276E-03	2.174114E-04
5.363834E+03	6.872011E-03	2.186070E-04
5.373694E+03	6.915525E-03	2.196346E-04
5.383554E+03	6.952293E-03	2.204468E-04
5.393414E+03	6.981874E-03	2.210306E-04
5.403274E+03	7.003857E-03	2.213743E-04
5.413134E+03	7.017407E-03	2.214530E-04
5.422993E+03	7.022444E-03	2.212652E-04
5.432853E+03	7.018352E-03	2.207929E-04
5.442713E+03	7.005816E-03	2.200590E-04
5.452573E+03	6.984824E-03	2.190644E-04
5.462433E+03	6.955983E-03	2.178291E-04
5.472293E+03	6.919136E-03	2.163494E-04
5.482153E+03	6.875521E-03	2.146650E-04
5.492013E+03	6.824815E-03	2.127667E-04
5.501873E+03	6.768062E-03	2.106879E-04
5.511733E+03	6.705557E-03	2.084386E-04
5.521593E+03	6.637896E-03	2.060379E-04
5.531453E+03	6.565959E-03	2.035138E-04
5.541313E+03	6.490150E-03	2.008791E-04
5.551173E+03	6.411149E-03	1.981554E-04
5.561033E+03	6.329905E-03	1.953722E-04
5.570893E+03	6.246888E-03	1.925443E-04
5.580753E+03	6.163055E-03	1.897011E-04
5.590613E+03	6.078888E-03	1.868574E-04
5.600473E+03	5.995092E-03	1.840350E-04
5.610333E+03	5.912595E-03	1.812620E-04
5.620193E+03	5.832057E-03	1.785584E-04
5.630053E+03	5.753659E-03	1.759293E-04
5.639913E+03	5.678451E-03	1.734066E-04
5.649773E+03	5.606980E-03	1.710064E-04
5.659633E+03	5.539525E-03	1.687367E-04
5.669493E+03	5.476536E-03	1.666105E-04
5.679353E+03	5.418618E-03	1.646458E-04
5.689213E+03	5.366094E-03	1.628517E-04
5.699073E+03	5.318817E-03	1.612231E-04
5.708933E+03	5.277612E-03	1.597843E-04
5.718793E+03	5.242208E-03	1.585264E-04
5.728653E+03	5.212688E-03	1.574512E-04
5.738513E+03	5.189273E-03	1.565649E-04
5.748373E+03	5.171718E-03	1.558593E-04
5.758233E+03	5.160128E-03	1.553370E-04
5.768093E+03	5.154348E-03	1.549928E-04
5.777953E+03	5.153971E-03	1.548139E-04
5.787813E+03	5.158745E-03	1.547921E-04
5.797673E+03	5.168577E-03	1.549242E-04
5.807533E+03	5.183126E-03	1.551997E-04
5.817393E+03	5.201821E-03	1.556009E-04
5.827253E+03	5.224465E-03	1.561217E-04
5.837113E+03	5.250639E-03	1.567492E-04
5.846973E+03	5.279696E-03	1.574640E-04
5.856833E+03	5.311188E-03	1.582525E-04
5.866693E+03	5.345077E-03	1.591134E-04
5.876553E+03	5.380503E-03	1.600211E-04
5.886413E+03	5.417026E-03	1.609623E-04
5.896273E+03	5.454436E-03	1.619310E-04
5.906133E+03	5.492334E-03	1.629152E-04
5.915993E+03	5.530358E-03	1.639042E-04
5.925853E+03	5.567950E-03	1.648818E-04
5.935713E+03	5.604808E-03	1.658389E-04
5.945573E+03	5.641100E-03	1.667808E-04
5.955433E+03	5.676166E-03	1.676881E-04
5.965293E+03	5.710035E-03	1.685617E-04
5.975153E+03	5.742332E-03	1.693909E-04
5.985013E+03	5.773167E-03	1.701790E-04
5.994873E+03	5.802457E-03	1.709239E-04
6.004733E+03	5.830146E-03	1.716239E-04
6.014593E+03	5.855975E-03	1.722717E-04
6.024453E+03	5.880161E-03	1.728738E-04
6.034313E+03	5.902704E-03	1.734305E-04
6.044173E+03	5.923383E-03	1.739353E-04
6.054033E+03	5.942450E-03	1.743959E-04
6.063893E+03	5.959914E-03	1.748127E-04
6.073753E+03	5.975788E-03	1.751861E-04
6.083613E+03	5.990071E-03	1.755164E-04
6.093473E+03	6.002509E-03	1.757962E-04
6.103333E+03	6.013306E-03	1.760315E-04
6.113193E+03	6.022394E-03	1.762204E-04
6.123053E+03	6.029443E-03	1.763532E-04
6.132913E+03	6.034800E-03	1.764402E-04
6.142773E+03	6.037814E-03	1.764622E-04
6.152633E+03	6.038565E-03	1.764217E-04
6.162493E+03	6.036969E-03	1.763162E-04
6.172353E+03	6.032805E-03	1.761393E-04
6.182213E+03	6.026609E-03	1.759066E-04
6.192073E+03	6.017942E-03	1.756053E-04
6.201933E+03	6.007055E-03	1.752427E-04
6.211793E+03	5.993939E-03	1.748186E-04
6.221653E+03	5.978584E-03	1.743326E-04
6.231513E+03	5.960965E-03	1.737838E-04
6.241373E+03	5.940826E-03	1.731649E-04
6.251232E+03	5.918399E-03	1.724826E-04
6.261092E+03	5.893917E-03	1.717435E-04
6.270952E+03	5.866918E-03	1.709343E-04
6.280812E+03	5.837661E-03	1.700622E-04
6.290672E+03	5.806183E-03	1.691284E-04
6.300532E+03	5.772531E-03	1.681342E-04
6.310392E+03	5.736538E-03	1.670746E-04
6.320252E+03	5.698744E-03	1.659652E-04
6.330112E+03	5.658769E-03	1.647950E-04
6.339972E+03	5.617174E-03	1.635801E-04
6.349832E+03	5.573608E-03	1.623102E-04
6.359692E+03	5.528636E-03	1.610018E-04
6.369552E+03	5.481931E-03	1.596451E-04
6.379412E+03	5.433843E-03	1.582503E-04
6.389272E+03	5.384498E-03	1.568209E-04
6.399132E+03	5.334032E-03	1.553608E-04
6.408992E+03	5.282572E-03	1.538736E-04
6.418852E+03	5.230247E-03	1.523630E-04
6.428712E+03	5.177188E-03	1.508327E-04
6.438572E+03	5.123519E-03	1.492861E-04
6.448432E+03	5.069362E-03	1.477268E-04
6.458292E+03	5.014829E-03	1.461580E-04
6.468152E+03	4.960036E-03	1.445828E-04
6.478012E+03	4.905084E-03	1.430042E-04
6.487872E+03	4.850072E-03	1.414250E-04
6.497732E+03	4.795090E-03	1.398478E-04
6.507592E+03	4.740222E-03	1.382748E-04
6.517452E+03	4.685542E-03	1.367082E-04
6.527312E+03	4.631122E-03	1.351500E-04
6.537172E+03	4.577025E-03	1.336020E-04
6.547032E+03	4.523302E-03	1.320657E-04
6.556892E+03	4.470009E-03	1.305425E-04
6.566752E+03	4.417189E-03	1.290337E-04
6.576612E+03	4.364886E-03	1.275405E-04
6.586472E+03	4.313144E-03	1.260642E-04
6.596332E+03	4.262003E-03	1.246059E-04
6.606192E+03	4.211502E-03	1.231667E-04
6.616052E+03	4.161858E-03	1.217528E-04
6.625912E+03	4.112775E-03	1.203557E-04
6.635772E+03	4.064474E-03	1.189817E-04
6.645632E+03	4.017180E-03	1.176374E-04
6.655492E+03	3.970625E-03	1.163149E-04
6.665352E+03	3.925206E-03	1.150259E-04
6.675212E+03	3.880680E-03	1.137632E-04
6.685072E+03	3.837453E-03	1.125387E-04
6.694932E+03	3.795451E-03	1.113503E-04
6.704792E+03	3.754783E-03	1.102011E-04
6.714652E+03	3.715387E-03	1.090893E-04
6.724512E+03	3.677696E-03	1.080277E-04
6.734372E+03	3.641659E-03	1.070148E-04
6.744232E+03	3.607547E-03	1.060586E-04
6.754092E+03	3.575173E-03	1.051537E-04
6.763952E+03	3.544803E-03	1.043079E-04
6.773812E+03	3.516554E-03	1.035247E-04
6.783672E+03	3.490681E-03	1.028117E-04
6.793532E+03	3.466996E-03	1.021634E-04
6.803392E+03	3.445744E-03	1.015872E-04
6.813252E+03	3.427161E-03	1.010901E-04
6.823112E+03	3.411180E-03	1.006702E-04
6.832972E+03	3.397729E-03	1.003256E-04
6.842832E+03	3.387154E-03	1.000664E-04
6.852692E+03	3.379355E-03	9.989002E-05
6.862552E+03	3.374367E-03	9.979754E-05
6.872412E+03	3.372205E-03	9.978956E-05
6.882272E+03	3.372874E-03	9.986635E-05
6.892132E+03	3.376366E-03	1.000278E-04
6.901992E+03	3.382652E-03	1.002733E-04
6.911852E+03	3.391695E-03	1.006019E-04
6.921712E+03	3.403440E-03	1.010121E-04
6.931572E+03	3.417971E-03	1.015065E-04
6.941432E+03	3.434920E-03	1.020745E-04
6.951292E+03	3.454340E-03	1.027177E-04
6.961152E+03	3.476290E-03	1.034382E-04
6.971012E+03	3.500363E-03	1.042239E-04
6.980872E+03	3.526605E-03	1.050765E-04
6.990732E+03	3.555053E-03	1.059971E-04
7.000592E+03	3.585290E-03	1.069735E-04
7.010452E+03	3.617512E-03	1.080119E-04
7.020312E+03	3.651293E-03	1.090995E-04
7.030172E+03	3.686848E-03	1.102430E-04
7.040032E+03	3.723750E-03	1.114299E-04
7.049892E+03	3.762061E-03	1.126620E-04
7.059752E+03	3.801863E-03	1.139421E-04
7.069612E+03	3.842740E-03	1.152578E-04
7.079472E+03	3.884951E-03	1.166171E-04
7.089331E+03	3.928096E-03	1.180081E-04
7.099191E+03	3.972272E-03	1.194339E-04
7.109051E+03	4.017430E-03	1.208931E-04
7.118911E+03	4.063690E-03	1.223896E-04
7.128771E+03	4.110649E-03	1.239114E-04
7.138631E+03	4.158431E-03	1.254624E-04
7.148491E+03	4.206989E-03	1.270412E-04
7.158351E+03	4.256264E-03	1.286464E-04
7.168211E+03	4.306198E-03	1.302763E-04
7.178071E+03	4.356538E-03	1.319233E-04
7.187931E+03	4.407588E-03	1.335969E-04
7.197791E+03	4.459086E-03	1.352893E-04
7.207651E+03	4.510736E-03	1.369917E-04
7.217511E+03	4.562641E-03	1.387073E-04
7.227371E+03	4.614691E-03	1.404329E-04
7.237231E+03	4.666973E-03	1.421712E-04
7.247091E+03	4.718951E-03	1.439062E-04
7.256951E+03	4.770485E-03	1.456336E-04
7.266811E+03	4.821852E-03	1.473620E-04
7.276671E+03	4.872694E-03	1.490805E-04
7.286531E+03	4.922634E-03	1.507777E-04
7.296391E+03	4.971733E-03	1.524554E-04
7.306251E+03	5.019821E-03	1.541086E-04
7.316111E+03	5.066740E-03	1.557323E-04
7.325971E+03	5.112321E-03	1.573214E-04
7.335831E+03	5.156171E-03	1.588637E-04
7.345691E+03	5.198351E-03	1.603612E-04
7.355551E+03	5.238700E-03	1.618086E-04
7.365411E+03	5.277065E-03	1.632013E-04
7.375271E+03	5.313286E-03	1.645341E-04
7.385131E+03	5.346982E-03	1.657952E-04
7.394991E+03	5.378241E-03	1.669870E-04
7.404851E+03	5.406932E-03	1.681053E-04
7.414711E+03	5.432933E-03	1.691461E-04
7.424571E+03	5.455870E-03	1.700975E-04
7.434431E+03	5.475886E-03	1.709636E-04
7.444291E+03	5.492877E-03	1.717410E-04
7.454151E+03	5.506750E-03	1.724263E-04
7.464011E+03	5.517167E-03	1.730086E-04
7.473871E+03	5.524550E-03	1.735007E-04
7.483731E+03	5.528051E-03	1.738754E-04
7.493591E+03	5.528335E-03	1.741529E-04
7.503451E+03	5.524832E-03	1.743148E-04
7.513311E+03	5.517815E-03	1.743692E-04
7.523171E+03	5.507455E-03	1.743207E-04
7.533031E+03	5.493761E-03	1.741691E-04
7.542891E+03	5.477265E-03	1.739307E-04
7.552751E+03	5.458232E-03	1.736133E-04
7.562611E+03	5.436646E-03	1.732160E-04
7.572471E+03	5.412976E-03	1.727532E-04
7.582331E+03	5.387410E-03	1.722305E-04
7.592191E+03	5.359876E-03	1.716451E-04
7.602051E+03	5.331010E-03	1.710170E-04
7.611911E+03	5.300198E-03	1.703262E-04
7.621771E+03	5.268276E-03	1.695991E-04
7.631631E+03	5.234830E-03	1.688221E-04
7.641491E+03	5.199910E-03	1.679964E-04
7.651351E+03	5.164023E-03	1.671380E-04
