#wls	flux	fluxerr
1.577598E+03	5.773928E-05	2.976813E-06
1.617038E+03	5.880091E-05	3.029234E-06
1.656478E+03	5.956238E-05	3.066057E-06
1.695918E+03	6.000342E-05	3.086273E-06
1.735358E+03	6.010489E-05	3.088935E-06
1.774798E+03	5.976821E-05	3.069023E-06
1.814238E+03	5.892221E-05	3.022942E-06
1.853678E+03	5.746084E-05	2.945327E-06
1.893118E+03	5.532004E-05	2.832987E-06
1.932558E+03	5.247581E-05	2.684794E-06
1.971998E+03	4.908702E-05	2.508982E-06
2.011438E+03	4.550239E-05	2.323449E-06
2.050878E+03	4.230397E-05	2.157926E-06
2.090317E+03	4.016717E-05	2.046783E-06
2.129757E+03	3.958874E-05	2.015142E-06
2.169197E+03	4.074730E-05	2.071831E-06
2.208637E+03	4.343897E-05	2.206196E-06
2.248077E+03	4.724581E-05	2.396760E-06
2.287517E+03	5.167268E-05	2.618221E-06
2.326957E+03	5.633515E-05	2.850992E-06
2.366397E+03	6.096371E-05	3.081384E-06
2.405837E+03	6.538819E-05	3.300793E-06
2.445277E+03	6.956997E-05	3.507290E-06
2.484717E+03	7.349349E-05	3.700119E-06
2.524157E+03	7.718422E-05	3.880595E-06
2.563597E+03	8.068218E-05	4.050754E-06
2.603037E+03	8.404728E-05	4.213625E-06
2.642477E+03	8.731257E-05	4.370873E-06
2.681917E+03	9.052329E-05	4.524763E-06
2.721357E+03	9.372303E-05	4.677466E-06
2.760797E+03	9.697031E-05	4.831883E-06
2.800237E+03	1.002905E-04	4.989247E-06
2.839677E+03	1.037239E-04	5.151524E-06
2.879117E+03	1.073290E-04	5.321570E-06
2.918556E+03	1.111112E-04	5.499582E-06
2.957996E+03	1.151497E-04	5.689412E-06
2.967856E+03	1.161968E-04	5.738577E-06
2.977716E+03	1.172819E-04	5.789561E-06
2.987576E+03	1.183664E-04	5.840454E-06
2.997436E+03	1.194736E-04	5.892404E-06
3.007296E+03	1.206350E-04	5.946964E-06
3.017156E+03	1.218220E-04	6.002721E-06
3.027016E+03	1.230524E-04	6.060548E-06
3.036876E+03	1.243450E-04	6.121366E-06
3.046736E+03	1.256564E-04	6.183036E-06
3.056596E+03	1.270057E-04	6.246494E-06
3.066456E+03	1.284130E-04	6.312728E-06
3.076316E+03	1.298343E-04	6.379571E-06
3.086176E+03	1.312899E-04	6.448020E-06
3.096036E+03	1.328013E-04	6.519123E-06
3.105896E+03	1.343236E-04	6.590675E-06
3.115756E+03	1.359012E-04	6.664850E-06
3.125616E+03	1.374884E-04	6.739405E-06
3.135476E+03	1.391306E-04	6.816567E-06
3.145336E+03	1.407819E-04	6.894078E-06
3.155196E+03	1.424888E-04	6.974216E-06
3.165056E+03	1.442044E-04	7.054685E-06
3.174916E+03	1.459770E-04	7.137835E-06
3.184776E+03	1.477585E-04	7.221319E-06
3.194636E+03	1.495984E-04	7.307554E-06
3.204496E+03	1.514479E-04	7.394148E-06
3.214356E+03	1.533577E-04	7.483579E-06
3.224216E+03	1.552783E-04	7.573421E-06
3.234076E+03	1.572617E-04	7.666211E-06
3.243936E+03	1.592836E-04	7.760761E-06
3.253796E+03	1.613181E-04	7.855804E-06
3.263656E+03	1.634200E-04	7.954005E-06
3.273516E+03	1.655365E-04	8.052794E-06
3.283376E+03	1.677237E-04	8.154891E-06
3.293236E+03	1.699557E-04	8.259037E-06
3.303096E+03	1.722058E-04	8.363929E-06
3.312956E+03	1.745321E-04	8.472383E-06
3.322816E+03	1.769083E-04	8.583117E-06
3.332676E+03	1.793066E-04	8.694778E-06
3.342536E+03	1.817876E-04	8.810304E-06
3.352396E+03	1.843240E-04	8.928362E-06
3.362256E+03	1.869179E-04	9.049044E-06
3.372116E+03	1.895402E-04	9.170946E-06
3.381976E+03	1.922550E-04	9.297160E-06
3.391836E+03	1.950337E-04	9.426298E-06
3.401696E+03	1.978461E-04	9.556893E-06
3.411556E+03	2.007595E-04	9.692187E-06
3.421416E+03	2.037439E-04	9.830728E-06
3.431276E+03	2.068021E-04	9.972645E-06
3.441136E+03	2.099024E-04	1.011640E-05
3.450996E+03	2.131157E-04	1.026541E-05
3.460856E+03	2.164109E-04	1.041815E-05
3.470716E+03	2.197908E-04	1.057477E-05
3.480576E+03	2.232586E-04	1.073541E-05
3.490436E+03	2.267803E-04	1.089841E-05
3.500296E+03	2.304325E-04	1.106746E-05
3.510156E+03	2.341820E-04	1.124095E-05
3.520016E+03	2.380321E-04	1.141904E-05
3.529876E+03	2.419861E-04	1.160186E-05
3.539736E+03	2.460078E-04	1.178767E-05
3.549596E+03	2.501799E-04	1.198044E-05
3.559456E+03	2.544669E-04	1.217843E-05
3.569316E+03	2.588724E-04	1.238182E-05
3.579176E+03	2.634006E-04	1.259080E-05
3.589036E+03	2.680552E-04	1.280552E-05
3.598896E+03	2.727961E-04	1.302407E-05
3.608756E+03	2.777153E-04	1.325082E-05
3.618616E+03	2.827733E-04	1.348387E-05
3.628476E+03	2.879746E-04	1.372342E-05
3.638336E+03	2.933236E-04	1.396968E-05
3.648196E+03	2.988246E-04	1.422282E-05
3.658056E+03	3.044823E-04	1.448307E-05
3.667916E+03	3.102515E-04	1.474824E-05
3.677776E+03	3.162357E-04	1.502325E-05
3.687636E+03	3.223908E-04	1.530599E-05
3.697496E+03	3.287214E-04	1.559665E-05
3.707356E+03	3.352327E-04	1.589546E-05
3.717216E+03	3.419293E-04	1.620263E-05
3.727076E+03	3.488163E-04	1.651839E-05
3.736936E+03	3.558988E-04	1.684293E-05
3.746796E+03	3.631232E-04	1.717372E-05
3.756655E+03	3.706102E-04	1.751645E-05
3.766515E+03	3.783076E-04	1.786862E-05
3.776375E+03	3.862204E-04	1.823045E-05
3.786235E+03	3.943533E-04	1.860213E-05
3.796095E+03	4.027114E-04	1.898390E-05
3.805955E+03	4.112996E-04	1.937594E-05
3.815815E+03	4.201224E-04	1.977846E-05
3.825675E+03	4.291160E-04	2.018842E-05
3.835535E+03	4.384207E-04	2.061241E-05
3.845395E+03	4.479736E-04	2.104744E-05
3.855255E+03	4.577789E-04	2.149368E-05
3.865115E+03	4.678406E-04	2.195128E-05
3.874975E+03	4.781624E-04	2.242041E-05
3.884835E+03	4.887480E-04	2.290120E-05
3.894695E+03	4.995211E-04	2.339006E-05
3.904555E+03	5.106421E-04	2.389446E-05
3.914415E+03	5.220357E-04	2.441086E-05
3.924275E+03	5.337042E-04	2.493933E-05
3.934135E+03	5.456495E-04	2.547993E-05
3.943995E+03	5.578731E-04	2.603270E-05
3.953855E+03	5.702853E-04	2.659344E-05
3.963715E+03	5.830661E-04	2.717051E-05
3.973575E+03	5.961265E-04	2.775972E-05
3.983435E+03	6.094664E-04	2.836104E-05
3.993295E+03	6.230842E-04	2.897437E-05
4.003155E+03	6.368779E-04	2.959493E-05
4.013015E+03	6.510440E-04	3.023184E-05
4.022875E+03	6.654808E-04	3.088034E-05
4.032735E+03	6.801850E-04	3.154024E-05
4.042595E+03	6.950418E-04	3.220619E-05
4.052455E+03	7.102633E-04	3.288801E-05
4.062315E+03	7.257361E-04	3.358039E-05
4.072175E+03	7.414532E-04	3.428300E-05
4.082035E+03	7.572876E-04	3.498994E-05
4.091895E+03	7.734670E-04	3.571171E-05
4.101755E+03	7.898651E-04	3.644244E-05
4.111615E+03	8.064717E-04	3.718164E-05
4.121475E+03	8.231467E-04	3.792284E-05
4.131335E+03	8.401340E-04	3.867725E-05
4.141195E+03	8.572946E-04	3.943845E-05
4.151055E+03	8.744775E-04	4.019947E-05
4.160915E+03	8.919405E-04	4.097216E-05
4.170775E+03	9.095342E-04	4.174962E-05
4.180635E+03	9.270976E-04	4.252446E-05
4.190495E+03	9.449024E-04	4.330914E-05
4.200355E+03	9.626386E-04	4.408943E-05
4.210215E+03	9.805876E-04	4.487821E-05
4.220075E+03	9.985836E-04	4.566788E-05
4.229935E+03	1.016450E-03	4.645037E-05
4.239795E+03	1.034484E-03	4.723923E-05
4.249655E+03	1.052345E-03	4.801898E-05
4.259515E+03	1.070342E-03	4.880366E-05
4.269375E+03	1.088125E-03	4.957732E-05
4.279235E+03	1.106013E-03	5.035448E-05
4.289095E+03	1.123645E-03	5.111877E-05
4.298955E+03	1.141351E-03	5.188519E-05
4.308815E+03	1.158762E-03	5.263696E-05
4.318675E+03	1.176219E-03	5.338960E-05
4.328535E+03	1.193344E-03	5.412596E-05
4.338395E+03	1.210490E-03	5.486210E-05
4.348255E+03	1.227273E-03	5.558054E-05
4.358115E+03	1.244057E-03	5.629790E-05
4.367975E+03	1.260449E-03	5.699637E-05
4.377835E+03	1.276631E-03	5.768418E-05
4.387695E+03	1.292794E-03	5.837001E-05
4.397555E+03	1.308533E-03	5.903560E-05
4.407415E+03	1.324040E-03	5.968967E-05
4.417275E+03	1.339518E-03	6.034135E-05
4.427135E+03	1.354553E-03	6.097198E-05
4.436995E+03	1.369345E-03	6.159072E-05
4.446855E+03	1.384110E-03	6.220717E-05
4.456715E+03	1.398421E-03	6.280228E-05
4.466575E+03	1.412493E-03	6.338563E-05
4.476435E+03	1.426327E-03	6.395739E-05
4.486295E+03	1.439927E-03	6.451774E-05
4.496155E+03	1.453522E-03	6.507695E-05
4.506015E+03	1.466672E-03	6.561532E-05
4.515875E+03	1.479606E-03	6.614315E-05
4.525735E+03	1.492331E-03	6.666077E-05
4.535595E+03	1.504855E-03	6.716858E-05
4.545455E+03	1.517188E-03	6.766702E-05
4.555315E+03	1.529340E-03	6.815654E-05
4.565175E+03	1.541320E-03	6.863763E-05
4.575035E+03	1.553139E-03	6.911080E-05
4.584894E+03	1.564810E-03	6.957658E-05
4.594754E+03	1.576345E-03	7.003551E-05
4.604614E+03	1.587754E-03	7.048816E-05
4.614474E+03	1.599053E-03	7.093512E-05
4.624334E+03	1.610252E-03	7.137696E-05
4.634194E+03	1.621366E-03	7.181428E-05
4.644054E+03	1.632407E-03	7.224769E-05
4.653914E+03	1.643390E-03	7.267779E-05
4.663774E+03	1.654327E-03	7.310520E-05
4.673634E+03	1.665233E-03	7.353051E-05
4.683494E+03	1.676121E-03	7.395434E-05
4.693354E+03	1.686747E-03	7.436593E-05
4.703214E+03	1.697637E-03	7.478852E-05
4.713074E+03	1.708549E-03	7.521138E-05
4.722934E+03	1.719496E-03	7.563512E-05
4.732794E+03	1.730228E-03	7.604870E-05
4.742654E+03	1.741282E-03	7.647578E-05
4.752514E+03	1.752408E-03	7.690536E-05
4.762374E+03	1.763350E-03	7.732621E-05
4.772234E+03	1.774655E-03	7.776228E-05
4.782094E+03	1.786066E-03	7.820237E-05
4.791954E+03	1.797323E-03	7.863499E-05
4.801814E+03	1.808979E-03	7.908439E-05
4.811674E+03	1.820496E-03	7.952706E-05
4.821534E+03	1.832434E-03	7.998745E-05
4.831394E+03	1.844528E-03	8.045393E-05
4.841254E+03	1.856504E-03	8.091458E-05
4.851114E+03	1.868648E-03	8.138185E-05
4.860974E+03	1.881251E-03	8.186841E-05
4.870834E+03	1.893751E-03	8.234980E-05
4.880694E+03	1.906725E-03	8.285110E-05
4.890554E+03	1.919604E-03	8.334751E-05
4.900414E+03	1.932969E-03	8.386434E-05
4.910274E+03	1.946242E-03	8.437643E-05
4.920134E+03	1.959716E-03	8.489648E-05
4.929994E+03	1.973391E-03	8.542453E-05
4.939854E+03	1.987570E-03	8.597365E-05
4.949714E+03	2.001653E-03	8.651790E-05
4.959574E+03	2.015938E-03	8.707008E-05
4.969434E+03	2.030424E-03	8.763021E-05
4.979294E+03	2.045414E-03	8.821136E-05
4.989154E+03	2.060292E-03	8.878690E-05
4.999014E+03	2.075362E-03	8.936994E-05
5.008874E+03	2.090613E-03	8.996000E-05
5.018734E+03	2.106042E-03	9.055701E-05
5.028594E+03	2.121642E-03	9.116056E-05
5.038454E+03	2.137404E-03	9.177034E-05
5.048314E+03	2.153317E-03	9.238583E-05
5.058174E+03	2.169373E-03	9.300671E-05
5.068034E+03	2.185561E-03	9.363248E-05
5.077894E+03	2.201865E-03	9.426246E-05
5.087754E+03	2.218276E-03	9.489632E-05
5.097614E+03	2.234778E-03	9.553329E-05
5.107474E+03	2.251355E-03	9.617278E-05
5.117334E+03	2.267991E-03	9.681409E-05
5.127194E+03	2.284673E-03	9.745663E-05
5.137054E+03	2.301380E-03	9.809952E-05
5.146914E+03	2.317746E-03	9.872722E-05
5.156774E+03	2.334447E-03	9.936857E-05
5.166634E+03	2.351115E-03	1.000078E-04
5.176494E+03	2.367732E-03	1.006443E-04
5.186354E+03	2.383920E-03	1.012620E-04
5.196214E+03	2.400368E-03	1.018901E-04
5.206074E+03	2.416699E-03	1.025126E-04
5.215934E+03	2.432528E-03	1.031134E-04
5.225794E+03	2.448556E-03	1.037221E-04
5.235654E+03	2.464403E-03	1.043226E-04
5.245514E+03	2.479669E-03	1.048981E-04
5.255374E+03	2.495075E-03	1.054791E-04
5.265234E+03	2.509853E-03	1.060332E-04
5.275094E+03	2.524729E-03	1.065911E-04
5.284954E+03	2.538924E-03	1.071199E-04
5.294814E+03	2.553178E-03	1.076509E-04
5.304674E+03	2.566703E-03	1.081510E-04
5.314534E+03	2.580246E-03	1.086516E-04
5.324394E+03	2.593013E-03	1.091193E-04
5.334254E+03	2.605372E-03	1.095698E-04
5.344114E+03	2.617687E-03	1.100183E-04
5.353974E+03	2.629165E-03	1.104317E-04
5.363834E+03	2.640173E-03	1.108253E-04
5.373694E+03	2.651091E-03	1.112152E-04
5.383554E+03	2.661110E-03	1.115675E-04
5.393414E+03	2.670612E-03	1.118982E-04
5.403274E+03	2.679579E-03	1.122067E-04
5.413134E+03	2.688403E-03	1.125095E-04
5.422993E+03	2.696275E-03	1.127727E-04
5.432853E+03	2.703586E-03	1.130128E-04
5.442713E+03	2.710339E-03	1.132298E-04
5.452573E+03	2.716527E-03	1.134237E-04
5.462433E+03	2.722157E-03	1.135947E-04
5.472293E+03	2.727227E-03	1.137428E-04
5.482153E+03	2.731743E-03	1.138683E-04
5.492013E+03	2.736119E-03	1.139884E-04
5.501873E+03	2.739544E-03	1.140694E-04
5.511733E+03	2.742431E-03	1.141287E-04
5.521593E+03	2.744385E-03	1.141497E-04
5.531453E+03	2.746226E-03	1.141666E-04
5.541313E+03	2.747558E-03	1.141631E-04
5.551173E+03	2.748393E-03	1.141395E-04
5.561033E+03	2.748740E-03	1.140964E-04
5.570893E+03	2.748608E-03	1.140341E-04
5.580753E+03	2.748017E-03	1.139536E-04
5.590613E+03	2.746973E-03	1.138550E-04
5.600473E+03	2.745494E-03	1.137391E-04
5.610333E+03	2.743182E-03	1.135896E-04
5.620193E+03	2.740869E-03	1.134409E-04
5.630053E+03	2.738158E-03	1.132765E-04
5.639913E+03	2.735069E-03	1.130974E-04
5.649773E+03	2.731204E-03	1.128870E-04
5.659633E+03	2.727393E-03	1.126797E-04
5.669493E+03	2.723241E-03	1.124593E-04
5.679353E+03	2.718360E-03	1.122096E-04
5.689213E+03	2.713571E-03	1.119647E-04
5.699073E+03	2.708480E-03	1.117083E-04
5.708933E+03	2.702701E-03	1.114244E-04
5.718793E+03	2.697047E-03	1.111466E-04
5.728653E+03	2.690730E-03	1.108425E-04
5.738513E+03	2.684560E-03	1.105454E-04
5.748373E+03	2.677747E-03	1.102227E-04
5.758233E+03	2.671099E-03	1.099079E-04
5.768093E+03	2.663828E-03	1.095684E-04
5.777953E+03	2.656738E-03	1.092373E-04
5.787813E+03	2.649043E-03	1.088824E-04
5.797673E+03	2.641538E-03	1.085363E-04
5.807533E+03	2.633442E-03	1.081669E-04
5.817393E+03	2.625158E-03	1.077907E-04
5.827253E+03	2.617075E-03	1.074239E-04
5.837113E+03	2.608419E-03	1.070345E-04
5.846973E+03	2.599584E-03	1.066388E-04
5.856833E+03	2.590953E-03	1.062525E-04
5.866693E+03	2.581765E-03	1.058444E-04
5.876553E+03	2.572398E-03	1.054299E-04
5.886413E+03	2.563240E-03	1.050251E-04
5.896273E+03	2.553524E-03	1.045984E-04
5.906133E+03	2.543635E-03	1.041656E-04
5.915993E+03	2.533570E-03	1.037267E-04
5.925853E+03	2.523328E-03	1.032815E-04
5.935713E+03	2.513283E-03	1.028454E-04
5.945573E+03	2.502683E-03	1.023876E-04
5.955433E+03	2.491901E-03	1.019234E-04
5.965293E+03	2.480936E-03	1.014527E-04
5.975153E+03	2.469786E-03	1.009755E-04
5.985013E+03	2.458446E-03	1.004916E-04
5.994873E+03	2.446920E-03	1.000010E-04
6.004733E+03	2.435198E-03	9.950350E-05
6.014593E+03	2.423285E-03	9.899916E-05
6.024453E+03	2.411178E-03	9.848788E-05
6.034313E+03	2.398870E-03	9.796945E-05
6.044173E+03	2.386367E-03	9.744401E-05
6.054033E+03	2.373663E-03	9.691136E-05
6.063893E+03	2.360759E-03	9.637154E-05
6.073753E+03	2.347654E-03	9.582449E-05
6.083613E+03	2.334348E-03	9.527018E-05
6.093473E+03	2.320841E-03	9.470862E-05
6.103333E+03	2.307134E-03	9.413978E-05
6.113193E+03	2.293229E-03	9.356373E-05
6.123053E+03	2.279126E-03	9.298051E-05
6.132913E+03	2.264830E-03	9.239022E-05
6.142773E+03	2.250344E-03	9.179303E-05
6.152633E+03	2.235343E-03	9.117560E-05
6.162493E+03	2.220500E-03	9.056540E-05
6.172353E+03	2.205492E-03	8.994922E-05
6.182213E+03	2.190330E-03	8.932753E-05
6.192073E+03	2.175029E-03	8.870087E-05
6.201933E+03	2.159283E-03	8.805670E-05
6.211793E+03	2.143748E-03	8.742185E-05
6.221653E+03	2.128117E-03	8.678374E-05
6.231513E+03	2.112405E-03	8.614295E-05
6.241373E+03	2.096317E-03	8.548741E-05
6.251232E+03	2.080492E-03	8.484318E-05
6.261092E+03	2.064632E-03	8.419811E-05
6.270952E+03	2.048450E-03	8.354040E-05
6.280812E+03	2.032569E-03	8.289555E-05
6.290672E+03	2.016402E-03	8.223948E-05
6.300532E+03	2.000563E-03	8.159733E-05
6.310392E+03	1.984768E-03	8.095738E-05
6.320252E+03	1.968738E-03	8.030832E-05
6.330112E+03	1.953075E-03	7.967469E-05
6.339972E+03	1.937214E-03	7.903333E-05
6.349832E+03	1.921745E-03	7.840839E-05
6.359692E+03	1.906394E-03	7.778864E-05
6.369552E+03	1.890894E-03	7.716317E-05
6.379412E+03	1.875823E-03	7.655556E-05
6.389272E+03	1.860636E-03	7.594352E-05
6.399132E+03	1.845901E-03	7.535025E-05
6.408992E+03	1.831080E-03	7.475379E-05
6.418852E+03	1.816464E-03	7.416594E-05
6.428712E+03	1.802331E-03	7.359812E-05
6.438572E+03	1.788156E-03	7.302885E-05
6.448432E+03	1.774485E-03	7.248041E-05
6.458292E+03	1.760799E-03	7.193161E-05
6.468152E+03	1.747635E-03	7.140434E-05
6.478012E+03	1.734482E-03	7.087772E-05
6.487872E+03	1.721610E-03	7.036286E-05
6.497732E+03	1.709285E-03	6.987049E-05
6.507592E+03	1.697004E-03	6.938017E-05
6.517452E+03	1.685033E-03	6.890269E-05
6.527312E+03	1.673628E-03	6.844855E-05
6.537172E+03	1.662299E-03	6.799766E-05
6.547032E+03	1.651302E-03	6.756055E-05
6.556892E+03	1.640889E-03	6.714751E-05
6.566752E+03	1.630577E-03	6.673876E-05
6.576612E+03	1.620618E-03	6.634460E-05
6.586472E+03	1.611017E-03	6.596527E-05
6.596332E+03	1.602019E-03	6.561076E-05
6.606192E+03	1.593149E-03	6.526169E-05
6.616052E+03	1.584653E-03	6.492808E-05
6.625912E+03	1.576535E-03	6.461009E-05
6.635772E+03	1.568799E-03	6.430792E-05
6.645632E+03	1.561680E-03	6.403122E-05
6.655492E+03	1.554717E-03	6.376106E-05
6.665352E+03	1.548146E-03	6.350713E-05
6.675212E+03	1.541970E-03	6.326955E-05
6.685072E+03	1.536190E-03	6.304842E-05
6.694932E+03	1.530811E-03	6.284385E-05
6.704792E+03	1.525832E-03	6.265591E-05
6.714652E+03	1.521255E-03	6.248469E-05
6.724512E+03	1.517309E-03	6.233955E-05
6.734372E+03	1.513542E-03	6.220192E-05
6.744232E+03	1.510180E-03	6.208118E-05
6.754092E+03	1.507226E-03	6.197736E-05
6.763952E+03	1.504678E-03	6.189047E-05
6.773812E+03	1.502537E-03	6.182056E-05
6.783672E+03	1.500804E-03	6.176761E-05
6.793532E+03	1.499476E-03	6.173162E-05
6.803392E+03	1.498555E-03	6.171258E-05
6.813252E+03	1.498038E-03	6.171046E-05
6.823112E+03	1.497925E-03	6.172523E-05
6.832972E+03	1.498214E-03	6.175685E-05
6.842832E+03	1.498904E-03	6.180524E-05
6.852692E+03	1.499991E-03	6.187035E-05
6.862552E+03	1.501475E-03	6.195209E-05
6.872412E+03	1.503126E-03	6.204108E-05
6.882272E+03	1.505392E-03	6.215576E-05
6.892132E+03	1.508044E-03	6.228673E-05
6.901992E+03	1.511078E-03	6.243385E-05
6.911852E+03	1.514491E-03	6.259697E-05
6.921712E+03	1.518277E-03	6.277590E-05
6.931572E+03	1.522432E-03	6.297047E-05
6.941432E+03	1.526949E-03	6.318045E-05
6.951292E+03	1.531594E-03	6.339613E-05
6.961152E+03	1.536817E-03	6.363618E-05
6.971012E+03	1.542383E-03	6.389088E-05
6.980872E+03	1.548284E-03	6.415992E-05
6.990732E+03	1.554511E-03	6.444299E-05
7.000592E+03	1.560822E-03	6.473001E-05
7.010452E+03	1.567673E-03	6.503997E-05
7.020312E+03	1.574822E-03	6.536280E-05
7.030172E+03	1.582257E-03	6.569806E-05
7.040032E+03	1.589728E-03	6.603536E-05
7.049892E+03	1.597697E-03	6.639396E-05
7.059752E+03	1.605914E-03	6.676345E-05
7.069612E+03	1.614366E-03	6.714328E-05
7.079472E+03	1.622792E-03	6.752268E-05
7.089331E+03	1.631662E-03	6.792121E-05
7.099191E+03	1.640718E-03	6.832810E-05
7.109051E+03	1.649692E-03	6.873230E-05
7.118911E+03	1.659062E-03	6.915361E-05
7.128771E+03	1.668559E-03	6.958096E-05
7.138631E+03	1.677911E-03	7.000297E-05
7.148491E+03	1.687599E-03	7.043973E-05
7.158351E+03	1.697095E-03	7.086916E-05
7.168211E+03	1.706882E-03	7.131152E-05
7.178071E+03	1.716682E-03	7.175520E-05
7.187931E+03	1.726211E-03	7.218827E-05
7.197791E+03	1.735958E-03	7.263127E-05
7.207651E+03	1.745376E-03	7.306125E-05
7.217511E+03	1.754959E-03	7.349893E-05
7.227371E+03	1.764151E-03	7.392105E-05
7.237231E+03	1.773451E-03	7.434850E-05
7.247091E+03	1.782297E-03	7.475768E-05
7.256951E+03	1.791191E-03	7.516970E-05
7.266811E+03	1.799563E-03	7.556060E-05
7.276671E+03	1.807922E-03	7.595174E-05
7.286531E+03	1.815689E-03	7.631886E-05
7.296391E+03	1.823379E-03	7.668349E-05
7.306251E+03	1.830408E-03	7.702112E-05
7.316111E+03	1.837017E-03	7.734184E-05
7.325971E+03	1.843449E-03	7.765588E-05
7.335831E+03	1.849116E-03	7.793845E-05
7.345691E+03	1.854542E-03	7.821158E-05
7.355551E+03	1.859134E-03	7.845027E-05
7.365411E+03	1.863139E-03	7.866491E-05
7.375271E+03	1.866808E-03	7.886602E-05
7.385131E+03	1.869547E-03	7.902846E-05
7.394991E+03	1.871606E-03	7.916284E-05
7.404851E+03	1.873242E-03	7.927990E-05
7.414711E+03	1.873862E-03	7.935450E-05
7.424571E+03	1.873722E-03	7.939746E-05
7.434431E+03	1.873083E-03	7.941976E-05
7.444291E+03	1.871358E-03	7.939642E-05
7.454151E+03	1.868811E-03	7.933856E-05
7.464011E+03	1.865425E-03	7.924539E-05
7.473871E+03	1.861469E-03	7.912827E-05
7.483731E+03	1.856369E-03	7.896269E-05
7.493591E+03	1.850399E-03	7.876026E-05
7.503451E+03	1.843558E-03	7.852081E-05
7.513311E+03	1.836127E-03	7.825624E-05
7.523171E+03	1.827557E-03	7.794308E-05
7.533031E+03	1.818142E-03	7.759377E-05
7.542891E+03	1.807900E-03	7.720898E-05
7.552751E+03	1.796853E-03	7.678960E-05
7.562611E+03	1.785027E-03	7.633658E-05
7.572471E+03	1.772447E-03	7.585099E-05
7.582331E+03	1.759410E-03	7.534542E-05
7.592191E+03	1.745411E-03	7.479814E-05
7.602051E+03	1.730749E-03	7.422196E-05
7.611911E+03	1.715460E-03	7.361825E-05
7.621771E+03	1.699575E-03	7.298838E-05
7.631631E+03	1.683131E-03	7.233379E-05
7.641491E+03	1.666164E-03	7.165594E-05
7.651351E+03	1.648708E-03	7.095631E-05
