#wls	flux	fluxerr
1.588878E+03	1.597379E-05	3.314450E-07
1.628600E+03	1.669180E-05	3.459332E-07
1.668322E+03	1.714557E-05	3.549144E-07
1.708044E+03	1.730363E-05	3.577573E-07
1.747766E+03	1.714367E-05	3.540231E-07
1.787488E+03	1.661611E-05	3.427132E-07
1.827210E+03	1.568168E-05	3.230462E-07
1.866931E+03	1.432883E-05	2.948154E-07
1.906653E+03	1.260461E-05	2.590202E-07
1.946375E+03	1.062637E-05	2.180975E-07
1.986097E+03	8.601157E-06	1.763119E-07
2.025819E+03	6.782131E-06	1.388503E-07
2.065541E+03	5.390518E-06	1.102210E-07
2.105263E+03	4.543995E-06	9.279452E-08
2.144985E+03	4.258519E-06	8.685419E-08
2.184707E+03	4.508837E-06	9.184210E-08
2.224429E+03	5.273573E-06	1.072815E-07
2.264151E+03	6.526314E-06	1.325952E-07
2.303873E+03	8.213335E-06	1.666543E-07
2.343595E+03	1.024315E-05	2.075704E-07
2.383317E+03	1.250535E-05	2.530814E-07
2.423039E+03	1.489660E-05	3.010799E-07
2.462761E+03	1.732987E-05	3.497984E-07
2.502483E+03	1.974387E-05	3.979974E-07
2.542205E+03	2.210061E-05	4.449136E-07
2.581927E+03	2.437497E-05	4.900459E-07
2.621648E+03	2.655967E-05	5.332546E-07
2.661370E+03	2.865028E-05	5.744576E-07
2.701092E+03	3.065531E-05	6.138330E-07
2.740814E+03	3.258222E-05	6.515365E-07
2.780536E+03	3.445071E-05	6.879676E-07
2.820258E+03	3.628043E-05	7.235230E-07
2.859980E+03	3.810052E-05	7.587861E-07
2.899702E+03	3.994264E-05	7.943874E-07
2.939424E+03	4.185138E-05	8.312104E-07
2.979146E+03	4.387548E-05	8.702167E-07
2.989076E+03	4.440570E-05	8.804305E-07
2.999007E+03	4.494765E-05	8.908697E-07
3.008937E+03	4.550441E-05	9.015949E-07
3.018868E+03	4.607617E-05	9.126094E-07
3.028798E+03	4.667964E-05	9.242441E-07
3.038729E+03	4.732412E-05	9.366823E-07
3.048659E+03	4.801182E-05	9.499667E-07
3.058590E+03	4.873918E-05	9.640262E-07
3.068520E+03	4.950485E-05	9.788332E-07
3.078451E+03	5.030998E-05	9.944096E-07
3.088381E+03	5.114967E-05	1.010658E-06
3.098312E+03	5.202766E-05	1.027652E-06
3.108242E+03	5.294379E-05	1.045386E-06
3.118173E+03	5.389373E-05	1.063775E-06
3.128103E+03	5.488200E-05	1.082908E-06
3.138034E+03	5.590919E-05	1.102795E-06
3.147964E+03	5.697364E-05	1.123403E-06
3.157895E+03	5.807631E-05	1.144749E-06
3.167825E+03	5.922048E-05	1.166899E-06
3.177756E+03	6.040515E-05	1.189830E-06
3.187686E+03	6.163412E-05	1.213618E-06
3.197617E+03	6.290677E-05	1.238248E-06
3.207547E+03	6.422733E-05	1.263804E-06
3.217478E+03	6.559793E-05	1.290327E-06
3.227408E+03	6.701840E-05	1.317811E-06
3.237339E+03	6.849371E-05	1.346354E-06
3.247269E+03	7.002657E-05	1.376008E-06
3.257200E+03	7.161985E-05	1.406828E-06
3.267130E+03	7.327420E-05	1.438826E-06
3.277061E+03	7.499540E-05	1.472113E-06
3.286991E+03	7.678699E-05	1.506758E-06
3.296922E+03	7.865281E-05	1.542835E-06
3.306852E+03	8.059405E-05	1.580365E-06
3.316783E+03	8.262037E-05	1.619537E-06
3.326713E+03	8.473348E-05	1.660383E-06
3.336643E+03	8.693512E-05	1.702934E-06
3.346574E+03	8.923591E-05	1.747396E-06
3.356504E+03	9.163816E-05	1.793814E-06
3.366435E+03	9.414407E-05	1.842227E-06
3.376365E+03	9.676535E-05	1.892864E-06
3.386296E+03	9.950475E-05	1.945775E-06
3.396226E+03	1.023684E-04	2.001077E-06
3.406157E+03	1.053658E-04	2.058955E-06
3.416087E+03	1.084969E-04	2.119405E-06
3.426018E+03	1.117754E-04	2.182689E-06
3.435948E+03	1.152047E-04	2.248874E-06
3.445879E+03	1.187958E-04	2.318171E-06
3.455809E+03	1.225526E-04	2.390652E-06
3.465740E+03	1.264830E-04	2.466465E-06
3.475670E+03	1.305985E-04	2.545836E-06
3.485601E+03	1.349035E-04	2.628844E-06
3.495531E+03	1.394105E-04	2.715728E-06
3.505462E+03	1.441239E-04	2.806572E-06
3.515392E+03	1.490523E-04	2.901539E-06
3.525323E+03	1.542130E-04	3.000958E-06
3.535253E+03	1.596020E-04	3.104752E-06
3.545184E+03	1.652416E-04	3.213344E-06
3.555114E+03	1.711316E-04	3.326731E-06
3.565045E+03	1.772810E-04	3.445080E-06
3.574975E+03	1.837082E-04	3.568743E-06
3.584906E+03	1.904124E-04	3.697698E-06
3.594836E+03	1.974069E-04	3.832201E-06
3.604767E+03	2.046949E-04	3.972306E-06
3.614697E+03	2.122896E-04	4.118263E-06
3.624628E+03	2.201985E-04	4.270213E-06
3.634558E+03	2.284288E-04	4.428289E-06
3.644489E+03	2.369872E-04	4.592613E-06
3.654419E+03	2.458734E-04	4.763174E-06
3.664350E+03	2.550983E-04	4.940178E-06
3.674280E+03	2.646663E-04	5.123700E-06
3.684211E+03	2.745806E-04	5.313799E-06
3.694141E+03	2.848369E-04	5.510383E-06
3.704071E+03	2.954498E-04	5.713727E-06
3.714002E+03	3.064056E-04	5.923560E-06
3.723932E+03	3.177100E-04	6.139987E-06
3.733863E+03	3.293606E-04	6.362954E-06
3.743793E+03	3.413461E-04	6.592235E-06
3.753724E+03	3.536692E-04	6.827875E-06
3.763654E+03	3.663239E-04	7.069757E-06
3.773585E+03	3.793035E-04	7.317739E-06
3.783515E+03	3.926005E-04	7.571672E-06
3.793446E+03	4.061976E-04	7.831219E-06
3.803376E+03	4.200862E-04	8.096206E-06
3.813307E+03	4.342760E-04	8.366816E-06
3.823237E+03	4.487413E-04	8.642549E-06
3.833168E+03	4.634759E-04	8.923276E-06
3.843098E+03	4.784852E-04	9.209102E-06
3.853029E+03	4.937688E-04	9.500010E-06
3.861060E+03	1.597744E-04	3.073179E-06
3.863000E+03	1.710014E-04	3.288905E-06
3.864930E+03	1.862681E-04	3.582294E-06
3.866870E+03	1.983677E-04	3.814739E-06
3.868800E+03	2.131526E-04	4.098791E-06
3.870740E+03	2.279275E-04	4.382611E-06
3.872680E+03	2.452951E-04	4.716242E-06
3.874610E+03	2.604645E-04	5.007570E-06
3.876550E+03	2.764590E-04	5.314719E-06
3.878480E+03	2.948743E-04	5.668364E-06
3.880420E+03	3.153587E-04	6.061731E-06
3.882360E+03	3.354668E-04	6.447813E-06
3.884290E+03	3.564724E-04	6.851097E-06
3.886230E+03	3.780180E-04	7.264701E-06
3.888170E+03	4.002249E-04	7.690959E-06
3.890100E+03	4.197350E-04	8.065342E-06
3.892040E+03	4.390292E-04	8.435527E-06
3.893970E+03	4.581224E-04	8.801802E-06
3.895910E+03	4.776520E-04	9.176410E-06
3.897850E+03	4.932817E-04	9.476049E-06
3.899781E+03	5.089867E-04	9.777100E-06
3.901720E+03	5.248963E-04	1.008204E-05
3.903650E+03	5.378033E-04	1.032927E-05
3.905590E+03	5.489358E-04	1.054238E-05
3.907530E+03	5.608566E-04	1.077061E-05
3.909460E+03	5.711130E-04	1.096685E-05
3.911400E+03	5.777676E-04	1.109390E-05
3.913330E+03	5.883578E-04	1.129650E-05
3.915270E+03	5.919064E-04	1.136387E-05
3.917211E+03	5.964362E-04	1.145008E-05
3.919140E+03	6.006202E-04	1.152964E-05
3.921080E+03	6.043824E-04	1.160109E-05
3.923010E+03	6.066119E-04	1.164312E-05
3.924950E+03	6.070617E-04	1.165098E-05
3.926890E+03	6.099694E-04	1.170601E-05
3.928820E+03	6.102112E-04	1.170988E-05
3.930760E+03	6.073877E-04	1.165492E-05
3.932700E+03	6.048916E-04	1.160626E-05
3.934630E+03	6.014431E-04	1.153933E-05
3.936570E+03	5.961040E-04	1.143613E-05
3.938500E+03	5.911043E-04	1.133947E-05
3.940440E+03	5.878599E-04	1.127648E-05
3.942380E+03	5.898233E-04	1.131340E-05
3.944310E+03	5.905658E-04	1.132689E-05
3.946250E+03	5.930215E-04	1.137324E-05
3.948180E+03	5.922279E-04	1.135727E-05
3.950120E+03	5.885403E-04	1.128581E-05
3.952060E+03	5.901333E-04	1.131561E-05
3.953990E+03	5.963665E-04	1.143437E-05
3.955930E+03	6.044002E-04	1.158764E-05
3.957860E+03	6.110260E-04	1.171390E-05
3.959800E+03	6.200962E-04	1.188700E-05
3.961740E+03	6.286131E-04	1.204947E-05
3.963670E+03	6.338425E-04	1.214891E-05
3.965610E+03	6.402406E-04	1.227073E-05
3.967540E+03	6.465220E-04	1.239031E-05
3.969480E+03	6.548976E-04	1.254999E-05
3.971420E+03	6.661647E-04	1.276507E-05
3.973351E+03	6.763823E-04	1.296000E-05
3.975290E+03	6.880675E-04	1.318303E-05
3.977230E+03	7.020393E-04	1.344984E-05
3.979160E+03	7.152865E-04	1.370273E-05
3.981100E+03	7.329470E-04	1.404013E-05
3.983030E+03	7.505381E-04	1.437615E-05
3.984970E+03	7.624283E-04	1.460294E-05
3.986910E+03	7.764453E-04	1.487043E-05
3.988840E+03	7.889547E-04	1.510902E-05
3.990780E+03	7.968999E-04	1.526017E-05
3.992710E+03	8.056624E-04	1.542696E-05
3.994650E+03	8.135169E-04	1.557633E-05
3.996590E+03	8.228475E-04	1.575395E-05
3.998520E+03	8.309101E-04	1.590727E-05
4.000460E+03	8.415282E-04	1.610948E-05
4.002390E+03	8.506590E-04	1.628321E-05
4.004330E+03	8.561625E-04	1.638748E-05
4.006270E+03	8.591814E-04	1.644418E-05
4.008200E+03	8.604900E-04	1.646815E-05
4.010140E+03	8.632125E-04	1.651917E-05
4.012071E+03	8.651439E-04	1.655505E-05
4.014010E+03	8.652558E-04	1.655610E-05
4.015950E+03	8.624803E-04	1.650191E-05
4.017880E+03	8.609484E-04	1.647152E-05
4.019820E+03	8.599259E-04	1.645088E-05
4.021760E+03	8.568189E-04	1.639037E-05
4.023690E+03	8.538538E-04	1.633258E-05
4.025630E+03	8.513945E-04	1.628447E-05
4.027560E+03	8.495672E-04	1.624846E-05
4.029500E+03	8.428691E-04	1.611929E-05
4.031440E+03	8.368221E-04	1.600260E-05
4.033370E+03	8.316220E-04	1.590212E-05
4.035310E+03	8.211670E-04	1.570117E-05
4.037240E+03	8.099651E-04	1.548598E-05
4.039180E+03	8.010656E-04	1.531482E-05
4.041120E+03	7.894772E-04	1.509228E-05
4.043050E+03	7.793106E-04	1.489696E-05
4.044990E+03	7.735484E-04	1.478584E-05
4.046920E+03	7.676973E-04	1.467305E-05
4.048860E+03	7.587736E-04	1.450154E-05
4.050800E+03	7.519907E-04	1.437097E-05
4.052730E+03	7.484128E-04	1.430166E-05
4.054670E+03	7.452818E-04	1.424090E-05
4.056610E+03	7.466673E-04	1.426644E-05
4.058540E+03	7.442438E-04	1.421921E-05
4.060480E+03	7.407060E-04	1.415069E-05
4.062410E+03	7.371766E-04	1.408235E-05
4.064350E+03	7.400778E-04	1.413685E-05
4.066290E+03	7.430991E-04	1.419363E-05
4.068220E+03	7.461226E-04	1.425046E-05
4.070160E+03	7.473296E-04	1.427258E-05
4.072090E+03	7.536540E-04	1.439243E-05
4.074030E+03	7.607300E-04	1.452661E-05
4.075970E+03	7.650039E-04	1.460727E-05
4.077900E+03	7.669648E-04	1.464376E-05
4.079840E+03	7.713688E-04	1.472689E-05
4.081770E+03	7.792736E-04	1.487684E-05
4.083710E+03	7.848763E-04	1.498282E-05
4.085650E+03	7.908142E-04	1.509519E-05
4.087580E+03	7.982134E-04	1.523544E-05
4.089520E+03	8.053127E-04	1.536994E-05
4.091450E+03	8.066125E-04	1.539375E-05
4.093390E+03	8.096110E-04	1.544997E-05
4.095330E+03	8.097609E-04	1.545183E-05
4.097260E+03	8.110435E-04	1.547530E-05
4.099200E+03	8.183568E-04	1.561383E-05
4.101140E+03	8.241732E-04	1.572378E-05
4.103071E+03	8.285045E-04	1.580539E-05
4.105010E+03	8.321021E-04	1.587299E-05
4.106940E+03	8.358663E-04	1.594377E-05
4.108880E+03	8.357333E-04	1.594019E-05
4.110820E+03	8.355763E-04	1.593616E-05
4.112750E+03	8.309766E-04	1.584741E-05
4.114690E+03	8.261570E-04	1.575448E-05
4.116620E+03	8.289869E-04	1.580742E-05
4.118560E+03	8.315912E-04	1.585605E-05
4.120500E+03	8.292718E-04	1.581081E-05
4.122430E+03	8.283330E-04	1.579189E-05
4.124370E+03	8.272055E-04	1.576937E-05
4.126300E+03	8.255476E-04	1.573675E-05
4.128240E+03	8.272066E-04	1.576735E-05
4.130180E+03	8.233386E-04	1.569261E-05
4.132110E+03	8.180532E-04	1.559086E-05
4.134050E+03	8.111879E-04	1.545902E-05
4.135980E+03	8.065378E-04	1.536941E-05
4.137920E+03	8.050731E-04	1.534051E-05
4.139860E+03	8.054411E-04	1.534653E-05
4.141790E+03	8.012387E-04	1.526548E-05
4.143730E+03	7.981047E-04	1.520478E-05
4.145670E+03	7.967588E-04	1.517816E-05
4.147600E+03	7.940344E-04	1.512529E-05
4.149540E+03	7.872232E-04	1.499458E-05
4.151470E+03	7.852940E-04	1.495687E-05
4.153410E+03	7.873119E-04	1.499434E-05
4.155351E+03	7.883433E-04	1.501301E-05
4.157280E+03	7.882603E-04	1.501047E-05
4.159219E+03	7.886387E-04	1.501670E-05
4.161150E+03	7.886483E-04	1.501592E-05
4.163090E+03	7.889270E-04	1.502026E-05
4.165030E+03	7.953884E-04	1.514230E-05
4.166960E+03	7.992843E-04	1.521549E-05
4.168900E+03	8.006633E-04	1.524076E-05
4.170830E+03	8.011147E-04	1.524838E-05
4.172770E+03	8.060522E-04	1.534137E-05
4.174710E+03	8.097071E-04	1.540994E-05
4.176641E+03	8.093083E-04	1.540137E-05
4.178580E+03	8.108423E-04	1.542957E-05
4.180510E+03	8.099983E-04	1.541252E-05
4.182450E+03	8.064332E-04	1.534370E-05
4.184390E+03	8.032257E-04	1.528169E-05
4.186320E+03	8.020666E-04	1.525866E-05
4.188260E+03	7.968237E-04	1.515795E-05
4.190200E+03	7.934375E-04	1.509256E-05
4.192130E+03	7.954122E-04	1.512916E-05
4.194070E+03	7.932945E-04	1.508791E-05
4.196000E+03	7.892370E-04	1.500978E-05
4.197940E+03	7.868303E-04	1.496305E-05
4.199880E+03	7.849102E-04	1.492558E-05
4.201810E+03	7.818128E-04	1.486573E-05
4.203750E+03	7.778404E-04	1.478925E-05
4.205680E+03	7.690530E-04	1.462124E-05
4.207620E+03	7.681876E-04	1.460386E-05
4.209560E+03	7.693867E-04	1.462572E-05
4.211490E+03	7.702814E-04	1.464179E-05
4.213430E+03	7.692320E-04	1.462091E-05
4.215360E+03	7.692983E-04	1.462124E-05
4.217300E+03	7.714444E-04	1.466109E-05
4.219240E+03	7.763256E-04	1.475291E-05
4.221170E+03	7.777718E-04	1.477946E-05
4.223110E+03	7.803042E-04	1.482663E-05
4.225040E+03	7.840166E-04	1.489623E-05
4.226980E+03	7.882687E-04	1.497606E-05
4.228920E+03	7.900309E-04	1.500858E-05
4.230850E+03	7.903261E-04	1.501324E-05
4.232789E+03	7.925183E-04	1.505392E-05
4.234730E+03	7.925879E-04	1.505428E-05
4.236660E+03	7.925232E-04	1.505210E-05
4.238600E+03	7.960094E-04	1.511735E-05
4.240530E+03	8.001817E-04	1.519562E-05
4.242470E+03	8.020263E-04	1.522968E-05
4.244410E+03	8.045084E-04	1.527584E-05
4.246340E+03	8.086943E-04	1.535435E-05
4.248280E+03	8.150845E-04	1.547469E-05
4.250211E+03	8.249273E-04	1.566057E-05
4.252150E+03	8.336938E-04	1.582599E-05
4.254090E+03	8.408143E-04	1.596015E-05
4.256020E+03	8.453796E-04	1.604579E-05
4.257960E+03	8.493162E-04	1.611949E-05
4.259890E+03	8.529963E-04	1.618831E-05
4.261830E+03	8.613371E-04	1.634557E-05
4.263770E+03	8.688434E-04	1.648697E-05
4.265700E+03	8.738080E-04	1.658013E-05
4.267641E+03	8.784489E-04	1.666713E-05
4.269580E+03	8.846451E-04	1.678363E-05
4.271510E+03	8.894504E-04	1.687373E-05
4.273450E+03	8.932325E-04	1.694441E-05
4.275380E+03	8.968843E-04	1.701261E-05
4.277320E+03	8.982635E-04	1.703770E-05
4.279260E+03	9.002385E-04	1.707408E-05
4.281190E+03	9.017143E-04	1.710099E-05
4.283130E+03	9.079544E-04	1.721825E-05
4.285060E+03	9.111255E-04	1.727730E-05
4.287000E+03	9.100569E-04	1.725594E-05
4.288940E+03	9.062945E-04	1.718352E-05
4.290870E+03	9.047085E-04	1.715237E-05
4.292810E+03	9.039571E-04	1.713704E-05
4.294740E+03	9.018066E-04	1.709520E-05
4.296680E+03	9.019844E-04	1.709749E-05
4.298620E+03	9.040980E-04	1.713648E-05
4.300550E+03	9.041860E-04	1.713707E-05
4.302490E+03	9.012518E-04	1.708038E-05
4.304420E+03	8.976973E-04	1.701195E-05
4.306360E+03	8.948743E-04	1.695739E-05
4.308300E+03	8.935681E-04	1.693157E-05
4.310230E+03	8.930956E-04	1.692156E-05
4.312170E+03	8.929118E-04	1.691701E-05
4.314100E+03	8.911585E-04	1.688274E-05
4.316040E+03	8.899310E-04	1.685842E-05
4.317980E+03	8.902865E-04	1.686410E-05
4.319910E+03	8.917731E-04	1.689120E-05
4.321850E+03	8.902895E-04	1.686204E-05
4.323789E+03	8.890102E-04	1.683676E-05
4.325720E+03	8.896344E-04	1.684753E-05
4.327660E+03	8.897807E-04	1.684924E-05
4.329590E+03	8.878390E-04	1.681143E-05
4.331530E+03	8.854660E-04	1.676544E-05
4.333470E+03	8.872220E-04	1.679764E-05
4.335400E+03	8.884106E-04	1.681909E-05
4.337340E+03	8.893596E-04	1.683601E-05
4.339270E+03	8.911585E-04	1.686901E-05
4.341211E+03	8.910566E-04	1.686603E-05
4.343150E+03	8.889910E-04	1.682588E-05
4.345080E+03	8.886041E-04	1.681751E-05
4.347020E+03	8.916820E-04	1.687471E-05
4.348960E+03	8.887351E-04	1.681789E-05
4.350890E+03	8.821383E-04	1.669202E-05
4.352830E+03	8.789242E-04	1.663016E-05
4.354760E+03	8.801173E-04	1.665170E-05
4.356700E+03	8.765069E-04	1.658236E-05
4.358640E+03	8.761801E-04	1.657515E-05
4.360570E+03	8.745729E-04	1.654372E-05
4.362510E+03	8.736108E-04	1.652449E-05
4.364440E+03	8.738291E-04	1.652759E-05
4.366380E+03	8.776797E-04	1.659939E-05
4.368320E+03	8.761034E-04	1.656855E-05
4.370250E+03	8.766338E-04	1.657756E-05
4.372190E+03	8.776792E-04	1.659629E-05
4.374120E+03	8.756975E-04	1.655780E-05
4.376060E+03	8.726751E-04	1.649963E-05
4.378000E+03	8.726400E-04	1.649794E-05
4.379930E+03	8.714225E-04	1.647390E-05
4.381870E+03	8.702820E-04	1.645132E-05
4.383800E+03	8.710156E-04	1.646417E-05
4.385740E+03	8.698336E-04	1.644081E-05
4.387680E+03	8.707510E-04	1.645713E-05
4.389610E+03	8.698523E-04	1.643914E-05
4.391550E+03	8.718002E-04	1.647493E-05
4.393480E+03	8.750301E-04	1.653495E-05
4.395420E+03	8.814741E-04	1.665569E-05
4.397359E+03	8.883881E-04	1.678529E-05
4.399290E+03	8.914823E-04	1.684272E-05
4.401230E+03	8.949355E-04	1.690692E-05
4.403170E+03	8.975608E-04	1.695547E-05
4.405100E+03	8.998774E-04	1.699818E-05
4.407040E+03	9.019176E-04	1.703567E-05
4.408970E+03	9.067657E-04	1.712619E-05
4.410910E+03	9.094352E-04	1.717556E-05
4.412850E+03	9.120745E-04	1.722434E-05
4.414781E+03	9.157578E-04	1.729284E-05
4.416720E+03	9.200229E-04	1.737231E-05
4.418650E+03	9.242563E-04	1.745118E-05
4.420590E+03	9.279921E-04	1.752064E-05
4.422530E+03	9.345538E-04	1.764344E-05
4.424460E+03	9.400313E-04	1.774577E-05
4.426400E+03	9.444575E-04	1.782823E-05
4.428330E+03	9.501553E-04	1.793469E-05
4.430270E+03	9.567467E-04	1.805800E-05
4.432210E+03	9.652008E-04	1.821644E-05
4.434140E+03	9.734616E-04	1.837123E-05
4.436080E+03	9.806133E-04	1.850506E-05
4.438020E+03	9.889353E-04	1.866097E-05
4.439950E+03	9.962809E-04	1.879843E-05
4.441890E+03	1.005222E-03	1.896597E-05
4.443820E+03	1.012402E-03	1.910028E-05
4.445760E+03	1.017798E-03	1.920091E-05
4.447700E+03	1.024702E-03	1.932997E-05
4.449630E+03	1.034595E-03	1.951541E-05
4.451570E+03	1.043682E-03	1.968562E-05
4.453500E+03	1.051649E-03	1.983468E-05
4.455440E+03	1.056369E-03	1.992248E-05
4.457380E+03	1.063468E-03	2.005515E-05
4.459310E+03	1.075023E-03	2.027182E-05
4.461250E+03	1.081393E-03	2.039070E-05
4.463180E+03	1.089584E-03	2.054390E-05
4.465120E+03	1.097552E-03	2.069288E-05
4.467060E+03	1.105407E-03	2.083971E-05
4.468990E+03	1.113063E-03	2.098277E-05
4.470929E+03	1.123054E-03	2.116983E-05
4.472860E+03	1.133100E-03	2.135792E-05
4.474800E+03	1.144277E-03	2.156727E-05
4.476740E+03	1.153876E-03	2.174688E-05
4.478670E+03	1.168067E-03	2.201300E-05
4.480610E+03	1.184350E-03	2.231852E-05
4.482550E+03	1.202050E-03	2.265068E-05
4.484480E+03	1.217213E-03	2.293503E-05
4.486420E+03	1.234020E-03	2.325031E-05
4.488350E+03	1.251281E-03	2.357410E-05
4.490290E+03	1.269736E-03	2.392035E-05
4.492230E+03	1.287463E-03	2.425283E-05
4.494160E+03	1.300778E-03	2.450218E-05
4.496100E+03	1.310363E-03	2.468125E-05
4.498030E+03	1.324499E-03	2.494601E-05
4.499970E+03	1.340451E-03	2.524492E-05
4.501910E+03	1.357083E-03	2.555661E-05
4.503840E+03	1.371562E-03	2.582774E-05
4.505780E+03	1.384485E-03	2.606951E-05
4.507710E+03	1.396128E-03	2.628718E-05
4.509650E+03	1.415060E-03	2.664203E-05
4.511590E+03	1.435695E-03	2.702891E-05
4.513520E+03	1.453892E-03	2.736986E-05
4.515460E+03	1.470331E-03	2.767765E-05
4.517400E+03	1.488729E-03	2.802230E-05
4.519330E+03	1.505392E-03	2.833425E-05
4.521270E+03	1.520552E-03	2.861788E-05
4.523200E+03	1.535621E-03	2.889975E-05
4.525140E+03	1.557371E-03	2.930734E-05
4.527080E+03	1.580402E-03	2.973895E-05
4.529010E+03	1.600701E-03	3.011913E-05
4.530950E+03	1.614173E-03	3.037080E-05
4.532880E+03	1.630655E-03	3.067909E-05
4.534820E+03	1.651520E-03	3.106978E-05
4.536760E+03	1.669195E-03	3.140042E-05
4.538690E+03	1.691392E-03	3.181609E-05
4.540630E+03	1.711624E-03	3.219474E-05
4.542560E+03	1.733647E-03	3.260704E-05
4.544500E+03	1.757577E-03	3.305517E-05
4.546440E+03	1.777289E-03	3.342389E-05
4.548370E+03	1.798391E-03	3.381874E-05
4.550310E+03	1.818206E-03	3.418933E-05
4.552240E+03	1.835650E-03	3.451529E-05
4.554180E+03	1.851862E-03	3.481805E-05
4.556120E+03	1.865928E-03	3.508042E-05
4.558050E+03	1.879698E-03	3.533722E-05
4.559990E+03	1.901625E-03	3.574731E-05
4.561930E+03	1.923118E-03	3.614920E-05
4.563860E+03	1.938808E-03	3.644196E-05
4.565800E+03	1.953720E-03	3.672007E-05
4.567730E+03	1.968907E-03	3.700333E-05
4.569670E+03	1.987429E-03	3.734921E-05
4.571610E+03	2.004370E-03	3.766535E-05
4.573540E+03	2.017502E-03	3.790990E-05
4.575480E+03	2.030969E-03	3.816068E-05
4.577410E+03	2.046595E-03	3.845203E-05
4.579350E+03	2.058669E-03	3.867658E-05
4.581290E+03	2.064761E-03	3.878875E-05
4.583219E+03	2.070038E-03	3.888560E-05
4.585160E+03	2.077791E-03	3.902894E-05
4.587090E+03	2.083846E-03	3.914037E-05
4.589030E+03	2.086973E-03	3.919679E-05
4.590970E+03	2.085771E-03	3.917190E-05
4.592900E+03	2.081982E-03	3.909846E-05
4.594840E+03	2.080440E-03	3.906720E-05
4.596770E+03	2.078997E-03	3.903782E-05
4.598710E+03	2.069852E-03	3.886381E-05
4.600650E+03	2.059493E-03	3.866704E-05
4.602580E+03	2.049978E-03	3.848615E-05
4.604520E+03	2.044339E-03	3.837803E-05
4.606460E+03	2.035743E-03	3.821441E-05
4.608390E+03	2.021015E-03	3.793574E-05
4.610330E+03	2.009162E-03	3.771104E-05
