#wls	flux	fluxerr
1.588878E+03	2.754299E-06	1.839221E-07
1.628600E+03	2.851380E-06	1.903001E-07
1.668322E+03	2.905838E-06	1.938251E-07
1.708044E+03	2.914553E-06	1.942938E-07
1.747766E+03	2.873933E-06	1.914719E-07
1.787488E+03	2.776205E-06	1.848478E-07
1.827210E+03	2.614842E-06	1.739945E-07
1.866931E+03	2.387648E-06	1.587744E-07
1.906653E+03	2.100774E-06	1.396055E-07
1.946375E+03	1.773025E-06	1.177452E-07
1.986097E+03	1.437415E-06	9.539108E-08
2.025819E+03	1.135545E-06	7.530428E-08
2.065541E+03	9.042681E-07	5.992302E-08
2.105263E+03	7.635055E-07	5.055706E-08
2.144985E+03	7.163523E-07	4.739810E-08
2.184707E+03	7.587775E-07	5.016545E-08
2.224429E+03	8.870260E-07	5.859679E-08
2.264151E+03	1.096212E-06	7.235528E-08
2.303873E+03	1.376144E-06	9.075458E-08
2.343595E+03	1.710509E-06	1.127066E-07
2.383317E+03	2.079564E-06	1.369009E-07
2.423039E+03	2.465014E-06	1.621263E-07
2.462761E+03	2.852344E-06	1.874244E-07
2.502483E+03	3.231683E-06	2.121451E-07
2.542205E+03	3.597329E-06	2.359141E-07
2.581927E+03	3.946756E-06	2.585670E-07
2.621648E+03	4.279648E-06	2.800844E-07
2.661370E+03	4.597096E-06	3.005396E-07
2.701092E+03	4.900700E-06	3.200385E-07
2.740814E+03	5.193553E-06	3.387843E-07
2.780536E+03	5.477992E-06	3.569300E-07
2.820258E+03	5.756389E-06	3.746304E-07
2.859980E+03	6.031907E-06	3.920908E-07
2.899702E+03	6.307330E-06	4.094912E-07
2.939424E+03	6.585876E-06	4.270386E-07
2.979146E+03	6.869408E-06	4.448513E-07
2.989076E+03	6.941219E-06	4.493552E-07
2.999007E+03	7.013577E-06	4.538907E-07
3.008937E+03	7.087006E-06	4.584916E-07
3.018868E+03	7.161087E-06	4.631308E-07
3.028798E+03	7.238614E-06	4.679887E-07
3.038729E+03	7.320523E-06	4.731256E-07
3.048659E+03	7.407341E-06	4.785754E-07
3.058590E+03	7.497626E-06	4.842444E-07
3.068520E+03	7.591494E-06	4.901399E-07
3.078451E+03	7.689104E-06	4.962719E-07
3.088381E+03	7.789093E-06	5.025523E-07
3.098312E+03	7.891679E-06	5.089947E-07
3.108242E+03	7.997134E-06	5.156166E-07
3.118173E+03	8.104136E-06	5.223325E-07
3.128103E+03	8.212994E-06	5.291622E-07
3.138034E+03	8.324073E-06	5.361290E-07
3.147964E+03	8.436076E-06	5.431493E-07
3.157895E+03	8.549392E-06	5.502479E-07
3.167825E+03	8.664473E-06	5.574539E-07
3.177756E+03	8.780022E-06	5.646835E-07
3.187686E+03	8.896523E-06	5.719679E-07
3.197617E+03	9.014475E-06	5.793391E-07
3.207547E+03	9.132609E-06	5.867153E-07
3.217478E+03	9.251453E-06	5.941304E-07
3.227408E+03	9.370963E-06	6.015815E-07
3.237339E+03	9.491105E-06	6.090663E-07
3.247269E+03	9.612493E-06	6.166241E-07
3.257200E+03	9.733841E-06	6.241724E-07
3.267130E+03	9.855781E-06	6.317515E-07
3.277061E+03	9.978322E-06	6.393620E-07
3.286991E+03	1.010148E-05	6.470046E-07
3.296922E+03	1.022528E-05	6.546815E-07
3.306852E+03	1.035046E-05	6.624384E-07
3.316783E+03	1.047566E-05	6.701903E-07
3.326713E+03	1.060165E-05	6.779843E-07
3.336643E+03	1.072847E-05	6.858237E-07
3.346574E+03	1.085616E-05	6.937117E-07
3.356504E+03	1.098483E-05	7.016535E-07
3.366435E+03	1.111451E-05	7.096528E-07
3.376365E+03	1.124530E-05	7.177144E-07
3.386296E+03	1.137728E-05	7.258437E-07
3.396226E+03	1.151052E-05	7.340455E-07
3.406157E+03	1.164512E-05	7.423253E-07
3.416087E+03	1.178116E-05	7.506889E-07
3.426018E+03	1.191874E-05	7.591414E-07
3.435948E+03	1.205794E-05	7.676887E-07
3.445879E+03	1.219886E-05	7.763365E-07
3.455809E+03	1.234160E-05	7.850911E-07
3.465740E+03	1.248626E-05	7.939584E-07
3.475670E+03	1.263293E-05	8.029440E-07
3.485601E+03	1.278086E-05	8.120004E-07
3.495531E+03	1.293182E-05	8.212401E-07
3.505462E+03	1.308509E-05	8.306158E-07
3.515392E+03	1.324075E-05	8.401335E-07
3.525323E+03	1.339890E-05	8.497987E-07
3.535253E+03	1.355963E-05	8.596175E-07
3.545184E+03	1.372213E-05	8.695376E-07
3.555114E+03	1.388829E-05	8.796783E-07
3.565045E+03	1.405729E-05	8.899881E-07
3.574975E+03	1.422922E-05	9.004725E-07
3.584906E+03	1.440323E-05	9.110764E-07
3.594836E+03	1.458126E-05	9.219231E-07
3.604767E+03	1.476246E-05	9.329582E-07
3.614697E+03	1.494593E-05	9.441241E-07
3.624628E+03	1.513367E-05	9.555474E-07
3.634558E+03	1.532478E-05	9.671710E-07
3.644489E+03	1.551832E-05	9.789347E-07
3.654419E+03	1.571635E-05	9.909678E-07
3.664350E+03	1.591688E-05	1.003145E-06
3.674280E+03	1.612203E-05	1.015600E-06
3.684211E+03	1.633080E-05	1.028269E-06
3.694141E+03	1.654216E-05	1.041086E-06
3.704071E+03	1.675826E-05	1.054187E-06
3.714002E+03	1.697699E-05	1.067438E-06
3.723932E+03	1.720053E-05	1.080976E-06
3.733863E+03	1.742669E-05	1.094663E-06
3.743793E+03	1.765657E-05	1.108568E-06
3.753724E+03	1.789132E-05	1.122763E-06
3.763654E+03	1.812863E-05	1.137101E-06
3.773585E+03	1.837081E-05	1.151728E-06
3.783515E+03	1.861550E-05	1.166495E-06
3.793446E+03	1.886383E-05	1.181473E-06
3.803376E+03	1.911699E-05	1.196735E-06
3.813307E+03	1.937250E-05	1.212126E-06
3.823237E+03	1.963152E-05	1.227719E-06
3.833168E+03	1.989529E-05	1.243590E-06
3.843098E+03	2.016120E-05	1.259576E-06
3.853029E+03	2.043047E-05	1.275751E-06
3.862959E+03	2.070302E-05	1.292113E-06
3.872890E+03	2.098014E-05	1.308739E-06
3.882820E+03	2.125909E-05	1.325460E-06
3.892751E+03	2.154115E-05	1.342353E-06
3.902681E+03	2.182624E-05	1.359415E-06
3.912612E+03	2.211432E-05	1.376642E-06
3.922542E+03	2.240534E-05	1.394030E-06
3.932473E+03	2.269925E-05	1.411576E-06
3.942403E+03	2.299603E-05	1.429280E-06
3.952334E+03	2.329567E-05	1.447138E-06
3.962264E+03	2.359817E-05	1.465152E-06
3.972195E+03	2.390355E-05	1.483321E-06
3.982125E+03	2.421184E-05	1.501648E-06
3.992056E+03	2.452312E-05	1.520138E-06
4.001986E+03	2.483747E-05	1.538793E-06
4.011917E+03	2.515501E-05	1.557623E-06
4.021847E+03	2.547589E-05	1.576634E-06
4.031778E+03	2.580029E-05	1.595840E-06
4.041708E+03	2.612843E-05	1.615251E-06
4.051639E+03	2.646055E-05	1.634883E-06
4.061569E+03	2.679524E-05	1.654648E-06
4.071500E+03	2.713619E-05	1.674774E-06
4.081430E+03	2.748206E-05	1.695177E-06
4.091360E+03	2.783326E-05	1.715882E-06
4.101291E+03	2.818841E-05	1.736803E-06
4.111221E+03	2.855151E-05	1.758186E-06
4.121152E+03	2.892129E-05	1.779951E-06
4.131082E+03	2.929638E-05	1.802014E-06
4.141013E+03	2.968099E-05	1.824634E-06
4.150943E+03	3.007386E-05	1.847731E-06
4.160874E+03	3.047363E-05	1.871221E-06
4.170804E+03	3.088471E-05	1.895373E-06
4.180735E+03	3.130380E-05	1.919985E-06
4.190665E+03	3.173545E-05	1.945333E-06
4.200596E+03	3.217629E-05	1.971211E-06
4.210526E+03	3.263096E-05	1.997901E-06
4.220457E+03	3.309599E-05	2.025189E-06
4.230387E+03	3.357613E-05	2.053365E-06
4.240318E+03	3.406782E-05	2.082208E-06
4.250248E+03	3.457372E-05	2.111881E-06
4.260179E+03	3.509663E-05	2.142552E-06
4.270109E+03	3.563279E-05	2.173992E-06
4.280040E+03	3.618495E-05	2.206363E-06
4.289970E+03	3.675597E-05	2.239841E-06
4.299901E+03	3.734186E-05	2.274180E-06
4.309831E+03	3.794547E-05	2.309551E-06
4.319762E+03	3.856731E-05	2.345983E-06
4.329692E+03	3.920795E-05	2.383509E-06
4.339623E+03	3.987037E-05	2.422308E-06
4.349553E+03	4.055019E-05	2.462111E-06
4.359484E+03	4.125035E-05	2.503094E-06
4.369414E+03	4.197135E-05	2.545286E-06
4.379345E+03	4.271367E-05	2.588713E-06
4.389275E+03	4.347777E-05	2.633400E-06
4.399206E+03	4.426412E-05	2.679373E-06
4.409136E+03	4.507312E-05	2.726656E-06
4.419067E+03	4.590521E-05	2.775269E-06
4.428997E+03	4.676077E-05	2.825235E-06
4.438928E+03	4.764016E-05	2.876572E-06
4.448858E+03	4.854374E-05	2.929299E-06
4.458788E+03	4.946876E-05	2.983247E-06
4.468719E+03	5.042157E-05	3.038796E-06
4.478649E+03	5.139943E-05	3.095779E-06
4.488580E+03	5.240259E-05	3.154208E-06
4.498510E+03	5.342799E-05	3.213894E-06
4.508441E+03	5.448237E-05	3.275241E-06
4.518371E+03	5.556272E-05	3.338065E-06
4.528302E+03	5.666577E-05	3.402166E-06
4.538232E+03	5.779865E-05	3.467969E-06
4.548163E+03	5.895821E-05	3.535282E-06
4.558093E+03	6.014106E-05	3.603898E-06
4.568024E+03	6.135490E-05	3.674276E-06
4.577954E+03	6.259268E-05	3.745991E-06
4.587885E+03	6.386256E-05	3.819527E-06
4.597815E+03	6.515740E-05	3.894455E-06
4.607746E+03	6.648588E-05	3.971289E-06
4.617676E+03	6.784083E-05	4.049597E-06
4.627607E+03	6.922731E-05	4.129680E-06
4.637537E+03	7.065085E-05	4.211861E-06
4.647468E+03	7.210431E-05	4.295713E-06
4.657398E+03	7.359351E-05	4.381577E-06
4.667329E+03	7.512487E-05	4.469832E-06
4.677259E+03	7.669127E-05	4.560049E-06
4.687190E+03	7.829943E-05	4.652624E-06
4.697120E+03	7.995177E-05	4.747696E-06
4.707051E+03	8.165092E-05	4.845415E-06
4.716981E+03	8.340477E-05	4.946245E-06
4.726912E+03	8.520629E-05	5.049761E-06
4.736842E+03	8.706364E-05	5.156443E-06
4.746773E+03	8.898017E-05	5.266482E-06
4.756703E+03	9.095942E-05	5.380080E-06
4.766634E+03	9.300499E-05	5.497445E-06
4.776564E+03	9.512067E-05	5.618790E-06
4.786495E+03	9.731031E-05	5.744336E-06
4.796425E+03	9.957176E-05	5.873948E-06
4.806356E+03	1.019210E-04	6.008558E-06
4.816286E+03	1.043560E-04	6.148044E-06
4.826216E+03	1.068810E-04	6.292632E-06
4.836147E+03	1.094998E-04	6.442549E-06
4.846077E+03	1.122097E-04	6.597618E-06
4.856008E+03	1.150280E-04	6.758851E-06
4.865938E+03	1.179520E-04	6.926073E-06
4.875869E+03	1.209782E-04	7.099068E-06
4.885799E+03	1.241248E-04	7.278888E-06
4.895730E+03	1.273881E-04	7.465314E-06
4.905660E+03	1.307640E-04	7.658075E-06
4.915591E+03	1.342711E-04	7.858269E-06
4.925521E+03	1.378969E-04	8.065132E-06
4.935452E+03	1.416607E-04	8.279790E-06
4.945382E+03	1.455485E-04	8.501408E-06
4.955313E+03	1.495804E-04	8.731142E-06
4.965243E+03	1.537406E-04	8.968062E-06
4.975174E+03	1.580406E-04	9.212816E-06
4.985104E+03	1.624914E-04	9.466034E-06
4.995035E+03	1.670753E-04	9.726676E-06
5.004965E+03	1.718027E-04	9.995327E-06
5.014896E+03	1.766742E-04	1.027200E-05
5.024826E+03	1.816896E-04	1.055668E-05
5.034757E+03	1.868592E-04	1.084996E-05
5.044687E+03	1.921596E-04	1.115044E-05
5.054618E+03	1.975993E-04	1.145861E-05
5.064548E+03	2.031750E-04	1.177427E-05
5.074479E+03	2.088823E-04	1.209716E-05
5.084409E+03	2.147161E-04	1.242696E-05
5.094340E+03	2.206697E-04	1.276327E-05
5.104270E+03	2.267355E-04	1.310565E-05
5.114201E+03	2.329044E-04	1.345356E-05
5.124131E+03	2.391519E-04	1.380557E-05
5.134062E+03	2.454945E-04	1.416264E-05
5.143992E+03	2.519055E-04	1.452321E-05
5.153923E+03	2.583703E-04	1.488644E-05
5.163853E+03	2.648739E-04	1.525147E-05
5.173784E+03	2.713833E-04	1.561639E-05
5.183714E+03	2.779127E-04	1.598204E-05
5.193644E+03	2.844280E-04	1.634643E-05
5.203575E+03	2.908920E-04	1.670745E-05
5.213505E+03	2.973188E-04	1.706593E-05
5.223436E+03	3.036527E-04	1.741866E-05
5.233366E+03	3.099082E-04	1.776649E-05
5.243297E+03	3.160274E-04	1.810612E-05
5.253227E+03	3.220259E-04	1.843847E-05
5.263158E+03	3.278437E-04	1.876011E-05
5.273088E+03	3.334782E-04	1.907093E-05
5.283019E+03	3.389284E-04	1.937089E-05
5.292949E+03	3.441333E-04	1.965652E-05
5.302880E+03	3.490921E-04	1.992781E-05
5.312810E+03	3.538058E-04	2.018486E-05
5.322741E+03	3.582140E-04	2.042425E-05
5.332671E+03	3.623186E-04	2.064611E-05
5.342602E+03	3.661027E-04	2.084952E-05
5.352532E+03	3.695498E-04	2.103358E-05
5.362463E+03	3.726451E-04	2.119750E-05
5.372393E+03	3.753752E-04	2.134053E-05
5.382324E+03	3.777280E-04	2.146204E-05
5.392254E+03	3.796941E-04	2.156153E-05
5.402185E+03	3.812650E-04	2.163856E-05
5.412115E+03	3.824358E-04	2.169289E-05
5.422046E+03	3.832033E-04	2.172439E-05
5.431976E+03	3.835684E-04	2.173313E-05
5.441907E+03	3.835120E-04	2.171810E-05
5.451837E+03	3.830881E-04	2.168237E-05
5.461768E+03	3.822876E-04	2.162548E-05
5.471698E+03	3.811075E-04	2.154728E-05
5.481629E+03	3.796171E-04	2.145173E-05
5.491559E+03	3.778213E-04	2.133913E-05
5.501490E+03	3.757285E-04	2.120999E-05
5.511420E+03	3.734149E-04	2.106861E-05
5.521351E+03	3.708696E-04	2.091442E-05
5.531281E+03	3.681703E-04	2.075180E-05
5.541212E+03	3.653072E-04	2.058022E-05
5.551142E+03	3.623571E-04	2.040401E-05
5.561072E+03	3.593097E-04	2.022260E-05
5.571003E+03	3.562182E-04	2.003898E-05
5.580933E+03	3.531334E-04	1.985601E-05
5.590864E+03	3.500420E-04	1.967295E-05
5.600794E+03	3.469910E-04	1.949242E-05
5.610725E+03	3.440043E-04	1.931578E-05
5.620655E+03	3.411034E-04	1.914421E-05
5.630586E+03	3.383271E-04	1.897989E-05
5.640516E+03	3.356510E-04	1.882144E-05
5.650447E+03	3.331087E-04	1.867072E-05
5.660377E+03	3.307101E-04	1.852829E-05
5.670308E+03	3.284626E-04	1.839455E-05
5.680238E+03	3.263704E-04	1.826971E-05
5.690169E+03	3.244164E-04	1.815280E-05
5.700099E+03	3.226370E-04	1.804587E-05
5.710030E+03	3.210094E-04	1.794761E-05
5.719960E+03	3.195275E-04	1.785768E-05
5.729891E+03	3.181827E-04	1.777557E-05
5.739821E+03	3.169461E-04	1.769968E-05
5.749752E+03	3.158425E-04	1.763138E-05
5.759682E+03	3.148401E-04	1.756887E-05
5.769613E+03	3.139061E-04	1.751034E-05
5.779543E+03	3.130624E-04	1.745699E-05
5.789474E+03	3.122573E-04	1.740594E-05
5.799404E+03	3.115128E-04	1.735841E-05
5.809335E+03	3.107790E-04	1.731161E-05
5.819265E+03	3.100796E-04	1.726687E-05
5.829196E+03	3.093679E-04	1.722159E-05
5.839126E+03	3.086719E-04	1.717732E-05
5.849057E+03	3.079499E-04	1.713174E-05
5.858987E+03	3.072171E-04	1.708571E-05
5.868918E+03	3.064748E-04	1.703929E-05
5.878848E+03	3.057446E-04	1.699368E-05
5.888779E+03	3.049988E-04	1.694735E-05
5.898709E+03	3.042666E-04	1.690191E-05
5.908640E+03	3.035635E-04	1.685823E-05
5.918570E+03	3.029078E-04	1.681733E-05
5.928500E+03	3.023209E-04	1.678039E-05
5.938431E+03	3.018281E-04	1.674880E-05
5.948361E+03	3.014563E-04	1.672407E-05
5.958292E+03	3.012350E-04	1.670781E-05
5.968222E+03	3.011955E-04	1.670176E-05
5.978153E+03	3.013705E-04	1.670774E-05
5.988083E+03	3.017763E-04	1.672663E-05
5.998014E+03	3.024825E-04	1.676228E-05
6.007944E+03	3.035061E-04	1.681563E-05
6.017875E+03	3.048821E-04	1.688861E-05
6.027805E+03	3.066270E-04	1.698213E-05
6.037736E+03	3.088099E-04	1.710000E-05
6.047666E+03	3.114464E-04	1.724307E-05
6.057597E+03	3.145489E-04	1.741204E-05
6.067527E+03	3.181842E-04	1.761057E-05
6.077458E+03	3.223427E-04	1.783815E-05
6.087388E+03	3.270680E-04	1.809717E-05
6.097319E+03	3.324010E-04	1.838989E-05
6.107249E+03	3.383211E-04	1.871518E-05
6.117180E+03	3.448803E-04	1.907589E-05
6.127110E+03	3.520465E-04	1.947026E-05
6.137041E+03	3.598385E-04	1.989933E-05
6.146971E+03	3.682484E-04	2.036265E-05
6.156902E+03	3.772573E-04	2.085920E-05
6.166832E+03	3.868576E-04	2.138854E-05
6.176763E+03	3.969607E-04	2.194579E-05
6.186693E+03	4.075298E-04	2.252892E-05
6.196624E+03	4.184895E-04	2.313377E-05
6.206554E+03	4.297465E-04	2.375520E-05
6.216485E+03	4.411881E-04	2.438697E-05
6.226415E+03	4.526845E-04	2.502194E-05
6.236346E+03	4.640637E-04	2.565061E-05
6.246276E+03	4.752203E-04	2.626716E-05
6.256207E+03	4.859605E-04	2.686089E-05
6.266137E+03	4.961115E-04	2.742227E-05
6.276068E+03	5.055004E-04	2.794175E-05
6.285998E+03	5.139298E-04	2.840841E-05
6.295929E+03	5.213019E-04	2.881687E-05
6.305859E+03	5.274162E-04	2.915603E-05
6.315789E+03	5.322134E-04	2.942262E-05
6.325720E+03	5.355687E-04	2.960973E-05
6.335650E+03	5.373838E-04	2.971190E-05
6.345581E+03	5.376525E-04	2.972879E-05
6.355511E+03	5.363992E-04	2.966172E-05
6.365442E+03	5.335845E-04	2.950850E-05
6.375372E+03	5.293215E-04	2.927534E-05
6.385303E+03	5.236239E-04	2.896299E-05
6.395233E+03	5.166205E-04	2.857852E-05
6.405164E+03	5.084259E-04	2.812826E-05
6.415094E+03	4.991968E-04	2.762084E-05
6.425025E+03	4.890110E-04	2.706053E-05
6.434955E+03	4.780389E-04	2.645673E-05
6.444886E+03	4.664219E-04	2.581725E-05
6.454816E+03	4.542981E-04	2.514969E-05
6.464747E+03	4.418005E-04	2.446139E-05
6.474677E+03	4.290541E-04	2.375926E-05
6.484608E+03	4.161740E-04	2.304965E-05
6.494538E+03	4.032652E-04	2.233835E-05
6.504469E+03	3.904213E-04	2.163054E-05
6.514399E+03	3.777241E-04	2.093074E-05
6.524330E+03	3.652240E-04	2.024173E-05
6.534260E+03	3.530237E-04	1.956920E-05
6.544191E+03	3.411513E-04	1.891471E-05
6.554121E+03	3.296292E-04	1.827948E-05
6.564052E+03	3.185282E-04	1.766746E-05
6.573982E+03	3.078534E-04	1.707892E-05
6.583913E+03	2.976059E-04	1.651394E-05
6.593843E+03	2.878334E-04	1.597516E-05
6.603774E+03	2.785095E-04	1.546113E-05
6.613704E+03	2.696706E-04	1.497388E-05
6.623635E+03	2.612855E-04	1.451168E-05
6.633565E+03	2.533669E-04	1.407525E-05
6.643496E+03	2.459247E-04	1.366514E-05
6.653426E+03	2.389233E-04	1.327941E-05
6.663357E+03	2.323694E-04	1.291842E-05
6.673287E+03	2.262543E-04	1.258171E-05
6.683217E+03	2.205812E-04	1.226946E-05
6.693148E+03	2.153146E-04	1.197973E-05
6.703078E+03	2.104576E-04	1.171269E-05
6.713009E+03	2.060003E-04	1.146781E-05
6.722939E+03	2.019331E-04	1.124456E-05
6.732870E+03	1.982466E-04	1.104245E-05
6.742800E+03	1.949318E-04	1.086097E-05
6.752731E+03	1.919802E-04	1.069968E-05
6.762661E+03	1.893839E-04	1.055815E-05
6.772592E+03	1.871354E-04	1.043597E-05
6.782522E+03	1.852171E-04	1.033219E-05
6.792453E+03	1.836443E-04	1.024766E-05
6.802383E+03	1.824005E-04	1.018149E-05
6.812314E+03	1.814804E-04	1.013339E-05
6.822244E+03	1.808690E-04	1.010254E-05
6.832175E+03	1.805830E-04	1.008990E-05
6.842105E+03	1.806080E-04	1.009467E-05
6.852036E+03	1.809303E-04	1.011611E-05
6.861966E+03	1.815675E-04	1.015522E-05
6.871897E+03	1.824958E-04	1.021068E-05
6.881827E+03	1.837226E-04	1.028293E-05
6.891758E+03	1.852558E-04	1.037242E-05
6.901688E+03	1.870711E-04	1.047782E-05
6.911619E+03	1.891868E-04	1.060017E-05
6.921549E+03	1.915776E-04	1.073806E-05
6.931480E+03	1.942501E-04	1.089190E-05
6.941410E+03	1.971997E-04	1.106143E-05
6.951341E+03	2.004322E-04	1.124702E-05
6.961271E+03	2.039184E-04	1.144702E-05
6.971202E+03	2.076618E-04	1.166167E-05
6.981132E+03	2.116536E-04	1.189048E-05
6.991063E+03	2.158833E-04	1.213288E-05
7.000993E+03	2.203389E-04	1.238823E-05
7.010924E+03	2.250067E-04	1.265575E-05
7.020854E+03	2.298709E-04	1.293459E-05
7.030785E+03	2.349137E-04	1.322376E-05
7.040715E+03	2.401151E-04	1.352216E-05
7.050645E+03	2.454389E-04	1.382774E-05
7.060576E+03	2.508884E-04	1.414071E-05
7.070506E+03	2.564230E-04	1.445880E-05
7.080437E+03	2.620134E-04	1.478036E-05
7.090367E+03	2.676126E-04	1.510274E-05
7.100298E+03	2.732174E-04	1.542578E-05
7.110228E+03	2.787609E-04	1.574570E-05
7.120159E+03	2.842375E-04	1.606216E-05
7.130089E+03	2.895923E-04	1.637209E-05
7.140020E+03	2.947681E-04	1.667223E-05
7.149950E+03	2.997401E-04	1.696117E-05
7.159881E+03	3.044849E-04	1.723757E-05
7.169811E+03	3.089269E-04	1.749713E-05
7.179742E+03	3.130609E-04	1.773955E-05
7.189672E+03	3.168131E-04	1.796061E-05
7.199603E+03	3.201647E-04	1.815922E-05
7.209533E+03	3.230822E-04	1.833345E-05
7.219464E+03	3.255546E-04	1.848265E-05
7.229394E+03	3.275185E-04	1.860318E-05
7.239325E+03	3.289717E-04	1.869486E-05
7.249255E+03	3.298979E-04	1.875674E-05
7.259186E+03	3.302875E-04	1.878822E-05
7.269116E+03	3.301357E-04	1.878899E-05
7.279047E+03	3.294445E-04	1.875911E-05
7.288977E+03	3.282215E-04	1.869898E-05
7.298908E+03	3.264814E-04	1.860937E-05
7.308838E+03	3.242439E-04	1.849137E-05
7.318769E+03	3.215336E-04	1.834634E-05
7.328699E+03	3.183810E-04	1.817597E-05
7.338630E+03	3.148026E-04	1.798117E-05
7.348560E+03	3.108728E-04	1.776615E-05
7.358491E+03	3.066137E-04	1.753213E-05
7.368421E+03	3.020511E-04	1.728056E-05
7.378352E+03	2.972632E-04	1.701588E-05
7.388282E+03	2.922771E-04	1.673962E-05
7.398213E+03	2.871194E-04	1.645329E-05
7.408143E+03	2.818659E-04	1.616121E-05
7.418073E+03	2.765243E-04	1.586380E-05
7.428004E+03	2.711647E-04	1.556509E-05
7.437934E+03	2.657908E-04	1.526527E-05
7.447865E+03	2.604656E-04	1.496795E-05
7.457795E+03	2.551872E-04	1.467303E-05
7.467726E+03	2.499961E-04	1.438284E-05
7.477656E+03	2.449279E-04	1.409943E-05
7.487587E+03	2.399721E-04	1.382220E-05
7.497517E+03	2.351580E-04	1.355286E-05
7.507448E+03	2.304972E-04	1.329207E-05
7.517378E+03	2.259986E-04	1.304037E-05
7.527309E+03	2.216811E-04	1.279886E-05
7.537239E+03	2.175229E-04	1.256630E-05
7.547170E+03	2.135389E-04	1.234356E-05
7.557100E+03	2.097289E-04	1.213064E-05
7.567031E+03	2.060910E-04	1.192744E-05
7.576961E+03	2.026209E-04	1.173375E-05
7.586892E+03	1.993131E-04	1.154924E-05
7.596822E+03	1.961611E-04	1.137357E-05
7.606753E+03	1.931464E-04	1.120566E-05
7.616683E+03	1.902839E-04	1.104641E-05
7.626614E+03	1.875541E-04	1.089468E-05
7.636544E+03	1.849485E-04	1.075001E-05
7.646475E+03	1.824481E-04	1.061129E-05
7.656405E+03	1.800654E-04	1.047925E-05
7.666336E+03	1.777810E-04	1.035279E-05
7.676266E+03	1.755758E-04	1.023080E-05
7.686197E+03	1.734617E-04	1.011399E-05
7.696127E+03	1.714200E-04	1.000126E-05
7.706058E+03	1.694326E-04	9.891571E-06
