#wls	flux	fluxerr
1.600000E+03	2.379785E-15	1.748897E-15
1.640000E+03	2.381428E-15	1.721470E-15
1.680000E+03	2.382290E-15	1.692755E-15
1.720000E+03	2.382856E-15	1.663117E-15
1.760000E+03	2.383446E-15	1.632784E-15
1.800000E+03	2.384213E-15	1.601855E-15
1.840000E+03	2.385841E-15	1.570773E-15
1.880000E+03	2.388848E-15	1.539838E-15
1.920000E+03	2.393406E-15	1.509103E-15
1.960000E+03	2.400228E-15	1.478941E-15
2.000000E+03	2.409856E-15	1.449585E-15
2.040000E+03	2.422841E-15	1.421233E-15
2.080000E+03	2.439921E-15	1.394161E-15
2.120000E+03	2.461480E-15	1.368395E-15
2.160000E+03	2.488450E-15	1.344232E-15
2.200000E+03	2.521406E-15	1.321718E-15
2.240000E+03	2.560922E-15	1.300859E-15
2.280000E+03	2.607572E-15	1.281620E-15
2.320000E+03	2.662481E-15	1.264185E-15
2.360000E+03	2.725472E-15	1.248069E-15
2.400000E+03	2.797284E-15	1.233196E-15
2.440000E+03	2.877707E-15	1.219044E-15
2.480000E+03	2.967445E-15	1.205482E-15
2.520000E+03	3.066434E-15	1.192038E-15
2.560000E+03	3.175144E-15	1.178456E-15
2.600000E+03	3.293826E-15	1.164386E-15
2.640000E+03	3.422883E-15	1.149537E-15
2.680000E+03	3.563053E-15	1.133723E-15
2.720000E+03	3.714827E-15	1.116669E-15
2.760000E+03	3.878819E-15	1.098146E-15
2.800000E+03	4.055932E-15	1.078013E-15
2.840000E+03	4.247148E-15	1.056147E-15
2.880000E+03	4.453115E-15	1.032357E-15
2.920000E+03	4.674865E-15	1.006571E-15
2.960000E+03	4.912816E-15	9.786124E-16
3.000000E+03	5.167650E-15	9.484150E-16
3.010000E+03	5.233887E-15	9.404778E-16
3.020000E+03	5.301077E-15	9.323723E-16
3.030000E+03	5.369371E-15	9.241245E-16
3.040000E+03	5.438548E-15	9.156952E-16
3.050000E+03	5.508757E-15	9.071098E-16
3.060000E+03	5.579773E-15	8.983311E-16
3.070000E+03	5.651739E-15	8.893835E-16
3.080000E+03	5.724612E-15	8.802601E-16
3.090000E+03	5.798161E-15	8.709267E-16
3.100000E+03	5.872338E-15	8.613791E-16
3.110000E+03	5.947277E-15	8.516390E-16
3.120000E+03	6.022922E-15	8.417001E-16
3.130000E+03	6.099037E-15	8.315312E-16
3.140000E+03	6.175743E-15	8.211519E-16
3.150000E+03	6.252799E-15	8.105322E-16
3.160000E+03	6.330141E-15	7.996673E-16
3.170000E+03	6.407884E-15	7.885743E-16
3.180000E+03	6.485778E-15	7.772245E-16
3.190000E+03	6.563752E-15	7.656123E-16
3.200000E+03	6.641733E-15	7.537318E-16
3.210000E+03	6.719646E-15	7.415768E-16
3.220000E+03	6.797412E-15	7.291408E-16
3.230000E+03	6.874953E-15	7.164170E-16
3.240000E+03	6.952012E-15	7.033804E-16
3.250000E+03	7.028683E-15	6.900428E-16
3.260000E+03	7.104535E-15	6.763634E-16
3.270000E+03	7.180010E-15	6.623864E-16
3.280000E+03	7.254505E-15	6.480561E-16
3.290000E+03	7.327941E-15	6.333686E-16
3.300000E+03	7.400587E-15	6.183488E-16
3.310000E+03	7.472025E-15	6.029627E-16
3.320000E+03	7.542354E-15	5.872206E-16
3.330000E+03	7.611170E-15	5.710936E-16
3.340000E+03	7.678754E-15	5.546065E-16
3.350000E+03	7.744716E-15	5.377346E-16
3.360000E+03	7.809182E-15	5.204921E-16
3.370000E+03	7.871953E-15	5.028714E-16
3.380000E+03	7.933170E-15	4.848892E-16
3.390000E+03	7.992660E-15	4.665433E-16
3.400000E+03	8.050427E-15	4.478450E-16
3.410000E+03	8.106327E-15	4.288003E-16
3.420000E+03	8.160719E-15	4.094445E-16
3.430000E+03	8.213176E-15	3.897755E-16
3.440000E+03	8.264247E-15	3.698442E-16
3.450000E+03	8.313550E-15	3.496622E-16
3.460000E+03	8.361517E-15	3.292843E-16
3.470000E+03	8.407975E-15	3.087476E-16
3.480000E+03	8.453400E-15	2.881249E-16
3.490000E+03	8.497829E-15	2.674851E-16
3.500000E+03	8.541338E-15	2.469178E-16
3.510000E+03	8.584339E-15	2.265469E-16
3.520000E+03	8.627279E-15	2.065291E-16
3.530000E+03	8.670206E-15	1.870583E-16
3.540000E+03	8.713519E-15	1.684048E-16
3.550000E+03	8.757967E-15	1.509394E-16
3.560000E+03	8.803785E-15	1.351503E-16
3.570000E+03	8.851577E-15	1.216885E-16
3.580000E+03	8.902182E-15	1.113475E-16
3.590000E+03	8.956245E-15	1.049323E-16
3.600000E+03	9.014721E-15	1.029265E-16
3.600794E+03	6.588537E-15	4.036942E-16
3.603388E+03	6.649286E-15	4.072090E-16
3.605982E+03	6.708916E-15	4.094344E-16
3.608575E+03	6.756831E-15	4.121151E-16
3.611169E+03	6.802342E-15	4.197539E-16
3.613763E+03	6.849461E-15	4.309999E-16
3.616357E+03	6.895780E-15	4.346027E-16
3.618951E+03	6.939693E-15	4.367020E-16
3.621544E+03	6.978631E-15	4.395583E-16
3.624138E+03	6.997656E-15	4.483704E-16
3.626732E+03	7.004314E-15	4.560579E-16
3.629326E+03	7.000691E-15	4.474945E-16
3.631920E+03	6.973292E-15	4.404972E-16
3.634514E+03	6.920829E-15	4.291801E-16
3.637107E+03	6.858718E-15	4.054543E-16
3.639701E+03	6.794831E-15	3.697696E-16
3.642295E+03	6.719849E-15	3.519963E-16
3.644889E+03	6.628950E-15	3.479243E-16
3.647483E+03	6.523096E-15	3.530072E-16
3.650076E+03	6.407104E-15	3.624812E-16
3.652670E+03	6.286438E-15	3.767838E-16
3.655264E+03	6.172185E-15	3.965087E-16
3.657858E+03	6.072703E-15	4.223566E-16
3.660452E+03	5.990245E-15	4.426260E-16
3.663045E+03	5.925135E-15	4.493189E-16
3.665639E+03	5.886699E-15	4.603705E-16
3.668233E+03	5.873333E-15	4.749497E-16
3.670827E+03	5.878611E-15	4.743275E-16
3.673421E+03	5.908805E-15	4.530681E-16
3.676014E+03	5.978711E-15	4.335231E-16
3.678608E+03	6.099104E-15	4.186584E-16
3.681202E+03	6.266618E-15	4.041655E-16
3.683796E+03	6.469198E-15	4.025170E-16
3.686390E+03	6.713925E-15	4.127158E-16
3.688983E+03	7.007558E-15	4.418382E-16
3.691577E+03	7.343029E-15	5.009759E-16
3.694171E+03	7.707155E-15	5.667319E-16
3.696765E+03	8.095597E-15	6.142928E-16
3.699358E+03	8.505302E-15	6.443333E-16
3.701952E+03	8.932413E-15	6.614100E-16
3.704546E+03	9.374357E-15	6.668131E-16
3.707140E+03	9.827114E-15	6.646173E-16
3.709734E+03	1.028023E-14	6.593172E-16
3.712327E+03	1.072115E-14	6.568489E-16
3.714921E+03	1.114972E-14	6.490542E-16
3.717515E+03	1.157189E-14	6.331094E-16
3.720109E+03	1.198106E-14	6.242533E-16
3.722703E+03	1.236033E-14	6.481275E-16
3.725296E+03	1.271002E-14	6.830250E-16
3.727890E+03	1.303945E-14	7.104413E-16
3.730484E+03	1.334928E-14	7.339258E-16
3.733078E+03	1.363257E-14	7.609411E-16
3.735672E+03	1.389335E-14	7.931163E-16
3.738265E+03	1.413402E-14	8.146406E-16
3.740859E+03	1.435298E-14	8.116831E-16
3.743453E+03	1.454684E-14	7.945515E-16
3.746047E+03	1.471866E-14	7.747898E-16
3.748641E+03	1.486892E-14	7.573262E-16
3.751235E+03	1.499745E-14	7.445204E-16
3.753828E+03	1.510409E-14	7.422834E-16
3.756422E+03	1.518658E-14	7.490074E-16
3.759016E+03	1.524508E-14	7.658235E-16
3.761610E+03	1.527863E-14	7.900670E-16
3.764204E+03	1.527997E-14	8.127982E-16
3.766797E+03	1.525217E-14	8.360187E-16
3.769391E+03	1.519795E-14	8.667876E-16
3.771985E+03	1.511184E-14	8.891208E-16
3.774579E+03	1.497933E-14	8.836266E-16
3.777173E+03	1.480898E-14	8.685412E-16
3.779766E+03	1.460575E-14	8.514984E-16
3.782360E+03	1.436804E-14	8.258590E-16
3.784954E+03	1.409472E-14	7.895389E-16
3.787548E+03	1.378482E-14	7.595495E-16
3.790142E+03	1.343237E-14	7.437317E-16
3.792735E+03	1.303238E-14	7.317437E-16
3.795329E+03	1.258904E-14	7.254726E-16
3.797923E+03	1.210894E-14	7.281419E-16
3.800517E+03	1.160030E-14	7.379107E-16
3.803111E+03	1.107278E-14	7.471279E-16
3.805704E+03	1.053555E-14	7.485644E-16
3.808298E+03	9.986054E-15	7.375521E-16
3.810892E+03	9.422505E-15	7.105700E-16
3.813486E+03	8.851349E-15	6.740970E-16
3.816080E+03	8.281127E-15	6.275590E-16
3.818673E+03	7.720537E-15	5.621346E-16
3.821267E+03	7.182148E-15	4.850209E-16
3.823861E+03	6.675790E-15	4.368224E-16
3.826455E+03	6.200016E-15	4.098003E-16
3.829049E+03	5.753218E-15	3.911781E-16
3.831642E+03	5.340232E-15	3.870751E-16
3.834236E+03	4.970245E-15	4.098705E-16
3.836830E+03	4.647611E-15	4.422037E-16
3.839424E+03	4.367501E-15	4.664460E-16
3.842018E+03	4.125726E-15	4.798101E-16
3.844611E+03	3.925352E-15	4.826870E-16
3.847205E+03	3.770411E-15	4.687759E-16
3.849799E+03	3.662193E-15	4.363464E-16
3.852393E+03	3.596835E-15	3.978922E-16
3.854987E+03	3.565476E-15	3.646112E-16
3.857580E+03	3.573597E-15	3.349786E-16
3.860174E+03	3.634897E-15	3.211965E-16
3.862768E+03	3.759212E-15	3.487222E-16
3.865362E+03	3.940579E-15	4.090230E-16
3.867956E+03	4.167883E-15	4.861429E-16
3.870549E+03	4.436127E-15	5.515554E-16
3.873143E+03	4.749505E-15	5.911610E-16
3.875737E+03	5.114302E-15	6.191246E-16
3.878331E+03	5.527136E-15	6.431830E-16
3.880925E+03	5.984624E-15	6.555110E-16
3.883518E+03	6.486122E-15	6.465653E-16
3.886112E+03	7.029534E-15	6.272357E-16
3.888706E+03	7.616958E-15	6.169333E-16
3.891300E+03	8.248716E-15	6.297043E-16
3.893894E+03	8.918843E-15	6.654154E-16
3.896487E+03	9.614769E-15	7.155961E-16
3.899081E+03	1.033278E-14	7.831187E-16
3.901675E+03	1.107047E-14	8.593716E-16
3.904269E+03	1.182154E-14	9.193627E-16
3.906863E+03	1.257794E-14	9.433687E-16
3.909456E+03	1.333659E-14	9.534861E-16
3.912050E+03	1.409364E-14	9.572796E-16
3.914644E+03	1.484085E-14	9.493477E-16
3.917238E+03	1.556904E-14	9.269289E-16
3.919832E+03	1.627434E-14	8.999590E-16
3.922425E+03	1.695787E-14	8.831543E-16
3.925019E+03	1.762044E-14	8.703756E-16
3.927613E+03	1.825238E-14	8.588814E-16
3.930207E+03	1.884723E-14	8.593158E-16
3.932801E+03	1.940500E-14	8.801342E-16
3.935394E+03	1.992407E-14	9.113510E-16
3.937988E+03	2.039799E-14	9.461329E-16
3.940582E+03	2.082193E-14	9.692607E-16
3.943176E+03	2.119588E-14	9.682771E-16
3.945770E+03	2.152468E-14	9.476077E-16
3.948363E+03	2.181318E-14	9.097928E-16
3.950957E+03	2.207102E-14	8.525841E-16
3.953551E+03	2.229501E-14	7.949570E-16
3.956145E+03	2.248512E-14	7.780754E-16
3.958739E+03	2.263331E-14	7.863646E-16
3.961332E+03	2.274924E-14	7.995169E-16
3.963926E+03	2.283615E-14	8.145694E-16
3.966520E+03	2.288918E-14	8.323361E-16
3.969114E+03	2.290513E-14	8.457729E-16
3.971708E+03	2.288238E-14	8.507033E-16
3.974301E+03	2.282576E-14	8.533100E-16
3.976895E+03	2.273851E-14	8.620438E-16
3.979489E+03	2.262868E-14	8.636283E-16
3.982083E+03	2.249949E-14	8.481758E-16
3.984677E+03	2.234934E-14	8.228297E-16
3.987270E+03	2.217500E-14	7.865229E-16
3.989864E+03	2.197486E-14	7.430644E-16
3.992458E+03	2.174408E-14	7.160948E-16
3.995052E+03	2.148590E-14	7.291410E-16
3.997646E+03	2.120676E-14	7.684409E-16
4.000239E+03	2.090989E-14	8.191794E-16
4.002833E+03	2.059528E-14	8.681147E-16
4.005427E+03	2.027262E-14	9.047884E-16
4.008021E+03	1.996284E-14	9.274249E-16
4.010615E+03	1.967884E-14	9.342175E-16
4.013208E+03	1.941902E-14	9.216075E-16
4.015802E+03	1.916886E-14	8.954045E-16
4.018396E+03	1.893481E-14	8.731256E-16
4.020990E+03	1.872815E-14	8.569827E-16
4.023584E+03	1.856016E-14	8.389845E-16
4.026177E+03	1.843084E-14	8.061814E-16
4.028771E+03	1.834824E-14	7.705159E-16
4.031365E+03	1.831075E-14	7.486501E-16
4.033959E+03	1.831514E-14	7.416983E-16
4.036553E+03	1.835335E-14	7.479943E-16
4.039146E+03	1.843343E-14	7.764772E-16
4.041740E+03	1.854573E-14	8.198016E-16
4.044334E+03	1.867411E-14	8.518603E-16
4.046928E+03	1.881214E-14	8.582879E-16
4.049522E+03	1.896464E-14	8.378089E-16
4.052115E+03	1.912196E-14	7.976115E-16
4.054709E+03	1.927281E-14	7.470461E-16
4.057303E+03	1.940914E-14	6.900803E-16
4.059897E+03	1.953094E-14	6.349719E-16
4.062491E+03	1.963662E-14	5.994881E-16
4.065084E+03	1.971973E-14	5.897802E-16
4.067678E+03	1.977382E-14	5.957368E-16
4.070272E+03	1.980696E-14	6.202547E-16
4.072866E+03	1.982720E-14	6.701593E-16
4.075460E+03	1.982648E-14	7.377514E-16
4.078053E+03	1.979033E-14	8.025744E-16
4.080647E+03	1.973000E-14	8.475159E-16
4.083241E+03	1.965517E-14	8.740063E-16
4.085835E+03	1.956584E-14	8.852684E-16
4.088429E+03	1.944590E-14	8.760876E-16
4.091023E+03	1.930342E-14	8.448365E-16
4.093616E+03	1.915611E-14	8.049390E-16
4.096210E+03	1.902006E-14	7.668207E-16
4.098804E+03	1.889206E-14	7.400044E-16
4.101398E+03	1.876889E-14	7.395240E-16
4.103992E+03	1.864732E-14	7.699707E-16
4.106585E+03	1.852736E-14	8.091080E-16
4.109179E+03	1.840900E-14	8.436878E-16
4.111773E+03	1.829225E-14	8.756103E-16
4.114367E+03	1.816905E-14	9.050334E-16
4.116961E+03	1.803620E-14	9.237127E-16
4.119554E+03	1.789208E-14	9.218972E-16
4.122148E+03	1.774474E-14	8.979506E-16
4.124742E+03	1.759901E-14	8.527279E-16
4.127336E+03	1.745811E-14	7.961346E-16
4.129930E+03	1.731721E-14	7.568929E-16
4.132523E+03	1.717953E-14	7.400517E-16
4.135117E+03	1.704506E-14	7.260355E-16
4.137711E+03	1.691382E-14	7.200951E-16
4.140305E+03	1.678579E-14	7.485558E-16
4.142899E+03	1.665776E-14	8.018843E-16
4.145492E+03	1.652651E-14	8.448606E-16
4.148086E+03	1.639849E-14	8.598668E-16
4.150680E+03	1.627207E-14	8.486878E-16
4.153274E+03	1.614565E-14	8.102603E-16
4.155868E+03	1.600766E-14	7.597354E-16
4.158461E+03	1.586034E-14	7.160382E-16
4.161055E+03	1.570451E-14	6.825595E-16
4.163649E+03	1.553662E-14	6.586434E-16
4.166243E+03	1.535202E-14	6.550436E-16
4.168837E+03	1.515651E-14	6.807220E-16
4.171430E+03	1.496293E-14	7.121917E-16
4.174024E+03	1.477917E-14	7.357536E-16
4.176618E+03	1.460281E-14	7.511733E-16
4.179212E+03	1.442952E-14	7.523342E-16
4.181806E+03	1.425705E-14	7.361099E-16
4.184399E+03	1.408989E-14	7.157841E-16
4.186993E+03	1.393447E-14	6.974799E-16
4.189587E+03	1.378580E-14	6.646241E-16
4.192181E+03	1.363008E-14	6.051960E-16
4.194775E+03	1.346216E-14	5.450098E-16
4.197368E+03	1.329023E-14	5.240831E-16
4.199962E+03	1.311382E-14	5.238054E-16
4.202556E+03	1.292362E-14	5.232578E-16
4.205150E+03	1.271304E-14	5.215381E-16
4.207743E+03	1.248562E-14	5.196466E-16
4.210337E+03	1.224586E-14	5.119640E-16
4.212931E+03	1.199328E-14	4.965004E-16
4.215525E+03	1.172725E-14	4.721846E-16
4.218119E+03	1.145242E-14	4.344086E-16
4.220712E+03	1.117987E-14	3.927661E-16
4.223306E+03	1.091426E-14	3.552965E-16
4.225900E+03	1.065799E-14	3.218938E-16
4.228494E+03	1.042053E-14	2.931454E-16
4.231088E+03	1.021424E-14	2.839862E-16
4.233681E+03	1.004374E-14	3.020821E-16
4.236275E+03	9.909845E-15	3.206016E-16
4.238869E+03	9.816546E-15	3.227493E-16
4.241463E+03	9.774422E-15	3.206062E-16
4.244057E+03	9.791637E-15	3.181692E-16
4.246650E+03	9.869137E-15	3.128304E-16
4.249244E+03	9.997443E-15	3.091309E-16
4.251838E+03	1.016901E-14	3.109818E-16
4.254432E+03	1.037996E-14	3.205980E-16
4.257026E+03	1.062694E-14	3.424404E-16
4.259619E+03	1.089950E-14	3.734637E-16
4.262213E+03	1.119107E-14	4.084857E-16
4.264807E+03	1.149811E-14	4.479716E-16
4.267401E+03	1.181566E-14	4.911999E-16
4.269995E+03	1.213313E-14	5.251929E-16
4.272588E+03	1.244619E-14	5.464260E-16
4.275182E+03	1.275341E-14	5.566887E-16
4.277776E+03	1.305093E-14	5.553810E-16
4.280370E+03	1.333653E-14	5.383670E-16
4.282964E+03	1.360973E-14	5.055282E-16
4.285557E+03	1.386988E-14	4.762376E-16
4.288151E+03	1.411490E-14	4.709890E-16
4.290745E+03	1.434353E-14	4.849305E-16
4.293339E+03	1.455401E-14	5.124463E-16
4.295933E+03	1.474697E-14	5.455552E-16
4.298526E+03	1.492563E-14	5.727599E-16
4.301120E+03	1.508856E-14	5.907398E-16
4.303714E+03	1.523495E-14	5.999296E-16
4.306308E+03	1.536369E-14	5.992422E-16
4.308902E+03	1.547047E-14	5.876561E-16
4.311495E+03	1.555337E-14	5.660042E-16
4.314089E+03	1.561577E-14	5.334526E-16
4.316683E+03	1.566486E-14	4.922285E-16
4.319277E+03	1.570673E-14	4.538366E-16
4.321871E+03	1.574186E-14	4.224650E-16
4.324465E+03	1.576577E-14	4.004353E-16
4.327058E+03	1.577639E-14	3.909364E-16
4.329652E+03	1.578236E-14	3.914264E-16
4.332246E+03	1.579262E-14	4.011647E-16
4.334840E+03	1.581101E-14	4.127937E-16
4.337434E+03	1.583560E-14	4.177877E-16
4.340027E+03	1.586369E-14	4.091645E-16
4.342621E+03	1.589573E-14	3.837034E-16
4.345215E+03	1.593510E-14	3.388141E-16
4.347809E+03	1.598561E-14	2.949582E-16
4.350403E+03	1.604248E-14	2.739519E-16
4.352996E+03	1.610090E-14	2.726054E-16
4.355590E+03	1.615450E-14	2.732786E-16
4.358184E+03	1.620328E-14	2.728399E-16
4.360778E+03	1.624724E-14	2.751161E-16
4.363372E+03	1.628319E-14	2.830898E-16
4.365965E+03	1.631114E-14	2.903071E-16
4.368559E+03	1.632630E-14	2.856997E-16
4.371153E+03	1.632709E-14	2.776379E-16
4.373747E+03	1.631510E-14	2.737227E-16
4.376341E+03	1.628716E-14	2.711914E-16
4.378934E+03	1.624964E-14	2.676272E-16
4.381528E+03	1.620096E-14	2.614748E-16
4.384122E+03	1.613953E-14	2.500495E-16
4.386716E+03	1.606375E-14	2.374088E-16
4.389310E+03	1.597524E-14	2.328807E-16
4.391903E+03	1.587671E-14	2.317876E-16
4.394497E+03	1.577372E-14	2.325532E-16
4.397091E+03	1.566677E-14	2.338016E-16
4.399685E+03	1.555012E-14	2.285618E-16
4.402279E+03	1.542140E-14	2.164351E-16
4.404872E+03	1.528362E-14	2.079001E-16
4.407466E+03	1.513887E-14	2.047251E-16
4.410060E+03	1.498111E-14	2.002565E-16
4.412654E+03	1.481336E-14	1.893158E-16
4.415248E+03	1.464008E-14	1.770225E-16
4.417841E+03	1.446080E-14	1.760212E-16
4.420435E+03	1.426885E-14	1.784582E-16
4.423029E+03	1.406598E-14	1.768986E-16
4.425623E+03	1.385760E-14	1.748603E-16
4.428217E+03	1.364895E-14	1.753200E-16
4.430810E+03	1.344021E-14	1.725764E-16
4.433404E+03	1.322787E-14	1.716942E-16
4.435998E+03	1.300987E-14	1.735130E-16
4.438592E+03	1.278955E-14	1.723864E-16
4.441186E+03	1.257691E-14	1.714060E-16
4.443779E+03	1.237450E-14	1.705138E-16
4.446373E+03	1.217690E-14	1.693334E-16
4.448967E+03	1.197777E-14	1.675775E-16
4.451561E+03	1.178838E-14	1.629941E-16
4.454155E+03	1.161824E-14	1.583174E-16
4.456748E+03	1.146368E-14	1.565841E-16
4.459342E+03	1.131329E-14	1.564774E-16
4.461936E+03	1.118038E-14	1.541321E-16
4.464530E+03	1.108047E-14	1.562388E-16
4.467124E+03	1.101797E-14	1.623345E-16
4.469717E+03	1.098543E-14	1.670669E-16
4.472311E+03	1.098282E-14	1.786488E-16
4.474905E+03	1.101171E-14	2.037022E-16
4.477499E+03	1.107588E-14	2.330529E-16
4.480093E+03	1.118006E-14	2.515327E-16
4.482686E+03	1.132454E-14	2.573553E-16
4.485280E+03	1.150914E-14	2.555474E-16
4.487874E+03	1.173368E-14	2.544426E-16
4.490468E+03	1.199528E-14	2.516479E-16
4.493062E+03	1.228190E-14	2.534288E-16
4.495655E+03	1.258436E-14	2.848708E-16
4.498249E+03	1.289948E-14	3.415051E-16
4.500843E+03	1.322569E-14	3.786156E-16
4.503437E+03	1.356074E-14	4.066615E-16
4.506031E+03	1.390592E-14	4.429673E-16
4.508624E+03	1.426309E-14	4.829760E-16
4.511218E+03	1.462973E-14	4.971203E-16
4.513812E+03	1.499936E-14	4.974678E-16
4.516406E+03	1.536802E-14	4.948859E-16
4.519000E+03	1.573525E-14	4.924109E-16
4.521593E+03	1.609821E-14	4.881247E-16
4.524187E+03	1.644964E-14	4.799877E-16
4.526781E+03	1.679301E-14	4.736310E-16
4.529375E+03	1.712991E-14	4.823367E-16
4.531969E+03	1.745088E-14	5.022033E-16
4.534562E+03	1.774648E-14	5.222336E-16
4.537156E+03	1.801830E-14	5.340744E-16
4.539750E+03	1.827738E-14	5.378981E-16
4.542344E+03	1.852373E-14	5.398540E-16
4.544938E+03	1.875577E-14	5.353114E-16
4.547531E+03	1.897038E-14	5.164539E-16
4.550125E+03	1.916599E-14	5.015229E-16
4.552719E+03	1.934576E-14	4.871981E-16
4.555313E+03	1.951284E-14	4.585774E-16
4.557907E+03	1.966567E-14	4.120423E-16
4.560500E+03	1.980426E-14	3.898259E-16
4.563094E+03	1.992862E-14	3.886889E-16
4.565688E+03	2.003719E-14	3.912580E-16
4.568282E+03	2.013311E-14	3.932353E-16
4.570876E+03	2.021641E-14	3.978156E-16
4.573469E+03	2.029180E-14	4.007794E-16
4.576063E+03	2.036713E-14	3.966499E-16
4.578657E+03	2.044398E-14	3.819629E-16
4.581251E+03	2.052234E-14	3.580027E-16
4.583845E+03	2.059593E-14	3.306403E-16
4.586438E+03	2.066791E-14	3.107995E-16
4.589032E+03	2.074140E-14	3.129457E-16
4.591626E+03	2.081327E-14	3.237966E-16
4.594220E+03	2.087725E-14	3.285803E-16
4.596814E+03	2.092237E-14	3.291078E-16
4.599407E+03	2.095021E-14	3.290480E-16
4.602001E+03	2.097020E-14	3.302724E-16
4.604595E+03	2.097919E-14	3.321307E-16
4.607189E+03	2.096623E-14	3.335519E-16
4.609783E+03	2.092353E-14	3.363059E-16
4.612376E+03	2.085422E-14	3.434576E-16
4.614970E+03	2.076772E-14	3.522834E-16
4.617564E+03	2.066561E-14	3.575742E-16
4.620158E+03	2.054789E-14	3.594008E-16
4.622752E+03	2.041145E-14	3.597722E-16
4.625345E+03	2.025786E-14	3.592541E-16
4.627939E+03	2.009028E-14	3.582674E-16
4.630533E+03	1.991339E-14	3.570322E-16
4.633127E+03	1.973188E-14	3.551193E-16
4.635721E+03	1.954577E-14	3.545043E-16
4.638314E+03	1.935505E-14	3.513482E-16
4.640908E+03	1.915349E-14	3.468346E-16
4.643502E+03	1.893641E-14	3.463727E-16
4.646096E+03	1.870851E-14	3.517683E-16
4.648690E+03	1.847292E-14	3.614830E-16
4.651283E+03	1.823743E-14	3.719692E-16
4.653877E+03	1.800984E-14	3.781159E-16
4.656471E+03	1.778859E-14	3.776013E-16
4.659065E+03	1.757211E-14	3.738821E-16
4.661659E+03	1.735417E-14	3.646820E-16
4.664252E+03	1.714412E-14	3.504085E-16
4.666846E+03	1.694351E-14	3.385195E-16
4.669440E+03	1.674921E-14	3.295836E-16
4.672034E+03	1.655967E-14	3.276487E-16
4.674628E+03	1.637488E-14	3.301104E-16
4.677221E+03	1.619795E-14	3.318053E-16
