#wls	flux	fluxerr
1.600000E+03	7.185027E-16	5.299501E-16
1.640000E+03	7.175789E-16	5.208463E-16
1.680000E+03	7.170745E-16	5.118707E-16
1.720000E+03	7.171395E-16	5.031138E-16
1.760000E+03	7.176233E-16	4.944513E-16
1.800000E+03	7.188288E-16	4.860724E-16
1.840000E+03	7.207584E-16	4.779514E-16
1.880000E+03	7.234136E-16	4.700610E-16
1.920000E+03	7.267952E-16	4.623728E-16
1.960000E+03	7.313692E-16	4.551476E-16
2.000000E+03	7.369849E-16	4.482442E-16
2.040000E+03	7.436439E-16	4.416195E-16
2.080000E+03	7.516614E-16	4.354117E-16
2.120000E+03	7.608817E-16	4.294736E-16
2.160000E+03	7.717794E-16	4.240133E-16
2.200000E+03	7.840369E-16	4.187864E-16
2.240000E+03	7.981290E-16	4.139786E-16
2.280000E+03	8.138914E-16	4.094247E-16
2.320000E+03	8.316371E-16	4.052023E-16
2.360000E+03	8.515171E-16	4.012932E-16
2.400000E+03	8.733547E-16	3.975212E-16
2.440000E+03	8.974534E-16	3.939336E-16
2.480000E+03	9.241136E-16	3.905583E-16
2.520000E+03	9.533048E-16	3.872717E-16
2.560000E+03	9.851525E-16	3.840157E-16
2.600000E+03	1.020101E-15	3.808468E-16
2.640000E+03	1.058098E-15	3.776190E-16
2.680000E+03	1.099572E-15	3.743586E-16
2.720000E+03	1.144779E-15	3.710133E-16
2.760000E+03	1.193800E-15	3.674669E-16
2.800000E+03	1.247197E-15	3.637443E-16
2.840000E+03	1.305195E-15	3.597480E-16
2.880000E+03	1.368175E-15	3.554128E-16
2.920000E+03	1.436510E-15	3.506540E-16
2.960000E+03	1.510576E-15	3.453680E-16
3.000000E+03	1.591080E-15	3.395018E-16
3.010000E+03	1.612187E-15	3.379119E-16
3.020000E+03	1.633862E-15	3.363014E-16
3.030000E+03	1.655943E-15	3.346322E-16
3.040000E+03	1.678429E-15	3.329005E-16
3.050000E+03	1.701321E-15	3.311025E-16
3.060000E+03	1.724779E-15	3.292651E-16
3.070000E+03	1.748804E-15	3.273827E-16
3.080000E+03	1.773236E-15	3.254205E-16
3.090000E+03	1.798077E-15	3.233750E-16
3.100000E+03	1.823648E-15	3.212987E-16
3.110000E+03	1.849633E-15	3.191296E-16
3.120000E+03	1.876193E-15	3.168910E-16
3.130000E+03	1.903332E-15	3.145777E-16
3.140000E+03	1.930897E-15	3.121589E-16
3.150000E+03	1.959209E-15	3.096813E-16
3.160000E+03	1.988115E-15	3.071136E-16
3.170000E+03	2.017781E-15	3.044745E-16
3.180000E+03	2.047899E-15	3.017110E-16
3.190000E+03	2.078794E-15	2.988650E-16
3.200000E+03	2.110476E-15	2.959300E-16
3.210000E+03	2.142642E-15	2.928564E-16
3.220000E+03	2.175777E-15	2.897040E-16
3.230000E+03	2.209582E-15	2.864240E-16
3.240000E+03	2.244231E-15	2.830316E-16
3.250000E+03	2.279585E-15	2.795012E-16
3.260000E+03	2.315978E-15	2.758659E-16
3.270000E+03	2.353119E-15	2.720816E-16
3.280000E+03	2.391192E-15	2.681619E-16
3.290000E+03	2.430378E-15	2.641178E-16
3.300000E+03	2.470552E-15	2.599258E-16
3.310000E+03	2.511747E-15	2.555806E-16
3.320000E+03	2.553999E-15	2.510770E-16
3.330000E+03	2.597504E-15	2.464251E-16
3.340000E+03	2.642148E-15	2.416044E-16
3.350000E+03	2.688132E-15	2.366246E-16
3.360000E+03	2.735508E-15	2.314807E-16
3.370000E+03	2.784172E-15	2.261554E-16
3.380000E+03	2.834338E-15	2.206589E-16
3.390000E+03	2.886068E-15	2.149884E-16
3.400000E+03	2.939587E-15	2.091536E-16
3.410000E+03	2.994650E-15	2.031320E-16
3.420000E+03	3.051490E-15	1.969374E-16
3.430000E+03	3.110345E-15	1.905842E-16
3.440000E+03	3.171142E-15	1.840699E-16
3.450000E+03	3.234128E-15	1.774155E-16
3.460000E+03	3.299241E-15	1.706292E-16
3.470000E+03	3.366578E-15	1.637360E-16
3.480000E+03	3.436562E-15	1.567848E-16
3.490000E+03	3.508983E-15	1.498054E-16
3.500000E+03	3.584114E-15	1.428661E-16
3.510000E+03	3.662071E-15	1.360473E-16
3.520000E+03	3.742978E-15	1.294546E-16
3.530000E+03	3.826958E-15	1.232243E-16
3.540000E+03	3.914142E-15	1.175284E-16
3.550000E+03	4.004661E-15	1.125770E-16
3.560000E+03	4.098820E-15	1.086178E-16
3.570000E+03	4.196597E-15	1.059074E-16
3.580000E+03	4.298140E-15	1.046946E-16
3.590000E+03	4.403779E-15	1.051769E-16
3.600000E+03	4.513689E-15	1.074517E-16
3.610000E+03	4.627889E-15	1.114949E-16
3.620000E+03	4.746752E-15	1.171843E-16
3.630000E+03	4.870315E-15	1.243177E-16
3.640000E+03	4.999144E-15	1.326747E-16
3.650000E+03	5.133100E-15	1.420173E-16
3.660000E+03	5.272566E-15	1.521393E-16
3.670000E+03	5.417736E-15	1.628548E-16
3.680000E+03	5.568785E-15	1.740034E-16
3.690000E+03	5.725869E-15	1.854467E-16
3.700000E+03	5.889115E-15	1.970643E-16
3.710000E+03	6.058428E-15	2.087429E-16
3.720000E+03	6.234239E-15	2.203987E-16
3.730000E+03	6.416375E-15	2.319354E-16
3.740000E+03	6.604795E-15	2.432675E-16
3.750000E+03	6.799405E-15	2.543118E-16
3.760000E+03	7.000044E-15	2.649864E-16
3.770000E+03	7.206480E-15	2.752091E-16
3.780000E+03	7.418400E-15	2.848976E-16
3.790000E+03	7.635405E-15	2.939689E-16
3.800000E+03	7.856998E-15	3.023396E-16
3.810000E+03	8.082366E-15	3.099188E-16
3.820000E+03	8.311221E-15	3.166412E-16
3.830000E+03	8.542523E-15	3.224202E-16
3.840000E+03	8.775101E-15	3.271741E-16
3.850000E+03	9.008095E-15	3.308447E-16
3.860000E+03	9.240308E-15	3.333757E-16
3.870000E+03	9.470423E-15	3.347241E-16
3.880000E+03	9.696780E-15	3.348555E-16
3.890000E+03	9.918078E-15	3.337718E-16
3.900000E+03	1.013248E-14	3.314834E-16
3.910000E+03	1.033830E-14	3.280363E-16
3.920000E+03	1.053385E-14	3.235066E-16
3.930000E+03	1.071763E-14	3.180095E-16
3.940000E+03	1.088773E-14	3.116769E-16
3.950000E+03	1.104229E-14	3.046695E-16
3.960000E+03	1.118020E-14	2.971882E-16
3.970000E+03	1.129955E-14	2.894186E-16
3.980000E+03	1.139903E-14	2.815592E-16
3.990000E+03	1.147773E-14	2.738026E-16
4.000000E+03	1.153446E-14	2.663087E-16
4.010000E+03	1.156852E-14	2.592140E-16
4.020000E+03	1.157968E-14	2.526235E-16
4.030000E+03	1.156730E-14	2.465877E-16
4.040000E+03	1.153148E-14	2.411264E-16
4.050000E+03	1.147282E-14	2.362254E-16
4.060000E+03	1.139179E-14	2.318286E-16
4.070000E+03	1.128947E-14	2.278591E-16
4.080000E+03	1.116729E-14	2.242234E-16
4.090000E+03	1.102709E-14	2.208208E-16
4.100000E+03	1.087092E-14	2.175481E-16
4.110000E+03	1.070139E-14	2.143140E-16
4.120000E+03	1.052136E-14	2.110410E-16
4.130000E+03	1.033385E-14	2.076685E-16
4.140000E+03	1.014180E-14	2.041511E-16
4.150000E+03	9.948254E-15	2.004658E-16
4.160000E+03	9.756154E-15	1.966067E-16
4.170000E+03	9.568218E-15	1.925831E-16
4.180000E+03	9.386780E-15	1.884135E-16
4.190000E+03	9.213916E-15	1.841262E-16
4.200000E+03	9.051831E-15	1.797647E-16
4.210000E+03	8.901884E-15	1.753654E-16
4.220000E+03	8.765303E-15	1.709694E-16
4.230000E+03	8.643284E-15	1.666228E-16
4.240000E+03	8.536469E-15	1.623634E-16
4.250000E+03	8.445317E-15	1.582269E-16
4.260000E+03	8.369830E-15	1.542392E-16
4.270000E+03	8.309657E-15	1.504179E-16
4.280000E+03	8.264326E-15	1.467748E-16
4.290000E+03	8.232710E-15	1.433072E-16
4.300000E+03	8.213671E-15	1.400094E-16
4.310000E+03	8.205806E-15	1.368698E-16
4.320000E+03	8.207761E-15	1.338771E-16
4.330000E+03	8.218110E-15	1.310199E-16
4.340000E+03	8.235557E-15	1.282912E-16
4.350000E+03	8.259117E-15	1.256919E-16
4.360000E+03	8.287995E-15	1.232296E-16
4.370000E+03	8.321764E-15	1.209218E-16
4.380000E+03	8.360451E-15	1.187989E-16
4.390000E+03	8.404722E-15	1.169080E-16
4.400000E+03	8.455851E-15	1.153123E-16
4.410000E+03	8.515476E-15	1.140865E-16
4.420000E+03	8.586436E-15	1.133246E-16
4.430000E+03	8.671937E-15	1.131223E-16
4.440000E+03	8.775774E-15	1.135725E-16
4.450000E+03	8.902253E-15	1.147558E-16
4.460000E+03	9.055837E-15	1.167282E-16
4.470000E+03	9.240678E-15	1.195108E-16
4.480000E+03	9.460278E-15	1.230842E-16
4.490000E+03	9.717175E-15	1.273880E-16
4.500000E+03	1.001251E-14	1.323230E-16
4.510000E+03	1.034577E-14	1.377587E-16
4.520000E+03	1.071457E-14	1.435423E-16
4.530000E+03	1.111457E-14	1.495076E-16
4.540000E+03	1.153934E-14	1.554842E-16
4.550000E+03	1.198095E-14	1.613143E-16
4.560000E+03	1.242965E-14	1.668560E-16
4.570000E+03	1.287413E-14	1.719921E-16
4.580000E+03	1.330295E-14	1.766482E-16
4.590000E+03	1.370437E-14	1.807848E-16
4.600000E+03	1.406719E-14	1.843948E-16
4.610000E+03	1.438200E-14	1.875028E-16
4.620000E+03	1.464126E-14	1.901476E-16
4.630000E+03	1.484044E-14	1.923810E-16
4.640000E+03	1.497768E-14	1.942540E-16
4.650000E+03	1.505451E-14	1.958240E-16
4.660000E+03	1.507493E-14	1.971494E-16
4.670000E+03	1.504547E-14	1.982995E-16
4.680000E+03	1.497446E-14	1.993551E-16
4.690000E+03	1.487125E-14	2.004055E-16
4.700000E+03	1.474604E-14	2.015489E-16
4.710000E+03	1.460871E-14	2.028746E-16
4.720000E+03	1.446884E-14	2.044585E-16
4.730000E+03	1.433518E-14	2.063513E-16
4.740000E+03	1.421536E-14	2.085730E-16
4.750000E+03	1.411575E-14	2.111123E-16
4.760000E+03	1.404117E-14	2.139272E-16
4.770000E+03	1.399515E-14	2.169569E-16
4.780000E+03	1.397964E-14	2.201261E-16
4.790000E+03	1.399549E-14	2.233594E-16
4.800000E+03	1.404197E-14	2.265778E-16
4.810000E+03	1.411731E-14	2.297085E-16
4.820000E+03	1.421867E-14	2.326847E-16
4.830000E+03	1.434242E-14	2.354483E-16
4.840000E+03	1.448411E-14	2.379479E-16
4.850000E+03	1.463841E-14	2.401352E-16
4.860000E+03	1.479971E-14	2.419760E-16
4.870000E+03	1.496212E-14	2.434468E-16
4.880000E+03	1.511944E-14	2.445333E-16
4.890000E+03	1.526574E-14	2.452329E-16
4.900000E+03	1.539532E-14	2.455460E-16
4.910000E+03	1.550320E-14	2.454744E-16
4.920000E+03	1.558511E-14	2.450117E-16
4.930000E+03	1.563788E-14	2.441432E-16
4.940000E+03	1.565915E-14	2.428425E-16
4.950000E+03	1.564768E-14	2.410808E-16
4.960000E+03	1.560285E-14	2.388319E-16
4.970000E+03	1.552473E-14	2.360835E-16
4.980000E+03	1.541417E-14	2.328472E-16
4.990000E+03	1.527272E-14	2.291605E-16
5.000000E+03	1.510241E-14	2.250823E-16
5.010000E+03	1.490647E-14	2.206984E-16
5.020000E+03	1.468912E-14	2.161107E-16
5.030000E+03	1.445545E-14	2.114270E-16
5.040000E+03	1.421144E-14	2.067564E-16
5.050000E+03	1.396379E-14	2.022016E-16
5.060000E+03	1.371986E-14	1.978579E-16
5.070000E+03	1.348656E-14	1.937996E-16
5.080000E+03	1.327069E-14	1.900876E-16
5.090000E+03	1.307812E-14	1.867632E-16
5.100000E+03	1.291373E-14	1.838528E-16
5.110000E+03	1.278087E-14	1.813639E-16
5.120000E+03	1.268181E-14	1.792964E-16
5.130000E+03	1.261710E-14	1.776333E-16
5.140000E+03	1.258629E-14	1.763522E-16
5.150000E+03	1.258796E-14	1.754230E-16
5.160000E+03	1.261963E-14	1.748072E-16
5.170000E+03	1.267874E-14	1.744676E-16
5.180000E+03	1.276208E-14	1.743594E-16
5.190000E+03	1.286653E-14	1.744375E-16
5.200000E+03	1.298910E-14	1.746562E-16
5.210000E+03	1.312696E-14	1.749671E-16
5.220000E+03	1.327726E-14	1.753164E-16
5.230000E+03	1.343710E-14	1.756454E-16
5.240000E+03	1.360396E-14	1.758970E-16
5.250000E+03	1.377478E-14	1.760076E-16
5.260000E+03	1.394673E-14	1.759200E-16
5.270000E+03	1.411611E-14	1.755737E-16
5.280000E+03	1.427954E-14	1.749229E-16
5.290000E+03	1.443299E-14	1.739270E-16
5.300000E+03	1.457282E-14	1.725636E-16
5.310000E+03	1.469498E-14	1.708187E-16
5.320000E+03	1.479636E-14	1.687009E-16
5.330000E+03	1.487422E-14	1.662321E-16
5.340000E+03	1.492648E-14	1.634487E-16
5.350000E+03	1.495240E-14	1.604081E-16
5.360000E+03	1.495183E-14	1.571764E-16
5.370000E+03	1.492573E-14	1.538330E-16
5.380000E+03	1.487601E-14	1.504636E-16
5.390000E+03	1.480569E-14	1.471572E-16
5.400000E+03	1.471789E-14	1.439895E-16
5.410000E+03	1.461685E-14	1.410259E-16
5.420000E+03	1.450650E-14	1.383016E-16
5.430000E+03	1.439135E-14	1.358287E-16
5.440000E+03	1.427516E-14	1.335861E-16
5.450000E+03	1.416135E-14	1.315338E-16
5.460000E+03	1.405203E-14	1.296223E-16
5.470000E+03	1.394879E-14	1.278200E-16
5.480000E+03	1.385155E-14	1.261162E-16
5.490000E+03	1.375958E-14	1.245354E-16
5.500000E+03	1.367133E-14	1.231307E-16
5.510000E+03	1.358440E-14	1.219698E-16
5.520000E+03	1.349673E-14	1.211275E-16
5.530000E+03	1.340657E-14	1.206637E-16
5.540000E+03	1.331270E-14	1.206091E-16
5.550000E+03	1.321508E-14	1.209635E-16
5.560000E+03	1.311406E-14	1.216914E-16
5.570000E+03	1.301109E-14	1.227356E-16
5.580000E+03	1.290779E-14	1.240255E-16
5.590000E+03	1.280559E-14	1.254879E-16
5.600000E+03	1.270614E-14	1.270620E-16
5.610000E+03	1.261027E-14	1.286948E-16
5.620000E+03	1.251826E-14	1.303437E-16
5.630000E+03	1.243012E-14	1.319769E-16
5.640000E+03	1.234506E-14	1.335660E-16
5.650000E+03	1.226242E-14	1.350929E-16
5.660000E+03	1.218132E-14	1.365441E-16
5.670000E+03	1.210079E-14	1.379115E-16
5.680000E+03	1.202022E-14	1.391945E-16
5.690000E+03	1.193911E-14	1.403981E-16
5.700000E+03	1.185760E-14	1.415375E-16
5.710000E+03	1.177596E-14	1.426323E-16
5.720000E+03	1.169490E-14	1.437083E-16
5.730000E+03	1.161575E-14	1.447988E-16
5.740000E+03	1.153997E-14	1.459354E-16
5.750000E+03	1.146943E-14	1.471488E-16
5.760000E+03	1.140605E-14	1.484630E-16
5.770000E+03	1.135193E-14	1.498954E-16
5.780000E+03	1.130906E-14	1.514537E-16
5.790000E+03	1.127906E-14	1.531337E-16
5.800000E+03	1.126339E-14	1.549248E-16
5.810000E+03	1.126263E-14	1.568028E-16
5.820000E+03	1.127707E-14	1.587420E-16
5.830000E+03	1.130611E-14	1.607087E-16
5.840000E+03	1.134860E-14	1.626672E-16
5.850000E+03	1.140276E-14	1.645798E-16
5.860000E+03	1.146609E-14	1.664030E-16
5.870000E+03	1.153619E-14	1.680992E-16
5.880000E+03	1.161010E-14	1.696261E-16
5.890000E+03	1.168471E-14	1.709429E-16
5.900000E+03	1.175750E-14	1.720217E-16
5.910000E+03	1.182581E-14	1.728390E-16
5.920000E+03	1.188732E-14	1.733831E-16
5.930000E+03	1.194035E-14	1.736589E-16
5.940000E+03	1.198347E-14	1.736795E-16
5.950000E+03	1.201572E-14	1.734672E-16
5.960000E+03	1.203695E-14	1.730536E-16
5.970000E+03	1.204726E-14	1.724696E-16
5.980000E+03	1.204745E-14	1.717501E-16
5.990000E+03	1.203837E-14	1.709231E-16
6.000000E+03	1.202166E-14	1.700211E-16
6.010000E+03	1.199865E-14	1.690659E-16
6.020000E+03	1.197105E-14	1.680792E-16
6.030000E+03	1.194065E-14	1.670800E-16
6.040000E+03	1.190903E-14	1.660812E-16
6.050000E+03	1.187743E-14	1.650897E-16
6.060000E+03	1.184708E-14	1.641109E-16
6.070000E+03	1.181845E-14	1.631404E-16
6.080000E+03	1.179223E-14	1.621772E-16
6.090000E+03	1.176802E-14	1.612063E-16
6.100000E+03	1.174545E-14	1.602143E-16
6.110000E+03	1.172318E-14	1.591750E-16
6.120000E+03	1.169988E-14	1.580639E-16
6.130000E+03	1.167371E-14	1.568491E-16
6.140000E+03	1.164207E-14	1.554894E-16
6.150000E+03	1.160275E-14	1.539503E-16
6.160000E+03	1.155253E-14	1.521859E-16
6.170000E+03	1.148857E-14	1.501594E-16
6.180000E+03	1.140754E-14	1.478330E-16
6.190000E+03	1.130636E-14	1.451783E-16
6.200000E+03	1.118186E-14	1.421728E-16
6.210000E+03	1.103154E-14	1.388082E-16
6.220000E+03	1.085319E-14	1.350841E-16
6.230000E+03	1.064566E-14	1.310144E-16
6.240000E+03	1.040889E-14	1.266250E-16
6.250000E+03	1.014421E-14	1.219545E-16
6.260000E+03	9.854396E-15	1.170532E-16
6.270000E+03	9.544004E-15	1.119869E-16
6.280000E+03	9.218274E-15	1.068257E-16
6.290000E+03	8.883971E-15	1.016565E-16
6.300000E+03	8.548169E-15	9.657328E-17
6.310000E+03	8.218325E-15	9.168146E-17
6.320000E+03	7.901939E-15	8.709527E-17
6.330000E+03	7.606122E-15	8.293241E-17
6.340000E+03	7.337545E-15	7.931016E-17
6.350000E+03	7.102473E-15	7.634023E-17
6.360000E+03	6.906612E-15	7.412082E-17
6.370000E+03	6.755364E-15	7.273278E-17
6.380000E+03	6.653678E-15	7.223355E-17
6.390000E+03	6.606503E-15	7.266131E-17
6.400000E+03	6.618439E-15	7.403280E-17
6.410000E+03	6.693985E-15	7.634985E-17
6.420000E+03	6.837207E-15	7.960147E-17
6.430000E+03	7.052258E-15	8.377585E-17
6.440000E+03	7.342371E-15	8.885316E-17
6.450000E+03	7.710296E-15	9.481483E-17
6.460000E+03	8.157158E-15	1.016350E-16
6.470000E+03	8.682688E-15	1.092894E-16
6.480000E+03	9.283521E-15	1.177411E-16
6.490000E+03	9.953324E-15	1.269481E-16
6.500000E+03	1.068139E-14	1.368485E-16
6.510000E+03	1.145273E-14	1.473590E-16
6.520000E+03	1.224841E-14	1.583679E-16
6.530000E+03	1.304536E-14	1.697139E-16
6.540000E+03	1.381872E-14	1.811935E-16
6.550000E+03	1.454237E-14	1.925473E-16
6.560000E+03	1.519165E-14	2.034796E-16
6.570000E+03	1.574447E-14	2.136690E-16
6.580000E+03	1.618354E-14	2.228027E-16
6.590000E+03	1.649760E-14	2.306067E-16
6.600000E+03	1.668140E-14	2.368633E-16
6.610000E+03	1.673649E-14	2.414418E-16
6.620000E+03	1.666994E-14	2.442971E-16
6.630000E+03	1.649332E-14	2.454677E-16
6.640000E+03	1.622196E-14	2.450737E-16
6.650000E+03	1.587296E-14	2.432901E-16
6.660000E+03	1.546384E-14	2.403272E-16
6.670000E+03	1.501231E-14	2.364238E-16
6.680000E+03	1.453393E-14	2.318080E-16
6.690000E+03	1.404306E-14	2.267057E-16
6.700000E+03	1.355150E-14	2.213160E-16
6.710000E+03	1.306940E-14	2.158202E-16
6.720000E+03	1.260400E-14	2.103590E-16
6.730000E+03	1.216114E-14	2.050529E-16
6.740000E+03	1.174472E-14	1.999924E-16
6.750000E+03	1.135723E-14	1.952436E-16
6.760000E+03	1.099975E-14	1.908487E-16
6.770000E+03	1.067279E-14	1.868377E-16
6.780000E+03	1.037594E-14	1.832231E-16
6.790000E+03	1.010812E-14	1.800034E-16
6.800000E+03	9.868137E-15	1.771728E-16
6.810000E+03	9.654423E-15	1.747163E-16
6.820000E+03	9.465098E-15	1.726110E-16
6.830000E+03	9.298340E-15	1.708333E-16
6.840000E+03	9.152428E-15	1.693593E-16
6.850000E+03	9.025395E-15	1.681596E-16
6.860000E+03	8.915579E-15	1.672090E-16
6.870000E+03	8.821129E-15	1.664781E-16
6.880000E+03	8.740408E-15	1.659410E-16
6.890000E+03	8.671871E-15	1.655734E-16
6.900000E+03	8.614071E-15	1.653526E-16
6.910000E+03	8.565662E-15	1.652578E-16
6.920000E+03	8.525398E-15	1.652699E-16
6.930000E+03	8.492136E-15	1.653716E-16
6.940000E+03	8.464829E-15	1.655474E-16
6.950000E+03	8.442529E-15	1.657832E-16
6.960000E+03	8.424261E-15	1.660643E-16
6.970000E+03	8.409265E-15	1.663794E-16
6.980000E+03	8.397000E-15	1.667216E-16
6.990000E+03	8.386892E-15	1.670825E-16
7.000000E+03	8.378207E-15	1.674507E-16
7.010000E+03	8.370790E-15	1.678256E-16
7.020000E+03	8.364194E-15	1.682008E-16
7.030000E+03	8.358169E-15	1.685737E-16
7.040000E+03	8.352528E-15	1.689424E-16
7.050000E+03	8.347145E-15	1.693065E-16
7.060000E+03	8.341940E-15	1.696658E-16
7.070000E+03	8.336747E-15	1.700185E-16
7.080000E+03	8.331681E-15	1.703678E-16
7.090000E+03	8.326749E-15	1.707148E-16
7.100000E+03	8.321719E-15	1.710551E-16
7.110000E+03	8.316865E-15	1.713947E-16
7.120000E+03	8.312205E-15	1.717336E-16
7.130000E+03	8.307491E-15	1.720667E-16
7.140000E+03	8.302843E-15	1.723959E-16
7.150000E+03	8.298361E-15	1.727228E-16
7.160000E+03	8.293619E-15	1.730379E-16
7.170000E+03	8.288936E-15	1.733475E-16
7.180000E+03	8.283976E-15	1.736441E-16
7.190000E+03	8.278775E-15	1.739282E-16
7.200000E+03	8.273097E-15	1.741950E-16
7.210000E+03	8.266827E-15	1.744424E-16
7.220000E+03	8.259973E-15	1.746715E-16
7.230000E+03	8.252154E-15	1.748753E-16
7.240000E+03	8.243374E-15	1.750560E-16
7.250000E+03	8.233511E-15	1.752136E-16
7.260000E+03	8.222452E-15	1.753489E-16
7.270000E+03	8.209962E-15	1.754610E-16
7.280000E+03	8.196080E-15	1.755557E-16
7.290000E+03	8.180604E-15	1.756341E-16
7.300000E+03	8.163611E-15	1.757045E-16
7.310000E+03	8.144811E-15	1.757673E-16
7.320000E+03	8.124455E-15	1.758356E-16
7.330000E+03	8.102425E-15	1.759146E-16
7.340000E+03	8.078618E-15	1.760098E-16
7.350000E+03	8.053335E-15	1.761355E-16
7.360000E+03	8.026358E-15	1.762942E-16
7.370000E+03	7.997862E-15	1.764961E-16
7.380000E+03	7.968016E-15	1.767503E-16
7.390000E+03	7.936587E-15	1.770554E-16
7.400000E+03	7.903724E-15	1.774167E-16
7.410000E+03	7.869432E-15	1.778342E-16
7.420000E+03	7.833712E-15	1.783051E-16
7.430000E+03	7.796562E-15	1.788243E-16
7.440000E+03	7.758113E-15	1.793866E-16
7.450000E+03	7.718249E-15	1.799790E-16
7.460000E+03	7.677004E-15	1.805893E-16
7.470000E+03	7.634691E-15	1.812104E-16
7.480000E+03	7.591134E-15	1.818226E-16
7.490000E+03	7.546573E-15	1.824152E-16
7.500000E+03	7.501022E-15	1.829717E-16
7.510000E+03	7.454780E-15	1.834823E-16
7.520000E+03	7.407922E-15	1.839310E-16
7.530000E+03	7.360679E-15	1.843051E-16
7.540000E+03	7.313430E-15	1.845950E-16
7.550000E+03	7.266319E-15	1.847852E-16
7.560000E+03	7.219756E-15	1.848665E-16
7.570000E+03	7.173903E-15	1.848247E-16
7.580000E+03	7.129048E-15	1.846500E-16
7.590000E+03	7.085595E-15	1.843379E-16
7.600000E+03	7.043683E-15	1.838808E-16
7.610000E+03	7.003680E-15	1.832807E-16
7.620000E+03	6.965801E-15	1.825402E-16
7.630000E+03	6.930228E-15	1.816656E-16
7.640000E+03	6.897108E-15	1.806670E-16
7.650000E+03	6.866545E-15	1.795571E-16
7.660000E+03	6.838718E-15	1.783540E-16
7.670000E+03	6.813511E-15	1.770710E-16
7.680000E+03	6.790874E-15	1.757245E-16
7.690000E+03	6.770945E-15	1.743367E-16
7.700000E+03	6.753311E-15	1.729159E-16
7.710000E+03	6.737867E-15	1.714771E-16
7.720000E+03	6.724329E-15	1.700294E-16
7.730000E+03	6.712482E-15	1.685813E-16
7.740000E+03	6.701825E-15	1.671309E-16
7.750000E+03	6.691951E-15	1.656752E-16
7.760000E+03	6.682560E-15	1.642096E-16
