#wls	flux	fluxerr
1.600000E+03	3.225917E-17	2.537268E-17
1.640000E+03	3.261971E-17	2.532206E-17
1.680000E+03	3.301471E-17	2.528212E-17
1.720000E+03	3.342595E-17	2.523761E-17
1.760000E+03	3.386363E-17	2.519521E-17
1.800000E+03	3.432856E-17	2.515422E-17
1.840000E+03	3.482162E-17	2.511392E-17
1.880000E+03	3.533452E-17	2.506698E-17
1.920000E+03	3.588683E-17	2.502590E-17
1.960000E+03	3.646116E-17	2.497685E-17
2.000000E+03	3.707714E-17	2.493172E-17
2.040000E+03	3.772682E-17	2.488317E-17
2.080000E+03	3.841156E-17	2.483024E-17
2.120000E+03	3.913280E-17	2.477191E-17
2.160000E+03	3.990123E-17	2.471278E-17
2.200000E+03	4.070931E-17	2.464576E-17
2.240000E+03	4.155875E-17	2.456962E-17
2.280000E+03	4.246056E-17	2.448834E-17
2.320000E+03	4.340746E-17	2.439497E-17
2.360000E+03	4.441071E-17	2.429304E-17
2.400000E+03	4.547250E-17	2.418057E-17
2.440000E+03	4.659514E-17	2.405548E-17
2.480000E+03	4.778110E-17	2.391554E-17
2.520000E+03	4.904241E-17	2.376300E-17
2.560000E+03	5.037255E-17	2.359060E-17
2.600000E+03	5.177452E-17	2.339578E-17
2.640000E+03	5.327071E-17	2.318421E-17
2.680000E+03	5.484572E-17	2.294423E-17
2.720000E+03	5.653261E-17	2.268469E-17
2.760000E+03	5.831671E-17	2.239383E-17
2.800000E+03	6.021297E-17	2.207180E-17
2.840000E+03	6.224735E-17	2.172161E-17
2.880000E+03	6.441711E-17	2.133500E-17
2.920000E+03	6.673033E-17	2.090739E-17
2.960000E+03	6.922738E-17	2.044336E-17
3.000000E+03	7.189915E-17	1.993105E-17
3.010000E+03	7.260539E-17	1.979743E-17
3.020000E+03	7.331901E-17	1.965908E-17
3.030000E+03	7.405078E-17	1.951876E-17
3.040000E+03	7.479037E-17	1.937357E-17
3.050000E+03	7.554864E-17	1.922620E-17
3.060000E+03	7.632591E-17	1.907650E-17
3.070000E+03	7.711176E-17	1.892168E-17
3.080000E+03	7.791720E-17	1.876432E-17
3.090000E+03	7.874256E-17	1.860426E-17
3.100000E+03	7.957737E-17	1.843885E-17
3.110000E+03	8.043275E-17	1.827052E-17
3.120000E+03	8.130908E-17	1.809914E-17
3.130000E+03	8.219579E-17	1.792216E-17
3.140000E+03	8.311518E-17	1.774426E-17
3.150000E+03	8.404567E-17	1.756055E-17
3.160000E+03	8.499866E-17	1.737328E-17
3.170000E+03	8.596344E-17	1.718008E-17
3.180000E+03	8.696271E-17	1.698531E-17
3.190000E+03	8.797457E-17	1.678441E-17
3.200000E+03	8.902194E-17	1.658158E-17
3.210000E+03	9.008274E-17	1.637243E-17
3.220000E+03	9.116870E-17	1.615899E-17
3.230000E+03	9.228032E-17	1.594113E-17
3.240000E+03	9.341809E-17	1.571874E-17
3.250000E+03	9.458250E-17	1.549170E-17
3.260000E+03	9.577405E-17	1.525992E-17
3.270000E+03	9.699326E-17	1.502331E-17
3.280000E+03	9.824062E-17	1.478178E-17
3.290000E+03	9.951663E-17	1.453528E-17
3.300000E+03	1.008336E-16	1.428544E-17
3.310000E+03	1.021684E-16	1.402884E-17
3.320000E+03	1.035453E-16	1.376880E-17
3.330000E+03	1.049408E-16	1.350212E-17
3.340000E+03	1.063793E-16	1.323201E-17
3.350000E+03	1.078493E-16	1.295699E-17
3.360000E+03	1.093511E-16	1.267722E-17
3.370000E+03	1.108974E-16	1.239429E-17
3.380000E+03	1.124762E-16	1.210702E-17
3.390000E+03	1.140877E-16	1.181579E-17
3.400000E+03	1.157322E-16	1.152105E-17
3.410000E+03	1.174222E-16	1.122458E-17
3.420000E+03	1.191454E-16	1.092579E-17
3.430000E+03	1.209143E-16	1.062667E-17
3.440000E+03	1.227161E-16	1.032704E-17
3.450000E+03	1.245505E-16	1.002816E-17
3.460000E+03	1.264300E-16	9.732489E-18
3.470000E+03	1.283542E-16	9.441677E-18
3.480000E+03	1.303095E-16	9.156751E-18
3.490000E+03	1.322949E-16	8.880115E-18
3.500000E+03	1.343358E-16	8.616237E-18
3.510000E+03	1.364048E-16	8.366442E-18
3.520000E+03	1.385004E-16	8.134270E-18
3.530000E+03	1.406345E-16	7.924364E-18
3.540000E+03	1.428055E-16	7.740796E-18
3.550000E+03	1.450117E-16	7.587784E-18
3.560000E+03	1.472513E-16	7.469502E-18
3.570000E+03	1.495089E-16	7.389135E-18
3.580000E+03	1.517964E-16	7.350636E-18
3.590000E+03	1.541121E-16	7.356308E-18
3.600000E+03	1.564549E-16	7.407241E-18
3.610000E+03	1.588235E-16	7.503170E-18
3.620000E+03	1.612174E-16	7.642505E-18
3.630000E+03	1.636360E-16	7.822522E-18
3.640000E+03	1.660649E-16	8.038962E-18
3.650000E+03	1.685323E-16	8.289079E-18
3.660000E+03	1.710240E-16	8.567817E-18
3.670000E+03	1.735400E-16	8.870752E-18
3.680000E+03	1.760947E-16	9.194337E-18
3.690000E+03	1.786591E-16	9.533001E-18
3.700000E+03	1.812618E-16	9.884483E-18
3.710000E+03	1.838882E-16	1.024455E-17
3.720000E+03	1.865376E-16	1.061006E-17
3.730000E+03	1.892094E-16	1.097815E-17
3.740000E+03	1.919176E-16	1.134716E-17
3.750000E+03	1.946464E-16	1.171395E-17
3.760000E+03	1.974096E-16	1.207743E-17
3.770000E+03	2.001910E-16	1.243489E-17
3.780000E+03	2.029891E-16	1.278476E-17
3.790000E+03	2.058170E-16	1.312659E-17
3.800000E+03	2.086731E-16	1.345921E-17
3.810000E+03	2.115402E-16	1.378061E-17
3.820000E+03	2.144161E-16	1.408992E-17
3.830000E+03	2.173134E-16	1.438738E-17
3.840000E+03	2.202297E-16	1.467242E-17
3.850000E+03	2.231469E-16	1.494359E-17
3.860000E+03	2.260774E-16	1.520157E-17
3.870000E+03	2.290182E-16	1.544616E-17
3.880000E+03	2.319660E-16	1.567730E-17
3.890000E+03	2.349024E-16	1.589396E-17
3.900000E+03	2.378390E-16	1.609732E-17
3.910000E+03	2.407725E-16	1.628758E-17
3.920000E+03	2.436841E-16	1.646404E-17
3.930000E+03	2.466006E-16	1.662914E-17
3.940000E+03	2.494881E-16	1.678129E-17
3.950000E+03	2.523585E-16	1.692202E-17
3.960000E+03	2.552236E-16	1.705293E-17
3.970000E+03	2.580501E-16	1.717259E-17
3.980000E+03	2.608505E-16	1.728267E-17
3.990000E+03	2.636225E-16	1.738384E-17
4.000000E+03	2.663493E-16	1.747580E-17
4.010000E+03	2.690602E-16	1.756127E-17
4.020000E+03	2.717397E-16	1.763997E-17
4.030000E+03	2.743884E-16	1.771265E-17
4.040000E+03	2.770081E-16	1.778006E-17
4.050000E+03	2.796016E-16	1.784299E-17
4.060000E+03	2.821730E-16	1.790221E-17
4.070000E+03	2.847280E-16	1.795854E-17
4.080000E+03	2.872737E-16	1.801283E-17
4.090000E+03	2.898187E-16	1.806593E-17
4.100000E+03	2.923737E-16	1.811875E-17
4.110000E+03	2.949653E-16	1.817313E-17
4.120000E+03	2.975783E-16	1.822826E-17
4.130000E+03	3.002429E-16	1.828606E-17
4.140000E+03	3.029912E-16	1.834852E-17
4.150000E+03	3.058131E-16	1.841501E-17
4.160000E+03	3.087439E-16	1.848763E-17
4.170000E+03	3.118200E-16	1.856848E-17
4.180000E+03	3.150361E-16	1.865718E-17
4.190000E+03	3.184457E-16	1.875683E-17
4.200000E+03	3.220460E-16	1.886716E-17
4.210000E+03	3.258924E-16	1.899137E-17
4.220000E+03	3.299841E-16	1.912933E-17
4.230000E+03	3.343784E-16	1.928430E-17
4.240000E+03	3.390760E-16	1.945627E-17
4.250000E+03	3.441214E-16	1.964776E-17
4.260000E+03	3.495457E-16	1.986046E-17
4.270000E+03	3.553804E-16	2.009615E-17
4.280000E+03	3.616436E-16	2.035577E-17
4.290000E+03	3.683979E-16	2.064278E-17
4.300000E+03	3.756487E-16	2.095739E-17
4.310000E+03	3.834463E-16	2.130232E-17
4.320000E+03	3.918127E-16	2.167868E-17
4.330000E+03	4.008014E-16	2.208929E-17
4.340000E+03	4.104528E-16	2.253622E-17
4.350000E+03	4.207934E-16	2.302077E-17
4.360000E+03	4.318828E-16	2.354603E-17
4.370000E+03	4.437515E-16	2.411346E-17
4.380000E+03	4.564637E-16	2.472635E-17
4.390000E+03	4.700541E-16	2.538638E-17
4.400000E+03	4.845752E-16	2.609618E-17
4.410000E+03	5.000818E-16	2.685847E-17
4.420000E+03	5.166484E-16	2.767703E-17
4.430000E+03	5.343162E-16	2.855383E-17
4.440000E+03	5.531448E-16	2.949182E-17
4.450000E+03	5.731750E-16	3.049292E-17
4.460000E+03	5.945039E-16	3.156204E-17
4.470000E+03	6.171710E-16	3.270100E-17
4.480000E+03	6.412113E-16	3.391135E-17
4.490000E+03	6.666956E-16	3.519652E-17
4.500000E+03	6.936699E-16	3.655860E-17
4.510000E+03	7.221727E-16	3.799926E-17
4.520000E+03	7.522106E-16	3.951848E-17
4.530000E+03	7.838003E-16	4.111678E-17
4.540000E+03	8.169700E-16	4.279528E-17
4.550000E+03	8.516863E-16	4.455191E-17
4.560000E+03	8.879228E-16	4.638503E-17
4.570000E+03	9.256630E-16	4.829361E-17
4.580000E+03	9.647930E-16	5.027167E-17
4.590000E+03	1.005289E-15	5.231804E-17
4.600000E+03	1.046997E-15	5.442505E-17
4.610000E+03	1.089832E-15	5.658875E-17
4.620000E+03	1.133664E-15	5.880316E-17
4.630000E+03	1.178351E-15	6.106185E-17
4.640000E+03	1.223705E-15	6.335635E-17
4.650000E+03	1.269593E-15	6.568129E-17
4.660000E+03	1.315811E-15	6.802778E-17
4.670000E+03	1.362217E-15	7.039047E-17
4.680000E+03	1.408602E-15	7.276051E-17
4.690000E+03	1.454791E-15	7.513094E-17
4.700000E+03	1.500614E-15	7.749504E-17
4.710000E+03	1.545907E-15	7.984624E-17
4.720000E+03	1.590516E-15	8.217815E-17
4.730000E+03	1.634293E-15	8.448443E-17
4.740000E+03	1.677101E-15	8.675875E-17
4.750000E+03	1.718815E-15	8.899463E-17
4.760000E+03	1.759271E-15	9.118319E-17
4.770000E+03	1.798402E-15	9.331954E-17
4.780000E+03	1.836061E-15	9.539404E-17
4.790000E+03	1.872192E-15	9.740113E-17
4.800000E+03	1.906660E-15	9.933033E-17
4.810000E+03	1.939374E-15	1.011731E-16
4.820000E+03	1.970294E-15	1.029233E-16
4.830000E+03	1.999246E-15	1.045675E-16
4.840000E+03	2.026239E-15	1.061020E-16
4.850000E+03	2.051152E-15	1.075167E-16
4.860000E+03	2.073864E-15	1.088019E-16
4.870000E+03	2.094399E-15	1.099562E-16
4.880000E+03	2.112649E-15	1.109723E-16
4.890000E+03	2.128514E-15	1.118439E-16
4.900000E+03	2.141995E-15	1.125714E-16
4.910000E+03	2.153014E-15	1.131517E-16
4.920000E+03	2.161645E-15	1.135906E-16
4.930000E+03	2.167748E-15	1.138835E-16
4.940000E+03	2.171475E-15	1.140417E-16
4.950000E+03	2.172768E-15	1.140660E-16
4.960000E+03	2.171681E-15	1.139633E-16
4.970000E+03	2.168287E-15	1.137413E-16
4.980000E+03	2.162771E-15	1.134137E-16
4.990000E+03	2.155114E-15	1.129828E-16
5.000000E+03	2.145497E-15	1.124611E-16
5.010000E+03	2.134117E-15	1.118612E-16
5.020000E+03	2.121103E-15	1.111912E-16
5.030000E+03	2.106685E-15	1.104637E-16
5.040000E+03	2.090982E-15	1.096849E-16
5.050000E+03	2.074290E-15	1.088690E-16
5.060000E+03	2.056752E-15	1.080217E-16
5.070000E+03	2.038676E-15	1.071567E-16
5.080000E+03	2.020255E-15	1.062810E-16
5.090000E+03	2.001720E-15	1.054032E-16
5.100000E+03	1.983303E-15	1.045318E-16
5.110000E+03	1.965226E-15	1.036745E-16
5.120000E+03	1.947708E-15	1.028387E-16
5.130000E+03	1.930954E-15	1.020315E-16
5.140000E+03	1.915159E-15	1.012593E-16
5.150000E+03	1.900540E-15	1.005299E-16
5.160000E+03	1.887193E-15	9.984526E-17
5.170000E+03	1.875307E-15	9.921212E-17
5.180000E+03	1.865019E-15	9.863494E-17
5.190000E+03	1.856453E-15	9.811765E-17
5.200000E+03	1.849719E-15	9.766365E-17
5.210000E+03	1.844911E-15	9.727584E-17
5.220000E+03	1.842113E-15	9.695667E-17
5.230000E+03	1.841395E-15	9.670814E-17
5.240000E+03	1.842819E-15	9.653191E-17
5.250000E+03	1.846432E-15	9.642926E-17
5.260000E+03	1.852275E-15	9.640125E-17
5.270000E+03	1.860377E-15	9.644868E-17
5.280000E+03	1.870759E-15	9.657216E-17
5.290000E+03	1.883430E-15	9.677217E-17
5.300000E+03	1.898391E-15	9.704903E-17
5.310000E+03	1.915630E-15	9.740295E-17
5.320000E+03	1.935123E-15	9.783399E-17
5.330000E+03	1.956833E-15	9.834208E-17
5.340000E+03	1.980705E-15	9.892694E-17
5.350000E+03	2.006669E-15	9.958812E-17
5.360000E+03	2.034668E-15	1.003265E-16
5.370000E+03	2.064525E-15	1.011377E-16
5.380000E+03	2.096138E-15	1.020220E-16
5.390000E+03	2.129385E-15	1.029792E-16
5.400000E+03	2.164015E-15	1.040036E-16
5.410000E+03	2.199890E-15	1.050957E-16
5.420000E+03	2.236708E-15	1.062487E-16
5.430000E+03	2.274288E-15	1.074618E-16
5.440000E+03	2.312320E-15	1.087285E-16
5.450000E+03	2.350479E-15	1.100416E-16
5.460000E+03	2.388538E-15	1.113982E-16
5.470000E+03	2.426155E-15	1.127892E-16
5.480000E+03	2.463024E-15	1.142066E-16
5.490000E+03	2.498849E-15	1.156411E-16
5.500000E+03	2.533346E-15	1.170830E-16
5.510000E+03	2.566257E-15	1.185214E-16
5.520000E+03	2.597351E-15	1.199454E-16
5.530000E+03	2.626433E-15	1.213439E-16
5.540000E+03	2.653352E-15	1.227063E-16
5.550000E+03	2.678000E-15	1.240231E-16
5.560000E+03	2.700282E-15	1.252841E-16
5.570000E+03	2.720274E-15	1.264868E-16
5.580000E+03	2.737983E-15	1.276251E-16
5.590000E+03	2.753468E-15	1.286951E-16
5.600000E+03	2.766957E-15	1.297011E-16
5.610000E+03	2.778560E-15	1.306424E-16
5.620000E+03	2.788552E-15	1.315261E-16
5.630000E+03	2.797198E-15	1.323600E-16
5.640000E+03	2.804755E-15	1.331517E-16
5.650000E+03	2.811581E-15	1.339143E-16
5.660000E+03	2.818013E-15	1.346605E-16
5.670000E+03	2.824396E-15	1.354039E-16
5.680000E+03	2.831039E-15	1.361566E-16
5.690000E+03	2.838332E-15	1.369348E-16
5.700000E+03	2.846575E-15	1.377507E-16
5.710000E+03	2.856098E-15	1.386177E-16
5.720000E+03	2.867253E-15	1.395505E-16
5.730000E+03	2.880327E-15	1.405605E-16
5.740000E+03	2.895536E-15	1.416552E-16
5.750000E+03	2.913097E-15	1.428427E-16
5.760000E+03	2.933188E-15	1.441285E-16
5.770000E+03	2.955975E-15	1.455179E-16
5.780000E+03	2.981438E-15	1.470072E-16
5.790000E+03	3.009663E-15	1.485980E-16
5.800000E+03	3.040533E-15	1.502824E-16
5.810000E+03	3.073897E-15	1.520512E-16
5.820000E+03	3.109518E-15	1.538918E-16
5.830000E+03	3.147074E-15	1.557881E-16
5.840000E+03	3.186115E-15	1.577185E-16
5.850000E+03	3.226240E-15	1.596651E-16
5.860000E+03	3.266799E-15	1.615986E-16
5.870000E+03	3.307214E-15	1.634944E-16
5.880000E+03	3.346772E-15	1.653220E-16
5.890000E+03	3.384829E-15	1.670555E-16
5.900000E+03	3.420696E-15	1.686672E-16
5.910000E+03	3.453662E-15	1.701286E-16
5.920000E+03	3.483164E-15	1.714188E-16
5.930000E+03	3.508621E-15	1.725154E-16
5.940000E+03	3.529603E-15	1.734028E-16
5.950000E+03	3.545846E-15	1.740725E-16
5.960000E+03	3.557121E-15	1.745166E-16
5.970000E+03	3.563434E-15	1.747371E-16
5.980000E+03	3.564778E-15	1.747339E-16
5.990000E+03	3.561472E-15	1.745215E-16
6.000000E+03	3.553749E-15	1.741089E-16
6.010000E+03	3.542134E-15	1.735183E-16
6.020000E+03	3.527077E-15	1.727673E-16
6.030000E+03	3.509130E-15	1.718780E-16
6.040000E+03	3.488870E-15	1.708735E-16
6.050000E+03	3.466835E-15	1.697751E-16
6.060000E+03	3.443694E-15	1.686107E-16
6.070000E+03	3.419945E-15	1.674001E-16
6.080000E+03	3.396046E-15	1.661621E-16
6.090000E+03	3.372547E-15	1.649203E-16
6.100000E+03	3.349759E-15	1.636873E-16
6.110000E+03	3.328070E-15	1.624803E-16
6.120000E+03	3.307766E-15	1.613119E-16
6.130000E+03	3.289033E-15	1.601902E-16
6.140000E+03	3.272137E-15	1.591274E-16
6.150000E+03	3.257116E-15	1.581252E-16
6.160000E+03	3.244102E-15	1.571894E-16
6.170000E+03	3.233144E-15	1.563222E-16
6.180000E+03	3.224260E-15	1.555240E-16
6.190000E+03	3.217404E-15	1.547919E-16
6.200000E+03	3.212641E-15	1.541286E-16
6.210000E+03	3.209850E-15	1.535277E-16
6.220000E+03	3.209035E-15	1.529887E-16
6.230000E+03	3.210153E-15	1.525093E-16
6.240000E+03	3.213165E-15	1.520874E-16
6.250000E+03	3.218039E-15	1.517215E-16
6.260000E+03	3.224750E-15	1.514112E-16
6.270000E+03	3.233245E-15	1.511548E-16
6.280000E+03	3.243615E-15	1.509580E-16
6.290000E+03	3.255836E-15	1.508217E-16
6.300000E+03	3.269947E-15	1.507498E-16
6.310000E+03	3.286005E-15	1.507475E-16
6.320000E+03	3.304083E-15	1.508212E-16
6.330000E+03	3.324316E-15	1.509799E-16
6.340000E+03	3.346719E-15	1.512274E-16
6.350000E+03	3.371494E-15	1.515759E-16
6.360000E+03	3.398761E-15	1.520336E-16
6.370000E+03	3.428592E-15	1.526063E-16
6.380000E+03	3.461095E-15	1.533014E-16
6.390000E+03	3.496408E-15	1.541271E-16
6.400000E+03	3.534548E-15	1.550860E-16
6.410000E+03	3.575590E-15	1.561834E-16
6.420000E+03	3.619510E-15	1.574200E-16
6.430000E+03	3.666224E-15	1.587946E-16
6.440000E+03	3.715523E-15	1.603006E-16
6.450000E+03	3.767211E-15	1.619332E-16
6.460000E+03	3.820998E-15	1.636842E-16
6.470000E+03	3.876326E-15	1.655354E-16
6.480000E+03	3.932678E-15	1.674718E-16
6.490000E+03	3.989419E-15	1.694742E-16
6.500000E+03	4.045679E-15	1.715148E-16
6.510000E+03	4.100522E-15	1.735635E-16
6.520000E+03	4.152900E-15	1.755852E-16
6.530000E+03	4.201729E-15	1.775422E-16
6.540000E+03	4.245797E-15	1.793898E-16
6.550000E+03	4.283798E-15	1.810766E-16
6.560000E+03	4.314559E-15	1.825543E-16
6.570000E+03	4.336848E-15	1.837697E-16
6.580000E+03	4.349677E-15	1.846772E-16
6.590000E+03	4.352172E-15	1.852338E-16
6.600000E+03	4.343683E-15	1.854043E-16
6.610000E+03	4.323825E-15	1.851624E-16
6.620000E+03	4.292559E-15	1.844954E-16
6.630000E+03	4.249968E-15	1.833941E-16
6.640000E+03	4.196607E-15	1.818689E-16
6.650000E+03	4.133303E-15	1.799410E-16
6.660000E+03	4.060998E-15	1.776369E-16
6.670000E+03	3.980939E-15	1.749965E-16
6.680000E+03	3.894335E-15	1.720591E-16
6.690000E+03	3.802750E-15	1.688810E-16
6.700000E+03	3.707490E-15	1.655090E-16
6.710000E+03	3.609995E-15	1.619978E-16
6.720000E+03	3.511523E-15	1.583964E-16
6.730000E+03	3.413330E-15	1.547559E-16
6.740000E+03	3.316482E-15	1.511212E-16
6.750000E+03	3.221901E-15	1.475324E-16
6.760000E+03	3.130354E-15	1.440248E-16
6.770000E+03	3.042458E-15	1.406280E-16
6.780000E+03	2.958642E-15	1.373642E-16
6.790000E+03	2.879332E-15	1.342565E-16
6.800000E+03	2.804707E-15	1.313168E-16
6.810000E+03	2.734886E-15	1.285550E-16
6.820000E+03	2.669943E-15	1.259787E-16
6.830000E+03	2.609763E-15	1.235869E-16
6.840000E+03	2.554333E-15	1.213832E-16
6.850000E+03	2.503519E-15	1.193651E-16
6.860000E+03	2.457083E-15	1.175253E-16
6.870000E+03	2.414917E-15	1.158619E-16
6.880000E+03	2.376823E-15	1.143687E-16
6.890000E+03	2.342564E-15	1.130373E-16
6.900000E+03	2.311974E-15	1.118623E-16
6.910000E+03	2.284818E-15	1.108345E-16
6.920000E+03	2.260937E-15	1.099484E-16
6.930000E+03	2.240111E-15	1.091949E-16
6.940000E+03	2.222197E-15	1.085685E-16
6.950000E+03	2.207024E-15	1.080619E-16
6.960000E+03	2.194402E-15	1.076667E-16
6.970000E+03	2.184244E-15	1.073795E-16
6.980000E+03	2.176313E-15	1.071890E-16
6.990000E+03	2.170573E-15	1.070939E-16
7.000000E+03	2.166869E-15	1.070869E-16
7.010000E+03	2.165054E-15	1.071609E-16
7.020000E+03	2.165053E-15	1.073127E-16
7.030000E+03	2.166767E-15	1.075378E-16
7.040000E+03	2.170108E-15	1.078322E-16
7.050000E+03	2.174991E-15	1.081927E-16
7.060000E+03	2.181341E-15	1.086162E-16
7.070000E+03	2.189089E-15	1.091003E-16
7.080000E+03	2.198137E-15	1.096415E-16
7.090000E+03	2.208494E-15	1.102414E-16
7.100000E+03	2.220036E-15	1.108954E-16
7.110000E+03	2.232776E-15	1.116056E-16
7.120000E+03	2.246591E-15	1.123674E-16
7.130000E+03	2.261458E-15	1.131810E-16
7.140000E+03	2.277348E-15	1.140465E-16
7.150000E+03	2.294120E-15	1.149579E-16
7.160000E+03	2.311765E-15	1.159156E-16
7.170000E+03	2.330116E-15	1.169121E-16
7.180000E+03	2.349138E-15	1.179459E-16
7.190000E+03	2.368631E-15	1.190069E-16
7.200000E+03	2.388526E-15	1.200914E-16
7.210000E+03	2.408583E-15	1.211866E-16
7.220000E+03	2.428697E-15	1.222863E-16
7.230000E+03	2.448591E-15	1.233753E-16
7.240000E+03	2.468126E-15	1.244454E-16
7.250000E+03	2.487032E-15	1.254818E-16
7.260000E+03	2.505029E-15	1.264690E-16
7.270000E+03	2.521951E-15	1.273976E-16
7.280000E+03	2.537513E-15	1.282526E-16
7.290000E+03	2.551477E-15	1.290215E-16
7.300000E+03	2.563615E-15	1.296931E-16
7.310000E+03	2.573720E-15	1.302574E-16
7.320000E+03	2.581611E-15	1.307062E-16
7.330000E+03	2.587136E-15	1.310335E-16
7.340000E+03	2.590181E-15	1.312351E-16
7.350000E+03	2.590668E-15	1.313092E-16
7.360000E+03	2.588608E-15	1.312583E-16
7.370000E+03	2.583922E-15	1.310804E-16
7.380000E+03	2.576705E-15	1.307820E-16
7.390000E+03	2.567046E-15	1.303691E-16
7.400000E+03	2.555116E-15	1.298513E-16
7.410000E+03	2.540991E-15	1.292330E-16
7.420000E+03	2.524945E-15	1.285281E-16
7.430000E+03	2.507109E-15	1.277426E-16
7.440000E+03	2.487799E-15	1.268918E-16
7.450000E+03	2.467222E-15	1.259849E-16
7.460000E+03	2.445595E-15	1.250312E-16
7.470000E+03	2.423268E-15	1.240467E-16
7.480000E+03	2.400468E-15	1.230412E-16
7.490000E+03	2.377466E-15	1.220262E-16
7.500000E+03	2.354487E-15	1.210113E-16
7.510000E+03	2.331875E-15	1.200119E-16
7.520000E+03	2.309842E-15	1.190369E-16
7.530000E+03	2.288628E-15	1.180965E-16
7.540000E+03	2.268458E-15	1.172003E-16
7.550000E+03	2.249540E-15	1.163568E-16
7.560000E+03	2.232056E-15	1.155734E-16
7.570000E+03	2.216166E-15	1.148562E-16
7.580000E+03	2.201999E-15	1.142094E-16
7.590000E+03	2.189692E-15	1.136377E-16
7.600000E+03	2.179229E-15	1.131376E-16
7.610000E+03	2.170678E-15	1.127098E-16
7.620000E+03	2.164029E-15	1.123506E-16
7.630000E+03	2.159273E-15	1.120564E-16
7.640000E+03	2.156251E-15	1.118154E-16
7.650000E+03	2.154921E-15	1.116222E-16
7.660000E+03	2.155058E-15	1.114615E-16
7.670000E+03	2.156562E-15	1.113245E-16
7.680000E+03	2.159158E-15	1.111935E-16
7.690000E+03	2.162706E-15	1.110582E-16
7.700000E+03	2.166899E-15	1.108999E-16
7.710000E+03	2.171585E-15	1.107083E-16
7.720000E+03	2.176492E-15	1.104676E-16
7.730000E+03	2.181399E-15	1.101652E-16
7.740000E+03	2.186057E-15	1.097881E-16
7.750000E+03	2.190357E-15	1.093309E-16
7.760000E+03	2.194096E-15	1.087848E-16
