#wls	flux	fluxerr
1.600000E+03	4.148166E-17	3.257879E-17
1.640000E+03	4.197745E-17	3.253719E-17
1.680000E+03	4.250531E-17	3.249922E-17
1.720000E+03	4.306606E-17	3.246396E-17
1.760000E+03	4.366059E-17	3.243048E-17
1.800000E+03	4.427786E-17	3.238901E-17
1.840000E+03	4.494296E-17	3.235628E-17
1.880000E+03	4.563303E-17	3.231384E-17
1.920000E+03	4.637318E-17	3.227765E-17
1.960000E+03	4.714081E-17	3.222982E-17
2.000000E+03	4.796108E-17	3.218554E-17
2.040000E+03	4.882347E-17	3.213521E-17
2.080000E+03	4.971763E-17	3.206983E-17
2.120000E+03	5.068065E-17	3.201086E-17
2.160000E+03	5.167857E-17	3.193380E-17
2.200000E+03	5.273675E-17	3.185179E-17
2.240000E+03	5.384504E-17	3.175556E-17
2.280000E+03	5.500515E-17	3.164320E-17
2.320000E+03	5.624271E-17	3.152603E-17
2.360000E+03	5.752376E-17	3.138134E-17
2.400000E+03	5.888598E-17	3.122638E-17
2.440000E+03	6.030729E-17	3.104531E-17
2.480000E+03	6.181363E-17	3.084757E-17
2.520000E+03	6.338277E-17	3.061769E-17
2.560000E+03	6.504085E-17	3.036414E-17
2.600000E+03	6.678993E-17	3.008290E-17
2.640000E+03	6.861982E-17	2.976441E-17
2.680000E+03	7.054488E-17	2.941010E-17
2.720000E+03	7.257984E-17	2.902057E-17
2.760000E+03	7.471482E-17	2.858604E-17
2.800000E+03	7.697777E-17	2.811129E-17
2.840000E+03	7.935950E-17	2.758631E-17
2.880000E+03	8.188949E-17	2.701463E-17
2.920000E+03	8.455992E-17	2.638620E-17
2.960000E+03	8.740265E-17	2.570341E-17
3.000000E+03	9.042537E-17	2.495999E-17
3.010000E+03	9.121022E-17	2.476395E-17
3.020000E+03	9.201368E-17	2.456541E-17
3.030000E+03	9.282269E-17	2.436073E-17
3.040000E+03	9.365069E-17	2.415333E-17
3.050000E+03	9.449790E-17	2.394305E-17
3.060000E+03	9.535123E-17	2.372638E-17
3.070000E+03	9.622423E-17	2.350661E-17
3.080000E+03	9.711715E-17	2.328356E-17
3.090000E+03	9.801683E-17	2.305392E-17
3.100000E+03	9.893694E-17	2.282080E-17
3.110000E+03	9.987780E-17	2.258404E-17
3.120000E+03	1.008397E-16	2.234349E-17
3.130000E+03	1.018094E-16	2.209605E-17
3.140000E+03	1.028008E-16	2.184464E-17
3.150000E+03	1.038142E-16	2.158909E-17
3.160000E+03	1.048500E-16	2.132928E-17
3.170000E+03	1.059086E-16	2.106507E-17
3.180000E+03	1.069766E-16	2.079363E-17
3.190000E+03	1.080819E-16	2.052027E-17
3.200000E+03	1.091975E-16	2.023954E-17
3.210000E+03	1.103374E-16	1.995402E-17
3.220000E+03	1.115161E-16	1.966605E-17
3.230000E+03	1.127063E-16	1.937056E-17
3.240000E+03	1.139223E-16	1.906997E-17
3.250000E+03	1.151647E-16	1.876419E-17
3.260000E+03	1.164481E-16	1.845539E-17
3.270000E+03	1.177448E-16	1.813900E-17
3.280000E+03	1.190836E-16	1.781938E-17
3.290000E+03	1.204368E-16	1.749221E-17
3.300000E+03	1.218333E-16	1.716169E-17
3.310000E+03	1.232596E-16	1.682572E-17
3.320000E+03	1.247162E-16	1.648435E-17
3.330000E+03	1.262182E-16	1.613954E-17
3.340000E+03	1.277372E-16	1.578765E-17
3.350000E+03	1.293029E-16	1.543253E-17
3.360000E+03	1.309159E-16	1.507423E-17
3.370000E+03	1.325477E-16	1.470965E-17
3.380000E+03	1.342281E-16	1.434249E-17
3.390000E+03	1.359578E-16	1.397306E-17
3.400000E+03	1.377227E-16	1.360032E-17
3.410000E+03	1.395233E-16	1.322499E-17
3.420000E+03	1.413750E-16	1.284929E-17
3.430000E+03	1.432633E-16	1.247281E-17
3.440000E+03	1.452038E-16	1.209805E-17
3.450000E+03	1.471969E-16	1.172636E-17
3.460000E+03	1.492280E-16	1.135821E-17
3.470000E+03	1.513125E-16	1.099681E-17
3.480000E+03	1.534354E-16	1.064343E-17
3.490000E+03	1.556276E-16	1.030298E-17
3.500000E+03	1.578585E-16	9.976587E-18
3.510000E+03	1.601435E-16	9.668997E-18
3.520000E+03	1.624671E-16	9.383488E-18
3.530000E+03	1.648603E-16	9.126542E-18
3.540000E+03	1.672917E-16	8.901402E-18
3.550000E+03	1.697924E-16	8.715037E-18
3.560000E+03	1.723304E-16	8.571070E-18
3.570000E+03	1.749209E-16	8.475352E-18
3.580000E+03	1.775635E-16	8.432296E-18
3.590000E+03	1.802734E-16	8.446137E-18
3.600000E+03	1.830178E-16	8.517420E-18
3.610000E+03	1.858289E-16	8.647098E-18
3.620000E+03	1.886902E-16	8.831956E-18
3.630000E+03	1.916018E-16	9.068346E-18
3.640000E+03	1.945799E-16	9.352548E-18
3.650000E+03	1.975910E-16	9.677942E-18
3.660000E+03	2.006680E-16	1.004087E-17
3.670000E+03	2.038105E-16	1.043612E-17
3.680000E+03	2.069842E-16	1.085695E-17
3.690000E+03	2.102388E-16	1.130123E-17
3.700000E+03	2.135228E-16	1.176189E-17
3.710000E+03	2.168859E-16	1.223770E-17
3.720000E+03	2.202756E-16	1.272218E-17
3.730000E+03	2.237419E-16	1.321498E-17
3.740000E+03	2.272487E-16	1.371120E-17
3.750000E+03	2.308114E-16	1.420922E-17
3.760000E+03	2.344105E-16	1.470559E-17
3.770000E+03	2.380610E-16	1.519926E-17
3.780000E+03	2.417603E-16	1.568835E-17
3.790000E+03	2.455059E-16	1.617117E-17
3.800000E+03	2.492770E-16	1.664504E-17
3.810000E+03	2.531057E-16	1.711095E-17
3.820000E+03	2.569533E-16	1.756534E-17
3.830000E+03	2.608515E-16	1.800958E-17
3.840000E+03	2.647610E-16	1.844030E-17
3.850000E+03	2.687134E-16	1.885922E-17
3.860000E+03	2.726688E-16	1.926317E-17
3.870000E+03	2.766587E-16	1.965414E-17
3.880000E+03	2.806427E-16	2.002917E-17
3.890000E+03	2.846524E-16	2.039052E-17
3.900000E+03	2.886650E-16	2.073671E-17
3.910000E+03	2.926941E-16	2.106895E-17
3.920000E+03	2.966991E-16	2.138464E-17
3.930000E+03	3.007117E-16	2.168650E-17
3.940000E+03	3.047094E-16	2.197340E-17
3.950000E+03	3.087066E-16	2.224695E-17
3.960000E+03	3.126632E-16	2.250488E-17
3.970000E+03	3.166304E-16	2.275155E-17
3.980000E+03	3.205511E-16	2.298356E-17
3.990000E+03	3.244595E-16	2.320411E-17
4.000000E+03	3.283544E-16	2.341383E-17
4.010000E+03	3.322170E-16	2.361214E-17
4.020000E+03	3.360480E-16	2.379983E-17
4.030000E+03	3.398671E-16	2.397901E-17
4.040000E+03	3.436771E-16	2.415057E-17
4.050000E+03	3.474642E-16	2.431421E-17
4.060000E+03	3.512341E-16	2.447095E-17
4.070000E+03	3.550121E-16	2.462313E-17
4.080000E+03	3.588069E-16	2.477188E-17
4.090000E+03	3.626111E-16	2.491717E-17
4.100000E+03	3.664551E-16	2.506152E-17
4.110000E+03	3.703529E-16	2.520624E-17
4.120000E+03	3.743026E-16	2.535155E-17
4.130000E+03	3.783223E-16	2.549893E-17
4.140000E+03	3.824667E-16	2.565231E-17
4.150000E+03	3.867044E-16	2.580977E-17
4.160000E+03	3.911112E-16	2.597652E-17
4.170000E+03	3.956768E-16	2.615198E-17
4.180000E+03	4.004277E-16	2.633799E-17
4.190000E+03	4.054093E-16	2.653762E-17
4.200000E+03	4.106509E-16	2.675281E-17
4.210000E+03	4.161660E-16	2.698447E-17
4.220000E+03	4.219866E-16	2.723470E-17
4.230000E+03	4.281637E-16	2.750679E-17
4.240000E+03	4.347146E-16	2.780184E-17
4.250000E+03	4.416928E-16	2.812324E-17
4.260000E+03	4.491182E-16	2.847223E-17
4.270000E+03	4.570469E-16	2.885233E-17
4.280000E+03	4.655013E-16	2.926489E-17
4.290000E+03	4.745227E-16	2.971244E-17
4.300000E+03	4.841537E-16	3.019760E-17
4.310000E+03	4.944569E-16	3.072416E-17
4.320000E+03	5.054417E-16	3.129264E-17
4.330000E+03	5.171927E-16	3.190814E-17
4.340000E+03	5.297408E-16	3.257247E-17
4.350000E+03	5.431376E-16	3.328865E-17
4.360000E+03	5.574361E-16	3.405982E-17
4.370000E+03	5.726720E-16	3.488802E-17
4.380000E+03	5.889414E-16	3.577894E-17
4.390000E+03	6.062634E-16	3.673361E-17
4.400000E+03	6.247184E-16	3.775672E-17
4.410000E+03	6.443476E-16	3.885056E-17
4.420000E+03	6.652345E-16	4.001999E-17
4.430000E+03	6.874212E-16	4.126731E-17
4.440000E+03	7.109926E-16	4.259744E-17
4.450000E+03	7.360121E-16	4.401393E-17
4.460000E+03	7.624948E-16	4.551748E-17
4.470000E+03	7.905448E-16	4.711406E-17
4.480000E+03	8.201689E-16	4.880385E-17
4.490000E+03	8.514649E-16	5.059243E-17
4.500000E+03	8.844260E-16	5.247916E-17
4.510000E+03	9.191387E-16	5.446894E-17
4.520000E+03	9.555768E-16	5.655999E-17
4.530000E+03	9.937535E-16	5.875291E-17
4.540000E+03	1.033728E-15	6.105103E-17
4.550000E+03	1.075404E-15	6.344850E-17
4.560000E+03	1.118812E-15	6.594715E-17
4.570000E+03	1.163882E-15	6.854279E-17
4.580000E+03	1.210586E-15	7.123396E-17
4.590000E+03	1.258784E-15	7.401265E-17
4.600000E+03	1.308449E-15	7.687766E-17
4.610000E+03	1.359405E-15	7.981906E-17
4.620000E+03	1.411558E-15	8.283211E-17
4.630000E+03	1.464731E-15	8.590720E-17
4.640000E+03	1.518804E-15	8.903833E-17
4.650000E+03	1.573613E-15	9.221688E-17
4.660000E+03	1.628940E-15	9.543137E-17
4.670000E+03	1.684598E-15	9.867217E-17
4.680000E+03	1.740396E-15	1.019293E-16
4.690000E+03	1.796137E-15	1.051926E-16
4.700000E+03	1.851623E-15	1.084517E-16
4.710000E+03	1.906658E-15	1.116961E-16
4.720000E+03	1.961047E-15	1.149152E-16
4.730000E+03	2.014553E-15	1.180958E-16
4.740000E+03	2.067036E-15	1.212297E-16
4.750000E+03	2.118316E-15	1.243061E-16
4.760000E+03	2.168124E-15	1.273085E-16
4.770000E+03	2.216389E-15	1.302318E-16
4.780000E+03	2.262905E-15	1.330620E-16
4.790000E+03	2.307521E-15	1.357884E-16
4.800000E+03	2.350147E-15	1.384031E-16
4.810000E+03	2.390547E-15	1.408898E-16
4.820000E+03	2.428596E-15	1.432381E-16
4.830000E+03	2.464282E-15	1.454445E-16
4.840000E+03	2.497398E-15	1.474939E-16
4.850000E+03	2.527901E-15	1.493812E-16
4.860000E+03	2.555657E-15	1.510960E-16
4.870000E+03	2.580648E-15	1.526355E-16
4.880000E+03	2.602766E-15	1.539919E-16
4.890000E+03	2.622025E-15	1.551653E-16
4.900000E+03	2.638295E-15	1.561476E-16
4.910000E+03	2.651678E-15	1.569453E-16
4.920000E+03	2.662133E-15	1.575570E-16
4.930000E+03	2.669695E-15	1.579861E-16
4.940000E+03	2.674419E-15	1.582377E-16
4.950000E+03	2.676382E-15	1.583184E-16
4.960000E+03	2.675681E-15	1.582365E-16
4.970000E+03	2.672438E-15	1.580011E-16
4.980000E+03	2.666791E-15	1.576230E-16
4.990000E+03	2.658852E-15	1.571108E-16
5.000000E+03	2.648850E-15	1.564797E-16
5.010000E+03	2.636983E-15	1.557427E-16
5.020000E+03	2.623461E-15	1.549131E-16
5.030000E+03	2.608462E-15	1.540018E-16
5.040000E+03	2.592268E-15	1.530253E-16
5.050000E+03	2.575123E-15	1.519972E-16
5.060000E+03	2.557228E-15	1.509283E-16
5.070000E+03	2.538883E-15	1.498343E-16
5.080000E+03	2.520336E-15	1.487281E-16
5.090000E+03	2.501792E-15	1.476191E-16
5.100000E+03	2.483539E-15	1.465217E-16
5.110000E+03	2.465770E-15	1.454444E-16
5.120000E+03	2.448754E-15	1.443999E-16
5.130000E+03	2.432666E-15	1.433956E-16
5.140000E+03	2.417751E-15	1.424426E-16
5.150000E+03	2.404198E-15	1.415492E-16
5.160000E+03	2.392144E-15	1.407204E-16
5.170000E+03	2.381789E-15	1.399650E-16
5.180000E+03	2.373281E-15	1.392890E-16
5.190000E+03	2.366711E-15	1.386952E-16
5.200000E+03	2.362235E-15	1.381901E-16
5.210000E+03	2.359917E-15	1.377754E-16
5.220000E+03	2.359922E-15	1.374584E-16
5.230000E+03	2.362208E-15	1.372350E-16
5.240000E+03	2.366952E-15	1.371136E-16
5.250000E+03	2.374123E-15	1.370912E-16
5.260000E+03	2.383832E-15	1.371729E-16
5.270000E+03	2.395984E-15	1.373526E-16
5.280000E+03	2.410701E-15	1.376367E-16
5.290000E+03	2.427937E-15	1.380227E-16
5.300000E+03	2.447633E-15	1.385077E-16
5.310000E+03	2.469791E-15	1.390926E-16
5.320000E+03	2.494357E-15	1.397762E-16
5.330000E+03	2.521301E-15	1.405588E-16
5.340000E+03	2.550457E-15	1.414341E-16
5.350000E+03	2.581719E-15	1.423998E-16
5.360000E+03	2.615039E-15	1.434576E-16
5.370000E+03	2.650230E-15	1.446025E-16
5.380000E+03	2.687126E-15	1.458311E-16
5.390000E+03	2.725536E-15	1.471399E-16
5.400000E+03	2.765253E-15	1.485249E-16
5.410000E+03	2.806047E-15	1.499818E-16
5.420000E+03	2.847672E-15	1.515058E-16
5.430000E+03	2.889864E-15	1.530916E-16
5.440000E+03	2.932392E-15	1.547360E-16
5.450000E+03	2.974886E-15	1.564280E-16
5.460000E+03	3.017100E-15	1.581634E-16
5.470000E+03	3.058793E-15	1.599373E-16
5.480000E+03	3.099592E-15	1.617372E-16
5.490000E+03	3.139318E-15	1.635599E-16
5.500000E+03	3.177673E-15	1.653941E-16
5.510000E+03	3.214429E-15	1.672292E-16
5.520000E+03	3.249384E-15	1.690544E-16
5.530000E+03	3.282372E-15	1.708593E-16
5.540000E+03	3.313263E-15	1.726341E-16
5.550000E+03	3.341973E-15	1.743698E-16
5.560000E+03	3.368459E-15	1.760587E-16
5.570000E+03	3.392726E-15	1.776950E-16
5.580000E+03	3.414825E-15	1.792744E-16
5.590000E+03	3.434852E-15	1.807949E-16
5.600000E+03	3.452945E-15	1.822564E-16
5.610000E+03	3.469284E-15	1.836612E-16
5.620000E+03	3.484084E-15	1.850136E-16
5.630000E+03	3.497543E-15	1.863177E-16
5.640000E+03	3.509983E-15	1.875842E-16
5.650000E+03	3.521698E-15	1.888229E-16
5.660000E+03	3.532994E-15	1.900452E-16
5.670000E+03	3.544189E-15	1.912632E-16
5.680000E+03	3.555553E-15	1.924870E-16
5.690000E+03	3.567401E-15	1.937298E-16
5.700000E+03	3.580084E-15	1.950070E-16
5.710000E+03	3.593892E-15	1.963310E-16
5.720000E+03	3.608993E-15	1.977079E-16
5.730000E+03	3.625771E-15	1.991559E-16
5.740000E+03	3.644284E-15	2.006756E-16
5.750000E+03	3.664794E-15	2.022789E-16
5.760000E+03	3.687322E-15	2.039648E-16
5.770000E+03	3.712037E-15	2.057406E-16
5.780000E+03	3.738906E-15	2.076028E-16
5.790000E+03	3.767884E-15	2.095474E-16
5.800000E+03	3.798817E-15	2.115648E-16
5.810000E+03	3.831638E-15	2.136506E-16
5.820000E+03	3.866013E-15	2.157862E-16
5.830000E+03	3.901698E-15	2.179583E-16
5.840000E+03	3.938287E-15	2.201451E-16
5.850000E+03	3.975424E-15	2.223283E-16
5.860000E+03	4.012601E-15	2.244817E-16
5.870000E+03	4.049380E-15	2.265835E-16
5.880000E+03	4.085196E-15	2.286051E-16
5.890000E+03	4.119523E-15	2.305208E-16
5.900000E+03	4.151845E-15	2.323056E-16
5.910000E+03	4.181722E-15	2.339386E-16
5.920000E+03	4.208592E-15	2.353923E-16
5.930000E+03	4.232108E-15	2.366510E-16
5.940000E+03	4.251941E-15	2.376995E-16
5.950000E+03	4.267839E-15	2.385263E-16
5.960000E+03	4.279642E-15	2.391243E-16
5.970000E+03	4.287223E-15	2.394879E-16
5.980000E+03	4.290664E-15	2.396218E-16
5.990000E+03	4.290023E-15	2.395290E-16
6.000000E+03	4.285554E-15	2.392224E-16
6.010000E+03	4.277531E-15	2.387155E-16
6.020000E+03	4.266182E-15	2.380186E-16
6.030000E+03	4.252001E-15	2.371564E-16
6.040000E+03	4.235410E-15	2.361494E-16
6.050000E+03	4.216746E-15	2.350132E-16
6.060000E+03	4.196571E-15	2.337755E-16
6.070000E+03	4.175279E-15	2.324554E-16
6.080000E+03	4.153308E-15	2.310741E-16
6.090000E+03	4.131073E-15	2.296519E-16
6.100000E+03	4.108958E-15	2.282075E-16
6.110000E+03	4.087366E-15	2.267610E-16
6.120000E+03	4.066509E-15	2.253222E-16
6.130000E+03	4.046716E-15	2.239074E-16
6.140000E+03	4.028276E-15	2.225309E-16
6.150000E+03	4.011290E-15	2.211967E-16
6.160000E+03	3.995976E-15	2.199156E-16
6.170000E+03	3.982523E-15	2.186964E-16
6.180000E+03	3.970938E-15	2.175385E-16
6.190000E+03	3.961409E-15	2.164505E-16
6.200000E+03	3.953901E-15	2.154297E-16
6.210000E+03	3.948514E-15	2.144802E-16
6.220000E+03	3.945338E-15	2.136057E-16
6.230000E+03	3.944302E-15	2.128017E-16
6.240000E+03	3.945531E-15	2.120741E-16
6.250000E+03	3.948998E-15	2.114210E-16
6.260000E+03	3.954727E-15	2.108432E-16
6.270000E+03	3.962740E-15	2.103422E-16
6.280000E+03	3.973118E-15	2.099225E-16
6.290000E+03	3.985841E-15	2.095837E-16
6.300000E+03	4.000945E-15	2.093289E-16
6.310000E+03	4.018519E-15	2.091642E-16
6.320000E+03	4.038556E-15	2.090908E-16
6.330000E+03	4.061145E-15	2.091158E-16
6.340000E+03	4.086273E-15	2.092409E-16
6.350000E+03	4.114023E-15	2.094734E-16
6.360000E+03	4.144413E-15	2.098177E-16
6.370000E+03	4.177445E-15	2.102777E-16
6.380000E+03	4.213046E-15	2.108542E-16
6.390000E+03	4.251270E-15	2.115549E-16
6.400000E+03	4.291921E-15	2.123760E-16
6.410000E+03	4.334975E-15	2.133229E-16
6.420000E+03	4.380190E-15	2.143911E-16
6.430000E+03	4.427322E-15	2.155775E-16
6.440000E+03	4.476114E-15	2.168792E-16
6.450000E+03	4.526122E-15	2.182857E-16
6.460000E+03	4.576940E-15	2.197896E-16
6.470000E+03	4.627965E-15	2.213753E-16
6.480000E+03	4.678630E-15	2.230297E-16
6.490000E+03	4.728230E-15	2.247342E-16
6.500000E+03	4.775989E-15	2.264668E-16
6.510000E+03	4.821067E-15	2.282026E-16
6.520000E+03	4.862580E-15	2.299135E-16
6.530000E+03	4.899611E-15	2.315685E-16
6.540000E+03	4.931281E-15	2.331326E-16
6.550000E+03	4.956563E-15	2.345563E-16
6.560000E+03	4.974547E-15	2.357921E-16
6.570000E+03	4.984472E-15	2.367961E-16
6.580000E+03	4.985629E-15	2.375242E-16
6.590000E+03	4.977395E-15	2.379331E-16
6.600000E+03	4.959512E-15	2.379946E-16
6.610000E+03	4.931661E-15	2.376755E-16
6.620000E+03	4.893918E-15	2.369600E-16
6.630000E+03	4.846508E-15	2.358385E-16
6.640000E+03	4.789919E-15	2.343141E-16
6.650000E+03	4.724700E-15	2.323929E-16
6.660000E+03	4.651628E-15	2.300935E-16
6.670000E+03	4.571679E-15	2.274451E-16
6.680000E+03	4.485807E-15	2.244783E-16
6.690000E+03	4.395152E-15	2.212349E-16
6.700000E+03	4.300769E-15	2.177548E-16
6.710000E+03	4.203881E-15	2.140892E-16
6.720000E+03	4.105448E-15	2.102786E-16
6.730000E+03	4.006544E-15	2.063717E-16
6.740000E+03	3.908104E-15	2.024125E-16
6.750000E+03	3.810970E-15	1.984426E-16
6.760000E+03	3.715881E-15	1.945001E-16
6.770000E+03	3.623470E-15	1.906190E-16
6.780000E+03	3.534259E-15	1.868292E-16
6.790000E+03	3.448717E-15	1.831587E-16
6.800000E+03	3.367118E-15	1.796262E-16
6.810000E+03	3.289741E-15	1.762509E-16
6.820000E+03	3.216695E-15	1.730437E-16
6.830000E+03	3.148068E-15	1.700140E-16
6.840000E+03	3.083927E-15	1.671707E-16
6.850000E+03	3.024250E-15	1.645174E-16
6.860000E+03	2.968931E-15	1.620532E-16
6.870000E+03	2.917917E-15	1.597797E-16
6.880000E+03	2.871050E-15	1.576925E-16
6.890000E+03	2.828271E-15	1.557924E-16
6.900000E+03	2.789353E-15	1.540706E-16
6.910000E+03	2.754178E-15	1.525239E-16
6.920000E+03	2.722547E-15	1.511444E-16
6.930000E+03	2.694375E-15	1.499302E-16
6.940000E+03	2.669462E-15	1.488724E-16
6.950000E+03	2.647614E-15	1.479626E-16
6.960000E+03	2.628751E-15	1.471983E-16
6.970000E+03	2.612652E-15	1.465688E-16
6.980000E+03	2.599249E-15	1.460719E-16
6.990000E+03	2.588370E-15	1.456991E-16
7.000000E+03	2.579847E-15	1.454426E-16
7.010000E+03	2.573634E-15	1.453008E-16
7.020000E+03	2.569577E-15	1.452661E-16
7.030000E+03	2.567566E-15	1.453336E-16
7.040000E+03	2.567499E-15	1.454984E-16
7.050000E+03	2.569276E-15	1.457560E-16
7.060000E+03	2.572841E-15	1.461046E-16
7.070000E+03	2.578031E-15	1.465358E-16
7.080000E+03	2.584833E-15	1.470504E-16
7.090000E+03	2.593127E-15	1.476425E-16
7.100000E+03	2.602828E-15	1.483086E-16
7.110000E+03	2.613853E-15	1.490453E-16
7.120000E+03	2.626153E-15	1.498510E-16
7.130000E+03	2.639602E-15	1.507197E-16
7.140000E+03	2.654104E-15	1.516469E-16
7.150000E+03	2.669560E-15	1.526280E-16
7.160000E+03	2.685860E-15	1.536576E-16
7.170000E+03	2.702926E-15	1.547321E-16
7.180000E+03	2.720549E-15	1.558399E-16
7.190000E+03	2.738672E-15	1.569784E-16
7.200000E+03	2.757104E-15	1.581368E-16
7.210000E+03	2.775723E-15	1.593085E-16
7.220000E+03	2.794275E-15	1.604788E-16
7.230000E+03	2.812661E-15	1.616422E-16
7.240000E+03	2.830649E-15	1.627854E-16
7.250000E+03	2.848085E-15	1.638997E-16
7.260000E+03	2.864686E-15	1.649686E-16
7.270000E+03	2.880339E-15	1.659860E-16
7.280000E+03	2.894763E-15	1.669360E-16
7.290000E+03	2.907857E-15	1.678133E-16
7.300000E+03	2.919449E-15	1.686087E-16
7.310000E+03	2.929289E-15	1.693084E-16
7.320000E+03	2.937283E-15	1.699081E-16
7.330000E+03	2.943360E-15	1.704046E-16
7.340000E+03	2.947385E-15	1.707913E-16
7.350000E+03	2.949298E-15	1.710656E-16
7.360000E+03	2.949066E-15	1.712268E-16
7.370000E+03	2.946737E-15	1.712782E-16
7.380000E+03	2.942250E-15	1.712169E-16
7.390000E+03	2.935760E-15	1.710521E-16
7.400000E+03	2.927310E-15	1.707863E-16
7.410000E+03	2.917021E-15	1.704260E-16
7.420000E+03	2.905035E-15	1.699786E-16
7.430000E+03	2.891517E-15	1.694525E-16
7.440000E+03	2.876650E-15	1.688567E-16
7.450000E+03	2.860678E-15	1.682036E-16
7.460000E+03	2.843764E-15	1.675005E-16
7.470000E+03	2.826083E-15	1.667551E-16
7.480000E+03	2.807947E-15	1.659830E-16
7.490000E+03	2.789536E-15	1.651919E-16
7.500000E+03	2.771072E-15	1.643919E-16
7.510000E+03	2.752773E-15	1.635927E-16
7.520000E+03	2.734892E-15	1.628062E-16
7.530000E+03	2.717539E-15	1.620356E-16
7.540000E+03	2.700987E-15	1.612938E-16
7.550000E+03	2.685359E-15	1.605848E-16
7.560000E+03	2.670759E-15	1.599114E-16
7.570000E+03	2.657403E-15	1.592829E-16
7.580000E+03	2.645349E-15	1.586994E-16
7.590000E+03	2.634675E-15	1.581618E-16
7.600000E+03	2.625477E-15	1.576721E-16
7.610000E+03	2.617691E-15	1.572228E-16
7.620000E+03	2.611402E-15	1.568149E-16
7.630000E+03	2.606491E-15	1.564374E-16
7.640000E+03	2.602990E-15	1.560881E-16
7.650000E+03	2.600773E-15	1.557555E-16
7.660000E+03	2.599736E-15	1.554295E-16
7.670000E+03	2.599757E-15	1.550987E-16
7.680000E+03	2.600694E-15	1.547511E-16
7.690000E+03	2.602395E-15	1.543742E-16
7.700000E+03	2.604697E-15	1.539553E-16
7.710000E+03	2.607478E-15	1.534844E-16
7.720000E+03	2.610483E-15	1.529444E-16
7.730000E+03	2.613637E-15	1.523295E-16
7.740000E+03	2.616742E-15	1.516272E-16
7.750000E+03	2.619653E-15	1.508291E-16
7.760000E+03	2.622242E-15	1.499287E-16
