#wls	flux	fluxerr
1.600000E+03	4.446782E-18	3.693420E-18
1.640000E+03	4.397298E-18	3.611286E-18
1.680000E+03	4.351379E-18	3.531858E-18
1.720000E+03	4.307310E-18	3.453675E-18
1.760000E+03	4.265219E-18	3.376803E-18
1.800000E+03	4.226928E-18	3.302619E-18
1.840000E+03	4.190835E-18	3.229786E-18
1.880000E+03	4.157091E-18	3.158361E-18
1.920000E+03	4.127460E-18	3.089602E-18
1.960000E+03	4.100455E-18	3.022285E-18
2.000000E+03	4.076255E-18	2.956461E-18
2.040000E+03	4.056592E-18	2.893274E-18
2.080000E+03	4.040093E-18	2.831605E-18
2.120000E+03	4.028485E-18	2.772531E-18
2.160000E+03	4.020474E-18	2.714996E-18
2.200000E+03	4.017803E-18	2.660016E-18
2.240000E+03	4.019263E-18	2.606594E-18
2.280000E+03	4.025179E-18	2.554765E-18
2.320000E+03	4.037349E-18	2.505457E-18
2.360000E+03	4.054710E-18	2.457752E-18
2.400000E+03	4.079135E-18	2.412527E-18
2.440000E+03	4.109681E-18	2.368914E-18
2.480000E+03	4.146906E-18	2.326937E-18
2.520000E+03	4.192867E-18	2.287399E-18
2.560000E+03	4.248285E-18	2.250259E-18
2.600000E+03	4.312550E-18	2.214737E-18
2.640000E+03	4.388046E-18	2.181573E-18
2.680000E+03	4.472934E-18	2.149318E-18
2.720000E+03	4.572853E-18	2.120106E-18
2.760000E+03	4.686313E-18	2.092504E-18
2.800000E+03	4.814955E-18	2.066523E-18
2.840000E+03	4.962256E-18	2.042819E-18
2.880000E+03	5.130544E-18	2.021361E-18
2.920000E+03	5.320917E-18	2.001501E-18
2.960000E+03	5.536465E-18	1.983257E-18
3.000000E+03	5.782594E-18	1.967246E-18
3.010000E+03	5.848695E-18	1.963350E-18
3.020000E+03	5.918729E-18	1.960153E-18
3.030000E+03	5.989212E-18	1.956466E-18
3.040000E+03	6.061998E-18	1.952886E-18
3.050000E+03	6.139015E-18	1.949999E-18
3.060000E+03	6.216688E-18	1.946634E-18
3.070000E+03	6.298814E-18	1.943960E-18
3.080000E+03	6.381750E-18	1.940816E-18
3.090000E+03	6.469380E-18	1.938362E-18
3.100000E+03	6.559934E-18	1.936019E-18
3.110000E+03	6.651562E-18	1.933220E-18
3.120000E+03	6.748289E-18	1.931111E-18
3.130000E+03	6.848299E-18	1.929122E-18
3.140000E+03	6.949686E-18	1.926693E-18
3.150000E+03	7.056637E-18	1.924958E-18
3.160000E+03	7.167283E-18	1.923356E-18
3.170000E+03	7.281776E-18	1.921892E-18
3.180000E+03	7.398127E-18	1.920015E-18
3.190000E+03	7.520768E-18	1.918846E-18
3.200000E+03	7.647755E-18	1.917835E-18
3.210000E+03	7.779271E-18	1.916991E-18
3.220000E+03	7.915508E-18	1.916322E-18
3.230000E+03	8.056669E-18	1.915839E-18
3.240000E+03	8.202966E-18	1.915554E-18
3.250000E+03	8.354623E-18	1.915480E-18
3.260000E+03	8.511873E-18	1.915633E-18
3.270000E+03	8.677422E-18	1.916573E-18
3.280000E+03	8.846651E-18	1.917230E-18
3.290000E+03	9.022253E-18	1.918171E-18
3.300000E+03	9.204514E-18	1.919419E-18
3.310000E+03	9.393735E-18	1.921000E-18
3.320000E+03	9.592917E-18	1.923483E-18
3.330000E+03	9.797075E-18	1.925822E-18
3.340000E+03	1.000920E-17	1.928594E-18
3.350000E+03	1.023249E-17	1.932376E-18
3.360000E+03	1.046172E-17	1.936140E-18
3.370000E+03	1.070008E-17	1.940473E-18
3.380000E+03	1.095103E-17	1.945967E-18
3.390000E+03	1.120903E-17	1.951612E-18
3.400000E+03	1.148069E-17	1.958549E-18
3.410000E+03	1.176348E-17	1.966316E-18
3.420000E+03	1.205466E-17	1.974460E-18
3.430000E+03	1.236129E-17	1.984148E-18
3.440000E+03	1.267733E-17	1.994400E-18
3.450000E+03	1.301019E-17	2.006407E-18
3.460000E+03	1.335717E-17	2.019748E-18
3.470000E+03	1.371529E-17	2.034006E-18
3.480000E+03	1.409255E-17	2.050411E-18
3.490000E+03	1.448614E-17	2.068570E-18
3.500000E+03	1.489686E-17	2.088644E-18
3.510000E+03	1.532555E-17	2.110806E-18
3.520000E+03	1.577313E-17	2.135239E-18
3.530000E+03	1.623622E-17	2.161565E-18
3.540000E+03	1.672428E-17	2.191125E-18
3.550000E+03	1.723418E-17	2.223565E-18
3.560000E+03	1.776698E-17	2.259106E-18
3.570000E+03	1.832382E-17	2.297974E-18
3.580000E+03	1.890587E-17	2.340402E-18
3.590000E+03	1.951438E-17	2.386624E-18
3.600000E+03	2.015586E-17	2.437506E-18
3.610000E+03	2.082126E-17	2.491985E-18
3.620000E+03	2.151698E-17	2.550849E-18
3.630000E+03	2.224436E-17	2.614259E-18
3.640000E+03	2.300479E-17	2.682361E-18
3.650000E+03	2.379973E-17	2.755293E-18
3.660000E+03	2.463695E-17	2.833902E-18
3.670000E+03	2.550560E-17	2.916870E-18
3.680000E+03	2.641338E-17	3.005002E-18
3.690000E+03	2.736887E-17	3.099169E-18
3.700000E+03	2.836012E-17	3.197895E-18
3.710000E+03	2.939559E-17	3.302001E-18
3.720000E+03	3.048477E-17	3.412395E-18
3.730000E+03	3.161443E-17	3.527415E-18
3.740000E+03	3.280214E-17	3.648829E-18
3.750000E+03	3.403372E-17	3.774844E-18
3.760000E+03	3.532796E-17	3.907312E-18
3.770000E+03	3.666965E-17	4.044295E-18
3.780000E+03	3.807892E-17	4.187740E-18
3.790000E+03	3.953943E-17	4.335553E-18
3.800000E+03	4.107273E-17	4.489785E-18
3.810000E+03	4.266126E-17	4.648175E-18
3.820000E+03	4.432812E-17	4.812884E-18
3.830000E+03	4.606570E-17	4.982696E-18
3.840000E+03	4.786494E-17	5.156230E-18
3.850000E+03	4.975147E-17	5.335823E-18
3.860000E+03	5.171679E-17	5.520099E-18
3.870000E+03	5.376376E-17	5.708884E-18
3.880000E+03	5.588182E-17	5.900560E-18
3.890000E+03	5.810053E-17	6.097725E-18
3.900000E+03	6.041003E-17	6.298768E-18
3.910000E+03	6.281357E-17	6.503442E-18
3.920000E+03	6.531456E-17	6.711481E-18
3.930000E+03	6.791651E-17	6.922601E-18
3.940000E+03	7.060631E-17	7.134798E-18
3.950000E+03	7.342077E-17	7.351097E-18
3.960000E+03	7.634771E-17	7.569501E-18
3.970000E+03	7.939135E-17	7.789643E-18
3.980000E+03	8.255613E-17	8.011138E-18
3.990000E+03	8.584674E-17	8.233575E-18
4.000000E+03	8.926814E-17	8.456521E-18
4.010000E+03	9.282558E-17	8.679522E-18
4.020000E+03	9.652467E-17	8.902095E-18
4.030000E+03	1.003713E-16	9.123733E-18
4.040000E+03	1.043720E-16	9.343901E-18
4.050000E+03	1.085334E-16	9.562033E-18
4.060000E+03	1.128628E-16	9.777531E-18
4.070000E+03	1.173681E-16	9.989765E-18
4.080000E+03	1.220856E-16	1.020041E-17
4.090000E+03	1.269694E-16	1.040410E-17
4.100000E+03	1.320560E-16	1.060241E-17
4.110000E+03	1.373558E-16	1.079452E-17
4.120000E+03	1.428799E-16	1.097960E-17
4.130000E+03	1.486400E-16	1.115675E-17
4.140000E+03	1.546487E-16	1.132502E-17
4.150000E+03	1.609558E-16	1.148600E-17
4.160000E+03	1.675044E-16	1.163350E-17
4.170000E+03	1.743443E-16	1.176898E-17
4.180000E+03	1.814914E-16	1.189130E-17
4.190000E+03	1.890047E-16	1.200201E-17
4.200000E+03	1.968189E-16	1.209459E-17
4.210000E+03	2.049925E-16	1.217060E-17
4.220000E+03	2.135444E-16	1.222898E-17
4.230000E+03	2.225431E-16	1.227156E-17
4.240000E+03	2.319118E-16	1.229220E-17
4.250000E+03	2.417179E-16	1.229329E-17
4.260000E+03	2.520369E-16	1.227764E-17
4.270000E+03	2.627806E-16	1.224065E-17
4.280000E+03	2.740224E-16	1.218677E-17
4.290000E+03	2.857821E-16	1.211895E-17
4.300000E+03	2.981439E-16	1.204436E-17
4.310000E+03	3.109999E-16	1.196438E-17
4.320000E+03	3.244306E-16	1.189080E-17
4.330000E+03	3.385269E-16	1.183840E-17
4.340000E+03	3.531628E-16	1.181776E-17
4.350000E+03	3.684252E-16	1.185084E-17
4.360000E+03	3.844127E-16	1.196302E-17
4.370000E+03	4.009803E-16	1.217472E-17
4.380000E+03	4.182233E-16	1.251513E-17
4.390000E+03	4.362507E-16	1.301247E-17
4.400000E+03	4.548975E-16	1.367832E-17
4.410000E+03	4.742695E-16	1.452200E-17
4.420000E+03	4.944877E-16	1.554794E-17
4.430000E+03	5.153644E-16	1.674679E-17
4.440000E+03	5.370159E-16	1.811587E-17
4.450000E+03	5.595740E-16	1.965210E-17
4.460000E+03	5.828216E-16	2.133987E-17
4.470000E+03	6.068810E-16	2.317540E-17
4.480000E+03	6.318895E-16	2.515669E-17
4.490000E+03	6.575899E-16	2.726698E-17
4.500000E+03	6.841033E-16	2.950479E-17
4.510000E+03	7.115641E-16	3.187070E-17
4.520000E+03	7.396631E-16	3.434619E-17
4.530000E+03	7.685121E-16	3.693146E-17
4.540000E+03	7.982347E-16	3.962854E-17
4.550000E+03	8.284590E-16	4.241524E-17
4.560000E+03	8.592811E-16	4.529216E-17
4.570000E+03	8.906281E-16	4.825166E-17
4.580000E+03	9.226027E-16	5.129580E-17
4.590000E+03	9.547404E-16	5.439521E-17
4.600000E+03	9.871161E-16	5.754973E-17
4.610000E+03	1.019614E-15	6.074857E-17
4.620000E+03	1.052320E-15	6.399300E-17
4.630000E+03	1.084684E-15	6.724553E-17
4.640000E+03	1.116774E-15	7.050543E-17
4.650000E+03	1.148448E-15	7.375912E-17
4.660000E+03	1.179561E-15	7.699263E-17
4.670000E+03	1.210210E-15	8.020765E-17
4.680000E+03	1.239776E-15	8.335843E-17
4.690000E+03	1.268355E-15	8.644598E-17
4.700000E+03	1.295815E-15	8.945611E-17
4.710000E+03	1.322029E-15	9.237499E-17
4.720000E+03	1.346882E-15	9.518927E-17
4.730000E+03	1.370267E-15	9.788624E-17
4.740000E+03	1.392088E-15	1.004539E-16
4.750000E+03	1.412264E-15	1.028812E-16
4.760000E+03	1.430721E-15	1.051578E-16
4.770000E+03	1.447404E-15	1.072747E-16
4.780000E+03	1.462265E-15	1.092236E-16
4.790000E+03	1.475271E-15	1.109976E-16
4.800000E+03	1.486401E-15	1.125908E-16
4.810000E+03	1.495644E-15	1.139985E-16
4.820000E+03	1.503001E-15	1.152169E-16
4.830000E+03	1.508483E-15	1.162438E-16
4.840000E+03	1.512111E-15	1.170778E-16
4.850000E+03	1.513622E-15	1.176962E-16
4.860000E+03	1.513635E-15	1.181448E-16
4.870000E+03	1.511905E-15	1.184033E-16
4.880000E+03	1.508482E-15	1.184746E-16
4.890000E+03	1.503139E-15	1.183401E-16
4.900000E+03	1.496514E-15	1.180498E-16
4.910000E+03	1.488389E-15	1.175868E-16
4.920000E+03	1.478558E-15	1.169357E-16
4.930000E+03	1.467664E-15	1.161479E-16
4.940000E+03	1.455509E-15	1.152092E-16
4.950000E+03	1.441909E-15	1.141064E-16
4.960000E+03	1.427502E-15	1.128918E-16
4.970000E+03	1.411845E-15	1.115319E-16
4.980000E+03	1.395567E-15	1.100785E-16
4.990000E+03	1.378244E-15	1.084999E-16
5.000000E+03	1.360242E-15	1.068270E-16
5.010000E+03	1.341914E-15	1.050892E-16
5.020000E+03	1.322861E-15	1.032570E-16
5.030000E+03	1.303440E-15	1.013601E-16
5.040000E+03	1.283991E-15	9.942620E-17
5.050000E+03	1.264136E-15	9.742750E-17
5.060000E+03	1.244215E-15	9.539149E-17
5.070000E+03	1.224324E-15	9.332650E-17
5.080000E+03	1.204554E-15	9.124037E-17
5.090000E+03	1.184993E-15	8.914033E-17
5.100000E+03	1.165724E-15	8.703302E-17
5.110000E+03	1.146824E-15	8.492439E-17
5.120000E+03	1.128365E-15	8.281974E-17
5.130000E+03	1.110411E-15	8.072361E-17
5.140000E+03	1.093023E-15	7.863985E-17
5.150000E+03	1.076251E-15	7.657155E-17
5.160000E+03	1.060144E-15	7.452108E-17
5.170000E+03	1.044739E-15	7.249010E-17
5.180000E+03	1.029886E-15	7.046688E-17
5.190000E+03	1.015984E-15	6.847742E-17
5.200000E+03	1.002867E-15	6.650830E-17
5.210000E+03	9.903737E-16	6.454698E-17
5.220000E+03	9.788713E-16	6.261541E-17
5.230000E+03	9.680136E-16	6.068876E-17
5.240000E+03	9.581495E-16	5.878653E-17
5.250000E+03	9.489330E-16	5.688447E-17
5.260000E+03	9.406974E-16	5.499983E-17
5.270000E+03	9.330975E-16	5.310910E-17
5.280000E+03	9.262894E-16	5.121850E-17
5.290000E+03	9.202580E-16	4.932395E-17
5.300000E+03	9.151472E-16	4.742960E-17
5.310000E+03	9.106138E-16	4.551410E-17
5.320000E+03	9.067988E-16	4.358195E-17
5.330000E+03	9.036793E-16	4.162904E-17
5.340000E+03	9.012307E-16	3.965151E-17
5.350000E+03	8.994272E-16	3.764595E-17
5.360000E+03	8.982415E-16	3.560950E-17
5.370000E+03	8.976452E-16	3.354020E-17
5.380000E+03	8.974528E-16	3.143186E-17
5.390000E+03	8.979461E-16	2.929683E-17
5.400000E+03	8.989372E-16	2.713283E-17
5.410000E+03	9.002376E-16	2.494286E-17
5.420000E+03	9.021254E-16	2.274884E-17
5.430000E+03	9.044100E-16	2.056760E-17
5.440000E+03	9.068991E-16	1.843104E-17
5.450000E+03	9.097116E-16	1.639970E-17
5.460000E+03	9.129663E-16	1.456612E-17
5.470000E+03	9.163098E-16	1.306223E-17
5.480000E+03	9.198580E-16	1.207720E-17
5.490000E+03	9.237272E-16	1.180689E-17
5.500000E+03	9.275656E-16	1.233309E-17
5.510000E+03	9.315143E-16	1.354513E-17
5.520000E+03	9.355607E-16	1.525056E-17
5.530000E+03	9.396930E-16	1.727486E-17
5.540000E+03	9.439010E-16	1.949152E-17
5.550000E+03	9.481767E-16	2.181653E-17
5.560000E+03	9.523532E-16	2.419112E-17
5.570000E+03	9.567509E-16	2.658733E-17
5.580000E+03	9.612099E-16	2.897760E-17
5.590000E+03	9.655719E-16	3.134053E-17
5.600000E+03	9.701714E-16	3.367539E-17
5.610000E+03	9.746934E-16	3.596385E-17
5.620000E+03	9.794816E-16	3.821289E-17
5.630000E+03	9.842247E-16	4.040714E-17
5.640000E+03	9.892738E-16	4.255841E-17
5.650000E+03	9.943193E-16	4.465244E-17
5.660000E+03	9.995497E-16	4.669657E-17
5.670000E+03	1.004988E-15	4.869197E-17
5.680000E+03	1.010656E-15	5.064025E-17
5.690000E+03	1.016574E-15	5.254329E-17
5.700000E+03	1.022761E-15	5.440310E-17
5.710000E+03	1.029230E-15	5.622166E-17
5.720000E+03	1.035991E-15	5.800082E-17
5.730000E+03	1.042875E-15	5.973223E-17
5.740000E+03	1.050227E-15	6.143668E-17
5.750000E+03	1.057865E-15	6.310529E-17
5.760000E+03	1.065598E-15	6.472753E-17
5.770000E+03	1.073753E-15	6.632420E-17
5.780000E+03	1.081945E-15	6.787259E-17
5.790000E+03	1.090310E-15	6.938174E-17
5.800000E+03	1.098981E-15	7.086097E-17
5.810000E+03	1.107541E-15	7.228415E-17
5.820000E+03	1.116107E-15	7.365912E-17
5.830000E+03	1.124609E-15	7.498178E-17
5.840000E+03	1.132974E-15	7.624757E-17
5.850000E+03	1.141125E-15	7.745165E-17
5.860000E+03	1.148982E-15	7.858901E-17
5.870000E+03	1.156467E-15	7.965461E-17
5.880000E+03	1.163314E-15	8.063042E-17
5.890000E+03	1.169831E-15	8.153818E-17
5.900000E+03	1.175765E-15	8.236084E-17
5.910000E+03	1.180869E-15	8.308151E-17
5.920000E+03	1.185484E-15	8.372473E-17
5.930000E+03	1.189193E-15	8.426173E-17
5.940000E+03	1.192172E-15	8.470560E-17
5.950000E+03	1.194419E-15	8.505691E-17
5.960000E+03	1.196142E-15	8.533122E-17
5.970000E+03	1.196981E-15	8.550354E-17
5.980000E+03	1.197172E-15	8.559144E-17
5.990000E+03	1.196770E-15	8.559953E-17
6.000000E+03	1.195841E-15	8.553318E-17
6.010000E+03	1.194268E-15	8.538450E-17
6.020000E+03	1.192521E-15	8.518751E-17
6.030000E+03	1.190494E-15	8.493489E-17
6.040000E+03	1.188085E-15	8.461954E-17
6.050000E+03	1.185767E-15	8.427521E-17
6.060000E+03	1.183246E-15	8.388064E-17
6.070000E+03	1.180987E-15	8.346844E-17
6.080000E+03	1.178685E-15	8.301643E-17
6.090000E+03	1.176600E-15	8.254217E-17
6.100000E+03	1.174793E-15	8.204881E-17
6.110000E+03	1.173314E-15	8.153855E-17
6.120000E+03	1.172203E-15	8.101266E-17
6.130000E+03	1.171490E-15	8.047138E-17
6.140000E+03	1.171193E-15	7.991404E-17
6.150000E+03	1.171322E-15	7.933904E-17
6.160000E+03	1.171876E-15	7.874391E-17
6.170000E+03	1.172657E-15	7.811291E-17
6.180000E+03	1.174023E-15	7.746724E-17
6.190000E+03	1.175576E-15	7.677752E-17
6.200000E+03	1.177660E-15	7.606342E-17
6.210000E+03	1.179865E-15	7.529518E-17
6.220000E+03	1.182342E-15	7.447950E-17
6.230000E+03	1.185242E-15	7.362239E-17
6.240000E+03	1.188146E-15	7.269445E-17
6.250000E+03	1.191205E-15	7.170187E-17
6.260000E+03	1.194383E-15	7.063909E-17
6.270000E+03	1.197645E-15	6.950078E-17
6.280000E+03	1.200770E-15	6.827100E-17
6.290000E+03	1.204114E-15	6.696699E-17
6.300000E+03	1.207467E-15	6.557330E-17
6.310000E+03	1.210618E-15	6.407576E-17
6.320000E+03	1.213945E-15	6.249137E-17
6.330000E+03	1.217055E-15	6.079683E-17
6.340000E+03	1.220336E-15	5.900887E-17
6.350000E+03	1.223404E-15	5.710601E-17
6.360000E+03	1.226462E-15	5.509580E-17
6.370000E+03	1.229521E-15	5.297653E-17
6.380000E+03	1.232592E-15	5.074687E-17
6.390000E+03	1.235690E-15	4.840599E-17
6.400000E+03	1.238827E-15	4.595368E-17
6.410000E+03	1.242011E-15	4.339058E-17
6.420000E+03	1.245250E-15	4.071855E-17
6.430000E+03	1.248541E-15	3.794131E-17
6.440000E+03	1.251680E-15	3.505978E-17
6.450000E+03	1.255044E-15	3.209641E-17
6.460000E+03	1.258207E-15	2.905840E-17
6.470000E+03	1.261524E-15	2.598483E-17
6.480000E+03	1.264536E-15	2.291603E-17
6.490000E+03	1.267366E-15	1.994007E-17
6.500000E+03	1.269916E-15	1.720108E-17
6.510000E+03	1.272070E-15	1.494299E-17
6.520000E+03	1.273889E-15	1.353476E-17
6.530000E+03	1.274611E-15	1.335705E-17
6.540000E+03	1.274747E-15	1.449216E-17
6.550000E+03	1.274103E-15	1.661050E-17
6.560000E+03	1.272684E-15	1.932331E-17
6.570000E+03	1.270484E-15	2.234896E-17
6.580000E+03	1.267293E-15	2.550977E-17
6.590000E+03	1.263497E-15	2.870894E-17
6.600000E+03	1.258689E-15	3.187348E-17
6.610000E+03	1.253064E-15	3.496598E-17
6.620000E+03	1.246825E-15	3.796485E-17
6.630000E+03	1.239596E-15	4.083980E-17
6.640000E+03	1.231607E-15	4.358373E-17
6.650000E+03	1.222903E-15	4.618859E-17
6.660000E+03	1.213542E-15	4.864987E-17
6.670000E+03	1.203598E-15	5.096607E-17
6.680000E+03	1.193153E-15	5.313823E-17
6.690000E+03	1.182300E-15	5.516955E-17
6.700000E+03	1.170952E-15	5.705612E-17
6.710000E+03	1.159586E-15	5.882233E-17
6.720000E+03	1.148120E-15	6.046744E-17
6.730000E+03	1.136482E-15	6.199064E-17
6.740000E+03	1.125135E-15	6.342105E-17
6.750000E+03	1.113823E-15	6.474917E-17
6.760000E+03	1.102820E-15	6.599541E-17
6.770000E+03	1.092213E-15	6.717050E-17
6.780000E+03	1.082255E-15	6.829588E-17
6.790000E+03	1.072675E-15	6.936054E-17
6.800000E+03	1.063711E-15	7.038518E-17
6.810000E+03	1.055253E-15	7.136816E-17
6.820000E+03	1.047685E-15	7.234104E-17
6.830000E+03	1.040880E-15	7.330127E-17
6.840000E+03	1.034874E-15	7.425683E-17
6.850000E+03	1.029531E-15	7.520322E-17
6.860000E+03	1.025200E-15	7.617085E-17
6.870000E+03	1.021734E-15	7.715414E-17
6.880000E+03	1.018982E-15	7.814629E-17
6.890000E+03	1.017115E-15	7.916432E-17
6.900000E+03	1.016294E-15	8.022532E-17
6.910000E+03	1.016196E-15	8.130789E-17
6.920000E+03	1.016978E-15	8.242784E-17
6.930000E+03	1.018631E-15	8.358791E-17
6.940000E+03	1.021143E-15	8.479032E-17
6.950000E+03	1.024500E-15	8.603676E-17
6.960000E+03	1.028685E-15	8.732843E-17
6.970000E+03	1.033676E-15	8.866598E-17
6.980000E+03	1.039450E-15	9.004958E-17
6.990000E+03	1.045815E-15	9.146435E-17
7.000000E+03	1.053073E-15	9.293825E-17
7.010000E+03	1.061026E-15	9.445561E-17
7.020000E+03	1.069468E-15	9.599924E-17
7.030000E+03	1.078527E-15	9.758147E-17
7.040000E+03	1.088335E-15	9.921512E-17
7.050000E+03	1.098500E-15	1.008653E-16
7.060000E+03	1.109143E-15	1.025436E-16
7.070000E+03	1.120391E-15	1.042618E-16
7.080000E+03	1.131830E-15	1.059818E-16
7.090000E+03	1.143575E-15	1.077143E-16
7.100000E+03	1.155562E-15	1.094526E-16
7.110000E+03	1.167719E-15	1.111900E-16
7.120000E+03	1.179783E-15	1.129006E-16
7.130000E+03	1.192052E-15	1.146121E-16
7.140000E+03	1.204254E-15	1.162979E-16
7.150000E+03	1.216303E-15	1.179486E-16
7.160000E+03	1.227909E-15	1.195351E-16
7.170000E+03	1.239368E-15	1.210848E-16
7.180000E+03	1.250187E-15	1.225484E-16
7.190000E+03	1.260660E-15	1.239535E-16
7.200000E+03	1.270283E-15	1.252490E-16
7.210000E+03	1.279150E-15	1.264428E-16
7.220000E+03	1.287155E-15	1.275231E-16
7.230000E+03	1.294403E-15	1.284992E-16
7.240000E+03	1.300377E-15	1.293183E-16
7.250000E+03	1.305188E-15	1.299905E-16
7.260000E+03	1.308745E-15	1.305056E-16
7.270000E+03	1.310964E-15	1.308547E-16
7.280000E+03	1.311773E-15	1.310299E-16
7.290000E+03	1.310900E-15	1.310035E-16
7.300000E+03	1.308718E-15	1.308131E-16
7.310000E+03	1.304984E-15	1.304342E-16
7.320000E+03	1.299470E-15	1.298447E-16
7.330000E+03	1.292596E-15	1.290873E-16
7.340000E+03	1.284170E-15	1.281435E-16
7.350000E+03	1.274020E-15	1.269977E-16
7.360000E+03	1.262409E-15	1.256773E-16
7.370000E+03	1.249612E-15	1.242113E-16
7.380000E+03	1.235309E-15	1.225696E-16
7.390000E+03	1.219808E-15	1.207845E-16
7.400000E+03	1.203224E-15	1.188696E-16
7.410000E+03	1.185879E-15	1.168584E-16
7.420000E+03	1.167523E-15	1.147280E-16
7.430000E+03	1.148497E-15	1.125140E-16
7.440000E+03	1.128951E-15	1.102329E-16
7.450000E+03	1.109039E-15	1.079014E-16
7.460000E+03	1.088738E-15	1.055187E-16
7.470000E+03	1.068560E-15	1.031358E-16
7.480000E+03	1.048473E-15	1.007508E-16
7.490000E+03	1.028624E-15	9.837837E-17
7.500000E+03	1.008983E-15	9.601663E-17
7.510000E+03	9.900160E-16	9.371017E-17
7.520000E+03	9.715136E-16	9.143935E-17
7.530000E+03	9.539089E-16	8.924476E-17
7.540000E+03	9.369843E-16	8.710547E-17
7.550000E+03	9.211387E-16	8.505790E-17
7.560000E+03	9.061417E-16	8.307960E-17
7.570000E+03	8.922114E-16	8.118936E-17
7.580000E+03	8.795453E-16	7.940336E-17
7.590000E+03	8.678908E-16	7.769672E-17
7.600000E+03	8.574245E-16	7.608316E-17
7.610000E+03	8.481644E-16	7.456170E-17
7.620000E+03	8.401183E-16	7.313017E-17
7.630000E+03	8.332842E-16	7.178524E-17
7.640000E+03	8.276506E-16	7.052257E-17
7.650000E+03	8.231978E-16	6.933681E-17
7.660000E+03	8.198981E-16	6.822178E-17
7.670000E+03	8.175801E-16	6.715930E-17
7.680000E+03	8.164755E-16	6.616428E-17
7.690000E+03	8.164004E-16	6.521713E-17
7.700000E+03	8.173029E-16	6.430916E-17
7.710000E+03	8.189897E-16	6.342065E-17
7.720000E+03	8.216752E-16	6.256367E-17
7.730000E+03	8.250219E-16	6.170756E-17
7.740000E+03	8.292423E-16	6.086363E-17
7.750000E+03	8.339937E-16	6.000173E-17
7.760000E+03	8.393491E-16	5.912280E-17
