#wls	flux	fluxerr
1.590679E+03	4.059566E-02	2.477375E-06
1.630446E+03	4.176888E-02	2.548971E-06
1.670213E+03	4.291360E-02	2.618826E-06
1.709980E+03	4.402119E-02	2.686416E-06
1.749746E+03	4.508171E-02	2.751133E-06
1.789513E+03	4.608500E-02	2.812358E-06
1.829280E+03	4.701956E-02	2.869388E-06
1.869047E+03	4.787234E-02	2.921427E-06
1.908814E+03	4.862930E-02	2.967620E-06
1.948581E+03	4.927244E-02	3.006865E-06
1.988348E+03	4.977822E-02	3.037729E-06
2.028115E+03	5.011291E-02	3.058152E-06
2.067882E+03	5.023189E-02	3.065411E-06
2.107649E+03	5.012999E-02	3.059190E-06
2.147416E+03	4.994574E-02	3.047945E-06
2.187183E+03	4.982977E-02	3.040866E-06
2.226950E+03	4.988253E-02	3.044083E-06
2.266717E+03	5.016408E-02	3.061264E-06
2.306484E+03	5.072970E-02	3.095778E-06
2.346251E+03	5.161742E-02	3.149950E-06
2.386018E+03	5.283522E-02	3.224264E-06
2.425785E+03	5.437385E-02	3.318157E-06
2.465552E+03	5.620924E-02	3.430160E-06
2.505319E+03	5.830129E-02	3.557824E-06
2.545086E+03	6.058405E-02	3.697127E-06
2.584853E+03	6.295165E-02	3.841608E-06
2.624620E+03	6.526078E-02	3.982519E-06
2.664387E+03	6.746038E-02	4.116746E-06
2.704154E+03	6.958330E-02	4.246295E-06
2.743921E+03	7.165591E-02	4.372773E-06
2.783688E+03	7.369390E-02	4.497138E-06
2.823455E+03	7.570476E-02	4.619847E-06
2.863222E+03	7.769101E-02	4.741054E-06
2.902988E+03	7.965226E-02	4.860736E-06
2.942755E+03	8.158716E-02	4.978809E-06
2.982522E+03	8.349199E-02	5.095047E-06
2.992464E+03	8.396275E-02	5.123775E-06
3.002406E+03	8.443154E-02	5.152382E-06
3.012348E+03	8.489745E-02	5.180813E-06
3.022289E+03	8.536107E-02	5.209104E-06
3.032231E+03	8.582239E-02	5.237255E-06
3.042173E+03	8.628090E-02	5.265235E-06
3.052115E+03	8.673635E-02	5.293027E-06
3.062056E+03	8.718911E-02	5.320656E-06
3.071998E+03	8.763849E-02	5.348079E-06
3.081940E+03	8.808532E-02	5.375346E-06
3.091882E+03	8.852839E-02	5.402383E-06
3.101823E+03	8.896788E-02	5.429202E-06
3.111765E+03	8.940379E-02	5.455802E-06
3.121707E+03	8.983627E-02	5.482193E-06
3.131649E+03	9.026452E-02	5.508326E-06
3.141590E+03	9.068921E-02	5.534242E-06
3.151532E+03	9.110949E-02	5.559888E-06
3.161474E+03	9.152556E-02	5.585278E-06
3.171416E+03	9.193710E-02	5.610391E-06
3.181357E+03	9.234386E-02	5.635213E-06
3.191299E+03	9.274596E-02	5.659750E-06
3.201241E+03	9.314314E-02	5.683987E-06
3.211182E+03	9.353516E-02	5.707909E-06
3.221124E+03	9.392176E-02	5.731500E-06
3.231066E+03	9.430268E-02	5.754744E-06
3.241008E+03	9.467804E-02	5.777650E-06
3.250949E+03	9.504761E-02	5.800202E-06
3.260891E+03	9.541073E-02	5.822360E-06
3.270833E+03	9.576741E-02	5.844125E-06
3.280775E+03	9.611752E-02	5.865490E-06
3.290716E+03	9.646055E-02	5.886422E-06
3.300658E+03	9.679631E-02	5.906911E-06
3.310600E+03	9.712391E-02	5.926902E-06
3.320542E+03	9.744380E-02	5.946422E-06
3.330483E+03	9.775501E-02	5.965412E-06
3.340425E+03	9.805666E-02	5.983820E-06
3.350367E+03	9.834894E-02	6.001655E-06
3.360309E+03	9.863025E-02	6.018821E-06
3.370250E+03	9.890035E-02	6.035303E-06
3.380192E+03	9.915827E-02	6.051042E-06
3.390134E+03	9.940262E-02	6.065952E-06
3.400076E+03	9.963232E-02	6.079968E-06
3.410017E+03	9.984678E-02	6.093055E-06
3.419959E+03	1.000440E-01	6.105088E-06
3.429901E+03	1.002240E-01	6.116075E-06
3.439843E+03	1.003852E-01	6.125908E-06
3.449784E+03	1.005281E-01	6.134628E-06
3.454755E+03	1.004711E-01	6.131150E-06
3.456217E+03	1.002265E-01	6.116225E-06
3.457678E+03	1.000271E-01	6.104053E-06
3.459139E+03	9.988332E-02	6.095281E-06
3.460601E+03	9.973607E-02	6.086295E-06
3.462062E+03	9.956100E-02	6.075611E-06
3.463524E+03	9.942763E-02	6.067472E-06
3.464985E+03	9.927344E-02	6.058063E-06
3.466447E+03	9.910874E-02	6.048012E-06
3.467908E+03	9.897537E-02	6.039873E-06
3.469369E+03	9.888025E-02	6.034069E-06
3.470831E+03	9.879558E-02	6.028902E-06
3.472292E+03	9.869002E-02	6.022460E-06
3.473754E+03	9.853227E-02	6.012833E-06
3.475215E+03	9.832581E-02	6.000234E-06
3.476677E+03	9.812279E-02	5.987845E-06
3.478138E+03	9.795109E-02	5.977367E-06
3.479600E+03	9.780377E-02	5.968377E-06
3.481061E+03	9.770165E-02	5.962145E-06
3.482522E+03	9.762385E-02	5.957397E-06
3.483984E+03	9.753911E-02	5.952226E-06
3.485445E+03	9.749963E-02	5.949817E-06
3.486907E+03	9.750191E-02	5.949956E-06
3.488368E+03	9.751114E-02	5.950519E-06
3.489830E+03	9.746809E-02	5.947892E-06
3.491291E+03	9.742167E-02	5.945059E-06
3.492752E+03	9.743090E-02	5.945622E-06
3.494214E+03	9.745049E-02	5.946818E-06
3.495675E+03	9.750498E-02	5.950142E-06
3.497137E+03	9.755246E-02	5.953040E-06
3.498598E+03	9.759650E-02	5.955727E-06
3.500060E+03	9.765098E-02	5.959052E-06
3.501521E+03	9.771590E-02	5.963013E-06
3.502983E+03	9.780164E-02	5.968245E-06
3.504444E+03	9.792927E-02	5.976034E-06
3.505905E+03	9.807421E-02	5.984879E-06
3.507367E+03	9.822616E-02	5.994151E-06
3.508828E+03	9.841993E-02	6.005975E-06
3.510290E+03	9.864152E-02	6.019497E-06
3.511751E+03	9.885961E-02	6.032806E-06
3.513213E+03	9.908470E-02	6.046542E-06
3.514674E+03	9.930285E-02	6.059854E-06
3.516135E+03	9.957670E-02	6.076566E-06
3.517597E+03	9.986793E-02	6.094338E-06
3.519058E+03	1.001383E-01	6.110839E-06
3.520520E+03	1.003530E-01	6.123938E-06
3.521981E+03	1.005781E-01	6.137677E-06
3.523443E+03	1.007894E-01	6.150570E-06
3.524904E+03	1.009867E-01	6.162608E-06
3.526365E+03	1.011805E-01	6.174436E-06
3.527827E+03	1.013779E-01	6.186478E-06
3.529288E+03	1.015682E-01	6.198097E-06
3.530750E+03	1.017377E-01	6.208437E-06
3.532211E+03	1.019281E-01	6.220055E-06
3.533673E+03	1.021672E-01	6.234649E-06
3.535134E+03	1.022879E-01	6.242014E-06
3.536596E+03	1.024017E-01	6.248959E-06
3.538057E+03	1.025642E-01	6.258875E-06
3.539518E+03	1.026920E-01	6.266671E-06
3.540980E+03	1.027083E-01	6.267664E-06
3.542441E+03	1.027524E-01	6.270355E-06
3.543903E+03	1.027408E-01	6.269647E-06
3.545364E+03	1.026978E-01	6.267028E-06
3.546826E+03	1.027036E-01	6.267380E-06
3.548287E+03	1.026189E-01	6.262208E-06
3.549748E+03	1.025062E-01	6.255335E-06
3.551210E+03	1.024249E-01	6.250372E-06
3.552671E+03	1.023820E-01	6.247753E-06
3.554133E+03	1.023181E-01	6.243855E-06
3.555594E+03	1.021636E-01	6.234425E-06
3.557056E+03	1.020545E-01	6.227766E-06
3.558517E+03	1.019348E-01	6.220465E-06
3.559979E+03	1.018186E-01	6.213374E-06
3.561440E+03	1.017896E-01	6.211601E-06
3.562901E+03	1.017013E-01	6.206212E-06
3.564363E+03	1.015781E-01	6.198697E-06
3.565824E+03	1.015351E-01	6.196074E-06
3.567286E+03	1.014781E-01	6.192595E-06
3.568747E+03	1.013968E-01	6.187633E-06
3.570209E+03	1.013573E-01	6.185219E-06
3.571670E+03	1.012863E-01	6.180890E-06
3.573131E+03	1.012189E-01	6.176775E-06
3.574593E+03	1.011724E-01	6.173938E-06
3.576054E+03	1.011119E-01	6.170246E-06
3.577516E+03	1.010759E-01	6.168046E-06
3.578977E+03	1.010328E-01	6.165418E-06
3.580439E+03	1.009968E-01	6.163218E-06
3.581900E+03	1.009398E-01	6.159740E-06
3.583362E+03	1.008966E-01	6.157109E-06
3.584823E+03	1.008954E-01	6.157033E-06
3.586284E+03	1.008245E-01	6.152704E-06
3.587746E+03	1.008162E-01	6.152202E-06
3.589207E+03	1.008395E-01	6.153618E-06
3.590669E+03	1.008974E-01	6.157156E-06
3.592130E+03	1.010042E-01	6.163673E-06
3.593592E+03	1.010169E-01	6.164449E-06
3.595053E+03	1.009216E-01	6.158628E-06
3.596514E+03	1.008994E-01	6.157279E-06
3.597976E+03	1.009051E-01	6.157627E-06
3.599437E+03	1.008725E-01	6.155632E-06
3.600899E+03	1.008747E-01	6.155771E-06
3.602360E+03	1.008491E-01	6.154204E-06
3.603822E+03	1.007572E-01	6.148597E-06
3.605283E+03	1.007001E-01	6.145115E-06
3.606744E+03	1.007547E-01	6.148442E-06
3.608206E+03	1.007290E-01	6.146875E-06
3.609667E+03	1.005708E-01	6.137220E-06
3.611129E+03	1.004370E-01	6.129057E-06
3.612590E+03	1.004323E-01	6.128768E-06
3.614052E+03	1.003403E-01	6.123157E-06
3.615513E+03	1.001925E-01	6.114139E-06
3.616975E+03	1.000274E-01	6.104061E-06
3.618436E+03	9.983078E-02	6.092063E-06
3.619897E+03	9.957491E-02	6.076449E-06
3.621359E+03	9.927721E-02	6.058282E-06
3.622820E+03	9.897596E-02	6.039898E-06
3.624282E+03	9.869214E-02	6.022579E-06
3.625743E+03	9.845015E-02	6.007811E-06
3.627205E+03	9.824654E-02	5.995386E-06
3.628666E+03	9.802543E-02	5.981893E-06
3.630127E+03	9.778344E-02	5.967126E-06
3.631589E+03	9.751701E-02	5.950867E-06
3.633050E+03	9.724707E-02	5.934394E-06
3.634512E+03	9.706435E-02	5.923244E-06
3.635973E+03	9.685017E-02	5.910174E-06
3.637435E+03	9.653135E-02	5.890718E-06
3.638896E+03	9.620208E-02	5.870624E-06
3.640358E+03	9.595996E-02	5.855849E-06
3.641819E+03	9.573879E-02	5.842352E-06
3.643280E+03	9.546873E-02	5.825872E-06
3.644742E+03	9.520917E-02	5.810033E-06
3.646203E+03	9.498099E-02	5.796108E-06
3.647665E+03	9.475625E-02	5.782394E-06
3.649126E+03	9.459435E-02	5.772514E-06
3.650588E+03	9.450915E-02	5.767314E-06
3.652049E+03	9.445184E-02	5.763817E-06
3.653510E+03	9.444691E-02	5.763516E-06
3.654972E+03	9.446637E-02	5.764704E-06
3.656433E+03	9.456961E-02	5.771004E-06
3.657895E+03	9.473211E-02	5.780920E-06
3.659356E+03	9.492606E-02	5.792755E-06
3.660818E+03	9.517934E-02	5.808211E-06
3.662279E+03	9.547794E-02	5.826433E-06
3.663740E+03	9.581150E-02	5.846788E-06
3.665202E+03	9.624277E-02	5.873106E-06
3.666663E+03	9.663215E-02	5.896867E-06
3.668125E+03	9.700415E-02	5.919568E-06
3.669586E+03	9.746337E-02	5.947591E-06
3.671048E+03	9.793659E-02	5.976469E-06
3.672509E+03	9.842726E-02	6.006411E-06
3.673971E+03	9.901914E-02	6.042530E-06
3.675432E+03	9.957970E-02	6.076737E-06
3.676893E+03	1.001333E-01	6.110517E-06
3.678355E+03	1.007531E-01	6.148345E-06
3.679816E+03	1.014254E-01	6.189371E-06
3.681278E+03	1.020837E-01	6.229541E-06
3.682739E+03	1.027072E-01	6.267591E-06
3.684201E+03	1.033237E-01	6.305209E-06
3.685662E+03	1.040065E-01	6.346879E-06
3.687123E+03	1.047383E-01	6.391532E-06
3.688585E+03	1.053898E-01	6.431291E-06
3.690046E+03	1.059924E-01	6.468066E-06
3.691508E+03	1.066684E-01	6.509316E-06
3.692969E+03	1.073583E-01	6.551418E-06
3.694431E+03	1.080309E-01	6.592458E-06
3.695892E+03	1.086685E-01	6.631370E-06
3.697354E+03	1.093272E-01	6.671564E-06
3.698815E+03	1.099893E-01	6.711967E-06
3.700276E+03	1.106375E-01	6.751524E-06
3.701738E+03	1.113031E-01	6.792145E-06
3.703199E+03	1.118920E-01	6.828081E-06
3.704661E+03	1.124216E-01	6.860396E-06
3.706122E+03	1.130315E-01	6.897614E-06
3.707584E+03	1.136239E-01	6.933768E-06
3.709045E+03	1.141640E-01	6.966724E-06
3.710506E+03	1.146762E-01	6.997979E-06
3.711968E+03	1.151290E-01	7.025614E-06
3.713429E+03	1.155504E-01	7.051329E-06
3.714891E+03	1.159265E-01	7.074279E-06
3.716352E+03	1.162676E-01	7.095095E-06
3.717814E+03	1.165913E-01	7.114848E-06
3.719275E+03	1.168835E-01	7.132681E-06
3.720736E+03	1.171269E-01	7.147531E-06
3.722198E+03	1.173877E-01	7.163449E-06
3.723659E+03	1.176207E-01	7.177662E-06
3.725121E+03	1.177837E-01	7.187614E-06
3.726582E+03	1.179154E-01	7.195646E-06
3.728044E+03	1.179842E-01	7.199844E-06
3.729505E+03	1.180565E-01	7.204256E-06
3.730967E+03	1.180868E-01	7.206108E-06
3.732428E+03	1.181416E-01	7.209451E-06
3.733889E+03	1.181824E-01	7.211940E-06
3.735351E+03	1.181045E-01	7.207184E-06
3.736812E+03	1.180021E-01	7.200937E-06
3.738274E+03	1.179451E-01	7.197459E-06
3.739735E+03	1.178811E-01	7.193553E-06
3.741197E+03	1.177543E-01	7.185814E-06
3.742658E+03	1.175785E-01	7.175087E-06
3.744119E+03	1.174202E-01	7.165425E-06
3.745581E+03	1.173107E-01	7.158746E-06
3.747042E+03	1.171174E-01	7.146951E-06
3.748504E+03	1.168857E-01	7.132810E-06
3.749965E+03	1.166854E-01	7.120588E-06
3.751427E+03	1.164292E-01	7.104955E-06
3.752888E+03	1.161974E-01	7.090810E-06
3.754350E+03	1.159797E-01	7.077520E-06
3.755811E+03	1.157130E-01	7.061246E-06
3.757272E+03	1.153588E-01	7.039635E-06
3.758734E+03	1.150013E-01	7.017814E-06
3.760195E+03	1.147380E-01	7.001750E-06
3.761657E+03	1.144642E-01	6.985041E-06
3.763118E+03	1.140402E-01	6.959164E-06
3.764580E+03	1.135917E-01	6.931796E-06
3.766041E+03	1.131571E-01	6.905274E-06
3.767502E+03	1.127470E-01	6.880249E-06
3.768964E+03	1.123263E-01	6.854578E-06
3.770425E+03	1.118882E-01	6.827843E-06
3.771887E+03	1.114536E-01	6.801322E-06
3.773348E+03	1.109840E-01	6.772664E-06
3.774810E+03	1.104689E-01	6.741232E-06
3.776271E+03	1.099608E-01	6.710224E-06
3.777732E+03	1.094422E-01	6.678579E-06
3.779194E+03	1.089201E-01	6.646717E-06
3.780655E+03	1.084469E-01	6.617837E-06
3.782117E+03	1.079666E-01	6.588531E-06
3.783578E+03	1.074899E-01	6.559438E-06
3.785040E+03	1.069327E-01	6.525439E-06
3.786501E+03	1.063406E-01	6.489303E-06
3.787963E+03	1.058287E-01	6.458070E-06
3.789424E+03	1.052680E-01	6.423854E-06
3.790885E+03	1.046793E-01	6.387924E-06
3.792347E+03	1.041010E-01	6.352639E-06
3.793808E+03	1.035402E-01	6.318415E-06
3.795270E+03	1.029933E-01	6.285041E-06
3.796731E+03	1.024499E-01	6.251882E-06
3.798193E+03	1.019485E-01	6.221282E-06
3.799654E+03	1.014680E-01	6.191960E-06
3.801115E+03	1.009700E-01	6.161570E-06
3.802577E+03	1.005279E-01	6.134591E-06
3.804038E+03	1.000858E-01	6.107612E-06
3.805500E+03	9.966118E-02	6.081701E-06
3.806961E+03	9.927497E-02	6.058133E-06
3.808423E+03	9.890976E-02	6.035846E-06
3.809884E+03	9.857944E-02	6.015689E-06
3.811346E+03	9.822467E-02	5.994039E-06
3.812807E+03	9.788735E-02	5.973454E-06
3.814268E+03	9.759548E-02	5.955643E-06
3.815730E+03	9.724765E-02	5.934417E-06
3.817191E+03	9.692777E-02	5.914897E-06
3.818653E+03	9.662189E-02	5.896231E-06
3.820114E+03	9.627050E-02	5.874788E-06
3.821576E+03	9.596806E-02	5.856332E-06
3.823037E+03	9.569708E-02	5.839795E-06
3.824498E+03	9.537713E-02	5.820271E-06
3.825960E+03	9.510614E-02	5.803734E-06
3.827421E+03	9.490505E-02	5.791463E-06
3.828883E+03	9.464457E-02	5.775567E-06
3.830344E+03	9.434201E-02	5.757103E-06
3.831806E+03	9.410247E-02	5.742485E-06
3.833267E+03	9.391532E-02	5.731065E-06
3.834728E+03	9.369672E-02	5.717725E-06
3.836190E+03	9.348513E-02	5.704813E-06
3.837651E+03	9.324896E-02	5.690401E-06
3.839113E+03	9.308632E-02	5.680476E-06
3.840574E+03	9.300759E-02	5.675671E-06
3.842036E+03	9.292185E-02	5.670439E-06
3.843497E+03	9.283261E-02	5.664993E-06
3.844959E+03	9.280283E-02	5.663176E-06
3.846420E+03	9.277304E-02	5.661358E-06
3.847881E+03	9.272576E-02	5.658473E-06
3.849343E+03	9.272048E-02	5.658151E-06
3.850804E+03	9.273966E-02	5.659321E-06
3.852266E+03	9.277984E-02	5.661772E-06
3.853727E+03	9.283402E-02	5.665079E-06
3.855189E+03	9.295117E-02	5.672227E-06
3.856650E+03	9.305781E-02	5.678735E-06
3.858111E+03	9.321347E-02	5.688234E-06
3.859573E+03	9.337606E-02	5.698156E-06
3.861034E+03	9.353873E-02	5.708082E-06
3.862496E+03	9.373984E-02	5.720355E-06
3.863957E+03	9.400747E-02	5.736687E-06
3.865419E+03	9.429605E-02	5.754297E-06
3.866880E+03	9.456019E-02	5.770415E-06
3.868342E+03	9.484183E-02	5.787602E-06
3.869803E+03	9.510947E-02	5.803934E-06
3.871264E+03	9.537361E-02	5.820053E-06
3.872726E+03	9.568676E-02	5.839163E-06
3.874187E+03	9.605237E-02	5.861474E-06
3.875649E+03	9.639004E-02	5.882079E-06
3.877110E+03	9.671720E-02	5.902044E-06
3.878572E+03	9.708288E-02	5.924358E-06
3.880033E+03	9.743455E-02	5.945819E-06
3.881494E+03	9.782123E-02	5.969416E-06
3.882956E+03	9.818347E-02	5.991521E-06
3.884417E+03	9.854215E-02	6.013408E-06
3.885879E+03	9.889739E-02	6.035086E-06
3.887340E+03	9.929815E-02	6.059542E-06
3.888802E+03	9.972335E-02	6.085489E-06
3.890263E+03	1.001276E-01	6.110159E-06
3.891724E+03	1.005459E-01	6.135682E-06
3.893186E+03	1.009396E-01	6.159711E-06
3.894647E+03	1.013370E-01	6.183957E-06
3.896109E+03	1.017622E-01	6.209908E-06
3.897570E+03	1.022121E-01	6.237359E-06
3.899032E+03	1.026548E-01	6.264379E-06
3.900493E+03	1.030942E-01	6.291189E-06
3.901955E+03	1.034880E-01	6.315222E-06
3.903416E+03	1.038749E-01	6.338831E-06
3.904877E+03	1.042337E-01	6.360727E-06
3.906339E+03	1.046171E-01	6.384123E-06
3.907800E+03	1.049725E-01	6.405809E-06
3.909262E+03	1.053244E-01	6.427282E-06
3.910723E+03	1.056692E-01	6.448327E-06
3.912185E+03	1.059651E-01	6.466382E-06
3.913646E+03	1.062294E-01	6.482513E-06
3.915107E+03	1.065394E-01	6.501426E-06
3.916569E+03	1.068492E-01	6.520335E-06
3.918030E+03	1.071242E-01	6.537112E-06
3.919492E+03	1.074026E-01	6.554102E-06
3.920953E+03	1.076774E-01	6.570875E-06
3.922415E+03	1.078998E-01	6.584447E-06
3.923876E+03	1.081082E-01	6.597164E-06
3.925338E+03	1.083271E-01	6.610522E-06
3.926799E+03	1.085706E-01	6.625376E-06
3.928260E+03	1.087684E-01	6.637448E-06
3.929722E+03	1.089278E-01	6.647174E-06
3.931183E+03	1.090276E-01	6.653268E-06
3.932645E+03	1.091240E-01	6.659149E-06
3.934106E+03	1.092413E-01	6.666307E-06
3.935568E+03	1.093342E-01	6.671974E-06
3.937029E+03	1.093885E-01	6.675287E-06
3.938490E+03	1.093903E-01	6.675398E-06
3.939952E+03	1.093781E-01	6.674652E-06
3.941413E+03	1.093378E-01	6.672196E-06
3.942875E+03	1.092765E-01	6.668454E-06
3.944336E+03	1.092362E-01	6.665998E-06
3.945798E+03	1.091855E-01	6.662901E-06
3.947259E+03	1.090787E-01	6.656382E-06
3.948720E+03	1.089613E-01	6.649221E-06
3.950182E+03	1.088370E-01	6.641634E-06
3.951643E+03	1.087091E-01	6.633829E-06
3.953105E+03	1.085322E-01	6.623037E-06
3.954566E+03	1.083588E-01	6.612454E-06
3.956028E+03	1.081889E-01	6.602085E-06
3.957489E+03	1.079524E-01	6.587653E-06
3.958951E+03	1.076984E-01	6.572152E-06
3.960412E+03	1.074164E-01	6.554942E-06
3.961873E+03	1.071308E-01	6.537515E-06
3.963335E+03	1.068312E-01	6.519233E-06
3.964796E+03	1.065316E-01	6.500951E-06
3.966258E+03	1.062531E-01	6.483951E-06
3.967719E+03	1.059639E-01	6.466306E-06
3.969181E+03	1.056888E-01	6.449520E-06
3.970642E+03	1.054207E-01	6.433157E-06
3.972103E+03	1.051561E-01	6.417008E-06
3.973565E+03	1.048704E-01	6.399577E-06
3.975026E+03	1.045567E-01	6.380433E-06
3.976488E+03	1.042395E-01	6.361075E-06
3.977949E+03	1.039363E-01	6.342572E-06
3.979411E+03	1.036716E-01	6.326419E-06
3.980872E+03	1.033999E-01	6.309839E-06
3.982334E+03	1.030931E-01	6.291118E-06
3.983795E+03	1.027933E-01	6.272825E-06
3.985256E+03	1.025391E-01	6.257313E-06
3.986718E+03	1.023129E-01	6.243507E-06
3.988179E+03	1.021392E-01	6.232910E-06
3.989641E+03	1.019936E-01	6.224022E-06
3.991102E+03	1.018269E-01	6.213852E-06
3.992564E+03	1.016988E-01	6.206032E-06
3.994025E+03	1.015707E-01	6.198212E-06
3.995486E+03	1.013899E-01	6.187184E-06
3.996948E+03	1.012968E-01	6.181501E-06
3.998409E+03	1.012142E-01	6.176459E-06
3.999871E+03	1.011386E-01	6.171845E-06
4.001332E+03	1.010595E-01	6.167017E-06
4.002794E+03	1.010049E-01	6.163684E-06
4.004255E+03	1.009327E-01	6.159283E-06
4.005717E+03	1.008851E-01	6.156379E-06
4.007178E+03	1.008656E-01	6.155187E-06
4.008639E+03	1.008425E-01	6.153778E-06
4.010101E+03	1.008720E-01	6.155577E-06
4.011562E+03	1.009085E-01	6.157804E-06
4.013024E+03	1.008959E-01	6.157036E-06
4.014485E+03	1.008798E-01	6.156055E-06
4.015947E+03	1.008743E-01	6.155714E-06
4.017408E+03	1.008546E-01	6.154515E-06
4.018869E+03	1.008385E-01	6.153533E-06
4.020331E+03	1.008470E-01	6.154048E-06
4.021792E+03	1.009045E-01	6.157557E-06
4.023254E+03	1.009619E-01	6.161063E-06
4.024715E+03	1.009844E-01	6.162432E-06
4.026177E+03	1.009613E-01	6.161023E-06
4.027638E+03	1.009977E-01	6.163247E-06
4.029099E+03	1.009886E-01	6.162689E-06
4.030561E+03	1.009864E-01	6.162559E-06
4.032022E+03	1.009949E-01	6.163074E-06
4.033484E+03	1.009472E-01	6.160162E-06
4.034945E+03	1.009170E-01	6.158319E-06
4.036407E+03	1.008938E-01	6.156906E-06
4.037868E+03	1.008320E-01	6.153136E-06
4.039330E+03	1.007949E-01	6.150869E-06
4.040791E+03	1.007471E-01	6.147954E-06
4.042252E+03	1.006538E-01	6.142261E-06
4.043714E+03	1.005605E-01	6.136568E-06
4.045175E+03	1.004988E-01	6.132798E-06
4.046637E+03	1.004124E-01	6.127528E-06
4.048098E+03	1.002770E-01	6.119267E-06
4.049560E+03	1.001381E-01	6.110789E-06
4.051021E+03	9.997109E-02	6.100597E-06
4.052482E+03	9.984973E-02	6.093191E-06
4.053944E+03	9.974231E-02	6.086636E-06
4.055405E+03	9.963139E-02	6.079867E-06
4.056867E+03	9.949596E-02	6.071603E-06
4.058328E+03	9.940961E-02	6.066334E-06
4.059790E+03	9.934421E-02	6.062343E-06
4.061251E+03	9.924730E-02	6.056429E-06
4.062713E+03	9.916446E-02	6.051373E-06
4.064174E+03	9.914815E-02	6.050378E-06
4.065635E+03	9.910733E-02	6.047887E-06
4.067097E+03	9.905250E-02	6.044541E-06
4.068558E+03	9.902569E-02	6.042904E-06
4.070020E+03	9.900588E-02	6.041695E-06
4.071481E+03	9.899307E-02	6.040914E-06
4.072943E+03	9.897326E-02	6.039705E-06
4.074404E+03	9.897446E-02	6.039778E-06
4.075865E+03	9.900725E-02	6.041779E-06
4.077327E+03	9.902952E-02	6.043138E-06
4.078788E+03	9.905874E-02	6.044921E-06
4.080250E+03	9.909502E-02	6.047135E-06
