#wls	flux	fluxerr
1.590679E+03	1.330560E-03	4.982682E-05
1.630446E+03	1.331673E-03	4.956989E-05
1.670213E+03	1.333318E-03	4.932553E-05
1.709980E+03	1.335563E-03	4.909577E-05
1.749746E+03	1.338914E-03	4.889849E-05
1.789513E+03	1.343140E-03	4.872439E-05
1.829280E+03	1.348460E-03	4.858058E-05
1.869047E+03	1.355953E-03	4.850459E-05
1.908814E+03	1.365588E-03	4.849352E-05
1.948581E+03	1.378206E-03	4.857506E-05
1.988348E+03	1.394336E-03	4.876499E-05
2.028115E+03	1.414582E-03	4.908109E-05
2.067882E+03	1.440026E-03	4.955674E-05
2.107649E+03	1.471824E-03	5.022644E-05
2.147416E+03	1.509943E-03	5.108293E-05
2.187183E+03	1.556001E-03	5.217415E-05
2.226950E+03	1.611204E-03	5.353217E-05
2.266717E+03	1.675845E-03	5.515713E-05
2.306484E+03	1.750950E-03	5.707247E-05
2.346251E+03	1.836964E-03	5.928106E-05
2.386018E+03	1.934597E-03	6.179343E-05
2.425785E+03	2.043894E-03	6.459764E-05
2.465552E+03	2.165659E-03	6.770502E-05
2.505319E+03	2.299519E-03	7.108897E-05
2.545086E+03	2.445394E-03	7.473189E-05
2.584853E+03	2.603045E-03	7.861112E-05
2.624620E+03	2.772698E-03	8.271773E-05
2.664387E+03	2.954007E-03	8.702524E-05
2.704154E+03	3.146622E-03	9.150722E-05
2.743921E+03	3.350212E-03	9.613782E-05
2.783688E+03	3.566359E-03	1.009456E-04
2.823455E+03	3.794261E-03	1.058898E-04
2.863222E+03	4.035038E-03	1.109834E-04
2.902988E+03	4.289237E-03	1.162217E-04
2.942755E+03	4.558092E-03	1.216172E-04
2.982522E+03	4.842190E-03	1.271631E-04
2.992464E+03	4.915339E-03	1.285636E-04
3.002406E+03	4.990049E-03	1.299875E-04
3.012348E+03	5.066308E-03	1.314341E-04
3.022289E+03	5.143434E-03	1.328852E-04
3.032231E+03	5.221412E-03	1.343399E-04
3.042173E+03	5.300228E-03	1.357976E-04
3.052115E+03	5.380539E-03	1.372748E-04
3.062056E+03	5.462330E-03	1.387704E-04
3.071998E+03	5.545587E-03	1.402837E-04
3.081940E+03	5.629619E-03	1.417966E-04
3.091882E+03	5.715082E-03	1.433253E-04
3.101823E+03	5.801956E-03	1.448688E-04
3.111765E+03	5.889549E-03	1.464093E-04
3.121707E+03	5.979187E-03	1.479794E-04
3.131649E+03	6.070173E-03	1.495612E-04
3.141590E+03	6.162484E-03	1.511535E-04
3.151532E+03	6.256093E-03	1.527552E-04
3.161474E+03	6.350975E-03	1.543653E-04
3.171416E+03	6.447765E-03	1.559985E-04
3.181357E+03	6.545765E-03	1.576375E-04
3.191299E+03	6.644939E-03	1.592809E-04
3.201241E+03	6.746589E-03	1.609592E-04
3.211182E+03	6.848663E-03	1.626229E-04
3.221124E+03	6.953128E-03	1.643183E-04
3.231066E+03	7.058592E-03	1.660118E-04
3.241008E+03	7.165678E-03	1.677176E-04
3.250949E+03	7.274326E-03	1.694336E-04
3.260891E+03	7.384473E-03	1.711579E-04
3.270833E+03	7.496053E-03	1.728884E-04
3.280775E+03	7.609666E-03	1.746382E-04
3.290716E+03	7.724563E-03	1.763896E-04
3.300658E+03	7.840671E-03	1.781405E-04
3.310600E+03	7.957895E-03	1.798882E-04
3.320542E+03	8.076806E-03	1.816452E-04
3.330483E+03	8.197310E-03	1.834088E-04
3.340425E+03	8.318651E-03	1.851615E-04
3.350367E+03	8.442017E-03	1.869294E-04
3.360309E+03	8.566008E-03	1.886810E-04
3.370250E+03	8.691148E-03	1.904274E-04
3.380192E+03	8.817338E-03	1.921661E-04
3.390134E+03	8.945104E-03	1.939081E-04
3.400076E+03	9.073041E-03	1.956227E-04
3.410017E+03	9.202986E-03	1.973492E-04
3.419959E+03	9.332908E-03	1.990434E-04
3.429901E+03	9.464004E-03	2.007310E-04
3.439843E+03	9.596217E-03	2.024103E-04
3.449784E+03	9.728864E-03	2.040666E-04
3.459726E+03	9.863214E-03	2.057262E-04
3.469668E+03	9.998030E-03	2.073631E-04
3.479609E+03	1.013404E-02	2.089920E-04
3.489551E+03	1.027139E-02	2.106155E-04
3.499493E+03	1.041089E-02	2.122500E-04
3.509435E+03	1.055221E-02	2.138878E-04
3.519376E+03	1.069567E-02	2.155350E-04
3.529318E+03	1.084165E-02	2.171986E-04
3.539260E+03	1.099182E-02	2.189108E-04
3.549202E+03	1.114481E-02	2.206435E-04
3.559143E+03	1.130296E-02	2.224414E-04
3.569085E+03	1.146557E-02	2.242893E-04
3.579027E+03	1.163377E-02	2.262081E-04
3.588969E+03	1.180870E-02	2.282175E-04
3.598910E+03	1.198965E-02	2.303019E-04
3.608852E+03	1.217766E-02	2.324792E-04
3.618794E+03	1.237369E-02	2.347653E-04
3.628736E+03	1.257801E-02	2.371624E-04
3.638677E+03	1.278955E-02	2.396482E-04
3.648619E+03	1.301003E-02	2.422523E-04
3.658561E+03	1.323802E-02	2.449450E-04
3.668503E+03	1.347297E-02	2.477142E-04
3.678444E+03	1.371519E-02	2.505632E-04
3.688386E+03	1.396230E-02	2.534466E-04
3.698328E+03	1.421388E-02	2.563552E-04
3.708270E+03	1.446743E-02	2.592430E-04
3.718211E+03	1.472017E-02	2.620602E-04
3.728153E+03	1.497152E-02	2.647971E-04
3.738095E+03	1.521751E-02	2.673847E-04
3.748037E+03	1.545739E-02	2.698123E-04
3.757978E+03	1.568936E-02	2.720511E-04
3.767920E+03	1.591374E-02	2.741098E-04
3.777862E+03	1.613098E-02	2.759990E-04
3.787803E+03	1.634409E-02	2.777730E-04
3.797745E+03	1.655645E-02	2.794904E-04
3.807687E+03	1.677450E-02	2.812602E-04
3.817629E+03	1.700364E-02	2.831705E-04
3.827570E+03	1.725115E-02	2.853389E-04
3.837512E+03	1.752534E-02	2.878959E-04
3.847454E+03	1.783391E-02	2.909590E-04
3.857396E+03	1.818412E-02	2.946347E-04
3.867337E+03	1.858227E-02	2.990112E-04
3.877279E+03	1.903259E-02	3.041411E-04
3.887221E+03	1.953840E-02	3.100604E-04
3.897163E+03	2.009939E-02	3.167472E-04
3.907104E+03	2.071375E-02	3.241562E-04
3.917046E+03	2.137649E-02	3.321935E-04
3.926988E+03	2.207957E-02	3.407208E-04
3.936930E+03	2.281330E-02	3.495784E-04
3.946871E+03	2.356682E-02	3.585928E-04
3.956813E+03	2.432670E-02	3.675567E-04
3.966755E+03	2.507931E-02	3.762656E-04
3.976697E+03	2.581077E-02	3.845175E-04
3.986638E+03	2.650752E-02	3.921204E-04
3.996580E+03	2.715602E-02	3.988887E-04
4.006522E+03	2.774499E-02	4.046750E-04
4.016464E+03	2.826364E-02	4.093439E-04
4.026405E+03	2.870119E-02	4.127640E-04
4.036347E+03	2.905090E-02	4.148658E-04
4.046289E+03	2.930506E-02	4.155683E-04
4.056230E+03	2.945971E-02	4.148459E-04
4.066172E+03	2.951160E-02	4.126842E-04
4.076114E+03	2.946034E-02	4.091091E-04
4.086056E+03	2.930777E-02	4.041770E-04
4.095997E+03	2.905748E-02	3.979667E-04
4.105939E+03	2.871592E-02	3.905939E-04
4.115881E+03	2.829219E-02	3.822073E-04
4.125823E+03	2.779568E-02	3.729554E-04
4.135764E+03	2.723881E-02	3.630226E-04
4.145706E+03	2.663575E-02	3.526124E-04
4.155648E+03	2.600184E-02	3.419372E-04
4.165590E+03	2.535467E-02	3.312337E-04
4.175531E+03	2.471106E-02	3.207220E-04
4.185473E+03	2.408865E-02	3.106270E-04
4.195415E+03	2.350448E-02	3.011601E-04
4.205357E+03	2.297251E-02	2.924880E-04
4.215298E+03	2.250464E-02	2.847472E-04
4.225240E+03	2.211091E-02	2.780476E-04
4.235182E+03	2.179650E-02	2.724354E-04
4.245124E+03	2.156359E-02	2.679194E-04
4.255065E+03	2.141176E-02	2.644756E-04
4.265007E+03	2.133679E-02	2.620348E-04
4.274949E+03	2.133215E-02	2.605015E-04
4.284891E+03	2.138842E-02	2.597473E-04
4.294832E+03	2.149576E-02	2.596425E-04
4.304774E+03	2.164193E-02	2.600314E-04
4.314716E+03	2.181519E-02	2.607681E-04
4.324658E+03	2.200351E-02	2.617063E-04
4.334599E+03	2.219669E-02	2.627245E-04
4.344541E+03	2.238586E-02	2.637198E-04
4.354483E+03	2.256549E-02	2.646296E-04
4.364424E+03	2.273243E-02	2.654211E-04
4.374366E+03	2.288789E-02	2.661119E-04
4.384308E+03	2.303560E-02	2.667488E-04
4.394250E+03	2.318255E-02	2.674153E-04
4.404191E+03	2.333816E-02	2.682213E-04
4.414133E+03	2.351366E-02	2.692958E-04
4.424075E+03	2.372142E-02	2.707778E-04
4.434017E+03	2.397388E-02	2.728057E-04
4.443958E+03	2.428304E-02	2.755108E-04
4.453900E+03	2.465907E-02	2.790037E-04
4.463842E+03	2.510940E-02	2.833626E-04
4.473784E+03	2.563845E-02	2.886323E-04
4.483725E+03	2.624495E-02	2.947938E-04
4.493667E+03	2.692264E-02	3.017728E-04
4.503609E+03	2.765880E-02	3.094244E-04
4.513551E+03	2.843495E-02	3.175408E-04
4.523492E+03	2.922714E-02	3.258550E-04
4.533434E+03	3.000677E-02	3.340499E-04
4.543376E+03	3.074319E-02	3.417875E-04
4.553318E+03	3.140561E-02	3.487297E-04
4.563259E+03	3.196510E-02	3.545593E-04
4.573201E+03	3.239833E-02	3.590224E-04
4.583143E+03	3.268730E-02	3.619233E-04
4.593085E+03	3.282199E-02	3.631545E-04
4.603026E+03	3.280094E-02	3.627021E-04
4.612968E+03	3.263037E-02	3.606361E-04
4.622910E+03	3.232431E-02	3.571112E-04
4.632851E+03	3.190273E-02	3.523472E-04
4.642793E+03	3.139064E-02	3.466181E-04
4.652735E+03	3.081718E-02	3.402431E-04
4.662677E+03	3.021313E-02	3.335589E-04
4.672618E+03	2.960955E-02	3.269053E-04
4.682560E+03	2.903766E-02	3.206238E-04
4.692502E+03	2.852718E-02	3.150399E-04
4.702444E+03	2.810538E-02	3.104528E-04
4.712385E+03	2.779680E-02	3.071318E-04
4.722327E+03	2.762320E-02	3.053167E-04
4.732269E+03	2.760243E-02	3.052045E-04
4.742211E+03	2.774679E-02	3.069319E-04
4.752152E+03	2.806364E-02	3.105818E-04
4.762094E+03	2.855394E-02	3.161665E-04
4.772036E+03	2.921203E-02	3.236252E-04
4.781978E+03	3.002596E-02	3.328282E-04
4.791919E+03	3.097787E-02	3.435794E-04
4.801861E+03	3.204294E-02	3.556056E-04
4.811803E+03	3.319106E-02	3.685739E-04
4.821745E+03	3.438559E-02	3.820782E-04
4.831686E+03	3.558486E-02	3.956555E-04
4.841628E+03	3.674446E-02	4.088107E-04
4.851570E+03	3.781895E-02	4.210358E-04
4.861512E+03	3.876360E-02	4.318296E-04
4.871453E+03	3.954001E-02	4.407600E-04
4.881395E+03	4.011835E-02	4.474892E-04
4.891337E+03	4.047943E-02	4.517977E-04
4.901279E+03	4.061652E-02	4.536044E-04
4.911220E+03	4.053535E-02	4.529675E-04
4.921162E+03	4.025116E-02	4.500521E-04
4.931104E+03	3.978622E-02	4.451027E-04
4.941045E+03	3.916592E-02	4.383991E-04
4.950987E+03	3.841762E-02	4.302447E-04
4.960929E+03	3.756735E-02	4.209288E-04
4.970871E+03	3.664068E-02	4.107361E-04
4.980812E+03	3.566264E-02	3.999463E-04
4.990754E+03	3.465660E-02	3.888211E-04
5.000696E+03	3.364395E-02	3.776008E-04
5.010638E+03	3.264513E-02	3.665151E-04
5.020579E+03	3.168012E-02	3.557894E-04
5.030521E+03	3.076611E-02	3.456176E-04
5.040463E+03	2.991894E-02	3.361791E-04
5.050405E+03	2.915315E-02	3.276384E-04
5.060346E+03	2.848028E-02	3.201264E-04
5.070288E+03	2.791010E-02	3.137540E-04
5.080230E+03	2.744971E-02	3.086020E-04
5.090172E+03	2.710306E-02	3.047155E-04
5.100113E+03	2.687104E-02	3.021049E-04
5.110055E+03	2.675188E-02	3.007505E-04
5.119997E+03	2.673984E-02	3.005875E-04
5.129939E+03	2.682685E-02	3.015250E-04
5.139880E+03	2.700219E-02	3.034416E-04
5.149822E+03	2.725335E-02	3.061959E-04
5.159764E+03	2.756714E-02	3.096389E-04
5.169706E+03	2.792911E-02	3.136073E-04
5.179647E+03	2.832586E-02	3.179496E-04
5.189589E+03	2.874368E-02	3.225110E-04
5.199531E+03	2.917140E-02	3.271653E-04
5.209472E+03	2.959910E-02	3.318006E-04
5.219414E+03	3.001890E-02	3.363283E-04
5.229356E+03	3.042538E-02	3.406870E-04
5.239298E+03	3.081487E-02	3.448358E-04
5.249239E+03	3.118564E-02	3.487550E-04
5.259181E+03	3.153787E-02	3.524470E-04
5.269123E+03	3.187280E-02	3.559256E-04
5.279065E+03	3.219238E-02	3.592128E-04
5.289006E+03	3.250040E-02	3.623511E-04
5.298948E+03	3.279917E-02	3.653665E-04
5.308890E+03	3.309109E-02	3.682857E-04
5.318832E+03	3.337838E-02	3.711338E-04
5.328773E+03	3.365986E-02	3.738976E-04
5.338715E+03	3.393471E-02	3.765684E-04
5.348657E+03	3.420073E-02	3.791220E-04
5.358599E+03	3.445570E-02	3.815344E-04
5.368540E+03	3.469802E-02	3.837882E-04
5.378482E+03	3.492747E-02	3.858818E-04
5.388424E+03	3.514423E-02	3.878179E-04
5.398366E+03	3.534967E-02	3.896124E-04
5.408307E+03	3.554448E-02	3.912735E-04
5.418249E+03	3.572770E-02	3.927914E-04
5.428191E+03	3.589754E-02	3.941470E-04
5.438133E+03	3.604858E-02	3.952815E-04
5.448074E+03	3.617490E-02	3.961307E-04
5.458016E+03	3.626791E-02	3.966022E-04
5.467958E+03	3.632014E-02	3.966154E-04
5.477900E+03	3.632538E-02	3.961041E-04
5.487841E+03	3.627838E-02	3.950126E-04
5.497783E+03	3.617928E-02	3.933447E-04
5.507725E+03	3.603006E-02	3.911235E-04
5.517666E+03	3.583681E-02	3.884174E-04
5.527608E+03	3.560838E-02	3.853240E-04
5.537550E+03	3.535539E-02	3.819595E-04
5.547492E+03	3.508898E-02	3.784454E-04
5.557433E+03	3.481925E-02	3.748908E-04
5.567375E+03	3.455483E-02	3.713885E-04
5.577317E+03	3.430204E-02	3.680060E-04
5.587259E+03	3.406307E-02	3.647661E-04
5.597200E+03	3.383797E-02	3.616681E-04
5.607142E+03	3.362337E-02	3.586755E-04
5.617084E+03	3.341438E-02	3.557353E-04
5.627026E+03	3.320521E-02	3.527858E-04
5.636967E+03	3.298999E-02	3.497647E-04
5.646909E+03	3.276479E-02	3.466309E-04
5.656851E+03	3.252710E-02	3.433586E-04
5.666793E+03	3.227691E-02	3.399488E-04
5.676734E+03	3.201711E-02	3.364329E-04
5.686676E+03	3.175312E-02	3.328688E-04
5.696618E+03	3.149107E-02	3.293210E-04
5.706560E+03	3.123883E-02	3.258720E-04
5.716501E+03	3.100370E-02	3.225970E-04
5.726443E+03	3.079262E-02	3.195672E-04
5.736385E+03	3.061105E-02	3.168375E-04
5.746327E+03	3.046363E-02	3.144535E-04
5.756268E+03	3.035262E-02	3.124359E-04
5.766210E+03	3.028018E-02	3.108038E-04
5.776152E+03	3.024572E-02	3.095484E-04
5.786093E+03	3.024912E-02	3.086648E-04
5.796035E+03	3.028792E-02	3.081248E-04
5.805977E+03	3.035944E-02	3.078981E-04
5.815919E+03	3.045894E-02	3.079337E-04
5.825860E+03	3.058171E-02	3.081816E-04
5.835802E+03	3.072080E-02	3.085696E-04
5.845744E+03	3.086942E-02	3.090284E-04
5.855686E+03	3.101952E-02	3.094768E-04
5.865627E+03	3.116415E-02	3.098456E-04
5.875569E+03	3.129635E-02	3.100666E-04
5.885511E+03	3.141060E-02	3.100871E-04
5.895453E+03	3.150312E-02	3.098718E-04
5.905394E+03	3.157051E-02	3.093904E-04
5.915336E+03	3.161259E-02	3.086441E-04
5.925278E+03	3.162967E-02	3.076395E-04
5.935220E+03	3.162342E-02	3.063960E-04
5.945161E+03	3.159571E-02	3.049349E-04
5.955103E+03	3.154911E-02	3.032843E-04
5.965045E+03	3.148518E-02	3.014620E-04
5.974987E+03	3.140662E-02	2.994965E-04
5.984928E+03	3.131484E-02	2.974038E-04
5.994870E+03	3.121190E-02	2.952061E-04
6.004812E+03	3.110030E-02	2.929289E-04
6.014754E+03	3.098165E-02	2.905897E-04
6.024695E+03	3.085878E-02	2.882165E-04
6.034637E+03	3.073337E-02	2.858266E-04
6.044579E+03	3.060714E-02	2.834376E-04
6.054521E+03	3.048133E-02	2.810618E-04
6.064462E+03	3.035781E-02	2.787178E-04
6.074404E+03	3.023838E-02	2.764227E-04
6.084346E+03	3.012560E-02	2.742008E-04
6.094287E+03	3.002170E-02	2.720726E-04
6.104229E+03	2.993065E-02	2.700741E-04
6.114171E+03	2.985590E-02	2.682363E-04
6.124113E+03	2.980078E-02	2.665883E-04
6.134054E+03	2.976719E-02	2.651462E-04
6.143996E+03	2.975564E-02	2.639135E-04
6.153938E+03	2.976409E-02	2.628712E-04
6.163880E+03	2.978871E-02	2.619849E-04
6.173821E+03	2.982307E-02	2.611982E-04
6.183763E+03	2.985832E-02	2.604344E-04
6.193705E+03	2.988504E-02	2.596137E-04
6.203647E+03	2.989278E-02	2.586479E-04
6.213588E+03	2.987170E-02	2.574564E-04
6.223530E+03	2.981278E-02	2.559661E-04
6.233472E+03	2.970930E-02	2.541250E-04
6.243414E+03	2.955615E-02	2.518953E-04
6.253355E+03	2.935143E-02	2.492669E-04
6.263297E+03	2.909544E-02	2.462482E-04
6.273239E+03	2.879207E-02	2.428773E-04
6.283181E+03	2.844822E-02	2.392171E-04
6.293122E+03	2.807287E-02	2.353466E-04
6.303064E+03	2.767959E-02	2.313818E-04
6.313006E+03	2.728361E-02	2.274514E-04
6.322948E+03	2.690326E-02	2.237078E-04
6.332889E+03	2.655993E-02	2.203275E-04
6.342831E+03	2.627575E-02	2.174917E-04
6.352773E+03	2.607555E-02	2.154023E-04
6.362714E+03	2.598329E-02	2.142535E-04
6.372656E+03	2.602298E-02	2.142391E-04
6.382598E+03	2.621821E-02	2.155497E-04
6.392540E+03	2.659160E-02	2.183682E-04
6.402481E+03	2.716363E-02	2.228612E-04
6.412423E+03	2.795429E-02	2.291929E-04
6.422365E+03	2.898054E-02	2.375047E-04
6.432307E+03	3.025554E-02	2.479098E-04
6.442248E+03	3.178715E-02	2.604788E-04
6.452190E+03	3.357504E-02	2.752171E-04
6.462132E+03	3.560681E-02	2.920329E-04
6.472074E+03	3.785638E-02	3.107248E-04
6.482015E+03	4.028023E-02	3.309489E-04
6.491957E+03	4.281653E-02	3.522108E-04
6.501899E+03	4.538397E-02	3.738535E-04
6.511841E+03	4.788720E-02	3.951005E-04
6.521782E+03	5.021967E-02	4.150764E-04
6.531724E+03	5.227429E-02	4.328932E-04
6.541666E+03	5.395338E-02	4.477314E-04
6.551608E+03	5.517975E-02	4.589321E-04
6.561549E+03	5.590372E-02	4.660560E-04
6.571491E+03	5.610836E-02	4.689302E-04
6.581433E+03	5.580887E-02	4.676458E-04
6.591375E+03	5.505086E-02	4.625480E-04
6.601316E+03	5.389788E-02	4.541347E-04
6.611258E+03	5.242758E-02	4.430271E-04
6.621200E+03	5.072147E-02	4.298853E-04
6.631142E+03	4.885710E-02	4.153438E-04
6.641083E+03	4.690557E-02	3.999894E-04
6.651025E+03	4.492832E-02	3.843346E-04
6.660967E+03	4.297621E-02	3.688077E-04
6.670908E+03	4.109005E-02	3.537566E-04
6.680850E+03	3.929900E-02	3.394342E-04
6.690792E+03	3.762532E-02	3.260371E-04
6.700734E+03	3.608170E-02	3.136823E-04
6.710675E+03	3.467457E-02	3.024339E-04
6.720617E+03	3.340470E-02	2.923078E-04
6.730559E+03	3.226830E-02	2.832803E-04
6.740501E+03	3.125816E-02	2.752977E-04
6.750442E+03	3.036466E-02	2.682841E-04
6.760384E+03	2.957677E-02	2.621504E-04
6.770326E+03	2.888305E-02	2.568027E-04
6.780268E+03	2.827254E-02	2.521500E-04
6.790209E+03	2.773511E-02	2.481079E-04
6.800151E+03	2.726305E-02	2.446122E-04
6.810093E+03	2.685011E-02	2.416113E-04
6.820035E+03	2.649157E-02	2.390665E-04
6.829976E+03	2.618503E-02	2.369597E-04
6.839918E+03	2.592855E-02	2.352767E-04
6.849860E+03	2.572129E-02	2.340127E-04
6.859802E+03	2.556292E-02	2.331679E-04
6.869743E+03	2.545168E-02	2.327287E-04
6.879685E+03	2.538634E-02	2.326865E-04
6.889627E+03	2.536322E-02	2.330096E-04
6.899569E+03	2.537722E-02	2.336530E-04
6.909510E+03	2.542105E-02	2.345508E-04
6.919452E+03	2.548693E-02	2.356319E-04
6.929394E+03	2.556456E-02	2.368012E-04
6.939335E+03	2.564405E-02	2.379666E-04
6.949277E+03	2.571631E-02	2.390427E-04
6.959219E+03	2.577297E-02	2.399504E-04
6.969161E+03	2.580698E-02	2.406225E-04
6.979102E+03	2.581372E-02	2.410141E-04
6.989044E+03	2.579073E-02	2.411008E-04
6.998986E+03	2.573772E-02	2.408780E-04
7.008928E+03	2.565666E-02	2.403632E-04
7.018869E+03	2.555001E-02	2.395783E-04
7.028811E+03	2.542257E-02	2.385676E-04
7.038753E+03	2.527955E-02	2.373797E-04
7.048695E+03	2.512624E-02	2.360639E-04
7.058636E+03	2.496864E-02	2.346769E-04
7.068578E+03	2.481205E-02	2.332685E-04
7.078520E+03	2.466070E-02	2.318789E-04
7.088462E+03	2.451824E-02	2.305426E-04
7.098403E+03	2.438764E-02	2.292879E-04
7.108345E+03	2.427009E-02	2.281262E-04
7.118287E+03	2.416621E-02	2.270635E-04
7.128229E+03	2.407586E-02	2.260985E-04
7.138170E+03	2.399876E-02	2.252287E-04
7.148112E+03	2.393326E-02	2.244387E-04
7.158054E+03	2.387884E-02	2.237232E-04
7.167996E+03	2.383441E-02	2.230721E-04
7.177937E+03	2.380032E-02	2.224886E-04
7.187879E+03	2.377580E-02	2.219653E-04
7.197821E+03	2.376140E-02	2.215070E-04
7.207763E+03	2.375737E-02	2.211157E-04
7.217704E+03	2.376337E-02	2.207882E-04
7.227646E+03	2.377903E-02	2.205203E-04
7.237588E+03	2.380366E-02	2.203055E-04
7.247529E+03	2.383557E-02	2.201278E-04
7.257471E+03	2.387168E-02	2.199584E-04
7.267413E+03	2.390993E-02	2.197783E-04
7.277355E+03	2.394688E-02	2.195558E-04
7.287296E+03	2.397941E-02	2.192630E-04
7.297238E+03	2.400503E-02	2.188775E-04
7.307180E+03	2.402087E-02	2.183742E-04
7.317122E+03	2.402457E-02	2.177328E-04
7.327063E+03	2.401552E-02	2.169495E-04
7.337005E+03	2.399260E-02	2.160156E-04
7.346947E+03	2.395519E-02	2.149276E-04
7.356889E+03	2.390428E-02	2.136965E-04
7.366830E+03	2.383964E-02	2.123223E-04
7.376772E+03	2.376243E-02	2.108174E-04
7.386714E+03	2.367350E-02	2.091919E-04
7.396656E+03	2.357377E-02	2.074560E-04
7.406597E+03	2.346383E-02	2.056170E-04
7.416539E+03	2.334502E-02	2.036892E-04
7.426481E+03	2.321797E-02	2.016801E-04
7.436423E+03	2.308403E-02	1.996038E-04
7.446364E+03	2.294420E-02	1.974709E-04
7.456306E+03	2.279908E-02	1.952886E-04
7.466248E+03	2.264961E-02	1.930670E-04
7.476190E+03	2.249743E-02	1.908221E-04
7.486131E+03	2.234266E-02	1.885567E-04
7.496073E+03	2.218686E-02	1.862858E-04
7.506015E+03	2.203038E-02	1.840139E-04
7.515956E+03	2.187357E-02	1.817457E-04
7.525898E+03	2.171776E-02	1.794937E-04
7.535840E+03	2.156350E-02	1.772639E-04
7.545782E+03	2.141091E-02	1.750588E-04
7.555723E+03	2.126042E-02	1.728833E-04
7.565665E+03	2.111279E-02	1.707449E-04
7.575607E+03	2.096801E-02	1.686450E-04
7.585549E+03	2.082679E-02	1.665906E-04
7.595490E+03	2.068945E-02	1.645855E-04
7.605432E+03	2.055592E-02	1.626305E-04
7.615374E+03	2.042715E-02	1.607343E-04
7.625316E+03	2.030261E-02	1.588943E-04
7.635257E+03	2.018279E-02	1.571155E-04
7.645199E+03	2.006812E-02	1.554028E-04
7.655141E+03	1.995795E-02	1.537522E-04
7.665083E+03	1.985295E-02	1.521708E-04
7.675024E+03	1.975242E-02	1.506543E-04
7.684966E+03	1.965695E-02	1.492092E-04
7.694908E+03	1.956612E-02	1.478337E-04
7.704850E+03	1.948016E-02	1.465314E-04
7.714791E+03	1.939860E-02	1.453003E-04
