#wls	flux	fluxerr
1.585257E+03	4.022335E-03	2.591709E-05
1.624889E+03	4.224224E-03	2.719734E-05
1.664520E+03	4.435453E-03	2.853551E-05
1.704151E+03	4.655543E-03	2.992836E-05
1.743783E+03	4.883091E-03	3.136674E-05
1.783414E+03	5.116814E-03	3.284225E-05
1.823046E+03	5.354939E-03	3.434342E-05
1.862677E+03	5.595752E-03	3.585917E-05
1.902309E+03	5.835079E-03	3.736270E-05
1.941940E+03	6.070604E-03	3.883919E-05
1.981571E+03	6.297691E-03	4.025905E-05
2.021203E+03	6.513870E-03	4.160660E-05
2.060834E+03	6.718455E-03	4.287762E-05
2.100466E+03	6.914411E-03	4.409119E-05
2.140097E+03	7.102979E-03	4.525534E-05
2.179729E+03	7.287165E-03	4.638931E-05
2.219360E+03	7.476403E-03	4.755316E-05
2.258991E+03	7.678797E-03	4.879830E-05
2.298623E+03	7.905026E-03	5.019230E-05
2.338254E+03	8.163897E-03	5.179063E-05
2.377886E+03	8.463344E-03	5.364302E-05
2.417517E+03	8.813876E-03	5.581532E-05
2.457149E+03	9.227772E-03	5.838434E-05
2.496780E+03	9.720210E-03	6.144492E-05
2.536411E+03	1.030878E-02	6.510677E-05
2.576043E+03	1.101567E-02	6.950830E-05
2.615674E+03	1.187196E-02	7.484333E-05
2.655306E+03	1.289594E-02	8.122442E-05
2.694937E+03	1.409876E-02	8.871875E-05
2.734569E+03	1.549258E-02	9.739976E-05
2.774200E+03	1.708610E-02	1.073186E-04
2.813831E+03	1.888930E-02	1.185344E-04
2.853463E+03	2.090467E-02	1.310590E-04
2.893094E+03	2.313131E-02	1.448830E-04
2.932726E+03	2.556368E-02	1.599681E-04
2.972357E+03	2.818108E-02	1.761810E-04
2.982265E+03	2.886138E-02	1.803916E-04
2.992173E+03	2.954983E-02	1.846511E-04
3.002081E+03	3.024714E-02	1.889638E-04
3.011989E+03	3.095115E-02	1.933164E-04
3.021896E+03	3.166151E-02	1.977065E-04
3.031804E+03	3.237681E-02	2.021254E-04
3.041712E+03	3.309645E-02	2.065692E-04
3.051620E+03	3.381976E-02	2.110338E-04
3.061528E+03	3.454404E-02	2.155023E-04
3.071436E+03	3.526836E-02	2.199688E-04
3.081344E+03	3.599168E-02	2.244271E-04
3.091251E+03	3.671190E-02	2.288638E-04
3.101159E+03	3.742673E-02	2.332648E-04
3.111067E+03	3.813571E-02	2.376272E-04
3.120975E+03	3.883537E-02	2.419294E-04
3.130883E+03	3.952301E-02	2.461548E-04
3.140791E+03	4.019876E-02	2.503040E-04
3.150699E+03	4.085771E-02	2.543466E-04
3.160606E+03	4.149873E-02	2.582758E-04
3.170514E+03	4.211761E-02	2.620652E-04
3.180422E+03	4.271294E-02	2.657064E-04
3.190330E+03	4.328123E-02	2.691775E-04
3.200238E+03	4.381882E-02	2.724561E-04
3.210146E+03	4.432299E-02	2.755254E-04
3.220054E+03	4.479083E-02	2.783674E-04
3.229961E+03	4.521755E-02	2.809526E-04
3.239869E+03	4.560037E-02	2.832637E-04
3.249777E+03	4.593585E-02	2.852798E-04
3.259685E+03	4.622202E-02	2.869887E-04
3.269593E+03	4.645647E-02	2.883757E-04
3.279501E+03	4.663749E-02	2.894304E-04
3.289409E+03	4.676484E-02	2.901517E-04
3.299316E+03	4.683636E-02	2.905263E-04
3.309224E+03	4.685485E-02	2.905717E-04
3.319132E+03	4.681953E-02	2.902835E-04
3.329040E+03	4.673195E-02	2.896716E-04
3.338948E+03	4.659524E-02	2.887554E-04
3.343080E+03	4.903855E-02	3.038666E-04
3.344967E+03	4.910555E-02	3.042680E-04
3.346852E+03	4.894093E-02	3.032343E-04
3.348739E+03	4.874736E-02	3.020212E-04
3.350624E+03	4.868303E-02	3.016090E-04
3.352511E+03	4.887140E-02	3.027623E-04
3.354396E+03	4.895553E-02	3.032697E-04
3.356283E+03	4.887178E-02	3.027372E-04
3.358168E+03	4.878027E-02	3.021566E-04
3.360054E+03	4.875625E-02	3.019942E-04
3.361940E+03	4.875147E-02	3.019509E-04
3.363826E+03	4.884115E-02	3.024926E-04
3.365712E+03	4.902526E-02	3.036192E-04
3.367598E+03	4.930380E-02	3.053303E-04
3.369484E+03	4.964976E-02	3.074588E-04
3.371370E+03	4.973339E-02	3.079628E-04
3.373256E+03	4.964730E-02	3.074158E-04
3.375142E+03	4.972889E-02	3.079070E-04
3.377028E+03	4.971790E-02	3.078250E-04
3.378914E+03	4.955265E-02	3.067880E-04
3.380800E+03	4.952617E-02	3.066102E-04
3.382686E+03	4.967694E-02	3.075296E-04
3.384571E+03	4.969661E-02	3.076375E-04
3.386458E+03	4.950616E-02	3.064446E-04
3.388343E+03	4.928101E-02	3.050372E-04
3.390230E+03	4.909245E-02	3.038562E-04
3.392115E+03	4.888075E-02	3.025322E-04
3.394002E+03	4.859583E-02	3.007552E-04
3.395887E+03	4.835135E-02	2.992285E-04
3.397774E+03	4.798167E-02	2.969273E-04
3.399659E+03	4.727105E-02	2.925165E-04
3.401546E+03	4.659324E-02	2.883091E-04
3.403431E+03	4.652406E-02	2.878680E-04
3.405318E+03	4.633738E-02	2.866999E-04
3.407203E+03	4.590037E-02	2.839832E-04
3.409089E+03	4.562125E-02	2.822435E-04
3.410975E+03	4.539797E-02	2.808494E-04
3.412861E+03	4.518239E-02	2.795031E-04
3.414747E+03	4.509767E-02	2.789664E-04
3.416633E+03	4.512265E-02	2.791083E-04
3.418519E+03	4.530730E-02	2.802378E-04
3.420405E+03	4.539372E-02	2.807596E-04
3.422291E+03	4.558016E-02	2.819000E-04
3.424177E+03	4.616670E-02	2.855146E-04
3.426063E+03	4.653954E-02	2.878074E-04
3.427949E+03	4.649867E-02	2.875416E-04
3.429835E+03	4.652510E-02	2.876920E-04
3.431721E+03	4.702458E-02	2.907675E-04
3.433606E+03	4.793163E-02	2.963626E-04
3.435493E+03	4.839234E-02	2.991976E-04
3.437378E+03	4.832222E-02	2.987506E-04
3.439265E+03	4.830014E-02	2.986006E-04
3.441150E+03	4.803578E-02	2.969528E-04
3.443037E+03	4.757538E-02	2.940934E-04
3.444922E+03	4.744943E-02	2.933015E-04
3.446809E+03	4.749642E-02	2.935787E-04
3.448694E+03	4.740114E-02	2.929765E-04
3.450581E+03	4.737887E-02	2.928256E-04
3.452466E+03	4.736036E-02	2.926980E-04
3.454353E+03	4.720928E-02	2.917511E-04
3.456238E+03	4.720415E-02	2.917062E-04
3.458124E+03	4.726426E-02	2.920645E-04
3.460010E+03	4.715724E-02	2.913899E-04
3.461896E+03	4.709244E-02	2.909764E-04
3.463782E+03	4.714087E-02	2.912625E-04
3.465668E+03	4.693392E-02	2.899707E-04
3.467554E+03	4.656764E-02	2.876947E-04
3.469440E+03	4.624363E-02	2.856801E-04
3.471326E+03	4.614032E-02	2.850290E-04
3.473212E+03	4.609263E-02	2.847215E-04
3.475098E+03	4.566886E-02	2.820911E-04
3.476984E+03	4.520294E-02	2.792005E-04
3.478870E+03	4.498068E-02	2.778152E-04
3.480756E+03	4.479103E-02	2.766313E-04
3.482641E+03	4.461670E-02	2.755422E-04
3.484528E+03	4.450564E-02	2.748439E-04
3.486413E+03	4.438881E-02	2.741100E-04
3.488300E+03	4.442913E-02	2.743466E-04
3.490185E+03	4.442339E-02	2.742988E-04
3.492072E+03	4.398260E-02	2.715648E-04
3.493957E+03	4.365490E-02	2.695293E-04
3.495844E+03	4.356674E-02	2.689728E-04
3.497729E+03	4.379461E-02	2.703674E-04
3.499616E+03	4.382510E-02	2.705434E-04
3.501501E+03	4.347249E-02	2.683546E-04
3.503387E+03	4.302803E-02	2.655989E-04
3.505273E+03	4.260468E-02	2.629738E-04
3.507159E+03	4.223118E-02	2.606567E-04
3.509045E+03	4.184051E-02	2.582338E-04
3.510931E+03	4.170635E-02	2.573941E-04
3.512817E+03	4.152814E-02	2.562827E-04
3.514703E+03	4.119689E-02	2.542270E-04
3.516589E+03	4.081595E-02	2.518648E-04
3.518475E+03	4.032796E-02	2.488423E-04
3.520361E+03	3.999687E-02	2.467883E-04
3.522247E+03	3.981880E-02	2.456785E-04
3.524133E+03	3.955280E-02	2.440262E-04
3.526019E+03	3.915684E-02	2.415724E-04
3.527904E+03	3.887562E-02	2.398267E-04
3.529791E+03	3.865750E-02	2.384703E-04
3.531676E+03	3.842221E-02	2.370081E-04
3.533563E+03	3.826334E-02	2.360175E-04
3.535448E+03	3.809111E-02	2.349446E-04
3.537335E+03	3.792843E-02	2.339306E-04
3.539220E+03	3.781731E-02	2.332347E-04
3.541107E+03	3.749236E-02	2.312202E-04
3.542992E+03	3.697087E-02	2.279938E-04
3.544879E+03	3.669186E-02	2.262630E-04
3.546764E+03	3.650258E-02	2.250857E-04
3.548651E+03	3.629615E-02	2.238027E-04
3.550536E+03	3.585511E-02	2.210733E-04
3.552422E+03	3.540656E-02	2.182978E-04
3.554308E+03	3.517738E-02	2.168750E-04
3.556194E+03	3.503023E-02	2.159580E-04
3.558080E+03	3.488689E-02	2.150647E-04
3.559966E+03	3.486552E-02	2.149233E-04
3.561852E+03	3.475264E-02	2.142178E-04
3.563738E+03	3.458453E-02	2.131720E-04
3.565624E+03	3.434594E-02	2.116918E-04
3.567510E+03	3.388266E-02	2.088269E-04
3.569396E+03	3.355089E-02	2.067729E-04
3.571282E+03	3.338483E-02	2.057402E-04
3.573168E+03	3.302083E-02	2.034878E-04
3.575054E+03	3.271783E-02	2.016115E-04
3.576939E+03	3.267366E-02	2.013303E-04
3.578826E+03	3.258951E-02	2.008028E-04
3.580711E+03	3.224098E-02	1.986463E-04
3.582598E+03	3.189254E-02	1.964906E-04
3.584483E+03	3.169249E-02	1.952493E-04
3.586370E+03	3.153620E-02	1.942777E-04
3.588255E+03	3.135331E-02	1.931423E-04
3.590142E+03	3.118566E-02	1.921010E-04
3.592027E+03	3.109784E-02	1.915514E-04
3.593914E+03	3.089604E-02	1.902998E-04
3.595799E+03	3.059934E-02	1.884638E-04
3.597686E+03	3.049637E-02	1.878212E-04
3.599571E+03	3.050730E-02	1.878801E-04
3.601457E+03	3.045747E-02	1.875648E-04
3.603343E+03	3.036586E-02	1.869922E-04
3.605229E+03	3.024201E-02	1.862212E-04
3.607115E+03	3.003282E-02	1.849248E-04
3.609001E+03	3.003038E-02	1.849014E-04
3.610887E+03	3.014735E-02	1.856133E-04
3.612773E+03	3.011070E-02	1.853793E-04
3.614659E+03	3.007971E-02	1.851802E-04
3.616545E+03	3.014532E-02	1.855758E-04
3.618431E+03	3.026392E-02	1.862975E-04
3.620317E+03	3.031425E-02	1.865990E-04
3.622203E+03	3.032097E-02	1.866320E-04
3.624089E+03	3.040905E-02	1.871657E-04
3.625974E+03	3.060306E-02	1.883514E-04
3.627861E+03	3.085560E-02	1.898972E-04
3.629746E+03	3.101718E-02	1.908830E-04
3.631633E+03	3.117299E-02	1.918333E-04
3.633518E+03	3.134760E-02	1.928991E-04
3.635405E+03	3.151642E-02	1.939293E-04
3.637290E+03	3.163598E-02	1.946563E-04
3.639177E+03	3.173468E-02	1.952548E-04
3.641062E+03	3.191831E-02	1.963758E-04
3.642949E+03	3.210748E-02	1.975308E-04
3.644834E+03	3.240985E-02	1.993821E-04
3.646720E+03	3.274412E-02	2.014295E-04
3.648606E+03	3.286680E-02	2.021751E-04
3.650492E+03	3.294221E-02	2.026299E-04
3.652378E+03	3.309490E-02	2.035600E-04
3.654264E+03	3.323240E-02	2.043966E-04
3.656150E+03	3.334151E-02	2.050585E-04
3.658036E+03	3.352405E-02	2.061719E-04
3.659922E+03	3.375926E-02	2.076092E-04
3.661808E+03	3.394343E-02	2.087324E-04
3.663694E+03	3.415950E-02	2.100517E-04
3.665580E+03	3.438674E-02	2.114396E-04
3.667466E+03	3.451215E-02	2.122012E-04
3.669352E+03	3.449060E-02	2.120592E-04
3.671237E+03	3.443890E-02	2.117319E-04
3.673124E+03	3.443049E-02	2.116707E-04
3.675009E+03	3.437312E-02	2.113086E-04
3.676896E+03	3.430823E-02	2.109002E-04
3.678781E+03	3.429410E-02	2.108039E-04
3.680668E+03	3.428183E-02	2.107191E-04
3.682553E+03	3.418871E-02	2.101373E-04
3.684440E+03	3.413692E-02	2.098096E-04
3.686325E+03	3.397432E-02	2.088009E-04
3.688212E+03	3.363334E-02	2.066961E-04
3.690097E+03	3.328122E-02	2.045230E-04
3.691984E+03	3.293490E-02	2.023857E-04
3.693869E+03	3.257745E-02	2.001802E-04
3.695755E+03	3.220703E-02	1.978952E-04
3.697641E+03	3.179924E-02	1.953809E-04
3.699527E+03	3.138976E-02	1.928563E-04
3.701413E+03	3.104606E-02	1.907362E-04
3.703299E+03	3.067816E-02	1.884675E-04
3.705185E+03	3.013242E-02	1.851065E-04
3.707071E+03	2.954009E-02	1.814597E-04
3.708957E+03	2.888251E-02	1.774124E-04
3.710843E+03	2.824022E-02	1.734594E-04
3.712729E+03	2.766938E-02	1.699455E-04
3.714615E+03	2.710816E-02	1.664911E-04
3.716501E+03	2.657902E-02	1.632340E-04
3.718387E+03	2.609688E-02	1.602658E-04
3.720272E+03	2.556451E-02	1.569894E-04
3.722159E+03	2.498379E-02	1.534164E-04
3.724044E+03	2.437720E-02	1.496849E-04
3.725931E+03	2.374849E-02	1.458179E-04
3.727816E+03	2.319109E-02	1.423890E-04
3.729703E+03	2.268250E-02	1.392602E-04
3.731588E+03	2.208643E-02	1.355946E-04
3.733475E+03	2.147201E-02	1.318166E-04
3.735360E+03	2.087096E-02	1.281211E-04
3.737247E+03	2.020123E-02	1.240043E-04
3.739132E+03	1.958405E-02	1.202104E-04
3.741019E+03	1.903430E-02	1.168308E-04
3.742904E+03	1.853199E-02	1.137426E-04
3.744790E+03	1.814601E-02	1.113686E-04
3.746676E+03	1.778984E-02	1.091778E-04
3.748562E+03	1.740314E-02	1.067998E-04
3.750448E+03	1.708253E-02	1.048276E-04
3.752334E+03	1.675576E-02	1.028178E-04
3.754220E+03	1.647103E-02	1.010662E-04
3.756106E+03	1.624744E-02	9.968980E-05
3.757992E+03	1.597990E-02	9.804391E-05
3.759878E+03	1.583796E-02	9.716874E-05
3.761764E+03	1.572528E-02	9.647311E-05
3.763650E+03	1.553034E-02	9.527293E-05
3.765536E+03	1.539308E-02	9.442674E-05
3.767422E+03	1.529246E-02	9.380533E-05
3.769307E+03	1.517351E-02	9.307155E-05
3.771194E+03	1.513441E-02	9.282760E-05
3.773079E+03	1.517045E-02	9.304453E-05
3.774966E+03	1.523910E-02	9.346142E-05
3.776851E+03	1.525560E-02	9.355845E-05
3.778738E+03	1.525576E-02	9.355530E-05
3.780623E+03	1.528722E-02	9.374411E-05
3.782510E+03	1.533922E-02	9.405880E-05
3.784395E+03	1.542896E-02	9.460486E-05
3.786282E+03	1.561248E-02	9.572589E-05
3.788167E+03	1.579829E-02	9.686088E-05
3.790054E+03	1.592736E-02	9.764793E-05
3.791939E+03	1.604469E-02	9.836290E-05
3.793825E+03	1.621779E-02	9.941966E-05
3.795711E+03	1.648152E-02	1.010320E-04
3.797597E+03	1.673769E-02	1.025978E-04
3.799483E+03	1.695915E-02	1.039506E-04
3.801369E+03	1.726948E-02	1.058481E-04
3.803255E+03	1.768467E-02	1.083881E-04
3.805141E+03	1.812266E-02	1.110676E-04
3.807027E+03	1.851831E-02	1.134874E-04
3.808913E+03	1.892587E-02	1.159800E-04
3.810799E+03	1.939219E-02	1.188324E-04
3.812685E+03	1.987295E-02	1.217730E-04
3.814570E+03	2.038841E-02	1.249260E-04
3.816457E+03	2.084643E-02	1.277268E-04
3.818342E+03	2.134285E-02	1.307626E-04
3.820229E+03	2.199359E-02	1.347436E-04
3.822114E+03	2.266233E-02	1.388345E-04
3.824001E+03	2.327175E-02	1.425617E-04
3.825886E+03	2.383297E-02	1.459932E-04
3.827773E+03	2.447656E-02	1.499291E-04
3.829658E+03	2.518775E-02	1.542786E-04
3.831545E+03	2.583967E-02	1.582647E-04
3.833430E+03	2.643972E-02	1.619329E-04
3.835317E+03	2.705409E-02	1.656883E-04
3.837202E+03	2.761663E-02	1.691260E-04
3.839088E+03	2.811089E-02	1.721454E-04
3.840974E+03	2.865802E-02	1.754882E-04
3.842860E+03	2.924332E-02	1.790644E-04
3.844746E+03	2.980989E-02	1.825256E-04
3.846632E+03	3.038709E-02	1.860516E-04
3.848518E+03	3.094007E-02	1.894290E-04
3.850404E+03	3.144506E-02	1.925123E-04
3.852290E+03	3.196802E-02	1.957053E-04
3.854176E+03	3.255286E-02	1.992769E-04
3.856062E+03	3.319589E-02	2.032044E-04
3.857948E+03	3.377993E-02	2.067704E-04
3.859834E+03	3.425383E-02	2.096620E-04
3.861720E+03	3.469449E-02	2.123500E-04
3.863605E+03	3.511840E-02	2.149350E-04
3.865492E+03	3.551460E-02	2.173504E-04
3.867377E+03	3.586668E-02	2.194955E-04
3.869264E+03	3.626782E-02	2.219407E-04
3.871149E+03	3.669607E-02	2.245514E-04
3.873036E+03	3.711488E-02	2.271043E-04
3.874921E+03	3.748780E-02	2.293761E-04
3.876808E+03	3.779296E-02	2.312332E-04
3.878693E+03	3.806875E-02	2.329103E-04
3.880580E+03	3.835707E-02	2.346641E-04
3.882465E+03	3.862698E-02	2.363050E-04
3.884352E+03	3.891308E-02	2.380448E-04
3.886237E+03	3.916983E-02	2.396050E-04
3.888123E+03	3.938818E-02	2.409301E-04
3.890009E+03	3.962637E-02	2.423765E-04
3.891895E+03	3.982981E-02	2.436101E-04
3.893781E+03	3.996764E-02	2.444425E-04
3.895667E+03	4.010536E-02	2.452741E-04
3.897553E+03	4.022298E-02	2.459826E-04
3.899439E+03	4.030054E-02	2.464461E-04
3.901325E+03	4.037256E-02	2.468758E-04
3.903211E+03	4.046631E-02	2.474382E-04
3.905097E+03	4.061805E-02	2.483553E-04
3.906983E+03	4.080414E-02	2.494822E-04
3.908869E+03	4.102090E-02	2.507966E-04
3.910755E+03	4.124659E-02	2.521654E-04
3.912640E+03	4.141589E-02	2.531894E-04
3.914527E+03	4.155428E-02	2.540244E-04
3.916412E+03	4.166538E-02	2.546924E-04
3.918299E+03	4.174742E-02	2.551828E-04
3.920184E+03	4.182395E-02	2.556395E-04
3.922071E+03	4.194384E-02	2.563611E-04
3.923956E+03	4.210342E-02	2.573252E-04
3.925843E+03	4.222671E-02	2.580675E-04
3.927728E+03	4.228844E-02	2.584335E-04
3.929615E+03	4.235732E-02	2.588432E-04
3.931500E+03	4.244964E-02	2.593961E-04
3.933387E+03	4.248950E-02	2.596284E-04
3.935272E+03	4.255278E-02	2.600037E-04
3.937158E+03	4.267556E-02	2.607426E-04
3.939044E+03	4.285054E-02	2.618004E-04
3.940930E+03	4.302900E-02	2.628792E-04
3.942816E+03	4.310456E-02	2.633295E-04
3.944702E+03	4.312599E-02	2.634489E-04
3.946588E+03	4.319603E-02	2.638653E-04
3.948474E+03	4.328220E-02	2.643802E-04
3.950360E+03	4.336109E-02	2.648507E-04
3.952246E+03	4.342193E-02	2.652107E-04
3.954132E+03	4.350429E-02	2.657023E-04
3.956018E+03	4.361175E-02	2.663470E-04
3.957903E+03	4.363824E-02	2.664973E-04
3.959790E+03	4.361076E-02	2.663179E-04
3.961675E+03	4.358688E-02	2.661606E-04
3.963562E+03	4.351810E-02	2.657291E-04
3.965447E+03	4.346371E-02	2.653854E-04
3.967334E+03	4.345959E-02	2.653488E-04
3.969219E+03	4.339268E-02	2.649288E-04
3.971106E+03	4.327557E-02	2.642024E-04
3.972991E+03	4.308144E-02	2.630058E-04
3.974878E+03	4.285515E-02	2.616131E-04
3.976763E+03	4.263976E-02	2.602870E-04
3.978650E+03	4.239047E-02	2.587540E-04
3.980535E+03	4.215745E-02	2.573206E-04
3.982421E+03	4.193891E-02	2.559756E-04
3.984307E+03	4.164535E-02	2.541729E-04
3.986193E+03	4.133230E-02	2.522514E-04
3.988079E+03	4.102840E-02	2.503859E-04
3.989965E+03	4.070504E-02	2.484018E-04
3.991851E+03	4.039081E-02	2.464736E-04
3.993737E+03	4.007323E-02	2.445251E-04
3.995623E+03	3.976120E-02	2.426107E-04
3.997509E+03	3.950828E-02	2.410571E-04
3.999395E+03	3.922876E-02	2.393413E-04
4.001281E+03	3.889413E-02	2.372895E-04
4.003167E+03	3.856863E-02	2.352935E-04
4.005053E+03	3.824870E-02	2.333317E-04
4.006938E+03	3.792185E-02	2.313278E-04
4.008825E+03	3.760235E-02	2.293690E-04
4.010710E+03	3.727237E-02	2.273464E-04
4.012597E+03	3.692659E-02	2.252276E-04
4.014482E+03	3.661308E-02	2.233058E-04
4.016369E+03	3.630332E-02	2.214071E-04
4.018254E+03	3.596000E-02	2.193038E-04
4.020141E+03	3.566489E-02	2.174948E-04
4.022026E+03	3.539840E-02	2.158604E-04
4.023913E+03	3.512500E-02	2.141840E-04
4.025798E+03	3.488196E-02	2.126929E-04
4.027685E+03	3.463198E-02	2.111596E-04
4.029570E+03	3.437684E-02	2.095950E-04
4.031456E+03	3.414316E-02	2.081613E-04
4.033342E+03	3.387240E-02	2.065017E-04
4.035228E+03	3.362486E-02	2.049839E-04
4.037114E+03	3.343775E-02	2.038345E-04
4.039000E+03	3.326315E-02	2.027615E-04
4.040886E+03	3.309929E-02	2.017540E-04
4.042772E+03	3.292491E-02	2.006826E-04
4.044658E+03	3.275420E-02	1.996335E-04
4.046544E+03	3.262428E-02	1.988332E-04
4.048430E+03	3.251389E-02	1.981519E-04
4.050316E+03	3.239651E-02	1.974282E-04
4.052202E+03	3.224211E-02	1.964788E-04
4.054088E+03	3.210193E-02	1.956163E-04
4.055973E+03	3.200069E-02	1.949911E-04
4.057860E+03	3.189423E-02	1.943341E-04
4.059745E+03	3.178077E-02	1.936346E-04
4.061632E+03	3.166563E-02	1.929248E-04
4.063517E+03	3.155938E-02	1.922693E-04
4.065404E+03	3.149022E-02	1.918398E-04
4.067289E+03	3.138586E-02	1.911959E-04
4.069176E+03	3.127100E-02	1.904881E-04
4.071061E+03	3.115799E-02	1.897917E-04
4.072948E+03	3.105033E-02	1.891278E-04
4.074833E+03	3.094803E-02	1.884967E-04
4.076720E+03	3.078774E-02	1.875125E-04
4.078605E+03	3.060119E-02	1.863684E-04
4.080491E+03	3.043233E-02	1.853322E-04
4.082377E+03	3.027767E-02	1.843825E-04
4.084263E+03	3.017579E-02	1.837543E-04
4.086149E+03	3.009155E-02	1.832335E-04
4.088035E+03	2.994593E-02	1.823391E-04
4.089921E+03	2.977057E-02	1.812637E-04
4.091807E+03	2.961990E-02	1.803387E-04
4.093693E+03	2.949213E-02	1.795532E-04
4.095579E+03	2.939074E-02	1.789283E-04
4.097465E+03	2.929117E-02	1.783146E-04
4.099351E+03	2.916189E-02	1.775201E-04
4.101237E+03	2.900820E-02	1.765771E-04
4.103123E+03	2.883884E-02	1.755388E-04
4.105008E+03	2.869585E-02	1.746610E-04
4.106895E+03	2.852673E-02	1.736244E-04
4.108780E+03	2.831925E-02	1.723543E-04
4.110667E+03	2.813466E-02	1.712236E-04
4.112552E+03	2.797115E-02	1.702214E-04
4.114439E+03	2.784094E-02	1.694219E-04
4.116324E+03	2.773178E-02	1.687505E-04
4.118211E+03	2.759652E-02	1.679203E-04
4.120096E+03	2.744564E-02	1.669952E-04
4.121983E+03	2.727917E-02	1.659754E-04
4.123868E+03	2.711457E-02	1.649669E-04
4.125754E+03	2.696577E-02	1.640548E-04
4.127640E+03	2.682752E-02	1.632068E-04
4.129526E+03	2.669287E-02	1.623808E-04
4.131412E+03	2.659138E-02	1.617566E-04
4.133298E+03	2.648650E-02	1.611119E-04
4.135184E+03	2.636950E-02	1.603935E-04
4.137070E+03	2.627347E-02	1.598027E-04
4.138956E+03	2.619315E-02	1.593075E-04
4.140842E+03	2.613375E-02	1.589396E-04
4.142728E+03	2.607789E-02	1.585932E-04
4.144614E+03	2.600119E-02	1.581202E-04
4.146500E+03	2.590199E-02	1.575104E-04
4.148386E+03	2.583933E-02	1.571228E-04
4.150271E+03	2.580100E-02	1.568831E-04
4.152158E+03	2.572453E-02	1.564116E-04
4.154043E+03	2.561344E-02	1.557296E-04
4.155930E+03	2.554404E-02	1.553012E-04
4.157815E+03	2.551108E-02	1.550944E-04
4.159702E+03	2.549720E-02	1.550035E-04
4.161587E+03	2.552145E-02	1.551445E-04
4.163474E+03	2.551105E-02	1.550748E-04
4.165359E+03	2.547990E-02	1.548790E-04
4.167246E+03	2.549376E-02	1.549568E-04
4.169131E+03	2.555085E-02	1.552974E-04
