#wls	flux	fluxerr
1.598322E+03	2.937527E-14	2.716419E-16
1.638280E+03	3.193652E-14	2.943128E-16
1.678238E+03	3.434606E-14	3.154018E-16
1.718196E+03	3.652410E-14	3.341876E-16
1.758154E+03	3.837479E-14	3.498141E-16
1.798112E+03	3.973770E-14	3.608529E-16
1.838070E+03	4.042221E-14	3.656271E-16
1.878028E+03	4.023154E-14	3.624344E-16
1.917986E+03	3.901006E-14	3.499742E-16
1.957944E+03	3.672639E-14	3.280843E-16
1.997902E+03	3.357981E-14	2.986642E-16
2.037860E+03	3.006929E-14	2.662407E-16
2.077818E+03	2.692975E-14	2.373434E-16
2.117776E+03	2.491055E-14	2.185082E-16
2.157734E+03	2.453778E-14	2.141925E-16
2.197692E+03	2.602384E-14	2.260310E-16
2.237650E+03	2.929201E-14	2.531136E-16
2.277609E+03	3.402449E-14	2.924611E-16
2.317567E+03	3.973922E-14	3.397388E-16
2.357525E+03	4.590462E-14	3.902735E-16
2.397483E+03	5.205444E-14	4.400413E-16
2.437441E+03	5.785449E-14	4.862171E-16
2.477399E+03	6.311159E-14	5.272213E-16
2.517357E+03	6.774609E-14	5.624581E-16
2.557315E+03	7.174868E-14	5.919320E-16
2.597273E+03	7.514806E-14	6.159648E-16
2.637231E+03	7.798843E-14	6.350021E-16
2.677189E+03	8.031512E-14	6.494925E-16
2.717147E+03	8.216854E-14	6.598385E-16
2.757105E+03	8.358277E-14	6.663857E-16
2.797063E+03	8.458539E-14	6.694237E-16
2.837021E+03	8.519955E-14	6.692034E-16
2.876979E+03	8.544488E-14	6.659452E-16
2.916937E+03	8.533848E-14	6.598481E-16
2.956895E+03	8.489686E-14	6.511042E-16
2.996853E+03	8.413648E-14	6.399035E-16
3.006843E+03	8.389849E-14	6.367415E-16
3.016832E+03	8.364184E-14	6.334404E-16
3.026822E+03	8.336696E-14	6.300045E-16
3.036811E+03	8.307835E-14	6.264686E-16
3.046801E+03	8.277934E-14	6.228585E-16
3.056790E+03	8.249443E-14	6.193589E-16
3.066780E+03	8.221850E-14	6.159306E-16
3.076769E+03	8.194710E-14	6.125401E-16
3.086759E+03	8.167666E-14	6.091605E-16
3.096748E+03	8.140353E-14	6.057648E-16
3.106738E+03	8.112457E-14	6.023298E-16
3.116727E+03	8.083728E-14	5.988373E-16
3.126717E+03	8.053947E-14	5.952716E-16
3.136706E+03	8.022871E-14	5.916155E-16
3.146696E+03	7.990380E-14	5.878609E-16
3.156685E+03	7.956288E-14	5.839948E-16
3.166675E+03	7.920512E-14	5.800122E-16
3.176665E+03	7.882949E-14	5.759063E-16
3.186654E+03	7.843523E-14	5.716728E-16
3.196644E+03	7.802176E-14	5.673084E-16
3.206633E+03	7.758885E-14	5.628126E-16
3.216623E+03	7.713625E-14	5.581848E-16
3.226612E+03	7.666408E-14	5.534268E-16
3.236602E+03	7.617217E-14	5.485385E-16
3.246591E+03	7.566108E-14	5.435252E-16
3.256581E+03	7.513084E-14	5.383883E-16
3.266570E+03	7.458220E-14	5.331342E-16
3.276560E+03	7.401541E-14	5.277657E-16
3.286549E+03	7.343092E-14	5.222872E-16
3.296539E+03	7.282968E-14	5.167065E-16
3.306528E+03	7.221222E-14	5.110284E-16
3.316518E+03	7.157937E-14	5.052598E-16
3.326507E+03	7.093153E-14	4.994044E-16
3.336497E+03	7.026952E-14	4.934690E-16
3.346486E+03	6.959436E-14	4.874616E-16
3.356476E+03	6.890645E-14	4.813858E-16
3.366465E+03	6.820684E-14	4.752498E-16
3.376455E+03	6.749613E-14	4.690586E-16
3.386444E+03	6.677532E-14	4.628199E-16
3.396434E+03	6.604529E-14	4.565405E-16
3.406423E+03	6.530692E-14	4.502270E-16
3.416413E+03	6.456138E-14	4.438882E-16
3.426402E+03	6.381011E-14	4.375344E-16
3.436392E+03	6.305438E-14	4.311749E-16
3.446381E+03	6.229632E-14	4.248245E-16
3.456371E+03	6.153798E-14	4.184975E-16
3.466360E+03	6.078147E-14	4.122084E-16
3.476350E+03	6.002969E-14	4.059767E-16
3.486339E+03	5.928510E-14	3.998190E-16
3.496329E+03	5.855038E-14	3.937531E-16
3.506318E+03	5.782798E-14	3.877950E-16
3.516308E+03	5.711917E-14	3.819525E-16
3.526297E+03	5.642302E-14	3.762188E-16
3.536287E+03	5.573542E-14	3.705661E-16
3.546276E+03	5.504702E-14	3.649320E-16
3.556266E+03	5.434104E-14	3.592056E-16
3.566255E+03	5.359329E-14	3.532289E-16
3.576245E+03	5.277466E-14	3.468129E-16
3.586234E+03	5.185997E-14	3.397971E-16
3.596224E+03	5.083824E-14	3.321153E-16
3.606213E+03	4.971960E-14	3.238399E-16
3.616203E+03	4.852915E-14	3.151399E-16
3.626192E+03	4.729614E-14	3.062089E-16
3.636182E+03	4.604463E-14	2.972050E-16
3.646172E+03	4.479119E-14	2.882359E-16
3.656161E+03	4.354676E-14	2.793723E-16
3.666151E+03	4.231813E-14	2.706571E-16
3.676140E+03	4.111042E-14	2.621222E-16
3.686130E+03	3.992834E-14	2.537966E-16
3.696119E+03	3.877739E-14	2.457138E-16
3.706109E+03	3.766340E-14	2.379087E-16
3.716098E+03	3.659327E-14	2.304228E-16
3.726088E+03	3.557421E-14	2.232989E-16
3.736077E+03	3.461372E-14	2.165810E-16
3.746067E+03	3.371922E-14	2.103121E-16
3.756056E+03	3.289777E-14	2.045321E-16
3.766046E+03	3.215600E-14	1.992779E-16
3.776035E+03	3.149965E-14	1.945802E-16
3.786025E+03	3.093375E-14	1.904650E-16
3.796014E+03	3.046214E-14	1.869505E-16
3.806004E+03	3.008775E-14	1.840490E-16
3.815993E+03	2.981218E-14	1.817644E-16
3.825983E+03	2.963590E-14	1.800938E-16
3.835972E+03	2.955760E-14	1.790232E-16
3.845962E+03	2.957526E-14	1.785345E-16
3.855951E+03	2.968483E-14	1.785977E-16
3.865941E+03	2.988135E-14	1.791775E-16
3.875930E+03	3.015843E-14	1.802305E-16
3.885920E+03	3.050878E-14	1.817083E-16
3.895909E+03	3.092415E-14	1.835577E-16
3.905899E+03	3.139581E-14	1.857231E-16
3.915888E+03	3.191522E-14	1.881507E-16
3.925878E+03	3.247375E-14	1.907870E-16
3.935867E+03	3.306319E-14	1.935816E-16
3.945857E+03	3.367626E-14	1.964901E-16
3.955846E+03	3.430588E-14	1.994702E-16
3.965836E+03	3.494552E-14	2.024828E-16
3.975825E+03	3.558859E-14	2.054895E-16
3.985815E+03	3.622791E-14	2.084488E-16
3.995804E+03	3.685560E-14	2.113159E-16
4.005794E+03	3.746236E-14	2.140382E-16
4.015783E+03	3.803813E-14	2.165600E-16
4.025773E+03	3.857209E-14	2.188217E-16
4.035762E+03	3.905392E-14	2.207678E-16
4.045752E+03	3.947372E-14	2.223456E-16
4.055741E+03	3.982323E-14	2.235126E-16
4.065731E+03	4.009565E-14	2.242351E-16
4.075720E+03	4.028686E-14	2.244949E-16
4.085710E+03	4.039494E-14	2.242864E-16
4.095700E+03	4.042155E-14	2.236238E-16
4.105689E+03	4.037089E-14	2.225351E-16
4.115679E+03	4.025116E-14	2.210702E-16
4.125668E+03	4.007359E-14	2.192948E-16
4.135658E+03	3.985216E-14	2.172885E-16
4.145647E+03	3.960367E-14	2.151454E-16
4.155637E+03	3.934604E-14	2.129641E-16
4.165626E+03	3.909750E-14	2.108434E-16
4.175616E+03	3.887434E-14	2.088705E-16
4.185605E+03	3.868983E-14	2.071148E-16
4.195595E+03	3.855291E-14	2.056219E-16
4.205584E+03	3.846697E-14	2.044071E-16
4.215574E+03	3.843040E-14	2.034588E-16
4.225563E+03	3.843631E-14	2.027378E-16
4.235553E+03	3.847408E-14	2.021860E-16
4.245542E+03	3.853200E-14	2.017402E-16
4.255532E+03	3.859756E-14	2.013342E-16
4.265521E+03	3.866051E-14	2.009142E-16
4.275511E+03	3.871379E-14	2.004441E-16
4.285500E+03	3.875406E-14	1.999071E-16
4.295490E+03	3.878211E-14	1.993082E-16
4.305479E+03	3.880100E-14	1.986639E-16
4.315469E+03	3.881697E-14	1.980066E-16
4.325458E+03	3.883716E-14	1.973729E-16
4.335448E+03	3.886849E-14	1.967975E-16
4.345437E+03	3.891639E-14	1.963074E-16
4.355427E+03	3.898152E-14	1.959048E-16
4.365416E+03	3.905426E-14	1.955405E-16
4.375406E+03	3.909381E-14	1.950104E-16
4.385395E+03	3.897523E-14	1.936956E-16
4.395385E+03	3.870398E-14	1.916317E-16
4.405374E+03	3.839947E-14	1.894161E-16
4.415364E+03	3.809664E-14	1.872222E-16
4.425353E+03	3.780376E-14	1.850903E-16
4.435343E+03	3.752032E-14	1.830172E-16
4.445332E+03	3.724387E-14	1.809905E-16
4.455322E+03	3.697227E-14	1.789991E-16
4.465311E+03	3.670490E-14	1.770399E-16
4.475301E+03	3.644469E-14	1.751265E-16
4.485290E+03	3.619813E-14	1.732895E-16
4.495280E+03	3.597254E-14	1.715630E-16
4.505269E+03	3.577310E-14	1.699703E-16
4.515259E+03	3.560166E-14	1.685189E-16
4.525248E+03	3.545696E-14	1.672010E-16
4.535238E+03	3.533644E-14	1.660032E-16
4.545228E+03	3.523688E-14	1.649090E-16
4.555217E+03	3.515588E-14	1.639062E-16
4.565207E+03	3.508985E-14	1.629769E-16
4.575196E+03	3.503319E-14	1.620944E-16
4.585186E+03	3.497958E-14	1.612290E-16
4.595175E+03	3.492162E-14	1.603465E-16
4.605165E+03	3.485154E-14	1.594115E-16
4.615154E+03	3.476441E-14	1.584023E-16
4.625144E+03	3.465994E-14	1.573182E-16
4.635133E+03	3.454237E-14	1.561793E-16
4.645123E+03	3.442160E-14	1.550309E-16
4.655112E+03	3.431191E-14	1.539372E-16
4.665102E+03	3.422880E-14	1.529667E-16
4.675091E+03	3.418855E-14	1.521906E-16
4.685081E+03	3.420547E-14	1.516699E-16
4.695070E+03	3.429078E-14	1.514513E-16
4.705060E+03	3.445120E-14	1.515606E-16
4.715049E+03	3.468738E-14	1.519968E-16
4.725039E+03	3.499535E-14	1.527387E-16
4.735028E+03	3.536502E-14	1.537384E-16
4.745018E+03	3.578105E-14	1.549265E-16
4.755007E+03	3.622458E-14	1.562192E-16
4.764997E+03	3.667352E-14	1.575200E-16
4.774986E+03	3.710550E-14	1.587332E-16
4.784976E+03	3.749801E-14	1.597636E-16
4.794965E+03	3.783208E-14	1.605327E-16
4.804955E+03	3.809259E-14	1.609797E-16
4.814944E+03	3.827114E-14	1.610730E-16
4.824934E+03	3.836473E-14	1.608044E-16
4.834923E+03	3.837730E-14	1.601946E-16
4.844913E+03	3.831739E-14	1.592833E-16
4.854902E+03	3.819877E-14	1.581313E-16
4.864892E+03	3.803685E-14	1.568051E-16
4.874881E+03	3.784736E-14	1.553715E-16
4.884871E+03	3.764465E-14	1.538907E-16
4.894860E+03	3.744042E-14	1.524109E-16
4.904850E+03	3.724320E-14	1.509668E-16
4.914839E+03	3.705791E-14	1.495779E-16
4.924829E+03	3.688680E-14	1.482526E-16
4.934818E+03	3.673017E-14	1.469914E-16
4.944808E+03	3.658714E-14	1.457900E-16
4.954797E+03	3.645551E-14	1.446391E-16
4.964787E+03	3.633240E-14	1.435267E-16
4.974776E+03	3.621476E-14	1.424404E-16
4.984766E+03	3.609926E-14	1.413668E-16
4.994756E+03	3.598257E-14	1.402929E-16
5.004745E+03	3.586195E-14	1.392081E-16
5.014735E+03	3.573488E-14	1.381030E-16
5.024724E+03	3.559963E-14	1.369712E-16
5.034714E+03	3.545440E-14	1.358063E-16
5.044703E+03	3.529878E-14	1.346073E-16
5.054693E+03	3.513184E-14	1.333712E-16
5.064682E+03	3.495396E-14	1.320999E-16
5.074672E+03	3.476495E-14	1.307936E-16
5.084661E+03	3.456600E-14	1.294571E-16
5.094651E+03	3.435734E-14	1.280919E-16
5.104640E+03	3.414100E-14	1.267060E-16
5.114630E+03	3.391798E-14	1.253037E-16
5.124619E+03	3.369006E-14	1.238916E-16
5.134609E+03	3.345877E-14	1.224759E-16
5.144598E+03	3.322627E-14	1.210646E-16
5.154588E+03	3.299343E-14	1.196608E-16
5.164577E+03	3.276204E-14	1.182711E-16
5.174567E+03	3.253331E-14	1.168999E-16
5.184556E+03	3.230772E-14	1.155488E-16
5.194546E+03	3.208666E-14	1.142225E-16
5.204535E+03	3.187120E-14	1.129247E-16
5.214525E+03	3.166280E-14	1.116603E-16
5.224514E+03	3.146347E-14	1.104361E-16
5.234504E+03	3.127542E-14	1.092593E-16
5.244493E+03	3.110015E-14	1.081346E-16
5.254483E+03	3.093848E-14	1.070643E-16
5.264472E+03	3.078996E-14	1.060463E-16
5.274462E+03	3.065254E-14	1.050729E-16
5.284451E+03	3.052353E-14	1.041344E-16
5.294441E+03	3.039925E-14	1.032180E-16
5.304430E+03	3.027674E-14	1.023134E-16
5.314420E+03	3.015175E-14	1.014065E-16
5.324409E+03	3.002050E-14	1.004846E-16
5.334399E+03	2.987874E-14	9.953401E-17
5.344388E+03	2.972018E-14	9.853439E-17
5.354378E+03	2.953790E-14	9.746376E-17
5.364367E+03	2.932462E-14	9.629934E-17
5.374357E+03	2.907526E-14	9.502601E-17
5.384346E+03	2.878865E-14	9.364170E-17
5.394336E+03	2.846715E-14	9.215571E-17
5.404325E+03	2.811793E-14	9.059249E-17
5.414315E+03	2.775151E-14	8.898683E-17
5.424304E+03	2.737898E-14	8.737471E-17
5.434294E+03	2.701244E-14	8.579457E-17
5.444284E+03	2.666027E-14	8.427240E-17
5.454273E+03	2.632436E-14	8.281331E-17
5.464263E+03	2.599584E-14	8.138858E-17
5.474252E+03	2.565373E-14	7.993233E-17
5.484242E+03	2.526903E-14	7.835508E-17
5.494231E+03	2.483537E-14	7.663890E-17
5.504221E+03	2.437425E-14	7.485182E-17
5.514210E+03	2.391968E-14	7.309888E-17
5.524200E+03	2.349343E-14	7.144586E-17
5.534189E+03	2.310480E-14	6.991943E-17
5.544179E+03	2.275359E-14	6.851728E-17
5.554168E+03	2.243420E-14	6.722078E-17
5.564158E+03	2.213794E-14	6.600251E-17
5.574147E+03	2.185546E-14	6.483359E-17
5.584137E+03	2.157901E-14	6.369045E-17
5.594126E+03	2.130478E-14	6.256152E-17
5.604116E+03	2.103189E-14	6.144412E-17
5.614105E+03	2.076220E-14	6.034345E-17
5.624095E+03	2.050043E-14	5.927302E-17
5.634084E+03	2.025206E-14	5.824815E-17
5.644074E+03	2.002368E-14	5.728703E-17
5.654063E+03	1.982184E-14	5.640734E-17
5.664053E+03	1.965177E-14	5.562267E-17
5.674042E+03	1.951870E-14	5.494618E-17
5.684032E+03	1.942535E-14	5.438380E-17
5.694021E+03	1.937319E-14	5.393772E-17
5.704011E+03	1.936145E-14	5.360383E-17
5.714000E+03	1.938804E-14	5.337448E-17
5.723990E+03	1.944937E-14	5.323793E-17
5.733979E+03	1.954033E-14	5.317862E-17
5.743969E+03	1.965461E-14	5.317801E-17
5.753958E+03	1.978560E-14	5.321714E-17
5.763948E+03	1.992617E-14	5.327608E-17
5.773937E+03	2.006862E-14	5.333386E-17
5.783927E+03	2.020489E-14	5.336902E-17
5.793916E+03	2.032781E-14	5.336302E-17
5.803906E+03	2.042998E-14	5.329713E-17
5.813895E+03	2.050551E-14	5.315709E-17
5.823885E+03	2.054984E-14	5.293242E-17
5.833874E+03	2.056021E-14	5.261762E-17
5.843864E+03	2.053705E-14	5.221550E-17
5.853853E+03	2.048276E-14	5.173379E-17
5.863843E+03	2.040159E-14	5.118481E-17
5.873832E+03	2.029965E-14	5.058513E-17
5.883822E+03	2.018291E-14	4.995071E-17
5.893811E+03	2.005664E-14	4.929529E-17
5.903801E+03	1.992484E-14	4.862926E-17
5.913791E+03	1.979072E-14	4.796074E-17
5.923780E+03	1.965494E-14	4.729152E-17
5.933770E+03	1.951912E-14	4.662569E-17
5.943759E+03	1.938350E-14	4.596396E-17
5.953749E+03	1.924982E-14	4.531047E-17
5.963738E+03	1.911938E-14	4.466835E-17
5.973728E+03	1.899398E-14	4.404172E-17
5.983717E+03	1.887565E-14	4.343510E-17
5.993707E+03	1.876566E-14	4.285119E-17
6.003696E+03	1.866527E-14	4.229253E-17
6.013686E+03	1.857591E-14	4.176203E-17
6.023675E+03	1.849760E-14	4.125932E-17
6.033665E+03	1.843064E-14	4.078460E-17
6.043654E+03	1.837555E-14	4.033867E-17
6.053644E+03	1.833162E-14	3.991950E-17
6.063633E+03	1.829874E-14	3.952652E-17
6.073623E+03	1.827616E-14	3.915775E-17
6.083612E+03	1.826324E-14	3.881155E-17
6.093602E+03	1.825952E-14	3.848666E-17
6.103591E+03	1.826362E-14	3.818001E-17
6.113581E+03	1.827471E-14	3.788979E-17
6.123570E+03	1.829212E-14	3.761455E-17
6.133560E+03	1.831536E-14	3.735331E-17
6.143549E+03	1.834366E-14	3.710456E-17
6.153539E+03	1.837753E-14	3.686946E-17
6.163528E+03	1.841671E-14	3.664763E-17
6.173518E+03	1.846080E-14	3.643842E-17
6.183507E+03	1.850986E-14	3.624216E-17
6.193497E+03	1.856198E-14	3.605541E-17
6.203486E+03	1.861629E-14	3.587681E-17
6.213476E+03	1.867084E-14	3.570310E-17
6.223465E+03	1.872397E-14	3.553169E-17
6.233455E+03	1.877517E-14	3.536222E-17
6.243444E+03	1.882537E-14	3.519712E-17
6.253434E+03	1.887730E-14	3.504217E-17
6.263423E+03	1.893505E-14	3.490544E-17
6.273413E+03	1.900410E-14	3.479745E-17
6.283402E+03	1.909022E-14	3.472898E-17
6.293392E+03	1.919981E-14	3.471180E-17
6.303381E+03	1.933819E-14	3.475550E-17
6.313371E+03	1.951012E-14	3.486861E-17
6.323360E+03	1.971935E-14	3.505778E-17
6.333350E+03	1.996783E-14	3.532657E-17
6.343339E+03	2.025787E-14	3.567925E-17
6.353329E+03	2.058814E-14	3.611389E-17
6.363319E+03	2.095705E-14	3.662836E-17
6.373308E+03	2.135992E-14	3.721544E-17
6.383298E+03	2.178892E-14	3.786273E-17
6.393287E+03	2.223365E-14	3.855376E-17
6.403277E+03	2.267980E-14	3.926555E-17
6.413266E+03	2.310873E-14	3.996787E-17
6.423256E+03	2.349887E-14	4.062551E-17
6.433245E+03	2.382343E-14	4.119413E-17
6.443235E+03	2.405493E-14	4.162782E-17
6.453224E+03	2.416714E-14	4.188209E-17
6.463214E+03	2.413938E-14	4.192112E-17
6.473203E+03	2.396595E-14	4.173389E-17
6.483193E+03	2.366279E-14	4.134605E-17
6.493182E+03	2.327510E-14	4.083363E-17
6.503172E+03	2.288068E-14	4.033018E-17
6.513161E+03	2.260071E-14	4.004848E-17
6.523151E+03	2.262821E-14	4.033430E-17
6.533140E+03	2.302402E-14	4.130599E-17
6.543130E+03	2.362114E-14	4.267527E-17
6.553119E+03	2.430029E-14	4.423388E-17
6.563109E+03	2.498224E-14	4.584115E-17
6.573098E+03	2.561092E-14	4.739473E-17
6.583088E+03	2.614640E-14	4.881861E-17
6.593077E+03	2.656648E-14	5.006703E-17
6.603067E+03	2.686233E-14	5.111739E-17
6.613056E+03	2.703590E-14	5.196656E-17
6.623046E+03	2.709687E-14	5.262590E-17
6.633035E+03	2.705964E-14	5.311620E-17
6.643025E+03	2.694084E-14	5.346339E-17
6.653014E+03	2.675697E-14	5.369425E-17
6.663004E+03	2.652524E-14	5.383813E-17
6.672993E+03	2.625971E-14	5.391936E-17
6.682983E+03	2.597301E-14	5.396048E-17
6.692972E+03	2.567569E-14	5.398084E-17
6.702962E+03	2.537580E-14	5.399553E-17
6.712951E+03	2.508047E-14	5.401855E-17
6.722941E+03	2.479467E-14	5.405992E-17
6.732930E+03	2.452142E-14	5.412599E-17
6.742920E+03	2.426402E-14	5.422414E-17
6.752909E+03	2.402254E-14	5.435489E-17
6.762899E+03	2.379886E-14	5.452300E-17
6.772888E+03	2.359307E-14	5.472940E-17
6.782878E+03	2.340606E-14	5.497695E-17
6.792867E+03	2.323770E-14	5.526633E-17
6.802857E+03	2.308787E-14	5.559819E-17
6.812847E+03	2.295772E-14	5.597642E-17
6.822836E+03	2.284689E-14	5.640141E-17
6.832826E+03	2.275533E-14	5.687423E-17
6.842815E+03	2.268222E-14	5.739417E-17
6.852805E+03	2.262733E-14	5.796189E-17
6.862794E+03	2.258914E-14	5.857479E-17
6.872784E+03	2.256667E-14	5.923151E-17
6.882773E+03	2.255769E-14	5.992726E-17
6.892763E+03	2.256016E-14	6.065754E-17
6.902752E+03	2.257234E-14	6.141841E-17
6.912742E+03	2.259106E-14	6.220185E-17
6.922731E+03	2.261510E-14	6.300477E-17
6.932721E+03	2.264155E-14	6.381931E-17
6.942710E+03	2.266922E-14	6.464199E-17
6.952700E+03	2.269626E-14	6.546744E-17
6.962689E+03	2.272212E-14	6.629373E-17
6.972679E+03	2.274612E-14	6.711853E-17
6.982668E+03	2.276694E-14	6.793753E-17
6.992658E+03	2.278546E-14	6.875283E-17
7.002647E+03	2.280138E-14	6.956316E-17
7.012637E+03	2.281513E-14	7.036935E-17
7.022626E+03	2.282686E-14	7.117150E-17
7.032616E+03	2.283781E-14	7.197315E-17
7.042605E+03	2.284885E-14	7.277678E-17
7.052595E+03	2.286079E-14	7.358493E-17
7.062584E+03	2.287392E-14	7.439843E-17
7.072574E+03	2.288884E-14	7.521923E-17
7.082563E+03	2.290597E-14	7.604880E-17
7.092553E+03	2.292551E-14	7.688790E-17
7.102542E+03	2.294792E-14	7.773816E-17
7.112532E+03	2.297188E-14	7.859529E-17
7.122521E+03	2.299730E-14	7.945897E-17
7.132511E+03	2.302277E-14	8.032434E-17
7.142500E+03	2.304812E-14	8.119073E-17
7.152490E+03	2.307049E-14	8.204780E-17
7.162479E+03	2.308942E-14	8.289352E-17
7.172469E+03	2.310303E-14	8.372062E-17
7.182458E+03	2.311064E-14	8.452599E-17
7.192448E+03	2.311033E-14	8.530183E-17
7.202437E+03	2.310200E-14	8.604696E-17
7.212427E+03	2.308536E-14	8.675930E-17
7.222416E+03	2.306033E-14	8.743767E-17
7.232406E+03	2.302699E-14	8.808149E-17
7.242395E+03	2.298502E-14	8.868862E-17
7.252385E+03	2.293472E-14	8.925924E-17
7.262375E+03	2.287701E-14	8.979616E-17
7.272364E+03	2.281197E-14	9.029884E-17
7.282354E+03	2.274082E-14	9.077143E-17
7.292343E+03	2.266341E-14	9.121261E-17
7.302333E+03	2.258123E-14	9.162777E-17
7.312322E+03	2.249587E-14	9.202295E-17
7.322312E+03	2.240741E-14	9.239810E-17
7.332301E+03	2.231752E-14	9.275981E-17
7.342291E+03	2.222729E-14	9.311255E-17
7.352280E+03	2.213724E-14	9.345838E-17
7.362270E+03	2.204879E-14	9.380336E-17
7.372259E+03	2.196215E-14	9.414856E-17
7.382249E+03	2.187841E-14	9.449882E-17
7.392238E+03	2.179742E-14	9.485375E-17
7.402228E+03	2.171988E-14	9.521670E-17
7.412217E+03	2.164533E-14	9.558590E-17
7.422207E+03	2.157368E-14	9.596129E-17
7.432196E+03	2.150529E-14	9.634468E-17
7.442186E+03	2.143936E-14	9.673283E-17
7.452175E+03	2.137611E-14	9.712696E-17
7.462165E+03	2.131464E-14	9.752317E-17
7.472154E+03	2.125511E-14	9.792237E-17
7.482144E+03	2.119769E-14	9.832550E-17
7.492133E+03	2.114098E-14	9.872623E-17
7.502123E+03	2.108630E-14	9.913086E-17
7.512112E+03	2.103186E-14	9.953105E-17
7.522102E+03	2.097917E-14	9.993406E-17
7.532091E+03	2.092825E-14	1.003401E-16
7.542081E+03	2.087868E-14	1.007474E-16
7.552070E+03	2.083065E-14	1.011568E-16
7.562060E+03	2.078548E-14	1.015751E-16
7.572049E+03	2.074285E-14	1.020009E-16
7.582039E+03	2.070291E-14	1.024352E-16
7.592028E+03	2.066682E-14	1.028840E-16
7.602018E+03	2.063337E-14	1.033416E-16
7.612007E+03	2.060287E-14	1.038098E-16
7.621997E+03	2.057548E-14	1.042896E-16
7.631986E+03	2.055006E-14	1.047756E-16
7.641976E+03	2.052702E-14	1.052700E-16
7.651965E+03	2.050427E-14	1.057622E-16
7.661955E+03	2.048128E-14	1.062495E-16
7.671944E+03	2.045736E-14	1.067283E-16
7.681934E+03	2.043061E-14	1.071885E-16
7.691923E+03	2.040027E-14	1.076259E-16
7.701913E+03	2.036443E-14	1.080301E-16
7.711903E+03	2.032312E-14	1.084007E-16
7.721892E+03	2.027474E-14	1.087285E-16
7.731882E+03	2.021849E-14	1.090089E-16
7.741871E+03	2.015444E-14	1.092414E-16
7.751861E+03	2.008172E-14	1.094207E-16
