#wls	flux	fluxerr
1.598322E+03	2.308383E-14	1.446252E-16
1.638280E+03	2.511291E-14	1.567982E-16
1.678238E+03	2.701186E-14	1.680603E-16
1.718196E+03	2.871354E-14	1.780008E-16
1.758154E+03	3.013834E-14	1.861383E-16
1.798112E+03	3.115698E-14	1.916940E-16
1.838070E+03	3.161848E-14	1.937695E-16
1.878028E+03	3.137062E-14	1.914750E-16
1.917986E+03	3.029842E-14	1.841643E-16
1.957944E+03	2.838939E-14	1.718261E-16
1.997902E+03	2.581370E-14	1.555537E-16
2.037860E+03	2.297127E-14	1.378036E-16
2.077818E+03	2.043302E-14	1.220115E-16
2.117776E+03	1.876418E-14	1.115157E-16
2.157734E+03	1.834599E-14	1.085001E-16
2.197692E+03	1.931597E-14	1.136661E-16
2.237650E+03	2.159797E-14	1.264429E-16
2.277609E+03	2.494319E-14	1.452582E-16
2.317567E+03	2.898369E-14	1.678758E-16
2.357525E+03	3.331619E-14	1.918990E-16
2.397483E+03	3.758692E-14	2.152646E-16
2.437441E+03	4.153987E-14	2.365121E-16
2.477399E+03	4.502304E-14	2.548051E-16
2.517357E+03	4.796891E-14	2.698043E-16
2.557315E+03	5.036801E-14	2.815069E-16
2.597273E+03	5.224519E-14	2.901035E-16
2.637231E+03	5.364222E-14	2.958775E-16
2.677189E+03	5.460687E-14	2.991404E-16
2.717147E+03	5.518643E-14	3.001962E-16
2.757105E+03	5.542456E-14	2.993236E-16
2.797063E+03	5.536017E-14	2.967705E-16
2.837021E+03	5.502724E-14	2.927541E-16
2.876979E+03	5.445535E-14	2.874638E-16
2.916937E+03	5.367063E-14	2.810673E-16
2.956895E+03	5.269630E-14	2.737138E-16
2.996853E+03	5.155360E-14	2.655392E-16
3.006843E+03	5.124393E-14	2.633820E-16
3.016832E+03	5.092527E-14	2.611832E-16
3.026822E+03	5.059801E-14	2.589452E-16
3.036811E+03	5.026483E-14	2.566819E-16
3.046801E+03	4.992818E-14	2.544062E-16
3.056790E+03	4.960246E-14	2.521913E-16
3.066780E+03	4.928484E-14	2.500226E-16
3.076769E+03	4.897259E-14	2.478861E-16
3.086759E+03	4.866331E-14	2.457695E-16
3.096748E+03	4.835510E-14	2.436632E-16
3.106738E+03	4.804603E-14	2.415574E-16
3.116727E+03	4.773473E-14	2.394455E-16
3.126717E+03	4.741982E-14	2.373205E-16
3.136706E+03	4.710017E-14	2.351771E-16
3.146696E+03	4.677486E-14	2.330108E-16
3.156685E+03	4.644314E-14	2.308182E-16
3.166675E+03	4.610443E-14	2.285967E-16
3.176665E+03	4.575825E-14	2.263442E-16
3.186654E+03	4.540437E-14	2.240598E-16
3.196644E+03	4.504256E-14	2.217429E-16
3.206633E+03	4.467256E-14	2.193923E-16
3.216623E+03	4.429459E-14	2.170096E-16
3.226612E+03	4.390856E-14	2.145946E-16
3.236602E+03	4.351478E-14	2.121492E-16
3.246591E+03	4.311328E-14	2.096740E-16
3.256581E+03	4.270449E-14	2.071712E-16
3.266570E+03	4.228871E-14	2.046428E-16
3.276560E+03	4.186624E-14	2.020903E-16
3.286549E+03	4.143761E-14	1.995168E-16
3.296539E+03	4.100311E-14	1.969238E-16
3.306528E+03	4.056332E-14	1.943145E-16
3.316518E+03	4.011861E-14	1.916909E-16
3.326507E+03	3.966956E-14	1.890559E-16
3.336497E+03	3.921663E-14	1.864121E-16
3.346486E+03	3.876027E-14	1.837616E-16
3.356476E+03	3.830114E-14	1.811079E-16
3.366465E+03	3.783949E-14	1.784523E-16
3.376455E+03	3.737611E-14	1.757986E-16
3.386444E+03	3.691136E-14	1.731487E-16
3.396434E+03	3.644584E-14	1.705055E-16
3.406423E+03	3.598014E-14	1.678719E-16
3.416413E+03	3.551478E-14	1.652503E-16
3.426402E+03	3.505045E-14	1.626440E-16
3.436392E+03	3.458769E-14	1.600555E-16
3.446381E+03	3.412710E-14	1.574876E-16
3.456371E+03	3.366940E-14	1.549435E-16
3.466360E+03	3.321509E-14	1.524256E-16
3.476350E+03	3.276467E-14	1.499361E-16
3.486339E+03	3.231831E-14	1.474756E-16
3.496329E+03	3.187572E-14	1.450426E-16
3.506318E+03	3.143611E-14	1.426336E-16
3.516308E+03	3.099771E-14	1.402405E-16
3.526297E+03	3.055715E-14	1.378481E-16
3.536287E+03	3.010971E-14	1.354352E-16
3.546276E+03	2.964861E-14	1.329719E-16
3.556266E+03	2.916529E-14	1.304204E-16
3.566255E+03	2.865016E-14	1.277389E-16
3.576245E+03	2.809449E-14	1.248898E-16
3.586234E+03	2.749234E-14	1.218487E-16
3.596224E+03	2.684291E-14	1.186138E-16
3.606213E+03	2.615117E-14	1.152090E-16
3.616203E+03	2.542690E-14	1.116790E-16
3.626192E+03	2.468182E-14	1.080765E-16
3.636182E+03	2.392780E-14	1.044543E-16
3.646172E+03	2.317504E-14	1.008572E-16
3.656161E+03	2.243166E-14	9.732030E-17
3.666151E+03	2.170397E-14	9.387077E-17
3.676140E+03	2.099675E-14	9.052853E-17
3.686130E+03	2.031390E-14	8.730966E-17
3.696119E+03	1.965855E-14	8.422663E-17
3.706109E+03	1.903364E-14	8.129089E-17
3.716098E+03	1.844193E-14	7.851306E-17
3.726088E+03	1.788586E-14	7.590221E-17
3.736077E+03	1.736797E-14	7.346759E-17
3.746067E+03	1.689030E-14	7.121632E-17
3.756056E+03	1.645494E-14	6.915566E-17
3.766046E+03	1.606357E-14	6.729083E-17
3.776035E+03	1.571759E-14	6.562594E-17
3.786025E+03	1.541805E-14	6.416357E-17
3.796014E+03	1.516559E-14	6.290443E-17
3.806004E+03	1.496054E-14	6.184799E-17
3.815993E+03	1.480271E-14	6.099154E-17
3.825983E+03	1.469159E-14	6.033103E-17
3.835972E+03	1.462610E-14	5.986015E-17
3.845962E+03	1.460483E-14	5.957126E-17
3.855951E+03	1.462582E-14	5.945456E-17
3.865941E+03	1.468678E-14	5.949907E-17
3.875930E+03	1.478495E-14	5.969196E-17
3.885920E+03	1.491739E-14	6.001988E-17
3.895909E+03	1.508068E-14	6.046771E-17
3.905899E+03	1.527145E-14	6.102068E-17
3.915888E+03	1.548605E-14	6.166315E-17
3.925878E+03	1.572092E-14	6.238001E-17
3.935867E+03	1.597246E-14	6.315620E-17
3.945857E+03	1.623717E-14	6.397723E-17
3.955846E+03	1.651144E-14	6.482836E-17
3.965836E+03	1.679175E-14	6.569552E-17
3.975825E+03	1.707429E-14	6.656355E-17
3.985815E+03	1.735511E-14	6.741705E-17
3.995804E+03	1.762994E-14	6.823961E-17
4.005794E+03	1.789409E-14	6.901337E-17
4.015783E+03	1.814285E-14	6.972072E-17
4.025773E+03	1.837134E-14	7.034361E-17
4.035762E+03	1.857493E-14	7.086529E-17
4.045752E+03	1.874937E-14	7.127067E-17
4.055741E+03	1.889108E-14	7.154739E-17
4.065731E+03	1.899752E-14	7.168725E-17
4.075720E+03	1.906712E-14	7.168588E-17
4.085710E+03	1.909937E-14	7.154292E-17
4.095700E+03	1.909528E-14	7.126365E-17
4.105689E+03	1.905699E-14	7.085764E-17
4.115679E+03	1.898802E-14	7.033934E-17
4.125668E+03	1.889312E-14	6.972754E-17
4.135658E+03	1.877773E-14	6.904340E-17
4.145647E+03	1.864820E-14	6.831095E-17
4.155637E+03	1.851099E-14	6.755444E-17
4.165626E+03	1.837235E-14	6.679689E-17
4.175616E+03	1.823777E-14	6.605828E-17
4.185605E+03	1.811166E-14	6.535435E-17
4.195595E+03	1.799668E-14	6.469433E-17
4.205584E+03	1.789419E-14	6.408268E-17
4.215574E+03	1.780361E-14	6.351679E-17
4.225563E+03	1.772300E-14	6.298937E-17
4.235553E+03	1.764964E-14	6.249031E-17
4.245542E+03	1.758013E-14	6.200742E-17
4.255532E+03	1.751126E-14	6.152924E-17
4.265521E+03	1.744032E-14	6.104630E-17
4.275511E+03	1.736555E-14	6.055256E-17
4.285500E+03	1.728606E-14	6.004508E-17
4.295490E+03	1.720191E-14	5.952428E-17
4.305479E+03	1.711379E-14	5.899273E-17
4.315469E+03	1.702285E-14	5.845457E-17
4.325458E+03	1.692989E-14	5.791263E-17
4.335448E+03	1.683554E-14	5.736921E-17
4.345437E+03	1.673963E-14	5.682370E-17
4.355427E+03	1.664084E-14	5.627173E-17
4.365416E+03	1.653860E-14	5.571146E-17
4.375406E+03	1.644016E-14	5.516728E-17
4.385395E+03	1.638264E-14	5.476309E-17
4.395385E+03	1.636271E-14	5.448621E-17
4.405374E+03	1.634212E-14	5.420831E-17
4.415364E+03	1.631290E-14	5.390304E-17
4.425353E+03	1.627537E-14	5.357176E-17
4.435343E+03	1.623063E-14	5.321838E-17
4.445332E+03	1.617993E-14	5.284726E-17
4.455322E+03	1.612451E-14	5.246257E-17
4.465311E+03	1.606622E-14	5.207049E-17
4.475301E+03	1.600745E-14	5.167886E-17
4.485290E+03	1.595096E-14	5.129650E-17
4.495280E+03	1.589932E-14	5.093157E-17
4.505269E+03	1.585495E-14	5.059159E-17
4.515259E+03	1.581945E-14	5.028131E-17
4.525248E+03	1.579347E-14	5.000248E-17
4.535238E+03	1.577702E-14	4.975477E-17
4.545228E+03	1.576966E-14	4.953636E-17
4.555217E+03	1.577062E-14	4.934456E-17
4.565207E+03	1.577857E-14	4.917486E-17
4.575196E+03	1.579174E-14	4.902153E-17
4.585186E+03	1.580832E-14	4.887874E-17
4.595175E+03	1.582621E-14	4.873986E-17
4.605165E+03	1.584363E-14	4.859943E-17
4.615154E+03	1.585939E-14	4.845376E-17
4.625144E+03	1.587383E-14	4.830397E-17
4.635133E+03	1.588830E-14	4.815422E-17
4.645123E+03	1.590584E-14	4.801361E-17
4.655112E+03	1.593040E-14	4.789390E-17
4.665102E+03	1.596657E-14	4.780864E-17
4.675091E+03	1.601934E-14	4.777218E-17
4.685081E+03	1.609267E-14	4.779575E-17
4.695070E+03	1.618976E-14	4.788801E-17
4.705060E+03	1.631246E-14	4.805357E-17
4.715049E+03	1.646065E-14	4.829111E-17
4.725039E+03	1.663257E-14	4.859460E-17
4.735028E+03	1.682438E-14	4.895201E-17
4.745018E+03	1.703086E-14	4.934746E-17
4.755007E+03	1.724519E-14	4.976077E-17
4.764997E+03	1.746012E-14	5.017082E-17
4.774986E+03	1.766772E-14	5.055488E-17
4.784976E+03	1.786066E-14	5.089234E-17
4.794965E+03	1.803256E-14	5.116564E-17
4.804955E+03	1.817838E-14	5.136127E-17
4.814944E+03	1.829522E-14	5.147206E-17
4.824934E+03	1.838169E-14	5.149509E-17
4.834923E+03	1.843929E-14	5.143569E-17
4.844913E+03	1.847041E-14	5.130155E-17
4.854902E+03	1.847959E-14	5.110613E-17
4.864892E+03	1.847169E-14	5.086363E-17
4.874881E+03	1.845198E-14	5.058910E-17
4.884871E+03	1.842555E-14	5.029687E-17
4.894860E+03	1.839632E-14	4.999784E-17
4.904850E+03	1.836785E-14	4.970174E-17
4.914839E+03	1.834221E-14	4.941410E-17
4.924829E+03	1.832079E-14	4.913859E-17
4.934818E+03	1.830386E-14	4.887580E-17
4.944808E+03	1.829136E-14	4.862537E-17
4.954797E+03	1.828272E-14	4.838567E-17
4.964787E+03	1.827653E-14	4.815283E-17
4.974776E+03	1.827176E-14	4.792410E-17
4.984766E+03	1.826693E-14	4.769559E-17
4.994756E+03	1.826039E-14	4.746299E-17
5.004745E+03	1.825100E-14	4.722345E-17
5.014735E+03	1.823746E-14	4.697371E-17
5.024724E+03	1.821848E-14	4.671064E-17
5.034714E+03	1.819349E-14	4.643298E-17
5.044703E+03	1.816169E-14	4.613897E-17
5.054693E+03	1.812273E-14	4.582790E-17
5.064682E+03	1.807680E-14	4.550058E-17
5.074672E+03	1.802407E-14	4.515768E-17
5.084661E+03	1.796478E-14	4.480002E-17
5.094651E+03	1.789968E-14	4.442977E-17
5.104640E+03	1.782973E-14	4.404945E-17
5.114630E+03	1.775582E-14	4.366148E-17
5.124619E+03	1.767892E-14	4.326836E-17
5.134609E+03	1.760017E-14	4.287304E-17
5.144598E+03	1.752041E-14	4.247756E-17
5.154588E+03	1.744083E-14	4.208491E-17
5.164577E+03	1.736226E-14	4.169704E-17
5.174567E+03	1.728539E-14	4.131565E-17
5.184556E+03	1.721088E-14	4.094218E-17
5.194546E+03	1.713934E-14	4.057809E-17
5.204535E+03	1.707174E-14	4.022556E-17
5.214525E+03	1.700876E-14	3.988607E-17
5.224514E+03	1.695093E-14	3.956069E-17
5.234504E+03	1.689914E-14	3.925138E-17
5.244493E+03	1.685358E-14	3.895838E-17
5.254483E+03	1.681438E-14	3.868181E-17
5.264472E+03	1.678104E-14	3.842035E-17
5.274462E+03	1.675273E-14	3.817189E-17
5.284451E+03	1.672797E-14	3.793299E-17
5.294441E+03	1.670494E-14	3.769943E-17
5.304430E+03	1.668152E-14	3.746643E-17
5.314420E+03	1.665554E-14	3.722915E-17
5.324409E+03	1.662441E-14	3.698197E-17
5.334399E+03	1.658545E-14	3.671912E-17
5.344388E+03	1.653542E-14	3.643376E-17
5.354378E+03	1.647122E-14	3.611947E-17
5.364367E+03	1.639049E-14	3.577152E-17
5.374357E+03	1.629127E-14	3.538622E-17
5.384346E+03	1.617331E-14	3.496361E-17
5.394336E+03	1.603790E-14	3.450706E-17
5.404325E+03	1.588767E-14	3.402268E-17
5.414315E+03	1.572654E-14	3.351927E-17
5.424304E+03	1.555859E-14	3.300567E-17
5.434294E+03	1.538728E-14	3.248930E-17
5.444284E+03	1.521425E-14	3.197358E-17
5.454273E+03	1.503843E-14	3.145626E-17
5.464263E+03	1.485523E-14	3.092776E-17
5.474252E+03	1.465840E-14	3.037524E-17
5.484242E+03	1.444221E-14	2.978717E-17
5.494231E+03	1.420718E-14	2.916514E-17
5.504221E+03	1.395893E-14	2.852104E-17
5.514210E+03	1.370777E-14	2.787616E-17
5.524200E+03	1.346277E-14	2.724885E-17
5.534189E+03	1.322984E-14	2.665079E-17
5.544179E+03	1.301185E-14	2.608728E-17
5.554168E+03	1.280815E-14	2.555655E-17
5.564158E+03	1.261714E-14	2.505496E-17
5.574147E+03	1.243603E-14	2.457656E-17
5.584137E+03	1.226271E-14	2.411688E-17
5.594126E+03	1.209561E-14	2.367258E-17
5.604116E+03	1.193426E-14	2.324250E-17
5.614105E+03	1.177955E-14	2.282818E-17
5.624095E+03	1.163282E-14	2.243198E-17
5.634084E+03	1.149635E-14	2.205798E-17
5.644074E+03	1.137268E-14	2.171072E-17
5.654063E+03	1.126426E-14	2.139444E-17
5.664053E+03	1.117342E-14	2.111308E-17
5.674042E+03	1.110187E-14	2.086930E-17
5.684032E+03	1.105068E-14	2.066452E-17
5.694021E+03	1.102031E-14	2.049897E-17
5.704011E+03	1.101032E-14	2.037116E-17
5.714000E+03	1.101949E-14	2.027824E-17
5.723990E+03	1.104616E-14	2.021655E-17
5.733979E+03	1.108766E-14	2.018067E-17
5.743969E+03	1.114095E-14	2.016459E-17
5.753958E+03	1.120273E-14	2.016201E-17
5.763948E+03	1.126932E-14	2.016601E-17
5.773937E+03	1.133701E-14	2.016983E-17
5.783927E+03	1.140197E-14	2.016661E-17
5.793916E+03	1.146034E-14	2.014964E-17
5.803906E+03	1.150910E-14	2.011376E-17
5.813895E+03	1.154527E-14	2.005411E-17
5.823885E+03	1.156696E-14	1.996779E-17
5.833874E+03	1.157301E-14	1.985327E-17
5.843864E+03	1.156331E-14	1.971083E-17
5.853853E+03	1.153884E-14	1.954265E-17
5.863843E+03	1.150111E-14	1.935176E-17
5.873832E+03	1.145266E-14	1.914282E-17
5.883822E+03	1.139555E-14	1.891965E-17
5.893811E+03	1.133243E-14	1.868691E-17
5.903801E+03	1.126513E-14	1.844782E-17
5.913791E+03	1.119544E-14	1.820543E-17
5.923780E+03	1.112475E-14	1.796213E-17
5.933770E+03	1.105369E-14	1.771897E-17
5.943759E+03	1.098347E-14	1.747793E-17
5.953749E+03	1.091494E-14	1.724033E-17
5.963738E+03	1.084883E-14	1.700730E-17
5.973728E+03	1.078638E-14	1.678072E-17
5.983717E+03	1.072827E-14	1.656156E-17
5.993707E+03	1.067550E-14	1.635121E-17
6.003696E+03	1.062871E-14	1.615053E-17
6.013686E+03	1.058862E-14	1.596039E-17
6.023675E+03	1.055527E-14	1.578067E-17
6.033665E+03	1.052943E-14	1.561232E-17
6.043654E+03	1.051107E-14	1.545505E-17
6.053644E+03	1.050022E-14	1.530868E-17
6.063633E+03	1.049700E-14	1.517318E-17
6.073623E+03	1.050128E-14	1.504813E-17
6.083612E+03	1.051307E-14	1.493332E-17
6.093602E+03	1.053173E-14	1.482764E-17
6.103591E+03	1.055737E-14	1.473106E-17
6.113581E+03	1.058951E-14	1.464274E-17
6.123570E+03	1.062787E-14	1.456214E-17
6.133560E+03	1.067222E-14	1.448879E-17
6.143549E+03	1.072236E-14	1.442231E-17
6.153539E+03	1.077770E-14	1.436182E-17
6.163528E+03	1.083782E-14	1.430667E-17
6.173518E+03	1.090282E-14	1.425697E-17
6.183507E+03	1.097150E-14	1.421111E-17
6.193497E+03	1.104353E-14	1.416869E-17
6.203486E+03	1.111814E-14	1.412877E-17
6.213476E+03	1.119462E-14	1.409057E-17
6.223465E+03	1.127275E-14	1.405393E-17
6.233455E+03	1.135234E-14	1.401877E-17
6.243444E+03	1.143423E-14	1.398631E-17
6.253434E+03	1.151981E-14	1.395837E-17
6.263423E+03	1.161131E-14	1.393779E-17
6.273413E+03	1.171128E-14	1.392768E-17
6.283402E+03	1.182259E-14	1.393145E-17
6.293392E+03	1.194858E-14	1.395296E-17
6.303381E+03	1.209173E-14	1.399500E-17
6.313371E+03	1.225461E-14	1.406039E-17
6.323360E+03	1.243927E-14	1.415131E-17
6.333350E+03	1.264709E-14	1.426920E-17
6.343339E+03	1.287824E-14	1.441413E-17
6.353329E+03	1.313267E-14	1.458606E-17
6.363319E+03	1.340908E-14	1.478362E-17
6.373308E+03	1.370496E-14	1.500426E-17
6.383298E+03	1.401580E-14	1.524347E-17
6.393287E+03	1.433661E-14	1.549639E-17
6.403277E+03	1.465955E-14	1.575531E-17
6.413266E+03	1.497611E-14	1.601209E-17
6.423256E+03	1.527495E-14	1.625575E-17
6.433245E+03	1.554451E-14	1.647532E-17
6.443235E+03	1.577296E-14	1.665965E-17
6.453224E+03	1.595034E-14	1.679960E-17
6.463214E+03	1.607091E-14	1.689043E-17
6.473203E+03	1.613763E-14	1.693630E-17
6.483193E+03	1.616288E-14	1.695100E-17
6.493182E+03	1.617242E-14	1.696210E-17
6.503172E+03	1.620308E-14	1.700863E-17
6.513161E+03	1.629197E-14	1.713008E-17
6.523151E+03	1.641955E-14	1.730669E-17
6.533140E+03	1.657254E-14	1.752533E-17
6.543130E+03	1.680448E-14	1.784365E-17
6.553119E+03	1.709385E-14	1.824017E-17
6.563109E+03	1.740479E-14	1.867777E-17
6.573098E+03	1.770571E-14	1.912322E-17
6.583088E+03	1.797171E-14	1.954963E-17
6.593077E+03	1.818666E-14	1.993878E-17
6.603067E+03	1.834119E-14	2.027911E-17
6.613056E+03	1.843303E-14	2.056633E-17
6.623046E+03	1.846405E-14	2.080041E-17
6.633035E+03	1.844022E-14	2.098578E-17
6.643025E+03	1.836918E-14	2.112881E-17
6.653014E+03	1.825911E-14	2.123670E-17
6.663004E+03	1.811904E-14	2.131786E-17
6.672993E+03	1.795716E-14	2.138011E-17
6.682983E+03	1.778046E-14	2.143020E-17
6.692972E+03	1.759571E-14	2.147500E-17
6.702962E+03	1.740825E-14	2.152000E-17
6.712951E+03	1.722202E-14	2.156928E-17
6.722941E+03	1.704076E-14	2.162698E-17
6.732930E+03	1.686702E-14	2.169594E-17
6.742920E+03	1.670264E-14	2.177835E-17
6.752909E+03	1.654855E-14	2.187536E-17
6.762899E+03	1.640565E-14	2.198818E-17
6.772888E+03	1.627528E-14	2.211875E-17
6.782878E+03	1.615676E-14	2.226638E-17
6.792867E+03	1.605145E-14	2.243320E-17
6.802857E+03	1.595880E-14	2.261883E-17
6.812847E+03	1.587892E-14	2.282379E-17
6.822836E+03	1.581209E-14	2.304893E-17
6.832826E+03	1.575778E-14	2.329395E-17
6.842815E+03	1.571600E-14	2.355935E-17
6.852805E+03	1.568549E-14	2.384373E-17
6.862794E+03	1.566621E-14	2.414752E-17
6.872784E+03	1.565723E-14	2.446972E-17
6.882773E+03	1.565673E-14	2.480792E-17
6.892763E+03	1.566379E-14	2.516102E-17
6.902752E+03	1.567747E-14	2.552778E-17
6.912742E+03	1.569570E-14	2.590505E-17
6.922731E+03	1.571791E-14	2.629204E-17
6.932721E+03	1.574217E-14	2.668557E-17
6.942710E+03	1.576780E-14	2.708447E-17
6.952700E+03	1.579390E-14	2.748716E-17
6.962689E+03	1.581980E-14	2.789232E-17
6.972679E+03	1.584463E-14	2.829827E-17
6.982668E+03	1.586809E-14	2.870428E-17
6.992658E+03	1.589076E-14	2.911121E-17
7.002647E+03	1.591159E-14	2.951693E-17
7.012637E+03	1.593146E-14	2.992288E-17
7.022626E+03	1.595030E-14	3.032873E-17
7.032616E+03	1.596883E-14	3.073571E-17
7.042605E+03	1.598668E-14	3.114301E-17
7.052595E+03	1.600500E-14	3.155272E-17
7.062584E+03	1.602377E-14	3.196477E-17
7.072574E+03	1.604288E-14	3.237888E-17
7.082563E+03	1.606327E-14	3.279690E-17
7.092553E+03	1.608459E-14	3.321815E-17
7.102542E+03	1.610634E-14	3.364157E-17
7.112532E+03	1.612868E-14	3.406745E-17
7.122521E+03	1.615078E-14	3.449401E-17
7.132511E+03	1.617247E-14	3.492078E-17
7.142500E+03	1.619305E-14	3.534615E-17
7.152490E+03	1.621136E-14	3.576742E-17
7.162479E+03	1.622696E-14	3.618340E-17
7.172469E+03	1.623868E-14	3.659121E-17
7.182458E+03	1.624581E-14	3.698892E-17
7.192448E+03	1.624780E-14	3.737485E-17
7.202437E+03	1.624465E-14	3.774861E-17
7.212427E+03	1.623568E-14	3.810823E-17
7.222416E+03	1.622078E-14	3.845294E-17
7.232406E+03	1.619997E-14	3.878237E-17
7.242395E+03	1.617335E-14	3.909631E-17
7.252385E+03	1.614113E-14	3.939481E-17
7.262375E+03	1.610361E-14	3.967818E-17
7.272364E+03	1.606121E-14	3.994709E-17
7.282354E+03	1.601440E-14	4.020233E-17
7.292343E+03	1.596378E-14	4.044510E-17
7.302333E+03	1.590998E-14	4.067671E-17
7.312322E+03	1.585330E-14	4.089771E-17
7.322312E+03	1.579531E-14	4.111194E-17
7.332301E+03	1.573592E-14	4.131907E-17
7.342291E+03	1.567668E-14	4.152312E-17
7.352280E+03	1.561744E-14	4.172363E-17
7.362270E+03	1.555966E-14	4.192454E-17
7.372259E+03	1.550343E-14	4.212618E-17
7.382249E+03	1.544875E-14	4.232869E-17
7.392238E+03	1.539678E-14	4.253529E-17
7.402228E+03	1.534731E-14	4.274561E-17
7.412217E+03	1.530044E-14	4.296012E-17
7.422207E+03	1.525664E-14	4.318026E-17
7.432196E+03	1.521543E-14	4.340490E-17
7.442186E+03	1.517714E-14	4.363513E-17
7.452175E+03	1.514119E-14	4.386946E-17
7.462165E+03	1.510780E-14	4.410871E-17
7.472154E+03	1.507678E-14	4.435244E-17
7.482144E+03	1.504789E-14	4.460012E-17
7.492133E+03	1.502091E-14	4.485122E-17
7.502123E+03	1.499563E-14	4.510523E-17
7.512112E+03	1.497231E-14	4.536302E-17
7.522102E+03	1.495034E-14	4.562290E-17
7.532091E+03	1.493007E-14	4.588598E-17
7.542081E+03	1.491095E-14	4.615068E-17
7.552070E+03	1.489337E-14	4.641827E-17
7.562060E+03	1.487725E-14	4.668862E-17
7.572049E+03	1.486254E-14	4.696166E-17
7.582039E+03	1.484914E-14	4.723712E-17
7.592028E+03	1.483689E-14	4.751464E-17
7.602018E+03	1.482561E-14	4.779362E-17
7.612007E+03	1.481549E-14	4.807478E-17
7.621997E+03	1.480621E-14	4.835714E-17
7.631986E+03	1.479691E-14	4.863794E-17
7.641976E+03	1.478760E-14	4.891718E-17
7.651965E+03	1.477825E-14	4.919473E-17
7.661955E+03	1.476730E-14	4.946545E-17
7.671944E+03	1.475461E-14	4.972865E-17
7.681934E+03	1.473999E-14	4.998365E-17
7.691923E+03	1.472278E-14	5.022806E-17
7.701913E+03	1.470189E-14	5.045799E-17
7.711903E+03	1.467674E-14	5.067118E-17
7.721892E+03	1.464781E-14	5.086909E-17
7.731882E+03	1.461425E-14	5.104847E-17
7.741871E+03	1.457530E-14	5.120640E-17
7.751861E+03	1.453183E-14	5.134563E-17
