#wls	flux	fluxerr
1.598322E+03	4.120201E-17	1.407774E-21
1.638280E+03	4.324739E-17	1.477660E-21
1.678238E+03	4.498109E-17	1.536896E-21
1.718196E+03	4.634693E-17	1.583564E-21
1.758154E+03	4.727749E-17	1.615359E-21
1.798112E+03	4.763629E-17	1.627618E-21
1.838070E+03	4.726442E-17	1.614912E-21
1.878028E+03	4.600643E-17	1.571929E-21
1.917986E+03	4.375711E-17	1.495076E-21
1.957944E+03	4.056047E-17	1.385854E-21
1.997902E+03	3.664743E-17	1.252155E-21
2.037860E+03	3.256194E-17	1.112563E-21
2.077818E+03	2.909527E-17	9.941157E-22
2.117776E+03	2.698668E-17	9.220700E-22
2.157734E+03	2.680244E-17	9.157749E-22
2.197692E+03	2.886021E-17	9.860842E-22
2.237650E+03	3.322717E-17	1.135293E-21
2.277609E+03	3.976016E-17	1.358509E-21
2.317567E+03	4.815936E-17	1.645489E-21
2.357525E+03	5.805529E-17	1.983610E-21
2.397483E+03	6.909850E-17	2.360930E-21
2.437441E+03	8.096897E-17	2.766515E-21
2.477399E+03	9.346421E-17	3.193447E-21
2.517357E+03	1.065489E-16	3.640518E-21
2.557315E+03	1.201598E-16	4.105573E-21
2.597273E+03	1.343565E-16	4.590638E-21
2.637231E+03	1.491410E-16	5.095789E-21
2.677189E+03	1.646740E-16	5.626514E-21
2.717147E+03	1.810339E-16	6.185491E-21
2.757105E+03	1.983532E-16	6.777251E-21
2.797063E+03	2.166364E-16	7.401945E-21
2.837021E+03	2.360524E-16	8.065342E-21
2.876979E+03	2.566218E-16	8.768147E-21
2.916937E+03	2.783893E-16	9.511890E-21
2.956895E+03	3.013446E-16	1.029622E-20
2.996853E+03	3.253147E-16	1.111522E-20
3.006843E+03	3.314086E-16	1.132343E-20
3.016832E+03	3.375722E-16	1.153403E-20
3.026822E+03	3.437993E-16	1.174679E-20
3.036811E+03	3.501011E-16	1.196211E-20
3.046801E+03	3.564013E-16	1.217737E-20
3.056790E+03	3.629657E-16	1.240166E-20
3.066780E+03	3.696022E-16	1.262841E-20
3.076769E+03	3.763706E-16	1.285967E-20
3.086759E+03	3.831599E-16	1.309165E-20
3.096748E+03	3.901180E-16	1.332939E-20
3.106738E+03	3.970456E-16	1.356609E-20
3.116727E+03	4.040032E-16	1.380381E-20
3.126717E+03	4.109640E-16	1.404165E-20
3.136706E+03	4.179900E-16	1.428171E-20
3.146696E+03	4.248741E-16	1.451692E-20
3.156685E+03	4.316759E-16	1.474932E-20
3.166675E+03	4.383652E-16	1.497788E-20
3.176665E+03	4.449106E-16	1.520152E-20
3.186654E+03	4.512797E-16	1.541914E-20
3.196644E+03	4.574394E-16	1.562960E-20
3.206633E+03	4.633557E-16	1.583174E-20
3.216623E+03	4.689934E-16	1.602437E-20
3.226612E+03	4.743170E-16	1.620626E-20
3.236602E+03	4.793815E-16	1.637931E-20
3.246591E+03	4.839667E-16	1.653597E-20
3.256581E+03	4.882184E-16	1.668124E-20
3.266570E+03	4.920069E-16	1.681069E-20
3.276560E+03	4.952950E-16	1.692303E-20
3.286549E+03	4.981353E-16	1.702008E-20
3.296539E+03	5.004003E-16	1.709747E-20
3.306528E+03	5.020546E-16	1.715399E-20
3.316518E+03	5.030644E-16	1.718849E-20
3.326507E+03	5.034844E-16	1.720284E-20
3.336497E+03	5.031973E-16	1.719303E-20
3.346486E+03	5.022611E-16	1.716105E-20
3.356476E+03	5.005674E-16	1.710318E-20
3.366465E+03	4.981803E-16	1.702161E-20
3.376455E+03	4.950039E-16	1.691308E-20
3.386444E+03	4.910327E-16	1.677740E-20
3.396434E+03	4.864216E-16	1.661985E-20
3.406423E+03	4.809463E-16	1.643277E-20
3.416413E+03	4.748498E-16	1.622447E-20
3.426402E+03	4.680082E-16	1.599071E-20
3.436392E+03	4.605308E-16	1.573522E-20
3.446381E+03	4.524635E-16	1.545958E-20
3.456371E+03	4.438006E-16	1.516359E-20
3.466360E+03	4.346832E-16	1.485207E-20
3.476350E+03	4.251976E-16	1.452797E-20
3.486339E+03	4.154456E-16	1.419477E-20
3.496329E+03	4.055447E-16	1.385648E-20
3.506318E+03	3.956289E-16	1.351768E-20
3.516308E+03	3.858498E-16	1.318355E-20
3.526297E+03	3.763776E-16	1.285991E-20
3.536287E+03	3.674029E-16	1.255327E-20
3.546276E+03	3.591377E-16	1.227086E-20
3.556266E+03	3.518180E-16	1.202077E-20
3.566255E+03	3.457479E-16	1.181337E-20
3.576245E+03	3.411221E-16	1.165532E-20
3.586234E+03	3.383037E-16	1.155902E-20
3.596224E+03	3.374593E-16	1.153017E-20
3.606213E+03	3.383887E-16	1.156192E-20
3.616203E+03	3.409272E-16	1.164865E-20
3.626192E+03	3.446467E-16	1.177574E-20
3.636182E+03	3.493409E-16	1.193613E-20
3.646172E+03	3.547628E-16	1.212138E-20
3.656161E+03	3.606643E-16	1.232302E-20
3.666151E+03	3.669115E-16	1.253648E-20
3.676140E+03	3.733665E-16	1.275703E-20
3.686130E+03	3.798851E-16	1.297975E-20
3.696119E+03	3.864358E-16	1.320357E-20
3.706109E+03	3.929796E-16	1.342716E-20
3.716098E+03	3.995103E-16	1.365030E-20
3.726088E+03	4.060524E-16	1.387382E-20
3.736077E+03	4.126215E-16	1.409828E-20
3.746067E+03	4.193816E-16	1.432925E-20
3.756056E+03	4.264050E-16	1.456922E-20
3.766046E+03	4.338292E-16	1.482289E-20
3.776035E+03	4.418162E-16	1.509579E-20
3.786025E+03	4.505896E-16	1.539555E-20
3.796014E+03	4.602729E-16	1.572641E-20
3.806004E+03	4.711688E-16	1.609869E-20
3.815993E+03	4.834763E-16	1.651921E-20
3.825983E+03	4.974923E-16	1.699810E-20
3.835972E+03	5.134465E-16	1.754322E-20
3.845962E+03	5.316675E-16	1.816579E-20
3.855951E+03	5.524583E-16	1.887616E-20
3.865941E+03	5.760912E-16	1.968364E-20
3.875930E+03	6.028920E-16	2.059936E-20
3.885920E+03	6.332389E-16	2.163623E-20
3.895909E+03	6.675046E-16	2.280701E-20
3.905899E+03	7.058247E-16	2.411632E-20
3.915888E+03	7.485665E-16	2.557670E-20
3.925878E+03	7.958043E-16	2.719070E-20
3.935867E+03	8.475453E-16	2.895856E-20
3.936956E+03	9.390261E-16	3.208424E-20
3.938216E+03	9.425306E-16	3.220398E-20
3.939475E+03	9.637836E-16	3.293014E-20
3.940734E+03	9.916348E-16	3.388175E-20
3.941994E+03	1.006647E-15	3.439468E-20
3.943254E+03	1.014979E-15	3.467935E-20
3.944513E+03	1.037205E-15	3.543876E-20
3.945772E+03	1.055675E-15	3.606986E-20
3.947032E+03	1.075503E-15	3.674734E-20
3.948291E+03	1.082257E-15	3.697809E-20
3.949551E+03	1.094379E-15	3.739228E-20
3.950811E+03	1.116441E-15	3.814609E-20
3.952069E+03	1.128624E-15	3.856234E-20
3.953329E+03	1.139435E-15	3.893172E-20
3.954589E+03	1.155867E-15	3.949318E-20
3.955848E+03	1.168056E-15	3.990965E-20
3.957107E+03	1.186473E-15	4.053889E-20
3.958367E+03	1.210991E-15	4.137662E-20
3.959626E+03	1.231639E-15	4.208211E-20
3.960886E+03	1.234105E-15	4.216636E-20
3.962146E+03	1.229009E-15	4.199225E-20
3.963404E+03	1.219221E-15	4.165782E-20
3.964664E+03	1.213128E-15	4.144963E-20
3.965924E+03	1.218628E-15	4.163757E-20
3.967183E+03	1.233302E-15	4.213895E-20
3.968443E+03	1.240101E-15	4.237125E-20
3.969702E+03	1.237356E-15	4.227745E-20
3.970961E+03	1.248357E-15	4.265331E-20
3.972221E+03	1.268359E-15	4.333673E-20
3.973481E+03	1.276043E-15	4.359929E-20
3.974740E+03	1.269569E-15	4.337807E-20
3.975999E+03	1.268334E-15	4.333589E-20
3.977259E+03	1.275362E-15	4.357601E-20
3.978519E+03	1.285638E-15	4.392714E-20
3.979777E+03	1.298796E-15	4.437672E-20
3.981037E+03	1.299768E-15	4.440991E-20
3.982297E+03	1.309420E-15	4.473970E-20
3.983556E+03	1.327631E-15	4.536191E-20
3.984816E+03	1.334532E-15	4.559770E-20
3.986075E+03	1.330085E-15	4.544577E-20
3.987334E+03	1.329646E-15	4.543076E-20
3.988594E+03	1.330646E-15	4.546493E-20
3.989854E+03	1.332482E-15	4.552766E-20
3.991113E+03	1.343980E-15	4.592052E-20
3.992372E+03	1.350474E-15	4.614242E-20
3.993632E+03	1.350350E-15	4.613818E-20
3.994891E+03	1.350758E-15	4.615211E-20
3.996151E+03	1.343983E-15	4.592062E-20
3.997411E+03	1.346139E-15	4.599431E-20
3.998669E+03	1.352968E-15	4.622763E-20
3.999929E+03	1.355825E-15	4.632524E-20
4.001189E+03	1.347099E-15	4.602711E-20
4.002448E+03	1.336509E-15	4.566527E-20
4.003707E+03	1.326969E-15	4.533932E-20
4.004967E+03	1.315637E-15	4.495213E-20
4.006226E+03	1.297034E-15	4.431651E-20
4.007486E+03	1.284638E-15	4.389295E-20
4.008746E+03	1.286578E-15	4.395924E-20
4.010004E+03	1.289988E-15	4.407577E-20
4.011264E+03	1.285975E-15	4.393863E-20
4.012524E+03	1.279393E-15	4.371376E-20
4.013784E+03	1.273416E-15	4.350953E-20
4.015042E+03	1.261288E-15	4.309514E-20
4.016302E+03	1.243457E-15	4.248592E-20
4.017562E+03	1.223641E-15	4.180883E-20
4.018821E+03	1.201831E-15	4.106365E-20
4.020081E+03	1.183638E-15	4.044204E-20
4.021340E+03	1.172117E-15	4.004840E-20
4.022599E+03	1.168544E-15	3.992629E-20
4.023859E+03	1.165429E-15	3.981989E-20
4.025119E+03	1.163325E-15	3.974800E-20
4.026378E+03	1.159725E-15	3.962498E-20
4.027637E+03	1.166240E-15	3.984760E-20
4.028897E+03	1.184165E-15	4.046003E-20
4.030156E+03	1.208027E-15	4.127533E-20
4.031416E+03	1.235088E-15	4.219997E-20
4.032676E+03	1.255584E-15	4.290026E-20
4.033934E+03	1.272727E-15	4.348600E-20
4.035194E+03	1.299783E-15	4.441043E-20
4.036454E+03	1.321912E-15	4.516653E-20
4.037713E+03	1.342504E-15	4.587008E-20
4.038972E+03	1.373203E-15	4.691902E-20
4.040232E+03	1.407381E-15	4.808678E-20
4.041491E+03	1.443298E-15	4.931399E-20
4.042751E+03	1.473167E-15	5.033454E-20
4.044010E+03	1.501266E-15	5.129460E-20
4.045269E+03	1.530221E-15	5.228393E-20
4.046529E+03	1.565539E-15	5.349067E-20
4.047789E+03	1.602369E-15	5.474904E-20
4.049048E+03	1.641034E-15	5.607014E-20
4.050307E+03	1.680258E-15	5.741035E-20
4.051567E+03	1.721169E-15	5.880815E-20
4.052827E+03	1.750133E-15	5.979779E-20
4.054086E+03	1.783251E-15	6.092934E-20
4.055346E+03	1.826647E-15	6.241209E-20
4.056605E+03	1.870454E-15	6.390885E-20
4.057864E+03	1.907184E-15	6.516383E-20
4.059124E+03	1.939230E-15	6.625876E-20
4.060384E+03	1.977801E-15	6.757666E-20
4.061642E+03	2.023078E-15	6.912366E-20
4.062902E+03	2.069259E-15	7.070154E-20
4.064162E+03	2.115536E-15	7.228272E-20
4.065421E+03	2.162800E-15	7.389763E-20
4.066681E+03	2.212678E-15	7.560183E-20
4.067940E+03	2.258351E-15	7.716236E-20
4.069199E+03	2.293219E-15	7.835373E-20
4.070459E+03	2.319935E-15	7.926655E-20
4.071719E+03	2.352331E-15	8.037342E-20
4.072978E+03	2.391807E-15	8.172225E-20
4.074237E+03	2.422213E-15	8.276113E-20
4.075497E+03	2.439925E-15	8.336632E-20
4.076756E+03	2.453660E-15	8.383558E-20
4.078016E+03	2.475861E-15	8.459415E-20
4.079276E+03	2.500320E-15	8.542985E-20
4.080534E+03	2.513245E-15	8.587147E-20
4.081794E+03	2.520688E-15	8.612578E-20
4.083054E+03	2.537689E-15	8.670666E-20
4.084313E+03	2.558677E-15	8.742377E-20
4.085572E+03	2.576322E-15	8.802667E-20
4.086832E+03	2.591029E-15	8.852917E-20
4.088092E+03	2.597170E-15	8.873897E-20
4.089351E+03	2.601167E-15	8.887555E-20
4.090610E+03	2.608726E-15	8.913381E-20
4.091870E+03	2.612071E-15	8.924813E-20
4.093129E+03	2.610109E-15	8.918108E-20
4.094389E+03	2.610464E-15	8.919320E-20
4.095649E+03	2.610065E-15	8.917958E-20
4.096907E+03	2.604082E-15	8.897514E-20
4.098167E+03	2.597500E-15	8.875025E-20
4.099427E+03	2.592484E-15	8.857888E-20
4.100686E+03	2.579519E-15	8.813589E-20
4.101946E+03	2.558161E-15	8.740616E-20
4.103205E+03	2.535411E-15	8.662883E-20
4.104464E+03	2.518897E-15	8.606458E-20
4.105724E+03	2.506788E-15	8.565087E-20
4.106984E+03	2.493895E-15	8.521034E-20
4.108242E+03	2.487189E-15	8.498119E-20
4.109502E+03	2.477269E-15	8.464224E-20
4.110762E+03	2.463110E-15	8.415850E-20
4.112021E+03	2.444535E-15	8.352383E-20
4.113281E+03	2.425240E-15	8.286457E-20
4.114540E+03	2.412238E-15	8.242030E-20
4.115799E+03	2.400136E-15	8.200680E-20
4.117059E+03	2.380637E-15	8.134057E-20
4.118319E+03	2.358549E-15	8.058589E-20
4.119578E+03	2.340061E-15	7.995420E-20
4.120837E+03	2.312185E-15	7.900175E-20
4.122097E+03	2.277360E-15	7.781187E-20
4.123356E+03	2.250716E-15	7.690149E-20
4.124616E+03	2.236964E-15	7.643163E-20
4.125876E+03	2.218488E-15	7.580035E-20
4.127135E+03	2.182634E-15	7.457529E-20
4.128394E+03	2.143968E-15	7.325419E-20
4.129654E+03	2.101880E-15	7.181612E-20
4.130914E+03	2.065355E-15	7.056816E-20
4.132172E+03	2.039207E-15	6.967476E-20
4.133432E+03	2.006397E-15	6.855371E-20
4.134692E+03	1.967326E-15	6.721875E-20
4.135951E+03	1.936172E-15	6.615429E-20
4.137211E+03	1.904603E-15	6.507567E-20
4.138470E+03	1.860467E-15	6.356763E-20
4.139729E+03	1.812528E-15	6.192967E-20
4.140989E+03	1.770014E-15	6.047706E-20
4.142249E+03	1.729483E-15	5.909223E-20
4.143507E+03	1.685402E-15	5.758608E-20
4.144767E+03	1.645040E-15	5.620703E-20
4.146027E+03	1.606587E-15	5.489317E-20
4.147286E+03	1.564318E-15	5.344895E-20
4.148546E+03	1.535169E-15	5.245301E-20
4.149805E+03	1.516048E-15	5.179969E-20
4.151064E+03	1.490529E-15	5.092775E-20
4.152324E+03	1.458765E-15	4.984245E-20
4.153584E+03	1.424838E-15	4.868325E-20
4.154843E+03	1.396604E-15	4.771858E-20
4.156102E+03	1.383175E-15	4.725974E-20
4.157362E+03	1.368142E-15	4.674608E-20
4.158621E+03	1.346240E-15	4.599774E-20
4.159881E+03	1.322273E-15	4.517886E-20
4.161140E+03	1.297902E-15	4.434617E-20
4.162399E+03	1.284644E-15	4.389316E-20
4.163659E+03	1.283850E-15	4.386604E-20
4.164919E+03	1.280410E-15	4.374850E-20
4.166178E+03	1.278900E-15	4.369689E-20
4.167437E+03	1.274825E-15	4.355769E-20
4.168697E+03	1.266412E-15	4.327020E-20
4.169957E+03	1.259836E-15	4.304552E-20
4.171216E+03	1.258910E-15	4.301389E-20
4.172475E+03	1.264271E-15	4.319707E-20
4.173735E+03	1.267336E-15	4.330178E-20
4.174994E+03	1.272891E-15	4.349158E-20
4.176254E+03	1.276411E-15	4.361185E-20
4.177514E+03	1.272372E-15	4.347385E-20
4.178772E+03	1.274735E-15	4.355458E-20
4.180032E+03	1.273802E-15	4.352273E-20
4.181292E+03	1.269474E-15	4.337484E-20
4.182551E+03	1.278001E-15	4.366617E-20
4.183810E+03	1.279297E-15	4.371046E-20
4.185070E+03	1.281042E-15	4.377009E-20
4.186329E+03	1.285746E-15	4.393082E-20
4.187589E+03	1.292790E-15	4.417149E-20
4.188849E+03	1.310532E-15	4.477769E-20
4.190107E+03	1.334059E-15	4.558156E-20
4.191367E+03	1.351064E-15	4.616258E-20
4.192627E+03	1.359725E-15	4.645850E-20
4.193886E+03	1.366688E-15	4.669639E-20
4.195146E+03	1.374564E-15	4.696552E-20
4.196405E+03	1.380737E-15	4.717643E-20
4.197664E+03	1.386468E-15	4.737226E-20
4.198924E+03	1.397369E-15	4.774471E-20
4.200184E+03	1.408471E-15	4.812402E-20
4.201443E+03	1.409886E-15	4.817238E-20
4.202702E+03	1.402130E-15	4.790737E-20
4.203962E+03	1.396720E-15	4.772253E-20
4.205222E+03	1.396392E-15	4.771133E-20
4.206481E+03	1.397427E-15	4.774668E-20
4.207740E+03	1.393629E-15	4.761690E-20
4.209000E+03	1.384072E-15	4.729038E-20
4.210259E+03	1.383538E-15	4.727211E-20
4.211519E+03	1.391046E-15	4.752866E-20
4.212779E+03	1.393625E-15	4.761676E-20
4.214037E+03	1.388692E-15	4.744821E-20
4.215297E+03	1.381179E-15	4.719154E-20
4.216557E+03	1.371355E-15	4.685586E-20
4.217816E+03	1.369963E-15	4.680829E-20
4.219076E+03	1.368105E-15	4.674483E-20
4.220335E+03	1.361637E-15	4.652382E-20
4.221594E+03	1.353403E-15	4.624249E-20
4.222854E+03	1.351609E-15	4.618118E-20
4.224114E+03	1.353595E-15	4.624904E-20
4.225372E+03	1.353917E-15	4.626006E-20
4.226632E+03	1.345633E-15	4.597702E-20
4.227892E+03	1.333441E-15	4.556042E-20
4.229151E+03	1.321314E-15	4.514608E-20
4.230410E+03	1.305726E-15	4.461348E-20
4.231670E+03	1.291685E-15	4.413373E-20
4.232929E+03	1.280683E-15	4.375782E-20
4.234189E+03	1.270774E-15	4.341925E-20
4.235449E+03	1.259818E-15	4.304493E-20
4.236707E+03	1.248558E-15	4.266018E-20
4.237967E+03	1.232046E-15	4.209602E-20
4.239227E+03	1.211201E-15	4.138380E-20
4.240486E+03	1.193026E-15	4.076278E-20
4.241746E+03	1.178932E-15	4.028124E-20
4.243005E+03	1.169588E-15	3.996197E-20
4.244265E+03	1.154314E-15	3.944009E-20
4.245524E+03	1.132904E-15	3.870856E-20
4.246784E+03	1.115210E-15	3.810400E-20
4.248043E+03	1.106229E-15	3.779715E-20
4.249302E+03	1.093839E-15	3.737380E-20
4.250562E+03	1.077463E-15	3.681429E-20
4.251822E+03	1.068414E-15	3.650510E-20
4.253081E+03	1.061612E-15	3.627270E-20
4.254340E+03	1.049594E-15	3.586207E-20
4.255600E+03	1.032157E-15	3.526630E-20
4.256859E+03	1.020274E-15	3.486028E-20
4.258119E+03	1.012917E-15	3.460892E-20
4.259378E+03	1.010479E-15	3.452562E-20
4.260637E+03	1.012406E-15	3.459145E-20
4.261897E+03	1.003683E-15	3.429342E-20
4.263157E+03	9.954180E-16	3.401101E-20
4.264416E+03	9.927566E-16	3.392008E-20
4.265675E+03	9.892289E-16	3.379955E-20
4.266935E+03	9.831161E-16	3.359068E-20
4.268194E+03	9.853030E-16	3.366541E-20
4.269454E+03	9.999269E-16	3.416507E-20
4.270714E+03	1.017545E-15	3.476704E-20
4.271972E+03	1.032607E-15	3.528166E-20
4.273232E+03	1.046833E-15	3.576773E-20
4.274492E+03	1.060988E-15	3.625139E-20
4.275751E+03	1.076226E-15	3.677202E-20
4.277011E+03	1.097263E-15	3.749080E-20
4.278270E+03	1.114196E-15	3.806937E-20
4.279529E+03	1.123643E-15	3.839214E-20
4.280789E+03	1.135614E-15	3.880115E-20
4.282049E+03	1.158131E-15	3.957052E-20
4.283308E+03	1.186391E-15	4.053608E-20
4.284567E+03	1.208414E-15	4.128857E-20
4.285827E+03	1.223214E-15	4.179424E-20
4.287087E+03	1.242401E-15	4.244984E-20
4.288346E+03	1.264146E-15	4.319278E-20
4.289605E+03	1.280877E-15	4.376446E-20
4.290865E+03	1.301916E-15	4.448331E-20
4.292124E+03	1.329804E-15	4.543616E-20
4.293384E+03	1.355501E-15	4.631418E-20
4.294644E+03	1.375298E-15	4.699058E-20
4.295902E+03	1.390542E-15	4.751143E-20
4.297162E+03	1.403664E-15	4.795979E-20
4.298422E+03	1.418568E-15	4.846903E-20
4.299681E+03	1.437118E-15	4.910283E-20
4.300940E+03	1.453446E-15	4.966071E-20
4.302200E+03	1.472254E-15	5.030332E-20
4.303459E+03	1.489622E-15	5.089674E-20
4.304719E+03	1.500046E-15	5.125292E-20
4.305978E+03	1.506553E-15	5.147525E-20
4.307237E+03	1.516416E-15	5.181225E-20
4.308497E+03	1.526492E-15	5.215651E-20
4.309757E+03	1.537569E-15	5.253499E-20
4.311016E+03	1.545506E-15	5.280618E-20
4.312275E+03	1.542195E-15	5.269304E-20
4.313535E+03	1.542632E-15	5.270797E-20
4.314794E+03	1.544353E-15	5.276678E-20
4.316054E+03	1.541122E-15	5.265640E-20
4.317314E+03	1.532530E-15	5.236282E-20
4.318572E+03	1.526398E-15	5.215329E-20
4.319832E+03	1.521941E-15	5.200101E-20
4.321092E+03	1.513695E-15	5.171929E-20
4.322352E+03	1.506526E-15	5.147434E-20
4.323610E+03	1.506410E-15	5.147038E-20
4.324870E+03	1.508286E-15	5.153446E-20
4.326130E+03	1.504276E-15	5.139744E-20
4.327389E+03	1.494364E-15	5.105877E-20
4.328649E+03	1.486729E-15	5.079791E-20
4.329908E+03	1.482478E-15	5.065266E-20
4.331167E+03	1.476615E-15	5.045235E-20
4.332427E+03	1.466429E-15	5.010432E-20
4.333687E+03	1.454717E-15	4.970415E-20
4.334946E+03	1.449407E-15	4.952270E-20
4.336205E+03	1.440967E-15	4.923435E-20
4.337465E+03	1.430197E-15	4.886637E-20
4.338724E+03	1.424137E-15	4.865929E-20
4.339984E+03	1.420279E-15	4.852749E-20
4.341243E+03	1.422160E-15	4.859173E-20
4.342502E+03	1.426868E-15	4.875261E-20
4.343762E+03	1.432289E-15	4.893783E-20
4.345022E+03	1.437616E-15	4.911982E-20
4.346281E+03	1.443151E-15	4.930896E-20
4.347540E+03	1.453758E-15	4.967137E-20
4.348800E+03	1.472899E-15	5.032538E-20
4.350059E+03	1.488316E-15	5.085215E-20
4.351319E+03	1.509345E-15	5.157063E-20
4.352579E+03	1.533864E-15	5.240839E-20
4.353837E+03	1.549264E-15	5.293457E-20
4.355097E+03	1.559800E-15	5.329458E-20
4.356357E+03	1.570862E-15	5.367253E-20
4.357617E+03	1.577859E-15	5.391159E-20
4.358876E+03	1.586396E-15	5.420329E-20
4.360135E+03	1.608844E-15	5.497028E-20
4.361395E+03	1.631534E-15	5.574554E-20
4.362654E+03	1.652315E-15	5.645557E-20
4.363914E+03	1.670259E-15	5.706869E-20
4.365173E+03	1.681871E-15	5.746543E-20
4.366432E+03	1.698120E-15	5.802064E-20
4.367692E+03	1.716244E-15	5.863987E-20
4.368952E+03	1.732441E-15	5.919329E-20
4.370211E+03	1.748972E-15	5.975810E-20
4.371470E+03	1.769131E-15	6.044689E-20
4.372730E+03	1.788292E-15	6.110157E-20
4.373989E+03	1.803561E-15	6.162328E-20
4.375249E+03	1.816063E-15	6.205046E-20
4.376508E+03	1.825791E-15	6.238284E-20
4.377767E+03	1.829326E-15	6.250362E-20
4.379027E+03	1.837833E-15	6.279428E-20
4.380287E+03	1.839200E-15	6.284097E-20
4.381546E+03	1.839735E-15	6.285926E-20
4.382805E+03	1.844521E-15	6.302281E-20
4.384065E+03	1.847236E-15	6.311555E-20
4.385324E+03	1.853278E-15	6.332200E-20
4.386584E+03	1.861304E-15	6.359622E-20
4.387843E+03	1.871421E-15	6.394191E-20
4.389102E+03	1.876757E-15	6.412422E-20
4.390362E+03	1.882515E-15	6.432096E-20
4.391622E+03	1.896529E-15	6.479977E-20
4.392881E+03	1.904708E-15	6.507925E-20
4.394140E+03	1.904632E-15	6.507665E-20
4.395400E+03	1.910416E-15	6.527426E-20
4.396660E+03	1.925321E-15	6.578352E-20
4.397919E+03	1.942868E-15	6.638305E-20
4.399178E+03	1.953826E-15	6.675747E-20
4.400438E+03	1.958917E-15	6.693142E-20
4.401697E+03	1.965273E-15	6.714860E-20
4.402957E+03	1.980368E-15	6.766436E-20
4.404217E+03	1.996010E-15	6.819882E-20
4.405475E+03	2.003979E-15	6.847108E-20
4.406735E+03	2.016387E-15	6.889504E-20
4.407995E+03	2.031556E-15	6.941332E-20
4.409254E+03	2.047801E-15	6.996837E-20
4.410514E+03	2.069989E-15	7.072649E-20
4.411773E+03	2.089455E-15	7.139161E-20
4.413032E+03	2.105455E-15	7.193829E-20
4.414292E+03	2.126246E-15	7.264865E-20
4.415552E+03	2.146641E-15	7.334550E-20
4.416811E+03	2.162499E-15	7.388732E-20
