#wls	flux	fluxerr
1.598322E+03	6.438310E-18	1.096231E-18
1.638280E+03	6.701228E-18	1.131502E-18
1.678238E+03	6.911104E-18	1.156898E-18
1.718196E+03	7.060618E-18	1.171410E-18
1.758154E+03	7.141051E-18	1.173856E-18
1.798112E+03	7.129737E-18	1.160849E-18
1.838070E+03	7.009500E-18	1.130049E-18
1.878028E+03	6.760498E-18	1.078824E-18
1.917986E+03	6.367625E-18	1.005448E-18
1.957944E+03	5.842445E-18	9.124943E-19
1.997902E+03	5.225252E-18	8.069275E-19
2.037860E+03	4.595781E-18	7.014732E-19
2.077818E+03	4.061443E-18	6.124685E-19
2.117776E+03	3.726088E-18	5.549191E-19
2.157734E+03	3.658943E-18	5.379244E-19
2.197692E+03	3.894490E-18	5.649564E-19
2.237650E+03	4.429161E-18	6.337074E-19
2.277609E+03	5.232064E-18	7.379746E-19
2.317567E+03	6.258221E-18	8.697862E-19
2.357525E+03	7.446579E-18	1.019291E-18
2.397483E+03	8.741787E-18	1.177883E-18
2.437441E+03	1.010090E-17	1.339054E-18
2.477399E+03	1.149579E-17	1.498592E-18
2.517357E+03	1.291157E-17	1.654229E-18
2.557315E+03	1.434917E-17	1.805832E-18
2.597273E+03	1.580563E-17	1.952788E-18
2.637231E+03	1.728749E-17	2.095679E-18
2.677189E+03	1.880441E-17	2.235412E-18
2.717147E+03	2.037604E-17	2.373995E-18
2.757105E+03	2.201753E-17	2.512758E-18
2.797063E+03	2.372846E-17	2.651179E-18
2.837021E+03	2.554347E-17	2.792614E-18
2.876979E+03	2.748432E-17	2.938762E-18
2.916937E+03	2.956593E-17	3.090463E-18
2.956895E+03	3.182711E-17	3.250938E-18
2.996853E+03	3.429199E-17	3.421687E-18
3.006843E+03	3.494869E-17	3.466724E-18
3.016832E+03	3.562078E-17	3.512583E-18
3.026822E+03	3.630902E-17	3.559321E-18
3.036811E+03	3.701610E-17	3.607183E-18
3.046801E+03	3.775674E-17	3.657575E-18
3.056790E+03	3.851888E-17	3.709288E-18
3.066780E+03	3.931413E-17	3.763412E-18
3.076769E+03	4.015509E-17	3.821102E-18
3.086759E+03	4.102912E-17	3.881103E-18
3.096748E+03	4.192294E-17	3.942124E-18
3.106738E+03	4.286310E-17	4.006633E-18
3.116727E+03	4.383683E-17	4.073387E-18
3.126717E+03	4.484460E-17	4.142394E-18
3.136706E+03	4.590133E-17	4.214989E-18
3.146696E+03	4.697947E-17	4.288604E-18
3.156685E+03	4.809402E-17	4.364590E-18
3.166675E+03	4.926117E-17	4.444378E-18
3.176665E+03	5.045231E-17	4.525347E-18
3.186654E+03	5.169937E-17	4.610341E-18
3.196644E+03	5.298896E-17	4.698117E-18
3.206633E+03	5.432293E-17	4.788811E-18
3.216623E+03	5.570333E-17	4.882575E-18
3.226612E+03	5.713240E-17	4.979575E-18
3.236602E+03	5.862996E-17	5.081501E-18
3.246591E+03	6.016434E-17	5.185573E-18
3.256581E+03	6.177347E-17	5.295038E-18
3.266570E+03	6.342468E-17	5.407061E-18
3.276560E+03	6.515778E-17	5.525018E-18
3.286549E+03	6.695822E-17	5.647630E-18
3.296539E+03	6.882966E-17	5.775181E-18
3.306528E+03	7.077597E-17	5.907970E-18
3.316518E+03	7.280105E-17	6.046302E-18
3.326507E+03	7.490894E-17	6.190491E-18
3.336497E+03	7.712535E-17	6.342634E-18
3.346486E+03	7.941145E-17	6.499518E-18
3.356476E+03	8.181494E-17	6.665041E-18
3.366465E+03	8.431779E-17	6.837714E-18
3.376455E+03	8.692314E-17	7.017791E-18
3.386444E+03	8.963347E-17	7.205482E-18
3.396434E+03	9.245048E-17	7.400937E-18
3.406423E+03	9.537455E-17	7.604215E-18
3.416413E+03	9.840465E-17	7.815272E-18
3.426402E+03	1.015649E-16	8.036072E-18
3.436392E+03	1.047963E-16	8.261995E-18
3.446381E+03	1.081454E-16	8.496818E-18
3.456371E+03	1.115730E-16	8.737547E-18
3.466360E+03	1.150627E-16	8.983017E-18
3.476350E+03	1.185928E-16	9.231697E-18
3.486339E+03	1.221360E-16	9.481626E-18
3.496329E+03	1.256581E-16	9.730352E-18
3.506318E+03	1.291509E-16	9.977452E-18
3.516308E+03	1.324993E-16	1.021428E-17
3.526297E+03	1.357131E-16	1.044186E-17
3.536287E+03	1.386588E-16	1.065021E-17
3.546276E+03	1.413343E-16	1.083943E-17
3.556266E+03	1.436284E-16	1.100131E-17
3.566255E+03	1.454637E-16	1.113017E-17
3.576245E+03	1.468037E-16	1.122347E-17
3.586234E+03	1.475157E-16	1.127127E-17
3.596224E+03	1.476017E-16	1.127389E-17
3.606213E+03	1.471176E-16	1.123568E-17
3.616203E+03	1.460818E-16	1.115803E-17
3.626192E+03	1.445657E-16	1.104629E-17
3.636182E+03	1.426483E-16	1.090634E-17
3.646172E+03	1.404097E-16	1.074414E-17
3.656161E+03	1.379271E-16	1.056536E-17
3.666151E+03	1.352715E-16	1.037524E-17
3.676140E+03	1.325380E-16	1.018086E-17
3.686130E+03	1.297197E-16	9.981468E-18
3.696119E+03	1.269261E-16	9.785316E-18
3.706109E+03	1.241382E-16	9.590756E-18
3.716098E+03	1.214478E-16	9.404740E-18
3.726088E+03	1.188529E-16	9.227000E-18
3.736077E+03	1.163756E-16	9.059151E-18
3.746067E+03	1.140590E-16	8.904477E-18
3.756056E+03	1.118640E-16	8.759892E-18
3.766046E+03	1.098515E-16	8.630136E-18
3.776035E+03	1.079787E-16	8.511855E-18
3.786025E+03	1.062991E-16	8.409263E-18
3.796014E+03	1.047906E-16	8.320691E-18
3.806004E+03	1.034547E-16	8.246284E-18
3.815993E+03	1.022908E-16	8.186098E-18
3.825983E+03	1.012979E-16	8.140112E-18
3.835972E+03	1.004735E-16	8.108233E-18
3.845962E+03	9.983574E-17	8.092046E-18
3.855951E+03	9.933746E-17	8.087847E-18
3.865941E+03	9.901650E-17	8.098836E-18
3.875930E+03	9.884580E-17	8.122943E-18
3.885920E+03	9.879816E-17	8.158059E-18
3.895909E+03	9.890791E-17	8.207143E-18
3.905899E+03	9.914600E-17	8.267934E-18
3.915888E+03	9.952391E-17	8.341528E-18
3.925878E+03	9.999030E-17	8.423756E-18
3.935867E+03	1.005548E-16	8.515527E-18
3.945857E+03	1.012259E-16	8.617674E-18
3.955846E+03	1.019701E-16	8.727457E-18
3.965836E+03	1.027526E-16	8.841974E-18
3.975825E+03	1.036000E-16	8.963563E-18
3.985815E+03	1.044761E-16	9.089150E-18
3.995804E+03	1.053646E-16	9.217337E-18
4.005794E+03	1.062487E-16	9.346661E-18
4.015783E+03	1.071324E-16	9.477444E-18
4.025773E+03	1.079564E-16	9.604404E-18
4.035762E+03	1.087457E-16	9.729676E-18
4.045752E+03	1.094414E-16	9.847888E-18
4.055741E+03	1.100700E-16	9.961271E-18
4.065731E+03	1.105956E-16	1.006645E-17
4.075720E+03	1.110054E-16	1.016206E-17
4.085710E+03	1.112890E-16	1.024694E-17
4.095700E+03	1.114391E-16	1.032020E-17
4.105689E+03	1.114526E-16	1.038131E-17
4.115679E+03	1.113519E-16	1.043214E-17
4.125668E+03	1.111024E-16	1.046919E-17
4.135658E+03	1.107582E-16	1.049733E-17
4.145647E+03	1.102964E-16	1.051422E-17
4.155637E+03	1.097810E-16	1.052574E-17
4.165626E+03	1.092184E-16	1.053242E-17
4.175616E+03	1.086385E-16	1.053704E-17
4.185605E+03	1.080720E-16	1.054256E-17
4.195595E+03	1.075501E-16	1.055203E-17
4.205584E+03	1.071029E-16	1.056847E-17
4.215574E+03	1.067588E-16	1.059481E-17
4.225563E+03	1.065628E-16	1.063571E-17
4.235553E+03	1.065013E-16	1.069002E-17
4.245542E+03	1.066331E-16	1.076389E-17
4.255532E+03	1.069396E-16	1.085575E-17
4.265521E+03	1.074742E-16	1.097134E-17
4.275511E+03	1.082322E-16	1.111054E-17
4.285500E+03	1.092251E-16	1.127493E-17
4.295490E+03	1.104623E-16	1.146586E-17
4.305479E+03	1.119514E-16	1.168453E-17
4.315469E+03	1.136987E-16	1.193203E-17
4.325458E+03	1.157093E-16	1.220931E-17
4.335448E+03	1.180078E-16	1.251945E-17
4.345437E+03	1.205603E-16	1.285928E-17
4.355427E+03	1.234129E-16	1.323419E-17
4.365416E+03	1.265334E-16	1.364120E-17
4.375406E+03	1.299746E-16	1.408648E-17
4.385395E+03	1.337097E-16	1.456763E-17
4.395385E+03	1.378022E-16	1.509210E-17
4.405374E+03	1.422575E-16	1.566107E-17
4.415364E+03	1.471089E-16	1.627881E-17
4.425353E+03	1.523969E-16	1.695051E-17
4.435343E+03	1.581696E-16	1.768221E-17
4.445332E+03	1.644813E-16	1.848085E-17
4.455322E+03	1.713920E-16	1.935407E-17
4.465311E+03	1.789650E-16	2.031001E-17
4.475301E+03	1.872921E-16	2.136025E-17
4.485290E+03	1.963739E-16	2.250605E-17
4.495280E+03	2.062843E-16	2.375716E-17
4.505269E+03	2.170835E-16	2.512186E-17
4.515259E+03	2.287040E-16	2.659373E-17
4.525248E+03	2.411741E-16	2.817737E-17
4.535238E+03	2.543340E-16	2.985536E-17
4.545228E+03	2.681172E-16	3.162091E-17
4.555217E+03	2.822882E-16	3.344705E-17
4.565207E+03	2.965497E-16	3.529895E-17
4.575196E+03	3.106906E-16	3.715140E-17
4.585186E+03	3.243406E-16	3.895963E-17
4.595175E+03	3.371607E-16	4.068184E-17
4.605165E+03	3.488245E-16	4.227701E-17
4.615154E+03	3.590377E-16	4.370737E-17
4.625144E+03	3.675596E-16	4.494107E-17
4.635133E+03	3.742175E-16	4.595410E-17
4.645123E+03	3.789191E-16	4.673209E-17
4.655112E+03	3.816583E-16	4.727107E-17
4.665102E+03	3.825170E-16	4.757813E-17
4.675091E+03	3.816596E-16	4.767080E-17
4.685081E+03	3.793247E-16	4.757632E-17
4.695070E+03	3.758121E-16	4.733014E-17
4.705060E+03	3.715174E-16	4.698048E-17
4.715049E+03	3.667036E-16	4.655955E-17
4.725039E+03	3.617996E-16	4.612123E-17
4.735028E+03	3.571703E-16	4.571214E-17
4.745018E+03	3.532047E-16	4.538268E-17
4.755007E+03	3.501069E-16	4.516022E-17
4.764997E+03	3.481809E-16	4.508544E-17
4.774986E+03	3.476747E-16	4.519233E-17
4.784976E+03	3.486341E-16	4.548898E-17
4.794965E+03	3.511891E-16	4.599457E-17
4.804955E+03	3.554109E-16	4.672076E-17
4.814944E+03	3.611713E-16	4.765305E-17
4.824934E+03	3.684296E-16	4.878822E-17
4.834923E+03	3.770977E-16	5.011665E-17
4.844913E+03	3.868903E-16	5.160224E-17
4.854902E+03	3.976298E-16	5.322272E-17
4.864892E+03	4.091113E-16	5.495181E-17
4.874881E+03	4.209460E-16	5.673804E-17
4.884871E+03	4.328949E-16	5.854947E-17
4.894860E+03	4.446676E-16	6.034673E-17
4.904850E+03	4.560500E-16	6.210033E-17
4.914839E+03	4.666816E-16	6.376033E-17
4.924829E+03	4.764169E-16	6.530567E-17
4.934818E+03	4.851009E-16	6.671375E-17
4.944808E+03	4.926890E-16	6.797687E-17
4.954797E+03	4.989882E-16	6.906679E-17
4.964787E+03	5.040180E-16	6.998446E-17
4.974776E+03	5.077464E-16	7.072368E-17
4.984766E+03	5.101366E-16	7.127756E-17
4.994756E+03	5.111451E-16	7.163825E-17
5.004745E+03	5.107320E-16	7.179832E-17
5.014735E+03	5.088793E-16	7.175343E-17
5.024724E+03	5.056212E-16	7.150661E-17
5.034714E+03	5.010674E-16	7.107163E-17
5.044703E+03	4.954203E-16	7.047575E-17
5.054693E+03	4.889199E-16	6.975189E-17
5.064682E+03	4.820700E-16	6.897110E-17
5.074672E+03	4.752518E-16	6.818776E-17
5.084661E+03	4.688790E-16	6.746147E-17
5.094651E+03	4.635295E-16	6.687619E-17
5.104640E+03	4.595758E-16	6.648711E-17
5.114630E+03	4.573355E-16	6.634196E-17
5.124619E+03	4.572164E-16	6.650210E-17
5.134609E+03	4.593251E-16	6.698556E-17
5.144598E+03	4.638445E-16	6.782160E-17
5.154588E+03	4.708145E-16	6.901879E-17
5.164577E+03	4.802476E-16	7.058170E-17
5.174567E+03	4.919111E-16	7.247870E-17
5.184556E+03	5.056733E-16	7.469271E-17
5.194546E+03	5.212939E-16	7.719033E-17
5.204535E+03	5.384322E-16	7.992286E-17
5.214525E+03	5.569112E-16	8.286545E-17
5.224514E+03	5.763620E-16	8.596433E-17
5.234504E+03	5.964830E-16	8.917527E-17
5.244493E+03	6.169232E-16	9.244615E-17
5.254483E+03	6.375729E-16	9.576065E-17
5.264472E+03	6.580857E-16	9.906661E-17
5.274462E+03	6.783850E-16	1.023521E-16
5.284451E+03	6.983841E-16	1.056037E-16
5.294441E+03	7.180614E-16	1.088176E-16
5.304430E+03	7.374585E-16	1.119995E-16
5.314420E+03	7.566755E-16	1.151643E-16
5.324409E+03	7.758644E-16	1.183347E-16
5.334399E+03	7.952189E-16	1.215402E-16
5.344388E+03	8.148736E-16	1.248012E-16
5.354378E+03	8.352477E-16	1.281824E-16
5.364367E+03	8.564025E-16	1.316934E-16
5.374357E+03	8.786547E-16	1.353838E-16
5.384346E+03	9.022920E-16	1.392986E-16
5.394336E+03	9.272573E-16	1.434300E-16
5.404325E+03	9.537152E-16	1.478046E-16
5.414315E+03	9.815502E-16	1.524054E-16
5.424304E+03	1.010881E-15	1.572517E-16
5.434294E+03	1.041433E-15	1.623021E-16
5.444284E+03	1.072845E-15	1.675005E-16
5.454273E+03	1.104902E-15	1.728141E-16
5.464263E+03	1.137332E-15	1.782002E-16
5.474252E+03	1.169418E-15	1.835465E-16
5.484242E+03	1.200722E-15	1.887831E-16
5.494231E+03	1.230468E-15	1.937875E-16
5.504221E+03	1.258200E-15	1.984856E-16
5.514210E+03	1.283035E-15	2.027366E-16
5.524200E+03	1.304094E-15	2.063985E-16
5.534189E+03	1.320840E-15	2.093830E-16
5.544179E+03	1.332734E-15	2.116015E-16
5.554168E+03	1.339427E-15	2.129944E-16
5.564158E+03	1.340774E-15	2.135349E-16
5.574147E+03	1.336837E-15	2.132288E-16
5.584137E+03	1.327709E-15	2.120873E-16
5.594126E+03	1.314016E-15	2.102071E-16
5.604116E+03	1.295900E-15	2.076075E-16
5.614105E+03	1.273915E-15	2.043749E-16
5.624095E+03	1.248454E-15	2.005697E-16
5.634084E+03	1.219860E-15	1.962452E-16
5.644074E+03	1.188441E-15	1.914493E-16
5.654063E+03	1.154382E-15	1.862100E-16
5.664053E+03	1.118147E-15	1.806011E-16
5.674042E+03	1.080269E-15	1.747079E-16
5.684032E+03	1.041081E-15	1.685834E-16
5.694021E+03	1.001294E-15	1.623424E-16
5.704011E+03	9.619545E-16	1.561551E-16
5.714000E+03	9.238318E-16	1.501470E-16
5.723990E+03	8.881544E-16	1.445191E-16
5.733979E+03	8.558111E-16	1.394180E-16
5.743969E+03	8.279398E-16	1.350314E-16
5.753958E+03	8.055283E-16	1.315233E-16
5.763948E+03	7.894020E-16	1.290320E-16
5.773937E+03	7.805337E-16	1.277202E-16
5.783927E+03	7.795021E-16	1.276864E-16
5.793916E+03	7.870457E-16	1.290561E-16
5.803906E+03	8.037578E-16	1.319307E-16
5.813895E+03	8.301482E-16	1.363986E-16
5.823885E+03	8.665213E-16	1.425143E-16
5.833874E+03	9.132370E-16	1.503416E-16
5.843864E+03	9.700299E-16	1.598412E-16
5.853853E+03	1.036492E-15	1.709500E-16
5.863843E+03	1.111623E-15	1.835066E-16
5.873832E+03	1.193841E-15	1.972529E-16
5.883822E+03	1.280844E-15	2.118105E-16
5.893811E+03	1.370042E-15	2.267521E-16
5.903801E+03	1.458391E-15	2.415734E-16
5.913791E+03	1.542745E-15	2.557518E-16
5.923780E+03	1.620148E-15	2.687947E-16
5.933770E+03	1.687950E-15	2.802585E-16
5.943759E+03	1.744653E-15	2.898902E-16
5.953749E+03	1.788918E-15	2.974622E-16
5.963738E+03	1.820715E-15	3.029650E-16
5.973728E+03	1.840440E-15	3.064596E-16
5.983717E+03	1.849650E-15	3.082011E-16
5.993707E+03	1.849687E-15	3.084099E-16
6.003696E+03	1.842744E-15	3.074484E-16
6.013686E+03	1.830994E-15	3.056778E-16
6.023675E+03	1.816630E-15	3.034626E-16
6.033665E+03	1.801566E-15	3.011222E-16
6.043654E+03	1.788018E-15	2.990273E-16
6.053644E+03	1.777249E-15	2.973896E-16
6.063633E+03	1.770699E-15	2.964513E-16
6.073623E+03	1.769131E-15	2.963411E-16
6.083612E+03	1.773445E-15	2.972113E-16
6.093602E+03	1.783539E-15	2.990465E-16
6.103591E+03	1.799484E-15	3.018594E-16
6.113581E+03	1.820897E-15	3.055874E-16
6.123570E+03	1.847156E-15	3.101270E-16
6.133560E+03	1.877282E-15	3.153147E-16
6.143549E+03	1.910518E-15	3.210235E-16
6.153539E+03	1.945889E-15	3.270904E-16
6.163528E+03	1.982433E-15	3.333533E-16
6.173518E+03	2.019233E-15	3.396581E-16
6.183507E+03	2.055244E-15	3.458288E-16
6.193497E+03	2.089823E-15	3.517566E-16
6.203486E+03	2.122126E-15	3.572990E-16
6.213476E+03	2.151222E-15	3.622986E-16
6.223465E+03	2.175846E-15	3.665416E-16
6.233455E+03	2.194970E-15	3.698539E-16
6.243444E+03	2.207450E-15	3.720422E-16
6.253434E+03	2.211313E-15	3.727730E-16
6.263423E+03	2.205905E-15	3.719348E-16
6.273413E+03	2.189861E-15	3.692966E-16
6.283402E+03	2.163081E-15	3.648411E-16
6.293392E+03	2.125293E-15	3.585213E-16
6.303381E+03	2.077333E-15	3.504779E-16
6.313371E+03	2.021131E-15	3.410365E-16
6.323360E+03	1.958533E-15	3.305082E-16
6.333350E+03	1.892477E-15	3.193893E-16
6.343339E+03	1.826083E-15	3.082066E-16
6.353329E+03	1.762658E-15	2.975187E-16
6.363319E+03	1.705383E-15	2.878636E-16
6.373308E+03	1.657831E-15	2.798447E-16
6.383298E+03	1.622844E-15	2.739423E-16
6.393287E+03	1.603640E-15	2.707000E-16
6.403277E+03	1.603156E-15	2.706136E-16
6.413266E+03	1.624776E-15	2.742544E-16
6.423256E+03	1.672215E-15	2.822487E-16
6.433245E+03	1.749225E-15	2.952290E-16
6.443235E+03	1.860407E-15	3.139705E-16
6.453224E+03	2.011267E-15	3.393998E-16
6.463214E+03	2.207005E-15	3.723916E-16
6.473203E+03	2.453231E-15	4.138888E-16
6.483193E+03	2.754460E-15	4.646483E-16
6.493182E+03	3.112757E-15	5.250122E-16
6.503172E+03	3.527161E-15	5.948122E-16
6.513161E+03	3.989969E-15	6.727421E-16
6.523151E+03	4.487151E-15	7.564289E-16
6.533140E+03	4.996518E-15	8.421267E-16
6.543130E+03	5.488368E-15	9.248255E-16
6.553119E+03	5.929646E-15	9.989553E-16
6.563109E+03	6.287701E-15	1.059020E-15
6.573098E+03	6.533246E-15	1.100096E-15
6.583088E+03	6.650634E-15	1.119561E-15
6.593077E+03	6.634477E-15	1.116527E-15
6.603067E+03	6.494837E-15	1.092705E-15
6.613056E+03	6.250030E-15	1.051195E-15
6.623046E+03	5.926081E-15	9.963913E-16
6.633035E+03	5.551978E-15	9.331801E-16
6.643025E+03	5.152818E-15	8.657899E-16
6.653014E+03	4.750960E-15	7.979831E-16
6.663004E+03	4.362868E-15	7.325269E-16
6.672993E+03	3.999646E-15	6.712847E-16
6.682983E+03	3.667417E-15	6.152819E-16
6.692972E+03	3.369653E-15	5.650959E-16
6.702962E+03	3.105915E-15	5.206485E-16
6.712951E+03	2.874999E-15	4.817321E-16
6.722941E+03	2.674150E-15	4.478799E-16
6.732930E+03	2.500860E-15	4.186662E-16
6.742920E+03	2.351549E-15	3.934868E-16
6.752909E+03	2.223412E-15	3.718679E-16
6.762899E+03	2.113439E-15	3.533022E-16
6.772888E+03	2.019467E-15	3.374242E-16
6.782878E+03	1.938886E-15	3.237948E-16
6.792867E+03	1.870109E-15	3.121461E-16
6.802857E+03	1.811002E-15	3.021193E-16
6.812847E+03	1.760701E-15	2.935683E-16
6.822836E+03	1.717951E-15	2.862817E-16
6.832826E+03	1.681759E-15	2.800925E-16
6.842815E+03	1.651653E-15	2.749203E-16
6.852805E+03	1.627192E-15	2.706903E-16
6.862794E+03	1.608090E-15	2.673534E-16
6.872784E+03	1.594028E-15	2.648554E-16
6.882773E+03	1.585042E-15	2.632003E-16
6.892763E+03	1.581052E-15	2.623739E-16
6.902752E+03	1.581982E-15	2.623618E-16
6.912742E+03	1.587725E-15	2.631449E-16
6.922731E+03	1.597989E-15	2.646733E-16
6.932721E+03	1.612840E-15	2.669564E-16
6.942710E+03	1.631711E-15	2.698987E-16
6.952700E+03	1.654378E-15	2.734624E-16
6.962689E+03	1.680250E-15	2.775478E-16
6.972679E+03	1.709096E-15	2.821162E-16
6.982668E+03	1.740026E-15	2.870195E-16
6.992658E+03	1.772546E-15	2.921755E-16
7.002647E+03	1.805989E-15	2.974737E-16
7.012637E+03	1.839699E-15	3.028055E-16
7.022626E+03	1.872904E-15	3.080443E-16
7.032616E+03	1.905426E-15	3.131605E-16
7.042605E+03	1.936572E-15	3.180407E-16
7.052595E+03	1.966335E-15	3.226842E-16
7.062584E+03	1.994595E-15	3.270717E-16
7.072574E+03	2.022005E-15	3.313110E-16
7.082563E+03	2.048773E-15	3.354363E-16
7.092553E+03	2.075880E-15	3.396082E-16
7.102542E+03	2.104339E-15	3.439925E-16
7.112532E+03	2.135340E-15	3.487828E-16
7.122521E+03	2.170194E-15	3.541922E-16
7.132511E+03	2.210110E-15	3.604161E-16
7.142500E+03	2.256729E-15	3.677202E-16
7.152490E+03	2.311528E-15	3.763422E-16
7.162479E+03	2.375961E-15	3.865152E-16
7.172469E+03	2.451399E-15	3.984584E-16
7.182458E+03	2.538827E-15	4.123272E-16
7.192448E+03	2.639608E-15	4.283379E-16
7.202437E+03	2.753758E-15	4.464875E-16
7.212427E+03	2.881331E-15	4.667794E-16
7.222416E+03	3.021288E-15	4.890398E-16
7.232406E+03	3.171206E-15	5.128720E-16
7.242395E+03	3.328210E-15	5.378068E-16
7.252385E+03	3.486916E-15	5.629726E-16
7.262375E+03	3.641502E-15	5.874291E-16
7.272364E+03	3.784862E-15	6.100331E-16
7.282354E+03	3.909423E-15	6.295694E-16
7.292343E+03	4.007529E-15	6.448144E-16
7.302333E+03	4.073704E-15	6.548988E-16
7.312322E+03	4.102935E-15	6.590309E-16
7.322312E+03	4.093735E-15	6.569873E-16
7.332301E+03	4.046888E-15	6.489101E-16
7.342291E+03	3.965610E-15	6.353303E-16
7.352280E+03	3.854657E-15	6.170234E-16
7.362270E+03	3.720981E-15	5.951139E-16
7.372259E+03	3.570519E-15	5.705599E-16
7.382249E+03	3.409926E-15	5.444308E-16
7.392238E+03	3.244707E-15	5.176091E-16
7.402228E+03	3.079309E-15	4.908053E-16
7.412217E+03	2.917047E-15	4.645473E-16
7.422207E+03	2.759948E-15	4.391565E-16
7.432196E+03	2.609713E-15	4.149009E-16
7.442186E+03	2.467360E-15	3.919393E-16
7.452175E+03	2.332817E-15	3.702571E-16
7.462165E+03	2.206295E-15	3.498844E-16
7.472154E+03	2.088313E-15	3.309000E-16
7.482144E+03	1.978795E-15	3.132885E-16
7.492133E+03	1.877783E-15	2.970529E-16
7.502123E+03	1.785764E-15	2.822668E-16
7.512112E+03	1.703264E-15	2.690094E-16
7.522102E+03	1.630368E-15	2.572906E-16
7.532091E+03	1.567502E-15	2.471737E-16
7.542081E+03	1.515328E-15	2.387589E-16
7.552070E+03	1.474010E-15	2.320683E-16
7.562060E+03	1.443661E-15	2.271153E-16
7.572049E+03	1.424590E-15	2.239445E-16
7.582039E+03	1.416901E-15	2.225685E-16
7.592028E+03	1.420641E-15	2.229903E-16
7.602018E+03	1.435787E-15	2.252026E-16
7.612007E+03	1.462221E-15	2.291830E-16
7.621997E+03	1.499679E-15	2.348869E-16
7.631986E+03	1.547533E-15	2.422122E-16
7.641976E+03	1.605103E-15	2.510497E-16
7.651965E+03	1.671313E-15	2.612284E-16
7.661955E+03	1.744135E-15	2.724296E-16
7.671944E+03	1.821491E-15	2.843270E-16
7.681934E+03	1.900542E-15	2.964771E-16
7.691923E+03	1.978686E-15	3.084746E-16
7.701913E+03	2.052748E-15	3.198255E-16
7.711903E+03	2.119716E-15	3.300628E-16
7.721892E+03	2.177400E-15	3.388482E-16
7.731882E+03	2.224255E-15	3.459442E-16
7.741871E+03	2.258838E-15	3.511305E-16
7.751861E+03	2.281076E-15	3.543987E-16
