#wls	flux	fluxerr
1.598322E+03	7.175733E-18	1.800701E-18
1.638280E+03	7.394234E-18	1.840814E-18
1.678238E+03	7.549887E-18	1.864079E-18
1.718196E+03	7.631890E-18	1.868201E-18
1.758154E+03	7.633058E-18	1.851878E-18
1.798112E+03	7.540838E-18	1.812612E-18
1.838070E+03	7.331610E-18	1.745418E-18
1.878028E+03	6.993260E-18	1.648281E-18
1.917986E+03	6.514274E-18	1.519496E-18
1.957944E+03	5.911437E-18	1.364055E-18
1.997902E+03	5.226246E-18	1.192479E-18
2.037860E+03	4.544167E-18	1.024816E-18
2.077818E+03	3.968024E-18	8.840928E-19
2.117776E+03	3.597329E-18	7.914599E-19
2.157734E+03	3.490802E-18	7.580257E-19
2.197692E+03	3.670197E-18	7.862017E-19
2.237650E+03	4.121354E-18	8.704370E-19
2.277609E+03	4.809709E-18	1.000982E-18
2.317567E+03	5.678621E-18	1.163881E-18
2.357525E+03	6.670350E-18	1.345581E-18
2.397483E+03	7.727295E-18	1.533245E-18
2.437441E+03	8.812177E-18	1.718726E-18
2.477399E+03	9.899685E-18	1.896661E-18
2.517357E+03	1.097168E-17	2.063390E-18
2.557315E+03	1.202888E-17	2.218999E-18
2.597273E+03	1.306743E-17	2.362753E-18
2.637231E+03	1.409870E-17	2.496694E-18
2.677189E+03	1.513103E-17	2.622190E-18
2.717147E+03	1.616681E-17	2.739504E-18
2.757105E+03	1.722348E-17	2.851368E-18
2.797063E+03	1.831281E-17	2.959364E-18
2.837021E+03	1.943924E-17	3.063762E-18
2.876979E+03	2.062471E-17	3.167485E-18
2.916937E+03	2.188526E-17	3.272274E-18
2.956895E+03	2.322955E-17	3.378594E-18
2.996853E+03	2.468762E-17	3.489881E-18
3.006843E+03	2.507371E-17	3.518882E-18
3.016832E+03	2.546824E-17	3.548288E-18
3.026822E+03	2.587166E-17	3.578140E-18
3.036811E+03	2.628574E-17	3.608665E-18
3.046801E+03	2.671209E-17	3.640055E-18
3.056790E+03	2.715918E-17	3.673429E-18
3.066780E+03	2.762643E-17	3.708654E-18
3.076769E+03	2.812454E-17	3.747107E-18
3.086759E+03	2.863085E-17	3.785708E-18
3.096748E+03	2.915611E-17	3.825856E-18
3.106738E+03	2.970009E-17	3.867478E-18
3.116727E+03	3.027452E-17	3.912050E-18
3.126717E+03	3.085575E-17	3.956462E-18
3.136706E+03	3.146775E-17	4.003762E-18
3.146696E+03	3.208624E-17	4.050813E-18
3.156685E+03	3.273609E-17	4.100733E-18
3.166675E+03	3.339236E-17	4.150348E-18
3.176665E+03	3.408083E-17	4.202848E-18
3.186654E+03	3.478915E-17	4.256649E-18
3.196644E+03	3.550408E-17	4.310118E-18
3.206633E+03	3.625285E-17	4.366546E-18
3.216623E+03	3.702251E-17	4.424319E-18
3.226612E+03	3.781348E-17	4.483463E-18
3.236602E+03	3.862611E-17	4.543999E-18
3.246591E+03	3.946080E-17	4.605951E-18
3.256581E+03	4.031788E-17	4.669342E-18
3.266570E+03	4.119760E-17	4.734184E-18
3.276560E+03	4.210020E-17	4.800492E-18
3.286549E+03	4.302578E-17	4.868271E-18
3.296539E+03	4.397431E-17	4.937512E-18
3.306528E+03	4.494559E-17	5.008193E-18
3.316518E+03	4.593926E-17	5.080278E-18
3.326507E+03	4.697176E-17	5.155585E-18
3.336497E+03	4.800837E-17	5.230305E-18
3.346486E+03	4.906464E-17	5.306187E-18
3.356476E+03	5.015699E-17	5.385026E-18
3.366465E+03	5.124771E-17	5.462803E-18
3.376455E+03	5.237069E-17	5.543199E-18
3.386444E+03	5.348591E-17	5.622026E-18
3.396434E+03	5.462751E-17	5.702967E-18
3.406423E+03	5.577272E-17	5.783704E-18
3.416413E+03	5.689681E-17	5.861789E-18
3.426402E+03	5.803415E-17	5.940893E-18
3.436392E+03	5.915922E-17	6.018508E-18
3.446381E+03	6.026567E-17	6.094133E-18
3.456371E+03	6.132564E-17	6.165120E-18
3.466360E+03	6.237450E-17	6.235206E-18
3.476350E+03	6.338462E-17	6.301785E-18
3.486339E+03	6.434980E-17	6.364430E-18
3.496329E+03	6.526472E-17	6.422809E-18
3.506318E+03	6.612557E-17	6.476742E-18
3.516308E+03	6.695329E-17	6.528466E-18
3.526297E+03	6.770394E-17	6.573875E-18
3.536287E+03	6.840484E-17	6.615816E-18
3.546276E+03	6.906540E-17	6.655364E-18
3.556266E+03	6.972348E-17	6.696301E-18
3.566255E+03	7.035301E-17	6.736241E-18
3.576245E+03	7.100286E-17	6.779978E-18
3.586234E+03	7.172593E-17	6.832640E-18
3.596224E+03	7.249838E-17	6.892023E-18
3.606213E+03	7.335793E-17	6.961793E-18
3.616203E+03	7.423066E-17	7.035024E-18
3.626192E+03	7.513868E-17	7.113929E-18
3.636182E+03	7.603529E-17	7.194206E-18
3.646172E+03	7.687757E-17	7.271896E-18
3.656161E+03	7.770148E-17	7.350459E-18
3.666151E+03	7.847368E-17	7.426786E-18
3.676140E+03	7.918958E-17	7.500471E-18
3.686130E+03	7.982298E-17	7.569043E-18
3.696119E+03	8.042664E-17	7.637499E-18
3.706109E+03	8.098004E-17	7.703881E-18
3.716098E+03	8.148985E-17	7.768798E-18
3.726088E+03	8.196427E-17	7.832996E-18
3.736077E+03	8.241249E-17	7.897317E-18
3.746067E+03	8.284444E-17	7.962673E-18
3.756056E+03	8.327036E-17	8.030011E-18
3.766046E+03	8.372639E-17	8.102796E-18
3.776035E+03	8.417125E-17	8.177019E-18
3.786025E+03	8.464060E-17	8.256115E-18
3.796014E+03	8.514392E-17	8.341009E-18
3.806004E+03	8.571606E-17	8.435144E-18
3.815993E+03	8.631329E-17	8.534257E-18
3.825983E+03	8.699511E-17	8.644268E-18
3.835972E+03	8.771576E-17	8.760705E-18
3.845962E+03	8.850689E-17	8.886783E-18
3.855951E+03	8.939969E-17	9.025738E-18
3.865941E+03	9.037135E-17	9.175406E-18
3.875930E+03	9.139730E-17	9.333397E-18
3.885920E+03	9.253252E-17	9.505438E-18
3.895909E+03	9.372269E-17	9.686103E-18
3.905899E+03	9.502124E-17	9.881038E-18
3.915888E+03	9.639827E-17	1.008731E-17
3.925878E+03	9.784985E-17	1.030466E-17
3.935867E+03	9.934196E-17	1.052962E-17
3.945857E+03	1.009250E-16	1.076764E-17
3.955846E+03	1.025628E-16	1.101501E-17
3.965836E+03	1.042460E-16	1.127083E-17
3.975825E+03	1.059643E-16	1.153408E-17
3.985815E+03	1.077063E-16	1.180356E-17
3.995804E+03	1.094597E-16	1.207796E-17
4.005794E+03	1.112113E-16	1.235583E-17
4.015783E+03	1.129474E-16	1.263560E-17
4.025773E+03	1.146530E-16	1.291553E-17
4.035762E+03	1.163117E-16	1.319366E-17
4.045752E+03	1.179387E-16	1.347160E-17
4.055741E+03	1.194510E-16	1.373969E-17
4.065731E+03	1.208617E-16	1.399915E-17
4.075720E+03	1.221512E-16	1.424741E-17
4.085710E+03	1.233330E-16	1.448572E-17
4.095700E+03	1.243178E-16	1.470322E-17
4.105689E+03	1.251179E-16	1.490085E-17
4.115679E+03	1.257520E-16	1.508033E-17
4.125668E+03	1.261464E-16	1.523232E-17
4.135658E+03	1.263715E-16	1.536475E-17
4.145647E+03	1.263731E-16	1.547050E-17
4.155637E+03	1.262488E-16	1.556098E-17
4.165626E+03	1.259701E-16	1.563231E-17
4.175616E+03	1.256459E-16	1.569766E-17
4.185605E+03	1.252522E-16	1.575383E-17
4.195595E+03	1.248975E-16	1.581437E-17
4.205584E+03	1.245890E-16	1.588023E-17
4.215574E+03	1.243308E-16	1.595204E-17
4.225563E+03	1.242223E-16	1.604271E-17
4.235553E+03	1.242627E-16	1.615248E-17
4.245542E+03	1.244485E-16	1.628124E-17
4.255532E+03	1.248703E-16	1.644125E-17
4.265521E+03	1.255197E-16	1.663196E-17
4.275511E+03	1.264167E-16	1.685657E-17
4.285500E+03	1.275464E-16	1.711366E-17
4.295490E+03	1.289878E-16	1.741447E-17
4.305479E+03	1.307182E-16	1.775664E-17
4.315469E+03	1.327440E-16	1.814171E-17
4.325458E+03	1.350700E-16	1.857106E-17
4.335448E+03	1.376992E-16	1.904579E-17
4.345437E+03	1.406335E-16	1.956686E-17
4.355427E+03	1.438751E-16	2.013528E-17
4.365416E+03	1.474279E-16	2.075230E-17
4.375406E+03	1.512976E-16	2.141939E-17
4.385395E+03	1.554938E-16	2.213866E-17
4.395385E+03	1.600357E-16	2.291356E-17
4.405374E+03	1.649501E-16	2.374869E-17
4.415364E+03	1.702733E-16	2.465015E-17
4.425353E+03	1.760582E-16	2.562647E-17
4.435343E+03	1.823709E-16	2.668834E-17
4.445332E+03	1.892903E-16	2.784850E-17
4.455322E+03	1.969126E-16	2.912250E-17
4.465311E+03	2.053497E-16	3.052844E-17
4.475301E+03	2.147744E-16	3.209389E-17
4.485290E+03	2.252140E-16	3.382507E-17
4.495280E+03	2.368501E-16	3.575150E-17
4.505269E+03	2.498025E-16	3.789386E-17
4.515259E+03	2.641463E-16	4.026635E-17
4.525248E+03	2.799149E-16	4.287691E-17
4.535238E+03	2.971375E-16	4.573292E-17
4.545228E+03	3.155030E-16	4.878915E-17
4.555217E+03	3.347778E-16	5.201150E-17
4.565207E+03	3.545679E-16	5.534004E-17
4.575196E+03	3.743935E-16	5.870032E-17
4.585186E+03	3.937951E-16	6.201965E-17
4.595175E+03	4.120395E-16	6.518076E-17
4.605165E+03	4.287388E-16	6.811928E-17
4.615154E+03	4.434930E-16	7.076781E-17
4.625144E+03	4.560729E-16	7.308534E-17
4.635133E+03	4.660398E-16	7.499657E-17
4.645123E+03	4.733565E-16	7.648999E-17
4.655112E+03	4.779809E-16	7.755330E-17
4.665102E+03	4.800886E-16	7.820965E-17
4.675091E+03	4.796328E-16	7.844640E-17
4.685081E+03	4.770074E-16	7.832320E-17
4.695070E+03	4.726375E-16	7.790599E-17
4.705060E+03	4.671351E-16	7.729277E-17
4.715049E+03	4.608427E-16	7.653839E-17
4.725039E+03	4.544539E-16	7.575708E-17
4.735028E+03	4.485645E-16	7.504848E-17
4.745018E+03	4.438629E-16	7.452917E-17
4.755007E+03	4.407471E-16	7.426847E-17
4.764997E+03	4.398901E-16	7.438306E-17
4.774986E+03	4.417493E-16	7.495453E-17
4.784976E+03	4.465676E-16	7.602895E-17
4.794965E+03	4.545782E-16	7.765112E-17
4.804955E+03	4.656514E-16	7.980411E-17
4.814944E+03	4.798039E-16	8.249570E-17
4.824934E+03	4.968598E-16	8.570037E-17
4.834923E+03	5.165551E-16	8.937684E-17
4.844913E+03	5.384720E-16	9.345650E-17
4.854902E+03	5.621862E-16	9.786855E-17
4.864892E+03	5.868678E-16	1.024704E-16
4.874881E+03	6.120378E-16	1.071793E-16
4.884871E+03	6.370917E-16	1.118891E-16
4.894860E+03	6.614058E-16	1.164893E-16
4.904850E+03	6.843722E-16	1.208710E-16
4.914839E+03	7.054245E-16	1.249314E-16
4.924829E+03	7.241198E-16	1.285885E-16
4.934818E+03	7.402445E-16	1.318006E-16
4.944808E+03	7.537794E-16	1.345602E-16
4.954797E+03	7.648597E-16	1.368878E-16
4.964787E+03	7.737746E-16	1.388315E-16
4.974776E+03	7.808829E-16	1.404528E-16
4.984766E+03	7.863316E-16	1.417756E-16
4.994756E+03	7.897813E-16	1.427363E-16
5.004745E+03	7.906512E-16	1.432271E-16
5.014735E+03	7.882082E-16	1.431116E-16
5.024724E+03	7.822794E-16	1.423541E-16
5.034714E+03	7.723912E-16	1.408644E-16
5.044703E+03	7.586467E-16	1.386565E-16
5.054693E+03	7.417566E-16	1.358565E-16
5.064682E+03	7.226305E-16	1.326279E-16
5.074672E+03	7.027640E-16	1.292437E-16
5.084661E+03	6.833335E-16	1.259203E-16
5.094651E+03	6.655070E-16	1.228742E-16
5.104640E+03	6.506610E-16	1.203621E-16
5.114630E+03	6.393898E-16	1.184977E-16
5.124619E+03	6.326357E-16	1.174598E-16
5.134609E+03	6.307261E-16	1.173140E-16
5.144598E+03	6.336155E-16	1.180568E-16
5.154588E+03	6.413089E-16	1.196937E-16
5.164577E+03	6.536427E-16	1.221985E-16
5.174567E+03	6.697446E-16	1.254120E-16
5.184556E+03	6.890408E-16	1.292296E-16
5.194546E+03	7.104285E-16	1.334467E-16
5.204535E+03	7.332898E-16	1.379484E-16
5.214525E+03	7.569180E-16	1.426023E-16
5.224514E+03	7.807813E-16	1.473083E-16
5.234504E+03	8.039936E-16	1.518987E-16
5.244493E+03	8.261718E-16	1.563000E-16
5.254483E+03	8.468697E-16	1.604265E-16
5.264472E+03	8.657955E-16	1.642213E-16
5.274462E+03	8.827843E-16	1.676515E-16
5.284451E+03	8.978080E-16	1.707099E-16
5.294441E+03	9.110275E-16	1.734257E-16
5.304430E+03	9.227381E-16	1.758536E-16
5.314420E+03	9.333043E-16	1.780620E-16
5.324409E+03	9.429629E-16	1.800951E-16
5.334399E+03	9.525203E-16	1.821066E-16
5.344388E+03	9.623106E-16	1.841599E-16
5.354378E+03	9.727227E-16	1.863297E-16
5.364367E+03	9.847188E-16	1.888006E-16
5.374357E+03	9.986861E-16	1.916474E-16
5.384346E+03	1.014898E-15	1.949233E-16
5.394336E+03	1.033913E-15	1.987367E-16
5.404325E+03	1.056149E-15	2.031689E-16
5.414315E+03	1.081158E-15	2.081346E-16
5.424304E+03	1.109079E-15	2.136613E-16
5.434294E+03	1.139194E-15	2.196113E-16
5.444284E+03	1.171343E-15	2.259541E-16
5.454273E+03	1.205129E-15	2.326132E-16
5.464263E+03	1.240149E-15	2.395106E-16
5.474252E+03	1.276035E-15	2.465751E-16
5.484242E+03	1.312378E-15	2.537274E-16
5.494231E+03	1.348507E-15	2.608367E-16
5.504221E+03	1.383275E-15	2.676809E-16
5.514210E+03	1.415226E-15	2.739770E-16
5.524200E+03	1.442864E-15	2.794339E-16
5.534189E+03	1.464569E-15	2.837362E-16
5.544179E+03	1.479711E-15	2.867607E-16
5.554168E+03	1.487110E-15	2.882767E-16
5.564158E+03	1.487430E-15	2.884120E-16
5.574147E+03	1.480814E-15	2.871931E-16
5.584137E+03	1.468705E-15	2.848990E-16
5.594126E+03	1.451664E-15	2.816386E-16
5.604116E+03	1.431059E-15	2.776771E-16
5.614105E+03	1.408033E-15	2.732360E-16
5.624095E+03	1.382585E-15	2.683159E-16
5.634084E+03	1.355186E-15	2.630083E-16
5.644074E+03	1.325732E-15	2.572938E-16
5.654063E+03	1.293674E-15	2.510659E-16
5.664053E+03	1.258324E-15	2.441921E-16
5.674042E+03	1.219016E-15	2.365436E-16
5.684032E+03	1.176133E-15	2.281959E-16
5.694021E+03	1.129763E-15	2.191669E-16
5.704011E+03	1.080696E-15	2.096110E-16
5.714000E+03	1.030182E-15	1.997717E-16
5.723990E+03	9.802753E-16	1.900485E-16
5.733979E+03	9.325090E-16	1.807393E-16
5.743969E+03	8.892302E-16	1.722993E-16
5.753958E+03	8.526635E-16	1.651595E-16
5.763948E+03	8.242379E-16	1.595958E-16
5.773937E+03	8.055205E-16	1.559106E-16
5.783927E+03	7.978158E-16	1.543541E-16
5.793916E+03	8.023123E-16	1.551538E-16
5.803906E+03	8.200014E-16	1.584979E-16
5.813895E+03	8.519845E-16	1.645953E-16
5.823885E+03	8.992198E-16	1.736262E-16
5.833874E+03	9.626047E-16	1.857580E-16
5.843864E+03	1.042168E-15	2.009899E-16
5.853853E+03	1.137267E-15	2.191909E-16
5.863843E+03	1.246490E-15	2.400818E-16
5.873832E+03	1.366077E-15	2.629314E-16
5.883822E+03	1.491491E-15	2.868611E-16
5.893811E+03	1.617368E-15	3.108352E-16
5.903801E+03	1.736756E-15	3.335165E-16
5.913791E+03	1.843566E-15	3.537374E-16
5.923780E+03	1.933137E-15	3.706082E-16
5.933770E+03	2.002500E-15	3.835675E-16
5.943759E+03	2.050258E-15	3.923571E-16
5.953749E+03	2.076531E-15	3.970100E-16
5.963738E+03	2.083888E-15	3.980286E-16
5.973728E+03	2.074691E-15	3.958736E-16
5.983717E+03	2.051713E-15	3.910837E-16
5.993707E+03	2.018969E-15	3.844317E-16
6.003696E+03	1.979287E-15	3.764622E-16
6.013686E+03	1.936612E-15	3.679295E-16
6.023675E+03	1.894697E-15	3.595489E-16
6.033665E+03	1.855983E-15	3.517828E-16
6.043654E+03	1.823414E-15	3.451874E-16
6.053644E+03	1.799219E-15	3.401802E-16
6.063633E+03	1.785080E-15	3.370736E-16
6.073623E+03	1.781677E-15	3.359884E-16
6.083612E+03	1.790140E-15	3.371297E-16
6.093602E+03	1.810302E-15	3.404569E-16
6.103591E+03	1.841263E-15	3.457914E-16
6.113581E+03	1.882548E-15	3.530354E-16
6.123570E+03	1.932189E-15	3.618111E-16
6.133560E+03	1.988696E-15	3.718321E-16
6.143549E+03	2.050301E-15	3.827620E-16
6.153539E+03	2.114354E-15	3.941011E-16
6.163528E+03	2.179687E-15	4.056292E-16
6.173518E+03	2.245159E-15	4.171319E-16
6.183507E+03	2.309665E-15	4.284031E-16
6.193497E+03	2.373954E-15	4.395816E-16
6.203486E+03	2.438054E-15	4.506715E-16
6.213476E+03	2.501932E-15	4.616661E-16
6.223465E+03	2.564109E-15	4.722922E-16
6.233455E+03	2.623108E-15	4.822790E-16
6.243444E+03	2.676681E-15	4.912160E-16
6.253434E+03	2.720171E-15	4.982551E-16
6.263423E+03	2.749640E-15	5.026863E-16
6.273413E+03	2.761063E-15	5.037895E-16
6.283402E+03	2.751371E-15	5.010251E-16
6.293392E+03	2.718641E-15	4.940665E-16
6.303381E+03	2.662548E-15	4.828808E-16
6.313371E+03	2.584835E-15	4.678107E-16
6.323360E+03	2.488422E-15	4.494091E-16
6.333350E+03	2.378909E-15	4.287084E-16
6.343339E+03	2.261869E-15	4.067275E-16
6.353329E+03	2.144726E-15	3.848091E-16
6.363319E+03	2.033287E-15	3.639950E-16
6.373308E+03	1.934332E-15	3.454906E-16
6.383298E+03	1.853645E-15	3.303131E-16
6.393287E+03	1.796346E-15	3.193515E-16
6.403277E+03	1.767475E-15	3.134709E-16
6.413266E+03	1.772520E-15	3.136067E-16
6.423256E+03	1.817602E-15	3.207959E-16
6.433245E+03	1.911285E-15	3.364931E-16
6.443235E+03	2.064254E-15	3.625101E-16
6.453224E+03	2.290279E-15	4.011777E-16
6.463214E+03	2.605893E-15	4.552831E-16
6.473203E+03	3.030932E-15	5.281565E-16
6.483193E+03	3.586289E-15	6.232730E-16
6.493182E+03	4.291772E-15	7.438773E-16
6.503172E+03	5.159278E-15	8.918056E-16
6.513161E+03	6.185824E-15	1.066302E-15
6.523151E+03	7.342987E-15	1.262239E-15
6.533140E+03	8.566065E-15	1.468322E-15
6.543130E+03	9.759268E-15	1.668064E-15
6.553119E+03	1.080306E-14	1.841122E-15
6.563109E+03	1.157467E-14	1.966841E-15
6.573098E+03	1.198130E-14	2.029897E-15
6.583088E+03	1.198905E-14	2.025109E-15
6.593077E+03	1.161755E-14	1.956393E-15
6.603067E+03	1.093873E-14	1.836411E-15
6.613056E+03	1.005340E-14	1.682522E-15
6.623046E+03	9.066560E-15	1.512579E-15
6.633035E+03	8.066280E-15	1.341403E-15
6.643025E+03	7.114102E-15	1.179231E-15
6.653014E+03	6.251148E-15	1.032794E-15
6.663004E+03	5.493481E-15	9.046027E-16
6.672993E+03	4.845018E-15	7.951396E-16
6.682983E+03	4.297793E-15	7.029302E-16
6.692972E+03	3.842152E-15	6.262395E-16
6.702962E+03	3.465886E-15	5.629365E-16
6.712951E+03	3.155444E-15	5.106986E-16
6.722941E+03	2.900339E-15	4.677259E-16
6.732930E+03	2.690748E-15	4.323477E-16
6.742920E+03	2.517961E-15	4.030929E-16
6.752909E+03	2.375901E-15	3.789298E-16
6.762899E+03	2.258416E-15	3.588278E-16
6.772888E+03	2.160431E-15	3.419415E-16
6.782878E+03	2.078762E-15	3.277346E-16
6.792867E+03	2.009612E-15	3.155821E-16
6.802857E+03	1.950756E-15	3.051136E-16
6.812847E+03	1.900469E-15	2.960422E-16
6.822836E+03	1.856668E-15	2.880291E-16
6.832826E+03	1.818576E-15	2.809425E-16
6.842815E+03	1.785557E-15	2.746740E-16
6.852805E+03	1.757251E-15	2.691594E-16
6.862794E+03	1.734430E-15	2.645071E-16
6.872784E+03	1.717149E-15	2.607149E-16
6.882773E+03	1.705510E-15	2.577875E-16
6.892763E+03	1.700423E-15	2.558502E-16
6.902752E+03	1.701647E-15	2.548536E-16
6.912742E+03	1.709491E-15	2.548304E-16
6.922731E+03	1.724147E-15	2.557948E-16
6.932721E+03	1.744925E-15	2.576302E-16
6.942710E+03	1.771758E-15	2.603130E-16
6.952700E+03	1.804197E-15	2.637639E-16
6.962689E+03	1.841655E-15	2.678843E-16
6.972679E+03	1.883003E-15	2.724988E-16
6.982668E+03	1.927795E-15	2.775337E-16
6.992658E+03	1.974611E-15	2.827766E-16
7.002647E+03	2.021885E-15	2.879991E-16
7.012637E+03	2.068908E-15	2.930980E-16
7.022626E+03	2.113770E-15	2.978039E-16
7.032616E+03	2.155679E-15	3.020099E-16
7.042605E+03	2.193708E-15	3.055927E-16
7.052595E+03	2.227228E-15	3.084735E-16
7.062584E+03	2.256102E-15	3.106434E-16
7.072574E+03	2.280617E-15	3.121522E-16
7.082563E+03	2.301611E-15	3.131240E-16
7.092553E+03	2.320733E-15	3.137900E-16
7.102542E+03	2.339758E-15	3.143927E-16
7.112532E+03	2.361646E-15	3.153271E-16
7.122521E+03	2.388232E-15	3.168288E-16
7.132511E+03	2.421354E-15	3.191273E-16
7.142500E+03	2.463694E-15	3.225558E-16
7.152490E+03	2.518117E-15	3.274617E-16
7.162479E+03	2.586531E-15	3.340580E-16
7.172469E+03	2.672142E-15	3.427171E-16
7.182458E+03	2.777852E-15	3.537600E-16
7.192448E+03	2.906694E-15	3.675130E-16
7.202437E+03	3.060952E-15	3.841964E-16
7.212427E+03	3.243287E-15	4.040676E-16
7.222416E+03	3.454003E-15	4.270816E-16
7.232406E+03	3.692069E-15	4.530267E-16
7.242395E+03	3.952354E-15	4.811951E-16
7.252385E+03	4.227318E-15	5.106061E-16
7.262375E+03	4.506013E-15	5.398989E-16
7.272364E+03	4.771401E-15	5.670313E-16
7.282354E+03	5.005323E-15	5.898959E-16
7.292343E+03	5.188741E-15	6.063554E-16
7.302333E+03	5.306023E-15	6.147450E-16
7.312322E+03	5.346064E-15	6.139854E-16
7.322312E+03	5.304632E-15	6.038281E-16
7.332301E+03	5.186922E-15	5.851092E-16
7.342291E+03	5.004666E-15	5.593775E-16
7.352280E+03	4.772303E-15	5.284366E-16
7.362270E+03	4.508446E-15	4.944901E-16
7.372259E+03	4.228754E-15	4.593445E-16
7.382249E+03	3.946110E-15	4.244424E-16
7.392238E+03	3.670833E-15	3.908989E-16
7.402228E+03	3.409964E-15	3.594387E-16
7.412217E+03	3.165968E-15	3.302788E-16
7.422207E+03	2.940031E-15	3.034919E-16
7.432196E+03	2.731341E-15	2.789414E-16
7.442186E+03	2.538585E-15	2.564423E-16
7.452175E+03	2.360114E-15	2.357812E-16
7.462165E+03	2.194343E-15	2.167578E-16
7.472154E+03	2.040177E-15	1.992263E-16
7.482144E+03	1.896856E-15	1.830770E-16
7.492133E+03	1.764858E-15	1.683221E-16
7.502123E+03	1.643805E-15	1.548897E-16
7.512112E+03	1.534883E-15	1.428551E-16
7.522102E+03	1.438289E-15	1.321969E-16
7.532091E+03	1.355086E-15	1.229703E-16
7.542081E+03	1.285431E-15	1.151445E-16
7.552070E+03	1.230044E-15	1.087369E-16
7.562060E+03	1.189142E-15	1.037173E-16
7.572049E+03	1.162608E-15	1.000252E-16
7.582039E+03	1.150302E-15	9.759846E-17
7.592028E+03	1.152178E-15	9.638295E-17
7.602018E+03	1.168193E-15	9.632479E-17
7.612007E+03	1.198432E-15	9.738055E-17
7.621997E+03	1.243112E-15	9.951643E-17
7.631986E+03	1.302195E-15	1.026778E-16
7.641976E+03	1.376089E-15	1.068445E-16
7.651965E+03	1.463615E-15	1.118731E-16
7.661955E+03	1.562792E-15	1.175661E-16
7.671944E+03	1.669097E-15	1.235470E-16
7.681934E+03	1.777892E-15	1.294536E-16
7.691923E+03	1.882840E-15	1.348246E-16
7.701913E+03	1.978005E-15	1.392581E-16
7.711903E+03	2.057739E-15	1.424008E-16
7.721892E+03	2.118381E-15	1.440620E-16
7.731882E+03	2.158059E-15	1.441878E-16
7.741871E+03	2.176263E-15	1.428227E-16
7.751861E+03	2.173829E-15	1.400997E-16
