#wls	flux	fluxerr
1.597604E+03	4.984696E-05	8.713793E-07
1.637544E+03	5.297403E-05	9.231526E-07
1.677484E+03	5.581265E-05	9.695004E-07
1.717424E+03	5.829249E-05	1.009241E-06
1.757364E+03	6.029701E-05	1.040414E-06
1.797304E+03	6.164448E-05	1.059967E-06
1.837244E+03	6.207571E-05	1.063573E-06
1.877184E+03	6.134711E-05	1.047237E-06
1.917124E+03	5.925602E-05	1.007734E-06
1.957064E+03	5.576264E-05	9.446598E-07
1.997004E+03	5.117739E-05	8.635430E-07
2.036945E+03	4.624071E-05	7.770661E-07
2.076885E+03	4.206619E-05	7.039588E-07
2.116825E+03	3.984572E-05	6.639388E-07
2.156765E+03	4.053446E-05	6.724403E-07
2.196705E+03	4.473876E-05	7.388322E-07
2.236645E+03	5.273895E-05	8.669105E-07
2.276585E+03	6.450110E-05	1.055208E-06
2.316525E+03	7.971048E-05	1.297658E-06
2.356465E+03	9.791574E-05	1.586048E-06
2.396405E+03	1.186528E-04	1.912071E-06
2.436345E+03	1.415818E-04	2.269543E-06
2.476286E+03	1.665049E-04	2.654629E-06
2.516226E+03	1.934027E-04	3.066372E-06
2.556166E+03	2.223717E-04	3.505631E-06
2.596106E+03	2.536329E-04	3.975153E-06
2.636046E+03	2.874618E-04	4.478433E-06
2.675986E+03	3.241948E-04	5.019778E-06
2.715926E+03	3.642174E-04	5.604092E-06
2.755866E+03	4.079206E-04	6.236180E-06
2.795806E+03	4.557248E-04	6.921101E-06
2.835746E+03	5.080613E-04	7.663868E-06
2.875686E+03	5.654147E-04	8.470071E-06
2.915627E+03	6.283587E-04	9.346374E-06
2.955567E+03	6.975802E-04	1.030082E-05
2.995507E+03	7.739469E-04	1.134373E-05
3.005492E+03	7.942753E-04	1.161972E-05
3.015477E+03	8.151196E-04	1.190204E-05
3.025462E+03	8.365312E-04	1.219137E-05
3.035447E+03	8.585270E-04	1.248792E-05
3.045432E+03	8.813083E-04	1.279455E-05
3.055417E+03	9.050561E-04	1.311381E-05
3.065402E+03	9.297838E-04	1.344580E-05
3.075387E+03	9.554475E-04	1.378979E-05
3.085372E+03	9.821041E-04	1.414654E-05
3.095357E+03	1.009712E-03	1.451532E-05
3.105342E+03	1.038304E-03	1.489655E-05
3.115327E+03	1.067853E-03	1.528972E-05
3.125312E+03	1.098271E-03	1.569350E-05
3.135297E+03	1.129483E-03	1.610672E-05
3.145282E+03	1.161302E-03	1.652665E-05
3.155267E+03	1.193563E-03	1.695087E-05
3.165252E+03	1.226083E-03	1.737677E-05
3.175237E+03	1.258717E-03	1.780224E-05
3.185222E+03	1.291417E-03	1.822659E-05
3.195207E+03	1.324241E-03	1.865062E-05
3.205192E+03	1.357384E-03	1.907706E-05
3.215177E+03	1.391329E-03	1.951264E-05
3.225162E+03	1.426741E-03	1.996658E-05
3.235147E+03	1.464576E-03	2.045209E-05
3.245132E+03	1.505984E-03	2.098498E-05
3.255117E+03	1.552275E-03	2.158311E-05
3.265102E+03	1.604955E-03	2.226695E-05
3.275087E+03	1.665461E-03	2.305576E-05
3.285072E+03	1.735261E-03	2.396912E-05
3.295057E+03	1.815631E-03	2.502373E-05
3.305042E+03	1.907534E-03	2.623184E-05
3.315027E+03	2.011650E-03	2.760171E-05
3.325012E+03	2.128152E-03	2.913453E-05
3.334998E+03	2.256677E-03	3.082420E-05
3.344983E+03	2.396329E-03	3.265733E-05
3.354968E+03	2.545622E-03	3.461265E-05
3.364953E+03	2.702527E-03	3.666170E-05
3.374938E+03	2.864548E-03	3.876997E-05
3.384923E+03	3.028813E-03	4.089811E-05
3.394908E+03	3.192190E-03	4.300373E-05
3.404893E+03	3.351568E-03	4.504503E-05
3.414878E+03	3.504220E-03	4.698580E-05
3.424863E+03	3.647770E-03	4.879485E-05
3.434848E+03	3.780858E-03	5.045488E-05
3.444833E+03	3.902925E-03	5.195941E-05
3.454818E+03	4.014269E-03	5.331345E-05
3.464803E+03	4.115772E-03	5.452967E-05
3.474788E+03	4.208727E-03	5.562609E-05
3.484773E+03	4.294434E-03	5.662065E-05
3.494758E+03	4.373682E-03	5.752443E-05
3.504743E+03	4.446624E-03	5.834005E-05
3.514728E+03	4.512195E-03	5.905416E-05
3.524713E+03	4.568398E-03	5.964140E-05
3.534698E+03	4.612255E-03	6.006391E-05
3.544683E+03	4.640600E-03	6.028176E-05
3.554668E+03	4.650686E-03	6.026087E-05
3.564653E+03	4.640732E-03	5.998001E-05
3.574638E+03	4.610781E-03	5.944173E-05
3.584623E+03	4.561878E-03	5.866142E-05
3.594608E+03	4.494367E-03	5.764540E-05
3.604593E+03	4.407320E-03	5.638364E-05
3.614578E+03	4.299961E-03	5.486820E-05
3.624563E+03	4.173517E-03	5.311673E-05
3.634548E+03	4.031754E-03	5.117895E-05
3.644533E+03	3.880854E-03	4.913468E-05
3.654518E+03	3.728089E-03	4.707671E-05
3.664503E+03	3.580135E-03	4.508930E-05
3.674488E+03	3.442249E-03	4.323806E-05
3.684473E+03	3.318407E-03	4.157179E-05
3.694458E+03	3.211801E-03	4.012902E-05
3.704443E+03	3.125390E-03	3.894488E-05
3.714428E+03	3.061826E-03	3.805034E-05
3.724413E+03	3.023484E-03	3.747254E-05
3.734398E+03	3.011916E-03	3.722816E-05
3.744383E+03	3.028339E-03	3.732949E-05
3.754368E+03	3.073616E-03	3.778435E-05
3.764353E+03	3.147549E-03	3.858739E-05
3.774338E+03	3.249080E-03	3.972278E-05
3.784324E+03	3.375876E-03	4.115932E-05
3.794309E+03	3.523779E-03	4.284386E-05
3.804294E+03	3.687058E-03	4.470482E-05
3.814279E+03	3.858435E-03	4.665263E-05
3.824264E+03	4.029202E-03	4.858148E-05
3.834249E+03	4.190331E-03	5.038288E-05
3.844234E+03	4.333278E-03	5.195538E-05
3.854219E+03	4.450170E-03	5.320670E-05
3.864204E+03	4.535825E-03	5.407770E-05
3.874189E+03	4.588080E-03	5.454583E-05
3.884174E+03	4.607308E-03	5.461893E-05
3.894159E+03	4.597354E-03	5.434579E-05
3.904144E+03	4.564688E-03	5.380566E-05
3.914129E+03	4.516411E-03	5.308429E-05
3.924114E+03	4.460443E-03	5.227611E-05
3.934099E+03	4.404395E-03	5.147084E-05
3.944084E+03	4.353708E-03	5.073190E-05
3.954069E+03	4.312242E-03	5.010363E-05
3.964054E+03	4.281704E-03	4.960486E-05
3.974039E+03	4.260548E-03	4.921664E-05
3.984024E+03	4.245941E-03	4.890542E-05
3.994009E+03	4.235418E-03	4.864223E-05
4.003994E+03	4.226899E-03	4.840286E-05
4.013979E+03	4.219507E-03	4.817710E-05
4.023964E+03	4.213788E-03	4.797109E-05
4.033949E+03	4.211218E-03	4.780140E-05
4.043934E+03	4.213424E-03	4.768615E-05
4.053919E+03	4.221215E-03	4.763402E-05
4.063904E+03	4.233947E-03	4.763720E-05
4.073889E+03	4.249888E-03	4.767582E-05
4.083874E+03	4.267029E-03	4.772708E-05
4.093859E+03	4.283510E-03	4.777015E-05
4.103844E+03	4.298059E-03	4.779096E-05
4.113829E+03	4.309847E-03	4.778055E-05
4.123814E+03	4.318195E-03	4.773167E-05
4.133799E+03	4.322610E-03	4.763928E-05
4.143784E+03	4.322403E-03	4.749618E-05
4.153769E+03	4.316277E-03	4.728866E-05
4.163754E+03	4.302321E-03	4.699641E-05
4.173739E+03	4.278167E-03	4.659442E-05
4.183724E+03	4.240990E-03	4.605303E-05
4.193709E+03	4.188907E-03	4.535310E-05
4.203694E+03	4.121826E-03	4.449506E-05
4.213679E+03	4.041973E-03	4.350431E-05
4.223665E+03	3.954167E-03	4.243378E-05
4.233650E+03	3.864889E-03	4.135356E-05
4.243635E+03	3.780346E-03	4.032997E-05
4.253620E+03	3.706898E-03	3.943021E-05
4.263605E+03	3.649397E-03	3.870469E-05
4.273590E+03	3.609285E-03	3.816714E-05
4.283575E+03	3.585823E-03	3.780816E-05
4.293560E+03	3.576820E-03	3.760316E-05
4.303545E+03	3.578637E-03	3.751270E-05
4.313530E+03	3.586511E-03	3.748598E-05
4.323515E+03	3.597275E-03	3.748949E-05
4.333500E+03	3.610936E-03	3.752306E-05
4.343485E+03	3.628690E-03	3.759881E-05
4.353470E+03	3.653518E-03	3.774717E-05
4.363455E+03	3.692387E-03	3.803931E-05
4.373440E+03	3.752163E-03	3.854449E-05
4.383425E+03	3.837216E-03	3.930567E-05
4.393410E+03	3.949524E-03	4.034084E-05
4.403395E+03	4.085382E-03	4.160993E-05
4.413380E+03	4.237590E-03	4.303782E-05
4.423365E+03	4.398762E-03	4.454834E-05
4.433350E+03	4.557922E-03	4.602994E-05
4.443335E+03	4.701295E-03	4.734413E-05
4.453320E+03	4.818308E-03	4.838614E-05
4.463305E+03	4.900567E-03	4.907418E-05
4.473290E+03	4.943088E-03	4.936143E-05
4.483275E+03	4.948540E-03	4.927783E-05
4.493260E+03	4.924649E-03	4.890320E-05
4.503245E+03	4.880493E-03	4.832985E-05
4.513230E+03	4.825584E-03	4.765339E-05
4.523215E+03	4.768518E-03	4.695929E-05
4.533200E+03	4.715205E-03	4.630576E-05
4.543185E+03	4.667585E-03	4.571146E-05
4.553170E+03	4.625065E-03	4.517013E-05
4.563155E+03	4.585943E-03	4.466472E-05
4.573140E+03	4.547406E-03	4.416763E-05
4.583125E+03	4.506883E-03	4.365391E-05
4.593110E+03	4.462427E-03	4.310486E-05
4.603095E+03	4.412732E-03	4.250821E-05
4.613080E+03	4.357495E-03	4.186143E-05
4.623065E+03	4.297176E-03	4.116935E-05
4.633050E+03	4.232293E-03	4.043730E-05
4.643035E+03	4.163946E-03	3.967608E-05
4.653020E+03	4.094480E-03	3.890822E-05
4.663005E+03	4.027320E-03	3.816625E-05
4.672991E+03	3.966211E-03	3.748533E-05
4.682976E+03	3.914246E-03	3.689417E-05
4.692961E+03	3.873463E-03	3.641118E-05
4.702946E+03	3.844399E-03	3.604053E-05
4.712931E+03	3.825924E-03	3.577075E-05
4.722916E+03	3.815425E-03	3.557668E-05
4.732901E+03	3.809184E-03	3.542312E-05
4.742886E+03	3.803417E-03	3.527467E-05
4.752871E+03	3.795676E-03	3.510864E-05
4.762856E+03	3.783882E-03	3.490600E-05
4.772841E+03	3.766333E-03	3.465139E-05
4.782826E+03	3.742644E-03	3.434169E-05
4.792811E+03	3.712446E-03	3.397397E-05
4.802796E+03	3.675332E-03	3.354500E-05
4.812781E+03	3.631816E-03	3.305993E-05
4.822766E+03	3.583158E-03	3.253067E-05
4.832751E+03	3.531296E-03	3.197512E-05
4.842736E+03	3.479377E-03	3.142192E-05
4.852721E+03	3.431349E-03	3.090663E-05
4.862706E+03	3.390988E-03	3.046285E-05
4.872691E+03	3.360943E-03	3.011379E-05
4.882676E+03	3.342965E-03	2.987437E-05
4.892661E+03	3.337774E-03	2.975012E-05
4.902646E+03	3.344844E-03	2.973552E-05
4.912631E+03	3.362233E-03	2.981247E-05
4.922616E+03	3.387611E-03	2.995967E-05
4.932601E+03	3.419153E-03	3.016050E-05
4.942586E+03	3.454911E-03	3.039739E-05
4.952571E+03	3.493376E-03	3.065685E-05
4.962556E+03	3.534910E-03	3.094189E-05
4.972541E+03	3.580855E-03	3.126404E-05
4.982526E+03	3.632904E-03	3.163777E-05
4.992511E+03	3.693732E-03	3.208594E-05
5.002496E+03	3.766015E-03	3.263119E-05
5.012481E+03	3.851338E-03	3.328651E-05
5.022466E+03	3.949753E-03	3.405154E-05
5.032451E+03	4.059354E-03	3.490909E-05
5.042436E+03	4.176728E-03	3.582923E-05
5.052421E+03	4.297835E-03	3.677696E-05
5.062406E+03	4.417332E-03	3.770649E-05
5.072391E+03	4.529682E-03	3.857085E-05
5.082376E+03	4.631590E-03	3.934258E-05
5.092361E+03	4.720693E-03	4.000235E-05
5.102346E+03	4.795019E-03	4.053437E-05
5.112332E+03	4.854167E-03	4.093621E-05
5.122317E+03	4.898578E-03	4.121254E-05
5.132302E+03	4.929056E-03	4.137105E-05
5.142287E+03	4.947167E-03	4.142572E-05
5.152272E+03	4.955117E-03	4.139575E-05
5.162257E+03	4.955136E-03	4.130033E-05
5.172242E+03	4.949606E-03	4.115976E-05
5.182227E+03	4.940468E-03	4.099048E-05
5.192212E+03	4.928698E-03	4.080079E-05
5.202197E+03	4.913768E-03	4.058649E-05
5.212182E+03	4.894079E-03	4.033460E-05
5.222167E+03	4.867997E-03	4.003195E-05
5.232152E+03	4.834946E-03	3.967418E-05
5.242137E+03	4.794738E-03	3.926010E-05
5.252122E+03	4.748007E-03	3.879527E-05
5.262107E+03	4.696643E-03	3.829544E-05
5.272092E+03	4.642848E-03	3.777875E-05
5.282077E+03	4.588275E-03	3.725873E-05
5.292062E+03	4.534088E-03	3.674483E-05
5.302047E+03	4.480939E-03	3.624229E-05
5.312032E+03	4.429323E-03	3.575504E-05
5.322017E+03	4.380411E-03	3.529243E-05
5.332002E+03	4.335824E-03	3.486734E-05
5.341987E+03	4.296835E-03	3.448979E-05
5.351972E+03	4.263493E-03	3.415990E-05
5.361957E+03	4.235618E-03	3.387600E-05
5.371942E+03	4.212913E-03	3.363547E-05
5.381927E+03	4.193326E-03	3.342173E-05
5.391912E+03	4.174595E-03	3.321668E-05
5.401897E+03	4.154322E-03	3.300124E-05
5.411882E+03	4.129087E-03	3.274833E-05
5.421867E+03	4.095416E-03	3.243061E-05
5.431852E+03	4.050800E-03	3.202850E-05
5.441837E+03	3.993304E-03	3.152703E-05
5.451822E+03	3.922990E-03	3.092710E-05
5.461807E+03	3.843174E-03	3.025515E-05
5.471792E+03	3.760820E-03	2.956615E-05
5.481777E+03	3.685357E-03	2.893411E-05
5.491762E+03	3.623431E-03	2.841086E-05
5.501747E+03	3.575064E-03	2.799607E-05
5.511732E+03	3.538978E-03	2.767928E-05
5.521717E+03	3.514168E-03	2.745223E-05
5.531702E+03	3.499214E-03	2.730350E-05
5.541687E+03	3.492177E-03	2.721767E-05
5.551672E+03	3.490782E-03	2.717678E-05
5.561658E+03	3.491704E-03	2.715483E-05
5.571643E+03	3.491187E-03	2.712255E-05
5.581628E+03	3.486249E-03	2.705683E-05
5.591613E+03	3.475458E-03	2.694665E-05
5.601598E+03	3.458368E-03	2.678865E-05
5.611583E+03	3.435659E-03	2.658821E-05
5.621568E+03	3.409353E-03	2.636106E-05
5.631553E+03	3.382261E-03	2.612896E-05
5.641538E+03	3.356971E-03	2.591186E-05
5.651523E+03	3.336016E-03	2.572923E-05
5.661508E+03	3.321317E-03	2.559578E-05
5.671493E+03	3.313895E-03	2.551922E-05
5.681478E+03	3.313846E-03	2.550016E-05
5.691463E+03	3.320208E-03	2.553106E-05
5.701448E+03	3.331403E-03	2.559967E-05
5.711433E+03	3.345672E-03	2.569242E-05
5.721418E+03	3.361051E-03	2.579418E-05
5.731403E+03	3.375868E-03	2.589211E-05
5.741388E+03	3.389205E-03	2.597917E-05
5.751373E+03	3.400744E-03	2.605296E-05
5.761358E+03	3.410407E-03	2.611288E-05
5.771343E+03	3.418051E-03	2.615787E-05
5.781328E+03	3.423546E-03	2.618696E-05
5.791313E+03	3.426637E-03	2.619821E-05
5.801298E+03	3.426753E-03	2.618728E-05
5.811283E+03	3.423044E-03	2.614769E-05
5.821268E+03	3.414305E-03	2.607030E-05
5.831253E+03	3.398955E-03	2.594304E-05
5.841238E+03	3.375830E-03	2.575711E-05
5.851223E+03	3.345007E-03	2.551312E-05
5.861208E+03	3.308229E-03	2.522442E-05
5.871193E+03	3.268142E-03	2.491118E-05
5.881178E+03	3.227243E-03	2.459246E-05
5.891163E+03	3.187266E-03	2.428143E-05
5.901148E+03	3.148874E-03	2.398312E-05
5.911133E+03	3.111990E-03	2.369692E-05
5.921118E+03	3.075649E-03	2.341546E-05
5.931103E+03	3.038746E-03	2.313030E-05
5.941088E+03	3.000610E-03	2.283632E-05
5.951073E+03	2.961516E-03	2.253560E-05
5.961058E+03	2.922435E-03	2.223551E-05
5.971043E+03	2.884140E-03	2.194192E-05
5.981028E+03	2.846631E-03	2.165482E-05
5.991013E+03	2.809904E-03	2.137415E-05
6.000999E+03	2.774105E-03	2.110101E-05
6.010984E+03	2.739657E-03	2.083860E-05
6.020969E+03	2.707382E-03	2.059316E-05
6.030954E+03	2.678493E-03	2.037391E-05
6.040939E+03	2.653661E-03	2.018593E-05
6.050924E+03	2.633688E-03	2.003534E-05
6.060909E+03	2.619303E-03	1.992767E-05
6.070894E+03	2.610780E-03	1.986501E-05
6.080879E+03	2.607745E-03	1.984455E-05
6.090864E+03	2.609609E-03	1.986182E-05
6.100849E+03	2.615367E-03	1.990918E-05
6.110834E+03	2.623564E-03	1.997560E-05
6.120819E+03	2.632433E-03	2.004762E-05
6.130804E+03	2.640924E-03	2.011728E-05
6.140789E+03	2.648181E-03	2.017805E-05
6.150774E+03	2.653866E-03	2.022737E-05
6.160759E+03	2.658811E-03	2.027157E-05
6.170744E+03	2.664363E-03	2.032094E-05
6.180729E+03	2.671260E-03	2.038112E-05
6.190714E+03	2.679443E-03	2.045169E-05
6.200699E+03	2.688026E-03	2.052591E-05
6.210684E+03	2.695606E-03	2.059308E-05
6.220669E+03	2.700622E-03	2.064126E-05
6.230654E+03	2.701529E-03	2.065864E-05
6.240639E+03	2.697616E-03	2.063973E-05
6.250624E+03	2.689784E-03	2.059137E-05
6.260609E+03	2.680332E-03	2.053115E-05
6.270594E+03	2.672062E-03	2.048050E-05
6.280579E+03	2.667488E-03	2.045873E-05
6.290564E+03	2.669388E-03	2.048723E-05
6.300549E+03	2.679844E-03	2.058210E-05
6.310534E+03	2.698482E-03	2.074063E-05
6.320519E+03	2.723984E-03	2.095284E-05
6.330504E+03	2.755085E-03	2.120914E-05
6.340489E+03	2.790400E-03	2.149902E-05
6.350474E+03	2.828172E-03	2.180902E-05
6.360459E+03	2.866194E-03	2.212218E-05
6.370444E+03	2.901452E-03	2.241524E-05
6.380429E+03	2.930921E-03	2.266474E-05
6.390414E+03	2.951968E-03	2.285017E-05
6.400399E+03	2.962332E-03	2.295381E-05
6.410384E+03	2.961385E-03	2.297052E-05
6.420369E+03	2.950387E-03	2.290979E-05
6.430354E+03	2.931638E-03	2.278921E-05
6.440339E+03	2.908119E-03	2.263175E-05
6.450325E+03	2.882480E-03	2.245790E-05
6.460310E+03	2.855957E-03	2.227721E-05
6.470295E+03	2.828721E-03	2.209095E-05
6.480280E+03	2.801028E-03	2.190108E-05
6.490265E+03	2.774278E-03	2.171850E-05
6.500250E+03	2.750920E-03	2.156240E-05
6.510235E+03	2.735564E-03	2.146904E-05
6.520220E+03	2.735092E-03	2.149271E-05
6.530205E+03	2.750587E-03	2.164236E-05
6.540190E+03	2.774998E-03	2.186290E-05
6.550175E+03	2.801711E-03	2.210242E-05
6.560160E+03	2.826316E-03	2.232617E-05
6.570145E+03	2.845881E-03	2.251085E-05
6.580130E+03	2.859525E-03	2.264933E-05
6.590115E+03	2.867341E-03	2.274213E-05
6.600100E+03	2.869798E-03	2.279279E-05
6.610085E+03	2.867937E-03	2.280939E-05
6.620070E+03	2.862497E-03	2.279764E-05
6.630055E+03	2.854165E-03	2.276290E-05
6.640040E+03	2.843485E-03	2.270941E-05
6.650025E+03	2.830947E-03	2.264098E-05
6.660010E+03	2.816797E-03	2.255950E-05
6.669995E+03	2.801333E-03	2.246729E-05
6.679980E+03	2.784852E-03	2.236667E-05
6.689965E+03	2.767582E-03	2.225944E-05
6.699950E+03	2.749665E-03	2.214669E-05
6.709935E+03	2.731197E-03	2.202916E-05
6.719920E+03	2.712218E-03	2.190714E-05
6.729905E+03	2.692839E-03	2.178149E-05
6.739890E+03	2.673153E-03	2.165295E-05
6.749875E+03	2.653258E-03	2.152229E-05
6.759860E+03	2.633352E-03	2.139110E-05
6.769845E+03	2.613701E-03	2.126152E-05
6.779830E+03	2.594486E-03	2.113504E-05
6.789815E+03	2.575900E-03	2.101324E-05
6.799800E+03	2.558130E-03	2.089765E-05
6.809785E+03	2.541207E-03	2.078855E-05
6.819770E+03	2.525290E-03	2.068727E-05
6.829755E+03	2.510440E-03	2.059432E-05
6.839740E+03	2.496610E-03	2.050937E-05
6.849725E+03	2.483856E-03	2.043289E-05
6.859710E+03	2.471984E-03	2.036332E-05
6.869695E+03	2.460814E-03	2.029921E-05
6.879680E+03	2.450180E-03	2.023918E-05
6.889666E+03	2.439803E-03	2.018097E-05
6.899651E+03	2.429478E-03	2.012286E-05
6.909636E+03	2.419112E-03	2.006409E-05
6.919621E+03	2.408615E-03	2.000391E-05
6.929606E+03	2.397978E-03	1.994224E-05
6.939591E+03	2.387407E-03	1.988078E-05
6.949576E+03	2.377067E-03	1.982091E-05
6.959561E+03	2.367201E-03	1.976466E-05
6.969546E+03	2.358148E-03	1.971490E-05
6.979531E+03	2.350222E-03	1.967425E-05
6.989516E+03	2.343610E-03	1.964434E-05
6.999501E+03	2.338623E-03	1.962783E-05
7.009486E+03	2.335223E-03	1.962442E-05
7.019471E+03	2.333324E-03	1.963346E-05
7.029456E+03	2.332666E-03	1.965281E-05
7.039441E+03	2.332863E-03	1.967924E-05
7.049426E+03	2.333478E-03	1.970910E-05
7.059411E+03	2.334080E-03	1.973876E-05
7.069396E+03	2.334233E-03	1.976450E-05
7.079381E+03	2.333653E-03	1.978394E-05
7.089366E+03	2.332079E-03	1.979483E-05
7.099351E+03	2.329299E-03	1.979532E-05
7.109336E+03	2.325197E-03	1.978441E-05
7.119321E+03	2.319652E-03	1.976103E-05
7.129306E+03	2.312638E-03	1.972490E-05
7.139291E+03	2.304037E-03	1.967499E-05
7.149276E+03	2.293906E-03	1.961174E-05
7.159261E+03	2.282169E-03	1.953446E-05
7.169246E+03	2.268881E-03	1.944356E-05
7.179231E+03	2.254163E-03	1.934007E-05
7.189216E+03	2.237984E-03	1.922365E-05
7.199201E+03	2.220398E-03	1.909476E-05
7.209186E+03	2.201564E-03	1.895470E-05
7.219171E+03	2.181590E-03	1.880440E-05
7.229156E+03	2.160539E-03	1.864437E-05
7.239141E+03	2.138643E-03	1.847657E-05
7.249126E+03	2.116049E-03	1.830229E-05
7.259111E+03	2.092926E-03	1.812294E-05
7.269096E+03	2.069500E-03	1.794050E-05
7.279081E+03	2.045873E-03	1.775585E-05
7.289066E+03	2.022202E-03	1.757034E-05
7.299051E+03	1.998553E-03	1.738455E-05
7.309036E+03	1.974989E-03	1.719906E-05
7.319021E+03	1.951635E-03	1.701496E-05
7.329006E+03	1.928472E-03	1.683207E-05
7.338992E+03	1.905615E-03	1.665145E-05
7.348977E+03	1.883027E-03	1.647277E-05
7.358962E+03	1.860819E-03	1.629701E-05
7.368947E+03	1.839076E-03	1.612495E-05
7.378932E+03	1.817823E-03	1.595682E-05
7.388917E+03	1.797317E-03	1.579490E-05
7.398902E+03	1.777749E-03	1.564089E-05
7.408887E+03	1.759356E-03	1.549694E-05
7.418872E+03	1.742423E-03	1.536557E-05
7.428857E+03	1.727189E-03	1.524897E-05
7.438842E+03	1.713879E-03	1.514917E-05
7.448827E+03	1.702597E-03	1.506716E-05
7.458812E+03	1.693422E-03	1.500372E-05
7.468797E+03	1.686300E-03	1.495842E-05
7.478782E+03	1.681272E-03	1.493173E-05
7.488767E+03	1.678205E-03	1.492252E-05
7.498752E+03	1.676876E-03	1.492889E-05
7.508737E+03	1.677122E-03	1.494944E-05
7.518722E+03	1.678676E-03	1.498186E-05
7.528707E+03	1.681099E-03	1.502227E-05
7.538692E+03	1.684000E-03	1.506722E-05
7.548677E+03	1.686763E-03	1.511123E-05
7.558662E+03	1.688862E-03	1.514957E-05
7.568647E+03	1.689746E-03	1.517728E-05
7.578632E+03	1.688993E-03	1.519055E-05
7.588617E+03	1.686295E-03	1.518655E-05
7.598602E+03	1.681730E-03	1.516592E-05
7.608587E+03	1.675556E-03	1.513093E-05
7.618572E+03	1.668226E-03	1.508564E-05
7.628557E+03	1.660354E-03	1.503556E-05
7.638542E+03	1.652630E-03	1.498693E-05
7.648527E+03	1.645462E-03	1.494347E-05
7.658512E+03	1.639092E-03	1.490744E-05
7.668497E+03	1.633302E-03	1.487684E-05
7.678482E+03	1.627904E-03	1.485004E-05
7.688467E+03	1.622419E-03	1.482265E-05
7.698452E+03	1.616293E-03	1.478963E-05
7.708437E+03	1.609044E-03	1.474653E-05
7.718422E+03	1.600190E-03	1.468888E-05
7.728407E+03	1.589337E-03	1.461301E-05
7.738392E+03	1.576218E-03	1.451636E-05
7.748377E+03	1.560757E-03	1.439811E-05
