#wls	flux	fluxerr
1.597604E+03	1.159730E-04	5.646846E-07
1.637544E+03	1.227996E-04	5.978661E-07
1.677484E+03	1.288792E-04	6.274055E-07
1.717424E+03	1.340457E-04	6.524949E-07
1.757364E+03	1.380554E-04	6.719493E-07
1.797304E+03	1.404998E-04	6.837825E-07
1.837244E+03	1.408126E-04	6.852414E-07
1.877184E+03	1.384677E-04	6.737681E-07
1.917124E+03	1.330444E-04	6.473197E-07
1.957064E+03	1.245319E-04	6.058478E-07
1.997004E+03	1.136478E-04	5.528470E-07
2.036945E+03	1.020886E-04	4.965720E-07
2.076885E+03	9.231880E-05	4.490109E-07
2.116825E+03	8.691965E-05	4.227140E-07
2.156765E+03	8.789049E-05	4.273984E-07
2.196705E+03	9.646492E-05	4.690542E-07
2.236645E+03	1.131802E-04	5.502843E-07
2.276585E+03	1.379477E-04	6.706474E-07
2.316525E+03	1.700976E-04	8.268787E-07
2.356465E+03	2.085919E-04	1.013923E-06
2.396405E+03	2.523968E-04	1.226749E-06
2.436345E+03	3.007035E-04	1.461419E-06
2.476286E+03	3.530405E-04	1.715639E-06
2.516226E+03	4.092671E-04	1.988719E-06
2.556166E+03	4.694933E-04	2.281192E-06
2.596106E+03	5.340712E-04	2.594762E-06
2.636046E+03	6.034572E-04	2.931644E-06
2.675986E+03	6.781759E-04	3.294381E-06
2.715926E+03	7.588359E-04	3.685923E-06
2.755866E+03	8.459937E-04	4.108970E-06
2.795806E+03	9.401673E-04	4.566029E-06
2.835746E+03	1.041768E-03	5.059090E-06
2.875686E+03	1.151083E-03	5.589545E-06
2.915627E+03	1.268578E-03	6.159650E-06
2.955567E+03	1.394870E-03	6.772384E-06
2.995507E+03	1.530722E-03	7.431447E-06
3.005492E+03	1.566249E-03	7.603793E-06
3.015477E+03	1.602463E-03	7.779468E-06
3.025462E+03	1.639281E-03	7.958073E-06
3.035447E+03	1.676889E-03	8.140502E-06
3.045432E+03	1.715524E-03	8.327916E-06
3.055417E+03	1.755492E-03	8.521789E-06
3.065402E+03	1.796762E-03	8.721979E-06
3.075387E+03	1.839311E-03	8.928369E-06
3.085372E+03	1.883034E-03	9.140456E-06
3.095357E+03	1.927955E-03	9.358348E-06
3.105342E+03	1.973977E-03	9.581576E-06
3.115327E+03	2.021071E-03	9.810004E-06
3.125312E+03	2.069120E-03	1.004305E-05
3.135297E+03	2.117754E-03	1.027894E-05
3.145282E+03	2.166443E-03	1.051509E-05
3.155267E+03	2.214798E-03	1.074961E-05
3.165252E+03	2.262231E-03	1.097964E-05
3.175237E+03	2.308346E-03	1.120327E-05
3.185222E+03	2.352812E-03	1.141889E-05
3.195207E+03	2.395610E-03	1.162641E-05
3.205192E+03	2.436967E-03	1.182693E-05
3.215177E+03	2.477580E-03	1.202383E-05
3.225162E+03	2.518713E-03	1.222325E-05
3.235147E+03	2.562126E-03	1.243373E-05
3.245132E+03	2.609928E-03	1.266551E-05
3.255117E+03	2.664624E-03	1.293072E-05
3.265102E+03	2.728919E-03	1.324252E-05
3.275087E+03	2.805579E-03	1.361430E-05
3.285072E+03	2.896939E-03	1.405741E-05
3.295057E+03	3.005233E-03	1.458267E-05
3.305042E+03	3.132208E-03	1.519857E-05
3.315027E+03	3.278520E-03	1.590827E-05
3.325012E+03	3.444111E-03	1.671150E-05
3.334998E+03	3.628038E-03	1.760366E-05
3.344983E+03	3.828419E-03	1.857565E-05
3.354968E+03	4.042269E-03	1.961295E-05
3.364953E+03	4.265603E-03	2.069623E-05
3.374938E+03	4.494197E-03	2.180500E-05
3.384923E+03	4.722883E-03	2.291419E-05
3.394908E+03	4.946251E-03	2.399754E-05
3.404893E+03	5.159587E-03	2.503219E-05
3.414878E+03	5.358388E-03	2.599629E-05
3.424863E+03	5.539228E-03	2.687322E-05
3.434848E+03	5.701135E-03	2.765828E-05
3.444833E+03	5.844906E-03	2.835533E-05
3.454818E+03	5.972301E-03	2.897292E-05
3.464803E+03	6.086738E-03	2.952763E-05
3.474788E+03	6.192360E-03	3.003956E-05
3.484773E+03	6.292627E-03	3.052550E-05
3.494758E+03	6.390068E-03	3.099772E-05
3.504743E+03	6.485849E-03	3.146188E-05
3.514728E+03	6.578767E-03	3.191214E-05
3.524713E+03	6.664399E-03	3.232703E-05
3.534698E+03	6.735881E-03	3.267329E-05
3.544683E+03	6.785749E-03	3.291470E-05
3.554668E+03	6.807899E-03	3.302165E-05
3.564653E+03	6.798254E-03	3.297438E-05
3.574638E+03	6.760534E-03	3.279094E-05
3.584623E+03	6.713103E-03	3.256041E-05
3.594608E+03	6.671686E-03	3.235906E-05
3.604593E+03	6.614192E-03	3.207974E-05
3.614578E+03	6.517600E-03	3.161080E-05
3.624563E+03	6.371467E-03	3.090160E-05
3.634548E+03	6.174785E-03	2.994727E-05
3.644533E+03	5.938659E-03	2.880166E-05
3.654518E+03	5.679401E-03	2.754390E-05
3.664503E+03	5.411986E-03	2.624663E-05
3.674488E+03	5.147366E-03	2.496294E-05
3.684473E+03	4.894824E-03	2.373787E-05
3.694458E+03	4.663955E-03	2.261793E-05
3.698452E+03	2.602684E-03	1.262169E-05
3.699920E+03	2.616430E-03	1.268832E-05
3.701388E+03	2.628454E-03	1.274661E-05
3.702856E+03	2.639262E-03	1.279900E-05
3.704323E+03	2.647532E-03	1.283907E-05
3.705790E+03	2.670535E-03	1.295060E-05
3.707258E+03	2.702897E-03	1.310751E-05
3.708726E+03	2.709452E-03	1.313927E-05
3.710194E+03	2.728718E-03	1.323267E-05
3.711661E+03	2.756229E-03	1.336606E-05
3.713128E+03	2.774188E-03	1.345312E-05
3.714596E+03	2.789202E-03	1.352590E-05
3.716064E+03	2.810430E-03	1.362882E-05
3.717532E+03	2.827288E-03	1.371054E-05
3.718999E+03	2.828261E-03	1.371523E-05
3.720466E+03	2.835957E-03	1.375252E-05
3.721934E+03	2.848442E-03	1.381304E-05
3.723402E+03	2.870920E-03	1.392201E-05
3.724870E+03	2.887289E-03	1.400137E-05
3.726337E+03	2.897748E-03	1.405206E-05
3.727804E+03	2.908210E-03	1.410276E-05
3.729272E+03	2.921123E-03	1.416535E-05
3.730740E+03	2.927200E-03	1.419479E-05
3.732208E+03	2.931645E-03	1.421632E-05
3.733675E+03	2.933842E-03	1.422694E-05
3.735143E+03	2.936241E-03	1.423855E-05
3.736610E+03	2.936800E-03	1.424123E-05
3.738078E+03	2.940933E-03	1.426124E-05
3.739546E+03	2.956209E-03	1.433529E-05
3.741013E+03	2.967298E-03	1.438903E-05
3.742481E+03	2.972457E-03	1.441402E-05
3.743949E+03	2.972091E-03	1.441222E-05
3.745416E+03	2.972746E-03	1.441536E-05
3.746884E+03	2.982714E-03	1.446367E-05
3.748351E+03	2.985108E-03	1.447525E-05
3.749819E+03	2.987398E-03	1.448633E-05
3.751287E+03	2.994093E-03	1.451876E-05
3.752754E+03	2.991566E-03	1.450648E-05
3.754222E+03	2.991394E-03	1.450562E-05
3.755689E+03	3.003624E-03	1.456489E-05
3.757157E+03	3.013603E-03	1.461325E-05
3.758625E+03	3.013942E-03	1.461487E-05
3.760093E+03	3.005868E-03	1.457569E-05
3.761560E+03	3.013899E-03	1.461460E-05
3.763027E+03	3.026448E-03	1.467542E-05
3.764495E+03	3.038694E-03	1.473477E-05
3.765963E+03	3.056798E-03	1.482253E-05
3.767431E+03	3.075730E-03	1.491431E-05
3.768899E+03	3.100219E-03	1.503302E-05
3.770365E+03	3.133557E-03	1.519465E-05
3.771833E+03	3.156116E-03	1.530401E-05
3.773301E+03	3.184854E-03	1.544333E-05
3.774769E+03	3.230266E-03	1.566349E-05
3.776237E+03	3.276623E-03	1.588825E-05
3.777703E+03	3.298307E-03	1.599336E-05
3.779171E+03	3.325456E-03	1.612497E-05
3.780639E+03	3.374235E-03	1.636147E-05
3.782107E+03	3.418815E-03	1.657760E-05
3.783575E+03	3.474230E-03	1.684627E-05
3.785042E+03	3.540281E-03	1.716652E-05
3.786509E+03	3.588742E-03	1.740146E-05
3.787977E+03	3.644029E-03	1.766951E-05
3.789445E+03	3.714394E-03	1.801066E-05
3.790913E+03	3.779119E-03	1.832447E-05
3.792380E+03	3.835830E-03	1.859942E-05
3.793848E+03	3.906288E-03	1.894103E-05
3.795315E+03	3.968215E-03	1.924126E-05
3.796783E+03	4.033886E-03	1.955965E-05
3.798251E+03	4.098866E-03	1.987469E-05
3.799718E+03	4.157473E-03	2.015883E-05
3.801186E+03	4.221790E-03	2.047065E-05
3.802654E+03	4.286343E-03	2.078361E-05
3.804121E+03	4.336355E-03	2.102607E-05
3.805589E+03	4.385977E-03	2.126663E-05
3.807056E+03	4.444515E-03	2.155043E-05
3.808524E+03	4.515594E-03	2.189503E-05
3.809992E+03	4.578535E-03	2.220017E-05
3.811460E+03	4.652267E-03	2.255763E-05
3.812927E+03	4.736692E-03	2.296694E-05
3.814394E+03	4.805010E-03	2.329815E-05
3.815862E+03	4.871497E-03	2.362049E-05
3.817330E+03	4.944747E-03	2.397561E-05
3.818798E+03	5.012232E-03	2.430277E-05
3.820265E+03	5.083272E-03	2.464717E-05
3.821732E+03	5.149061E-03	2.496611E-05
3.823200E+03	5.214156E-03	2.528169E-05
3.824668E+03	5.293800E-03	2.566781E-05
3.826136E+03	5.370992E-03	2.604204E-05
3.827604E+03	5.443866E-03	2.639532E-05
3.829070E+03	5.520613E-03	2.676739E-05
3.830538E+03	5.604561E-03	2.717437E-05
3.832006E+03	5.688341E-03	2.758053E-05
3.833474E+03	5.774137E-03	2.799647E-05
3.834942E+03	5.859558E-03	2.841058E-05
3.836409E+03	5.941074E-03	2.880577E-05
3.837876E+03	6.007666E-03	2.912859E-05
3.839344E+03	6.079489E-03	2.947677E-05
3.840812E+03	6.139495E-03	2.976765E-05
3.842280E+03	6.200988E-03	3.006574E-05
3.843747E+03	6.268752E-03	3.039424E-05
3.845214E+03	6.331557E-03	3.069869E-05
3.846682E+03	6.374829E-03	3.090844E-05
3.848150E+03	6.424889E-03	3.115110E-05
3.849618E+03	6.484451E-03	3.143982E-05
3.851085E+03	6.541647E-03	3.171708E-05
3.852552E+03	6.606894E-03	3.203336E-05
3.854020E+03	6.672591E-03	3.235183E-05
3.855488E+03	6.748640E-03	3.272049E-05
3.856956E+03	6.808050E-03	3.300847E-05
3.858423E+03	6.846948E-03	3.319700E-05
3.859891E+03	6.910274E-03	3.350397E-05
3.861359E+03	6.974258E-03	3.381413E-05
3.862826E+03	7.027632E-03	3.407284E-05
3.864294E+03	7.077695E-03	3.431550E-05
3.865761E+03	7.130082E-03	3.456943E-05
3.867229E+03	7.183333E-03	3.482754E-05
3.868697E+03	7.230763E-03	3.505743E-05
3.870164E+03	7.286158E-03	3.532594E-05
3.871632E+03	7.337405E-03	3.557434E-05
3.873099E+03	7.382617E-03	3.579347E-05
3.874567E+03	7.413216E-03	3.594176E-05
3.876035E+03	7.448748E-03	3.611396E-05
3.877503E+03	7.485870E-03	3.629387E-05
3.878970E+03	7.519665E-03	3.645765E-05
3.880437E+03	7.546261E-03	3.658652E-05
3.881905E+03	7.575800E-03	3.672967E-05
3.883373E+03	7.604837E-03	3.687037E-05
3.884841E+03	7.635037E-03	3.701672E-05
3.886308E+03	7.665051E-03	3.716217E-05
3.887775E+03	7.697603E-03	3.731992E-05
3.889243E+03	7.727338E-03	3.746401E-05
3.890711E+03	7.742313E-03	3.753654E-05
3.892179E+03	7.755196E-03	3.759893E-05
3.893647E+03	7.761169E-03	3.762781E-05
3.895113E+03	7.775227E-03	3.769590E-05
3.896581E+03	7.799054E-03	3.781134E-05
3.898049E+03	7.816077E-03	3.789380E-05
3.899517E+03	7.833424E-03	3.797783E-05
3.900985E+03	7.840177E-03	3.801050E-05
3.902452E+03	7.837895E-03	3.799936E-05
3.903919E+03	7.850121E-03	3.805857E-05
3.905387E+03	7.861416E-03	3.811325E-05
3.906855E+03	7.850430E-03	3.805992E-05
3.908323E+03	7.834077E-03	3.798057E-05
3.909790E+03	7.827920E-03	3.795065E-05
3.911257E+03	7.833018E-03	3.797529E-05
3.912725E+03	7.819395E-03	3.790917E-05
3.914193E+03	7.801239E-03	3.782108E-05
3.915661E+03	7.783187E-03	3.773349E-05
3.917128E+03	7.756379E-03	3.760345E-05
3.918596E+03	7.735998E-03	3.750457E-05
3.920063E+03	7.715491E-03	3.740508E-05
3.921531E+03	7.685079E-03	3.725757E-05
3.922999E+03	7.662771E-03	3.714935E-05
3.924466E+03	7.637290E-03	3.702575E-05
3.925934E+03	7.607368E-03	3.688062E-05
3.927402E+03	7.581650E-03	3.675587E-05
3.928869E+03	7.565426E-03	3.667715E-05
3.930336E+03	7.547193E-03	3.658868E-05
3.931804E+03	7.525361E-03	3.648277E-05
3.933272E+03	7.498556E-03	3.635276E-05
3.934740E+03	7.476708E-03	3.624677E-05
3.936207E+03	7.449460E-03	3.611460E-05
3.937674E+03	7.435736E-03	3.604800E-05
3.939142E+03	7.426767E-03	3.600446E-05
3.940610E+03	7.404891E-03	3.589833E-05
3.942078E+03	7.393377E-03	3.584245E-05
3.943546E+03	7.383449E-03	3.579425E-05
3.945012E+03	7.358377E-03	3.567264E-05
3.946480E+03	7.349077E-03	3.562749E-05
3.947948E+03	7.337868E-03	3.557308E-05
3.949416E+03	7.323055E-03	3.550120E-05
3.950884E+03	7.295517E-03	3.536764E-05
3.952351E+03	7.266378E-03	3.522631E-05
3.953818E+03	7.253663E-03	3.516460E-05
3.955286E+03	7.254632E-03	3.516923E-05
3.956754E+03	7.264519E-03	3.521710E-05
3.958222E+03	7.272929E-03	3.525781E-05
3.959689E+03	7.267758E-03	3.523267E-05
3.961157E+03	7.268216E-03	3.523483E-05
3.962624E+03	7.275796E-03	3.527151E-05
3.964092E+03	7.269357E-03	3.524023E-05
3.965560E+03	7.260686E-03	3.519813E-05
3.967027E+03	7.263074E-03	3.520964E-05
3.968495E+03	7.270570E-03	3.524591E-05
3.969963E+03	7.279672E-03	3.528997E-05
3.971430E+03	7.281012E-03	3.529640E-05
3.972898E+03	7.286509E-03	3.532299E-05
3.974365E+03	7.302875E-03	3.540226E-05
3.975833E+03	7.308603E-03	3.542996E-05
3.977301E+03	7.312208E-03	3.544737E-05
3.978768E+03	7.322744E-03	3.549838E-05
3.980236E+03	7.322099E-03	3.549519E-05
3.981703E+03	7.319644E-03	3.548322E-05
3.983171E+03	7.317405E-03	3.547231E-05
3.984639E+03	7.303113E-03	3.540295E-05
3.986107E+03	7.283800E-03	3.530927E-05
3.987574E+03	7.272911E-03	3.525642E-05
3.989041E+03	7.267895E-03	3.523204E-05
3.990509E+03	7.260424E-03	3.519575E-05
3.991977E+03	7.261820E-03	3.520246E-05
3.993445E+03	7.265359E-03	3.521955E-05
3.994913E+03	7.233193E-03	3.506356E-05
3.996379E+03	7.190637E-03	3.485720E-05
3.997847E+03	7.169672E-03	3.475551E-05
3.999315E+03	7.152549E-03	3.467244E-05
4.000783E+03	7.141843E-03	3.462048E-05
4.002251E+03	7.131884E-03	3.457214E-05
4.003717E+03	7.109497E-03	3.446355E-05
4.005185E+03	7.089244E-03	3.436531E-05
4.006653E+03	7.064160E-03	3.424365E-05
4.008121E+03	7.039171E-03	3.412246E-05
4.009589E+03	7.025002E-03	3.405371E-05
4.011056E+03	7.019410E-03	3.402654E-05
4.012523E+03	7.001692E-03	3.394059E-05
4.013991E+03	6.975487E-03	3.381351E-05
4.015459E+03	6.955607E-03	3.371707E-05
4.016927E+03	6.934213E-03	3.361331E-05
4.018394E+03	6.900884E-03	3.345169E-05
4.019862E+03	6.870764E-03	3.330562E-05
4.021329E+03	6.846861E-03	3.318969E-05
4.022797E+03	6.825421E-03	3.308571E-05
4.024265E+03	6.803542E-03	3.297959E-05
4.025732E+03	6.776811E-03	3.284995E-05
4.027200E+03	6.745115E-03	3.269625E-05
4.028667E+03	6.716201E-03	3.255604E-05
4.030135E+03	6.688243E-03	3.242045E-05
4.031603E+03	6.658009E-03	3.227384E-05
4.033070E+03	6.626682E-03	3.212192E-05
4.034538E+03	6.603638E-03	3.201017E-05
4.036006E+03	6.584789E-03	3.191874E-05
4.037473E+03	6.564959E-03	3.182256E-05
4.038941E+03	6.552351E-03	3.176139E-05
4.040408E+03	6.541573E-03	3.170909E-05
4.041876E+03	6.528631E-03	3.164630E-05
4.043344E+03	6.526594E-03	3.163637E-05
4.044811E+03	6.544436E-03	3.172279E-05
4.046279E+03	6.565535E-03	3.182501E-05
4.047746E+03	6.582868E-03	3.190897E-05
4.049214E+03	6.592103E-03	3.195368E-05
4.050682E+03	6.595615E-03	3.197065E-05
4.052150E+03	6.606166E-03	3.202173E-05
4.053618E+03	6.621814E-03	3.209753E-05
4.055084E+03	6.628811E-03	3.213138E-05
4.056552E+03	6.631051E-03	3.214219E-05
4.058020E+03	6.637739E-03	3.217454E-05
4.059488E+03	6.646492E-03	3.221692E-05
4.060956E+03	6.651352E-03	3.224042E-05
4.062422E+03	6.651010E-03	3.223870E-05
4.063890E+03	6.658375E-03	3.227434E-05
4.065358E+03	6.673670E-03	3.234842E-05
4.066826E+03	6.690390E-03	3.242941E-05
4.068294E+03	6.708426E-03	3.251678E-05
4.069760E+03	6.720284E-03	3.257419E-05
4.071228E+03	6.730958E-03	3.262588E-05
4.072696E+03	6.742512E-03	3.268182E-05
4.074164E+03	6.755272E-03	3.274361E-05
4.075632E+03	6.774462E-03	3.283657E-05
4.077099E+03	6.791490E-03	3.291905E-05
4.078566E+03	6.798844E-03	3.295464E-05
4.080034E+03	6.810562E-03	3.301138E-05
4.081502E+03	6.831876E-03	3.311463E-05
4.082970E+03	6.842965E-03	3.316832E-05
4.084437E+03	6.853955E-03	3.322153E-05
4.085905E+03	6.869970E-03	3.329910E-05
4.087372E+03	6.884688E-03	3.337038E-05
4.088840E+03	6.889493E-03	3.339361E-05
4.090308E+03	6.886991E-03	3.338143E-05
4.091775E+03	6.890277E-03	3.339729E-05
4.093243E+03	6.893785E-03	3.341424E-05
4.094710E+03	6.897406E-03	3.343173E-05
4.096178E+03	6.903658E-03	3.346197E-05
4.097646E+03	6.896250E-03	3.342601E-05
4.099113E+03	6.885669E-03	3.337467E-05
4.100581E+03	6.880772E-03	3.335087E-05
4.102049E+03	6.882002E-03	3.335678E-05
4.103517E+03	6.881156E-03	3.335262E-05
4.104984E+03	6.874287E-03	3.331927E-05
4.106451E+03	6.863803E-03	3.326839E-05
4.107919E+03	6.848055E-03	3.319200E-05
4.109387E+03	6.832188E-03	3.311504E-05
4.110855E+03	6.831555E-03	3.311191E-05
4.112322E+03	6.833335E-03	3.312049E-05
4.113789E+03	6.827550E-03	3.309239E-05
4.115257E+03	6.819677E-03	3.305417E-05
4.116725E+03	6.814546E-03	3.302924E-05
4.118193E+03	6.811830E-03	3.301602E-05
4.119661E+03	6.807796E-03	3.299642E-05
4.121127E+03	6.799034E-03	3.295389E-05
4.122595E+03	6.789830E-03	3.290922E-05
4.124063E+03	6.784141E-03	3.288159E-05
4.125531E+03	6.781972E-03	3.287102E-05
4.126999E+03	6.777931E-03	3.285138E-05
4.128465E+03	6.767944E-03	3.280291E-05
4.129933E+03	6.763349E-03	3.278059E-05
4.131401E+03	6.768781E-03	3.280686E-05
4.132869E+03	6.760330E-03	3.276584E-05
4.134336E+03	6.749339E-03	3.271252E-05
4.135804E+03	6.751137E-03	3.272118E-05
4.137271E+03	6.754482E-03	3.273733E-05
4.138739E+03	6.754080E-03	3.273532E-05
4.140207E+03	6.743080E-03	3.268195E-05
4.141674E+03	6.731521E-03	3.262588E-05
4.143142E+03	6.726034E-03	3.259923E-05
4.144610E+03	6.716455E-03	3.255274E-05
4.146077E+03	6.710850E-03	3.252552E-05
4.147545E+03	6.712323E-03	3.253260E-05
4.149012E+03	6.720327E-03	3.257134E-05
4.150480E+03	6.731106E-03	3.262353E-05
4.151948E+03	6.728386E-03	3.261029E-05
4.153415E+03	6.723670E-03	3.258738E-05
4.154883E+03	6.726821E-03	3.260259E-05
4.156350E+03	6.731861E-03	3.262696E-05
4.157818E+03	6.747771E-03	3.270402E-05
4.159286E+03	6.768575E-03	3.280479E-05
4.160754E+03	6.785623E-03	3.288736E-05
4.162222E+03	6.803351E-03	3.297323E-05
4.163688E+03	6.820647E-03	3.305700E-05
4.165156E+03	6.837180E-03	3.313707E-05
4.166624E+03	6.852395E-03	3.321076E-05
4.168092E+03	6.872957E-03	3.331035E-05
4.169560E+03	6.894869E-03	3.341650E-05
4.171026E+03	6.913460E-03	3.350654E-05
4.172494E+03	6.932735E-03	3.359990E-05
4.173962E+03	6.952471E-03	3.369550E-05
4.175430E+03	6.965986E-03	3.376094E-05
4.176898E+03	6.978175E-03	3.381996E-05
4.178364E+03	6.996726E-03	3.390981E-05
4.179832E+03	7.012728E-03	3.398731E-05
4.181300E+03	7.026179E-03	3.405244E-05
4.182768E+03	7.041314E-03	3.412573E-05
4.184236E+03	7.059810E-03	3.421531E-05
4.185703E+03	7.069612E-03	3.426276E-05
4.187171E+03	7.079311E-03	3.430971E-05
4.188638E+03	7.100747E-03	3.441354E-05
4.190106E+03	7.124883E-03	3.453046E-05
4.191574E+03	7.146691E-03	3.463609E-05
4.193041E+03	7.178357E-03	3.478950E-05
4.194509E+03	7.203335E-03	3.491050E-05
4.195976E+03	7.217586E-03	3.497951E-05
4.197444E+03	7.224685E-03	3.501386E-05
4.198912E+03	7.223167E-03	3.500644E-05
4.200379E+03	7.218400E-03	3.498328E-05
4.201847E+03	7.217665E-03	3.497966E-05
4.203314E+03	7.215584E-03	3.496951E-05
4.204782E+03	7.208681E-03	3.493600E-05
4.206250E+03	7.204130E-03	3.491389E-05
4.207717E+03	7.196435E-03	3.487654E-05
4.209185E+03	7.183008E-03	3.481141E-05
4.210653E+03	7.169124E-03	3.474406E-05
4.212121E+03	7.156354E-03	3.468211E-05
4.213588E+03	7.148744E-03	3.464518E-05
4.215055E+03	7.138546E-03	3.459569E-05
4.216523E+03	7.121253E-03	3.451183E-05
4.217991E+03	7.099224E-03	3.440501E-05
4.219459E+03	7.080218E-03	3.431285E-05
4.220926E+03	7.064913E-03	3.423862E-05
4.222393E+03	7.049825E-03	3.416544E-05
4.223861E+03	7.032361E-03	3.408075E-05
4.225329E+03	7.014321E-03	3.399326E-05
4.226797E+03	7.000328E-03	3.392540E-05
4.228264E+03	6.982150E-03	3.383725E-05
4.229731E+03	6.960800E-03	3.373373E-05
4.231199E+03	6.929614E-03	3.358253E-05
4.232667E+03	6.890724E-03	3.339401E-05
4.234135E+03	6.863219E-03	3.326066E-05
4.235603E+03	6.845980E-03	3.317706E-05
4.237070E+03	6.821038E-03	3.305613E-05
4.238537E+03	6.791215E-03	3.291155E-05
4.240005E+03	6.768047E-03	3.279922E-05
4.241473E+03	6.745883E-03	3.269175E-05
4.242941E+03	6.715209E-03	3.254305E-05
4.244408E+03	6.674997E-03	3.234812E-05
4.245875E+03	6.632374E-03	3.214151E-05
4.247343E+03	6.597204E-03	3.197102E-05
4.248811E+03	6.565071E-03	3.181525E-05
4.250279E+03	6.526448E-03	3.162802E-05
4.251746E+03	6.483484E-03	3.141976E-05
4.253214E+03	6.444463E-03	3.123061E-05
4.254681E+03	6.406205E-03	3.104516E-05
4.256149E+03	6.375307E-03	3.089537E-05
4.257617E+03	6.345978E-03	3.075319E-05
4.259084E+03	6.317992E-03	3.061751E-05
4.260552E+03	6.292943E-03	3.049608E-05
4.262020E+03	6.263665E-03	3.035415E-05
4.263487E+03	6.232884E-03	3.020493E-05
4.264955E+03	6.204361E-03	3.006665E-05
4.266422E+03	6.179234E-03	2.994484E-05
4.267890E+03	6.154544E-03	2.982514E-05
4.269358E+03	6.124706E-03	2.968050E-05
4.270825E+03	6.100204E-03	2.956171E-05
4.272293E+03	6.085042E-03	2.948819E-05
4.273760E+03	6.072951E-03	2.942955E-05
4.275228E+03	6.063020E-03	2.938138E-05
4.276696E+03	6.045659E-03	2.929720E-05
4.278164E+03	6.030798E-03	2.922513E-05
4.279631E+03	6.031813E-03	2.923001E-05
4.281098E+03	6.026084E-03	2.920220E-05
4.282566E+03	6.004108E-03	2.909566E-05
4.284034E+03	5.988180E-03	2.901842E-05
4.285502E+03	5.976134E-03	2.896000E-05
4.286970E+03	5.956062E-03	2.886269E-05
4.288436E+03	5.936432E-03	2.876752E-05
4.289904E+03	5.922520E-03	2.870005E-05
4.291372E+03	5.912611E-03	2.865199E-05
4.292840E+03	5.910723E-03	2.864279E-05
