#wls	flux	fluxerr
1.597604E+03	1.381099E-05	9.711028E-07
1.637544E+03	1.418727E-05	9.943034E-07
1.677484E+03	1.442904E-05	1.007850E-06
1.717424E+03	1.451962E-05	1.010673E-06
1.757364E+03	1.445032E-05	1.002274E-06
1.797304E+03	1.418636E-05	9.803688E-07
1.837244E+03	1.369887E-05	9.431206E-07
1.877184E+03	1.296046E-05	8.888327E-07
1.917124E+03	1.196590E-05	8.173618E-07
1.957064E+03	1.074752E-05	7.311344E-07
1.997004E+03	9.400201E-06	6.367891E-07
2.036945E+03	8.082157E-06	5.451340E-07
2.076885E+03	6.989595E-06	4.693451E-07
2.116825E+03	6.287537E-06	4.202718E-07
2.156765E+03	6.070874E-06	4.038817E-07
2.196705E+03	6.356845E-06	4.208623E-07
2.236645E+03	7.109908E-06	4.683802E-07
2.276585E+03	8.253528E-06	5.409404E-07
2.316525E+03	9.678281E-06	6.309875E-07
2.356465E+03	1.126750E-05	7.306318E-07
2.396405E+03	1.291678E-05	8.329289E-07
2.436345E+03	1.454657E-05	9.326719E-07
2.476286E+03	1.610168E-05	1.026325E-06
2.516226E+03	1.754849E-05	1.111802E-06
2.556166E+03	1.887404E-05	1.188374E-06
2.596106E+03	2.007111E-05	1.255697E-06
2.636046E+03	2.114419E-05	1.314174E-06
2.675986E+03	2.209939E-05	1.364303E-06
2.715926E+03	2.294266E-05	1.406571E-06
2.755866E+03	2.369047E-05	1.442099E-06
2.795806E+03	2.435294E-05	1.471604E-06
2.835746E+03	2.494821E-05	1.496265E-06
2.875686E+03	2.548905E-05	1.516918E-06
2.915627E+03	2.599255E-05	1.534631E-06
2.955567E+03	2.649021E-05	1.551285E-06
2.995507E+03	2.701639E-05	1.568870E-06
3.005492E+03	2.715871E-05	1.573771E-06
3.015477E+03	2.730846E-05	1.579051E-06
3.025462E+03	2.746391E-05	1.584607E-06
3.035447E+03	2.762746E-05	1.590574E-06
3.045432E+03	2.781031E-05	1.597593E-06
3.055417E+03	2.801031E-05	1.605532E-06
3.065402E+03	2.823567E-05	1.614855E-06
3.075387E+03	2.848127E-05	1.625259E-06
3.085372E+03	2.875047E-05	1.636926E-06
3.095357E+03	2.904418E-05	1.649901E-06
3.105342E+03	2.936092E-05	1.664088E-06
3.115327E+03	2.970780E-05	1.679879E-06
3.125312E+03	3.008124E-05	1.697061E-06
3.135297E+03	3.048914E-05	1.716068E-06
3.145282E+03	3.092864E-05	1.736723E-06
3.155267E+03	3.140857E-05	1.759510E-06
3.165252E+03	3.192978E-05	1.784457E-06
3.175237E+03	3.249933E-05	1.811942E-06
3.185222E+03	3.311908E-05	1.842048E-06
3.195207E+03	3.379727E-05	1.875210E-06
3.205192E+03	3.453687E-05	1.911568E-06
3.215177E+03	3.534744E-05	1.951623E-06
3.225162E+03	3.623626E-05	1.995747E-06
3.235147E+03	3.721126E-05	2.044341E-06
3.245132E+03	3.828422E-05	2.098013E-06
3.255117E+03	3.945782E-05	2.156868E-06
3.265102E+03	4.074822E-05	2.221743E-06
3.275087E+03	4.216557E-05	2.293139E-06
3.285072E+03	4.372020E-05	2.371561E-06
3.295057E+03	4.541865E-05	2.457302E-06
3.305042E+03	4.727798E-05	2.551219E-06
3.315027E+03	4.930354E-05	2.653530E-06
3.325012E+03	5.150700E-05	2.764785E-06
3.334998E+03	5.389449E-05	2.885233E-06
3.344983E+03	5.646972E-05	3.014990E-06
3.354968E+03	5.923348E-05	3.154011E-06
3.364953E+03	6.218791E-05	3.302326E-06
3.374938E+03	6.532736E-05	3.459545E-06
3.384923E+03	6.864261E-05	3.625098E-06
3.394908E+03	7.212618E-05	3.798506E-06
3.404893E+03	7.576311E-05	3.978904E-06
3.414878E+03	7.953573E-05	4.165294E-06
3.424863E+03	8.343064E-05	4.356909E-06
3.434848E+03	8.742763E-05	4.552636E-06
3.444833E+03	9.150541E-05	4.751316E-06
3.454818E+03	9.564801E-05	4.952080E-06
3.464803E+03	9.983877E-05	5.154033E-06
3.474788E+03	1.040452E-04	5.355473E-06
3.484773E+03	1.082519E-04	5.555595E-06
3.494758E+03	1.124175E-04	5.752271E-06
3.504743E+03	1.165147E-04	5.944131E-06
3.514728E+03	1.204860E-04	6.128264E-06
3.524713E+03	1.242696E-04	6.301593E-06
3.534698E+03	1.278074E-04	6.461264E-06
3.544683E+03	1.310070E-04	6.602721E-06
3.554668E+03	1.337820E-04	6.721778E-06
3.564653E+03	1.360271E-04	6.813354E-06
3.574638E+03	1.376597E-04	6.873576E-06
3.584623E+03	1.386136E-04	6.899425E-06
3.594608E+03	1.388589E-04	6.889739E-06
3.604593E+03	1.384392E-04	6.847008E-06
3.614578E+03	1.374433E-04	6.775929E-06
3.624563E+03	1.359822E-04	6.682234E-06
3.634548E+03	1.342165E-04	6.574010E-06
3.644533E+03	1.323018E-04	6.459011E-06
3.654518E+03	1.303861E-04	6.344504E-06
3.664503E+03	1.286462E-04	6.239069E-06
3.674488E+03	1.272360E-04	6.150068E-06
3.684473E+03	1.263328E-04	6.085881E-06
3.694458E+03	1.261080E-04	6.054489E-06
3.704443E+03	1.267538E-04	6.064763E-06
3.714428E+03	1.284640E-04	6.125513E-06
3.724413E+03	1.314548E-04	6.246486E-06
3.734398E+03	1.359636E-04	6.438282E-06
3.744383E+03	1.422525E-04	6.712519E-06
3.754368E+03	1.506057E-04	7.081663E-06
3.764353E+03	1.613392E-04	7.559478E-06
3.774338E+03	1.747896E-04	8.160477E-06
3.784324E+03	1.912944E-04	8.898967E-06
3.794309E+03	2.111889E-04	9.788931E-06
3.804294E+03	2.347474E-04	1.084130E-05
3.814279E+03	2.621642E-04	1.206311E-05
3.824264E+03	2.934994E-04	1.345512E-05
3.834249E+03	3.286030E-04	1.500843E-05
3.844234E+03	3.671332E-04	1.670551E-05
3.854219E+03	4.084494E-04	1.851549E-05
3.864204E+03	4.516952E-04	2.039820E-05
3.874189E+03	4.957725E-04	2.230317E-05
3.884174E+03	5.395440E-04	2.417894E-05
3.894159E+03	5.818289E-04	2.597286E-05
3.904144E+03	6.217027E-04	2.764454E-05
3.914129E+03	6.584654E-04	2.916417E-05
3.924114E+03	6.917921E-04	3.051896E-05
3.934099E+03	7.216675E-04	3.171002E-05
3.944084E+03	7.482904E-04	3.274779E-05
3.954069E+03	7.719191E-04	3.364521E-05
3.964054E+03	7.927589E-04	3.441275E-05
3.974039E+03	8.107999E-04	3.505142E-05
3.984024E+03	8.258219E-04	3.555320E-05
3.994009E+03	8.374029E-04	3.590159E-05
4.003994E+03	8.449826E-04	3.607451E-05
4.013979E+03	8.480446E-04	3.605213E-05
4.023964E+03	8.462451E-04	3.582236E-05
4.033949E+03	8.396037E-04	3.538866E-05
4.043934E+03	8.284404E-04	3.476710E-05
4.053919E+03	8.134897E-04	3.399087E-05
4.063904E+03	7.957340E-04	3.310294E-05
4.073889E+03	7.763343E-04	3.215298E-05
4.083874E+03	7.564577E-04	3.119004E-05
4.093859E+03	7.372124E-04	3.025991E-05
4.103844E+03	7.195280E-04	2.940026E-05
4.113829E+03	7.040793E-04	2.863769E-05
4.123814E+03	6.913142E-04	2.798912E-05
4.133799E+03	6.814120E-04	2.746029E-05
4.143784E+03	6.743552E-04	2.704891E-05
4.153769E+03	6.700139E-04	2.674818E-05
4.163754E+03	6.680826E-04	2.654444E-05
4.173739E+03	6.682724E-04	2.642491E-05
4.183724E+03	6.702334E-04	2.637460E-05
4.193709E+03	6.736547E-04	2.638031E-05
4.203694E+03	6.781602E-04	2.642656E-05
4.213679E+03	6.833517E-04	2.649727E-05
4.223665E+03	6.888515E-04	2.657745E-05
4.233650E+03	6.942229E-04	2.665017E-05
4.243635E+03	6.990912E-04	2.670116E-05
4.253620E+03	7.030628E-04	2.671577E-05
4.263605E+03	7.058555E-04	2.668384E-05
4.273590E+03	7.072566E-04	2.659806E-05
4.283575E+03	7.071699E-04	2.645565E-05
4.293560E+03	7.056868E-04	2.626089E-05
4.303545E+03	7.030636E-04	2.602410E-05
4.313530E+03	6.997148E-04	2.576123E-05
4.323515E+03	6.961396E-04	2.549099E-05
4.333500E+03	6.928869E-04	2.523352E-05
4.343485E+03	6.905084E-04	2.500860E-05
4.353470E+03	6.895500E-04	2.483540E-05
4.363455E+03	6.904952E-04	2.473037E-05
4.373440E+03	6.938496E-04	2.471037E-05
4.383425E+03	7.001392E-04	2.479256E-05
4.393410E+03	7.099962E-04	2.499741E-05
4.403395E+03	7.240972E-04	2.534642E-05
4.413380E+03	7.431466E-04	2.586149E-05
4.423365E+03	7.678593E-04	2.656429E-05
4.433350E+03	7.988182E-04	2.747136E-05
4.443335E+03	8.364061E-04	2.859189E-05
4.453320E+03	8.806466E-04	2.992253E-05
4.463305E+03	9.312220E-04	3.144837E-05
4.473290E+03	9.873612E-04	3.313952E-05
4.483275E+03	1.047842E-03	3.495165E-05
4.493260E+03	1.111128E-03	3.683105E-05
4.503245E+03	1.175445E-03	3.871746E-05
4.513230E+03	1.239024E-03	4.055221E-05
4.523215E+03	1.300129E-03	4.227919E-05
4.533200E+03	1.357214E-03	4.385002E-05
4.543185E+03	1.408879E-03	4.522210E-05
4.553170E+03	1.453919E-03	4.636047E-05
4.563155E+03	1.491279E-03	4.723581E-05
4.573140E+03	1.520076E-03	4.782518E-05
4.583125E+03	1.539701E-03	4.811501E-05
4.593110E+03	1.549823E-03	4.810083E-05
4.603095E+03	1.550515E-03	4.779096E-05
4.613080E+03	1.542272E-03	4.720664E-05
4.623065E+03	1.526057E-03	4.638286E-05
4.633050E+03	1.503203E-03	4.536510E-05
4.643035E+03	1.475277E-03	4.420455E-05
4.653020E+03	1.443875E-03	4.295206E-05
4.663005E+03	1.410504E-03	4.165445E-05
4.672991E+03	1.376386E-03	4.034881E-05
4.682976E+03	1.342425E-03	3.906206E-05
4.692961E+03	1.309182E-03	3.781033E-05
4.702946E+03	1.276987E-03	3.660266E-05
4.712931E+03	1.246079E-03	3.544520E-05
4.722916E+03	1.216781E-03	3.434632E-05
4.732901E+03	1.189494E-03	3.331618E-05
4.742886E+03	1.164773E-03	3.236900E-05
4.752871E+03	1.143272E-03	3.152110E-05
4.762856E+03	1.125622E-03	3.078768E-05
4.772841E+03	1.112266E-03	3.017828E-05
4.782826E+03	1.103339E-03	2.969375E-05
4.792811E+03	1.098726E-03	2.932810E-05
4.802796E+03	1.098114E-03	2.907024E-05
4.812781E+03	1.101103E-03	2.890706E-05
4.822766E+03	1.107355E-03	2.882738E-05
4.832751E+03	1.116851E-03	2.882862E-05
4.842736E+03	1.129963E-03	2.891816E-05
4.852721E+03	1.147275E-03	2.910846E-05
4.862706E+03	1.169218E-03	2.940762E-05
4.872691E+03	1.195721E-03	2.981087E-05
4.882676E+03	1.225979E-03	3.029530E-05
4.892661E+03	1.258262E-03	3.081615E-05
4.902646E+03	1.289845E-03	3.130597E-05
4.912631E+03	1.317310E-03	3.168309E-05
4.922616E+03	1.337052E-03	3.186436E-05
4.932601E+03	1.346014E-03	3.178278E-05
4.942586E+03	1.342297E-03	3.140104E-05
4.952571E+03	1.325722E-03	3.072338E-05
4.962556E+03	1.297912E-03	2.979554E-05
4.972541E+03	1.262052E-03	2.869733E-05
4.982526E+03	1.222285E-03	2.752733E-05
4.992511E+03	1.183062E-03	2.638735E-05
5.002496E+03	1.148442E-03	2.536669E-05
5.012481E+03	1.121554E-03	2.453082E-05
5.022466E+03	1.104441E-03	2.391896E-05
5.032451E+03	1.098039E-03	2.354494E-05
5.042436E+03	1.102272E-03	2.340028E-05
5.052421E+03	1.116156E-03	2.345755E-05
5.062406E+03	1.138032E-03	2.367619E-05
5.072391E+03	1.165739E-03	2.400677E-05
5.082376E+03	1.196962E-03	2.439855E-05
5.092361E+03	1.229366E-03	2.480240E-05
5.102346E+03	1.260859E-03	2.517599E-05
5.112332E+03	1.289952E-03	2.549068E-05
5.122317E+03	1.315742E-03	2.573050E-05
5.132302E+03	1.338152E-03	2.589618E-05
5.142287E+03	1.357776E-03	2.600141E-05
5.152272E+03	1.375797E-03	2.607045E-05
5.162257E+03	1.393570E-03	2.612990E-05
5.172242E+03	1.412475E-03	2.620570E-05
5.182227E+03	1.433613E-03	2.631765E-05
5.192212E+03	1.457548E-03	2.647493E-05
5.202197E+03	1.484238E-03	2.667541E-05
5.212182E+03	1.513121E-03	2.690788E-05
5.222167E+03	1.543354E-03	2.715654E-05
5.232152E+03	1.574039E-03	2.740541E-05
5.242137E+03	1.604299E-03	2.763949E-05
5.252122E+03	1.633366E-03	2.784632E-05
5.262107E+03	1.660698E-03	2.801783E-05
5.272092E+03	1.685926E-03	2.814917E-05
5.282077E+03	1.708705E-03	2.823616E-05
5.292062E+03	1.728747E-03	2.827574E-05
5.302047E+03	1.745757E-03	2.826493E-05
5.312032E+03	1.759440E-03	2.820087E-05
5.322017E+03	1.769602E-03	2.808246E-05
5.332002E+03	1.776198E-03	2.791102E-05
5.341987E+03	1.779539E-03	2.769332E-05
5.351972E+03	1.780309E-03	2.744166E-05
5.361957E+03	1.779668E-03	2.717514E-05
5.371942E+03	1.779113E-03	2.691724E-05
5.381927E+03	1.780372E-03	2.669404E-05
5.391912E+03	1.784971E-03	2.652775E-05
5.401897E+03	1.793857E-03	2.643128E-05
5.411882E+03	1.806950E-03	2.640216E-05
5.421867E+03	1.823036E-03	2.642165E-05
5.431852E+03	1.839647E-03	2.645364E-05
5.441837E+03	1.853331E-03	2.644917E-05
5.451822E+03	1.860335E-03	2.635641E-05
5.461807E+03	1.857492E-03	2.613318E-05
5.471792E+03	1.842995E-03	2.575731E-05
5.481777E+03	1.816467E-03	2.522674E-05
5.491762E+03	1.778788E-03	2.455634E-05
5.501747E+03	1.731873E-03	2.377430E-05
5.511732E+03	1.678155E-03	2.291510E-05
5.521717E+03	1.620228E-03	2.201437E-05
5.531702E+03	1.560530E-03	2.110488E-05
5.541687E+03	1.501137E-03	2.021386E-05
5.551672E+03	1.443627E-03	1.936138E-05
5.561658E+03	1.389054E-03	1.856022E-05
5.571643E+03	1.337989E-03	1.781663E-05
5.581628E+03	1.290710E-03	1.713299E-05
5.591613E+03	1.247332E-03	1.650960E-05
5.601598E+03	1.207951E-03	1.594656E-05
5.611583E+03	1.172834E-03	1.544635E-05
5.621568E+03	1.142420E-03	1.501383E-05
5.631553E+03	1.117311E-03	1.465597E-05
5.641538E+03	1.098230E-03	1.438146E-05
5.651523E+03	1.085910E-03	1.419911E-05
5.661508E+03	1.081071E-03	1.411767E-05
5.671493E+03	1.084391E-03	1.414540E-05
5.681478E+03	1.096502E-03	1.429000E-05
5.691463E+03	1.117858E-03	1.455699E-05
5.701448E+03	1.148676E-03	1.494886E-05
5.711433E+03	1.188827E-03	1.546370E-05
5.721418E+03	1.237824E-03	1.609502E-05
5.731403E+03	1.294827E-03	1.683183E-05
5.741388E+03	1.358690E-03	1.765923E-05
5.751373E+03	1.428028E-03	1.855922E-05
5.761358E+03	1.501384E-03	1.951291E-05
5.771343E+03	1.577305E-03	2.050147E-05
5.781328E+03	1.654353E-03	2.150622E-05
5.791313E+03	1.730802E-03	2.250474E-05
5.801298E+03	1.804517E-03	2.346922E-05
5.811283E+03	1.872964E-03	2.436660E-05
5.821268E+03	1.933369E-03	2.516066E-05
5.831253E+03	1.983107E-03	2.581700E-05
5.841238E+03	2.020389E-03	2.631205E-05
5.851223E+03	2.044916E-03	2.664160E-05
5.861208E+03	2.058199E-03	2.682502E-05
5.871193E+03	2.063028E-03	2.689838E-05
5.881178E+03	2.062684E-03	2.690420E-05
5.891163E+03	2.059926E-03	2.687831E-05
5.901148E+03	2.056634E-03	2.684509E-05
5.911133E+03	2.053671E-03	2.681572E-05
5.921118E+03	2.050721E-03	2.678598E-05
5.931103E+03	2.046846E-03	2.674356E-05
5.941088E+03	2.040696E-03	2.667074E-05
5.951073E+03	2.031087E-03	2.655197E-05
5.961058E+03	2.017113E-03	2.637534E-05
5.971043E+03	1.998339E-03	2.613512E-05
5.981028E+03	1.974852E-03	2.583239E-05
5.991013E+03	1.947167E-03	2.547390E-05
6.000999E+03	1.916189E-03	2.507148E-05
6.010984E+03	1.882988E-03	2.463920E-05
6.020969E+03	1.848752E-03	2.419261E-05
6.030954E+03	1.814570E-03	2.374606E-05
6.040939E+03	1.781429E-03	2.331251E-05
6.050924E+03	1.750156E-03	2.290290E-05
6.060909E+03	1.721519E-03	2.252734E-05
6.070894E+03	1.696249E-03	2.219546E-05
6.080879E+03	1.674961E-03	2.191541E-05
6.090864E+03	1.658073E-03	2.169271E-05
6.100849E+03	1.645801E-03	2.153029E-05
6.110834E+03	1.638120E-03	2.142788E-05
6.120819E+03	1.634734E-03	2.138168E-05
6.130804E+03	1.635153E-03	2.138539E-05
6.140789E+03	1.638612E-03	2.142909E-05
6.150774E+03	1.644090E-03	2.149954E-05
6.160759E+03	1.650362E-03	2.158084E-05
6.170744E+03	1.656093E-03	2.165567E-05
6.180729E+03	1.659964E-03	2.170692E-05
6.190714E+03	1.660842E-03	2.171993E-05
6.200699E+03	1.658036E-03	2.168579E-05
6.210684E+03	1.651377E-03	2.160242E-05
6.220669E+03	1.641339E-03	2.147614E-05
6.230654E+03	1.628870E-03	2.131946E-05
6.240639E+03	1.615172E-03	2.114822E-05
6.250624E+03	1.601416E-03	2.097785E-05
6.260609E+03	1.588618E-03	2.082181E-05
6.270594E+03	1.577579E-03	2.069073E-05
6.280579E+03	1.568735E-03	2.059051E-05
6.290564E+03	1.562290E-03	2.052402E-05
6.300549E+03	1.558255E-03	2.049165E-05
6.310534E+03	1.556566E-03	2.049278E-05
6.320519E+03	1.557152E-03	2.052676E-05
6.330504E+03	1.559868E-03	2.059196E-05
6.340489E+03	1.564597E-03	2.068716E-05
6.350474E+03	1.571276E-03	2.081184E-05
6.360459E+03	1.579845E-03	2.096555E-05
6.370444E+03	1.590160E-03	2.114677E-05
6.380429E+03	1.602053E-03	2.135364E-05
6.390414E+03	1.615131E-03	2.158132E-05
6.400399E+03	1.628711E-03	2.182103E-05
6.410384E+03	1.641897E-03	2.206107E-05
6.420369E+03	1.653695E-03	2.228823E-05
6.430354E+03	1.663169E-03	2.248968E-05
6.440339E+03	1.669604E-03	2.265531E-05
6.450325E+03	1.672771E-03	2.278146E-05
6.460310E+03	1.673020E-03	2.287221E-05
6.470295E+03	1.671174E-03	2.293824E-05
6.480280E+03	1.668378E-03	2.299476E-05
6.490265E+03	1.665789E-03	2.305740E-05
6.500250E+03	1.664409E-03	2.313991E-05
6.510235E+03	1.664829E-03	2.325056E-05
6.520220E+03	1.667104E-03	2.339026E-05
6.530205E+03	1.670662E-03	2.355110E-05
6.540190E+03	1.674689E-03	2.372163E-05
6.550175E+03	1.678337E-03	2.388966E-05
6.560160E+03	1.680900E-03	2.404487E-05
6.570145E+03	1.681953E-03	2.418069E-05
6.580130E+03	1.681230E-03	2.429277E-05
6.590115E+03	1.678646E-03	2.437928E-05
6.600100E+03	1.674131E-03	2.443859E-05
6.610085E+03	1.667554E-03	2.446815E-05
6.620070E+03	1.658859E-03	2.446645E-05
6.630055E+03	1.648158E-03	2.443448E-05
6.640040E+03	1.635816E-03	2.437703E-05
6.650025E+03	1.622474E-03	2.430312E-05
6.660010E+03	1.608886E-03	2.422372E-05
6.669995E+03	1.595819E-03	2.415020E-05
6.679980E+03	1.583949E-03	2.409280E-05
6.689965E+03	1.573674E-03	2.405771E-05
6.699950E+03	1.565113E-03	2.404701E-05
6.709935E+03	1.557996E-03	2.405676E-05
6.719920E+03	1.551798E-03	2.407905E-05
6.729905E+03	1.545686E-03	2.410094E-05
6.739890E+03	1.538785E-03	2.410862E-05
6.749875E+03	1.530218E-03	2.408799E-05
6.759860E+03	1.519359E-03	2.402868E-05
6.769845E+03	1.505965E-03	2.392625E-05
6.779830E+03	1.490237E-03	2.378322E-05
6.789815E+03	1.472835E-03	2.360966E-05
6.799800E+03	1.454866E-03	2.342294E-05
6.809785E+03	1.437593E-03	2.324333E-05
6.819770E+03	1.422399E-03	2.309341E-05
6.829755E+03	1.410549E-03	2.299415E-05
6.839740E+03	1.402984E-03	2.296160E-05
6.849725E+03	1.400278E-03	2.300592E-05
6.859710E+03	1.402564E-03	2.313021E-05
6.869695E+03	1.409562E-03	2.333063E-05
6.879680E+03	1.420553E-03	2.359598E-05
6.889666E+03	1.434511E-03	2.390975E-05
6.899651E+03	1.450139E-03	2.425061E-05
6.909636E+03	1.466073E-03	2.459578E-05
6.919621E+03	1.480915E-03	2.492166E-05
6.929606E+03	1.493441E-03	2.520724E-05
6.939591E+03	1.502675E-03	2.543554E-05
6.949576E+03	1.507988E-03	2.559526E-05
6.959561E+03	1.509187E-03	2.568252E-05
6.969546E+03	1.506562E-03	2.570161E-05
6.979531E+03	1.500682E-03	2.566175E-05
6.989516E+03	1.492510E-03	2.557905E-05
6.999501E+03	1.483038E-03	2.547025E-05
7.009486E+03	1.473345E-03	2.535379E-05
7.019471E+03	1.464330E-03	2.524518E-05
7.029456E+03	1.456654E-03	2.515589E-05
7.039441E+03	1.450742E-03	2.509343E-05
7.049426E+03	1.446802E-03	2.506152E-05
7.059411E+03	1.444887E-03	2.506122E-05
7.069396E+03	1.444970E-03	2.509219E-05
7.079381E+03	1.446937E-03	2.515252E-05
7.089366E+03	1.450759E-03	2.524177E-05
7.099351E+03	1.456430E-03	2.535985E-05
7.109336E+03	1.463959E-03	2.550695E-05
7.119321E+03	1.473425E-03	2.568439E-05
7.129306E+03	1.484824E-03	2.589211E-05
7.139291E+03	1.498075E-03	2.612855E-05
7.149276E+03	1.512960E-03	2.638987E-05
7.159261E+03	1.529111E-03	2.666952E-05
7.169246E+03	1.546124E-03	2.696027E-05
7.179231E+03	1.563439E-03	2.725226E-05
7.189216E+03	1.580545E-03	2.753640E-05
7.199201E+03	1.596910E-03	2.780331E-05
7.209186E+03	1.611934E-03	2.804242E-05
7.219171E+03	1.625141E-03	2.824544E-05
7.229156E+03	1.636031E-03	2.840363E-05
7.239141E+03	1.644179E-03	2.850969E-05
7.249126E+03	1.649321E-03	2.855915E-05
7.259111E+03	1.651305E-03	2.854958E-05
7.269096E+03	1.650245E-03	2.848316E-05
7.279081E+03	1.646473E-03	2.836593E-05
7.289066E+03	1.640425E-03	2.820567E-05
7.299051E+03	1.632724E-03	2.801335E-05
7.309036E+03	1.624028E-03	2.780049E-05
7.319021E+03	1.615030E-03	2.757915E-05
7.329006E+03	1.606303E-03	2.735920E-05
7.338992E+03	1.598271E-03	2.714788E-05
7.348977E+03	1.591151E-03	2.694886E-05
7.358962E+03	1.584851E-03	2.676056E-05
7.368947E+03	1.579027E-03	2.657712E-05
7.378932E+03	1.573157E-03	2.638979E-05
7.388917E+03	1.566578E-03	2.618759E-05
7.398902E+03	1.558690E-03	2.596071E-05
7.408887E+03	1.548957E-03	2.570062E-05
7.418872E+03	1.536947E-03	2.540064E-05
7.428857E+03	1.522506E-03	2.505885E-05
7.438842E+03	1.505607E-03	2.467539E-05
7.448827E+03	1.486364E-03	2.425286E-05
7.458812E+03	1.464989E-03	2.379537E-05
7.468797E+03	1.441761E-03	2.330813E-05
7.478782E+03	1.416979E-03	2.279657E-05
7.488767E+03	1.391008E-03	2.226712E-05
7.498752E+03	1.364295E-03	2.172741E-05
7.508737E+03	1.337394E-03	2.118665E-05
7.518722E+03	1.310895E-03	2.065441E-05
7.528707E+03	1.285583E-03	2.014309E-05
7.538692E+03	1.262167E-03	1.966367E-05
7.548677E+03	1.241443E-03	1.922817E-05
7.558662E+03	1.224066E-03	1.884612E-05
7.568647E+03	1.210549E-03	1.852467E-05
7.578632E+03	1.201270E-03	1.826860E-05
7.588617E+03	1.196321E-03	1.807826E-05
7.598602E+03	1.195636E-03	1.795154E-05
7.608587E+03	1.198917E-03	1.788288E-05
7.618572E+03	1.205775E-03	1.786548E-05
7.628557E+03	1.215794E-03	1.789225E-05
7.638542E+03	1.228494E-03	1.795536E-05
7.648527E+03	1.243322E-03	1.804611E-05
7.658512E+03	1.259645E-03	1.815488E-05
7.668497E+03	1.276782E-03	1.827161E-05
7.678482E+03	1.294059E-03	1.838667E-05
7.688467E+03	1.310820E-03	1.849095E-05
7.698452E+03	1.326466E-03	1.857644E-05
7.708437E+03	1.340526E-03	1.863717E-05
7.718422E+03	1.352674E-03	1.866939E-05
7.728407E+03	1.362673E-03	1.867069E-05
7.738392E+03	1.370439E-03	1.864088E-05
7.748377E+03	1.375938E-03	1.858047E-05
