#wls	flux	fluxerr
1.597604E+03	6.833389E-06	1.674587E-07
1.637544E+03	6.997140E-06	1.714355E-07
1.677484E+03	7.089815E-06	1.736699E-07
1.717424E+03	7.106249E-06	1.740363E-07
1.757364E+03	7.043193E-06	1.724564E-07
1.797304E+03	6.884517E-06	1.685366E-07
1.837244E+03	6.616434E-06	1.619408E-07
1.877184E+03	6.226299E-06	1.523612E-07
1.917124E+03	5.714256E-06	1.398031E-07
1.957064E+03	5.098635E-06	1.247166E-07
1.997004E+03	4.427337E-06	1.082747E-07
2.036945E+03	3.776715E-06	9.234488E-08
2.076885E+03	3.236802E-06	7.912792E-08
2.116825E+03	2.882163E-06	7.044461E-08
2.156765E+03	2.750549E-06	6.721477E-08
2.196705E+03	2.844069E-06	6.948678E-08
2.236645E+03	3.136670E-06	7.662107E-08
2.276585E+03	3.585547E-06	8.756944E-08
2.316525E+03	4.136802E-06	1.010137E-07
2.356465E+03	4.733927E-06	1.155730E-07
2.396405E+03	5.329350E-06	1.300854E-07
2.436345E+03	5.889894E-06	1.437415E-07
2.476286E+03	6.393829E-06	1.560115E-07
2.516226E+03	6.832153E-06	1.666766E-07
2.556166E+03	7.202295E-06	1.756750E-07
2.596106E+03	7.505147E-06	1.830294E-07
2.636046E+03	7.748165E-06	1.889226E-07
2.675986E+03	7.938068E-06	1.935190E-07
2.715926E+03	8.081264E-06	1.969756E-07
2.755866E+03	8.187414E-06	1.995286E-07
2.795806E+03	8.266756E-06	2.014277E-07
2.835746E+03	8.328853E-06	2.029063E-07
2.875686E+03	8.386477E-06	2.042757E-07
2.915627E+03	8.450820E-06	2.058086E-07
2.955567E+03	8.537959E-06	2.078964E-07
2.995507E+03	8.661991E-06	2.108819E-07
3.005492E+03	8.701768E-06	2.118417E-07
3.015477E+03	8.744180E-06	2.128655E-07
3.025462E+03	8.791875E-06	2.140179E-07
3.035447E+03	8.844395E-06	2.152876E-07
3.045432E+03	8.903510E-06	2.167178E-07
3.055417E+03	8.971068E-06	2.183534E-07
3.065402E+03	9.048144E-06	2.202206E-07
3.075387E+03	9.133527E-06	2.222898E-07
3.085372E+03	9.227244E-06	2.245616E-07
3.095357E+03	9.329365E-06	2.270378E-07
3.105342E+03	9.442404E-06	2.297796E-07
3.115327E+03	9.562961E-06	2.327040E-07
3.125312E+03	9.694853E-06	2.359041E-07
3.135297E+03	9.834719E-06	2.392980E-07
3.145282E+03	9.986488E-06	2.429812E-07
3.155267E+03	1.014804E-05	2.469022E-07
3.165252E+03	1.032220E-05	2.511296E-07
3.175237E+03	1.050685E-05	2.556119E-07
3.185222E+03	1.070359E-05	2.603882E-07
3.195207E+03	-6.086286E-06	-1.480563E-07
3.197204E+03	-6.054513E-06	-1.472823E-07
3.199201E+03	-6.039834E-06	-1.469241E-07
3.201198E+03	-6.037461E-06	-1.468652E-07
3.203195E+03	-6.004604E-06	-1.460648E-07
3.205192E+03	-5.962478E-06	-1.450389E-07
3.207189E+03	-5.945204E-06	-1.446176E-07
3.209186E+03	-5.932240E-06	-1.443011E-07
3.211183E+03	-5.902647E-06	-1.435801E-07
3.213180E+03	-5.869880E-06	-1.427820E-07
3.215177E+03	-5.838729E-06	-1.420231E-07
3.217174E+03	-5.818789E-06	-1.415370E-07
3.219171E+03	-5.806058E-06	-1.412263E-07
3.221168E+03	-5.790404E-06	-1.408444E-07
3.223165E+03	-5.769245E-06	-1.403287E-07
3.225162E+03	-5.759135E-06	-1.400816E-07
3.227159E+03	-5.728246E-06	-1.393292E-07
3.229156E+03	-5.688473E-06	-1.383608E-07
3.231153E+03	-5.643999E-06	-1.372780E-07
3.233150E+03	-5.611500E-06	-1.364864E-07
3.235147E+03	-5.565379E-06	-1.353636E-07
3.237144E+03	-5.536240E-06	-1.346538E-07
3.239141E+03	-5.491969E-06	-1.335760E-07
3.241138E+03	-5.454384E-06	-1.326609E-07
3.243135E+03	-5.397245E-06	-1.312701E-07
3.245132E+03	-5.339128E-06	-1.298556E-07
3.247129E+03	-5.284597E-06	-1.285283E-07
3.249126E+03	-5.235246E-06	-1.273271E-07
3.251123E+03	-5.167780E-06	-1.256853E-07
3.253120E+03	-5.106264E-06	-1.241882E-07
3.255117E+03	-5.043358E-06	-1.226573E-07
3.257114E+03	-4.997721E-06	-1.215464E-07
3.259111E+03	-4.952481E-06	-1.204453E-07
3.261108E+03	-4.906548E-06	-1.193273E-07
3.263105E+03	-4.843445E-06	-1.177917E-07
3.265102E+03	-4.769876E-06	-1.160016E-07
3.267099E+03	-4.704203E-06	-1.144036E-07
3.269096E+03	-4.658485E-06	-1.132909E-07
3.271093E+03	-4.627183E-06	-1.125288E-07
3.273090E+03	-4.563827E-06	-1.109872E-07
3.275087E+03	-4.485519E-06	-1.090820E-07
3.277084E+03	-4.419102E-06	-1.074660E-07
3.279081E+03	-4.359161E-06	-1.060075E-07
3.281078E+03	-4.280991E-06	-1.041057E-07
3.283075E+03	-4.197509E-06	-1.020748E-07
3.285072E+03	-4.144504E-06	-1.007851E-07
3.287069E+03	-4.074947E-06	-9.909285E-08
3.289066E+03	-4.006174E-06	-9.741972E-08
3.291063E+03	-3.943927E-06	-9.590530E-08
3.293060E+03	-3.861908E-06	-9.391010E-08
3.295057E+03	-3.762509E-06	-9.149233E-08
3.297054E+03	-3.682415E-06	-8.954400E-08
3.299051E+03	-3.578303E-06	-8.701168E-08
3.301048E+03	-3.489818E-06	-8.485939E-08
3.303045E+03	-3.396060E-06	-8.257893E-08
3.305042E+03	-3.292533E-06	-8.006094E-08
3.307039E+03	-3.206757E-06	-7.797462E-08
3.309036E+03	-3.112393E-06	-7.567951E-08
3.311033E+03	-3.018340E-06	-7.339202E-08
3.313030E+03	-2.952694E-06	-7.179525E-08
3.315027E+03	-2.904725E-06	-7.062835E-08
3.317024E+03	-2.845374E-06	-6.918472E-08
3.319021E+03	-2.766087E-06	-6.725634E-08
3.321018E+03	-2.691468E-06	-6.544151E-08
3.323015E+03	-2.630325E-06	-6.395438E-08
3.325012E+03	-2.586646E-06	-6.289187E-08
3.327009E+03	-2.537171E-06	-6.168848E-08
3.329006E+03	-2.485923E-06	-6.044198E-08
3.331003E+03	-2.427408E-06	-5.901882E-08
3.333000E+03	-2.369806E-06	-5.761787E-08
3.334998E+03	-2.300522E-06	-5.593294E-08
3.336995E+03	-2.243234E-06	-5.453965E-08
3.338992E+03	-2.182046E-06	-5.305161E-08
3.340989E+03	-2.129660E-06	-5.177757E-08
3.342986E+03	-2.067891E-06	-5.027543E-08
3.344983E+03	-2.004063E-06	-4.872324E-08
3.346980E+03	-1.949177E-06	-4.738847E-08
3.348977E+03	-1.882974E-06	-4.577860E-08
3.350974E+03	-1.806906E-06	-4.392892E-08
3.352971E+03	-1.740879E-06	-4.232338E-08
3.354968E+03	-1.677334E-06	-4.077819E-08
3.356965E+03	-1.607643E-06	-3.908362E-08
3.358962E+03	-1.532131E-06	-3.724755E-08
3.360959E+03	-1.464861E-06	-3.561189E-08
3.362956E+03	-1.400372E-06	-3.404387E-08
3.364953E+03	-1.337397E-06	-3.251265E-08
3.366950E+03	-1.265539E-06	-3.076554E-08
3.368947E+03	-1.193536E-06	-2.901490E-08
3.370944E+03	-1.129062E-06	-2.744734E-08
3.372941E+03	-1.065556E-06	-2.590332E-08
3.374938E+03	-9.961460E-07	-2.421580E-08
3.376935E+03	-9.264548E-07	-2.252148E-08
3.378932E+03	-8.554549E-07	-2.079536E-08
3.380929E+03	-7.807004E-07	-1.897800E-08
3.382926E+03	-7.024248E-07	-1.707508E-08
3.384923E+03	-6.245848E-07	-1.518277E-08
3.386920E+03	-5.406165E-07	-1.314152E-08
3.388917E+03	-4.561335E-07	-1.108779E-08
3.390914E+03	-3.674620E-07	-8.932281E-09
3.392911E+03	-2.771527E-07	-6.736989E-09
3.394908E+03	-1.829516E-07	-4.447128E-09
3.396905E+03	-8.628815E-08	-2.097449E-09
3.398902E+03	1.311664E-08	3.188302E-10
3.400899E+03	1.157333E-07	2.813145E-09
3.402896E+03	2.215059E-07	5.384134E-09
3.404893E+03	3.315862E-07	8.059790E-09
3.406890E+03	4.439238E-07	1.079028E-08
3.408887E+03	5.580307E-07	1.356372E-08
3.410884E+03	6.740826E-07	1.638441E-08
3.412881E+03	7.950053E-07	1.932344E-08
3.414878E+03	9.215364E-07	2.239874E-08
3.416875E+03	1.052164E-06	2.557358E-08
3.418872E+03	1.181287E-06	2.871179E-08
3.420869E+03	1.311072E-06	3.186603E-08
3.422866E+03	1.446607E-06	3.516000E-08
3.424863E+03	1.585752E-06	3.854167E-08
3.426860E+03	1.729288E-06	4.202999E-08
3.428857E+03	1.870964E-06	4.547307E-08
3.430854E+03	2.014706E-06	4.896629E-08
3.432851E+03	2.171262E-06	5.277090E-08
3.434848E+03	2.323037E-06	5.645926E-08
3.436845E+03	2.481018E-06	6.029841E-08
3.438842E+03	2.630417E-06	6.392891E-08
3.440839E+03	2.777848E-06	6.751153E-08
3.442836E+03	2.926282E-06	7.111850E-08
3.444833E+03	3.091961E-06	7.514449E-08
3.446830E+03	3.256810E-06	7.915026E-08
3.448827E+03	3.413907E-06	8.296758E-08
3.450824E+03	3.572230E-06	8.681464E-08
3.452821E+03	3.731239E-06	9.067832E-08
3.454818E+03	3.884391E-06	9.439958E-08
3.456815E+03	4.058443E-06	9.862873E-08
3.458812E+03	4.236335E-06	1.029511E-07
3.460809E+03	4.411524E-06	1.072078E-07
3.462806E+03	4.585421E-06	1.114330E-07
3.464803E+03	4.740789E-06	1.152078E-07
3.466800E+03	4.903368E-06	1.191578E-07
3.468797E+03	5.078778E-06	1.234196E-07
3.470794E+03	5.249491E-06	1.275672E-07
3.472791E+03	5.422410E-06	1.317683E-07
3.474788E+03	5.587852E-06	1.357877E-07
3.476785E+03	5.749471E-06	1.397141E-07
3.478782E+03	5.920770E-06	1.438756E-07
3.480779E+03	6.107373E-06	1.484090E-07
3.482776E+03	6.274482E-06	1.524687E-07
3.484773E+03	6.459811E-06	1.569710E-07
3.486770E+03	6.659832E-06	1.618303E-07
3.488767E+03	6.866746E-06	1.668569E-07
3.490764E+03	7.083683E-06	1.721271E-07
3.492761E+03	7.288926E-06	1.771130E-07
3.494758E+03	7.490797E-06	1.820169E-07
3.496755E+03	7.687133E-06	1.867863E-07
3.498752E+03	7.894971E-06	1.918351E-07
3.500749E+03	8.104110E-06	1.969154E-07
3.502746E+03	8.290939E-06	2.014536E-07
3.504743E+03	8.491894E-06	2.063349E-07
3.506740E+03	8.706824E-06	2.115557E-07
3.508737E+03	8.936230E-06	2.171281E-07
3.510734E+03	9.151214E-06	2.223501E-07
3.512731E+03	9.348921E-06	2.271522E-07
3.514728E+03	9.558873E-06	2.322518E-07
3.516725E+03	9.816741E-06	2.385155E-07
3.518722E+03	1.009366E-05	2.452420E-07
3.520719E+03	1.036362E-05	2.517994E-07
3.522716E+03	1.064127E-05	2.585434E-07
3.524713E+03	1.090907E-05	2.650480E-07
3.526710E+03	1.113757E-05	2.705977E-07
3.528707E+03	1.138036E-05	2.764945E-07
3.530704E+03	1.164622E-05	2.829516E-07
3.532701E+03	1.190015E-05	2.891191E-07
3.534698E+03	1.215561E-05	2.953233E-07
3.536695E+03	1.242587E-05	3.018873E-07
3.538692E+03	1.267579E-05	3.079569E-07
3.540689E+03	1.292296E-05	3.139596E-07
3.542686E+03	1.315043E-05	3.194835E-07
3.544683E+03	1.341846E-05	3.259929E-07
3.546680E+03	1.369324E-05	3.326660E-07
3.548677E+03	1.397637E-05	3.395420E-07
3.550674E+03	1.424746E-05	3.461254E-07
3.552671E+03	1.453662E-05	3.531478E-07
3.554668E+03	1.479754E-05	3.594838E-07
3.556665E+03	1.504750E-05	3.655536E-07
3.558662E+03	1.530653E-05	3.718438E-07
3.560659E+03	1.557201E-05	3.782905E-07
3.562656E+03	1.583654E-05	3.847139E-07
3.564653E+03	1.609065E-05	3.908841E-07
3.566650E+03	1.636847E-05	3.976304E-07
3.568647E+03	1.666469E-05	4.048232E-07
3.570644E+03	1.692789E-05	4.112140E-07
3.572641E+03	1.721105E-05	4.180897E-07
3.574638E+03	1.745783E-05	4.240813E-07
3.576635E+03	1.769717E-05	4.298923E-07
3.578632E+03	1.794257E-05	4.358503E-07
3.580629E+03	1.824541E-05	4.432038E-07
3.582626E+03	1.851698E-05	4.497972E-07
3.584623E+03	1.881208E-05	4.569622E-07
3.586620E+03	1.908004E-05	4.634679E-07
3.588617E+03	1.931767E-05	4.692369E-07
3.590614E+03	1.959579E-05	4.759893E-07
3.592611E+03	1.987953E-05	4.828779E-07
3.594608E+03	2.015925E-05	4.896690E-07
3.596605E+03	2.044663E-05	4.966460E-07
3.598602E+03	2.076612E-05	5.044027E-07
3.600599E+03	2.106179E-05	5.115809E-07
3.602596E+03	2.136156E-05	5.188583E-07
3.604593E+03	2.164869E-05	5.258288E-07
3.606590E+03	2.188634E-05	5.315976E-07
3.608587E+03	2.215668E-05	5.381600E-07
3.610584E+03	2.245884E-05	5.454952E-07
3.612581E+03	2.272078E-05	5.518536E-07
3.614578E+03	2.299709E-05	5.585607E-07
3.616575E+03	2.330884E-05	5.661285E-07
3.618572E+03	2.358109E-05	5.727370E-07
3.620569E+03	2.384499E-05	5.791427E-07
3.622566E+03	2.410018E-05	5.853366E-07
3.624563E+03	2.438477E-05	5.922445E-07
3.626560E+03	2.467308E-05	5.992425E-07
3.628557E+03	2.496026E-05	6.062130E-07
3.630554E+03	2.514865E-05	6.107843E-07
3.632551E+03	2.544978E-05	6.180934E-07
3.634548E+03	2.583205E-05	6.273732E-07
3.636545E+03	2.617118E-05	6.356049E-07
3.638542E+03	2.661804E-05	6.464532E-07
3.640539E+03	2.699276E-05	6.555491E-07
3.642536E+03	2.742198E-05	6.659685E-07
3.644533E+03	2.784754E-05	6.762989E-07
3.646530E+03	2.824981E-05	6.860637E-07
3.648527E+03	2.872579E-05	6.976182E-07
3.650524E+03	2.923839E-05	7.100620E-07
3.652521E+03	2.982035E-05	7.241899E-07
3.654518E+03	3.043335E-05	7.390717E-07
3.656515E+03	3.093729E-05	7.513046E-07
3.658512E+03	3.137853E-05	7.620146E-07
3.660509E+03	3.182084E-05	7.727504E-07
3.662506E+03	3.233412E-05	7.852098E-07
3.664503E+03	3.290843E-05	7.991510E-07
3.666500E+03	3.352705E-05	8.141678E-07
3.668497E+03	3.418186E-05	8.300634E-07
3.670494E+03	3.474953E-05	8.438428E-07
3.672491E+03	3.518168E-05	8.543309E-07
3.674488E+03	3.554194E-05	8.630734E-07
3.676485E+03	3.596963E-05	8.734529E-07
3.678482E+03	3.639688E-05	8.838219E-07
3.680479E+03	3.684048E-05	8.945876E-07
3.682476E+03	3.726333E-05	9.048492E-07
3.684473E+03	3.759909E-05	9.129960E-07
3.686470E+03	3.786918E-05	9.195482E-07
3.688467E+03	3.810314E-05	9.252227E-07
3.690464E+03	3.829263E-05	9.298176E-07
3.692461E+03	3.841460E-05	9.327728E-07
3.694458E+03	3.851788E-05	9.352742E-07
3.696455E+03	3.859459E-05	9.371303E-07
3.698452E+03	3.859928E-05	9.372377E-07
3.700449E+03	3.857112E-05	9.365476E-07
3.702446E+03	3.858903E-05	9.369761E-07
3.704443E+03	3.865077E-05	9.384688E-07
3.706440E+03	3.871282E-05	9.399688E-07
3.708437E+03	3.874899E-05	9.408406E-07
3.710434E+03	3.863888E-05	9.381607E-07
3.712431E+03	3.839690E-05	9.322789E-07
3.714428E+03	3.817529E-05	9.268919E-07
3.716425E+03	3.784415E-05	9.188455E-07
3.718422E+03	3.754277E-05	9.115219E-07
3.720419E+03	3.725484E-05	9.045248E-07
3.722416E+03	3.689296E-05	8.957325E-07
3.724413E+03	3.665938E-05	8.900553E-07
3.726410E+03	3.657626E-05	8.880311E-07
3.728407E+03	3.665045E-05	8.898262E-07
3.730404E+03	3.668429E-05	8.906419E-07
3.732401E+03	3.686430E-05	8.950062E-07
3.734398E+03	3.696025E-05	8.973296E-07
3.736395E+03	3.711636E-05	9.011134E-07
3.738392E+03	3.733806E-05	9.064899E-07
3.740389E+03	3.751140E-05	9.106918E-07
3.742386E+03	3.774409E-05	9.163347E-07
3.744383E+03	3.797176E-05	9.218559E-07
3.746380E+03	3.817535E-05	9.267923E-07
3.748377E+03	3.838284E-05	9.318233E-07
3.750374E+03	3.860352E-05	9.371742E-07
3.752371E+03	3.876330E-05	9.410469E-07
3.754368E+03	3.902209E-05	9.473231E-07
3.756365E+03	3.933608E-05	9.549393E-07
3.758362E+03	3.963274E-05	9.621344E-07
3.760359E+03	3.993679E-05	9.695092E-07
3.762356E+03	4.033708E-05	9.792199E-07
3.764353E+03	4.083772E-05	9.913667E-07
3.766350E+03	4.145850E-05	1.006430E-06
3.768347E+03	4.213661E-05	1.022884E-06
3.770344E+03	4.285389E-05	1.040290E-06
3.772341E+03	4.358836E-05	1.058112E-06
3.774338E+03	4.421613E-05	1.073344E-06
3.776335E+03	4.473097E-05	1.085834E-06
3.778333E+03	4.518720E-05	1.096902E-06
3.780330E+03	4.574594E-05	1.110458E-06
3.782327E+03	4.627736E-05	1.123350E-06
3.784324E+03	4.671162E-05	1.133884E-06
3.786321E+03	4.722442E-05	1.146324E-06
3.788318E+03	4.757851E-05	1.154911E-06
3.790315E+03	4.793156E-05	1.163473E-06
3.792312E+03	4.829629E-05	1.172319E-06
3.794309E+03	4.857166E-05	1.178995E-06
3.796306E+03	4.907896E-05	1.191301E-06
3.798303E+03	4.940962E-05	1.199319E-06
3.800300E+03	4.969003E-05	1.206117E-06
3.802297E+03	5.004059E-05	1.214618E-06
3.804294E+03	5.030986E-05	1.221146E-06
3.806291E+03	5.061087E-05	1.228444E-06
3.808288E+03	5.116647E-05	1.241921E-06
3.810285E+03	5.191406E-05	1.260059E-06
3.812282E+03	5.278132E-05	1.281100E-06
3.814279E+03	5.361848E-05	1.301411E-06
3.816276E+03	5.459246E-05	1.325042E-06
3.818273E+03	5.577546E-05	1.353747E-06
3.820270E+03	5.715533E-05	1.387229E-06
3.822267E+03	5.884275E-05	1.428175E-06
3.824264E+03	6.072367E-05	1.473817E-06
3.826261E+03	6.283089E-05	1.524951E-06
3.828258E+03	6.488118E-05	1.574703E-06
3.830255E+03	6.689237E-05	1.623505E-06
3.832252E+03	6.905662E-05	1.676021E-06
3.834249E+03	7.129191E-05	1.730260E-06
3.836246E+03	7.365195E-05	1.787527E-06
3.838243E+03	7.599955E-05	1.844491E-06
3.840240E+03	7.841819E-05	1.903178E-06
3.842237E+03	8.097279E-05	1.965164E-06
3.844234E+03	8.352304E-05	2.027044E-06
3.846231E+03	8.628397E-05	2.094036E-06
3.848228E+03	8.924531E-05	2.165890E-06
3.850225E+03	9.235983E-05	2.241462E-06
3.852222E+03	9.536558E-05	2.314392E-06
3.854219E+03	9.816320E-05	2.382271E-06
3.856216E+03	1.008220E-04	2.446781E-06
3.858213E+03	1.033236E-04	2.507472E-06
3.860210E+03	1.061329E-04	2.575633E-06
3.862207E+03	1.094850E-04	2.656964E-06
3.864204E+03	1.130455E-04	2.743352E-06
3.866201E+03	1.167795E-04	2.833948E-06
3.868198E+03	1.203941E-04	2.921647E-06
3.870195E+03	1.240427E-04	3.010170E-06
3.872192E+03	1.279230E-04	3.104312E-06
3.874189E+03	1.318400E-04	3.199345E-06
3.876186E+03	1.355295E-04	3.288858E-06
3.878183E+03	1.389699E-04	3.372323E-06
3.880180E+03	1.421309E-04	3.449006E-06
3.882177E+03	1.451122E-04	3.521328E-06
3.884174E+03	1.478273E-04	3.587190E-06
3.886171E+03	1.502369E-04	3.645638E-06
3.888168E+03	1.525431E-04	3.701577E-06
3.890165E+03	1.547266E-04	3.754536E-06
3.892162E+03	1.563359E-04	3.793561E-06
3.894159E+03	1.578021E-04	3.829116E-06
3.896156E+03	1.595426E-04	3.871324E-06
3.898153E+03	1.615281E-04	3.919476E-06
3.900150E+03	1.635720E-04	3.969045E-06
3.902147E+03	1.658153E-04	4.023452E-06
3.904144E+03	1.680062E-04	4.076587E-06
3.906141E+03	1.701966E-04	4.129709E-06
3.908138E+03	1.723860E-04	4.182807E-06
3.910135E+03	1.745833E-04	4.236095E-06
3.912132E+03	1.767792E-04	4.289349E-06
3.914129E+03	1.788279E-04	4.339030E-06
3.916126E+03	1.807719E-04	4.386170E-06
3.918123E+03	1.824799E-04	4.427584E-06
3.920120E+03	1.840122E-04	4.464733E-06
3.922117E+03	1.852530E-04	4.494811E-06
3.924114E+03	1.865445E-04	4.526116E-06
3.926111E+03	1.877645E-04	4.555688E-06
3.928108E+03	1.887688E-04	4.580025E-06
3.930105E+03	1.898502E-04	4.606235E-06
3.932102E+03	1.909620E-04	4.633178E-06
3.934099E+03	1.920269E-04	4.658987E-06
3.936096E+03	1.929565E-04	4.681510E-06
3.938093E+03	1.938069E-04	4.702113E-06
3.940090E+03	1.946360E-04	4.722199E-06
3.942087E+03	1.951553E-04	4.734765E-06
3.944084E+03	1.960387E-04	4.756169E-06
3.946081E+03	1.969110E-04	4.777301E-06
3.948078E+03	1.978730E-04	4.800609E-06
3.950075E+03	1.987227E-04	4.821194E-06
3.952072E+03	1.995709E-04	4.841740E-06
3.954069E+03	2.005513E-04	4.865494E-06
3.956066E+03	2.018840E-04	4.897796E-06
3.958063E+03	2.032939E-04	4.931968E-06
3.960060E+03	2.050234E-04	4.973894E-06
3.962057E+03	2.072680E-04	5.028317E-06
3.964054E+03	2.100049E-04	5.094681E-06
3.966051E+03	2.129968E-04	5.167231E-06
3.968048E+03	2.164412E-04	5.250758E-06
3.970045E+03	2.199353E-04	5.335490E-06
3.972042E+03	2.232079E-04	5.414847E-06
3.974039E+03	2.267356E-04	5.500390E-06
3.976036E+03	2.304343E-04	5.590082E-06
3.978033E+03	2.344944E-04	5.688539E-06
3.980030E+03	2.386995E-04	5.790512E-06
3.982027E+03	2.426826E-04	5.887100E-06
3.984024E+03	2.467316E-04	5.985285E-06
3.986021E+03	2.508812E-04	6.085909E-06
3.988018E+03	2.549508E-04	6.184589E-06
3.990015E+03	2.586753E-04	6.274899E-06
3.992012E+03	2.624282E-04	6.365895E-06
3.994009E+03	2.664403E-04	6.463179E-06
3.996006E+03	2.702161E-04	6.554728E-06
3.998003E+03	2.737510E-04	6.640434E-06
4.000000E+03	2.771817E-04	6.723610E-06
4.001997E+03	2.806124E-04	6.806787E-06
4.003994E+03	2.841260E-04	6.891972E-06
4.005991E+03	2.881415E-04	6.989332E-06
4.007988E+03	2.925586E-04	7.096430E-06
4.009985E+03	2.972506E-04	7.210195E-06
4.011982E+03	3.015051E-04	7.313350E-06
4.013979E+03	3.053270E-04	7.406007E-06
4.015976E+03	3.086476E-04	7.486504E-06
4.017973E+03	3.117173E-04	7.560915E-06
4.019970E+03	3.142717E-04	7.622825E-06
4.021967E+03	3.164144E-04	7.674749E-06
4.023964E+03	3.177878E-04	7.708015E-06
4.025961E+03	3.187200E-04	7.730577E-06
4.027958E+03	3.194066E-04	7.747181E-06
4.029955E+03	3.200346E-04	7.762364E-06
4.031952E+03	3.204241E-04	7.771764E-06
4.033949E+03	3.205844E-04	7.775603E-06
4.035946E+03	3.206542E-04	7.777247E-06
4.037943E+03	3.203336E-04	7.769422E-06
4.039940E+03	3.199430E-04	7.759900E-06
4.041937E+03	3.202165E-04	7.766486E-06
4.043934E+03	3.211777E-04	7.789749E-06
4.045931E+03	3.218030E-04	7.804867E-06
4.047928E+03	3.220874E-04	7.811716E-06
4.049925E+03	3.223071E-04	7.816997E-06
4.051922E+03	3.222190E-04	7.814812E-06
4.053919E+03	3.218593E-04	7.806039E-06
4.055916E+03	3.210065E-04	7.785307E-06
4.057913E+03	3.201589E-04	7.764703E-06
4.059910E+03	3.191934E-04	7.741239E-06
4.061907E+03	3.181636E-04	7.716215E-06
4.063904E+03	3.172490E-04	7.693986E-06
4.065901E+03	3.163401E-04	7.671896E-06
4.067898E+03	3.152834E-04	7.646222E-06
4.069895E+03	3.139503E-04	7.613846E-06
4.071892E+03	3.128884E-04	7.588044E-06
4.073889E+03	3.118034E-04	7.561686E-06
4.075886E+03	3.107384E-04	7.535810E-06
4.077883E+03	3.096362E-04	7.509036E-06
4.079880E+03	3.086986E-04	7.486250E-06
4.081877E+03	3.074938E-04	7.456987E-06
4.083874E+03	3.064544E-04	7.431736E-06
4.085871E+03	3.056416E-04	7.411979E-06
4.087868E+03	3.047799E-04	7.391036E-06
4.089865E+03	3.039278E-04	7.370327E-06
4.091862E+03	3.035151E-04	7.360274E-06
4.093859E+03	3.029977E-04	7.347682E-06
4.095856E+03	3.024341E-04	7.333970E-06
