#wls	flux	fluxerr
1.597604E+03	-1.271364E-08	-5.383742E-09
1.637544E+03	-1.567172E-08	-6.588398E-09
1.677484E+03	-1.851471E-08	-7.725383E-09
1.717424E+03	-2.114275E-08	-8.753696E-09
1.757364E+03	-2.344852E-08	-9.630656E-09
1.797304E+03	-2.529235E-08	-1.030196E-08
1.837244E+03	-2.650981E-08	-1.070540E-08
1.877184E+03	-2.694850E-08	-1.078619E-08
1.917124E+03	-2.649365E-08	-1.050702E-08
1.957064E+03	-2.513651E-08	-9.874379E-09
1.997004E+03	-2.305128E-08	-8.966545E-09
2.036945E+03	-2.064029E-08	-7.947390E-09
2.076885E+03	-1.846241E-08	-7.034352E-09
2.116825E+03	-1.706488E-08	-6.431451E-09
2.156765E+03	-1.681633E-08	-6.266787E-09
2.196705E+03	-1.785799E-08	-6.577885E-09
2.236645E+03	-2.012565E-08	-7.324372E-09
2.276585E+03	-2.338324E-08	-8.404506E-09
2.316525E+03	-2.726861E-08	-9.675459E-09
2.356465E+03	-3.136154E-08	-1.098031E-08
2.396405E+03	-3.527279E-08	-1.218054E-08
2.436345E+03	-3.868627E-08	-1.317003E-08
2.476286E+03	-4.138263E-08	-1.388154E-08
2.516226E+03	-4.321219E-08	-1.427558E-08
2.556166E+03	-4.411329E-08	-1.434483E-08
2.596106E+03	-4.403983E-08	-1.408874E-08
2.636046E+03	-4.300954E-08	-1.352835E-08
2.675986E+03	-4.104508E-08	-1.268642E-08
2.715926E+03	-3.818728E-08	-1.159121E-08
2.755866E+03	-3.450040E-08	-1.027757E-08
2.795806E+03	-3.005132E-08	-8.780116E-09
2.835746E+03	-2.490895E-08	-7.132876E-09
2.875686E+03	-1.915085E-08	-5.371072E-09
2.915627E+03	-1.284679E-08	-3.526225E-09
2.955567E+03	-6.057549E-09	-1.625999E-09
2.995507E+03	1.172302E-09	3.074847E-10
3.005492E+03	3.045994E-09	7.942312E-10
3.015477E+03	4.945792E-09	1.281932E-09
3.025462E+03	6.872391E-09	1.770619E-09
3.035447E+03	8.825997E-09	2.260196E-09
3.045432E+03	1.081006E-08	2.751387E-09
3.055417E+03	1.282770E-08	3.244815E-09
3.065402E+03	1.488256E-08	3.741212E-09
3.075387E+03	1.697554E-08	4.240600E-09
3.085372E+03	1.911054E-08	4.743745E-09
3.095357E+03	2.128806E-08	5.250545E-09
3.105342E+03	2.351250E-08	5.761849E-09
3.115327E+03	2.578669E-08	6.278098E-09
3.125312E+03	2.811091E-08	6.799100E-09
3.135297E+03	3.049077E-08	7.325932E-09
3.145282E+03	3.292983E-08	7.859157E-09
3.155267E+03	3.543206E-08	8.399403E-09
3.165252E+03	3.799832E-08	8.946541E-09
3.175237E+03	4.063662E-08	9.502115E-09
3.185222E+03	4.335249E-08	1.006703E-08
3.195207E+03	4.615625E-08	1.064326E-08
3.205192E+03	4.904666E-08	1.123008E-08
3.215177E+03	5.203544E-08	1.182970E-08
3.225162E+03	5.513131E-08	1.244359E-08
3.235147E+03	5.834405E-08	1.307337E-08
3.245132E+03	6.168460E-08	1.372090E-08
3.255117E+03	6.517085E-08	1.438947E-08
3.265102E+03	6.880568E-08	1.507896E-08
3.275087E+03	7.261600E-08	1.579447E-08
3.285072E+03	7.661357E-08	1.653765E-08
3.295057E+03	8.082453E-08	1.731314E-08
3.305042E+03	8.525774E-08	1.812175E-08
3.315027E+03	8.995854E-08	1.897190E-08
3.325012E+03	9.493370E-08	1.986366E-08
3.334998E+03	1.002370E-07	2.080680E-08
3.344983E+03	1.058806E-07	2.180216E-08
3.354968E+03	1.119286E-07	2.286113E-08
3.364953E+03	1.184098E-07	2.398745E-08
3.374938E+03	1.253836E-07	2.519091E-08
3.384923E+03	1.328983E-07	2.647860E-08
3.394908E+03	1.410285E-07	2.786253E-08
3.404893E+03	1.498484E-07	2.935415E-08
3.414878E+03	1.594541E-07	3.096858E-08
3.424863E+03	1.699070E-07	3.271371E-08
3.434848E+03	1.813509E-07	3.461269E-08
3.444833E+03	1.938991E-07	3.668193E-08
3.454818E+03	2.077085E-07	3.894525E-08
3.464803E+03	2.229144E-07	4.142145E-08
3.474788E+03	2.397174E-07	4.414038E-08
3.484773E+03	2.583495E-07	4.713629E-08
3.494758E+03	2.790428E-07	5.044190E-08
3.504743E+03	3.021017E-07	5.410131E-08
3.514728E+03	3.278377E-07	5.815784E-08
3.524713E+03	3.566306E-07	6.266466E-08
3.534698E+03	3.889434E-07	6.768699E-08
3.544683E+03	4.252899E-07	7.329558E-08
3.554668E+03	4.662371E-07	7.956685E-08
3.564653E+03	5.124989E-07	8.659831E-08
3.574638E+03	5.648763E-07	9.449715E-08
3.584623E+03	6.242989E-07	1.033866E-07
3.594608E+03	6.918061E-07	1.134016E-07
3.604593E+03	7.687273E-07	1.247173E-07
3.614578E+03	8.564310E-07	1.375061E-07
3.624563E+03	9.566897E-07	1.519958E-07
3.634548E+03	1.071394E-06	1.684206E-07
3.644533E+03	1.202757E-06	1.870526E-07
3.654518E+03	1.353294E-06	2.081958E-07
3.664503E+03	1.525914E-06	2.321971E-07
3.674488E+03	1.723697E-06	2.594104E-07
3.684473E+03	1.950115E-06	2.902277E-07
3.694458E+03	2.209104E-06	3.250861E-07
3.704443E+03	2.504886E-06	3.644392E-07
3.714428E+03	2.841947E-06	4.087506E-07
3.724413E+03	3.225472E-06	4.585547E-07
3.734398E+03	3.660891E-06	5.143865E-07
3.744383E+03	4.154520E-06	5.768693E-07
3.754368E+03	4.713181E-06	6.466554E-07
3.764353E+03	5.344426E-06	7.244524E-07
3.774338E+03	6.056586E-06	8.110244E-07
3.784324E+03	6.858790E-06	9.071885E-07
3.794309E+03	7.760999E-06	1.013813E-06
3.804294E+03	8.773970E-06	1.131806E-06
3.814279E+03	9.908711E-06	1.262042E-06
3.824264E+03	1.117798E-05	1.405546E-06
3.834249E+03	1.259413E-05	1.563218E-06
3.844234E+03	1.416829E-05	1.735726E-06
3.854219E+03	1.591299E-05	1.923851E-06
3.864204E+03	1.783720E-05	2.127866E-06
3.874189E+03	1.995150E-05	2.348189E-06
3.884174E+03	2.225980E-05	2.584402E-06
3.894159E+03	2.476719E-05	2.836206E-06
3.904144E+03	2.747372E-05	3.102710E-06
3.914129E+03	3.037829E-05	3.382903E-06
3.924114E+03	3.347923E-05	3.675732E-06
3.934099E+03	3.677037E-05	3.979676E-06
3.944084E+03	4.025161E-05	4.293909E-06
3.954069E+03	4.391395E-05	4.616684E-06
3.964054E+03	4.775239E-05	4.946735E-06
3.974039E+03	5.175197E-05	5.281819E-06
3.984024E+03	5.589240E-05	5.619260E-06
3.994009E+03	6.014781E-05	5.955968E-06
4.003994E+03	6.447836E-05	6.287653E-06
4.013979E+03	6.884683E-05	6.610526E-06
4.023964E+03	7.321020E-05	6.920479E-06
4.033949E+03	7.753205E-05	7.214279E-06
4.043934E+03	8.179431E-05	7.490593E-06
4.053919E+03	8.598532E-05	7.748771E-06
4.063904E+03	9.012130E-05	7.990705E-06
4.073889E+03	9.423624E-05	8.219743E-06
4.083874E+03	9.837831E-05	8.440257E-06
4.093859E+03	1.026154E-04	8.658009E-06
4.103844E+03	1.070148E-04	8.878348E-06
4.113829E+03	1.116553E-04	9.107169E-06
4.123814E+03	1.166000E-04	9.348721E-06
4.133799E+03	1.218901E-04	9.605187E-06
4.143784E+03	1.275726E-04	9.879007E-06
4.153769E+03	1.336609E-04	1.016983E-05
4.163754E+03	1.401639E-04	1.047696E-05
4.173739E+03	1.470749E-04	1.079853E-05
4.183724E+03	1.543818E-04	1.113237E-05
4.193709E+03	1.620780E-04	1.147681E-05
4.203694E+03	1.701305E-04	1.182843E-05
4.213679E+03	1.785045E-04	1.218389E-05
4.223665E+03	1.871369E-04	1.253821E-05
4.233650E+03	1.959691E-04	1.288703E-05
4.243635E+03	2.049151E-04	1.322458E-05
4.253620E+03	2.139037E-04	1.354648E-05
4.263605E+03	2.228756E-04	1.384946E-05
4.273590E+03	2.318177E-04	1.413340E-05
4.283575E+03	2.407577E-04	1.440068E-05
4.293560E+03	2.497814E-04	1.465702E-05
4.303545E+03	2.590082E-04	1.490970E-05
4.313530E+03	2.685725E-04	1.516640E-05
4.323515E+03	2.785843E-04	1.543290E-05
4.333500E+03	2.890324E-04	1.570805E-05
4.343485E+03	2.998339E-04	1.598703E-05
4.353470E+03	3.107702E-04	1.625834E-05
4.363455E+03	3.215183E-04	1.650611E-05
4.373440E+03	3.316362E-04	1.670976E-05
4.383425E+03	3.406292E-04	1.684779E-05
4.393410E+03	3.484647E-04	1.692284E-05
4.403395E+03	3.556515E-04	1.696339E-05
4.413380E+03	3.627655E-04	1.699917E-05
4.423365E+03	3.704656E-04	1.706182E-05
4.433350E+03	3.794052E-04	1.718070E-05
4.443335E+03	3.902217E-04	1.738274E-05
4.453320E+03	4.034623E-04	1.768938E-05
4.463305E+03	4.195473E-04	1.811563E-05
4.473290E+03	4.386306E-04	1.866470E-05
4.483275E+03	4.605624E-04	1.932742E-05
4.493260E+03	4.848370E-04	2.008100E-05
4.503245E+03	5.107050E-04	2.089449E-05
4.513230E+03	5.372289E-04	2.173137E-05
4.523215E+03	5.633417E-04	2.255200E-05
4.533200E+03	5.880036E-04	2.331962E-05
4.543185E+03	6.102997E-04	2.400366E-05
4.553170E+03	6.295056E-04	2.458139E-05
4.563155E+03	6.451285E-04	2.503811E-05
4.573140E+03	6.568613E-04	2.536546E-05
4.583125E+03	6.646095E-04	2.556234E-05
4.593110E+03	6.684996E-04	2.563510E-05
4.603095E+03	6.688197E-04	2.559518E-05
4.613080E+03	6.660090E-04	2.545885E-05
4.623065E+03	6.606046E-04	2.524533E-05
4.633050E+03	6.531629E-04	2.497403E-05
4.643035E+03	6.442608E-04	2.466484E-05
4.653020E+03	6.343960E-04	2.433450E-05
4.663005E+03	6.240323E-04	2.399850E-05
4.672991E+03	6.135067E-04	2.366766E-05
4.682976E+03	6.031069E-04	2.335112E-05
4.692961E+03	5.929965E-04	2.305347E-05
4.702946E+03	5.832668E-04	2.277672E-05
4.712931E+03	5.739857E-04	2.252220E-05
4.722916E+03	5.651561E-04	2.228885E-05
4.732901E+03	5.567814E-04	2.207579E-05
4.742886E+03	5.488432E-04	2.188140E-05
4.752871E+03	5.413769E-04	2.170632E-05
4.762856E+03	5.344101E-04	2.155103E-05
4.772841E+03	5.280045E-04	2.141751E-05
4.782826E+03	5.222193E-04	2.130780E-05
4.792811E+03	5.171159E-04	2.122416E-05
4.802796E+03	5.127381E-04	2.116828E-05
4.812781E+03	5.090504E-04	2.113862E-05
4.822766E+03	5.060110E-04	2.113345E-05
4.832751E+03	5.035685E-04	2.115059E-05
4.842736E+03	5.016890E-04	2.118861E-05
4.852721E+03	5.003666E-04	2.124729E-05
4.862706E+03	4.996046E-04	2.132676E-05
4.872691E+03	4.994322E-04	2.142834E-05
4.882676E+03	4.998777E-04	2.155331E-05
4.892661E+03	5.009110E-04	2.170048E-05
4.902646E+03	5.023800E-04	2.186330E-05
4.912631E+03	5.040876E-04	2.203315E-05
4.922616E+03	5.056834E-04	2.219453E-05
4.932601E+03	5.067547E-04	2.232899E-05
4.942586E+03	5.068176E-04	2.241464E-05
4.952571E+03	5.054344E-04	2.243145E-05
4.962556E+03	5.022537E-04	2.236302E-05
4.972541E+03	4.971027E-04	2.220085E-05
4.982526E+03	4.900152E-04	2.194575E-05
4.992511E+03	4.812920E-04	2.161065E-05
5.002496E+03	4.714662E-04	2.121920E-05
5.012481E+03	4.611527E-04	2.079910E-05
5.022466E+03	4.510617E-04	2.038260E-05
5.032451E+03	4.418590E-04	2.000024E-05
5.042436E+03	4.340764E-04	1.967663E-05
5.052421E+03	4.280547E-04	1.942783E-05
5.062406E+03	4.239738E-04	1.926254E-05
5.072391E+03	4.218435E-04	1.918171E-05
5.082376E+03	4.214846E-04	1.917756E-05
5.092361E+03	4.226207E-04	1.923780E-05
5.102346E+03	4.248961E-04	1.934645E-05
5.112332E+03	4.279353E-04	1.948654E-05
5.122317E+03	4.313684E-04	1.964136E-05
5.132302E+03	4.348806E-04	1.979668E-05
5.142287E+03	4.382255E-04	1.994144E-05
5.152272E+03	4.412332E-04	2.006808E-05
5.162257E+03	4.437880E-04	2.017155E-05
5.172242E+03	4.458037E-04	2.024822E-05
5.182227E+03	4.472086E-04	2.029514E-05
5.192212E+03	4.479422E-04	2.030992E-05
5.202197E+03	4.479425E-04	2.029014E-05
5.212182E+03	4.471608E-04	2.023404E-05
5.222167E+03	4.455671E-04	2.014072E-05
5.232152E+03	4.431544E-04	2.001035E-05
5.242137E+03	4.399697E-04	1.984554E-05
5.252122E+03	4.360579E-04	1.964881E-05
5.262107E+03	4.314789E-04	1.942333E-05
5.272092E+03	4.263028E-04	1.917270E-05
5.282077E+03	4.205817E-04	1.889969E-05
5.292062E+03	4.143831E-04	1.860774E-05
5.302047E+03	4.077634E-04	1.829972E-05
5.312032E+03	4.007711E-04	1.797814E-05
5.322017E+03	3.934456E-04	1.764501E-05
5.332002E+03	3.858202E-04	1.730207E-05
5.341987E+03	3.779236E-04	1.695078E-05
5.351972E+03	3.698027E-04	1.659337E-05
5.361957E+03	3.615158E-04	1.623253E-05
5.371942E+03	3.531761E-04	1.587337E-05
5.381927E+03	3.449390E-04	1.552290E-05
5.391912E+03	3.369913E-04	1.518950E-05
5.401897E+03	3.295150E-04	1.488138E-05
5.411882E+03	3.226475E-04	1.460464E-05
5.421867E+03	3.164707E-04	1.436262E-05
5.431852E+03	3.109717E-04	1.415442E-05
5.441837E+03	3.060278E-04	1.397420E-05
5.451822E+03	3.014272E-04	1.381202E-05
5.461807E+03	2.969186E-04	1.365602E-05
5.471792E+03	2.922509E-04	1.349421E-05
5.481777E+03	2.871812E-04	1.331480E-05
5.491762E+03	2.814844E-04	1.310666E-05
5.501747E+03	2.749515E-04	1.285921E-05
5.511732E+03	2.674485E-04	1.256523E-05
5.521717E+03	2.589614E-04	1.222302E-05
5.531702E+03	2.495828E-04	1.183595E-05
5.541687E+03	2.395101E-04	1.141245E-05
5.551672E+03	2.289793E-04	1.096303E-05
5.561658E+03	2.182688E-04	1.050049E-05
5.571643E+03	2.076541E-04	1.003777E-05
5.581628E+03	1.974006E-04	9.587622E-06
5.591613E+03	1.877321E-04	9.161072E-06
5.601598E+03	1.788482E-04	8.768180E-06
5.611583E+03	1.709044E-04	8.417047E-06
5.621568E+03	1.640248E-04	8.114391E-06
5.631553E+03	1.583037E-04	7.865542E-06
5.641538E+03	1.537945E-04	7.673886E-06
5.651523E+03	1.505221E-04	7.541394E-06
5.661508E+03	1.484882E-04	7.468858E-06
5.671493E+03	1.476820E-04	7.456416E-06
5.681478E+03	1.480833E-04	7.503666E-06
5.691463E+03	1.496706E-04	7.610069E-06
5.701448E+03	1.524165E-04	7.774713E-06
5.711433E+03	1.562997E-04	7.996918E-06
5.721418E+03	1.612934E-04	8.275623E-06
5.731403E+03	1.673643E-04	8.609366E-06
5.741388E+03	1.744771E-04	8.996458E-06
5.751373E+03	1.825806E-04	9.434313E-06
5.761358E+03	1.916053E-04	9.919286E-06
5.771343E+03	2.014553E-04	1.044626E-05
5.781328E+03	2.120020E-04	1.100830E-05
5.791313E+03	2.230781E-04	1.159637E-05
5.801298E+03	2.344739E-04	1.219912E-05
5.811283E+03	2.459438E-04	1.280326E-05
5.821268E+03	2.572270E-04	1.339465E-05
5.831253E+03	2.680579E-04	1.395890E-05
5.841238E+03	2.781916E-04	1.448271E-05
5.851223E+03	2.874237E-04	1.495495E-05
5.861208E+03	2.955973E-04	1.536706E-05
5.871193E+03	3.026198E-04	1.571396E-05
5.881178E+03	3.084398E-04	1.599280E-05
5.891163E+03	3.130541E-04	1.620338E-05
5.901148E+03	3.164984E-04	1.634760E-05
5.911133E+03	3.188209E-04	1.642815E-05
5.921118E+03	3.200857E-04	1.644860E-05
5.931103E+03	3.203712E-04	1.641332E-05
5.941088E+03	3.197586E-04	1.632689E-05
5.951073E+03	3.183498E-04	1.619500E-05
5.961058E+03	3.162473E-04	1.602334E-05
5.971043E+03	3.135888E-04	1.581942E-05
5.981028E+03	3.105171E-04	1.559091E-05
5.991013E+03	3.071913E-04	1.534622E-05
6.000999E+03	3.037743E-04	1.509383E-05
6.010984E+03	3.004280E-04	1.484201E-05
6.020969E+03	2.973121E-04	1.459875E-05
6.030954E+03	2.945649E-04	1.437077E-05
6.040939E+03	2.923236E-04	1.416457E-05
6.050924E+03	2.907291E-04	1.398658E-05
6.060909E+03	2.899155E-04	1.384267E-05
6.070894E+03	2.900301E-04	1.373910E-05
6.080879E+03	2.912427E-04	1.368286E-05
6.090864E+03	2.937539E-04	1.368208E-05
6.100849E+03	2.977773E-04	1.374503E-05
6.110834E+03	3.035611E-04	1.388112E-05
6.120819E+03	3.113755E-04	1.410022E-05
6.130804E+03	3.214912E-04	1.441160E-05
6.140789E+03	3.341833E-04	1.482411E-05
6.150774E+03	3.497031E-04	1.534490E-05
6.160759E+03	3.682246E-04	1.597716E-05
6.170744E+03	3.898330E-04	1.671977E-05
6.180729E+03	4.144424E-04	1.756409E-05
6.190714E+03	4.417609E-04	1.849297E-05
6.200699E+03	4.712243E-04	1.947855E-05
6.210684E+03	5.020318E-04	2.048451E-05
6.220669E+03	5.331623E-04	2.146745E-05
6.230654E+03	5.634309E-04	2.237979E-05
6.240639E+03	5.916202E-04	2.317544E-05
6.250624E+03	6.165919E-04	2.381424E-05
6.260609E+03	6.374228E-04	2.426696E-05
6.270594E+03	6.534003E-04	2.451449E-05
6.280579E+03	6.641110E-04	2.455057E-05
6.290564E+03	6.694292E-04	2.438037E-05
6.300549E+03	6.694857E-04	2.401863E-05
6.310534E+03	6.646485E-04	2.348810E-05
6.320519E+03	6.554555E-04	2.281654E-05
6.330504E+03	6.426084E-04	2.203599E-05
6.340489E+03	6.269184E-04	2.118049E-05
6.350474E+03	6.092405E-04	2.028363E-05
6.360459E+03	5.903695E-04	1.937505E-05
6.370444E+03	5.710184E-04	1.848001E-05
6.380429E+03	5.518032E-04	1.761914E-05
6.390414E+03	5.332192E-04	1.680804E-05
6.400399E+03	5.156436E-04	1.605776E-05
6.410384E+03	4.993689E-04	1.537612E-05
6.420369E+03	4.845838E-04	1.476743E-05
6.430354E+03	4.713842E-04	1.423306E-05
6.440339E+03	4.598186E-04	1.377301E-05
6.450325E+03	4.498880E-04	1.338604E-05
6.460310E+03	4.415637E-04	1.307027E-05
6.470295E+03	4.347923E-04	1.282336E-05
6.480280E+03	4.294513E-04	1.264126E-05
6.490265E+03	4.253760E-04	1.251896E-05
6.500250E+03	4.223006E-04	1.244871E-05
6.510235E+03	4.198510E-04	1.241906E-05
6.520220E+03	4.174878E-04	1.241305E-05
6.530205E+03	4.148997E-04	1.242013E-05
6.540190E+03	4.121297E-04	1.244011E-05
6.550175E+03	4.090895E-04	1.246875E-05
6.560160E+03	4.056225E-04	1.249947E-05
6.570145E+03	4.015660E-04	1.252523E-05
6.580130E+03	3.968580E-04	1.254180E-05
6.590115E+03	3.914978E-04	1.254674E-05
6.600100E+03	3.855620E-04	1.254004E-05
6.610085E+03	3.791939E-04	1.252402E-05
6.620070E+03	3.725612E-04	1.250213E-05
6.630055E+03	3.658248E-04	1.247797E-05
6.640040E+03	3.591365E-04	1.245530E-05
6.650025E+03	3.526173E-04	1.243720E-05
6.660010E+03	3.463633E-04	1.242632E-05
6.669995E+03	3.404454E-04	1.242467E-05
6.679980E+03	3.349114E-04	1.243376E-05
6.689965E+03	3.297936E-04	1.245471E-05
6.699950E+03	3.250924E-04	1.248761E-05
6.709935E+03	3.207966E-04	1.253218E-05
6.719920E+03	3.168880E-04	1.258792E-05
6.729905E+03	3.133321E-04	1.265369E-05
6.739890E+03	3.100818E-04	1.272779E-05
6.749875E+03	3.071011E-04	1.280892E-05
6.759860E+03	3.043328E-04	1.289482E-05
6.769845E+03	3.017410E-04	1.298404E-05
6.779830E+03	2.993063E-04	1.307579E-05
6.789815E+03	2.970191E-04	1.316967E-05
6.799800E+03	2.949093E-04	1.326708E-05
6.809785E+03	2.930060E-04	1.336947E-05
6.819770E+03	2.913546E-04	1.347913E-05
6.829755E+03	2.900106E-04	1.359898E-05
6.839740E+03	2.890202E-04	1.373159E-05
6.849725E+03	2.884285E-04	1.387963E-05
6.859710E+03	2.882768E-04	1.404568E-05
6.869695E+03	2.885810E-04	1.423117E-05
6.879680E+03	2.893466E-04	1.443699E-05
6.889666E+03	2.905555E-04	1.466286E-05
6.899651E+03	2.921696E-04	1.490742E-05
6.909636E+03	2.941420E-04	1.516873E-05
6.919621E+03	2.964235E-04	1.544463E-05
6.929606E+03	2.989630E-04	1.573270E-05
6.939591E+03	3.017182E-04	1.603089E-05
6.949576E+03	3.046487E-04	1.633714E-05
6.959561E+03	3.077521E-04	1.665135E-05
6.969546E+03	3.110174E-04	1.697293E-05
6.979531E+03	3.144597E-04	1.730272E-05
6.989516E+03	3.181171E-04	1.764281E-05
6.999501E+03	3.220415E-04	1.799615E-05
7.009486E+03	3.262971E-04	1.836640E-05
7.019471E+03	3.309662E-04	1.875837E-05
7.029456E+03	3.361448E-04	1.917770E-05
7.039441E+03	3.419446E-04	1.963107E-05
7.049426E+03	3.484744E-04	2.012507E-05
7.059411E+03	3.558598E-04	2.066735E-05
7.069396E+03	3.642142E-04	2.126493E-05
7.079381E+03	3.736685E-04	2.192590E-05
7.089366E+03	3.843437E-04	2.265780E-05
7.099351E+03	3.963565E-04	2.346795E-05
7.109336E+03	4.097730E-04	2.436062E-05
7.119321E+03	4.246599E-04	2.534003E-05
7.129306E+03	4.410016E-04	2.640540E-05
7.139291E+03	4.587437E-04	2.755342E-05
7.149276E+03	4.777388E-04	2.877499E-05
7.159261E+03	4.977705E-04	3.005660E-05
7.169246E+03	5.185176E-04	3.137814E-05
7.179231E+03	5.395729E-04	3.271404E-05
7.189216E+03	5.604371E-04	3.403286E-05
7.199201E+03	5.805841E-04	3.530138E-05
7.209186E+03	5.994375E-04	3.648319E-05
7.219171E+03	6.164271E-04	3.754224E-05
7.229156E+03	6.310566E-04	3.844710E-05
7.239141E+03	6.429156E-04	3.917173E-05
7.249126E+03	6.516950E-04	3.969661E-05
7.259111E+03	6.572150E-04	4.001041E-05
7.269096E+03	6.594233E-04	4.010994E-05
7.279081E+03	6.583799E-04	3.999925E-05
7.289066E+03	6.542451E-04	3.968882E-05
7.299051E+03	6.472163E-04	3.919166E-05
7.309036E+03	6.375732E-04	3.852602E-05
7.319021E+03	6.255993E-04	3.771056E-05
7.329006E+03	6.116084E-04	3.676585E-05
7.338992E+03	5.959017E-04	3.571175E-05
7.348977E+03	5.787618E-04	3.456700E-05
7.358962E+03	5.604692E-04	3.335016E-05
7.368947E+03	5.413008E-04	3.207945E-05
7.378932E+03	5.215063E-04	3.077136E-05
7.388917E+03	5.013379E-04	2.944231E-05
7.398902E+03	4.810295E-04	2.810746E-05
7.408887E+03	4.608280E-04	2.678245E-05
7.418872E+03	4.409414E-04	2.548034E-05
7.428857E+03	4.215674E-04	2.421333E-05
7.438842E+03	4.028738E-04	2.299155E-05
7.448827E+03	3.850272E-04	2.182477E-05
7.458812E+03	3.681414E-04	2.071942E-05
7.468797E+03	3.523285E-04	1.968157E-05
7.478782E+03	3.376721E-04	1.871539E-05
7.488767E+03	3.242305E-04	1.782340E-05
7.498752E+03	3.120549E-04	1.700749E-05
7.508737E+03	3.011733E-04	1.626810E-05
7.518722E+03	2.915974E-04	1.560459E-05
7.528707E+03	2.833176E-04	1.501503E-05
7.538692E+03	2.763169E-04	1.449702E-05
7.548677E+03	2.705585E-04	1.404705E-05
7.558662E+03	2.659865E-04	1.366059E-05
7.568647E+03	2.625429E-04	1.333301E-05
7.578632E+03	2.601384E-04	1.305820E-05
7.588617E+03	2.586823E-04	1.283007E-05
7.598602E+03	2.580828E-04	1.264264E-05
7.608587E+03	2.582235E-04	1.248894E-05
7.618572E+03	2.590037E-04	1.236298E-05
7.628557E+03	2.603224E-04	1.225899E-05
7.638542E+03	2.620841E-04	1.217173E-05
7.648527E+03	2.641966E-04	1.209633E-05
7.658512E+03	2.665675E-04	1.202819E-05
7.668497E+03	2.691141E-04	1.196342E-05
7.678482E+03	2.717465E-04	1.189806E-05
7.688467E+03	2.743715E-04	1.182829E-05
7.698452E+03	2.768923E-04	1.175046E-05
7.708437E+03	2.792157E-04	1.166136E-05
7.718422E+03	2.812487E-04	1.155812E-05
7.728407E+03	2.829163E-04	1.143889E-05
