#wls	flux	fluxerr
1.597604E+03	1.124727E-07	4.733544E-08
1.637544E+03	1.144267E-07	4.781283E-08
1.677484E+03	1.153197E-07	4.782929E-08
1.717424E+03	1.150783E-07	4.736410E-08
1.757364E+03	1.136497E-07	4.640648E-08
1.797304E+03	1.108147E-07	4.487941E-08
1.837244E+03	1.063413E-07	4.270436E-08
1.877184E+03	1.000483E-07	3.982706E-08
1.917124E+03	9.192038E-08	3.626205E-08
1.957064E+03	8.220724E-08	3.212861E-08
1.997004E+03	7.164008E-08	2.772965E-08
2.036945E+03	6.141425E-08	2.353557E-08
2.076885E+03	5.296955E-08	2.009116E-08
2.116825E+03	4.753604E-08	1.783924E-08
2.156765E+03	4.579096E-08	1.699630E-08
2.196705E+03	4.785640E-08	1.756212E-08
2.236645E+03	5.343151E-08	1.937906E-08
2.276585E+03	6.193819E-08	2.219334E-08
2.316525E+03	7.256580E-08	2.567731E-08
2.356465E+03	8.445110E-08	2.949818E-08
2.396405E+03	9.684129E-08	3.337607E-08
2.436345E+03	1.091583E-07	3.710414E-08
2.476286E+03	1.210172E-07	4.055111E-08
2.516226E+03	1.322080E-07	4.365118E-08
2.556166E+03	1.426127E-07	4.637289E-08
2.596106E+03	1.521783E-07	4.870840E-08
2.636046E+03	1.608867E-07	5.066246E-08
2.675986E+03	1.687839E-07	5.226048E-08
2.715926E+03	1.758579E-07	5.350984E-08
2.755866E+03	1.821714E-07	5.444087E-08
2.795806E+03	1.876988E-07	5.505721E-08
2.835746E+03	1.925198E-07	5.539376E-08
2.875686E+03	1.967067E-07	5.548203E-08
2.915627E+03	2.003067E-07	5.534524E-08
2.955567E+03	2.034704E-07	5.503398E-08
2.995507E+03	2.063406E-07	5.459349E-08
3.005492E+03	2.070285E-07	5.446805E-08
3.015477E+03	2.077209E-07	5.434087E-08
3.025462E+03	2.084217E-07	5.421293E-08
3.035447E+03	2.091210E-07	5.408164E-08
3.045432E+03	2.099047E-07	5.396911E-08
3.055417E+03	2.107654E-07	5.387307E-08
3.065402E+03	2.116969E-07	5.379159E-08
3.075387E+03	2.127411E-07	5.373493E-08
3.085372E+03	2.138477E-07	5.368994E-08
3.095357E+03	2.150612E-07	5.366747E-08
3.105342E+03	2.163340E-07	5.365519E-08
3.115327E+03	2.176663E-07	5.365291E-08
3.125312E+03	2.191066E-07	5.367222E-08
3.135297E+03	2.206343E-07	5.370759E-08
3.145282E+03	2.222300E-07	5.375395E-08
3.155267E+03	2.239222E-07	5.381783E-08
3.165252E+03	2.257409E-07	5.390593E-08
3.175237E+03	2.276469E-07	5.400837E-08
3.185222E+03	2.296725E-07	5.413236E-08
3.195207E+03	2.318280E-07	5.427973E-08
3.205192E+03	2.341250E-07	5.445260E-08
3.215177E+03	2.365528E-07	5.464780E-08
3.225162E+03	2.391733E-07	5.487894E-08
3.235147E+03	2.419791E-07	5.514341E-08
3.245132E+03	2.449880E-07	5.544435E-08
3.255117E+03	2.481954E-07	5.577980E-08
3.265102E+03	2.516714E-07	5.616442E-08
3.275087E+03	2.554158E-07	5.659692E-08
3.285072E+03	2.594299E-07	5.707630E-08
3.295057E+03	2.637923E-07	5.761842E-08
3.305042E+03	2.685100E-07	5.822318E-08
3.315027E+03	2.736183E-07	5.889643E-08
3.325012E+03	2.791558E-07	5.964457E-08
3.334998E+03	2.851653E-07	6.047464E-08
3.344983E+03	2.916944E-07	6.139435E-08
3.354968E+03	2.987953E-07	6.241216E-08
3.364953E+03	3.065268E-07	6.353746E-08
3.374938E+03	3.149818E-07	6.478635E-08
3.384923E+03	3.241769E-07	6.615876E-08
3.394908E+03	3.342504E-07	6.767909E-08
3.404893E+03	3.452649E-07	6.935568E-08
3.414878E+03	3.573221E-07	7.120431E-08
3.424863E+03	3.705368E-07	7.324259E-08
3.434848E+03	3.850707E-07	7.549669E-08
3.444833E+03	4.010049E-07	7.797598E-08
3.454818E+03	4.185708E-07	8.071835E-08
3.464803E+03	4.379223E-07	8.374536E-08
3.474788E+03	4.592710E-07	8.708852E-08
3.484773E+03	4.828972E-07	9.079091E-08
3.494758E+03	5.090383E-07	9.488578E-08
3.504743E+03	5.380063E-07	9.941868E-08
3.514728E+03	5.701570E-07	1.044412E-07
3.524713E+03	6.058962E-07	1.100116E-07
3.534698E+03	6.457382E-07	1.162053E-07
3.544683E+03	6.901672E-07	1.230888E-07
3.554668E+03	7.398461E-07	1.307573E-07
3.564653E+03	7.953548E-07	1.392872E-07
3.574638E+03	8.576016E-07	1.488080E-07
3.584623E+03	9.274995E-07	1.594445E-07
3.594608E+03	1.005939E-06	1.713116E-07
3.604593E+03	1.094232E-06	1.845900E-07
3.614578E+03	1.193721E-06	1.994566E-07
3.624563E+03	1.305734E-06	2.160782E-07
3.634548E+03	1.432149E-06	2.347027E-07
3.644533E+03	1.574895E-06	2.555750E-07
3.654518E+03	1.736020E-06	2.789462E-07
3.664503E+03	1.917917E-06	3.051105E-07
3.674488E+03	2.123253E-06	3.343894E-07
3.684473E+03	2.355154E-06	3.671601E-07
3.694458E+03	2.616764E-06	4.037826E-07
3.704443E+03	2.911895E-06	4.446997E-07
3.714428E+03	3.244357E-06	4.903304E-07
3.724413E+03	3.618487E-06	5.411493E-07
3.734398E+03	4.039273E-06	5.977006E-07
3.744383E+03	4.511612E-06	6.604850E-07
3.754368E+03	5.041010E-06	7.300617E-07
3.764353E+03	5.633723E-06	8.070645E-07
3.774338E+03	6.295725E-06	8.920492E-07
3.784324E+03	7.034067E-06	9.856882E-07
3.794309E+03	7.854812E-06	1.088474E-06
3.804294E+03	8.766598E-06	1.201218E-06
3.814279E+03	9.775240E-06	1.324298E-06
3.824264E+03	1.088926E-05	1.458422E-06
3.834249E+03	1.211539E-05	1.604013E-06
3.844234E+03	1.346147E-05	1.761599E-06
3.854219E+03	1.493341E-05	1.931418E-06
3.864204E+03	1.653716E-05	2.113683E-06
3.874189E+03	1.827788E-05	2.308473E-06
3.884174E+03	2.016081E-05	2.515857E-06
3.894159E+03	2.218778E-05	2.735453E-06
3.904144E+03	2.436011E-05	2.966819E-06
3.914129E+03	2.667751E-05	3.209316E-06
3.924114E+03	2.913965E-05	3.462307E-06
3.934099E+03	3.174140E-05	3.724607E-06
3.944084E+03	3.447725E-05	3.995023E-06
3.954069E+03	3.734011E-05	4.272223E-06
3.964054E+03	4.032139E-05	4.554752E-06
3.974039E+03	4.341374E-05	4.841354E-06
3.984024E+03	4.660209E-05	5.129976E-06
3.994009E+03	4.988056E-05	5.419654E-06
4.003994E+03	5.323637E-05	5.708725E-06
4.013979E+03	5.665705E-05	5.995642E-06
4.023964E+03	6.014037E-05	6.280002E-06
4.033949E+03	6.367776E-05	6.560768E-06
4.043934E+03	6.726259E-05	6.837154E-06
4.053919E+03	7.090153E-05	7.109754E-06
4.063904E+03	7.459080E-05	7.378092E-06
4.073889E+03	7.834031E-05	7.643062E-06
4.083874E+03	8.215973E-05	7.905485E-06
4.093859E+03	8.606153E-05	8.166405E-06
4.103844E+03	9.005601E-05	8.426605E-06
4.113829E+03	9.416794E-05	8.688162E-06
4.123814E+03	9.840554E-05	8.951527E-06
4.133799E+03	1.027854E-04	9.217871E-06
4.143784E+03	1.073284E-04	9.488692E-06
4.153769E+03	1.120496E-04	9.764861E-06
4.163754E+03	1.169566E-04	1.004658E-05
4.173739E+03	1.220650E-04	1.033470E-05
4.183724E+03	1.273770E-04	1.062889E-05
4.193709E+03	1.328966E-04	1.092901E-05
4.203694E+03	1.386315E-04	1.123519E-05
4.213679E+03	1.445742E-04	1.154637E-05
4.223665E+03	1.507272E-04	1.186232E-05
4.233650E+03	1.570712E-04	1.218115E-05
4.243635E+03	1.636115E-04	1.250297E-05
4.253620E+03	1.703320E-04	1.282626E-05
4.263605E+03	1.772227E-04	1.315010E-05
4.273590E+03	1.842730E-04	1.347357E-05
4.283575E+03	1.914724E-04	1.379585E-05
4.293560E+03	1.988108E-04	1.411622E-05
4.303545E+03	2.062785E-04	1.443407E-05
4.313530E+03	2.138671E-04	1.474895E-05
4.323515E+03	2.215607E-04	1.505996E-05
4.333500E+03	2.293637E-04	1.536768E-05
4.343485E+03	2.372762E-04	1.567241E-05
4.353470E+03	2.453049E-04	1.597491E-05
4.363455E+03	2.534559E-04	1.627591E-05
4.373440E+03	2.617548E-04	1.657742E-05
4.383425E+03	2.702571E-04	1.688325E-05
4.393410E+03	2.789685E-04	1.719401E-05
4.403395E+03	2.879475E-04	1.751354E-05
4.413380E+03	2.972340E-04	1.784446E-05
4.423365E+03	3.068463E-04	1.818804E-05
4.433350E+03	3.168442E-04	1.854803E-05
4.443335E+03	3.272540E-04	1.892610E-05
4.453320E+03	3.380582E-04	1.932149E-05
4.463305E+03	3.492491E-04	1.973409E-05
4.473290E+03	3.607880E-04	2.016221E-05
4.483275E+03	3.725745E-04	2.060092E-05
4.493260E+03	3.844699E-04	2.104349E-05
4.503245E+03	3.963418E-04	2.148391E-05
4.513230E+03	4.079709E-04	2.191180E-05
4.523215E+03	4.191724E-04	2.231901E-05
4.533200E+03	4.296922E-04	2.269405E-05
4.543185E+03	4.393250E-04	2.302824E-05
4.553170E+03	4.478692E-04	2.331288E-05
4.563155E+03	4.551383E-04	2.353982E-05
4.573140E+03	4.610347E-04	2.370545E-05
4.583125E+03	4.654477E-04	2.380529E-05
4.593110E+03	4.683522E-04	2.383909E-05
4.603095E+03	4.697925E-04	2.380983E-05
4.613080E+03	4.698462E-04	2.372186E-05
4.623065E+03	4.686163E-04	2.358055E-05
4.633050E+03	4.662683E-04	2.339416E-05
4.643035E+03	4.629572E-04	2.317012E-05
4.653020E+03	4.588784E-04	2.291774E-05
4.663005E+03	4.541962E-04	2.264459E-05
4.672991E+03	4.490977E-04	2.235929E-05
4.682976E+03	4.437254E-04	2.206817E-05
4.692961E+03	4.382341E-04	2.177814E-05
4.702946E+03	4.327156E-04	2.149298E-05
4.712931E+03	4.272982E-04	2.121831E-05
4.722916E+03	4.220621E-04	2.095742E-05
4.732901E+03	4.170562E-04	2.071204E-05
4.742886E+03	4.123270E-04	2.048390E-05
4.752871E+03	4.079077E-04	2.027408E-05
4.762856E+03	4.038318E-04	2.008373E-05
4.772841E+03	4.000970E-04	1.991229E-05
4.782826E+03	3.967058E-04	1.975947E-05
4.792811E+03	3.936530E-04	1.962462E-05
4.802796E+03	3.909393E-04	1.950745E-05
4.812781E+03	3.885355E-04	1.940619E-05
4.822766E+03	3.864193E-04	1.931945E-05
4.832751E+03	3.845643E-04	1.924564E-05
4.842736E+03	3.829510E-04	1.918354E-05
4.852721E+03	3.815328E-04	1.913060E-05
4.862706E+03	3.802717E-04	1.908469E-05
4.872691E+03	3.791266E-04	1.904356E-05
4.882676E+03	3.780663E-04	1.900544E-05
4.892661E+03	3.770249E-04	1.896684E-05
4.902646E+03	3.759823E-04	1.892659E-05
4.912631E+03	3.748878E-04	1.888197E-05
4.922616E+03	3.737181E-04	1.883168E-05
4.932601E+03	3.724233E-04	1.877309E-05
4.942586E+03	3.710080E-04	1.870631E-05
4.952571E+03	3.694548E-04	1.863038E-05
4.962556E+03	3.677812E-04	1.854612E-05
4.972541E+03	3.659857E-04	1.845342E-05
4.982526E+03	3.641234E-04	1.835501E-05
4.992511E+03	3.622283E-04	1.825261E-05
5.002496E+03	3.603650E-04	1.814948E-05
5.012481E+03	3.585724E-04	1.804759E-05
5.022466E+03	3.569329E-04	1.795109E-05
5.032451E+03	3.555059E-04	1.786301E-05
5.042436E+03	3.543235E-04	1.778497E-05
5.052421E+03	3.534490E-04	1.772015E-05
5.062406E+03	3.529019E-04	1.766955E-05
5.072391E+03	3.527071E-04	1.763440E-05
5.082376E+03	3.528524E-04	1.761410E-05
5.092361E+03	3.533200E-04	1.760776E-05
5.102346E+03	3.540860E-04	1.761421E-05
5.112332E+03	3.550820E-04	1.763005E-05
5.122317E+03	3.562785E-04	1.765388E-05
5.132302E+03	3.575757E-04	1.768081E-05
5.142287E+03	3.589285E-04	1.770872E-05
5.152272E+03	3.602278E-04	1.773238E-05
5.162257E+03	3.614159E-04	1.774912E-05
5.172242E+03	3.624079E-04	1.775501E-05
5.182227E+03	3.631451E-04	1.774745E-05
5.192212E+03	3.635574E-04	1.772333E-05
5.202197E+03	3.636051E-04	1.768106E-05
5.212182E+03	3.632404E-04	1.761870E-05
5.222167E+03	3.624379E-04	1.753544E-05
5.232152E+03	3.611948E-04	1.743157E-05
5.242137E+03	3.595105E-04	1.730748E-05
5.252122E+03	3.573853E-04	1.716362E-05
5.262107E+03	3.548496E-04	1.700189E-05
5.272092E+03	3.519218E-04	1.682356E-05
5.282077E+03	3.486370E-04	1.663071E-05
5.292062E+03	3.450440E-04	1.642603E-05
5.302047E+03	3.411843E-04	1.621182E-05
5.312032E+03	3.370908E-04	1.598993E-05
5.322017E+03	3.328147E-04	1.576307E-05
5.332002E+03	3.283852E-04	1.553284E-05
5.341987E+03	3.238464E-04	1.530154E-05
5.351972E+03	3.192271E-04	1.507068E-05
5.361957E+03	3.145408E-04	1.484103E-05
5.371942E+03	3.098010E-04	1.461335E-05
5.381927E+03	3.050290E-04	1.438872E-05
5.391912E+03	3.002015E-04	1.416608E-05
5.401897E+03	2.953015E-04	1.394466E-05
5.411882E+03	2.903174E-04	1.372387E-05
5.421867E+03	2.851955E-04	1.350090E-05
5.431852E+03	2.798902E-04	1.327307E-05
5.441837E+03	2.743658E-04	1.303811E-05
5.451822E+03	2.685563E-04	1.279232E-05
5.461807E+03	2.624172E-04	1.253297E-05
5.471792E+03	2.559315E-04	1.225862E-05
5.481777E+03	2.490732E-04	1.196737E-05
5.491762E+03	2.418645E-04	1.165965E-05
5.501747E+03	2.343483E-04	1.133691E-05
5.511732E+03	2.265924E-04	1.100183E-05
5.521717E+03	2.186756E-04	1.065771E-05
5.531702E+03	2.107004E-04	1.030909E-05
5.541687E+03	2.027682E-04	9.960563E-06
5.551672E+03	1.949812E-04	9.616875E-06
5.561658E+03	1.874380E-04	9.282718E-06
5.571643E+03	1.802258E-04	8.962331E-06
5.581628E+03	1.734373E-04	8.660334E-06
5.591613E+03	1.671348E-04	8.379934E-06
5.601598E+03	1.613834E-04	8.124558E-06
5.611583E+03	1.562315E-04	7.896866E-06
5.621568E+03	1.517210E-04	7.699244E-06
5.631553E+03	1.478710E-04	7.532960E-06
5.641538E+03	1.447047E-04	7.399516E-06
5.651523E+03	1.422339E-04	7.299832E-06
5.661508E+03	1.404641E-04	7.234523E-06
5.671493E+03	1.393963E-04	7.203948E-06
5.681478E+03	1.390272E-04	7.208234E-06
5.691463E+03	1.393504E-04	7.247309E-06
5.701448E+03	1.403555E-04	7.320871E-06
5.711433E+03	1.420328E-04	7.428611E-06
5.721418E+03	1.443567E-04	7.569342E-06
5.731403E+03	1.473116E-04	7.742359E-06
5.741388E+03	1.508602E-04	7.945751E-06
5.751373E+03	1.549735E-04	8.178002E-06
5.761358E+03	1.596015E-04	8.436425E-06
5.771343E+03	1.646886E-04	8.717975E-06
5.781328E+03	1.701689E-04	9.019014E-06
5.791313E+03	1.759704E-04	9.335524E-06
5.801298E+03	1.820025E-04	9.662445E-06
5.811283E+03	1.881703E-04	9.994464E-06
5.821268E+03	1.943728E-04	1.032591E-05
5.831253E+03	2.005058E-04	1.065093E-05
5.841238E+03	2.064711E-04	1.096398E-05
5.851223E+03	2.121634E-04	1.125919E-05
5.861208E+03	2.174912E-04	1.153142E-05
5.871193E+03	2.223809E-04	1.177654E-05
5.881178E+03	2.267619E-04	1.199065E-05
5.891163E+03	2.305871E-04	1.217114E-05
5.901148E+03	2.338349E-04	1.231682E-05
5.911133E+03	2.364910E-04	1.242694E-05
5.921118E+03	2.385674E-04	1.250223E-05
5.931103E+03	2.401017E-04	1.254476E-05
5.941088E+03	2.411357E-04	1.255689E-05
5.951073E+03	2.417408E-04	1.254253E-05
5.961058E+03	2.419883E-04	1.250558E-05
5.971043E+03	2.419676E-04	1.245086E-05
5.981028E+03	2.417838E-04	1.238393E-05
5.991013E+03	2.415356E-04	1.230997E-05
6.000999E+03	2.413400E-04	1.223499E-05
6.010984E+03	2.413040E-04	1.216439E-05
6.020969E+03	2.415507E-04	1.210421E-05
6.030954E+03	2.421906E-04	1.205975E-05
6.040939E+03	2.433488E-04	1.203683E-05
6.050924E+03	2.451377E-04	1.204046E-05
6.060909E+03	2.476837E-04	1.207613E-05
6.070894E+03	2.510998E-04	1.214844E-05
6.080879E+03	2.555133E-04	1.226244E-05
6.090864E+03	2.610368E-04	1.242224E-05
6.100849E+03	2.677950E-04	1.263223E-05
6.110834E+03	2.759017E-04	1.289602E-05
6.120819E+03	2.854542E-04	1.321620E-05
6.130804E+03	2.965438E-04	1.359480E-05
6.140789E+03	3.092582E-04	1.403347E-05
6.150774E+03	3.236132E-04	1.453038E-05
6.160759E+03	3.396364E-04	1.508412E-05
6.170744E+03	3.572584E-04	1.568894E-05
6.180729E+03	3.763718E-04	1.633753E-05
6.190714E+03	3.967731E-04	1.701868E-05
6.200699E+03	4.181938E-04	1.771884E-05
6.210684E+03	4.402662E-04	1.842095E-05
6.220669E+03	4.625227E-04	1.910463E-05
6.230654E+03	4.844450E-04	1.974859E-05
6.240639E+03	5.054483E-04	2.033007E-05
6.250624E+03	5.249074E-04	2.082618E-05
6.260609E+03	5.422374E-04	2.121710E-05
6.270594E+03	5.568904E-04	2.148586E-05
6.280579E+03	5.684094E-04	2.162033E-05
6.290564E+03	5.764461E-04	2.161351E-05
6.300549E+03	5.808324E-04	2.146590E-05
6.310534E+03	5.815451E-04	2.118363E-05
6.320519E+03	5.787019E-04	2.077788E-05
6.330504E+03	5.726116E-04	2.026622E-05
6.340489E+03	5.636324E-04	1.966714E-05
6.350474E+03	5.522535E-04	1.900269E-05
6.360459E+03	5.389929E-04	1.829470E-05
6.370444E+03	5.243785E-04	1.756410E-05
6.380429E+03	5.089036E-04	1.682945E-05
6.390414E+03	4.930454E-04	1.610773E-05
6.400399E+03	4.772179E-04	1.541288E-05
6.410384E+03	4.617205E-04	1.475440E-05
6.420369E+03	4.468187E-04	1.414022E-05
6.430354E+03	4.326890E-04	1.357505E-05
6.440339E+03	4.194390E-04	1.306124E-05
6.450325E+03	4.071033E-04	1.259882E-05
6.460310E+03	3.957025E-04	1.218737E-05
6.470295E+03	3.851815E-04	1.182424E-05
6.480280E+03	3.754602E-04	1.150606E-05
6.490265E+03	3.664772E-04	1.123015E-05
6.500250E+03	3.581326E-04	1.099265E-05
6.510235E+03	3.503297E-04	1.078932E-05
6.520220E+03	3.430034E-04	1.061647E-05
6.530205E+03	3.360539E-04	1.046939E-05
6.540190E+03	3.293807E-04	1.034341E-05
6.550175E+03	3.229261E-04	1.023516E-05
6.560160E+03	3.166238E-04	1.014104E-05
6.570145E+03	3.104404E-04	1.005852E-05
6.580130E+03	3.043620E-04	9.985722E-06
6.590115E+03	2.983894E-04	9.921334E-06
6.600100E+03	2.925420E-04	9.864754E-06
6.610085E+03	2.868184E-04	9.814813E-06
6.620070E+03	2.812463E-04	9.771445E-06
6.630055E+03	2.758522E-04	9.734711E-06
6.640040E+03	2.706450E-04	9.704196E-06
6.650025E+03	2.656391E-04	9.679808E-06
6.660010E+03	2.608469E-04	9.661509E-06
6.669995E+03	2.562843E-04	9.649527E-06
6.679980E+03	2.519425E-04	9.643249E-06
6.689965E+03	2.478400E-04	9.643202E-06
6.699950E+03	2.439704E-04	9.649035E-06
6.709935E+03	2.403403E-04	9.660970E-06
6.719920E+03	2.369333E-04	9.678365E-06
6.729905E+03	2.337614E-04	9.701762E-06
6.739890E+03	2.308139E-04	9.730826E-06
6.749875E+03	2.280881E-04	9.765580E-06
6.759860E+03	2.255885E-04	9.806373E-06
6.769845E+03	2.233068E-04	9.853039E-06
6.779830E+03	2.212422E-04	9.905751E-06
6.789815E+03	2.193962E-04	9.964807E-06
6.799800E+03	2.177780E-04	1.003086E-05
6.809785E+03	2.163846E-04	1.010406E-05
6.819770E+03	2.152283E-04	1.018526E-05
6.829755E+03	2.143022E-04	1.027442E-05
6.839740E+03	2.136274E-04	1.037288E-05
6.849725E+03	2.132061E-04	1.048108E-05
6.859710E+03	2.130544E-04	1.060015E-05
6.869695E+03	2.131763E-04	1.073065E-05
6.879680E+03	2.135832E-04	1.087352E-05
6.889666E+03	2.142875E-04	1.102975E-05
6.899651E+03	2.153089E-04	1.120074E-05
6.909636E+03	2.166555E-04	1.138731E-05
6.919621E+03	2.183502E-04	1.159105E-05
6.929606E+03	2.203978E-04	1.181259E-05
6.939591E+03	2.228321E-04	1.205416E-05
6.949576E+03	2.256764E-04	1.231742E-05
6.959561E+03	2.289427E-04	1.260341E-05
6.969546E+03	2.326745E-04	1.291494E-05
6.979531E+03	2.368975E-04	1.325384E-05
6.989516E+03	2.416557E-04	1.362298E-05
6.999501E+03	2.469740E-04	1.402418E-05
7.009486E+03	2.529106E-04	1.446113E-05
7.019471E+03	2.595039E-04	1.493643E-05
7.029456E+03	2.668100E-04	1.545370E-05
7.039441E+03	2.748697E-04	1.601568E-05
7.049426E+03	2.837215E-04	1.662493E-05
7.059411E+03	2.934366E-04	1.728595E-05
7.069396E+03	3.040279E-04	1.799974E-05
7.079381E+03	3.155343E-04	1.876881E-05
7.089366E+03	3.279842E-04	1.959496E-05
7.099351E+03	3.413688E-04	2.047770E-05
7.109336E+03	3.556679E-04	2.141573E-05
7.119321E+03	3.708340E-04	2.240600E-05
7.129306E+03	3.868013E-04	2.344419E-05
7.139291E+03	4.034311E-04	2.452141E-05
7.149276E+03	4.205953E-04	2.562924E-05
7.159261E+03	4.380729E-04	2.675345E-05
7.169246E+03	4.556554E-04	2.788041E-05
7.179231E+03	4.730559E-04	2.899154E-05
7.189216E+03	4.899688E-04	3.006704E-05
7.199201E+03	5.060644E-04	3.108556E-05
7.209186E+03	5.210015E-04	3.202503E-05
7.219171E+03	5.344406E-04	3.286357E-05
7.229156E+03	5.460591E-04	3.358044E-05
7.239141E+03	5.555671E-04	3.415711E-05
7.249126E+03	5.627201E-04	3.457810E-05
7.259111E+03	5.673328E-04	3.483184E-05
7.269096E+03	5.692678E-04	3.491004E-05
7.279081E+03	5.685149E-04	3.481252E-05
7.289066E+03	5.650814E-04	3.454052E-05
7.299051E+03	5.590435E-04	3.409975E-05
7.309036E+03	5.505946E-04	3.350335E-05
7.319021E+03	5.399091E-04	3.276345E-05
7.329006E+03	5.272568E-04	3.189814E-05
7.338992E+03	5.129194E-04	3.092622E-05
7.348977E+03	4.971964E-04	2.986756E-05
7.358962E+03	4.803938E-04	2.874230E-05
7.368947E+03	4.627988E-04	2.756934E-05
7.378932E+03	4.447175E-04	2.636845E-05
7.388917E+03	4.264214E-04	2.515712E-05
7.398902E+03	4.081577E-04	2.395110E-05
7.408887E+03	3.901334E-04	2.276350E-05
7.418872E+03	3.725532E-04	2.160700E-05
7.428857E+03	3.555782E-04	2.049140E-05
7.438842E+03	3.393289E-04	1.942393E-05
7.448827E+03	3.239325E-04	1.841188E-05
7.458812E+03	3.094351E-04	1.745771E-05
7.468797E+03	2.959236E-04	1.656597E-05
7.478782E+03	2.834127E-04	1.573694E-05
7.488767E+03	2.719287E-04	1.497141E-05
7.498752E+03	2.614643E-04	1.426820E-05
7.508737E+03	2.520173E-04	1.362627E-05
7.518722E+03	2.435579E-04	1.304305E-05
7.528707E+03	2.360642E-04	1.251634E-05
7.538692E+03	2.294995E-04	1.204311E-05
7.548677E+03	2.238146E-04	1.161968E-05
7.558662E+03	2.189714E-04	1.124298E-05
7.568647E+03	2.149140E-04	1.090905E-05
7.578632E+03	2.115988E-04	1.061463E-05
7.588617E+03	2.089660E-04	1.035568E-05
7.598602E+03	2.069618E-04	1.012860E-05
7.608587E+03	2.055447E-04	9.930449E-06
7.618572E+03	2.046383E-04	9.756723E-06
7.628557E+03	2.041996E-04	9.604659E-06
7.638542E+03	2.041720E-04	9.470973E-06
7.648527E+03	2.044918E-04	9.352203E-06
7.658512E+03	2.051094E-04	9.245701E-06
7.668497E+03	2.059555E-04	9.148095E-06
7.678482E+03	2.069969E-04	9.057805E-06
7.688467E+03	2.081689E-04	8.972010E-06
7.698452E+03	2.094232E-04	8.888794E-06
7.708437E+03	2.107158E-04	8.806598E-06
7.718422E+03	2.120155E-04	8.724541E-06
7.728407E+03	2.132830E-04	8.641547E-06
7.738392E+03	2.145003E-04	8.557548E-06
7.748377E+03	2.156424E-04	8.472290E-06
