#wls	flux	fluxerr
1.597604E+03	1.660342E-06	5.991985E-08
1.637544E+03	1.736815E-06	6.261971E-08
1.677484E+03	1.800264E-06	6.484354E-08
1.717424E+03	1.848980E-06	6.653106E-08
1.757364E+03	1.880433E-06	6.759271E-08
1.797304E+03	1.888647E-06	6.781578E-08
1.837244E+03	1.868138E-06	6.700612E-08
1.877184E+03	1.812950E-06	6.495378E-08
1.917124E+03	1.718610E-06	6.150298E-08
1.957064E+03	1.587510E-06	5.674433E-08
1.997004E+03	1.429523E-06	5.103533E-08
2.036945E+03	1.267611E-06	4.519867E-08
2.076885E+03	1.131606E-06	4.029776E-08
2.116825E+03	1.052229E-06	3.742206E-08
2.156765E+03	1.051483E-06	3.734536E-08
2.196705E+03	1.141103E-06	4.047262E-08
2.236645E+03	1.324872E-06	4.692426E-08
2.276585E+03	1.598856E-06	5.654631E-08
2.316525E+03	1.953215E-06	6.897642E-08
2.356465E+03	2.373993E-06	8.370849E-08
2.396405E+03	2.847652E-06	1.002536E-07
2.436345E+03	3.364751E-06	1.182694E-07
2.476286E+03	3.917934E-06	1.374882E-07
2.516226E+03	4.504358E-06	1.578021E-07
2.556166E+03	5.124929E-06	1.792345E-07
2.596106E+03	5.782013E-06	2.018593E-07
2.636046E+03	6.478138E-06	2.257549E-07
2.675986E+03	7.217167E-06	2.510455E-07
2.715926E+03	8.005631E-06	2.779463E-07
2.755866E+03	8.844820E-06	3.064888E-07
2.795806E+03	9.737131E-06	3.367419E-07
2.835746E+03	1.068501E-05	3.687750E-07
2.875686E+03	1.168716E-05	4.025277E-07
2.915627E+03	1.273683E-05	4.377515E-07
2.955567E+03	1.382652E-05	4.741743E-07
2.995507E+03	1.493878E-05	5.111844E-07
3.005492E+03	1.521726E-05	5.204213E-07
3.015477E+03	1.549781E-05	5.297164E-07
3.025462E+03	1.577502E-05	5.388854E-07
3.035447E+03	1.605414E-05	5.481071E-07
3.045432E+03	1.633486E-05	5.573709E-07
3.055417E+03	1.661685E-05	5.666655E-07
3.065402E+03	1.690408E-05	5.761261E-07
3.075387E+03	1.718992E-05	5.855260E-07
3.085372E+03	1.747849E-05	5.950063E-07
3.095357E+03	1.776582E-05	6.044306E-07
3.105342E+03	1.805059E-05	6.137547E-07
3.115327E+03	1.832860E-05	6.228361E-07
3.125312E+03	1.860436E-05	6.318275E-07
3.135297E+03	1.887371E-05	6.405886E-07
3.145282E+03	1.913543E-05	6.490781E-07
3.155267E+03	1.938835E-05	6.572564E-07
3.165252E+03	1.963132E-05	6.650853E-07
3.175237E+03	1.986332E-05	6.725307E-07
3.185222E+03	2.008338E-05	6.795605E-07
3.195207E+03	2.029069E-05	6.861479E-07
3.205192E+03	2.048456E-05	6.922704E-07
3.215177E+03	2.066447E-05	6.979112E-07
3.225162E+03	2.083007E-05	7.030593E-07
3.235147E+03	2.098451E-05	7.078217E-07
3.245132E+03	2.112130E-05	7.119806E-07
3.255117E+03	2.124398E-05	7.156560E-07
3.265102E+03	2.135304E-05	7.188656E-07
3.275087E+03	2.145254E-05	7.217464E-07
3.285072E+03	2.153670E-05	7.241054E-07
3.295057E+03	2.160995E-05	7.260917E-07
3.305042E+03	2.167689E-05	7.278608E-07
3.315027E+03	2.173218E-05	7.292339E-07
3.325012E+03	2.178404E-05	7.304873E-07
3.334998E+03	2.182728E-05	7.314476E-07
3.344983E+03	2.187025E-05	7.323944E-07
3.354968E+03	2.190780E-05	7.331560E-07
3.364953E+03	2.194830E-05	7.340122E-07
3.374938E+03	2.198654E-05	7.347890E-07
3.384923E+03	2.203080E-05	7.357628E-07
3.394908E+03	2.207573E-05	7.367550E-07
3.404893E+03	2.212948E-05	7.380368E-07
3.414878E+03	2.218993E-05	7.395374E-07
3.424863E+03	2.225486E-05	7.411820E-07
3.434848E+03	2.233218E-05	7.432340E-07
3.444833E+03	2.241953E-05	7.456135E-07
3.454818E+03	2.251787E-05	7.483519E-07
3.464803E+03	2.262813E-05	7.514792E-07
3.474788E+03	2.274773E-05	7.549093E-07
3.484773E+03	2.288443E-05	7.588982E-07
3.494758E+03	2.303564E-05	7.633595E-07
3.504743E+03	2.320223E-05	7.683202E-07
3.514728E+03	2.338507E-05	7.738086E-07
3.524713E+03	2.358508E-05	7.798533E-07
3.534698E+03	2.380321E-05	7.864848E-07
3.544683E+03	2.404046E-05	7.937344E-07
3.554668E+03	2.429787E-05	8.016354E-07
3.564653E+03	2.457656E-05	8.102228E-07
3.574638E+03	2.487768E-05	8.195328E-07
3.584623E+03	2.520244E-05	8.296035E-07
3.594608E+03	2.555209E-05	8.404745E-07
3.604593E+03	2.592794E-05	8.521866E-07
3.614578E+03	2.633131E-05	8.647808E-07
3.624563E+03	2.676355E-05	8.782997E-07
3.634548E+03	2.722602E-05	8.927855E-07
3.644533E+03	2.772008E-05	9.082805E-07
3.654518E+03	2.825129E-05	9.249635E-07
3.664503E+03	2.881263E-05	9.426025E-07
3.674488E+03	2.940952E-05	9.613719E-07
3.684473E+03	3.004318E-05	9.813088E-07
3.694458E+03	3.071479E-05	1.002449E-06
3.704443E+03	3.142545E-05	1.024824E-06
3.714428E+03	3.218093E-05	1.048620E-06
3.724413E+03	3.297279E-05	1.073558E-06
3.734398E+03	3.380650E-05	1.099812E-06
3.744383E+03	3.468286E-05	1.127406E-06
3.754368E+03	3.560776E-05	1.156527E-06
3.764353E+03	3.657145E-05	1.186854E-06
3.774338E+03	3.757953E-05	1.218566E-06
3.784324E+03	3.863236E-05	1.251670E-06
3.794309E+03	3.973602E-05	1.286360E-06
3.804294E+03	4.087916E-05	1.322264E-06
3.814279E+03	4.206742E-05	1.359560E-06
3.824264E+03	4.330690E-05	1.398443E-06
3.834249E+03	4.458474E-05	1.438492E-06
3.844234E+03	4.590641E-05	1.479880E-06
3.854219E+03	4.727781E-05	1.522793E-06
3.864204E+03	4.868412E-05	1.566750E-06
3.874189E+03	5.013035E-05	1.611909E-06
3.884174E+03	5.161442E-05	1.658200E-06
3.894159E+03	5.314147E-05	1.705783E-06
3.904144E+03	5.469337E-05	1.754074E-06
3.914129E+03	5.627407E-05	1.803196E-06
3.924114E+03	5.788793E-05	1.853287E-06
3.934099E+03	5.951409E-05	1.903676E-06
3.944084E+03	6.115579E-05	1.954465E-06
3.954069E+03	6.281690E-05	2.005775E-06
3.964054E+03	6.447422E-05	2.056866E-06
3.974039E+03	6.613108E-05	2.107843E-06
3.984024E+03	6.778211E-05	2.158534E-06
3.994009E+03	6.943206E-05	2.209091E-06
4.003994E+03	7.105665E-05	2.258742E-06
4.013979E+03	7.266146E-05	2.307666E-06
4.023964E+03	7.424315E-05	2.355758E-06
4.033949E+03	7.581001E-05	2.403282E-06
4.043934E+03	7.733912E-05	2.449515E-06
4.053919E+03	7.884060E-05	2.494779E-06
4.063904E+03	8.031461E-05	2.539081E-06
4.073889E+03	8.177391E-05	2.582826E-06
4.083874E+03	8.319729E-05	2.625346E-06
4.093859E+03	8.459844E-05	2.667076E-06
4.103844E+03	8.597976E-05	2.708092E-06
4.113829E+03	8.734377E-05	2.748477E-06
4.123814E+03	8.869288E-05	2.788306E-06
4.133799E+03	9.004167E-05	2.828039E-06
4.143784E+03	9.136668E-05	2.866940E-06
4.153769E+03	9.268137E-05	2.905432E-06
4.163754E+03	9.398624E-05	2.943532E-06
4.173739E+03	9.528141E-05	2.981244E-06
4.183724E+03	9.656657E-05	3.018560E-06
4.193709E+03	9.784116E-05	3.055462E-06
4.203694E+03	9.910461E-05	3.091934E-06
4.213679E+03	1.003564E-04	3.127961E-06
4.223665E+03	1.015967E-04	3.163548E-06
4.233650E+03	1.028259E-04	3.198705E-06
4.243635E+03	1.040453E-04	3.233481E-06
4.253620E+03	1.052570E-04	3.267936E-06
4.263605E+03	1.064492E-04	3.301709E-06
4.273590E+03	1.076554E-04	3.335833E-06
4.283575E+03	1.088657E-04	3.370007E-06
4.293560E+03	1.100858E-04	3.404405E-06
4.303545E+03	1.113221E-04	3.439222E-06
4.313530E+03	1.125659E-04	3.474187E-06
4.323515E+03	1.138549E-04	3.510467E-06
4.333500E+03	1.151809E-04	3.547801E-06
4.343485E+03	1.165346E-04	3.585897E-06
4.353470E+03	1.179537E-04	3.625917E-06
4.363455E+03	1.194279E-04	3.667535E-06
4.373440E+03	1.209448E-04	3.710367E-06
4.383425E+03	1.225397E-04	3.755489E-06
4.393410E+03	1.241796E-04	3.801887E-06
4.403395E+03	1.258960E-04	3.850517E-06
4.413380E+03	1.276503E-04	3.900190E-06
4.423365E+03	1.294704E-04	3.951761E-06
4.433350E+03	1.313125E-04	4.003885E-06
4.443335E+03	1.331833E-04	4.056760E-06
4.453320E+03	1.350882E-04	4.110554E-06
4.463305E+03	1.369760E-04	4.163702E-06
4.473290E+03	1.388484E-04	4.216262E-06
4.483275E+03	1.406877E-04	4.267695E-06
4.493260E+03	1.424755E-04	4.317447E-06
4.503245E+03	1.442125E-04	4.365542E-06
4.513230E+03	1.458417E-04	4.410265E-06
4.523215E+03	1.473652E-04	4.451687E-06
4.533200E+03	1.487679E-04	4.489361E-06
4.543185E+03	1.500368E-04	4.522908E-06
4.553170E+03	1.511621E-04	4.552049E-06
4.563155E+03	1.521172E-04	4.575992E-06
4.573140E+03	1.529401E-04	4.595895E-06
4.583125E+03	1.536113E-04	4.611189E-06
4.593110E+03	1.541356E-04	4.622029E-06
4.603095E+03	1.545204E-04	4.628655E-06
4.613080E+03	1.547555E-04	4.630770E-06
4.623065E+03	1.548946E-04	4.629996E-06
4.633050E+03	1.549310E-04	4.626142E-06
4.643035E+03	1.548587E-04	4.619038E-06
4.653020E+03	1.547337E-04	4.610364E-06
4.663005E+03	1.545293E-04	4.599331E-06
4.672991E+03	1.543003E-04	4.587576E-06
4.682976E+03	1.540178E-04	4.574243E-06
4.692961E+03	1.537136E-04	4.560278E-06
4.702946E+03	1.534176E-04	4.546573E-06
4.712931E+03	1.530969E-04	4.532150E-06
4.722916E+03	1.527785E-04	4.517814E-06
4.732901E+03	1.524679E-04	4.503721E-06
4.742886E+03	1.521692E-04	4.490000E-06
4.752871E+03	1.518860E-04	4.476749E-06
4.762856E+03	1.516210E-04	4.464050E-06
4.772841E+03	1.513770E-04	4.451980E-06
4.782826E+03	1.511560E-04	4.440600E-06
4.792811E+03	1.509603E-04	4.429976E-06
4.802796E+03	1.507923E-04	4.420171E-06
4.812781E+03	1.506542E-04	4.411251E-06
4.822766E+03	1.505285E-04	4.402698E-06
4.832751E+03	1.504571E-04	4.395738E-06
4.842736E+03	1.504222E-04	4.389845E-06
4.852721E+03	1.504059E-04	4.384494E-06
4.862706E+03	1.504492E-04	4.380880E-06
4.872691E+03	1.505136E-04	4.377874E-06
4.882676E+03	1.506395E-04	4.376646E-06
4.892661E+03	1.507871E-04	4.376041E-06
4.902646E+03	1.509761E-04	4.376626E-06
4.912631E+03	1.512255E-04	4.378943E-06
4.922616E+03	1.514948E-04	4.381822E-06
4.932601E+03	1.518025E-04	4.385791E-06
4.942586E+03	1.521475E-04	4.390816E-06
4.952571E+03	1.525284E-04	4.396853E-06
4.962556E+03	1.529441E-04	4.403869E-06
4.972541E+03	1.533935E-04	4.411825E-06
4.982526E+03	1.538752E-04	4.420680E-06
4.992511E+03	1.543882E-04	4.430402E-06
5.002496E+03	1.549309E-04	4.440946E-06
5.012481E+03	1.555018E-04	4.452260E-06
5.022466E+03	1.560783E-04	4.463701E-06
5.032451E+03	1.566984E-04	4.476350E-06
5.042436E+03	1.573179E-04	4.488946E-06
5.052421E+03	1.579735E-04	4.502529E-06
5.062406E+03	1.586396E-04	4.516375E-06
5.072391E+03	1.592899E-04	4.529728E-06
5.082376E+03	1.599379E-04	4.542978E-06
5.092361E+03	1.605968E-04	4.556499E-06
5.102346E+03	1.612169E-04	4.568882E-06
5.112332E+03	1.618104E-04	4.580477E-06
5.122317E+03	1.623685E-04	4.591035E-06
5.132302E+03	1.628822E-04	4.600309E-06
5.142287E+03	1.633646E-04	4.608671E-06
5.152272E+03	1.637667E-04	4.614744E-06
5.162257E+03	1.641038E-04	4.618970E-06
5.172242E+03	1.643515E-04	4.620666E-06
5.182227E+03	1.645511E-04	4.621002E-06
5.192212E+03	1.646830E-04	4.619435E-06
5.202197E+03	1.647520E-04	4.616102E-06
5.212182E+03	1.647651E-04	4.611210E-06
5.222167E+03	1.647105E-04	4.604430E-06
5.232152E+03	1.646409E-04	4.597246E-06
5.242137E+03	1.645250E-04	4.588784E-06
5.252122E+03	1.644154E-04	4.580516E-06
5.262107E+03	1.642791E-04	4.571518E-06
5.272092E+03	1.641643E-04	4.563139E-06
5.282077E+03	1.640328E-04	4.554313E-06
5.292062E+03	1.639060E-04	4.545640E-06
5.302047E+03	1.637815E-04	4.537047E-06
5.312032E+03	1.636754E-04	4.528984E-06
5.322017E+03	1.635398E-04	4.520126E-06
5.332002E+03	1.633892E-04	4.510873E-06
5.341987E+03	1.632176E-04	4.501067E-06
5.351972E+03	1.630211E-04	4.490598E-06
5.361957E+03	1.627980E-04	4.479423E-06
5.371942E+03	1.625494E-04	4.467578E-06
5.381927E+03	1.622585E-04	4.454598E-06
5.391912E+03	1.619719E-04	4.441774E-06
5.401897E+03	1.616762E-04	4.428733E-06
5.411882E+03	1.613781E-04	4.415662E-06
5.421867E+03	1.610634E-04	4.402171E-06
5.431852E+03	1.607768E-04	4.389486E-06
5.441837E+03	1.604789E-04	4.376529E-06
5.451822E+03	1.602089E-04	4.364368E-06
5.461807E+03	1.599214E-04	4.351766E-06
5.471792E+03	1.596294E-04	4.339077E-06
5.481777E+03	1.593435E-04	4.326590E-06
5.491762E+03	1.590120E-04	4.312904E-06
5.501747E+03	1.586427E-04	4.298233E-06
5.511732E+03	1.582237E-04	4.282258E-06
5.521717E+03	1.577652E-04	4.265257E-06
5.531702E+03	1.572202E-04	4.245968E-06
5.541687E+03	1.566061E-04	4.224864E-06
5.551672E+03	1.559244E-04	4.201992E-06
5.561658E+03	1.551812E-04	4.177524E-06
5.571643E+03	1.543673E-04	4.151215E-06
5.581628E+03	1.535365E-04	4.124517E-06
5.591613E+03	1.526871E-04	4.097386E-06
5.601598E+03	1.518396E-04	4.070373E-06
5.611583E+03	1.510164E-04	4.044077E-06
5.621568E+03	1.502216E-04	4.018603E-06
5.631553E+03	1.495163E-04	3.995586E-06
5.641538E+03	1.488846E-04	3.974590E-06
5.651523E+03	1.483848E-04	3.957167E-06
5.661508E+03	1.479972E-04	3.942779E-06
5.671493E+03	1.477746E-04	3.932819E-06
5.681478E+03	1.476910E-04	3.926587E-06
5.691463E+03	1.477915E-04	3.925270E-06
5.701448E+03	1.480423E-04	3.927950E-06
5.711433E+03	1.484605E-04	3.935077E-06
5.721418E+03	1.490405E-04	3.946483E-06
5.731403E+03	1.497714E-04	3.961869E-06
5.741388E+03	1.506561E-04	3.981302E-06
5.751373E+03	1.516365E-04	4.003234E-06
5.761358E+03	1.527061E-04	4.027488E-06
5.771343E+03	1.538361E-04	4.053297E-06
5.781328E+03	1.549938E-04	4.079800E-06
5.791313E+03	1.561446E-04	4.106080E-06
5.801298E+03	1.572328E-04	4.130680E-06
5.811283E+03	1.582625E-04	4.153711E-06
5.821268E+03	1.591810E-04	4.173799E-06
5.831253E+03	1.599592E-04	4.190185E-06
5.841238E+03	1.605734E-04	4.202265E-06
5.851223E+03	1.609866E-04	4.209079E-06
5.861208E+03	1.612299E-04	4.211462E-06
5.871193E+03	1.612615E-04	4.208333E-06
5.881178E+03	1.611281E-04	4.200921E-06
5.891163E+03	1.608220E-04	4.189045E-06
5.901148E+03	1.603408E-04	4.172650E-06
5.911133E+03	1.597466E-04	4.153366E-06
5.921118E+03	1.590229E-04	4.130773E-06
5.931103E+03	1.582154E-04	4.106064E-06
5.941088E+03	1.573691E-04	4.080412E-06
5.951073E+03	1.564691E-04	4.053436E-06
5.961058E+03	1.555597E-04	4.026284E-06
5.971043E+03	1.546640E-04	3.999552E-06
5.981028E+03	1.538243E-04	3.974338E-06
5.991013E+03	1.530240E-04	3.950203E-06
6.000999E+03	1.523047E-04	3.928223E-06
6.010984E+03	1.516893E-04	3.908976E-06
6.020969E+03	1.512006E-04	3.893050E-06
6.030954E+03	1.508632E-04	3.881063E-06
6.040939E+03	1.507028E-04	3.873670E-06
6.050924E+03	1.507472E-04	3.871571E-06
6.060909E+03	1.510259E-04	3.875514E-06
6.070894E+03	1.515716E-04	3.886318E-06
6.080879E+03	1.524188E-04	3.904856E-06
6.090864E+03	1.535854E-04	3.931564E-06
6.100849E+03	1.551482E-04	3.968388E-06
6.110834E+03	1.571270E-04	4.015816E-06
6.120819E+03	1.595587E-04	4.074759E-06
6.130804E+03	1.624560E-04	4.145523E-06
6.140789E+03	1.658853E-04	4.229773E-06
6.150774E+03	1.698415E-04	4.327348E-06
6.160759E+03	1.743027E-04	4.437669E-06
6.170744E+03	1.792940E-04	4.561342E-06
6.180729E+03	1.847295E-04	4.696163E-06
6.190714E+03	1.905889E-04	4.841590E-06
6.200699E+03	1.967314E-04	4.994037E-06
6.210684E+03	2.030859E-04	5.151683E-06
6.220669E+03	2.094579E-04	5.309599E-06
6.230654E+03	2.157363E-04	5.464966E-06
6.240639E+03	2.216914E-04	5.611989E-06
6.250624E+03	2.271716E-04	5.746850E-06
6.260609E+03	2.320352E-04	5.865996E-06
6.270594E+03	2.360713E-04	5.964134E-06
6.280579E+03	2.391835E-04	6.038878E-06
6.290564E+03	2.412831E-04	6.088037E-06
6.300549E+03	2.423535E-04	6.111245E-06
6.310534E+03	2.423311E-04	6.106948E-06
6.320519E+03	2.412870E-04	6.076988E-06
6.330504E+03	2.393014E-04	6.023429E-06
6.340489E+03	2.364876E-04	5.949167E-06
6.350474E+03	2.329828E-04	5.857680E-06
6.360459E+03	2.289387E-04	5.752812E-06
6.370444E+03	2.245124E-04	5.638527E-06
6.380429E+03	2.198567E-04	5.518672E-06
6.390414E+03	2.151128E-04	5.396795E-06
6.400399E+03	2.104052E-04	5.276019E-06
6.410384E+03	2.058365E-04	5.158913E-06
6.420369E+03	2.014866E-04	5.047463E-06
6.430354E+03	1.974115E-04	4.943066E-06
6.440339E+03	1.936436E-04	4.846520E-06
6.450325E+03	1.901948E-04	4.758105E-06
6.460310E+03	1.870344E-04	4.677038E-06
6.470295E+03	1.841884E-04	4.603957E-06
6.480280E+03	1.816002E-04	4.537437E-06
6.490265E+03	1.792318E-04	4.476514E-06
6.500250E+03	1.770207E-04	4.419620E-06
6.510235E+03	1.749740E-04	4.366925E-06
6.520220E+03	1.730310E-04	4.316905E-06
6.530205E+03	1.711292E-04	4.267999E-06
6.540190E+03	1.692699E-04	4.220237E-06
6.550175E+03	1.673957E-04	4.172181E-06
6.560160E+03	1.654622E-04	4.122724E-06
6.570145E+03	1.635018E-04	4.072673E-06
6.580130E+03	1.614747E-04	4.021037E-06
6.590115E+03	1.594335E-04	3.969119E-06
6.600100E+03	1.573545E-04	3.916334E-06
6.610085E+03	1.552985E-04	3.864188E-06
6.620070E+03	1.532472E-04	3.812223E-06
6.630055E+03	1.512404E-04	3.761430E-06
6.640040E+03	1.493146E-04	3.712713E-06
6.650025E+03	1.474456E-04	3.665466E-06
6.660010E+03	1.456813E-04	3.620875E-06
6.669995E+03	1.439908E-04	3.578172E-06
6.679980E+03	1.423957E-04	3.537891E-06
6.689965E+03	1.409143E-04	3.500478E-06
6.699950E+03	1.395085E-04	3.464990E-06
6.709935E+03	1.381930E-04	3.431788E-06
6.719920E+03	1.369635E-04	3.400762E-06
6.729905E+03	1.358153E-04	3.371792E-06
6.739890E+03	1.347607E-04	3.345183E-06
6.749875E+03	1.337606E-04	3.319962E-06
6.759860E+03	1.328280E-04	3.296450E-06
6.769845E+03	1.319589E-04	3.274548E-06
6.779830E+03	1.311499E-04	3.254168E-06
6.789815E+03	1.303981E-04	3.235237E-06
6.799800E+03	1.297012E-04	3.217697E-06
6.809785E+03	1.290576E-04	3.201510E-06
6.819770E+03	1.284833E-04	3.187066E-06
6.829755E+03	1.279457E-04	3.173560E-06
6.839740E+03	1.274629E-04	3.161437E-06
6.849725E+03	1.270212E-04	3.150360E-06
6.859710E+03	1.266569E-04	3.141227E-06
6.869695E+03	1.263585E-04	3.133750E-06
6.879680E+03	1.261313E-04	3.128064E-06
6.889666E+03	1.259813E-04	3.124315E-06
6.899651E+03	1.259146E-04	3.122653E-06
6.909636E+03	1.259373E-04	3.123231E-06
6.919621E+03	1.260552E-04	3.126191E-06
6.929606E+03	1.262737E-04	3.131666E-06
6.939591E+03	1.265815E-04	3.139380E-06
6.949576E+03	1.270157E-04	3.150248E-06
6.959561E+03	1.275647E-04	3.163985E-06
6.969546E+03	1.282333E-04	3.180712E-06
6.979531E+03	1.290107E-04	3.200160E-06
6.989516E+03	1.299366E-04	3.223314E-06
6.999501E+03	1.310032E-04	3.249984E-06
7.009486E+03	1.322046E-04	3.280022E-06
7.019471E+03	1.335883E-04	3.314605E-06
7.029456E+03	1.351541E-04	3.353738E-06
7.039441E+03	1.369048E-04	3.397484E-06
7.049426E+03	1.388982E-04	3.447283E-06
7.059411E+03	1.411245E-04	3.502896E-06
7.069396E+03	1.436470E-04	3.565894E-06
7.079381E+03	1.464756E-04	3.636527E-06
7.089366E+03	1.496171E-04	3.714968E-06
7.099351E+03	1.531317E-04	3.802716E-06
7.109336E+03	1.569960E-04	3.899196E-06
7.119321E+03	1.612349E-04	4.005030E-06
7.129306E+03	1.658624E-04	4.120574E-06
7.139291E+03	1.708133E-04	4.244211E-06
7.149276E+03	1.760891E-04	4.375986E-06
7.159261E+03	1.815826E-04	4.513239E-06
7.169246E+03	1.872332E-04	4.654472E-06
7.179231E+03	1.929630E-04	4.797749E-06
7.189216E+03	1.986044E-04	4.938909E-06
7.199201E+03	2.040521E-04	5.075335E-06
7.209186E+03	2.091987E-04	5.204351E-06
7.219171E+03	2.138599E-04	5.321373E-06
7.229156E+03	2.179422E-04	5.424066E-06
7.239141E+03	2.213436E-04	5.509885E-06
7.249126E+03	2.239856E-04	5.576870E-06
7.259111E+03	2.258453E-04	5.624434E-06
7.269096E+03	2.268400E-04	5.650510E-06
7.279081E+03	2.270003E-04	5.655843E-06
7.289066E+03	2.263515E-04	5.641053E-06
7.299051E+03	2.249377E-04	5.607220E-06
7.309036E+03	2.228182E-04	5.555808E-06
7.319021E+03	2.200623E-04	5.488535E-06
7.329006E+03	2.167469E-04	5.407303E-06
7.338992E+03	2.129516E-04	5.314090E-06
7.348977E+03	2.087576E-04	5.210905E-06
7.358962E+03	2.042455E-04	5.099752E-06
7.368947E+03	1.994933E-04	4.982575E-06
7.378932E+03	1.945757E-04	4.861229E-06
7.388917E+03	1.895632E-04	4.737469E-06
7.398902E+03	1.845210E-04	4.612922E-06
7.408887E+03	1.794845E-04	4.488474E-06
7.418872E+03	1.745540E-04	4.366624E-06
7.428857E+03	1.697508E-04	4.247911E-06
7.438842E+03	1.651136E-04	4.133302E-06
7.448827E+03	1.606738E-04	4.023589E-06
7.458812E+03	1.564360E-04	3.918886E-06
7.468797E+03	1.524601E-04	3.820698E-06
7.478782E+03	1.487379E-04	3.728830E-06
7.488767E+03	1.452586E-04	3.643009E-06
7.498752E+03	1.420638E-04	3.564291E-06
7.508737E+03	1.391339E-04	3.492187E-06
7.518722E+03	1.364477E-04	3.426173E-06
7.528707E+03	1.340351E-04	3.367003E-06
7.538692E+03	1.318526E-04	3.313594E-06
7.548677E+03	1.299249E-04	3.266574E-06
7.558662E+03	1.282066E-04	3.224808E-06
7.568647E+03	1.267191E-04	3.188840E-06
7.578632E+03	1.254159E-04	3.157509E-06
7.588617E+03	1.243165E-04	3.131309E-06
7.598602E+03	1.233743E-04	3.109074E-06
7.608587E+03	1.225918E-04	3.090872E-06
7.618572E+03	1.219715E-04	3.076772E-06
7.628557E+03	1.214682E-04	3.065640E-06
7.638542E+03	1.210856E-04	3.057576E-06
7.648527E+03	1.208285E-04	3.052700E-06
7.658512E+03	1.206544E-04	3.049951E-06
7.668497E+03	1.205699E-04	3.049494E-06
7.678482E+03	1.205662E-04	3.051111E-06
7.688467E+03	1.206509E-04	3.055002E-06
7.698452E+03	1.207844E-04	3.060165E-06
7.708437E+03	1.209746E-04	3.066801E-06
7.718422E+03	1.212130E-04	3.074704E-06
7.728407E+03	1.214911E-04	3.083656E-06
7.738392E+03	1.217998E-04	3.093428E-06
7.748377E+03	1.221296E-04	3.103786E-06
