#wls	flux	fluxerr
1.597604E+03	1.416879E-06	3.495537E-08
1.637544E+03	1.486195E-06	3.664265E-08
1.677484E+03	1.545118E-06	3.807111E-08
1.717424E+03	1.591883E-06	3.919769E-08
1.757364E+03	1.624242E-06	3.996759E-08
1.797304E+03	1.637793E-06	4.027322E-08
1.837244E+03	1.626734E-06	3.997294E-08
1.877184E+03	1.585589E-06	3.893359E-08
1.917124E+03	1.510576E-06	3.706401E-08
1.957064E+03	1.402718E-06	3.439122E-08
1.997004E+03	1.270655E-06	3.112889E-08
2.036945E+03	1.133681E-06	2.775089E-08
2.076885E+03	1.019234E-06	2.492878E-08
2.116825E+03	9.547427E-07	2.333164E-08
2.156765E+03	9.617711E-07	2.348298E-08
2.196705E+03	1.053128E-06	2.569067E-08
2.236645E+03	1.234478E-06	3.008714E-08
2.276585E+03	1.505349E-06	3.665457E-08
2.316525E+03	1.859581E-06	4.523650E-08
2.356465E+03	2.287710E-06	5.559653E-08
2.396405E+03	2.780915E-06	6.751443E-08
2.436345E+03	3.333026E-06	8.083490E-08
2.476286E+03	3.940595E-06	9.546903E-08
2.516226E+03	4.606494E-06	1.114809E-07
2.556166E+03	5.335280E-06	1.289749E-07
2.596106E+03	6.135995E-06	1.481628E-07
2.636046E+03	7.018225E-06	1.692685E-07
2.675986E+03	7.994286E-06	1.925800E-07
2.715926E+03	9.078060E-06	2.184213E-07
2.755866E+03	1.028637E-05	2.471850E-07
2.795806E+03	1.163367E-05	2.792044E-07
2.835746E+03	1.313791E-05	3.148940E-07
2.875686E+03	1.480937E-05	3.544821E-07
2.915627E+03	1.666418E-05	3.983349E-07
2.955567E+03	1.870912E-05	4.465919E-07
2.995507E+03	2.093488E-05	4.990082E-07
3.005492E+03	2.151925E-05	5.127517E-07
3.015477E+03	2.211370E-05	5.267243E-07
3.025462E+03	2.271770E-05	5.409130E-07
3.035447E+03	2.333171E-05	5.553281E-07
3.045432E+03	2.395897E-05	5.700470E-07
3.055417E+03	2.460310E-05	5.851547E-07
3.065402E+03	2.526237E-05	6.006099E-07
3.075387E+03	2.593495E-05	6.163686E-07
3.085372E+03	2.661887E-05	6.323835E-07
3.095357E+03	2.731653E-05	6.487112E-07
3.105342E+03	2.801671E-05	6.650846E-07
3.115327E+03	2.872132E-05	6.815493E-07
3.125312E+03	2.942765E-05	6.980408E-07
3.135297E+03	3.013275E-05	7.144885E-07
3.145282E+03	3.083333E-05	7.308149E-07
3.155267E+03	3.153099E-05	7.470576E-07
3.165252E+03	3.221140E-05	7.628775E-07
3.175237E+03	3.287519E-05	7.782895E-07
3.185222E+03	3.351739E-05	7.931768E-07
3.195207E+03	3.413823E-05	8.075450E-07
3.205192E+03	3.472085E-05	8.209960E-07
3.215177E+03	3.526494E-05	8.335238E-07
3.225162E+03	3.576498E-05	8.449986E-07
3.235147E+03	3.622205E-05	8.554474E-07
3.245132E+03	3.662068E-05	8.645062E-07
3.255117E+03	3.697068E-05	8.724077E-07
3.265102E+03	3.725963E-05	8.788608E-07
3.275087E+03	3.749498E-05	8.840428E-07
3.285072E+03	3.768604E-05	8.881745E-07
3.295057E+03	3.782504E-05	8.910741E-07
3.305042E+03	3.792991E-05	8.931656E-07
3.315027E+03	3.799468E-05	8.943095E-07
3.325012E+03	3.803235E-05	8.948126E-07
3.334998E+03	3.805610E-05	8.949858E-07
3.344983E+03	3.806042E-05	8.947000E-07
3.354968E+03	3.806423E-05	8.944004E-07
3.364953E+03	3.806110E-05	8.939361E-07
3.374938E+03	3.806862E-05	8.937199E-07
3.384923E+03	3.807873E-05	8.935625E-07
3.394908E+03	3.810710E-05	8.938314E-07
3.404893E+03	3.814981E-05	8.944342E-07
3.414878E+03	3.820194E-05	8.952551E-07
3.424863E+03	3.827609E-05	8.965890E-07
3.434848E+03	3.835929E-05	8.981311E-07
3.444833E+03	3.846263E-05	9.001413E-07
3.454818E+03	3.857199E-05	9.022880E-07
3.464803E+03	3.869779E-05	9.048152E-07
3.474788E+03	3.883184E-05	9.075305E-07
3.484773E+03	3.896597E-05	9.102430E-07
3.494758E+03	3.911105E-05	9.132067E-07
3.504743E+03	3.925953E-05	9.162443E-07
3.514728E+03	3.940421E-05	9.191884E-07
3.524713E+03	3.955740E-05	9.223258E-07
3.534698E+03	3.971309E-05	9.255164E-07
3.544683E+03	3.986589E-05	9.286342E-07
3.554668E+03	4.003017E-05	9.320140E-07
3.564653E+03	4.020170E-05	9.355570E-07
3.574638E+03	4.037652E-05	9.391709E-07
3.584623E+03	4.057023E-05	9.432180E-07
3.594608E+03	4.077917E-05	9.476127E-07
3.604593E+03	4.100617E-05	9.524202E-07
3.614578E+03	4.124754E-05	9.575542E-07
3.624563E+03	4.151944E-05	9.633893E-07
3.634548E+03	4.181855E-05	9.698471E-07
3.644533E+03	4.214825E-05	9.770051E-07
3.654518E+03	4.250516E-05	9.847839E-07
3.664503E+03	4.290592E-05	9.935678E-07
3.674488E+03	4.334649E-05	1.003262E-06
3.684473E+03	4.382870E-05	1.013907E-06
3.694458E+03	4.434640E-05	1.025359E-06
3.704443E+03	4.491329E-05	1.037933E-06
3.714428E+03	4.552117E-05	1.051439E-06
3.724413E+03	4.616804E-05	1.065828E-06
3.734398E+03	4.685142E-05	1.081042E-06
3.744383E+03	4.756124E-05	1.096847E-06
3.754368E+03	4.831000E-05	1.113531E-06
3.764353E+03	4.908836E-05	1.130876E-06
3.774338E+03	4.989501E-05	1.148851E-06
3.784324E+03	5.072943E-05	1.167443E-06
3.794309E+03	5.158382E-05	1.186472E-06
3.804294E+03	5.247542E-05	1.206333E-06
3.814279E+03	5.339813E-05	1.226885E-06
3.824264E+03	5.435446E-05	1.248183E-06
3.834249E+03	5.534734E-05	1.270293E-06
3.844234E+03	5.637110E-05	1.293085E-06
3.854219E+03	5.744637E-05	1.317030E-06
3.864204E+03	5.856725E-05	1.341990E-06
3.874189E+03	5.973593E-05	1.368014E-06
3.884174E+03	6.094419E-05	1.394912E-06
3.894159E+03	6.221108E-05	1.423117E-06
3.904144E+03	6.352623E-05	1.452391E-06
3.914129E+03	6.488713E-05	1.482674E-06
3.924114E+03	6.628961E-05	1.513868E-06
3.934099E+03	6.771693E-05	1.545591E-06
3.944084E+03	6.918123E-05	1.578117E-06
3.954069E+03	7.066026E-05	1.610938E-06
3.964054E+03	7.213851E-05	1.643700E-06
3.974039E+03	7.358478E-05	1.675692E-06
3.984024E+03	7.499832E-05	1.706898E-06
3.994009E+03	7.634213E-05	1.736478E-06
4.003994E+03	7.758975E-05	1.763832E-06
4.013979E+03	7.870508E-05	1.788145E-06
4.023964E+03	7.969438E-05	1.809563E-06
4.033949E+03	8.053638E-05	1.827609E-06
4.043934E+03	8.123315E-05	1.842335E-06
4.053919E+03	8.178591E-05	1.853775E-06
4.063904E+03	8.224452E-05	1.863064E-06
4.073889E+03	8.262950E-05	1.870671E-06
4.083874E+03	8.296560E-05	1.877158E-06
4.093859E+03	8.331643E-05	1.883966E-06
4.103844E+03	8.370415E-05	1.891595E-06
4.113829E+03	8.414401E-05	1.900387E-06
4.123814E+03	8.468137E-05	1.911365E-06
4.133799E+03	8.531320E-05	1.924456E-06
4.143784E+03	8.602678E-05	1.939369E-06
4.153769E+03	8.684001E-05	1.956504E-06
4.163754E+03	8.772446E-05	1.975217E-06
4.173739E+03	8.864600E-05	1.994737E-06
4.183724E+03	8.960779E-05	2.015134E-06
4.193709E+03	9.055718E-05	2.035221E-06
4.203694E+03	9.149657E-05	2.055055E-06
4.213679E+03	9.237439E-05	2.073476E-06
4.223665E+03	9.319784E-05	2.090650E-06
4.233650E+03	9.392222E-05	2.105577E-06
4.243635E+03	9.456533E-05	2.118659E-06
4.253620E+03	9.509480E-05	2.129175E-06
4.263605E+03	9.554403E-05	2.137878E-06
4.273590E+03	9.589664E-05	2.144404E-06
4.283575E+03	9.620223E-05	2.149866E-06
4.293560E+03	9.645845E-05	2.154214E-06
4.303545E+03	9.672495E-05	2.158781E-06
4.313530E+03	9.700441E-05	2.163626E-06
4.323515E+03	9.734089E-05	2.169731E-06
4.333500E+03	9.777507E-05	2.177999E-06
4.343485E+03	9.829719E-05	2.188210E-06
4.353470E+03	9.895119E-05	2.201336E-06
4.363455E+03	9.971629E-05	2.216911E-06
4.373440E+03	1.006124E-04	2.235370E-06
4.383425E+03	1.016411E-04	2.256745E-06
4.393410E+03	1.028174E-04	2.281364E-06
4.403395E+03	1.041101E-04	2.308526E-06
4.413380E+03	1.055365E-04	2.338608E-06
4.423365E+03	1.071023E-04	2.371734E-06
4.433350E+03	1.088332E-04	2.408465E-06
4.443335E+03	1.107060E-04	2.448279E-06
4.453320E+03	1.127419E-04	2.491640E-06
4.463305E+03	1.149360E-04	2.538433E-06
4.473290E+03	1.172687E-04	2.588214E-06
4.483275E+03	1.197012E-04	2.640126E-06
4.493260E+03	1.221749E-04	2.692871E-06
4.503245E+03	1.246131E-04	2.744757E-06
4.513230E+03	1.269461E-04	2.794253E-06
4.523215E+03	1.290444E-04	2.838511E-06
4.533200E+03	1.308410E-04	2.876074E-06
4.543185E+03	1.322679E-04	2.905457E-06
4.553170E+03	1.332609E-04	2.925271E-06
4.563155E+03	1.338443E-04	2.936065E-06
4.573140E+03	1.340108E-04	2.937701E-06
4.583125E+03	1.337983E-04	2.931023E-06
4.593110E+03	1.332630E-04	2.917284E-06
4.603095E+03	1.324739E-04	2.898008E-06
4.613080E+03	1.315057E-04	2.874835E-06
4.623065E+03	1.304324E-04	2.849392E-06
4.633050E+03	1.293043E-04	2.822784E-06
4.643035E+03	1.282210E-04	2.797184E-06
4.653020E+03	1.272132E-04	2.773261E-06
4.663005E+03	1.263188E-04	2.751837E-06
4.672991E+03	1.255444E-04	2.733047E-06
4.682976E+03	1.249395E-04	2.717968E-06
4.692961E+03	1.244678E-04	2.705800E-06
4.702946E+03	1.241569E-04	2.697138E-06
4.712931E+03	1.239705E-04	2.691186E-06
4.722916E+03	1.238671E-04	2.687035E-06
4.732901E+03	1.238555E-04	2.684878E-06
4.742886E+03	1.238703E-04	2.683290E-06
4.752871E+03	1.239194E-04	2.682442E-06
4.762856E+03	1.239401E-04	2.680976E-06
4.772841E+03	1.239473E-04	2.679216E-06
4.782826E+03	1.238896E-04	2.676051E-06
4.792811E+03	1.237780E-04	2.671724E-06
4.802796E+03	1.236331E-04	2.666679E-06
4.812781E+03	1.234305E-04	2.660393E-06
4.822766E+03	1.232093E-04	2.653712E-06
4.832751E+03	1.230147E-04	2.647608E-06
4.842736E+03	1.228410E-04	2.641958E-06
4.852721E+03	1.227347E-04	2.637762E-06
4.862706E+03	1.227184E-04	2.635499E-06
4.872691E+03	1.228046E-04	2.635437E-06
4.882676E+03	1.230121E-04	2.637970E-06
4.892661E+03	1.232942E-04	2.642095E-06
4.902646E+03	1.236485E-04	2.647755E-06
4.912631E+03	1.240486E-04	2.654386E-06
4.922616E+03	1.244661E-04	2.661374E-06
4.932601E+03	1.248750E-04	2.668164E-06
4.942586E+03	1.252543E-04	2.674308E-06
4.952571E+03	1.255908E-04	2.679527E-06
4.962556E+03	1.258805E-04	2.683738E-06
4.972541E+03	1.261281E-04	2.687042E-06
4.982526E+03	1.263277E-04	2.689317E-06
4.992511E+03	1.265345E-04	2.691736E-06
5.002496E+03	1.267509E-04	2.694355E-06
5.012481E+03	1.269978E-04	2.697614E-06
5.022466E+03	1.272917E-04	2.701864E-06
5.032451E+03	1.276243E-04	2.706925E-06
5.042436E+03	1.280351E-04	2.713634E-06
5.052421E+03	1.284991E-04	2.721455E-06
5.062406E+03	1.289827E-04	2.729679E-06
5.072391E+03	1.295022E-04	2.738647E-06
5.082376E+03	1.300138E-04	2.747432E-06
5.092361E+03	1.304726E-04	2.755089E-06
5.102346E+03	1.308936E-04	2.761935E-06
5.112332E+03	1.312226E-04	2.766827E-06
5.122317E+03	1.314901E-04	2.770415E-06
5.132302E+03	1.316616E-04	2.771976E-06
5.142287E+03	1.317700E-04	2.772206E-06
5.152272E+03	1.318566E-04	2.771975E-06
5.162257E+03	1.319102E-04	2.771051E-06
5.172242E+03	1.319775E-04	2.770414E-06
5.182227E+03	1.321022E-04	2.770980E-06
5.192212E+03	1.322644E-04	2.772333E-06
5.202197E+03	1.324947E-04	2.775108E-06
5.212182E+03	1.327974E-04	2.779396E-06
5.222167E+03	1.331913E-04	2.785582E-06
5.232152E+03	1.336329E-04	2.792756E-06
5.242137E+03	1.341337E-04	2.801157E-06
5.252122E+03	1.346839E-04	2.810578E-06
5.262107E+03	1.352703E-04	2.820739E-06
5.272092E+03	1.358757E-04	2.831281E-06
5.282077E+03	1.364774E-04	2.841731E-06
5.292062E+03	1.370474E-04	2.851509E-06
5.302047E+03	1.375533E-04	2.859941E-06
5.312032E+03	1.379619E-04	2.866339E-06
5.322017E+03	1.382420E-04	2.870062E-06
5.332002E+03	1.383702E-04	2.870630E-06
5.341987E+03	1.383344E-04	2.867800E-06
5.351972E+03	1.381170E-04	2.861214E-06
5.361957E+03	1.377747E-04	2.852053E-06
5.371942E+03	1.373177E-04	2.840537E-06
5.381927E+03	1.367850E-04	2.827476E-06
5.391912E+03	1.362011E-04	2.813378E-06
5.401897E+03	1.356479E-04	2.799937E-06
5.411882E+03	1.351429E-04	2.787514E-06
5.421867E+03	1.346954E-04	2.776296E-06
5.431852E+03	1.343610E-04	2.767429E-06
5.441837E+03	1.341062E-04	2.760214E-06
5.451822E+03	1.339620E-04	2.755291E-06
5.461807E+03	1.338716E-04	2.751485E-06
5.471792E+03	1.338463E-04	2.749026E-06
5.481777E+03	1.338154E-04	2.746461E-06
5.491762E+03	1.337847E-04	2.743906E-06
5.501747E+03	1.336859E-04	2.739966E-06
5.511732E+03	1.335308E-04	2.734883E-06
5.521717E+03	1.332584E-04	2.727412E-06
5.531702E+03	1.328698E-04	2.717577E-06
5.541687E+03	1.323731E-04	2.705554E-06
5.551672E+03	1.317284E-04	2.690527E-06
5.561658E+03	1.309637E-04	2.673077E-06
5.571643E+03	1.300975E-04	2.653587E-06
5.581628E+03	1.291568E-04	2.632609E-06
5.591613E+03	1.281918E-04	2.611170E-06
5.601598E+03	1.272000E-04	2.589220E-06
5.611583E+03	1.262339E-04	2.567828E-06
5.621568E+03	1.253258E-04	2.547647E-06
5.631553E+03	1.245044E-04	2.529261E-06
5.641538E+03	1.237953E-04	2.513184E-06
5.651523E+03	1.232199E-04	2.499846E-06
5.661508E+03	1.227957E-04	2.489598E-06
5.671493E+03	1.225359E-04	2.482698E-06
5.681478E+03	1.224491E-04	2.479317E-06
5.691463E+03	1.225396E-04	2.479532E-06
5.701448E+03	1.228075E-04	2.483342E-06
5.711433E+03	1.232497E-04	2.490673E-06
5.721418E+03	1.238426E-04	2.501045E-06
5.731403E+03	1.246139E-04	2.515009E-06
5.741388E+03	1.255362E-04	2.532008E-06
5.751373E+03	1.265971E-04	2.551785E-06
5.761358E+03	1.277613E-04	2.573625E-06
5.771343E+03	1.290417E-04	2.597783E-06
5.781328E+03	1.303883E-04	2.623250E-06
5.791313E+03	1.317417E-04	2.648828E-06
5.801298E+03	1.330916E-04	2.674311E-06
5.811283E+03	1.343684E-04	2.698303E-06
5.821268E+03	1.355043E-04	2.719445E-06
5.831253E+03	1.364984E-04	2.737723E-06
5.841238E+03	1.372861E-04	2.751852E-06
5.851223E+03	1.378977E-04	2.762444E-06
5.861208E+03	1.383007E-04	2.768856E-06
5.871193E+03	1.385534E-04	2.772261E-06
5.881178E+03	1.386401E-04	2.772351E-06
5.891163E+03	1.386242E-04	2.770399E-06
5.901148E+03	1.384848E-04	2.765992E-06
5.911133E+03	1.382732E-04	2.760158E-06
5.921118E+03	1.379551E-04	2.752216E-06
5.931103E+03	1.375521E-04	2.742599E-06
5.941088E+03	1.370858E-04	2.731742E-06
5.951073E+03	1.365222E-04	2.718970E-06
5.961058E+03	1.358919E-04	2.704893E-06
5.971043E+03	1.352114E-04	2.689845E-06
5.981028E+03	1.345213E-04	2.674633E-06
5.991013E+03	1.338072E-04	2.658970E-06
6.000999E+03	1.331126E-04	2.643723E-06
6.010984E+03	1.324600E-04	2.629335E-06
6.020969E+03	1.318681E-04	2.616180E-06
6.030954E+03	1.313710E-04	2.604930E-06
6.040939E+03	1.309436E-04	2.595083E-06
6.050924E+03	1.306170E-04	2.587254E-06
6.060909E+03	1.304065E-04	2.581744E-06
6.070894E+03	1.303346E-04	2.578992E-06
6.080879E+03	1.304341E-04	2.579647E-06
6.090864E+03	1.307517E-04	2.584625E-06
6.100849E+03	1.313495E-04	2.595143E-06
6.110834E+03	1.323047E-04	2.612723E-06
6.120819E+03	1.337082E-04	2.639148E-06
6.130804E+03	1.356604E-04	2.676384E-06
6.140789E+03	1.382638E-04	2.726441E-06
6.150774E+03	1.416147E-04	2.791195E-06
6.160759E+03	1.457910E-04	2.872166E-06
6.170744E+03	1.508178E-04	2.969825E-06
6.180729E+03	1.567402E-04	3.085035E-06
6.190714E+03	1.634828E-04	3.216297E-06
6.200699E+03	1.709276E-04	3.361269E-06
6.210684E+03	1.788902E-04	3.516308E-06
6.220669E+03	1.870983E-04	3.676058E-06
6.230654E+03	1.953106E-04	3.835774E-06
6.240639E+03	2.031794E-04	3.988635E-06
6.250624E+03	2.103766E-04	4.128216E-06
6.260609E+03	2.165620E-04	4.247860E-06
6.270594E+03	2.215294E-04	4.343554E-06
6.280579E+03	2.250423E-04	4.410693E-06
6.290564E+03	2.269382E-04	4.446129E-06
6.300549E+03	2.272372E-04	4.450293E-06
6.310534E+03	2.259509E-04	4.423450E-06
6.320519E+03	2.231735E-04	4.367475E-06
6.330504E+03	2.191662E-04	4.287511E-06
6.340489E+03	2.141130E-04	4.187183E-06
6.350474E+03	2.083515E-04	4.073107E-06
6.360459E+03	2.021008E-04	3.949579E-06
6.370444E+03	1.956839E-04	3.822917E-06
6.380429E+03	1.892775E-04	3.696569E-06
6.390414E+03	1.831302E-04	3.575391E-06
6.400399E+03	1.773398E-04	3.461282E-06
6.410384E+03	1.720659E-04	3.357345E-06
6.420369E+03	1.673271E-04	3.263936E-06
6.430354E+03	1.632059E-04	3.182651E-06
6.440339E+03	1.596601E-04	3.112653E-06
6.450325E+03	1.566925E-04	3.053990E-06
6.460310E+03	1.542824E-04	3.006246E-06
6.470295E+03	1.523218E-04	2.967309E-06
6.480280E+03	1.507506E-04	2.935996E-06
6.490265E+03	1.494898E-04	2.910767E-06
6.500250E+03	1.483854E-04	2.888618E-06
6.510235E+03	1.473487E-04	2.867819E-06
6.520220E+03	1.463068E-04	2.846949E-06
6.530205E+03	1.451537E-04	2.823946E-06
6.540190E+03	1.438801E-04	2.798631E-06
6.550175E+03	1.424819E-04	2.770925E-06
6.560160E+03	1.409910E-04	2.741445E-06
6.570145E+03	1.393858E-04	2.709773E-06
6.580130E+03	1.377101E-04	2.676763E-06
6.590115E+03	1.359914E-04	2.642946E-06
6.600100E+03	1.342602E-04	2.608915E-06
6.610085E+03	1.325484E-04	2.575290E-06
6.620070E+03	1.309051E-04	2.543023E-06
6.630055E+03	1.293180E-04	2.511873E-06
6.640040E+03	1.278241E-04	2.482559E-06
6.650025E+03	1.264334E-04	2.455270E-06
6.660010E+03	1.251476E-04	2.430044E-06
6.669995E+03	1.239628E-04	2.406798E-06
6.679980E+03	1.228707E-04	2.385373E-06
6.689965E+03	1.218615E-04	2.365574E-06
6.699950E+03	1.209252E-04	2.347210E-06
6.709935E+03	1.200535E-04	2.330118E-06
6.719920E+03	1.192401E-04	2.314174E-06
6.729905E+03	1.184808E-04	2.299296E-06
6.739890E+03	1.177732E-04	2.285438E-06
6.749875E+03	1.171164E-04	2.272580E-06
6.759860E+03	1.165104E-04	2.260723E-06
6.769845E+03	1.159559E-04	2.249878E-06
6.779830E+03	1.154541E-04	2.240069E-06
6.789815E+03	1.150061E-04	2.231320E-06
6.799800E+03	1.146135E-04	2.223657E-06
6.809785E+03	1.142608E-04	2.216781E-06
6.819770E+03	1.139812E-04	2.211335E-06
6.829755E+03	1.137578E-04	2.206994E-06
6.839740E+03	1.135898E-04	2.203738E-06
6.849725E+03	1.134757E-04	2.201538E-06
6.859710E+03	1.134138E-04	2.200365E-06
6.869695E+03	1.133866E-04	2.199877E-06
6.879680E+03	1.134261E-04	2.200692E-06
6.889666E+03	1.135157E-04	2.202492E-06
6.899651E+03	1.136563E-04	2.205294E-06
6.909636E+03	1.138333E-04	2.208811E-06
6.919621E+03	1.140817E-04	2.213727E-06
6.929606E+03	1.143883E-04	2.219783E-06
6.939591E+03	1.147563E-04	2.227043E-06
6.949576E+03	1.151723E-04	2.235244E-06
6.959561E+03	1.156716E-04	2.245076E-06
6.969546E+03	1.162390E-04	2.256241E-06
6.979531E+03	1.168577E-04	2.268413E-06
6.989516E+03	1.175604E-04	2.282229E-06
6.999501E+03	1.183127E-04	2.297020E-06
7.009486E+03	1.191496E-04	2.313469E-06
7.019471E+03	1.200590E-04	2.331338E-06
7.029456E+03	1.210342E-04	2.350498E-06
7.039441E+03	1.221287E-04	2.371990E-06
7.049426E+03	1.233364E-04	2.395696E-06
7.059411E+03	1.247332E-04	2.423091E-06
7.069396E+03	1.263355E-04	2.454495E-06
7.079381E+03	1.282428E-04	2.491845E-06
7.089366E+03	1.304897E-04	2.535813E-06
7.099351E+03	1.331881E-04	2.588579E-06
7.109336E+03	1.363712E-04	2.650791E-06
7.119321E+03	1.401376E-04	2.724369E-06
7.129306E+03	1.444854E-04	2.809287E-06
7.139291E+03	1.494635E-04	2.906495E-06
7.149276E+03	1.549965E-04	3.014537E-06
7.159261E+03	1.610487E-04	3.132724E-06
7.169246E+03	1.674440E-04	3.257637E-06
7.179231E+03	1.740262E-04	3.386238E-06
7.189216E+03	1.806036E-04	3.514803E-06
7.199201E+03	1.868835E-04	3.637635E-06
7.209186E+03	1.926770E-04	3.751056E-06
7.219171E+03	1.977097E-04	3.849720E-06
7.229156E+03	2.018358E-04	3.930777E-06
7.239141E+03	2.049434E-04	3.992042E-06
7.249126E+03	2.070181E-04	4.033224E-06
7.259111E+03	2.080185E-04	4.053505E-06
7.269096E+03	2.080423E-04	4.054776E-06
7.279081E+03	2.072184E-04	4.039541E-06
7.289066E+03	2.055976E-04	4.008778E-06
7.299051E+03	2.033186E-04	3.965183E-06
7.309036E+03	2.004784E-04	3.910638E-06
7.319021E+03	1.971583E-04	3.846724E-06
7.329006E+03	1.934545E-04	3.775309E-06
7.338992E+03	1.893695E-04	3.696438E-06
7.348977E+03	1.849887E-04	3.611771E-06
7.358962E+03	1.803712E-04	3.522456E-06
7.368947E+03	1.755823E-04	3.429766E-06
7.378932E+03	1.706936E-04	3.335096E-06
7.388917E+03	1.657807E-04	3.239921E-06
7.398902E+03	1.609427E-04	3.146174E-06
7.408887E+03	1.562020E-04	3.054297E-06
7.418872E+03	1.516432E-04	2.965943E-06
7.428857E+03	1.473140E-04	2.882045E-06
7.438842E+03	1.432481E-04	2.803269E-06
7.448827E+03	1.394664E-04	2.730026E-06
7.458812E+03	1.359789E-04	2.662513E-06
7.468797E+03	1.327870E-04	2.600763E-06
7.478782E+03	1.298861E-04	2.544691E-06
7.488767E+03	1.272677E-04	2.494135E-06
7.498752E+03	1.249207E-04	2.448880E-06
7.508737E+03	1.228324E-04	2.408682E-06
7.518722E+03	1.209888E-04	2.373270E-06
7.528707E+03	1.193751E-04	2.342359E-06
7.538692E+03	1.179580E-04	2.315300E-06
7.548677E+03	1.167551E-04	2.292438E-06
7.558662E+03	1.157299E-04	2.273065E-06
7.568647E+03	1.148621E-04	2.256781E-06
7.578632E+03	1.141298E-04	2.243160E-06
7.588617E+03	1.135102E-04	2.231758E-06
7.598602E+03	1.129806E-04	2.222129E-06
7.608587E+03	1.125028E-04	2.213525E-06
7.618572E+03	1.120903E-04	2.206212E-06
7.628557E+03	1.117105E-04	2.199548E-06
7.638542E+03	1.113519E-04	2.193309E-06
7.648527E+03	1.109927E-04	2.187064E-06
7.658512E+03	1.106665E-04	2.181477E-06
7.668497E+03	1.103641E-04	2.176368E-06
7.678482E+03	1.100978E-04	2.171978E-06
7.688467E+03	1.098656E-04	2.168270E-06
7.698452E+03	1.097126E-04	2.166136E-06
7.708437E+03	1.096302E-04	2.165407E-06
7.718422E+03	1.096023E-04	2.165764E-06
7.728407E+03	1.096521E-04	2.167674E-06
7.738392E+03	1.097476E-04	2.170499E-06
7.748377E+03	1.098511E-04	2.173499E-06
