#wls	flux	fluxerr
1.597604E+03	1.197006E-06	4.212473E-08
1.637544E+03	1.258547E-06	4.424775E-08
1.677484E+03	1.312087E-06	4.608439E-08
1.717424E+03	1.355896E-06	4.757465E-08
1.757364E+03	1.388017E-06	4.865085E-08
1.797304E+03	1.404361E-06	4.917092E-08
1.837244E+03	1.400054E-06	4.896613E-08
1.877184E+03	1.370396E-06	4.787471E-08
1.917124E+03	1.311294E-06	4.575685E-08
1.957064E+03	1.223469E-06	4.264141E-08
1.997004E+03	1.114010E-06	3.877900E-08
2.036945E+03	9.994846E-07	3.474871E-08
2.076885E+03	9.038654E-07	3.138392E-08
2.116825E+03	8.522100E-07	2.955129E-08
2.156765E+03	8.645404E-07	2.993826E-08
2.196705E+03	9.535232E-07	3.297379E-08
2.236645E+03	1.126668E-06	3.890581E-08
2.276585E+03	1.385719E-06	4.778137E-08
2.316525E+03	1.727643E-06	5.948208E-08
2.356465E+03	2.146497E-06	7.378949E-08
2.396405E+03	2.637003E-06	9.050867E-08
2.436345E+03	3.195354E-06	1.094956E-07
2.476286E+03	3.823631E-06	1.308080E-07
2.516226E+03	4.526680E-06	1.545968E-07
2.556166E+03	5.313806E-06	1.811635E-07
2.596106E+03	6.197949E-06	2.109302E-07
2.636046E+03	7.196707E-06	2.444731E-07
2.675986E+03	8.327332E-06	2.823517E-07
2.715926E+03	9.615277E-06	3.253972E-07
2.755866E+03	1.108503E-05	3.744002E-07
2.795806E+03	1.276490E-05	4.302724E-07
2.835746E+03	1.468505E-05	4.939779E-07
2.875686E+03	1.687603E-05	5.664831E-07
2.915627E+03	1.936973E-05	6.487889E-07
2.955567E+03	2.218274E-05	7.413720E-07
2.995507E+03	2.533366E-05	8.447681E-07
3.005492E+03	2.617216E-05	8.722287E-07
3.015477E+03	2.703077E-05	9.003241E-07
3.025462E+03	2.791377E-05	9.291956E-07
3.035447E+03	2.881238E-05	9.585500E-07
3.045432E+03	2.973543E-05	9.886788E-07
3.055417E+03	3.068754E-05	1.019734E-06
3.065402E+03	3.167221E-05	1.051830E-06
3.075387E+03	3.267657E-05	1.084538E-06
3.085372E+03	3.370350E-05	1.117952E-06
3.095357E+03	3.475032E-05	1.151980E-06
3.105342E+03	3.582021E-05	1.186727E-06
3.115327E+03	3.689779E-05	1.221682E-06
3.125312E+03	3.798534E-05	1.256920E-06
3.135297E+03	3.908545E-05	1.292525E-06
3.145282E+03	4.018034E-05	1.327908E-06
3.155267E+03	4.127134E-05	1.363114E-06
3.165252E+03	4.235261E-05	1.397949E-06
3.175237E+03	4.342497E-05	1.432441E-06
3.185222E+03	4.446635E-05	1.465863E-06
3.195207E+03	4.547577E-05	1.498184E-06
3.205192E+03	4.645227E-05	1.529373E-06
3.215177E+03	4.737092E-05	1.558614E-06
3.225162E+03	4.823867E-05	1.586136E-06
3.235147E+03	4.903098E-05	1.611137E-06
3.245132E+03	4.974931E-05	1.633670E-06
3.255117E+03	5.039776E-05	1.653874E-06
3.265102E+03	5.095738E-05	1.671131E-06
3.275087E+03	5.143740E-05	1.685750E-06
3.285072E+03	5.184987E-05	1.698130E-06
3.295057E+03	5.218257E-05	1.707875E-06
3.305042E+03	5.246017E-05	1.715799E-06
3.315027E+03	5.267309E-05	1.721590E-06
3.325012E+03	5.283914E-05	1.725836E-06
3.334998E+03	5.297663E-05	1.729137E-06
3.344983E+03	5.307683E-05	1.731209E-06
3.354968E+03	5.316659E-05	1.732931E-06
3.364953E+03	5.323598E-05	1.733980E-06
3.374938E+03	5.331008E-05	1.735173E-06
3.384923E+03	5.337662E-05	1.736112E-06
3.394908E+03	5.345802E-05	1.737525E-06
3.404893E+03	5.353904E-05	1.738916E-06
3.414878E+03	5.363910E-05	1.740915E-06
3.424863E+03	5.373993E-05	1.742930E-06
3.434848E+03	5.384916E-05	1.745206E-06
3.444833E+03	5.397350E-05	1.747960E-06
3.454818E+03	5.409165E-05	1.750503E-06
3.464803E+03	5.421850E-05	1.753315E-06
3.474788E+03	5.433239E-05	1.755697E-06
3.484773E+03	5.444850E-05	1.758140E-06
3.494758E+03	5.454574E-05	1.759962E-06
3.504743E+03	5.464029E-05	1.761687E-06
3.514728E+03	5.471223E-05	1.762673E-06
3.524713E+03	5.477932E-05	1.763494E-06
3.534698E+03	5.482342E-05	1.763566E-06
3.544683E+03	5.486431E-05	1.763526E-06
3.554668E+03	5.488584E-05	1.762857E-06
3.564653E+03	5.490955E-05	1.762252E-06
3.574638E+03	5.492053E-05	1.761230E-06
3.584623E+03	5.494102E-05	1.760508E-06
3.594608E+03	5.495638E-05	1.759614E-06
3.604593E+03	5.498884E-05	1.759260E-06
3.614578E+03	5.503298E-05	1.759273E-06
3.624563E+03	5.508351E-05	1.759481E-06
3.634548E+03	5.516308E-05	1.760608E-06
3.644533E+03	5.525753E-05	1.762200E-06
3.654518E+03	5.538970E-05	1.764983E-06
3.664503E+03	5.554499E-05	1.768489E-06
3.674488E+03	5.574514E-05	1.773408E-06
3.684473E+03	5.597347E-05	1.779207E-06
3.694458E+03	5.624915E-05	1.786492E-06
3.704443E+03	5.655236E-05	1.794630E-06
3.714428E+03	5.689955E-05	1.804140E-06
3.724413E+03	5.726843E-05	1.814313E-06
3.734398E+03	5.767423E-05	1.825630E-06
3.744383E+03	5.810364E-05	1.837665E-06
3.754368E+03	5.854348E-05	1.850000E-06
3.764353E+03	5.901048E-05	1.863164E-06
3.774338E+03	5.948331E-05	1.876480E-06
3.784324E+03	5.998103E-05	1.890548E-06
3.794309E+03	6.048415E-05	1.904753E-06
3.804294E+03	6.101421E-05	1.919772E-06
3.814279E+03	6.155333E-05	1.935040E-06
3.824264E+03	6.212495E-05	1.951293E-06
3.834249E+03	6.271203E-05	1.967993E-06
3.844234E+03	6.333896E-05	1.985904E-06
3.854219E+03	6.398836E-05	2.004477E-06
3.864204E+03	6.468441E-05	2.024467E-06
3.874189E+03	6.540807E-05	2.045275E-06
3.884174E+03	6.618215E-05	2.067610E-06
3.894159E+03	6.699592E-05	2.091134E-06
3.904144E+03	6.783681E-05	2.115450E-06
3.914129E+03	6.872434E-05	2.141165E-06
3.924114E+03	6.963141E-05	2.167431E-06
3.934099E+03	7.057467E-05	2.194762E-06
3.944084E+03	7.152201E-05	2.222160E-06
3.954069E+03	7.248514E-05	2.249985E-06
3.964054E+03	7.342464E-05	2.277015E-06
3.974039E+03	7.434513E-05	2.303394E-06
3.984024E+03	7.519911E-05	2.327653E-06
3.994009E+03	7.598578E-05	2.349773E-06
4.003994E+03	7.665461E-05	2.368199E-06
4.013979E+03	7.720820E-05	2.383022E-06
4.023964E+03	7.760521E-05	2.392976E-06
4.033949E+03	7.786478E-05	2.398665E-06
4.043934E+03	7.796649E-05	2.399473E-06
4.053919E+03	7.795339E-05	2.396738E-06
4.063904E+03	7.782761E-05	2.390535E-06
4.073889E+03	7.763763E-05	2.382362E-06
4.083874E+03	7.743521E-05	2.373813E-06
4.093859E+03	7.723333E-05	2.365285E-06
4.103844E+03	7.709142E-05	2.358597E-06
4.113829E+03	7.701076E-05	2.353782E-06
4.123814E+03	7.703390E-05	2.352135E-06
4.133799E+03	7.714315E-05	2.353106E-06
4.143784E+03	7.736202E-05	2.357404E-06
4.153769E+03	7.765521E-05	2.363944E-06
4.163754E+03	7.801923E-05	2.372613E-06
4.173739E+03	7.844635E-05	2.383170E-06
4.183724E+03	7.888819E-05	2.394140E-06
4.193709E+03	7.934677E-05	2.405584E-06
4.203694E+03	7.977335E-05	2.416023E-06
4.213679E+03	8.015976E-05	2.425212E-06
4.223665E+03	8.050124E-05	2.433014E-06
4.233650E+03	8.075745E-05	2.438212E-06
4.243635E+03	8.093318E-05	2.440961E-06
4.253620E+03	8.103946E-05	2.441599E-06
4.263605E+03	8.105507E-05	2.439495E-06
4.273590E+03	8.100554E-05	2.435426E-06
4.283575E+03	8.092344E-05	2.430375E-06
4.293560E+03	8.080694E-05	2.424291E-06
4.303545E+03	8.069676E-05	2.418397E-06
4.313530E+03	8.063413E-05	2.413929E-06
4.323515E+03	8.061831E-05	2.410857E-06
4.333500E+03	8.068373E-05	2.410208E-06
4.343485E+03	8.085937E-05	2.412838E-06
4.353470E+03	8.112921E-05	2.418258E-06
4.363455E+03	8.151204E-05	2.427019E-06
4.373440E+03	8.201008E-05	2.439177E-06
4.383425E+03	8.263655E-05	2.455111E-06
4.393410E+03	8.336286E-05	2.473962E-06
4.403395E+03	8.420080E-05	2.496069E-06
4.413380E+03	8.515181E-05	2.521464E-06
4.423365E+03	8.623561E-05	2.550718E-06
4.433350E+03	8.743341E-05	2.583262E-06
4.443335E+03	8.876915E-05	2.619793E-06
4.453320E+03	9.024927E-05	2.660485E-06
4.463305E+03	9.187205E-05	2.705275E-06
4.473290E+03	9.362308E-05	2.753722E-06
4.483275E+03	9.548690E-05	2.805361E-06
4.493260E+03	9.738458E-05	2.857863E-06
4.503245E+03	9.926721E-05	2.909790E-06
4.513230E+03	1.010603E-04	2.958962E-06
4.523215E+03	1.026861E-04	3.003118E-06
4.533200E+03	1.040731E-04	3.040180E-06
4.543185E+03	1.051640E-04	3.068501E-06
4.553170E+03	1.059224E-04	3.087055E-06
4.563155E+03	1.063364E-04	3.095524E-06
4.573140E+03	1.064175E-04	3.094279E-06
4.583125E+03	1.061982E-04	3.084295E-06
4.593110E+03	1.057431E-04	3.067481E-06
4.603095E+03	1.050756E-04	3.044539E-06
4.613080E+03	1.042745E-04	3.017768E-06
4.623065E+03	1.034007E-04	2.988945E-06
4.633050E+03	1.025108E-04	2.959713E-06
4.643035E+03	1.016543E-04	2.931497E-06
4.653020E+03	1.008552E-04	2.904988E-06
4.663005E+03	1.001762E-04	2.881984E-06
4.672991E+03	9.962061E-05	2.862567E-06
4.682976E+03	9.919734E-05	2.846981E-06
4.692961E+03	9.890587E-05	2.835198E-06
4.702946E+03	9.873703E-05	2.826940E-06
4.712931E+03	9.867536E-05	2.821754E-06
4.722916E+03	9.870017E-05	2.819038E-06
4.732901E+03	9.878772E-05	2.818104E-06
4.742886E+03	9.891289E-05	2.818233E-06
4.752871E+03	9.903494E-05	2.818259E-06
4.762856E+03	9.916304E-05	2.818444E-06
4.772841E+03	9.926224E-05	2.817795E-06
4.782826E+03	9.931888E-05	2.815929E-06
4.792811E+03	9.932625E-05	2.812660E-06
4.802796E+03	9.926971E-05	2.807578E-06
4.812781E+03	9.919087E-05	2.801867E-06
4.822766E+03	9.909139E-05	2.795575E-06
4.832751E+03	9.899495E-05	2.789373E-06
4.842736E+03	9.891220E-05	2.783559E-06
4.852721E+03	9.890013E-05	2.779735E-06
4.862706E+03	9.896275E-05	2.778005E-06
4.872691E+03	9.911123E-05	2.778675E-06
4.882676E+03	9.933035E-05	2.781309E-06
4.892661E+03	9.964218E-05	2.786518E-06
4.902646E+03	1.000127E-04	2.793342E-06
4.912631E+03	1.004024E-04	2.800672E-06
4.922616E+03	1.008183E-04	2.808702E-06
4.932601E+03	1.012051E-04	2.815890E-06
4.942586E+03	1.015769E-04	2.822635E-06
4.952571E+03	1.019065E-04	2.828179E-06
4.962556E+03	1.021743E-04	2.831983E-06
4.972541E+03	1.024174E-04	2.835087E-06
4.982526E+03	1.026151E-04	2.836915E-06
4.992511E+03	1.028169E-04	2.838840E-06
5.002496E+03	1.030094E-04	2.840497E-06
5.012481E+03	1.032446E-04	2.843315E-06
5.022466E+03	1.035054E-04	2.846819E-06
5.032451E+03	1.038349E-04	2.852189E-06
5.042436E+03	1.042029E-04	2.858595E-06
5.052421E+03	1.046379E-04	2.866812E-06
5.062406E+03	1.050947E-04	2.875594E-06
5.072391E+03	1.055723E-04	2.884911E-06
5.082376E+03	1.060660E-04	2.894636E-06
5.092361E+03	1.065201E-04	2.903248E-06
5.102346E+03	1.069488E-04	2.911137E-06
5.112332E+03	1.073040E-04	2.917000E-06
5.122317E+03	1.075967E-04	2.921145E-06
5.132302E+03	1.078477E-04	2.924138E-06
5.142287E+03	1.080354E-04	2.925405E-06
5.152272E+03	1.081973E-04	2.925961E-06
5.162257E+03	1.083575E-04	2.926465E-06
5.172242E+03	1.085581E-04	2.928049E-06
5.182227E+03	1.087860E-04	2.930359E-06
5.192212E+03	1.090742E-04	2.934281E-06
5.202197E+03	1.094321E-04	2.940056E-06
5.212182E+03	1.098798E-04	2.948223E-06
5.222167E+03	1.103805E-04	2.957784E-06
5.232152E+03	1.109464E-04	2.969059E-06
5.242137E+03	1.115700E-04	2.981843E-06
5.252122E+03	1.122421E-04	2.995883E-06
5.262107E+03	1.129508E-04	3.010858E-06
5.272092E+03	1.136985E-04	3.026831E-06
5.282077E+03	1.144289E-04	3.042296E-06
5.292062E+03	1.151338E-04	3.057044E-06
5.302047E+03	1.157832E-04	3.070279E-06
5.312032E+03	1.163451E-04	3.081158E-06
5.322017E+03	1.167895E-04	3.088903E-06
5.332002E+03	1.170932E-04	3.092907E-06
5.341987E+03	1.172431E-04	3.092845E-06
5.351972E+03	1.172397E-04	3.088743E-06
5.361957E+03	1.170972E-04	3.080993E-06
5.371942E+03	1.168423E-04	3.070311E-06
5.381927E+03	1.165108E-04	3.057646E-06
5.391912E+03	1.161427E-04	3.044055E-06
5.401897E+03	1.157774E-04	3.030576E-06
5.411882E+03	1.154497E-04	3.018117E-06
5.421867E+03	1.151862E-04	3.007369E-06
5.431852E+03	1.150035E-04	2.998758E-06
5.441837E+03	1.149069E-04	2.992416E-06
5.451822E+03	1.148720E-04	2.987700E-06
5.461807E+03	1.149174E-04	2.985086E-06
5.471792E+03	1.149966E-04	2.983362E-06
5.481777E+03	1.150757E-04	2.981643E-06
5.491762E+03	1.151233E-04	2.979121E-06
5.501747E+03	1.151163E-04	2.975200E-06
5.511732E+03	1.150184E-04	2.968950E-06
5.521717E+03	1.148491E-04	2.960880E-06
5.531702E+03	1.145749E-04	2.950134E-06
5.541687E+03	1.141853E-04	2.936456E-06
5.551672E+03	1.136600E-04	2.919333E-06
5.561658E+03	1.130420E-04	2.899880E-06
5.571643E+03	1.123296E-04	2.878061E-06
5.581628E+03	1.115462E-04	2.854489E-06
5.591613E+03	1.107030E-04	2.829451E-06
5.601598E+03	1.098652E-04	2.804619E-06
5.611583E+03	1.090450E-04	2.780304E-06
5.621568E+03	1.082530E-04	2.756774E-06
5.631553E+03	1.075485E-04	2.735532E-06
5.641538E+03	1.069190E-04	2.716254E-06
5.651523E+03	1.064166E-04	2.700257E-06
5.661508E+03	1.060394E-04	2.687476E-06
5.671493E+03	1.057817E-04	2.677761E-06
5.681478E+03	1.056846E-04	2.672135E-06
5.691463E+03	1.057181E-04	2.669830E-06
5.701448E+03	1.059159E-04	2.671684E-06
5.711433E+03	1.062421E-04	2.676778E-06
5.721418E+03	1.067260E-04	2.685837E-06
5.731403E+03	1.073287E-04	2.697868E-06
5.741388E+03	1.080775E-04	2.713551E-06
5.751373E+03	1.089303E-04	2.731816E-06
5.761358E+03	1.099098E-04	2.753221E-06
5.771343E+03	1.109640E-04	2.776459E-06
5.781328E+03	1.121030E-04	2.801773E-06
5.791313E+03	1.132584E-04	2.827450E-06
5.801298E+03	1.144074E-04	2.852921E-06
5.811283E+03	1.155245E-04	2.877551E-06
5.821268E+03	1.165315E-04	2.899401E-06
5.831253E+03	1.174311E-04	2.918546E-06
5.841238E+03	1.181654E-04	2.933555E-06
5.851223E+03	1.187468E-04	2.944755E-06
5.861208E+03	1.192027E-04	2.952837E-06
5.871193E+03	1.195145E-04	2.957349E-06
5.881178E+03	1.197241E-04	2.959339E-06
5.891163E+03	1.198717E-04	2.959810E-06
5.901148E+03	1.199350E-04	2.958216E-06
5.911133E+03	1.199403E-04	2.955212E-06
5.921118E+03	1.198882E-04	2.950818E-06
5.931103E+03	1.197940E-04	2.945415E-06
5.941088E+03	1.196163E-04	2.937989E-06
5.951073E+03	1.193733E-04	2.928995E-06
5.961058E+03	1.190698E-04	2.918554E-06
5.971043E+03	1.187351E-04	2.907386E-06
5.981028E+03	1.183467E-04	2.894948E-06
5.991013E+03	1.179413E-04	2.882139E-06
6.000999E+03	1.175372E-04	2.869406E-06
6.010984E+03	1.171507E-04	2.857147E-06
6.020969E+03	1.167946E-04	2.845676E-06
6.030954E+03	1.164966E-04	2.835658E-06
6.040939E+03	1.162260E-04	2.826350E-06
6.050924E+03	1.160072E-04	2.818338E-06
6.060909E+03	1.158489E-04	2.811831E-06
6.070894E+03	1.157666E-04	2.807203E-06
6.080879E+03	1.157863E-04	2.805076E-06
6.090864E+03	1.159472E-04	2.806396E-06
6.100849E+03	1.163039E-04	2.812471E-06
6.110834E+03	1.169261E-04	2.824975E-06
6.120819E+03	1.178968E-04	2.845894E-06
6.130804E+03	1.193083E-04	2.877433E-06
6.140789E+03	1.212556E-04	2.921854E-06
6.150774E+03	1.238275E-04	2.981266E-06
6.160759E+03	1.270963E-04	3.057369E-06
6.170744E+03	1.311052E-04	3.151162E-06
6.180729E+03	1.358567E-04	3.262664E-06
6.190714E+03	1.413020E-04	3.390667E-06
6.200699E+03	1.473355E-04	3.532602E-06
6.210684E+03	1.537942E-04	3.684534E-06
6.220669E+03	1.604639E-04	3.841320E-06
6.230654E+03	1.670922E-04	3.996916E-06
6.240639E+03	1.734069E-04	4.144825E-06
6.250624E+03	1.791355E-04	4.278559E-06
6.260609E+03	1.840264E-04	4.392156E-06
6.270594E+03	1.878664E-04	4.480577E-06
6.280579E+03	1.904654E-04	4.539353E-06
6.290564E+03	1.917870E-04	4.567681E-06
6.300549E+03	1.917757E-04	4.564304E-06
6.310534E+03	1.904767E-04	4.530366E-06
6.320519E+03	1.880023E-04	4.468595E-06
6.330504E+03	1.845208E-04	4.383045E-06
6.340489E+03	1.802124E-04	4.278032E-06
6.350474E+03	1.753642E-04	4.160403E-06
6.360459E+03	1.701786E-04	4.034976E-06
6.370444E+03	1.648725E-04	3.906900E-06
6.380429E+03	1.596360E-04	3.780678E-06
6.390414E+03	1.546018E-04	3.659441E-06
6.400399E+03	1.499398E-04	3.547198E-06
6.410384E+03	1.457107E-04	3.445365E-06
6.420369E+03	1.419680E-04	3.355186E-06
6.430354E+03	1.387158E-04	3.276736E-06
6.440339E+03	1.360007E-04	3.211096E-06
6.450325E+03	1.337834E-04	3.157317E-06
6.460310E+03	1.320087E-04	3.114079E-06
6.470295E+03	1.306670E-04	3.081141E-06
6.480280E+03	1.296673E-04	3.056340E-06
6.490265E+03	1.288980E-04	3.037034E-06
6.500250E+03	1.282862E-04	3.021500E-06
6.510235E+03	1.276830E-04	3.006229E-06
6.520220E+03	1.269533E-04	2.988036E-06
6.530205E+03	1.260771E-04	2.966452E-06
6.540190E+03	1.250379E-04	2.941094E-06
6.550175E+03	1.238484E-04	2.912262E-06
6.560160E+03	1.225795E-04	2.881620E-06
6.570145E+03	1.212358E-04	2.849280E-06
6.580130E+03	1.198196E-04	2.815291E-06
6.590115E+03	1.183910E-04	2.781070E-06
6.600100E+03	1.169380E-04	2.746330E-06
6.610085E+03	1.155255E-04	2.712592E-06
6.620070E+03	1.141437E-04	2.679626E-06
6.630055E+03	1.128518E-04	2.648816E-06
6.640040E+03	1.116299E-04	2.619697E-06
6.650025E+03	1.105217E-04	2.593289E-06
6.660010E+03	1.095103E-04	2.569192E-06
6.669995E+03	1.085735E-04	2.546884E-06
6.679980E+03	1.077371E-04	2.526968E-06
6.689965E+03	1.069569E-04	2.508405E-06
6.699950E+03	1.062570E-04	2.491760E-06
6.709935E+03	1.055955E-04	2.476048E-06
6.719920E+03	1.049834E-04	2.461524E-06
6.729905E+03	1.044330E-04	2.448479E-06
6.739890E+03	1.039093E-04	2.436087E-06
6.749875E+03	1.034442E-04	2.425100E-06
6.759860E+03	1.030052E-04	2.414750E-06
6.769845E+03	1.026255E-04	2.405817E-06
6.779830E+03	1.022735E-04	2.397562E-06
6.789815E+03	1.019831E-04	2.390772E-06
6.799800E+03	1.017228E-04	2.384717E-06
6.809785E+03	1.015098E-04	2.379792E-06
6.819770E+03	1.013600E-04	2.376374E-06
6.829755E+03	1.012407E-04	2.373693E-06
6.839740E+03	1.011662E-04	2.372087E-06
6.849725E+03	1.011505E-04	2.371882E-06
6.859710E+03	1.011593E-04	2.372275E-06
6.869695E+03	1.012224E-04	2.373962E-06
6.879680E+03	1.013060E-04	2.376154E-06
6.889666E+03	1.014249E-04	2.379197E-06
6.899651E+03	1.015948E-04	2.383458E-06
6.909636E+03	1.017840E-04	2.388193E-06
6.919621E+03	1.020093E-04	2.393799E-06
6.929606E+03	1.022885E-04	2.400692E-06
6.939591E+03	1.025910E-04	2.408153E-06
6.949576E+03	1.029342E-04	2.416594E-06
6.959561E+03	1.033187E-04	2.426026E-06
6.969546E+03	1.037600E-04	2.436818E-06
6.979531E+03	1.042234E-04	2.448149E-06
6.989516E+03	1.047217E-04	2.460326E-06
6.999501E+03	1.052515E-04	2.473269E-06
7.009486E+03	1.058275E-04	2.487322E-06
7.019471E+03	1.064174E-04	2.501727E-06
7.029456E+03	1.070444E-04	2.517030E-06
7.039441E+03	1.077228E-04	2.533566E-06
7.049426E+03	1.084932E-04	2.552296E-06
7.059411E+03	1.093560E-04	2.573228E-06
7.069396E+03	1.103740E-04	2.597841E-06
7.079381E+03	1.116031E-04	2.627457E-06
7.089366E+03	1.131069E-04	2.663577E-06
7.099351E+03	1.149523E-04	2.707783E-06
7.109336E+03	1.172216E-04	2.762021E-06
7.119321E+03	1.199313E-04	2.826690E-06
7.129306E+03	1.231338E-04	2.903035E-06
7.139291E+03	1.268359E-04	2.991229E-06
7.149276E+03	1.310095E-04	3.090620E-06
7.159261E+03	1.355857E-04	3.199598E-06
7.169246E+03	1.404532E-04	3.315544E-06
7.179231E+03	1.454838E-04	3.435442E-06
7.189216E+03	1.504496E-04	3.553916E-06
7.199201E+03	1.551742E-04	3.666792E-06
7.209186E+03	1.594612E-04	3.769431E-06
7.219171E+03	1.631384E-04	3.857750E-06
7.229156E+03	1.660760E-04	3.928662E-06
7.239141E+03	1.681987E-04	3.980369E-06
7.249126E+03	1.694888E-04	4.012434E-06
7.259111E+03	1.699805E-04	4.025642E-06
7.269096E+03	1.697462E-04	4.021685E-06
7.279081E+03	1.688792E-04	4.002761E-06
7.289066E+03	1.674782E-04	3.971183E-06
7.299051E+03	1.656337E-04	3.929086E-06
7.309036E+03	1.634211E-04	3.878246E-06
7.319021E+03	1.608991E-04	3.820045E-06
7.329006E+03	1.581122E-04	3.755528E-06
7.338992E+03	1.550962E-04	3.685533E-06
7.348977E+03	1.518837E-04	3.610831E-06
7.358962E+03	1.485102E-04	3.532258E-06
7.368947E+03	1.450176E-04	3.450801E-06
7.378932E+03	1.414548E-04	3.367622E-06
7.388917E+03	1.378765E-04	3.284017E-06
7.398902E+03	1.343390E-04	3.201327E-06
7.408887E+03	1.308960E-04	3.120832E-06
7.418872E+03	1.275939E-04	3.043641E-06
7.428857E+03	1.244696E-04	2.970635E-06
7.438842E+03	1.215486E-04	2.902431E-06
7.448827E+03	1.188461E-04	2.839399E-06
7.458812E+03	1.163499E-04	2.781252E-06
7.468797E+03	1.140972E-04	2.728887E-06
7.478782E+03	1.120641E-04	2.681740E-06
7.488767E+03	1.102428E-04	2.639634E-06
7.498752E+03	1.086238E-04	2.602347E-06
7.508737E+03	1.071964E-04	2.569632E-06
7.518722E+03	1.059494E-04	2.541223E-06
7.528707E+03	1.048706E-04	2.516841E-06
7.538692E+03	1.039306E-04	2.495782E-06
7.548677E+03	1.031486E-04	2.478516E-06
7.558662E+03	1.024923E-04	2.464271E-06
7.568647E+03	1.019444E-04	2.452637E-06
7.578632E+03	1.014862E-04	2.443170E-06
7.588617E+03	1.010820E-04	2.435010E-06
7.598602E+03	1.007443E-04	2.428466E-06
7.608587E+03	1.004381E-04	2.422692E-06
7.618572E+03	1.001463E-04	2.417282E-06
7.628557E+03	9.983945E-05	2.411521E-06
7.638542E+03	9.954020E-05	2.405958E-06
7.648527E+03	9.922905E-05	2.400122E-06
7.658512E+03	9.890893E-05	2.394083E-06
7.668497E+03	9.857333E-05	2.387683E-06
7.678482E+03	9.826809E-05	2.382032E-06
7.688467E+03	9.799384E-05	2.377148E-06
7.698452E+03	9.776558E-05	2.373396E-06
7.708437E+03	9.757737E-05	2.370635E-06
7.718422E+03	9.746218E-05	2.369668E-06
7.728407E+03	9.739739E-05	2.369951E-06
7.738392E+03	9.735294E-05	2.370753E-06
7.748377E+03	9.734053E-05	2.372361E-06
