#wls	flux	fluxerr
1.597604E+03	9.244691E-07	2.571677E-08
1.637544E+03	9.734985E-07	2.707092E-08
1.677484E+03	1.016400E-06	2.825346E-08
1.717424E+03	1.051980E-06	2.923142E-08
1.757364E+03	1.078690E-06	2.996196E-08
1.797304E+03	1.093500E-06	3.036121E-08
1.837244E+03	1.092147E-06	3.031120E-08
1.877184E+03	1.070862E-06	2.970797E-08
1.917124E+03	1.026697E-06	2.847045E-08
1.957064E+03	9.596929E-07	2.660065E-08
1.997004E+03	8.756178E-07	2.425925E-08
2.036945E+03	7.870644E-07	2.179571E-08
2.076885E+03	7.130740E-07	1.973731E-08
2.116825E+03	6.736356E-07	1.863657E-08
2.156765E+03	6.844023E-07	1.892494E-08
2.196705E+03	7.561255E-07	2.089747E-08
2.236645E+03	8.944376E-07	2.470706E-08
2.276585E+03	1.101235E-06	3.040299E-08
2.316525E+03	1.373661E-06	3.790321E-08
2.356465E+03	1.707129E-06	4.707784E-08
2.396405E+03	2.095909E-06	5.776576E-08
2.436345E+03	2.537360E-06	6.989113E-08
2.476286E+03	3.030631E-06	8.342738E-08
2.516226E+03	3.577363E-06	9.841649E-08
2.556166E+03	4.183489E-06	1.150182E-07
2.596106E+03	4.855203E-06	1.333987E-07
2.636046E+03	5.599756E-06	1.537528E-07
2.675986E+03	6.428308E-06	1.763818E-07
2.715926E+03	7.349899E-06	2.015276E-07
2.755866E+03	8.374503E-06	2.294572E-07
2.795806E+03	9.511486E-06	2.604193E-07
2.835746E+03	1.076879E-05	2.946232E-07
2.875686E+03	1.215188E-05	3.322090E-07
2.915627E+03	1.366004E-05	3.731474E-07
2.955567E+03	1.529450E-05	4.174619E-07
2.995507E+03	1.704329E-05	4.648152E-07
3.005492E+03	1.749805E-05	4.771192E-07
3.015477E+03	1.795544E-05	4.894890E-07
3.025462E+03	1.842140E-05	5.020868E-07
3.035447E+03	1.888990E-05	5.147480E-07
3.045432E+03	1.937039E-05	5.277297E-07
3.055417E+03	1.985909E-05	5.409293E-07
3.065402E+03	2.036190E-05	5.545064E-07
3.075387E+03	2.087045E-05	5.682336E-07
3.085372E+03	2.139093E-05	5.822791E-07
3.095357E+03	2.191462E-05	5.964051E-07
3.105342E+03	2.244805E-05	6.107892E-07
3.115327E+03	2.298619E-05	6.252946E-07
3.125312E+03	2.352365E-05	6.397744E-07
3.135297E+03	2.406753E-05	6.544215E-07
3.145282E+03	2.460815E-05	6.689725E-07
3.155267E+03	2.515298E-05	6.836310E-07
3.165252E+03	2.569200E-05	6.981240E-07
3.175237E+03	2.623313E-05	7.126670E-07
3.185222E+03	2.676599E-05	7.269782E-07
3.195207E+03	2.729897E-05	7.412848E-07
3.205192E+03	2.782138E-05	7.552974E-07
3.215177E+03	2.834207E-05	7.692557E-07
3.225162E+03	2.885008E-05	7.828628E-07
3.235147E+03	2.935474E-05	7.963716E-07
3.245132E+03	2.984485E-05	8.094786E-07
3.255117E+03	3.033022E-05	8.224496E-07
3.265102E+03	3.079943E-05	8.349757E-07
3.275087E+03	3.126277E-05	8.473358E-07
3.285072E+03	3.170866E-05	8.592160E-07
3.295057E+03	3.214784E-05	8.709076E-07
3.305042E+03	3.256856E-05	8.820925E-07
3.315027E+03	3.298202E-05	8.930746E-07
3.325012E+03	3.337633E-05	9.035316E-07
3.334998E+03	3.376312E-05	9.137790E-07
3.344983E+03	3.413643E-05	9.236554E-07
3.354968E+03	3.449009E-05	9.329941E-07
3.364953E+03	3.483635E-05	9.421270E-07
3.374938E+03	3.516295E-05	9.507229E-07
3.384923E+03	3.548254E-05	9.591233E-07
3.394908E+03	3.578272E-05	9.669942E-07
3.404893E+03	3.607645E-05	9.746853E-07
3.414878E+03	3.635123E-05	9.818598E-07
3.424863E+03	3.662031E-05	9.888751E-07
3.434848E+03	3.687107E-05	9.953913E-07
3.444833E+03	3.711701E-05	1.001773E-06
3.454818E+03	3.734541E-05	1.007676E-06
3.464803E+03	3.756996E-05	1.013471E-06
3.474788E+03	3.778456E-05	1.018994E-06
3.484773E+03	3.798295E-05	1.024076E-06
3.494758E+03	3.817913E-05	1.029093E-06
3.504743E+03	3.836008E-05	1.033697E-06
3.514728E+03	3.853995E-05	1.038267E-06
3.524713E+03	3.870560E-05	1.042451E-06
3.534698E+03	3.887132E-05	1.046634E-06
3.544683E+03	3.902387E-05	1.050458E-06
3.554668E+03	3.917761E-05	1.054310E-06
3.564653E+03	3.931921E-05	1.057833E-06
3.574638E+03	3.946313E-05	1.061415E-06
3.584623E+03	3.959591E-05	1.064694E-06
3.594608E+03	3.973209E-05	1.068061E-06
3.604593E+03	3.986515E-05	1.071341E-06
3.614578E+03	3.998848E-05	1.074356E-06
3.624563E+03	4.011673E-05	1.077501E-06
3.634548E+03	4.023612E-05	1.080404E-06
3.644533E+03	4.036133E-05	1.083461E-06
3.654518E+03	4.047847E-05	1.086297E-06
3.664503E+03	4.060227E-05	1.089310E-06
3.674488E+03	4.071869E-05	1.092122E-06
3.684473E+03	4.084252E-05	1.095129E-06
3.694458E+03	4.095957E-05	1.097951E-06
3.704443E+03	4.108466E-05	1.100985E-06
3.714428E+03	4.120348E-05	1.103849E-06
3.724413E+03	4.133085E-05	1.106938E-06
3.734398E+03	4.145970E-05	1.110064E-06
3.744383E+03	4.158282E-05	1.113033E-06
3.754368E+03	4.171508E-05	1.116244E-06
3.764353E+03	4.184185E-05	1.119304E-06
3.774338E+03	4.197801E-05	1.122612E-06
3.784324E+03	4.210878E-05	1.125773E-06
3.794309E+03	4.224912E-05	1.129186E-06
3.804294E+03	4.238407E-05	1.132452E-06
3.814279E+03	4.252863E-05	1.135970E-06
3.824264E+03	4.266772E-05	1.139340E-06
3.834249E+03	4.281638E-05	1.142961E-06
3.844234E+03	4.295941E-05	1.146428E-06
3.854219E+03	4.311190E-05	1.150144E-06
3.864204E+03	4.326616E-05	1.153903E-06
3.874189E+03	4.341440E-05	1.157498E-06
3.884174E+03	4.357182E-05	1.161334E-06
3.894159E+03	4.372290E-05	1.164998E-06
3.904144E+03	4.388295E-05	1.168896E-06
3.914129E+03	4.403631E-05	1.172612E-06
3.924114E+03	4.419840E-05	1.176557E-06
3.934099E+03	4.435346E-05	1.180311E-06
3.944084E+03	4.451704E-05	1.184287E-06
3.954069E+03	4.467329E-05	1.188065E-06
3.964054E+03	4.483785E-05	1.192060E-06
3.974039E+03	4.499481E-05	1.195848E-06
3.984024E+03	4.515998E-05	1.199851E-06
3.994009E+03	4.531734E-05	1.203642E-06
4.003994E+03	4.548286E-05	1.207646E-06
4.013979E+03	4.564044E-05	1.211435E-06
4.023964E+03	4.580622E-05	1.215438E-06
4.033949E+03	4.597216E-05	1.219441E-06
4.043934E+03	4.613017E-05	1.223229E-06
4.053919E+03	4.629658E-05	1.227236E-06
4.063904E+03	4.645517E-05	1.231032E-06
4.073889E+03	4.662243E-05	1.235053E-06
4.083874E+03	4.678204E-05	1.238867E-06
4.093859E+03	4.695065E-05	1.242916E-06
4.103844E+03	4.711187E-05	1.246765E-06
4.113829E+03	4.728249E-05	1.250858E-06
4.123814E+03	4.744601E-05	1.254760E-06
4.133799E+03	4.761937E-05	1.258917E-06
4.143784E+03	4.778593E-05	1.262891E-06
4.153769E+03	4.796277E-05	1.267131E-06
4.163754E+03	4.813313E-05	1.271197E-06
4.173739E+03	4.831419E-05	1.275540E-06
4.183724E+03	4.848903E-05	1.279715E-06
4.193709E+03	4.867492E-05	1.284177E-06
4.203694E+03	4.885480E-05	1.288476E-06
4.213679E+03	4.904596E-05	1.293068E-06
4.223665E+03	4.923118E-05	1.297498E-06
4.233650E+03	4.942779E-05	1.302225E-06
4.243635E+03	4.961833E-05	1.306786E-06
4.253620E+03	4.982015E-05	1.311640E-06
4.263605E+03	5.001550E-05	1.316318E-06
4.273590E+03	5.022176E-05	1.321279E-06
4.283575E+03	5.042084E-05	1.326046E-06
4.293560E+03	5.063006E-05	1.331075E-06
4.303545E+03	5.083101E-05	1.335882E-06
4.313530E+03	5.104089E-05	1.340918E-06
4.323515E+03	5.124092E-05	1.345690E-06
4.333500E+03	5.144817E-05	1.350647E-06
4.343485E+03	5.164350E-05	1.355287E-06
4.353470E+03	5.184395E-05	1.360055E-06
4.363455E+03	5.203013E-05	1.364445E-06
4.373440E+03	5.221934E-05	1.368910E-06
4.383425E+03	5.239244E-05	1.372948E-06
4.393410E+03	5.255831E-05	1.376792E-06
4.403395E+03	5.272641E-05	1.380690E-06
4.413380E+03	5.287863E-05	1.384168E-06
4.423365E+03	5.303418E-05	1.387730E-06
4.433350E+03	5.317504E-05	1.390903E-06
4.443335E+03	5.332052E-05	1.394193E-06
4.453320E+03	5.345236E-05	1.397123E-06
4.463305E+03	5.358984E-05	1.400197E-06
4.473290E+03	5.371449E-05	1.402932E-06
4.483275E+03	5.384552E-05	1.405830E-06
4.493260E+03	5.396421E-05	1.408403E-06
4.503245E+03	5.408976E-05	1.411151E-06
4.513230E+03	5.420331E-05	1.413582E-06
4.523215E+03	5.431447E-05	1.415949E-06
4.533200E+03	5.443298E-05	1.418503E-06
4.543185E+03	5.453978E-05	1.420749E-06
4.553170E+03	5.465420E-05	1.423191E-06
4.563155E+03	5.475713E-05	1.425330E-06
4.573140E+03	5.486800E-05	1.427672E-06
4.583125E+03	5.496768E-05	1.429721E-06
4.593110E+03	5.507572E-05	1.431984E-06
4.603095E+03	5.517297E-05	1.433963E-06
4.613080E+03	5.526941E-05	1.435919E-06
4.623065E+03	5.537506E-05	1.438110E-06
4.633050E+03	5.547079E-05	1.440042E-06
4.643035E+03	5.557646E-05	1.442228E-06
4.653020E+03	5.567296E-05	1.444173E-06
4.663005E+03	5.577044E-05	1.446141E-06
4.672991E+03	5.587917E-05	1.448398E-06
4.682976E+03	5.597996E-05	1.450446E-06
4.692961E+03	5.609299E-05	1.452808E-06
4.702946E+03	5.619899E-05	1.454985E-06
4.712931E+03	5.631821E-05	1.457502E-06
4.722916E+03	5.643136E-05	1.459857E-06
4.732901E+03	5.654881E-05	1.462321E-06
4.742886E+03	5.668098E-05	1.465163E-06
4.752871E+03	5.680845E-05	1.467879E-06
4.762856E+03	5.695165E-05	1.470998E-06
4.772841E+03	5.709102E-05	1.474015E-06
4.782826E+03	5.723699E-05	1.477198E-06
4.792811E+03	5.740006E-05	1.480819E-06
4.802796E+03	5.756050E-05	1.484368E-06
4.812781E+03	5.772874E-05	1.488114E-06
4.822766E+03	5.791533E-05	1.492329E-06
4.832751E+03	5.810030E-05	1.496498E-06
4.842736E+03	5.830436E-05	1.501154E-06
4.852721E+03	5.850738E-05	1.505778E-06
4.862706E+03	5.871983E-05	1.510640E-06
4.872691E+03	5.895236E-05	1.516013E-06
4.882676E+03	5.918451E-05	1.521371E-06
4.892661E+03	5.942686E-05	1.526986E-06
4.902646E+03	5.969007E-05	1.533131E-06
4.912631E+03	5.995341E-05	1.539274E-06
4.922616E+03	6.023808E-05	1.545958E-06
4.932601E+03	6.052311E-05	1.552644E-06
4.942586E+03	6.081913E-05	1.559607E-06
4.952571E+03	6.113702E-05	1.567123E-06
4.962556E+03	6.145542E-05	1.574646E-06
4.972541E+03	6.178510E-05	1.582450E-06
4.982526E+03	6.213700E-05	1.590816E-06
4.992511E+03	6.248938E-05	1.599187E-06
5.002496E+03	6.285311E-05	1.607840E-06
5.012481E+03	6.323924E-05	1.617059E-06
5.022466E+03	6.362563E-05	1.626276E-06
5.032451E+03	6.402323E-05	1.635771E-06
5.042436E+03	6.444325E-05	1.645830E-06
5.052421E+03	6.486302E-05	1.655874E-06
5.062406E+03	6.529365E-05	1.666186E-06
5.072391E+03	6.574648E-05	1.677055E-06
5.082376E+03	6.619832E-05	1.687890E-06
5.092361E+03	6.666038E-05	1.698975E-06
5.102346E+03	6.713239E-05	1.710305E-06
5.112332E+03	6.762589E-05	1.722172E-06
5.122317E+03	6.811689E-05	1.733966E-06
5.132302E+03	6.861678E-05	1.745975E-06
5.142287E+03	6.913723E-05	1.758497E-06
5.152272E+03	6.965361E-05	1.770906E-06
5.162257E+03	7.017743E-05	1.783492E-06
5.172242E+03	7.072048E-05	1.796557E-06
5.182227E+03	7.125744E-05	1.809457E-06
5.192212E+03	7.179993E-05	1.822486E-06
5.202197E+03	7.234720E-05	1.835625E-06
5.212182E+03	7.291124E-05	1.849179E-06
5.222167E+03	7.346572E-05	1.862479E-06
5.232152E+03	7.402243E-05	1.875825E-06
5.242137E+03	7.458038E-05	1.889192E-06
5.252122E+03	7.515174E-05	1.902888E-06
5.262107E+03	7.570916E-05	1.916219E-06
5.272092E+03	7.626457E-05	1.929490E-06
5.282077E+03	7.683026E-05	1.943009E-06
5.292062E+03	7.737815E-05	1.956068E-06
5.302047E+03	7.792029E-05	1.968972E-06
5.312032E+03	7.845535E-05	1.981687E-06
5.322017E+03	7.899576E-05	1.994527E-06
5.332002E+03	7.951247E-05	2.006759E-06
5.341987E+03	8.001775E-05	2.018694E-06
5.351972E+03	8.051002E-05	2.030292E-06
5.361957E+03	8.098772E-05	2.041514E-06
5.371942E+03	8.146345E-05	2.052678E-06
5.381927E+03	8.190707E-05	2.063025E-06
5.391912E+03	8.233100E-05	2.072870E-06
5.401897E+03	8.273344E-05	2.082167E-06
5.411882E+03	8.312710E-05	2.091236E-06
5.421867E+03	8.348102E-05	2.099301E-06
5.431852E+03	8.380772E-05	2.106676E-06
5.441837E+03	8.410528E-05	2.113314E-06
5.451822E+03	8.437179E-05	2.119169E-06
5.461807E+03	8.462039E-05	2.124572E-06
5.471792E+03	8.482011E-05	2.128745E-06
5.481777E+03	8.498497E-05	2.132042E-06
5.491762E+03	8.511498E-05	2.134464E-06
5.501747E+03	8.522579E-05	2.136405E-06
5.511732E+03	8.528912E-05	2.137157E-06
5.521717E+03	8.532186E-05	2.137144E-06
5.531702E+03	8.532640E-05	2.136427E-06
5.541687E+03	8.530524E-05	2.135069E-06
5.551672E+03	8.526093E-05	2.133135E-06
5.561658E+03	8.521088E-05	2.131061E-06
5.571643E+03	8.512773E-05	2.128163E-06
5.581628E+03	8.502875E-05	2.124874E-06
5.591613E+03	8.491623E-05	2.121251E-06
5.601598E+03	8.479237E-05	2.117350E-06
5.611583E+03	8.465924E-05	2.113223E-06
5.621568E+03	8.453362E-05	2.109288E-06
5.631553E+03	8.438779E-05	2.104854E-06
5.641538E+03	8.423835E-05	2.100336E-06
5.651523E+03	8.408697E-05	2.095776E-06
5.661508E+03	8.393523E-05	2.091211E-06
5.671493E+03	8.378458E-05	2.086680E-06
5.681478E+03	8.365105E-05	2.082581E-06
5.691463E+03	8.350658E-05	2.078215E-06
5.701448E+03	8.336699E-05	2.073975E-06
5.711433E+03	8.323333E-05	2.069889E-06
5.721418E+03	8.310659E-05	2.065980E-06
5.731403E+03	8.298764E-05	2.062270E-06
5.741388E+03	8.287728E-05	2.058779E-06
5.751373E+03	8.279070E-05	2.055883E-06
5.761358E+03	8.269959E-05	2.052879E-06
5.771343E+03	8.261900E-05	2.050141E-06
5.781328E+03	8.254947E-05	2.047682E-06
5.791313E+03	8.249150E-05	2.045514E-06
5.801298E+03	8.244551E-05	2.043647E-06
5.811283E+03	8.241193E-05	2.042092E-06
5.821268E+03	8.239113E-05	2.040858E-06
5.831253E+03	8.238349E-05	2.039953E-06
5.841238E+03	8.240377E-05	2.039742E-06
5.851223E+03	8.242349E-05	2.039521E-06
5.861208E+03	8.245743E-05	2.039654E-06
5.871193E+03	8.250593E-05	2.040151E-06
5.881178E+03	8.256936E-05	2.041019E-06
5.891163E+03	8.264808E-05	2.042268E-06
5.901148E+03	8.274247E-05	2.043906E-06
5.911133E+03	8.285291E-05	2.045942E-06
5.921118E+03	8.297976E-05	2.048386E-06
5.931103E+03	8.312344E-05	2.051246E-06
5.941088E+03	8.328433E-05	2.054533E-06
5.951073E+03	8.347737E-05	2.058613E-06
5.961058E+03	8.367376E-05	2.062778E-06
5.971043E+03	8.388839E-05	2.067392E-06
5.981028E+03	8.412155E-05	2.072464E-06
5.991013E+03	8.437347E-05	2.077998E-06
6.000999E+03	8.464433E-05	2.083999E-06
6.010984E+03	8.493422E-05	2.090469E-06
6.020969E+03	8.524317E-05	2.097407E-06
6.030954E+03	8.557108E-05	2.104811E-06
6.040939E+03	8.591778E-05	2.112677E-06
6.050924E+03	8.628291E-05	2.120995E-06
6.060909E+03	8.666602E-05	2.129755E-06
6.070894E+03	8.706650E-05	2.138940E-06
6.080879E+03	8.748354E-05	2.148530E-06
6.090864E+03	8.791622E-05	2.158504E-06
6.100849E+03	8.836339E-05	2.168832E-06
6.110834E+03	8.882373E-05	2.179482E-06
6.120819E+03	8.929574E-05	2.190416E-06
6.130804E+03	8.977771E-05	2.201594E-06
6.140789E+03	9.026779E-05	2.212969E-06
6.150774E+03	9.076394E-05	2.224491E-06
6.160759E+03	9.126391E-05	2.236106E-06
6.170744E+03	9.178141E-05	2.248150E-06
6.180729E+03	9.228193E-05	2.259776E-06
6.190714E+03	9.277885E-05	2.271313E-06
6.200699E+03	9.326948E-05	2.282696E-06
6.210684E+03	9.375106E-05	2.293858E-06
6.220669E+03	9.422086E-05	2.304732E-06
6.230654E+03	9.467611E-05	2.315250E-06
6.240639E+03	9.511412E-05	2.325347E-06
6.250624E+03	9.553223E-05	2.334960E-06
6.260609E+03	9.592793E-05	2.344026E-06
6.270594E+03	9.629880E-05	2.352488E-06
6.280579E+03	9.664263E-05	2.360293E-06
6.290564E+03	9.695738E-05	2.367391E-06
6.300549E+03	9.724120E-05	2.373737E-06
6.310534E+03	9.749248E-05	2.379293E-06
6.320519E+03	9.769274E-05	2.383610E-06
6.330504E+03	9.787501E-05	2.387493E-06
6.340489E+03	9.802129E-05	2.390505E-06
6.350474E+03	9.813092E-05	2.392629E-06
6.360459E+03	9.820341E-05	2.393855E-06
6.370444E+03	9.823852E-05	2.394178E-06
6.380429E+03	9.823613E-05	2.393595E-06
6.390414E+03	9.819629E-05	2.392109E-06
6.400399E+03	9.811916E-05	2.389724E-06
6.410384E+03	9.800502E-05	2.386447E-06
6.420369E+03	9.785418E-05	2.382286E-06
6.430354E+03	9.766693E-05	2.377250E-06
6.440339E+03	9.744365E-05	2.371348E-06
6.450325E+03	9.718459E-05	2.364586E-06
6.460310E+03	9.688997E-05	2.356971E-06
6.470295E+03	9.656000E-05	2.348507E-06
6.480280E+03	9.619481E-05	2.339198E-06
6.490265E+03	9.579464E-05	2.329050E-06
6.500250E+03	9.535991E-05	2.318074E-06
6.510235E+03	9.489145E-05	2.306290E-06
6.520220E+03	9.439065E-05	2.293732E-06
6.530205E+03	9.385952E-05	2.280449E-06
6.540190E+03	9.328428E-05	2.266107E-06
6.550175E+03	9.270071E-05	2.251575E-06
6.560160E+03	9.209585E-05	2.236537E-06
6.570145E+03	9.147323E-05	2.221080E-06
6.580130E+03	9.083635E-05	2.205289E-06
6.590115E+03	9.018854E-05	2.189244E-06
6.600100E+03	8.953293E-05	2.173021E-06
6.610085E+03	8.887240E-05	2.156690E-06
6.620070E+03	8.820962E-05	2.140317E-06
6.630055E+03	8.754703E-05	2.123958E-06
6.640040E+03	8.688686E-05	2.107669E-06
6.650025E+03	8.623118E-05	2.091500E-06
6.660010E+03	8.556686E-05	2.075132E-06
6.669995E+03	8.492570E-05	2.059335E-06
6.679980E+03	8.429416E-05	2.043781E-06
6.689965E+03	8.367368E-05	2.028505E-06
6.699950E+03	8.306559E-05	2.013539E-06
6.709935E+03	8.247107E-05	1.998911E-06
6.719920E+03	8.189122E-05	1.984647E-06
6.729905E+03	8.132704E-05	1.970771E-06
6.739890E+03	8.077942E-05	1.957306E-06
6.749875E+03	8.023516E-05	1.943929E-06
6.759860E+03	7.972317E-05	1.931343E-06
6.769845E+03	7.922998E-05	1.919219E-06
6.779830E+03	7.875621E-05	1.907574E-06
6.789815E+03	7.830239E-05	1.896418E-06
6.799800E+03	7.786898E-05	1.885764E-06
6.809785E+03	7.745641E-05	1.875621E-06
6.819770E+03	7.706502E-05	1.865998E-06
6.829755E+03	7.668172E-05	1.856578E-06
6.839740E+03	7.633368E-05	1.848017E-06
6.849725E+03	7.600760E-05	1.839993E-06
6.859710E+03	7.570364E-05	1.832511E-06
6.869695E+03	7.542195E-05	1.825574E-06
6.879680E+03	7.516256E-05	1.819182E-06
6.889666E+03	7.492551E-05	1.813336E-06
6.899651E+03	7.469769E-05	1.807719E-06
6.909636E+03	7.450524E-05	1.802963E-06
6.919621E+03	7.433489E-05	1.798747E-06
6.929606E+03	7.418647E-05	1.795067E-06
6.939591E+03	7.405976E-05	1.791916E-06
6.949576E+03	7.395448E-05	1.789289E-06
6.959561E+03	7.387027E-05	1.787176E-06
6.969546E+03	7.379381E-05	1.785255E-06
6.979531E+03	7.375048E-05	1.784141E-06
6.989516E+03	7.372677E-05	1.783505E-06
6.999501E+03	7.372207E-05	1.783334E-06
7.009486E+03	7.373567E-05	1.783609E-06
7.019471E+03	7.376679E-05	1.784313E-06
7.029456E+03	7.380163E-05	1.785112E-06
7.039441E+03	7.386508E-05	1.786606E-06
7.049426E+03	7.394314E-05	1.788458E-06
7.059411E+03	7.403469E-05	1.790641E-06
7.069396E+03	7.413851E-05	1.793125E-06
7.079381E+03	7.424026E-05	1.795563E-06
7.089366E+03	7.436455E-05	1.798551E-06
7.099351E+03	7.449691E-05	1.801738E-06
7.109336E+03	7.463582E-05	1.805088E-06
7.119321E+03	7.477965E-05	1.808561E-06
7.129306E+03	7.492679E-05	1.812119E-06
7.139291E+03	7.506238E-05	1.815402E-06
7.149276E+03	7.521102E-05	1.819005E-06
7.159261E+03	7.535787E-05	1.822569E-06
7.169246E+03	7.550124E-05	1.826054E-06
7.179231E+03	7.563954E-05	1.829420E-06
7.189216E+03	7.575783E-05	1.832308E-06
7.199201E+03	7.588116E-05	1.835322E-06
7.209186E+03	7.599484E-05	1.838107E-06
7.219171E+03	7.609760E-05	1.840633E-06
7.229156E+03	7.617488E-05	1.842547E-06
7.239141E+03	7.625234E-05	1.844471E-06
7.249126E+03	7.631579E-05	1.846060E-06
7.259111E+03	7.636455E-05	1.847299E-06
7.269096E+03	7.639808E-05	1.848175E-06
7.279081E+03	7.640270E-05	1.848356E-06
7.289066E+03	7.640506E-05	1.848487E-06
7.299051E+03	7.639183E-05	1.848246E-06
7.309036E+03	7.636328E-05	1.847638E-06
7.319021E+03	7.630646E-05	1.846352E-06
7.329006E+03	7.624874E-05	1.845049E-06
7.338992E+03	7.617752E-05	1.843424E-06
7.348977E+03	7.609373E-05	1.841500E-06
7.358962E+03	7.599842E-05	1.839302E-06
7.368947E+03	7.587948E-05	1.836537E-06
7.378932E+03	7.576482E-05	1.833880E-06
7.388917E+03	7.564244E-05	1.831041E-06
7.398902E+03	7.551377E-05	1.828055E-06
7.408887E+03	7.536708E-05	1.824637E-06
7.418872E+03	7.523029E-05	1.821463E-06
7.428857E+03	7.509166E-05	1.818251E-06
7.438842E+03	7.495265E-05	1.815033E-06
7.448827E+03	7.480162E-05	1.811530E-06
7.458812E+03	7.466623E-05	1.808409E-06
7.468797E+03	7.453470E-05	1.805388E-06
7.478782E+03	7.440831E-05	1.802496E-06
7.488767E+03	7.427528E-05	1.799448E-06
7.498752E+03	7.416279E-05	1.796903E-06
7.508737E+03	7.405886E-05	1.794570E-06
7.518722E+03	7.395146E-05	1.792158E-06
7.528707E+03	7.386742E-05	1.790318E-06
7.538692E+03	7.379449E-05	1.788753E-06
7.548677E+03	7.373336E-05	1.787479E-06
7.558662E+03	7.367164E-05	1.786196E-06
7.568647E+03	7.363564E-05	1.785543E-06
7.578632E+03	7.361279E-05	1.785214E-06
7.588617E+03	7.360336E-05	1.785217E-06
7.598602E+03	7.359462E-05	1.785243E-06
7.608587E+03	7.361245E-05	1.785920E-06
7.618572E+03	7.364395E-05	1.786935E-06
7.628557E+03	7.367609E-05	1.787972E-06
7.638542E+03	7.373455E-05	1.789654E-06
7.648527E+03	7.380618E-05	1.791664E-06
7.658512E+03	7.389065E-05	1.793992E-06
7.668497E+03	7.397457E-05	1.796314E-06
7.678482E+03	7.408344E-05	1.799250E-06
7.688467E+03	7.420377E-05	1.802472E-06
7.698452E+03	7.432193E-05	1.805649E-06
7.708437E+03	7.446333E-05	1.809399E-06
7.718422E+03	7.461423E-05	1.813388E-06
7.728407E+03	7.476073E-05	1.817279E-06
7.738392E+03	7.492821E-05	1.821689E-06
7.748377E+03	7.510270E-05	1.826278E-06
