#wls	flux	fluxerr
1.597540E+03	3.651523E-03	1.677786E-04
1.637478E+03	3.814669E-03	1.724259E-04
1.677417E+03	3.985154E-03	1.771581E-04
1.717355E+03	4.163785E-03	1.819993E-04
1.757294E+03	4.351441E-03	1.869751E-04
1.797232E+03	4.548953E-03	1.921083E-04
1.837171E+03	4.757125E-03	1.974192E-04
1.877109E+03	4.976934E-03	2.029351E-04
1.917048E+03	5.209449E-03	2.086860E-04
1.956986E+03	5.456280E-03	2.147224E-04
1.996925E+03	5.720213E-03	2.211387E-04
2.036863E+03	6.006618E-03	2.281227E-04
2.076802E+03	6.324168E-03	2.359743E-04
2.116740E+03	6.683989E-03	2.450655E-04
2.156679E+03	7.101777E-03	2.559088E-04
2.196617E+03	7.586404E-03	2.687327E-04
2.236556E+03	8.136180E-03	2.833775E-04
2.276494E+03	8.726567E-03	2.989104E-04
2.316433E+03	9.331403E-03	3.144033E-04
2.356371E+03	9.914015E-03	3.286341E-04
2.396310E+03	1.041482E-02	3.397086E-04
2.436248E+03	1.076317E-02	3.454957E-04
2.476187E+03	1.088445E-02	3.438751E-04
2.516125E+03	1.070823E-02	3.329921E-04
2.556064E+03	1.017776E-02	3.115369E-04
2.596002E+03	9.259214E-03	2.789803E-04
2.635941E+03	7.985658E-03	2.368229E-04
2.675879E+03	6.642816E-03	1.938726E-04
2.715818E+03	5.510712E-03	1.582441E-04
2.755756E+03	4.675363E-03	1.320571E-04
2.795695E+03	4.121304E-03	1.144582E-04
2.835633E+03	3.800462E-03	1.037340E-04
2.875572E+03	3.661118E-03	9.816304E-05
2.915510E+03	3.655786E-03	9.623050E-05
2.955449E+03	3.740728E-03	9.660666E-05
2.995387E+03	3.870395E-03	9.799908E-05
3.005372E+03	3.904764E-03	9.837064E-05
3.015356E+03	3.938997E-03	9.872784E-05
3.025341E+03	3.972877E-03	9.906527E-05
3.035326E+03	4.006311E-03	9.938068E-05
3.045310E+03	4.039367E-03	9.967592E-05
3.055295E+03	4.072217E-03	9.995524E-05
3.065279E+03	4.105056E-03	1.002235E-04
3.075264E+03	4.138131E-03	1.004866E-04
3.085249E+03	4.171736E-03	1.007516E-04
3.095233E+03	4.206184E-03	1.010257E-04
3.105218E+03	4.241776E-03	1.013157E-04
3.115203E+03	4.278855E-03	1.016294E-04
3.125187E+03	4.317760E-03	1.019741E-04
3.135172E+03	4.358865E-03	1.023578E-04
3.145156E+03	4.402480E-03	1.027870E-04
3.155141E+03	4.448960E-03	1.032687E-04
3.165126E+03	4.498540E-03	1.038073E-04
3.175110E+03	4.551431E-03	1.044064E-04
3.185095E+03	4.607728E-03	1.050667E-04
3.195080E+03	4.667399E-03	1.057862E-04
3.205064E+03	4.730351E-03	1.065613E-04
3.215049E+03	4.796397E-03	1.073867E-04
3.225033E+03	4.865328E-03	1.082563E-04
3.235018E+03	4.936982E-03	1.091655E-04
3.245003E+03	5.011285E-03	1.101116E-04
3.254987E+03	5.088317E-03	1.110952E-04
3.264972E+03	5.168405E-03	1.121224E-04
3.274957E+03	5.251981E-03	1.132014E-04
3.284941E+03	5.339687E-03	1.143445E-04
3.294926E+03	5.432257E-03	1.155658E-04
3.304910E+03	5.530417E-03	1.168787E-04
3.314895E+03	5.634791E-03	1.182941E-04
3.324880E+03	5.745859E-03	1.198196E-04
3.334864E+03	5.863790E-03	1.214561E-04
3.344849E+03	5.988411E-03	1.231974E-04
3.354834E+03	6.119175E-03	1.250299E-04
3.364818E+03	6.255052E-03	1.269302E-04
3.374803E+03	6.394620E-03	1.288680E-04
3.384787E+03	6.535870E-03	1.308018E-04
3.394772E+03	6.676194E-03	1.326796E-04
3.404757E+03	6.812524E-03	1.344415E-04
3.414741E+03	6.941635E-03	1.360267E-04
3.424726E+03	7.060868E-03	1.373868E-04
3.434711E+03	7.168756E-03	1.384982E-04
3.444695E+03	7.264754E-03	1.393555E-04
3.454680E+03	7.348588E-03	1.399592E-04
3.464664E+03	7.420224E-03	1.403140E-04
3.474649E+03	7.479635E-03	1.404250E-04
3.484634E+03	7.526762E-03	1.402967E-04
3.494618E+03	7.561542E-03	1.399335E-04
3.504603E+03	7.584091E-03	1.393429E-04
3.514588E+03	7.595190E-03	1.385446E-04
3.524572E+03	7.596706E-03	1.375774E-04
3.534557E+03	7.590696E-03	1.364828E-04
3.544541E+03	7.578693E-03	1.352913E-04
3.554526E+03	7.561511E-03	1.340201E-04
3.564511E+03	7.539789E-03	1.326830E-04
3.574495E+03	7.515238E-03	1.313120E-04
3.584480E+03	7.491407E-03	1.299701E-04
3.594465E+03	7.471473E-03	1.287122E-04
3.604449E+03	7.455211E-03	1.275333E-04
3.614434E+03	7.440947E-03	1.264035E-04
3.624418E+03	7.427571E-03	1.253029E-04
3.634403E+03	7.414348E-03	1.242183E-04
3.644388E+03	7.400129E-03	1.231302E-04
3.654372E+03	7.383437E-03	1.220139E-04
3.664357E+03	7.363051E-03	1.208499E-04
3.674342E+03	7.338606E-03	1.196328E-04
3.684326E+03	7.309696E-03	1.183571E-04
3.694311E+03	7.276019E-03	1.170189E-04
3.704295E+03	7.238146E-03	1.156283E-04
3.714280E+03	7.196695E-03	1.141960E-04
3.724265E+03	7.151234E-03	1.127160E-04
3.734249E+03	7.100760E-03	1.111733E-04
3.744234E+03	7.044533E-03	1.095575E-04
3.754219E+03	6.981907E-03	1.078600E-04
3.764203E+03	6.911683E-03	1.060640E-04
3.774188E+03	6.834485E-03	1.041809E-04
3.784172E+03	6.753879E-03	1.022664E-04
3.794157E+03	6.675110E-03	1.004002E-04
3.804142E+03	6.605389E-03	9.868887E-05
3.814126E+03	6.551691E-03	9.723309E-05
3.824111E+03	6.518174E-03	9.608905E-05
3.834095E+03	6.506727E-03	9.527820E-05
3.844080E+03	6.516514E-03	9.478172E-05
3.854065E+03	6.541890E-03	9.451171E-05
3.864049E+03	6.573787E-03	9.433346E-05
3.874034E+03	6.603050E-03	9.411457E-05
3.884019E+03	6.622940E-03	9.376040E-05
3.894003E+03	6.627547E-03	9.319064E-05
3.903988E+03	6.612626E-03	9.235041E-05
3.913972E+03	6.578911E-03	9.125551E-05
3.923957E+03	6.529651E-03	8.995612E-05
3.933942E+03	6.468938E-03	8.851266E-05
3.943926E+03	6.402636E-03	8.700811E-05
3.953911E+03	6.338062E-03	8.554286E-05
3.963896E+03	6.281622E-03	8.420241E-05
3.973880E+03	6.236544E-03	8.302760E-05
3.983865E+03	6.205535E-03	8.205133E-05
3.993849E+03	6.190184E-03	8.129083E-05
4.003834E+03	6.187570E-03	8.070412E-05
4.013819E+03	6.192767E-03	8.022431E-05
4.023803E+03	6.200890E-03	7.978691E-05
4.033788E+03	6.206989E-03	7.932832E-05
4.043773E+03	6.205490E-03	7.877885E-05
4.053757E+03	6.191609E-03	7.808058E-05
4.063742E+03	6.163250E-03	7.721089E-05
4.073726E+03	6.120025E-03	7.616902E-05
4.083711E+03	6.062269E-03	7.496319E-05
4.093696E+03	5.990832E-03	7.360771E-05
4.103680E+03	5.907996E-03	7.213402E-05
4.113665E+03	5.816586E-03	7.057927E-05
4.123650E+03	5.718527E-03	6.896884E-05
4.133634E+03	5.616686E-03	6.733870E-05
4.143619E+03	5.515498E-03	6.574261E-05
4.153603E+03	5.420331E-03	6.424416E-05
4.163588E+03	5.337792E-03	6.292008E-05
4.173573E+03	5.274218E-03	6.184238E-05
4.183557E+03	5.233847E-03	6.105722E-05
4.193542E+03	5.220328E-03	6.060323E-05
4.203527E+03	5.236331E-03	6.050736E-05
4.213511E+03	5.281249E-03	6.075880E-05
4.223496E+03	5.351995E-03	6.131898E-05
4.233480E+03	5.443084E-03	6.212316E-05
4.243465E+03	5.544164E-03	6.305266E-05
4.253450E+03	5.640147E-03	6.393716E-05
4.263434E+03	5.716307E-03	6.461267E-05
4.273419E+03	5.764383E-03	6.498968E-05
4.283404E+03	5.778422E-03	6.500506E-05
4.293388E+03	5.755104E-03	6.462497E-05
4.303373E+03	5.698891E-03	6.390217E-05
4.313357E+03	5.618882E-03	6.294010E-05
4.323342E+03	5.525177E-03	6.185203E-05
4.333327E+03	5.428430E-03	6.075561E-05
4.343311E+03	5.340483E-03	5.978106E-05
4.353296E+03	5.270636E-03	5.903039E-05
4.363281E+03	5.220727E-03	5.852256E-05
4.373265E+03	5.187319E-03	5.821787E-05
4.383250E+03	5.164572E-03	5.804989E-05
4.393234E+03	5.146869E-03	5.795451E-05
4.403219E+03	5.132105E-03	5.790698E-05
4.413204E+03	5.119709E-03	5.789978E-05
4.423188E+03	5.107673E-03	5.790909E-05
4.433173E+03	5.093053E-03	5.790026E-05
4.443158E+03	5.073646E-03	5.784670E-05
4.453142E+03	5.048530E-03	5.773619E-05
4.463127E+03	5.016726E-03	5.755568E-05
4.473111E+03	4.977319E-03	5.729271E-05
4.483096E+03	4.931108E-03	5.695445E-05
4.493081E+03	4.878316E-03	5.654151E-05
4.503065E+03	4.819245E-03	5.605552E-05
4.513050E+03	4.757044E-03	5.553138E-05
4.523035E+03	4.695259E-03	5.500926E-05
4.533019E+03	4.636307E-03	5.451670E-05
4.543004E+03	4.582448E-03	5.407988E-05
4.552988E+03	4.535430E-03	5.371938E-05
4.562973E+03	4.495500E-03	5.343828E-05
4.572958E+03	4.461010E-03	5.321716E-05
4.582942E+03	4.429672E-03	5.302868E-05
4.592927E+03	4.398355E-03	5.283506E-05
4.602912E+03	4.362554E-03	5.258145E-05
4.612896E+03	4.318331E-03	5.221921E-05
4.622881E+03	4.263616E-03	5.172179E-05
4.632865E+03	4.197817E-03	5.108046E-05
4.642850E+03	4.122966E-03	5.031853E-05
4.652835E+03	4.044230E-03	4.949810E-05
4.662819E+03	3.968816E-03	4.870712E-05
4.672804E+03	3.905582E-03	4.805488E-05
4.682789E+03	3.862297E-03	4.763831E-05
4.692773E+03	3.843085E-03	4.751006E-05
4.702758E+03	3.850800E-03	4.770733E-05
4.712742E+03	3.888049E-03	4.826429E-05
4.722727E+03	3.956075E-03	4.919805E-05
4.732712E+03	4.054332E-03	5.050326E-05
4.742696E+03	4.179193E-03	5.213564E-05
4.752681E+03	4.321582E-03	5.398229E-05
4.762665E+03	4.466681E-03	5.585758E-05
4.772650E+03	4.598779E-03	5.756383E-05
4.782635E+03	4.706942E-03	5.896246E-05
4.792619E+03	4.782357E-03	5.994144E-05
4.802604E+03	4.818545E-03	6.041811E-05
4.812589E+03	4.816059E-03	6.039846E-05
4.822573E+03	4.779211E-03	5.993618E-05
4.832558E+03	4.713289E-03	5.909775E-05
4.842542E+03	4.625626E-03	5.797571E-05
4.852527E+03	4.524483E-03	5.667445E-05
4.862512E+03	4.417609E-03	5.529196E-05
4.872496E+03	4.311996E-03	5.391664E-05
4.882481E+03	4.213885E-03	5.262715E-05
4.892466E+03	4.127259E-03	5.147361E-05
4.902450E+03	4.052439E-03	5.046007E-05
4.912435E+03	3.987774E-03	4.956594E-05
4.922419E+03	3.931079E-03	4.876396E-05
4.932404E+03	3.879628E-03	4.802030E-05
4.942389E+03	3.830256E-03	4.729592E-05
4.952373E+03	3.780586E-03	4.656183E-05
4.962358E+03	3.730369E-03	4.581549E-05
4.972343E+03	3.680294E-03	4.506587E-05
4.982327E+03	3.631361E-03	4.432567E-05
4.992312E+03	3.585418E-03	4.361774E-05
5.002296E+03	3.545008E-03	4.297301E-05
5.012281E+03	3.512038E-03	4.241427E-05
5.022266E+03	3.486643E-03	4.194255E-05
5.032250E+03	3.468513E-03	4.155346E-05
5.042235E+03	3.457028E-03	4.123885E-05
5.052220E+03	3.450168E-03	4.097405E-05
5.062204E+03	3.445163E-03	4.072590E-05
5.072189E+03	3.439937E-03	4.046999E-05
5.082173E+03	3.433528E-03	4.019544E-05
5.092158E+03	3.425001E-03	3.989193E-05
5.102143E+03	3.413454E-03	3.954976E-05
5.112127E+03	3.399328E-03	3.917499E-05
5.122112E+03	3.383008E-03	3.877293E-05
5.132097E+03	3.364211E-03	3.834126E-05
5.142081E+03	3.343009E-03	3.788173E-05
5.152066E+03	3.319604E-03	3.739758E-05
5.162050E+03	3.294134E-03	3.689129E-05
5.172035E+03	3.266773E-03	3.636574E-05
5.182020E+03	3.237904E-03	3.582606E-05
5.192004E+03	3.208218E-03	3.528069E-05
5.201989E+03	3.178149E-03	3.473506E-05
5.211974E+03	3.147931E-03	3.419233E-05
5.221958E+03	3.117729E-03	3.365483E-05
5.231943E+03	3.087676E-03	3.312450E-05
5.241927E+03	3.057677E-03	3.260082E-05
5.251912E+03	3.027471E-03	3.208154E-05
5.261897E+03	2.996977E-03	3.156635E-05
5.271881E+03	2.966317E-03	3.105707E-05
5.281866E+03	2.935889E-03	3.055837E-05
5.291851E+03	2.906468E-03	3.007868E-05
5.301835E+03	2.879206E-03	2.963016E-05
5.311820E+03	2.854896E-03	2.922099E-05
5.321804E+03	2.833272E-03	2.884844E-05
5.331789E+03	2.813857E-03	2.850771E-05
5.341774E+03	2.796419E-03	2.819657E-05
5.351758E+03	2.780805E-03	2.791368E-05
5.361743E+03	2.766974E-03	2.765884E-05
5.371728E+03	2.754868E-03	2.743169E-05
5.381712E+03	2.744000E-03	2.722764E-05
5.391697E+03	2.733608E-03	2.703949E-05
5.401681E+03	2.723288E-03	2.686361E-05
5.411666E+03	2.713108E-03	2.670106E-05
5.421651E+03	2.703423E-03	2.655566E-05
5.431635E+03	2.694755E-03	2.643256E-05
5.441620E+03	2.688164E-03	2.634152E-05
5.451605E+03	2.684021E-03	2.628551E-05
5.461589E+03	2.680997E-03	2.625083E-05
5.471574E+03	2.675382E-03	2.620053E-05
5.481558E+03	2.662279E-03	2.608593E-05
5.491543E+03	2.639453E-03	2.588429E-05
5.501528E+03	2.609949E-03	2.562439E-05
5.511512E+03	2.578443E-03	2.535114E-05
5.521497E+03	2.548279E-03	2.509652E-05
5.531482E+03	2.521131E-03	2.487629E-05
5.541466E+03	2.497549E-03	2.469529E-05
5.551451E+03	2.477586E-03	2.455354E-05
5.561435E+03	2.461351E-03	2.445169E-05
5.571420E+03	2.448582E-03	2.438678E-05
5.581405E+03	2.438768E-03	2.435335E-05
5.591389E+03	2.431184E-03	2.434384E-05
5.601374E+03	2.424866E-03	2.434820E-05
5.611359E+03	2.418692E-03	2.435473E-05
5.621343E+03	2.412005E-03	2.435630E-05
5.631328E+03	2.404299E-03	2.434728E-05
5.641312E+03	2.395012E-03	2.432142E-05
5.651297E+03	2.383394E-03	2.427054E-05
5.661282E+03	2.369049E-03	2.418996E-05
5.671266E+03	2.352104E-03	2.408042E-05
5.681251E+03	2.333208E-03	2.394800E-05
5.691235E+03	2.313818E-03	2.380726E-05
5.701220E+03	2.296062E-03	2.367981E-05
5.711205E+03	2.282324E-03	2.359019E-05
5.721189E+03	2.275095E-03	2.356419E-05
5.731174E+03	2.276170E-03	2.362063E-05
5.741159E+03	2.286123E-03	2.376570E-05
5.751143E+03	2.303998E-03	2.398963E-05
5.761128E+03	2.328003E-03	2.427381E-05
5.771112E+03	2.356021E-03	2.459603E-05
5.781097E+03	2.385176E-03	2.492605E-05
5.791082E+03	2.412436E-03	2.523180E-05
5.801066E+03	2.436521E-03	2.549949E-05
5.811051E+03	2.456750E-03	2.572161E-05
5.821036E+03	2.471969E-03	2.588573E-05
5.831020E+03	2.481176E-03	2.598111E-05
5.841005E+03	2.483410E-03	2.599751E-05
5.850989E+03	2.478366E-03	2.593169E-05
5.860974E+03	2.466674E-03	2.579029E-05
5.870959E+03	2.449773E-03	2.558852E-05
5.880943E+03	2.429260E-03	2.534329E-05
5.890928E+03	2.406636E-03	2.507050E-05
5.900913E+03	2.383187E-03	2.478377E-05
5.910897E+03	2.359779E-03	2.449231E-05
5.920882E+03	2.336769E-03	2.420002E-05
5.930866E+03	2.314270E-03	2.390825E-05
5.940851E+03	2.292350E-03	2.361787E-05
5.950836E+03	2.271335E-03	2.333241E-05
5.960820E+03	2.251617E-03	2.305606E-05
5.970805E+03	2.233417E-03	2.279119E-05
5.980790E+03	2.216722E-03	2.253773E-05
5.990774E+03	2.201263E-03	2.229306E-05
6.000759E+03	2.186955E-03	2.205642E-05
6.010743E+03	2.173695E-03	2.182690E-05
6.020728E+03	2.161453E-03	2.160433E-05
6.030713E+03	2.150250E-03	2.138905E-05
6.040697E+03	2.140074E-03	2.118109E-05
6.050682E+03	2.130855E-03	2.097992E-05
6.060667E+03	2.122222E-03	2.078205E-05
6.070651E+03	2.114023E-03	2.058623E-05
6.080636E+03	2.105753E-03	2.038787E-05
6.090620E+03	2.096677E-03	2.018026E-05
6.100605E+03	2.085911E-03	1.995545E-05
6.110590E+03	2.072566E-03	1.970571E-05
6.120574E+03	2.055921E-03	1.942509E-05
6.130559E+03	2.035966E-03	1.911456E-05
6.140544E+03	2.013193E-03	1.877975E-05
6.150528E+03	1.988448E-03	1.842949E-05
6.160513E+03	1.963402E-03	1.808002E-05
6.170497E+03	1.940233E-03	1.775177E-05
6.180482E+03	1.920740E-03	1.746125E-05
6.190467E+03	1.906225E-03	1.722009E-05
6.200451E+03	1.897819E-03	1.703810E-05
6.210436E+03	1.896071E-03	1.691971E-05
6.220421E+03	1.900196E-03	1.685749E-05
6.230405E+03	1.908856E-03	1.683938E-05
6.240390E+03	1.920444E-03	1.685135E-05
6.250374E+03	1.932903E-03	1.687580E-05
6.260359E+03	1.943391E-03	1.688875E-05
6.270344E+03	1.949271E-03	1.686845E-05
6.280328E+03	1.949443E-03	1.680676E-05
6.290313E+03	1.942680E-03	1.669442E-05
6.300298E+03	1.928189E-03	1.652587E-05
6.310282E+03	1.907542E-03	1.631558E-05
6.320267E+03	1.883322E-03	1.608634E-05
6.330251E+03	1.858119E-03	1.586063E-05
6.340236E+03	1.835043E-03	1.566523E-05
6.350221E+03	1.817997E-03	1.553368E-05
6.360205E+03	1.810345E-03	1.549514E-05
6.370190E+03	1.813424E-03	1.556192E-05
6.380175E+03	1.828621E-03	1.574726E-05
6.390159E+03	1.859310E-03	1.608215E-05
6.400144E+03	1.911333E-03	1.661961E-05
6.410128E+03	1.990301E-03	1.741239E-05
6.420113E+03	2.100284E-03	1.850187E-05
6.430098E+03	2.242771E-03	1.990868E-05
6.440082E+03	2.410876E-03	2.158004E-05
6.450067E+03	2.588334E-03	2.337729E-05
6.460052E+03	2.754626E-03	2.511812E-05
6.470036E+03	2.881932E-03	2.654541E-05
6.480021E+03	2.945229E-03	2.741663E-05
6.490005E+03	2.942584E-03	2.769482E-05
6.499990E+03	2.890558E-03	2.751628E-05
6.509975E+03	2.817136E-03	2.713293E-05
6.519959E+03	2.755135E-03	2.685563E-05
6.529944E+03	2.717003E-03	2.680954E-05
6.539929E+03	2.691026E-03	2.688495E-05
6.549913E+03	2.663527E-03	2.694692E-05
6.559898E+03	2.627837E-03	2.692548E-05
6.569882E+03	2.581870E-03	2.679477E-05
6.579867E+03	2.525565E-03	2.654903E-05
6.589852E+03	2.461287E-03	2.620828E-05
6.599836E+03	2.393043E-03	2.581145E-05
6.609821E+03	2.323539E-03	2.538555E-05
6.619805E+03	2.255734E-03	2.496196E-05
6.629790E+03	2.192353E-03	2.457119E-05
6.639775E+03	2.134238E-03	2.422401E-05
6.649759E+03	2.081719E-03	2.392590E-05
6.659744E+03	2.035069E-03	2.368192E-05
6.669729E+03	1.993475E-03	2.348463E-05
6.679713E+03	1.956043E-03	2.332514E-05
6.689698E+03	1.922316E-03	2.319939E-05
6.699682E+03	1.891458E-03	2.309850E-05
6.709667E+03	1.862849E-03	2.301578E-05
6.719652E+03	1.836088E-03	2.294695E-05
6.729636E+03	1.810738E-03	2.288707E-05
6.739621E+03	1.786473E-03	2.283238E-05
6.749606E+03	1.763070E-03	2.278031E-05
6.759590E+03	1.740540E-03	2.273121E-05
6.769575E+03	1.718988E-03	2.268673E-05
6.779559E+03	1.698407E-03	2.264706E-05
6.789544E+03	1.678775E-03	2.261222E-05
6.799529E+03	1.659913E-03	2.258008E-05
6.809513E+03	1.641692E-03	2.254909E-05
6.819498E+03	1.623762E-03	2.251462E-05
6.829483E+03	1.605896E-03	2.247356E-05
6.839467E+03	1.588092E-03	2.242586E-05
6.849452E+03	1.570597E-03	2.237505E-05
6.859436E+03	1.553868E-03	2.232781E-05
6.869421E+03	1.538359E-03	2.229098E-05
6.879406E+03	1.524417E-03	2.227010E-05
6.889390E+03	1.512261E-03	2.226892E-05
6.899375E+03	1.501958E-03	2.228906E-05
6.909360E+03	1.493666E-03	2.233351E-05
6.919344E+03	1.487388E-03	2.240298E-05
6.929329E+03	1.482962E-03	2.249564E-05
6.939313E+03	1.480297E-03	2.261066E-05
6.949298E+03	1.479042E-03	2.274315E-05
6.959283E+03	1.478808E-03	2.288750E-05
6.969267E+03	1.479030E-03	2.303514E-05
6.979252E+03	1.479134E-03	2.317714E-05
6.989237E+03	1.478405E-03	2.330218E-05
6.999221E+03	1.476353E-03	2.340221E-05
7.009206E+03	1.472600E-03	2.347081E-05
7.019190E+03	1.466888E-03	2.350343E-05
7.029175E+03	1.459283E-03	2.350061E-05
7.039160E+03	1.450060E-03	2.346639E-05
7.049144E+03	1.439672E-03	2.340779E-05
7.059129E+03	1.428769E-03	2.333523E-05
7.069114E+03	1.418037E-03	2.325992E-05
7.079098E+03	1.408079E-03	2.319189E-05
7.089083E+03	1.399173E-03	2.313597E-05
7.099067E+03	1.391475E-03	2.309502E-05
7.109052E+03	1.384785E-03	2.306596E-05
7.119037E+03	1.378743E-03	2.304302E-05
7.129021E+03	1.372874E-03	2.301841E-05
7.139006E+03	1.366750E-03	2.298499E-05
7.148991E+03	1.360163E-03	2.293926E-05
7.158975E+03	1.353158E-03	2.288199E-05
7.168960E+03	1.345739E-03	2.281323E-05
7.178944E+03	1.338012E-03	2.273483E-05
7.188929E+03	1.330094E-03	2.264880E-05
7.198914E+03	1.322017E-03	2.255577E-05
7.208898E+03	1.313810E-03	2.245628E-05
7.218883E+03	1.305444E-03	2.234990E-05
7.228868E+03	1.296860E-03	2.223574E-05
7.238852E+03	1.288214E-03	2.211653E-05
7.248837E+03	1.279561E-03	2.199328E-05
7.258821E+03	1.271082E-03	2.186925E-05
7.268806E+03	1.262945E-03	2.174743E-05
7.278791E+03	1.255261E-03	2.162983E-05
7.288775E+03	1.248194E-03	2.151940E-05
7.298760E+03	1.241857E-03	2.141821E-05
7.308745E+03	1.236304E-03	2.132730E-05
7.318729E+03	1.231508E-03	2.124627E-05
7.328714E+03	1.227460E-03	2.117509E-05
7.338698E+03	1.223996E-03	2.111100E-05
7.348683E+03	1.220930E-03	2.105084E-05
7.358668E+03	1.218134E-03	2.099251E-05
7.368652E+03	1.215415E-03	2.093275E-05
7.378637E+03	1.212556E-03	2.086790E-05
7.388622E+03	1.209451E-03	2.079623E-05
7.398606E+03	1.205991E-03	2.071596E-05
7.408591E+03	1.202055E-03	2.062517E-05
7.418575E+03	1.197590E-03	2.052304E-05
7.428560E+03	1.192436E-03	2.040699E-05
7.438545E+03	1.186426E-03	2.027434E-05
7.448529E+03	1.179108E-03	2.011754E-05
7.458514E+03	1.170042E-03	1.992936E-05
7.468499E+03	1.158876E-03	1.970408E-05
7.478483E+03	1.145485E-03	1.943997E-05
7.488468E+03	1.130010E-03	1.913975E-05
7.498452E+03	1.112801E-03	1.880973E-05
7.508437E+03	1.094442E-03	1.846012E-05
7.518422E+03	1.075845E-03	1.810659E-05
7.528406E+03	1.057804E-03	1.776265E-05
7.538391E+03	1.041094E-03	1.744141E-05
7.548376E+03	1.026457E-03	1.715530E-05
7.558360E+03	1.014533E-03	1.691487E-05
7.568345E+03	1.005568E-03	1.672406E-05
7.578329E+03	9.997585E-04	1.658589E-05
7.588314E+03	9.970916E-04	1.649990E-05
7.598299E+03	9.973237E-04	1.646183E-05
7.608283E+03	1.000050E-03	1.646480E-05
7.618268E+03	1.004919E-03	1.650286E-05
7.628252E+03	1.011581E-03	1.657017E-05
7.638237E+03	1.019620E-03	1.665989E-05
7.648222E+03	1.028638E-03	1.676556E-05
7.658206E+03	1.038194E-03	1.688006E-05
7.668191E+03	1.047674E-03	1.699360E-05
7.678176E+03	1.056473E-03	1.709659E-05
7.688160E+03	1.064180E-03	1.718273E-05
7.698145E+03	1.070475E-03	1.724721E-05
7.708129E+03	1.075003E-03	1.728470E-05
7.718114E+03	1.077767E-03	1.729568E-05
7.728099E+03	1.078944E-03	1.728337E-05
7.738083E+03	1.078634E-03	1.724974E-05
7.748068E+03	1.077164E-03	1.720039E-05
