#wls	flux	fluxerr
1.597540E+03	6.993757E-06	3.736099E-08
1.637478E+03	6.142969E-06	3.281598E-08
1.677417E+03	5.379820E-06	2.873916E-08
1.717355E+03	4.701271E-06	2.511428E-08
1.757294E+03	4.101648E-06	2.191105E-08
1.797232E+03	3.577641E-06	1.911176E-08
1.837171E+03	3.123733E-06	1.668696E-08
1.877109E+03	2.734564E-06	1.460800E-08
1.917048E+03	2.405016E-06	1.284754E-08
1.956986E+03	2.131685E-06	1.138739E-08
1.996925E+03	1.909463E-06	1.020027E-08
2.036863E+03	1.734621E-06	9.266254E-09
2.076802E+03	1.605051E-06	8.574083E-09
2.116740E+03	1.518431E-06	8.111351E-09
2.156679E+03	1.474350E-06	7.875865E-09
2.196617E+03	1.471004E-06	7.857975E-09
2.236556E+03	1.508213E-06	8.056729E-09
2.276494E+03	1.584787E-06	8.465768E-09
2.316433E+03	1.700549E-06	9.084144E-09
2.356371E+03	1.854766E-06	9.907939E-09
2.396310E+03	2.045367E-06	1.092609E-08
2.436248E+03	2.270841E-06	1.213053E-08
2.476187E+03	2.530294E-06	1.351647E-08
2.516125E+03	2.824385E-06	1.508744E-08
2.556064E+03	3.159271E-06	1.687633E-08
2.596002E+03	3.550744E-06	1.896748E-08
2.635941E+03	4.025408E-06	2.150303E-08
2.675879E+03	4.628349E-06	2.472380E-08
2.715818E+03	5.426832E-06	2.898911E-08
2.755756E+03	6.518443E-06	3.482024E-08
2.795695E+03	8.046866E-06	4.298472E-08
2.835633E+03	1.021512E-05	5.456699E-08
2.875572E+03	1.330921E-05	7.109490E-08
2.915510E+03	1.771948E-05	9.465349E-08
2.955449E+03	2.395715E-05	1.279735E-07
2.995387E+03	3.266196E-05	1.744723E-07
3.005372E+03	3.530663E-05	1.885995E-07
3.015356E+03	3.816607E-05	2.038738E-07
3.025341E+03	4.124871E-05	2.203405E-07
3.035326E+03	4.456618E-05	2.380615E-07
3.045310E+03	4.812995E-05	2.570982E-07
3.055295E+03	5.195583E-05	2.775350E-07
3.065279E+03	5.605453E-05	2.994292E-07
3.075264E+03	6.043037E-05	3.228037E-07
3.085249E+03	6.509078E-05	3.476984E-07
3.095233E+03	7.005372E-05	3.742090E-07
3.105218E+03	7.531188E-05	4.022966E-07
3.115203E+03	8.087325E-05	4.320038E-07
3.125187E+03	8.673699E-05	4.633263E-07
3.135172E+03	9.289129E-05	4.962008E-07
3.145156E+03	9.934275E-05	5.306626E-07
3.155141E+03	1.060716E-04	5.666060E-07
3.165126E+03	1.130690E-04	6.039841E-07
3.175110E+03	1.202949E-04	6.425826E-07
3.185095E+03	1.277387E-04	6.823456E-07
3.195080E+03	1.353676E-04	7.230967E-07
3.205064E+03	1.431215E-04	7.645158E-07
3.215049E+03	1.509866E-04	8.065287E-07
3.225033E+03	1.588924E-04	8.487592E-07
3.235018E+03	1.667971E-04	8.909833E-07
3.245003E+03	1.746338E-04	9.328447E-07
3.254987E+03	1.823716E-04	9.741775E-07
3.264972E+03	1.899334E-04	1.014570E-06
3.274957E+03	1.972828E-04	1.053828E-06
3.284941E+03	2.043910E-04	1.091798E-06
3.294926E+03	2.112111E-04	1.128228E-06
3.304910E+03	2.177176E-04	1.162984E-06
3.314895E+03	2.238946E-04	1.195979E-06
3.324880E+03	2.297484E-04	1.227248E-06
3.334864E+03	2.352663E-04	1.256723E-06
3.344849E+03	2.404700E-04	1.284519E-06
3.354834E+03	2.453738E-04	1.310713E-06
3.364818E+03	2.499826E-04	1.335332E-06
3.374803E+03	2.543339E-04	1.358575E-06
3.384787E+03	2.584551E-04	1.380588E-06
3.394772E+03	2.623911E-04	1.401613E-06
3.404757E+03	2.661477E-04	1.421679E-06
3.414741E+03	2.697747E-04	1.441053E-06
3.424726E+03	2.733227E-04	1.460005E-06
3.434711E+03	2.768142E-04	1.478655E-06
3.444695E+03	2.802972E-04	1.497260E-06
3.454680E+03	2.837889E-04	1.515911E-06
3.464664E+03	2.873162E-04	1.534752E-06
3.474649E+03	2.909279E-04	1.554045E-06
3.484634E+03	2.946146E-04	1.573737E-06
3.494618E+03	2.984029E-04	1.593973E-06
3.504603E+03	3.023033E-04	1.614807E-06
3.514588E+03	3.063226E-04	1.636276E-06
3.524572E+03	3.104647E-04	1.658401E-06
3.534557E+03	3.147284E-04	1.681176E-06
3.544541E+03	3.191055E-04	1.704557E-06
3.554526E+03	3.235897E-04	1.728509E-06
3.564511E+03	3.281335E-04	1.752781E-06
3.574495E+03	3.326824E-04	1.777079E-06
3.584480E+03	3.371707E-04	1.801053E-06
3.594465E+03	3.415303E-04	1.824340E-06
3.604449E+03	3.458521E-04	1.847425E-06
3.614434E+03	3.503199E-04	1.871290E-06
3.624418E+03	3.550755E-04	1.896693E-06
3.634403E+03	3.602787E-04	1.924485E-06
3.644388E+03	3.660187E-04	1.955146E-06
3.654372E+03	3.724038E-04	1.989253E-06
3.664357E+03	3.795099E-04	2.027211E-06
3.674342E+03	3.873927E-04	2.069317E-06
3.684326E+03	3.960858E-04	2.115752E-06
3.694311E+03	4.055996E-04	2.166571E-06
3.704295E+03	4.159067E-04	2.221627E-06
3.714280E+03	4.269945E-04	2.280854E-06
3.724265E+03	4.387888E-04	2.343854E-06
3.734249E+03	4.512129E-04	2.410219E-06
3.744234E+03	4.641815E-04	2.479492E-06
3.754219E+03	4.776119E-04	2.551232E-06
3.764203E+03	4.914380E-04	2.625085E-06
3.774188E+03	5.056217E-04	2.700849E-06
3.784172E+03	5.201667E-04	2.778542E-06
3.794157E+03	5.351251E-04	2.858443E-06
3.804142E+03	5.505920E-04	2.941061E-06
3.814126E+03	5.667633E-04	3.027442E-06
3.824111E+03	5.838493E-04	3.118708E-06
3.834095E+03	6.021120E-04	3.216260E-06
3.844080E+03	6.218895E-04	3.321903E-06
3.854065E+03	6.435426E-04	3.437565E-06
3.864049E+03	6.674632E-04	3.565339E-06
3.874034E+03	6.940429E-04	3.707317E-06
3.884019E+03	7.237149E-04	3.865812E-06
3.888012E+03	2.139953E-04	1.143082E-06
3.890009E+03	2.054058E-04	1.097201E-06
3.892006E+03	1.977594E-04	1.056356E-06
3.894003E+03	1.932635E-04	1.032341E-06
3.896000E+03	1.952818E-04	1.043122E-06
3.897997E+03	1.996238E-04	1.066315E-06
3.899994E+03	2.074755E-04	1.108256E-06
3.901991E+03	2.185274E-04	1.167290E-06
3.903988E+03	2.293752E-04	1.225235E-06
3.905985E+03	2.463133E-04	1.315712E-06
3.907982E+03	2.675522E-04	1.429162E-06
3.909979E+03	2.923027E-04	1.561370E-06
3.911976E+03	3.175187E-04	1.696064E-06
3.913972E+03	3.443274E-04	1.839266E-06
3.915969E+03	3.729176E-04	1.991984E-06
3.917966E+03	3.989758E-04	2.131177E-06
3.919963E+03	4.281639E-04	2.287088E-06
3.921960E+03	4.622891E-04	2.469372E-06
3.923957E+03	4.970375E-04	2.654984E-06
3.925954E+03	5.304136E-04	2.833267E-06
3.927951E+03	5.678114E-04	3.033031E-06
3.929948E+03	6.087991E-04	3.251972E-06
3.931945E+03	6.527036E-04	3.486493E-06
3.933942E+03	6.980690E-04	3.728817E-06
3.935939E+03	7.437628E-04	3.972896E-06
3.937936E+03	7.890295E-04	4.214693E-06
3.939933E+03	8.338161E-04	4.453925E-06
3.941929E+03	8.764223E-04	4.681511E-06
3.943926E+03	9.190603E-04	4.909267E-06
3.945923E+03	9.614609E-04	5.135755E-06
3.947920E+03	1.004595E-03	5.366161E-06
3.949917E+03	1.042500E-03	5.568634E-06
3.951914E+03	1.078846E-03	5.762777E-06
3.953911E+03	1.112605E-03	5.943106E-06
3.955908E+03	1.146828E-03	6.125914E-06
3.957905E+03	1.177845E-03	6.291592E-06
3.959902E+03	1.207921E-03	6.452249E-06
3.961899E+03	1.236140E-03	6.602983E-06
3.963896E+03	1.264012E-03	6.751866E-06
3.965893E+03	1.292348E-03	6.903224E-06
3.967889E+03	1.312941E-03	7.013223E-06
3.969886E+03	1.333025E-03	7.120504E-06
3.971883E+03	1.353572E-03	7.230257E-06
3.973880E+03	1.372179E-03	7.329646E-06
3.975877E+03	1.390519E-03	7.427612E-06
3.977874E+03	1.408269E-03	7.522424E-06
3.979871E+03	1.421837E-03	7.594899E-06
3.981868E+03	1.429494E-03	7.635799E-06
3.983865E+03	1.431508E-03	7.646560E-06
3.985862E+03	1.430580E-03	7.641603E-06
3.987859E+03	1.424927E-03	7.611403E-06
3.989856E+03	1.414141E-03	7.553790E-06
3.991853E+03	1.395602E-03	7.454762E-06
3.993849E+03	1.371496E-03	7.325997E-06
3.995846E+03	1.341146E-03	7.163879E-06
3.997843E+03	1.303497E-03	6.962773E-06
3.999840E+03	1.264628E-03	6.755147E-06
4.001837E+03	1.226457E-03	6.551250E-06
4.003834E+03	1.188524E-03	6.348630E-06
4.005831E+03	1.153073E-03	6.159265E-06
4.007828E+03	1.120754E-03	5.986627E-06
4.009825E+03	1.092188E-03	5.834039E-06
4.011822E+03	1.067539E-03	5.702374E-06
4.013819E+03	1.047375E-03	5.594667E-06
4.015816E+03	1.031239E-03	5.508471E-06
4.017813E+03	1.018805E-03	5.442055E-06
4.019809E+03	1.013565E-03	5.414063E-06
4.021806E+03	1.011516E-03	5.403120E-06
4.023803E+03	1.012146E-03	5.406486E-06
4.025800E+03	1.020109E-03	5.449017E-06
4.027797E+03	1.036731E-03	5.537810E-06
4.029794E+03	1.061719E-03	5.671282E-06
4.031791E+03	1.094424E-03	5.845981E-06
4.033788E+03	1.132306E-03	6.048329E-06
4.035785E+03	1.171089E-03	6.255492E-06
4.037782E+03	1.208337E-03	6.454460E-06
4.039779E+03	1.247327E-03	6.662726E-06
4.041776E+03	1.290820E-03	6.895046E-06
4.043773E+03	1.336353E-03	7.138266E-06
4.045770E+03	1.382194E-03	7.383131E-06
4.047766E+03	1.429779E-03	7.637312E-06
4.049763E+03	1.476942E-03	7.889237E-06
4.051760E+03	1.528531E-03	8.164804E-06
4.053757E+03	1.581216E-03	8.446227E-06
4.055754E+03	1.632288E-03	8.719033E-06
4.057751E+03	1.680961E-03	8.979023E-06
4.059748E+03	1.729592E-03	9.238792E-06
4.061745E+03	1.778587E-03	9.500504E-06
4.063742E+03	1.826810E-03	9.758088E-06
4.065739E+03	1.874692E-03	1.001385E-05
4.067736E+03	1.922207E-03	1.026766E-05
4.069733E+03	1.966562E-03	1.050459E-05
4.071730E+03	2.008652E-03	1.072941E-05
4.073726E+03	2.050238E-03	1.095155E-05
4.075723E+03	2.089477E-03	1.116115E-05
4.077720E+03	2.125688E-03	1.135457E-05
4.079717E+03	2.155264E-03	1.151255E-05
4.081714E+03	2.177632E-03	1.163203E-05
4.083711E+03	2.195584E-03	1.172793E-05
4.085708E+03	2.203584E-03	1.177066E-05
4.087705E+03	2.201464E-03	1.175933E-05
4.089702E+03	2.191772E-03	1.170756E-05
4.091699E+03	2.171574E-03	1.159967E-05
4.093696E+03	2.139534E-03	1.142853E-05
4.095693E+03	2.097524E-03	1.120413E-05
4.097690E+03	2.046298E-03	1.093050E-05
4.099686E+03	1.988786E-03	1.062329E-05
4.101683E+03	1.927622E-03	1.029658E-05
4.103680E+03	1.866553E-03	9.970371E-06
4.105677E+03	1.801611E-03	9.623478E-06
4.107674E+03	1.738964E-03	9.288842E-06
4.109671E+03	1.677607E-03	8.961094E-06
4.111668E+03	1.620312E-03	8.655052E-06
4.113665E+03	1.569393E-03	8.383063E-06
4.115662E+03	1.519468E-03	8.116381E-06
4.117659E+03	1.476737E-03	7.888131E-06
4.119656E+03	1.441367E-03	7.699198E-06
4.121653E+03	1.409471E-03	7.528820E-06
4.123650E+03	1.386790E-03	7.407667E-06
4.125647E+03	1.370635E-03	7.321372E-06
4.127643E+03	1.353224E-03	7.228372E-06
4.129640E+03	1.330312E-03	7.105985E-06
4.131637E+03	1.312976E-03	7.013380E-06
4.133634E+03	1.300481E-03	6.946641E-06
4.135631E+03	1.287713E-03	6.878435E-06
4.137628E+03	1.273090E-03	6.800327E-06
4.139625E+03	1.258191E-03	6.720744E-06
4.141622E+03	1.246641E-03	6.659046E-06
4.143619E+03	1.234271E-03	6.592969E-06
4.145616E+03	1.221190E-03	6.523095E-06
4.147613E+03	1.214129E-03	6.485381E-06
4.149610E+03	1.210503E-03	6.466009E-06
4.151607E+03	1.203605E-03	6.429163E-06
4.153603E+03	1.194334E-03	6.379640E-06
4.155600E+03	1.182825E-03	6.318165E-06
4.157597E+03	1.169322E-03	6.246039E-06
4.159594E+03	1.152516E-03	6.156264E-06
4.161591E+03	1.134040E-03	6.057576E-06
4.163588E+03	1.114905E-03	5.955366E-06
4.165585E+03	1.096120E-03	5.855022E-06
4.167582E+03	1.076729E-03	5.751444E-06
4.169579E+03	1.056951E-03	5.645797E-06
4.171576E+03	1.043530E-03	5.574107E-06
4.173573E+03	1.036743E-03	5.537851E-06
4.175570E+03	1.033751E-03	5.521873E-06
4.177567E+03	1.031061E-03	5.507499E-06
4.179563E+03	1.030365E-03	5.503785E-06
4.181560E+03	1.031748E-03	5.511170E-06
4.183557E+03	1.035456E-03	5.530976E-06
4.185554E+03	1.038483E-03	5.547145E-06
4.187551E+03	1.044957E-03	5.581729E-06
4.189548E+03	1.053569E-03	5.627728E-06
4.191545E+03	1.061775E-03	5.671560E-06
4.193542E+03	1.073295E-03	5.733098E-06
4.195539E+03	1.085669E-03	5.799195E-06
4.197536E+03	1.096188E-03	5.855381E-06
4.199533E+03	1.106740E-03	5.911743E-06
4.201530E+03	1.115571E-03	5.958916E-06
4.203527E+03	1.121477E-03	5.990461E-06
4.205523E+03	1.130262E-03	6.037389E-06
4.207520E+03	1.141381E-03	6.096780E-06
4.209517E+03	1.151765E-03	6.152248E-06
4.211514E+03	1.160510E-03	6.198962E-06
4.213511E+03	1.171618E-03	6.258292E-06
4.215508E+03	1.183882E-03	6.323805E-06
4.217505E+03	1.196565E-03	6.391548E-06
4.219502E+03	1.210625E-03	6.466649E-06
4.221499E+03	1.223567E-03	6.535780E-06
4.223496E+03	1.234074E-03	6.591904E-06
4.225493E+03	1.242582E-03	6.637353E-06
4.227490E+03	1.248104E-03	6.666846E-06
4.229487E+03	1.251102E-03	6.682864E-06
4.231484E+03	1.250232E-03	6.678216E-06
4.233480E+03	1.242798E-03	6.638506E-06
4.235477E+03	1.229291E-03	6.566355E-06
4.237474E+03	1.211658E-03	6.472165E-06
4.239471E+03	1.187560E-03	6.343443E-06
4.241468E+03	1.160566E-03	6.199256E-06
4.243465E+03	1.130291E-03	6.037537E-06
4.245462E+03	1.096979E-03	5.859597E-06
4.247459E+03	1.063681E-03	5.681733E-06
4.249456E+03	1.028857E-03	5.495719E-06
4.251453E+03	9.931659E-04	5.305073E-06
4.253450E+03	9.581761E-04	5.118172E-06
4.255447E+03	9.265863E-04	4.949432E-06
4.257444E+03	8.936069E-04	4.773270E-06
4.259440E+03	8.595946E-04	4.591591E-06
4.261437E+03	8.255136E-04	4.409544E-06
4.263434E+03	7.908117E-04	4.224181E-06
4.265431E+03	7.592374E-04	4.055524E-06
4.267428E+03	7.310405E-04	3.904908E-06
4.269425E+03	7.057549E-04	3.769843E-06
4.271422E+03	6.847061E-04	3.657409E-06
4.273419E+03	6.702972E-04	3.580443E-06
4.275416E+03	6.601316E-04	3.526142E-06
4.277413E+03	6.528879E-04	3.487450E-06
4.279410E+03	6.541443E-04	3.494160E-06
4.281407E+03	6.602899E-04	3.526987E-06
4.283404E+03	6.742276E-04	3.601436E-06
4.285400E+03	6.936429E-04	3.705145E-06
4.287397E+03	7.206123E-04	3.849204E-06
4.289394E+03	7.553064E-04	4.034524E-06
4.291391E+03	7.921744E-04	4.231457E-06
4.293388E+03	8.320204E-04	4.444298E-06
4.295385E+03	8.738499E-04	4.667733E-06
4.297382E+03	9.142629E-04	4.883602E-06
4.299379E+03	9.533957E-04	5.092632E-06
4.301376E+03	9.909156E-04	5.293047E-06
4.303373E+03	1.023970E-03	5.469610E-06
4.305370E+03	1.054273E-03	5.631473E-06
4.307367E+03	1.080270E-03	5.770341E-06
4.309364E+03	1.102985E-03	5.891674E-06
4.311361E+03	1.122914E-03	5.998123E-06
4.313357E+03	1.139970E-03	6.089232E-06
4.315354E+03	1.150909E-03	6.147662E-06
4.317351E+03	1.159220E-03	6.192053E-06
4.319348E+03	1.166731E-03	6.232176E-06
4.321345E+03	1.169170E-03	6.245203E-06
4.323342E+03	1.164616E-03	6.220879E-06
4.325339E+03	1.154842E-03	6.168668E-06
4.327336E+03	1.145119E-03	6.116733E-06
4.329333E+03	1.133309E-03	6.053650E-06
4.331330E+03	1.116576E-03	5.964267E-06
4.333327E+03	1.097334E-03	5.861484E-06
4.335324E+03	1.077749E-03	5.756871E-06
4.337321E+03	1.059851E-03	5.661268E-06
4.339317E+03	1.043420E-03	5.573496E-06
4.341314E+03	1.027982E-03	5.491035E-06
4.343311E+03	1.012481E-03	5.408236E-06
4.345308E+03	9.973072E-04	5.327183E-06
4.347305E+03	9.839358E-04	5.255759E-06
4.349302E+03	9.732605E-04	5.198736E-06
4.351299E+03	9.623013E-04	5.140196E-06
4.353296E+03	9.553228E-04	5.102920E-06
4.355293E+03	9.503488E-04	5.076351E-06
4.357290E+03	9.465439E-04	5.056026E-06
4.359287E+03	9.446626E-04	5.045977E-06
4.361284E+03	9.465760E-04	5.056198E-06
4.363281E+03	9.505012E-04	5.077164E-06
4.365277E+03	9.564674E-04	5.109033E-06
4.367274E+03	9.642250E-04	5.150470E-06
4.369271E+03	9.734691E-04	5.199848E-06
4.371268E+03	9.817413E-04	5.244034E-06
4.373265E+03	9.901875E-04	5.289150E-06
4.375262E+03	9.981642E-04	5.331758E-06
4.377259E+03	1.005755E-03	5.372303E-06
4.379256E+03	1.013071E-03	5.411385E-06
4.381253E+03	1.020897E-03	5.453188E-06
4.383250E+03	1.028449E-03	5.493525E-06
4.385247E+03	1.038722E-03	5.548399E-06
4.387244E+03	1.053092E-03	5.625155E-06
4.389241E+03	1.067695E-03	5.703158E-06
4.391237E+03	1.081579E-03	5.777323E-06
4.393234E+03	1.098445E-03	5.867410E-06
4.395231E+03	1.117285E-03	5.968044E-06
4.397228E+03	1.135155E-03	6.063501E-06
4.399225E+03	1.154160E-03	6.165016E-06
4.401222E+03	1.173431E-03	6.267951E-06
4.403219E+03	1.190328E-03	6.358208E-06
4.405216E+03	1.203923E-03	6.430827E-06
4.407213E+03	1.215758E-03	6.494043E-06
4.409210E+03	1.224819E-03	6.542445E-06
4.411207E+03	1.235799E-03	6.601095E-06
4.413204E+03	1.244285E-03	6.646421E-06
4.415201E+03	1.251961E-03	6.687424E-06
4.417198E+03	1.259812E-03	6.729362E-06
4.419194E+03	1.266347E-03	6.764269E-06
4.421191E+03	1.277618E-03	6.824469E-06
4.423188E+03	1.287376E-03	6.876592E-06
4.425185E+03	1.292634E-03	6.904677E-06
4.427182E+03	1.295923E-03	6.922250E-06
4.429179E+03	1.300119E-03	6.944659E-06
4.431176E+03	1.304713E-03	6.969199E-06
4.433173E+03	1.309029E-03	6.992255E-06
4.435170E+03	1.313801E-03	7.017745E-06
4.437167E+03	1.316941E-03	7.034513E-06
4.439164E+03	1.318417E-03	7.042400E-06
4.441161E+03	1.318456E-03	7.042606E-06
4.443158E+03	1.316857E-03	7.034063E-06
4.445154E+03	1.316700E-03	7.033224E-06
4.447151E+03	1.316176E-03	7.030426E-06
4.449148E+03	1.311354E-03	7.004668E-06
4.451145E+03	1.304635E-03	6.968777E-06
4.453142E+03	1.299299E-03	6.940275E-06
4.455139E+03	1.293253E-03	6.907980E-06
4.457136E+03	1.285986E-03	6.869164E-06
4.459133E+03	1.278772E-03	6.830631E-06
4.461130E+03	1.271385E-03	6.791171E-06
4.463127E+03	1.261584E-03	6.738818E-06
4.465124E+03	1.250586E-03	6.680073E-06
4.467121E+03	1.237539E-03	6.610382E-06
4.469118E+03	1.219320E-03	6.513061E-06
4.471114E+03	1.197228E-03	6.395056E-06
4.473111E+03	1.174014E-03	6.271059E-06
4.475108E+03	1.148030E-03	6.132262E-06
4.477105E+03	1.118107E-03	5.972425E-06
4.479102E+03	1.085605E-03	5.798813E-06
4.481099E+03	1.056551E-03	5.643621E-06
4.483096E+03	1.028644E-03	5.494554E-06
4.485093E+03	1.004588E-03	5.366059E-06
4.487090E+03	9.810862E-04	5.240522E-06
4.489087E+03	9.576249E-04	5.115203E-06
4.491084E+03	9.332652E-04	4.985084E-06
4.493081E+03	9.095440E-04	4.858375E-06
4.495078E+03	8.868903E-04	4.737369E-06
4.497075E+03	8.648197E-04	4.619478E-06
4.499071E+03	8.413933E-04	4.494345E-06
4.501068E+03	8.190064E-04	4.374764E-06
4.503065E+03	7.962903E-04	4.253424E-06
4.505062E+03	7.727587E-04	4.127729E-06
4.507059E+03	7.497822E-04	4.004998E-06
4.509056E+03	7.281609E-04	3.889507E-06
4.511053E+03	7.086406E-04	3.785238E-06
4.513050E+03	6.954850E-04	3.714967E-06
4.515047E+03	6.867550E-04	3.668335E-06
4.517044E+03	6.834580E-04	3.650724E-06
4.519041E+03	6.850264E-04	3.659102E-06
4.521038E+03	6.914946E-04	3.693652E-06
4.523035E+03	7.057909E-04	3.770016E-06
4.525031E+03	7.294429E-04	3.896354E-06
4.527028E+03	7.615729E-04	4.067977E-06
4.529025E+03	8.022184E-04	4.285087E-06
4.531022E+03	8.513318E-04	4.547429E-06
4.533019E+03	9.096691E-04	4.859040E-06
4.535016E+03	9.762934E-04	5.214916E-06
4.537013E+03	1.045669E-03	5.585488E-06
4.539010E+03	1.117598E-03	5.969700E-06
4.541007E+03	1.190617E-03	6.359737E-06
4.543004E+03	1.261392E-03	6.737782E-06
4.545001E+03	1.332308E-03	7.116582E-06
4.546998E+03	1.401839E-03	7.487986E-06
4.548995E+03	1.467941E-03	7.841073E-06
4.550991E+03	1.529572E-03	8.170275E-06
4.552988E+03	1.590674E-03	8.496658E-06
4.554985E+03	1.651739E-03	8.822838E-06
4.556982E+03	1.713919E-03	9.154977E-06
4.558979E+03	1.777909E-03	9.496779E-06
4.560976E+03	1.837909E-03	9.817271E-06
4.562973E+03	1.901537E-03	1.015714E-05
4.564970E+03	1.966372E-03	1.050346E-05
4.566967E+03	2.030970E-03	1.084851E-05
4.568964E+03	2.101691E-03	1.122627E-05
4.570961E+03	2.172902E-03	1.160665E-05
4.572958E+03	2.239370E-03	1.196169E-05
4.574955E+03	2.299495E-03	1.228285E-05
4.576951E+03	2.353301E-03	1.257025E-05
4.578948E+03	2.400894E-03	1.282448E-05
4.580945E+03	2.443254E-03	1.305074E-05
4.582942E+03	2.478432E-03	1.323865E-05
4.584939E+03	2.505869E-03	1.338520E-05
4.586936E+03	2.525758E-03	1.349144E-05
4.588933E+03	2.539571E-03	1.356522E-05
4.590930E+03	2.547677E-03	1.360852E-05
4.592927E+03	2.548269E-03	1.361168E-05
4.594924E+03	2.539827E-03	1.356659E-05
4.596921E+03	2.525915E-03	1.349228E-05
4.598918E+03	2.509174E-03	1.340285E-05
4.600915E+03	2.490879E-03	1.330513E-05
4.602912E+03	2.473299E-03	1.321122E-05
4.604908E+03	2.455415E-03	1.311570E-05
4.606905E+03	2.438596E-03	1.302586E-05
4.608902E+03	2.423893E-03	1.294732E-05
4.610899E+03	2.410871E-03	1.287776E-05
4.612896E+03	2.399093E-03	1.281485E-05
4.614893E+03	2.386900E-03	1.274972E-05
4.616890E+03	2.378638E-03	1.270559E-05
4.618887E+03	2.374694E-03	1.268452E-05
4.620884E+03	2.372238E-03	1.267140E-05
4.622881E+03	2.372120E-03	1.267077E-05
4.624878E+03	2.380921E-03	1.271778E-05
4.626875E+03	2.394732E-03	1.279155E-05
4.628872E+03	2.418156E-03	1.291667E-05
4.630868E+03	2.450325E-03	1.308850E-05
4.632865E+03	2.488322E-03	1.329146E-05
4.634862E+03	2.530806E-03	1.351839E-05
4.636859E+03	2.575292E-03	1.375602E-05
4.638856E+03	2.622047E-03	1.400576E-05
4.640853E+03	2.668345E-03	1.425306E-05
4.642850E+03	2.712924E-03	1.449118E-05
4.644847E+03	2.752728E-03	1.470380E-05
4.646844E+03	2.785372E-03	1.487816E-05
4.648841E+03	2.811346E-03	1.501690E-05
4.650838E+03	2.829142E-03	1.511196E-05
4.652835E+03	2.836986E-03	1.515386E-05
4.654832E+03	2.840248E-03	1.517128E-05
4.656828E+03	2.838039E-03	1.515948E-05
4.658825E+03	2.834742E-03	1.514187E-05
