#wls	flux	fluxerr
1.597540E+03	1.145974E-06	9.270807E-08
1.637478E+03	1.011652E-06	8.141637E-08
1.677417E+03	8.941634E-07	7.157707E-08
1.717355E+03	7.924518E-07	6.308756E-08
1.757294E+03	7.050010E-07	5.580971E-08
1.797232E+03	6.300783E-07	4.959039E-08
1.837171E+03	5.668985E-07	4.435301E-08
1.877109E+03	5.137131E-07	3.994691E-08
1.917048E+03	4.698865E-07	3.631017E-08
1.956986E+03	4.342603E-07	3.334145E-08
1.996925E+03	4.062839E-07	3.098752E-08
2.036863E+03	3.853183E-07	2.918917E-08
2.076802E+03	3.713735E-07	2.793685E-08
2.116740E+03	3.647443E-07	2.724188E-08
2.156679E+03	3.656607E-07	2.710967E-08
2.196617E+03	3.745982E-07	2.756270E-08
2.236556E+03	3.922794E-07	2.863994E-08
2.276494E+03	4.196060E-07	3.039112E-08
2.316433E+03	4.582201E-07	3.291645E-08
2.356371E+03	5.103102E-07	3.635043E-08
2.396310E+03	5.794957E-07	4.092247E-08
2.436248E+03	6.705257E-07	4.693108E-08
2.476187E+03	7.905636E-07	5.482892E-08
2.516125E+03	9.491810E-07	6.521400E-08
2.556064E+03	1.160859E-06	7.899112E-08
2.596002E+03	1.444764E-06	9.733929E-08
2.635941E+03	1.829930E-06	1.220393E-07
2.675879E+03	2.356434E-06	1.555152E-07
2.715818E+03	3.082781E-06	2.012741E-07
2.755756E+03	4.091591E-06	2.642024E-07
2.795695E+03	5.499178E-06	3.510828E-07
2.835633E+03	7.468347E-06	4.712679E-07
2.875572E+03	1.021798E-05	6.370897E-07
2.915510E+03	1.403588E-05	8.644186E-07
2.955449E+03	1.927481E-05	1.172132E-06
2.995387E+03	2.633320E-05	1.580669E-06
3.005372E+03	2.842910E-05	1.700841E-06
3.015356E+03	3.067213E-05	1.828936E-06
3.025341E+03	3.306111E-05	1.964790E-06
3.035326E+03	3.560691E-05	2.108954E-06
3.045310E+03	3.831386E-05	2.261584E-06
3.055295E+03	4.117725E-05	2.422302E-06
3.065279E+03	4.420630E-05	2.591548E-06
3.075264E+03	4.740178E-05	2.769260E-06
3.085249E+03	5.075312E-05	2.954714E-06
3.095233E+03	5.426655E-05	3.148171E-06
3.105218E+03	5.792683E-05	3.348644E-06
3.115203E+03	6.174926E-05	3.556916E-06
3.125187E+03	6.570280E-05	3.771099E-06
3.135172E+03	6.978813E-05	3.991142E-06
3.145156E+03	7.397899E-05	4.215460E-06
3.155141E+03	7.828702E-05	4.444642E-06
3.165126E+03	8.266751E-05	4.676075E-06
3.175110E+03	8.713035E-05	4.910263E-06
3.185095E+03	9.162443E-05	5.144279E-06
3.195080E+03	9.614197E-05	5.377658E-06
3.205064E+03	1.006765E-04	5.610016E-06
3.215049E+03	1.051689E-04	5.838055E-06
3.225033E+03	1.096290E-04	6.062337E-06
3.235018E+03	1.139946E-04	6.279449E-06
3.245003E+03	1.182779E-04	6.490111E-06
3.254987E+03	1.224558E-04	6.693107E-06
3.264972E+03	1.264652E-04	6.885063E-06
3.274957E+03	1.303460E-04	7.068244E-06
3.284941E+03	1.340171E-04	7.238347E-06
3.294926E+03	1.375036E-04	7.396859E-06
3.304910E+03	1.407926E-04	7.543191E-06
3.314895E+03	1.438517E-04	7.675748E-06
3.324880E+03	1.467178E-04	7.796634E-06
3.334864E+03	1.493205E-04	7.902246E-06
3.344849E+03	1.517261E-04	7.996249E-06
3.354834E+03	1.539152E-04	8.077749E-06
3.364818E+03	1.558934E-04	8.147183E-06
3.374803E+03	1.576694E-04	8.205134E-06
3.384787E+03	1.592539E-04	8.252298E-06
3.394772E+03	1.606601E-04	8.289480E-06
3.404757E+03	1.619251E-04	8.318698E-06
3.414741E+03	1.630424E-04	8.339712E-06
3.424726E+03	1.640286E-04	8.353476E-06
3.434711E+03	1.649449E-04	8.363179E-06
3.444695E+03	1.657645E-04	8.367504E-06
3.454680E+03	1.665048E-04	8.367403E-06
3.464664E+03	1.672261E-04	8.365941E-06
3.474649E+03	1.679238E-04	8.362902E-06
3.484634E+03	1.685947E-04	8.358148E-06
3.494618E+03	1.692993E-04	8.354683E-06
3.504603E+03	1.700566E-04	8.353411E-06
3.514588E+03	1.708460E-04	8.353296E-06
3.524572E+03	1.717495E-04	8.358306E-06
3.534557E+03	1.727271E-04	8.366424E-06
3.544541E+03	1.738577E-04	8.381410E-06
3.554526E+03	1.751373E-04	8.402956E-06
3.564511E+03	1.765577E-04	8.430580E-06
3.574495E+03	1.781641E-04	8.466329E-06
3.584480E+03	1.799376E-04	8.509178E-06
3.594465E+03	1.818740E-04	8.558817E-06
3.604449E+03	1.839848E-04	8.615676E-06
3.614434E+03	1.862419E-04	8.678317E-06
3.624418E+03	1.886543E-04	8.747062E-06
3.634403E+03	1.912130E-04	8.821390E-06
3.644388E+03	1.939114E-04	8.900887E-06
3.654372E+03	1.967454E-04	8.985277E-06
3.664357E+03	1.997128E-04	9.074366E-06
3.674342E+03	2.028306E-04	9.168824E-06
3.684326E+03	2.060758E-04	9.267519E-06
3.694311E+03	2.094574E-04	9.370760E-06
3.704295E+03	2.129394E-04	9.476847E-06
3.714280E+03	2.165318E-04	9.586155E-06
3.724265E+03	2.201627E-04	9.695437E-06
3.734249E+03	2.238284E-04	9.804504E-06
3.744234E+03	2.274707E-04	9.910800E-06
3.754219E+03	2.310577E-04	1.001296E-05
3.764203E+03	2.346093E-04	1.011187E-05
3.774188E+03	2.380769E-04	1.020549E-05
3.784172E+03	2.415480E-04	1.029759E-05
3.794157E+03	2.450674E-04	1.039008E-05
3.804142E+03	2.487279E-04	1.048684E-05
3.814126E+03	2.526673E-04	1.059354E-05
3.824111E+03	2.570118E-04	1.071527E-05
3.834095E+03	2.619425E-04	1.085922E-05
3.844080E+03	2.676185E-04	1.103156E-05
3.854065E+03	2.742593E-04	1.124076E-05
3.864049E+03	2.820150E-04	1.149225E-05
3.874034E+03	2.910993E-04	1.179391E-05
3.884019E+03	3.016754E-04	1.215138E-05
3.894003E+03	3.138626E-04	1.256838E-05
3.903988E+03	3.277609E-04	1.304775E-05
3.913972E+03	3.434599E-04	1.359186E-05
3.923957E+03	3.609115E-04	1.419752E-05
3.933942E+03	3.800734E-04	1.486187E-05
3.943926E+03	4.007635E-04	1.557663E-05
3.953911E+03	4.227586E-04	1.633210E-05
3.963896E+03	4.457146E-04	1.711417E-05
3.973880E+03	4.692427E-04	1.790733E-05
3.983865E+03	4.929564E-04	1.869654E-05
3.993849E+03	5.163523E-04	1.946272E-05
4.003834E+03	5.390250E-04	2.019093E-05
4.013819E+03	5.605140E-04	2.086454E-05
4.023803E+03	5.804190E-04	2.146962E-05
4.033788E+03	5.984104E-04	2.199518E-05
4.043773E+03	6.141625E-04	2.243070E-05
4.053757E+03	6.274383E-04	2.276917E-05
4.063742E+03	6.381307E-04	2.300849E-05
4.073726E+03	6.461149E-04	2.314601E-05
4.083711E+03	6.514427E-04	2.318550E-05
4.093696E+03	6.542435E-04	2.313340E-05
4.103680E+03	6.547490E-04	2.299962E-05
4.113665E+03	6.532837E-04	2.279712E-05
4.123650E+03	6.502712E-04	2.254194E-05
4.133634E+03	6.461153E-04	2.224909E-05
4.143619E+03	6.413208E-04	2.193662E-05
4.153603E+03	6.363940E-04	2.162219E-05
4.163588E+03	6.317801E-04	2.132092E-05
4.173573E+03	6.279167E-04	2.104729E-05
4.183557E+03	6.252020E-04	2.081404E-05
4.193542E+03	6.239914E-04	2.063215E-05
4.203527E+03	6.246005E-04	2.051099E-05
4.213511E+03	6.273279E-04	2.045907E-05
4.223496E+03	6.323880E-04	2.048194E-05
4.233480E+03	6.400289E-04	2.058602E-05
4.243465E+03	6.504601E-04	2.077633E-05
4.253450E+03	6.638664E-04	2.105689E-05
4.263434E+03	6.803794E-04	2.142993E-05
4.273419E+03	7.001101E-04	2.189692E-05
4.283404E+03	7.230452E-04	2.245540E-05
4.293388E+03	7.490833E-04	2.310022E-05
4.303373E+03	7.779141E-04	2.381994E-05
4.313357E+03	8.090055E-04	2.459670E-05
4.323342E+03	8.416186E-04	2.540683E-05
4.333327E+03	8.746307E-04	2.621586E-05
4.343311E+03	9.066533E-04	2.698233E-05
4.353296E+03	9.359411E-04	2.765548E-05
4.363281E+03	9.605267E-04	2.817947E-05
4.373265E+03	9.784179E-04	2.849937E-05
4.383250E+03	9.881138E-04	2.857610E-05
4.393234E+03	9.893066E-04	2.840603E-05
4.403219E+03	9.829125E-04	2.802059E-05
4.413204E+03	9.705252E-04	2.746957E-05
4.423188E+03	9.538577E-04	2.680478E-05
4.433173E+03	9.346025E-04	2.607600E-05
4.443158E+03	9.143427E-04	2.532859E-05
4.453142E+03	8.944557E-04	2.460098E-05
4.463127E+03	8.762347E-04	2.392821E-05
4.473111E+03	8.607594E-04	2.333852E-05
4.483096E+03	8.490446E-04	2.285759E-05
4.493081E+03	8.419248E-04	2.250553E-05
4.503065E+03	8.401557E-04	2.229978E-05
4.513050E+03	8.444016E-04	2.225485E-05
4.523035E+03	8.551827E-04	2.238104E-05
4.533019E+03	8.729123E-04	2.268558E-05
4.543004E+03	8.978424E-04	2.317132E-05
4.552988E+03	9.301264E-04	2.383849E-05
4.562973E+03	9.697380E-04	2.468272E-05
4.572958E+03	1.016462E-03	2.569500E-05
4.582942E+03	1.069996E-03	2.686436E-05
4.592927E+03	1.129786E-03	2.817379E-05
4.602912E+03	1.195149E-03	2.960349E-05
4.612896E+03	1.265189E-03	3.112895E-05
4.622881E+03	1.338872E-03	3.272290E-05
4.632865E+03	1.414991E-03	3.435461E-05
4.642850E+03	1.492194E-03	3.599062E-05
4.652835E+03	1.569069E-03	3.759692E-05
4.662819E+03	1.644195E-03	3.914011E-05
4.672804E+03	1.716212E-03	4.058914E-05
4.682789E+03	1.783919E-03	4.191746E-05
4.692773E+03	1.846358E-03	4.310488E-05
4.702758E+03	1.902869E-03	4.413866E-05
4.712742E+03	1.953223E-03	4.501628E-05
4.722727E+03	1.997536E-03	4.574326E-05
4.732712E+03	2.036328E-03	4.633411E-05
4.742696E+03	2.070427E-03	4.681003E-05
4.752681E+03	2.100888E-03	4.719672E-05
4.762665E+03	2.128881E-03	4.752182E-05
4.772650E+03	2.155591E-03	4.781269E-05
4.782635E+03	2.182163E-03	4.809499E-05
4.792619E+03	2.209550E-03	4.838967E-05
4.802604E+03	2.238581E-03	4.871432E-05
4.812589E+03	2.269874E-03	4.908160E-05
4.822573E+03	2.303764E-03	4.949771E-05
4.832558E+03	2.340417E-03	4.996506E-05
4.842542E+03	2.379674E-03	5.047911E-05
4.852527E+03	2.421089E-03	5.102934E-05
4.862512E+03	2.463909E-03	5.159910E-05
4.872496E+03	2.507157E-03	5.216739E-05
4.882481E+03	2.549477E-03	5.270599E-05
4.892466E+03	2.589256E-03	5.318207E-05
4.902450E+03	2.624752E-03	5.356107E-05
4.912435E+03	2.654118E-03	5.380720E-05
4.922419E+03	2.675543E-03	5.388636E-05
4.932404E+03	2.687529E-03	5.377166E-05
4.942389E+03	2.688905E-03	5.344355E-05
4.952373E+03	2.678984E-03	5.289255E-05
4.962358E+03	2.657692E-03	5.212166E-05
4.972343E+03	2.625480E-03	5.114404E-05
4.982327E+03	2.583158E-03	4.997968E-05
4.992312E+03	2.531911E-03	4.865524E-05
5.002296E+03	2.473023E-03	4.719871E-05
5.012281E+03	2.407849E-03	4.563872E-05
5.022266E+03	2.337752E-03	4.400340E-05
5.032250E+03	2.264128E-03	4.232073E-05
5.042235E+03	2.188303E-03	4.061668E-05
5.052220E+03	2.111553E-03	3.891564E-05
5.062204E+03	2.035208E-03	3.724229E-05
5.072189E+03	1.960455E-03	3.561802E-05
5.082173E+03	1.888444E-03	3.406298E-05
5.092158E+03	1.820222E-03	3.259484E-05
5.102143E+03	1.756673E-03	3.122781E-05
5.112127E+03	1.698608E-03	2.997441E-05
5.122112E+03	1.646610E-03	2.884272E-05
5.132097E+03	1.601133E-03	2.783830E-05
5.142081E+03	1.562466E-03	2.696359E-05
5.152066E+03	1.530718E-03	2.621787E-05
5.162050E+03	1.505866E-03	2.559807E-05
5.172035E+03	1.487735E-03	2.509863E-05
5.182020E+03	1.476066E-03	2.471270E-05
5.192004E+03	1.470487E-03	2.443164E-05
5.201989E+03	1.470559E-03	2.424600E-05
5.211974E+03	1.475840E-03	2.414643E-05
5.221958E+03	1.485819E-03	2.412284E-05
5.231943E+03	1.500032E-03	2.416605E-05
5.241927E+03	1.517986E-03	2.426676E-05
5.251912E+03	1.539215E-03	2.441637E-05
5.261897E+03	1.563253E-03	2.460649E-05
5.271881E+03	1.589659E-03	2.482945E-05
5.281866E+03	1.618009E-03	2.507803E-05
5.291851E+03	1.647891E-03	2.534546E-05
5.301835E+03	1.678871E-03	2.562486E-05
5.311820E+03	1.710580E-03	2.591056E-05
5.321804E+03	1.742628E-03	2.619679E-05
5.331789E+03	1.774661E-03	2.647848E-05
5.341774E+03	1.806324E-03	2.675078E-05
5.351758E+03	1.837286E-03	2.700935E-05
5.361743E+03	1.867283E-03	2.725095E-05
5.371728E+03	1.896063E-03	2.747269E-05
5.381712E+03	1.923356E-03	2.767151E-05
5.391697E+03	1.949013E-03	2.784618E-05
5.401681E+03	1.972929E-03	2.799615E-05
5.411666E+03	1.995071E-03	2.812194E-05
5.421651E+03	2.015545E-03	2.822602E-05
5.431635E+03	2.034681E-03	2.831385E-05
5.441620E+03	2.053050E-03	2.839418E-05
5.451605E+03	2.071559E-03	2.848013E-05
5.461589E+03	2.091416E-03	2.858866E-05
5.471574E+03	2.114061E-03	2.873951E-05
5.481558E+03	2.140887E-03	2.895145E-05
5.491543E+03	2.172498E-03	2.923226E-05
5.501528E+03	2.208324E-03	2.957403E-05
5.511512E+03	2.246930E-03	2.995753E-05
5.521497E+03	2.286615E-03	3.036041E-05
5.531482E+03	2.325580E-03	3.075944E-05
5.541466E+03	2.362242E-03	3.113419E-05
5.551451E+03	2.395298E-03	3.146792E-05
5.561435E+03	2.423859E-03	3.174941E-05
5.571420E+03	2.447608E-03	3.197491E-05
5.581405E+03	2.466718E-03	3.214698E-05
5.591389E+03	2.481872E-03	3.227464E-05
5.601374E+03	2.493987E-03	3.236982E-05
5.611359E+03	2.504161E-03	3.244656E-05
5.621343E+03	2.513357E-03	3.251705E-05
5.631328E+03	2.522220E-03	3.258928E-05
5.641312E+03	2.531007E-03	3.266611E-05
5.651297E+03	2.539485E-03	3.274411E-05
5.661282E+03	2.547045E-03	3.281502E-05
5.671266E+03	2.552697E-03	3.286567E-05
5.681251E+03	2.555402E-03	3.288228E-05
5.691235E+03	2.554173E-03	3.285177E-05
5.701220E+03	2.548346E-03	3.276518E-05
5.711205E+03	2.537808E-03	3.262067E-05
5.721189E+03	2.522969E-03	3.242309E-05
5.731174E+03	2.504919E-03	3.218603E-05
5.741159E+03	2.485203E-03	3.192891E-05
5.751143E+03	2.465807E-03	3.167683E-05
5.761128E+03	2.448969E-03	3.145818E-05
5.771112E+03	2.436899E-03	3.130095E-05
5.781097E+03	2.431814E-03	3.123329E-05
5.791082E+03	2.435693E-03	3.128025E-05
5.801066E+03	2.450105E-03	3.146167E-05
5.811051E+03	2.476287E-03	3.179307E-05
5.821036E+03	2.514844E-03	3.228184E-05
5.831020E+03	2.565685E-03	3.292636E-05
5.841005E+03	2.627985E-03	3.371562E-05
5.850989E+03	2.700063E-03	3.462751E-05
5.860974E+03	2.779331E-03	3.562832E-05
5.870959E+03	2.862271E-03	3.667242E-05
5.880943E+03	2.944653E-03	3.770512E-05
5.890928E+03	3.021882E-03	3.866719E-05
5.900913E+03	3.089216E-03	3.949769E-05
5.910897E+03	3.142520E-03	4.014374E-05
5.920882E+03	3.178726E-03	4.056632E-05
5.930866E+03	3.196211E-03	4.074515E-05
5.940851E+03	3.195006E-03	4.068126E-05
5.950836E+03	3.176717E-03	4.039586E-05
5.960820E+03	3.144137E-03	3.992533E-05
5.970805E+03	3.100720E-03	3.931432E-05
5.980790E+03	3.050112E-03	3.860981E-05
5.990774E+03	2.995784E-03	3.785637E-05
6.000759E+03	2.940727E-03	3.709222E-05
6.010743E+03	2.887394E-03	3.634859E-05
6.020728E+03	2.837653E-03	3.564912E-05
6.030713E+03	2.792813E-03	3.501026E-05
6.040697E+03	2.753731E-03	3.444262E-05
6.050682E+03	2.720922E-03	3.395243E-05
6.060667E+03	2.694606E-03	3.354216E-05
6.070651E+03	2.674760E-03	3.321122E-05
6.080636E+03	2.661093E-03	3.295567E-05
6.090620E+03	2.653203E-03	3.277019E-05
6.100605E+03	2.650370E-03	3.264564E-05
6.110590E+03	2.651714E-03	3.257097E-05
6.120574E+03	2.656161E-03	3.253287E-05
6.130559E+03	2.662482E-03	3.251636E-05
6.140544E+03	2.669368E-03	3.250559E-05
6.150528E+03	2.675518E-03	3.248509E-05
6.160513E+03	2.679709E-03	3.244051E-05
6.170497E+03	2.681079E-03	3.236207E-05
6.180482E+03	2.678937E-03	3.224215E-05
6.190467E+03	2.673084E-03	3.207922E-05
6.200451E+03	2.663509E-03	3.187396E-05
6.210436E+03	2.650493E-03	3.163058E-05
6.220421E+03	2.634406E-03	3.135429E-05
6.230405E+03	2.615687E-03	3.105106E-05
6.240390E+03	2.594622E-03	3.072496E-05
6.250374E+03	2.571527E-03	3.038039E-05
6.260359E+03	2.546512E-03	3.001925E-05
6.270344E+03	2.519659E-03	2.964305E-05
6.280328E+03	2.490934E-03	2.925193E-05
6.290313E+03	2.460201E-03	2.884477E-05
6.300298E+03	2.427398E-03	2.842127E-05
6.310282E+03	2.392422E-03	2.798064E-05
6.320267E+03	2.355264E-03	2.752308E-05
6.330251E+03	2.316143E-03	2.705140E-05
6.340236E+03	2.275420E-03	2.656997E-05
6.350221E+03	2.233728E-03	2.608628E-05
6.360205E+03	2.191954E-03	2.561068E-05
6.370190E+03	2.151209E-03	2.515616E-05
6.380175E+03	2.112788E-03	2.473781E-05
6.390159E+03	2.078019E-03	2.437124E-05
6.400144E+03	2.048255E-03	2.407248E-05
6.410128E+03	2.024724E-03	2.385632E-05
6.420113E+03	2.008477E-03	2.373576E-05
6.430098E+03	2.000363E-03	2.372160E-05
6.440082E+03	2.000964E-03	2.382136E-05
6.450067E+03	2.010603E-03	2.403975E-05
6.460052E+03	2.029370E-03	2.437901E-05
6.470036E+03	2.057062E-03	2.483808E-05
6.480021E+03	2.093207E-03	2.541286E-05
6.490005E+03	2.137133E-03	2.609683E-05
6.499990E+03	2.187876E-03	2.687990E-05
6.509975E+03	2.244202E-03	2.774848E-05
6.519959E+03	2.304564E-03	2.868478E-05
6.529944E+03	2.366971E-03	2.966497E-05
6.539929E+03	2.428861E-03	3.065738E-05
6.549913E+03	2.487536E-03	3.162757E-05
6.559898E+03	2.540166E-03	3.253840E-05
6.569882E+03	2.584192E-03	3.335498E-05
6.579867E+03	2.617423E-03	3.404606E-05
6.589852E+03	2.638220E-03	3.458660E-05
6.599836E+03	2.645744E-03	3.496123E-05
6.609821E+03	2.639895E-03	3.516400E-05
6.619805E+03	2.621558E-03	3.520196E-05
6.629790E+03	2.592180E-03	3.509008E-05
6.639775E+03	2.553920E-03	3.485358E-05
6.649759E+03	2.509171E-03	3.452187E-05
6.659744E+03	2.460433E-03	3.412687E-05
6.669729E+03	2.410087E-03	3.369999E-05
6.679713E+03	2.360154E-03	3.326869E-05
6.689698E+03	2.312294E-03	3.285623E-05
6.699682E+03	2.267753E-03	3.248077E-05
6.709667E+03	2.227413E-03	3.215581E-05
6.719652E+03	2.191743E-03	3.188927E-05
6.729636E+03	2.161030E-03	3.168667E-05
6.739621E+03	2.135253E-03	3.154912E-05
6.749606E+03	2.114243E-03	3.147550E-05
6.759590E+03	2.097587E-03	3.146100E-05
6.769575E+03	2.084800E-03	3.149953E-05
6.779559E+03	2.075280E-03	3.158300E-05
6.789544E+03	2.068266E-03	3.170060E-05
6.799529E+03	2.063054E-03	3.184207E-05
6.809513E+03	2.058847E-03	3.199543E-05
6.819498E+03	2.054986E-03	3.215049E-05
6.829483E+03	2.050903E-03	3.229821E-05
6.839467E+03	2.046159E-03	3.243143E-05
6.849452E+03	2.040549E-03	3.254648E-05
6.859436E+03	2.034020E-03	3.264216E-05
6.869421E+03	2.026661E-03	3.271945E-05
6.879406E+03	2.018702E-03	3.278176E-05
6.889390E+03	2.010452E-03	3.283383E-05
6.899375E+03	2.002269E-03	3.288142E-05
6.909360E+03	1.994460E-03	3.292950E-05
6.919344E+03	1.987299E-03	3.298262E-05
6.929329E+03	1.981084E-03	3.304588E-05
6.939313E+03	1.975947E-03	3.312161E-05
6.949298E+03	1.971970E-03	3.321144E-05
6.959283E+03	1.969170E-03	3.331581E-05
6.969267E+03	1.967301E-03	3.343075E-05
6.979252E+03	1.966112E-03	3.355210E-05
6.989237E+03	1.965173E-03	3.367256E-05
6.999221E+03	1.964024E-03	3.378419E-05
7.009206E+03	1.962207E-03	3.387897E-05
7.019190E+03	1.959307E-03	3.394953E-05
7.029175E+03	1.955108E-03	3.399184E-05
7.039160E+03	1.949423E-03	3.400240E-05
7.049144E+03	1.942380E-03	3.398319E-05
7.059129E+03	1.934102E-03	3.393613E-05
7.069114E+03	1.924942E-03	3.386725E-05
7.079098E+03	1.915222E-03	3.378217E-05
7.089083E+03	1.905298E-03	3.368712E-05
7.099067E+03	1.895467E-03	3.358738E-05
7.109052E+03	1.886053E-03	3.348878E-05
7.119037E+03	1.877242E-03	3.339469E-05
7.129021E+03	1.869234E-03	3.330882E-05
7.139006E+03	1.862234E-03	3.323492E-05
7.148991E+03	1.856376E-03	3.317553E-05
7.158975E+03	1.851788E-03	3.313302E-05
7.168960E+03	1.848571E-03	3.310933E-05
7.178944E+03	1.846689E-03	3.310390E-05
7.188929E+03	1.846110E-03	3.311621E-05
7.198914E+03	1.846720E-03	3.314428E-05
7.208898E+03	1.848370E-03	3.318546E-05
7.218883E+03	1.850882E-03	3.323653E-05
7.228868E+03	1.854145E-03	3.329550E-05
7.238852E+03	1.858056E-03	3.336049E-05
7.248837E+03	1.862485E-03	3.342917E-05
7.258821E+03	1.867403E-03	3.350093E-05
7.268806E+03	1.872684E-03	3.357350E-05
7.278791E+03	1.878066E-03	3.364213E-05
7.288775E+03	1.883277E-03	3.370193E-05
7.298760E+03	1.887862E-03	3.374477E-05
7.308745E+03	1.891335E-03	3.376197E-05
7.318729E+03	1.893205E-03	3.374487E-05
7.328714E+03	1.893173E-03	3.368828E-05
7.338698E+03	1.891059E-03	3.358925E-05
7.348683E+03	1.886958E-03	3.344969E-05
7.358668E+03	1.881216E-03	3.327605E-05
7.368652E+03	1.874385E-03	3.307830E-05
7.378637E+03	1.867134E-03	3.286853E-05
7.388622E+03	1.860152E-03	3.265894E-05
7.398606E+03	1.854032E-03	3.246004E-05
7.408591E+03	1.849167E-03	3.227866E-05
7.418575E+03	1.845796E-03	3.211887E-05
7.428560E+03	1.843857E-03	3.197944E-05
7.438545E+03	1.843007E-03	3.185430E-05
7.448529E+03	1.842801E-03	3.173566E-05
7.458514E+03	1.842676E-03	3.161384E-05
7.468499E+03	1.841979E-03	3.147775E-05
7.478483E+03	1.840112E-03	3.131740E-05
7.488468E+03	1.836588E-03	3.112492E-05
7.498452E+03	1.830969E-03	3.089341E-05
7.508437E+03	1.823100E-03	3.062084E-05
7.518422E+03	1.812843E-03	3.030561E-05
7.528406E+03	1.800263E-03	2.994955E-05
7.538391E+03	1.785587E-03	2.955717E-05
7.548376E+03	1.769115E-03	2.913413E-05
7.558360E+03	1.751330E-03	2.868903E-05
7.568345E+03	1.732696E-03	2.823003E-05
7.578329E+03	1.713816E-03	2.776732E-05
7.588314E+03	1.695259E-03	2.731041E-05
7.598299E+03	1.677651E-03	2.686942E-05
7.608283E+03	1.661470E-03	2.645197E-05
7.618268E+03	1.647115E-03	2.606417E-05
7.628252E+03	1.634874E-03	2.571024E-05
7.638237E+03	1.624840E-03	2.539120E-05
7.648222E+03	1.617011E-03	2.510658E-05
7.658206E+03	1.611210E-03	2.485319E-05
7.668191E+03	1.607207E-03	2.462706E-05
7.678176E+03	1.604670E-03	2.442280E-05
7.688160E+03	1.603202E-03	2.423413E-05
7.698145E+03	1.602467E-03	2.405587E-05
7.708129E+03	1.602098E-03	2.388253E-05
7.718114E+03	1.601718E-03	2.370862E-05
7.728099E+03	1.601103E-03	2.353107E-05
7.738083E+03	1.600040E-03	2.334706E-05
7.748068E+03	1.598351E-03	2.315436E-05
