#wls	flux	fluxerr
1.597540E+03	1.820159E-07	1.595634E-08
1.637478E+03	1.801069E-07	1.577527E-08
1.677417E+03	1.786600E-07	1.563451E-08
1.717355E+03	1.776164E-07	1.552878E-08
1.757294E+03	1.769941E-07	1.545956E-08
1.797232E+03	1.768758E-07	1.543395E-08
1.837171E+03	1.771186E-07	1.543935E-08
1.877109E+03	1.779460E-07	1.549511E-08
1.917048E+03	1.791404E-07	1.558212E-08
1.956986E+03	1.808587E-07	1.571389E-08
1.996925E+03	1.830651E-07	1.588711E-08
2.036863E+03	1.858558E-07	1.610996E-08
2.076802E+03	1.894220E-07	1.639875E-08
2.116740E+03	1.941254E-07	1.678445E-08
2.156679E+03	2.002735E-07	1.729319E-08
2.196617E+03	2.079122E-07	1.792834E-08
2.236556E+03	2.172438E-07	1.870668E-08
2.276494E+03	2.281353E-07	1.961605E-08
2.316433E+03	2.406242E-07	2.065895E-08
2.356371E+03	2.545385E-07	2.181983E-08
2.396310E+03	2.701405E-07	2.312040E-08
2.436248E+03	2.875755E-07	2.457217E-08
2.476187E+03	3.069175E-07	2.618041E-08
2.516125E+03	3.283621E-07	2.796068E-08
2.556064E+03	3.521241E-07	2.992999E-08
2.596002E+03	3.785694E-07	3.211795E-08
2.635941E+03	4.078240E-07	3.453354E-08
2.675879E+03	4.403001E-07	3.720979E-08
2.715818E+03	4.761315E-07	4.015582E-08
2.755756E+03	5.155956E-07	4.339267E-08
2.795695E+03	5.589752E-07	4.694149E-08
2.835633E+03	6.067618E-07	5.084057E-08
2.875572E+03	6.592865E-07	5.511428E-08
2.915510E+03	7.164025E-07	5.974668E-08
2.955449E+03	7.788465E-07	6.479529E-08
2.995387E+03	8.466549E-07	7.025868E-08
3.005372E+03	8.646161E-07	7.170297E-08
3.015356E+03	8.829368E-07	7.317480E-08
3.025341E+03	9.013250E-07	7.464992E-08
3.035326E+03	9.203700E-07	7.617706E-08
3.045310E+03	9.397921E-07	7.773296E-08
3.055295E+03	9.595995E-07	7.931821E-08
3.065279E+03	9.794770E-07	8.090669E-08
3.075264E+03	1.000055E-06	8.255041E-08
3.085249E+03	1.021024E-06	8.422367E-08
3.095233E+03	1.042386E-06	8.592647E-08
3.105218E+03	1.064141E-06	8.765887E-08
3.115203E+03	1.085942E-06	8.939219E-08
3.125187E+03	1.108482E-06	9.118330E-08
3.135172E+03	1.131419E-06	9.300397E-08
3.145156E+03	1.154755E-06	9.485424E-08
3.155141E+03	1.178488E-06	9.673397E-08
3.165126E+03	1.202622E-06	9.864323E-08
3.175110E+03	1.227155E-06	1.005818E-07
3.185095E+03	1.252089E-06	1.025498E-07
3.195080E+03	1.277423E-06	1.045470E-07
3.205064E+03	1.303157E-06	1.065733E-07
3.215049E+03	1.329292E-06	1.086285E-07
3.225033E+03	1.355825E-06	1.107126E-07
3.235018E+03	1.382757E-06	1.128253E-07
3.245003E+03	1.410528E-06	1.150024E-07
3.254987E+03	1.438262E-06	1.171725E-07
3.264972E+03	1.466392E-06	1.193706E-07
3.274957E+03	1.494915E-06	1.215965E-07
3.284941E+03	1.523831E-06	1.238499E-07
3.294926E+03	1.553615E-06	1.261694E-07
3.304910E+03	1.583315E-06	1.284776E-07
3.314895E+03	1.613399E-06	1.308123E-07
3.324880E+03	1.643865E-06	1.331733E-07
3.334864E+03	1.675221E-06	1.356015E-07
3.344849E+03	1.706448E-06	1.380142E-07
3.354834E+03	1.738045E-06	1.404520E-07
3.364818E+03	1.770546E-06	1.429576E-07
3.374803E+03	1.802879E-06	1.454444E-07
3.384787E+03	1.836124E-06	1.479995E-07
3.394772E+03	1.869174E-06	1.505333E-07
3.404757E+03	1.902569E-06	1.530896E-07
3.414741E+03	1.936885E-06	1.557141E-07
3.424726E+03	1.970961E-06	1.583138E-07
3.434711E+03	2.005962E-06	1.609818E-07
3.444695E+03	2.040692E-06	1.636222E-07
3.454680E+03	2.076349E-06	1.663309E-07
3.464664E+03	2.112328E-06	1.690591E-07
3.474649E+03	2.147984E-06	1.717552E-07
3.484634E+03	2.184570E-06	1.745194E-07
3.494618E+03	2.220795E-06	1.772483E-07
3.504603E+03	2.257951E-06	1.800448E-07
3.514588E+03	2.295381E-06	1.828566E-07
3.524572E+03	2.332392E-06	1.856283E-07
3.534557E+03	2.370329E-06	1.884668E-07
3.544541E+03	2.408507E-06	1.913174E-07
3.554526E+03	2.446203E-06	1.941228E-07
3.564511E+03	2.484818E-06	1.969939E-07
3.574495E+03	2.523638E-06	1.998739E-07
3.584480E+03	2.562648E-06	2.027617E-07
3.594465E+03	2.601087E-06	2.055967E-07
3.604449E+03	2.640429E-06	2.084957E-07
3.614434E+03	2.679920E-06	2.113988E-07
3.624418E+03	2.719547E-06	2.143048E-07
3.634403E+03	2.759293E-06	2.172124E-07
3.644388E+03	2.799144E-06	2.201203E-07
3.654372E+03	2.839086E-06	2.230273E-07
3.664357E+03	2.878283E-06	2.258678E-07
3.674342E+03	2.918346E-06	2.287681E-07
3.684326E+03	2.958452E-06	2.316635E-07
3.694311E+03	2.998583E-06	2.345525E-07
3.704295E+03	3.038725E-06	2.374340E-07
3.714280E+03	3.078861E-06	2.403064E-07
3.724265E+03	3.118975E-06	2.431686E-07
3.734249E+03	3.159051E-06	2.460192E-07
3.744234E+03	3.199073E-06	2.488570E-07
3.754219E+03	3.239025E-06	2.516805E-07
3.764203E+03	3.278893E-06	2.544887E-07
3.774188E+03	3.318662E-06	2.572803E-07
3.784172E+03	3.358316E-06	2.600541E-07
3.794157E+03	3.398779E-06	2.628814E-07
3.804142E+03	3.438172E-06	2.656168E-07
3.814126E+03	3.477411E-06	2.683312E-07
3.824111E+03	3.516482E-06	2.710235E-07
3.834095E+03	3.555373E-06	2.736929E-07
3.844080E+03	3.594075E-06	2.763383E-07
3.854065E+03	3.632577E-06	2.789592E-07
3.864049E+03	3.671865E-06	2.816310E-07
3.874034E+03	3.709947E-06	2.842009E-07
3.884019E+03	3.747805E-06	2.867443E-07
3.894003E+03	3.785431E-06	2.892605E-07
3.903988E+03	3.822821E-06	2.917492E-07
3.913972E+03	3.861006E-06	2.942890E-07
3.923957E+03	3.897920E-06	2.967223E-07
3.933942E+03	3.934588E-06	2.991274E-07
3.943926E+03	3.971011E-06	3.015043E-07
3.953911E+03	4.008254E-06	3.039338E-07
3.963896E+03	4.044195E-06	3.062548E-07
3.973880E+03	4.079897E-06	3.085481E-07
3.983865E+03	4.116451E-06	3.108960E-07
3.993849E+03	4.151694E-06	3.131351E-07
4.003834E+03	4.186715E-06	3.153476E-07
4.013819E+03	4.222628E-06	3.176176E-07
4.023803E+03	4.257235E-06	3.197793E-07
4.033788E+03	4.291646E-06	3.219165E-07
4.043773E+03	4.327001E-06	3.241145E-07
4.053757E+03	4.361063E-06	3.262057E-07
4.063742E+03	4.394966E-06	3.282750E-07
4.073726E+03	4.429872E-06	3.304091E-07
4.083711E+03	4.463507E-06	3.324382E-07
4.093696E+03	4.497028E-06	3.344487E-07
4.103680E+03	4.531617E-06	3.365284E-07
4.113665E+03	4.564963E-06	3.385055E-07
4.123650E+03	4.599423E-06	3.405547E-07
4.133634E+03	4.632662E-06	3.425032E-07
4.143619E+03	4.665870E-06	3.444388E-07
4.153603E+03	4.700260E-06	3.464512E-07
4.163588E+03	4.733461E-06	3.483652E-07
4.173573E+03	4.767890E-06	3.503589E-07
4.183557E+03	4.801151E-06	3.522558E-07
4.193542E+03	4.834461E-06	3.541456E-07
4.203527E+03	4.869062E-06	3.561189E-07
4.213511E+03	4.902521E-06	3.579975E-07
4.223496E+03	4.937310E-06	3.599619E-07
4.233480E+03	4.970969E-06	3.618327E-07
4.243465E+03	5.005993E-06	3.637913E-07
4.253450E+03	5.039896E-06	3.656570E-07
4.263434E+03	5.075191E-06	3.676120E-07
4.273419E+03	5.109375E-06	3.694746E-07
4.283404E+03	5.143703E-06	3.713360E-07
4.293388E+03	5.179466E-06	3.732889E-07
4.303373E+03	5.214112E-06	3.751491E-07
4.313357E+03	5.250212E-06	3.771017E-07
4.323342E+03	5.285195E-06	3.789616E-07
4.333327E+03	5.321657E-06	3.809150E-07
4.343311E+03	5.357006E-06	3.827760E-07
4.353296E+03	5.393862E-06	3.847320E-07
4.363281E+03	5.429615E-06	3.865962E-07
4.373265E+03	5.465597E-06	3.884638E-07
4.383250E+03	5.503173E-06	3.904315E-07
4.393234E+03	5.539731E-06	3.923136E-07
4.403219E+03	5.578005E-06	3.943035E-07
4.413204E+03	5.615389E-06	3.962167E-07
4.423188E+03	5.654668E-06	3.982496E-07
4.433173E+03	5.693216E-06	4.002167E-07
4.443158E+03	5.732480E-06	4.022199E-07
4.453142E+03	5.773947E-06	4.043627E-07
4.463127E+03	5.814956E-06	4.064582E-07
4.473111E+03	5.858388E-06	4.087076E-07
4.483096E+03	5.901563E-06	4.109230E-07
4.493081E+03	5.945973E-06	4.132083E-07
4.503065E+03	5.993154E-06	4.156693E-07
4.513050E+03	6.040385E-06	4.181164E-07
4.523035E+03	6.089185E-06	4.206545E-07
4.533019E+03	6.141120E-06	4.233906E-07
4.543004E+03	6.193415E-06	4.261325E-07
4.552988E+03	6.247626E-06	4.289866E-07
4.562973E+03	6.305337E-06	4.320608E-07
4.572958E+03	6.363736E-06	4.351609E-07
4.582942E+03	6.424399E-06	4.383941E-07
4.592927E+03	6.488959E-06	4.418706E-07
4.602912E+03	6.554522E-06	4.453917E-07
4.612896E+03	6.622718E-06	4.490675E-07
4.622881E+03	6.693665E-06	4.529046E-07
4.632865E+03	6.769044E-06	4.570152E-07
4.642850E+03	6.845878E-06	4.611964E-07
4.652835E+03	6.925841E-06	4.655602E-07
4.662819E+03	7.009057E-06	4.701131E-07
4.672804E+03	7.097282E-06	4.749711E-07
4.682789E+03	7.187414E-06	4.799246E-07
4.692773E+03	7.281192E-06	4.850882E-07
4.702758E+03	7.378748E-06	4.904691E-07
4.712742E+03	7.480215E-06	4.960739E-07
4.722727E+03	7.585728E-06	5.019097E-07
4.732712E+03	7.695419E-06	5.079829E-07
4.742696E+03	7.811187E-06	5.144165E-07
4.752681E+03	7.929654E-06	5.209855E-07
4.762665E+03	8.052703E-06	5.278116E-07
4.772650E+03	8.180460E-06	5.349008E-07
4.782635E+03	8.313060E-06	5.422593E-07
4.792619E+03	8.450624E-06	5.498923E-07
4.802604E+03	8.593290E-06	5.578060E-07
4.812589E+03	8.741166E-06	5.660048E-07
4.822573E+03	8.894384E-06	5.744944E-07
4.832558E+03	9.053061E-06	5.832791E-07
4.842542E+03	9.217297E-06	5.923626E-07
4.852527E+03	9.387208E-06	6.017490E-07
4.862512E+03	9.560771E-06	6.113059E-07
4.872496E+03	9.742288E-06	6.213055E-07
4.882481E+03	9.929757E-06	6.316159E-07
4.892466E+03	1.012327E-05	6.422393E-07
4.902450E+03	1.032288E-05	6.531766E-07
4.912435E+03	1.052867E-05	6.644283E-07
4.922419E+03	1.073834E-05	6.758467E-07
4.932404E+03	1.095659E-05	6.877245E-07
4.942389E+03	1.118116E-05	6.999145E-07
4.952373E+03	1.140958E-05	7.122597E-07
4.962358E+03	1.164681E-05	7.250652E-07
4.972343E+03	1.189039E-05	7.381750E-07
4.982327E+03	1.213771E-05	7.514218E-07
4.992312E+03	1.239396E-05	7.651245E-07
5.002296E+03	1.265653E-05	7.791168E-07
5.012281E+03	1.292260E-05	7.932215E-07
5.022266E+03	1.319764E-05	8.077716E-07
5.032250E+03	1.347596E-05	8.224140E-07
5.042235E+03	1.376324E-05	8.374918E-07
5.052220E+03	1.405354E-05	8.526393E-07
5.062204E+03	1.434966E-05	8.680240E-07
5.072189E+03	1.465464E-05	8.838249E-07
5.082173E+03	1.496216E-05	8.996566E-07
5.092158E+03	1.527517E-05	9.156938E-07
5.102143E+03	1.559686E-05	9.321236E-07
5.112127E+03	1.592051E-05	9.485406E-07
5.122112E+03	1.624925E-05	9.651273E-07
5.132097E+03	1.658289E-05	9.818710E-07
5.142081E+03	1.692487E-05	9.989697E-07
5.152066E+03	1.726792E-05	1.015991E-06
5.162050E+03	1.761536E-05	1.033128E-06
5.172035E+03	1.796702E-05	1.050367E-06
5.182020E+03	1.832270E-05	1.067694E-06
5.192004E+03	1.868219E-05	1.085094E-06
5.201989E+03	1.904529E-05	1.102553E-06
5.211974E+03	1.941178E-05	1.120053E-06
5.221958E+03	1.978145E-05	1.137581E-06
5.231943E+03	2.015406E-05	1.155121E-06
5.241927E+03	2.052938E-05	1.172656E-06
5.251912E+03	2.090282E-05	1.189924E-06
5.261897E+03	2.128275E-05	1.207398E-06
5.271881E+03	2.166464E-05	1.224820E-06
5.281866E+03	2.204823E-05	1.242172E-06
5.291851E+03	2.242860E-05	1.259176E-06
5.301835E+03	2.281470E-05	1.276334E-06
5.311820E+03	2.320165E-05	1.293370E-06
5.321804E+03	2.358431E-05	1.309997E-06
5.331789E+03	2.397202E-05	1.326734E-06
5.341774E+03	2.435467E-05	1.343019E-06
5.351758E+03	2.474188E-05	1.359385E-06
5.361743E+03	2.512324E-05	1.375257E-06
5.371728E+03	2.550863E-05	1.391177E-06
5.381712E+03	2.588734E-05	1.406560E-06
5.391697E+03	2.626416E-05	1.421669E-06
5.401681E+03	2.664417E-05	1.436778E-06
5.411666E+03	2.701619E-05	1.451285E-06
5.421651E+03	2.738523E-05	1.465461E-06
5.431635E+03	2.775091E-05	1.479289E-06
5.441620E+03	2.811288E-05	1.492750E-06
5.451605E+03	2.847078E-05	1.505828E-06
5.461589E+03	2.882428E-05	1.518507E-06
5.471574E+03	2.917306E-05	1.530773E-06
5.481558E+03	2.951686E-05	1.542615E-06
5.491543E+03	2.985542E-05	1.554022E-06
5.501528E+03	3.018851E-05	1.564986E-06
5.511512E+03	3.051592E-05	1.575498E-06
5.521497E+03	3.083749E-05	1.585553E-06
5.531482E+03	3.115308E-05	1.595149E-06
5.541466E+03	3.145628E-05	1.603962E-06
5.551451E+03	3.175957E-05	1.612632E-06
5.561435E+03	3.205661E-05	1.620840E-06
5.571420E+03	3.234089E-05	1.628262E-06
5.581405E+03	3.262523E-05	1.635548E-06
5.591389E+03	3.289659E-05	1.642048E-06
5.601374E+03	3.316801E-05	1.648417E-06
5.611359E+03	3.342625E-05	1.654001E-06
5.621343E+03	3.367782E-05	1.659130E-06
5.631328E+03	3.392940E-05	1.664133E-06
5.641312E+03	3.416749E-05	1.668353E-06
5.651297E+03	3.439871E-05	1.672119E-06
5.661282E+03	3.462296E-05	1.675432E-06
5.671266E+03	3.484016E-05	1.678292E-06
5.681251E+03	3.505710E-05	1.681028E-06
5.691235E+03	3.525986E-05	1.682978E-06
5.701220E+03	3.545516E-05	1.684469E-06
5.711205E+03	3.564287E-05	1.685500E-06
5.721189E+03	3.581576E-05	1.685736E-06
5.731174E+03	3.598774E-05	1.685838E-06
5.741159E+03	3.615158E-05	1.685472E-06
5.751143E+03	3.630710E-05	1.684633E-06
5.761128E+03	3.645410E-05	1.683318E-06
5.771112E+03	3.658521E-05	1.681194E-06
5.781097E+03	3.671456E-05	1.678919E-06
5.791082E+03	3.682759E-05	1.675832E-06
5.801066E+03	3.693853E-05	1.672588E-06
5.811051E+03	3.703279E-05	1.668532E-06
5.821036E+03	3.712468E-05	1.664316E-06
5.831020E+03	3.719960E-05	1.659292E-06
5.841005E+03	3.727196E-05	1.654112E-06
5.850989E+03	3.732718E-05	1.648134E-06
5.860974E+03	3.737252E-05	1.641689E-06
5.870959E+03	3.740800E-05	1.634785E-06
5.880943E+03	3.743368E-05	1.627432E-06
5.890928E+03	3.744969E-05	1.619644E-06
5.900913E+03	3.746347E-05	1.611748E-06
5.910897E+03	3.745348E-05	1.602824E-06
5.920882E+03	3.744178E-05	1.593828E-06
5.930866E+03	3.742145E-05	1.584471E-06
5.940851E+03	3.739293E-05	1.574775E-06
5.950836E+03	3.735666E-05	1.564769E-06
5.960820E+03	3.731319E-05	1.554478E-06
5.970805E+03	3.725592E-05	1.543638E-06
5.980790E+03	3.719988E-05	1.532877E-06
5.990774E+03	3.713857E-05	1.521930E-06
6.000759E+03	3.706561E-05	1.510540E-06
6.010743E+03	3.698898E-05	1.499042E-06
6.020728E+03	3.691660E-05	1.487757E-06
6.030713E+03	3.683516E-05	1.476150E-06
6.040697E+03	3.675973E-05	1.464830E-06
6.050682E+03	3.667715E-05	1.453273E-06
6.060667E+03	3.659546E-05	1.441801E-06
6.070651E+03	3.651565E-05	1.430453E-06
6.080636E+03	3.643872E-05	1.419271E-06
6.090620E+03	3.636570E-05	1.408291E-06
6.100605E+03	3.629761E-05	1.397554E-06
6.110590E+03	3.623548E-05	1.387096E-06
6.120574E+03	3.618032E-05	1.376954E-06
6.130559E+03	3.613316E-05	1.367164E-06
6.140544E+03	3.609501E-05	1.357760E-06
6.150528E+03	3.606686E-05	1.348776E-06
6.160513E+03	3.604283E-05	1.339987E-06
6.170497E+03	3.603763E-05	1.331938E-06
6.180482E+03	3.604535E-05	1.324400E-06
6.190467E+03	3.606004E-05	1.317151E-06
6.200451E+03	3.609633E-05	1.310720E-06
6.210436E+03	3.614139E-05	1.304631E-06
6.220421E+03	3.620294E-05	1.299159E-06
6.230405E+03	3.628870E-05	1.294571E-06
6.240390E+03	3.638574E-05	1.290397E-06
6.250374E+03	3.650168E-05	1.286902E-06
6.260359E+03	3.663726E-05	1.284103E-06
6.270344E+03	3.679329E-05	1.282018E-06
6.280328E+03	3.697041E-05	1.280663E-06
6.290313E+03	3.716931E-05	1.280051E-06
6.300298E+03	3.739064E-05	1.280196E-06
6.310282E+03	3.763494E-05	1.281107E-06
6.320267E+03	3.790280E-05	1.282796E-06
6.330251E+03	3.819475E-05	1.285272E-06
6.340236E+03	3.851124E-05	1.288540E-06
6.350221E+03	3.884534E-05	1.292364E-06
6.360205E+03	3.921201E-05	1.297233E-06
6.370190E+03	3.959682E-05	1.302662E-06
6.380175E+03	4.001496E-05	1.309143E-06
6.390159E+03	4.045148E-05	1.316182E-06
6.400144E+03	4.092180E-05	1.324274E-06
6.410128E+03	4.141062E-05	1.332918E-06
6.420113E+03	4.192565E-05	1.342360E-06
6.430098E+03	4.247497E-05	1.352853E-06
6.440082E+03	4.304266E-05	1.363888E-06
6.450067E+03	4.363678E-05	1.375718E-06
6.460052E+03	4.425751E-05	1.388350E-06
6.470036E+03	4.490512E-05	1.401789E-06
6.480021E+03	4.558006E-05	1.416053E-06
6.490005E+03	4.628295E-05	1.431159E-06
6.499990E+03	4.701458E-05	1.447136E-06
6.509975E+03	4.777581E-05	1.464012E-06
6.519959E+03	4.855804E-05	1.481528E-06
6.529944E+03	4.937926E-05	1.500239E-06
6.539929E+03	5.022958E-05	1.519849E-06
6.549913E+03	5.109787E-05	1.540029E-06
6.559898E+03	5.200164E-05	1.561317E-06
6.569882E+03	5.291985E-05	1.583094E-06
6.579867E+03	5.387080E-05	1.605919E-06
6.589852E+03	5.483295E-05	1.629164E-06
6.599836E+03	5.582558E-05	1.653419E-06
6.609821E+03	5.682661E-05	1.678048E-06
6.619805E+03	5.784534E-05	1.703346E-06
6.629790E+03	5.888064E-05	1.729299E-06
6.639775E+03	5.993145E-05	1.755899E-06
6.649759E+03	6.100824E-05	1.783474E-06
6.659744E+03	6.208715E-05	1.811349E-06
6.669729E+03	6.317835E-05	1.839849E-06
6.679713E+03	6.426862E-05	1.868614E-06
6.689698E+03	6.538075E-05	1.898334E-06
6.699682E+03	6.650160E-05	1.928654E-06
6.709667E+03	6.762986E-05	1.959565E-06
6.719652E+03	6.876421E-05	1.991058E-06
6.729636E+03	6.989007E-05	2.022740E-06
6.739621E+03	7.103215E-05	2.055355E-06
6.749606E+03	7.216242E-05	2.088123E-06
6.759590E+03	7.330638E-05	2.121811E-06
6.769575E+03	7.443514E-05	2.155600E-06
6.779559E+03	7.557492E-05	2.190270E-06
6.789544E+03	7.669602E-05	2.224975E-06
6.799529E+03	7.781088E-05	2.260090E-06
6.809513E+03	7.893287E-05	2.296020E-06
6.819498E+03	8.003093E-05	2.331872E-06
6.829483E+03	8.111832E-05	2.368045E-06
6.839467E+03	8.219363E-05	2.404507E-06
6.849452E+03	8.325547E-05	2.441225E-06
6.859436E+03	8.430261E-05	2.478171E-06
6.869421E+03	8.533383E-05	2.515314E-06
6.879406E+03	8.634805E-05	2.552626E-06
6.889390E+03	8.734427E-05	2.590081E-06
6.899375E+03	8.832158E-05	2.627652E-06
6.909360E+03	8.926233E-05	2.664811E-06
6.919344E+03	9.019939E-05	2.702537E-06
6.929329E+03	9.111551E-05	2.740312E-06
6.939313E+03	9.199290E-05	2.777594E-06
6.949298E+03	9.286581E-05	2.815409E-06
6.959283E+03	9.369918E-05	2.852688E-06
6.969267E+03	9.452822E-05	2.890493E-06
6.979252E+03	9.531740E-05	2.927730E-06
6.989237E+03	9.610279E-05	2.965493E-06
6.999221E+03	9.684857E-05	3.002669E-06
7.009206E+03	9.757311E-05	3.039808E-06
7.019190E+03	9.827696E-05	3.076916E-06
7.029175E+03	9.896075E-05	3.113999E-06
7.039160E+03	9.964407E-05	3.151661E-06
7.049144E+03	1.002900E-04	3.188726E-06
7.059129E+03	1.009182E-04	3.225795E-06
7.069114E+03	1.015295E-04	3.262881E-06
7.079098E+03	1.021053E-04	3.299372E-06
7.089083E+03	1.026854E-04	3.336531E-06
7.099067E+03	1.032513E-04	3.373753E-06
7.109052E+03	1.038039E-04	3.411054E-06
7.119037E+03	1.043442E-04	3.448447E-06
7.129021E+03	1.048530E-04	3.485288E-06
7.139006E+03	1.053709E-04	3.522903E-06
7.148991E+03	1.058787E-04	3.560651E-06
7.158975E+03	1.063569E-04	3.597853E-06
7.168960E+03	1.068464E-04	3.635878E-06
7.178944E+03	1.073070E-04	3.673348E-06
7.188929E+03	1.077591E-04	3.710947E-06
7.198914E+03	1.082237E-04	3.749386E-06
7.208898E+03	1.086596E-04	3.787225E-06
7.218883E+03	1.090870E-04	3.825157E-06
7.228868E+03	1.095268E-04	3.863899E-06
7.238852E+03	1.099366E-04	3.901950E-06
7.248837E+03	1.103366E-04	3.940007E-06
7.258821E+03	1.107260E-04	3.978026E-06
7.268806E+03	1.111039E-04	4.015958E-06
7.278791E+03	1.114690E-04	4.053747E-06
7.288775E+03	1.118200E-04	4.091327E-06
7.298760E+03	1.121555E-04	4.128630E-06
7.308745E+03	1.124737E-04	4.165575E-06
7.318729E+03	1.127729E-04	4.202077E-06
7.328714E+03	1.130511E-04	4.238043E-06
7.338698E+03	1.132844E-04	4.272554E-06
7.348683E+03	1.135141E-04	4.307138E-06
7.358668E+03	1.137163E-04	4.340870E-06
7.368652E+03	1.138665E-04	4.372792E-06
7.378637E+03	1.140062E-04	4.404461E-06
7.388622E+03	1.140890E-04	4.434059E-06
7.398606E+03	1.141563E-04	4.463167E-06
7.408591E+03	1.141617E-04	4.489933E-06
7.418575E+03	1.141467E-04	4.515958E-06
7.428560E+03	1.140649E-04	4.539371E-06
7.438545E+03	1.139359E-04	4.560907E-06
7.448529E+03	1.137796E-04	4.581328E-06
7.458514E+03	1.135498E-04	4.598738E-06
7.468499E+03	1.132666E-04	4.613900E-06
7.478483E+03	1.129282E-04	4.626701E-06
7.488468E+03	1.125550E-04	4.637932E-06
7.498452E+03	1.121019E-04	4.645695E-06
7.508437E+03	1.115896E-04	4.650796E-06
7.518422E+03	1.110172E-04	4.653154E-06
7.528406E+03	1.103844E-04	4.652701E-06
7.538391E+03	1.096907E-04	4.649376E-06
7.548376E+03	1.089149E-04	4.642225E-06
7.558360E+03	1.081001E-04	4.633032E-06
7.568345E+03	1.072253E-04	4.620870E-06
7.578329E+03	1.062915E-04	4.605732E-06
7.588314E+03	1.053001E-04	4.587627E-06
7.598299E+03	1.042319E-04	4.565685E-06
7.608283E+03	1.031301E-04	4.541738E-06
7.618268E+03	1.019759E-04	4.514939E-06
7.628252E+03	1.007520E-04	4.484472E-06
7.638237E+03	9.950081E-05	4.452190E-06
7.648222E+03	9.818587E-05	4.416426E-06
7.658206E+03	9.684917E-05	4.379035E-06
7.668191E+03	9.545555E-05	4.338404E-06
7.678176E+03	9.404638E-05	4.296382E-06
7.688160E+03	9.258785E-05	4.251403E-06
7.698145E+03	9.110253E-05	4.204476E-06
7.708129E+03	8.961202E-05	4.156584E-06
7.718114E+03	8.808442E-05	4.106235E-06
7.728099E+03	8.654166E-05	4.054432E-06
7.738083E+03	8.500462E-05	4.002148E-06
7.748068E+03	8.344318E-05	3.947961E-06
