#wls	flux	fluxerr
1.570167E+03	5.814692E-04	1.214713E-04
1.609421E+03	5.895278E-04	1.226030E-04
1.648675E+03	5.980872E-04	1.238073E-04
1.687929E+03	6.069382E-04	1.250386E-04
1.727184E+03	6.165148E-04	1.263838E-04
1.766438E+03	6.263942E-04	1.277534E-04
1.805692E+03	6.367966E-04	1.291897E-04
1.844946E+03	6.475138E-04	1.306478E-04
1.884200E+03	6.589813E-04	1.322127E-04
1.923454E+03	6.709914E-04	1.338388E-04
1.962709E+03	6.833358E-04	1.354814E-04
2.001963E+03	6.964516E-04	1.372238E-04
2.041217E+03	7.099150E-04	1.389784E-04
2.080471E+03	7.241644E-04	1.408274E-04
2.119725E+03	7.387745E-04	1.426837E-04
2.158979E+03	7.539675E-04	1.445864E-04
2.198234E+03	7.697495E-04	1.465321E-04
2.237488E+03	7.861260E-04	1.485173E-04
2.276742E+03	8.028837E-04	1.504971E-04
2.315996E+03	8.202436E-04	1.525086E-04
2.355250E+03	8.382083E-04	1.545469E-04
2.394504E+03	8.565596E-04	1.565668E-04
2.433759E+03	8.755153E-04	1.586032E-04
2.473013E+03	8.950739E-04	1.606502E-04
2.512267E+03	9.150094E-04	1.626616E-04
2.551521E+03	9.353116E-04	1.646307E-04
2.590775E+03	9.561926E-04	1.665897E-04
2.630029E+03	9.774135E-04	1.684909E-04
2.669284E+03	9.989567E-04	1.703265E-04
2.708538E+03	1.021021E-03	1.721248E-04
2.747792E+03	1.043581E-03	1.738753E-04
2.787046E+03	1.066375E-03	1.755288E-04
2.826300E+03	1.089818E-03	1.771477E-04
2.865554E+03	1.113636E-03	1.786807E-04
2.904809E+03	1.138005E-03	1.801498E-04
2.944063E+03	1.163315E-03	1.816092E-04
2.953876E+03	1.169718E-03	1.819602E-04
2.963690E+03	1.176104E-03	1.822981E-04
2.973503E+03	1.182698E-03	1.826577E-04
2.983317E+03	1.189272E-03	1.830036E-04
2.993131E+03	1.196053E-03	1.833703E-04
3.002944E+03	1.202810E-03	1.837224E-04
3.012758E+03	1.209543E-03	1.840597E-04
3.022571E+03	1.216479E-03	1.844165E-04
3.032385E+03	1.223388E-03	1.847579E-04
3.042198E+03	1.230495E-03	1.851178E-04
3.052012E+03	1.237801E-03	1.854956E-04
3.061825E+03	1.245074E-03	1.858567E-04
3.071639E+03	1.252313E-03	1.862006E-04
3.081452E+03	1.259745E-03	1.865610E-04
3.091266E+03	1.267368E-03	1.869371E-04
3.101079E+03	1.275179E-03	1.873285E-04
3.110893E+03	1.282950E-03	1.877009E-04
3.120707E+03	1.291133E-03	1.881205E-04
3.130520E+03	1.299270E-03	1.885200E-04
3.140334E+03	1.307360E-03	1.888992E-04
3.150147E+03	1.315856E-03	1.893235E-04
3.159961E+03	1.324528E-03	1.897588E-04
3.169774E+03	1.333145E-03	1.901720E-04
3.179588E+03	1.342160E-03	1.906275E-04
3.189401E+03	1.351344E-03	1.910919E-04
3.199215E+03	1.360464E-03	1.915323E-04
3.209028E+03	1.369975E-03	1.920124E-04
3.218842E+03	1.379872E-03	1.925308E-04
3.228656E+03	1.389698E-03	1.930230E-04
3.238469E+03	1.399904E-03	1.935516E-04
3.248283E+03	1.410259E-03	1.940841E-04
3.258096E+03	1.420760E-03	1.946195E-04
3.267910E+03	1.431631E-03	1.951881E-04
3.277723E+03	1.442639E-03	1.957577E-04
3.287537E+03	1.454009E-03	1.963581E-04
3.297350E+03	1.465736E-03	1.969880E-04
3.307164E+03	1.477588E-03	1.976155E-04
3.316977E+03	1.489788E-03	1.982701E-04
3.326791E+03	1.502330E-03	1.989502E-04
3.336605E+03	1.515210E-03	1.996544E-04
3.346418E+03	1.528195E-03	2.003517E-04
3.356232E+03	1.541732E-03	2.011000E-04
3.366045E+03	1.555590E-03	2.018680E-04
3.375859E+03	1.569764E-03	2.026545E-04
3.385672E+03	1.584248E-03	2.034581E-04
3.395486E+03	1.599041E-03	2.042779E-04
3.405299E+03	1.614363E-03	2.051411E-04
3.415113E+03	1.629989E-03	2.060182E-04
3.424926E+03	1.646144E-03	2.069369E-04
3.434740E+03	1.662607E-03	2.078682E-04
3.444553E+03	1.679607E-03	2.088401E-04
3.454367E+03	1.697150E-03	2.098522E-04
3.464181E+03	1.715250E-03	2.109048E-04
3.473994E+03	1.733923E-03	2.119988E-04
3.483808E+03	1.752970E-03	2.131086E-04
3.493621E+03	1.772858E-03	2.142903E-04
3.503435E+03	1.793401E-03	2.155192E-04
3.513248E+03	1.814636E-03	2.167985E-04
3.523062E+03	1.836825E-03	2.181579E-04
3.532875E+03	1.859795E-03	2.195748E-04
3.542689E+03	1.883817E-03	2.210794E-04
3.552502E+03	1.908945E-03	2.226756E-04
3.562316E+03	1.935019E-03	2.243427E-04
3.572130E+03	1.962321E-03	2.261109E-04
3.581943E+03	1.990918E-03	2.279854E-04
3.591757E+03	2.020881E-03	2.299714E-04
3.601570E+03	2.052287E-03	2.320746E-04
3.611384E+03	2.085216E-03	2.343010E-04
3.621197E+03	2.119972E-03	2.366811E-04
3.631011E+03	2.156427E-03	2.391969E-04
3.640824E+03	2.194893E-03	2.418789E-04
3.650638E+03	2.235248E-03	2.447095E-04
3.660451E+03	2.277810E-03	2.477191E-04
3.670265E+03	2.322680E-03	2.509138E-04
3.680079E+03	2.369960E-03	2.542998E-04
3.689892E+03	2.419974E-03	2.579060E-04
3.699706E+03	2.472382E-03	2.616908E-04
3.709519E+03	2.527728E-03	2.657059E-04
3.719333E+03	2.585891E-03	2.699327E-04
3.729146E+03	2.646973E-03	2.743754E-04
3.738960E+03	2.711531E-03	2.790852E-04
3.748773E+03	2.779223E-03	2.840195E-04
3.758587E+03	2.850386E-03	2.892060E-04
3.768400E+03	2.925136E-03	2.946488E-04
3.778214E+03	3.003589E-03	3.003520E-04
3.788027E+03	3.086089E-03	3.063416E-04
3.797841E+03	3.172267E-03	3.125731E-04
3.807655E+03	3.262924E-03	3.191168E-04
3.817468E+03	3.357654E-03	3.259241E-04
3.827282E+03	3.456741E-03	3.330137E-04
3.837095E+03	3.560197E-03	3.403779E-04
3.846909E+03	3.667990E-03	3.480047E-04
3.856722E+03	3.780032E-03	3.558770E-04
3.866536E+03	3.896160E-03	3.639710E-04
3.876349E+03	4.016379E-03	3.722793E-04
3.886163E+03	4.140067E-03	3.807366E-04
3.895976E+03	4.266982E-03	3.893145E-04
3.905790E+03	4.396476E-03	3.979486E-04
3.915604E+03	4.527749E-03	4.065626E-04
3.925417E+03	4.659585E-03	4.150460E-04
3.935231E+03	4.791461E-03	4.233529E-04
3.945044E+03	4.922241E-03	4.313854E-04
3.954858E+03	5.050202E-03	4.389979E-04
3.964671E+03	5.174728E-03	4.461454E-04
3.974485E+03	5.294721E-03	4.527433E-04
3.984298E+03	5.409173E-03	4.587178E-04
3.994112E+03	5.517199E-03	4.640088E-04
4.003925E+03	5.617769E-03	4.685458E-04
4.013739E+03	5.710816E-03	4.723417E-04
4.023553E+03	5.795568E-03	4.753509E-04
4.033366E+03	5.871643E-03	4.775623E-04
4.043180E+03	5.939035E-03	4.789957E-04
4.052993E+03	5.997294E-03	4.796353E-04
4.062807E+03	6.046338E-03	4.794956E-04
4.072620E+03	6.086712E-03	4.786407E-04
4.082434E+03	6.118020E-03	4.770592E-04
4.092247E+03	6.140775E-03	4.748114E-04
4.102061E+03	6.155371E-03	4.719464E-04
4.111874E+03	6.162346E-03	4.685233E-04
4.121688E+03	6.162619E-03	4.646283E-04
4.131501E+03	6.156527E-03	4.603014E-04
4.141315E+03	6.145466E-03	4.556600E-04
4.151129E+03	6.130207E-03	4.507720E-04
4.160942E+03	6.111807E-03	4.457241E-04
4.170756E+03	6.091559E-03	4.406173E-04
4.180569E+03	6.070514E-03	4.355321E-04
4.190383E+03	6.049491E-03	4.305299E-04
4.200196E+03	6.029476E-03	4.256821E-04
4.210010E+03	6.011778E-03	4.210805E-04
4.219823E+03	5.996853E-03	4.167549E-04
4.229637E+03	5.985862E-03	4.127826E-04
4.239450E+03	5.979141E-03	4.091826E-04
4.249264E+03	5.977694E-03	4.060187E-04
4.259078E+03	5.981725E-03	4.032990E-04
4.268891E+03	5.992237E-03	4.010852E-04
4.278705E+03	6.009110E-03	3.993629E-04
4.288518E+03	6.033168E-03	3.981807E-04
4.298332E+03	6.064321E-03	3.975264E-04
4.308145E+03	6.102916E-03	3.974173E-04
4.317959E+03	6.149258E-03	3.978676E-04
4.327772E+03	6.203142E-03	3.988595E-04
4.337586E+03	6.265184E-03	4.004284E-04
4.347399E+03	6.335368E-03	4.025693E-04
4.357213E+03	6.413890E-03	4.052921E-04
4.367026E+03	6.501166E-03	4.086205E-04
4.376840E+03	6.597505E-03	4.125723E-04
4.386654E+03	6.703300E-03	4.171709E-04
4.396467E+03	6.819298E-03	4.224625E-04
4.406281E+03	6.945704E-03	4.284600E-04
4.416094E+03	7.083489E-03	4.352245E-04
4.425908E+03	7.233014E-03	4.427802E-04
4.435721E+03	7.394894E-03	4.511676E-04
4.445535E+03	7.569471E-03	4.604115E-04
4.455348E+03	7.756911E-03	4.705245E-04
4.465162E+03	7.957291E-03	4.815136E-04
4.474975E+03	8.170234E-03	4.933591E-04
4.484789E+03	8.394850E-03	5.060120E-04
4.494603E+03	8.629998E-03	5.194093E-04
4.504416E+03	8.873947E-03	5.334534E-04
4.514230E+03	9.124708E-03	5.480328E-04
4.524043E+03	9.379772E-03	5.630047E-04
4.533857E+03	9.636333E-03	5.782096E-04
4.543670E+03	9.891277E-03	5.934688E-04
4.553484E+03	1.014181E-02	6.086226E-04
4.563297E+03	1.038514E-02	6.235109E-04
4.573111E+03	1.061829E-02	6.379590E-04
4.582924E+03	1.083970E-02	6.518788E-04
4.592738E+03	1.104723E-02	6.651429E-04
4.602552E+03	1.124040E-02	6.777226E-04
4.612365E+03	1.141891E-02	6.895983E-04
4.622179E+03	1.158301E-02	7.007828E-04
4.631992E+03	1.173381E-02	7.113384E-04
4.641806E+03	1.187336E-02	7.213849E-04
4.651619E+03	1.200369E-02	7.310401E-04
4.661433E+03	1.212713E-02	7.404411E-04
4.671246E+03	1.224664E-02	7.497643E-04
4.681060E+03	1.236458E-02	7.591499E-04
4.690873E+03	1.248336E-02	7.687432E-04
4.700687E+03	1.260446E-02	7.786344E-04
4.710500E+03	1.272950E-02	7.889216E-04
4.720314E+03	1.285902E-02	7.996395E-04
4.730128E+03	1.299320E-02	8.107986E-04
4.739941E+03	1.313180E-02	8.223855E-04
4.749755E+03	1.327413E-02	8.343562E-04
4.759568E+03	1.341868E-02	8.466159E-04
4.769382E+03	1.356401E-02	8.590723E-04
4.779195E+03	1.370797E-02	8.715868E-04
4.789009E+03	1.384840E-02	8.840177E-04
4.798822E+03	1.398248E-02	8.961795E-04
4.808636E+03	1.410767E-02	9.078998E-04
4.818449E+03	1.422074E-02	9.189599E-04
4.828263E+03	1.431886E-02	9.291642E-04
4.838077E+03	1.439894E-02	9.382948E-04
4.847890E+03	1.445803E-02	9.461417E-04
4.857704E+03	1.449390E-02	9.525358E-04
4.867517E+03	1.450462E-02	9.573277E-04
4.877331E+03	1.448892E-02	9.604081E-04
4.887144E+03	1.444617E-02	9.617081E-04
4.896958E+03	1.437696E-02	9.612408E-04
4.906771E+03	1.428213E-02	9.590359E-04
4.916585E+03	1.416349E-02	9.551900E-04
4.926398E+03	1.402253E-02	9.497791E-04
4.936212E+03	1.386151E-02	9.429348E-04
4.946026E+03	1.368202E-02	9.347440E-04
4.955839E+03	1.348575E-02	9.253047E-04
4.965653E+03	1.327433E-02	9.147116E-04
4.975466E+03	1.304948E-02	9.030675E-04
4.985280E+03	1.281311E-02	8.904916E-04
4.995093E+03	1.256788E-02	8.771565E-04
5.004907E+03	1.231666E-02	8.632553E-04
5.014720E+03	1.206344E-02	8.490616E-04
5.024534E+03	1.181220E-02	8.348526E-04
5.034347E+03	1.156762E-02	8.209633E-04
5.044161E+03	1.133396E-02	8.077010E-04
5.053974E+03	1.111554E-02	7.953839E-04
5.063788E+03	1.091607E-02	7.842921E-04
5.073602E+03	1.073860E-02	7.746613E-04
5.083415E+03	1.058539E-02	7.666744E-04
5.093229E+03	1.045775E-02	7.604472E-04
5.103042E+03	1.035645E-02	7.560574E-04
5.112856E+03	1.028112E-02	7.535017E-04
5.122669E+03	1.023087E-02	7.527354E-04
5.132483E+03	1.020435E-02	7.536806E-04
5.142296E+03	1.019957E-02	7.562102E-04
5.152110E+03	1.021475E-02	7.602084E-04
5.161923E+03	1.024783E-02	7.655394E-04
5.171737E+03	1.029657E-02	7.720490E-04
5.181551E+03	1.035936E-02	7.796292E-04
5.191364E+03	1.043413E-02	7.881347E-04
5.201178E+03	1.051947E-02	7.974684E-04
5.210991E+03	1.061394E-02	8.075287E-04
5.220805E+03	1.071610E-02	8.182127E-04
5.230618E+03	1.082479E-02	8.294390E-04
5.240432E+03	1.093862E-02	8.411035E-04
5.250245E+03	1.105670E-02	8.531429E-04
5.260059E+03	1.117751E-02	8.654419E-04
5.269872E+03	1.129992E-02	8.779153E-04
5.279686E+03	1.142270E-02	8.904680E-04
5.289500E+03	1.154463E-02	9.030046E-04
5.299313E+03	1.166451E-02	9.154303E-04
5.309127E+03	1.178098E-02	9.276361E-04
5.318940E+03	1.189322E-02	9.395550E-04
5.328754E+03	1.200020E-02	9.511021E-04
5.338567E+03	1.210104E-02	9.622032E-04
5.348381E+03	1.219513E-02	9.728056E-04
5.358194E+03	1.228198E-02	9.828649E-04
5.368008E+03	1.236153E-02	9.923704E-04
5.377821E+03	1.243370E-02	1.001312E-03
5.387635E+03	1.249864E-02	1.009696E-03
5.397448E+03	1.255661E-02	1.017539E-03
5.407262E+03	1.260829E-02	1.024889E-03
5.417076E+03	1.265394E-02	1.031764E-03
5.426889E+03	1.269397E-02	1.038189E-03
5.436703E+03	1.272882E-02	1.044195E-03
5.446516E+03	1.275855E-02	1.049783E-03
5.456330E+03	1.278332E-02	1.054959E-03
5.466143E+03	1.280322E-02	1.059726E-03
5.475957E+03	1.281853E-02	1.064102E-03
5.485770E+03	1.282920E-02	1.068079E-03
5.495584E+03	1.283569E-02	1.071690E-03
5.505397E+03	1.283836E-02	1.074960E-03
5.515211E+03	1.283801E-02	1.077953E-03
5.525025E+03	1.283518E-02	1.080711E-03
5.534838E+03	1.283077E-02	1.083307E-03
5.544652E+03	1.282569E-02	1.085815E-03
5.554465E+03	1.282061E-02	1.088291E-03
5.564279E+03	1.281627E-02	1.090795E-03
5.574092E+03	1.281259E-02	1.093323E-03
5.583906E+03	1.280981E-02	1.095891E-03
5.593719E+03	1.280732E-02	1.098450E-03
5.603533E+03	1.280452E-02	1.100943E-03
5.613346E+03	1.280035E-02	1.103281E-03
5.623160E+03	1.279427E-02	1.105414E-03
5.632974E+03	1.278524E-02	1.107250E-03
5.642787E+03	1.277289E-02	1.108754E-03
5.652601E+03	1.275716E-02	1.109918E-03
5.662414E+03	1.273861E-02	1.110787E-03
5.672228E+03	1.271816E-02	1.111439E-03
5.682041E+03	1.269724E-02	1.112000E-03
5.691855E+03	1.267770E-02	1.112629E-03
5.701668E+03	1.266179E-02	1.113524E-03
5.711482E+03	1.265182E-02	1.114890E-03
5.721295E+03	1.265010E-02	1.116933E-03
5.731109E+03	1.265868E-02	1.119839E-03
5.740922E+03	1.267982E-02	1.123812E-03
5.750736E+03	1.271457E-02	1.128951E-03
5.760550E+03	1.276400E-02	1.135355E-03
5.770363E+03	1.282824E-02	1.143042E-03
5.780177E+03	1.290662E-02	1.151958E-03
5.789990E+03	1.299762E-02	1.161971E-03
5.799804E+03	1.309886E-02	1.172872E-03
5.809617E+03	1.320716E-02	1.184378E-03
5.819431E+03	1.331872E-02	1.196148E-03
5.829244E+03	1.342909E-02	1.207781E-03
5.839058E+03	1.353350E-02	1.218846E-03
5.848871E+03	1.362718E-02	1.228907E-03
5.858685E+03	1.370574E-02	1.237564E-03
5.868499E+03	1.376511E-02	1.244440E-03
5.878312E+03	1.380237E-02	1.249263E-03
5.888126E+03	1.381511E-02	1.251808E-03
5.897939E+03	1.380219E-02	1.251962E-03
5.907753E+03	1.376324E-02	1.249685E-03
5.917566E+03	1.369893E-02	1.245030E-03
5.927380E+03	1.361070E-02	1.238121E-03
5.937193E+03	1.350035E-02	1.229118E-03
5.947007E+03	1.337057E-02	1.218262E-03
5.956820E+03	1.322415E-02	1.205805E-03
5.966634E+03	1.306420E-02	1.192028E-03
5.976447E+03	1.289391E-02	1.177223E-03
5.986261E+03	1.271643E-02	1.161677E-03
5.996075E+03	1.253464E-02	1.145656E-03
6.005888E+03	1.235142E-02	1.129423E-03
6.015702E+03	1.216914E-02	1.113200E-03
6.025515E+03	1.199016E-02	1.097203E-03
6.035329E+03	1.181606E-02	1.081580E-03
6.045142E+03	1.164846E-02	1.066483E-03
6.054956E+03	1.148844E-02	1.052014E-03
6.064769E+03	1.133667E-02	1.038235E-03
6.074583E+03	1.119386E-02	1.025216E-03
6.084396E+03	1.106033E-02	1.012987E-03
6.094210E+03	1.093625E-02	1.001566E-03
6.104024E+03	1.082189E-02	9.909781E-04
6.113837E+03	1.071703E-02	9.812066E-04
6.123651E+03	1.062200E-02	9.722816E-04
6.133464E+03	1.053637E-02	9.641644E-04
6.143278E+03	1.046030E-02	9.568701E-04
6.153091E+03	1.039332E-02	9.503572E-04
6.162905E+03	1.033526E-02	9.446086E-04
6.172718E+03	1.028604E-02	9.396180E-04
6.182532E+03	1.024549E-02	9.353692E-04
6.192345E+03	1.021363E-02	9.318622E-04
6.202159E+03	1.019081E-02	9.291283E-04
6.211973E+03	1.017772E-02	9.272283E-04
6.221786E+03	1.017535E-02	9.262514E-04
6.231600E+03	1.018530E-02	9.263383E-04
6.241413E+03	1.020968E-02	9.276796E-04
6.251227E+03	1.025075E-02	9.304734E-04
6.261040E+03	1.031168E-02	9.350045E-04
6.270854E+03	1.039586E-02	9.415701E-04
6.280667E+03	1.050708E-02	9.505050E-04
6.290481E+03	1.064979E-02	9.622009E-04
6.300294E+03	1.082854E-02	9.770550E-04
6.310108E+03	1.104849E-02	9.955150E-04
6.319921E+03	1.131512E-02	1.018055E-03
6.329735E+03	1.163414E-02	1.045165E-03
6.339549E+03	1.201160E-02	1.077360E-03
6.349362E+03	1.245344E-02	1.115140E-03
6.359176E+03	1.296592E-02	1.159028E-03
6.368989E+03	1.355469E-02	1.209486E-03
6.378803E+03	1.422485E-02	1.266922E-03
6.388616E+03	1.498056E-02	1.331652E-03
6.398430E+03	1.582428E-02	1.403837E-03
6.408243E+03	1.675576E-02	1.483394E-03
6.418057E+03	1.777202E-02	1.569993E-03
6.427870E+03	1.886587E-02	1.662936E-03
6.437684E+03	2.002469E-02	1.761047E-03
6.447498E+03	2.123093E-02	1.862726E-03
6.457311E+03	2.246064E-02	1.965826E-03
6.467125E+03	2.368409E-02	2.067717E-03
6.476938E+03	2.486576E-02	2.165286E-03
6.486752E+03	2.596797E-02	2.255269E-03
6.496565E+03	2.695123E-02	2.334281E-03
6.506379E+03	2.777818E-02	2.399165E-03
6.516192E+03	2.841768E-02	2.447337E-03
6.526006E+03	2.884587E-02	2.476878E-03
6.535819E+03	2.904920E-02	2.486782E-03
6.545633E+03	2.902532E-02	2.477022E-03
6.555447E+03	2.878179E-02	2.448422E-03
6.565260E+03	2.833598E-02	2.402639E-03
6.575074E+03	2.771209E-02	2.341896E-03
6.584887E+03	2.693878E-02	2.268769E-03
6.594701E+03	2.604745E-02	2.186037E-03
6.604514E+03	2.507033E-02	2.096516E-03
6.614328E+03	2.403679E-02	2.002746E-03
6.624141E+03	2.297512E-02	1.907146E-03
6.633955E+03	2.190863E-02	1.811690E-03
6.643768E+03	2.085722E-02	1.718038E-03
6.653582E+03	1.983689E-02	1.627507E-03
6.663395E+03	1.885924E-02	1.541031E-03
6.673209E+03	1.793276E-02	1.459278E-03
6.683023E+03	1.706249E-02	1.382617E-03
6.692836E+03	1.625113E-02	1.311224E-03
6.702650E+03	1.549940E-02	1.245109E-03
6.712463E+03	1.480648E-02	1.184155E-03
6.722277E+03	1.417048E-02	1.128161E-03
6.732090E+03	1.358876E-02	1.076866E-03
6.741904E+03	1.305824E-02	1.029976E-03
6.751717E+03	1.257542E-02	9.871685E-04
6.761531E+03	1.213707E-02	9.481449E-04
6.771344E+03	1.173967E-02	9.125884E-04
6.781158E+03	1.138009E-02	8.802164E-04
6.790972E+03	1.105513E-02	8.507440E-04
6.800785E+03	1.076180E-02	8.239066E-04
6.810599E+03	1.049774E-02	7.994915E-04
6.820412E+03	1.026042E-02	7.772775E-04
6.830226E+03	1.004774E-02	7.570775E-04
6.840039E+03	9.857669E-03	7.387135E-04
6.849853E+03	9.688660E-03	7.220450E-04
6.859666E+03	9.539068E-03	7.069277E-04
6.869480E+03	9.407620E-03	6.932467E-04
6.879293E+03	9.292939E-03	6.808811E-04
6.889107E+03	9.193817E-03	6.697243E-04
6.898921E+03	9.109114E-03	6.596769E-04
6.908734E+03	9.037714E-03	6.506425E-04
6.918548E+03	8.978527E-03	6.425286E-04
6.928361E+03	8.930375E-03	6.352381E-04
6.938175E+03	8.892290E-03	6.286908E-04
6.947988E+03	8.863235E-03	6.228032E-04
6.957802E+03	8.842062E-03	6.174860E-04
6.967615E+03	8.827786E-03	6.126632E-04
6.977429E+03	8.819551E-03	6.082693E-04
6.987242E+03	8.816365E-03	6.042312E-04
6.997056E+03	8.817305E-03	6.004825E-04
7.006869E+03	8.821862E-03	5.969862E-04
7.016683E+03	8.829306E-03	5.936917E-04
7.026497E+03	8.839112E-03	5.905633E-04
7.036310E+03	8.850754E-03	5.875667E-04
7.046124E+03	8.864104E-03	5.846943E-04
7.055937E+03	8.878682E-03	5.819164E-04
7.065751E+03	8.894260E-03	5.792202E-04
7.075564E+03	8.910858E-03	5.766100E-04
7.085378E+03	8.928054E-03	5.740615E-04
7.095191E+03	8.945627E-03	5.715642E-04
7.105005E+03	8.963568E-03	5.691215E-04
7.114818E+03	8.981380E-03	5.667064E-04
7.124632E+03	8.998775E-03	5.643058E-04
7.134446E+03	9.015569E-03	5.619139E-04
7.144259E+03	9.031442E-03	5.595166E-04
7.154073E+03	9.046081E-03	5.571011E-04
7.163886E+03	9.059059E-03	5.546481E-04
7.173700E+03	9.070182E-03	5.521531E-04
7.183513E+03	9.079168E-03	5.496067E-04
7.193327E+03	9.085621E-03	5.469931E-04
7.203140E+03	9.089497E-03	5.443180E-04
7.212954E+03	9.090312E-03	5.415609E-04
7.222767E+03	9.088059E-03	5.387300E-04
7.232581E+03	9.082386E-03	5.358132E-04
7.242395E+03	9.073078E-03	5.328066E-04
7.252208E+03	9.059827E-03	5.297006E-04
7.262022E+03	9.042870E-03	5.265178E-04
7.271835E+03	9.021756E-03	5.232400E-04
7.281649E+03	8.996722E-03	5.198889E-04
7.291462E+03	8.967719E-03	5.164689E-04
7.301276E+03	8.934897E-03	5.129956E-04
7.311089E+03	8.898448E-03	5.094863E-04
7.320903E+03	8.858751E-03	5.059683E-04
7.330716E+03	8.815980E-03	5.024563E-04
7.340530E+03	8.770432E-03	4.989716E-04
7.350343E+03	8.722423E-03	4.955357E-04
7.360157E+03	8.672387E-03	4.921762E-04
7.369971E+03	8.620515E-03	4.889062E-04
7.379784E+03	8.567230E-03	4.857514E-04
7.389598E+03	8.512709E-03	4.827231E-04
7.399411E+03	8.457375E-03	4.798457E-04
7.409225E+03	8.401425E-03	4.771307E-04
7.419038E+03	8.345281E-03	4.746019E-04
7.428852E+03	8.289154E-03	4.722706E-04
7.438665E+03	8.233502E-03	4.701608E-04
7.448479E+03	8.178669E-03	4.682862E-04
7.458292E+03	8.125012E-03	4.666610E-04
7.468106E+03	8.072778E-03	4.652926E-04
7.477920E+03	8.022299E-03	4.641943E-04
7.487733E+03	7.974154E-03	4.633936E-04
7.497547E+03	7.928304E-03	4.628831E-04
7.507360E+03	7.885398E-03	4.626956E-04
7.517174E+03	7.845480E-03	4.628295E-04
7.526987E+03	7.808914E-03	4.633024E-04
7.536801E+03	7.775813E-03	4.641181E-04
7.546614E+03	7.746506E-03	4.652936E-04
7.556428E+03	7.721160E-03	4.668371E-04
7.566241E+03	7.699940E-03	4.687577E-04
7.576055E+03	7.682885E-03	4.710571E-04
7.585868E+03	7.670318E-03	4.737555E-04
7.595682E+03	7.662115E-03	4.768460E-04
7.605496E+03	7.658434E-03	4.803398E-04
7.615309E+03	7.659268E-03	4.842385E-04
