#wls	flux	fluxerr
1.570167E+03	2.174499E-04	1.954574E-05
1.609421E+03	2.244699E-04	2.012390E-05
1.648675E+03	2.318402E-04	2.072899E-05
1.687929E+03	2.395057E-04	2.135572E-05
1.727184E+03	2.476187E-04	2.201730E-05
1.766438E+03	2.561259E-04	2.270855E-05
1.805692E+03	2.650433E-04	2.343044E-05
1.844946E+03	2.743870E-04	2.418394E-05
1.884200E+03	2.841739E-04	2.497003E-05
1.923454E+03	2.944211E-04	2.578972E-05
1.962709E+03	3.051463E-04	2.664400E-05
2.001963E+03	3.164464E-04	2.754075E-05
2.041217E+03	3.281836E-04	2.846734E-05
2.080471E+03	3.405356E-04	2.943857E-05
2.119725E+03	3.534426E-04	3.044858E-05
2.158979E+03	3.670085E-04	3.150556E-05
2.198234E+03	3.810851E-04	3.259605E-05
2.237488E+03	3.958622E-04	3.373554E-05
2.276742E+03	4.112745E-04	3.491760E-05
2.315996E+03	4.273409E-04	3.614303E-05
2.355250E+03	4.440804E-04	3.741253E-05
2.394504E+03	4.616046E-04	3.873461E-05
2.433759E+03	4.797448E-04	4.009414E-05
2.473013E+03	4.987073E-04	4.150741E-05
2.512267E+03	5.184137E-04	4.296687E-05
2.551521E+03	5.388783E-04	4.447268E-05
2.590775E+03	5.601144E-04	4.602489E-05
2.630029E+03	5.822384E-04	4.763199E-05
2.669284E+03	6.051596E-04	4.928541E-05
2.708538E+03	6.289954E-04	5.099358E-05
2.747792E+03	6.536485E-04	5.274744E-05
2.787046E+03	6.793504E-04	5.456448E-05
2.826300E+03	7.060036E-04	5.643555E-05
2.865554E+03	7.337360E-04	5.836961E-05
2.904809E+03	7.626837E-04	6.037608E-05
2.944063E+03	7.929929E-04	6.246496E-05
2.953876E+03	8.007339E-04	6.299600E-05
2.963690E+03	8.086383E-04	6.353824E-05
2.973503E+03	8.165856E-04	6.408215E-05
2.983317E+03	8.246985E-04	6.463734E-05
2.993131E+03	8.328553E-04	6.519425E-05
3.002944E+03	8.411800E-04	6.576254E-05
3.012758E+03	8.496746E-04	6.634233E-05
3.022571E+03	8.582155E-04	6.692394E-05
3.032385E+03	8.668027E-04	6.750734E-05
3.042198E+03	8.756890E-04	6.811218E-05
3.052012E+03	8.846253E-04	6.871903E-05
3.061825E+03	8.936107E-04	6.932781E-05
3.071639E+03	9.027734E-04	6.994843E-05
3.081452E+03	9.122445E-04	7.059100E-05
3.091266E+03	9.216418E-04	7.122587E-05
3.101079E+03	9.313504E-04	7.188280E-05
3.110893E+03	9.412456E-04	7.255209E-05
3.120707E+03	9.511998E-04	7.322386E-05
3.130520E+03	9.613442E-04	7.390818E-05
3.140334E+03	9.718121E-04	7.461523E-05
3.150147E+03	9.823451E-04	7.532512E-05
3.159961E+03	9.930766E-04	7.604803E-05
3.169774E+03	1.004143E-03	7.679431E-05
3.179588E+03	1.015280E-03	7.754377E-05
3.189401E+03	1.026759E-03	7.831703E-05
3.199215E+03	1.038451E-03	7.910416E-05
3.209028E+03	1.050358E-03	7.990525E-05
3.218842E+03	1.062485E-03	8.072064E-05
3.228656E+03	1.074971E-03	8.156083E-05
3.238469E+03	1.087686E-03	8.241579E-05
3.248283E+03	1.100633E-03	8.328586E-05
3.258096E+03	1.113957E-03	8.418170E-05
3.267910E+03	1.127523E-03	8.509325E-05
3.277723E+03	1.141478E-03	8.603135E-05
3.287537E+03	1.155827E-03	8.699636E-05
3.297350E+03	1.170437E-03	8.797817E-05
3.307164E+03	1.185456E-03	8.898784E-05
3.316977E+03	1.200892E-03	9.002575E-05
3.326791E+03	1.216610E-03	9.108179E-05
3.336605E+03	1.232903E-03	9.217777E-05
3.346418E+03	1.249496E-03	9.329294E-05
3.356232E+03	1.266538E-03	9.443845E-05
3.366045E+03	1.284186E-03	9.562578E-05
3.375859E+03	1.302160E-03	9.683396E-05
3.385672E+03	1.320761E-03	9.808530E-05
3.395486E+03	1.339856E-03	9.936969E-05
3.405299E+03	1.359455E-03	1.006879E-04
3.415113E+03	1.379718E-03	1.020514E-04
3.424926E+03	1.400364E-03	1.034394E-04
3.434740E+03	1.421847E-03	1.048854E-04
3.444553E+03	1.443888E-03	1.063685E-04
3.454367E+03	1.466501E-03	1.078895E-04
3.464181E+03	1.489999E-03	1.094715E-04
3.473994E+03	1.514098E-03	1.110932E-04
3.483808E+03	1.538814E-03	1.127558E-04
3.493621E+03	1.564468E-03	1.144824E-04
3.503435E+03	1.590925E-03	1.162632E-04
3.513248E+03	1.618202E-03	1.180991E-04
3.523062E+03	1.646163E-03	1.199800E-04
3.532875E+03	1.675136E-03	1.219296E-04
3.542689E+03	1.705141E-03	1.239491E-04
3.552502E+03	1.735884E-03	1.260169E-04
3.562316E+03	1.767698E-03	1.281570E-04
3.572130E+03	1.800604E-03	1.303706E-04
3.581943E+03	1.834461E-03	1.326474E-04
3.591757E+03	1.869289E-03	1.349885E-04
3.601570E+03	1.905428E-03	1.374183E-04
3.611384E+03	1.942574E-03	1.399145E-04
3.621197E+03	1.980908E-03	1.424900E-04
3.631011E+03	2.020448E-03	1.451457E-04
3.640824E+03	2.061376E-03	1.478945E-04
3.650638E+03	2.103377E-03	1.507136E-04
3.660451E+03	2.146630E-03	1.536154E-04
3.670265E+03	2.191319E-03	1.566129E-04
3.680079E+03	2.237457E-03	1.597067E-04
3.689892E+03	2.284711E-03	1.628728E-04
3.699706E+03	2.333605E-03	1.661483E-04
3.709519E+03	2.383802E-03	1.695088E-04
3.719333E+03	2.435476E-03	1.729666E-04
3.729146E+03	2.488454E-03	1.765091E-04
3.738960E+03	2.543086E-03	1.801607E-04
3.748773E+03	2.599190E-03	1.839085E-04
3.758587E+03	2.656758E-03	1.877515E-04
3.768400E+03	2.715776E-03	1.916885E-04
3.778214E+03	2.776225E-03	1.957179E-04
3.788027E+03	2.838269E-03	1.998511E-04
3.797841E+03	2.901698E-03	2.040732E-04
3.807655E+03	2.966665E-03	2.083946E-04
3.817468E+03	3.033137E-03	2.128128E-04
3.827282E+03	3.100886E-03	2.173117E-04
3.837095E+03	3.170053E-03	2.219010E-04
3.846909E+03	3.240778E-03	2.265904E-04
3.856722E+03	3.312623E-03	2.313492E-04
3.866536E+03	3.385719E-03	2.361863E-04
3.876349E+03	3.460190E-03	2.411104E-04
3.886163E+03	3.535771E-03	2.461030E-04
3.895976E+03	3.612579E-03	2.511721E-04
3.905790E+03	3.690337E-03	2.562986E-04
3.915604E+03	3.768956E-03	2.614761E-04
3.925417E+03	3.848739E-03	2.667260E-04
3.935231E+03	3.929194E-03	2.720142E-04
3.945044E+03	4.010221E-03	2.773337E-04
3.954858E+03	4.092116E-03	2.827053E-04
3.964671E+03	4.174573E-03	2.881079E-04
3.974485E+03	4.257483E-03	2.935343E-04
3.984298E+03	4.340735E-03	2.989771E-04
3.994112E+03	4.424218E-03	3.044288E-04
4.003925E+03	4.507818E-03	3.098819E-04
4.013739E+03	4.591626E-03	3.153430E-04
4.023553E+03	4.675324E-03	3.207906E-04
4.033366E+03	4.759005E-03	3.262314E-04
4.043180E+03	4.842354E-03	3.316442E-04
4.052993E+03	4.925261E-03	3.370219E-04
4.062807E+03	5.008026E-03	3.423856E-04
4.072620E+03	5.089935E-03	3.476867E-04
4.082434E+03	5.171494E-03	3.529605E-04
4.092247E+03	5.252200E-03	3.581730E-04
4.102061E+03	5.331958E-03	3.633184E-04
4.111874E+03	5.410878E-03	3.684046E-04
4.121688E+03	5.488871E-03	3.734262E-04
4.131501E+03	5.565852E-03	3.783779E-04
4.141315E+03	5.641540E-03	3.832412E-04
4.151129E+03	5.716057E-03	3.880251E-04
4.160942E+03	5.789130E-03	3.927114E-04
4.170756E+03	5.860885E-03	3.973095E-04
4.180569E+03	5.931057E-03	4.018020E-04
4.190383E+03	5.999777E-03	4.061983E-04
4.200196E+03	6.066786E-03	4.104816E-04
4.210010E+03	6.132215E-03	4.146613E-04
4.219823E+03	6.195813E-03	4.187210E-04
4.229637E+03	6.257522E-03	4.226575E-04
4.239450E+03	6.317286E-03	4.264676E-04
4.249264E+03	6.374866E-03	4.301358E-04
4.259078E+03	6.430583E-03	4.336843E-04
4.268891E+03	6.484017E-03	4.370854E-04
4.278705E+03	6.535306E-03	4.403490E-04
4.288518E+03	6.584414E-03	4.434733E-04
4.298332E+03	6.630953E-03	4.464327E-04
4.308145E+03	6.675279E-03	4.492517E-04
4.317959E+03	6.717047E-03	4.519076E-04
4.327772E+03	6.756468E-03	4.544151E-04
4.337586E+03	6.793595E-03	4.567783E-04
4.347399E+03	6.828315E-03	4.589901E-04
4.357213E+03	6.860702E-03	4.610558E-04
4.367026E+03	6.890665E-03	4.629698E-04
4.376840E+03	6.918616E-03	4.647597E-04
4.386654E+03	6.944137E-03	4.663977E-04
4.396467E+03	6.967636E-03	4.679111E-04
4.406281E+03	6.989023E-03	4.692941E-04
4.416094E+03	7.008217E-03	4.705411E-04
4.425908E+03	7.025292E-03	4.716571E-04
4.435721E+03	7.040316E-03	4.726466E-04
4.445535E+03	7.053356E-03	4.735142E-04
4.455348E+03	7.064324E-03	4.742537E-04
4.465162E+03	7.073429E-03	4.748792E-04
4.474975E+03	7.080433E-03	4.753746E-04
4.484789E+03	7.085395E-03	4.757436E-04
4.494603E+03	7.088512E-03	4.759994E-04
4.504416E+03	7.089551E-03	4.761260E-04
4.514230E+03	7.088705E-03	4.761364E-04
4.524043E+03	7.085747E-03	4.760150E-04
4.533857E+03	7.081000E-03	4.757834E-04
4.543670E+03	7.074242E-03	4.754262E-04
4.553484E+03	7.065392E-03	4.749380E-04
4.563297E+03	7.054764E-03	4.743395E-04
4.573111E+03	7.042146E-03	4.736161E-04
4.582924E+03	7.027594E-03	4.727713E-04
4.592738E+03	7.011035E-03	4.717999E-04
4.602552E+03	6.992652E-03	4.707140E-04
4.612365E+03	6.972375E-03	4.695084E-04
4.622179E+03	6.950148E-03	4.681790E-04
4.631992E+03	6.926152E-03	4.667377E-04
4.641806E+03	6.900331E-03	4.651803E-04
4.651619E+03	6.872638E-03	4.635033E-04
4.661433E+03	6.843258E-03	4.617187E-04
4.671246E+03	6.812146E-03	4.598233E-04
4.681060E+03	6.779376E-03	4.578215E-04
4.690873E+03	6.745022E-03	4.557179E-04
4.700687E+03	6.708948E-03	4.535030E-04
4.710500E+03	6.671447E-03	4.511962E-04
4.720314E+03	6.632491E-03	4.487952E-04
4.730128E+03	6.592062E-03	4.462983E-04
4.739941E+03	6.550246E-03	4.437111E-04
4.749755E+03	6.507130E-03	4.410388E-04
4.759568E+03	6.462897E-03	4.382937E-04
4.769382E+03	6.417442E-03	4.354682E-04
4.779195E+03	6.370858E-03	4.325682E-04
4.789009E+03	6.323330E-03	4.296059E-04
4.798822E+03	6.274948E-03	4.265870E-04
4.808636E+03	6.225624E-03	4.235053E-04
4.818449E+03	6.175633E-03	4.203790E-04
4.828263E+03	6.124892E-03	4.172022E-04
4.838077E+03	6.073673E-03	4.139931E-04
4.847890E+03	6.021899E-03	4.107462E-04
4.857704E+03	5.969752E-03	4.074735E-04
4.867517E+03	5.917329E-03	4.041815E-04
4.877331E+03	5.864649E-03	4.008711E-04
4.887144E+03	5.811964E-03	3.975594E-04
4.896958E+03	5.759215E-03	3.942420E-04
4.906771E+03	5.706575E-03	3.909307E-04
4.916585E+03	5.654138E-03	3.876316E-04
4.926398E+03	5.601922E-03	3.843460E-04
4.936212E+03	5.550167E-03	3.810900E-04
4.946026E+03	5.498886E-03	3.778645E-04
4.955839E+03	5.448167E-03	3.746754E-04
4.965653E+03	5.398163E-03	3.715331E-04
4.975466E+03	5.348883E-03	3.684382E-04
4.985280E+03	5.300403E-03	3.653960E-04
4.995093E+03	5.252932E-03	3.624207E-04
5.004907E+03	5.206401E-03	3.595078E-04
5.014720E+03	5.161006E-03	3.566706E-04
5.024534E+03	5.116736E-03	3.539087E-04
5.034347E+03	5.073710E-03	3.512300E-04
5.044161E+03	5.031911E-03	3.486336E-04
5.053974E+03	4.991441E-03	3.461268E-04
5.063788E+03	4.952397E-03	3.437163E-04
5.073602E+03	4.914746E-03	3.413999E-04
5.083415E+03	4.878572E-03	3.391837E-04
5.093229E+03	4.843892E-03	3.370689E-04
5.103042E+03	4.810715E-03	3.350564E-04
5.112856E+03	4.779106E-03	3.331509E-04
5.122669E+03	4.749006E-03	3.313485E-04
5.132483E+03	4.720523E-03	3.296569E-04
5.142296E+03	4.693531E-03	3.280675E-04
5.152110E+03	4.668183E-03	3.265912E-04
5.161923E+03	4.644345E-03	3.252188E-04
5.171737E+03	4.622045E-03	3.239526E-04
5.181551E+03	4.601307E-03	3.227944E-04
5.191364E+03	4.582096E-03	3.217419E-04
5.201178E+03	4.564319E-03	3.207890E-04
5.210991E+03	4.548040E-03	3.199403E-04
5.220805E+03	4.533213E-03	3.191929E-04
5.230618E+03	4.519740E-03	3.185398E-04
5.240432E+03	4.507621E-03	3.179816E-04
5.250245E+03	4.496805E-03	3.175147E-04
5.260059E+03	4.487340E-03	3.171427E-04
5.269872E+03	4.479019E-03	3.168512E-04
5.279686E+03	4.471939E-03	3.166472E-04
5.289500E+03	4.465993E-03	3.165234E-04
5.299313E+03	4.461174E-03	3.164795E-04
5.309127E+03	4.457377E-03	3.165081E-04
5.318940E+03	4.454646E-03	3.166126E-04
5.328754E+03	4.452826E-03	3.167820E-04
5.338567E+03	4.451963E-03	3.170200E-04
5.348381E+03	4.451955E-03	3.173192E-04
5.358194E+03	4.452752E-03	3.176762E-04
5.368008E+03	4.454404E-03	3.180949E-04
5.377821E+03	4.456764E-03	3.185647E-04
5.387635E+03	4.459839E-03	3.190862E-04
5.397448E+03	4.463584E-03	3.196566E-04
5.407262E+03	4.468009E-03	3.202764E-04
5.417076E+03	4.472981E-03	3.209362E-04
5.426889E+03	4.478560E-03	3.216406E-04
5.436703E+03	4.484715E-03	3.223871E-04
5.446516E+03	4.491321E-03	3.231671E-04
5.456330E+03	4.498447E-03	3.239854E-04
5.466143E+03	4.506069E-03	3.248405E-04
5.475957E+03	4.514118E-03	3.257274E-04
5.485770E+03	4.522575E-03	3.266448E-04
5.495584E+03	4.531425E-03	3.275916E-04
5.505397E+03	4.540700E-03	3.285704E-04
5.515211E+03	4.550294E-03	3.295733E-04
5.525025E+03	4.560292E-03	3.306065E-04
5.534838E+03	4.570639E-03	3.316663E-04
5.544652E+03	4.581280E-03	3.327485E-04
5.554465E+03	4.592259E-03	3.338564E-04
5.564279E+03	4.603526E-03	3.349865E-04
5.574092E+03	4.615125E-03	3.361418E-04
5.583906E+03	4.627007E-03	3.373190E-04
5.593719E+03	4.639126E-03	3.385146E-04
5.603533E+03	4.651527E-03	3.397320E-04
5.613346E+03	4.664166E-03	3.409680E-04
5.623160E+03	4.677087E-03	3.422259E-04
5.632974E+03	4.690200E-03	3.434989E-04
5.642787E+03	4.703503E-03	3.447871E-04
5.652601E+03	4.717045E-03	3.460939E-04
5.662414E+03	4.730778E-03	3.474159E-04
5.672228E+03	4.744653E-03	3.487496E-04
5.682041E+03	4.758669E-03	3.500948E-04
5.691855E+03	4.772872E-03	3.514549E-04
5.701668E+03	4.787118E-03	3.528194E-04
5.711482E+03	4.801497E-03	3.541947E-04
5.721295E+03	4.815912E-03	3.555738E-04
5.731109E+03	4.830406E-03	3.569598E-04
5.740922E+03	4.844925E-03	3.583487E-04
5.750736E+03	4.859419E-03	3.597369E-04
5.760550E+03	4.873883E-03	3.611237E-04
5.770363E+03	4.888313E-03	3.625091E-04
5.780177E+03	4.902657E-03	3.638890E-04
5.789990E+03	4.916866E-03	3.652597E-04
5.799804E+03	4.931030E-03	3.666281E-04
5.809617E+03	4.945011E-03	3.679836E-04
5.819431E+03	4.958856E-03	3.693297E-04
5.829244E+03	4.972477E-03	3.706598E-04
5.839058E+03	4.985972E-03	3.719813E-04
5.848871E+03	4.999260E-03	3.732879E-04
5.858685E+03	5.012305E-03	3.745771E-04
5.868499E+03	5.025174E-03	3.758535E-04
5.878312E+03	5.037840E-03	3.771153E-04
5.888126E+03	5.050331E-03	3.783643E-04
5.897939E+03	5.062675E-03	3.796028E-04
5.907753E+03	5.074814E-03	3.808263E-04
5.917566E+03	5.086837E-03	3.820414E-04
5.927380E+03	5.098742E-03	3.832478E-04
5.937193E+03	5.110577E-03	3.844493E-04
5.947007E+03	5.122399E-03	3.856499E-04
5.956820E+03	5.134219E-03	3.868507E-04
5.966634E+03	5.146102E-03	3.880564E-04
5.976447E+03	5.158163E-03	3.892758E-04
5.986261E+03	5.170380E-03	3.905071E-04
5.996075E+03	5.182876E-03	3.917596E-04
6.005888E+03	5.195682E-03	3.930359E-04
6.015702E+03	5.208880E-03	3.943419E-04
6.025515E+03	5.222599E-03	3.956878E-04
6.035329E+03	5.236879E-03	3.970765E-04
6.045142E+03	5.251806E-03	3.985146E-04
6.054956E+03	5.267417E-03	4.000050E-04
6.064769E+03	5.283896E-03	4.015620E-04
6.074583E+03	5.301281E-03	4.031884E-04
6.084396E+03	5.319657E-03	4.048908E-04
6.094210E+03	5.339156E-03	4.066796E-04
6.104024E+03	5.359760E-03	4.085534E-04
6.113837E+03	5.381645E-03	4.105260E-04
6.123651E+03	5.404885E-03	4.126030E-04
6.133464E+03	5.429549E-03	4.147901E-04
6.143278E+03	5.455650E-03	4.170883E-04
6.153091E+03	5.483346E-03	4.195102E-04
6.162905E+03	5.512687E-03	4.220596E-04
6.172718E+03	5.543715E-03	4.247402E-04
6.182532E+03	5.576408E-03	4.275504E-04
6.192345E+03	5.610892E-03	4.305001E-04
6.202159E+03	5.647225E-03	4.335942E-04
6.211973E+03	5.685300E-03	4.368246E-04
6.221786E+03	5.725201E-03	4.401982E-04
6.231600E+03	5.766894E-03	4.437123E-04
6.241413E+03	5.810324E-03	4.473632E-04
6.251227E+03	5.855531E-03	4.511542E-04
6.261040E+03	5.902312E-03	4.550699E-04
6.270854E+03	5.950668E-03	4.591105E-04
6.280667E+03	6.000520E-03	4.632702E-04
6.290481E+03	6.051655E-03	4.675328E-04
6.300294E+03	6.103952E-03	4.718890E-04
6.310108E+03	6.157203E-03	4.763229E-04
6.319921E+03	6.211240E-03	4.808216E-04
6.329735E+03	6.265868E-03	4.853702E-04
6.339549E+03	6.320750E-03	4.899424E-04
6.349362E+03	6.375705E-03	4.945244E-04
6.359176E+03	6.430349E-03	4.990863E-04
6.368989E+03	6.484399E-03	5.036061E-04
6.378803E+03	6.537491E-03	5.080552E-04
6.388616E+03	6.589308E-03	5.124090E-04
6.398430E+03	6.639522E-03	5.166416E-04
6.408243E+03	6.687665E-03	5.207165E-04
6.418057E+03	6.733330E-03	5.246014E-04
6.427870E+03	6.776233E-03	5.282741E-04
6.437684E+03	6.815976E-03	5.317029E-04
6.447498E+03	6.852088E-03	5.348507E-04
6.457311E+03	6.884320E-03	5.376973E-04
6.467125E+03	6.912238E-03	5.402085E-04
6.476938E+03	6.935570E-03	5.423623E-04
6.486752E+03	6.954001E-03	5.441333E-04
6.496565E+03	6.967261E-03	5.454998E-04
6.506379E+03	6.975176E-03	5.464474E-04
6.516192E+03	6.977551E-03	5.469601E-04
6.526006E+03	6.974168E-03	5.470200E-04
6.535819E+03	6.965052E-03	5.466283E-04
6.545633E+03	6.950097E-03	5.457759E-04
6.555447E+03	6.929281E-03	5.444604E-04
6.565260E+03	6.902813E-03	5.426973E-04
6.575074E+03	6.870626E-03	5.404806E-04
6.584887E+03	6.832951E-03	5.378279E-04
6.594701E+03	6.789970E-03	5.347527E-04
6.604514E+03	6.741904E-03	5.312718E-04
6.614328E+03	6.689100E-03	5.274118E-04
6.624141E+03	6.631779E-03	5.231896E-04
6.633955E+03	6.570334E-03	5.186358E-04
6.643768E+03	6.505124E-03	5.137781E-04
6.653582E+03	6.436429E-03	5.086382E-04
6.663395E+03	6.364704E-03	5.032518E-04
6.673209E+03	6.290262E-03	4.976432E-04
6.683023E+03	6.213624E-03	4.918534E-04
6.692836E+03	6.135040E-03	4.859018E-04
6.702650E+03	6.054952E-03	4.798234E-04
6.712463E+03	5.973728E-03	4.736472E-04
6.722277E+03	5.891785E-03	4.674062E-04
6.732090E+03	5.809329E-03	4.611167E-04
6.741904E+03	5.726744E-03	4.548092E-04
6.751717E+03	5.644327E-03	4.485073E-04
6.761531E+03	5.562357E-03	4.422333E-04
6.771344E+03	5.481086E-03	4.360073E-04
6.781158E+03	5.400747E-03	4.298480E-04
6.790972E+03	5.321546E-03	4.237721E-04
6.800785E+03	5.243671E-03	4.177945E-04
6.810599E+03	5.167283E-03	4.119286E-04
6.820412E+03	5.092468E-03	4.061811E-04
6.830226E+03	5.019404E-03	4.005668E-04
6.840039E+03	4.948248E-03	3.950983E-04
6.849853E+03	4.878915E-03	3.897691E-04
6.859666E+03	4.811637E-03	3.845982E-04
6.869480E+03	4.746353E-03	3.795808E-04
6.879293E+03	4.683153E-03	3.747243E-04
6.889107E+03	4.622001E-03	3.700265E-04
6.898921E+03	4.562962E-03	3.654926E-04
6.908734E+03	4.505979E-03	3.611184E-04
6.918548E+03	4.451038E-03	3.569031E-04
6.928361E+03	4.398173E-03	3.528496E-04
6.938175E+03	4.347301E-03	3.489517E-04
6.947988E+03	4.298384E-03	3.452066E-04
6.957802E+03	4.251383E-03	3.416112E-04
6.967615E+03	4.206250E-03	3.381622E-04
6.977429E+03	4.162933E-03	3.348556E-04
6.987242E+03	4.121379E-03	3.316873E-04
6.997056E+03	4.081529E-03	3.286528E-04
7.006869E+03	4.043274E-03	3.257437E-04
7.016683E+03	4.006603E-03	3.229592E-04
7.026497E+03	3.971452E-03	3.202944E-04
7.036310E+03	3.937710E-03	3.177405E-04
7.046124E+03	3.905362E-03	3.152966E-04
7.055937E+03	3.874297E-03	3.129539E-04
7.065751E+03	3.844451E-03	3.107073E-04
7.075564E+03	3.815809E-03	3.085559E-04
7.085378E+03	3.788263E-03	3.064912E-04
7.095191E+03	3.761707E-03	3.045045E-04
7.105005E+03	3.736174E-03	3.025988E-04
7.114818E+03	3.711561E-03	3.007659E-04
7.124632E+03	3.687811E-03	2.990013E-04
7.134446E+03	3.664827E-03	2.972972E-04
7.144259E+03	3.642600E-03	2.956531E-04
7.154073E+03	3.621082E-03	2.940652E-04
7.163886E+03	3.600224E-03	2.925295E-04
7.173700E+03	3.579936E-03	2.910389E-04
7.183513E+03	3.560174E-03	2.895899E-04
7.193327E+03	3.540943E-03	2.881829E-04
7.203140E+03	3.522201E-03	2.868148E-04
7.212954E+03	3.503870E-03	2.854790E-04
7.222767E+03	3.485913E-03	2.841728E-04
7.232581E+03	3.468299E-03	2.828937E-04
7.242395E+03	3.451043E-03	2.816429E-04
7.252208E+03	3.434072E-03	2.804145E-04
7.262022E+03	3.417361E-03	2.792067E-04
7.271835E+03	3.400887E-03	2.780174E-04
7.281649E+03	3.384673E-03	2.768486E-04
7.291462E+03	3.368611E-03	2.756917E-04
7.301276E+03	3.352774E-03	2.745524E-04
7.311089E+03	3.337100E-03	2.734261E-04
7.320903E+03	3.321579E-03	2.723115E-04
7.330716E+03	3.306156E-03	2.712045E-04
7.340530E+03	3.290907E-03	2.701112E-04
7.350343E+03	3.275782E-03	2.690276E-04
7.360157E+03	3.260819E-03	2.679568E-04
7.369971E+03	3.245927E-03	2.668914E-04
7.379784E+03	3.231148E-03	2.658348E-04
7.389598E+03	3.216522E-03	2.647904E-04
7.399411E+03	3.201966E-03	2.637511E-04
7.409225E+03	3.187564E-03	2.627242E-04
7.419038E+03	3.173279E-03	2.617063E-04
7.428852E+03	3.159112E-03	2.606977E-04
7.438665E+03	3.145070E-03	2.596988E-04
7.448479E+03	3.131197E-03	2.587134E-04
7.458292E+03	3.117460E-03	2.577385E-04
7.468106E+03	3.103860E-03	2.567745E-04
7.477920E+03	3.090445E-03	2.558251E-04
7.487733E+03	3.077175E-03	2.548871E-04
7.497547E+03	3.064050E-03	2.539606E-04
7.507360E+03	3.051115E-03	2.530491E-04
7.517174E+03	3.038326E-03	2.521492E-04
7.526987E+03	3.025727E-03	2.512643E-04
7.536801E+03	3.013315E-03	2.503944E-04
7.546614E+03	3.001049E-03	2.495359E-04
7.556428E+03	2.988970E-03	2.486923E-04
7.566241E+03	2.977035E-03	2.478601E-04
7.576055E+03	2.965285E-03	2.470426E-04
7.585868E+03	2.953718E-03	2.462396E-04
7.595682E+03	2.942332E-03	2.454511E-04
7.605496E+03	2.931124E-03	2.446768E-04
7.615309E+03	2.920050E-03	2.439130E-04
