#wls	flux	fluxerr
1.570167E+03	1.998528E-04	2.048513E-05
1.609421E+03	2.068131E-04	2.112550E-05
1.648675E+03	2.141441E-04	2.179699E-05
1.687929E+03	2.218005E-04	2.249441E-05
1.727184E+03	2.298610E-04	2.322512E-05
1.766438E+03	2.383442E-04	2.399034E-05
1.805692E+03	2.472701E-04	2.479133E-05
1.844946E+03	2.566594E-04	2.562938E-05
1.884200E+03	2.664650E-04	2.649900E-05
1.923454E+03	2.768457E-04	2.741509E-05
1.962709E+03	2.876860E-04	2.836525E-05
2.001963E+03	2.991521E-04	2.936490E-05
2.041217E+03	3.111994E-04	3.040851E-05
2.080471E+03	3.238544E-04	3.149754E-05
2.119725E+03	3.372226E-04	3.264098E-05
2.158979E+03	3.512580E-04	3.383303E-05
2.198234E+03	3.659904E-04	3.507518E-05
2.237488E+03	3.815339E-04	3.637685E-05
2.276742E+03	3.978409E-04	3.773188E-05
2.315996E+03	4.150316E-04	3.914998E-05
2.355250E+03	4.332351E-04	4.064140E-05
2.394504E+03	4.523176E-04	4.219154E-05
2.433759E+03	4.724094E-04	4.381052E-05
2.473013E+03	4.936507E-04	4.550907E-05
2.512267E+03	5.159977E-04	4.728067E-05
2.551521E+03	5.395990E-04	4.913636E-05
2.590775E+03	5.645128E-04	5.107863E-05
2.630029E+03	5.909044E-04	5.311936E-05
2.669284E+03	6.187380E-04	5.525206E-05
2.708538E+03	6.481905E-04	5.748911E-05
2.747792E+03	6.794533E-04	5.984366E-05
2.787046E+03	7.125031E-04	6.230957E-05
2.826300E+03	7.476649E-04	6.491091E-05
2.865554E+03	7.850514E-04	6.765259E-05
2.904809E+03	8.249068E-04	7.055040E-05
2.944063E+03	8.672434E-04	7.359972E-05
2.953876E+03	8.783469E-04	7.439621E-05
2.963690E+03	8.895622E-04	7.519802E-05
2.973503E+03	9.010187E-04	7.601600E-05
2.983317E+03	9.125911E-04	7.683946E-05
2.993131E+03	9.244113E-04	7.767941E-05
3.002944E+03	9.363513E-04	7.852500E-05
3.012758E+03	9.485456E-04	7.938740E-05
3.022571E+03	9.609975E-04	8.026674E-05
3.032385E+03	9.737112E-04	8.116322E-05
3.042198E+03	9.865568E-04	8.206592E-05
3.052012E+03	9.996707E-04	8.298605E-05
3.061825E+03	1.012921E-03	8.391258E-05
3.071639E+03	1.026447E-03	8.485682E-05
3.081452E+03	1.040253E-03	8.581911E-05
3.091266E+03	1.054344E-03	8.679968E-05
3.101079E+03	1.068724E-03	8.779864E-05
3.110893E+03	1.083256E-03	8.880471E-05
3.120707E+03	1.098086E-03	8.982956E-05
3.130520E+03	1.113217E-03	9.087343E-05
3.140334E+03	1.128655E-03	9.193660E-05
3.150147E+03	1.144259E-03	9.300746E-05
3.159961E+03	1.160324E-03	9.410973E-05
3.169774E+03	1.176565E-03	9.522019E-05
3.179588E+03	1.193131E-03	9.635074E-05
3.189401E+03	1.210175E-03	9.751360E-05
3.199215E+03	1.227409E-03	9.868521E-05
3.209028E+03	1.244985E-03	9.987772E-05
3.218842E+03	1.262907E-03	1.010913E-04
3.228656E+03	1.281182E-03	1.023264E-04
3.238469E+03	1.299816E-03	1.035830E-04
3.248283E+03	1.318814E-03	1.048617E-04
3.258096E+03	1.338183E-03	1.061625E-04
3.267910E+03	1.357928E-03	1.074858E-04
3.277723E+03	1.378213E-03	1.088443E-04
3.287537E+03	1.398731E-03	1.102134E-04
3.297350E+03	1.419802E-03	1.116183E-04
3.307164E+03	1.441116E-03	1.130344E-04
3.316977E+03	1.462998E-03	1.144869E-04
3.326791E+03	1.485460E-03	1.159763E-04
3.336605E+03	1.508181E-03	1.174776E-04
3.346418E+03	1.531331E-03	1.190036E-04
3.356232E+03	1.555081E-03	1.205674E-04
3.366045E+03	1.579441E-03	1.221696E-04
3.375859E+03	1.604085E-03	1.237845E-04
3.385672E+03	1.629354E-03	1.254384E-04
3.395486E+03	1.655087E-03	1.271184E-04
3.405299E+03	1.681461E-03	1.288381E-04
3.415113E+03	1.708315E-03	1.305845E-04
3.424926E+03	1.735654E-03	1.323580E-04
3.434740E+03	1.763657E-03	1.341718E-04
3.444553E+03	1.792160E-03	1.360132E-04
3.454367E+03	1.821344E-03	1.378957E-04
3.464181E+03	1.851040E-03	1.398060E-04
3.473994E+03	1.881432E-03	1.417579E-04
3.483808E+03	1.912529E-03	1.437516E-04
3.493621E+03	1.944156E-03	1.457737E-04
3.503435E+03	1.976502E-03	1.478381E-04
3.513248E+03	2.009389E-03	1.499309E-04
3.523062E+03	2.043007E-03	1.520663E-04
3.532875E+03	2.077362E-03	1.542442E-04
3.542689E+03	2.112459E-03	1.564647E-04
3.552502E+03	2.148116E-03	1.587138E-04
3.562316E+03	2.184524E-03	1.610056E-04
3.572130E+03	2.221688E-03	1.633399E-04
3.581943E+03	2.259417E-03	1.657024E-04
3.591757E+03	2.298101E-03	1.681214E-04
3.601570E+03	2.337353E-03	1.705682E-04
3.611384E+03	2.377567E-03	1.730711E-04
3.621197E+03	2.418347E-03	1.756011E-04
3.631011E+03	2.459891E-03	1.781721E-04
3.640824E+03	2.502196E-03	1.807837E-04
3.650638E+03	2.545464E-03	1.834501E-04
3.660451E+03	2.589285E-03	1.861413E-04
3.670265E+03	2.633855E-03	1.888712E-04
3.680079E+03	2.679168E-03	1.916391E-04
3.689892E+03	2.725426E-03	1.944591E-04
3.699706E+03	2.772203E-03	1.973004E-04
3.709519E+03	2.819906E-03	2.001919E-04
3.719333E+03	2.868316E-03	2.031175E-04
3.729146E+03	2.917417E-03	2.060759E-04
3.738960E+03	2.967408E-03	2.090810E-04
3.748773E+03	3.017845E-03	2.121011E-04
3.758587E+03	3.069139E-03	2.151649E-04
3.768400E+03	3.121053E-03	2.182557E-04
3.778214E+03	3.173564E-03	2.213716E-04
3.788027E+03	3.226869E-03	2.245261E-04
3.797841E+03	3.280720E-03	2.277020E-04
3.807655E+03	3.335314E-03	2.309125E-04
3.817468E+03	3.390170E-03	2.341244E-04
3.827282E+03	3.445933E-03	2.373821E-04
3.837095E+03	3.501888E-03	2.406363E-04
3.846909E+03	3.558452E-03	2.439156E-04
3.856722E+03	3.615588E-03	2.472175E-04
3.866536E+03	3.673026E-03	2.505233E-04
3.876349E+03	3.730720E-03	2.538301E-04
3.886163E+03	3.788856E-03	2.571506E-04
3.895976E+03	3.847387E-03	2.604817E-04
3.905790E+03	3.906028E-03	2.638042E-04
3.915604E+03	3.964727E-03	2.671147E-04
3.925417E+03	4.023898E-03	2.704415E-04
3.935231E+03	4.082777E-03	2.737332E-04
3.945044E+03	4.141776E-03	2.770179E-04
3.954858E+03	4.200833E-03	2.802917E-04
3.964671E+03	4.259648E-03	2.835350E-04
3.974485E+03	4.318394E-03	2.867595E-04
3.984298E+03	4.377001E-03	2.899611E-04
3.994112E+03	4.435160E-03	2.931197E-04
4.003925E+03	4.493040E-03	2.962471E-04
4.013739E+03	4.550328E-03	2.993230E-04
4.023553E+03	4.607187E-03	3.023589E-04
4.033366E+03	4.663543E-03	3.053505E-04
4.043180E+03	4.719075E-03	3.082773E-04
4.052993E+03	4.773706E-03	3.111352E-04
4.062807E+03	4.827834E-03	3.139507E-04
4.072620E+03	4.880661E-03	3.166727E-04
4.082434E+03	4.932822E-03	3.193433E-04
4.092247E+03	4.983755E-03	3.219269E-04
4.102061E+03	5.033380E-03	3.244191E-04
4.111874E+03	5.082091E-03	3.268464E-04
4.121688E+03	5.129087E-03	3.291580E-04
4.131501E+03	5.174766E-03	3.313806E-04
4.141315E+03	5.219046E-03	3.335099E-04
4.151129E+03	5.261607E-03	3.355264E-04
4.160942E+03	5.302607E-03	3.374413E-04
4.170756E+03	5.341733E-03	3.392357E-04
4.180569E+03	5.378911E-03	3.409061E-04
4.190383E+03	5.414301E-03	3.424637E-04
4.200196E+03	5.447601E-03	3.438904E-04
4.210010E+03	5.478973E-03	3.451978E-04
4.219823E+03	5.507896E-03	3.463540E-04
4.229637E+03	5.534998E-03	3.473997E-04
4.239450E+03	5.559541E-03	3.482898E-04
4.249264E+03	5.581929E-03	3.490506E-04
4.259078E+03	5.601671E-03	3.496528E-04
4.268891E+03	5.619179E-03	3.501230E-04
4.278705E+03	5.634200E-03	3.504466E-04
4.288518E+03	5.646929E-03	3.506369E-04
4.298332E+03	5.656916E-03	3.506669E-04
4.308145E+03	5.664374E-03	3.505510E-04
4.317959E+03	5.669315E-03	3.502907E-04
4.327772E+03	5.671763E-03	3.498881E-04
4.337586E+03	5.671755E-03	3.493461E-04
4.347399E+03	5.669331E-03	3.486678E-04
4.357213E+03	5.664338E-03	3.478441E-04
4.367026E+03	5.657239E-03	3.469039E-04
4.376840E+03	5.647691E-03	3.458266E-04
4.386654E+03	5.635769E-03	3.446171E-04
4.396467E+03	5.621742E-03	3.432923E-04
4.406281E+03	5.605683E-03	3.418567E-04
4.416094E+03	5.587482E-03	3.403040E-04
4.425908E+03	5.567227E-03	3.386397E-04
4.435721E+03	5.545187E-03	3.368804E-04
4.445535E+03	5.521268E-03	3.350204E-04
4.455348E+03	5.495559E-03	3.330652E-04
4.465162E+03	5.468328E-03	3.310312E-04
4.474975E+03	5.439487E-03	3.289129E-04
4.484789E+03	5.408961E-03	3.267059E-04
4.494603E+03	5.377181E-03	3.244361E-04
4.504416E+03	5.343904E-03	3.220889E-04
4.514230E+03	5.309548E-03	3.196894E-04
4.524043E+03	5.273878E-03	3.172233E-04
4.533857E+03	5.237145E-03	3.147055E-04
4.543670E+03	5.199281E-03	3.121319E-04
4.553484E+03	5.160678E-03	3.095258E-04
4.563297E+03	5.120967E-03	3.068649E-04
4.573111E+03	5.080677E-03	3.041807E-04
4.582924E+03	5.039452E-03	3.014517E-04
4.592738E+03	4.997660E-03	2.986997E-04
4.602552E+03	4.955374E-03	2.959289E-04
4.612365E+03	4.912396E-03	2.931271E-04
4.622179E+03	4.869071E-03	2.903148E-04
4.631992E+03	4.825205E-03	2.874801E-04
4.641806E+03	4.781131E-03	2.846426E-04
4.651619E+03	4.736785E-03	2.817983E-04
4.661433E+03	4.692230E-03	2.789506E-04
4.671246E+03	4.647408E-03	2.760958E-04
4.681060E+03	4.602505E-03	2.732447E-04
4.690873E+03	4.557577E-03	2.704005E-04
4.700687E+03	4.512680E-03	2.675661E-04
4.710500E+03	4.467755E-03	2.647378E-04
4.720314E+03	4.422966E-03	2.619251E-04
4.730128E+03	4.378256E-03	2.591243E-04
4.739941E+03	4.333780E-03	2.563443E-04
4.749755E+03	4.289479E-03	2.535815E-04
4.759568E+03	4.245501E-03	2.508443E-04
4.769382E+03	4.201785E-03	2.481288E-04
4.779195E+03	4.158374E-03	2.454374E-04
4.789009E+03	4.115306E-03	2.427722E-04
4.798822E+03	4.072622E-03	2.401351E-04
4.808636E+03	4.030357E-03	2.375282E-04
4.818449E+03	3.988638E-03	2.349587E-04
4.828263E+03	3.947311E-03	2.324172E-04
4.838077E+03	3.906500E-03	2.299110E-04
4.847890E+03	3.866233E-03	2.274414E-04
4.857704E+03	3.826624E-03	2.250149E-04
4.867517E+03	3.787440E-03	2.226176E-04
4.877331E+03	3.748962E-03	2.202660E-04
4.887144E+03	3.711045E-03	2.179512E-04
4.896958E+03	3.673874E-03	2.156839E-04
4.906771E+03	3.637225E-03	2.134510E-04
4.916585E+03	3.601360E-03	2.112674E-04
4.926398E+03	3.566135E-03	2.091247E-04
4.936212E+03	3.531570E-03	2.070239E-04
4.946026E+03	3.497831E-03	2.049745E-04
4.955839E+03	3.464706E-03	2.029640E-04
4.965653E+03	3.432357E-03	2.010017E-04
4.975466E+03	3.400795E-03	1.990881E-04
4.985280E+03	3.369958E-03	1.972196E-04
4.995093E+03	3.339925E-03	1.954005E-04
5.004907E+03	3.310636E-03	1.936272E-04
5.014720E+03	3.282099E-03	1.919002E-04
5.024534E+03	3.254388E-03	1.902236E-04
5.034347E+03	3.227442E-03	1.885936E-04
5.044161E+03	3.201265E-03	1.870106E-04
5.053974E+03	3.175928E-03	1.854785E-04
5.063788E+03	3.151368E-03	1.839936E-04
5.073602E+03	3.127649E-03	1.825595E-04
5.083415E+03	3.104652E-03	1.811691E-04
5.093229E+03	3.082501E-03	1.798296E-04
5.103042E+03	3.061192E-03	1.785408E-04
5.112856E+03	3.040610E-03	1.772957E-04
5.122669E+03	3.020870E-03	1.761012E-04
5.132483E+03	3.001913E-03	1.749536E-04
5.142296E+03	2.983739E-03	1.738528E-04
5.152110E+03	2.966401E-03	1.728020E-04
5.161923E+03	2.949785E-03	1.717944E-04
5.171737E+03	2.934000E-03	1.708363E-04
5.181551E+03	2.918988E-03	1.699243E-04
5.191364E+03	2.904799E-03	1.690612E-04
5.201178E+03	2.891322E-03	1.682406E-04
5.210991E+03	2.878660E-03	1.674683E-04
5.220805E+03	2.866756E-03	1.667411E-04
5.230618E+03	2.855607E-03	1.660586E-04
5.240432E+03	2.845208E-03	1.654207E-04
5.250245E+03	2.835607E-03	1.648299E-04
5.260059E+03	2.826746E-03	1.642830E-04
5.269872E+03	2.818623E-03	1.637797E-04
5.279686E+03	2.811232E-03	1.633198E-04
5.289500E+03	2.804569E-03	1.629029E-04
5.299313E+03	2.798630E-03	1.625288E-04
5.309127E+03	2.793460E-03	1.622001E-04
5.318940E+03	2.788955E-03	1.619107E-04
5.328754E+03	2.785209E-03	1.616661E-04
5.338567E+03	2.782169E-03	1.614632E-04
5.348381E+03	2.779831E-03	1.613017E-04
5.358194E+03	2.778189E-03	1.611813E-04
5.368008E+03	2.777240E-03	1.611017E-04
5.377821E+03	2.777028E-03	1.610656E-04
5.387635E+03	2.777451E-03	1.610671E-04
5.397448E+03	2.778602E-03	1.611114E-04
5.407262E+03	2.780379E-03	1.611927E-04
5.417076E+03	2.782867E-03	1.613160E-04
5.426889E+03	2.785967E-03	1.614752E-04
5.436703E+03	2.789763E-03	1.616754E-04
5.446516E+03	2.794154E-03	1.619106E-04
5.456330E+03	2.799227E-03	1.621857E-04
5.466143E+03	2.804878E-03	1.624948E-04
5.475957E+03	2.811195E-03	1.628428E-04
5.485770E+03	2.818076E-03	1.632238E-04
5.495584E+03	2.825561E-03	1.636401E-04
5.505397E+03	2.833689E-03	1.640939E-04
5.515211E+03	2.842314E-03	1.645766E-04
5.525025E+03	2.851568E-03	1.650960E-04
5.534838E+03	2.861397E-03	1.656488E-04
5.544652E+03	2.871750E-03	1.662321E-04
5.554465E+03	2.882667E-03	1.668480E-04
5.564279E+03	2.894139E-03	1.674962E-04
5.574092E+03	2.906162E-03	1.681762E-04
5.583906E+03	2.918683E-03	1.688850E-04
5.593719E+03	2.931744E-03	1.696250E-04
5.603533E+03	2.945290E-03	1.703930E-04
5.613346E+03	2.959363E-03	1.711914E-04
5.623160E+03	2.973911E-03	1.720171E-04
5.632974E+03	2.988975E-03	1.728725E-04
5.642787E+03	3.004549E-03	1.737572E-04
5.652601E+03	3.020582E-03	1.746682E-04
5.662414E+03	3.037067E-03	1.756052E-04
5.672228E+03	3.054046E-03	1.765704E-04
5.682041E+03	3.071418E-03	1.775581E-04
5.691855E+03	3.089322E-03	1.785763E-04
5.701668E+03	3.107608E-03	1.796162E-04
5.711482E+03	3.126366E-03	1.806831E-04
5.721295E+03	3.145544E-03	1.817738E-04
5.731109E+03	3.165133E-03	1.828881E-04
5.740922E+03	3.185129E-03	1.840254E-04
5.750736E+03	3.205527E-03	1.851855E-04
5.760550E+03	3.226366E-03	1.863708E-04
5.770363E+03	3.247546E-03	1.875753E-04
5.780177E+03	3.269106E-03	1.888014E-04
5.789990E+03	3.291090E-03	1.900516E-04
5.799804E+03	3.313392E-03	1.913197E-04
5.809617E+03	3.336054E-03	1.926081E-04
5.819431E+03	3.359067E-03	1.939164E-04
5.829244E+03	3.382373E-03	1.952412E-04
5.839058E+03	3.406065E-03	1.965878E-04
5.848871E+03	3.430033E-03	1.979500E-04
5.858685E+03	3.454318E-03	1.993300E-04
5.868499E+03	3.478858E-03	2.007243E-04
5.878312E+03	3.503747E-03	2.021384E-04
5.888126E+03	3.528868E-03	2.035655E-04
5.897939E+03	3.554211E-03	2.050050E-04
5.907753E+03	3.579815E-03	2.064593E-04
5.917566E+03	3.605666E-03	2.079275E-04
5.927380E+03	3.631699E-03	2.094059E-04
5.937193E+03	3.657950E-03	2.108966E-04
5.947007E+03	3.684351E-03	2.123956E-04
5.956820E+03	3.710937E-03	2.139052E-04
5.966634E+03	3.737693E-03	2.154244E-04
5.976447E+03	3.764488E-03	2.169457E-04
5.986261E+03	3.791467E-03	2.184775E-04
5.996075E+03	3.818499E-03	2.200123E-04
6.005888E+03	3.845561E-03	2.215488E-04
6.015702E+03	3.872627E-03	2.230856E-04
6.025515E+03	3.899787E-03	2.246279E-04
6.035329E+03	3.926842E-03	2.261644E-04
6.045142E+03	3.953880E-03	2.277000E-04
6.054956E+03	3.980871E-03	2.292333E-04
6.064769E+03	4.007729E-03	2.307591E-04
6.074583E+03	4.034419E-03	2.322758E-04
6.084396E+03	4.060970E-03	2.337850E-04
6.094210E+03	4.087289E-03	2.352813E-04
6.104024E+03	4.113401E-03	2.367664E-04
6.113837E+03	4.139210E-03	2.382348E-04
6.123651E+03	4.164744E-03	2.396882E-04
6.133464E+03	4.189970E-03	2.411247E-04
6.143278E+03	4.214804E-03	2.425397E-04
6.153091E+03	4.239282E-03	2.439353E-04
6.162905E+03	4.263320E-03	2.453067E-04
6.172718E+03	4.286955E-03	2.466563E-04
6.182532E+03	4.310161E-03	2.479826E-04
6.192345E+03	4.332851E-03	2.492806E-04
6.202159E+03	4.355062E-03	2.505524E-04
6.211973E+03	4.376768E-03	2.517965E-04
6.221786E+03	4.397877E-03	2.530077E-04
6.231600E+03	4.418490E-03	2.541916E-04
6.241413E+03	4.438447E-03	2.553391E-04
6.251227E+03	4.457847E-03	2.564558E-04
6.261040E+03	4.476526E-03	2.575324E-04
6.270854E+03	4.494516E-03	2.585706E-04
6.280667E+03	4.511783E-03	2.595684E-04
6.290481E+03	4.528355E-03	2.605275E-04
6.300294E+03	4.544063E-03	2.614380E-04
6.310108E+03	4.559003E-03	2.623056E-04
6.319921E+03	4.573067E-03	2.631240E-04
6.329735E+03	4.586218E-03	2.638909E-04
6.339549E+03	4.598483E-03	2.646081E-04
6.349362E+03	4.609753E-03	2.652691E-04
6.359176E+03	4.619990E-03	2.658718E-04
6.368989E+03	4.629223E-03	2.664178E-04
6.378803E+03	4.637342E-03	2.669008E-04
6.388616E+03	4.644380E-03	2.673228E-04
6.398430E+03	4.650300E-03	2.676814E-04
6.408243E+03	4.654997E-03	2.679707E-04
6.418057E+03	4.658507E-03	2.681927E-04
6.427870E+03	4.660798E-03	2.683456E-04
6.437684E+03	4.661771E-03	2.684236E-04
6.447498E+03	4.661537E-03	2.684332E-04
6.457311E+03	4.659933E-03	2.683650E-04
6.467125E+03	4.657078E-03	2.682258E-04
6.476938E+03	4.652812E-03	2.680063E-04
6.486752E+03	4.647261E-03	2.677138E-04
6.496565E+03	4.640343E-03	2.673437E-04
6.506379E+03	4.632050E-03	2.668953E-04
6.516192E+03	4.622379E-03	2.663685E-04
6.526006E+03	4.611397E-03	2.657673E-04
6.535819E+03	4.599040E-03	2.650878E-04
6.545633E+03	4.585314E-03	2.643305E-04
6.555447E+03	4.570301E-03	2.635000E-04
6.565260E+03	4.554014E-03	2.625971E-04
6.575074E+03	4.536405E-03	2.616190E-04
6.584887E+03	4.517495E-03	2.605669E-04
6.594701E+03	4.497381E-03	2.594464E-04
6.604514E+03	4.476090E-03	2.582592E-04
6.614328E+03	4.453658E-03	2.570071E-04
6.624141E+03	4.430119E-03	2.556922E-04
6.633955E+03	4.405443E-03	2.543128E-04
6.643768E+03	4.379742E-03	2.528754E-04
6.653582E+03	4.353058E-03	2.513822E-04
6.663395E+03	4.325505E-03	2.498400E-04
6.673209E+03	4.296996E-03	2.482436E-04
6.683023E+03	4.267647E-03	2.465999E-04
6.692836E+03	4.237509E-03	2.449117E-04
6.702650E+03	4.206701E-03	2.431859E-04
6.712463E+03	4.175142E-03	2.414179E-04
6.722277E+03	4.143017E-03	2.396183E-04
6.732090E+03	4.110313E-03	2.377864E-04
6.741904E+03	4.077084E-03	2.359252E-04
6.751717E+03	4.043446E-03	2.340416E-04
6.761531E+03	4.009387E-03	2.321349E-04
6.771344E+03	3.974959E-03	2.302079E-04
6.781158E+03	3.940275E-03	2.282674E-04
6.790972E+03	3.905322E-03	2.263125E-04
6.800785E+03	3.870210E-03	2.243496E-04
6.810599E+03	3.834922E-03	2.223778E-04
6.820412E+03	3.799505E-03	2.203998E-04
6.830226E+03	3.764063E-03	2.184216E-04
6.840039E+03	3.728635E-03	2.164455E-04
6.849853E+03	3.693202E-03	2.144704E-04
6.859666E+03	3.657861E-03	2.125019E-04
6.869480E+03	3.622587E-03	2.105387E-04
6.879293E+03	3.587474E-03	2.085861E-04
6.889107E+03	3.552550E-03	2.066460E-04
6.898921E+03	3.517789E-03	2.047166E-04
6.908734E+03	3.483274E-03	2.028029E-04
6.918548E+03	3.449031E-03	2.009065E-04
6.928361E+03	3.415082E-03	1.990286E-04
6.938175E+03	3.381391E-03	1.971672E-04
6.947988E+03	3.348035E-03	1.953267E-04
6.957802E+03	3.314975E-03	1.935049E-04
6.967615E+03	3.282336E-03	1.917092E-04
6.977429E+03	3.250023E-03	1.899340E-04
6.987242E+03	3.218102E-03	1.881833E-04
6.997056E+03	3.186583E-03	1.864575E-04
7.006869E+03	3.155475E-03	1.847574E-04
7.016683E+03	3.124786E-03	1.830833E-04
7.026497E+03	3.094469E-03	1.814326E-04
7.036310E+03	3.064582E-03	1.798087E-04
7.046124E+03	3.035129E-03	1.782119E-04
7.055937E+03	3.006111E-03	1.766422E-04
7.065751E+03	2.977532E-03	1.751000E-04
7.075564E+03	2.949390E-03	1.735852E-04
7.085378E+03	2.921687E-03	1.720978E-04
7.095191E+03	2.894372E-03	1.706351E-04
7.105005E+03	2.867543E-03	1.692027E-04
7.114818E+03	2.841098E-03	1.677947E-04
7.124632E+03	2.815085E-03	1.664140E-04
7.134446E+03	2.789549E-03	1.650632E-04
7.144259E+03	2.764389E-03	1.637366E-04
7.154073E+03	2.739651E-03	1.624367E-04
7.163886E+03	2.715331E-03	1.611634E-04
7.173700E+03	2.691423E-03	1.599165E-04
7.183513E+03	2.667924E-03	1.586957E-04
7.193327E+03	2.644781E-03	1.574981E-04
7.203140E+03	2.622086E-03	1.563290E-04
7.212954E+03	2.599785E-03	1.551853E-04
7.222767E+03	2.577828E-03	1.540641E-04
7.232581E+03	2.556302E-03	1.529707E-04
7.242395E+03	2.535112E-03	1.518994E-04
7.252208E+03	2.514344E-03	1.508553E-04
7.262022E+03	2.493903E-03	1.498329E-04
7.271835E+03	2.473830E-03	1.488346E-04
7.281649E+03	2.454166E-03	1.478630E-04
7.291462E+03	2.434818E-03	1.469125E-04
7.301276E+03	2.415826E-03	1.459857E-04
7.311089E+03	2.397187E-03	1.450822E-04
7.320903E+03	2.378940E-03	1.442047E-04
7.330716E+03	2.360998E-03	1.433477E-04
7.340530E+03	2.343398E-03	1.425138E-04
7.350343E+03	2.326139E-03	1.417028E-04
7.360157E+03	2.309218E-03	1.409144E-04
7.369971E+03	2.292631E-03	1.401484E-04
7.379784E+03	2.276376E-03	1.394045E-04
7.389598E+03	2.260408E-03	1.386799E-04
7.399411E+03	2.244807E-03	1.379795E-04
7.409225E+03	2.229530E-03	1.373004E-04
7.419038E+03	2.214573E-03	1.366424E-04
7.428852E+03	2.199933E-03	1.360052E-04
7.438665E+03	2.185565E-03	1.353861E-04
7.448479E+03	2.171550E-03	1.347898E-04
7.458292E+03	2.157841E-03	1.342136E-04
7.468106E+03	2.144396E-03	1.336546E-04
7.477920E+03	2.131290E-03	1.331176E-04
7.487733E+03	2.118474E-03	1.325995E-04
7.497547E+03	2.105899E-03	1.320971E-04
7.507360E+03	2.093635E-03	1.316148E-04
7.517174E+03	2.081592E-03	1.311469E-04
7.526987E+03	2.069841E-03	1.306978E-04
7.536801E+03	2.058291E-03	1.302618E-04
7.546614E+03	2.047014E-03	1.298433E-04
7.556428E+03	2.035920E-03	1.294367E-04
7.566241E+03	2.025039E-03	1.290438E-04
7.576055E+03	2.014401E-03	1.286665E-04
7.585868E+03	2.003919E-03	1.282992E-04
7.595682E+03	1.993623E-03	1.279437E-04
7.605496E+03	1.983543E-03	1.276020E-04
7.615309E+03	1.973592E-03	1.272685E-04
