#wls	flux	fluxerr
1.570167E+03	1.958286E-04	1.967082E-05
1.609421E+03	2.027803E-04	2.030029E-05
1.648675E+03	2.099869E-04	2.094886E-05
1.687929E+03	2.176437E-04	2.163553E-05
1.727184E+03	2.256481E-04	2.234942E-05
1.766438E+03	2.340799E-04	2.309783E-05
1.805692E+03	2.428947E-04	2.387569E-05
1.844946E+03	2.522432E-04	2.469709E-05
1.884200E+03	2.620164E-04	2.555052E-05
1.923454E+03	2.723723E-04	2.645055E-05
1.962709E+03	2.831985E-04	2.738532E-05
2.001963E+03	2.946610E-04	2.836994E-05
2.041217E+03	3.067177E-04	2.939924E-05
2.080471E+03	3.193211E-04	3.046760E-05
2.119725E+03	3.327275E-04	3.159827E-05
2.158979E+03	3.467408E-04	3.277128E-05
2.198234E+03	3.615493E-04	3.400312E-05
2.237488E+03	3.771919E-04	3.529588E-05
2.276742E+03	3.936246E-04	3.664386E-05
2.315996E+03	4.109701E-04	3.805682E-05
2.355250E+03	4.292724E-04	3.953697E-05
2.394504E+03	4.485773E-04	4.108657E-05
2.433759E+03	4.689326E-04	4.270790E-05
2.473013E+03	4.904833E-04	4.441190E-05
2.512267E+03	5.131910E-04	4.619264E-05
2.551521E+03	5.372102E-04	4.806147E-05
2.590775E+03	5.626055E-04	5.002134E-05
2.630029E+03	5.895500E-04	5.208460E-05
2.669284E+03	6.180150E-04	5.424544E-05
2.708538E+03	6.482972E-04	5.652638E-05
2.747792E+03	6.803798E-04	5.892209E-05
2.787046E+03	7.143567E-04	6.143669E-05
2.826300E+03	7.505660E-04	6.409487E-05
2.865554E+03	7.891325E-04	6.690237E-05
2.904809E+03	8.301890E-04	6.986521E-05
2.944063E+03	8.741368E-04	7.301144E-05
2.953876E+03	8.855421E-04	7.382313E-05
2.963690E+03	8.970687E-04	7.464085E-05
2.973503E+03	9.089788E-04	7.548633E-05
2.983317E+03	9.210158E-04	7.633807E-05
2.993131E+03	9.331805E-04	7.719608E-05
3.002944E+03	9.456091E-04	7.807154E-05
3.012758E+03	9.583050E-04	7.896457E-05
3.022571E+03	9.711380E-04	7.986434E-05
3.032385E+03	9.842447E-04	8.078196E-05
3.042198E+03	9.974931E-04	8.170651E-05
3.052012E+03	1.011024E-03	8.264937E-05
3.061825E+03	1.024841E-03	8.361068E-05
3.071639E+03	1.038948E-03	8.459072E-05
3.081452E+03	1.053210E-03	8.557824E-05
3.091266E+03	1.067771E-03	8.658481E-05
3.101079E+03	1.082635E-03	8.761073E-05
3.110893E+03	1.097664E-03	8.864452E-05
3.120707E+03	1.113004E-03	8.969802E-05
3.130520E+03	1.128660E-03	9.077138E-05
3.140334E+03	1.144638E-03	9.186494E-05
3.150147E+03	1.160796E-03	9.296711E-05
3.159961E+03	1.177432E-03	9.410165E-05
3.169774E+03	1.194255E-03	9.524513E-05
3.179588E+03	1.211421E-03	9.640973E-05
3.189401E+03	1.228932E-03	9.759559E-05
3.199215E+03	1.246642E-03	9.879089E-05
3.209028E+03	1.264862E-03	1.000201E-04
3.218842E+03	1.283291E-03	1.012592E-04
3.228656E+03	1.302242E-03	1.025327E-04
3.238469E+03	1.321412E-03	1.038166E-04
3.248283E+03	1.341118E-03	1.051356E-04
3.258096E+03	1.361053E-03	1.064653E-04
3.267910E+03	1.381377E-03	1.078183E-04
3.277723E+03	1.402098E-03	1.091948E-04
3.287537E+03	1.423385E-03	1.106078E-04
3.297350E+03	1.444919E-03	1.120323E-04
3.307164E+03	1.467033E-03	1.134939E-04
3.316977E+03	1.489404E-03	1.149673E-04
3.326791E+03	1.512369E-03	1.164785E-04
3.336605E+03	1.535769E-03	1.180148E-04
3.346418E+03	1.559442E-03	1.195637E-04
3.356232E+03	1.583900E-03	1.211642E-04
3.366045E+03	1.608644E-03	1.227776E-04
3.375859E+03	1.633846E-03	1.244171E-04
3.385672E+03	1.659688E-03	1.260963E-04
3.395486E+03	1.686004E-03	1.278020E-04
3.405299E+03	1.712799E-03	1.295347E-04
3.415113E+03	1.740077E-03	1.312943E-04
3.424926E+03	1.768026E-03	1.330947E-04
3.434740E+03	1.796472E-03	1.349225E-04
3.444553E+03	1.825420E-03	1.367779E-04
3.454367E+03	1.855058E-03	1.386746E-04
3.464181E+03	1.885212E-03	1.405993E-04
3.473994E+03	1.915883E-03	1.425519E-04
3.483808E+03	1.947264E-03	1.445465E-04
3.493621E+03	1.979362E-03	1.465832E-04
3.503435E+03	2.011804E-03	1.486340E-04
3.513248E+03	2.045163E-03	1.507412E-04
3.523062E+03	2.078871E-03	1.528624E-04
3.532875E+03	2.113508E-03	1.550401E-04
3.542689E+03	2.148497E-03	1.572316E-04
3.552502E+03	2.184424E-03	1.594796E-04
3.562316E+03	2.220903E-03	1.617554E-04
3.572130E+03	2.257932E-03	1.640588E-04
3.581943E+03	2.295710E-03	1.664038E-04
3.591757E+03	2.334241E-03	1.687904E-04
3.601570E+03	2.373523E-03	1.712183E-04
3.611384E+03	2.413355E-03	1.736724E-04
3.621197E+03	2.453935E-03	1.761670E-04
3.631011E+03	2.495057E-03	1.786868E-04
3.640824E+03	2.536921E-03	1.812459E-04
3.650638E+03	2.579736E-03	1.838590E-04
3.660451E+03	2.622864E-03	1.864803E-04
3.670265E+03	2.666930E-03	1.891540E-04
3.680079E+03	2.711503E-03	1.918493E-04
3.689892E+03	2.757001E-03	1.945955E-04
3.699706E+03	2.802984E-03	1.973611E-04
3.709519E+03	2.849656E-03	2.001605E-04
3.719333E+03	2.897003E-03	2.029923E-04
3.729146E+03	2.945010E-03	2.058555E-04
3.738960E+03	2.993440E-03	2.087330E-04
3.748773E+03	3.042717E-03	2.116544E-04
3.758587E+03	3.092601E-03	2.146028E-04
3.768400E+03	3.143072E-03	2.175765E-04
3.778214E+03	3.193876E-03	2.205580E-04
3.788027E+03	3.245446E-03	2.235769E-04
3.797841E+03	3.297525E-03	2.266155E-04
3.807655E+03	3.349855E-03	2.296559E-04
3.817468E+03	3.402866E-03	2.327276E-04
3.827282E+03	3.456294E-03	2.358125E-04
3.837095E+03	3.510106E-03	2.389083E-04
3.846909E+03	3.564263E-03	2.420123E-04
3.856722E+03	3.618727E-03	2.451219E-04
3.866536E+03	3.673456E-03	2.482345E-04
3.876349E+03	3.728646E-03	2.513634E-04
3.886163E+03	3.783776E-03	2.544733E-04
3.895976E+03	3.839276E-03	2.575936E-04
3.905790E+03	3.894856E-03	2.607048E-04
3.915604E+03	3.950467E-03	2.638039E-04
3.925417E+03	4.006055E-03	2.668875E-04
3.935231E+03	4.061564E-03	2.699522E-04
3.945044E+03	4.117181E-03	2.730106E-04
3.954858E+03	4.172603E-03	2.760430E-04
3.964671E+03	4.227769E-03	2.790457E-04
3.974485E+03	4.282616E-03	2.820150E-04
3.984298E+03	4.337081E-03	2.849471E-04
3.994112E+03	4.391343E-03	2.878543E-04
4.003925E+03	4.444841E-03	2.907003E-04
4.013739E+03	4.498002E-03	2.935135E-04
4.023553E+03	4.550755E-03	2.962900E-04
4.033366E+03	4.602534E-03	2.989933E-04
4.043180E+03	4.653515E-03	3.016355E-04
4.052993E+03	4.703872E-03	3.042288E-04
4.062807E+03	4.753284E-03	3.067530E-04
4.072620E+03	4.801678E-03	3.092040E-04
4.082434E+03	4.849225E-03	3.115937E-04
4.092247E+03	4.895357E-03	3.138863E-04
4.102061E+03	4.940495E-03	3.161097E-04
4.111874E+03	4.984316E-03	3.182441E-04
4.121688E+03	5.026746E-03	3.202856E-04
4.131501E+03	5.067716E-03	3.222307E-04
4.141315E+03	5.107152E-03	3.240756E-04
4.151129E+03	5.144986E-03	3.258171E-04
4.160942E+03	5.181149E-03	3.274516E-04
4.170756E+03	5.215818E-03	3.289914E-04
4.180569E+03	5.248444E-03	3.304028E-04
4.190383E+03	5.279450E-03	3.317133E-04
4.200196E+03	5.308296E-03	3.328902E-04
4.210010E+03	5.335407E-03	3.339611E-04
4.219823E+03	5.360258E-03	3.348941E-04
4.229637E+03	5.383039E-03	3.357023E-04
4.239450E+03	5.403942E-03	3.363984E-04
4.249264E+03	5.422462E-03	3.369521E-04
4.259078E+03	5.438803E-03	3.373772E-04
4.268891E+03	5.452938E-03	3.376728E-04
4.278705E+03	5.464622E-03	3.378249E-04
4.288518E+03	5.474068E-03	3.378477E-04
4.298332E+03	5.481493E-03	3.377553E-04
4.308145E+03	5.486234E-03	3.375078E-04
4.317959E+03	5.488964E-03	3.371473E-04
4.327772E+03	5.489266E-03	3.366488E-04
4.337586E+03	5.487388E-03	3.360277E-04
4.347399E+03	5.483150E-03	3.352738E-04
4.357213E+03	5.476809E-03	3.344030E-04
4.367026E+03	5.468204E-03	3.334058E-04
4.376840E+03	5.457392E-03	3.322862E-04
4.386654E+03	5.444636E-03	3.310604E-04
4.396467E+03	5.429993E-03	3.297321E-04
4.406281E+03	5.413331E-03	3.282936E-04
4.416094E+03	5.394722E-03	3.267494E-04
4.425908E+03	5.374241E-03	3.251043E-04
4.435721E+03	5.351966E-03	3.233630E-04
4.445535E+03	5.328160E-03	3.215417E-04
4.455348E+03	5.302533E-03	3.196228E-04
4.465162E+03	5.275532E-03	3.176333E-04
4.474975E+03	5.246878E-03	3.155566E-04
4.484789E+03	5.217010E-03	3.134189E-04
4.494603E+03	5.185659E-03	3.112041E-04
4.504416E+03	5.153254E-03	3.089378E-04
4.514230E+03	5.119536E-03	3.066045E-04
4.524043E+03	5.084592E-03	3.042094E-04
4.533857E+03	5.048834E-03	3.017768E-04
4.543670E+03	5.012014E-03	2.992919E-04
4.553484E+03	4.974374E-03	2.967690E-04
4.563297E+03	4.935835E-03	2.942032E-04
4.573111E+03	4.896630E-03	2.916083E-04
4.582924E+03	4.856683E-03	2.889795E-04
4.592738E+03	4.816072E-03	2.863212E-04
4.602552E+03	4.775015E-03	2.836463E-04
4.612365E+03	4.733437E-03	2.809502E-04
4.622179E+03	4.691410E-03	2.782367E-04
4.631992E+03	4.649139E-03	2.755179E-04
4.641806E+03	4.606550E-03	2.727892E-04
4.651619E+03	4.563576E-03	2.700463E-04
4.661433E+03	4.520542E-03	2.673084E-04
4.671246E+03	4.477377E-03	2.645709E-04
4.681060E+03	4.434138E-03	2.618370E-04
4.690873E+03	4.390756E-03	2.591023E-04
4.700687E+03	4.347413E-03	2.563774E-04
4.710500E+03	4.304157E-03	2.536650E-04
4.720314E+03	4.261038E-03	2.509675E-04
4.730128E+03	4.218100E-03	2.482876E-04
4.739941E+03	4.175277E-03	2.456210E-04
4.749755E+03	4.132726E-03	2.429767E-04
4.759568E+03	4.090379E-03	2.403506E-04
4.769382E+03	4.048385E-03	2.377511E-04
4.779195E+03	4.006674E-03	2.351740E-04
4.789009E+03	3.965390E-03	2.326273E-04
4.798822E+03	3.924462E-03	2.301069E-04
4.808636E+03	3.883927E-03	2.276147E-04
4.818449E+03	3.843913E-03	2.251579E-04
4.828263E+03	3.804352E-03	2.227325E-04
4.838077E+03	3.765274E-03	2.203398E-04
4.847890E+03	3.726707E-03	2.179814E-04
4.857704E+03	3.688765E-03	2.156638E-04
4.867517E+03	3.651293E-03	2.133777E-04
4.877331E+03	3.614491E-03	2.111348E-04
4.887144E+03	3.578205E-03	2.089256E-04
4.896958E+03	3.542628E-03	2.067615E-04
4.906771E+03	3.507690E-03	2.046381E-04
4.916585E+03	3.473327E-03	2.025516E-04
4.926398E+03	3.439639E-03	2.005077E-04
4.936212E+03	3.406719E-03	1.985115E-04
4.946026E+03	3.374421E-03	1.965546E-04
4.955839E+03	3.342837E-03	1.946420E-04
4.965653E+03	3.311978E-03	1.927743E-04
4.975466E+03	3.281778E-03	1.909476E-04
4.985280E+03	3.252398E-03	1.891710E-04
4.995093E+03	3.223696E-03	1.874363E-04
5.004907E+03	3.195683E-03	1.857438E-04
5.014720E+03	3.168507E-03	1.841022E-04
5.024534E+03	3.142034E-03	1.825035E-04
5.034347E+03	3.116269E-03	1.809480E-04
5.044161E+03	3.091354E-03	1.794437E-04
5.053974E+03	3.067156E-03	1.779828E-04
5.063788E+03	3.043679E-03	1.765656E-04
5.073602E+03	3.020992E-03	1.751959E-04
5.083415E+03	2.999097E-03	1.738737E-04
5.093229E+03	2.977931E-03	1.725952E-04
5.103042E+03	2.957557E-03	1.713642E-04
5.112856E+03	2.937914E-03	1.701770E-04
5.122669E+03	2.919064E-03	1.690371E-04
5.132483E+03	2.900945E-03	1.679407E-04
5.142296E+03	2.883557E-03	1.668880E-04
5.152110E+03	2.867019E-03	1.658857E-04
5.161923E+03	2.851151E-03	1.649233E-04
5.171737E+03	2.836069E-03	1.640074E-04
5.181551E+03	2.821713E-03	1.631346E-04
5.191364E+03	2.808139E-03	1.623081E-04
5.201178E+03	2.795287E-03	1.615243E-04
5.210991E+03	2.783212E-03	1.607862E-04
5.220805E+03	2.771853E-03	1.600906E-04
5.230618E+03	2.761210E-03	1.594371E-04
5.240432E+03	2.751335E-03	1.588288E-04
5.250245E+03	2.742169E-03	1.582624E-04
5.260059E+03	2.733710E-03	1.577375E-04
5.269872E+03	2.726010E-03	1.572572E-04
5.279686E+03	2.719011E-03	1.568181E-04
5.289500E+03	2.712711E-03	1.564201E-04
5.299313E+03	2.707160E-03	1.560659E-04
5.309127E+03	2.702302E-03	1.557525E-04
5.318940E+03	2.698135E-03	1.554796E-04
5.328754E+03	2.694655E-03	1.552469E-04
5.338567E+03	2.691913E-03	1.550575E-04
5.348381E+03	2.689852E-03	1.549079E-04
5.358194E+03	2.688470E-03	1.547981E-04
5.368008E+03	2.687766E-03	1.547280E-04
5.377821E+03	2.687734E-03	1.546972E-04
5.387635E+03	2.688422E-03	1.547086E-04
5.397448E+03	2.689776E-03	1.547589E-04
5.407262E+03	2.691791E-03	1.548479E-04
5.417076E+03	2.694463E-03	1.549753E-04
5.426889E+03	2.697833E-03	1.551434E-04
5.436703E+03	2.701798E-03	1.553463E-04
5.446516E+03	2.706400E-03	1.555863E-04
5.456330E+03	2.711681E-03	1.558657E-04
5.466143E+03	2.717585E-03	1.561814E-04
5.475957E+03	2.724058E-03	1.565302E-04
5.485770E+03	2.731189E-03	1.569171E-04
5.495584E+03	2.738926E-03	1.573390E-04
5.505397E+03	2.747211E-03	1.577927E-04
5.515211E+03	2.756136E-03	1.582834E-04
5.525025E+03	2.765647E-03	1.588078E-04
5.534838E+03	2.775688E-03	1.593629E-04
5.544652E+03	2.786351E-03	1.599538E-04
5.554465E+03	2.797533E-03	1.605746E-04
5.564279E+03	2.809277E-03	1.612276E-04
5.574092E+03	2.821576E-03	1.619125E-04
5.583906E+03	2.834425E-03	1.626290E-04
5.593719E+03	2.847818E-03	1.633767E-04
5.603533E+03	2.861703E-03	1.641524E-04
5.613346E+03	2.876119E-03	1.649586E-04
5.623160E+03	2.891064E-03	1.657950E-04
5.632974E+03	2.906530E-03	1.666612E-04
5.642787E+03	2.922463E-03	1.675539E-04
5.652601E+03	2.938908E-03	1.684758E-04
5.662414E+03	2.955807E-03	1.694236E-04
5.672228E+03	2.973257E-03	1.704026E-04
5.682041E+03	2.991099E-03	1.714039E-04
5.691855E+03	3.009428E-03	1.724329E-04
5.701668E+03	3.028239E-03	1.734893E-04
5.711482E+03	3.047474E-03	1.745696E-04
5.721295E+03	3.067178E-03	1.756765E-04
5.731109E+03	3.087293E-03	1.768066E-04
5.740922E+03	3.107864E-03	1.779625E-04
5.750736E+03	3.128830E-03	1.791408E-04
5.760550E+03	3.150186E-03	1.803410E-04
5.770363E+03	3.171975E-03	1.815656E-04
5.780177E+03	3.194138E-03	1.828113E-04
5.789990E+03	3.216664E-03	1.840774E-04
5.799804E+03	3.239545E-03	1.853635E-04
5.809617E+03	3.262826E-03	1.866721E-04
5.819431E+03	3.286441E-03	1.879995E-04
5.829244E+03	3.310384E-03	1.893453E-04
5.839058E+03	3.334694E-03	1.907118E-04
5.848871E+03	3.359254E-03	1.920922E-04
5.858685E+03	3.384160E-03	1.934921E-04
5.868499E+03	3.409344E-03	1.949076E-04
5.878312E+03	3.434793E-03	1.963379E-04
5.888126E+03	3.460493E-03	1.977824E-04
5.897939E+03	3.486429E-03	1.992400E-04
5.907753E+03	3.512585E-03	2.007100E-04
5.917566E+03	3.539002E-03	2.021947E-04
5.927380E+03	3.565549E-03	2.036867E-04
5.937193E+03	3.592262E-03	2.051880E-04
5.947007E+03	3.619124E-03	2.066976E-04
5.956820E+03	3.646172E-03	2.082178E-04
5.966634E+03	3.673267E-03	2.097407E-04
5.976447E+03	3.700446E-03	2.112684E-04
5.986261E+03	3.727745E-03	2.128029E-04
5.996075E+03	3.755018E-03	2.143361E-04
6.005888E+03	3.782300E-03	2.158699E-04
6.015702E+03	3.809563E-03	2.174028E-04
6.025515E+03	3.836841E-03	2.189368E-04
6.035329E+03	3.863981E-03	2.204633E-04
6.045142E+03	3.891014E-03	2.219840E-04
6.054956E+03	3.917908E-03	2.234973E-04
6.064769E+03	3.944631E-03	2.250013E-04
6.074583E+03	3.971149E-03	2.264941E-04
6.084396E+03	3.997429E-03	2.279741E-04
6.094210E+03	4.023500E-03	2.294429E-04
6.104024E+03	4.049200E-03	2.308913E-04
6.113837E+03	4.074558E-03	2.323212E-04
6.123651E+03	4.099543E-03	2.337307E-04
6.133464E+03	4.124123E-03	2.351183E-04
6.143278E+03	4.148335E-03	2.364860E-04
6.153091E+03	4.172019E-03	2.378250E-04
6.162905E+03	4.195283E-03	2.391413E-04
6.172718E+03	4.218032E-03	2.404297E-04
6.182532E+03	4.240241E-03	2.416890E-04
6.192345E+03	4.261886E-03	2.429176E-04
6.202159E+03	4.282942E-03	2.441143E-04
6.211973E+03	4.303382E-03	2.452774E-04
6.221786E+03	4.323251E-03	2.464095E-04
6.231600E+03	4.342455E-03	2.475052E-04
6.241413E+03	4.361035E-03	2.485668E-04
6.251227E+03	4.378825E-03	2.495849E-04
6.261040E+03	4.395937E-03	2.505658E-04
6.270854E+03	4.412343E-03	2.515080E-04
6.280667E+03	4.427943E-03	2.524056E-04
6.290481E+03	4.442708E-03	2.532571E-04
6.300294E+03	4.456680E-03	2.540647E-04
6.310108E+03	4.469827E-03	2.548267E-04
6.319921E+03	4.482049E-03	2.555373E-04
6.329735E+03	4.493314E-03	2.561947E-04
6.339549E+03	4.503665E-03	2.568014E-04
6.349362E+03	4.513071E-03	2.573555E-04
6.359176E+03	4.521504E-03	2.578554E-04
6.368989E+03	4.528861E-03	2.582952E-04
6.378803E+03	4.535260E-03	2.586817E-04
6.388616E+03	4.540528E-03	2.590049E-04
6.398430E+03	4.544712E-03	2.592675E-04
6.408243E+03	4.547786E-03	2.594681E-04
6.418057E+03	4.549655E-03	2.596011E-04
6.427870E+03	4.550443E-03	2.596736E-04
6.437684E+03	4.550058E-03	2.596804E-04
6.447498E+03	4.548481E-03	2.596204E-04
6.457311E+03	4.545698E-03	2.594927E-04
6.467125E+03	4.541695E-03	2.592965E-04
6.476938E+03	4.536535E-03	2.590354E-04
6.486752E+03	4.530062E-03	2.587006E-04
6.496565E+03	4.522419E-03	2.583000E-04
6.506379E+03	4.513530E-03	2.578294E-04
6.516192E+03	4.503469E-03	2.572930E-04
6.526006E+03	4.492165E-03	2.566866E-04
6.535819E+03	4.479699E-03	2.560150E-04
6.545633E+03	4.466005E-03	2.552743E-04
6.555447E+03	4.451097E-03	2.544653E-04
6.565260E+03	4.435061E-03	2.535930E-04
6.575074E+03	4.417918E-03	2.526584E-04
6.584887E+03	4.399614E-03	2.516585E-04
6.594701E+03	4.380245E-03	2.505988E-04
6.604514E+03	4.359839E-03	2.494808E-04
6.614328E+03	4.338350E-03	2.483019E-04
6.624141E+03	4.315881E-03	2.470680E-04
6.633955E+03	4.292467E-03	2.457811E-04
6.643768E+03	4.268142E-03	2.444431E-04
6.653582E+03	4.242943E-03	2.430561E-04
6.663395E+03	4.216906E-03	2.416222E-04
6.673209E+03	4.190075E-03	2.401438E-04
6.683023E+03	4.162418E-03	2.386192E-04
6.692836E+03	4.134119E-03	2.370588E-04
6.702650E+03	4.105149E-03	2.354611E-04
6.712463E+03	4.075553E-03	2.338285E-04
6.722277E+03	4.045375E-03	2.321636E-04
6.732090E+03	4.014660E-03	2.304690E-04
6.741904E+03	3.983452E-03	2.287471E-04
6.751717E+03	3.951861E-03	2.270044E-04
6.761531E+03	3.919799E-03	2.252356E-04
6.771344E+03	3.887441E-03	2.234509E-04
6.781158E+03	3.854830E-03	2.216528E-04
6.790972E+03	3.821877E-03	2.198361E-04
6.800785E+03	3.788752E-03	2.180106E-04
6.810599E+03	3.755496E-03	2.161787E-04
6.820412E+03	3.722018E-03	2.143351E-04
6.830226E+03	3.688484E-03	2.124894E-04
6.840039E+03	3.654930E-03	2.106436E-04
6.849853E+03	3.621327E-03	2.087962E-04
6.859666E+03	3.587708E-03	2.069489E-04
6.869480E+03	3.554167E-03	2.051073E-04
6.879293E+03	3.520734E-03	2.032731E-04
6.889107E+03	3.487375E-03	2.014443E-04
6.898921E+03	3.454117E-03	1.996225E-04
6.908734E+03	3.421048E-03	1.978127E-04
6.918548E+03	3.388189E-03	1.960163E-04
6.928361E+03	3.355502E-03	1.942311E-04
6.938175E+03	3.323068E-03	1.924616E-04
6.947988E+03	3.290846E-03	1.907057E-04
6.957802E+03	3.258971E-03	1.889710E-04
6.967615E+03	3.227283E-03	1.872485E-04
6.977429E+03	3.195970E-03	1.855489E-04
6.987242E+03	3.164932E-03	1.838665E-04
6.997056E+03	3.134234E-03	1.822051E-04
7.006869E+03	3.103832E-03	1.805622E-04
7.016683E+03	3.073792E-03	1.789416E-04
7.026497E+03	3.044120E-03	1.773438E-04
7.036310E+03	3.014825E-03	1.757692E-04
7.046124E+03	2.985855E-03	1.742148E-04
7.055937E+03	2.957272E-03	1.726844E-04
7.065751E+03	2.929079E-03	1.711780E-04
7.075564E+03	2.901277E-03	1.696960E-04
7.085378E+03	2.873819E-03	1.682353E-04
7.095191E+03	2.846808E-03	1.668022E-04
7.105005E+03	2.820143E-03	1.653907E-04
7.114818E+03	2.793875E-03	1.640040E-04
7.124632E+03	2.767954E-03	1.626390E-04
7.134446E+03	2.742480E-03	1.613017E-04
7.144259E+03	2.717351E-03	1.599862E-04
7.154073E+03	2.692616E-03	1.586952E-04
7.163886E+03	2.668273E-03	1.574289E-04
7.173700E+03	2.644320E-03	1.561870E-04
7.183513E+03	2.620705E-03	1.549667E-04
7.193327E+03	2.597524E-03	1.537734E-04
7.203140E+03	2.574677E-03	1.526015E-04
7.212954E+03	2.552209E-03	1.514536E-04
7.222767E+03	2.530118E-03	1.503295E-04
7.232581E+03	2.508400E-03	1.492293E-04
7.242395E+03	2.487005E-03	1.481498E-04
7.252208E+03	2.466025E-03	1.470966E-04
7.262022E+03	2.445362E-03	1.460639E-04
7.271835E+03	2.425107E-03	1.450572E-04
7.281649E+03	2.405164E-03	1.440708E-04
7.291462E+03	2.385577E-03	1.431074E-04
7.301276E+03	2.366341E-03	1.421667E-04
7.311089E+03	2.347456E-03	1.412487E-04
7.320903E+03	2.328918E-03	1.403533E-04
7.330716E+03	2.310678E-03	1.394776E-04
7.340530E+03	2.292826E-03	1.386270E-04
7.350343E+03	2.275267E-03	1.377959E-04
7.360157E+03	2.258046E-03	1.369868E-04
7.369971E+03	2.241158E-03	1.361993E-04
7.379784E+03	2.224645E-03	1.354360E-04
7.389598E+03	2.208372E-03	1.346886E-04
7.399411E+03	2.192467E-03	1.339647E-04
7.409225E+03	2.176885E-03	1.332616E-04
7.419038E+03	2.161621E-03	1.325789E-04
7.428852E+03	2.146631E-03	1.319138E-04
7.438665E+03	2.131995E-03	1.312712E-04
7.448479E+03	2.117626E-03	1.306457E-04
7.458292E+03	2.103603E-03	1.300421E-04
7.468106E+03	2.089837E-03	1.294548E-04
7.477920E+03	2.076365E-03	1.288862E-04
7.487733E+03	2.063179E-03	1.283357E-04
7.497547E+03	2.050272E-03	1.278028E-04
7.507360E+03	2.037634E-03	1.272869E-04
7.517174E+03	2.025259E-03	1.267875E-04
7.526987E+03	2.013136E-03	1.263040E-04
7.536801E+03	2.001214E-03	1.258331E-04
7.546614E+03	1.989568E-03	1.253795E-04
7.556428E+03	1.978107E-03	1.249374E-04
7.566241E+03	1.966903E-03	1.245114E-04
7.576055E+03	1.955866E-03	1.240957E-04
7.585868E+03	1.945027E-03	1.236923E-04
7.595682E+03	1.934419E-03	1.233033E-04
7.605496E+03	1.923953E-03	1.229229E-04
7.615309E+03	1.913662E-03	1.225531E-04
