#wls	flux	fluxerr
1.600000E+03	5.952792E-18	2.680744E-20
1.640000E+03	6.004129E-18	2.702391E-20
1.680000E+03	6.057869E-18	2.725050E-20
1.720000E+03	6.114249E-18	2.748822E-20
1.760000E+03	6.173525E-18	2.773819E-20
1.800000E+03	6.237072E-18	2.800653E-20
1.840000E+03	6.304122E-18	2.828972E-20
1.880000E+03	6.375006E-18	2.858920E-20
1.920000E+03	6.451219E-18	2.891159E-20
1.960000E+03	6.532050E-18	2.925363E-20
2.000000E+03	6.617929E-18	2.961717E-20
2.040000E+03	6.710495E-18	3.000945E-20
2.080000E+03	6.809118E-18	3.042754E-20
2.120000E+03	6.914353E-18	3.087381E-20
2.160000E+03	7.028021E-18	3.135628E-20
2.200000E+03	7.149600E-18	3.187247E-20
2.240000E+03	7.279807E-18	3.242544E-20
2.280000E+03	7.420704E-18	3.302420E-20
2.320000E+03	7.571911E-18	3.366686E-20
2.360000E+03	7.735693E-18	3.436331E-20
2.400000E+03	7.911801E-18	3.511219E-20
2.440000E+03	8.101361E-18	3.591827E-20
2.480000E+03	8.307022E-18	3.679300E-20
2.520000E+03	8.528791E-18	3.773610E-20
2.560000E+03	8.769650E-18	3.876042E-20
2.600000E+03	9.029836E-18	3.986661E-20
2.640000E+03	9.311162E-18	4.106225E-20
2.680000E+03	9.617266E-18	4.236292E-20
2.720000E+03	9.948814E-18	4.377099E-20
2.760000E+03	1.030998E-17	4.530426E-20
2.800000E+03	1.070188E-17	4.696687E-20
2.840000E+03	1.112746E-17	4.877111E-20
2.880000E+03	1.159195E-17	5.073903E-20
2.920000E+03	1.209720E-17	5.287772E-20
2.960000E+03	1.264927E-17	5.521271E-20
3.000000E+03	1.325065E-17	5.775355E-20
3.010000E+03	1.340980E-17	5.842561E-20
3.020000E+03	1.357020E-17	5.910239E-20
3.030000E+03	1.373635E-17	5.980357E-20
3.040000E+03	1.390614E-17	6.051991E-20
3.050000E+03	1.407964E-17	6.125168E-20
3.060000E+03	1.425696E-17	6.199931E-20
3.070000E+03	1.443816E-17	6.276310E-20
3.080000E+03	1.462335E-17	6.354343E-20
3.090000E+03	1.481262E-17	6.434066E-20
3.100000E+03	1.500606E-17	6.515524E-20
3.110000E+03	1.520376E-17	6.598747E-20
3.120000E+03	1.540582E-17	6.683774E-20
3.130000E+03	1.561235E-17	6.770652E-20
3.140000E+03	1.582344E-17	6.859417E-20
3.150000E+03	1.603920E-17	6.950112E-20
3.160000E+03	1.625972E-17	7.042776E-20
3.170000E+03	1.648779E-17	7.138609E-20
3.180000E+03	1.671820E-17	7.235353E-20
3.190000E+03	1.695370E-17	7.334199E-20
3.200000E+03	1.719440E-17	7.435188E-20
3.210000E+03	1.744042E-17	7.538364E-20
3.220000E+03	1.769472E-17	7.645009E-20
3.230000E+03	1.795173E-17	7.752710E-20
3.240000E+03	1.821441E-17	7.862739E-20
3.250000E+03	1.848584E-17	7.976423E-20
3.260000E+03	1.876023E-17	8.091259E-20
3.270000E+03	1.904063E-17	8.208558E-20
3.280000E+03	1.933026E-17	8.329706E-20
3.290000E+03	1.962310E-17	8.452096E-20
3.300000E+03	1.992230E-17	8.577091E-20
3.310000E+03	2.023125E-17	8.706135E-20
3.320000E+03	2.054362E-17	8.836509E-20
3.330000E+03	2.086608E-17	8.971067E-20
3.340000E+03	2.119212E-17	9.107010E-20
3.350000E+03	2.152857E-17	9.247269E-20
3.360000E+03	2.186877E-17	9.388971E-20
3.370000E+03	2.221974E-17	9.535130E-20
3.380000E+03	2.257457E-17	9.682775E-20
3.390000E+03	2.294054E-17	9.835016E-20
3.400000E+03	2.331422E-17	9.990382E-20
3.410000E+03	2.369195E-17	1.014730E-19
3.420000E+03	2.408134E-17	1.030901E-19
3.430000E+03	2.447491E-17	1.047232E-19
3.440000E+03	2.488048E-17	1.064056E-19
3.450000E+03	2.529433E-17	1.081214E-19
3.460000E+03	2.571250E-17	1.098535E-19
3.470000E+03	2.614318E-17	1.116368E-19
3.480000E+03	2.658246E-17	1.134546E-19
3.490000E+03	2.703043E-17	1.153072E-19
3.500000E+03	2.748286E-17	1.171764E-19
3.510000E+03	2.794841E-17	1.190992E-19
3.520000E+03	2.842292E-17	1.210577E-19
3.530000E+03	2.890192E-17	1.230328E-19
3.540000E+03	2.939448E-17	1.250630E-19
3.550000E+03	2.989620E-17	1.271295E-19
3.560000E+03	3.040714E-17	1.292325E-19
3.570000E+03	3.092734E-17	1.313720E-19
3.580000E+03	3.145193E-17	1.335273E-19
3.590000E+03	3.199068E-17	1.357398E-19
3.600000E+03	3.253878E-17	1.379889E-19
3.610000E+03	3.309626E-17	1.402748E-19
3.620000E+03	3.366311E-17	1.425972E-19
3.630000E+03	3.423933E-17	1.449560E-19
3.640000E+03	3.482488E-17	1.473511E-19
3.650000E+03	3.541426E-17	1.497590E-19
3.660000E+03	3.601833E-17	1.522257E-19
3.670000E+03	3.663162E-17	1.547277E-19
3.680000E+03	3.725409E-17	1.572650E-19
3.690000E+03	3.788564E-17	1.598369E-19
3.700000E+03	3.852618E-17	1.624430E-19
3.710000E+03	3.917564E-17	1.650829E-19
3.720000E+03	3.983389E-17	1.677559E-19
3.730000E+03	4.050081E-17	1.704614E-19
3.740000E+03	4.117625E-17	1.731988E-19
3.750000E+03	4.186007E-17	1.759673E-19
3.760000E+03	4.255211E-17	1.787661E-19
3.770000E+03	4.325219E-17	1.815944E-19
3.780000E+03	4.396013E-17	1.844513E-19
3.790000E+03	4.466886E-17	1.873072E-19
3.800000E+03	4.539178E-17	1.902180E-19
3.810000E+03	4.612192E-17	1.931545E-19
3.820000E+03	4.685904E-17	1.961155E-19
3.830000E+03	4.760289E-17	1.991000E-19
3.840000E+03	4.835321E-17	2.021067E-19
3.850000E+03	4.910974E-17	2.051345E-19
3.860000E+03	4.987220E-17	2.081820E-19
3.870000E+03	5.064030E-17	2.112480E-19
3.880000E+03	5.141373E-17	2.143312E-19
3.890000E+03	5.219218E-17	2.174301E-19
3.900000E+03	5.297535E-17	2.205434E-19
3.910000E+03	5.376288E-17	2.236696E-19
3.920000E+03	5.455446E-17	2.268072E-19
3.930000E+03	5.534972E-17	2.299546E-19
3.940000E+03	5.614830E-17	2.331103E-19
3.950000E+03	5.694984E-17	2.362726E-19
3.960000E+03	5.775393E-17	2.394400E-19
3.970000E+03	5.856019E-17	2.426106E-19
3.980000E+03	5.936820E-17	2.457826E-19
3.990000E+03	6.016848E-17	2.489169E-19
4.000000E+03	6.097857E-17	2.520859E-19
4.010000E+03	6.178907E-17	2.552507E-19
4.020000E+03	6.259950E-17	2.584092E-19
4.030000E+03	6.340934E-17	2.615593E-19
4.040000E+03	6.421805E-17	2.646986E-19
4.050000E+03	6.502508E-17	2.678249E-19
4.060000E+03	6.582982E-17	2.709357E-19
4.070000E+03	6.663165E-17	2.740283E-19
4.080000E+03	6.741985E-17	2.770586E-19
4.090000E+03	6.821372E-17	2.801061E-19
4.100000E+03	6.900259E-17	2.831268E-19
4.110000E+03	6.978566E-17	2.861174E-19
4.120000E+03	7.056210E-17	2.890746E-19
4.130000E+03	7.133103E-17	2.919948E-19
4.140000E+03	7.208081E-17	2.948303E-19
4.150000E+03	7.283179E-17	2.976646E-19
4.160000E+03	7.357231E-17	3.004498E-19
4.170000E+03	7.430133E-17	3.031819E-19
4.180000E+03	7.500657E-17	3.058108E-19
4.190000E+03	7.570898E-17	3.084221E-19
4.200000E+03	7.639632E-17	3.109659E-19
4.210000E+03	7.705592E-17	3.133907E-19
4.220000E+03	7.770913E-17	3.157837E-19
4.230000E+03	7.834329E-17	3.180934E-19
4.240000E+03	7.894533E-17	3.202670E-19
4.250000E+03	7.953701E-17	3.223928E-19
4.260000E+03	8.010528E-17	3.244183E-19
4.270000E+03	8.063675E-17	3.262893E-19
4.280000E+03	8.115352E-17	3.280956E-19
4.290000E+03	8.163022E-17	3.297348E-19
4.300000E+03	8.208914E-17	3.312972E-19
4.310000E+03	8.250461E-17	3.326796E-19
4.320000E+03	8.289908E-17	3.339727E-19
4.330000E+03	8.324664E-17	3.350726E-19
4.340000E+03	8.356995E-17	3.360707E-19
4.350000E+03	8.384304E-17	3.368630E-19
4.360000E+03	8.408921E-17	3.375436E-19
4.370000E+03	8.428342E-17	3.380123E-19
4.380000E+03	8.443834E-17	3.383204E-19
4.390000E+03	8.456731E-17	3.385218E-19
4.400000E+03	8.464708E-17	3.385237E-19
4.410000E+03	8.469147E-17	3.383819E-19
4.420000E+03	8.471430E-17	3.381519E-19
4.430000E+03	8.469250E-17	3.377421E-19
4.440000E+03	8.463990E-17	3.372079E-19
4.450000E+03	8.457028E-17	3.366047E-19
4.460000E+03	8.446061E-17	3.358410E-19
4.470000E+03	8.432464E-17	3.349718E-19
4.480000E+03	8.416386E-17	3.340035E-19
4.490000E+03	8.397973E-17	3.329421E-19
4.500000E+03	8.377369E-17	3.317937E-19
4.510000E+03	8.354716E-17	3.305639E-19
4.520000E+03	8.330155E-17	3.292588E-19
4.530000E+03	8.303826E-17	3.278841E-19
4.540000E+03	8.275865E-17	3.264453E-19
4.550000E+03	8.246406E-17	3.249480E-19
4.560000E+03	8.215584E-17	3.233977E-19
4.570000E+03	8.183530E-17	3.217996E-19
4.580000E+03	8.150374E-17	3.201591E-19
4.590000E+03	8.116244E-17	3.184814E-19
4.600000E+03	8.081267E-17	3.167715E-19
4.610000E+03	8.044416E-17	3.149894E-19
4.620000E+03	8.008128E-17	3.132307E-19
4.630000E+03	7.971369E-17	3.114548E-19
4.640000E+03	7.934262E-17	3.096667E-19
4.650000E+03	7.895801E-17	3.078272E-19
4.660000E+03	7.858370E-17	3.060293E-19
4.670000E+03	7.820957E-17	3.042337E-19
4.680000E+03	7.782571E-17	3.024017E-19
4.690000E+03	7.745559E-17	3.006247E-19
4.700000E+03	7.707823E-17	2.988210E-19
4.710000E+03	7.671683E-17	2.970808E-19
4.720000E+03	7.635061E-17	2.953233E-19
4.730000E+03	7.600248E-17	2.936373E-19
4.740000E+03	7.565185E-17	2.919430E-19
4.750000E+03	7.531063E-17	2.902864E-19
4.760000E+03	7.499047E-17	2.887122E-19
4.770000E+03	7.467100E-17	2.871419E-19
4.780000E+03	7.436381E-17	2.856199E-19
4.790000E+03	7.408024E-17	2.841896E-19
4.800000E+03	7.380003E-17	2.827731E-19
4.810000E+03	7.353445E-17	2.814135E-19
4.820000E+03	7.328411E-17	2.801128E-19
4.830000E+03	7.304959E-17	2.788732E-19
4.840000E+03	7.283134E-17	2.776960E-19
4.850000E+03	7.262975E-17	2.765827E-19
4.860000E+03	7.244511E-17	2.755341E-19
4.870000E+03	7.227765E-17	2.745507E-19
4.880000E+03	7.212745E-17	2.736327E-19
4.890000E+03	7.199455E-17	2.727800E-19
4.900000E+03	7.187889E-17	2.719921E-19
4.910000E+03	7.178035E-17	2.712683E-19
4.920000E+03	7.168860E-17	2.705694E-19
4.930000E+03	7.162354E-17	2.699702E-19
4.940000E+03	7.157470E-17	2.694310E-19
4.950000E+03	7.154167E-17	2.689500E-19
4.960000E+03	7.151396E-17	2.684875E-19
4.970000E+03	7.151111E-17	2.681169E-19
4.980000E+03	7.151253E-17	2.677604E-19
4.990000E+03	7.153771E-17	2.674911E-19
5.000000E+03	7.157606E-17	2.672689E-19
5.010000E+03	7.161698E-17	2.670541E-19
5.020000E+03	7.166992E-17	2.668819E-19
5.030000E+03	7.174438E-17	2.667875E-19
5.040000E+03	7.181978E-17	2.666939E-19
5.050000E+03	7.191575E-17	2.666741E-19
5.060000E+03	7.201176E-17	2.666516E-19
5.070000E+03	7.211750E-17	2.666623E-19
5.080000E+03	7.223266E-17	2.667049E-19
5.090000E+03	7.235701E-17	2.667782E-19
5.100000E+03	7.250047E-17	2.669188E-19
5.110000E+03	7.264277E-17	2.670518E-19
5.120000E+03	7.279399E-17	2.672142E-19
5.130000E+03	7.295417E-17	2.674059E-19
5.140000E+03	7.312345E-17	2.676274E-19
5.150000E+03	7.330203E-17	2.678791E-19
5.160000E+03	7.349017E-17	2.681619E-19
5.170000E+03	7.368820E-17	2.684767E-19
5.180000E+03	7.388624E-17	2.687876E-19
5.190000E+03	7.410524E-17	2.691704E-19
5.200000E+03	7.433542E-17	2.695895E-19
5.210000E+03	7.457729E-17	2.700464E-19
5.220000E+03	7.482103E-17	2.705054E-19
5.230000E+03	7.508790E-17	2.710432E-19
5.240000E+03	7.536814E-17	2.716242E-19
5.250000E+03	7.565184E-17	2.722125E-19
5.260000E+03	7.596050E-17	2.728853E-19
5.270000E+03	7.627365E-17	2.735686E-19
5.280000E+03	7.661290E-17	2.743398E-19
5.290000E+03	7.695760E-17	2.751244E-19
5.300000E+03	7.732944E-17	2.760000E-19
5.310000E+03	7.770750E-17	2.768913E-19
5.320000E+03	7.811359E-17	2.778758E-19
5.330000E+03	7.852644E-17	2.788774E-19
5.340000E+03	7.895703E-17	2.799350E-19
5.350000E+03	7.940550E-17	2.810486E-19
5.360000E+03	7.988295E-17	2.822572E-19
5.370000E+03	8.036736E-17	2.834824E-19
5.380000E+03	8.086957E-17	2.847623E-19
5.390000E+03	8.138935E-17	2.860956E-19
5.400000E+03	8.192636E-17	2.874810E-19
5.410000E+03	8.248013E-17	2.889163E-19
5.420000E+03	8.305007E-17	2.903990E-19
5.430000E+03	8.363543E-17	2.919264E-19
5.440000E+03	8.423531E-17	2.934948E-19
5.450000E+03	8.484867E-17	2.951003E-19
5.460000E+03	8.547422E-17	2.967383E-19
5.470000E+03	8.611060E-17	2.984035E-19
5.480000E+03	8.674438E-17	3.000494E-19
5.490000E+03	8.739791E-17	3.017531E-19
5.500000E+03	8.805827E-17	3.034696E-19
5.510000E+03	8.871268E-17	3.051549E-19
5.520000E+03	8.938522E-17	3.068915E-19
5.530000E+03	9.006364E-17	3.086372E-19
5.540000E+03	9.073537E-17	3.103488E-19
5.550000E+03	9.142511E-17	3.121107E-19
5.560000E+03	9.210767E-17	3.138365E-19
5.570000E+03	9.280808E-17	3.156117E-19
5.580000E+03	9.350078E-17	3.173488E-19
5.590000E+03	9.421128E-17	3.191345E-19
5.600000E+03	9.491371E-17	3.208809E-19
5.610000E+03	9.562085E-17	3.226310E-19
5.620000E+03	9.634615E-17	3.244302E-19
5.630000E+03	9.706343E-17	3.261898E-19
5.640000E+03	9.778599E-17	3.279546E-19
5.650000E+03	9.851435E-17	3.297260E-19
5.660000E+03	9.926230E-17	3.315501E-19
5.670000E+03	1.000035E-16	3.333382E-19
5.680000E+03	1.007517E-16	3.351367E-19
5.690000E+03	1.015077E-16	3.369473E-19
5.700000E+03	1.022719E-16	3.387718E-19
5.710000E+03	1.030452E-16	3.406122E-19
5.720000E+03	1.038280E-16	3.424696E-19
5.730000E+03	1.046207E-16	3.443456E-19
5.740000E+03	1.054242E-16	3.462420E-19
5.750000E+03	1.062386E-16	3.481598E-19
5.760000E+03	1.070643E-16	3.500991E-19
5.770000E+03	1.079017E-16	3.520611E-19
5.780000E+03	1.087508E-16	3.540454E-19
5.790000E+03	1.095966E-16	3.560028E-19
5.800000E+03	1.104689E-16	3.580303E-19
5.810000E+03	1.113526E-16	3.600778E-19
5.820000E+03	1.122319E-16	3.620946E-19
5.830000E+03	1.131369E-16	3.641770E-19
5.840000E+03	1.140520E-16	3.662740E-19
5.850000E+03	1.149605E-16	3.683324E-19
5.860000E+03	1.158931E-16	3.704500E-19
5.870000E+03	1.168335E-16	3.725742E-19
5.880000E+03	1.177646E-16	3.746501E-19
5.890000E+03	1.187178E-16	3.767776E-19
5.900000E+03	1.196599E-16	3.788508E-19
5.910000E+03	1.206227E-16	3.809706E-19
5.920000E+03	1.215727E-16	3.830305E-19
5.930000E+03	1.225257E-16	3.850803E-19
5.940000E+03	1.234981E-16	3.871711E-19
5.950000E+03	1.244560E-16	3.891967E-19
5.960000E+03	1.254159E-16	3.912087E-19
5.970000E+03	1.263952E-16	3.932605E-19
5.980000E+03	1.273597E-16	3.952458E-19
5.990000E+03	1.283266E-16	3.972182E-19
6.000000E+03	1.292968E-16	3.991797E-19
6.010000E+03	1.302885E-16	4.011864E-19
6.020000E+03	1.312671E-16	4.031314E-19
6.030000E+03	1.322512E-16	4.050720E-19
6.040000E+03	1.332417E-16	4.070102E-19
6.050000E+03	1.342396E-16	4.089491E-19
6.060000E+03	1.352458E-16	4.108912E-19
6.070000E+03	1.362614E-16	4.128390E-19
6.080000E+03	1.372872E-16	4.147947E-19
6.090000E+03	1.383239E-16	4.167599E-19
6.100000E+03	1.393719E-16	4.187357E-19
6.110000E+03	1.404315E-16	4.207223E-19
6.120000E+03	1.415028E-16	4.227194E-19
6.130000E+03	1.425854E-16	4.247255E-19
6.140000E+03	1.436784E-16	4.267377E-19
6.150000E+03	1.447809E-16	4.287522E-19
6.160000E+03	1.458712E-16	4.307051E-19
6.170000E+03	1.469873E-16	4.327080E-19
6.180000E+03	1.481066E-16	4.346941E-19
6.190000E+03	1.492264E-16	4.366549E-19
6.200000E+03	1.503227E-16	4.385205E-19
6.210000E+03	1.514325E-16	4.403986E-19
6.220000E+03	1.525312E-16	4.422176E-19
6.230000E+03	1.535931E-16	4.439032E-19
6.240000E+03	1.546552E-16	4.455626E-19
6.250000E+03	1.556910E-16	4.471199E-19
6.260000E+03	1.566737E-16	4.484990E-19
6.270000E+03	1.576404E-16	4.498066E-19
6.280000E+03	1.585422E-16	4.509041E-19
6.290000E+03	1.594166E-16	4.518997E-19
6.300000E+03	1.602362E-16	4.527162E-19
6.310000E+03	1.609735E-16	4.532777E-19
6.320000E+03	1.616671E-16	4.536949E-19
6.330000E+03	1.622678E-16	4.538310E-19
6.340000E+03	1.627929E-16	4.537373E-19
6.350000E+03	1.632609E-16	4.534666E-19
6.360000E+03	1.636234E-16	4.528868E-19
6.370000E+03	1.639221E-16	4.521161E-19
6.380000E+03	1.641097E-16	4.510259E-19
6.390000E+03	1.642069E-16	4.496765E-19
6.400000E+03	1.642351E-16	4.481287E-19
6.410000E+03	1.641489E-16	4.462611E-19
6.420000E+03	1.639710E-16	4.441386E-19
6.430000E+03	1.637024E-16	4.417667E-19
6.440000E+03	1.633668E-16	4.392119E-19
6.450000E+03	1.629216E-16	4.363622E-19
6.460000E+03	1.623921E-16	4.332881E-19
6.470000E+03	1.617811E-16	4.300002E-19
6.480000E+03	1.610922E-16	4.265107E-19
6.490000E+03	1.603516E-16	4.228907E-19
6.500000E+03	1.595193E-16	4.190370E-19
6.510000E+03	1.586220E-16	4.150227E-19
6.520000E+03	1.576645E-16	4.108621E-19
6.530000E+03	1.566516E-16	4.065699E-19
6.540000E+03	1.555885E-16	4.021614E-19
6.550000E+03	1.544802E-16	3.976513E-19
6.560000E+03	1.533317E-16	3.930542E-19
6.570000E+03	1.521484E-16	3.883848E-19
6.580000E+03	1.509352E-16	3.836574E-19
6.590000E+03	1.496972E-16	3.788858E-19
6.600000E+03	1.484392E-16	3.740832E-19
6.610000E+03	1.471662E-16	3.692629E-19
6.620000E+03	1.458828E-16	3.644372E-19
6.630000E+03	1.445937E-16	3.596182E-19
6.640000E+03	1.433032E-16	3.548173E-19
6.650000E+03	1.420158E-16	3.500454E-19
6.660000E+03	1.407165E-16	3.452659E-19
6.670000E+03	1.394481E-16	3.405843E-19
6.680000E+03	1.381951E-16	3.359615E-19
6.690000E+03	1.369613E-16	3.314071E-19
6.700000E+03	1.357505E-16	3.269291E-19
6.710000E+03	1.345478E-16	3.224915E-19
6.720000E+03	1.333938E-16	3.181912E-19
6.730000E+03	1.322731E-16	3.139902E-19
6.740000E+03	1.311890E-16	3.098950E-19
6.750000E+03	1.301266E-16	3.058700E-19
6.760000E+03	1.291249E-16	3.020052E-19
6.770000E+03	1.281686E-16	2.982635E-19
6.780000E+03	1.272428E-16	2.946089E-19
6.790000E+03	1.263850E-16	2.911268E-19
6.800000E+03	1.255801E-16	2.877804E-19
6.810000E+03	1.248128E-16	2.845332E-19
6.820000E+03	1.241195E-16	2.814665E-19
6.830000E+03	1.234849E-16	2.785431E-19
6.840000E+03	1.228933E-16	2.757259E-19
6.850000E+03	1.223801E-16	2.730925E-19
6.860000E+03	1.219125E-16	2.705675E-19
6.870000E+03	1.215249E-16	2.682251E-19
6.880000E+03	1.211844E-16	2.659905E-19
6.890000E+03	1.209247E-16	2.639354E-19
6.900000E+03	1.207126E-16	2.619850E-19
6.910000E+03	1.205809E-16	2.602084E-19
6.920000E+03	1.204961E-16	2.585309E-19
6.930000E+03	1.204905E-16	2.570196E-19
6.940000E+03	1.205298E-16	2.555992E-19
6.950000E+03	1.206293E-16	2.543000E-19
6.960000E+03	1.208039E-16	2.531513E-19
6.970000E+03	1.210184E-16	2.520769E-19
6.980000E+03	1.212873E-16	2.511054E-19
6.990000E+03	1.216248E-16	2.502641E-19
7.000000E+03	1.219945E-16	2.494760E-19
7.010000E+03	1.224102E-16	2.487682E-19
7.020000E+03	1.228855E-16	2.481663E-19
7.030000E+03	1.233830E-16	2.475931E-19
7.040000E+03	1.239158E-16	2.470739E-19
7.050000E+03	1.244799E-16	2.465995E-19
7.060000E+03	1.250882E-16	2.461945E-19
7.070000E+03	1.257017E-16	2.457808E-19
7.080000E+03	1.263332E-16	2.453831E-19
7.090000E+03	1.269776E-16	2.449912E-19
7.100000E+03	1.276301E-16	2.445953E-19
7.110000E+03	1.283032E-16	2.442195E-19
7.120000E+03	1.289563E-16	2.437859E-19
7.130000E+03	1.296016E-16	2.433185E-19
7.140000E+03	1.302335E-16	2.428078E-19
7.150000E+03	1.308467E-16	2.422441E-19
7.160000E+03	1.314355E-16	2.416181E-19
7.170000E+03	1.319941E-16	2.409206E-19
7.180000E+03	1.325171E-16	2.401430E-19
7.190000E+03	1.329987E-16	2.392768E-19
7.200000E+03	1.334335E-16	2.383140E-19
7.210000E+03	1.338160E-16	2.372470E-19
7.220000E+03	1.341407E-16	2.360688E-19
7.230000E+03	1.344026E-16	2.347728E-19
7.240000E+03	1.345964E-16	2.333532E-19
7.250000E+03	1.347178E-16	2.318051E-19
7.260000E+03	1.347620E-16	2.301237E-19
7.270000E+03	1.347249E-16	2.283057E-19
7.280000E+03	1.346030E-16	2.263484E-19
7.290000E+03	1.343927E-16	2.242498E-19
7.300000E+03	1.340914E-16	2.220095E-19
7.310000E+03	1.336781E-16	2.195967E-19
7.320000E+03	1.331884E-16	2.170744E-19
7.330000E+03	1.326025E-16	2.144138E-19
7.340000E+03	1.319199E-16	2.116185E-19
7.350000E+03	1.311408E-16	2.086929E-19
7.360000E+03	1.302479E-16	2.056136E-19
7.370000E+03	1.292793E-16	2.024452E-19
7.380000E+03	1.282188E-16	1.991658E-19
7.390000E+03	1.270515E-16	1.957564E-19
7.400000E+03	1.258166E-16	1.922814E-19
7.410000E+03	1.245006E-16	1.887228E-19
7.420000E+03	1.231080E-16	1.850911E-19
7.430000E+03	1.216269E-16	1.813718E-19
7.440000E+03	1.200974E-16	1.776275E-19
7.450000E+03	1.184919E-16	1.738198E-19
7.460000E+03	1.168499E-16	1.700094E-19
7.470000E+03	1.151614E-16	1.661830E-19
7.480000E+03	1.134173E-16	1.623298E-19
7.490000E+03	1.116566E-16	1.585069E-19
7.500000E+03	1.098545E-16	1.546805E-19
7.510000E+03	1.080489E-16	1.509047E-19
7.520000E+03	1.062161E-16	1.471471E-19
7.530000E+03	1.043926E-16	1.434585E-19
7.540000E+03	1.025550E-16	1.398069E-19
7.550000E+03	1.007383E-16	1.362401E-19
7.560000E+03	9.891964E-17	1.327263E-19
7.570000E+03	9.711852E-17	1.292918E-19
7.580000E+03	9.535301E-17	1.259595E-19
7.590000E+03	9.360042E-17	1.226986E-19
7.600000E+03	9.189118E-17	1.195479E-19
7.610000E+03	9.020248E-17	1.164766E-19
7.620000E+03	8.855039E-17	1.135043E-19
7.630000E+03	8.693739E-17	1.106330E-19
7.640000E+03	8.537746E-17	1.078788E-19
7.650000E+03	8.384777E-17	1.052115E-19
7.660000E+03	8.236178E-17	1.026467E-19
7.670000E+03	8.093155E-17	1.001978E-19
7.680000E+03	7.953446E-17	9.783541E-20
7.690000E+03	7.818200E-17	9.557226E-20
7.700000E+03	7.687387E-17	9.340666E-20
7.710000E+03	7.560944E-17	9.133645E-20
7.720000E+03	7.438796E-17	8.935942E-20
7.730000E+03	7.321853E-17	8.748516E-20
7.740000E+03	7.207903E-17	8.568597E-20
7.750000E+03	7.097849E-17	8.397156E-20
7.760000E+03	6.991531E-17	8.233891E-20
