#wls	flux	fluxerr
1.596966E+03	2.311559E-05	1.167274E-06
1.636890E+03	2.423500E-05	1.223420E-06
1.676814E+03	2.546431E-05	1.285065E-06
1.716738E+03	2.681132E-05	1.352595E-06
1.756662E+03	2.828538E-05	1.426473E-06
1.796586E+03	2.989656E-05	1.507198E-06
1.836511E+03	3.164149E-05	1.594589E-06
1.876435E+03	3.352344E-05	1.688801E-06
1.916359E+03	3.552919E-05	1.789156E-06
1.956283E+03	3.763314E-05	1.894355E-06
1.996207E+03	3.979301E-05	2.002261E-06
2.036131E+03	4.195851E-05	2.110335E-06
2.076055E+03	4.407245E-05	2.215699E-06
2.115980E+03	4.608080E-05	2.315634E-06
2.155904E+03	4.795270E-05	2.408595E-06
2.195828E+03	4.966314E-05	2.493329E-06
2.235752E+03	5.120032E-05	2.569253E-06
2.275676E+03	5.255633E-05	2.635978E-06
2.315600E+03	5.371704E-05	2.692804E-06
2.355525E+03	5.465890E-05	2.738566E-06
2.395449E+03	5.534362E-05	2.771358E-06
2.435373E+03	5.572144E-05	2.788710E-06
2.475297E+03	5.575703E-05	2.788877E-06
2.515221E+03	5.545340E-05	2.772040E-06
2.555145E+03	5.492247E-05	2.743819E-06
2.595069E+03	5.439653E-05	2.715833E-06
2.634994E+03	5.408351E-05	2.698455E-06
2.674918E+03	5.399425E-05	2.692207E-06
2.714842E+03	5.397789E-05	2.689548E-06
2.754766E+03	5.392589E-05	2.685064E-06
2.794690E+03	5.385752E-05	2.679717E-06
2.834614E+03	5.387199E-05	2.678441E-06
2.874538E+03	5.409753E-05	2.687596E-06
2.914463E+03	5.465625E-05	2.713217E-06
2.954387E+03	5.566174E-05	2.760896E-06
2.994311E+03	5.719940E-05	2.834808E-06
3.004292E+03	5.767579E-05	2.857814E-06
3.014273E+03	5.818847E-05	2.882603E-06
3.024254E+03	5.873741E-05	2.909174E-06
3.034235E+03	5.932491E-05	2.937638E-06
3.044216E+03	5.994884E-05	2.967889E-06
3.054197E+03	6.060817E-05	2.999874E-06
3.064178E+03	6.130255E-05	3.033576E-06
3.074159E+03	6.202866E-05	3.068827E-06
3.084140E+03	6.278370E-05	3.105489E-06
3.094121E+03	6.356698E-05	3.143526E-06
3.104102E+03	6.437188E-05	3.182611E-06
3.114083E+03	6.519484E-05	3.222565E-06
3.124064E+03	6.602882E-05	3.263040E-06
3.134045E+03	6.687126E-05	3.303909E-06
3.144026E+03	6.771079E-05	3.344611E-06
3.154007E+03	6.854038E-05	3.384797E-06
3.163988E+03	6.935206E-05	3.424075E-06
3.173969E+03	7.013595E-05	3.461957E-06
3.183950E+03	7.087869E-05	3.497784E-06
3.193932E+03	7.157318E-05	3.531208E-06
3.203913E+03	7.220539E-05	3.561538E-06
3.213894E+03	7.276549E-05	3.588292E-06
3.223875E+03	7.324130E-05	3.610870E-06
3.233856E+03	7.362416E-05	3.628851E-06
3.243837E+03	7.390541E-05	3.641809E-06
3.253818E+03	7.407787E-05	3.649395E-06
3.263799E+03	7.413516E-05	3.651298E-06
3.273780E+03	7.407552E-05	3.647437E-06
3.283761E+03	7.389810E-05	3.637773E-06
3.293742E+03	7.360309E-05	3.622321E-06
3.303723E+03	7.319508E-05	3.601311E-06
3.313704E+03	7.267787E-05	3.574934E-06
3.323685E+03	7.205895E-05	3.543562E-06
3.333666E+03	7.134414E-05	3.507487E-06
3.343647E+03	7.054097E-05	3.467081E-06
3.353628E+03	6.965711E-05	3.422726E-06
3.363609E+03	6.870033E-05	3.374806E-06
3.373590E+03	6.767858E-05	3.323715E-06
3.383571E+03	6.659889E-05	3.269801E-06
3.393552E+03	6.547065E-05	3.213527E-06
3.403533E+03	6.430058E-05	3.155226E-06
3.413514E+03	6.309976E-05	3.095443E-06
3.423495E+03	6.187613E-05	3.034568E-06
3.433476E+03	6.063991E-05	2.973104E-06
3.443457E+03	5.940121E-05	2.911548E-06
3.453438E+03	5.816874E-05	2.850327E-06
3.463420E+03	5.695148E-05	2.789880E-06
3.473401E+03	5.575495E-05	2.730478E-06
3.483382E+03	5.458261E-05	2.672289E-06
3.493363E+03	5.343727E-05	2.615451E-06
3.503344E+03	5.231939E-05	2.559984E-06
3.513325E+03	5.122915E-05	2.505897E-06
3.523306E+03	5.016331E-05	2.453030E-06
3.533287E+03	4.911935E-05	2.401259E-06
3.543268E+03	4.809081E-05	2.350268E-06
3.553249E+03	4.706893E-05	2.299629E-06
3.563230E+03	4.603940E-05	2.248643E-06
3.573211E+03	4.498483E-05	2.196460E-06
3.583192E+03	4.388735E-05	2.142210E-06
3.593173E+03	4.272766E-05	2.084955E-06
3.603154E+03	4.149277E-05	2.024062E-06
3.613135E+03	4.017730E-05	1.959274E-06
3.623116E+03	3.878694E-05	1.890872E-06
3.633097E+03	3.734178E-05	1.819839E-06
3.643078E+03	3.587707E-05	1.747894E-06
3.653059E+03	3.443916E-05	1.677298E-06
3.663040E+03	3.308373E-05	1.610760E-06
3.673021E+03	3.186953E-05	1.551136E-06
3.683002E+03	3.085647E-05	1.501334E-06
3.692983E+03	3.010169E-05	1.464124E-06
3.702964E+03	2.965979E-05	1.442149E-06
3.712945E+03	2.958137E-05	1.437853E-06
3.722926E+03	2.991562E-05	1.453609E-06
3.732907E+03	3.071181E-05	1.491788E-06
3.742889E+03	3.202046E-05	1.554822E-06
3.752870E+03	3.389250E-05	1.645157E-06
3.762851E+03	3.637833E-05	1.765208E-06
3.772832E+03	3.952128E-05	1.917048E-06
3.782813E+03	4.335077E-05	2.102066E-06
3.792794E+03	4.787571E-05	2.320660E-06
3.802775E+03	5.306799E-05	2.571431E-06
3.812756E+03	5.885789E-05	2.850964E-06
3.822737E+03	6.513274E-05	3.153772E-06
3.832718E+03	7.173548E-05	3.472226E-06
3.842699E+03	7.847816E-05	3.797211E-06
3.852680E+03	8.516454E-05	4.119228E-06
3.862661E+03	9.160857E-05	4.429280E-06
3.872642E+03	9.765271E-05	4.719766E-06
3.882623E+03	1.031809E-04	4.985099E-06
3.892604E+03	1.081231E-04	5.221918E-06
3.902585E+03	1.124437E-04	5.428538E-06
3.912566E+03	1.161297E-04	5.604358E-06
3.922547E+03	1.191746E-04	5.749108E-06
3.932528E+03	1.215667E-04	5.862255E-06
3.942509E+03	1.232835E-04	5.942749E-06
3.952490E+03	1.242914E-04	5.989003E-06
3.962471E+03	1.245555E-04	5.999381E-06
3.972452E+03	1.240597E-04	5.973150E-06
3.982433E+03	1.228123E-04	5.910750E-06
3.992414E+03	1.208620E-04	5.814573E-06
4.002395E+03	1.182994E-04	5.689008E-06
4.012376E+03	1.152518E-04	5.540216E-06
4.022358E+03	1.118741E-04	5.375669E-06
4.032339E+03	1.083260E-04	5.203058E-06
4.042320E+03	1.047685E-04	5.030120E-06
4.052301E+03	1.013492E-04	4.863948E-06
4.062282E+03	9.819430E-05	4.710583E-06
4.072263E+03	9.541216E-05	4.575208E-06
4.082244E+03	9.309682E-05	4.462310E-06
4.092225E+03	9.132590E-05	4.375578E-06
4.102206E+03	9.016709E-05	4.318223E-06
4.112187E+03	8.968122E-05	4.293119E-06
4.122168E+03	8.991745E-05	4.302579E-06
4.132149E+03	9.091260E-05	4.348317E-06
4.142130E+03	9.268258E-05	4.431049E-06
4.152111E+03	9.522005E-05	4.550372E-06
4.162092E+03	9.848115E-05	4.704145E-06
4.172073E+03	1.023807E-04	4.888251E-06
4.182054E+03	1.067961E-04	5.096803E-06
4.192035E+03	1.115584E-04	5.321702E-06
4.202016E+03	1.164638E-04	5.553203E-06
4.211997E+03	1.213032E-04	5.781340E-06
4.221978E+03	1.258631E-04	5.995936E-06
4.231959E+03	1.299426E-04	6.187448E-06
4.241940E+03	1.333879E-04	6.348576E-06
4.251921E+03	1.360935E-04	6.474352E-06
4.261902E+03	1.380114E-04	6.562538E-06
4.271883E+03	1.391744E-04	6.614742E-06
4.281864E+03	1.396738E-04	6.635355E-06
4.291845E+03	1.396476E-04	6.630972E-06
4.301827E+03	1.392744E-04	6.610107E-06
4.311808E+03	1.387282E-04	6.581031E-06
4.321789E+03	1.381595E-04	6.550901E-06
4.331770E+03	1.376895E-04	6.525457E-06
4.341751E+03	1.373814E-04	6.507687E-06
4.351732E+03	1.372476E-04	6.498171E-06
4.361713E+03	1.373044E-04	6.497662E-06
4.371694E+03	1.375242E-04	6.504844E-06
4.381675E+03	1.378479E-04	6.516916E-06
4.391656E+03	1.382338E-04	6.531893E-06
4.401637E+03	1.385901E-04	6.545436E-06
4.411618E+03	1.387824E-04	6.551207E-06
4.421599E+03	1.386990E-04	6.543944E-06
4.431580E+03	1.382345E-04	6.518694E-06
4.441561E+03	1.372764E-04	6.470192E-06
4.451542E+03	1.357276E-04	6.393890E-06
4.461523E+03	1.335237E-04	6.286799E-06
4.471504E+03	1.306390E-04	6.147767E-06
4.481485E+03	1.270990E-04	5.978042E-06
4.491466E+03	1.229950E-04	5.781959E-06
4.501447E+03	1.184708E-04	5.566328E-06
4.511428E+03	1.136963E-04	5.339147E-06
4.521409E+03	1.088712E-04	5.109827E-06
4.531390E+03	1.042065E-04	4.888256E-06
4.541371E+03	9.989704E-05	4.683564E-06
4.551352E+03	9.612631E-05	4.504324E-06
4.561333E+03	9.306770E-05	4.358617E-06
4.571315E+03	9.088243E-05	4.253934E-06
4.581296E+03	8.971432E-05	4.196937E-06
4.591277E+03	8.969813E-05	4.193849E-06
4.601258E+03	9.096317E-05	4.250621E-06
4.611239E+03	9.361739E-05	4.372194E-06
4.621220E+03	9.774443E-05	4.562363E-06
4.631201E+03	1.034150E-04	4.824309E-06
4.641182E+03	1.106256E-04	5.157745E-06
4.651163E+03	1.192935E-04	5.558684E-06
4.661144E+03	1.292616E-04	6.019699E-06
4.671125E+03	1.402399E-04	6.527177E-06
4.681106E+03	1.518059E-04	7.061385E-06
4.691087E+03	1.634922E-04	7.600539E-06
4.701068E+03	1.747884E-04	8.120914E-06
4.711049E+03	1.852141E-04	8.600231E-06
4.721030E+03	1.944917E-04	9.025674E-06
4.731011E+03	2.025258E-04	9.392906E-06
4.740992E+03	2.093818E-04	9.705068E-06
4.750973E+03	2.153482E-04	9.975612E-06
4.760954E+03	2.208182E-04	1.022281E-05
4.770935E+03	2.262062E-04	1.046589E-05
4.780916E+03	2.318249E-04	1.071930E-05
4.790897E+03	2.377189E-04	1.098509E-05
4.800878E+03	2.437291E-04	1.125589E-05
4.810859E+03	2.496520E-04	1.152229E-05
4.820840E+03	2.552390E-04	1.177281E-05
4.830821E+03	2.602290E-04	1.199548E-05
4.840802E+03	2.644053E-04	1.218034E-05
4.850784E+03	2.675753E-04	1.231859E-05
4.860765E+03	2.696091E-04	1.240436E-05
4.870746E+03	2.705124E-04	1.243800E-05
4.880727E+03	2.703851E-04	1.242419E-05
4.890708E+03	2.693801E-04	1.237006E-05
4.900689E+03	2.676779E-04	1.228397E-05
4.910670E+03	2.654896E-04	1.217565E-05
4.920651E+03	2.630319E-04	1.205508E-05
4.930632E+03	2.605113E-04	1.193174E-05
4.940613E+03	2.580966E-04	1.181338E-05
4.950594E+03	2.558977E-04	1.170501E-05
4.960575E+03	2.539818E-04	1.160967E-05
4.970556E+03	2.523254E-04	1.152628E-05
4.980537E+03	2.508601E-04	1.145169E-05
4.990518E+03	2.495392E-04	1.138374E-05
5.000499E+03	2.482934E-04	1.131927E-05
5.010480E+03	2.470342E-04	1.125424E-05
5.020461E+03	2.457528E-04	1.118825E-05
5.030442E+03	2.444562E-04	1.112162E-05
5.040423E+03	2.431360E-04	1.105397E-05
5.050404E+03	2.418145E-04	1.098632E-05
5.060385E+03	2.405110E-04	1.091954E-05
5.070366E+03	2.392309E-04	1.085388E-05
5.080347E+03	2.379861E-04	1.078988E-05
5.090328E+03	2.367743E-04	1.072742E-05
5.100309E+03	2.355830E-04	1.066595E-05
5.110290E+03	2.344099E-04	1.060535E-05
5.120271E+03	2.332442E-04	1.054513E-05
5.130253E+03	2.320489E-04	1.048363E-05
5.140234E+03	2.308251E-04	1.042089E-05
5.150215E+03	2.295587E-04	1.035629E-05
5.160196E+03	2.282257E-04	1.028875E-05
5.170177E+03	2.268155E-04	1.021779E-05
5.180158E+03	2.253098E-04	1.014260E-05
5.190139E+03	2.236820E-04	1.006199E-05
5.200120E+03	2.219087E-04	9.974932E-06
5.210101E+03	2.199717E-04	9.880612E-06
5.220082E+03	2.178489E-04	9.778061E-06
5.230063E+03	2.155541E-04	9.667915E-06
5.240044E+03	2.131147E-04	9.551417E-06
5.250025E+03	2.105703E-04	9.430363E-06
5.260006E+03	2.079761E-04	9.307229E-06
5.269987E+03	2.054018E-04	9.185137E-06
5.279968E+03	2.029035E-04	9.066596E-06
5.289949E+03	2.005187E-04	8.953274E-06
5.299930E+03	1.982726E-04	8.846285E-06
5.309911E+03	1.961843E-04	8.746463E-06
5.319892E+03	1.942442E-04	8.653366E-06
5.329873E+03	1.924339E-04	8.566169E-06
5.339854E+03	1.907210E-04	8.483407E-06
5.349835E+03	1.890503E-04	8.402622E-06
5.359816E+03	1.873504E-04	8.320637E-06
5.369797E+03	1.855527E-04	8.234414E-06
5.379778E+03	1.835685E-04	8.140033E-06
5.389759E+03	1.813351E-04	8.034730E-06
5.399740E+03	1.788226E-04	7.917211E-06
5.409722E+03	1.760154E-04	7.786818E-06
5.419703E+03	1.729647E-04	7.645839E-06
5.429684E+03	1.697784E-04	7.499070E-06
5.439665E+03	1.665681E-04	7.351454E-06
5.449646E+03	1.635273E-04	7.211527E-06
5.459627E+03	1.609403E-04	7.091797E-06
5.469608E+03	1.590646E-04	7.003552E-06
5.479589E+03	1.581461E-04	6.957545E-06
5.489570E+03	1.582931E-04	6.958427E-06
5.499551E+03	1.593288E-04	6.998327E-06
5.509532E+03	1.609606E-04	7.064300E-06
5.519513E+03	1.628976E-04	7.143538E-06
5.529494E+03	1.648834E-04	7.224761E-06
5.539475E+03	1.667222E-04	7.299404E-06
5.549456E+03	1.682803E-04	7.361621E-06
5.559437E+03	1.694521E-04	7.406837E-06
5.569418E+03	1.701939E-04	7.433175E-06
5.579399E+03	1.705162E-04	7.441150E-06
5.589380E+03	1.704682E-04	7.432945E-06
5.599361E+03	1.701474E-04	7.412847E-06
5.609342E+03	1.697034E-04	7.387407E-06
5.619323E+03	1.693095E-04	7.364165E-06
5.629304E+03	1.691407E-04	7.350730E-06
5.639285E+03	1.693603E-04	7.354166E-06
5.649266E+03	1.700980E-04	7.380062E-06
5.659247E+03	1.714256E-04	7.431465E-06
5.669228E+03	1.733479E-04	7.508528E-06
5.679210E+03	1.758196E-04	7.609225E-06
5.689191E+03	1.787212E-04	7.728326E-06
5.699172E+03	1.818778E-04	7.858226E-06
5.709153E+03	1.851189E-04	7.991545E-06
5.719134E+03	1.882482E-04	8.119799E-06
5.729115E+03	1.910731E-04	8.234703E-06
5.739096E+03	1.934476E-04	8.330005E-06
5.749077E+03	1.952579E-04	8.400859E-06
5.759058E+03	1.964272E-04	8.444020E-06
5.769039E+03	1.969348E-04	8.458672E-06
5.779020E+03	1.967902E-04	8.445294E-06
5.789001E+03	1.960261E-04	8.405367E-06
5.798982E+03	1.947021E-04	8.341502E-06
5.808963E+03	1.928631E-04	8.255691E-06
5.818944E+03	1.905423E-04	8.149406E-06
5.828925E+03	1.877604E-04	8.023587E-06
5.838906E+03	1.845182E-04	7.878318E-06
5.848887E+03	1.808197E-04	7.713820E-06
5.858868E+03	1.766985E-04	7.531576E-06
5.868849E+03	1.721985E-04	7.333503E-06
5.878830E+03	1.673592E-04	7.121320E-06
5.888811E+03	1.622481E-04	6.897940E-06
5.898792E+03	1.569235E-04	6.665866E-06
5.908773E+03	1.514244E-04	6.426774E-06
5.918754E+03	1.457894E-04	6.182322E-06
5.928735E+03	1.400469E-04	5.933728E-06
5.938716E+03	1.342278E-04	5.682317E-06
5.948697E+03	1.283771E-04	5.429990E-06
5.958679E+03	1.225491E-04	5.179054E-06
5.968660E+03	1.167986E-04	4.931813E-06
5.978641E+03	1.111845E-04	4.690748E-06
5.988622E+03	1.057636E-04	4.458238E-06
5.998603E+03	1.005982E-04	4.236882E-06
6.008584E+03	9.573347E-05	4.028559E-06
6.018565E+03	9.122472E-05	3.835556E-06
6.028546E+03	8.714068E-05	3.660723E-06
6.038527E+03	8.355722E-05	3.507199E-06
6.048508E+03	8.056098E-05	3.378564E-06
6.058489E+03	7.824269E-05	3.278555E-06
6.068470E+03	7.670150E-05	3.211251E-06
6.078451E+03	7.603008E-05	3.180446E-06
6.088432E+03	7.633207E-05	3.190381E-06
6.098413E+03	7.773116E-05	3.246115E-06
6.108394E+03	8.034614E-05	3.352492E-06
6.118375E+03	8.430457E-05	3.514701E-06
6.128356E+03	8.979442E-05	3.740434E-06
6.138337E+03	9.700282E-05	4.037318E-06
6.148318E+03	1.061223E-04	4.413185E-06
6.158299E+03	1.174272E-04	4.879234E-06
6.168280E+03	1.311270E-04	5.443944E-06
6.178261E+03	1.473083E-04	6.110657E-06
6.188242E+03	1.659993E-04	6.880299E-06
6.198223E+03	1.868448E-04	7.737900E-06
6.208204E+03	2.089143E-04	8.644751E-06
6.218185E+03	2.309691E-04	9.549522E-06
6.228166E+03	2.516023E-04	1.039410E-05
6.238148E+03	2.697240E-04	1.113364E-05
6.248129E+03	2.851691E-04	1.176161E-05
6.258110E+03	2.983851E-04	1.229673E-05
6.268091E+03	3.099943E-04	1.276484E-05
6.278072E+03	3.206141E-04	1.319153E-05
6.288053E+03	3.305552E-04	1.358965E-05
6.298034E+03	3.397780E-04	1.395767E-05
6.308015E+03	3.480577E-04	1.428644E-05
6.317996E+03	3.550842E-04	1.456333E-05
6.327977E+03	3.605688E-04	1.477663E-05
6.337958E+03	3.642918E-04	1.491751E-05
6.347939E+03	3.662291E-04	1.498515E-05
6.357920E+03	3.665599E-04	1.498706E-05
6.367901E+03	3.654818E-04	1.493145E-05
6.377882E+03	3.633179E-04	1.483166E-05
6.387863E+03	3.604342E-04	1.470272E-05
6.397844E+03	3.570374E-04	1.455311E-05
6.407825E+03	3.532648E-04	1.438848E-05
6.417806E+03	3.492213E-04	1.421314E-05
6.427787E+03	3.448641E-04	1.402535E-05
6.437768E+03	3.400872E-04	1.382085E-05
6.447749E+03	3.347906E-04	1.359561E-05
6.457730E+03	3.289209E-04	1.334751E-05
6.467711E+03	3.225150E-04	1.307809E-05
6.477692E+03	3.157519E-04	1.279465E-05
6.487673E+03	3.090622E-04	1.251464E-05
6.497654E+03	3.030351E-04	1.226191E-05
6.507635E+03	2.983388E-04	1.206341E-05
6.517617E+03	2.955471E-04	1.194220E-05
6.527598E+03	2.947184E-04	1.190049E-05
6.537579E+03	2.953454E-04	1.191762E-05
6.547560E+03	2.967217E-04	1.196501E-05
6.557541E+03	2.981758E-04	1.201553E-05
6.567522E+03	2.991711E-04	1.204756E-05
6.577503E+03	2.993991E-04	1.204872E-05
6.587484E+03	2.987301E-04	1.201387E-05
6.597465E+03	2.971497E-04	1.194249E-05
6.607446E+03	2.947349E-04	1.183775E-05
6.617427E+03	2.916214E-04	1.170515E-05
6.627408E+03	2.879442E-04	1.155017E-05
6.637389E+03	2.838444E-04	1.137850E-05
6.647370E+03	2.794268E-04	1.119437E-05
6.657351E+03	2.747837E-04	1.100149E-05
6.667332E+03	2.699870E-04	1.080275E-05
6.677313E+03	2.650881E-04	1.060023E-05
6.687294E+03	2.601255E-04	1.039546E-05
6.697275E+03	2.551328E-04	1.018977E-05
6.707256E+03	2.501456E-04	9.984607E-06
6.717237E+03	2.451904E-04	9.781008E-06
6.727218E+03	2.402989E-04	9.580230E-06
6.737199E+03	2.354895E-04	9.383005E-06
6.747180E+03	2.307993E-04	9.190802E-06
6.757161E+03	2.262475E-04	9.004365E-06
6.767142E+03	2.218710E-04	8.825159E-06
6.777123E+03	2.176919E-04	8.654045E-06
6.787105E+03	2.137420E-04	8.492266E-06
6.797086E+03	2.100454E-04	8.340764E-06
6.807067E+03	2.066152E-04	8.200041E-06
6.817048E+03	2.034610E-04	8.070458E-06
6.827029E+03	2.005730E-04	7.951605E-06
6.837010E+03	1.979371E-04	7.842905E-06
6.846991E+03	1.955155E-04	7.742842E-06
6.856972E+03	1.932755E-04	7.650107E-06
6.866953E+03	1.911658E-04	7.562665E-06
6.876934E+03	1.891335E-04	7.478401E-06
6.886915E+03	1.871209E-04	7.395041E-06
6.896896E+03	1.850854E-04	7.310896E-06
6.906877E+03	1.829728E-04	7.223822E-06
6.916858E+03	1.807624E-04	7.133011E-06
6.926839E+03	1.784310E-04	7.037553E-06
6.936820E+03	1.759768E-04	6.937378E-06
6.946801E+03	1.734178E-04	6.833201E-06
6.956782E+03	1.707789E-04	6.726010E-06
6.966763E+03	1.680961E-04	6.617226E-06
6.976744E+03	1.654112E-04	6.508492E-06
6.986725E+03	1.627678E-04	6.401524E-06
6.996706E+03	1.602057E-04	6.297878E-06
7.006687E+03	1.577561E-04	6.198779E-06
7.016668E+03	1.554534E-04	6.105569E-06
7.026649E+03	1.533076E-04	6.018629E-06
7.036630E+03	1.513401E-04	5.938795E-06
7.046611E+03	1.495482E-04	5.865943E-06
7.056592E+03	1.479383E-04	5.800323E-06
7.066574E+03	1.465044E-04	5.741681E-06
7.076555E+03	1.452402E-04	5.689768E-06
7.086536E+03	1.441394E-04	5.644327E-06
7.096517E+03	1.431853E-04	5.604690E-06
7.106498E+03	1.423681E-04	5.570473E-06
7.116479E+03	1.416703E-04	5.540983E-06
7.126460E+03	1.410790E-04	5.515707E-06
7.136441E+03	1.405771E-04	5.493974E-06
7.146422E+03	1.401438E-04	5.474970E-06
7.156403E+03	1.397648E-04	5.458126E-06
7.166384E+03	1.394190E-04	5.442624E-06
7.176365E+03	1.390990E-04	5.428167E-06
7.186346E+03	1.387920E-04	5.414259E-06
7.196327E+03	1.384884E-04	5.400525E-06
7.206308E+03	1.381862E-04	5.386884E-06
7.216289E+03	1.378820E-04	5.373209E-06
7.226270E+03	1.375709E-04	5.359303E-06
7.236251E+03	1.372500E-04	5.345056E-06
7.246232E+03	1.369179E-04	5.330412E-06
7.256213E+03	1.365756E-04	5.315417E-06
7.266194E+03	1.362264E-04	5.300190E-06
7.276175E+03	1.358710E-04	5.284767E-06
7.286156E+03	1.355244E-04	5.269730E-06
7.296137E+03	1.351942E-04	5.255367E-06
7.306118E+03	1.348881E-04	5.241987E-06
7.316099E+03	1.346189E-04	5.230082E-06
7.326080E+03	1.343873E-04	5.219675E-06
7.336061E+03	1.341963E-04	5.210887E-06
7.346043E+03	1.340451E-04	5.203684E-06
7.356024E+03	1.339248E-04	5.197717E-06
7.366005E+03	1.338283E-04	5.192711E-06
7.375986E+03	1.337337E-04	5.187822E-06
7.385967E+03	1.336298E-04	5.182607E-06
7.395948E+03	1.334927E-04	5.176143E-06
7.405929E+03	1.333074E-04	5.167853E-06
7.415910E+03	1.330540E-04	5.156968E-06
7.425891E+03	1.327200E-04	5.142995E-06
7.435872E+03	1.323022E-04	5.125826E-06
7.445853E+03	1.318002E-04	5.105437E-06
7.455834E+03	1.312319E-04	5.082528E-06
7.465815E+03	1.306068E-04	5.057468E-06
7.475796E+03	1.299482E-04	5.031158E-06
7.485777E+03	1.292701E-04	5.004142E-06
7.495758E+03	1.285941E-04	4.977254E-06
7.505739E+03	1.279249E-04	4.950681E-06
7.515720E+03	1.272663E-04	4.924564E-06
7.525701E+03	1.266239E-04	4.899122E-06
7.535682E+03	1.260030E-04	4.874561E-06
7.545663E+03	1.254202E-04	4.851520E-06
7.555644E+03	1.248886E-04	4.830505E-06
7.565625E+03	1.244381E-04	4.812675E-06
7.575606E+03	1.241051E-04	4.799437E-06
7.585587E+03	1.239153E-04	4.791777E-06
7.595568E+03	1.238637E-04	4.789511E-06
7.605549E+03	1.239030E-04	4.790802E-06
7.615530E+03	1.240314E-04	4.795582E-06
7.625512E+03	1.242134E-04	4.802482E-06
7.635493E+03	1.243970E-04	4.809488E-06
7.645474E+03	1.245259E-04	4.814430E-06
7.655455E+03	1.245767E-04	4.816397E-06
7.665436E+03	1.245353E-04	4.814850E-06
7.675417E+03	1.244130E-04	4.810221E-06
7.685398E+03	1.242185E-04	4.802851E-06
7.695379E+03	1.239630E-04	4.793174E-06
7.705360E+03	1.236526E-04	4.781422E-06
7.715341E+03	1.232865E-04	4.767566E-06
7.725322E+03	1.228587E-04	4.751371E-06
7.735303E+03	1.223586E-04	4.732434E-06
7.745284E+03	1.217860E-04	4.710739E-06
