#wls	flux	fluxerr
1.596966E+03	4.125416E-04	2.813730E-05
1.636890E+03	4.322886E-04	2.925505E-05
1.676814E+03	4.540661E-04	3.048347E-05
1.716738E+03	4.780134E-04	3.182782E-05
1.756662E+03	5.044525E-04	3.330495E-05
1.796586E+03	5.335143E-04	3.491833E-05
1.836511E+03	5.653853E-04	3.667457E-05
1.876435E+03	6.002767E-04	3.858124E-05
1.916359E+03	6.380642E-04	4.062384E-05
1.956283E+03	6.785364E-04	4.278247E-05
1.996207E+03	7.210541E-04	4.501090E-05
2.036131E+03	7.647672E-04	4.725125E-05
2.076055E+03	8.085444E-04	4.943056E-05
2.115980E+03	8.515650E-04	5.149756E-05
2.155904E+03	8.933375E-04	5.342286E-05
2.195828E+03	9.335786E-04	5.519078E-05
2.235752E+03	9.721940E-04	5.679757E-05
2.275676E+03	1.009173E-03	5.824467E-05
2.315600E+03	1.044358E-03	5.952537E-05
2.355525E+03	1.077710E-03	6.064004E-05
2.395449E+03	1.108495E-03	6.155098E-05
2.435373E+03	1.135284E-03	6.218464E-05
2.475297E+03	1.156170E-03	6.244612E-05
2.515221E+03	1.168905E-03	6.222878E-05
2.555145E+03	1.173124E-03	6.153204E-05
2.595069E+03	1.173548E-03	6.061992E-05
2.634994E+03	1.179117E-03	5.995629E-05
2.674918E+03	1.188980E-03	5.948606E-05
2.714842E+03	1.196224E-03	5.885861E-05
2.754766E+03	1.199534E-03	5.801691E-05
2.794690E+03	1.201804E-03	5.710855E-05
2.834614E+03	1.207163E-03	5.632919E-05
2.874538E+03	1.219786E-03	5.586235E-05
2.914463E+03	1.243641E-03	5.586753E-05
2.954387E+03	1.282677E-03	5.648911E-05
2.994311E+03	1.340951E-03	5.786158E-05
3.004292E+03	1.359051E-03	5.833852E-05
3.014273E+03	1.378648E-03	5.887067E-05
3.024254E+03	1.399863E-03	5.946212E-05
3.034235E+03	1.422716E-03	6.011270E-05
3.044216E+03	1.447291E-03	6.082471E-05
3.054197E+03	1.473665E-03	6.160023E-05
3.064178E+03	1.501814E-03	6.243707E-05
3.074159E+03	1.531865E-03	6.333919E-05
3.084140E+03	1.563774E-03	6.430352E-05
3.094121E+03	1.597611E-03	6.533161E-05
3.104102E+03	1.633335E-03	6.642043E-05
3.114083E+03	1.670912E-03	6.756736E-05
3.124064E+03	1.710352E-03	6.877147E-05
3.134045E+03	1.751501E-03	7.002534E-05
3.144026E+03	1.794339E-03	7.132695E-05
3.154007E+03	1.838604E-03	7.266477E-05
3.163988E+03	1.884192E-03	7.403372E-05
3.173969E+03	1.930780E-03	7.542029E-05
3.183950E+03	1.978134E-03	7.681463E-05
3.193932E+03	2.025861E-03	7.820108E-05
3.203913E+03	2.073589E-03	7.956507E-05
3.213894E+03	2.120866E-03	8.088941E-05
3.223875E+03	2.167206E-03	8.215592E-05
3.233856E+03	2.212065E-03	8.334479E-05
3.243837E+03	2.255010E-03	8.444083E-05
3.253818E+03	2.295523E-03	8.542610E-05
3.263799E+03	2.333209E-03	8.628773E-05
3.273780E+03	2.367676E-03	8.701327E-05
3.283761E+03	2.398656E-03	8.759520E-05
3.293742E+03	2.426010E-03	8.803094E-05
3.303723E+03	2.449605E-03	8.831827E-05
3.309000E+03	1.487408E-03	5.344449E-05
3.313680E+03	1.477905E-03	5.294203E-05
3.318360E+03	1.511352E-03	5.397554E-05
3.323030E+03	1.584958E-03	5.643195E-05
3.327710E+03	1.705490E-03	6.053767E-05
3.332390E+03	1.606553E-03	5.685075E-05
3.337060E+03	1.766808E-03	6.232963E-05
3.341740E+03	1.731951E-03	6.091123E-05
3.346420E+03	1.625030E-03	5.697382E-05
3.351100E+03	1.694893E-03	5.923859E-05
3.355770E+03	1.688770E-03	5.884097E-05
3.360450E+03	1.784114E-03	6.196861E-05
3.365130E+03	1.746977E-03	6.048843E-05
3.369800E+03	1.746660E-03	6.028760E-05
3.374480E+03	1.715422E-03	5.902254E-05
3.379160E+03	1.750244E-03	6.003011E-05
3.383830E+03	1.805151E-03	6.171719E-05
3.388510E+03	1.776562E-03	6.054635E-05
3.393190E+03	1.789356E-03	6.078763E-05
3.397870E+03	1.803624E-03	6.107609E-05
3.402540E+03	1.791689E-03	6.047741E-05
3.407220E+03	1.811283E-03	6.094181E-05
3.411900E+03	1.845046E-03	6.187716E-05
3.416570E+03	1.856549E-03	6.206161E-05
3.421250E+03	1.818354E-03	6.058720E-05
3.425930E+03	1.818693E-03	6.040094E-05
3.430600E+03	1.815245E-03	6.008974E-05
3.435280E+03	1.786196E-03	5.893423E-05
3.439960E+03	1.762901E-03	5.797432E-05
3.444640E+03	1.763232E-03	5.779396E-05
3.449310E+03	1.740382E-03	5.685674E-05
3.453990E+03	1.683589E-03	5.481890E-05
3.458671E+03	1.636741E-03	5.311622E-05
3.463340E+03	1.587275E-03	5.133952E-05
3.468020E+03	1.562095E-03	5.035607E-05
3.472700E+03	1.535987E-03	4.934834E-05
3.477380E+03	1.500033E-03	4.803108E-05
3.482050E+03	1.455955E-03	4.646277E-05
3.486730E+03	1.438419E-03	4.574788E-05
3.491410E+03	1.429640E-03	4.531448E-05
3.496079E+03	1.389378E-03	4.388886E-05
3.500760E+03	1.371170E-03	4.316599E-05
3.505440E+03	1.365527E-03	4.284134E-05
3.510110E+03	1.353984E-03	4.233384E-05
3.514790E+03	1.351574E-03	4.211321E-05
3.519470E+03	1.342430E-03	4.168413E-05
3.524150E+03	1.306659E-03	4.043317E-05
3.528820E+03	1.316386E-03	4.059331E-05
3.533500E+03	1.330596E-03	4.088896E-05
3.538180E+03	1.336164E-03	4.091703E-05
3.542850E+03	1.357103E-03	4.141344E-05
3.547530E+03	1.356079E-03	4.123731E-05
3.552210E+03	1.352161E-03	4.097386E-05
3.556890E+03	1.354982E-03	4.091485E-05
3.561560E+03	1.361607E-03	4.097015E-05
3.566240E+03	1.370009E-03	4.107713E-05
3.570920E+03	1.367061E-03	4.084335E-05
3.575590E+03	1.381220E-03	4.111995E-05
3.580270E+03	1.398110E-03	4.147436E-05
3.584950E+03	1.421208E-03	4.200886E-05
3.589620E+03	1.427621E-03	4.204748E-05
3.594300E+03	1.453759E-03	4.266343E-05
3.598980E+03	1.464488E-03	4.282342E-05
3.603660E+03	1.455271E-03	4.240012E-05
3.608330E+03	1.452952E-03	4.217949E-05
3.613010E+03	1.459789E-03	4.222399E-05
3.617690E+03	1.453322E-03	4.188378E-05
3.622360E+03	1.437212E-03	4.126853E-05
3.627040E+03	1.399065E-03	4.002598E-05
3.631720E+03	1.363863E-03	3.887555E-05
3.636390E+03	1.336812E-03	3.796441E-05
3.641070E+03	1.302105E-03	3.684215E-05
3.645750E+03	1.254620E-03	3.536709E-05
3.650430E+03	1.211711E-03	3.403059E-05
3.655100E+03	1.156776E-03	3.236699E-05
3.659780E+03	1.095766E-03	3.054534E-05
3.664461E+03	1.027178E-03	2.852612E-05
3.669130E+03	9.562489E-04	2.645677E-05
3.673810E+03	8.906971E-04	2.455026E-05
3.678490E+03	8.447253E-04	2.319515E-05
3.683160E+03	7.954505E-04	2.175952E-05
3.687840E+03	7.639448E-04	2.081825E-05
3.692520E+03	7.297879E-04	1.981163E-05
3.697200E+03	7.000431E-04	1.893149E-05
3.701869E+03	6.964994E-04	1.876360E-05
3.706551E+03	7.018778E-04	1.883577E-05
3.711230E+03	7.034967E-04	1.880642E-05
3.715900E+03	7.211250E-04	1.920327E-05
3.720580E+03	7.390307E-04	1.960374E-05
3.725260E+03	7.661211E-04	2.024328E-05
3.729940E+03	8.003283E-04	2.106462E-05
3.734610E+03	8.328546E-04	2.183511E-05
3.739290E+03	8.732789E-04	2.280505E-05
3.743970E+03	9.254894E-04	2.407334E-05
3.748640E+03	9.760450E-04	2.528836E-05
3.753320E+03	1.046172E-03	2.699795E-05
3.758000E+03	1.112878E-03	2.860531E-05
3.762670E+03	1.174843E-03	3.007803E-05
3.767350E+03	1.246648E-03	3.178886E-05
3.772030E+03	1.324882E-03	3.364841E-05
3.776710E+03	1.405042E-03	3.554082E-05
3.781380E+03	1.515641E-03	3.818426E-05
3.786059E+03	1.639763E-03	4.114436E-05
3.790740E+03	1.770873E-03	4.425395E-05
3.795410E+03	1.921169E-03	4.781503E-05
3.800090E+03	2.071368E-03	5.134299E-05
3.804770E+03	2.230880E-03	5.507063E-05
3.809440E+03	2.405731E-03	5.914385E-05
3.814120E+03	2.577512E-03	6.310627E-05
3.818800E+03	2.743542E-03	6.689410E-05
3.823480E+03	2.900029E-03	7.041699E-05
3.828150E+03	3.051707E-03	7.379315E-05
3.832830E+03	3.186941E-03	7.674247E-05
3.837510E+03	3.309073E-03	7.935083E-05
3.842180E+03	3.402461E-03	8.124940E-05
3.846860E+03	3.482008E-03	8.279988E-05
3.851540E+03	3.552800E-03	8.412759E-05
3.856220E+03	3.612937E-03	8.519037E-05
3.860890E+03	3.659683E-03	8.592803E-05
3.865570E+03	3.700138E-03	8.650903E-05
3.870251E+03	3.725045E-03	8.672054E-05
3.874920E+03	3.735208E-03	8.658676E-05
3.879600E+03	3.731388E-03	8.612790E-05
3.884280E+03	3.723636E-03	8.558001E-05
3.888950E+03	3.721580E-03	8.516535E-05
3.893630E+03	3.716648E-03	8.468540E-05
3.898310E+03	3.724451E-03	8.449595E-05
3.902990E+03	3.759771E-03	8.492714E-05
3.907660E+03	3.788955E-03	8.521482E-05
3.912340E+03	3.809893E-03	8.531206E-05
3.917020E+03	3.837409E-03	8.555248E-05
3.921690E+03	3.866571E-03	8.582552E-05
3.926370E+03	3.907853E-03	8.636063E-05
3.931050E+03	3.966804E-03	8.727717E-05
3.935720E+03	4.026930E-03	8.820959E-05
3.940400E+03	4.087150E-03	8.913234E-05
3.945080E+03	4.142255E-03	8.993320E-05
3.949760E+03	4.186367E-03	9.048663E-05
3.954430E+03	4.235511E-03	9.114166E-05
3.959110E+03	4.286857E-03	9.183436E-05
3.963790E+03	4.321058E-03	9.215248E-05
3.968460E+03	4.346155E-03	9.227260E-05
3.973140E+03	4.367673E-03	9.231238E-05
3.977820E+03	4.380146E-03	9.215876E-05
3.982500E+03	4.364754E-03	9.142016E-05
3.987170E+03	4.335363E-03	9.039452E-05
3.991849E+03	4.290989E-03	8.906373E-05
3.996530E+03	4.238554E-03	8.757576E-05
4.001200E+03	4.170969E-03	8.578797E-05
4.005880E+03	4.109703E-03	8.414250E-05
4.010560E+03	4.040486E-03	8.234755E-05
4.015230E+03	3.963717E-03	8.041421E-05
4.019910E+03	3.881436E-03	7.838415E-05
4.024590E+03	3.789978E-03	7.618598E-05
4.029270E+03	3.705231E-03	7.414012E-05
4.033940E+03	3.618766E-03	7.207756E-05
4.038620E+03	3.528216E-03	6.995019E-05
4.043300E+03	3.443672E-03	6.795903E-05
4.047970E+03	3.372474E-03	6.624722E-05
4.052650E+03	3.303875E-03	6.459958E-05
4.057330E+03	3.225943E-03	6.278385E-05
4.062000E+03	3.136517E-03	6.076121E-05
4.066680E+03	3.045996E-03	5.873400E-05
4.071360E+03	2.966097E-03	5.692796E-05
4.076041E+03	2.883169E-03	5.507938E-05
4.080710E+03	2.801434E-03	5.326987E-05
4.085390E+03	2.732202E-03	5.171192E-05
4.090070E+03	2.653902E-03	4.999638E-05
4.094740E+03	2.566762E-03	4.813034E-05
4.099420E+03	2.496667E-03	4.659819E-05
4.104100E+03	2.427606E-03	4.509844E-05
4.108770E+03	2.367190E-03	4.377195E-05
4.113450E+03	2.315223E-03	4.261190E-05
4.118130E+03	2.272058E-03	4.162308E-05
4.122810E+03	2.242777E-03	4.089572E-05
4.127480E+03	2.225757E-03	4.039727E-05
4.132160E+03	2.228091E-03	4.025194E-05
4.136840E+03	2.251360E-03	4.048370E-05
4.141510E+03	2.281791E-03	4.084123E-05
4.146190E+03	2.326274E-03	4.144474E-05
4.150870E+03	2.376326E-03	4.214080E-05
4.155550E+03	2.448196E-03	4.321495E-05
4.160220E+03	2.525489E-03	4.437437E-05
4.164900E+03	2.608536E-03	4.562275E-05
4.169580E+03	2.691420E-03	4.685628E-05
4.174250E+03	2.782326E-03	4.821747E-05
4.178930E+03	2.875567E-03	4.960556E-05
4.183610E+03	2.957071E-03	5.077899E-05
4.188280E+03	3.036753E-03	5.191066E-05
4.192960E+03	3.116837E-03	5.303804E-05
4.197639E+03	3.187881E-03	5.400181E-05
4.202320E+03	3.252641E-03	5.485057E-05
4.206990E+03	3.309627E-03	5.556146E-05
4.211670E+03	3.361361E-03	5.617753E-05
4.216350E+03	3.411639E-03	5.676375E-05
4.221020E+03	3.458298E-03	5.728528E-05
4.225700E+03	3.499461E-03	5.771104E-05
4.230380E+03	3.540771E-03	5.813550E-05
4.235060E+03	3.574777E-03	5.843701E-05
4.239730E+03	3.591312E-03	5.845232E-05
4.244410E+03	3.597248E-03	5.829544E-05
4.249090E+03	3.606547E-03	5.819452E-05
4.253760E+03	3.597643E-03	5.780296E-05
4.258440E+03	3.587827E-03	5.740012E-05
4.263120E+03	3.561775E-03	5.674261E-05
4.267790E+03	3.518978E-03	5.582614E-05
4.272470E+03	3.474486E-03	5.489074E-05
4.277150E+03	3.430763E-03	5.397597E-05
4.281831E+03	3.388112E-03	5.308636E-05
4.286500E+03	3.337722E-03	5.208465E-05
4.291180E+03	3.280217E-03	5.098093E-05
4.295860E+03	3.223527E-03	4.989969E-05
4.300530E+03	3.164032E-03	4.878529E-05
4.305210E+03	3.109570E-03	4.775766E-05
4.309890E+03	3.061632E-03	4.683902E-05
4.314560E+03	3.023501E-03	4.607854E-05
4.319240E+03	2.980575E-03	4.525194E-05
4.323920E+03	2.948528E-03	4.459751E-05
4.328600E+03	2.923356E-03	4.405289E-05
4.333270E+03	2.906135E-03	4.363344E-05
4.337950E+03	2.904217E-03	4.344713E-05
4.342630E+03	2.896417E-03	4.317604E-05
4.347300E+03	2.891387E-03	4.294996E-05
4.351980E+03	2.900763E-03	4.294006E-05
4.356660E+03	2.913860E-03	4.298688E-05
4.361340E+03	2.926054E-03	4.302194E-05
4.366010E+03	2.939453E-03	4.307666E-05
4.370690E+03	2.963263E-03	4.328473E-05
4.375370E+03	2.993125E-03	4.358163E-05
4.380040E+03	3.024064E-03	4.389472E-05
4.384720E+03	3.051080E-03	4.415099E-05
4.389400E+03	3.084425E-03	4.449922E-05
4.394070E+03	3.116208E-03	4.482541E-05
4.398750E+03	3.152524E-03	4.521666E-05
4.403430E+03	3.185810E-03	4.556458E-05
4.408110E+03	3.222750E-03	4.596496E-05
4.412780E+03	3.258129E-03	4.634345E-05
4.417460E+03	3.295975E-03	4.675690E-05
4.422140E+03	3.341769E-03	4.728291E-05
4.426810E+03	3.385117E-03	4.777425E-05
4.431490E+03	3.427157E-03	4.824673E-05
4.436170E+03	3.471925E-03	4.875751E-05
4.440840E+03	3.513980E-03	4.923035E-05
4.445521E+03	3.557313E-03	4.972089E-05
4.450200E+03	3.597650E-03	5.016970E-05
4.454880E+03	3.635862E-03	5.058920E-05
4.459550E+03	3.671973E-03	5.098021E-05
4.464230E+03	3.702563E-03	5.129508E-05
4.468910E+03	3.711518E-03	5.131178E-05
4.473580E+03	3.714807E-03	5.125269E-05
4.478260E+03	3.709610E-03	5.107895E-05
4.482940E+03	3.697110E-03	5.080769E-05
4.487620E+03	3.673967E-03	5.039361E-05
4.492290E+03	3.634066E-03	4.975387E-05
4.496970E+03	3.583637E-03	4.897438E-05
4.501650E+03	3.526948E-03	4.811420E-05
4.506320E+03	3.459847E-03	4.711725E-05
4.511000E+03	3.379290E-03	4.594237E-05
4.515680E+03	3.298734E-03	4.477309E-05
4.520350E+03	3.214572E-03	4.356052E-05
4.525030E+03	3.125410E-03	4.228553E-05
4.529710E+03	3.034888E-03	4.099759E-05
4.534390E+03	2.941075E-03	3.967051E-05
4.539060E+03	2.851180E-03	3.840155E-05
4.543740E+03	2.758129E-03	3.709491E-05
4.548420E+03	2.659769E-03	3.572179E-05
4.553090E+03	2.559626E-03	3.432974E-05
4.557770E+03	2.462167E-03	3.297828E-05
4.562450E+03	2.373009E-03	3.174235E-05
4.567119E+03	2.281961E-03	3.048532E-05
4.571800E+03	2.187239E-03	2.918316E-05
4.576480E+03	2.095909E-03	2.793016E-05
4.581160E+03	2.012777E-03	2.678998E-05
4.585830E+03	1.933130E-03	2.569955E-05
4.590510E+03	1.855933E-03	2.464469E-05
4.595190E+03	1.786957E-03	2.370181E-05
4.599860E+03	1.732425E-03	2.295295E-05
4.604540E+03	1.692043E-03	2.239340E-05
4.609219E+03	1.667588E-03	2.204603E-05
4.613900E+03	1.657180E-03	2.188530E-05
4.618570E+03	1.660574E-03	2.190740E-05
4.623250E+03	1.686702E-03	2.222935E-05
4.627930E+03	1.729484E-03	2.277024E-05
4.632600E+03	1.789762E-03	2.354054E-05
4.637280E+03	1.867773E-03	2.454258E-05
4.641960E+03	1.961039E-03	2.574324E-05
4.646630E+03	2.064246E-03	2.707232E-05
4.651311E+03	2.172466E-03	2.846479E-05
4.655990E+03	2.289037E-03	2.996424E-05
4.660670E+03	2.406167E-03	3.146850E-05
4.665340E+03	2.516968E-03	3.288760E-05
4.670020E+03	2.617373E-03	3.416859E-05
4.674700E+03	2.713441E-03	3.539092E-05
4.679370E+03	2.804541E-03	3.654658E-05
4.684050E+03	2.886431E-03	3.758040E-05
4.688730E+03	2.957315E-03	3.846936E-05
4.693401E+03	3.019353E-03	3.924201E-05
4.698080E+03	3.070728E-03	3.987487E-05
4.702760E+03	3.113066E-03	4.038944E-05
4.707440E+03	3.151122E-03	4.084766E-05
4.712110E+03	3.188064E-03	4.129076E-05
4.716790E+03	3.216561E-03	4.162373E-05
4.721470E+03	3.240050E-03	4.189134E-05
4.726140E+03	3.268468E-03	4.222217E-05
4.730820E+03	3.292664E-03	4.249778E-05
4.735500E+03	3.313186E-03	4.272542E-05
4.740170E+03	3.332395E-03	4.293568E-05
4.744850E+03	3.344831E-03	4.305815E-05
4.749530E+03	3.362447E-03	4.324684E-05
4.754210E+03	3.373322E-03	4.334835E-05
4.758880E+03	3.380590E-03	4.340323E-05
4.763560E+03	3.387348E-03	4.345112E-05
4.768240E+03	3.394635E-03	4.350543E-05
4.772910E+03	3.399370E-03	4.352676E-05
4.777590E+03	3.398459E-03	4.347541E-05
4.782270E+03	3.396554E-03	4.341111E-05
4.786950E+03	3.400846E-03	4.342569E-05
4.791620E+03	3.409782E-03	4.349921E-05
4.796300E+03	3.423332E-03	4.363090E-05
4.800980E+03	3.440466E-03	4.380756E-05
4.805650E+03	3.465524E-03	4.408434E-05
4.810330E+03	3.493616E-03	4.439859E-05
4.815009E+03	3.521427E-03	4.470819E-05
4.819680E+03	3.549476E-03	4.501976E-05
4.824360E+03	3.585635E-03	4.543278E-05
4.829040E+03	3.632679E-03	4.598216E-05
4.833720E+03	3.675855E-03	4.648087E-05
4.838390E+03	3.710115E-03	4.686532E-05
4.843070E+03	3.746868E-03	4.727961E-05
4.847750E+03	3.779031E-03	4.763441E-05
4.852420E+03	3.806123E-03	4.792388E-05
4.857100E+03	3.834455E-03	4.822740E-05
4.861780E+03	3.855456E-03	4.843725E-05
4.866460E+03	3.870659E-03	4.857296E-05
4.871130E+03	3.879838E-03	4.863203E-05
4.875810E+03	3.881736E-03	4.859872E-05
4.880490E+03	3.873616E-03	4.843921E-05
4.885160E+03	3.861289E-03	4.822664E-05
4.889840E+03	3.840987E-03	4.791394E-05
4.894520E+03	3.810984E-03	4.748009E-05
4.899190E+03	3.778826E-03	4.701956E-05
4.903870E+03	3.739497E-03	4.646989E-05
4.908550E+03	3.697274E-03	4.588462E-05
4.913230E+03	3.658157E-03	4.533829E-05
4.917900E+03	3.619647E-03	4.479995E-05
4.922580E+03	3.577988E-03	4.422290E-05
4.927260E+03	3.537428E-03	4.365990E-05
4.931930E+03	3.499714E-03	4.313255E-05
4.936610E+03	3.465321E-03	4.264633E-05
4.941290E+03	3.435241E-03	4.221340E-05
4.945960E+03	3.409966E-03	4.183968E-05
4.950640E+03	3.389719E-03	4.152740E-05
4.955320E+03	3.374991E-03	4.128242E-05
4.960000E+03	3.363290E-03	4.107399E-05
4.964670E+03	3.350156E-03	4.084772E-05
4.969350E+03	3.340779E-03	4.066658E-05
4.974030E+03	3.339110E-03	4.057850E-05
4.978699E+03	3.344397E-03	4.057407E-05
4.983380E+03	3.350442E-03	4.057744E-05
4.988060E+03	3.357494E-03	4.059175E-05
4.992740E+03	3.369004E-03	4.065857E-05
4.997410E+03	3.378560E-03	4.070051E-05
5.002090E+03	3.385418E-03	4.070844E-05
5.006770E+03	3.393772E-03	4.073301E-05
5.011440E+03	3.395507E-03	4.067709E-05
5.016120E+03	3.403161E-03	4.069070E-05
5.020800E+03	3.414518E-03	4.074716E-05
5.025470E+03	3.428347E-03	4.083173E-05
5.030150E+03	3.442427E-03	4.091746E-05
5.034830E+03	3.455046E-03	4.098420E-05
5.039510E+03	3.470616E-03	4.108429E-05
5.044180E+03	3.484485E-03	4.116273E-05
5.048860E+03	3.495423E-03	4.120478E-05
5.053540E+03	3.504661E-03	4.122534E-05
5.058210E+03	3.510252E-03	4.120187E-05
5.062891E+03	3.514637E-03	4.116286E-05
5.067570E+03	3.514647E-03	4.107160E-05
5.072240E+03	3.518347E-03	4.102264E-05
5.076920E+03	3.522552E-03	4.097828E-05
5.081600E+03	3.530434E-03	4.097549E-05
5.086280E+03	3.538331E-03	4.097161E-05
5.090950E+03	3.549658E-03	4.100630E-05
5.095630E+03	3.566348E-03	4.110115E-05
5.100310E+03	3.581829E-03	4.118038E-05
5.104981E+03	3.599023E-03	4.127784E-05
5.109660E+03	3.615734E-03	4.136786E-05
5.114340E+03	3.632937E-03	4.146180E-05
5.119020E+03	3.654274E-03	4.160111E-05
5.123690E+03	3.676588E-03	4.174984E-05
5.128370E+03	3.704965E-03	4.196507E-05
5.133050E+03	3.732853E-03	4.217251E-05
5.137720E+03	3.762922E-03	4.240253E-05
5.142400E+03	3.796859E-03	4.267344E-05
5.147080E+03	3.825460E-03	4.288202E-05
5.151750E+03	3.844620E-03	4.298307E-05
5.156430E+03	3.864507E-03	4.309038E-05
5.161110E+03	3.881254E-03	4.316114E-05
5.165790E+03	3.898008E-03	4.323057E-05
5.170460E+03	3.914530E-03	4.329632E-05
5.175140E+03	3.928640E-03	4.333391E-05
5.179820E+03	3.941791E-03	4.335984E-05
5.184490E+03	3.955438E-03	4.339043E-05
5.189170E+03	3.976569E-03	4.350167E-05
5.193850E+03	3.995773E-03	4.359045E-05
5.198520E+03	4.011608E-03	4.364161E-05
5.203200E+03	4.028169E-03	4.369940E-05
5.207880E+03	4.041123E-03	4.371719E-05
5.212560E+03	4.048064E-03	4.366942E-05
5.217230E+03	4.050687E-03	4.357518E-05
5.221910E+03	4.057172E-03	4.352217E-05
5.226589E+03	4.056452E-03	4.339198E-05
5.231260E+03	4.055511E-03	4.326003E-05
5.235940E+03	4.050737E-03	4.308752E-05
5.240620E+03	4.048625E-03	4.294397E-05
5.245300E+03	4.047490E-03	4.281142E-05
5.249970E+03	4.042770E-03	4.264196E-05
5.254650E+03	4.040945E-03	4.250363E-05
5.259330E+03	4.035056E-03	4.232350E-05
5.264000E+03	4.031825E-03	4.217257E-05
5.268680E+03	4.030284E-03	4.204009E-05
5.273360E+03	4.027798E-03	4.189879E-05
5.278030E+03	4.028683E-03	4.179385E-05
5.282710E+03	4.021669E-03	4.160798E-05
5.287390E+03	4.016348E-03	4.144112E-05
5.292070E+03	4.011279E-03	4.127840E-05
5.296740E+03	4.002156E-03	4.107589E-05
5.301420E+03	3.991132E-03	4.085556E-05
5.306100E+03	3.979646E-03	4.063255E-05
5.310770E+03	3.972481E-03	4.045595E-05
5.315450E+03	3.960546E-03	4.023261E-05
5.320130E+03	3.946952E-03	3.999477E-05
5.324810E+03	3.935286E-03	3.977886E-05
5.329480E+03	3.925307E-03	3.958258E-05
5.334160E+03	3.916532E-03	3.940061E-05
5.338840E+03	3.911350E-03	3.925710E-05
5.343510E+03	3.906655E-03	3.912098E-05
5.348190E+03	3.906739E-03	3.903478E-05
5.352871E+03	3.916847E-03	3.905074E-05
5.357540E+03	3.929339E-03	3.909252E-05
5.362220E+03	3.937297E-03	3.909098E-05
5.366900E+03	3.946685E-03	3.910579E-05
5.371580E+03	3.959168E-03	3.915344E-05
5.376250E+03	3.964740E-03	3.913525E-05
5.380930E+03	3.970787E-03	3.912413E-05
5.385610E+03	3.975879E-03	3.910629E-05
