#wls	flux	fluxerr
1.596966E+03	7.356836E-04	7.616915E-05
1.636890E+03	7.420114E-04	7.608605E-05
1.676814E+03	7.490703E-04	7.605014E-05
1.716738E+03	7.567746E-04	7.605011E-05
1.756662E+03	7.652948E-04	7.610040E-05
1.796586E+03	7.746833E-04	7.620305E-05
1.836511E+03	7.851317E-04	7.637333E-05
1.876435E+03	7.968548E-04	7.662779E-05
1.916359E+03	8.099777E-04	7.697339E-05
1.956283E+03	8.249773E-04	7.744943E-05
1.996207E+03	8.422982E-04	7.808978E-05
2.036131E+03	8.631198E-04	7.899335E-05
2.076055E+03	8.901688E-04	8.039276E-05
2.115980E+03	9.261756E-04	8.250726E-05
2.155904E+03	9.700796E-04	8.520881E-05
2.195828E+03	1.019759E-03	8.828188E-05
2.235752E+03	1.074583E-03	9.164836E-05
2.275676E+03	1.133834E-03	9.522541E-05
2.315600E+03	1.196873E-03	9.894003E-05
2.355525E+03	1.262516E-03	1.026780E-04
2.395449E+03	1.329263E-03	1.063056E-04
2.435373E+03	1.394049E-03	1.095743E-04
2.475297E+03	1.452883E-03	1.121812E-04
2.515221E+03	1.499821E-03	1.136981E-04
2.555145E+03	1.528866E-03	1.137274E-04
2.595069E+03	1.539344E-03	1.122955E-04
2.634994E+03	1.540468E-03	1.101416E-04
2.674918E+03	1.530980E-03	1.072192E-04
2.714842E+03	1.504986E-03	1.031725E-04
2.754766E+03	1.467527E-03	9.841520E-05
2.794690E+03	1.426021E-03	9.348768E-05
2.834614E+03	1.387119E-03	8.883705E-05
2.874538E+03	1.354982E-03	8.471457E-05
2.914463E+03	1.333135E-03	8.130694E-05
2.954387E+03	1.323940E-03	7.870990E-05
2.994311E+03	1.330404E-03	7.704144E-05
3.004292E+03	1.334772E-03	7.677878E-05
3.014273E+03	1.340257E-03	7.657629E-05
3.024254E+03	1.347136E-03	7.644844E-05
3.034235E+03	1.355237E-03	7.638398E-05
3.044216E+03	1.364732E-03	7.639114E-05
3.054197E+03	1.375683E-03	7.647180E-05
3.064178E+03	1.388158E-03	7.662805E-05
3.074159E+03	1.402118E-03	7.685605E-05
3.084140E+03	1.417869E-03	7.717069E-05
3.094121E+03	1.435386E-03	7.756868E-05
3.104102E+03	1.454765E-03	7.805318E-05
3.114083E+03	1.476115E-03	7.862779E-05
3.124064E+03	1.499670E-03	7.930271E-05
3.134045E+03	1.525334E-03	8.007040E-05
3.144026E+03	1.553609E-03	8.095465E-05
3.154007E+03	1.584316E-03	8.194332E-05
3.163988E+03	1.618017E-03	8.306236E-05
3.173969E+03	1.654704E-03	8.430816E-05
3.183950E+03	1.694651E-03	8.569118E-05
3.193932E+03	1.738433E-03	8.723659E-05
3.203913E+03	1.786311E-03	8.895314E-05
3.213894E+03	1.838696E-03	9.085649E-05
3.223875E+03	1.895967E-03	9.296029E-05
3.233856E+03	1.958531E-03	9.527885E-05
3.243837E+03	2.026903E-03	9.783119E-05
3.248970E+03	1.143324E-03	5.495990E-05
3.251100E+03	1.147587E-03	5.507149E-05
3.253240E+03	1.156950E-03	5.542632E-05
3.255370E+03	1.162724E-03	5.560850E-05
3.257500E+03	1.170068E-03	5.586472E-05
3.259640E+03	1.179809E-03	5.623356E-05
3.261770E+03	1.190689E-03	5.665553E-05
3.263900E+03	1.208068E-03	5.738451E-05
3.266040E+03	1.230715E-03	5.836002E-05
3.268170E+03	1.252681E-03	5.930008E-05
3.270300E+03	1.280407E-03	6.050888E-05
3.272430E+03	1.305470E-03	6.158761E-05
3.274570E+03	1.334039E-03	6.282694E-05
3.276700E+03	1.371105E-03	6.446165E-05
3.278830E+03	1.406786E-03	6.602547E-05
3.280970E+03	1.438804E-03	6.741136E-05
3.283100E+03	1.471773E-03	6.883721E-05
3.285230E+03	1.512814E-03	7.063463E-05
3.287370E+03	1.564038E-03	7.289952E-05
3.289500E+03	1.625996E-03	7.565625E-05
3.291630E+03	1.686713E-03	7.834545E-05
3.293770E+03	1.745877E-03	8.095223E-05
3.295900E+03	1.802892E-03	8.345072E-05
3.298030E+03	1.859352E-03	8.591448E-05
3.300170E+03	1.908014E-03	8.800882E-05
3.302300E+03	1.955704E-03	9.005134E-05
3.304430E+03	1.979655E-03	9.099514E-05
3.306570E+03	2.011492E-03	9.229627E-05
3.308699E+03	2.031120E-03	9.303389E-05
3.310830E+03	2.068288E-03	9.457041E-05
3.312970E+03	2.118669E-03	9.670344E-05
3.315100E+03	2.165908E-03	9.868610E-05
3.317230E+03	2.195417E-03	9.985487E-05
3.319360E+03	2.226510E-03	1.010909E-04
3.321500E+03	2.272793E-03	1.030098E-04
3.323630E+03	2.291475E-03	1.036734E-04
3.325760E+03	2.297535E-03	1.037641E-04
3.327900E+03	2.298861E-03	1.036397E-04
3.330030E+03	2.299788E-03	1.034981E-04
3.332160E+03	2.302290E-03	1.034271E-04
3.334300E+03	2.304790E-03	1.033551E-04
3.336430E+03	2.308867E-03	1.033541E-04
3.338560E+03	2.315506E-03	1.034671E-04
3.340700E+03	2.320764E-03	1.035167E-04
3.342830E+03	2.319896E-03	1.032938E-04
3.344960E+03	2.316852E-03	1.029744E-04
3.347100E+03	2.329608E-03	1.033556E-04
3.349229E+03	2.359745E-03	1.045057E-04
3.351360E+03	2.386529E-03	1.055028E-04
3.353500E+03	2.422407E-03	1.068962E-04
3.355630E+03	2.458685E-03	1.083026E-04
3.357760E+03	2.497537E-03	1.098167E-04
3.359900E+03	2.535012E-03	1.112634E-04
3.362030E+03	2.566956E-03	1.124629E-04
3.364160E+03	2.609186E-03	1.141073E-04
3.366290E+03	2.648653E-03	1.156246E-04
3.368430E+03	2.682787E-03	1.169025E-04
3.370560E+03	2.717319E-03	1.181936E-04
3.372690E+03	2.749876E-03	1.193936E-04
3.374830E+03	2.767006E-03	1.199190E-04
3.376960E+03	2.776418E-03	1.201091E-04
3.379090E+03	2.789388E-03	1.204515E-04
3.381230E+03	2.812453E-03	1.212261E-04
3.383360E+03	2.838682E-03	1.221346E-04
3.385490E+03	2.867289E-03	1.231412E-04
3.387630E+03	2.906192E-03	1.245838E-04
3.389759E+03	2.940939E-03	1.258438E-04
3.391890E+03	2.957275E-03	1.263121E-04
3.394030E+03	2.971035E-03	1.266672E-04
3.396160E+03	2.991723E-03	1.273163E-04
3.398290E+03	3.021323E-03	1.283410E-04
3.400430E+03	3.061622E-03	1.298139E-04
3.402560E+03	3.106677E-03	1.314830E-04
3.404690E+03	3.163027E-03	1.336226E-04
3.406820E+03	3.229290E-03	1.361717E-04
3.408960E+03	3.283472E-03	1.382010E-04
3.411090E+03	3.323388E-03	1.396241E-04
3.413220E+03	3.369450E-03	1.412990E-04
3.415360E+03	3.428992E-03	1.435300E-04
3.417490E+03	3.492700E-03	1.459274E-04
3.419620E+03	3.563945E-03	1.486296E-04
3.421760E+03	3.640153E-03	1.515263E-04
3.423890E+03	3.716761E-03	1.544295E-04
3.426020E+03	3.800513E-03	1.576176E-04
3.428159E+03	3.878917E-03	1.605703E-04
3.430289E+03	3.965455E-03	1.638487E-04
3.432420E+03	4.056759E-03	1.673107E-04
3.434560E+03	4.147474E-03	1.707334E-04
3.436690E+03	4.228671E-03	1.737530E-04
3.438820E+03	4.315822E-03	1.770047E-04
3.440960E+03	4.406746E-03	1.803964E-04
3.443090E+03	4.486365E-03	1.833142E-04
3.445220E+03	4.559040E-03	1.859372E-04
3.447350E+03	4.625962E-03	1.883152E-04
3.449490E+03	4.688320E-03	1.904964E-04
3.451620E+03	4.746111E-03	1.924850E-04
3.453750E+03	4.797351E-03	1.942001E-04
3.455890E+03	4.832118E-03	1.952405E-04
3.458020E+03	4.867473E-03	1.963015E-04
3.460150E+03	4.912348E-03	1.977409E-04
3.462290E+03	4.942532E-03	1.985820E-04
3.464420E+03	4.963182E-03	1.990384E-04
3.466550E+03	4.976082E-03	1.991819E-04
3.468689E+03	4.981432E-03	1.990205E-04
3.470820E+03	4.995904E-03	1.992242E-04
3.472950E+03	4.999251E-03	1.989835E-04
3.475090E+03	4.992662E-03	1.983464E-04
3.477220E+03	4.999564E-03	1.982474E-04
3.479350E+03	5.016780E-03	1.985561E-04
3.481490E+03	5.032201E-03	1.987901E-04
3.483620E+03	5.034310E-03	1.984992E-04
3.485750E+03	5.038992E-03	1.983096E-04
3.487890E+03	5.032346E-03	1.976732E-04
3.490020E+03	5.023704E-03	1.969619E-04
3.492150E+03	5.019421E-03	1.964228E-04
3.493880E+03	5.008959E-03	1.957131E-04
3.495350E+03	4.983988E-03	1.944836E-04
3.496820E+03	4.961196E-03	1.933418E-04
3.498280E+03	4.929462E-03	1.918564E-04
3.499749E+03	4.878264E-03	1.896163E-04
3.501220E+03	4.834806E-03	1.876818E-04
3.502690E+03	4.794916E-03	1.858905E-04
3.504150E+03	4.736753E-03	1.833975E-04
3.505620E+03	4.678188E-03	1.808934E-04
3.507090E+03	4.617037E-03	1.782958E-04
3.508550E+03	4.555286E-03	1.756829E-04
3.510020E+03	4.498097E-03	1.732506E-04
3.511490E+03	4.431174E-03	1.704498E-04
3.512960E+03	4.362461E-03	1.675873E-04
3.514420E+03	4.293147E-03	1.647104E-04
3.515890E+03	4.218866E-03	1.616488E-04
3.517360E+03	4.153119E-03	1.589214E-04
3.518820E+03	4.088958E-03	1.562629E-04
3.520290E+03	4.030354E-03	1.538216E-04
3.521760E+03	3.992001E-03	1.521584E-04
3.523230E+03	3.962183E-03	1.508241E-04
3.524690E+03	3.942686E-03	1.498867E-04
3.526160E+03	3.930335E-03	1.492213E-04
3.527630E+03	3.923341E-03	1.487607E-04
3.529090E+03	3.930442E-03	1.488359E-04
3.530560E+03	3.949252E-03	1.493521E-04
3.532030E+03	3.970640E-03	1.499641E-04
3.533500E+03	3.998973E-03	1.508360E-04
3.534960E+03	4.036235E-03	1.520433E-04
3.536430E+03	4.071308E-03	1.531633E-04
3.537900E+03	4.111935E-03	1.544887E-04
3.539370E+03	4.155336E-03	1.559144E-04
3.540830E+03	4.194562E-03	1.571810E-04
3.542300E+03	4.246289E-03	1.589106E-04
3.543770E+03	4.293840E-03	1.604792E-04
3.545230E+03	4.340592E-03	1.620150E-04
3.546700E+03	4.391506E-03	1.637001E-04
3.548170E+03	4.450552E-03	1.656832E-04
3.549640E+03	4.514751E-03	1.678526E-04
3.551100E+03	4.572392E-03	1.697738E-04
3.552570E+03	4.638957E-03	1.720191E-04
3.554040E+03	4.702139E-03	1.741329E-04
3.555501E+03	4.755588E-03	1.758824E-04
3.556970E+03	4.805059E-03	1.774787E-04
3.558440E+03	4.854521E-03	1.790700E-04
3.559910E+03	4.918463E-03	1.811902E-04
3.561370E+03	4.982000E-03	1.832912E-04
3.562840E+03	5.029848E-03	1.848085E-04
3.564310E+03	5.075506E-03	1.862410E-04
3.565780E+03	5.116392E-03	1.874945E-04
3.567240E+03	5.144572E-03	1.882810E-04
3.568709E+03	5.160838E-03	1.886282E-04
3.570180E+03	5.171541E-03	1.887710E-04
3.571640E+03	5.168352E-03	1.884083E-04
3.573110E+03	5.168529E-03	1.881670E-04
3.574580E+03	5.188935E-03	1.886616E-04
3.576051E+03	5.212905E-03	1.892840E-04
3.577510E+03	5.236274E-03	1.898845E-04
3.578980E+03	5.235434E-03	1.896045E-04
3.580450E+03	5.222886E-03	1.889014E-04
3.581910E+03	5.219657E-03	1.885382E-04
3.583380E+03	5.208090E-03	1.878734E-04
3.584850E+03	5.200685E-03	1.873597E-04
3.586320E+03	5.184946E-03	1.865472E-04
3.587780E+03	5.156315E-03	1.852750E-04
3.589250E+03	5.128671E-03	1.840396E-04
3.590720E+03	5.103602E-03	1.828996E-04
3.592190E+03	5.054541E-03	1.809034E-04
3.593650E+03	4.996758E-03	1.786021E-04
3.595120E+03	4.957015E-03	1.769488E-04
3.596589E+03	4.914496E-03	1.752008E-04
3.598050E+03	4.869204E-03	1.733598E-04
3.599520E+03	4.831838E-03	1.718035E-04
3.600990E+03	4.787734E-03	1.700118E-04
3.602460E+03	4.739864E-03	1.680911E-04
3.603920E+03	4.703690E-03	1.665909E-04
3.605390E+03	4.681185E-03	1.655763E-04
3.606860E+03	4.649367E-03	1.642350E-04
3.608320E+03	4.614578E-03	1.627937E-04
3.609790E+03	4.591873E-03	1.617801E-04
3.611260E+03	4.580258E-03	1.611594E-04
3.612730E+03	4.570623E-03	1.606094E-04
3.614190E+03	4.561581E-03	1.600829E-04
3.615660E+03	4.576299E-03	1.603888E-04
3.617130E+03	4.599527E-03	1.609915E-04
3.618590E+03	4.611857E-03	1.612130E-04
3.620060E+03	4.616259E-03	1.611554E-04
3.621530E+03	4.631744E-03	1.614840E-04
3.623000E+03	4.674741E-03	1.627695E-04
3.624461E+03	4.705654E-03	1.636326E-04
3.625930E+03	4.739722E-03	1.646015E-04
3.627400E+03	4.788031E-03	1.660613E-04
3.628870E+03	4.826234E-03	1.671670E-04
3.630330E+03	4.854534E-03	1.679286E-04
3.631800E+03	4.892519E-03	1.690210E-04
3.633270E+03	4.943157E-03	1.705468E-04
3.634730E+03	4.992796E-03	1.720355E-04
3.636200E+03	5.056267E-03	1.739944E-04
3.637670E+03	5.115964E-03	1.758183E-04
3.639140E+03	5.163779E-03	1.772295E-04
3.640600E+03	5.221473E-03	1.789767E-04
3.642070E+03	5.268865E-03	1.803649E-04
3.643540E+03	5.306554E-03	1.814175E-04
3.645000E+03	5.344038E-03	1.824619E-04
3.646470E+03	5.376763E-03	1.833392E-04
3.647940E+03	5.407697E-03	1.841529E-04
3.649410E+03	5.440006E-03	1.850110E-04
3.650870E+03	5.474877E-03	1.859553E-04
3.652340E+03	5.520406E-03	1.872568E-04
3.653810E+03	5.563748E-03	1.884805E-04
3.655280E+03	5.607276E-03	1.897069E-04
3.656740E+03	5.658104E-03	1.911782E-04
3.658210E+03	5.703581E-03	1.924632E-04
3.659680E+03	5.739364E-03	1.934180E-04
3.661140E+03	5.771586E-03	1.942517E-04
3.662610E+03	5.807150E-03	1.951936E-04
3.664080E+03	5.851194E-03	1.964174E-04
3.665550E+03	5.892461E-03	1.975446E-04
3.667010E+03	5.925229E-03	1.983860E-04
3.668480E+03	5.959956E-03	1.992885E-04
3.669950E+03	5.989935E-03	2.000298E-04
3.671410E+03	6.016947E-03	2.006717E-04
3.672880E+03	6.052036E-03	2.015791E-04
3.674350E+03	6.088692E-03	2.025358E-04
3.675820E+03	6.126127E-03	2.035155E-04
3.677280E+03	6.169078E-03	2.046773E-04
3.678750E+03	6.200963E-03	2.054673E-04
3.680220E+03	6.239347E-03	2.064702E-04
3.681680E+03	6.278710E-03	2.075041E-04
3.683150E+03	6.305040E-03	2.081031E-04
3.684620E+03	6.330966E-03	2.086870E-04
3.686090E+03	6.361023E-03	2.094050E-04
3.687550E+03	6.396199E-03	2.102912E-04
3.689020E+03	6.414210E-03	2.106091E-04
3.690490E+03	6.427678E-03	2.107769E-04
3.691960E+03	6.445870E-03	2.110988E-04
3.693421E+03	6.463468E-03	2.114018E-04
3.694890E+03	6.479673E-03	2.116567E-04
3.696360E+03	6.486217E-03	2.115952E-04
3.697820E+03	6.494140E-03	2.115804E-04
3.699290E+03	6.506386E-03	2.117040E-04
3.700760E+03	6.508383E-03	2.114942E-04
3.702230E+03	6.498364E-03	2.108945E-04
3.703690E+03	6.493272E-03	2.104575E-04
3.705160E+03	6.483643E-03	2.098727E-04
3.706630E+03	6.459052E-03	2.088054E-04
3.708090E+03	6.442145E-03	2.079906E-04
3.709560E+03	6.430743E-03	2.073531E-04
3.711030E+03	6.396317E-03	2.059755E-04
3.712500E+03	6.342220E-03	2.039686E-04
3.713960E+03	6.277121E-03	2.016149E-04
3.715430E+03	6.214586E-03	1.993477E-04
3.716900E+03	6.149309E-03	1.969979E-04
3.718370E+03	6.077948E-03	1.944594E-04
3.719830E+03	6.003067E-03	1.918163E-04
3.721300E+03	5.910893E-03	1.886264E-04
3.722770E+03	5.803210E-03	1.849500E-04
3.724230E+03	5.691231E-03	1.811477E-04
3.725700E+03	5.571606E-03	1.771102E-04
3.727170E+03	5.444148E-03	1.728343E-04
3.728640E+03	5.318684E-03	1.686326E-04
3.730100E+03	5.192272E-03	1.644127E-04
3.731570E+03	5.056258E-03	1.598984E-04
3.733040E+03	4.922634E-03	1.554709E-04
3.734500E+03	4.788065E-03	1.510262E-04
3.735970E+03	4.634672E-03	1.459986E-04
3.737440E+03	4.477979E-03	1.408798E-04
3.738910E+03	4.333103E-03	1.361453E-04
3.740370E+03	4.194548E-03	1.316223E-04
3.741841E+03	4.044248E-03	1.267415E-04
3.743310E+03	3.892219E-03	1.218192E-04
3.744770E+03	3.749846E-03	1.172122E-04
3.746240E+03	3.607309E-03	1.126107E-04
3.747710E+03	3.472459E-03	1.082605E-04
3.749180E+03	3.345291E-03	1.041608E-04
3.750640E+03	3.220316E-03	1.001405E-04
3.752110E+03	3.091646E-03	9.601469E-05
3.753580E+03	2.968694E-03	9.207679E-05
3.755050E+03	2.857535E-03	8.851423E-05
3.756510E+03	2.758363E-03	8.533241E-05
3.757980E+03	2.659411E-03	8.216458E-05
3.759450E+03	2.555389E-03	7.884842E-05
3.760910E+03	2.470206E-03	7.612189E-05
3.762379E+03	2.396990E-03	7.376998E-05
3.763850E+03	2.315373E-03	7.116574E-05
3.765320E+03	2.240435E-03	6.877314E-05
3.766780E+03	2.185687E-03	6.700616E-05
3.768250E+03	2.140739E-03	6.554308E-05
3.769721E+03	2.087777E-03	6.383863E-05
3.771190E+03	2.038157E-03	6.224060E-05
3.772650E+03	1.990312E-03	6.070121E-05
3.774120E+03	1.939896E-03	5.908683E-05
3.775590E+03	1.897944E-03	5.773403E-05
3.777050E+03	1.858979E-03	5.647589E-05
3.778520E+03	1.819142E-03	5.519390E-05
3.779990E+03	1.789523E-03	5.422474E-05
3.781460E+03	1.767439E-03	5.348603E-05
3.782920E+03	1.741980E-03	5.264761E-05
3.784390E+03	1.721843E-03	5.197145E-05
3.785860E+03	1.711696E-03	5.159808E-05
3.787320E+03	1.704954E-03	5.132849E-05
3.788790E+03	1.700985E-03	5.114246E-05
3.790260E+03	1.700278E-03	5.105480E-05
3.791730E+03	1.704961E-03	5.112886E-05
3.793190E+03	1.710073E-03	5.121593E-05
3.794660E+03	1.717641E-03	5.137568E-05
3.796130E+03	1.735396E-03	5.183921E-05
3.797590E+03	1.756952E-03	5.241535E-05
3.799060E+03	1.777367E-03	5.295539E-05
3.800530E+03	1.796097E-03	5.344376E-05
3.802000E+03	1.816575E-03	5.398272E-05
3.803460E+03	1.841847E-03	5.466290E-05
3.804930E+03	1.872199E-03	5.549135E-05
3.806400E+03	1.904899E-03	5.638700E-05
3.807870E+03	1.940239E-03	5.735825E-05
3.809330E+03	1.976544E-03	5.835584E-05
3.810800E+03	2.009170E-03	5.924174E-05
3.812270E+03	2.044318E-03	6.019952E-05
3.813730E+03	2.085886E-03	6.134396E-05
3.815200E+03	2.124319E-03	6.239271E-05
3.816670E+03	2.151053E-03	6.309540E-05
3.818140E+03	2.179529E-03	6.384722E-05
3.819600E+03	2.224743E-03	6.508714E-05
3.821070E+03	2.270133E-03	6.632830E-05
3.822540E+03	2.308695E-03	6.736678E-05
3.824000E+03	2.343936E-03	6.830626E-05
3.825470E+03	2.383443E-03	6.936675E-05
3.826940E+03	2.435582E-03	7.079144E-05
3.828410E+03	2.490815E-03	7.230203E-05
3.829870E+03	2.543892E-03	7.374667E-05
3.831339E+03	2.602587E-03	7.534944E-05
3.832810E+03	2.667676E-03	7.713268E-05
3.834280E+03	2.734492E-03	7.896093E-05
3.835740E+03	2.795650E-03	8.062176E-05
3.837210E+03	2.861447E-03	8.241097E-05
3.838681E+03	2.938490E-03	8.451877E-05
3.840140E+03	3.006378E-03	8.635871E-05
3.841610E+03	3.076568E-03	8.825884E-05
3.843080E+03	3.152754E-03	9.032555E-05
3.844550E+03	3.231047E-03	9.244692E-05
3.846010E+03	3.318828E-03	9.483456E-05
3.847480E+03	3.419772E-03	9.759044E-05
3.848950E+03	3.528054E-03	1.005480E-04
3.850410E+03	3.635913E-03	1.034864E-04
3.851880E+03	3.743340E-03	1.064036E-04
3.853350E+03	3.854218E-03	1.094110E-04
3.854820E+03	3.976110E-03	1.127224E-04
3.856280E+03	4.111535E-03	1.164089E-04
3.857750E+03	4.247875E-03	1.201104E-04
3.859219E+03	4.389784E-03	1.239591E-04
3.860680E+03	4.542307E-03	1.280978E-04
3.862150E+03	4.696510E-03	1.322714E-04
3.863620E+03	4.856080E-03	1.365846E-04
3.865090E+03	5.021014E-03	1.410368E-04
3.866550E+03	5.190346E-03	1.456017E-04
3.868020E+03	5.365610E-03	1.503190E-04
3.869490E+03	5.545842E-03	1.551624E-04
3.870960E+03	5.746908E-03	1.605747E-04
3.872420E+03	5.965904E-03	1.664741E-04
3.873890E+03	6.182487E-03	1.722889E-04
3.875360E+03	6.391831E-03	1.778862E-04
3.876820E+03	6.598780E-03	1.834034E-04
3.878290E+03	6.802548E-03	1.888156E-04
3.879759E+03	7.003337E-03	1.941305E-04
3.881230E+03	7.195538E-03	1.991928E-04
3.882690E+03	7.377631E-03	2.039637E-04
3.884160E+03	7.559056E-03	2.087010E-04
3.885630E+03	7.736354E-03	2.133115E-04
3.887091E+03	7.905287E-03	2.176807E-04
3.888560E+03	8.061777E-03	2.216939E-04
3.890030E+03	8.204304E-03	2.253121E-04
3.891500E+03	8.343303E-03	2.288233E-04
3.892960E+03	8.475684E-03	2.321455E-04
3.894430E+03	8.601247E-03	2.352698E-04
3.895900E+03	8.728688E-03	2.384362E-04
3.897370E+03	8.858584E-03	2.416605E-04
3.898830E+03	8.978019E-03	2.445928E-04
3.900300E+03	9.080234E-03	2.470459E-04
3.901770E+03	9.172181E-03	2.492131E-04
3.903230E+03	9.262177E-03	2.513229E-04
3.904700E+03	9.355007E-03	2.535009E-04
3.906170E+03	9.452805E-03	2.558068E-04
3.907639E+03	9.562124E-03	2.584175E-04
3.909100E+03	9.679104E-03	2.612294E-04
3.910570E+03	9.788899E-03	2.638370E-04
3.912040E+03	9.894217E-03	2.663164E-04
3.913500E+03	1.000586E-02	2.689608E-04
3.914970E+03	1.011685E-02	2.715778E-04
3.916440E+03	1.022106E-02	2.740050E-04
3.917910E+03	1.032234E-02	2.763463E-04
3.919370E+03	1.043628E-02	2.790217E-04
3.920840E+03	1.055766E-02	2.818852E-04
3.922310E+03	1.067629E-02	2.846671E-04
3.923770E+03	1.080680E-02	2.877594E-04
3.925240E+03	1.094204E-02	2.909658E-04
3.926710E+03	1.107741E-02	2.941662E-04
3.928180E+03	1.121810E-02	2.974981E-04
3.929640E+03	1.137257E-02	3.011882E-04
3.931110E+03	1.154040E-02	3.052178E-04
3.932580E+03	1.170585E-02	3.091728E-04
3.934050E+03	1.187046E-02	3.130939E-04
3.935511E+03	1.204864E-02	3.173638E-04
3.936980E+03	1.223401E-02	3.218077E-04
3.938450E+03	1.242563E-02	3.264028E-04
3.939910E+03	1.263405E-02	3.314281E-04
3.941380E+03	1.284870E-02	3.365988E-04
3.942850E+03	1.306306E-02	3.417474E-04
3.944320E+03	1.327406E-02	3.467927E-04
3.945780E+03	1.348767E-02	3.518946E-04
3.947250E+03	1.371093E-02	3.572299E-04
3.948720E+03	1.393122E-02	3.624723E-04
3.950180E+03	1.413937E-02	3.673875E-04
3.951650E+03	1.434817E-02	3.723013E-04
3.953120E+03	1.457486E-02	3.776642E-04
3.954590E+03	1.480355E-02	3.830632E-04
3.956050E+03	1.502068E-02	3.881514E-04
3.957520E+03	1.523902E-02	3.932519E-04
3.958990E+03	1.546147E-02	3.984432E-04
3.960460E+03	1.568095E-02	4.035424E-04
3.961920E+03	1.588926E-02	4.083434E-04
3.963390E+03	1.608846E-02	4.128926E-04
3.964860E+03	1.628967E-02	4.174794E-04
3.966320E+03	1.649196E-02	4.220837E-04
3.967790E+03	1.668591E-02	4.264570E-04
3.969260E+03	1.687251E-02	4.306294E-04
3.970730E+03	1.704870E-02	4.345243E-04
3.972190E+03	1.722198E-02	4.383366E-04
3.973660E+03	1.738541E-02	4.418826E-04
3.975130E+03	1.752833E-02	4.448970E-04
3.976590E+03	1.767445E-02	4.479872E-04
3.978060E+03	1.781495E-02	4.509211E-04
3.979530E+03	1.793553E-02	4.533421E-04
3.981000E+03	1.804748E-02	4.555368E-04
3.982460E+03	1.815138E-02	4.575256E-04
3.983930E+03	1.823519E-02	4.589981E-04
3.985400E+03	1.830715E-02	4.601664E-04
