#wls	flux	fluxerr
1.596966E+03	3.515765E-05	1.315094E-06
1.636890E+03	3.491417E-05	1.303169E-06
1.676814E+03	3.469371E-05	1.292070E-06
1.716738E+03	3.449895E-05	1.281890E-06
1.756662E+03	3.433868E-05	1.272950E-06
1.796586E+03	3.420970E-05	1.265121E-06
1.836511E+03	3.411511E-05	1.258509E-06
1.876435E+03	3.406410E-05	1.253442E-06
1.916359E+03	3.405414E-05	1.249813E-06
1.956283E+03	3.408893E-05	1.247745E-06
1.996207E+03	3.417840E-05	1.247586E-06
2.036131E+03	3.432091E-05	1.249257E-06
2.076055E+03	3.452119E-05	1.252911E-06
2.115980E+03	3.479042E-05	1.258932E-06
2.155904E+03	3.512830E-05	1.267283E-06
2.195828E+03	3.554729E-05	1.278385E-06
2.235752E+03	3.604838E-05	1.292242E-06
2.275676E+03	3.663938E-05	1.309099E-06
2.315600E+03	3.733546E-05	1.329458E-06
2.355525E+03	3.814021E-05	1.353402E-06
2.395449E+03	3.906461E-05	1.381270E-06
2.435373E+03	4.012782E-05	1.413682E-06
2.475297E+03	4.134418E-05	1.451079E-06
2.515221E+03	4.272258E-05	1.493697E-06
2.555145E+03	4.428039E-05	1.542064E-06
2.595069E+03	4.603700E-05	1.596762E-06
2.634994E+03	4.803009E-05	1.658992E-06
2.674918E+03	5.026034E-05	1.728656E-06
2.714842E+03	5.277078E-05	1.807102E-06
2.754766E+03	5.558250E-05	1.894898E-06
2.794690E+03	5.873710E-05	1.993291E-06
2.834614E+03	6.227078E-05	2.103314E-06
2.874538E+03	6.620088E-05	2.225332E-06
2.914463E+03	7.058869E-05	2.361166E-06
2.954387E+03	7.547876E-05	2.512029E-06
2.994311E+03	8.090496E-05	2.678740E-06
3.004292E+03	8.235067E-05	2.723035E-06
3.014273E+03	8.383360E-05	2.768416E-06
3.024254E+03	8.535446E-05	2.814901E-06
3.034235E+03	8.691392E-05	2.862508E-06
3.044216E+03	8.851281E-05	2.911257E-06
3.054197E+03	9.015197E-05	2.961168E-06
3.064178E+03	9.184699E-05	3.012749E-06
3.074159E+03	9.356907E-05	3.065046E-06
3.084140E+03	9.533369E-05	3.118561E-06
3.094121E+03	9.714167E-05	3.173314E-06
3.104102E+03	9.900979E-05	3.229846E-06
3.114083E+03	1.009070E-04	3.287137E-06
3.124064E+03	1.028500E-04	3.345722E-06
3.134045E+03	1.048564E-04	3.406169E-06
3.144026E+03	1.068936E-04	3.467407E-06
3.154007E+03	1.089789E-04	3.529996E-06
3.163988E+03	1.111312E-04	3.594535E-06
3.173969E+03	1.133157E-04	3.659890E-06
3.183950E+03	1.155695E-04	3.727253E-06
3.193932E+03	1.178566E-04	3.795454E-06
3.203913E+03	1.202155E-04	3.865725E-06
3.213894E+03	1.226088E-04	3.936850E-06
3.223875E+03	1.250764E-04	4.010105E-06
3.233856E+03	1.275795E-04	4.084237E-06
3.243837E+03	1.301596E-04	4.160562E-06
3.253818E+03	1.327976E-04	4.238462E-06
3.263799E+03	1.354728E-04	4.317266E-06
3.273780E+03	1.382293E-04	4.398368E-06
3.283761E+03	1.410244E-04	4.480400E-06
3.293742E+03	1.439037E-04	4.564800E-06
3.303723E+03	1.468465E-04	4.650897E-06
3.313704E+03	1.498537E-04	4.738715E-06
3.323685E+03	1.529024E-04	4.827514E-06
3.333666E+03	1.560422E-04	4.918848E-06
3.343647E+03	1.592504E-04	5.011991E-06
3.353628E+03	1.625285E-04	5.106979E-06
3.363609E+03	1.658780E-04	5.203844E-06
3.373590E+03	1.692738E-04	5.301785E-06
3.383571E+03	1.727704E-04	5.402504E-06
3.393552E+03	1.763434E-04	5.505216E-06
3.403533E+03	1.799947E-04	5.609966E-06
3.413514E+03	1.837259E-04	5.716796E-06
3.423495E+03	1.875393E-04	5.825758E-06
3.433476E+03	1.914370E-04	5.936901E-06
3.443457E+03	1.954212E-04	6.050282E-06
3.453438E+03	1.994941E-04	6.165952E-06
3.463420E+03	2.036583E-04	6.283977E-06
3.473401E+03	2.079164E-04	6.404416E-06
3.483382E+03	2.122712E-04	6.527340E-06
3.493363E+03	2.167253E-04	6.652814E-06
3.503344E+03	2.212820E-04	6.780916E-06
3.513325E+03	2.259442E-04	6.911720E-06
3.523306E+03	2.307153E-04	7.045309E-06
3.533287E+03	2.355986E-04	7.181764E-06
3.543268E+03	2.405977E-04	7.321174E-06
3.553249E+03	2.457163E-04	7.463629E-06
3.563230E+03	2.509972E-04	7.610405E-06
3.573211E+03	2.563670E-04	7.759256E-06
3.583192E+03	2.618681E-04	7.911439E-06
3.593173E+03	2.675046E-04	8.067057E-06
3.603154E+03	2.732808E-04	8.226213E-06
3.613135E+03	2.792009E-04	8.389009E-06
3.623116E+03	2.853134E-04	8.556874E-06
3.633097E+03	2.915354E-04	8.727289E-06
3.643078E+03	2.979145E-04	8.901656E-06
3.653059E+03	3.044551E-04	9.080075E-06
3.663040E+03	3.111613E-04	9.262644E-06
3.673021E+03	3.180863E-04	9.450906E-06
3.683002E+03	3.251372E-04	9.642069E-06
3.692983E+03	3.323656E-04	9.837639E-06
3.702964E+03	3.397750E-04	1.003768E-05
3.712945E+03	3.474215E-04	1.024382E-05
3.722926E+03	3.552025E-04	1.045299E-05
3.732907E+03	3.631720E-04	1.066675E-05
3.742889E+03	3.713312E-04	1.088510E-05
3.752870E+03	3.797386E-04	1.110971E-05
3.762851E+03	3.882790E-04	1.133719E-05
3.772832E+03	3.970073E-04	1.156909E-05
3.782813E+03	4.059824E-04	1.180710E-05
3.792794E+03	4.150773E-04	1.204749E-05
3.802775E+03	4.243462E-04	1.229180E-05
3.812756E+03	4.337803E-04	1.253974E-05
3.822737E+03	4.434357E-04	1.279290E-05
3.832718E+03	4.531651E-04	1.304700E-05
3.842699E+03	4.630166E-04	1.330340E-05
3.852680E+03	4.730397E-04	1.356349E-05
3.862661E+03	4.830659E-04	1.382242E-05
3.872642E+03	4.931327E-04	1.408127E-05
3.882623E+03	5.032015E-04	1.433891E-05
3.892604E+03	5.133041E-04	1.459626E-05
3.902585E+03	5.232347E-04	1.484745E-05
3.912566E+03	5.330106E-04	1.509301E-05
3.922547E+03	5.426490E-04	1.533346E-05
3.932528E+03	5.519206E-04	1.556234E-05
3.942509E+03	5.608366E-04	1.578004E-05
3.952490E+03	5.693304E-04	1.598475E-05
3.962471E+03	5.774274E-04	1.617725E-05
3.972452E+03	5.849030E-04	1.635134E-05
3.982433E+03	5.918017E-04	1.650837E-05
3.992414E+03	5.980962E-04	1.664768E-05
4.002395E+03	6.038649E-04	1.677157E-05
4.012376E+03	6.089323E-04	1.687526E-05
4.022358E+03	6.134076E-04	1.696190E-05
4.032339E+03	6.173256E-04	1.703256E-05
4.042320E+03	6.208270E-04	1.709122E-05
4.052301E+03	6.237884E-04	1.713456E-05
4.062282E+03	6.263722E-04	1.716713E-05
4.072263E+03	6.286569E-04	1.719117E-05
4.082244E+03	6.307272E-04	1.720902E-05
4.092225E+03	6.327649E-04	1.722567E-05
4.102206E+03	6.346727E-04	1.723851E-05
4.112187E+03	6.366335E-04	1.725250E-05
4.122168E+03	6.387349E-04	1.727001E-05
4.132149E+03	6.410604E-04	1.729326E-05
4.142130E+03	6.436885E-04	1.732434E-05
4.152111E+03	6.466908E-04	1.736510E-05
4.162092E+03	6.501317E-04	1.741720E-05
4.172073E+03	6.540661E-04	1.748204E-05
4.182054E+03	6.585402E-04	1.756075E-05
4.192035E+03	6.636868E-04	1.765676E-05
4.202016E+03	6.693376E-04	1.776550E-05
4.211997E+03	6.756040E-04	1.788981E-05
4.221978E+03	6.824908E-04	1.802971E-05
4.231959E+03	6.898909E-04	1.818226E-05
4.241940E+03	6.979889E-04	1.835222E-05
4.251921E+03	7.066588E-04	1.853617E-05
4.261902E+03	7.158638E-04	1.873302E-05
4.271883E+03	7.255593E-04	1.894153E-05
4.281864E+03	7.356898E-04	1.916015E-05
4.291845E+03	7.461941E-04	1.938721E-05
4.301827E+03	7.570036E-04	1.962088E-05
4.311808E+03	7.680461E-04	1.985923E-05
4.321789E+03	7.791363E-04	2.009744E-05
4.331770E+03	7.904238E-04	2.033936E-05
4.341751E+03	8.017275E-04	2.058030E-05
4.351732E+03	8.129811E-04	2.081857E-05
4.361713E+03	8.240061E-04	2.104962E-05
4.371694E+03	8.349873E-04	2.127821E-05
4.381675E+03	8.457625E-04	2.150022E-05
4.391656E+03	8.562227E-04	2.171294E-05
4.401637E+03	8.666818E-04	2.192438E-05
4.411618E+03	8.770916E-04	2.213331E-05
4.421599E+03	8.873947E-04	2.233831E-05
4.431580E+03	8.979040E-04	2.254727E-05
4.441561E+03	9.084076E-04	2.275484E-05
4.451542E+03	9.191860E-04	2.296804E-05
4.461523E+03	9.299720E-04	2.318017E-05
4.471504E+03	9.409910E-04	2.339682E-05
4.481485E+03	9.518997E-04	2.360945E-05
4.491466E+03	9.627203E-04	2.381861E-05
4.501447E+03	9.734418E-04	2.402406E-05
4.511428E+03	9.836050E-04	2.421451E-05
4.521409E+03	9.931385E-04	2.438830E-05
4.531390E+03	1.001959E-03	2.454352E-05
4.541371E+03	1.009549E-03	2.466764E-05
4.551352E+03	1.015825E-03	2.475887E-05
4.561333E+03	1.020585E-03	2.481253E-05
4.571315E+03	1.023663E-03	2.482485E-05
4.581296E+03	1.025082E-03	2.479674E-05
4.591277E+03	1.024489E-03	2.471992E-05
4.601258E+03	1.022023E-03	2.459815E-05
4.611239E+03	1.017742E-03	2.443318E-05
4.621220E+03	1.011763E-03	2.422808E-05
4.631201E+03	1.004249E-03	2.398709E-05
4.641182E+03	9.954063E-04	2.371541E-05
4.651163E+03	9.854678E-04	2.341879E-05
4.661144E+03	9.746829E-04	2.310335E-05
4.671125E+03	9.631683E-04	2.277200E-05
4.681106E+03	9.514431E-04	2.243712E-05
4.691087E+03	9.395982E-04	2.210087E-05
4.701068E+03	9.278429E-04	2.176819E-05
4.711049E+03	9.162288E-04	2.144026E-05
4.721030E+03	9.051711E-04	2.112676E-05
4.731011E+03	8.946640E-04	2.082743E-05
4.740992E+03	8.846834E-04	2.054163E-05
4.750973E+03	8.755557E-04	2.027682E-05
4.760954E+03	8.670887E-04	2.002839E-05
4.770935E+03	8.595682E-04	1.980281E-05
4.780916E+03	8.527797E-04	1.959499E-05
4.790897E+03	8.469861E-04	1.941081E-05
4.800878E+03	8.419690E-04	1.924510E-05
4.810859E+03	8.379864E-04	1.910361E-05
4.820840E+03	8.348302E-04	1.898141E-05
4.830821E+03	8.326538E-04	1.888183E-05
4.840802E+03	8.316158E-04	1.880829E-05
4.850784E+03	8.315398E-04	1.875659E-05
4.860765E+03	8.326061E-04	1.873063E-05
4.870746E+03	8.348849E-04	1.873177E-05
4.880727E+03	8.384540E-04	1.876154E-05
4.890708E+03	8.433863E-04	1.882133E-05
4.900689E+03	8.497474E-04	1.891236E-05
4.910670E+03	8.575860E-04	1.903545E-05
4.920651E+03	8.669224E-04	1.919079E-05
4.930632E+03	8.777400E-04	1.937776E-05
4.940613E+03	8.899761E-04	1.959469E-05
4.950594E+03	9.035189E-04	1.983889E-05
4.960575E+03	9.182035E-04	2.010653E-05
4.970556E+03	9.338237E-04	2.039288E-05
4.980537E+03	9.500056E-04	2.068965E-05
4.990518E+03	9.667558E-04	2.099688E-05
5.000499E+03	9.836936E-04	2.130624E-05
5.010480E+03	1.000460E-03	2.160992E-05
5.020461E+03	1.017152E-03	2.191009E-05
5.030442E+03	1.033376E-03	2.219827E-05
5.040423E+03	1.049362E-03	2.247952E-05
5.050404E+03	1.064833E-03	2.274793E-05
5.060385E+03	1.080136E-03	2.301100E-05
5.070366E+03	1.095059E-03	2.326428E-05
5.080347E+03	1.109993E-03	2.351612E-05
5.090328E+03	1.124706E-03	2.376161E-05
5.100309E+03	1.139382E-03	2.400468E-05
5.110290E+03	1.153995E-03	2.424482E-05
5.120271E+03	1.168616E-03	2.448351E-05
5.130253E+03	1.182766E-03	2.471078E-05
5.140234E+03	1.196381E-03	2.492534E-05
5.150215E+03	1.209186E-03	2.512163E-05
5.160196E+03	1.220870E-03	2.529334E-05
5.170177E+03	1.231114E-03	2.543406E-05
5.180158E+03	1.239600E-03	2.553756E-05
5.190139E+03	1.246045E-03	2.559826E-05
5.200120E+03	1.250208E-03	2.561164E-05
5.210101E+03	1.251910E-03	2.557444E-05
5.220082E+03	1.250871E-03	2.548138E-05
5.230063E+03	1.247398E-03	2.533918E-05
5.240044E+03	1.241357E-03	2.514555E-05
5.250025E+03	1.232860E-03	2.490320E-05
5.260006E+03	1.221914E-03	2.461268E-05
5.269987E+03	1.209087E-03	2.428582E-05
5.279968E+03	1.194328E-03	2.392192E-05
5.289949E+03	1.178280E-03	2.353416E-05
5.299930E+03	1.161121E-03	2.312629E-05
5.309911E+03	1.143050E-03	2.270248E-05
5.319892E+03	1.124592E-03	2.227322E-05
5.329873E+03	1.106252E-03	2.184859E-05
5.339854E+03	1.088069E-03	2.142931E-05
5.349835E+03	1.070513E-03	2.102459E-05
5.359816E+03	1.054017E-03	2.064281E-05
5.369797E+03	1.038541E-03	2.028299E-05
5.379778E+03	1.024440E-03	1.995189E-05
5.389759E+03	1.011871E-03	1.965235E-05
5.399740E+03	1.000947E-03	1.938626E-05
5.409722E+03	9.918549E-04	1.915700E-05
5.419703E+03	9.843218E-04	1.895901E-05
5.429684E+03	9.784201E-04	1.879343E-05
5.439665E+03	9.740248E-04	1.865760E-05
5.449646E+03	9.709464E-04	1.854768E-05
5.459627E+03	9.687986E-04	1.845609E-05
5.469608E+03	9.675292E-04	1.838169E-05
5.479589E+03	9.666376E-04	1.831486E-05
5.489570E+03	9.657109E-04	1.824771E-05
5.499551E+03	9.643107E-04	1.817200E-05
5.509532E+03	9.618647E-04	1.807703E-05
5.519513E+03	9.582141E-04	1.795998E-05
5.529494E+03	9.528547E-04	1.781161E-05
5.539475E+03	9.453571E-04	1.762415E-05
5.549456E+03	9.357722E-04	1.739886E-05
5.559437E+03	9.238685E-04	1.713175E-05
5.569418E+03	9.095300E-04	1.682101E-05
5.579399E+03	8.931143E-04	1.647359E-05
5.589380E+03	8.745794E-04	1.608899E-05
5.599361E+03	8.543209E-04	1.567477E-05
5.609342E+03	8.327739E-04	1.523913E-05
5.619323E+03	8.100647E-04	1.478454E-05
5.629304E+03	7.866773E-04	1.431997E-05
5.639285E+03	7.630904E-04	1.385418E-05
5.649266E+03	7.394618E-04	1.339005E-05
5.659247E+03	7.162622E-04	1.293606E-05
5.669228E+03	6.938411E-04	1.249843E-05
5.679210E+03	6.725343E-04	1.208307E-05
5.689191E+03	6.527465E-04	1.169707E-05
5.699172E+03	6.345897E-04	1.134218E-05
5.709153E+03	6.184145E-04	1.102444E-05
5.719134E+03	6.044432E-04	1.074750E-05
5.729115E+03	5.928543E-04	1.051422E-05
5.739096E+03	5.837787E-04	1.032657E-05
5.749077E+03	5.772175E-04	1.018423E-05
5.759058E+03	5.733506E-04	1.009001E-05
5.769039E+03	5.720635E-04	1.004153E-05
5.779020E+03	5.732565E-04	1.003670E-05
5.789001E+03	5.767614E-04	1.007225E-05
5.798982E+03	5.823362E-04	1.014366E-05
5.808963E+03	5.895826E-04	1.024372E-05
5.818944E+03	5.982633E-04	1.036811E-05
5.828925E+03	6.078319E-04	1.050721E-05
5.838906E+03	6.176773E-04	1.065035E-05
5.848887E+03	6.273967E-04	1.079060E-05
5.858868E+03	6.362401E-04	1.091509E-05
5.868849E+03	6.438160E-04	1.101726E-05
5.878830E+03	6.495332E-04	1.108718E-05
5.888811E+03	6.528884E-04	1.111653E-05
5.898792E+03	6.536782E-04	1.110216E-05
5.908773E+03	6.518458E-04	1.104343E-05
5.918754E+03	6.472276E-04	1.093793E-05
5.928735E+03	6.401673E-04	1.079179E-05
5.938716E+03	6.308020E-04	1.060762E-05
5.948697E+03	6.196484E-04	1.039437E-05
5.958679E+03	6.073040E-04	1.016227E-05
5.968660E+03	5.941698E-04	9.918144E-06
5.978641E+03	5.809151E-04	9.673231E-06
5.988622E+03	5.681151E-04	9.437093E-06
5.998603E+03	5.563135E-04	9.218678E-06
6.008584E+03	5.460829E-04	9.027323E-06
6.018565E+03	5.377234E-04	8.867791E-06
6.028546E+03	5.317112E-04	8.747683E-06
6.038527E+03	5.284062E-04	8.672632E-06
6.048508E+03	5.281384E-04	8.647723E-06
6.058489E+03	5.312210E-04	8.677721E-06
6.068470E+03	5.379642E-04	8.767303E-06
6.078451E+03	5.486881E-04	8.921263E-06
6.088432E+03	5.637357E-04	9.144729E-06
6.098413E+03	5.834821E-04	9.443301E-06
6.108394E+03	6.083416E-04	9.823171E-06
6.118375E+03	6.387702E-04	1.029115E-05
6.128356E+03	6.751704E-04	1.085313E-05
6.138337E+03	7.182388E-04	1.151969E-05
6.148318E+03	7.684145E-04	1.229720E-05
6.158299E+03	8.261957E-04	1.319290E-05
6.168280E+03	8.920030E-04	1.421280E-05
6.178261E+03	9.659909E-04	1.535859E-05
6.188242E+03	1.048481E-03	1.663464E-05
6.198223E+03	1.139123E-03	1.803466E-05
6.208204E+03	1.237129E-03	1.954553E-05
6.218185E+03	1.341719E-03	2.115434E-05
6.228166E+03	1.451092E-03	2.283232E-05
6.238148E+03	1.562813E-03	2.454089E-05
6.248129E+03	1.674506E-03	2.624283E-05
6.258110E+03	1.782480E-03	2.788058E-05
6.268091E+03	1.883642E-03	2.940637E-05
6.278072E+03	1.973856E-03	3.075657E-05
6.288053E+03	2.050202E-03	3.188689E-05
6.298034E+03	2.109199E-03	3.274467E-05
6.308015E+03	2.149243E-03	3.330665E-05
6.317996E+03	2.168574E-03	3.354728E-05
6.327977E+03	2.167386E-03	3.347131E-05
6.337958E+03	2.146951E-03	3.310002E-05
6.347939E+03	2.108612E-03	3.245556E-05
6.357920E+03	2.055589E-03	3.158875E-05
6.367901E+03	1.990415E-03	3.053947E-05
6.377882E+03	1.916632E-03	2.936272E-05
6.387863E+03	1.837389E-03	2.810719E-05
6.397844E+03	1.755765E-03	2.682012E-05
6.407825E+03	1.673664E-03	2.553058E-05
6.417806E+03	1.593210E-03	2.427078E-05
6.427787E+03	1.515747E-03	2.306093E-05
6.437768E+03	1.442134E-03	2.191374E-05
6.447749E+03	1.372987E-03	2.083819E-05
6.457730E+03	1.308007E-03	1.982938E-05
6.467711E+03	1.247214E-03	1.888723E-05
6.477692E+03	1.190245E-03	1.800593E-05
6.487673E+03	1.136633E-03	1.717811E-05
6.497654E+03	1.085865E-03	1.639577E-05
6.507635E+03	1.037441E-03	1.565110E-05
6.517617E+03	9.909109E-04	1.493714E-05
6.527598E+03	9.460279E-04	1.424997E-05
6.537579E+03	9.027769E-04	1.358919E-05
6.547560E+03	8.611564E-04	1.295459E-05
6.557541E+03	8.211535E-04	1.234580E-05
6.567522E+03	7.827339E-04	1.176214E-05
6.577503E+03	7.458388E-04	1.120258E-05
6.587484E+03	7.103906E-04	1.066583E-05
6.597465E+03	6.763016E-04	1.015044E-05
6.607446E+03	6.433964E-04	9.653656E-06
6.617427E+03	6.117755E-04	9.176894E-06
6.627408E+03	5.812863E-04	8.717764E-06
6.637389E+03	5.518907E-04	8.275608E-06
6.647370E+03	5.235760E-04	7.850154E-06
6.657351E+03	4.963540E-04	7.441506E-06
6.667332E+03	4.701951E-04	7.049153E-06
6.677313E+03	4.452821E-04	6.675777E-06
6.687294E+03	4.216115E-04	6.321269E-06
6.697275E+03	3.991988E-04	5.985817E-06
6.707256E+03	3.782252E-04	5.672094E-06
6.717237E+03	3.586977E-04	5.380172E-06
6.727218E+03	3.406253E-04	5.110159E-06
6.737199E+03	3.241460E-04	4.864107E-06
6.747180E+03	3.092416E-04	4.641726E-06
6.757161E+03	2.958900E-04	4.442675E-06
6.767142E+03	2.841802E-04	4.268293E-06
6.777123E+03	2.740318E-04	4.117371E-06
6.787105E+03	2.655138E-04	3.990958E-06
6.797086E+03	2.585794E-04	3.888360E-06
6.807067E+03	2.531866E-04	3.808966E-06
6.817048E+03	2.494024E-04	3.753803E-06
6.827029E+03	2.471626E-04	3.721929E-06
6.837010E+03	2.465483E-04	3.714597E-06
6.846991E+03	2.475169E-04	3.731197E-06
6.856972E+03	2.501381E-04	3.772816E-06
6.866953E+03	2.544944E-04	3.840740E-06
6.876934E+03	2.605761E-04	3.934867E-06
6.886915E+03	2.685218E-04	4.057339E-06
6.896896E+03	2.783340E-04	4.208247E-06
6.906877E+03	2.901253E-04	4.389355E-06
6.916858E+03	3.040125E-04	4.602490E-06
6.926839E+03	3.199833E-04	4.847537E-06
6.936820E+03	3.381338E-04	5.126019E-06
6.946801E+03	3.585520E-04	5.439349E-06
6.956782E+03	3.811610E-04	5.786438E-06
6.966763E+03	4.060007E-04	6.167969E-06
6.976744E+03	4.330406E-04	6.583560E-06
6.986725E+03	4.622910E-04	7.033449E-06
6.996706E+03	4.935602E-04	7.514799E-06
7.006687E+03	5.268279E-04	8.027378E-06
7.016668E+03	5.620156E-04	8.570065E-06
7.026649E+03	5.990569E-04	9.141920E-06
7.036630E+03	6.379969E-04	9.743705E-06
7.046611E+03	6.786605E-04	1.037282E-05
7.056592E+03	7.211704E-04	1.103120E-05
7.066574E+03	7.656221E-04	1.172039E-05
7.076555E+03	8.121718E-04	1.244285E-05
7.086536E+03	8.610368E-04	1.320199E-05
7.096517E+03	9.124933E-04	1.400215E-05
7.106498E+03	9.668649E-04	1.484840E-05
7.116479E+03	1.024511E-03	1.574635E-05
7.126460E+03	1.085799E-03	1.670181E-05
7.136441E+03	1.151075E-03	1.772023E-05
7.146422E+03	1.220623E-03	1.880612E-05
7.156403E+03	1.294608E-03	1.996223E-05
7.166384E+03	1.373020E-03	2.118854E-05
7.176365E+03	1.455605E-03	2.248132E-05
7.186346E+03	1.541791E-03	2.383187E-05
7.196327E+03	1.630625E-03	2.522559E-05
7.206308E+03	1.720715E-03	2.664106E-05
7.216289E+03	1.810209E-03	2.804960E-05
7.226270E+03	1.896532E-03	2.941129E-05
7.236251E+03	1.977488E-03	3.069191E-05
7.246232E+03	2.049835E-03	3.184091E-05
7.256213E+03	2.110472E-03	3.280977E-05
7.266194E+03	2.156408E-03	3.355152E-05
7.276175E+03	2.184711E-03	3.401992E-05
7.286156E+03	2.193960E-03	3.419215E-05
7.296137E+03	2.182653E-03	3.404407E-05
7.306118E+03	2.150548E-03	3.357112E-05
7.316099E+03	2.098124E-03	3.277997E-05
7.326080E+03	2.027693E-03	3.170599E-05
7.336061E+03	1.941489E-03	3.038343E-05
7.346043E+03	1.842370E-03	2.885642E-05
7.356024E+03	1.734293E-03	2.718651E-05
7.366005E+03	1.620264E-03	2.542046E-05
7.375986E+03	1.504066E-03	2.361744E-05
7.385967E+03	1.388425E-03	2.182020E-05
7.395948E+03	1.275659E-03	2.006518E-05
7.405929E+03	1.168099E-03	1.838919E-05
7.415910E+03	1.066840E-03	1.680968E-05
7.425891E+03	9.731336E-04	1.534660E-05
7.435872E+03	8.872134E-04	1.400394E-05
7.445853E+03	8.095039E-04	1.278871E-05
7.455834E+03	7.396718E-04	1.169596E-05
7.465815E+03	6.776386E-04	1.072476E-05
7.475796E+03	6.227867E-04	9.865637E-06
7.485777E+03	5.747207E-04	9.112622E-06
7.495758E+03	5.329831E-04	8.458729E-06
7.505739E+03	4.968863E-04	7.893303E-06
7.515720E+03	4.660589E-04	7.410671E-06
7.525701E+03	4.398835E-04	7.001239E-06
7.535682E+03	4.179856E-04	6.659240E-06
7.545663E+03	3.999650E-04	6.378485E-06
7.555644E+03	3.855194E-04	6.154324E-06
7.565625E+03	3.742251E-04	5.980154E-06
7.575606E+03	3.658608E-04	5.852585E-06
7.585587E+03	3.601811E-04	5.767832E-06
7.595568E+03	3.570162E-04	5.723310E-06
7.605549E+03	3.560652E-04	5.714323E-06
7.615530E+03	3.571880E-04	5.738739E-06
7.625512E+03	3.601969E-04	5.793660E-06
7.635493E+03	3.648996E-04	5.876101E-06
7.645474E+03	3.710915E-04	5.982868E-06
7.655455E+03	3.785494E-04	6.110456E-06
7.665436E+03	3.870807E-04	6.255843E-06
7.675417E+03	3.963063E-04	6.412973E-06
7.685398E+03	4.059814E-04	6.577944E-06
7.695379E+03	4.157878E-04	6.745640E-06
7.705360E+03	4.253951E-04	6.910724E-06
7.715341E+03	4.344741E-04	7.067850E-06
7.725322E+03	4.427132E-04	7.211925E-06
7.735303E+03	4.498383E-04	7.338446E-06
7.745284E+03	4.555698E-04	7.442783E-06
