#wls	flux	fluxerr
1.590916E+03	2.876211E-04	2.582249E-05
1.630689E+03	3.020493E-04	2.698664E-05
1.670462E+03	3.180012E-04	2.827058E-05
1.710235E+03	3.357782E-04	2.969843E-05
1.750007E+03	3.555532E-04	3.128228E-05
1.789780E+03	3.775774E-04	3.304069E-05
1.829553E+03	4.021463E-04	3.499539E-05
1.869326E+03	4.294811E-04	3.716097E-05
1.909099E+03	4.597789E-04	3.954928E-05
1.948872E+03	4.930812E-04	4.215829E-05
1.988645E+03	5.289958E-04	4.494881E-05
2.028418E+03	5.665016E-04	4.782913E-05
2.068191E+03	6.033309E-04	5.060508E-05
2.107964E+03	6.375275E-04	5.311339E-05
2.147736E+03	6.699002E-04	5.542412E-05
2.187509E+03	7.023710E-04	5.769701E-05
2.227282E+03	7.363407E-04	6.004480E-05
2.267055E+03	7.730688E-04	6.256531E-05
2.306828E+03	8.134615E-04	6.532473E-05
2.346601E+03	8.585954E-04	6.840024E-05
2.386374E+03	9.094633E-04	7.185929E-05
2.426147E+03	9.668444E-04	7.574957E-05
2.465920E+03	1.031078E-03	8.008197E-05
2.505692E+03	1.101199E-03	8.476549E-05
2.545465E+03	1.173956E-03	8.953692E-05
2.585238E+03	1.241523E-03	9.379615E-05
2.625011E+03	1.293943E-03	9.680665E-05
2.664784E+03	1.330376E-03	9.853698E-05
2.704557E+03	1.358478E-03	9.958266E-05
2.744330E+03	1.384517E-03	1.004159E-04
2.784103E+03	1.411794E-03	1.012771E-04
2.823876E+03	1.441886E-03	1.022737E-04
2.863649E+03	1.475363E-03	1.034375E-04
2.903421E+03	1.512420E-03	1.047722E-04
2.943194E+03	1.553105E-03	1.062701E-04
2.982967E+03	1.597475E-03	1.079240E-04
2.992910E+03	1.609152E-03	1.083611E-04
3.002854E+03	1.621076E-03	1.088081E-04
3.012797E+03	1.633248E-03	1.092650E-04
3.022740E+03	1.645703E-03	1.097338E-04
3.032683E+03	1.658407E-03	1.102122E-04
3.042627E+03	1.671366E-03	1.107001E-04
3.052570E+03	1.684653E-03	1.112024E-04
3.062513E+03	1.698205E-03	1.117145E-04
3.072456E+03	1.712102E-03	1.122416E-04
3.082399E+03	1.726317E-03	1.127815E-04
3.092343E+03	1.740866E-03	1.133351E-04
3.102286E+03	1.755833E-03	1.139075E-04
3.112229E+03	1.771166E-03	1.144951E-04
3.122172E+03	1.786922E-03	1.151011E-04
3.132116E+03	1.803125E-03	1.157269E-04
3.142059E+03	1.819836E-03	1.163760E-04
3.152002E+03	1.837053E-03	1.170478E-04
3.161945E+03	1.854843E-03	1.177462E-04
3.171889E+03	1.873245E-03	1.184732E-04
3.181832E+03	1.892265E-03	1.192288E-04
3.191775E+03	1.911985E-03	1.200174E-04
3.201718E+03	1.932483E-03	1.208436E-04
3.211661E+03	1.953747E-03	1.217059E-04
3.221605E+03	1.975896E-03	1.226110E-04
3.231548E+03	1.998920E-03	1.235578E-04
3.241491E+03	2.022976E-03	1.245552E-04
3.251434E+03	2.048022E-03	1.255996E-04
3.261378E+03	2.074144E-03	1.266958E-04
3.271321E+03	2.101428E-03	1.278480E-04
3.281264E+03	2.129884E-03	1.290558E-04
3.291207E+03	2.159579E-03	1.303225E-04
3.301150E+03	2.190466E-03	1.316441E-04
3.311094E+03	2.222577E-03	1.330216E-04
3.321037E+03	2.255885E-03	1.344524E-04
3.330980E+03	2.290331E-03	1.359321E-04
3.340923E+03	2.325815E-03	1.374538E-04
3.350867E+03	2.362156E-03	1.390060E-04
3.360810E+03	2.399152E-03	1.405760E-04
3.370753E+03	2.436543E-03	1.421481E-04
3.380696E+03	2.474008E-03	1.437033E-04
3.390639E+03	2.511144E-03	1.452182E-04
3.400583E+03	2.547548E-03	1.466696E-04
3.410526E+03	2.582803E-03	1.480342E-04
3.420469E+03	2.616480E-03	1.492883E-04
3.430412E+03	2.648229E-03	1.504131E-04
3.440356E+03	2.677784E-03	1.513951E-04
3.450299E+03	2.704904E-03	1.522223E-04
3.460242E+03	2.729563E-03	1.528950E-04
3.470185E+03	2.751760E-03	1.534152E-04
3.480128E+03	2.771562E-03	1.537885E-04
3.490072E+03	2.789096E-03	1.540237E-04
3.500015E+03	2.804421E-03	1.541258E-04
3.509958E+03	2.817643E-03	1.541023E-04
3.519901E+03	2.828814E-03	1.539578E-04
3.529845E+03	2.837981E-03	1.536964E-04
3.539788E+03	2.845203E-03	1.533230E-04
3.549731E+03	2.850550E-03	1.528428E-04
3.559674E+03	2.854066E-03	1.522596E-04
3.569617E+03	2.855837E-03	1.515796E-04
3.579561E+03	2.855836E-03	1.508027E-04
3.589504E+03	2.854024E-03	1.499285E-04
3.599447E+03	2.850177E-03	1.489466E-04
3.609390E+03	2.844098E-03	1.478485E-04
3.619334E+03	2.835368E-03	1.466145E-04
3.629277E+03	2.823667E-03	1.452303E-04
3.639220E+03	2.808666E-03	1.436815E-04
3.649163E+03	2.790231E-03	1.419643E-04
3.659107E+03	2.768376E-03	1.400821E-04
3.669050E+03	2.743511E-03	1.380586E-04
3.678993E+03	2.716356E-03	1.359324E-04
3.688936E+03	2.688069E-03	1.337631E-04
3.698879E+03	2.660128E-03	1.316249E-04
3.708823E+03	2.634396E-03	1.296091E-04
3.718766E+03	2.612846E-03	1.278107E-04
3.728709E+03	2.597627E-03	1.263306E-04
3.738652E+03	2.590754E-03	1.252609E-04
3.748596E+03	2.594001E-03	1.246797E-04
3.758539E+03	2.608662E-03	1.246404E-04
3.768482E+03	2.635446E-03	1.251668E-04
3.778425E+03	2.674205E-03	1.262415E-04
3.788368E+03	2.723974E-03	1.278090E-04
3.798312E+03	2.782861E-03	1.297714E-04
3.808255E+03	2.848123E-03	1.319936E-04
3.818198E+03	2.916342E-03	1.343128E-04
3.828141E+03	2.983703E-03	1.365516E-04
3.838085E+03	3.046469E-03	1.385407E-04
3.848028E+03	3.101274E-03	1.401321E-04
3.857971E+03	3.145527E-03	1.412162E-04
3.867914E+03	3.177771E-03	1.417374E-04
3.877857E+03	3.197699E-03	1.416925E-04
3.887801E+03	3.206112E-03	1.411275E-04
3.897744E+03	3.204572E-03	1.401209E-04
3.907687E+03	3.195169E-03	1.387723E-04
3.917630E+03	3.179978E-03	1.371783E-04
3.927574E+03	3.160915E-03	1.354259E-04
3.937517E+03	3.139386E-03	1.335787E-04
3.947460E+03	3.116348E-03	1.316792E-04
3.957403E+03	3.092366E-03	1.297527E-04
3.967346E+03	3.067597E-03	1.278065E-04
3.977290E+03	3.042042E-03	1.258415E-04
3.987233E+03	3.015603E-03	1.238545E-04
3.997176E+03	2.988244E-03	1.218449E-04
4.007119E+03	2.960005E-03	1.198152E-04
4.017063E+03	2.931053E-03	1.177730E-04
4.027006E+03	2.901687E-03	1.157309E-04
4.036949E+03	2.872256E-03	1.137032E-04
4.046892E+03	2.843035E-03	1.117008E-04
4.056835E+03	2.814378E-03	1.097375E-04
4.066779E+03	2.786464E-03	1.078198E-04
4.076722E+03	2.759521E-03	1.059558E-04
4.086665E+03	2.733682E-03	1.041498E-04
4.096608E+03	2.709120E-03	1.024075E-04
4.106552E+03	2.685966E-03	1.007327E-04
4.116495E+03	2.664280E-03	9.912643E-05
4.126438E+03	2.643978E-03	9.758442E-05
4.136381E+03	2.624757E-03	9.609439E-05
4.146324E+03	2.606054E-03	9.463500E-05
4.156268E+03	2.587009E-03	9.317490E-05
4.166211E+03	2.566532E-03	9.167559E-05
4.176154E+03	2.543508E-03	9.009884E-05
4.186097E+03	2.516962E-03	8.841282E-05
4.196041E+03	2.486283E-03	8.659942E-05
4.205984E+03	2.451278E-03	8.465571E-05
4.215927E+03	2.412273E-03	8.259676E-05
4.225870E+03	2.369989E-03	8.045060E-05
4.235814E+03	2.325428E-03	7.825392E-05
4.245757E+03	2.279612E-03	7.604283E-05
4.255700E+03	2.233514E-03	7.385067E-05
4.265643E+03	2.188029E-03	7.170700E-05
4.275586E+03	2.143992E-03	6.963843E-05
4.285530E+03	2.102371E-03	6.767489E-05
4.295473E+03	2.064173E-03	6.584636E-05
4.305416E+03	2.030548E-03	6.418626E-05
4.315359E+03	2.002654E-03	6.272693E-05
4.325303E+03	1.981586E-03	6.149740E-05
4.335246E+03	1.968075E-03	6.051428E-05
4.345189E+03	1.962510E-03	5.978306E-05
4.355132E+03	1.964742E-03	5.929249E-05
4.365075E+03	1.974117E-03	5.901651E-05
4.375019E+03	1.989526E-03	5.891638E-05
4.384962E+03	2.009481E-03	5.894353E-05
4.394905E+03	2.032312E-03	5.904582E-05
4.404848E+03	2.056203E-03	5.916882E-05
4.414792E+03	2.079433E-03	5.926284E-05
4.424735E+03	2.100319E-03	5.928118E-05
4.434678E+03	2.117329E-03	5.918319E-05
4.444621E+03	2.129142E-03	5.893573E-05
4.454564E+03	2.134583E-03	5.851103E-05
4.464508E+03	2.132912E-03	5.789437E-05
4.474451E+03	2.123696E-03	5.707996E-05
4.484394E+03	2.107104E-03	5.607840E-05
4.494337E+03	2.083799E-03	5.491314E-05
4.504281E+03	2.054989E-03	5.362093E-05
4.514224E+03	2.022304E-03	5.224816E-05
4.524167E+03	1.987601E-03	5.084528E-05
4.534110E+03	1.952884E-03	4.946449E-05
4.544053E+03	1.919982E-03	4.815163E-05
4.553997E+03	1.890520E-03	4.694558E-05
4.563940E+03	1.865814E-03	4.587609E-05
4.573883E+03	1.846869E-03	4.496411E-05
4.583826E+03	1.834436E-03	4.422360E-05
4.593770E+03	1.829141E-03	4.366488E-05
4.603713E+03	1.831627E-03	4.329826E-05
4.613656E+03	1.842652E-03	4.313622E-05
4.623599E+03	1.863149E-03	4.319483E-05
4.633542E+03	1.894183E-03	4.349251E-05
4.643486E+03	1.936959E-03	4.405009E-05
4.653429E+03	1.992571E-03	4.488519E-05
4.663372E+03	2.061852E-03	4.600885E-05
4.673315E+03	2.145181E-03	4.742178E-05
4.683259E+03	2.242245E-03	4.910946E-05
4.693202E+03	2.351786E-03	5.103757E-05
4.703145E+03	2.471217E-03	5.314450E-05
4.713088E+03	2.596042E-03	5.533031E-05
4.723031E+03	2.719129E-03	5.744297E-05
4.732975E+03	2.830126E-03	5.926813E-05
4.742918E+03	2.915774E-03	6.053825E-05
4.752861E+03	2.962510E-03	6.098853E-05
4.762804E+03	2.963461E-03	6.049942E-05
4.772748E+03	2.924370E-03	5.921048E-05
4.782691E+03	2.856774E-03	5.737287E-05
4.792634E+03	2.772133E-03	5.522786E-05
4.802577E+03	2.679661E-03	5.296462E-05
4.812521E+03	2.585763E-03	5.071125E-05
4.822464E+03	2.494371E-03	4.854365E-05
4.832407E+03	2.407666E-03	4.650173E-05
4.842350E+03	2.326498E-03	4.459862E-05
4.852293E+03	2.250987E-03	4.283322E-05
4.862237E+03	2.180752E-03	4.119506E-05
4.872180E+03	2.115399E-03	3.967374E-05
4.882123E+03	2.054464E-03	3.825788E-05
4.892066E+03	1.997688E-03	3.694027E-05
4.902010E+03	1.944967E-03	3.571674E-05
4.911953E+03	1.896401E-03	3.458696E-05
4.921896E+03	1.852143E-03	3.355169E-05
4.931839E+03	1.812444E-03	3.261333E-05
4.941782E+03	1.777521E-03	3.177373E-05
4.951726E+03	1.747466E-03	3.103242E-05
4.961669E+03	1.722316E-03	3.038808E-05
4.971612E+03	1.702029E-03	2.983798E-05
4.981555E+03	1.686446E-03	2.937745E-05
4.991499E+03	1.675272E-03	2.899966E-05
5.001442E+03	1.668173E-03	2.869723E-05
5.011385E+03	1.664723E-03	2.846145E-05
5.021328E+03	1.664457E-03	2.828312E-05
5.031271E+03	1.666887E-03	2.815295E-05
5.041215E+03	1.671584E-03	2.806281E-05
5.051158E+03	1.678201E-03	2.800621E-05
5.061101E+03	1.686434E-03	2.797748E-05
5.071044E+03	1.696101E-03	2.797314E-05
5.080988E+03	1.707033E-03	2.798999E-05
5.090931E+03	1.719085E-03	2.802533E-05
5.100874E+03	1.732075E-03	2.807591E-05
5.110817E+03	1.745759E-03	2.813757E-05
5.120760E+03	1.759804E-03	2.820484E-05
5.130704E+03	1.773851E-03	2.827195E-05
5.140647E+03	1.787463E-03	2.833206E-05
5.150590E+03	1.800281E-03	2.837971E-05
5.160533E+03	1.811996E-03	2.841034E-05
5.170477E+03	1.822453E-03	2.842192E-05
5.180420E+03	1.831676E-03	2.841522E-05
5.190363E+03	1.839877E-03	2.839395E-05
5.200306E+03	1.847413E-03	2.836393E-05
5.210249E+03	1.854852E-03	2.833414E-05
5.220193E+03	1.862761E-03	2.831335E-05
5.230136E+03	1.871814E-03	2.831181E-05
5.240079E+03	1.882552E-03	2.833753E-05
5.250022E+03	1.895436E-03	2.839729E-05
5.259966E+03	1.910706E-03	2.849438E-05
5.269909E+03	1.928396E-03	2.862909E-05
5.279852E+03	1.948407E-03	2.879968E-05
5.289795E+03	1.970480E-03	2.900225E-05
5.299738E+03	1.994428E-03	2.923394E-05
5.309682E+03	2.020136E-03	2.949309E-05
5.319625E+03	2.047689E-03	2.978101E-05
5.329568E+03	2.077410E-03	3.010248E-05
5.339511E+03	2.109789E-03	3.046465E-05
5.349455E+03	2.145382E-03	3.087562E-05
5.359398E+03	2.184670E-03	3.134231E-05
5.369341E+03	2.228072E-03	3.187081E-05
5.379284E+03	2.275765E-03	3.246371E-05
5.389228E+03	2.327658E-03	3.311991E-05
5.399171E+03	2.383072E-03	3.383004E-05
5.409114E+03	2.440531E-03	3.457361E-05
5.419057E+03	2.496970E-03	3.530794E-05
5.429000E+03	2.547104E-03	3.595931E-05
5.438944E+03	2.582510E-03	3.641017E-05
5.448887E+03	2.592393E-03	3.650961E-05
5.458830E+03	2.567633E-03	3.613009E-05
5.468773E+03	2.506770E-03	3.525153E-05
5.478717E+03	2.416940E-03	3.397410E-05
5.488660E+03	2.310341E-03	3.246846E-05
5.498603E+03	2.198219E-03	3.089144E-05
5.508546E+03	2.088070E-03	2.934709E-05
5.518489E+03	1.984054E-03	2.789274E-05
5.528433E+03	1.887978E-03	2.655278E-05
5.538376E+03	1.800310E-03	2.533301E-05
5.548319E+03	1.720884E-03	2.423049E-05
5.558262E+03	1.649397E-03	2.324044E-05
5.568206E+03	1.585537E-03	2.235814E-05
5.578149E+03	1.528968E-03	2.157856E-05
5.588092E+03	1.479274E-03	2.089566E-05
5.598035E+03	1.435938E-03	2.030201E-05
5.607978E+03	1.398266E-03	1.978772E-05
5.617922E+03	1.365519E-03	1.934224E-05
5.627865E+03	1.336957E-03	1.895503E-05
5.637808E+03	1.311956E-03	1.861720E-05
5.647751E+03	1.290045E-03	1.832197E-05
5.657695E+03	1.270930E-03	1.806510E-05
5.667638E+03	1.254458E-03	1.784436E-05
5.677581E+03	1.240532E-03	1.765829E-05
5.687524E+03	1.229003E-03	1.750467E-05
5.697467E+03	1.219666E-03	1.738055E-05
5.707411E+03	1.212204E-03	1.728131E-05
5.717354E+03	1.206209E-03	1.720103E-05
5.727297E+03	1.201242E-03	1.713335E-05
5.737240E+03	1.196812E-03	1.707114E-05
5.747184E+03	1.192527E-03	1.700872E-05
5.757127E+03	1.188054E-03	1.694122E-05
5.767070E+03	1.183198E-03	1.686577E-05
5.777013E+03	1.177859E-03	1.678088E-05
5.786956E+03	1.172022E-03	1.668627E-05
5.796900E+03	1.165725E-03	1.658242E-05
5.806843E+03	1.159001E-03	1.646981E-05
5.816786E+03	1.151929E-03	1.634949E-05
5.826729E+03	1.144604E-03	1.622285E-05
5.836673E+03	1.137167E-03	1.609187E-05
5.846616E+03	1.129865E-03	1.596003E-05
5.856559E+03	1.122960E-03	1.583106E-05
5.866502E+03	1.116815E-03	1.570998E-05
5.876445E+03	1.111752E-03	1.560132E-05
5.886389E+03	1.108072E-03	1.550912E-05
5.896332E+03	1.105999E-03	1.543642E-05
5.906275E+03	1.105615E-03	1.538412E-05
5.916218E+03	1.106927E-03	1.535211E-05
5.926162E+03	1.109855E-03	1.533905E-05
5.936105E+03	1.114241E-03	1.534247E-05
5.946048E+03	1.119979E-03	1.536068E-05
5.955991E+03	1.127005E-03	1.539255E-05
5.965935E+03	1.135321E-03	1.543784E-05
5.975878E+03	1.145017E-03	1.549747E-05
5.985821E+03	1.156223E-03	1.557292E-05
5.995764E+03	1.169068E-03	1.566554E-05
6.005707E+03	1.183661E-03	1.577640E-05
6.015651E+03	1.200084E-03	1.590614E-05
6.025594E+03	1.218337E-03	1.605433E-05
6.035537E+03	1.238520E-03	1.622174E-05
6.045480E+03	1.260752E-03	1.640945E-05
6.055424E+03	1.285416E-03	1.662181E-05
6.065367E+03	1.313067E-03	1.686529E-05
6.075310E+03	1.344621E-03	1.715073E-05
6.085253E+03	1.381238E-03	1.749172E-05
6.095196E+03	1.424376E-03	1.790515E-05
6.105140E+03	1.475617E-03	1.840884E-05
6.115083E+03	1.536603E-03	1.902076E-05
6.125026E+03	1.608893E-03	1.975710E-05
6.134969E+03	1.693609E-03	2.062815E-05
6.144913E+03	1.791174E-03	2.163523E-05
6.154856E+03	1.900664E-03	2.276337E-05
6.164799E+03	2.019029E-03	2.397271E-05
6.174742E+03	2.140137E-03	2.518850E-05
6.184685E+03	2.254170E-03	2.629561E-05
6.194629E+03	2.348418E-03	2.714972E-05
6.204572E+03	2.412091E-03	2.763397E-05
6.214515E+03	2.441681E-03	2.771875E-05
6.224458E+03	2.441952E-03	2.746901E-05
6.234402E+03	2.423757E-03	2.701552E-05
6.244345E+03	2.398075E-03	2.648593E-05
6.254288E+03	2.373194E-03	2.597386E-05
6.264231E+03	2.354288E-03	2.553589E-05
6.274174E+03	2.343991E-03	2.519928E-05
6.284118E+03	2.343184E-03	2.497170E-05
6.294061E+03	2.351756E-03	2.485014E-05
6.304004E+03	2.368990E-03	2.482541E-05
6.313947E+03	2.394057E-03	2.488764E-05
6.323891E+03	2.426061E-03	2.502678E-05
6.333834E+03	2.464049E-03	2.523270E-05
6.343777E+03	2.506887E-03	2.549395E-05
6.353720E+03	2.553128E-03	2.579650E-05
6.363663E+03	2.600940E-03	2.612299E-05
6.373607E+03	2.648101E-03	2.645275E-05
6.383550E+03	2.692254E-03	2.676437E-05
6.393493E+03	2.731042E-03	2.703682E-05
6.403436E+03	2.762447E-03	2.725272E-05
6.413380E+03	2.784996E-03	2.740003E-05
6.423323E+03	2.797854E-03	2.747277E-05
6.433266E+03	2.801165E-03	2.747421E-05
6.443209E+03	2.795969E-03	2.741586E-05
6.453152E+03	2.784439E-03	2.731982E-05
6.463096E+03	2.769782E-03	2.721797E-05
6.473039E+03	2.756043E-03	2.715028E-05
6.482982E+03	2.746018E-03	2.714399E-05
6.492925E+03	2.736630E-03	2.716776E-05
6.502869E+03	2.726500E-03	2.720673E-05
6.512812E+03	2.721384E-03	2.731725E-05
6.522755E+03	2.720275E-03	2.748888E-05
6.532698E+03	2.719741E-03	2.768634E-05
6.542642E+03	2.716644E-03	2.787643E-05
6.552585E+03	2.708663E-03	2.803331E-05
6.562528E+03	2.694342E-03	2.813917E-05
6.572471E+03	2.673443E-03	2.818834E-05
6.582414E+03	2.646523E-03	2.818329E-05
6.592358E+03	2.614992E-03	2.813580E-05
6.602301E+03	2.580366E-03	2.805932E-05
6.612244E+03	2.544200E-03	2.796841E-05
6.622187E+03	2.507691E-03	2.787441E-05
6.632131E+03	2.471603E-03	2.778447E-05
6.642074E+03	2.436436E-03	2.770319E-05
6.652017E+03	2.402350E-03	2.763161E-05
6.661960E+03	2.369388E-03	2.756963E-05
6.671903E+03	2.337541E-03	2.751659E-05
6.681847E+03	2.306639E-03	2.747003E-05
6.691790E+03	2.276413E-03	2.742630E-05
6.701733E+03	2.246601E-03	2.738173E-05
6.711676E+03	2.216664E-03	2.732916E-05
6.721620E+03	2.186085E-03	2.726146E-05
6.731563E+03	2.154244E-03	2.716998E-05
6.741506E+03	2.120471E-03	2.704511E-05
6.751449E+03	2.084194E-03	2.687821E-05
6.761392E+03	2.044997E-03	2.666237E-05
6.771336E+03	2.002773E-03	2.639458E-05
6.781279E+03	1.957720E-03	2.607591E-05
6.791222E+03	1.910479E-03	2.571356E-05
6.801165E+03	1.862190E-03	2.532193E-05
6.811109E+03	1.814280E-03	2.492004E-05
6.821052E+03	1.768343E-03	2.453007E-05
6.830995E+03	1.725893E-03	2.417397E-05
6.840938E+03	1.688214E-03	2.387130E-05
6.850881E+03	1.656181E-03	2.363640E-05
6.860825E+03	1.630038E-03	2.347500E-05
6.870768E+03	1.609469E-03	2.338476E-05
6.880711E+03	1.593641E-03	2.335560E-05
6.890654E+03	1.581393E-03	2.337207E-05
6.900598E+03	1.571464E-03	2.341667E-05
6.910541E+03	1.562716E-03	2.347307E-05
6.920484E+03	1.554234E-03	2.352781E-05
6.930427E+03	1.545447E-03	2.357220E-05
6.940370E+03	1.536100E-03	2.360220E-05
6.950314E+03	1.526128E-03	2.361655E-05
6.960257E+03	1.515539E-03	2.361521E-05
6.970200E+03	1.504512E-03	2.360076E-05
6.980143E+03	1.493123E-03	2.357430E-05
6.990087E+03	1.481433E-03	2.353668E-05
7.000030E+03	1.469411E-03	2.348739E-05
7.009973E+03	1.457027E-03	2.342589E-05
7.019916E+03	1.444176E-03	2.335043E-05
7.029860E+03	1.430715E-03	2.325863E-05
7.039803E+03	1.416441E-03	2.314708E-05
7.049746E+03	1.401164E-03	2.301257E-05
7.059689E+03	1.384720E-03	2.285224E-05
7.069632E+03	1.366929E-03	2.266296E-05
7.079576E+03	1.347699E-03	2.244305E-05
7.089519E+03	1.327168E-03	2.219460E-05
7.099462E+03	1.305570E-03	2.192150E-05
7.109405E+03	1.283353E-03	2.163127E-05
7.119349E+03	1.261082E-03	2.133352E-05
7.129292E+03	1.239427E-03	2.103983E-05
7.139235E+03	1.218986E-03	2.076070E-05
7.149178E+03	1.200203E-03	2.050409E-05
7.159121E+03	1.183381E-03	2.027567E-05
7.169065E+03	1.168697E-03	2.007893E-05
7.179008E+03	1.156161E-03	1.991448E-05
7.188951E+03	1.145749E-03	1.978233E-05
7.198894E+03	1.137423E-03	1.968220E-05
7.208838E+03	1.131148E-03	1.961385E-05
7.218781E+03	1.126864E-03	1.957652E-05
7.228724E+03	1.124543E-03	1.957001E-05
7.238667E+03	1.124022E-03	1.959171E-05
7.248610E+03	1.125039E-03	1.963724E-05
7.258554E+03	1.127379E-03	1.970301E-05
7.268497E+03	1.130637E-03	1.978205E-05
7.278440E+03	1.134510E-03	1.986913E-05
7.288383E+03	1.138636E-03	1.995799E-05
7.298327E+03	1.142730E-03	2.004365E-05
7.308270E+03	1.146554E-03	2.012198E-05
7.318213E+03	1.149979E-03	2.019077E-05
7.328156E+03	1.152975E-03	2.024951E-05
7.338099E+03	1.155596E-03	2.029921E-05
7.348043E+03	1.157917E-03	2.034124E-05
7.357986E+03	1.160146E-03	2.037935E-05
7.367929E+03	1.162466E-03	2.041681E-05
7.377872E+03	1.165119E-03	2.045794E-05
7.387816E+03	1.168374E-03	2.050755E-05
7.397759E+03	1.172571E-03	2.057169E-05
7.407702E+03	1.178035E-03	2.065610E-05
7.417645E+03	1.185139E-03	2.076737E-05
7.427588E+03	1.194246E-03	2.091188E-05
7.437532E+03	1.205616E-03	2.109417E-05
7.447475E+03	1.219511E-03	2.131883E-05
7.457418E+03	1.236130E-03	2.158928E-05
7.467361E+03	1.255401E-03	2.190419E-05
7.477305E+03	1.277097E-03	2.225957E-05
7.487248E+03	1.300555E-03	2.264375E-05
7.497191E+03	1.324624E-03	2.303665E-05
7.507134E+03	1.347610E-03	2.340882E-05
7.517077E+03	1.367315E-03	2.372221E-05
7.527021E+03	1.381192E-03	2.393295E-05
7.536964E+03	1.386463E-03	2.399339E-05
7.546907E+03	1.380541E-03	2.385952E-05
7.556850E+03	1.361396E-03	2.349715E-05
7.566794E+03	1.328645E-03	2.290070E-05
7.576737E+03	1.284712E-03	2.211299E-05
7.586680E+03	1.234574E-03	2.122052E-05
7.596623E+03	1.184291E-03	2.032785E-05
7.606567E+03	1.138689E-03	1.951783E-05
7.616510E+03	1.100368E-03	1.883470E-05
7.626453E+03	1.069901E-03	1.828786E-05
7.636396E+03	1.046345E-03	1.786071E-05
7.646339E+03	1.028072E-03	1.752511E-05
7.656283E+03	1.013205E-03	1.724880E-05
7.666226E+03	1.000204E-03	1.700548E-05
7.676169E+03	9.879636E-04	1.677633E-05
7.686112E+03	9.759408E-04	1.655217E-05
7.696056E+03	9.639895E-04	1.633058E-05
7.705999E+03	9.522355E-04	1.611379E-05
7.715942E+03	9.409084E-04	1.590572E-05
