#wls	flux	fluxerr
1.590916E+03	5.879785E-05	4.499323E-06
1.630689E+03	5.653765E-05	4.293214E-06
1.670462E+03	5.432734E-05	4.092819E-06
1.710235E+03	5.219070E-05	3.899904E-06
1.750007E+03	5.014969E-05	3.716036E-06
1.789780E+03	4.819754E-05	3.540611E-06
1.829553E+03	4.637270E-05	3.376329E-06
1.869326E+03	4.466740E-05	3.222448E-06
1.909099E+03	4.309149E-05	3.079498E-06
1.948872E+03	4.166886E-05	2.948964E-06
1.988645E+03	4.040554E-05	2.831006E-06
2.028418E+03	3.929285E-05	2.724733E-06
2.068191E+03	3.835777E-05	2.631713E-06
2.107964E+03	3.759815E-05	2.551446E-06
2.147736E+03	3.701987E-05	2.483962E-06
2.187509E+03	3.663645E-05	2.429765E-06
2.227282E+03	3.645677E-05	2.388999E-06
2.267055E+03	3.649273E-05	2.361957E-06
2.306828E+03	3.676622E-05	2.349517E-06
2.346601E+03	3.730388E-05	2.352762E-06
2.386374E+03	3.812584E-05	2.372264E-06
2.426147E+03	3.927789E-05	2.410078E-06
2.465920E+03	4.079536E-05	2.467441E-06
2.505692E+03	4.274236E-05	2.547155E-06
2.545465E+03	4.518173E-05	2.651688E-06
2.585238E+03	4.820352E-05	2.784816E-06
2.625011E+03	5.189239E-05	2.949637E-06
2.664784E+03	5.637261E-05	3.151105E-06
2.704557E+03	6.178296E-05	3.394448E-06
2.744330E+03	6.828651E-05	3.685616E-06
2.784103E+03	7.608365E-05	4.031843E-06
2.823876E+03	8.538559E-05	4.440067E-06
2.863649E+03	9.646705E-05	4.919546E-06
2.903421E+03	1.096143E-04	5.478932E-06
2.943194E+03	1.251681E-04	6.128302E-06
2.982967E+03	1.434613E-04	6.875870E-06
2.992910E+03	1.484992E-04	7.078814E-06
3.002854E+03	1.537409E-04	7.288725E-06
3.012797E+03	1.591910E-04	7.505664E-06
3.022740E+03	1.648543E-04	7.729679E-06
3.032683E+03	1.707160E-04	7.959919E-06
3.042627E+03	1.767980E-04	8.197223E-06
3.052570E+03	1.831232E-04	8.442482E-06
3.062513E+03	1.896555E-04	8.693834E-06
3.072456E+03	1.964370E-04	8.953037E-06
3.082399E+03	2.034280E-04	9.218089E-06
3.092343E+03	2.106714E-04	9.490748E-06
3.102286E+03	2.181234E-04	9.768855E-06
3.112229E+03	2.258271E-04	1.005416E-05
3.122172E+03	2.337816E-04	1.034641E-05
3.132116E+03	2.419607E-04	1.064425E-05
3.142059E+03	2.503593E-04	1.094729E-05
3.152002E+03	2.589706E-04	1.125505E-05
3.161945E+03	2.678124E-04	1.156812E-05
3.171889E+03	2.768764E-04	1.188596E-05
3.181832E+03	2.861524E-04	1.220798E-05
3.191775E+03	2.956010E-04	1.253231E-05
3.201718E+03	3.052345E-04	1.285935E-05
3.211661E+03	3.150369E-04	1.318827E-05
3.221605E+03	3.249605E-04	1.351697E-05
3.231548E+03	3.350430E-04	1.384690E-05
3.241491E+03	3.452328E-04	1.417582E-05
3.251434E+03	3.555051E-04	1.450266E-05
3.261378E+03	3.658330E-04	1.482624E-05
3.271321E+03	3.762194E-04	1.514666E-05
3.281264E+03	3.866023E-04	1.546140E-05
3.291207E+03	3.969493E-04	1.576918E-05
3.301150E+03	4.072594E-04	1.607000E-05
3.311094E+03	4.174987E-04	1.636258E-05
3.321037E+03	4.275982E-04	1.664431E-05
3.330980E+03	4.375558E-04	1.691522E-05
3.340923E+03	4.473358E-04	1.717408E-05
3.350867E+03	4.569376E-04	1.742103E-05
3.360810E+03	4.662574E-04	1.765229E-05
3.370753E+03	4.752967E-04	1.786817E-05
3.380696E+03	4.840596E-04	1.806907E-05
3.390639E+03	4.924820E-04	1.825285E-05
3.400583E+03	5.005738E-04	1.842018E-05
3.410526E+03	5.082768E-04	1.856920E-05
3.420469E+03	5.156080E-04	1.870088E-05
3.430412E+03	5.225529E-04	1.881501E-05
3.440356E+03	5.291017E-04	1.891158E-05
3.450299E+03	5.352134E-04	1.898946E-05
3.460242E+03	5.409589E-04	1.905152E-05
3.470185E+03	5.463072E-04	1.909701E-05
3.480128E+03	5.513029E-04	1.912780E-05
3.490072E+03	5.559255E-04	1.914349E-05
3.500015E+03	5.602295E-04	1.914628E-05
3.509958E+03	5.642394E-04	1.913725E-05
3.519901E+03	5.679503E-04	1.911652E-05
3.529845E+03	5.714615E-04	1.908765E-05
3.539788E+03	5.747343E-04	1.904954E-05
3.549731E+03	5.778587E-04	1.900538E-05
3.559674E+03	5.808214E-04	1.895487E-05
3.569617E+03	5.836768E-04	1.889991E-05
3.579561E+03	5.864493E-04	1.884142E-05
3.589504E+03	5.891363E-04	1.877938E-05
3.599447E+03	5.918022E-04	1.871589E-05
3.609390E+03	5.945143E-04	1.865306E-05
3.619334E+03	5.972510E-04	1.859020E-05
3.629277E+03	6.001173E-04	1.853053E-05
3.639220E+03	6.031602E-04	1.847538E-05
3.649163E+03	6.064015E-04	1.842528E-05
3.659107E+03	6.098972E-04	1.838177E-05
3.669050E+03	6.137642E-04	1.834816E-05
3.678993E+03	6.180366E-04	1.832520E-05
3.688936E+03	6.227804E-04	1.831452E-05
3.698879E+03	6.280662E-04	1.831784E-05
3.708823E+03	6.339943E-04	1.833769E-05
3.718766E+03	6.406130E-04	1.837498E-05
3.728709E+03	6.480276E-04	1.843222E-05
3.738652E+03	6.563162E-04	1.851105E-05
3.748596E+03	6.655599E-04	1.861313E-05
3.758539E+03	6.758107E-04	1.873923E-05
3.768482E+03	6.872270E-04	1.889301E-05
3.778425E+03	6.998038E-04	1.907353E-05
3.788368E+03	7.136654E-04	1.928334E-05
3.798312E+03	7.288495E-04	1.952259E-05
3.808255E+03	7.454387E-04	1.979257E-05
3.818198E+03	7.634798E-04	2.009355E-05
3.828141E+03	7.829758E-04	2.042465E-05
3.838085E+03	8.039970E-04	2.078672E-05
3.848028E+03	8.264818E-04	2.117716E-05
3.857971E+03	8.504564E-04	2.159570E-05
3.867914E+03	8.758045E-04	2.203843E-05
3.877857E+03	9.024891E-04	2.250357E-05
3.887801E+03	9.303478E-04	2.298625E-05
3.897744E+03	9.591991E-04	2.348132E-05
3.907687E+03	9.888378E-04	2.398321E-05
3.917630E+03	1.018936E-03	2.448361E-05
3.927574E+03	1.049127E-03	2.497355E-05
3.937517E+03	1.078961E-03	2.544253E-05
3.947460E+03	1.107941E-03	2.587923E-05
3.957403E+03	1.135428E-03	2.626961E-05
3.967346E+03	1.160775E-03	2.659992E-05
3.977290E+03	1.183359E-03	2.685756E-05
3.987233E+03	1.202649E-03	2.703253E-05
3.997176E+03	1.218231E-03	2.711791E-05
4.007119E+03	1.229841E-03	2.711039E-05
4.017063E+03	1.237391E-03	2.701072E-05
4.027006E+03	1.240902E-03	2.682208E-05
4.036949E+03	1.240521E-03	2.655030E-05
4.046892E+03	1.236495E-03	2.620313E-05
4.056835E+03	1.229041E-03	2.578754E-05
4.066779E+03	1.218533E-03	2.531345E-05
4.076722E+03	1.205392E-03	2.479149E-05
4.086665E+03	1.190087E-03	2.423287E-05
4.096608E+03	1.173193E-03	2.365052E-05
4.106552E+03	1.155335E-03	2.305787E-05
4.116495E+03	1.137217E-03	2.246943E-05
4.126438E+03	1.119473E-03	2.189775E-05
4.136381E+03	1.102690E-03	2.135397E-05
4.146324E+03	1.087418E-03	2.084808E-05
4.156268E+03	1.074029E-03	2.038624E-05
4.166211E+03	1.062837E-03	1.997333E-05
4.176154E+03	1.053995E-03	1.961096E-05
4.186097E+03	1.047648E-03	1.930055E-05
4.196041E+03	1.043858E-03	1.904191E-05
4.205984E+03	1.042659E-03	1.883439E-05
4.215927E+03	1.044102E-03	1.867762E-05
4.225870E+03	1.048225E-03	1.857103E-05
4.235814E+03	1.055101E-03	1.851470E-05
4.245757E+03	1.064809E-03	1.850878E-05
4.255700E+03	1.077460E-03	1.855404E-05
4.265643E+03	1.093102E-03	1.865016E-05
4.275586E+03	1.111734E-03	1.879598E-05
4.285530E+03	1.133107E-03	1.898635E-05
4.295473E+03	1.156739E-03	1.921242E-05
4.305416E+03	1.181754E-03	1.945922E-05
4.315359E+03	1.206724E-03	1.970332E-05
4.325303E+03	1.229872E-03	1.991645E-05
4.335246E+03	1.249016E-03	2.006480E-05
4.345189E+03	1.261963E-03	2.011540E-05
4.355132E+03	1.266827E-03	2.004108E-05
4.365075E+03	1.262628E-03	1.982960E-05
4.375019E+03	1.249752E-03	1.949021E-05
4.384962E+03	1.229953E-03	1.905291E-05
4.394905E+03	1.205683E-03	1.855741E-05
4.404848E+03	1.179645E-03	1.804618E-05
4.414792E+03	1.154301E-03	1.755683E-05
4.424735E+03	1.131808E-03	1.712151E-05
4.434678E+03	1.113911E-03	1.676544E-05
4.444621E+03	1.102026E-03	1.650820E-05
4.454564E+03	1.097206E-03	1.636383E-05
4.464508E+03	1.100269E-03	1.634274E-05
4.474451E+03	1.111837E-03	1.645246E-05
4.484394E+03	1.132424E-03	1.669905E-05
4.494337E+03	1.162380E-03	1.708627E-05
4.504281E+03	1.201888E-03	1.761555E-05
4.514224E+03	1.250888E-03	1.828498E-05
4.524167E+03	1.308871E-03	1.908624E-05
4.534110E+03	1.374836E-03	2.000410E-05
4.544053E+03	1.447108E-03	2.101374E-05
4.553997E+03	1.523337E-03	2.208085E-05
4.563940E+03	1.600492E-03	2.316147E-05
4.573883E+03	1.675211E-03	2.420714E-05
4.583826E+03	1.744086E-03	2.516891E-05
4.593770E+03	1.803953E-03	2.600151E-05
4.603713E+03	1.852282E-03	2.666887E-05
4.613656E+03	1.887433E-03	2.714770E-05
4.623599E+03	1.908770E-03	2.742916E-05
4.633542E+03	1.916749E-03	2.751997E-05
4.643486E+03	1.912778E-03	2.744044E-05
4.653429E+03	1.898887E-03	2.721967E-05
4.663372E+03	1.877399E-03	2.689087E-05
4.673315E+03	1.850567E-03	2.648615E-05
4.683259E+03	1.820251E-03	2.603191E-05
4.693202E+03	1.787815E-03	2.554746E-05
4.703145E+03	1.753965E-03	2.504265E-05
4.713088E+03	1.718879E-03	2.451982E-05
4.723031E+03	1.682561E-03	2.397888E-05
4.732975E+03	1.644900E-03	2.341813E-05
4.742918E+03	1.605763E-03	2.283557E-05
4.752861E+03	1.564976E-03	2.222876E-05
4.762804E+03	1.522439E-03	2.159628E-05
4.772748E+03	1.478032E-03	2.093652E-05
4.782691E+03	1.431751E-03	2.024957E-05
4.792634E+03	1.383691E-03	1.953699E-05
4.802577E+03	1.334208E-03	1.880401E-05
4.812521E+03	1.284114E-03	1.806233E-05
4.822464E+03	1.234624E-03	1.732924E-05
4.832407E+03	1.187310E-03	1.662689E-05
4.842350E+03	1.143894E-03	1.597937E-05
4.852293E+03	1.106153E-03	1.541126E-05
4.862237E+03	1.075869E-03	1.494686E-05
4.872180E+03	1.054798E-03	1.460975E-05
4.882123E+03	1.044649E-03	1.442249E-05
4.892066E+03	1.047079E-03	1.440639E-05
4.902010E+03	1.063565E-03	1.457989E-05
4.911953E+03	1.095239E-03	1.495609E-05
4.921896E+03	1.142949E-03	1.554385E-05
4.931839E+03	1.207035E-03	1.634459E-05
4.941782E+03	1.286965E-03	1.734771E-05
4.951726E+03	1.380992E-03	1.852610E-05
4.961669E+03	1.485681E-03	1.983034E-05
4.971612E+03	1.595496E-03	2.118384E-05
4.981555E+03	1.702941E-03	2.248554E-05
4.991499E+03	1.799438E-03	2.362242E-05
5.001442E+03	1.876749E-03	2.448865E-05
5.011385E+03	1.928300E-03	2.500290E-05
5.021328E+03	1.950685E-03	2.512721E-05
5.031271E+03	1.944556E-03	2.487725E-05
5.041215E+03	1.914403E-03	2.431769E-05
5.051158E+03	1.867534E-03	2.354754E-05
5.061101E+03	1.812918E-03	2.268421E-05
5.071044E+03	1.759512E-03	2.184167E-05
5.080988E+03	1.714774E-03	2.111193E-05
5.090931E+03	1.684082E-03	2.055847E-05
5.100874E+03	1.670815E-03	2.021815E-05
5.110817E+03	1.676338E-03	2.010201E-05
5.120760E+03	1.699974E-03	2.019596E-05
5.130704E+03	1.739349E-03	2.046606E-05
5.140647E+03	1.790817E-03	2.086437E-05
5.150590E+03	1.849528E-03	2.133071E-05
5.160533E+03	1.909872E-03	2.179838E-05
5.170477E+03	1.966522E-03	2.220660E-05
5.180420E+03	2.015171E-03	2.250866E-05
5.190363E+03	2.053213E-03	2.267883E-05
5.200306E+03	2.079814E-03	2.271217E-05
5.210249E+03	2.096169E-03	2.262622E-05
5.220193E+03	2.105031E-03	2.245459E-05
5.230136E+03	2.109814E-03	2.223659E-05
5.240079E+03	2.114174E-03	2.201234E-05
5.250022E+03	2.121423E-03	2.181659E-05
5.259966E+03	2.134295E-03	2.167660E-05
5.269909E+03	2.154508E-03	2.160806E-05
5.279852E+03	2.182750E-03	2.161568E-05
5.289795E+03	2.218490E-03	2.169203E-05
5.299738E+03	2.259758E-03	2.181616E-05
5.309682E+03	2.303536E-03	2.195830E-05
5.319625E+03	2.346274E-03	2.208522E-05
5.329568E+03	2.384282E-03	2.216425E-05
5.339511E+03	2.414288E-03	2.216831E-05
5.349455E+03	2.433768E-03	2.207857E-05
5.359398E+03	2.441351E-03	2.188752E-05
5.369341E+03	2.436645E-03	2.159673E-05
5.379284E+03	2.420028E-03	2.121435E-05
5.389228E+03	2.392383E-03	2.075244E-05
5.399171E+03	2.355157E-03	2.022720E-05
5.409114E+03	2.310448E-03	1.965944E-05
5.419057E+03	2.261072E-03	1.907497E-05
5.429000E+03	2.210851E-03	1.850689E-05
5.438944E+03	2.164938E-03	1.799813E-05
5.448887E+03	2.129442E-03	1.759835E-05
5.458830E+03	2.109799E-03	1.735077E-05
5.468773E+03	2.108895E-03	1.727747E-05
5.478717E+03	2.126353E-03	1.737442E-05
5.488660E+03	2.158724E-03	1.761346E-05
5.498603E+03	2.199580E-03	1.794239E-05
5.508546E+03	2.240047E-03	1.828905E-05
5.518489E+03	2.269822E-03	1.856928E-05
5.528433E+03	2.278955E-03	1.870061E-05
5.538376E+03	2.259703E-03	1.861683E-05
5.548319E+03	2.207745E-03	1.827776E-05
5.558262E+03	2.123103E-03	1.767732E-05
5.568206E+03	2.010125E-03	1.684446E-05
5.578149E+03	1.876320E-03	1.583482E-05
5.588092E+03	1.730824E-03	1.471907E-05
5.598035E+03	1.582740E-03	1.356984E-05
5.607978E+03	1.439697E-03	1.244968E-05
5.617922E+03	1.306940E-03	1.140297E-05
5.627865E+03	1.187267E-03	1.045468E-05
5.637808E+03	1.081761E-03	9.615907E-06
5.647751E+03	9.904936E-04	8.889526E-06
5.657695E+03	9.130127E-04	8.274073E-06
5.667638E+03	8.487299E-04	7.766999E-06
5.677581E+03	7.970961E-04	7.366155E-06
5.687524E+03	7.577579E-04	7.071214E-06
5.697467E+03	7.305297E-04	6.883426E-06
5.707411E+03	7.153259E-04	6.805010E-06
5.717354E+03	7.121958E-04	6.839482E-06
5.727297E+03	7.214094E-04	6.992512E-06
5.737240E+03	7.435821E-04	7.273196E-06
5.747184E+03	7.797396E-04	7.694820E-06
5.757127E+03	8.314057E-04	8.275857E-06
5.767070E+03	9.006670E-04	9.040783E-06
5.777013E+03	9.901535E-04	1.002005E-05
5.786956E+03	1.102904E-03	1.124886E-05
5.796900E+03	1.241843E-03	1.276184E-05
5.806843E+03	1.409068E-03	1.458551E-05
5.816786E+03	1.605124E-03	1.673033E-05
5.826729E+03	1.828216E-03	1.918181E-05
5.836673E+03	2.073586E-03	2.189310E-05
5.846616E+03	2.332937E-03	2.477794E-05
5.856559E+03	2.594789E-03	2.771361E-05
5.866502E+03	2.845482E-03	3.055100E-05
5.876445E+03	3.070654E-03	3.313044E-05
5.886389E+03	3.256816E-03	3.529908E-05
5.896332E+03	3.393385E-03	3.693370E-05
5.906275E+03	3.474346E-03	3.796009E-05
5.916218E+03	3.499190E-03	3.836459E-05
5.926162E+03	3.472993E-03	3.819617E-05
5.936105E+03	3.405059E-03	3.755233E-05
5.946048E+03	3.306629E-03	3.655422E-05
5.955991E+03	3.188943E-03	3.532500E-05
5.965935E+03	3.061861E-03	3.397408E-05
5.975878E+03	2.932571E-03	3.258230E-05
5.985821E+03	2.805439E-03	3.119962E-05
5.995764E+03	2.682872E-03	2.985442E-05
6.005707E+03	2.566552E-03	2.856699E-05
6.015651E+03	2.458112E-03	2.735700E-05
6.025594E+03	2.359202E-03	2.624408E-05
6.035537E+03	2.271191E-03	2.524456E-05
6.045480E+03	2.195343E-03	2.437329E-05
6.055424E+03	2.132452E-03	2.363958E-05
6.065367E+03	2.082837E-03	2.304714E-05
6.075310E+03	2.046221E-03	2.259280E-05
6.085253E+03	2.021675E-03	2.226592E-05
6.095196E+03	2.007583E-03	2.204820E-05
6.105140E+03	2.001663E-03	2.191401E-05
6.115083E+03	2.001226E-03	2.183342E-05
6.125026E+03	2.003850E-03	2.177972E-05
6.134969E+03	2.007794E-03	2.173390E-05
6.144913E+03	2.012386E-03	2.168876E-05
6.154856E+03	2.018450E-03	2.165329E-05
6.164799E+03	2.028581E-03	2.165524E-05
6.174742E+03	2.046503E-03	2.173376E-05
6.184685E+03	2.076056E-03	2.192836E-05
6.194629E+03	2.120605E-03	2.227256E-05
6.204572E+03	2.182760E-03	2.279110E-05
6.214515E+03	2.263920E-03	2.349535E-05
6.224458E+03	2.363788E-03	2.437879E-05
6.234402E+03	2.480144E-03	2.541517E-05
6.244345E+03	2.608497E-03	2.655576E-05
6.254288E+03	2.741944E-03	2.772870E-05
6.264231E+03	2.871647E-03	2.884471E-05
6.274174E+03	2.988445E-03	2.981387E-05
6.284118E+03	3.084567E-03	3.056277E-05
6.294061E+03	3.154639E-03	3.104382E-05
6.304004E+03	3.196729E-03	3.124467E-05
6.313947E+03	3.212446E-03	3.118780E-05
6.323891E+03	3.206012E-03	3.092039E-05
6.333834E+03	3.182250E-03	3.049415E-05
6.343777E+03	3.145551E-03	2.995525E-05
6.353720E+03	3.099493E-03	2.934094E-05
6.363663E+03	3.047461E-03	2.868562E-05
6.373607E+03	2.992643E-03	2.802093E-05
6.383550E+03	2.938100E-03	2.737655E-05
6.393493E+03	2.886942E-03	2.678197E-05
6.403436E+03	2.841929E-03	2.626290E-05
6.413380E+03	2.805212E-03	2.583914E-05
6.423323E+03	2.777374E-03	2.551599E-05
6.433266E+03	2.757251E-03	2.528293E-05
6.443209E+03	2.742691E-03	2.512069E-05
6.453152E+03	2.731772E-03	2.501244E-05
6.463096E+03	2.723581E-03	2.495068E-05
6.473039E+03	2.718097E-03	2.493619E-05
6.482982E+03	2.716229E-03	2.497831E-05
6.492925E+03	2.718326E-03	2.508142E-05
6.502869E+03	2.721440E-03	2.521901E-05
6.512812E+03	2.719534E-03	2.533441E-05
6.522755E+03	2.707294E-03	2.537613E-05
6.532698E+03	2.682149E-03	2.531688E-05
6.542642E+03	2.644644E-03	2.515767E-05
6.552585E+03	2.598663E-03	2.493116E-05
6.562528E+03	2.550123E-03	2.469050E-05
6.572471E+03	2.505415E-03	2.449542E-05
6.582414E+03	2.470327E-03	2.440227E-05
6.592358E+03	2.449342E-03	2.445703E-05
6.602301E+03	2.445218E-03	2.469068E-05
6.612244E+03	2.458584E-03	2.511423E-05
6.622187E+03	2.487921E-03	2.571731E-05
6.632131E+03	2.529461E-03	2.646572E-05
6.642074E+03	2.577080E-03	2.729868E-05
6.652017E+03	2.623161E-03	2.813640E-05
6.661960E+03	2.660371E-03	2.889807E-05
6.671903E+03	2.682904E-03	2.951555E-05
6.681847E+03	2.687049E-03	2.994061E-05
6.691790E+03	2.670988E-03	3.014408E-05
6.701733E+03	2.634793E-03	3.011715E-05
6.711676E+03	2.580093E-03	2.986897E-05
6.721620E+03	2.509913E-03	2.942590E-05
6.731563E+03	2.428073E-03	2.882560E-05
6.741506E+03	2.338777E-03	2.811258E-05
6.751449E+03	2.245997E-03	2.733115E-05
6.761392E+03	2.152872E-03	2.651785E-05
6.771336E+03	2.061909E-03	2.570329E-05
6.781279E+03	1.974773E-03	2.490906E-05
6.791222E+03	1.892483E-03	2.414959E-05
6.801165E+03	1.815552E-03	2.343345E-05
6.811109E+03	1.744234E-03	2.276616E-05
6.821052E+03	1.678728E-03	2.215275E-05
6.830995E+03	1.619104E-03	2.159661E-05
6.840938E+03	1.565505E-03	2.110218E-05
6.850881E+03	1.518057E-03	2.067374E-05
6.860825E+03	1.476987E-03	2.031701E-05
6.870768E+03	1.442694E-03	2.004019E-05
6.880711E+03	1.415840E-03	1.985533E-05
6.890654E+03	1.397335E-03	1.977827E-05
6.900598E+03	1.388459E-03	1.983052E-05
6.910541E+03	1.390934E-03	2.004050E-05
6.920484E+03	1.406794E-03	2.044186E-05
6.930427E+03	1.438303E-03	2.107241E-05
6.940370E+03	1.487780E-03	2.197165E-05
6.950314E+03	1.557524E-03	2.317949E-05
6.960257E+03	1.649313E-03	2.472879E-05
6.970200E+03	1.763968E-03	2.663828E-05
6.980143E+03	1.901038E-03	2.890724E-05
6.990087E+03	2.058733E-03	3.151384E-05
7.000030E+03	2.233553E-03	3.440865E-05
7.009973E+03	2.420119E-03	3.751137E-05
7.019916E+03	2.611198E-03	4.071046E-05
7.029860E+03	2.797882E-03	4.386523E-05
7.039803E+03	2.970121E-03	4.681394E-05
7.049746E+03	3.117480E-03	4.938553E-05
7.059689E+03	3.230317E-03	5.141877E-05
7.069632E+03	3.301062E-03	5.278324E-05
7.079576E+03	3.326058E-03	5.341012E-05
7.089519E+03	3.306407E-03	5.330733E-05
7.099462E+03	3.247642E-03	5.255590E-05
7.109405E+03	3.158631E-03	5.129330E-05
7.119349E+03	3.050205E-03	4.969184E-05
7.129292E+03	2.933552E-03	4.793249E-05
7.139235E+03	2.818733E-03	4.618022E-05
7.149178E+03	2.713859E-03	4.456984E-05
7.159121E+03	2.624947E-03	4.320281E-05
7.169065E+03	2.556202E-03	4.215120E-05
7.179008E+03	2.510012E-03	4.145715E-05
7.188951E+03	2.487770E-03	4.114608E-05
7.198894E+03	2.490261E-03	4.123280E-05
7.208838E+03	2.517892E-03	4.172534E-05
7.218781E+03	2.570618E-03	4.262361E-05
7.228724E+03	2.647676E-03	4.391488E-05
7.238667E+03	2.746944E-03	4.556332E-05
7.248610E+03	2.864702E-03	4.750590E-05
7.258554E+03	2.995240E-03	4.964619E-05
7.268497E+03	3.130369E-03	5.184645E-05
7.278440E+03	3.259786E-03	5.393422E-05
7.288383E+03	3.371845E-03	5.571561E-05
7.298327E+03	3.455093E-03	5.700127E-05
7.308270E+03	3.499810E-03	5.763227E-05
7.318213E+03	3.500376E-03	5.751920E-05
7.328156E+03	3.456549E-03	5.666271E-05
7.338099E+03	3.373159E-03	5.514763E-05
7.348043E+03	3.258798E-03	5.312038E-05
7.357986E+03	3.124127E-03	5.076023E-05
7.367929E+03	2.979953E-03	4.824718E-05
7.377872E+03	2.835140E-03	4.572783E-05
7.387816E+03	2.695832E-03	4.330292E-05
7.397759E+03	2.565609E-03	4.103053E-05
7.407702E+03	2.445974E-03	3.893443E-05
7.417645E+03	2.336541E-03	3.700775E-05
7.427588E+03	2.235928E-03	3.522778E-05
7.437532E+03	2.142184E-03	3.356315E-05
7.447475E+03	2.053290E-03	3.198184E-05
7.457418E+03	1.967330E-03	3.045410E-05
7.467361E+03	1.882994E-03	2.896010E-05
7.477305E+03	1.799567E-03	2.748954E-05
7.487248E+03	1.716988E-03	2.604234E-05
7.497191E+03	1.635498E-03	2.462296E-05
7.507134E+03	1.555804E-03	2.324267E-05
7.517077E+03	1.478752E-03	2.191441E-05
7.527021E+03	1.405553E-03	2.065600E-05
7.536964E+03	1.337568E-03	1.948680E-05
7.546907E+03	1.276123E-03	1.842483E-05
7.556850E+03	1.222329E-03	1.748418E-05
7.566794E+03	1.176995E-03	1.667392E-05
7.576737E+03	1.140677E-03	1.599897E-05
7.586680E+03	1.113631E-03	1.545953E-05
7.596623E+03	1.095927E-03	1.505301E-05
7.606567E+03	1.087469E-03	1.477431E-05
7.616510E+03	1.087968E-03	1.461562E-05
7.626453E+03	1.096882E-03	1.456587E-05
7.636396E+03	1.113557E-03	1.461272E-05
7.646339E+03	1.137264E-03	1.474320E-05
7.656283E+03	1.167293E-03	1.494498E-05
7.666226E+03	1.203071E-03	1.520791E-05
7.676169E+03	1.244305E-03	1.552567E-05
7.686112E+03	1.291153E-03	1.589775E-05
7.696056E+03	1.344074E-03	1.632720E-05
7.705999E+03	1.403400E-03	1.681537E-05
7.715942E+03	1.469040E-03	1.735842E-05
