#wls	flux	fluxerr
1.590916E+03	4.814121E-05	1.181636E-06
1.630689E+03	4.716228E-05	1.153755E-06
1.670462E+03	4.623730E-05	1.127260E-06
1.710235E+03	4.536470E-05	1.102103E-06
1.750007E+03	4.454388E-05	1.078260E-06
1.789780E+03	4.379769E-05	1.056272E-06
1.829553E+03	4.312581E-05	1.036114E-06
1.869326E+03	4.254324E-05	1.018127E-06
1.909099E+03	4.205059E-05	1.002304E-06
1.948872E+03	4.167028E-05	9.891525E-07
1.988645E+03	4.139697E-05	9.785139E-07
2.028418E+03	4.124712E-05	9.707442E-07
2.068191E+03	4.123774E-05	9.662038E-07
2.107964E+03	4.138014E-05	9.651110E-07
2.147736E+03	4.168047E-05	9.675578E-07
2.187509E+03	4.216006E-05	9.739820E-07
2.227282E+03	4.284246E-05	9.848599E-07
2.267055E+03	4.374730E-05	1.000565E-06
2.306828E+03	4.489058E-05	1.021377E-06
2.346601E+03	4.631263E-05	1.048113E-06
2.386374E+03	4.803768E-05	1.081205E-06
2.426147E+03	5.011650E-05	1.121664E-06
2.465920E+03	5.257691E-05	1.169957E-06
2.505692E+03	5.549081E-05	1.227509E-06
2.545465E+03	5.889970E-05	1.295029E-06
2.585238E+03	6.289373E-05	1.374262E-06
2.625011E+03	6.754010E-05	1.466395E-06
2.664784E+03	7.292300E-05	1.572935E-06
2.704557E+03	7.915612E-05	1.695963E-06
2.744330E+03	8.634437E-05	1.837293E-06
2.784103E+03	9.459976E-05	1.998814E-06
2.823876E+03	1.040637E-04	2.182950E-06
2.863649E+03	1.148568E-04	2.391586E-06
2.903421E+03	1.271076E-04	2.626679E-06
2.943194E+03	1.409169E-04	2.889511E-06
2.982967E+03	1.564091E-04	3.181758E-06
2.992910E+03	1.605510E-04	3.259427E-06
3.002854E+03	1.647828E-04	3.338553E-06
3.012797E+03	1.691404E-04	3.419844E-06
3.022740E+03	1.736055E-04	3.502916E-06
3.032683E+03	1.781774E-04	3.587740E-06
3.042627E+03	1.828550E-04	3.674279E-06
3.052570E+03	1.876172E-04	3.762092E-06
3.062513E+03	1.925217E-04	3.852322E-06
3.072456E+03	1.975069E-04	3.943720E-06
3.082399E+03	2.025902E-04	4.036617E-06
3.092343E+03	2.077685E-04	4.130941E-06
3.102286E+03	2.130605E-04	4.227044E-06
3.112229E+03	2.184412E-04	4.324416E-06
3.122172E+03	2.239064E-04	4.422962E-06
3.132116E+03	2.294514E-04	4.522574E-06
3.142059E+03	2.350942E-04	4.623594E-06
3.152002E+03	2.407831E-04	4.724990E-06
3.161945E+03	2.465586E-04	4.827550E-06
3.171889E+03	2.524153E-04	4.931152E-06
3.181832E+03	2.582973E-04	5.034696E-06
3.191775E+03	2.642463E-04	5.138984E-06
3.201718E+03	2.702295E-04	5.243370E-06
3.211661E+03	2.762640E-04	5.348177E-06
3.221605E+03	2.823155E-04	5.452733E-06
3.231548E+03	2.884006E-04	5.557355E-06
3.241491E+03	2.944834E-04	5.661345E-06
3.251434E+03	3.005532E-04	5.764495E-06
3.261378E+03	3.066265E-04	5.867118E-06
3.271321E+03	3.126927E-04	5.969014E-06
3.281264E+03	3.186845E-04	6.068897E-06
3.291207E+03	3.246743E-04	6.168148E-06
3.301150E+03	3.305937E-04	6.265473E-06
3.311094E+03	3.364589E-04	6.361185E-06
3.321037E+03	3.422285E-04	6.454506E-06
3.330980E+03	3.479188E-04	6.545755E-06
3.340923E+03	3.534874E-04	6.634146E-06
3.350867E+03	3.589805E-04	6.720558E-06
3.360810E+03	3.643258E-04	6.803649E-06
3.370753E+03	3.695097E-04	6.883186E-06
3.380696E+03	3.745794E-04	6.960065E-06
3.390639E+03	3.794613E-04	7.032940E-06
3.400583E+03	3.841728E-04	7.102154E-06
3.410526E+03	3.887009E-04	7.167492E-06
3.420469E+03	3.930330E-04	7.228746E-06
3.430412E+03	3.971259E-04	7.285150E-06
3.440356E+03	4.010286E-04	7.337633E-06
3.450299E+03	4.046678E-04	7.384887E-06
3.460242E+03	4.080931E-04	7.427849E-06
3.470185E+03	4.112323E-04	7.465238E-06
3.480128E+03	4.141052E-04	7.497455E-06
3.490072E+03	4.167322E-04	7.524905E-06
3.500015E+03	4.190434E-04	7.546366E-06
3.509958E+03	4.210914E-04	7.562826E-06
3.519901E+03	4.228097E-04	7.573132E-06
3.529845E+03	4.242543E-04	7.578335E-06
3.539788E+03	4.253656E-04	7.577413E-06
3.549731E+03	4.262069E-04	7.571539E-06
3.559674E+03	4.267565E-04	7.560367E-06
3.569617E+03	4.270531E-04	7.544627E-06
3.579561E+03	4.270511E-04	7.523549E-06
3.589504E+03	4.268203E-04	7.498407E-06
3.599447E+03	4.263456E-04	7.468969E-06
3.609390E+03	4.256410E-04	7.435515E-06
3.619334E+03	4.247208E-04	7.398330E-06
3.629277E+03	4.236261E-04	7.358161E-06
3.639220E+03	4.223440E-04	7.314810E-06
3.649163E+03	4.209148E-04	7.269003E-06
3.659107E+03	4.193263E-04	7.220553E-06
3.669050E+03	4.175926E-04	7.169725E-06
3.678993E+03	4.157278E-04	7.116784E-06
3.688936E+03	4.137704E-04	7.062407E-06
3.698879E+03	4.117329E-04	7.006823E-06
3.708823E+03	4.096040E-04	6.949852E-06
3.718766E+03	4.073971E-04	6.891738E-06
3.728709E+03	4.051485E-04	6.833103E-06
3.738652E+03	4.028476E-04	6.773779E-06
3.748596E+03	4.005298E-04	6.714367E-06
3.758539E+03	3.981853E-04	6.654706E-06
3.768482E+03	3.958272E-04	6.595021E-06
3.778425E+03	3.934899E-04	6.535886E-06
3.788368E+03	3.911856E-04	6.477502E-06
3.798312E+03	3.889065E-04	6.419735E-06
3.808255E+03	3.866865E-04	6.363142E-06
3.818198E+03	3.845191E-04	6.307605E-06
3.828141E+03	3.824189E-04	6.253358E-06
3.838085E+03	3.804199E-04	6.200944E-06
3.848028E+03	3.785367E-04	6.150589E-06
3.857971E+03	3.767658E-04	6.102217E-06
3.867914E+03	3.751237E-04	6.056078E-06
3.877857E+03	3.736457E-04	6.012721E-06
3.887801E+03	3.723308E-04	5.972106E-06
3.897744E+03	3.712149E-04	5.934782E-06
3.907687E+03	3.702989E-04	5.900733E-06
3.917630E+03	3.696024E-04	5.870241E-06
3.927574E+03	3.691626E-04	5.843858E-06
3.937517E+03	3.689829E-04	5.821600E-06
3.947460E+03	3.691014E-04	5.804028E-06
3.957403E+03	3.695071E-04	5.790921E-06
3.967346E+03	3.702559E-04	5.783106E-06
3.977290E+03	3.713548E-04	5.780641E-06
3.987233E+03	3.728284E-04	5.783853E-06
3.997176E+03	3.747180E-04	5.793319E-06
4.007119E+03	3.770181E-04	5.808891E-06
4.017063E+03	3.797879E-04	5.831413E-06
4.027006E+03	3.830245E-04	5.860766E-06
4.036949E+03	3.867893E-04	5.897814E-06
4.046892E+03	3.910823E-04	5.942471E-06
4.056835E+03	3.959519E-04	5.995387E-06
4.066779E+03	4.014323E-04	6.056988E-06
4.076722E+03	4.075592E-04	6.127713E-06
4.086665E+03	4.143539E-04	6.207778E-06
4.096608E+03	4.218704E-04	6.297884E-06
4.106552E+03	4.301321E-04	6.398264E-06
4.116495E+03	4.391950E-04	6.509630E-06
4.126438E+03	4.490832E-04	6.632210E-06
4.136381E+03	4.598532E-04	6.766705E-06
4.146324E+03	4.715276E-04	6.913307E-06
4.156268E+03	4.841436E-04	7.072414E-06
4.166211E+03	4.977354E-04	7.244378E-06
4.176154E+03	5.123340E-04	7.429492E-06
4.186097E+03	5.279648E-04	7.627963E-06
4.196041E+03	5.446283E-04	7.839637E-06
4.205984E+03	5.623728E-04	8.065044E-06
4.215927E+03	5.811618E-04	8.303493E-06
4.225870E+03	6.009846E-04	8.554667E-06
4.235814E+03	6.218377E-04	8.818359E-06
4.245757E+03	6.436847E-04	9.093890E-06
4.255700E+03	6.664520E-04	9.380074E-06
4.265643E+03	6.900487E-04	9.675494E-06
4.275586E+03	7.144323E-04	9.979429E-06
4.285530E+03	7.394806E-04	1.029006E-05
4.295473E+03	7.650794E-04	1.060572E-05
4.305416E+03	7.910773E-04	1.092421E-05
4.315359E+03	8.173623E-04	1.124396E-05
4.325303E+03	8.437973E-04	1.156305E-05
4.335246E+03	8.702164E-04	1.187920E-05
4.345189E+03	8.965140E-04	1.219098E-05
4.355132E+03	9.225155E-04	1.249607E-05
4.365075E+03	9.481744E-04	1.279389E-05
4.375019E+03	9.733877E-04	1.308312E-05
4.384962E+03	9.981080E-04	1.336323E-05
4.394905E+03	1.022314E-03	1.363400E-05
4.404848E+03	1.045980E-03	1.389520E-05
4.414792E+03	1.069155E-03	1.414757E-05
4.424735E+03	1.091874E-03	1.439168E-05
4.434678E+03	1.114151E-03	1.462777E-05
4.444621E+03	1.136061E-03	1.485693E-05
4.454564E+03	1.157614E-03	1.507934E-05
4.464508E+03	1.178838E-03	1.529546E-05
4.474451E+03	1.199747E-03	1.550554E-05
4.484394E+03	1.220334E-03	1.570953E-05
4.494337E+03	1.240567E-03	1.590711E-05
4.504281E+03	1.260388E-03	1.609760E-05
4.514224E+03	1.279714E-03	1.628002E-05
4.524167E+03	1.298432E-03	1.645305E-05
4.534110E+03	1.316375E-03	1.661465E-05
4.544053E+03	1.333389E-03	1.676302E-05
4.553997E+03	1.349373E-03	1.689704E-05
4.563940E+03	1.364084E-03	1.701383E-05
4.573883E+03	1.377342E-03	1.711135E-05
4.583826E+03	1.388977E-03	1.718771E-05
4.593770E+03	1.398866E-03	1.724164E-05
4.603713E+03	1.406839E-03	1.727131E-05
4.613656E+03	1.412788E-03	1.727567E-05
4.623599E+03	1.416672E-03	1.725453E-05
4.633542E+03	1.418381E-03	1.720685E-05
4.643486E+03	1.417985E-03	1.713377E-05
4.653429E+03	1.415449E-03	1.703519E-05
4.663372E+03	1.410917E-03	1.691313E-05
4.673315E+03	1.404462E-03	1.676875E-05
4.683259E+03	1.396190E-03	1.660358E-05
4.693202E+03	1.386331E-03	1.642059E-05
4.703145E+03	1.375006E-03	1.622144E-05
4.713088E+03	1.362480E-03	1.600943E-05
4.723031E+03	1.348904E-03	1.578649E-05
4.732975E+03	1.334528E-03	1.555570E-05
4.742918E+03	1.319606E-03	1.532008E-05
4.752861E+03	1.304296E-03	1.508155E-05
4.762804E+03	1.288849E-03	1.484304E-05
4.772748E+03	1.273445E-03	1.460661E-05
4.782691E+03	1.258344E-03	1.437526E-05
4.792634E+03	1.243709E-03	1.415076E-05
4.802577E+03	1.229690E-03	1.393474E-05
4.812521E+03	1.216507E-03	1.372961E-05
4.822464E+03	1.204252E-03	1.353628E-05
4.832407E+03	1.193109E-03	1.335668E-05
4.842350E+03	1.183137E-03	1.319130E-05
4.852293E+03	1.174477E-03	1.304156E-05
4.862237E+03	1.167143E-03	1.290741E-05
4.872180E+03	1.161228E-03	1.278973E-05
4.882123E+03	1.156701E-03	1.268795E-05
4.892066E+03	1.153603E-03	1.260236E-05
4.902010E+03	1.151850E-03	1.253183E-05
4.911953E+03	1.151434E-03	1.247612E-05
4.921896E+03	1.152247E-03	1.243388E-05
4.931839E+03	1.154212E-03	1.240411E-05
4.941782E+03	1.157159E-03	1.238485E-05
4.951726E+03	1.161003E-03	1.237507E-05
4.961669E+03	1.165579E-03	1.237292E-05
4.971612E+03	1.170742E-03	1.237676E-05
4.981555E+03	1.176353E-03	1.238506E-05
4.991499E+03	1.182308E-03	1.239667E-05
5.001442E+03	1.188490E-03	1.241035E-05
5.011385E+03	1.194756E-03	1.242459E-05
5.021328E+03	1.201083E-03	1.243915E-05
5.031271E+03	1.207427E-03	1.245357E-05
5.041215E+03	1.213741E-03	1.246737E-05
5.051158E+03	1.220028E-03	1.248060E-05
5.061101E+03	1.226336E-03	1.249378E-05
5.071044E+03	1.232705E-03	1.250730E-05
5.080988E+03	1.239158E-03	1.252141E-05
5.090931E+03	1.245776E-03	1.253693E-05
5.100874E+03	1.252587E-03	1.255412E-05
5.110817E+03	1.259665E-03	1.257372E-05
5.120760E+03	1.267047E-03	1.259607E-05
5.130704E+03	1.274731E-03	1.262115E-05
5.140647E+03	1.282751E-03	1.264925E-05
5.150590E+03	1.291099E-03	1.268028E-05
5.160533E+03	1.299724E-03	1.271371E-05
5.170477E+03	1.308609E-03	1.274938E-05
5.180420E+03	1.317701E-03	1.278673E-05
5.190363E+03	1.326929E-03	1.282512E-05
5.200306E+03	1.336190E-03	1.286352E-05
5.210249E+03	1.345425E-03	1.290139E-05
5.220193E+03	1.354544E-03	1.293791E-05
5.230136E+03	1.363450E-03	1.297219E-05
5.240079E+03	1.372022E-03	1.300311E-05
5.250022E+03	1.380190E-03	1.303011E-05
5.259966E+03	1.387865E-03	1.305237E-05
5.269909E+03	1.394954E-03	1.306914E-05
5.279852E+03	1.401378E-03	1.307975E-05
5.289795E+03	1.407032E-03	1.308332E-05
5.299738E+03	1.411910E-03	1.307989E-05
5.309682E+03	1.415901E-03	1.306855E-05
5.319625E+03	1.418991E-03	1.304928E-05
5.329568E+03	1.421154E-03	1.302196E-05
5.339511E+03	1.422374E-03	1.298654E-05
5.349455E+03	1.422647E-03	1.294311E-05
5.359398E+03	1.421948E-03	1.289155E-05
5.369341E+03	1.420338E-03	1.283251E-05
5.379284E+03	1.417759E-03	1.276558E-05
5.389228E+03	1.414254E-03	1.269125E-05
5.399171E+03	1.409719E-03	1.260868E-05
5.409114E+03	1.404093E-03	1.251742E-05
5.419057E+03	1.397219E-03	1.241619E-05
5.429000E+03	1.388885E-03	1.230322E-05
5.438944E+03	1.378690E-03	1.217511E-05
5.448887E+03	1.366242E-03	1.202853E-05
5.458830E+03	1.351159E-03	1.186033E-05
5.468773E+03	1.333365E-03	1.167002E-05
5.478717E+03	1.313091E-03	1.145981E-05
5.488660E+03	1.290870E-03	1.123445E-05
5.498603E+03	1.267136E-03	1.099780E-05
5.508546E+03	1.242227E-03	1.075285E-05
5.518489E+03	1.216471E-03	1.050242E-05
5.528433E+03	1.190083E-03	1.024837E-05
5.538376E+03	1.163204E-03	9.991893E-06
5.548319E+03	1.136056E-03	9.734873E-06
5.558262E+03	1.108802E-03	9.478647E-06
5.568206E+03	1.081639E-03	9.224851E-06
5.578149E+03	1.054803E-03	8.975430E-06
5.588092E+03	1.028506E-03	8.732105E-06
5.598035E+03	1.002992E-03	8.496873E-06
5.607978E+03	9.785367E-04	8.271963E-06
5.617922E+03	9.553767E-04	8.059271E-06
5.627865E+03	9.337817E-04	7.860957E-06
5.637808E+03	9.139753E-04	7.678777E-06
5.647751E+03	8.962032E-04	7.514665E-06
5.657695E+03	8.806728E-04	7.370226E-06
5.667638E+03	8.675558E-04	7.246754E-06
5.677581E+03	8.570351E-04	7.145637E-06
5.687524E+03	8.492388E-04	7.067797E-06
5.697467E+03	8.443070E-04	7.014257E-06
5.707411E+03	8.423403E-04	6.985709E-06
5.717354E+03	8.434191E-04	6.982677E-06
5.727297E+03	8.475851E-04	7.005369E-06
5.737240E+03	8.548917E-04	7.054089E-06
5.747184E+03	8.653502E-04	7.128799E-06
5.757127E+03	8.789445E-04	7.229237E-06
5.767070E+03	8.956258E-04	7.354882E-06
5.777013E+03	9.153130E-04	7.504949E-06
5.786956E+03	9.378794E-04	7.678294E-06
5.796900E+03	9.631561E-04	7.873434E-06
5.806843E+03	9.909037E-04	8.088322E-06
5.816786E+03	1.020889E-03	8.320974E-06
5.826729E+03	1.052767E-03	8.568520E-06
5.836673E+03	1.086161E-03	8.827823E-06
5.846616E+03	1.120646E-03	9.095414E-06
5.856559E+03	1.155760E-03	9.367506E-06
5.866502E+03	1.191013E-03	9.640126E-06
5.876445E+03	1.225928E-03	9.909426E-06
5.886389E+03	1.259957E-03	1.017100E-05
5.896332E+03	1.292676E-03	1.042147E-05
5.906275E+03	1.323625E-03	1.065717E-05
5.916218E+03	1.352425E-03	1.087512E-05
5.926162E+03	1.378769E-03	1.107295E-05
5.936105E+03	1.402465E-03	1.124916E-05
5.946048E+03	1.423319E-03	1.140232E-05
5.955991E+03	1.441347E-03	1.153263E-05
5.965935E+03	1.456569E-03	1.164032E-05
5.975878E+03	1.469142E-03	1.172676E-05
5.985821E+03	1.479242E-03	1.179342E-05
5.995764E+03	1.487132E-03	1.184246E-05
6.005707E+03	1.493126E-03	1.187644E-05
6.015651E+03	1.497571E-03	1.189819E-05
6.025594E+03	1.500866E-03	1.191092E-05
6.035537E+03	1.503360E-03	1.191742E-05
6.045480E+03	1.505427E-03	1.192068E-05
6.055424E+03	1.507463E-03	1.192386E-05
6.065367E+03	1.509785E-03	1.192945E-05
6.075310E+03	1.512712E-03	1.193998E-05
6.085253E+03	1.516570E-03	1.195802E-05
6.095196E+03	1.521590E-03	1.198536E-05
6.105140E+03	1.527997E-03	1.202375E-05
6.115083E+03	1.535982E-03	1.207468E-05
6.125026E+03	1.545730E-03	1.213959E-05
6.134969E+03	1.557322E-03	1.221907E-05
6.144913E+03	1.570862E-03	1.231392E-05
6.154856E+03	1.586350E-03	1.242411E-05
6.164799E+03	1.603770E-03	1.254950E-05
6.174742E+03	1.623093E-03	1.268984E-05
6.184685E+03	1.644175E-03	1.284401E-05
6.194629E+03	1.666858E-03	1.301074E-05
6.204572E+03	1.690966E-03	1.318868E-05
6.214515E+03	1.716207E-03	1.337555E-05
6.224458E+03	1.742312E-03	1.356927E-05
6.234402E+03	1.768900E-03	1.376691E-05
6.244345E+03	1.795630E-03	1.396583E-05
6.254288E+03	1.822058E-03	1.416264E-05
6.264231E+03	1.847765E-03	1.435412E-05
6.274174E+03	1.872371E-03	1.453736E-05
6.284118E+03	1.895471E-03	1.470929E-05
6.294061E+03	1.916643E-03	1.486670E-05
6.304004E+03	1.935548E-03	1.500702E-05
6.313947E+03	1.951980E-03	1.512873E-05
6.323891E+03	1.965587E-03	1.522915E-05
6.333834E+03	1.976335E-03	1.530809E-05
6.343777E+03	1.984048E-03	1.536424E-05
6.353720E+03	1.988706E-03	1.539750E-05
6.363663E+03	1.990433E-03	1.540887E-05
6.373607E+03	1.989240E-03	1.539848E-05
6.383550E+03	1.985268E-03	1.536744E-05
6.393493E+03	1.978777E-03	1.531780E-05
6.403436E+03	1.969874E-03	1.525040E-05
6.413380E+03	1.958805E-03	1.516715E-05
6.423323E+03	1.945771E-03	1.506961E-05
6.433266E+03	1.930959E-03	1.495923E-05
6.443209E+03	1.914508E-03	1.483707E-05
6.453152E+03	1.896666E-03	1.470505E-05
6.463096E+03	1.877507E-03	1.456373E-05
6.473039E+03	1.857271E-03	1.441494E-05
6.482982E+03	1.836031E-03	1.425921E-05
6.492925E+03	1.813961E-03	1.409781E-05
6.502869E+03	1.791183E-03	1.393160E-05
6.512812E+03	1.767644E-03	1.376008E-05
6.522755E+03	1.743429E-03	1.358385E-05
6.532698E+03	1.718519E-03	1.340265E-05
6.542642E+03	1.692949E-03	1.321669E-05
6.552585E+03	1.666765E-03	1.302624E-05
6.562528E+03	1.640056E-03	1.283191E-05
6.572471E+03	1.612834E-03	1.263372E-05
6.582414E+03	1.585143E-03	1.243194E-05
6.592358E+03	1.557028E-03	1.222684E-05
6.602301E+03	1.528560E-03	1.201892E-05
6.612244E+03	1.499740E-03	1.180811E-05
6.622187E+03	1.470637E-03	1.159489E-05
6.632131E+03	1.441256E-03	1.137925E-05
6.642074E+03	1.411641E-03	1.116145E-05
6.652017E+03	1.381875E-03	1.094211E-05
6.661960E+03	1.352018E-03	1.072166E-05
6.671903E+03	1.322114E-03	1.050040E-05
6.681847E+03	1.292252E-03	1.027898E-05
6.691790E+03	1.262593E-03	1.005866E-05
6.701733E+03	1.233167E-03	9.839646E-06
6.711676E+03	1.204189E-03	9.623640E-06
6.721620E+03	1.175746E-03	9.411311E-06
6.731563E+03	1.148016E-03	9.204091E-06
6.741506E+03	1.121156E-03	9.003230E-06
6.751449E+03	1.095300E-03	8.809832E-06
6.761392E+03	1.070637E-03	8.625418E-06
6.771336E+03	1.047322E-03	8.451284E-06
6.781279E+03	1.025483E-03	8.288489E-06
6.791222E+03	1.005310E-03	8.138618E-06
6.801165E+03	9.868894E-04	8.002425E-06
6.811109E+03	9.703650E-04	7.881129E-06
6.821052E+03	9.558450E-04	7.775676E-06
6.830995E+03	9.434025E-04	7.686728E-06
6.840938E+03	9.331609E-04	7.615366E-06
6.850881E+03	9.251445E-04	7.561863E-06
6.860825E+03	9.194271E-04	7.526901E-06
6.870768E+03	9.160470E-04	7.510875E-06
6.880711E+03	9.150254E-04	7.514038E-06
6.890654E+03	9.163486E-04	7.536358E-06
6.900598E+03	9.200481E-04	7.578173E-06
6.910541E+03	9.260521E-04	7.638970E-06
6.920484E+03	9.343315E-04	7.718581E-06
6.930427E+03	9.448156E-04	7.816494E-06
6.940370E+03	9.573845E-04	7.931782E-06
6.950314E+03	9.719616E-04	8.063869E-06
6.960257E+03	9.883536E-04	8.211207E-06
6.970200E+03	1.006407E-03	8.372564E-06
6.980143E+03	1.025919E-03	8.546300E-06
6.990087E+03	1.046641E-03	8.730353E-06
7.000030E+03	1.068348E-03	8.922888E-06
7.009973E+03	1.090778E-03	9.121723E-06
7.019916E+03	1.113661E-03	9.324587E-06
7.029860E+03	1.136695E-03	9.528955E-06
7.039803E+03	1.159640E-03	9.732805E-06
7.049746E+03	1.182218E-03	9.933771E-06
7.059689E+03	1.204231E-03	1.013016E-05
7.069632E+03	1.225454E-03	1.032004E-05
7.079576E+03	1.245788E-03	1.050255E-05
7.089519E+03	1.265028E-03	1.067591E-05
7.099462E+03	1.283159E-03	1.083995E-05
7.109405E+03	1.300148E-03	1.099437E-05
7.119349E+03	1.315968E-03	1.113886E-05
7.129292E+03	1.330652E-03	1.127370E-05
7.139235E+03	1.344289E-03	1.139960E-05
7.149178E+03	1.356919E-03	1.151686E-05
7.159121E+03	1.368619E-03	1.162609E-05
7.169065E+03	1.379457E-03	1.172788E-05
7.179008E+03	1.389524E-03	1.182296E-05
7.188951E+03	1.398823E-03	1.191134E-05
7.198894E+03	1.407362E-03	1.199307E-05
7.208838E+03	1.415118E-03	1.206794E-05
7.218781E+03	1.422068E-03	1.213575E-05
7.228724E+03	1.428054E-03	1.219513E-05
7.238667E+03	1.432991E-03	1.224534E-05
7.248610E+03	1.436767E-03	1.228542E-05
7.258554E+03	1.439148E-03	1.231335E-05
7.268497E+03	1.439995E-03	1.232792E-05
7.278440E+03	1.439131E-03	1.232760E-05
7.288383E+03	1.436389E-03	1.231096E-05
7.298327E+03	1.431622E-03	1.227672E-05
7.308270E+03	1.424711E-03	1.222384E-05
7.318213E+03	1.415541E-03	1.215132E-05
7.328156E+03	1.404108E-03	1.205911E-05
7.338099E+03	1.390424E-03	1.194731E-05
7.348043E+03	1.374549E-03	1.181643E-05
7.357986E+03	1.356560E-03	1.166712E-05
7.367929E+03	1.336617E-03	1.150074E-05
7.377872E+03	1.314986E-03	1.131959E-05
7.387816E+03	1.291836E-03	1.112514E-05
7.397759E+03	1.267435E-03	1.091967E-05
7.407702E+03	1.242100E-03	1.070595E-05
7.417645E+03	1.216098E-03	1.048628E-05
7.427588E+03	1.189764E-03	1.026355E-05
7.437532E+03	1.163371E-03	1.004013E-05
7.447475E+03	1.137242E-03	9.818843E-06
7.457418E+03	1.111631E-03	9.601878E-06
7.467361E+03	1.086829E-03	9.391793E-06
7.477305E+03	1.063031E-03	9.190275E-06
7.487248E+03	1.040541E-03	8.999989E-06
7.497191E+03	1.019485E-03	8.822041E-06
7.507134E+03	1.000096E-03	8.658492E-06
7.517077E+03	9.825089E-04	8.510531E-06
7.527021E+03	9.668630E-04	8.379404E-06
7.536964E+03	9.533002E-04	8.266377E-06
7.546907E+03	9.418715E-04	8.171933E-06
7.556850E+03	9.327054E-04	8.097230E-06
7.566794E+03	9.258413E-04	8.042660E-06
7.576737E+03	9.213468E-04	8.008860E-06
7.586680E+03	9.192043E-04	7.995734E-06
7.596623E+03	9.194711E-04	8.003841E-06
7.606567E+03	9.221176E-04	8.032989E-06
7.616510E+03	9.271173E-04	8.083018E-06
7.626453E+03	9.344261E-04	8.153619E-06
7.636396E+03	9.439767E-04	8.244285E-06
7.646339E+03	9.556810E-04	8.354330E-06
7.656283E+03	9.694497E-04	8.483066E-06
7.666226E+03	9.850963E-04	8.628953E-06
7.676169E+03	1.002479E-03	8.790840E-06
7.686112E+03	1.021432E-03	8.967383E-06
7.696056E+03	1.041686E-03	9.156316E-06
7.705999E+03	1.063052E-03	9.356064E-06
7.715942E+03	1.085238E-03	9.564171E-06
