#wls	flux	fluxerr
1.590916E+03	4.869922E-05	1.161142E-06
1.630689E+03	4.764730E-05	1.132295E-06
1.670462E+03	4.664968E-05	1.104813E-06
1.710235E+03	4.569701E-05	1.078465E-06
1.750007E+03	4.481266E-05	1.053796E-06
1.789780E+03	4.399605E-05	1.030777E-06
1.829553E+03	4.325490E-05	1.009574E-06
1.869326E+03	4.260436E-05	9.905227E-07
1.909099E+03	4.204509E-05	9.736164E-07
1.948872E+03	4.159955E-05	9.593494E-07
1.988645E+03	4.126229E-05	9.475662E-07
2.028418E+03	4.105647E-05	9.387652E-07
2.068191E+03	4.099202E-05	9.331339E-07
2.107964E+03	4.107343E-05	9.307300E-07
2.147736E+03	4.132007E-05	9.319430E-07
2.187509E+03	4.175299E-05	9.371906E-07
2.227282E+03	4.238226E-05	9.466329E-07
2.267055E+03	4.323399E-05	9.607792E-07
2.306828E+03	4.433093E-05	9.800507E-07
2.346601E+03	4.570666E-05	1.005092E-06
2.386374E+03	4.738564E-05	1.036328E-06
2.426147E+03	4.941875E-05	1.074744E-06
2.465920E+03	5.184951E-05	1.121134E-06
2.505692E+03	5.472063E-05	1.176250E-06
2.545465E+03	5.811388E-05	1.241647E-06
2.585238E+03	6.208105E-05	1.318195E-06
2.625011E+03	6.672503E-05	1.407808E-06
2.664784E+03	7.211639E-05	1.511653E-06
2.704557E+03	7.838185E-05	1.632021E-06
2.744330E+03	8.562150E-05	1.770566E-06
2.784103E+03	9.397533E-05	1.929691E-06
2.823876E+03	1.035693E-04	2.111415E-06
2.863649E+03	1.145436E-04	2.317951E-06
2.903421E+03	1.270351E-04	2.551346E-06
2.943194E+03	1.411688E-04	2.813299E-06
2.982967E+03	1.570441E-04	3.104909E-06
2.992910E+03	1.612910E-04	3.182451E-06
3.002854E+03	1.656675E-04	3.262183E-06
3.012797E+03	1.701379E-04	3.343382E-06
3.022740E+03	1.747193E-04	3.426371E-06
3.032683E+03	1.794296E-04	3.511488E-06
3.042627E+03	1.842496E-04	3.598336E-06
3.052570E+03	1.845151E-04	3.596003E-06
3.062513E+03	1.893939E-04	3.683338E-06
3.072456E+03	1.993489E-04	3.868758E-06
3.082399E+03	2.046083E-04	3.962393E-06
3.092343E+03	2.099659E-04	4.057461E-06
3.102286E+03	2.154180E-04	4.153877E-06
3.112229E+03	2.209606E-04	4.251544E-06
3.122172E+03	2.266112E-04	4.350789E-06
3.132116E+03	2.323429E-04	4.451082E-06
3.142059E+03	2.381731E-04	4.552739E-06
3.152002E+03	2.440731E-04	4.655199E-06
3.161945E+03	2.500359E-04	4.758319E-06
3.171889E+03	2.560785E-04	4.862410E-06
3.181832E+03	2.621693E-04	4.966860E-06
3.191775E+03	2.683247E-04	5.071972E-06
3.201718E+03	2.745115E-04	5.177106E-06
3.211661E+03	2.807457E-04	5.282560E-06
3.221605E+03	2.869920E-04	5.387661E-06
3.231548E+03	2.932665E-04	5.492704E-06
3.241491E+03	2.995588E-04	5.597494E-06
3.251434E+03	3.058313E-04	5.701319E-06
3.261378E+03	3.120993E-04	5.804470E-06
3.271321E+03	3.183515E-04	5.906729E-06
3.281264E+03	3.245477E-04	6.007358E-06
3.291207E+03	3.307034E-04	6.106644E-06
3.301150E+03	3.368061E-04	6.204360E-06
3.311094E+03	3.428139E-04	6.299744E-06
3.321037E+03	3.487716E-04	6.393625E-06
3.330980E+03	3.546080E-04	6.484705E-06
3.340923E+03	3.603388E-04	6.573287E-06
3.350867E+03	3.659803E-04	6.659679E-06
3.360810E+03	3.714602E-04	6.742577E-06
3.370753E+03	3.767947E-04	6.822298E-06
3.380696E+03	3.819707E-04	6.898622E-06
3.390639E+03	3.869755E-04	6.971338E-06
3.400583E+03	3.917962E-04	7.040239E-06
3.410526E+03	3.964206E-04	7.105129E-06
3.420469E+03	4.008365E-04	7.165817E-06
3.430412E+03	4.050627E-04	7.222662E-06
3.440356E+03	4.090271E-04	7.274412E-06
3.450299E+03	4.127796E-04	7.321984E-06
3.460242E+03	4.162794E-04	7.364688E-06
3.470185E+03	4.195170E-04	7.402387E-06
3.480128E+03	4.225133E-04	7.435488E-06
3.490072E+03	4.252297E-04	7.463345E-06
3.500015E+03	4.276586E-04	7.485865E-06
3.509958E+03	4.298231E-04	7.503493E-06
3.519901E+03	4.316882E-04	7.515654E-06
3.529845E+03	4.332791E-04	7.522830E-06
3.539788E+03	4.345652E-04	7.524528E-06
3.549731E+03	4.355525E-04	7.520898E-06
3.559674E+03	4.362781E-04	7.512622E-06
3.569617E+03	4.367514E-04	7.499896E-06
3.579561E+03	4.369546E-04	7.482453E-06
3.589504E+03	4.369273E-04	7.461008E-06
3.599447E+03	4.366536E-04	7.435323E-06
3.609390E+03	4.361735E-04	7.406114E-06
3.619334E+03	4.354990E-04	7.373614E-06
3.629277E+03	4.346426E-04	7.338061E-06
3.639220E+03	4.335904E-04	7.299252E-06
3.649163E+03	4.323815E-04	7.257868E-06
3.659107E+03	4.310280E-04	7.214138E-06
3.669050E+03	4.295170E-04	7.167867E-06
3.678993E+03	4.279107E-04	7.120113E-06
3.688936E+03	4.261712E-04	7.070265E-06
3.698879E+03	4.243587E-04	7.019337E-06
3.708823E+03	4.224368E-04	6.966742E-06
3.718766E+03	4.204408E-04	6.913075E-06
3.728709E+03	4.183818E-04	6.858531E-06
3.738652E+03	4.162707E-04	6.803300E-06
3.748596E+03	4.141186E-04	6.747570E-06
3.758539E+03	4.119364E-04	6.691526E-06
3.768482E+03	4.097141E-04	6.635011E-06
3.778425E+03	4.075055E-04	6.578901E-06
3.788368E+03	4.053006E-04	6.523035E-06
3.798312E+03	4.031113E-04	6.467601E-06
3.808255E+03	4.009495E-04	6.412793E-06
3.818198E+03	3.988280E-04	6.358809E-06
3.828141E+03	3.967600E-04	6.305855E-06
3.838085E+03	3.947593E-04	6.254142E-06
3.848028E+03	3.928405E-04	6.203891E-06
3.857971E+03	3.910188E-04	6.155330E-06
3.867914E+03	3.893102E-04	6.108699E-06
3.877857E+03	3.877319E-04	6.064248E-06
3.887801E+03	3.863014E-04	6.022231E-06
3.897744E+03	3.850374E-04	5.982919E-06
3.907687E+03	3.839595E-04	5.946590E-06
3.917630E+03	3.830878E-04	5.913526E-06
3.927574E+03	3.824435E-04	5.884025E-06
3.937517E+03	3.820485E-04	5.858386E-06
3.947460E+03	3.819255E-04	5.836920E-06
3.957403E+03	3.820821E-04	5.819702E-06
3.967346E+03	3.825586E-04	5.807301E-06
3.977290E+03	3.833956E-04	5.800283E-06
3.987233E+03	3.845724E-04	5.798279E-06
3.997176E+03	3.861622E-04	5.802342E-06
4.007119E+03	3.881624E-04	5.812364E-06
4.017063E+03	3.906022E-04	5.828723E-06
4.027006E+03	3.935424E-04	5.852253E-06
4.036949E+03	3.969699E-04	5.882682E-06
4.046892E+03	4.009484E-04	5.920879E-06
4.056835E+03	4.055133E-04	5.967279E-06
4.066779E+03	4.106724E-04	6.021903E-06
4.076722E+03	4.164948E-04	6.085672E-06
4.086665E+03	4.230069E-04	6.158868E-06
4.096608E+03	4.302520E-04	6.242011E-06
4.106552E+03	4.382750E-04	6.335637E-06
4.116495E+03	4.471220E-04	6.440291E-06
4.126438E+03	4.568403E-04	6.556523E-06
4.136381E+03	4.674616E-04	6.684654E-06
4.146324E+03	4.790486E-04	6.825434E-06
4.156268E+03	4.916470E-04	6.979367E-06
4.166211E+03	5.052842E-04	7.146681E-06
4.176154E+03	5.199991E-04	7.327766E-06
4.186097E+03	5.358255E-04	7.522930E-06
4.196041E+03	5.528077E-04	7.732623E-06
4.205984E+03	5.709291E-04	7.956434E-06
4.215927E+03	5.902319E-04	8.194777E-06
4.225870E+03	6.106735E-04	8.446882E-06
4.235814E+03	6.322312E-04	8.712262E-06
4.245757E+03	6.549027E-04	8.990717E-06
4.255700E+03	6.785705E-04	9.280471E-06
4.265643E+03	7.031947E-04	9.580832E-06
4.275586E+03	7.286522E-04	9.889990E-06
4.285530E+03	7.548219E-04	1.020618E-05
4.295473E+03	7.815633E-04	1.052741E-05
4.305416E+03	8.086967E-04	1.085119E-05
4.315359E+03	8.361030E-04	1.117588E-05
4.325303E+03	8.635423E-04	1.149824E-05
4.335246E+03	8.908944E-04	1.181669E-05
4.345189E+03	9.179816E-04	1.212891E-05
4.355132E+03	9.446925E-04	1.243348E-05
4.365075E+03	9.708693E-04	1.272841E-05
4.375019E+03	9.964667E-04	1.301319E-05
4.384962E+03	1.021462E-03	1.328763E-05
4.394905E+03	1.045839E-03	1.355163E-05
4.404848E+03	1.069670E-03	1.380624E-05
4.414792E+03	1.093000E-03	1.405211E-05
4.424735E+03	1.115919E-03	1.429052E-05
4.434678E+03	1.138562E-03	1.452323E-05
4.444621E+03	1.160973E-03	1.475089E-05
4.454564E+03	1.183279E-03	1.497513E-05
4.464508E+03	1.205556E-03	1.519696E-05
4.474451E+03	1.227854E-03	1.541704E-05
4.484394E+03	1.250161E-03	1.563521E-05
4.494337E+03	1.272453E-03	1.585120E-05
4.504281E+03	1.294696E-03	1.606460E-05
4.514224E+03	1.316749E-03	1.627372E-05
4.524167E+03	1.338462E-03	1.647673E-05
4.534110E+03	1.359645E-03	1.667136E-05
4.544053E+03	1.380105E-03	1.685535E-05
4.553997E+03	1.399529E-03	1.702501E-05
4.563940E+03	1.417653E-03	1.717727E-05
4.573883E+03	1.434270E-03	1.730985E-05
4.583826E+03	1.449054E-03	1.741904E-05
4.593770E+03	1.461793E-03	1.750257E-05
4.603713E+03	1.472275E-03	1.755820E-05
4.613656E+03	1.480291E-03	1.758378E-05
4.623599E+03	1.485717E-03	1.757819E-05
4.633542E+03	1.488513E-03	1.754132E-05
4.643486E+03	1.488628E-03	1.747295E-05
4.653429E+03	1.486134E-03	1.737429E-05
4.663372E+03	1.481089E-03	1.724637E-05
4.673315E+03	1.473633E-03	1.709117E-05
4.683259E+03	1.463946E-03	1.691111E-05
4.693202E+03	1.452274E-03	1.670929E-05
4.703145E+03	1.438823E-03	1.648838E-05
4.713088E+03	1.423855E-03	1.625158E-05
4.723031E+03	1.407638E-03	1.600215E-05
4.732975E+03	1.390478E-03	1.574372E-05
4.742918E+03	1.372593E-03	1.547886E-05
4.752861E+03	1.354316E-03	1.521140E-05
4.762804E+03	1.335910E-03	1.494434E-05
4.772748E+03	1.317581E-03	1.467997E-05
4.782691E+03	1.299630E-03	1.442162E-05
4.792634E+03	1.282267E-03	1.417154E-05
4.802577E+03	1.265738E-03	1.393238E-05
4.812521E+03	1.250199E-03	1.370571E-05
4.822464E+03	1.235889E-03	1.349400E-05
4.832407E+03	1.222975E-03	1.329891E-05
4.842350E+03	1.211578E-03	1.312156E-05
4.852293E+03	1.201818E-03	1.296302E-05
4.862237E+03	1.193809E-03	1.282433E-05
4.872180E+03	1.187611E-03	1.270587E-05
4.882123E+03	1.183225E-03	1.260743E-05
4.892066E+03	1.180643E-03	1.252868E-05
4.902010E+03	1.179840E-03	1.246913E-05
4.911953E+03	1.180732E-03	1.242766E-05
4.921896E+03	1.183198E-03	1.240278E-05
4.931839E+03	1.187084E-03	1.239271E-05
4.941782E+03	1.192184E-03	1.239510E-05
4.951726E+03	1.198317E-03	1.240794E-05
4.961669E+03	1.205262E-03	1.242884E-05
4.971612E+03	1.212796E-03	1.245539E-05
4.981555E+03	1.220700E-03	1.248530E-05
4.991499E+03	1.228773E-03	1.251648E-05
5.001442E+03	1.236839E-03	1.254713E-05
5.011385E+03	1.244758E-03	1.257585E-05
5.021328E+03	1.252457E-03	1.260193E-05
5.031271E+03	1.259834E-03	1.262439E-05
5.041215E+03	1.266928E-03	1.264368E-05
5.051158E+03	1.273749E-03	1.265993E-05
5.061101E+03	1.280365E-03	1.267385E-05
5.071044E+03	1.286869E-03	1.268643E-05
5.080988E+03	1.293397E-03	1.269899E-05
5.090931E+03	1.300039E-03	1.271244E-05
5.100874E+03	1.306932E-03	1.272811E-05
5.110817E+03	1.314146E-03	1.274667E-05
5.120760E+03	1.321757E-03	1.276883E-05
5.130704E+03	1.329841E-03	1.279527E-05
5.140647E+03	1.338392E-03	1.282592E-05
5.150590E+03	1.347427E-03	1.286091E-05
5.160533E+03	1.356888E-03	1.289962E-05
5.170477E+03	1.366739E-03	1.294170E-05
5.180420E+03	1.376875E-03	1.298614E-05
5.190363E+03	1.387224E-03	1.303225E-05
5.200306E+03	1.397653E-03	1.307878E-05
5.210249E+03	1.408072E-03	1.312490E-05
5.220193E+03	1.418359E-03	1.316951E-05
5.230136E+03	1.428365E-03	1.321128E-05
5.240079E+03	1.437967E-03	1.324912E-05
5.250022E+03	1.447073E-03	1.328224E-05
5.259966E+03	1.455565E-03	1.330967E-05
5.269909E+03	1.463308E-03	1.333025E-05
5.279852E+03	1.470227E-03	1.334340E-05
5.289795E+03	1.476205E-03	1.334817E-05
5.299738E+03	1.481193E-03	1.334425E-05
5.309682E+03	1.485107E-03	1.333100E-05
5.319625E+03	1.487937E-03	1.330845E-05
5.329568E+03	1.489671E-03	1.327664E-05
5.339511E+03	1.490294E-03	1.323554E-05
5.349455E+03	1.489871E-03	1.318585E-05
5.359398E+03	1.488458E-03	1.312819E-05
5.369341E+03	1.486075E-03	1.306283E-05
5.379284E+03	1.482876E-03	1.299123E-05
5.389228E+03	1.478869E-03	1.291354E-05
5.399171E+03	1.474104E-03	1.283026E-05
5.409114E+03	1.468537E-03	1.274111E-05
5.419057E+03	1.461997E-03	1.264468E-05
5.429000E+03	1.355821E-03	1.169034E-05
5.438944E+03	1.444687E-03	1.241903E-05
5.448887E+03	1.432706E-03	1.227966E-05
5.458830E+03	1.321447E-03	1.129331E-05
5.468773E+03	1.397798E-03	1.191205E-05
5.478717E+03	1.375169E-03	1.168683E-05
5.488660E+03	1.350349E-03	1.144492E-05
5.498603E+03	1.234554E-03	1.043592E-05
5.508546E+03	1.296422E-03	1.093068E-05
5.518489E+03	1.267963E-03	1.066385E-05
5.528433E+03	1.155161E-03	9.691312E-06
5.538376E+03	1.208868E-03	1.011757E-05
5.548319E+03	1.178499E-03	9.840304E-06
5.558262E+03	1.147742E-03	9.561581E-06
5.568206E+03	1.116832E-03	9.283311E-06
5.578149E+03	1.085986E-03	9.007234E-06
5.588092E+03	1.055483E-03	8.735608E-06
5.598035E+03	1.025641E-03	8.470974E-06
5.607978E+03	9.967961E-04	8.216023E-06
5.617922E+03	9.692977E-04	7.973520E-06
5.627865E+03	9.435084E-04	7.746331E-06
5.637808E+03	9.197406E-04	7.536892E-06
5.647751E+03	8.983212E-04	7.347739E-06
5.657695E+03	8.795147E-04	7.180892E-06
5.667638E+03	8.635722E-04	7.038246E-06
5.677581E+03	8.507302E-04	6.921576E-06
5.687524E+03	8.411777E-04	6.832261E-06
5.697467E+03	8.350621E-04	6.771341E-06
5.707411E+03	8.325353E-04	6.739889E-06
5.717354E+03	8.336941E-04	6.738536E-06
5.727297E+03	8.386435E-04	6.767977E-06
5.737240E+03	8.474487E-04	6.828589E-06
5.747184E+03	8.601348E-04	6.920428E-06
5.757127E+03	8.767401E-04	7.043664E-06
5.767070E+03	8.972064E-04	7.197692E-06
5.777013E+03	9.214739E-04	7.381905E-06
5.786956E+03	9.494174E-04	7.595180E-06
5.796900E+03	9.808443E-04	7.835863E-06
5.806843E+03	1.015492E-03	8.101755E-06
5.816786E+03	1.053017E-03	8.390030E-06
5.826729E+03	1.092993E-03	8.697215E-06
5.836673E+03	1.134910E-03	9.019194E-06
5.846616E+03	1.178180E-03	9.351257E-06
5.856559E+03	1.222148E-03	9.688181E-06
5.866502E+03	1.266113E-03	1.002442E-05
5.876445E+03	1.309348E-03	1.035422E-05
5.886389E+03	1.351154E-03	1.067210E-05
5.896332E+03	1.390795E-03	1.097230E-05
5.906275E+03	1.427693E-03	1.125035E-05
5.916218E+03	1.461294E-03	1.150195E-05
5.926162E+03	1.491178E-03	1.172392E-05
5.936105E+03	1.517062E-03	1.191413E-05
5.946048E+03	1.538803E-03	1.207157E-05
5.955991E+03	1.556427E-03	1.219655E-05
5.965935E+03	1.570008E-03	1.228977E-05
5.975878E+03	1.579856E-03	1.235374E-05
5.985821E+03	1.481077E-03	1.156921E-05
5.995764E+03	1.589760E-03	1.240534E-05
6.005707E+03	1.590769E-03	1.240054E-05
6.015651E+03	1.484430E-03	1.155995E-05
6.025594E+03	1.482246E-03	1.153147E-05
6.035537E+03	1.584165E-03	1.231229E-05
6.045480E+03	1.580550E-03	1.227233E-05
6.055424E+03	1.577061E-03	1.223359E-05
6.065367E+03	1.574187E-03	1.219984E-05
6.075310E+03	1.572278E-03	1.217382E-05
6.085253E+03	1.571765E-03	1.215881E-05
6.095196E+03	1.572940E-03	1.215707E-05
6.105140E+03	1.576080E-03	1.217070E-05
6.115083E+03	1.581447E-03	1.220169E-05
6.125026E+03	1.589165E-03	1.225096E-05
6.134969E+03	1.599430E-03	1.231999E-05
6.144913E+03	1.612304E-03	1.240923E-05
6.154856E+03	1.627823E-03	1.251891E-05
6.164799E+03	1.645972E-03	1.264890E-05
6.174742E+03	1.666711E-03	1.279886E-05
6.184685E+03	1.689875E-03	1.296751E-05
6.194629E+03	1.715264E-03	1.315330E-05
6.204572E+03	1.742612E-03	1.335418E-05
6.214515E+03	1.771582E-03	1.356758E-05
6.224458E+03	1.801807E-03	1.379070E-05
6.234402E+03	1.832790E-03	1.401975E-05
6.244345E+03	1.864016E-03	1.425083E-05
6.254288E+03	1.894965E-03	1.448001E-05
6.264231E+03	1.924988E-03	1.470237E-05
6.274174E+03	1.953579E-03	1.491410E-05
6.284118E+03	1.980177E-03	1.511099E-05
6.294061E+03	2.004229E-03	1.528887E-05
6.304004E+03	2.025280E-03	1.544434E-05
6.313947E+03	2.042958E-03	1.557464E-05
6.323891E+03	2.057030E-03	1.567805E-05
6.333834E+03	2.067329E-03	1.575336E-05
6.343777E+03	2.073757E-03	1.579986E-05
6.353720E+03	2.076361E-03	1.581797E-05
6.363663E+03	2.075325E-03	1.580913E-05
6.373607E+03	2.070834E-03	1.577478E-05
6.383550E+03	2.063215E-03	1.571743E-05
6.393493E+03	2.052800E-03	1.563962E-05
6.403436E+03	2.039895E-03	1.554369E-05
6.413380E+03	2.024930E-03	1.543292E-05
6.423323E+03	2.008109E-03	1.530886E-05
6.433266E+03	1.989844E-03	1.517464E-05
6.443209E+03	1.970301E-03	1.503153E-05
6.453152E+03	1.949722E-03	1.488135E-05
6.463096E+03	1.928275E-03	1.472536E-05
6.473039E+03	1.906108E-03	1.456469E-05
6.482982E+03	1.883382E-03	1.440053E-05
6.492925E+03	1.860288E-03	1.423427E-05
6.502869E+03	1.836896E-03	1.406638E-05
6.512812E+03	1.813098E-03	1.389596E-05
6.522755E+03	1.788833E-03	1.372245E-05
6.532698E+03	1.764085E-03	1.354568E-05
6.542642E+03	1.738902E-03	1.336592E-05
6.552585E+03	1.713233E-03	1.318272E-05
6.562528E+03	1.687167E-03	1.299667E-05
6.572471E+03	1.660713E-03	1.280780E-05
6.582414E+03	1.633808E-03	1.261552E-05
6.592358E+03	1.606513E-03	1.242026E-05
6.602301E+03	1.578817E-03	1.222185E-05
6.612244E+03	1.550674E-03	1.201988E-05
6.622187E+03	1.522105E-03	1.181444E-05
6.632131E+03	1.493071E-03	1.160517E-05
6.642074E+03	1.463574E-03	1.139201E-05
6.652017E+03	1.433689E-03	1.117550E-05
6.661960E+03	1.403387E-03	1.095534E-05
6.671903E+03	1.372752E-03	1.073214E-05
6.681847E+03	1.341831E-03	1.050623E-05
6.691790E+03	1.310783E-03	1.027879E-05
6.701733E+03	1.279682E-03	1.005037E-05
6.711676E+03	1.248711E-03	9.822366E-06
6.721620E+03	1.218045E-03	9.596143E-06
6.731563E+03	1.187855E-03	9.373030E-06
6.741506E+03	1.158400E-03	9.155064E-06
6.751449E+03	1.129872E-03	8.943767E-06
6.761392E+03	1.102466E-03	8.740713E-06
6.771336E+03	1.076449E-03	8.548027E-06
6.781279E+03	1.052006E-03	8.367224E-06
6.791222E+03	1.029336E-03	8.199942E-06
6.801165E+03	1.008605E-03	8.047544E-06
6.811109E+03	9.900237E-04	7.911789E-06
6.821052E+03	9.737246E-04	7.793801E-06
6.830995E+03	9.598412E-04	7.694727E-06
6.840938E+03	9.485110E-04	7.615755E-06
6.850881E+03	9.397937E-04	7.557452E-06
6.860825E+03	9.337929E-04	7.520742E-06
6.870768E+03	9.305918E-04	7.506387E-06
6.880711E+03	9.302193E-04	7.514716E-06
6.890654E+03	9.326834E-04	7.545889E-06
6.900598E+03	9.380318E-04	7.600387E-06
6.910541E+03	9.462300E-04	7.678022E-06
6.920484E+03	9.572384E-04	7.778563E-06
6.930427E+03	9.710050E-04	7.901674E-06
6.940370E+03	9.873864E-04	8.046270E-06
6.950314E+03	1.006261E-03	8.211431E-06
6.960257E+03	1.027470E-03	8.395932E-06
6.970200E+03	1.050744E-03	8.597633E-06
6.980143E+03	1.075864E-03	8.814782E-06
6.990087E+03	1.102499E-03	9.044709E-06
7.000030E+03	1.130281E-03	9.284414E-06
7.009973E+03	1.158888E-03	9.531272E-06
7.019916E+03	1.187879E-03	9.781653E-06
7.029860E+03	1.216883E-03	1.003249E-05
7.039803E+03	1.245518E-03	1.028060E-05
7.049746E+03	1.273420E-03	1.052297E-05
7.059689E+03	1.300272E-03	1.075691E-05
7.069632E+03	1.325810E-03	1.098018E-05
7.079576E+03	1.349801E-03	1.119083E-05
7.089519E+03	1.372145E-03	1.138793E-05
7.099462E+03	1.392785E-03	1.157099E-05
7.109405E+03	1.411701E-03	1.173976E-05
7.119349E+03	1.429000E-03	1.189508E-05
7.129292E+03	1.444806E-03	1.203793E-05
7.139235E+03	1.459248E-03	1.216936E-05
7.149178E+03	1.472507E-03	1.229083E-05
7.159121E+03	1.484800E-03	1.240411E-05
7.169065E+03	1.496263E-03	1.251034E-05
7.179008E+03	1.507072E-03	1.261095E-05
7.188951E+03	1.517297E-03	1.270652E-05
7.198894E+03	1.526987E-03	1.279745E-05
7.208838E+03	1.536135E-03	1.288366E-05
7.218781E+03	1.544673E-03	1.296458E-05
7.228724E+03	1.552510E-03	1.303943E-05
7.238667E+03	1.559424E-03	1.310635E-05
7.248610E+03	1.565152E-03	1.316311E-05
7.258554E+03	1.569494E-03	1.320800E-05
7.268497E+03	1.572089E-03	1.323798E-05
7.278440E+03	1.572708E-03	1.325111E-05
7.288383E+03	1.570993E-03	1.324434E-05
7.298327E+03	1.566717E-03	1.321573E-05
7.308270E+03	1.559662E-03	1.316344E-05
7.318213E+03	1.549635E-03	1.308579E-05
7.328156E+03	1.536579E-03	1.298230E-05
7.338099E+03	1.520478E-03	1.285280E-05
7.348043E+03	1.501394E-03	1.269780E-05
7.357986E+03	1.386751E-03	1.173395E-05
7.367929E+03	1.454848E-03	1.231606E-05
7.377872E+03	1.427875E-03	1.209343E-05
7.387816E+03	1.398844E-03	1.185309E-05
7.397759E+03	1.368154E-03	1.159840E-05
7.407702E+03	1.252310E-03	1.062124E-05
7.417645E+03	1.303321E-03	1.105895E-05
7.427588E+03	1.270022E-03	1.078136E-05
7.437532E+03	1.236615E-03	1.050261E-05
7.447475E+03	1.203541E-03	1.022647E-05
7.457418E+03	1.171135E-03	9.955816E-06
7.467361E+03	1.139734E-03	9.693513E-06
7.477305E+03	1.109669E-03	9.442414E-06
7.487248E+03	1.081191E-03	9.204681E-06
7.497191E+03	1.054545E-03	8.982427E-06
7.507134E+03	1.029947E-03	8.777530E-06
7.517077E+03	1.007582E-03	8.591601E-06
7.527021E+03	9.876327E-04	8.426239E-06
7.536964E+03	9.701877E-04	8.282239E-06
7.546907E+03	9.554013E-04	8.160967E-06
7.556850E+03	9.433390E-04	8.063032E-06
7.566794E+03	9.340685E-04	7.989070E-06
7.576737E+03	9.276378E-04	7.939547E-06
7.586680E+03	9.240758E-04	7.914778E-06
7.596623E+03	9.233912E-04	7.914903E-06
7.606567E+03	9.255735E-04	7.939909E-06
7.616510E+03	9.305898E-04	7.989593E-06
7.626453E+03	9.383864E-04	8.063580E-06
7.636396E+03	9.488812E-04	8.161254E-06
7.646339E+03	9.619678E-04	8.281797E-06
7.656283E+03	9.775063E-04	8.424105E-06
7.666226E+03	9.323189E-04	8.043242E-06
7.676169E+03	1.015218E-03	8.768226E-06
7.686112E+03	9.712571E-04	8.398402E-06
7.696056E+03	1.060199E-03	9.178788E-06
7.705999E+03	1.084722E-03	9.403260E-06
7.715942E+03	1.110122E-03	9.636524E-06
