#wls	flux	fluxerr
1.590916E+03	2.155628E-05	9.385588E-07
1.630689E+03	2.158626E-05	9.371607E-07
1.670462E+03	2.163009E-05	9.362883E-07
1.710235E+03	2.127084E-05	9.179420E-07
1.750007E+03	2.135824E-05	9.188381E-07
1.789780E+03	2.189976E-05	9.391150E-07
1.829553E+03	2.160639E-05	9.234840E-07
1.869326E+03	2.221649E-05	9.463491E-07
1.909099E+03	2.242177E-05	9.517750E-07
1.948872E+03	2.266639E-05	9.587259E-07
1.988645E+03	2.294993E-05	9.671615E-07
2.028418E+03	2.281086E-05	9.576827E-07
2.068191E+03	2.365322E-05	9.892100E-07
2.107964E+03	2.408170E-05	1.003132E-06
2.147736E+03	2.457076E-05	1.019333E-06
2.187509E+03	2.512175E-05	1.037831E-06
2.227282E+03	2.574071E-05	1.058833E-06
2.267055E+03	2.643879E-05	1.082752E-06
2.306828E+03	2.721904E-05	1.109658E-06
2.346601E+03	2.809438E-05	1.140021E-06
2.386374E+03	2.906933E-05	1.173957E-06
2.426147E+03	3.015901E-05	1.212000E-06
2.465920E+03	3.136976E-05	1.254323E-06
2.505692E+03	3.271387E-05	1.301323E-06
2.545465E+03	3.421071E-05	1.353666E-06
2.585238E+03	3.510696E-05	1.381589E-06
2.625011E+03	3.771469E-05	1.475948E-06
2.664784E+03	3.976389E-05	1.547252E-06
2.704557E+03	4.111783E-05	1.590560E-06
2.744330E+03	4.453991E-05	1.712581E-06
2.784103E+03	4.731229E-05	1.807967E-06
2.823876E+03	5.038260E-05	1.913125E-06
2.863649E+03	5.377958E-05	2.028881E-06
2.903421E+03	5.752431E-05	2.155735E-06
2.943194E+03	6.027045E-05	2.243264E-06
2.982967E+03	6.618913E-05	2.446360E-06
2.992910E+03	6.587516E-05	2.430429E-06
3.002854E+03	6.707625E-05	2.470318E-06
3.012797E+03	6.830516E-05	2.511052E-06
3.022740E+03	7.118409E-05	2.612152E-06
3.032683E+03	7.084826E-05	2.595095E-06
3.042627E+03	7.385719E-05	2.700352E-06
3.052570E+03	7.351999E-05	2.683069E-06
3.062513E+03	7.664000E-05	2.791745E-06
3.072456E+03	7.809050E-05	2.839275E-06
3.082399E+03	7.773668E-05	2.821104E-06
3.092343E+03	8.107507E-05	2.936700E-06
3.102286E+03	8.262274E-05	2.987073E-06
3.112229E+03	8.224807E-05	2.967844E-06
3.122172E+03	8.382548E-05	3.018947E-06
3.132116E+03	8.542226E-05	3.070503E-06
3.142059E+03	8.705204E-05	3.122995E-06
3.152002E+03	8.872946E-05	3.176940E-06
3.161945E+03	9.258944E-05	3.308616E-06
3.171889E+03	9.436121E-05	3.365248E-06
3.181832E+03	9.618314E-05	3.423387E-06
3.191775E+03	9.804056E-05	3.482500E-06
3.201718E+03	9.758505E-05	3.459328E-06
3.211661E+03	1.018627E-04	3.603642E-06
3.221605E+03	1.038111E-04	3.665073E-06
3.231548E+03	1.033262E-04	3.640467E-06
3.241491E+03	1.078483E-04	3.791945E-06
3.251434E+03	1.073228E-04	3.765628E-06
3.261378E+03	1.120295E-04	3.922559E-06
3.271321E+03	1.141740E-04	3.989241E-06
3.281264E+03	1.135873E-04	3.960352E-06
3.291207E+03	1.185697E-04	4.125279E-06
3.301150E+03	1.208206E-04	4.194602E-06
3.311094E+03	1.231065E-04	4.264769E-06
3.321037E+03	1.254271E-04	4.335760E-06
3.330980E+03	1.277821E-04	4.407553E-06
3.340923E+03	1.301915E-04	4.480830E-06
3.350867E+03	1.294241E-04	4.444616E-06
3.360810E+03	1.318005E-04	4.516201E-06
3.370753E+03	1.375577E-04	4.702982E-06
3.380696E+03	1.400775E-04	4.778406E-06
3.390639E+03	1.426285E-04	4.854470E-06
3.400583E+03	1.416981E-04	4.811883E-06
3.410526E+03	1.442469E-04	4.887279E-06
3.420469E+03	1.504847E-04	5.086949E-06
3.430412E+03	1.494285E-04	5.039612E-06
3.440356E+03	1.558739E-04	5.244811E-06
3.450299E+03	1.585968E-04	5.324003E-06
3.460242E+03	1.613453E-04	5.403586E-06
3.470185E+03	1.601054E-04	5.349434E-06
3.480128E+03	1.628348E-04	5.427744E-06
3.490072E+03	1.655863E-04	5.506319E-06
3.500015E+03	1.726298E-04	5.726799E-06
3.509958E+03	1.711519E-04	5.664104E-06
3.519901E+03	1.784026E-04	5.889770E-06
3.529845E+03	1.813039E-04	5.970990E-06
3.539788E+03	1.796413E-04	5.901762E-06
3.549731E+03	1.871866E-04	6.134525E-06
3.559674E+03	1.854111E-04	6.061314E-06
3.569617E+03	1.883033E-04	6.140560E-06
3.579561E+03	1.961400E-04	6.380133E-06
3.589504E+03	1.991301E-04	6.461125E-06
3.599447E+03	2.021617E-04	6.542926E-06
3.609390E+03	2.051719E-04	6.623494E-06
3.619334E+03	2.029600E-04	6.535369E-06
3.629277E+03	2.059099E-04	6.613351E-06
3.639220E+03	2.088650E-04	6.690966E-06
3.649163E+03	2.118238E-04	6.768166E-06
3.659107E+03	2.204155E-04	7.024346E-06
3.669050E+03	2.177805E-04	6.922202E-06
3.678993E+03	2.207424E-04	6.997886E-06
3.688936E+03	2.295966E-04	7.259334E-06
3.698879E+03	2.266924E-04	7.148463E-06
3.708823E+03	2.296430E-04	7.222167E-06
3.718766E+03	2.387463E-04	7.488312E-06
3.728709E+03	2.417563E-04	7.562272E-06
3.738652E+03	2.447919E-04	7.636476E-06
3.748596E+03	2.413889E-04	7.509812E-06
3.758539E+03	2.442833E-04	7.579065E-06
3.768482E+03	2.537746E-04	7.851894E-06
3.778425E+03	2.567064E-04	7.920667E-06
3.788368E+03	2.596547E-04	7.989402E-06
3.798312E+03	2.557016E-04	7.845833E-06
3.808255E+03	2.654355E-04	8.121692E-06
3.818198E+03	2.683027E-04	8.186321E-06
3.828141E+03	2.711380E-04	8.249445E-06
3.838085E+03	2.667323E-04	8.092357E-06
3.848028E+03	2.693849E-04	8.149526E-06
3.857971E+03	2.719986E-04	8.205023E-06
3.867914E+03	2.820258E-04	8.483021E-06
3.877857E+03	2.771420E-04	8.312032E-06
3.887801E+03	2.872140E-04	8.589108E-06
3.897744E+03	2.897587E-04	8.639952E-06
3.907687E+03	2.922545E-04	8.688863E-06
3.917630E+03	2.946562E-04	8.734518E-06
3.927574E+03	2.970505E-04	8.779503E-06
3.937517E+03	2.913646E-04	8.585932E-06
3.947460E+03	3.016402E-04	8.862286E-06
3.957403E+03	3.038808E-04	8.901444E-06
3.967346E+03	2.978268E-04	8.697939E-06
3.977290E+03	2.998700E-04	8.731243E-06
3.987233E+03	3.102666E-04	9.006655E-06
3.997176E+03	3.038701E-04	8.794208E-06
4.007119E+03	3.057882E-04	8.822769E-06
4.017063E+03	3.162241E-04	9.095986E-06
4.027006E+03	3.181740E-04	9.124000E-06
4.036949E+03	3.200992E-04	9.150947E-06
4.046892E+03	3.219582E-04	9.175658E-06
4.056835E+03	3.238519E-04	9.201015E-06
4.066779E+03	3.256923E-04	9.224519E-06
4.076722E+03	3.275819E-04	9.249081E-06
4.086665E+03	3.294325E-04	9.272207E-06
4.096608E+03	3.222653E-04	9.041986E-06
4.106552E+03	3.241076E-04	9.065020E-06
4.116495E+03	3.352125E-04	9.345980E-06
4.126438E+03	3.371764E-04	9.370932E-06
4.136381E+03	3.392374E-04	9.398231E-06
4.146324E+03	3.413039E-04	9.425328E-06
4.156268E+03	3.434321E-04	9.453771E-06
4.166211E+03	3.456787E-04	9.485100E-06
4.176154E+03	3.383345E-04	9.253732E-06
4.186097E+03	3.503501E-04	9.551480E-06
4.196041E+03	3.527843E-04	9.586762E-06
4.205984E+03	3.553062E-04	9.624016E-06
4.215927E+03	3.579709E-04	9.664707E-06
4.225870E+03	3.606771E-04	9.706080E-06
4.235814E+03	3.634779E-04	9.749548E-06
4.245757E+03	3.663738E-04	9.795102E-06
4.255700E+03	3.694177E-04	9.844136E-06
4.265643E+03	3.620254E-04	9.615490E-06
4.275586E+03	3.756784E-04	9.945312E-06
4.285530E+03	3.789429E-04	9.998697E-06
4.295473E+03	3.822922E-04	1.005379E-05
4.305416E+03	3.748306E-04	9.824993E-06
4.315359E+03	3.892805E-04	1.016999E-05
4.325303E+03	3.928520E-04	1.022929E-05
4.335246E+03	3.852437E-04	9.997895E-06
4.345189E+03	4.001671E-04	1.035069E-05
4.355132E+03	4.038927E-04	1.041232E-05
4.365075E+03	3.960463E-04	1.017606E-05
4.375019E+03	3.996619E-04	1.023474E-05
4.384962E+03	4.033417E-04	1.029454E-05
4.394905E+03	4.189901E-04	1.065826E-05
4.404848E+03	4.227472E-04	1.071794E-05
4.414792E+03	4.264071E-04	1.077463E-05
4.424735E+03	4.300747E-04	1.083100E-05
4.434678E+03	4.336733E-04	1.088513E-05
4.444621E+03	4.245869E-04	1.062143E-05
4.454564E+03	4.405951E-04	1.098502E-05
4.464508E+03	4.310381E-04	1.071077E-05
4.474451E+03	4.469725E-04	1.106952E-05
4.484394E+03	4.369549E-04	1.078516E-05
4.494337E+03	4.527332E-04	1.113712E-05
4.504281E+03	4.553751E-04	1.116450E-05
4.514224E+03	4.578177E-04	1.118667E-05
4.524167E+03	4.599835E-04	1.120178E-05
4.534110E+03	4.619906E-04	1.121278E-05
4.544053E+03	4.637000E-04	1.121632E-05
4.553997E+03	4.516112E-04	1.088704E-05
4.563940E+03	4.664582E-04	1.120695E-05
4.573883E+03	4.674336E-04	1.119238E-05
4.583826E+03	4.682261E-04	1.117336E-05
4.593770E+03	4.687062E-04	1.114686E-05
4.603713E+03	4.689443E-04	1.111461E-05
4.613656E+03	4.690126E-04	1.107839E-05
4.623599E+03	4.687894E-04	1.103536E-05
4.633542E+03	4.546017E-04	1.066483E-05
4.643486E+03	4.677128E-04	1.093486E-05
4.653429E+03	4.531243E-04	1.055748E-05
4.663372E+03	4.521636E-04	1.049892E-05
4.673315E+03	4.648155E-04	1.075555E-05
4.683259E+03	4.635395E-04	1.068904E-05
4.693202E+03	4.484156E-04	1.030457E-05
4.703145E+03	4.606086E-04	1.054813E-05
4.713088E+03	4.454835E-04	1.016637E-05
4.723031E+03	4.438718E-04	1.009438E-05
4.732975E+03	4.422934E-04	1.002344E-05
4.742918E+03	4.406431E-04	9.951177E-06
4.752861E+03	4.390630E-04	9.880799E-06
4.762804E+03	4.508877E-04	1.011132E-05
4.772748E+03	4.359360E-04	9.741657E-06
4.782691E+03	4.344218E-04	9.673617E-06
4.792634E+03	4.330412E-04	9.608819E-06
4.802577E+03	4.316863E-04	9.544845E-06
4.812521E+03	4.304298E-04	9.483294E-06
4.822464E+03	4.425763E-04	9.716223E-06
4.832407E+03	4.415137E-04	9.658336E-06
4.842350E+03	4.274144E-04	9.316488E-06
4.852293E+03	4.398519E-04	9.553243E-06
4.862237E+03	4.392665E-04	9.506264E-06
4.872180E+03	4.387718E-04	9.461372E-06
4.882123E+03	4.384328E-04	9.419942E-06
4.892066E+03	4.382527E-04	9.382009E-06
4.902010E+03	4.382944E-04	9.348876E-06
4.911953E+03	4.384389E-04	9.317962E-06
4.921896E+03	4.254795E-04	9.009596E-06
4.931839E+03	4.392187E-04	9.266559E-06
4.941782E+03	4.398531E-04	9.245971E-06
4.951726E+03	4.406482E-04	9.228701E-06
4.961669E+03	4.281995E-04	8.935004E-06
4.971612E+03	4.292769E-04	8.924474E-06
4.981555E+03	4.305006E-04	8.916857E-06
4.991499E+03	4.318058E-04	8.910789E-06
5.001442E+03	4.468573E-04	9.187192E-06
5.011385E+03	4.485350E-04	9.187412E-06
5.021328E+03	4.503382E-04	9.189999E-06
5.031271E+03	4.521967E-04	9.193498E-06
5.041215E+03	4.542240E-04	9.200199E-06
5.051158E+03	4.424009E-04	8.927175E-06
5.061101E+03	4.584951E-04	9.217240E-06
5.071044E+03	4.607767E-04	9.228314E-06
5.080988E+03	4.489094E-04	8.956817E-06
5.090931E+03	4.653754E-04	9.250373E-06
5.100874E+03	4.677882E-04	9.263258E-06
5.110817E+03	4.557952E-04	8.991683E-06
5.120760E+03	4.580808E-04	9.002606E-06
5.130704E+03	4.749004E-04	9.297837E-06
5.140647E+03	4.771898E-04	9.307274E-06
5.150590E+03	4.794181E-04	9.315293E-06
5.160533E+03	4.815662E-04	9.321544E-06
5.170477E+03	4.836151E-04	9.325684E-06
5.180420E+03	4.706744E-04	9.041696E-06
5.190363E+03	4.724164E-04	9.040711E-06
5.200306E+03	4.889816E-04	9.322198E-06
5.210249E+03	4.904521E-04	9.314744E-06
5.220193E+03	4.917368E-04	9.303709E-06
5.230136E+03	4.776736E-04	9.003358E-06
5.240079E+03	4.936940E-04	9.270054E-06
5.250022E+03	4.790877E-04	8.961732E-06
5.259966E+03	4.794289E-04	8.934196E-06
5.269909E+03	4.796040E-04	8.903701E-06
5.279852E+03	4.947394E-04	9.150045E-06
5.289795E+03	4.944270E-04	9.109839E-06
5.299738E+03	4.785712E-04	8.784562E-06
5.309682E+03	4.777922E-04	8.737381E-06
5.319625E+03	4.919447E-04	8.962541E-06
5.329568E+03	4.905910E-04	8.904538E-06
5.339511E+03	4.890060E-04	8.842760E-06
5.349455E+03	4.872636E-04	8.778588E-06
5.359398E+03	4.852416E-04	8.709867E-06
5.369341E+03	4.830159E-04	8.638012E-06
5.379284E+03	4.657264E-04	8.298291E-06
5.389228E+03	4.632697E-04	8.224398E-06
5.399171E+03	4.605806E-04	8.146966E-06
5.409114E+03	4.723388E-04	8.324763E-06
5.419057E+03	4.692298E-04	8.240249E-06
5.429000E+03	4.659528E-04	8.153464E-06
5.438944E+03	4.624976E-04	8.064264E-06
5.448887E+03	4.588481E-04	7.972401E-06
5.458830E+03	4.408661E-04	7.633127E-06
5.468773E+03	4.509400E-04	7.780385E-06
5.478717E+03	4.328704E-04	7.442821E-06
5.488660E+03	4.286530E-04	7.345030E-06
5.498603E+03	4.244630E-04	7.248464E-06
5.508546E+03	4.202891E-04	7.152912E-06
5.518489E+03	4.161137E-04	7.058059E-06
5.528433E+03	4.120821E-04	6.966349E-06
5.538376E+03	4.081643E-04	6.877240E-06
5.548319E+03	4.173288E-04	7.008491E-06
5.558262E+03	4.135328E-04	6.922008E-06
5.568206E+03	3.972052E-04	6.627072E-06
5.578149E+03	4.065603E-04	6.761218E-06
5.588092E+03	4.034156E-04	6.687353E-06
5.598035E+03	4.004460E-04	6.616908E-06
5.607978E+03	3.853344E-04	6.346967E-06
5.617922E+03	3.952973E-04	6.490487E-06
5.627865E+03	3.930858E-04	6.433883E-06
5.637808E+03	3.911454E-04	6.382099E-06
5.647751E+03	3.894826E-04	6.335191E-06
5.657695E+03	3.760212E-04	6.097294E-06
5.667638E+03	3.870584E-04	6.256925E-06
5.677581E+03	3.862493E-04	6.224696E-06
5.687524E+03	3.737215E-04	6.004414E-06
5.697467E+03	3.854854E-04	6.174596E-06
5.707411E+03	3.855235E-04	6.156519E-06
5.717354E+03	3.858336E-04	6.142906E-06
5.727297E+03	3.743338E-04	5.941934E-06
5.737240E+03	3.872351E-04	6.128354E-06
5.747184E+03	3.761732E-04	5.935569E-06
5.757127E+03	3.774318E-04	5.937774E-06
5.767070E+03	3.788980E-04	5.943237E-06
5.777013E+03	3.805567E-04	5.951692E-06
5.786956E+03	3.946685E-04	6.154301E-06
5.796900E+03	3.843345E-04	5.975656E-06
5.806843E+03	3.988791E-04	6.183752E-06
5.816786E+03	4.012147E-04	6.201930E-06
5.826729E+03	4.036639E-04	6.221768E-06
5.836673E+03	4.061567E-04	6.242176E-06
5.846616E+03	4.087865E-04	6.264581E-06
5.856559E+03	3.986365E-04	6.091585E-06
5.866502E+03	4.012571E-04	6.114183E-06
5.876445E+03	4.169482E-04	6.335267E-06
5.886389E+03	4.066964E-04	6.162049E-06
5.896332E+03	4.226516E-04	6.385783E-06
5.906275E+03	4.255413E-04	6.411437E-06
5.916218E+03	4.285367E-04	6.438561E-06
5.926162E+03	4.180564E-04	6.263659E-06
5.936105E+03	4.345932E-04	6.493429E-06
5.946048E+03	4.241248E-04	6.319584E-06
5.955991E+03	4.272653E-04	6.348952E-06
5.965935E+03	4.443964E-04	6.585528E-06
5.975878E+03	4.478969E-04	6.619425E-06
5.985821E+03	4.515619E-04	6.655618E-06
5.995764E+03	4.554171E-04	6.694471E-06
6.005707E+03	4.595503E-04	6.737256E-06
6.015651E+03	4.493832E-04	6.570791E-06
6.025594E+03	4.538261E-04	6.618343E-06
6.035537E+03	4.585558E-04	6.669899E-06
6.045480E+03	4.785369E-04	6.942544E-06
6.055424E+03	4.689669E-04	6.786266E-06
6.065367E+03	4.899213E-04	7.071479E-06
6.075310E+03	4.807737E-04	6.921977E-06
6.085253E+03	5.028711E-04	7.222080E-06
6.095196E+03	5.099332E-04	7.305441E-06
6.105140E+03	5.173889E-04	7.394173E-06
6.115083E+03	5.252320E-04	7.488167E-06
6.125026E+03	5.333778E-04	7.586196E-06
6.134969E+03	5.419462E-04	7.689955E-06
6.144913E+03	5.508377E-04	7.798015E-06
6.154856E+03	5.425271E-04	7.662837E-06
6.164799E+03	5.693524E-04	8.023663E-06
6.174742E+03	5.609437E-04	7.887703E-06
6.184685E+03	5.702761E-04	8.001535E-06
6.194629E+03	5.797261E-04	8.116816E-06
6.204572E+03	6.080489E-04	8.495612E-06
6.214515E+03	6.175561E-04	8.610835E-06
6.224458E+03	6.269251E-04	8.724035E-06
6.234402E+03	6.358926E-04	8.831601E-06
6.244345E+03	6.445275E-04	8.934554E-06
6.254288E+03	6.525598E-04	9.029222E-06
6.264231E+03	6.600657E-04	9.116732E-06
6.274174E+03	6.667777E-04	9.193473E-06
6.284118E+03	6.726979E-04	9.259562E-06
6.294061E+03	6.778411E-04	9.315287E-06
6.304004E+03	6.819622E-04	9.357372E-06
6.313947E+03	6.851913E-04	9.387686E-06
6.323891E+03	6.873083E-04	9.403303E-06
6.333834E+03	6.670559E-04	9.113873E-06
6.343777E+03	6.884066E-04	9.393523E-06
6.353720E+03	6.660918E-04	9.078036E-06
6.363663E+03	6.641184E-04	9.040870E-06
6.373607E+03	6.612823E-04	8.992740E-06
6.383550E+03	6.784738E-04	9.217496E-06
6.393493E+03	6.736408E-04	9.143622E-06
6.403436E+03	6.472902E-04	8.778798E-06
6.413380E+03	6.616811E-04	8.967427E-06
6.423323E+03	6.545988E-04	8.865745E-06
6.433266E+03	6.268486E-04	8.485203E-06
6.443209E+03	6.386369E-04	8.640771E-06
6.453152E+03	6.298613E-04	8.518860E-06
6.463096E+03	6.206031E-04	8.391247E-06
6.473039E+03	5.919390E-04	8.002071E-06
6.482982E+03	5.820604E-04	7.867593E-06
6.492925E+03	5.717438E-04	7.727838E-06
6.502869E+03	5.790054E-04	7.826269E-06
6.512812E+03	5.501039E-04	7.436427E-06
6.522755E+03	5.562720E-04	7.521157E-06
6.532698E+03	5.447415E-04	7.367070E-06
6.542642E+03	5.333493E-04	7.215242E-06
6.552585E+03	5.220853E-04	7.065484E-06
6.562528E+03	4.952141E-04	6.704709E-06
6.572471E+03	5.001157E-04	6.774353E-06
6.582414E+03	4.742848E-04	6.427906E-06
6.592358E+03	4.642086E-04	6.295031E-06
6.602301E+03	4.688713E-04	6.362278E-06
6.612244E+03	4.448264E-04	6.040080E-06
6.622187E+03	4.494201E-04	6.106821E-06
6.632131E+03	4.400551E-04	5.984068E-06
6.642074E+03	4.310346E-04	5.866019E-06
6.652017E+03	4.223015E-04	5.751876E-06
6.661960E+03	4.010679E-04	5.467303E-06
6.671903E+03	4.056521E-04	5.534630E-06
6.681847E+03	3.977428E-04	5.431592E-06
6.691790E+03	3.901850E-04	5.333280E-06
6.701733E+03	3.829271E-04	5.238984E-06
6.711676E+03	3.643487E-04	4.989559E-06
6.721620E+03	3.692738E-04	5.061897E-06
6.731563E+03	3.628866E-04	4.979211E-06
6.741506E+03	3.458734E-04	4.750454E-06
6.751449E+03	3.511064E-04	4.827120E-06
6.761392E+03	3.350714E-04	4.611263E-06
6.771336E+03	3.301620E-04	4.548242E-06
6.781279E+03	3.358698E-04	4.631497E-06
6.791222E+03	3.212505E-04	4.434324E-06
6.801165E+03	3.272952E-04	4.522250E-06
6.811109E+03	3.235528E-04	4.474956E-06
6.821052E+03	3.201033E-04	4.431585E-06
6.830995E+03	3.170349E-04	4.393364E-06
6.840938E+03	3.142632E-04	4.359130E-06
6.850881E+03	3.118323E-04	4.329501E-06
6.860825E+03	3.097842E-04	4.305070E-06
6.870768E+03	3.080357E-04	4.284687E-06
6.880711E+03	3.066286E-04	4.268941E-06
6.890654E+03	2.962223E-04	4.127682E-06
6.900598E+03	3.048784E-04	4.251941E-06
6.910541E+03	2.951429E-04	4.119606E-06
6.920484E+03	2.951361E-04	4.122858E-06
6.930427E+03	2.954158E-04	4.130018E-06
6.940370E+03	3.053592E-04	4.272286E-06
6.950314E+03	2.969484E-04	4.157671E-06
6.960257E+03	3.076481E-04	4.310535E-06
6.970200E+03	2.998055E-04	4.203508E-06
6.980143E+03	3.016884E-04	4.232663E-06
6.990087E+03	3.134746E-04	4.400754E-06
7.000030E+03	3.063863E-04	4.303783E-06
7.009973E+03	3.189535E-04	4.482817E-06
7.019916E+03	3.221567E-04	4.530220E-06
7.029860E+03	3.256603E-04	4.581749E-06
7.039803E+03	3.294567E-04	4.637293E-06
7.049746E+03	3.335364E-04	4.696721E-06
7.059689E+03	3.275878E-04	4.614762E-06
7.069632E+03	3.425008E-04	4.826568E-06
7.079576E+03	3.473579E-04	4.896593E-06
7.089519E+03	3.524426E-04	4.969697E-06
7.099462E+03	3.577351E-04	5.045596E-06
7.109405E+03	3.632126E-04	5.123959E-06
7.119349E+03	3.688492E-04	5.204417E-06
7.129292E+03	3.745649E-04	5.285831E-06
7.139235E+03	3.804278E-04	5.369154E-06
7.149178E+03	3.746130E-04	5.287477E-06
7.159121E+03	3.803762E-04	5.369026E-06
7.169065E+03	3.982196E-04	5.620904E-06
7.179008E+03	3.917931E-04	5.530018E-06
7.188951E+03	4.097548E-04	5.783156E-06
7.198894E+03	4.026948E-04	5.682940E-06
7.208838E+03	4.206633E-04	5.935718E-06
7.218781E+03	4.127825E-04	5.823539E-06
7.228724E+03	4.304001E-04	6.070871E-06
7.238667E+03	4.347431E-04	6.130703E-06
7.248610E+03	4.253036E-04	5.996004E-06
7.258554E+03	4.420000E-04	6.229557E-06
7.268497E+03	4.314025E-04	6.078222E-06
7.278440E+03	4.471220E-04	6.297475E-06
7.288383E+03	4.352183E-04	6.127479E-06
7.298327E+03	4.362454E-04	6.139431E-06
7.308270E+03	4.502240E-04	6.333405E-06
7.318213E+03	4.499068E-04	6.326039E-06
7.328156E+03	4.354363E-04	6.119617E-06
7.338099E+03	4.473519E-04	6.283907E-06
7.348043E+03	4.451401E-04	6.249551E-06
7.357986E+03	4.422565E-04	6.205684E-06
7.367929E+03	4.388567E-04	6.154513E-06
7.377872E+03	4.348618E-04	6.094958E-06
7.387816E+03	4.303805E-04	6.028567E-06
7.397759E+03	4.255237E-04	5.956922E-06
7.407702E+03	4.075908E-04	5.702356E-06
7.417645E+03	4.146790E-04	5.797888E-06
7.427588E+03	4.088132E-04	5.712254E-06
7.437532E+03	3.906873E-04	5.455498E-06
7.447475E+03	3.846769E-04	5.368124E-06
7.457418E+03	3.903434E-04	5.443701E-06
7.467361E+03	3.840549E-04	5.352571E-06
7.477305E+03	3.664763E-04	5.104327E-06
7.487248E+03	3.716304E-04	5.172853E-06
7.497191E+03	3.656391E-04	5.086297E-06
7.507134E+03	3.489778E-04	4.851570E-06
7.517077E+03	3.434789E-04	4.772282E-06
7.527021E+03	3.486691E-04	4.841597E-06
7.536964E+03	3.332445E-04	4.624833E-06
7.546907E+03	3.386255E-04	4.696999E-06
7.556850E+03	3.340534E-04	4.631225E-06
7.566794E+03	3.298021E-04	4.570096E-06
7.576737E+03	3.161884E-04	4.379492E-06
7.586680E+03	3.127145E-04	4.329595E-06
7.596623E+03	3.190705E-04	4.415951E-06
7.606567E+03	3.067736E-04	4.244362E-06
7.616510E+03	3.043084E-04	4.209061E-06
7.626453E+03	3.021777E-04	4.178610E-06
7.636396E+03	3.095956E-04	4.280410E-06
7.646339E+03	3.080750E-04	4.258854E-06
7.656283E+03	2.977813E-04	4.116289E-06
7.666226E+03	3.060020E-04	4.229922E-06
7.676169E+03	3.054295E-04	4.222293E-06
7.686112E+03	2.960988E-04	4.093873E-06
7.696056E+03	2.960989E-04	4.094751E-06
7.705999E+03	3.053772E-04	4.224301E-06
7.715942E+03	2.968167E-04	4.107429E-06
