#wls	flux	fluxerr
1.590916E+03	1.122310E-05	5.050585E-07
1.630689E+03	1.128695E-05	5.068167E-07
1.670462E+03	1.135697E-05	5.088104E-07
1.710235E+03	1.143796E-05	5.112517E-07
1.750007E+03	1.152661E-05	5.139887E-07
1.789780E+03	1.162794E-05	5.172401E-07
1.829553E+03	1.174080E-05	5.209503E-07
1.869326E+03	1.186622E-05	5.251591E-07
1.909099E+03	1.200529E-05	5.299087E-07
1.948872E+03	1.215703E-05	5.351499E-07
1.988645E+03	1.232707E-05	5.411228E-07
2.028418E+03	1.251467E-05	5.477868E-07
2.068191E+03	1.272138E-05	5.552006E-07
2.107964E+03	1.294889E-05	5.634280E-07
2.147736E+03	1.320142E-05	5.726412E-07
2.187509E+03	1.347634E-05	5.827129E-07
2.227282E+03	1.377820E-05	5.938278E-07
2.267055E+03	1.410948E-05	6.060770E-07
2.306828E+03	1.447549E-05	6.196721E-07
2.346601E+03	1.487417E-05	6.345046E-07
2.386374E+03	1.531136E-05	6.508048E-07
2.426147E+03	1.579362E-05	6.688270E-07
2.465920E+03	1.632242E-05	6.886074E-07
2.505692E+03	1.689940E-05	7.101856E-07
2.545465E+03	1.753560E-05	7.339950E-07
2.585238E+03	1.823063E-05	7.599812E-07
2.625011E+03	1.899727E-05	7.886378E-07
2.664784E+03	1.983959E-05	8.200867E-07
2.704557E+03	2.076563E-05	8.546097E-07
2.744330E+03	2.178442E-05	8.925208E-07
2.784103E+03	2.290609E-05	9.341701E-07
2.823876E+03	2.413771E-05	9.797746E-07
2.863649E+03	2.550038E-05	1.030110E-06
2.903421E+03	2.700438E-05	1.085497E-06
2.943194E+03	2.867089E-05	1.146683E-06
2.982967E+03	3.050818E-05	1.213880E-06
2.992910E+03	3.099314E-05	1.231562E-06
3.002854E+03	3.149613E-05	1.249902E-06
3.012797E+03	3.201208E-05	1.268696E-06
3.022740E+03	3.254136E-05	1.287956E-06
3.032683E+03	3.308434E-05	1.307694E-06
3.042627E+03	3.363545E-05	1.327688E-06
3.052570E+03	3.420690E-05	1.348418E-06
3.062513E+03	3.479324E-05	1.369664E-06
3.072456E+03	3.539487E-05	1.391442E-06
3.082399E+03	3.601224E-05	1.413763E-06
3.092343E+03	3.663929E-05	1.436390E-06
3.102286E+03	3.728935E-05	1.459841E-06
3.112229E+03	3.795650E-05	1.483880E-06
3.122172E+03	3.864121E-05	1.508524E-06
3.132116E+03	3.934400E-05	1.533788E-06
3.142059E+03	4.005827E-05	1.559412E-06
3.152002E+03	4.079858E-05	1.585961E-06
3.161945E+03	4.155851E-05	1.613180E-06
3.171889E+03	4.233860E-05	1.641086E-06
3.181832E+03	4.313943E-05	1.669697E-06
3.191775E+03	4.395379E-05	1.698732E-06
3.201718E+03	4.479767E-05	1.728803E-06
3.211661E+03	4.566404E-05	1.759636E-06
3.221605E+03	4.655353E-05	1.791250E-06
3.231548E+03	4.746677E-05	1.823663E-06
3.241491E+03	4.840441E-05	1.856898E-06
3.251434E+03	4.935840E-05	1.890640E-06
3.261378E+03	5.034667E-05	1.925572E-06
3.271321E+03	5.136138E-05	1.961387E-06
3.281264E+03	5.240323E-05	1.998108E-06
3.291207E+03	5.347294E-05	2.035757E-06
3.301150E+03	5.457125E-05	2.074355E-06
3.311094E+03	5.568907E-05	2.113553E-06
3.321037E+03	5.684664E-05	2.154113E-06
3.330980E+03	5.803509E-05	2.195691E-06
3.340923E+03	5.925521E-05	2.238312E-06
3.350867E+03	6.050779E-05	2.281999E-06
3.360810E+03	6.179365E-05	2.326776E-06
3.370753E+03	6.310250E-05	2.372249E-06
3.380696E+03	6.445711E-05	2.419269E-06
3.390639E+03	6.584748E-05	2.467451E-06
3.400583E+03	6.727448E-05	2.516821E-06
3.410526E+03	6.873883E-05	2.567398E-06
3.420469E+03	7.024154E-05	2.619212E-06
3.430412E+03	7.178326E-05	2.672279E-06
3.440356E+03	7.335209E-05	2.726150E-06
3.450299E+03	7.497433E-05	2.781794E-06
3.460242E+03	7.663813E-05	2.838760E-06
3.470185E+03	7.834440E-05	2.897076E-06
3.480128E+03	8.009383E-05	2.956757E-06
3.490072E+03	8.188729E-05	3.017825E-06
3.500015E+03	8.372545E-05	3.080298E-06
3.509958E+03	8.559409E-05	3.143642E-06
3.519901E+03	8.752360E-05	3.208966E-06
3.529845E+03	8.949993E-05	3.275742E-06
3.539788E+03	9.152372E-05	3.343985E-06
3.549731E+03	9.359545E-05	3.413701E-06
3.559674E+03	9.571576E-05	3.484905E-06
3.569617E+03	9.788497E-05	3.557597E-06
3.579561E+03	1.000859E-04	3.631142E-06
3.589504E+03	1.023536E-04	3.706806E-06
3.599447E+03	1.046711E-04	3.783958E-06
3.609390E+03	1.070384E-04	3.862591E-06
3.619334E+03	1.094556E-04	3.942693E-06
3.629277E+03	1.119224E-04	4.024247E-06
3.639220E+03	1.144387E-04	4.107235E-06
3.649163E+03	1.169834E-04	4.190894E-06
3.659107E+03	1.195966E-04	4.276646E-06
3.669050E+03	1.222573E-04	4.363737E-06
3.678993E+03	1.249647E-04	4.452115E-06
3.688936E+03	1.277175E-04	4.541735E-06
3.698879E+03	1.305143E-04	4.632532E-06
3.708823E+03	1.333536E-04	4.724442E-06
3.718766E+03	1.362093E-04	4.816537E-06
3.728709E+03	1.391268E-04	4.910409E-06
3.738652E+03	1.420800E-04	5.005131E-06
3.748596E+03	1.450660E-04	5.100593E-06
3.758539E+03	1.480818E-04	5.196676E-06
3.768482E+03	1.511236E-04	5.293247E-06
3.778425E+03	1.541875E-04	5.390162E-06
3.788368E+03	1.572416E-04	5.486298E-06
3.798312E+03	1.603354E-04	5.583388E-06
3.808255E+03	1.634366E-04	5.680295E-06
3.818198E+03	1.665392E-04	5.776809E-06
3.828141E+03	1.696366E-04	5.872702E-06
3.838085E+03	1.727217E-04	5.967729E-06
3.848028E+03	1.757557E-04	6.060555E-06
3.857971E+03	1.787911E-04	6.152995E-06
3.867914E+03	1.817881E-04	6.243683E-06
3.877857E+03	1.847364E-04	6.332272E-06
3.887801E+03	1.876248E-04	6.418388E-06
3.897744E+03	1.904407E-04	6.501618E-06
3.907687E+03	1.931710E-04	6.581526E-06
3.917630E+03	1.957669E-04	6.656470E-06
3.927574E+03	1.982811E-04	6.728269E-06
3.937517E+03	2.006635E-04	6.795241E-06
3.947460E+03	2.028972E-04	6.856844E-06
3.957403E+03	2.049652E-04	6.912535E-06
3.967346E+03	2.068507E-04	6.961782E-06
3.977290E+03	2.085015E-04	7.002874E-06
3.987233E+03	2.099763E-04	7.037826E-06
3.997176E+03	2.112279E-04	7.065094E-06
4.007119E+03	2.122489E-04	7.084481E-06
4.017063E+03	2.130364E-04	7.095941E-06
4.027006E+03	2.135930E-04	7.099604E-06
4.036949E+03	2.138895E-04	7.094557E-06
4.046892E+03	2.140150E-04	7.083797E-06
4.056835E+03	2.139520E-04	7.066791E-06
4.066779E+03	2.137258E-04	7.044409E-06
4.076722E+03	2.133661E-04	7.017665E-06
4.086665E+03	2.129061E-04	6.987673E-06
4.096608E+03	2.123440E-04	6.954399E-06
4.106552E+03	2.117904E-04	6.921483E-06
4.116495E+03	2.112446E-04	6.888896E-06
4.126438E+03	2.107417E-04	6.857783E-06
4.136381E+03	2.103151E-04	6.829219E-06
4.146324E+03	2.099585E-04	6.802988E-06
4.156268E+03	2.097725E-04	6.782324E-06
4.166211E+03	2.097440E-04	6.766771E-06
4.176154E+03	2.098924E-04	6.756927E-06
4.186097E+03	2.102335E-04	6.753255E-06
4.196041E+03	2.107420E-04	6.754913E-06
4.205984E+03	2.114990E-04	6.764455E-06
4.215927E+03	2.124716E-04	6.780784E-06
4.225870E+03	2.136601E-04	6.803863E-06
4.235814E+03	2.150614E-04	6.833552E-06
4.245757E+03	2.166313E-04	6.868406E-06
4.255700E+03	2.184356E-04	6.910473E-06
4.265643E+03	2.204248E-04	6.958146E-06
4.275586E+03	2.225844E-04	7.010928E-06
4.285530E+03	2.248588E-04	7.067040E-06
4.295473E+03	2.273079E-04	7.128337E-06
4.305416E+03	2.298743E-04	7.192988E-06
4.315359E+03	2.325390E-04	7.260383E-06
4.325303E+03	2.352843E-04	7.329947E-06
4.335246E+03	2.380529E-04	7.399888E-06
4.345189E+03	2.409147E-04	7.472369E-06
4.355132E+03	2.438204E-04	7.545848E-06
4.365075E+03	2.467668E-04	7.620223E-06
4.375019E+03	2.497131E-04	7.694225E-06
4.384962E+03	2.527529E-04	7.770741E-06
4.394905E+03	2.558545E-04	7.848782E-06
4.404848E+03	2.590305E-04	7.928719E-06
4.414792E+03	2.622468E-04	8.009499E-06
4.424735E+03	2.656025E-04	8.094134E-06
4.434678E+03	2.690554E-04	8.181313E-06
4.444621E+03	2.725535E-04	8.269437E-06
4.454564E+03	2.761765E-04	8.360916E-06
4.464508E+03	2.798529E-04	8.453562E-06
4.474451E+03	2.835463E-04	8.546271E-06
4.484394E+03	2.871590E-04	8.636098E-06
4.494337E+03	2.907310E-04	8.724261E-06
4.504281E+03	2.941441E-04	8.807231E-06
4.514224E+03	2.972702E-04	8.881213E-06
4.524167E+03	3.001307E-04	8.946900E-06
4.534110E+03	3.025922E-04	9.000381E-06
4.544053E+03	3.045759E-04	9.039390E-06
4.553997E+03	3.059574E-04	9.060343E-06
4.563940E+03	3.067840E-04	9.064752E-06
4.573883E+03	3.069603E-04	9.049913E-06
4.583826E+03	3.064097E-04	9.013703E-06
4.593770E+03	3.052362E-04	8.959310E-06
4.603713E+03	3.034051E-04	8.885845E-06
4.613656E+03	3.009026E-04	8.793028E-06
4.623599E+03	2.978890E-04	8.685661E-06
4.633542E+03	2.943804E-04	8.564314E-06
4.643486E+03	2.904052E-04	8.429903E-06
4.653429E+03	2.861482E-04	8.287871E-06
4.663372E+03	2.816434E-04	8.139256E-06
4.673315E+03	2.769259E-04	7.985109E-06
4.683259E+03	2.721703E-04	7.830499E-06
4.693202E+03	2.673990E-04	7.676072E-06
4.703145E+03	2.626294E-04	7.522330E-06
4.713088E+03	2.580076E-04	7.373446E-06
4.723031E+03	2.534887E-04	7.228108E-06
4.732975E+03	2.491982E-04	7.089863E-06
4.742918E+03	2.451203E-04	6.958226E-06
4.752861E+03	2.412356E-04	6.832600E-06
4.762804E+03	2.376443E-04	6.715778E-06
4.772748E+03	2.343149E-04	6.606816E-06
4.782691E+03	2.312138E-04	6.504720E-06
4.792634E+03	2.284242E-04	6.411778E-06
4.802577E+03	2.258658E-04	6.325685E-06
4.812521E+03	2.236140E-04	6.248498E-06
4.822464E+03	2.216232E-04	6.178894E-06
4.832407E+03	2.198479E-04	6.115551E-06
4.842350E+03	2.183548E-04	6.060284E-06
4.852293E+03	2.170576E-04	6.010648E-06
4.862237E+03	2.160202E-04	5.968369E-06
4.872180E+03	2.151554E-04	5.930999E-06
4.882123E+03	2.145258E-04	5.900223E-06
4.892066E+03	2.140821E-04	5.874648E-06
4.902010E+03	2.137759E-04	5.852912E-06
4.911953E+03	2.136705E-04	5.836717E-06
4.921896E+03	2.136824E-04	5.823753E-06
4.931839E+03	2.138768E-04	5.815771E-06
4.941782E+03	2.141728E-04	5.810539E-06
4.951726E+03	2.146383E-04	5.809882E-06
4.961669E+03	2.151952E-04	5.811658E-06
4.971612E+03	2.159150E-04	5.817773E-06
4.981555E+03	2.167222E-04	5.826175E-06
4.991499E+03	2.176924E-04	5.838874E-06
5.001442E+03	2.187536E-04	5.853911E-06
5.011385E+03	2.199858E-04	5.873408E-06
5.021328E+03	2.213583E-04	5.896519E-06
5.031271E+03	2.228415E-04	5.922431E-06
5.041215E+03	2.245222E-04	5.953425E-06
5.051158E+03	2.263339E-04	5.987709E-06
5.061101E+03	2.283648E-04	6.027590E-06
5.071044E+03	2.305454E-04	6.071196E-06
5.080988E+03	2.329204E-04	6.119678E-06
5.090931E+03	2.355311E-04	6.174087E-06
5.100874E+03	2.382914E-04	6.232127E-06
5.110817E+03	2.412695E-04	6.295555E-06
5.120760E+03	2.443602E-04	6.361599E-06
5.130704E+03	2.476157E-04	6.431590E-06
5.140647E+03	2.509094E-04	6.502226E-06
5.150590E+03	2.542769E-04	6.574421E-06
5.160533E+03	2.575732E-04	6.644426E-06
5.170477E+03	2.608227E-04	6.712886E-06
5.180420E+03	2.638692E-04	6.775796E-06
5.190363E+03	2.666895E-04	6.832605E-06
5.200306E+03	2.692646E-04	6.882871E-06
5.210249E+03	2.714423E-04	6.922755E-06
5.220193E+03	2.732632E-04	6.953365E-06
5.230136E+03	2.745914E-04	6.971314E-06
5.240079E+03	2.754910E-04	6.978315E-06
5.250022E+03	2.758502E-04	6.971616E-06
5.259966E+03	2.757130E-04	6.952424E-06
5.269909E+03	2.751368E-04	6.922269E-06
5.279852E+03	2.740492E-04	6.879411E-06
5.289795E+03	2.725777E-04	6.827131E-06
5.299738E+03	2.706696E-04	6.764176E-06
5.309682E+03	2.684192E-04	6.692969E-06
5.319625E+03	2.659216E-04	6.615939E-06
5.329568E+03	2.631343E-04	6.532071E-06
5.339511E+03	2.601502E-04	6.443710E-06
5.349455E+03	2.570555E-04	6.353018E-06
5.359398E+03	2.537964E-04	6.258691E-06
5.369341E+03	2.504461E-04	6.162551E-06
5.379284E+03	2.470675E-04	6.066156E-06
5.389228E+03	2.435877E-04	5.967726E-06
5.399171E+03	2.400968E-04	5.869478E-06
5.409114E+03	2.365114E-04	5.769375E-06
5.419057E+03	2.328684E-04	5.668330E-06
5.429000E+03	2.291601E-04	5.566163E-06
5.438944E+03	2.254170E-04	5.463623E-06
5.448887E+03	2.215543E-04	5.358658E-06
5.458830E+03	2.176083E-04	5.252157E-06
5.468773E+03	2.136174E-04	5.145057E-06
5.478717E+03	2.095148E-04	5.035748E-06
5.488660E+03	2.053501E-04	4.925434E-06
5.498603E+03	2.011749E-04	4.815350E-06
5.508546E+03	1.969390E-04	4.704298E-06
5.518489E+03	1.927003E-04	4.593659E-06
5.528433E+03	1.884827E-04	4.483997E-06
5.538376E+03	1.843433E-04	4.376658E-06
5.548319E+03	1.802443E-04	4.270733E-06
5.558262E+03	1.762460E-04	4.167633E-06
5.568206E+03	1.724064E-04	4.068712E-06
5.578149E+03	1.686951E-04	3.973224E-06
5.588092E+03	1.651722E-04	3.882563E-06
5.598035E+03	1.618679E-04	3.797403E-06
5.607978E+03	1.588392E-04	3.719047E-06
5.617922E+03	1.560601E-04	3.646847E-06
5.627865E+03	1.535866E-04	3.582069E-06
5.637808E+03	1.514454E-04	3.525293E-06
5.647751E+03	1.496876E-04	3.477657E-06
5.657695E+03	1.482851E-04	3.438455E-06
5.667638E+03	1.472855E-04	3.408743E-06
5.677581E+03	1.467086E-04	3.388919E-06
5.687524E+03	1.465715E-04	3.379322E-06
5.697467E+03	1.469138E-04	3.380808E-06
5.707411E+03	1.476964E-04	3.392411E-06
5.717354E+03	1.489515E-04	3.414814E-06
5.727297E+03	1.506811E-04	3.448002E-06
5.737240E+03	1.528812E-04	3.491824E-06
5.747184E+03	1.555669E-04	3.546566E-06
5.757127E+03	1.586648E-04	3.610496E-06
5.767070E+03	1.621702E-04	3.683455E-06
5.777013E+03	1.660401E-04	3.764422E-06
5.786956E+03	1.702183E-04	3.852081E-06
5.796900E+03	1.746346E-04	3.944810E-06
5.806843E+03	1.792358E-04	4.041383E-06
5.816786E+03	1.838637E-04	4.138219E-06
5.826729E+03	1.884396E-04	4.233550E-06
5.836673E+03	1.928469E-04	4.324768E-06
5.846616E+03	1.969652E-04	4.409207E-06
5.856559E+03	2.006764E-04	4.484259E-06
5.866502E+03	2.038701E-04	4.547516E-06
5.876445E+03	2.064866E-04	4.597711E-06
5.886389E+03	2.083804E-04	4.631684E-06
5.896332E+03	2.095376E-04	4.649208E-06
5.906275E+03	2.099383E-04	4.649931E-06
5.916218E+03	2.095926E-04	4.634168E-06
5.926162E+03	2.085402E-04	4.602880E-06
5.936105E+03	2.068473E-04	4.557609E-06
5.946048E+03	2.046024E-04	4.500368E-06
5.955991E+03	2.019104E-04	4.433531E-06
5.965935E+03	1.988877E-04	4.359691E-06
5.975878E+03	1.956893E-04	4.282282E-06
5.985821E+03	1.923700E-04	4.202513E-06
5.995764E+03	1.890827E-04	4.123736E-06
6.005707E+03	1.859403E-04	4.048400E-06
6.015651E+03	1.830478E-04	3.978771E-06
6.025594E+03	1.805016E-04	3.916913E-06
6.035537E+03	1.783899E-04	3.864696E-06
6.045480E+03	1.767931E-04	3.823815E-06
6.055424E+03	1.757857E-04	3.795820E-06
6.065367E+03	1.754378E-04	3.782160E-06
6.075310E+03	1.758166E-04	3.784215E-06
6.085253E+03	1.769887E-04	3.803342E-06
6.095196E+03	1.790218E-04	3.840909E-06
6.105140E+03	1.819858E-04	3.898333E-06
6.115083E+03	1.859541E-04	3.977089E-06
6.125026E+03	1.910039E-04	4.078732E-06
6.134969E+03	1.972156E-04	4.204872E-06
6.144913E+03	2.046711E-04	4.357145E-06
6.154856E+03	2.134505E-04	4.537142E-06
6.164799E+03	2.236268E-04	4.746294E-06
6.174742E+03	2.352585E-04	4.985716E-06
6.184685E+03	2.483789E-04	5.255990E-06
6.194629E+03	2.629836E-04	5.556898E-06
6.204572E+03	2.790146E-04	5.887098E-06
6.214515E+03	2.963440E-04	6.243781E-06
6.224458E+03	3.147564E-04	6.622325E-06
6.234402E+03	3.339361E-04	7.016017E-06
6.244345E+03	3.534586E-04	7.415913E-06
6.254288E+03	3.727938E-04	7.810902E-06
6.264231E+03	3.913218E-04	8.188057E-06
6.274174E+03	4.083642E-04	8.533297E-06
6.284118E+03	4.232306E-04	8.832361E-06
6.294061E+03	4.352750E-04	9.071994E-06
6.304004E+03	4.439572E-04	9.241193E-06
6.313947E+03	4.488965E-04	9.332332E-06
6.323891E+03	4.499123E-04	9.341962E-06
6.333834E+03	4.470407E-04	9.271139E-06
6.343777E+03	4.405271E-04	9.125239E-06
6.353720E+03	4.307950E-04	8.913287E-06
6.363663E+03	4.183978E-04	8.646942E-06
6.373607E+03	4.039625E-04	8.339322E-06
6.383550E+03	3.881337E-04	8.003840E-06
6.393493E+03	3.715251E-04	7.653209E-06
6.403436E+03	3.546836E-04	7.298715E-06
6.413380E+03	3.380674E-04	6.949763E-06
6.423323E+03	3.219809E-04	6.612569E-06
6.433266E+03	3.068003E-04	6.294793E-06
6.443209E+03	2.926425E-04	5.998754E-06
6.453152E+03	2.796080E-04	5.726431E-06
6.463096E+03	2.677384E-04	5.478585E-06
6.473039E+03	2.570312E-04	5.255082E-06
6.482982E+03	2.474549E-04	5.055192E-06
6.492925E+03	2.389596E-04	4.877818E-06
6.502869E+03	2.314519E-04	4.720989E-06
6.512812E+03	2.247924E-04	4.581800E-06
6.522755E+03	2.188118E-04	4.456749E-06
6.532698E+03	2.134665E-04	4.344907E-06
6.542642E+03	2.086098E-04	4.243254E-06
6.552585E+03	2.041451E-04	4.149794E-06
6.562528E+03	1.999863E-04	4.062755E-06
6.572471E+03	1.960575E-04	3.980575E-06
6.582414E+03	1.922929E-04	3.901900E-06
6.592358E+03	1.886358E-04	3.825573E-06
6.602301E+03	1.850078E-04	3.749988E-06
6.612244E+03	1.814354E-04	3.675674E-06
6.622187E+03	1.778572E-04	3.601384E-06
6.632131E+03	1.742532E-04	3.526703E-06
6.642074E+03	1.706110E-04	3.451375E-06
6.652017E+03	1.669256E-04	3.375295E-06
6.661960E+03	1.631707E-04	3.297928E-06
6.671903E+03	1.594103E-04	3.220562E-06
6.681847E+03	1.556280E-04	3.142859E-06
6.691790E+03	1.518400E-04	3.065143E-06
6.701733E+03	1.480657E-04	2.987801E-06
6.711676E+03	1.443267E-04	2.911265E-06
6.721620E+03	1.406222E-04	2.835510E-06
6.731563E+03	1.370251E-04	2.762003E-06
6.741506E+03	1.335347E-04	2.690725E-06
6.751449E+03	1.301748E-04	2.622144E-06
6.761392E+03	1.269679E-04	2.556714E-06
6.771336E+03	1.239137E-04	2.494419E-06
6.781279E+03	1.210744E-04	2.436507E-06
6.791222E+03	1.184453E-04	2.382874E-06
6.801165E+03	1.160407E-04	2.333805E-06
6.811109E+03	1.138731E-04	2.289542E-06
6.821052E+03	1.119329E-04	2.249889E-06
6.830995E+03	1.102668E-04	2.215777E-06
6.840938E+03	1.088607E-04	2.186916E-06
6.850881E+03	1.077183E-04	2.163376E-06
6.860825E+03	1.068234E-04	2.144825E-06
6.870768E+03	1.062131E-04	2.132005E-06
6.880711E+03	1.058682E-04	2.124523E-06
6.890654E+03	1.057866E-04	2.122334E-06
6.900598E+03	1.059471E-04	2.125004E-06
6.910541E+03	1.063819E-04	2.133179E-06
6.920484E+03	1.070679E-04	2.146389E-06
6.930427E+03	1.079998E-04	2.164522E-06
6.940370E+03	1.091526E-04	2.187075E-06
6.950314E+03	1.105575E-04	2.214668E-06
6.960257E+03	1.121895E-04	2.246797E-06
6.970200E+03	1.140427E-04	2.283339E-06
6.980143E+03	1.160922E-04	2.323792E-06
6.990087E+03	1.183733E-04	2.368861E-06
7.000030E+03	1.208648E-04	2.418116E-06
7.009973E+03	1.235670E-04	2.471560E-06
7.019916E+03	1.264617E-04	2.528825E-06
7.029860E+03	1.295990E-04	2.590910E-06
7.039803E+03	1.329688E-04	2.657611E-06
7.049746E+03	1.365633E-04	2.728766E-06
7.059689E+03	1.404491E-04	2.805704E-06
7.069632E+03	1.446286E-04	2.888465E-06
7.079576E+03	1.491313E-04	2.977639E-06
7.089519E+03	1.539648E-04	3.073368E-06
7.099462E+03	1.592187E-04	3.177438E-06
7.109405E+03	1.649076E-04	3.290133E-06
7.119349E+03	1.710437E-04	3.411690E-06
7.129292E+03	1.777260E-04	3.544077E-06
7.139235E+03	1.849649E-04	3.687495E-06
7.149178E+03	1.927611E-04	3.841948E-06
7.159121E+03	2.012048E-04	4.009226E-06
7.169065E+03	2.102766E-04	4.188938E-06
7.179008E+03	2.199345E-04	4.380234E-06
7.188951E+03	2.302252E-04	4.584041E-06
7.198894E+03	2.410572E-04	4.798531E-06
7.208838E+03	2.522975E-04	5.021048E-06
7.218781E+03	2.639019E-04	5.250713E-06
7.228724E+03	2.756563E-04	5.483265E-06
7.238667E+03	2.872934E-04	5.713388E-06
7.248610E+03	2.986488E-04	5.937823E-06
7.258554E+03	3.093762E-04	6.149692E-06
7.268497E+03	3.190953E-04	6.341456E-06
7.278440E+03	3.275790E-04	6.508617E-06
7.288383E+03	3.344482E-04	6.643670E-06
7.298327E+03	3.393517E-04	6.739665E-06
7.308270E+03	3.421692E-04	6.794244E-06
7.318213E+03	3.426826E-04	6.803106E-06
7.328156E+03	3.407635E-04	6.763735E-06
7.338099E+03	3.365579E-04	6.679059E-06
7.348043E+03	3.300733E-04	6.549253E-06
7.357986E+03	3.216334E-04	6.380762E-06
7.367929E+03	3.114559E-04	6.177925E-06
7.377872E+03	2.998113E-04	5.946116E-06
7.387816E+03	2.871500E-04	5.694278E-06
7.397759E+03	2.737643E-04	5.428210E-06
7.407702E+03	2.599382E-04	5.153541E-06
7.417645E+03	2.460613E-04	4.877990E-06
7.427588E+03	2.323035E-04	4.604917E-06
7.437532E+03	2.189595E-04	4.340155E-06
7.447475E+03	2.061536E-04	4.086157E-06
7.457418E+03	1.939761E-04	3.844702E-06
7.467361E+03	1.825808E-04	3.618828E-06
7.477305E+03	1.719540E-04	3.408254E-06
7.487248E+03	1.621810E-04	3.214663E-06
7.497191E+03	1.532064E-04	3.036948E-06
7.507134E+03	1.450704E-04	2.875902E-06
7.517077E+03	1.377192E-04	2.730454E-06
7.527021E+03	1.310965E-04	2.599485E-06
7.536964E+03	1.252099E-04	2.483142E-06
7.546907E+03	1.199732E-04	2.379719E-06
7.556850E+03	1.153867E-04	2.289219E-06
7.566794E+03	1.113675E-04	2.210003E-06
7.576737E+03	1.079139E-04	2.142041E-06
7.586680E+03	1.049670E-04	2.084167E-06
7.596623E+03	1.024719E-04	2.035297E-06
7.606567E+03	1.004294E-04	1.995452E-06
7.616510E+03	9.877096E-05	1.963282E-06
7.626453E+03	9.750010E-05	1.938861E-06
7.636396E+03	9.655345E-05	1.920938E-06
7.646339E+03	9.593703E-05	1.909645E-06
7.656283E+03	9.559187E-05	1.903816E-06
7.666226E+03	9.552683E-05	1.903638E-06
7.676169E+03	9.568625E-05	1.908015E-06
7.686112E+03	9.608208E-05	1.917195E-06
7.696056E+03	9.667828E-05	1.930473E-06
7.705999E+03	9.744008E-05	1.947165E-06
7.715942E+03	9.838438E-05	1.967623E-06
