#wls	flux	fluxerr
1.590916E+03	9.780347E-06	5.783205E-07
1.630689E+03	9.834746E-06	5.800143E-07
1.670462E+03	9.895502E-06	5.820270E-07
1.710235E+03	9.963140E-06	5.843847E-07
1.750007E+03	1.003826E-05	5.871178E-07
1.789780E+03	1.012148E-05	5.902569E-07
1.829553E+03	1.021349E-05	5.938358E-07
1.869326E+03	1.031501E-05	5.978903E-07
1.909099E+03	1.042683E-05	6.024586E-07
1.948872E+03	1.054983E-05	6.075832E-07
1.988645E+03	1.068493E-05	6.133084E-07
2.028418E+03	1.083316E-05	6.196828E-07
2.068191E+03	1.099561E-05	6.267590E-07
2.107964E+03	1.117349E-05	6.345937E-07
2.147736E+03	1.136812E-05	6.432486E-07
2.187509E+03	1.158096E-05	6.527910E-07
2.227282E+03	1.181358E-05	6.632943E-07
2.267055E+03	1.206773E-05	6.748385E-07
2.306828E+03	1.234756E-05	6.876349E-07
2.346601E+03	1.265078E-05	7.015341E-07
2.386374E+03	1.298189E-05	7.167630E-07
2.426147E+03	1.334351E-05	7.334376E-07
2.465920E+03	1.374094E-05	7.518205E-07
2.505692E+03	1.417253E-05	7.717857E-07
2.545465E+03	1.464418E-05	7.936200E-07
2.585238E+03	1.516257E-05	8.176425E-07
2.625011E+03	1.572672E-05	8.437539E-07
2.664784E+03	1.634417E-05	8.723076E-07
2.704557E+03	1.702342E-05	9.036999E-07
2.744330E+03	1.776460E-05	9.378718E-07
2.784103E+03	1.858082E-05	9.754431E-07
2.823876E+03	1.947322E-05	1.016392E-06
2.863649E+03	2.045722E-05	1.061432E-06
2.903421E+03	2.153527E-05	1.110587E-06
2.943194E+03	2.272569E-05	1.164688E-06
2.982967E+03	2.403262E-05	1.223814E-06
2.992910E+03	2.438297E-05	1.239640E-06
3.002854E+03	2.473757E-05	1.255614E-06
3.012797E+03	2.510544E-05	1.272193E-06
3.022740E+03	2.547791E-05	1.288934E-06
3.032683E+03	2.585964E-05	1.306070E-06
3.042627E+03	2.625558E-05	1.323848E-06
3.052570E+03	2.665667E-05	1.341808E-06
3.062513E+03	2.706778E-05	1.360195E-06
3.072456E+03	2.749412E-05	1.379264E-06
3.082399E+03	2.792620E-05	1.398537E-06
3.092343E+03	2.837423E-05	1.418523E-06
3.102286E+03	2.882843E-05	1.438728E-06
3.112229E+03	2.929409E-05	1.459415E-06
3.122172E+03	2.977686E-05	1.480859E-06
3.132116E+03	3.026647E-05	1.502548E-06
3.142059E+03	3.077401E-05	1.525027E-06
3.152002E+03	3.128887E-05	1.547768E-06
3.161945E+03	3.181684E-05	1.571052E-06
3.171889E+03	3.236402E-05	1.595177E-06
3.181832E+03	3.291931E-05	1.619591E-06
3.191775E+03	3.349475E-05	1.644882E-06
3.201718E+03	3.407883E-05	1.670480E-06
3.211661E+03	3.468404E-05	1.696993E-06
3.221605E+03	3.529846E-05	1.723833E-06
3.231548E+03	3.592858E-05	1.751313E-06
3.241491E+03	3.658135E-05	1.779765E-06
3.251434E+03	3.724422E-05	1.808574E-06
3.261378E+03	3.793082E-05	1.838396E-06
3.271321E+03	3.862814E-05	1.868596E-06
3.281264E+03	3.934327E-05	1.899510E-06
3.291207E+03	4.008381E-05	1.931501E-06
3.301150E+03	4.083603E-05	1.963899E-06
3.311094E+03	4.161484E-05	1.997417E-06
3.321037E+03	4.240599E-05	2.031362E-06
3.330980E+03	4.321721E-05	2.066102E-06
3.340923E+03	4.405687E-05	2.102027E-06
3.350867E+03	4.490984E-05	2.138409E-06
3.360810E+03	4.579251E-05	2.176022E-06
3.370753E+03	4.668916E-05	2.214110E-06
3.380696E+03	4.761679E-05	2.253474E-06
3.390639E+03	4.855906E-05	2.293332E-06
3.400583E+03	4.952476E-05	2.334092E-06
3.410526E+03	5.052342E-05	2.376196E-06
3.420469E+03	5.153764E-05	2.418815E-06
3.430412E+03	5.258612E-05	2.462821E-06
3.440356E+03	5.365076E-05	2.507355E-06
3.450299E+03	5.474120E-05	2.552861E-06
3.460242E+03	5.586786E-05	2.599817E-06
3.470185E+03	5.701144E-05	2.647313E-06
3.480128E+03	5.819252E-05	2.696297E-06
3.490072E+03	5.939094E-05	2.745824E-06
3.500015E+03	6.062808E-05	2.796874E-06
3.509958E+03	6.188289E-05	2.848466E-06
3.519901E+03	6.316630E-05	2.901095E-06
3.529845E+03	6.449013E-05	2.955292E-06
3.539788E+03	6.583191E-05	3.010017E-06
3.549731E+03	6.721503E-05	3.066329E-06
3.559674E+03	6.861609E-05	3.123151E-06
3.569617E+03	7.004693E-05	3.181012E-06
3.579561E+03	7.152042E-05	3.240485E-06
3.589504E+03	7.301136E-05	3.300417E-06
3.599447E+03	7.454551E-05	3.361963E-06
3.609390E+03	7.609652E-05	3.423921E-06
3.619334E+03	7.769118E-05	3.487489E-06
3.629277E+03	7.930175E-05	3.551408E-06
3.639220E+03	8.094163E-05	3.616271E-06
3.649163E+03	8.262505E-05	3.682702E-06
3.659107E+03	8.432247E-05	3.749371E-06
3.669050E+03	8.606308E-05	3.817569E-06
3.678993E+03	8.781582E-05	3.885905E-06
3.688936E+03	8.959501E-05	3.955006E-06
3.698879E+03	9.141598E-05	4.025538E-06
3.708823E+03	9.324546E-05	4.096024E-06
3.718766E+03	9.511526E-05	4.167854E-06
3.728709E+03	9.699048E-05	4.239487E-06
3.738652E+03	9.890403E-05	4.312357E-06
3.748596E+03	1.008194E-04	4.384861E-06
3.758539E+03	1.027521E-04	4.457673E-06
3.768482E+03	1.047191E-04	4.531516E-06
3.778425E+03	1.066814E-04	4.604695E-06
3.788368E+03	1.086745E-04	4.678739E-06
3.798312E+03	1.106577E-04	4.751892E-06
3.808255E+03	1.126478E-04	4.824869E-06
3.818198E+03	1.146623E-04	4.898424E-06
3.828141E+03	1.166584E-04	4.970715E-06
3.838085E+03	1.186743E-04	5.043378E-06
3.848028E+03	1.206653E-04	5.114506E-06
3.857971E+03	1.226711E-04	5.185783E-06
3.867914E+03	1.246453E-04	5.255253E-06
3.877857E+03	1.266064E-04	5.323702E-06
3.887801E+03	1.285744E-04	5.391965E-06
3.897744E+03	1.305008E-04	5.458020E-06
3.907687E+03	1.324288E-04	5.523682E-06
3.917630E+03	1.343090E-04	5.586889E-06
3.927574E+03	1.361622E-04	5.648519E-06
3.937517E+03	1.380103E-04	5.709496E-06
3.947460E+03	1.398028E-04	5.767731E-06
3.957403E+03	1.415873E-04	5.825202E-06
3.967346E+03	1.433125E-04	5.879804E-06
3.977290E+03	1.450023E-04	5.932543E-06
3.987233E+03	1.466825E-04	5.984474E-06
3.997176E+03	1.483012E-04	6.033496E-06
4.007119E+03	1.499114E-04	6.081780E-06
4.017063E+03	1.514615E-04	6.127238E-06
4.027006E+03	1.529794E-04	6.171019E-06
4.036949E+03	1.544949E-04	6.214332E-06
4.046892E+03	1.559562E-04	6.255098E-06
4.056835E+03	1.574217E-04	6.295678E-06
4.066779E+03	1.588395E-04	6.333998E-06
4.076722E+03	1.602416E-04	6.371342E-06
4.086665E+03	1.616610E-04	6.409037E-06
4.096608E+03	1.630455E-04	6.445001E-06
4.106552E+03	1.644575E-04	6.481717E-06
4.116495E+03	1.658439E-04	6.517084E-06
4.126438E+03	1.672388E-04	6.552446E-06
4.136381E+03	1.686768E-04	6.589156E-06
4.146324E+03	1.701030E-04	6.625063E-06
4.156268E+03	1.715820E-04	6.662674E-06
4.166211E+03	1.730569E-04	6.699775E-06
4.176154E+03	1.745614E-04	6.737667E-06
4.186097E+03	1.761295E-04	6.777651E-06
4.196041E+03	1.777012E-04	6.817399E-06
4.205984E+03	1.793406E-04	6.859370E-06
4.215927E+03	1.809850E-04	6.901145E-06
4.225870E+03	1.826655E-04	6.943910E-06
4.235814E+03	1.844137E-04	6.988848E-06
4.245757E+03	1.861621E-04	7.033388E-06
4.255700E+03	1.879397E-04	7.078625E-06
4.265643E+03	1.897758E-04	7.125647E-06
4.275586E+03	1.915977E-04	7.171719E-06
4.285530E+03	1.934660E-04	7.219107E-06
4.295473E+03	1.953044E-04	7.264954E-06
4.305416E+03	1.971367E-04	7.310165E-06
4.315359E+03	1.989872E-04	7.355633E-06
4.325303E+03	2.007725E-04	7.398286E-06
4.335246E+03	2.025128E-04	7.438890E-06
4.345189E+03	2.042283E-04	7.478203E-06
4.355132E+03	2.058307E-04	7.513008E-06
4.365075E+03	2.073787E-04	7.545490E-06
4.375019E+03	2.087910E-04	7.572721E-06
4.384962E+03	2.101021E-04	7.595992E-06
4.394905E+03	2.113502E-04	7.616721E-06
4.404848E+03	2.124618E-04	7.632293E-06
4.414792E+03	2.134749E-04	7.644111E-06
4.424735E+03	2.144269E-04	7.653547E-06
4.434678E+03	2.152407E-04	7.657878E-06
4.444621E+03	2.159520E-04	7.658410E-06
4.454564E+03	2.165959E-04	7.656428E-06
4.464508E+03	2.170925E-04	7.649131E-06
4.474451E+03	2.174761E-04	7.637774E-06
4.484394E+03	2.177812E-04	7.623607E-06
4.494337E+03	2.179267E-04	7.603822E-06
4.504281E+03	2.179859E-04	7.581021E-06
4.514224E+03	2.178781E-04	7.552437E-06
4.524167E+03	2.176390E-04	7.519361E-06
4.534110E+03	2.173051E-04	7.483089E-06
4.544053E+03	2.167980E-04	7.440966E-06
4.553997E+03	2.161564E-04	7.394368E-06
4.563940E+03	2.154193E-04	7.344677E-06
4.573883E+03	2.145129E-04	7.289408E-06
4.583826E+03	2.134790E-04	7.230041E-06
4.593770E+03	2.123605E-04	7.168061E-06
4.603713E+03	2.110882E-04	7.101170E-06
4.613656E+03	2.097077E-04	7.030950E-06
4.623599E+03	2.082647E-04	6.958959E-06
4.633542E+03	2.066951E-04	6.883088E-06
4.643486E+03	2.050468E-04	6.804964E-06
4.653429E+03	2.033672E-04	6.726184E-06
4.663372E+03	2.015960E-04	6.644770E-06
4.673315E+03	1.997819E-04	6.562353E-06
4.683259E+03	1.979374E-04	6.479353E-06
4.693202E+03	1.961095E-04	6.397315E-06
4.703145E+03	1.942407E-04	6.314364E-06
4.713088E+03	1.923778E-04	6.232028E-06
4.723031E+03	1.905659E-04	6.151764E-06
4.732975E+03	1.887479E-04	6.071714E-06
4.742918E+03	1.869679E-04	5.993294E-06
4.752861E+03	1.852679E-04	5.917830E-06
4.762804E+03	1.835903E-04	5.843467E-06
4.772748E+03	1.819757E-04	5.771485E-06
4.782691E+03	1.804630E-04	5.703084E-06
4.792634E+03	1.789937E-04	5.636397E-06
4.802577E+03	1.776052E-04	5.572575E-06
4.812521E+03	1.763017E-04	5.511727E-06
4.822464E+03	1.751178E-04	5.454898E-06
4.832407E+03	1.739940E-04	5.400206E-06
4.842350E+03	1.729639E-04	5.348667E-06
4.852293E+03	1.720595E-04	5.301234E-06
4.862237E+03	1.712209E-04	5.256026E-06
4.872180E+03	1.704792E-04	5.213978E-06
4.882123E+03	1.698349E-04	5.175065E-06
4.892066E+03	1.693175E-04	5.140155E-06
4.902010E+03	1.688667E-04	5.107380E-06
4.911953E+03	1.685118E-04	5.077601E-06
4.921896E+03	1.682816E-04	5.051649E-06
4.931839E+03	1.681151E-04	5.027663E-06
4.941782E+03	1.680408E-04	5.006467E-06
4.951726E+03	1.680571E-04	4.987981E-06
4.961669E+03	1.681917E-04	4.973003E-06
4.971612E+03	1.683834E-04	4.959682E-06
4.981555E+03	1.686594E-04	4.948804E-06
4.991499E+03	1.690174E-04	4.940271E-06
5.001442E+03	1.694845E-04	4.934846E-06
5.011385E+03	1.699980E-04	4.930678E-06
5.021328E+03	1.705844E-04	4.928513E-06
5.031271E+03	1.712399E-04	4.928225E-06
5.041215E+03	1.719910E-04	4.930545E-06
5.051158E+03	1.727724E-04	4.933584E-06
5.061101E+03	1.736094E-04	4.938049E-06
5.071044E+03	1.744965E-04	4.943769E-06
5.080988E+03	1.754585E-04	4.951429E-06
5.090931E+03	1.764271E-04	4.959089E-06
5.100874E+03	1.774261E-04	4.967409E-06
5.110817E+03	1.784475E-04	4.976165E-06
5.120760E+03	1.795150E-04	4.986005E-06
5.130704E+03	1.805565E-04	4.994927E-06
5.140647E+03	1.815947E-04	5.003562E-06
5.150590E+03	1.826200E-04	5.011654E-06
5.160533E+03	1.836228E-04	5.018947E-06
5.170477E+03	1.846259E-04	5.026074E-06
5.180420E+03	1.855545E-04	5.031009E-06
5.190363E+03	1.864316E-04	5.034398E-06
5.200306E+03	1.872477E-04	5.036007E-06
5.210249E+03	1.880270E-04	5.036511E-06
5.220193E+03	1.886949E-04	5.033933E-06
5.230136E+03	1.892768E-04	5.028987E-06
5.240079E+03	1.897656E-04	5.021517E-06
5.250022E+03	1.901551E-04	5.011393E-06
5.259966E+03	1.904736E-04	4.999395E-06
5.269909E+03	1.906497E-04	4.983680E-06
5.279852E+03	1.907134E-04	4.965079E-06
5.289795E+03	1.906623E-04	4.943570E-06
5.299738E+03	1.904948E-04	4.919152E-06
5.309682E+03	1.902437E-04	4.892707E-06
5.319625E+03	1.898421E-04	4.862549E-06
5.329568E+03	1.893243E-04	4.829605E-06
5.339511E+03	1.886916E-04	4.793950E-06
5.349455E+03	1.879463E-04	4.755675E-06
5.359398E+03	1.871237E-04	4.715708E-06
5.369341E+03	1.861605E-04	4.672488E-06
5.379284E+03	1.850928E-04	4.626963E-06
5.389228E+03	1.839239E-04	4.579247E-06
5.399171E+03	1.826571E-04	4.529452E-06
5.409114E+03	1.812956E-04	4.477691E-06
5.419057E+03	1.798742E-04	4.424846E-06
5.429000E+03	1.783319E-04	4.369444E-06
5.438944E+03	1.767036E-04	4.312369E-06
5.448887E+03	1.749922E-04	4.253722E-06
5.458830E+03	1.732026E-04	4.193638E-06
5.468773E+03	1.713431E-04	4.132336E-06
5.478717E+03	1.694568E-04	4.070867E-06
5.488660E+03	1.674999E-04	4.008180E-06
5.498603E+03	1.655191E-04	3.945401E-06
5.508546E+03	1.635306E-04	3.882918E-06
5.518489E+03	1.615495E-04	3.821085E-06
5.528433E+03	1.595901E-04	3.760226E-06
5.538376E+03	1.576656E-04	3.700641E-06
5.548319E+03	1.558159E-04	3.643249E-06
5.558262E+03	1.539974E-04	3.587006E-06
5.568206E+03	1.522485E-04	3.532791E-06
5.578149E+03	1.505791E-04	3.480810E-06
5.588092E+03	1.489983E-04	3.431247E-06
5.598035E+03	1.475146E-04	3.384268E-06
5.607978E+03	1.461353E-04	3.340008E-06
5.617922E+03	1.448669E-04	3.298588E-06
5.627865E+03	1.437404E-04	3.260679E-06
5.637808E+03	1.427097E-04	3.225197E-06
5.647751E+03	1.418040E-04	3.192772E-06
5.657695E+03	1.410259E-04	3.163431E-06
5.667638E+03	1.403772E-04	3.137177E-06
5.677581E+03	1.398584E-04	3.113986E-06
5.687524E+03	1.394689E-04	3.093813E-06
5.697467E+03	1.392072E-04	3.076590E-06
5.707411E+03	1.390705E-04	3.062222E-06
5.717354E+03	1.390794E-04	3.051130E-06
5.727297E+03	1.391800E-04	3.042097E-06
5.737240E+03	1.393907E-04	3.035504E-06
5.747184E+03	1.397043E-04	3.031166E-06
5.757127E+03	1.401127E-04	3.028885E-06
5.767070E+03	1.406072E-04	3.028448E-06
5.777013E+03	1.411777E-04	3.029620E-06
5.786956E+03	1.418140E-04	3.032166E-06
5.796900E+03	1.425054E-04	3.035839E-06
5.806843E+03	1.432408E-04	3.040395E-06
5.816786E+03	1.440345E-04	3.046126E-06
5.826729E+03	1.448251E-04	3.051727E-06
5.836673E+03	1.456277E-04	3.057514E-06
5.846616E+03	1.464328E-04	3.063287E-06
5.856559E+03	1.472319E-04	3.068872E-06
5.866502E+03	1.480179E-04	3.074123E-06
5.876445E+03	1.487854E-04	3.078931E-06
5.886389E+03	1.495305E-04	3.083225E-06
5.896332E+03	1.502514E-04	3.086973E-06
5.906275E+03	1.509484E-04	3.090189E-06
5.916218E+03	1.516239E-04	3.092928E-06
5.926162E+03	1.522825E-04	3.095290E-06
5.936105E+03	1.529306E-04	3.097412E-06
5.946048E+03	1.535768E-04	3.099474E-06
5.955991E+03	1.542319E-04	3.101692E-06
5.965935E+03	1.549350E-04	3.104854E-06
5.975878E+03	1.556454E-04	3.108137E-06
5.985821E+03	1.564049E-04	3.112378E-06
5.995764E+03	1.572292E-04	3.117879E-06
6.005707E+03	1.581346E-04	3.124951E-06
6.015651E+03	1.591375E-04	3.133910E-06
6.025594E+03	1.602546E-04	3.145062E-06
6.035537E+03	1.615022E-04	3.158710E-06
6.045480E+03	1.628957E-04	3.175134E-06
6.055424E+03	1.644500E-04	3.194598E-06
6.065367E+03	1.661785E-04	3.217338E-06
6.075310E+03	1.680931E-04	3.243556E-06
6.085253E+03	1.702038E-04	3.273417E-06
6.095196E+03	1.725185E-04	3.307040E-06
6.105140E+03	1.750423E-04	3.344497E-06
6.115083E+03	1.777775E-04	3.385800E-06
6.125026E+03	1.807229E-04	3.430900E-06
6.134969E+03	1.838739E-04	3.479682E-06
6.144913E+03	1.872216E-04	3.531954E-06
6.154856E+03	1.907527E-04	3.587446E-06
6.164799E+03	1.944493E-04	3.645805E-06
6.174742E+03	1.982886E-04	3.706590E-06
6.184685E+03	2.022426E-04	3.769276E-06
6.194629E+03	2.062786E-04	3.833250E-06
6.204572E+03	2.103590E-04	3.897823E-06
6.214515E+03	2.144416E-04	3.962227E-06
6.224458E+03	2.184805E-04	4.025635E-06
6.234402E+03	2.224265E-04	4.087175E-06
6.244345E+03	2.262288E-04	4.145943E-06
6.254288E+03	2.298351E-04	4.201033E-06
6.264231E+03	2.331941E-04	4.251555E-06
6.274174E+03	2.362560E-04	4.296660E-06
6.284118E+03	2.389749E-04	4.335574E-06
6.294061E+03	2.413093E-04	4.367613E-06
6.304004E+03	2.432242E-04	4.392209E-06
6.313947E+03	2.446916E-04	4.408930E-06
6.323891E+03	2.456921E-04	4.417495E-06
6.333834E+03	2.462145E-04	4.417770E-06
6.343777E+03	2.462571E-04	4.409787E-06
6.353720E+03	2.458261E-04	4.393720E-06
6.363663E+03	2.449362E-04	4.369885E-06
6.373607E+03	2.436092E-04	4.338720E-06
6.383550E+03	2.418729E-04	4.300762E-06
6.393493E+03	2.397597E-04	4.256620E-06
6.403436E+03	2.373052E-04	4.206954E-06
6.413380E+03	2.345465E-04	4.152444E-06
6.423323E+03	2.315208E-04	4.093762E-06
6.433266E+03	2.282640E-04	4.031552E-06
6.443209E+03	2.248093E-04	3.966400E-06
6.453152E+03	2.211862E-04	3.898817E-06
6.463096E+03	2.174200E-04	3.829222E-06
6.473039E+03	2.135313E-04	3.757956E-06
6.482982E+03	2.095381E-04	3.685303E-06
6.492925E+03	2.054229E-04	3.610929E-06
6.502869E+03	2.012843E-04	3.536536E-06
6.512812E+03	1.971169E-04	3.462002E-06
6.522755E+03	1.929532E-04	3.387863E-06
6.532698E+03	1.888215E-04	3.314590E-06
6.542642E+03	1.847444E-04	3.242549E-06
6.552585E+03	1.807391E-04	3.172016E-06
6.562528E+03	1.768179E-04	3.103180E-06
6.572471E+03	1.729893E-04	3.036164E-06
6.582414E+03	1.692586E-04	2.971041E-06
6.592358E+03	1.656290E-04	2.907844E-06
6.602301E+03	1.621021E-04	2.846584E-06
6.612244E+03	1.586783E-04	2.787245E-06
6.622187E+03	1.553575E-04	2.729812E-06
6.632131E+03	1.521389E-04	2.674255E-06
6.642074E+03	1.490221E-04	2.620553E-06
6.652017E+03	1.459807E-04	2.568228E-06
6.661960E+03	1.430665E-04	2.518181E-06
6.671903E+03	1.402532E-04	2.469937E-06
6.681847E+03	1.375412E-04	2.423495E-06
6.691790E+03	1.349313E-04	2.378859E-06
6.701733E+03	1.324245E-04	2.336042E-06
6.711676E+03	1.300222E-04	2.295061E-06
6.721620E+03	1.277261E-04	2.255941E-06
6.731563E+03	1.255381E-04	2.218709E-06
6.741506E+03	1.234603E-04	2.183399E-06
6.751449E+03	1.214949E-04	2.150047E-06
6.761392E+03	1.196229E-04	2.118314E-06
6.771336E+03	1.178890E-04	2.088989E-06
6.781279E+03	1.162739E-04	2.061732E-06
6.791222E+03	1.147799E-04	2.036578E-06
6.801165E+03	1.134087E-04	2.013560E-06
6.811109E+03	1.121621E-04	1.992710E-06
6.821052E+03	1.110419E-04	1.974059E-06
6.830995E+03	1.100494E-04	1.957632E-06
6.840938E+03	1.091860E-04	1.943453E-06
6.850881E+03	1.084527E-04	1.931541E-06
6.860825E+03	1.078315E-04	1.921576E-06
6.870768E+03	1.073610E-04	1.914248E-06
6.880711E+03	1.070230E-04	1.909231E-06
6.890654E+03	1.068176E-04	1.906532E-06
6.900598E+03	1.067454E-04	1.906157E-06
6.910541E+03	1.068064E-04	1.908110E-06
6.920484E+03	1.070008E-04	1.912393E-06
6.930427E+03	1.073287E-04	1.919007E-06
6.940370E+03	1.077709E-04	1.927610E-06
6.950314E+03	1.083652E-04	1.938877E-06
6.960257E+03	1.090926E-04	1.952464E-06
6.970200E+03	1.099528E-04	1.968367E-06
6.980143E+03	1.109455E-04	1.986577E-06
6.990087E+03	1.120704E-04	2.007085E-06
7.000030E+03	1.133266E-04	2.029874E-06
7.009973E+03	1.147137E-04	2.054933E-06
7.019916E+03	1.162102E-04	2.081870E-06
7.029860E+03	1.178554E-04	2.111386E-06
7.039803E+03	1.196274E-04	2.143086E-06
7.049746E+03	1.215242E-04	2.176924E-06
7.059689E+03	1.235430E-04	2.212845E-06
7.069632E+03	1.256800E-04	2.250776E-06
7.079576E+03	1.279308E-04	2.290628E-06
7.089519E+03	1.302668E-04	2.331886E-06
7.099462E+03	1.327267E-04	2.375229E-06
7.109405E+03	1.352794E-04	2.420098E-06
7.119349E+03	1.379150E-04	2.466302E-06
7.129292E+03	1.406214E-04	2.513619E-06
7.139235E+03	1.433847E-04	2.561791E-06
7.149178E+03	1.461629E-04	2.610060E-06
7.159121E+03	1.489887E-04	2.659004E-06
7.169065E+03	1.518161E-04	2.707791E-06
7.179008E+03	1.546219E-04	2.756005E-06
7.188951E+03	1.573810E-04	2.803192E-06
7.198894E+03	1.600662E-04	2.848863E-06
7.208838E+03	1.626199E-04	2.891991E-06
7.218781E+03	1.650688E-04	2.933054E-06
7.228724E+03	1.673537E-04	2.971001E-06
7.238667E+03	1.694436E-04	3.005285E-06
7.248610E+03	1.713078E-04	3.035373E-06
7.258554E+03	1.729173E-04	3.060758E-06
7.268497E+03	1.742142E-04	3.080431E-06
7.278440E+03	1.752357E-04	3.095067E-06
7.288383E+03	1.759309E-04	3.103786E-06
7.298327E+03	1.762839E-04	3.106330E-06
7.308270E+03	1.762838E-04	3.102532E-06
7.318213E+03	1.758941E-04	3.091777E-06
7.328156E+03	1.751774E-04	3.075197E-06
7.338099E+03	1.741088E-04	3.052381E-06
7.348043E+03	1.727002E-04	3.023571E-06
7.357986E+03	1.709687E-04	2.989098E-06
7.367929E+03	1.689366E-04	2.949382E-06
7.377872E+03	1.666010E-04	2.904405E-06
7.387816E+03	1.640511E-04	2.855749E-06
7.397759E+03	1.612896E-04	2.803490E-06
7.407702E+03	1.583510E-04	2.748251E-06
7.417645E+03	1.552707E-04	2.690666E-06
7.427588E+03	1.520570E-04	2.630904E-06
7.437532E+03	1.487991E-04	2.570523E-06
7.447475E+03	1.455032E-04	2.509642E-06
7.457418E+03	1.422005E-04	2.448811E-06
7.467361E+03	1.389207E-04	2.388548E-06
7.477305E+03	1.356662E-04	2.328900E-06
7.487248E+03	1.325094E-04	2.271115E-06
7.497191E+03	1.294468E-04	2.215129E-06
7.507134E+03	1.264965E-04	2.161250E-06
7.517077E+03	1.236517E-04	2.109361E-06
7.527021E+03	1.209692E-04	2.060424E-06
7.536964E+03	1.184364E-04	2.014221E-06
7.546907E+03	1.160611E-04	1.970874E-06
7.556850E+03	1.138488E-04	1.930468E-06
7.566794E+03	1.117831E-04	1.892723E-06
7.576737E+03	1.099062E-04	1.858339E-06
7.586680E+03	1.081981E-04	1.826975E-06
7.596623E+03	1.066581E-04	1.798611E-06
7.606567E+03	1.052659E-04	1.772896E-06
7.616510E+03	1.040562E-04	1.750409E-06
7.626453E+03	1.030064E-04	1.730767E-06
7.636396E+03	1.021128E-04	1.713900E-06
7.646339E+03	1.013704E-04	1.699725E-06
7.656283E+03	1.007566E-04	1.687858E-06
7.666226E+03	1.003014E-04	1.678805E-06
7.676169E+03	9.998134E-05	1.672171E-06
7.686112E+03	9.979022E-05	1.667856E-06
7.696056E+03	9.970417E-05	1.665465E-06
7.705999E+03	9.975184E-05	1.665482E-06
7.715942E+03	9.990884E-05	1.667507E-06
