#wls	flux	fluxerr
1.567552E+03	2.140580E-16	5.310852E-18
1.606740E+03	2.161012E-16	5.337602E-18
1.645929E+03	2.174532E-16	5.346351E-18
1.685118E+03	2.180872E-16	5.336664E-18
1.724307E+03	2.179586E-16	5.307687E-18
1.763496E+03	2.169468E-16	5.256764E-18
1.802684E+03	2.148798E-16	5.180070E-18
1.841873E+03	2.115631E-16	5.073342E-18
1.881062E+03	2.068147E-16	4.932730E-18
1.920251E+03	2.005369E-16	4.756511E-18
1.959440E+03	1.928517E-16	4.548208E-18
1.998628E+03	1.842858E-16	4.320801E-18
2.037817E+03	1.758919E-16	4.099256E-18
2.077006E+03	1.691120E-16	3.916966E-18
2.116195E+03	1.652741E-16	3.803859E-18
2.155384E+03	1.650080E-16	3.773071E-18
2.194572E+03	1.680083E-16	3.816060E-18
2.233761E+03	1.732901E-16	3.909084E-18
2.272950E+03	1.796715E-16	4.024552E-18
2.312139E+03	1.861667E-16	4.139963E-18
2.351328E+03	1.921321E-16	4.240987E-18
2.390516E+03	1.972394E-16	4.320641E-18
2.429705E+03	2.013840E-16	4.377033E-18
2.468894E+03	2.045829E-16	4.410981E-18
2.508083E+03	2.069124E-16	4.424584E-18
2.547271E+03	2.084719E-16	4.420387E-18
2.586460E+03	2.093628E-16	4.400927E-18
2.625649E+03	2.096804E-16	4.368548E-18
2.664838E+03	2.095107E-16	4.325350E-18
2.704027E+03	2.089308E-16	4.273188E-18
2.743215E+03	2.080070E-16	4.213656E-18
2.782404E+03	2.068037E-16	4.148263E-18
2.821593E+03	2.053763E-16	4.078291E-18
2.860782E+03	2.037767E-16	4.004921E-18
2.899971E+03	2.020532E-16	3.929222E-18
2.939159E+03	2.002511E-16	3.852168E-18
2.948957E+03	1.997928E-16	3.832790E-18
2.958754E+03	1.993329E-16	3.813394E-18
2.968551E+03	1.988730E-16	3.794016E-18
2.978348E+03	1.984133E-16	3.774656E-18
2.988145E+03	1.979627E-16	3.755487E-18
2.997943E+03	1.975271E-16	3.736615E-18
3.007740E+03	1.971033E-16	3.717984E-18
3.017537E+03	1.966924E-16	3.699608E-18
3.027334E+03	1.962930E-16	3.681461E-18
3.037131E+03	1.959026E-16	3.663495E-18
3.046929E+03	1.955219E-16	3.645723E-18
3.056726E+03	1.951571E-16	3.628257E-18
3.066523E+03	1.948040E-16	3.611019E-18
3.076320E+03	1.944634E-16	3.594021E-18
3.086117E+03	1.941329E-16	3.577219E-18
3.095915E+03	1.938115E-16	3.560590E-18
3.105712E+03	1.934981E-16	3.544116E-18
3.115509E+03	1.931921E-16	3.527784E-18
3.125306E+03	1.928928E-16	3.511583E-18
3.135103E+03	1.926012E-16	3.495525E-18
3.144901E+03	1.923144E-16	3.479562E-18
3.154698E+03	1.920346E-16	3.463732E-18
3.164495E+03	1.917608E-16	3.448013E-18
3.174292E+03	1.914927E-16	3.432404E-18
3.184089E+03	1.912307E-16	3.416909E-18
3.193887E+03	1.909749E-16	3.401530E-18
3.203684E+03	1.907267E-16	3.386293E-18
3.213481E+03	1.904844E-16	3.371162E-18
3.223278E+03	1.902506E-16	3.356188E-18
3.233075E+03	1.900247E-16	3.341358E-18
3.242873E+03	1.898075E-16	3.326684E-18
3.252670E+03	1.895996E-16	3.312175E-18
3.262467E+03	1.894017E-16	3.297845E-18
3.272264E+03	1.892149E-16	3.283709E-18
3.282061E+03	1.890412E-16	3.269803E-18
3.291859E+03	1.888806E-16	3.256123E-18
3.301656E+03	1.887330E-16	3.242665E-18
3.311453E+03	1.886032E-16	3.229514E-18
3.321250E+03	1.884893E-16	3.216630E-18
3.331047E+03	1.883937E-16	3.204055E-18
3.340845E+03	1.883196E-16	3.191838E-18
3.350642E+03	1.882663E-16	3.179967E-18
3.360439E+03	1.882381E-16	3.168510E-18
3.370236E+03	1.882375E-16	3.157505E-18
3.380033E+03	1.882644E-16	3.146945E-18
3.389831E+03	1.883226E-16	3.136890E-18
3.399628E+03	1.884161E-16	3.127402E-18
3.409425E+03	1.885467E-16	3.118507E-18
3.419222E+03	1.887177E-16	3.110251E-18
3.429019E+03	1.889325E-16	3.102683E-18
3.438816E+03	1.891958E-16	3.095873E-18
3.448614E+03	1.895097E-16	3.089851E-18
3.458411E+03	1.898778E-16	3.084663E-18
3.468208E+03	1.903031E-16	3.080350E-18
3.478005E+03	1.907881E-16	3.076944E-18
3.487802E+03	1.913357E-16	3.074479E-18
3.497600E+03	1.919432E-16	3.072906E-18
3.507397E+03	1.926085E-16	3.072177E-18
3.517194E+03	1.933301E-16	3.072261E-18
3.526991E+03	1.941023E-16	3.073059E-18
3.536788E+03	1.949242E-16	3.074549E-18
3.546586E+03	1.957926E-16	3.076671E-18
3.556383E+03	1.967015E-16	3.079324E-18
3.566180E+03	1.976502E-16	3.082490E-18
3.575977E+03	1.986343E-16	3.086094E-18
3.585774E+03	1.996521E-16	3.090104E-18
3.595572E+03	2.006981E-16	3.094432E-18
3.605369E+03	2.017725E-16	3.099071E-18
3.615166E+03	2.028724E-16	3.103979E-18
3.624963E+03	2.039931E-16	3.109075E-18
3.634760E+03	2.051350E-16	3.114363E-18
3.644558E+03	2.062959E-16	3.119808E-18
3.654355E+03	2.074710E-16	3.125336E-18
3.664152E+03	2.086614E-16	3.130959E-18
3.673949E+03	2.098650E-16	3.136646E-18
3.683746E+03	2.110775E-16	3.142329E-18
3.693544E+03	2.122998E-16	3.148023E-18
3.703341E+03	2.135304E-16	3.153703E-18
3.713138E+03	2.147662E-16	3.159323E-18
3.722935E+03	2.160055E-16	3.164861E-18
3.732732E+03	2.172484E-16	3.170315E-18
3.742530E+03	2.184917E-16	3.175642E-18
3.752327E+03	2.197340E-16	3.180820E-18
3.762124E+03	2.209752E-16	3.185851E-18
3.771921E+03	2.222140E-16	3.190715E-18
3.781718E+03	2.234461E-16	3.195355E-18
3.791516E+03	2.246746E-16	3.199818E-18
3.801313E+03	2.258940E-16	3.204026E-18
3.811110E+03	2.271080E-16	3.208033E-18
3.820907E+03	2.283110E-16	3.211767E-18
3.830704E+03	2.295058E-16	3.215265E-18
3.840502E+03	2.306917E-16	3.218526E-18
3.850299E+03	2.318674E-16	3.221531E-18
3.860096E+03	2.330343E-16	3.224305E-18
3.869893E+03	2.341914E-16	3.226835E-18
3.879690E+03	2.353407E-16	3.229154E-18
3.889488E+03	2.364816E-16	3.231256E-18
3.899285E+03	2.376167E-16	3.233181E-18
3.909082E+03	2.387458E-16	3.234927E-18
3.918879E+03	2.398720E-16	3.236541E-18
3.928676E+03	2.409953E-16	3.238025E-18
3.938474E+03	2.421193E-16	3.239429E-18
3.948271E+03	2.432460E-16	3.240782E-18
3.958068E+03	2.443756E-16	3.242090E-18
3.967865E+03	2.455120E-16	3.243404E-18
3.977662E+03	2.466571E-16	3.244751E-18
3.987460E+03	2.478107E-16	3.246131E-18
3.997257E+03	2.489763E-16	3.247588E-18
4.007054E+03	2.501530E-16	3.249114E-18
4.016851E+03	2.513453E-16	3.250766E-18
4.026648E+03	2.525480E-16	3.252478E-18
4.036446E+03	2.537660E-16	3.254315E-18
4.046243E+03	2.549952E-16	3.256222E-18
4.056040E+03	2.562357E-16	3.258207E-18
4.065837E+03	2.574859E-16	3.260246E-18
4.075634E+03	2.587418E-16	3.262292E-18
4.085432E+03	2.600046E-16	3.264364E-18
4.095229E+03	2.612679E-16	3.266382E-18
4.105026E+03	2.625291E-16	3.268319E-18
4.114823E+03	2.637891E-16	3.270189E-18
4.124620E+03	2.650415E-16	3.271918E-18
4.134418E+03	2.662856E-16	3.273502E-18
4.144215E+03	2.675189E-16	3.274916E-18
4.154012E+03	2.687388E-16	3.276133E-18
4.163809E+03	2.699428E-16	3.277130E-18
4.173606E+03	2.711261E-16	3.277854E-18
4.183404E+03	2.722896E-16	3.278323E-18
4.193201E+03	2.734258E-16	3.278458E-18
4.202998E+03	2.745327E-16	3.278240E-18
4.212795E+03	2.756061E-16	3.277628E-18
4.222592E+03	2.766406E-16	3.276569E-18
4.232390E+03	2.776311E-16	3.275013E-18
4.242187E+03	2.785720E-16	3.272903E-18
4.251984E+03	2.794583E-16	3.270194E-18
4.261781E+03	2.802860E-16	3.266850E-18
4.271578E+03	2.810511E-16	3.262839E-18
4.281376E+03	2.817596E-16	3.258243E-18
4.291173E+03	2.824158E-16	3.253124E-18
4.300970E+03	2.830316E-16	3.247627E-18
4.310767E+03	2.835999E-16	3.241681E-18
4.320564E+03	2.840970E-16	3.235021E-18
4.330362E+03	2.845049E-16	3.227456E-18
4.340159E+03	2.848130E-16	3.218877E-18
4.349956E+03	2.850158E-16	3.209237E-18
4.359753E+03	2.851132E-16	3.198548E-18
4.369550E+03	2.851108E-16	3.186888E-18
4.379348E+03	2.850114E-16	3.174300E-18
4.389145E+03	2.848288E-16	3.160950E-18
4.398942E+03	2.845720E-16	3.146948E-18
4.408739E+03	2.842534E-16	3.132440E-18
4.418536E+03	2.838861E-16	3.117577E-18
4.428333E+03	2.834851E-16	3.102528E-18
4.438131E+03	2.830581E-16	3.087383E-18
4.447928E+03	2.826210E-16	3.072315E-18
4.457725E+03	2.821813E-16	3.057410E-18
4.467522E+03	2.817492E-16	3.042777E-18
4.477319E+03	2.813290E-16	3.028461E-18
4.487117E+03	2.809248E-16	3.014506E-18
4.496914E+03	2.805392E-16	3.000940E-18
4.506711E+03	2.801752E-16	2.987790E-18
4.516508E+03	2.798318E-16	2.975047E-18
4.526305E+03	2.795023E-16	2.962638E-18
4.536103E+03	2.791879E-16	2.950573E-18
4.545900E+03	2.788844E-16	2.938809E-18
4.555697E+03	2.785850E-16	2.927271E-18
4.565494E+03	2.782847E-16	2.915912E-18
4.575291E+03	2.779810E-16	2.904703E-18
4.585089E+03	2.776696E-16	2.893600E-18
4.594886E+03	2.773442E-16	2.882541E-18
4.604683E+03	2.770042E-16	2.871520E-18
4.614480E+03	2.766452E-16	2.860495E-18
4.624277E+03	2.762686E-16	2.849480E-18
4.634075E+03	2.758753E-16	2.838488E-18
4.643872E+03	2.754649E-16	2.827517E-18
4.653669E+03	2.750439E-16	2.816631E-18
4.663466E+03	2.746160E-16	2.805866E-18
4.673263E+03	2.741938E-16	2.795347E-18
4.683061E+03	2.737830E-16	2.785129E-18
4.692858E+03	2.733982E-16	2.775355E-18
4.702655E+03	2.730528E-16	2.766156E-18
4.712452E+03	2.727583E-16	2.757645E-18
4.722249E+03	2.725323E-16	2.749989E-18
4.732047E+03	2.723804E-16	2.743241E-18
4.741844E+03	2.723122E-16	2.737488E-18
4.751641E+03	2.723323E-16	2.732772E-18
4.761438E+03	2.724334E-16	2.729010E-18
4.771235E+03	2.726099E-16	2.726140E-18
4.781033E+03	2.728483E-16	2.724022E-18
4.790830E+03	2.731300E-16	2.722466E-18
4.800627E+03	2.734326E-16	2.721243E-18
4.810424E+03	2.737300E-16	2.720093E-18
4.820221E+03	2.739945E-16	2.718738E-18
4.830019E+03	2.741976E-16	2.716897E-18
4.839816E+03	2.743120E-16	2.714300E-18
4.849613E+03	2.743155E-16	2.710730E-18
4.859410E+03	2.741824E-16	2.705933E-18
4.869207E+03	2.739017E-16	2.699807E-18
4.879005E+03	2.734613E-16	2.692234E-18
4.888802E+03	2.728573E-16	2.683180E-18
4.898599E+03	2.720928E-16	2.672679E-18
4.908396E+03	2.711765E-16	2.660817E-18
4.918193E+03	2.701251E-16	2.647762E-18
4.927991E+03	2.689550E-16	2.633674E-18
4.937788E+03	2.676882E-16	2.618771E-18
4.947585E+03	2.663519E-16	2.603317E-18
4.957382E+03	2.649692E-16	2.587537E-18
4.967179E+03	2.635661E-16	2.571684E-18
4.976977E+03	2.621677E-16	2.555998E-18
4.986774E+03	2.607999E-16	2.540731E-18
4.996571E+03	2.594815E-16	2.526063E-18
5.006368E+03	2.582336E-16	2.512194E-18
5.016165E+03	2.570694E-16	2.499249E-18
5.025963E+03	2.560039E-16	2.487371E-18
5.035760E+03	2.550415E-16	2.476600E-18
5.045557E+03	2.541960E-16	2.467064E-18
5.055354E+03	2.534656E-16	2.458744E-18
5.065151E+03	2.528510E-16	2.451643E-18
5.074949E+03	2.523523E-16	2.445760E-18
5.084746E+03	2.519624E-16	2.441023E-18
5.094543E+03	2.516767E-16	2.437387E-18
5.104340E+03	2.514864E-16	2.434763E-18
5.114137E+03	2.513780E-16	2.433020E-18
5.123935E+03	2.513391E-16	2.432039E-18
5.133732E+03	2.513583E-16	2.431706E-18
5.143529E+03	2.514208E-16	2.431880E-18
5.153326E+03	2.515111E-16	2.432408E-18
5.163123E+03	2.516106E-16	2.433114E-18
5.172921E+03	2.517033E-16	2.433841E-18
5.182718E+03	2.517786E-16	2.434486E-18
5.192515E+03	2.518162E-16	2.434855E-18
5.202312E+03	2.518019E-16	2.434812E-18
5.212109E+03	2.517279E-16	2.434279E-18
5.221907E+03	2.515777E-16	2.433098E-18
5.231704E+03	2.513442E-16	2.431199E-18
5.241501E+03	2.510171E-16	2.428484E-18
5.251298E+03	2.505933E-16	2.424922E-18
5.261095E+03	2.500696E-16	2.420478E-18
5.270893E+03	2.494450E-16	2.415137E-18
5.280690E+03	2.487208E-16	2.408908E-18
5.290487E+03	2.478985E-16	2.401801E-18
5.300284E+03	2.469870E-16	2.393897E-18
5.310081E+03	2.459948E-16	2.385275E-18
5.319879E+03	2.449305E-16	2.376013E-18
5.329676E+03	2.438121E-16	2.366281E-18
5.339473E+03	2.426496E-16	2.356173E-18
5.349270E+03	2.414621E-16	2.345868E-18
5.359067E+03	2.402670E-16	2.335533E-18
5.368865E+03	2.390828E-16	2.325345E-18
5.378662E+03	2.379283E-16	2.315483E-18
5.388459E+03	2.368173E-16	2.306078E-18
5.398256E+03	2.357477E-16	2.297111E-18
5.408053E+03	2.347202E-16	2.288582E-18
5.417850E+03	2.337351E-16	2.280496E-18
5.427648E+03	2.327851E-16	2.272777E-18
5.437445E+03	2.318703E-16	2.265427E-18
5.447242E+03	2.309884E-16	2.258419E-18
5.457039E+03	2.301366E-16	2.251727E-18
5.466836E+03	2.293096E-16	2.245295E-18
5.476634E+03	2.285092E-16	2.239141E-18
5.486431E+03	2.277296E-16	2.233207E-18
5.496228E+03	2.269646E-16	2.227429E-18
5.506025E+03	2.262154E-16	2.221819E-18
5.515822E+03	2.254730E-16	2.216286E-18
5.525620E+03	2.247386E-16	2.210843E-18
5.535417E+03	2.240033E-16	2.205398E-18
5.545214E+03	2.232688E-16	2.199968E-18
5.555011E+03	2.225270E-16	2.194471E-18
5.564808E+03	2.217780E-16	2.188907E-18
5.574606E+03	2.210224E-16	2.183281E-18
5.584403E+03	2.202536E-16	2.177527E-18
5.594200E+03	2.194737E-16	2.171664E-18
5.603997E+03	2.186826E-16	2.165689E-18
5.613794E+03	2.178833E-16	2.159632E-18
5.623592E+03	2.170720E-16	2.153452E-18
5.633389E+03	2.162524E-16	2.147188E-18
5.643186E+03	2.154267E-16	2.140859E-18
5.652983E+03	2.145970E-16	2.134485E-18
5.662780E+03	2.137681E-16	2.128115E-18
5.672578E+03	2.129374E-16	2.121721E-18
5.682375E+03	2.121099E-16	2.115354E-18
5.692172E+03	2.112878E-16	2.109034E-18
5.701969E+03	2.104757E-16	2.102809E-18
5.711766E+03	2.096702E-16	2.096643E-18
5.721564E+03	2.088751E-16	2.090576E-18
5.731361E+03	2.080937E-16	2.084640E-18
5.741158E+03	2.073210E-16	2.078786E-18
5.750955E+03	2.065592E-16	2.073037E-18
5.760752E+03	2.058102E-16	2.067410E-18
5.770550E+03	2.050673E-16	2.061842E-18
5.780347E+03	2.043342E-16	2.056367E-18
5.790144E+03	2.036039E-16	2.050918E-18
5.799941E+03	2.028795E-16	2.045525E-18
5.809738E+03	2.021541E-16	2.040119E-18
5.819536E+03	2.014310E-16	2.034735E-18
5.829333E+03	2.007062E-16	2.029332E-18
5.839130E+03	1.999759E-16	2.023872E-18
5.848927E+03	1.992445E-16	2.018401E-18
5.858724E+03	1.985089E-16	2.012888E-18
5.868522E+03	1.977692E-16	2.007333E-18
5.878319E+03	1.970230E-16	2.001712E-18
5.888116E+03	1.962759E-16	1.996086E-18
5.897913E+03	1.955264E-16	1.990437E-18
5.907710E+03	1.947756E-16	1.984778E-18
5.917508E+03	1.940248E-16	1.979124E-18
5.927305E+03	1.932761E-16	1.973495E-18
5.937102E+03	1.925314E-16	1.967912E-18
5.946899E+03	1.917933E-16	1.962404E-18
5.956696E+03	1.910647E-16	1.957002E-18
5.966494E+03	1.903491E-16	1.951740E-18
5.976291E+03	1.896505E-16	1.946663E-18
5.986088E+03	1.889757E-16	1.941841E-18
5.995885E+03	1.883245E-16	1.937275E-18
6.005682E+03	1.877047E-16	1.933046E-18
6.015480E+03	1.871246E-16	1.929242E-18
6.025277E+03	1.865846E-16	1.925869E-18
6.035074E+03	1.860933E-16	1.923020E-18
6.044871E+03	1.856592E-16	1.920784E-18
6.054668E+03	1.852829E-16	1.919170E-18
6.064466E+03	1.849750E-16	1.918292E-18
6.074263E+03	1.847351E-16	1.918150E-18
6.084060E+03	1.845723E-16	1.918840E-18
6.093857E+03	1.844839E-16	1.920340E-18
6.103654E+03	1.844754E-16	1.922706E-18
6.113452E+03	1.845398E-16	1.925865E-18
6.123249E+03	1.846798E-16	1.929850E-18
6.133046E+03	1.848900E-16	1.934603E-18
6.142843E+03	1.851727E-16	1.940150E-18
6.152640E+03	1.855208E-16	1.946419E-18
6.162438E+03	1.859254E-16	1.953317E-18
6.172235E+03	1.863851E-16	1.960830E-18
6.182032E+03	1.868900E-16	1.968856E-18
6.191829E+03	1.874332E-16	1.977321E-18
6.201626E+03	1.880049E-16	1.986123E-18
6.211424E+03	1.886043E-16	1.995253E-18
6.221221E+03	1.892225E-16	2.004616E-18
6.231018E+03	1.898514E-16	2.014126E-18
6.240815E+03	1.904918E-16	2.023791E-18
6.250612E+03	1.911369E-16	2.033537E-18
6.260410E+03	1.917833E-16	2.043328E-18
6.270207E+03	1.924254E-16	2.053102E-18
6.280004E+03	1.930669E-16	2.062897E-18
6.289801E+03	1.937034E-16	2.072665E-18
6.299598E+03	1.943308E-16	2.082360E-18
6.309396E+03	1.949541E-16	2.092034E-18
6.319193E+03	1.955697E-16	2.101647E-18
6.328990E+03	1.961735E-16	2.111155E-18
6.338787E+03	1.967708E-16	2.120610E-18
6.348584E+03	1.973538E-16	2.129931E-18
6.358382E+03	1.979270E-16	2.139160E-18
6.368179E+03	1.984849E-16	2.148239E-18
6.377976E+03	1.990212E-16	2.157097E-18
6.387773E+03	1.995352E-16	2.165725E-18
6.397570E+03	2.000257E-16	2.174107E-18
6.407367E+03	2.004814E-16	2.182119E-18
6.417165E+03	2.009031E-16	2.189765E-18
6.426962E+03	2.012783E-16	2.196909E-18
6.436759E+03	2.016039E-16	2.203513E-18
6.446556E+03	2.018734E-16	2.209503E-18
6.456353E+03	2.020835E-16	2.214839E-18
6.466151E+03	2.022213E-16	2.219377E-18
6.475948E+03	2.022839E-16	2.223080E-18
6.485745E+03	2.022660E-16	2.225886E-18
6.495542E+03	2.021625E-16	2.227736E-18
6.505339E+03	2.019661E-16	2.228545E-18
6.515137E+03	2.016804E-16	2.228347E-18
6.524934E+03	2.013002E-16	2.227081E-18
6.534731E+03	2.008248E-16	2.224735E-18
6.544528E+03	2.002515E-16	2.221276E-18
6.554325E+03	1.995889E-16	2.216792E-18
6.564123E+03	1.988336E-16	2.211244E-18
6.573920E+03	1.979936E-16	2.204717E-18
6.583717E+03	1.970779E-16	2.197307E-18
6.593514E+03	1.960867E-16	2.189013E-18
6.603311E+03	1.950310E-16	2.179956E-18
6.613109E+03	1.939192E-16	2.170228E-18
6.622906E+03	1.927603E-16	2.159926E-18
6.632703E+03	1.915599E-16	2.149113E-18
6.642500E+03	1.903339E-16	2.137966E-18
6.652297E+03	1.890846E-16	2.126510E-18
6.662095E+03	1.878271E-16	2.114916E-18
6.671892E+03	1.865630E-16	2.103200E-18
6.681689E+03	1.853031E-16	2.091486E-18
6.691486E+03	1.840536E-16	2.079845E-18
6.701283E+03	1.828206E-16	2.068346E-18
6.711081E+03	1.816087E-16	2.057044E-18
6.720878E+03	1.804220E-16	2.045985E-18
6.730675E+03	1.792634E-16	2.035206E-18
6.740472E+03	1.781318E-16	2.024696E-18
6.750269E+03	1.770318E-16	2.014507E-18
6.760067E+03	1.759637E-16	2.004648E-18
6.769864E+03	1.749272E-16	1.995116E-18
6.779661E+03	1.739214E-16	1.985903E-18
6.789458E+03	1.729447E-16	1.976993E-18
6.799255E+03	1.719951E-16	1.968364E-18
6.809053E+03	1.710671E-16	1.959957E-18
6.818850E+03	1.701611E-16	1.951778E-18
6.828647E+03	1.692742E-16	1.943794E-18
6.838444E+03	1.684033E-16	1.935973E-18
6.848241E+03	1.675455E-16	1.928282E-18
6.858039E+03	1.666976E-16	1.920688E-18
6.867836E+03	1.658539E-16	1.913124E-18
6.877633E+03	1.650145E-16	1.905593E-18
6.887430E+03	1.641772E-16	1.898072E-18
6.897227E+03	1.633398E-16	1.890535E-18
6.907025E+03	1.625003E-16	1.882963E-18
6.916822E+03	1.616544E-16	1.875305E-18
6.926619E+03	1.608072E-16	1.867620E-18
6.936416E+03	1.599521E-16	1.859835E-18
6.946213E+03	1.590923E-16	1.851987E-18
6.956011E+03	1.582251E-16	1.844046E-18
6.965808E+03	1.573579E-16	1.836098E-18
6.975605E+03	1.564862E-16	1.828093E-18
6.985402E+03	1.556151E-16	1.820090E-18
6.995199E+03	1.547472E-16	1.812123E-18
7.004997E+03	1.538855E-16	1.804226E-18
7.014794E+03	1.530300E-16	1.796403E-18
7.024591E+03	1.521872E-16	1.788729E-18
7.034388E+03	1.513602E-16	1.781245E-18
7.044185E+03	1.505523E-16	1.773991E-18
7.053983E+03	1.497632E-16	1.766964E-18
7.063780E+03	1.490013E-16	1.760266E-18
7.073577E+03	1.482621E-16	1.753847E-18
7.083374E+03	1.475466E-16	1.747721E-18
7.093171E+03	1.468607E-16	1.741960E-18
7.102969E+03	1.461974E-16	1.736484E-18
7.112766E+03	1.455578E-16	1.731307E-18
7.122563E+03	1.449389E-16	1.726396E-18
7.132360E+03	1.443368E-16	1.721708E-18
7.142157E+03	1.437438E-16	1.717152E-18
7.151955E+03	1.431574E-16	1.712701E-18
7.161752E+03	1.425716E-16	1.708284E-18
7.171549E+03	1.419772E-16	1.703792E-18
7.181346E+03	1.413707E-16	1.699183E-18
7.191143E+03	1.407455E-16	1.694380E-18
7.200941E+03	1.400956E-16	1.689307E-18
7.210738E+03	1.394123E-16	1.683862E-18
7.220535E+03	1.386935E-16	1.678017E-18
7.230332E+03	1.379348E-16	1.671719E-18
7.240129E+03	1.371301E-16	1.664889E-18
7.249927E+03	1.362828E-16	1.657571E-18
7.259724E+03	1.353831E-16	1.649639E-18
7.269521E+03	1.344397E-16	1.641198E-18
7.279318E+03	1.334480E-16	1.632189E-18
7.289115E+03	1.324133E-16	1.622675E-18
7.298913E+03	1.313392E-16	1.612697E-18
7.308710E+03	1.302278E-16	1.602277E-18
7.318507E+03	1.290879E-16	1.591521E-18
7.328304E+03	1.279264E-16	1.580512E-18
7.338101E+03	1.267488E-16	1.569317E-18
7.347899E+03	1.255669E-16	1.558080E-18
7.357696E+03	1.243906E-16	1.546923E-18
7.367493E+03	1.232309E-16	1.535983E-18
7.377290E+03	1.220961E-16	1.525367E-18
7.387087E+03	1.209986E-16	1.515229E-18
7.396884E+03	1.199562E-16	1.505796E-18
7.406682E+03	1.189763E-16	1.497165E-18
7.416479E+03	1.180743E-16	1.489538E-18
7.426276E+03	1.172608E-16	1.483053E-18
7.436073E+03	1.165508E-16	1.477910E-18
7.445870E+03	1.159567E-16	1.474275E-18
7.455668E+03	1.154873E-16	1.472269E-18
7.465465E+03	1.151531E-16	1.472037E-18
7.475262E+03	1.149479E-16	1.473511E-18
7.485059E+03	1.148586E-16	1.476536E-18
7.494856E+03	1.148769E-16	1.481013E-18
7.504654E+03	1.149886E-16	1.486775E-18
7.514451E+03	1.151856E-16	1.493720E-18
7.524248E+03	1.154568E-16	1.501717E-18
7.534045E+03	1.157891E-16	1.510601E-18
7.543842E+03	1.161750E-16	1.520281E-18
7.553640E+03	1.166052E-16	1.530640E-18
7.563437E+03	1.170678E-16	1.541527E-18
7.573234E+03	1.175575E-16	1.552874E-18
7.583031E+03	1.180637E-16	1.564544E-18
7.592828E+03	1.185822E-16	1.576484E-18
7.602626E+03	1.191065E-16	1.588607E-18
