#wls	flux	fluxerr
1.567552E+03	2.377116E-16	5.301310E-18
1.606740E+03	2.399965E-16	5.324885E-18
1.645929E+03	2.415130E-16	5.330357E-18
1.685118E+03	2.422357E-16	5.317414E-18
1.724307E+03	2.421106E-16	5.285151E-18
1.763496E+03	2.410052E-16	5.230991E-18
1.802684E+03	2.387296E-16	5.151203E-18
1.841873E+03	2.350661E-16	5.041578E-18
1.881062E+03	2.298119E-16	4.898355E-18
1.920251E+03	2.228583E-16	4.719903E-18
1.959440E+03	2.143400E-16	4.509801E-18
1.998628E+03	2.048408E-16	4.280969E-18
2.037817E+03	1.955330E-16	4.058225E-18
2.077006E+03	1.880173E-16	3.874553E-18
2.116195E+03	1.837721E-16	3.759466E-18
2.155384E+03	1.834990E-16	3.725767E-18
2.194572E+03	1.868585E-16	3.764791E-18
2.233761E+03	1.927574E-16	3.852951E-18
2.272950E+03	1.998830E-16	3.962951E-18
2.312139E+03	2.071358E-16	4.072508E-18
2.351328E+03	2.138004E-16	4.167546E-18
2.390516E+03	2.195138E-16	4.241286E-18
2.429705E+03	2.241566E-16	4.291877E-18
2.468894E+03	2.277472E-16	4.320188E-18
2.508083E+03	2.303716E-16	4.328361E-18
2.547271E+03	2.321386E-16	4.318926E-18
2.586460E+03	2.331624E-16	4.294442E-18
2.625649E+03	2.335475E-16	4.257227E-18
2.664838E+03	2.333911E-16	4.209402E-18
2.704027E+03	2.327766E-16	4.152776E-18
2.743215E+03	2.317823E-16	4.089013E-18
2.782404E+03	2.304765E-16	4.019549E-18
2.821593E+03	2.289242E-16	3.945717E-18
2.860782E+03	2.271830E-16	3.868676E-18
2.899971E+03	2.253090E-16	3.789520E-18
2.939159E+03	2.233514E-16	3.709179E-18
2.948957E+03	2.228557E-16	3.689030E-18
2.958754E+03	2.223588E-16	3.668880E-18
2.968551E+03	2.218600E-16	3.648720E-18
2.978348E+03	2.213636E-16	3.628617E-18
2.988145E+03	2.208783E-16	3.608716E-18
2.997943E+03	2.204091E-16	3.589097E-18
3.007740E+03	2.199555E-16	3.569750E-18
3.017537E+03	2.195157E-16	3.550644E-18
3.027334E+03	2.190872E-16	3.531735E-18
3.037131E+03	2.186721E-16	3.513059E-18
3.046929E+03	2.182690E-16	3.494590E-18
3.056726E+03	2.178820E-16	3.476390E-18
3.066523E+03	2.175115E-16	3.458468E-18
3.076320E+03	2.171536E-16	3.440756E-18
3.086117E+03	2.168079E-16	3.423249E-18
3.095915E+03	2.164734E-16	3.405926E-18
3.105712E+03	2.161488E-16	3.388771E-18
3.115509E+03	2.158336E-16	3.371770E-18
3.125306E+03	2.155269E-16	3.354912E-18
3.135103E+03	2.152284E-16	3.338188E-18
3.144901E+03	2.149364E-16	3.321572E-18
3.154698E+03	2.146531E-16	3.305101E-18
3.164495E+03	2.143761E-16	3.288732E-18
3.174292E+03	2.141065E-16	3.272485E-18
3.184089E+03	2.138457E-16	3.256379E-18
3.193887E+03	2.135914E-16	3.240379E-18
3.203684E+03	2.133451E-16	3.224507E-18
3.213481E+03	2.131072E-16	3.208768E-18
3.223278E+03	2.128781E-16	3.193169E-18
3.233075E+03	2.126585E-16	3.177717E-18
3.242873E+03	2.124487E-16	3.162418E-18
3.252670E+03	2.122496E-16	3.147284E-18
3.262467E+03	2.120607E-16	3.132303E-18
3.272264E+03	2.118852E-16	3.117526E-18
3.282061E+03	2.117216E-16	3.102928E-18
3.291859E+03	2.115734E-16	3.088557E-18
3.301656E+03	2.114405E-16	3.074412E-18
3.311453E+03	2.113230E-16	3.060489E-18
3.321250E+03	2.112233E-16	3.046824E-18
3.331047E+03	2.111442E-16	3.033456E-18
3.340845E+03	2.110849E-16	3.020367E-18
3.350642E+03	2.110498E-16	3.007619E-18
3.360439E+03	2.110382E-16	2.995200E-18
3.370236E+03	2.110537E-16	2.983155E-18
3.380033E+03	2.110987E-16	2.971515E-18
3.389831E+03	2.111769E-16	2.960330E-18
3.399628E+03	2.112890E-16	2.949600E-18
3.409425E+03	2.114391E-16	2.939381E-18
3.419222E+03	2.116320E-16	2.929731E-18
3.429019E+03	2.118685E-16	2.920658E-18
3.438816E+03	2.121539E-16	2.912224E-18
3.448614E+03	2.124930E-16	2.904490E-18
3.458411E+03	2.128871E-16	2.897465E-18
3.468208E+03	2.133408E-16	2.891201E-18
3.478005E+03	2.138579E-16	2.885742E-18
3.487802E+03	2.144368E-16	2.881054E-18
3.497600E+03	2.150793E-16	2.877153E-18
3.507397E+03	2.157816E-16	2.873979E-18
3.517194E+03	2.165392E-16	2.871463E-18
3.526991E+03	2.173512E-16	2.869582E-18
3.536788E+03	2.182123E-16	2.868262E-18
3.546586E+03	2.191188E-16	2.867444E-18
3.556383E+03	2.200670E-16	2.867074E-18
3.566180E+03	2.210532E-16	2.867097E-18
3.575977E+03	2.220741E-16	2.867463E-18
3.585774E+03	2.231278E-16	2.868144E-18
3.595572E+03	2.242085E-16	2.869060E-18
3.605369E+03	2.253161E-16	2.870206E-18
3.615166E+03	2.264451E-16	2.871508E-18
3.624963E+03	2.275958E-16	2.872967E-18
3.634760E+03	2.287645E-16	2.874532E-18
3.644558E+03	2.299502E-16	2.876192E-18
3.654355E+03	2.311480E-16	2.877881E-18
3.664152E+03	2.323574E-16	2.879591E-18
3.673949E+03	2.335777E-16	2.881315E-18
3.683746E+03	2.348056E-16	2.883010E-18
3.693544E+03	2.360393E-16	2.884654E-18
3.703341E+03	2.372784E-16	2.886243E-18
3.713138E+03	2.385182E-16	2.887719E-18
3.722935E+03	2.397597E-16	2.889095E-18
3.732732E+03	2.409996E-16	2.890335E-18
3.742530E+03	2.422360E-16	2.891416E-18
3.752327E+03	2.434687E-16	2.892337E-18
3.762124E+03	2.446942E-16	2.893060E-18
3.771921E+03	2.459107E-16	2.893566E-18
3.781718E+03	2.471164E-16	2.893838E-18
3.791516E+03	2.483114E-16	2.893878E-18
3.801313E+03	2.494924E-16	2.893654E-18
3.811110E+03	2.506582E-16	2.893155E-18
3.820907E+03	2.518077E-16	2.892373E-18
3.830704E+03	2.529418E-16	2.891322E-18
3.840502E+03	2.540598E-16	2.890001E-18
3.850299E+03	2.551584E-16	2.888374E-18
3.860096E+03	2.562407E-16	2.886484E-18
3.869893E+03	2.573073E-16	2.884341E-18
3.879690E+03	2.583572E-16	2.881939E-18
3.889488E+03	2.593914E-16	2.879294E-18
3.899285E+03	2.604114E-16	2.876428E-18
3.909082E+03	2.614203E-16	2.873379E-18
3.918879E+03	2.624203E-16	2.870177E-18
3.928676E+03	2.634120E-16	2.866829E-18
3.938474E+03	2.643977E-16	2.863368E-18
3.948271E+03	2.653819E-16	2.859844E-18
3.958068E+03	2.663675E-16	2.856291E-18
3.967865E+03	2.673556E-16	2.852724E-18
3.977662E+03	2.683490E-16	2.849175E-18
3.987460E+03	2.693522E-16	2.845694E-18
3.997257E+03	2.703657E-16	2.842289E-18
4.007054E+03	2.713933E-16	2.838999E-18
4.016851E+03	2.724362E-16	2.835839E-18
4.026648E+03	2.734933E-16	2.832798E-18
4.036446E+03	2.745662E-16	2.829896E-18
4.046243E+03	2.756521E-16	2.827102E-18
4.056040E+03	2.767511E-16	2.824423E-18
4.065837E+03	2.778610E-16	2.821835E-18
4.075634E+03	2.789770E-16	2.819294E-18
4.085432E+03	2.800979E-16	2.816791E-18
4.095229E+03	2.812207E-16	2.814297E-18
4.105026E+03	2.823403E-16	2.811769E-18
4.114823E+03	2.834557E-16	2.809201E-18
4.124620E+03	2.845647E-16	2.806575E-18
4.134418E+03	2.856653E-16	2.803878E-18
4.144215E+03	2.867537E-16	2.801079E-18
4.154012E+03	2.878307E-16	2.798192E-18
4.163809E+03	2.888952E-16	2.795212E-18
4.173606E+03	2.899461E-16	2.792137E-18
4.183404E+03	2.909799E-16	2.788940E-18
4.193201E+03	2.919992E-16	2.785652E-18
4.202998E+03	2.929974E-16	2.782219E-18
4.212795E+03	2.939733E-16	2.778637E-18
4.222592E+03	2.949229E-16	2.774877E-18
4.232390E+03	2.958408E-16	2.770898E-18
4.242187E+03	2.967212E-16	2.766654E-18
4.251984E+03	2.975573E-16	2.762092E-18
4.261781E+03	2.983424E-16	2.757163E-18
4.271578E+03	2.990706E-16	2.751823E-18
4.281376E+03	2.997357E-16	2.746027E-18
4.291173E+03	3.003392E-16	2.739803E-18
4.300970E+03	3.008756E-16	2.733109E-18
4.310767E+03	3.013348E-16	2.725864E-18
4.320564E+03	3.017016E-16	2.717939E-18
4.330362E+03	3.019617E-16	2.709216E-18
4.340159E+03	3.021074E-16	2.699641E-18
4.349956E+03	3.021307E-16	2.689153E-18
4.359753E+03	3.020371E-16	2.677815E-18
4.369550E+03	3.018302E-16	2.665670E-18
4.379348E+03	3.015198E-16	2.652816E-18
4.389145E+03	3.011186E-16	2.639376E-18
4.398942E+03	3.006418E-16	2.625487E-18
4.408739E+03	3.001080E-16	2.611321E-18
4.418536E+03	2.995318E-16	2.597007E-18
4.428333E+03	2.989323E-16	2.582714E-18
4.438131E+03	2.983230E-16	2.568559E-18
4.447928E+03	2.977178E-16	2.554663E-18
4.457725E+03	2.971289E-16	2.541126E-18
4.467522E+03	2.965680E-16	2.528048E-18
4.477319E+03	2.960421E-16	2.515484E-18
4.487117E+03	2.955510E-16	2.503429E-18
4.496914E+03	2.951029E-16	2.491949E-18
4.506711E+03	2.946906E-16	2.480980E-18
4.516508E+03	2.943178E-16	2.470550E-18
4.526305E+03	2.939732E-16	2.460561E-18
4.536103E+03	2.936577E-16	2.451019E-18
4.545900E+03	2.933601E-16	2.441826E-18
4.555697E+03	2.930729E-16	2.432922E-18
4.565494E+03	2.927909E-16	2.424261E-18
4.575291E+03	2.925069E-16	2.415783E-18
4.585089E+03	2.922138E-16	2.407431E-18
4.594886E+03	2.919031E-16	2.399136E-18
4.604683E+03	2.915698E-16	2.390856E-18
4.614480E+03	2.912140E-16	2.382595E-18
4.624277E+03	2.908280E-16	2.374291E-18
4.634075E+03	2.904122E-16	2.365948E-18
4.643872E+03	2.899660E-16	2.357561E-18
4.653669E+03	2.894904E-16	2.349136E-18
4.663466E+03	2.889860E-16	2.340674E-18
4.673263E+03	2.884638E-16	2.332262E-18
4.683061E+03	2.879304E-16	2.323948E-18
4.692858E+03	2.874054E-16	2.315885E-18
4.702655E+03	2.869120E-16	2.308257E-18
4.712452E+03	2.864768E-16	2.301270E-18
4.722249E+03	2.861262E-16	2.295130E-18
4.732047E+03	2.858827E-16	2.290010E-18
4.741844E+03	2.857627E-16	2.286034E-18
4.751641E+03	2.857748E-16	2.283263E-18
4.761438E+03	2.859192E-16	2.281691E-18
4.771235E+03	2.861870E-16	2.281240E-18
4.781033E+03	2.865604E-16	2.281763E-18
4.790830E+03	2.870139E-16	2.283051E-18
4.800627E+03	2.875172E-16	2.284859E-18
4.810424E+03	2.880275E-16	2.286843E-18
4.820221E+03	2.885083E-16	2.288712E-18
4.830019E+03	2.889148E-16	2.290109E-18
4.839816E+03	2.892062E-16	2.290708E-18
4.849613E+03	2.893474E-16	2.290234E-18
4.859410E+03	2.893026E-16	2.288402E-18
4.869207E+03	2.890532E-16	2.285065E-18
4.879005E+03	2.885849E-16	2.280110E-18
4.888802E+03	2.878881E-16	2.273462E-18
4.898599E+03	2.869724E-16	2.265196E-18
4.908396E+03	2.858518E-16	2.255422E-18
4.918193E+03	2.845451E-16	2.244286E-18
4.927991E+03	2.830798E-16	2.232004E-18
4.937788E+03	2.814883E-16	2.218828E-18
4.947585E+03	2.798102E-16	2.205069E-18
4.957382E+03	2.780741E-16	2.190949E-18
4.967179E+03	2.763203E-16	2.176783E-18
4.976977E+03	2.745826E-16	2.162833E-18
4.986774E+03	2.728892E-16	2.149320E-18
4.996571E+03	2.712676E-16	2.136456E-18
5.006368E+03	2.697459E-16	2.124459E-18
5.016165E+03	2.683358E-16	2.113421E-18
5.025963E+03	2.670594E-16	2.103512E-18
5.035760E+03	2.659224E-16	2.094776E-18
5.045557E+03	2.649338E-16	2.087283E-18
5.055354E+03	2.640942E-16	2.081036E-18
5.065151E+03	2.634056E-16	2.076050E-18
5.074949E+03	2.628620E-16	2.072278E-18
5.084746E+03	2.624618E-16	2.069707E-18
5.094543E+03	2.621911E-16	2.068227E-18
5.104340E+03	2.620408E-16	2.067768E-18
5.114137E+03	2.619947E-16	2.068202E-18
5.123935E+03	2.620422E-16	2.069447E-18
5.133732E+03	2.621612E-16	2.071328E-18
5.143529E+03	2.623357E-16	2.073720E-18
5.153326E+03	2.625464E-16	2.076471E-18
5.163123E+03	2.627709E-16	2.079406E-18
5.172921E+03	2.629948E-16	2.082410E-18
5.182718E+03	2.631932E-16	2.085287E-18
5.192515E+03	2.633505E-16	2.087913E-18
5.202312E+03	2.634493E-16	2.090150E-18
5.212109E+03	2.634738E-16	2.091873E-18
5.221907E+03	2.634102E-16	2.092970E-18
5.231704E+03	2.632468E-16	2.093349E-18
5.241501E+03	2.629718E-16	2.092913E-18
5.251298E+03	2.625836E-16	2.091647E-18
5.261095E+03	2.620753E-16	2.089491E-18
5.270893E+03	2.614430E-16	2.086407E-18
5.280690E+03	2.606931E-16	2.082440E-18
5.290487E+03	2.598246E-16	2.077574E-18
5.300284E+03	2.588495E-16	2.071901E-18
5.310081E+03	2.577746E-16	2.065468E-18
5.319879E+03	2.566093E-16	2.058343E-18
5.329676E+03	2.553727E-16	2.050675E-18
5.339473E+03	2.540785E-16	2.042569E-18
5.349270E+03	2.527418E-16	2.034139E-18
5.359067E+03	2.513866E-16	2.025576E-18
5.368865E+03	2.500292E-16	2.017008E-18
5.378662E+03	2.486875E-16	2.008575E-18
5.388459E+03	2.473747E-16	2.000383E-18
5.398256E+03	2.460986E-16	1.992490E-18
5.408053E+03	2.448651E-16	1.984946E-18
5.417850E+03	2.436710E-16	1.977721E-18
5.427648E+03	2.425226E-16	1.970866E-18
5.437445E+03	2.414149E-16	1.964340E-18
5.447242E+03	2.403527E-16	1.958179E-18
5.457039E+03	2.393324E-16	1.952355E-18
5.466836E+03	2.383519E-16	1.946850E-18
5.476634E+03	2.374084E-16	1.941639E-18
5.486431E+03	2.365007E-16	1.936714E-18
5.496228E+03	2.356193E-16	1.931994E-18
5.506025E+03	2.347643E-16	1.927480E-18
5.515822E+03	2.339276E-16	1.923106E-18
5.525620E+03	2.331039E-16	1.918826E-18
5.535417E+03	2.322878E-16	1.914596E-18
5.545214E+03	2.314745E-16	1.910374E-18
5.555011E+03	2.306619E-16	1.906143E-18
5.564808E+03	2.298413E-16	1.901830E-18
5.574606E+03	2.290153E-16	1.897454E-18
5.584403E+03	2.281792E-16	1.892978E-18
5.594200E+03	2.273349E-16	1.888413E-18
5.603997E+03	2.264768E-16	1.883715E-18
5.613794E+03	2.256110E-16	1.878931E-18
5.623592E+03	2.247361E-16	1.874050E-18
5.633389E+03	2.238541E-16	1.869087E-18
5.643186E+03	2.229674E-16	1.864064E-18
5.652983E+03	2.220815E-16	1.859024E-18
5.662780E+03	2.211944E-16	1.853952E-18
5.672578E+03	2.203146E-16	1.848918E-18
5.682375E+03	2.194426E-16	1.843927E-18
5.692172E+03	2.185843E-16	1.839028E-18
5.701969E+03	2.177372E-16	1.834203E-18
5.711766E+03	2.169090E-16	1.829514E-18
5.721564E+03	2.160985E-16	1.824955E-18
5.731361E+03	2.153069E-16	1.820535E-18
5.741158E+03	2.145343E-16	1.816257E-18
5.750955E+03	2.137827E-16	1.812137E-18
5.760752E+03	2.130480E-16	1.808144E-18
5.770550E+03	2.123283E-16	1.804261E-18
5.780347E+03	2.116206E-16	1.800466E-18
5.790144E+03	2.109224E-16	1.796735E-18
5.799941E+03	2.102332E-16	1.793067E-18
5.809738E+03	2.095474E-16	1.789415E-18
5.819536E+03	2.088624E-16	1.785759E-18
5.829333E+03	2.081764E-16	1.782081E-18
5.839130E+03	2.074874E-16	1.778368E-18
5.848927E+03	2.067973E-16	1.774636E-18
5.858724E+03	2.061031E-16	1.770859E-18
5.868522E+03	2.054046E-16	1.767038E-18
5.878319E+03	2.047024E-16	1.763178E-18
5.888116E+03	2.040000E-16	1.759310E-18
5.897913E+03	2.032958E-16	1.755421E-18
5.907710E+03	2.025884E-16	1.751502E-18
5.917508E+03	2.018849E-16	1.747612E-18
5.927305E+03	2.011869E-16	1.743769E-18
5.937102E+03	2.004915E-16	1.739948E-18
5.946899E+03	1.998066E-16	1.736219E-18
5.956696E+03	1.991327E-16	1.732588E-18
5.966494E+03	1.984735E-16	1.729089E-18
5.976291E+03	1.978334E-16	1.725761E-18
5.986088E+03	1.972201E-16	1.722675E-18
5.995885E+03	1.966338E-16	1.719833E-18
6.005682E+03	1.960857E-16	1.717337E-18
6.015480E+03	1.955793E-16	1.715219E-18
6.025277E+03	1.951206E-16	1.713536E-18
6.035074E+03	1.947178E-16	1.712362E-18
6.044871E+03	1.943707E-16	1.711698E-18
6.054668E+03	1.940882E-16	1.711626E-18
6.064466E+03	1.938700E-16	1.712150E-18
6.074263E+03	1.937172E-16	1.713280E-18
6.084060E+03	1.936285E-16	1.715009E-18
6.093857E+03	1.936011E-16	1.717316E-18
6.103654E+03	1.936335E-16	1.720186E-18
6.113452E+03	1.937190E-16	1.723560E-18
6.123249E+03	1.938520E-16	1.727391E-18
6.133046E+03	1.940376E-16	1.731721E-18
6.142843E+03	1.942760E-16	1.736556E-18
6.152640E+03	1.945615E-16	1.741841E-18
6.162438E+03	1.948951E-16	1.747590E-18
6.172235E+03	1.952769E-16	1.753802E-18
6.182032E+03	1.957002E-16	1.760416E-18
6.191829E+03	1.961571E-16	1.767363E-18
6.201626E+03	1.966480E-16	1.774646E-18
6.211424E+03	1.971673E-16	1.782213E-18
6.221221E+03	1.977035E-16	1.789962E-18
6.231018E+03	1.982544E-16	1.797870E-18
6.240815E+03	1.988179E-16	1.805918E-18
6.250612E+03	1.993843E-16	1.814017E-18
6.260410E+03	1.999561E-16	1.822188E-18
6.270207E+03	2.005280E-16	1.830382E-18
6.280004E+03	2.010985E-16	1.838583E-18
6.289801E+03	2.016667E-16	1.846782E-18
6.299598E+03	2.022323E-16	1.854974E-18
6.309396E+03	2.027954E-16	1.863159E-18
6.319193E+03	2.033591E-16	1.871364E-18
6.328990E+03	2.039176E-16	1.879534E-18
6.338787E+03	2.044766E-16	1.887720E-18
6.348584E+03	2.050292E-16	1.895858E-18
6.358382E+03	2.055800E-16	1.903987E-18
6.368179E+03	2.061237E-16	1.912058E-18
6.377976E+03	2.066568E-16	1.920037E-18
6.387773E+03	2.071751E-16	1.927883E-18
6.397570E+03	2.076735E-16	1.935546E-18
6.407367E+03	2.081456E-16	1.942965E-18
6.417165E+03	2.085846E-16	1.950075E-18
6.426962E+03	2.089830E-16	1.956803E-18
6.436759E+03	2.093328E-16	1.963071E-18
6.446556E+03	2.096288E-16	1.968827E-18
6.456353E+03	2.098561E-16	1.973927E-18
6.466151E+03	2.100096E-16	1.978321E-18
6.475948E+03	2.100847E-16	1.981961E-18
6.485745E+03	2.100673E-16	1.984710E-18
6.495542E+03	2.099575E-16	1.986565E-18
6.505339E+03	2.097432E-16	1.987406E-18
6.515137E+03	2.094266E-16	1.987250E-18
6.524934E+03	2.089980E-16	1.986000E-18
6.534731E+03	2.084629E-16	1.983704E-18
6.544528E+03	2.078182E-16	1.980328E-18
6.554325E+03	2.070625E-16	1.975854E-18
6.564123E+03	2.062062E-16	1.970378E-18
6.573920E+03	2.052517E-16	1.963917E-18
6.583717E+03	2.042024E-16	1.956502E-18
6.593514E+03	2.030735E-16	1.948276E-18
6.603311E+03	2.018679E-16	1.939262E-18
6.613109E+03	2.006028E-16	1.929625E-18
6.622906E+03	1.992859E-16	1.919436E-18
6.632703E+03	1.979252E-16	1.908771E-18
6.642500E+03	1.965387E-16	1.897804E-18
6.652297E+03	1.951307E-16	1.886576E-18
6.662095E+03	1.937185E-16	1.875254E-18
6.671892E+03	1.923050E-16	1.863868E-18
6.681689E+03	1.909058E-16	1.852568E-18
6.691486E+03	1.895219E-16	1.841367E-18
6.701283E+03	1.881633E-16	1.830362E-18
6.711081E+03	1.868386E-16	1.819640E-18
6.720878E+03	1.855456E-16	1.809183E-18
6.730675E+03	1.842910E-16	1.799055E-18
6.740472E+03	1.830765E-16	1.789278E-18
6.750269E+03	1.819034E-16	1.779865E-18
6.760067E+03	1.807716E-16	1.770819E-18
6.769864E+03	1.796803E-16	1.762134E-18
6.779661E+03	1.786280E-16	1.753797E-18
6.789458E+03	1.776121E-16	1.745787E-18
6.799255E+03	1.766267E-16	1.738046E-18
6.809053E+03	1.756749E-16	1.730607E-18
6.818850E+03	1.747465E-16	1.723374E-18
6.828647E+03	1.738443E-16	1.716373E-18
6.838444E+03	1.729579E-16	1.709506E-18
6.848241E+03	1.720866E-16	1.702768E-18
6.858039E+03	1.712266E-16	1.696121E-18
6.867836E+03	1.703744E-16	1.689533E-18
6.877633E+03	1.695265E-16	1.682971E-18
6.887430E+03	1.686798E-16	1.676406E-18
6.897227E+03	1.678315E-16	1.669810E-18
6.907025E+03	1.669761E-16	1.663131E-18
6.916822E+03	1.661181E-16	1.656414E-18
6.926619E+03	1.652498E-16	1.649585E-18
6.936416E+03	1.643736E-16	1.642667E-18
6.946213E+03	1.634894E-16	1.635661E-18
6.956011E+03	1.625978E-16	1.628575E-18
6.965808E+03	1.616971E-16	1.621390E-18
6.975605E+03	1.607953E-16	1.614192E-18
6.985402E+03	1.598891E-16	1.606945E-18
6.995199E+03	1.589849E-16	1.599717E-18
7.004997E+03	1.580896E-16	1.592579E-18
7.014794E+03	1.571985E-16	1.585484E-18
7.024591E+03	1.563254E-16	1.578573E-18
7.034388E+03	1.554720E-16	1.571866E-18
7.044185E+03	1.546398E-16	1.565381E-18
7.053983E+03	1.538363E-16	1.559193E-18
7.063780E+03	1.530649E-16	1.553343E-18
7.073577E+03	1.523288E-16	1.547863E-18
7.083374E+03	1.516296E-16	1.542774E-18
7.093171E+03	1.509649E-16	1.538053E-18
7.102969E+03	1.503369E-16	1.533727E-18
7.112766E+03	1.497438E-16	1.529779E-18
7.122563E+03	1.491819E-16	1.526175E-18
7.132360E+03	1.486466E-16	1.522870E-18
7.142157E+03	1.481289E-16	1.519775E-18
7.151955E+03	1.476279E-16	1.516884E-18
7.161752E+03	1.471299E-16	1.514055E-18
7.171549E+03	1.466266E-16	1.511208E-18
7.181346E+03	1.461158E-16	1.508319E-18
7.191143E+03	1.455828E-16	1.505238E-18
7.200941E+03	1.450228E-16	1.501915E-18
7.210738E+03	1.444280E-16	1.498271E-18
7.220535E+03	1.437919E-16	1.494235E-18
7.230332E+03	1.431056E-16	1.489716E-18
7.240129E+03	1.423678E-16	1.484698E-18
7.249927E+03	1.415750E-16	1.479142E-18
7.259724E+03	1.407226E-16	1.472998E-18
7.269521E+03	1.398159E-16	1.466320E-18
7.279318E+03	1.388501E-16	1.459053E-18
7.289115E+03	1.378306E-16	1.451251E-18
7.298913E+03	1.367581E-16	1.442920E-18
7.308710E+03	1.356410E-16	1.434144E-18
7.318507E+03	1.344857E-16	1.424990E-18
7.328304E+03	1.332999E-16	1.415535E-18
7.338101E+03	1.320930E-16	1.405877E-18
7.347899E+03	1.308718E-16	1.396089E-18
7.357696E+03	1.296507E-16	1.386321E-18
7.367493E+03	1.284389E-16	1.376671E-18
7.377290E+03	1.272521E-16	1.367310E-18
7.387087E+03	1.261038E-16	1.358384E-18
7.396884E+03	1.250079E-16	1.350045E-18
7.406682E+03	1.239759E-16	1.342422E-18
7.416479E+03	1.230246E-16	1.335702E-18
7.426276E+03	1.221680E-16	1.330045E-18
7.436073E+03	1.214196E-16	1.325605E-18
7.445870E+03	1.207886E-16	1.322492E-18
7.455668E+03	1.202847E-16	1.320820E-18
7.465465E+03	1.199176E-16	1.320705E-18
7.475262E+03	1.196794E-16	1.322071E-18
7.485059E+03	1.195645E-16	1.324869E-18
7.494856E+03	1.195598E-16	1.328964E-18
7.504654E+03	1.196567E-16	1.334267E-18
7.514451E+03	1.198433E-16	1.340658E-18
7.524248E+03	1.201080E-16	1.348014E-18
7.534045E+03	1.204367E-16	1.356184E-18
7.543842E+03	1.208212E-16	1.365082E-18
7.553640E+03	1.212483E-16	1.374564E-18
7.563437E+03	1.217113E-16	1.384556E-18
7.573234E+03	1.222010E-16	1.394961E-18
7.583031E+03	1.227064E-16	1.405651E-18
7.592828E+03	1.232230E-16	1.416577E-18
7.602626E+03	1.237409E-16	1.427628E-18
