#wls	flux	fluxerr
1.567552E+03	9.415798E-18	1.787320E-19
1.606740E+03	9.458818E-18	1.794595E-19
1.645929E+03	9.471674E-18	1.796117E-19
1.685118E+03	9.453771E-18	1.791782E-19
1.724307E+03	9.404102E-18	1.781407E-19
1.763496E+03	9.317653E-18	1.764052E-19
1.802684E+03	9.188053E-18	1.738525E-19
1.841873E+03	9.007297E-18	1.703326E-19
1.881062E+03	8.768377E-18	1.657147E-19
1.920251E+03	8.468318E-18	1.599450E-19
1.959440E+03	8.112632E-18	1.531297E-19
1.998628E+03	7.724350E-18	1.457057E-19
2.037817E+03	7.347402E-18	1.385024E-19
2.077006E+03	7.041607E-18	1.326468E-19
2.116195E+03	6.861759E-18	1.291676E-19
2.155384E+03	6.832538E-18	1.285243E-19
2.194572E+03	6.940585E-18	1.304596E-19
2.233761E+03	7.144292E-18	1.341860E-19
2.272950E+03	7.394904E-18	1.387842E-19
2.312139E+03	7.652362E-18	1.435006E-19
2.351328E+03	7.890424E-18	1.478427E-19
2.390516E+03	8.096266E-18	1.515712E-19
2.429705E+03	8.266390E-18	1.546217E-19
2.468894E+03	8.402032E-18	1.570189E-19
2.508083E+03	8.506020E-18	1.588171E-19
2.547271E+03	8.583491E-18	1.601135E-19
2.586460E+03	8.638862E-18	1.609917E-19
2.625649E+03	8.675867E-18	1.615223E-19
2.664838E+03	8.698221E-18	1.617752E-19
2.704027E+03	8.709223E-18	1.618125E-19
2.743215E+03	8.712233E-18	1.616971E-19
2.782404E+03	8.709941E-18	1.614793E-19
2.821593E+03	8.704085E-18	1.611916E-19
2.860782E+03	8.698170E-18	1.608990E-19
2.899971E+03	8.693336E-18	1.606224E-19
2.939159E+03	8.692600E-18	1.604174E-19
2.948957E+03	8.693321E-18	1.603822E-19
2.958754E+03	8.694480E-18	1.603548E-19
2.968551E+03	8.696104E-18	1.603357E-19
2.978348E+03	8.697931E-18	1.603201E-19
2.988145E+03	8.701043E-18	1.603278E-19
2.997943E+03	8.705356E-18	1.603574E-19
3.007740E+03	8.710436E-18	1.604008E-19
3.017537E+03	8.717000E-18	1.604711E-19
3.027334E+03	8.724621E-18	1.605606E-19
3.037131E+03	8.732928E-18	1.606623E-19
3.046929E+03	8.742693E-18	1.607905E-19
3.056726E+03	8.753375E-18	1.609351E-19
3.066523E+03	8.765700E-18	1.611095E-19
3.076320E+03	8.778848E-18	1.612986E-19
3.086117E+03	8.793156E-18	1.615086E-19
3.095915E+03	8.809008E-18	1.617465E-19
3.105712E+03	8.825593E-18	1.619973E-19
3.115509E+03	8.843290E-18	1.622681E-19
3.125306E+03	8.862109E-18	1.625590E-19
3.135103E+03	8.882440E-18	1.628771E-19
3.144901E+03	8.903508E-18	1.632081E-19
3.154698E+03	8.925722E-18	1.635596E-19
3.164495E+03	8.949115E-18	1.639321E-19
3.174292E+03	8.973703E-18	1.643260E-19
3.184089E+03	8.999525E-18	1.647418E-19
3.193887E+03	9.026614E-18	1.651802E-19
3.203684E+03	9.055015E-18	1.656419E-19
3.213481E+03	9.084775E-18	1.661278E-19
3.223278E+03	9.115537E-18	1.666314E-19
3.233075E+03	9.148165E-18	1.671683E-19
3.242873E+03	9.182300E-18	1.677321E-19
3.252670E+03	9.218012E-18	1.683239E-19
3.262467E+03	9.254947E-18	1.689372E-19
3.272264E+03	9.293988E-18	1.695882E-19
3.282061E+03	9.334787E-18	1.702705E-19
3.291859E+03	9.377006E-18	1.709777E-19
3.301656E+03	9.421542E-18	1.717263E-19
3.311453E+03	9.467635E-18	1.725024E-19
3.321250E+03	9.516196E-18	1.733225E-19
3.331047E+03	9.566455E-18	1.741725E-19
3.340845E+03	9.618913E-18	1.750615E-19
3.350642E+03	9.674079E-18	1.759988E-19
3.360439E+03	9.731181E-18	1.769702E-19
3.370236E+03	9.790718E-18	1.779847E-19
3.380033E+03	9.853225E-18	1.790520E-19
3.389831E+03	9.917900E-18	1.801575E-19
3.399628E+03	9.985271E-18	1.813107E-19
3.409425E+03	1.005543E-17	1.825133E-19
3.419222E+03	1.012846E-17	1.837664E-19
3.429019E+03	1.020445E-17	1.850720E-19
3.438816E+03	1.028349E-17	1.864314E-19
3.448614E+03	1.036567E-17	1.878464E-19
3.458411E+03	1.045110E-17	1.893185E-19
3.468208E+03	1.053986E-17	1.908493E-19
3.478005E+03	1.063204E-17	1.924405E-19
3.487802E+03	1.072775E-17	1.940937E-19
3.497600E+03	1.082708E-17	1.958106E-19
3.507397E+03	1.092963E-17	1.975840E-19
3.517194E+03	1.103650E-17	1.994334E-19
3.526991E+03	1.114728E-17	2.013516E-19
3.536788E+03	1.126158E-17	2.033312E-19
3.546586E+03	1.138050E-17	2.053921E-19
3.556383E+03	1.150366E-17	2.075272E-19
3.566180E+03	1.163062E-17	2.097288E-19
3.575977E+03	1.176254E-17	2.120173E-19
3.585774E+03	1.189848E-17	2.143758E-19
3.595572E+03	1.203960E-17	2.168251E-19
3.605369E+03	1.218494E-17	2.193477E-19
3.615166E+03	1.233514E-17	2.219553E-19
3.624963E+03	1.249089E-17	2.246597E-19
3.634760E+03	1.265116E-17	2.274426E-19
3.644558E+03	1.281664E-17	2.303162E-19
3.654355E+03	1.298803E-17	2.332928E-19
3.664152E+03	1.316427E-17	2.363534E-19
3.673949E+03	1.334607E-17	2.395104E-19
3.683746E+03	1.353354E-17	2.427657E-19
3.693544E+03	1.372680E-17	2.461215E-19
3.703341E+03	1.392597E-17	2.495795E-19
3.713138E+03	1.413117E-17	2.531419E-19
3.722935E+03	1.434253E-17	2.568107E-19
3.732732E+03	1.456015E-17	2.605877E-19
3.742530E+03	1.478418E-17	2.644751E-19
3.752327E+03	1.501471E-17	2.684749E-19
3.762124E+03	1.525190E-17	2.725890E-19
3.771921E+03	1.549514E-17	2.768069E-19
3.781718E+03	1.574596E-17	2.811555E-19
3.791516E+03	1.600377E-17	2.856241E-19
3.801313E+03	1.626870E-17	2.902149E-19
3.811110E+03	1.654012E-17	2.949164E-19
3.820907E+03	1.681962E-17	2.997568E-19
3.830704E+03	1.710659E-17	3.047247E-19
3.840502E+03	1.740033E-17	3.098079E-19
3.850299E+03	1.770251E-17	3.150357E-19
3.860096E+03	1.801166E-17	3.203816E-19
3.869893E+03	1.832948E-17	3.258756E-19
3.879690E+03	1.865441E-17	3.314899E-19
3.889488E+03	1.898735E-17	3.372401E-19
3.899285E+03	1.932924E-17	3.431430E-19
3.909082E+03	1.967843E-17	3.491687E-19
3.918879E+03	2.003584E-17	3.553332E-19
3.928676E+03	2.040242E-17	3.616535E-19
3.938474E+03	2.077641E-17	3.680977E-19
3.948271E+03	2.115872E-17	3.746821E-19
3.958068E+03	2.154937E-17	3.814066E-19
3.967865E+03	2.194837E-17	3.882710E-19
3.977662E+03	2.235570E-17	3.952750E-19
3.987460E+03	2.277238E-17	4.024359E-19
3.997257E+03	2.319630E-17	4.097167E-19
4.007054E+03	2.362843E-17	4.171338E-19
4.016851E+03	2.406759E-17	4.246665E-19
4.026648E+03	2.451584E-17	4.323507E-19
4.036446E+03	2.497201E-17	4.401654E-19
4.046243E+03	2.543595E-17	4.481079E-19
4.056040E+03	2.590749E-17	4.561749E-19
4.065837E+03	2.638646E-17	4.643631E-19
4.075634E+03	2.687266E-17	4.726686E-19
4.085432E+03	2.736460E-17	4.810655E-19
4.095229E+03	2.786451E-17	4.895921E-19
4.105026E+03	2.837089E-17	4.982222E-19
4.114823E+03	2.888211E-17	5.069270E-19
4.124620E+03	2.940047E-17	5.157465E-19
4.134418E+03	2.992296E-17	5.246279E-19
4.144215E+03	3.045194E-17	5.336119E-19
4.154012E+03	3.098424E-17	5.426434E-19
4.163809E+03	3.152226E-17	5.517639E-19
4.173606E+03	3.206273E-17	5.609161E-19
4.183404E+03	3.260810E-17	5.701427E-19
4.193201E+03	3.315496E-17	5.793841E-19
4.202998E+03	3.370431E-17	5.886572E-19
4.212795E+03	3.425721E-17	5.979811E-19
4.222592E+03	3.481009E-17	6.072928E-19
4.232390E+03	3.536397E-17	6.166103E-19
4.242187E+03	3.591836E-17	6.259251E-19
4.251984E+03	3.647444E-17	6.352573E-19
4.261781E+03	3.702839E-17	6.445408E-19
4.271578E+03	3.758136E-17	6.537954E-19
4.281376E+03	3.813287E-17	6.630127E-19
4.291173E+03	3.868245E-17	6.721848E-19
4.300970E+03	3.922964E-17	6.813036E-19
4.310767E+03	3.977401E-17	6.903616E-19
4.320564E+03	4.031512E-17	6.993514E-19
4.330362E+03	4.085259E-17	7.082662E-19
4.340159E+03	4.138601E-17	7.170994E-19
4.349956E+03	4.191504E-17	7.258449E-19
4.359753E+03	4.243740E-17	7.344633E-19
4.369550E+03	4.295663E-17	7.430163E-19
4.379348E+03	4.347053E-17	7.514658E-19
4.389145E+03	4.397884E-17	7.598073E-19
4.398942E+03	4.448130E-17	7.680369E-19
4.408739E+03	4.497563E-17	7.761151E-19
4.418536E+03	4.546576E-17	7.841098E-19
4.428333E+03	4.594734E-17	7.919465E-19
4.438131E+03	4.642442E-17	7.996949E-19
4.447928E+03	4.689477E-17	8.073170E-19
4.457725E+03	4.735609E-17	8.147733E-19
4.467522E+03	4.781261E-17	8.221368E-19
4.477319E+03	4.825986E-17	8.293308E-19
4.487117E+03	4.870219E-17	8.364304E-19
4.496914E+03	4.913505E-17	8.433576E-19
4.506711E+03	4.956063E-17	8.501502E-19
4.516508E+03	4.998118E-17	8.568472E-19
4.526305E+03	5.039207E-17	8.633693E-19
4.536103E+03	5.079557E-17	8.697558E-19
4.545900E+03	5.119405E-17	8.760471E-19
4.555697E+03	5.158276E-17	8.821627E-19
4.565494E+03	5.196408E-17	8.881432E-19
4.575291E+03	5.233801E-17	8.939890E-19
4.585089E+03	5.270459E-17	8.997011E-19
4.594886E+03	5.306633E-17	9.053224E-19
4.604683E+03	5.341838E-17	9.107704E-19
4.614480E+03	5.376325E-17	9.160884E-19
4.624277E+03	5.410104E-17	9.212780E-19
4.634075E+03	5.443184E-17	9.263414E-19
4.643872E+03	5.475580E-17	9.312810E-19
4.653669E+03	5.507306E-17	9.360996E-19
4.663466E+03	5.538379E-17	9.408005E-19
4.673263E+03	5.568818E-17	9.453868E-19
4.683061E+03	5.598384E-17	9.498185E-19
4.692858E+03	5.627621E-17	9.541880E-19
4.702655E+03	5.656297E-17	9.584561E-19
4.712452E+03	5.684440E-17	9.626279E-19
4.722249E+03	5.712081E-17	9.667086E-19
4.732047E+03	5.738986E-17	9.706590E-19
4.741844E+03	5.765723E-17	9.745755E-19
4.751641E+03	5.792065E-17	9.784196E-19
4.761438E+03	5.817779E-17	9.821522E-19
4.771235E+03	5.843446E-17	9.858717E-19
4.781033E+03	5.868839E-17	9.895398E-19
4.790830E+03	5.893726E-17	9.931173E-19
4.800627E+03	5.918699E-17	9.967046E-19
4.810424E+03	5.943252E-17	1.000216E-18
4.820221E+03	5.967984E-17	1.003753E-18
4.830019E+03	5.992384E-17	1.007229E-18
4.839816E+03	6.017055E-17	1.010746E-18
4.849613E+03	6.041480E-17	1.014218E-18
4.859410E+03	6.065984E-17	1.017698E-18
4.869207E+03	6.090895E-17	1.021241E-18
4.879005E+03	6.115686E-17	1.024761E-18
4.888802E+03	6.140682E-17	1.028310E-18
4.898599E+03	6.166213E-17	1.031944E-18
4.908396E+03	6.191738E-17	1.035572E-18
4.918193E+03	6.217582E-17	1.039250E-18
4.927991E+03	6.243780E-17	1.042982E-18
4.937788E+03	6.270657E-17	1.046823E-18
4.947585E+03	6.297656E-17	1.050680E-18
4.957382E+03	6.325097E-17	1.054607E-18
4.967179E+03	6.353006E-17	1.058606E-18
4.976977E+03	6.381405E-17	1.062683E-18
4.986774E+03	6.410313E-17	1.066841E-18
4.996571E+03	6.439748E-17	1.071081E-18
5.006368E+03	6.469724E-17	1.075407E-18
5.016165E+03	6.500250E-17	1.079820E-18
5.025963E+03	6.531335E-17	1.084320E-18
5.035760E+03	6.562984E-17	1.088910E-18
5.045557E+03	6.595196E-17	1.093589E-18
5.055354E+03	6.627972E-17	1.098356E-18
5.065151E+03	6.661304E-17	1.103211E-18
5.074949E+03	6.694866E-17	1.108099E-18
5.084746E+03	6.729278E-17	1.113123E-18
5.094543E+03	6.764209E-17	1.118228E-18
5.104340E+03	6.799638E-17	1.123411E-18
5.114137E+03	6.835543E-17	1.128668E-18
5.123935E+03	6.871569E-17	1.133940E-18
5.133732E+03	6.908338E-17	1.139330E-18
5.143529E+03	6.945490E-17	1.144779E-18
5.153326E+03	6.982654E-17	1.150225E-18
5.163123E+03	7.020453E-17	1.155771E-18
5.172921E+03	7.058176E-17	1.161300E-18
5.182718E+03	7.096443E-17	1.166915E-18
5.192515E+03	7.134871E-17	1.172551E-18
5.202312E+03	7.173063E-17	1.178145E-18
5.212109E+03	7.211644E-17	1.183799E-18
5.221907E+03	7.249866E-17	1.189390E-18
5.231704E+03	7.288360E-17	1.195021E-18
5.241501E+03	7.326363E-17	1.200569E-18
5.251298E+03	7.364157E-17	1.206079E-18
5.261095E+03	7.402024E-17	1.211598E-18
5.270893E+03	7.439187E-17	1.216999E-18
5.280690E+03	7.475925E-17	1.222328E-18
5.290487E+03	7.512522E-17	1.227631E-18
5.300284E+03	7.548190E-17	1.232780E-18
5.310081E+03	7.583200E-17	1.237819E-18
5.319879E+03	7.617844E-17	1.242797E-18
5.329676E+03	7.651322E-17	1.247583E-18
5.339473E+03	7.683918E-17	1.252224E-18
5.349270E+03	7.715561E-17	1.256709E-18
5.359067E+03	7.746181E-17	1.261026E-18
5.368865E+03	7.776086E-17	1.265227E-18
5.378662E+03	7.804501E-17	1.269184E-18
5.388459E+03	7.831749E-17	1.272952E-18
5.398256E+03	7.857850E-17	1.276533E-18
5.408053E+03	7.882800E-17	1.279928E-18
5.417850E+03	7.906643E-17	1.283143E-18
5.427648E+03	7.929414E-17	1.286186E-18
5.437445E+03	7.951164E-17	1.289064E-18
5.447242E+03	7.971936E-17	1.291785E-18
5.457039E+03	7.991782E-17	1.294358E-18
5.466836E+03	8.010768E-17	1.296793E-18
5.476634E+03	8.028937E-17	1.299097E-18
5.486431E+03	8.046350E-17	1.301282E-18
5.496228E+03	8.063073E-17	1.303357E-18
5.506025E+03	8.079159E-17	1.305332E-18
5.515822E+03	8.094278E-17	1.307154E-18
5.525620E+03	8.109277E-17	1.308958E-18
5.535417E+03	8.123812E-17	1.310691E-18
5.545214E+03	8.137959E-17	1.312364E-18
5.555011E+03	8.151755E-17	1.313984E-18
5.564808E+03	8.164885E-17	1.315500E-18
5.574606E+03	8.178179E-17	1.317045E-18
5.584403E+03	8.191306E-17	1.318567E-18
5.594200E+03	8.204320E-17	1.320074E-18
5.603997E+03	8.216867E-17	1.321510E-18
5.613794E+03	8.229794E-17	1.323010E-18
5.623592E+03	8.242756E-17	1.324520E-18
5.633389E+03	8.255397E-17	1.325982E-18
5.643186E+03	8.268560E-17	1.327532E-18
5.652983E+03	8.281480E-17	1.329046E-18
5.662780E+03	8.295002E-17	1.330661E-18
5.672578E+03	8.308343E-17	1.332251E-18
5.682375E+03	8.322358E-17	1.333953E-18
5.692172E+03	8.336668E-17	1.335707E-18
5.701969E+03	8.350878E-17	1.337448E-18
5.711766E+03	8.365827E-17	1.339312E-18
5.721564E+03	8.380724E-17	1.341172E-18
5.731361E+03	8.395982E-17	1.343094E-18
5.741158E+03	8.412030E-17	1.345146E-18
5.750955E+03	8.428044E-17	1.347197E-18
5.760752E+03	8.444852E-17	1.349380E-18
5.770550E+03	8.461627E-17	1.351561E-18
5.780347E+03	8.478769E-17	1.353806E-18
5.790144E+03	8.496693E-17	1.356179E-18
5.799941E+03	8.514541E-17	1.358545E-18
5.809738E+03	8.532719E-17	1.360969E-18
5.819536E+03	8.551620E-17	1.363512E-18
5.829333E+03	8.570369E-17	1.366036E-18
5.839130E+03	8.589357E-17	1.368603E-18
5.848927E+03	8.608545E-17	1.371207E-18
5.858724E+03	8.628321E-17	1.373909E-18
5.868522E+03	8.647788E-17	1.376567E-18
5.878319E+03	8.667308E-17	1.379238E-18
5.888116E+03	8.686835E-17	1.381916E-18
5.897913E+03	8.706297E-17	1.384589E-18
5.907710E+03	8.726074E-17	1.387318E-18
5.917508E+03	8.745227E-17	1.389953E-18
5.927305E+03	8.764118E-17	1.392553E-18
5.937102E+03	8.782652E-17	1.395101E-18
5.946899E+03	8.800765E-17	1.397589E-18
5.956696E+03	8.818354E-17	1.400000E-18
5.966494E+03	8.835338E-17	1.402321E-18
5.976291E+03	8.851613E-17	1.404537E-18
5.986088E+03	8.867091E-17	1.406633E-18
5.995885E+03	8.881667E-17	1.408592E-18
6.005682E+03	8.895236E-17	1.410400E-18
6.015480E+03	8.907684E-17	1.412037E-18
6.025277E+03	8.918914E-17	1.413488E-18
6.035074E+03	8.928813E-17	1.414737E-18
6.044871E+03	8.937265E-17	1.415764E-18
6.054668E+03	8.944173E-17	1.416555E-18
6.064466E+03	8.949429E-17	1.417092E-18
6.074263E+03	8.952926E-17	1.417360E-18
6.084060E+03	8.954589E-17	1.417346E-18
6.093857E+03	8.954343E-17	1.417040E-18
6.103654E+03	8.951670E-17	1.416358E-18
6.113452E+03	8.947432E-17	1.415438E-18
6.123249E+03	8.941175E-17	1.414208E-18
6.133046E+03	8.932912E-17	1.412670E-18
6.142843E+03	8.922680E-17	1.410829E-18
6.152640E+03	8.910529E-17	1.408695E-18
6.162438E+03	8.896087E-17	1.406207E-18
6.172235E+03	8.880330E-17	1.403521E-18
6.182032E+03	8.862901E-17	1.400579E-18
6.191829E+03	8.843886E-17	1.397396E-18
6.201626E+03	8.822942E-17	1.393917E-18
6.211424E+03	8.801050E-17	1.390297E-18
6.221221E+03	8.777870E-17	1.386482E-18
6.231018E+03	8.753495E-17	1.382487E-18
6.240815E+03	8.727584E-17	1.378258E-18
6.250612E+03	8.701104E-17	1.373948E-18
6.260410E+03	8.673707E-17	1.369501E-18
6.270207E+03	8.645041E-17	1.364862E-18
6.280004E+03	8.616078E-17	1.360184E-18
6.289801E+03	8.586021E-17	1.355342E-18
6.299598E+03	8.555819E-17	1.350484E-18
6.309396E+03	8.525114E-17	1.345555E-18
6.319193E+03	8.493556E-17	1.340498E-18
6.328990E+03	8.462077E-17	1.335462E-18
6.338787E+03	8.429881E-17	1.330319E-18
6.348584E+03	8.397896E-17	1.325217E-18
6.358382E+03	8.365754E-17	1.320098E-18
6.368179E+03	8.333088E-17	1.314902E-18
6.377976E+03	8.300805E-17	1.309774E-18
6.387773E+03	8.268103E-17	1.304586E-18
6.397570E+03	8.235890E-17	1.299481E-18
6.407367E+03	8.203372E-17	1.294336E-18
6.417165E+03	8.171425E-17	1.289286E-18
6.426962E+03	8.139258E-17	1.284207E-18
6.436759E+03	8.107748E-17	1.279239E-18
6.446556E+03	8.076099E-17	1.274254E-18
6.456353E+03	8.044764E-17	1.269324E-18
6.466151E+03	8.014188E-17	1.264520E-18
6.475948E+03	7.983578E-17	1.259716E-18
6.485745E+03	7.953787E-17	1.255047E-18
6.495542E+03	7.924021E-17	1.250387E-18
6.505339E+03	7.895127E-17	1.245869E-18
6.515137E+03	7.866311E-17	1.241370E-18
6.524934E+03	7.838006E-17	1.236956E-18
6.534731E+03	7.810638E-17	1.232694E-18
6.544528E+03	7.783419E-17	1.228461E-18
6.554325E+03	7.756772E-17	1.224323E-18
6.564123E+03	7.731116E-17	1.220347E-18
6.573920E+03	7.705668E-17	1.216407E-18
6.583717E+03	7.681240E-17	1.212634E-18
6.593514E+03	7.657053E-17	1.208903E-18
6.603311E+03	7.633520E-17	1.205279E-18
6.613109E+03	7.610653E-17	1.201765E-18
6.622906E+03	7.588860E-17	1.198425E-18
6.632703E+03	7.567363E-17	1.195136E-18
6.642500E+03	7.546567E-17	1.191963E-18
6.652297E+03	7.526875E-17	1.188967E-18
6.662095E+03	7.507513E-17	1.186028E-18
6.671892E+03	7.488880E-17	1.183209E-18
6.681689E+03	7.470987E-17	1.180510E-18
6.691486E+03	7.454228E-17	1.177995E-18
6.701283E+03	7.437833E-17	1.175541E-18
6.711081E+03	7.422197E-17	1.173212E-18
6.720878E+03	7.407325E-17	1.171007E-18
6.730675E+03	7.393608E-17	1.168989E-18
6.740472E+03	7.380278E-17	1.167036E-18
6.750269E+03	7.367724E-17	1.165210E-18
6.760067E+03	7.355949E-17	1.163511E-18
6.769864E+03	7.344956E-17	1.161940E-18
6.779661E+03	7.335131E-17	1.160558E-18
6.789458E+03	7.325702E-17	1.159242E-18
6.799255E+03	7.317058E-17	1.158055E-18
6.809053E+03	7.309196E-17	1.156996E-18
6.818850E+03	7.302113E-17	1.156064E-18
6.828647E+03	7.295810E-17	1.155260E-18
6.838444E+03	7.290281E-17	1.154583E-18
6.848241E+03	7.285908E-17	1.154094E-18
6.858039E+03	7.281917E-17	1.153669E-18
6.867836E+03	7.278687E-17	1.153369E-18
6.877633E+03	7.276212E-17	1.153193E-18
6.887430E+03	7.274483E-17	1.153140E-18
6.897227E+03	7.273493E-17	1.153208E-18
6.907025E+03	7.273233E-17	1.153397E-18
6.916822E+03	7.273693E-17	1.153705E-18
6.926619E+03	7.275246E-17	1.154191E-18
6.936416E+03	7.277110E-17	1.154731E-18
6.946213E+03	7.279657E-17	1.155384E-18
6.956011E+03	7.282872E-17	1.156148E-18
6.965808E+03	7.286741E-17	1.157021E-18
6.975605E+03	7.291246E-17	1.158000E-18
6.985402E+03	7.296369E-17	1.159083E-18
6.995199E+03	7.302091E-17	1.160265E-18
7.004997E+03	7.308392E-17	1.161545E-18
7.014794E+03	7.315250E-17	1.162919E-18
7.024591E+03	7.322640E-17	1.164383E-18
7.034388E+03	7.330538E-17	1.165934E-18
7.044185E+03	7.338918E-17	1.167566E-18
7.053983E+03	7.347751E-17	1.169277E-18
7.063780E+03	7.357008E-17	1.171061E-18
7.073577E+03	7.366655E-17	1.172913E-18
7.083374E+03	7.377057E-17	1.174891E-18
7.093171E+03	7.387385E-17	1.176863E-18
7.102969E+03	7.397998E-17	1.178887E-18
7.112766E+03	7.408855E-17	1.180956E-18
7.122563E+03	7.419916E-17	1.183064E-18
7.132360E+03	7.431134E-17	1.185204E-18
7.142157E+03	7.442465E-17	1.187368E-18
7.151955E+03	7.453857E-17	1.189548E-18
7.161752E+03	7.465261E-17	1.191737E-18
7.171549E+03	7.476620E-17	1.193925E-18
7.181346E+03	7.487880E-17	1.196105E-18
7.191143E+03	7.498979E-17	1.198265E-18
7.200941E+03	7.509854E-17	1.200397E-18
7.210738E+03	7.520442E-17	1.202489E-18
7.220535E+03	7.530673E-17	1.204532E-18
7.230332E+03	7.540476E-17	1.206513E-18
7.240129E+03	7.549776E-17	1.208421E-18
7.249927E+03	7.558495E-17	1.210243E-18
7.259724E+03	7.566554E-17	1.211966E-18
7.269521E+03	7.573459E-17	1.213511E-18
7.279318E+03	7.579942E-17	1.214996E-18
7.289115E+03	7.585506E-17	1.216340E-18
7.298913E+03	7.590057E-17	1.217529E-18
7.308710E+03	7.593501E-17	1.218547E-18
7.318507E+03	7.595739E-17	1.219379E-18
7.328304E+03	7.596672E-17	1.220008E-18
7.338101E+03	7.596198E-17	1.220417E-18
7.347899E+03	7.594214E-17	1.220590E-18
7.357696E+03	7.590615E-17	1.220510E-18
7.367493E+03	7.585296E-17	1.220160E-18
7.377290E+03	7.578154E-17	1.219522E-18
7.387087E+03	7.569089E-17	1.218580E-18
7.396884E+03	7.558003E-17	1.217319E-18
7.406682E+03	7.544807E-17	1.215723E-18
7.416479E+03	7.529422E-17	1.213780E-18
7.426276E+03	7.511779E-17	1.211477E-18
7.436073E+03	7.491827E-17	1.208805E-18
7.445870E+03	7.469537E-17	1.205760E-18
7.455668E+03	7.444895E-17	1.202338E-18
7.465465E+03	7.417916E-17	1.198542E-18
7.475262E+03	7.388624E-17	1.194373E-18
7.485059E+03	7.357066E-17	1.189840E-18
7.494856E+03	7.323309E-17	1.184952E-18
7.504654E+03	7.287438E-17	1.179722E-18
7.514451E+03	7.249551E-17	1.174166E-18
7.524248E+03	7.209359E-17	1.168236E-18
7.534045E+03	7.167777E-17	1.162080E-18
7.543842E+03	7.124525E-17	1.155651E-18
7.553640E+03	7.079723E-17	1.148969E-18
7.563437E+03	7.033494E-17	1.142052E-18
7.573234E+03	6.985955E-17	1.134920E-18
7.583031E+03	6.937225E-17	1.127591E-18
7.592828E+03	6.887414E-17	1.120083E-18
7.602626E+03	6.836633E-17	1.112413E-18
