#wls	flux	fluxerr
1.570321E+03	1.646740E-03	0.000000E+00
1.609579E+03	1.724835E-03	0.000000E+00
1.648837E+03	1.810393E-03	0.000000E+00
1.688095E+03	1.904344E-03	0.000000E+00
1.727353E+03	2.007515E-03	0.000000E+00
1.766611E+03	2.121018E-03	0.000000E+00
1.805869E+03	2.245870E-03	0.000000E+00
1.845127E+03	2.383608E-03	0.000000E+00
1.884385E+03	2.535717E-03	0.000000E+00
1.923643E+03	2.703615E-03	0.000000E+00
1.962901E+03	2.889319E-03	0.000000E+00
2.002159E+03	3.094595E-03	0.000000E+00
2.041417E+03	3.321385E-03	0.000000E+00
2.080675E+03	3.572317E-03	0.000000E+00
2.119933E+03	3.849021E-03	0.000000E+00
2.159191E+03	4.153251E-03	0.000000E+00
2.198449E+03	4.486058E-03	0.000000E+00
2.237707E+03	4.846518E-03	0.000000E+00
2.276965E+03	5.240035E-03	0.000000E+00
2.316223E+03	5.673163E-03	0.000000E+00
2.355481E+03	6.152191E-03	0.000000E+00
2.394739E+03	6.683307E-03	0.000000E+00
2.433997E+03	7.273132E-03	0.000000E+00
2.473255E+03	7.928288E-03	0.000000E+00
2.512513E+03	8.654854E-03	0.000000E+00
2.551772E+03	9.459130E-03	0.000000E+00
2.591030E+03	1.034664E-02	0.000000E+00
2.630288E+03	1.132159E-02	0.000000E+00
2.669546E+03	1.238622E-02	0.000000E+00
2.708804E+03	1.354083E-02	0.000000E+00
2.748062E+03	1.478013E-02	0.000000E+00
2.787320E+03	1.609402E-02	0.000000E+00
2.826578E+03	1.746775E-02	0.000000E+00
2.865836E+03	1.888063E-02	0.000000E+00
2.905094E+03	2.030746E-02	0.000000E+00
2.944352E+03	2.171615E-02	0.000000E+00
2.954166E+03	2.206070E-02	0.000000E+00
2.963981E+03	2.240077E-02	0.000000E+00
2.973795E+03	2.273594E-02	0.000000E+00
2.983610E+03	2.306524E-02	0.000000E+00
2.993424E+03	2.338767E-02	0.000000E+00
3.003239E+03	2.370271E-02	0.000000E+00
3.013053E+03	2.400880E-02	0.000000E+00
3.022868E+03	2.430586E-02	0.000000E+00
3.032682E+03	2.459229E-02	0.000000E+00
3.042497E+03	2.486747E-02	0.000000E+00
3.052311E+03	2.513029E-02	0.000000E+00
3.062126E+03	2.538013E-02	0.000000E+00
3.071940E+03	2.561584E-02	0.000000E+00
3.081755E+03	2.583632E-02	0.000000E+00
3.091569E+03	2.604097E-02	0.000000E+00
3.101384E+03	2.622821E-02	0.000000E+00
3.111198E+03	2.639800E-02	0.000000E+00
3.121013E+03	2.654885E-02	0.000000E+00
3.130827E+03	2.668028E-02	0.000000E+00
3.140642E+03	2.679141E-02	0.000000E+00
3.150456E+03	2.688140E-02	0.000000E+00
3.160271E+03	2.694998E-02	0.000000E+00
3.170085E+03	2.699649E-02	0.000000E+00
3.179900E+03	2.701986E-02	0.000000E+00
3.189714E+03	2.702097E-02	0.000000E+00
3.199529E+03	2.699809E-02	0.000000E+00
3.209343E+03	2.695225E-02	0.000000E+00
3.219158E+03	2.688241E-02	0.000000E+00
3.228972E+03	2.678893E-02	0.000000E+00
3.238787E+03	2.667225E-02	0.000000E+00
3.248601E+03	2.653173E-02	0.000000E+00
3.258416E+03	2.636843E-02	0.000000E+00
3.268230E+03	2.618270E-02	0.000000E+00
3.278045E+03	2.597463E-02	0.000000E+00
3.287859E+03	2.574479E-02	0.000000E+00
3.297674E+03	2.549387E-02	0.000000E+00
3.307488E+03	2.522293E-02	0.000000E+00
3.317303E+03	2.493210E-02	0.000000E+00
3.327117E+03	2.462295E-02	0.000000E+00
3.336932E+03	2.429574E-02	0.000000E+00
3.346746E+03	2.395146E-02	0.000000E+00
3.356561E+03	2.359143E-02	0.000000E+00
3.366376E+03	2.321582E-02	0.000000E+00
3.376190E+03	2.282629E-02	0.000000E+00
3.386005E+03	2.242363E-02	0.000000E+00
3.395819E+03	2.200817E-02	0.000000E+00
3.405634E+03	2.158161E-02	0.000000E+00
3.415448E+03	2.114439E-02	0.000000E+00
3.425263E+03	2.069776E-02	0.000000E+00
3.435077E+03	2.024282E-02	0.000000E+00
3.444892E+03	1.978012E-02	0.000000E+00
3.454706E+03	1.931128E-02	0.000000E+00
3.464521E+03	1.883744E-02	0.000000E+00
3.474335E+03	1.836001E-02	0.000000E+00
3.484150E+03	1.788084E-02	0.000000E+00
3.493964E+03	1.740158E-02	0.000000E+00
3.503779E+03	1.692426E-02	0.000000E+00
3.513593E+03	1.645067E-02	0.000000E+00
3.523408E+03	1.598271E-02	0.000000E+00
3.533222E+03	1.552170E-02	0.000000E+00
3.543037E+03	1.506847E-02	0.000000E+00
3.552851E+03	1.462395E-02	0.000000E+00
3.562666E+03	1.418913E-02	0.000000E+00
3.572480E+03	1.376497E-02	0.000000E+00
3.582295E+03	1.335340E-02	0.000000E+00
3.592109E+03	1.295599E-02	0.000000E+00
3.601924E+03	1.257508E-02	0.000000E+00
3.611738E+03	1.221309E-02	0.000000E+00
3.621553E+03	1.187257E-02	0.000000E+00
3.631367E+03	1.155629E-02	0.000000E+00
3.641182E+03	1.126720E-02	0.000000E+00
3.650996E+03	1.100794E-02	0.000000E+00
3.660811E+03	1.078185E-02	0.000000E+00
3.670625E+03	1.059193E-02	0.000000E+00
3.680440E+03	1.044164E-02	0.000000E+00
3.690254E+03	1.033468E-02	0.000000E+00
3.700069E+03	1.027479E-02	0.000000E+00
3.709883E+03	1.026651E-02	0.000000E+00
3.719698E+03	1.031437E-02	0.000000E+00
3.729512E+03	1.042336E-02	0.000000E+00
3.739327E+03	1.059849E-02	0.000000E+00
3.749141E+03	1.084466E-02	0.000000E+00
3.758956E+03	1.116625E-02	0.000000E+00
3.768770E+03	1.156702E-02	0.000000E+00
3.778585E+03	1.204961E-02	0.000000E+00
3.788399E+03	1.261564E-02	0.000000E+00
3.798214E+03	1.326492E-02	0.000000E+00
3.808028E+03	1.399530E-02	0.000000E+00
3.817843E+03	1.480241E-02	0.000000E+00
3.827657E+03	1.567908E-02	0.000000E+00
3.837472E+03	1.661532E-02	0.000000E+00
3.847286E+03	1.759758E-02	0.000000E+00
3.857101E+03	1.860895E-02	0.000000E+00
3.866915E+03	1.962886E-02	0.000000E+00
3.876730E+03	2.063358E-02	0.000000E+00
3.886544E+03	2.159735E-02	0.000000E+00
3.896359E+03	2.249229E-02	0.000000E+00
3.906173E+03	2.329138E-02	0.000000E+00
3.915988E+03	2.396939E-02	0.000000E+00
3.925802E+03	2.450535E-02	0.000000E+00
3.935617E+03	2.488420E-02	0.000000E+00
3.945431E+03	2.509763E-02	0.000000E+00
3.955246E+03	2.514570E-02	0.000000E+00
3.965060E+03	2.503576E-02	0.000000E+00
3.974875E+03	2.478209E-02	0.000000E+00
3.984689E+03	2.440419E-02	0.000000E+00
3.994504E+03	2.392527E-02	0.000000E+00
4.004318E+03	2.337081E-02	0.000000E+00
4.014133E+03	2.276600E-02	0.000000E+00
4.023947E+03	2.213509E-02	0.000000E+00
4.033762E+03	2.149988E-02	0.000000E+00
4.043576E+03	2.087852E-02	0.000000E+00
4.053391E+03	2.028587E-02	0.000000E+00
4.063205E+03	1.973249E-02	0.000000E+00
4.073020E+03	1.922576E-02	0.000000E+00
4.082834E+03	1.876990E-02	0.000000E+00
4.092649E+03	1.836626E-02	0.000000E+00
4.102463E+03	1.801457E-02	0.000000E+00
4.112278E+03	1.771242E-02	0.000000E+00
4.122092E+03	1.745689E-02	0.000000E+00
4.131907E+03	1.724356E-02	0.000000E+00
4.141721E+03	1.706775E-02	0.000000E+00
4.151536E+03	1.692420E-02	0.000000E+00
4.161350E+03	1.680744E-02	0.000000E+00
4.171165E+03	1.671125E-02	0.000000E+00
4.180979E+03	1.662973E-02	0.000000E+00
4.190794E+03	1.655629E-02	0.000000E+00
4.200608E+03	1.648422E-02	0.000000E+00
4.210423E+03	1.640705E-02	0.000000E+00
4.220238E+03	1.631843E-02	0.000000E+00
4.230052E+03	1.621233E-02	0.000000E+00
4.239867E+03	1.608393E-02	0.000000E+00
4.249681E+03	1.592989E-02	0.000000E+00
4.259496E+03	1.574890E-02	0.000000E+00
4.269310E+03	1.554218E-02	0.000000E+00
4.279125E+03	1.531398E-02	0.000000E+00
4.288939E+03	1.507134E-02	0.000000E+00
4.298754E+03	1.482362E-02	0.000000E+00
4.308568E+03	1.458212E-02	0.000000E+00
4.318383E+03	1.435840E-02	0.000000E+00
4.328197E+03	1.416396E-02	0.000000E+00
4.338012E+03	1.400949E-02	0.000000E+00
4.347826E+03	1.390411E-02	0.000000E+00
4.357641E+03	1.385509E-02	0.000000E+00
4.367455E+03	1.386785E-02	0.000000E+00
4.377270E+03	1.394540E-02	0.000000E+00
4.387084E+03	1.408859E-02	0.000000E+00
4.396899E+03	1.429589E-02	0.000000E+00
4.406713E+03	1.456311E-02	0.000000E+00
4.416528E+03	1.488383E-02	0.000000E+00
4.426342E+03	1.524888E-02	0.000000E+00
4.436157E+03	1.564668E-02	0.000000E+00
4.445971E+03	1.606396E-02	0.000000E+00
4.455786E+03	1.648603E-02	0.000000E+00
4.465600E+03	1.689819E-02	0.000000E+00
4.475415E+03	1.728623E-02	0.000000E+00
4.485229E+03	1.763699E-02	0.000000E+00
4.495044E+03	1.793881E-02	0.000000E+00
4.504858E+03	1.818235E-02	0.000000E+00
4.514673E+03	1.836033E-02	0.000000E+00
4.524487E+03	1.846769E-02	0.000000E+00
4.534302E+03	1.850168E-02	0.000000E+00
4.544116E+03	1.846112E-02	0.000000E+00
4.553931E+03	1.834685E-02	0.000000E+00
4.563745E+03	1.816106E-02	0.000000E+00
4.573560E+03	1.790724E-02	0.000000E+00
4.583374E+03	1.758998E-02	0.000000E+00
4.593189E+03	1.721486E-02	0.000000E+00
4.603003E+03	1.678817E-02	0.000000E+00
4.612818E+03	1.631709E-02	0.000000E+00
4.622632E+03	1.580898E-02	0.000000E+00
4.632447E+03	1.527167E-02	0.000000E+00
4.642261E+03	1.471372E-02	0.000000E+00
4.652076E+03	1.414385E-02	0.000000E+00
4.661890E+03	1.357148E-02	0.000000E+00
4.671705E+03	1.300641E-02	0.000000E+00
4.681519E+03	1.245817E-02	0.000000E+00
4.691334E+03	1.193547E-02	0.000000E+00
4.701148E+03	1.144602E-02	0.000000E+00
4.710963E+03	1.099591E-02	0.000000E+00
4.720777E+03	1.058945E-02	0.000000E+00
4.730592E+03	1.022957E-02	0.000000E+00
4.740406E+03	9.917708E-03	0.000000E+00
4.750221E+03	9.654203E-03	0.000000E+00
4.760035E+03	9.438495E-03	0.000000E+00
4.769850E+03	9.269163E-03	0.000000E+00
4.779664E+03	9.144267E-03	0.000000E+00
4.789479E+03	9.060737E-03	0.000000E+00
4.799293E+03	9.014763E-03	0.000000E+00
4.809108E+03	9.001639E-03	0.000000E+00
4.818922E+03	9.015546E-03	0.000000E+00
4.828737E+03	9.049671E-03	0.000000E+00
4.838551E+03	9.096276E-03	0.000000E+00
4.848366E+03	9.147607E-03	0.000000E+00
4.858180E+03	9.196006E-03	0.000000E+00
4.867995E+03	9.235114E-03	0.000000E+00
4.877809E+03	9.260626E-03	0.000000E+00
4.887624E+03	9.271041E-03	0.000000E+00
4.897438E+03	9.267819E-03	0.000000E+00
4.907253E+03	9.255284E-03	0.000000E+00
4.917067E+03	9.239763E-03	0.000000E+00
4.926882E+03	9.228088E-03	0.000000E+00
4.936696E+03	9.226681E-03	0.000000E+00
4.946511E+03	9.241059E-03	0.000000E+00
4.956325E+03	9.274782E-03	0.000000E+00
4.966140E+03	9.330270E-03	0.000000E+00
4.975954E+03	9.408437E-03	0.000000E+00
4.985769E+03	9.508943E-03	0.000000E+00
4.995583E+03	9.631434E-03	0.000000E+00
5.005398E+03	9.775018E-03	0.000000E+00
5.015212E+03	9.939216E-03	0.000000E+00
5.025027E+03	1.012410E-02	0.000000E+00
5.034841E+03	1.032976E-02	0.000000E+00
5.044656E+03	1.055657E-02	0.000000E+00
5.054471E+03	1.080462E-02	0.000000E+00
5.064285E+03	1.107309E-02	0.000000E+00
5.074100E+03	1.136014E-02	0.000000E+00
5.083914E+03	1.166257E-02	0.000000E+00
5.093729E+03	1.197609E-02	0.000000E+00
5.103543E+03	1.229499E-02	0.000000E+00
5.113358E+03	1.261330E-02	0.000000E+00
5.123172E+03	1.292444E-02	0.000000E+00
5.132987E+03	1.322205E-02	0.000000E+00
5.142801E+03	1.350054E-02	0.000000E+00
5.152616E+03	1.375542E-02	0.000000E+00
5.162430E+03	1.398293E-02	0.000000E+00
5.172245E+03	1.418069E-02	0.000000E+00
5.182059E+03	1.434715E-02	0.000000E+00
5.191874E+03	1.448065E-02	0.000000E+00
5.201688E+03	1.458057E-02	0.000000E+00
5.211503E+03	1.464545E-02	0.000000E+00
5.221317E+03	1.467475E-02	0.000000E+00
5.231132E+03	1.466718E-02	0.000000E+00
5.240946E+03	1.462250E-02	0.000000E+00
5.250761E+03	1.454070E-02	0.000000E+00
5.260575E+03	1.442241E-02	0.000000E+00
5.270390E+03	1.426962E-02	0.000000E+00
5.280204E+03	1.408468E-02	0.000000E+00
5.290019E+03	1.387189E-02	0.000000E+00
5.299833E+03	1.363588E-02	0.000000E+00
5.309648E+03	1.338209E-02	0.000000E+00
5.319462E+03	1.311639E-02	0.000000E+00
5.329277E+03	1.284470E-02	0.000000E+00
5.339091E+03	1.257263E-02	0.000000E+00
5.348906E+03	1.230557E-02	0.000000E+00
5.358720E+03	1.204833E-02	0.000000E+00
5.368535E+03	1.180506E-02	0.000000E+00
5.378349E+03	1.157914E-02	0.000000E+00
5.388164E+03	1.137332E-02	0.000000E+00
5.397978E+03	1.118859E-02	0.000000E+00
5.407793E+03	1.102133E-02	0.000000E+00
5.417607E+03	1.086744E-02	0.000000E+00
5.427422E+03	1.072335E-02	0.000000E+00
5.437236E+03	1.058638E-02	0.000000E+00
5.447051E+03	1.045422E-02	0.000000E+00
5.456865E+03	1.032564E-02	0.000000E+00
5.466680E+03	1.019967E-02	0.000000E+00
5.476494E+03	1.007616E-02	0.000000E+00
5.486309E+03	9.955472E-03	0.000000E+00
5.496123E+03	9.837976E-03	0.000000E+00
5.505938E+03	9.724505E-03	0.000000E+00
5.515752E+03	9.615858E-03	0.000000E+00
5.525567E+03	9.512629E-03	0.000000E+00
5.535381E+03	9.415338E-03	0.000000E+00
5.545196E+03	9.324304E-03	0.000000E+00
5.555010E+03	9.239451E-03	0.000000E+00
5.564825E+03	9.160273E-03	0.000000E+00
5.574639E+03	9.086153E-03	0.000000E+00
5.584454E+03	9.016260E-03	0.000000E+00
5.594268E+03	8.949360E-03	0.000000E+00
5.604083E+03	8.884511E-03	0.000000E+00
5.613897E+03	8.820916E-03	0.000000E+00
5.623712E+03	8.757965E-03	0.000000E+00
5.633526E+03	8.695465E-03	0.000000E+00
5.643341E+03	8.633721E-03	0.000000E+00
5.653155E+03	8.573604E-03	0.000000E+00
5.662970E+03	8.516675E-03	0.000000E+00
5.672784E+03	8.464901E-03	0.000000E+00
5.682599E+03	8.421054E-03	0.000000E+00
5.692413E+03	8.388065E-03	0.000000E+00
5.702228E+03	8.369267E-03	0.000000E+00
5.712042E+03	8.368193E-03	0.000000E+00
5.721857E+03	8.387712E-03	0.000000E+00
5.731671E+03	8.430291E-03	0.000000E+00
5.741486E+03	8.497218E-03	0.000000E+00
5.751300E+03	8.587982E-03	0.000000E+00
5.761115E+03	8.700253E-03	0.000000E+00
5.770929E+03	8.829362E-03	0.000000E+00
5.780744E+03	8.968844E-03	0.000000E+00
5.790558E+03	9.110190E-03	0.000000E+00
5.800373E+03	9.243900E-03	0.000000E+00
5.810187E+03	9.360398E-03	0.000000E+00
5.820002E+03	9.450746E-03	0.000000E+00
5.829816E+03	9.508070E-03	0.000000E+00
5.839631E+03	9.527914E-03	0.000000E+00
5.849445E+03	9.509067E-03	0.000000E+00
5.859260E+03	9.453115E-03	0.000000E+00
5.869074E+03	9.364077E-03	0.000000E+00
5.878889E+03	9.247565E-03	0.000000E+00
5.888704E+03	9.110328E-03	0.000000E+00
5.898518E+03	8.959220E-03	0.000000E+00
5.908333E+03	8.800621E-03	0.000000E+00
5.918147E+03	8.640359E-03	0.000000E+00
5.927962E+03	8.483021E-03	0.000000E+00
5.937776E+03	8.332044E-03	0.000000E+00
5.947591E+03	8.190005E-03	0.000000E+00
5.957405E+03	8.057986E-03	0.000000E+00
5.967220E+03	7.936367E-03	0.000000E+00
5.977034E+03	7.824408E-03	0.000000E+00
5.986849E+03	7.720971E-03	0.000000E+00
5.996663E+03	7.624283E-03	0.000000E+00
6.006478E+03	7.532348E-03	0.000000E+00
6.016292E+03	7.443116E-03	0.000000E+00
6.026107E+03	7.354500E-03	0.000000E+00
6.035921E+03	7.264686E-03	0.000000E+00
6.045736E+03	7.172162E-03	0.000000E+00
6.055550E+03	7.075731E-03	0.000000E+00
6.065365E+03	6.974567E-03	0.000000E+00
6.075179E+03	6.868134E-03	0.000000E+00
6.084994E+03	6.756475E-03	0.000000E+00
6.094808E+03	6.639963E-03	0.000000E+00
6.104623E+03	6.519404E-03	0.000000E+00
6.114437E+03	6.396112E-03	0.000000E+00
6.124252E+03	6.271807E-03	0.000000E+00
6.134066E+03	6.148564E-03	0.000000E+00
6.143881E+03	6.028754E-03	0.000000E+00
6.153695E+03	5.914979E-03	0.000000E+00
6.163510E+03	5.810064E-03	0.000000E+00
6.173324E+03	5.716660E-03	0.000000E+00
6.183139E+03	5.637798E-03	0.000000E+00
6.192953E+03	5.576022E-03	0.000000E+00
6.202768E+03	5.533931E-03	0.000000E+00
6.212582E+03	5.513787E-03	0.000000E+00
6.222397E+03	5.517509E-03	0.000000E+00
6.232211E+03	5.546519E-03	0.000000E+00
6.242026E+03	5.601813E-03	0.000000E+00
6.251840E+03	5.683811E-03	0.000000E+00
6.261655E+03	5.792181E-03	0.000000E+00
6.271469E+03	5.925815E-03	0.000000E+00
6.281284E+03	6.082836E-03	0.000000E+00
6.291098E+03	6.260182E-03	0.000000E+00
6.300913E+03	6.454054E-03	0.000000E+00
6.310727E+03	6.659747E-03	0.000000E+00
6.320542E+03	6.871856E-03	0.000000E+00
6.330356E+03	7.085002E-03	0.000000E+00
6.340171E+03	7.293615E-03	0.000000E+00
6.349985E+03	7.492984E-03	0.000000E+00
6.359800E+03	7.679133E-03	0.000000E+00
6.369614E+03	7.849020E-03	0.000000E+00
6.379429E+03	8.000787E-03	0.000000E+00
6.389243E+03	8.133623E-03	0.000000E+00
6.399058E+03	8.247544E-03	0.000000E+00
6.408872E+03	8.343165E-03	0.000000E+00
6.418687E+03	8.421581E-03	0.000000E+00
6.428501E+03	8.483769E-03	0.000000E+00
6.438316E+03	8.530658E-03	0.000000E+00
6.448130E+03	8.563516E-03	0.000000E+00
6.457945E+03	8.582965E-03	0.000000E+00
6.467759E+03	8.590075E-03	0.000000E+00
6.477574E+03	8.585869E-03	0.000000E+00
6.487388E+03	8.571622E-03	0.000000E+00
6.497203E+03	8.548923E-03	0.000000E+00
6.507017E+03	8.519509E-03	0.000000E+00
6.516832E+03	8.485633E-03	0.000000E+00
6.526646E+03	8.449318E-03	0.000000E+00
6.536461E+03	8.412712E-03	0.000000E+00
6.546275E+03	8.377290E-03	0.000000E+00
6.556090E+03	8.344086E-03	0.000000E+00
6.565904E+03	8.313557E-03	0.000000E+00
6.575719E+03	8.285259E-03	0.000000E+00
6.585533E+03	8.257813E-03	0.000000E+00
6.595348E+03	8.229847E-03	0.000000E+00
6.605162E+03	8.199124E-03	0.000000E+00
6.614977E+03	8.163876E-03	0.000000E+00
6.624791E+03	8.122052E-03	0.000000E+00
6.634606E+03	8.071927E-03	0.000000E+00
6.644420E+03	8.012628E-03	0.000000E+00
6.654235E+03	7.943255E-03	0.000000E+00
6.664049E+03	7.863834E-03	0.000000E+00
6.673864E+03	7.774712E-03	0.000000E+00
6.683678E+03	7.676653E-03	0.000000E+00
6.693493E+03	7.570597E-03	0.000000E+00
6.703307E+03	7.457951E-03	0.000000E+00
6.713122E+03	7.339998E-03	0.000000E+00
6.722937E+03	7.218282E-03	0.000000E+00
6.732751E+03	7.094079E-03	0.000000E+00
6.742566E+03	6.968718E-03	0.000000E+00
6.752380E+03	6.843586E-03	0.000000E+00
6.762195E+03	6.719617E-03	0.000000E+00
6.772009E+03	6.598189E-03	0.000000E+00
6.781824E+03	6.480241E-03	0.000000E+00
6.791638E+03	6.366780E-03	0.000000E+00
6.801453E+03	6.258754E-03	0.000000E+00
6.811267E+03	6.157051E-03	0.000000E+00
6.821082E+03	6.062384E-03	0.000000E+00
6.830896E+03	5.975640E-03	0.000000E+00
6.840711E+03	5.897524E-03	0.000000E+00
6.850525E+03	5.828665E-03	0.000000E+00
6.860340E+03	5.769359E-03	0.000000E+00
6.870154E+03	5.720314E-03	0.000000E+00
6.879969E+03	5.681356E-03	0.000000E+00
6.889783E+03	5.652593E-03	0.000000E+00
6.899598E+03	5.633464E-03	0.000000E+00
6.909412E+03	5.623139E-03	0.000000E+00
6.919227E+03	5.620399E-03	0.000000E+00
6.929041E+03	5.623662E-03	0.000000E+00
6.938856E+03	5.630936E-03	0.000000E+00
6.948670E+03	5.640242E-03	0.000000E+00
6.958485E+03	5.649409E-03	0.000000E+00
6.968299E+03	5.656201E-03	0.000000E+00
6.978114E+03	5.658777E-03	0.000000E+00
6.987928E+03	5.655358E-03	0.000000E+00
6.997743E+03	5.644661E-03	0.000000E+00
7.007557E+03	5.625853E-03	0.000000E+00
7.017372E+03	5.598708E-03	0.000000E+00
7.027186E+03	5.563148E-03	0.000000E+00
7.037001E+03	5.519782E-03	0.000000E+00
7.046815E+03	5.469844E-03	0.000000E+00
7.056630E+03	5.414415E-03	0.000000E+00
7.066444E+03	5.355012E-03	0.000000E+00
7.076259E+03	5.293362E-03	0.000000E+00
7.086073E+03	5.230959E-03	0.000000E+00
7.095888E+03	5.169296E-03	0.000000E+00
7.105702E+03	5.109671E-03	0.000000E+00
7.115517E+03	5.053107E-03	0.000000E+00
7.125331E+03	5.000426E-03	0.000000E+00
7.135146E+03	4.951793E-03	0.000000E+00
7.144960E+03	4.907472E-03	0.000000E+00
7.154775E+03	4.867106E-03	0.000000E+00
7.164589E+03	4.830184E-03	0.000000E+00
7.174404E+03	4.796111E-03	0.000000E+00
7.184218E+03	4.763958E-03	0.000000E+00
7.194033E+03	4.732981E-03	0.000000E+00
7.203847E+03	4.702387E-03	0.000000E+00
7.213662E+03	4.671622E-03	0.000000E+00
7.223476E+03	4.640222E-03	0.000000E+00
7.233291E+03	4.608054E-03	0.000000E+00
7.243105E+03	4.575013E-03	0.000000E+00
7.252920E+03	4.541618E-03	0.000000E+00
7.262734E+03	4.508243E-03	0.000000E+00
7.272549E+03	4.475281E-03	0.000000E+00
7.282363E+03	4.443602E-03	0.000000E+00
7.292178E+03	4.413672E-03	0.000000E+00
7.301992E+03	4.386122E-03	0.000000E+00
7.311807E+03	4.361299E-03	0.000000E+00
7.321621E+03	4.339648E-03	0.000000E+00
7.331436E+03	4.321085E-03	0.000000E+00
7.341250E+03	4.305917E-03	0.000000E+00
7.351065E+03	4.293826E-03	0.000000E+00
7.360879E+03	4.284792E-03	0.000000E+00
7.370694E+03	4.278487E-03	0.000000E+00
7.380508E+03	4.274497E-03	0.000000E+00
7.390323E+03	4.272551E-03	0.000000E+00
7.400137E+03	4.271930E-03	0.000000E+00
7.409952E+03	4.272448E-03	0.000000E+00
7.419766E+03	4.273669E-03	0.000000E+00
7.429581E+03	4.275355E-03	0.000000E+00
7.439395E+03	4.277270E-03	0.000000E+00
7.449210E+03	4.279479E-03	0.000000E+00
7.459024E+03	4.281879E-03	0.000000E+00
7.468839E+03	4.284483E-03	0.000000E+00
7.478653E+03	4.287388E-03	0.000000E+00
7.488468E+03	4.290445E-03	0.000000E+00
7.498282E+03	4.293691E-03	0.000000E+00
7.508097E+03	4.296824E-03	0.000000E+00
7.517911E+03	4.299983E-03	0.000000E+00
7.527726E+03	4.303006E-03	0.000000E+00
7.537540E+03	4.305999E-03	0.000000E+00
7.547355E+03	4.308890E-03	0.000000E+00
7.557169E+03	4.311764E-03	0.000000E+00
7.566984E+03	4.314739E-03	0.000000E+00
7.576799E+03	4.318175E-03	0.000000E+00
7.586613E+03	4.321869E-03	0.000000E+00
7.596428E+03	4.326269E-03	0.000000E+00
7.606242E+03	4.331230E-03	0.000000E+00
7.616057E+03	4.336895E-03	0.000000E+00
