#wls	flux	fluxerr
1.570321E+03	6.787719E-03	1.885818E-07
1.609579E+03	6.913188E-03	1.920677E-07
1.648837E+03	7.049074E-03	1.958430E-07
1.688095E+03	7.197591E-03	1.999692E-07
1.727353E+03	7.359759E-03	2.044747E-07
1.766611E+03	7.536685E-03	2.093902E-07
1.805869E+03	7.731113E-03	2.147919E-07
1.845127E+03	7.941447E-03	2.206356E-07
1.884385E+03	8.173848E-03	2.270923E-07
1.923643E+03	8.428656E-03	2.341716E-07
1.962901E+03	8.707931E-03	2.419306E-07
2.002159E+03	9.013977E-03	2.504334E-07
2.041417E+03	9.351169E-03	2.598015E-07
2.080675E+03	9.722574E-03	2.701202E-07
2.119933E+03	1.013166E-02	2.814857E-07
2.159191E+03	1.058233E-02	2.940065E-07
2.198449E+03	1.108103E-02	3.078617E-07
2.237707E+03	1.163083E-02	3.231367E-07
2.276965E+03	1.224184E-02	3.401123E-07
2.316223E+03	1.291631E-02	3.588509E-07
2.355481E+03	1.366639E-02	3.796902E-07
2.394739E+03	1.449838E-02	4.028053E-07
2.433997E+03	1.542740E-02	4.286160E-07
2.473255E+03	1.645960E-02	4.572933E-07
2.512513E+03	1.761351E-02	4.893519E-07
2.551772E+03	1.890431E-02	5.252140E-07
2.591030E+03	2.034924E-02	5.653582E-07
2.630288E+03	2.197139E-02	6.104259E-07
2.669546E+03	2.379346E-02	6.610479E-07
2.708804E+03	2.584913E-02	7.181601E-07
2.748062E+03	2.816880E-02	7.826069E-07
2.787320E+03	3.079117E-02	8.554633E-07
2.826578E+03	3.376501E-02	9.380846E-07
2.865836E+03	3.713554E-02	1.031727E-06
2.905094E+03	4.096937E-02	1.138241E-06
2.944352E+03	4.532990E-02	1.259389E-06
2.954166E+03	4.651634E-02	1.292351E-06
2.963981E+03	4.774040E-02	1.326359E-06
2.973795E+03	4.900304E-02	1.361438E-06
2.983610E+03	5.030521E-02	1.397616E-06
2.993424E+03	5.165454E-02	1.435104E-06
3.003239E+03	5.304545E-02	1.473748E-06
3.013053E+03	5.448574E-02	1.513763E-06
3.022868E+03	5.596943E-02	1.554984E-06
3.032682E+03	5.750434E-02	1.597628E-06
3.042497E+03	5.909127E-02	1.641717E-06
3.052311E+03	6.072319E-02	1.687056E-06
3.062126E+03	6.240736E-02	1.733847E-06
3.071940E+03	6.414314E-02	1.782071E-06
3.081755E+03	6.592098E-02	1.831465E-06
3.091569E+03	6.775359E-02	1.882379E-06
3.101384E+03	6.962827E-02	1.934463E-06
3.111198E+03	7.152924E-02	1.987277E-06
3.121013E+03	7.346251E-02	2.040988E-06
3.130827E+03	7.540546E-02	2.094969E-06
3.140642E+03	7.734804E-02	2.148939E-06
3.150456E+03	7.924986E-02	2.201777E-06
3.160271E+03	8.110121E-02	2.253212E-06
3.170085E+03	8.287216E-02	2.302414E-06
3.179900E+03	8.452218E-02	2.348256E-06
3.189714E+03	8.602976E-02	2.390140E-06
3.199529E+03	8.735919E-02	2.427075E-06
3.209343E+03	8.849963E-02	2.458760E-06
3.219158E+03	8.944967E-02	2.485154E-06
3.228972E+03	9.019039E-02	2.505733E-06
3.238787E+03	9.074194E-02	2.521057E-06
3.248601E+03	9.112537E-02	2.531710E-06
3.258416E+03	9.137902E-02	2.538756E-06
3.268230E+03	9.152856E-02	2.542911E-06
3.278045E+03	9.162106E-02	2.545481E-06
3.287859E+03	9.168602E-02	2.547285E-06
3.297674E+03	9.176058E-02	2.549357E-06
3.307488E+03	9.189646E-02	2.553132E-06
3.317303E+03	9.210700E-02	2.558981E-06
3.327117E+03	9.243589E-02	2.568118E-06
3.336932E+03	9.288833E-02	2.580688E-06
3.346746E+03	9.349789E-02	2.597623E-06
3.356561E+03	9.426649E-02	2.618977E-06
3.366376E+03	9.520452E-02	2.645038E-06
3.376190E+03	9.629581E-02	2.675357E-06
3.386005E+03	9.752805E-02	2.709592E-06
3.395819E+03	9.886690E-02	2.746789E-06
3.405634E+03	1.002634E-01	2.785588E-06
3.415448E+03	1.016560E-01	2.824276E-06
3.425263E+03	1.029816E-01	2.861106E-06
3.435077E+03	1.041505E-01	2.893580E-06
3.444892E+03	1.051189E-01	2.920484E-06
3.454706E+03	1.058184E-01	2.939920E-06
3.464521E+03	1.062300E-01	2.951355E-06
3.474335E+03	1.063572E-01	2.954888E-06
3.484150E+03	1.062363E-01	2.951528E-06
3.493964E+03	1.059347E-01	2.943148E-06
3.503779E+03	1.055487E-01	2.932427E-06
3.513593E+03	1.051763E-01	2.922080E-06
3.523408E+03	1.049036E-01	2.914502E-06
3.533222E+03	1.048025E-01	2.911693E-06
3.543037E+03	1.048570E-01	2.913207E-06
3.552851E+03	1.050557E-01	2.918727E-06
3.562666E+03	1.053567E-01	2.927089E-06
3.572480E+03	1.057283E-01	2.937415E-06
3.582295E+03	1.061350E-01	2.948715E-06
3.592109E+03	1.065469E-01	2.960156E-06
3.601924E+03	1.069348E-01	2.970932E-06
3.611738E+03	1.072999E-01	2.981078E-06
3.621553E+03	1.076088E-01	2.989659E-06
3.631367E+03	1.078625E-01	2.996706E-06
3.641182E+03	1.080246E-01	3.001210E-06
3.650996E+03	1.080643E-01	3.002312E-06
3.660811E+03	1.079339E-01	2.998690E-06
3.670625E+03	1.075568E-01	2.988214E-06
3.680440E+03	1.068506E-01	2.968593E-06
3.690254E+03	1.057408E-01	2.937760E-06
3.700069E+03	1.041424E-01	2.893352E-06
3.709883E+03	1.020183E-01	2.834340E-06
3.719698E+03	9.937664E-02	2.760946E-06
3.729512E+03	9.628951E-02	2.675177E-06
3.739327E+03	9.288314E-02	2.580539E-06
3.749141E+03	8.932916E-02	2.481800E-06
3.758956E+03	8.583665E-02	2.384769E-06
3.768770E+03	8.261435E-02	2.295245E-06
3.778585E+03	7.985216E-02	2.218504E-06
3.788399E+03	7.770809E-02	2.158935E-06
3.798214E+03	7.630899E-02	2.120065E-06
3.808028E+03	7.574667E-02	2.104442E-06
3.817843E+03	7.608101E-02	2.113731E-06
3.825763E+03	4.894106E-02	1.359711E-06
3.827206E+03	5.091231E-02	1.414478E-06
3.828649E+03	5.280842E-02	1.467157E-06
3.830091E+03	5.366783E-02	1.491033E-06
3.831534E+03	5.476035E-02	1.521386E-06
3.832977E+03	5.469538E-02	1.519581E-06
3.834419E+03	5.537280E-02	1.538402E-06
3.835862E+03	5.653253E-02	1.570622E-06
3.837305E+03	5.779885E-02	1.605804E-06
3.838748E+03	5.820527E-02	1.617095E-06
3.840190E+03	5.809016E-02	1.613897E-06
3.841633E+03	5.857477E-02	1.627361E-06
3.843076E+03	5.958777E-02	1.655505E-06
3.844519E+03	6.015933E-02	1.671384E-06
3.845961E+03	6.135526E-02	1.704610E-06
3.847404E+03	6.256520E-02	1.738226E-06
3.848847E+03	6.338893E-02	1.761111E-06
3.850290E+03	6.417159E-02	1.782855E-06
3.851732E+03	6.536139E-02	1.815911E-06
3.853175E+03	6.640515E-02	1.844909E-06
3.854618E+03	6.668230E-02	1.852609E-06
3.856060E+03	6.775774E-02	1.882488E-06
3.857503E+03	6.880809E-02	1.911669E-06
3.858946E+03	6.897111E-02	1.916199E-06
3.860389E+03	7.007093E-02	1.946754E-06
3.861831E+03	7.204689E-02	2.001652E-06
3.863274E+03	7.358876E-02	2.044489E-06
3.864717E+03	7.528496E-02	2.091614E-06
3.866160E+03	7.661305E-02	2.128511E-06
3.867602E+03	7.775074E-02	2.160120E-06
3.869045E+03	7.933949E-02	2.204259E-06
3.870488E+03	8.052465E-02	2.237186E-06
3.871931E+03	8.155332E-02	2.265765E-06
3.873373E+03	8.306130E-02	2.307661E-06
3.874816E+03	8.413218E-02	2.337412E-06
3.876259E+03	8.453504E-02	2.348605E-06
3.877701E+03	8.583811E-02	2.384808E-06
3.879144E+03	8.795951E-02	2.443746E-06
3.880587E+03	8.987993E-02	2.497100E-06
3.882030E+03	9.212305E-02	2.559420E-06
3.883472E+03	9.423967E-02	2.618225E-06
3.884915E+03	9.570102E-02	2.658825E-06
3.886358E+03	9.699872E-02	2.694879E-06
3.887801E+03	9.832988E-02	2.731862E-06
3.889243E+03	1.003973E-01	2.789300E-06
3.890686E+03	1.025175E-01	2.848204E-06
3.892129E+03	1.037004E-01	2.881069E-06
3.893571E+03	1.050375E-01	2.918217E-06
3.895014E+03	1.065447E-01	2.960090E-06
3.896457E+03	1.084222E-01	3.012251E-06
3.897900E+03	1.095811E-01	3.044449E-06
3.899342E+03	1.115271E-01	3.098514E-06
3.900785E+03	1.136217E-01	3.156707E-06
3.902228E+03	1.147637E-01	3.188435E-06
3.903671E+03	1.161430E-01	3.226757E-06
3.905113E+03	1.178040E-01	3.272904E-06
3.906556E+03	1.193759E-01	3.316576E-06
3.907999E+03	1.210256E-01	3.362408E-06
3.909442E+03	1.226412E-01	3.407295E-06
3.910884E+03	1.236682E-01	3.435825E-06
3.912327E+03	1.253789E-01	3.483354E-06
3.913770E+03	1.260262E-01	3.501337E-06
3.915212E+03	1.271180E-01	3.531670E-06
3.916655E+03	1.284133E-01	3.567657E-06
3.918098E+03	1.291167E-01	3.587199E-06
3.919541E+03	1.293630E-01	3.594042E-06
3.920983E+03	1.301086E-01	3.614757E-06
3.922426E+03	1.309868E-01	3.639156E-06
3.923869E+03	1.318861E-01	3.664142E-06
3.925312E+03	1.330703E-01	3.697040E-06
3.926754E+03	1.342842E-01	3.730767E-06
3.928197E+03	1.358112E-01	3.773189E-06
3.929640E+03	1.367821E-01	3.800163E-06
3.931083E+03	1.372112E-01	3.812087E-06
3.932525E+03	1.379092E-01	3.831479E-06
3.933968E+03	1.385522E-01	3.849343E-06
3.935411E+03	1.387509E-01	3.854864E-06
3.936853E+03	1.391849E-01	3.866920E-06
3.938296E+03	1.401972E-01	3.895044E-06
3.939739E+03	1.408554E-01	3.913332E-06
3.941182E+03	1.411192E-01	3.920659E-06
3.942624E+03	1.413085E-01	3.925920E-06
3.944067E+03	1.419151E-01	3.942773E-06
3.945510E+03	1.434268E-01	3.984770E-06
3.946953E+03	1.443193E-01	4.009566E-06
3.948395E+03	1.445258E-01	4.015303E-06
3.949838E+03	1.444636E-01	4.013575E-06
3.951281E+03	1.450463E-01	4.029766E-06
3.952724E+03	1.456538E-01	4.046642E-06
3.954166E+03	1.459394E-01	4.054577E-06
3.955609E+03	1.457673E-01	4.049797E-06
3.957052E+03	1.458797E-01	4.052918E-06
3.958494E+03	1.465502E-01	4.071546E-06
3.959937E+03	1.469909E-01	4.083790E-06
3.961380E+03	1.471242E-01	4.087494E-06
3.962823E+03	1.478259E-01	4.106991E-06
3.964265E+03	1.488118E-01	4.134381E-06
3.965708E+03	1.498257E-01	4.162550E-06
3.967151E+03	1.507123E-01	4.187181E-06
3.968594E+03	1.514503E-01	4.207685E-06
3.970036E+03	1.521547E-01	4.227254E-06
3.971479E+03	1.529912E-01	4.250494E-06
3.972922E+03	1.539722E-01	4.277748E-06
3.974365E+03	1.543618E-01	4.288573E-06
3.975807E+03	1.544743E-01	4.291700E-06
3.977250E+03	1.551178E-01	4.309577E-06
3.978693E+03	1.561791E-01	4.339062E-06
3.980135E+03	1.564659E-01	4.347031E-06
3.981578E+03	1.568725E-01	4.358328E-06
3.983021E+03	1.574623E-01	4.374714E-06
3.984464E+03	1.570665E-01	4.363717E-06
3.985906E+03	1.565437E-01	4.349193E-06
3.987349E+03	1.564970E-01	4.347895E-06
3.988792E+03	1.567657E-01	4.355360E-06
3.990235E+03	1.566677E-01	4.352638E-06
3.991677E+03	1.565733E-01	4.350014E-06
3.993120E+03	1.569386E-01	4.360164E-06
3.994563E+03	1.566521E-01	4.352202E-06
3.996005E+03	1.563179E-01	4.342918E-06
3.997448E+03	1.566038E-01	4.350860E-06
3.998891E+03	1.564881E-01	4.347646E-06
4.000334E+03	1.555763E-01	4.322315E-06
4.001776E+03	1.545397E-01	4.293515E-06
4.003219E+03	1.538273E-01	4.273721E-06
4.004662E+03	1.535550E-01	4.266158E-06
4.006105E+03	1.533620E-01	4.260795E-06
4.007547E+03	1.535561E-01	4.266189E-06
4.008990E+03	1.533842E-01	4.261412E-06
4.010433E+03	1.529588E-01	4.249593E-06
4.011876E+03	1.529611E-01	4.249656E-06
4.013318E+03	1.524953E-01	4.236716E-06
4.014761E+03	1.520208E-01	4.223533E-06
4.016204E+03	1.518964E-01	4.220077E-06
4.017646E+03	1.511933E-01	4.200544E-06
4.019089E+03	1.505414E-01	4.182432E-06
4.020532E+03	1.501727E-01	4.172188E-06
4.021975E+03	1.495684E-01	4.155400E-06
4.023417E+03	1.492526E-01	4.146624E-06
4.024860E+03	1.489120E-01	4.137163E-06
4.026303E+03	1.484064E-01	4.123115E-06
4.027746E+03	1.475037E-01	4.098036E-06
4.029188E+03	1.471406E-01	4.087948E-06
4.030631E+03	1.468250E-01	4.079179E-06
4.032074E+03	1.460157E-01	4.056696E-06
4.033517E+03	1.455614E-01	4.044074E-06
4.034959E+03	1.455216E-01	4.042969E-06
4.036402E+03	1.451552E-01	4.032789E-06
4.037845E+03	1.439513E-01	3.999341E-06
4.039287E+03	1.427986E-01	3.967316E-06
4.040730E+03	1.423833E-01	3.955779E-06
4.042173E+03	1.416978E-01	3.936734E-06
4.043616E+03	1.411616E-01	3.921837E-06
4.045058E+03	1.403921E-01	3.900458E-06
4.046501E+03	1.400105E-01	3.889856E-06
4.047944E+03	1.391343E-01	3.865511E-06
4.049387E+03	1.382933E-01	3.842146E-06
4.050829E+03	1.379645E-01	3.833011E-06
4.052272E+03	1.373710E-01	3.816523E-06
4.053715E+03	1.366917E-01	3.797649E-06
4.055158E+03	1.358617E-01	3.774590E-06
4.056600E+03	1.347321E-01	3.743208E-06
4.058043E+03	1.338990E-01	3.720061E-06
4.059486E+03	1.331904E-01	3.700376E-06
4.060928E+03	1.324382E-01	3.679476E-06
4.062371E+03	1.315512E-01	3.654834E-06
4.063814E+03	1.307450E-01	3.632435E-06
4.065257E+03	1.297042E-01	3.603518E-06
4.066699E+03	1.287389E-01	3.576701E-06
4.068142E+03	1.284236E-01	3.567939E-06
4.069585E+03	1.282081E-01	3.561953E-06
4.071028E+03	1.278245E-01	3.551296E-06
4.072470E+03	1.272117E-01	3.534271E-06
4.073913E+03	1.267600E-01	3.521722E-06
4.075356E+03	1.257676E-01	3.494149E-06
4.076799E+03	1.245356E-01	3.459922E-06
4.078241E+03	1.235558E-01	3.432701E-06
4.079684E+03	1.228300E-01	3.412535E-06
4.081127E+03	1.226081E-01	3.406371E-06
4.082569E+03	1.221904E-01	3.394765E-06
4.084012E+03	1.220577E-01	3.391080E-06
4.085455E+03	1.221489E-01	3.393613E-06
4.086898E+03	1.218869E-01	3.386333E-06
4.088340E+03	1.214255E-01	3.373516E-06
4.089783E+03	1.211495E-01	3.365848E-06
4.091226E+03	1.212040E-01	3.367361E-06
4.092669E+03	1.212915E-01	3.369793E-06
4.094111E+03	1.206434E-01	3.351786E-06
4.095554E+03	1.204077E-01	3.345237E-06
4.096997E+03	1.202227E-01	3.340098E-06
4.098439E+03	1.199486E-01	3.332483E-06
4.099882E+03	1.198981E-01	3.331080E-06
4.101325E+03	1.196817E-01	3.325068E-06
4.102768E+03	1.190235E-01	3.306781E-06
4.104210E+03	1.189050E-01	3.303489E-06
4.105653E+03	1.188947E-01	3.303202E-06
4.107096E+03	1.186783E-01	3.297190E-06
4.108539E+03	1.187639E-01	3.299568E-06
4.109981E+03	1.189576E-01	3.304950E-06
4.111424E+03	1.187727E-01	3.299812E-06
4.112867E+03	1.187115E-01	3.298114E-06
4.114310E+03	1.187167E-01	3.298256E-06
4.115752E+03	1.180591E-01	3.279987E-06
4.117195E+03	1.176928E-01	3.269811E-06
4.118638E+03	1.177294E-01	3.270827E-06
4.120080E+03	1.179663E-01	3.277409E-06
4.121523E+03	1.177692E-01	3.271934E-06
4.122966E+03	1.179642E-01	3.277351E-06
4.124409E+03	1.185372E-01	3.293270E-06
4.125851E+03	1.182180E-01	3.284402E-06
4.127294E+03	1.175852E-01	3.266822E-06
4.128737E+03	1.176093E-01	3.267490E-06
4.130180E+03	1.180374E-01	3.279383E-06
4.131622E+03	1.178488E-01	3.274145E-06
4.133065E+03	1.177456E-01	3.271277E-06
4.134508E+03	1.177799E-01	3.272231E-06
4.135951E+03	1.171144E-01	3.253742E-06
4.137393E+03	1.167624E-01	3.243960E-06
4.138836E+03	1.168628E-01	3.246752E-06
4.140279E+03	1.166500E-01	3.240838E-06
4.141721E+03	1.163955E-01	3.233766E-06
4.143164E+03	1.161079E-01	3.225777E-06
4.144607E+03	1.159021E-01	3.220060E-06
4.146050E+03	1.153242E-01	3.204003E-06
4.147492E+03	1.146299E-01	3.184714E-06
4.148935E+03	1.144556E-01	3.179871E-06
4.150378E+03	1.145716E-01	3.183094E-06
4.151821E+03	1.148890E-01	3.191914E-06
4.153263E+03	1.147911E-01	3.189193E-06
4.154706E+03	1.143700E-01	3.177494E-06
4.156149E+03	1.141366E-01	3.171009E-06
4.157592E+03	1.138701E-01	3.163606E-06
4.159034E+03	1.138851E-01	3.164022E-06
4.160477E+03	1.141623E-01	3.171723E-06
4.161920E+03	1.142431E-01	3.173968E-06
4.163362E+03	1.142614E-01	3.174475E-06
4.164805E+03	1.141407E-01	3.171123E-06
4.166248E+03	1.142648E-01	3.174571E-06
4.167691E+03	1.143940E-01	3.178160E-06
4.169133E+03	1.144277E-01	3.179097E-06
4.170576E+03	1.144579E-01	3.179935E-06
4.172019E+03	1.141931E-01	3.172580E-06
4.173462E+03	1.140307E-01	3.168068E-06
4.174904E+03	1.141215E-01	3.170590E-06
4.176347E+03	1.146509E-01	3.185297E-06
4.177790E+03	1.148975E-01	3.192148E-06
4.179233E+03	1.149654E-01	3.194036E-06
4.180675E+03	1.153660E-01	3.205166E-06
4.182118E+03	1.154217E-01	3.206712E-06
4.183561E+03	1.154132E-01	3.206475E-06
4.185003E+03	1.152349E-01	3.201522E-06
4.186446E+03	1.152073E-01	3.200755E-06
4.187889E+03	1.151069E-01	3.197966E-06
4.189332E+03	1.150429E-01	3.196188E-06
4.190774E+03	1.151450E-01	3.199025E-06
4.192217E+03	1.152003E-01	3.200562E-06
4.193660E+03	1.154841E-01	3.208445E-06
4.195103E+03	1.155513E-01	3.210314E-06
4.196545E+03	1.158176E-01	3.217711E-06
4.197988E+03	1.160041E-01	3.222891E-06
4.199431E+03	1.161161E-01	3.226004E-06
4.200873E+03	1.162505E-01	3.229739E-06
4.202316E+03	1.163675E-01	3.232990E-06
4.203759E+03	1.166055E-01	3.239602E-06
4.205202E+03	1.171096E-01	3.253606E-06
4.206644E+03	1.169083E-01	3.248015E-06
4.208087E+03	1.162423E-01	3.229509E-06
4.209530E+03	1.157353E-01	3.215426E-06
4.210973E+03	1.156828E-01	3.213966E-06
4.212415E+03	1.152917E-01	3.203101E-06
4.213858E+03	1.153722E-01	3.205335E-06
4.215301E+03	1.155976E-01	3.211599E-06
4.216744E+03	1.156450E-01	3.212917E-06
4.218186E+03	1.155009E-01	3.208912E-06
4.219629E+03	1.147803E-01	3.188892E-06
4.221072E+03	1.146586E-01	3.185511E-06
4.222514E+03	1.148958E-01	3.192102E-06
4.223957E+03	1.149760E-01	3.194328E-06
4.225400E+03	1.148422E-01	3.190611E-06
4.226843E+03	1.148049E-01	3.189575E-06
4.228285E+03	1.148866E-01	3.191844E-06
4.229728E+03	1.148630E-01	3.191190E-06
4.231171E+03	1.151031E-01	3.197861E-06
4.232614E+03	1.152535E-01	3.202039E-06
4.234056E+03	1.153487E-01	3.204682E-06
4.235499E+03	1.154971E-01	3.208807E-06
4.236942E+03	1.155887E-01	3.211352E-06
4.238385E+03	1.159644E-01	3.221788E-06
4.239827E+03	1.164242E-01	3.234563E-06
4.241270E+03	1.166342E-01	3.240398E-06
4.242713E+03	1.170730E-01	3.252590E-06
4.244155E+03	1.172432E-01	3.257318E-06
4.245598E+03	1.173943E-01	3.261517E-06
4.247041E+03	1.176400E-01	3.268340E-06
4.248484E+03	1.178976E-01	3.275497E-06
4.249926E+03	1.179675E-01	3.277440E-06
4.251369E+03	1.183366E-01	3.287696E-06
4.252812E+03	1.188019E-01	3.300622E-06
4.254255E+03	1.191088E-01	3.309147E-06
4.255697E+03	1.192574E-01	3.313276E-06
4.257140E+03	1.194247E-01	3.317926E-06
4.258583E+03	1.196866E-01	3.325201E-06
4.260026E+03	1.199585E-01	3.332756E-06
4.261468E+03	1.200706E-01	3.335870E-06
4.262911E+03	1.199422E-01	3.332302E-06
4.264354E+03	1.201451E-01	3.337940E-06
4.265796E+03	1.202501E-01	3.340857E-06
4.267239E+03	1.203122E-01	3.342581E-06
4.268682E+03	1.199468E-01	3.332429E-06
4.270125E+03	1.200155E-01	3.334340E-06
4.271567E+03	1.199127E-01	3.331483E-06
4.273010E+03	1.196983E-01	3.325527E-06
4.274453E+03	1.198630E-01	3.330102E-06
4.275896E+03	1.200550E-01	3.335437E-06
4.277338E+03	1.201527E-01	3.338149E-06
4.278781E+03	1.193691E-01	3.316380E-06
4.280224E+03	1.187829E-01	3.300093E-06
4.281667E+03	1.184161E-01	3.289904E-06
4.283109E+03	1.177805E-01	3.272244E-06
4.284552E+03	1.172769E-01	3.258254E-06
4.285995E+03	1.168557E-01	3.246551E-06
4.287437E+03	1.166024E-01	3.239512E-06
4.288880E+03	1.162464E-01	3.229622E-06
4.290323E+03	1.156354E-01	3.212647E-06
4.291766E+03	1.155499E-01	3.210273E-06
4.293208E+03	1.153704E-01	3.205287E-06
4.294651E+03	1.148744E-01	3.191505E-06
4.296094E+03	1.143990E-01	3.178297E-06
4.297537E+03	1.138793E-01	3.163859E-06
4.298979E+03	1.133187E-01	3.148283E-06
4.300422E+03	1.129206E-01	3.137224E-06
4.301865E+03	1.125602E-01	3.127212E-06
4.303307E+03	1.121059E-01	3.114590E-06
4.304750E+03	1.114980E-01	3.097700E-06
4.306193E+03	1.110935E-01	3.086463E-06
4.307636E+03	1.107558E-01	3.077080E-06
4.309078E+03	1.102473E-01	3.062953E-06
4.310521E+03	1.101420E-01	3.060027E-06
4.311964E+03	1.100332E-01	3.057005E-06
4.313407E+03	1.101617E-01	3.060574E-06
4.314849E+03	1.101672E-01	3.060727E-06
4.316292E+03	1.099832E-01	3.055615E-06
4.317735E+03	1.100876E-01	3.058516E-06
4.319178E+03	1.099821E-01	3.055585E-06
4.320620E+03	1.097572E-01	3.049337E-06
4.322063E+03	1.098240E-01	3.051191E-06
4.323506E+03	1.099895E-01	3.055789E-06
4.324948E+03	1.098054E-01	3.050676E-06
4.326391E+03	1.095670E-01	3.044051E-06
4.327834E+03	1.092007E-01	3.033876E-06
4.329277E+03	1.087460E-01	3.021242E-06
4.330719E+03	1.081790E-01	3.005489E-06
4.332162E+03	1.074964E-01	2.986525E-06
4.333605E+03	1.072260E-01	2.979012E-06
4.335048E+03	1.071531E-01	2.976986E-06
4.336490E+03	1.066751E-01	2.963706E-06
4.337933E+03	1.063657E-01	2.955110E-06
4.339376E+03	1.063387E-01	2.954362E-06
4.340819E+03	1.061774E-01	2.949880E-06
4.342261E+03	1.060927E-01	2.947525E-06
4.343704E+03	1.059704E-01	2.944130E-06
4.345147E+03	1.054181E-01	2.928785E-06
4.346589E+03	1.053623E-01	2.927234E-06
4.348032E+03	1.052062E-01	2.922896E-06
4.349475E+03	1.047816E-01	2.911102E-06
4.350918E+03	1.041330E-01	2.893081E-06
4.352360E+03	1.035152E-01	2.875916E-06
4.353803E+03	1.027022E-01	2.853331E-06
4.355246E+03	1.021952E-01	2.839244E-06
4.356689E+03	1.020786E-01	2.836005E-06
4.358131E+03	1.016040E-01	2.822818E-06
4.359574E+03	1.008683E-01	2.802379E-06
4.361017E+03	1.004347E-01	2.790334E-06
4.362460E+03	9.984864E-02	2.774050E-06
4.363902E+03	9.891860E-02	2.748211E-06
4.365345E+03	9.797861E-02	2.722096E-06
4.366788E+03	9.691194E-02	2.692461E-06
4.368230E+03	9.589980E-02	2.664341E-06
4.369673E+03	9.507952E-02	2.641552E-06
4.371116E+03	9.417308E-02	2.616369E-06
4.372559E+03	9.297569E-02	2.583102E-06
4.374001E+03	9.215975E-02	2.560433E-06
4.375444E+03	9.172832E-02	2.548447E-06
4.376887E+03	9.111767E-02	2.531482E-06
4.378330E+03	9.040566E-02	2.511700E-06
4.379772E+03	8.974803E-02	2.493429E-06
4.381215E+03	8.896038E-02	2.471547E-06
4.382658E+03	8.795827E-02	2.443705E-06
