#wls	flux	fluxerr
1.570321E+03	7.032096E-03	3.416566E-07
1.609579E+03	7.161005E-03	3.479196E-07
1.648837E+03	7.302116E-03	3.547754E-07
1.688095E+03	7.456391E-03	3.622708E-07
1.727353E+03	7.623382E-03	3.703840E-07
1.766611E+03	7.805673E-03	3.792406E-07
1.805869E+03	8.006117E-03	3.889791E-07
1.845127E+03	8.226253E-03	3.996744E-07
1.884385E+03	8.466176E-03	4.113310E-07
1.923643E+03	8.729350E-03	4.241172E-07
1.962901E+03	9.017937E-03	4.381381E-07
2.002159E+03	9.336119E-03	4.535969E-07
2.041417E+03	9.686778E-03	4.706336E-07
2.080675E+03	1.007312E-02	4.894039E-07
2.119933E+03	1.049680E-02	5.099886E-07
2.159191E+03	1.096581E-02	5.327752E-07
2.198449E+03	1.148498E-02	5.579989E-07
2.237707E+03	1.205755E-02	5.858171E-07
2.276965E+03	1.269408E-02	6.167430E-07
2.316223E+03	1.339702E-02	6.508951E-07
2.355481E+03	1.417906E-02	6.888902E-07
2.394739E+03	1.504689E-02	7.310534E-07
2.433997E+03	1.601353E-02	7.780178E-07
2.473255E+03	1.709104E-02	8.303684E-07
2.512513E+03	1.829309E-02	8.887697E-07
2.551772E+03	1.963850E-02	9.541358E-07
2.591030E+03	2.114543E-02	1.027350E-06
2.630288E+03	2.283820E-02	1.109593E-06
2.669546E+03	2.473691E-02	1.201841E-06
2.708804E+03	2.688052E-02	1.305988E-06
2.748062E+03	2.929674E-02	1.423379E-06
2.787320E+03	3.203043E-02	1.556195E-06
2.826578E+03	3.512812E-02	1.706695E-06
2.865836E+03	3.863698E-02	1.877172E-06
2.905094E+03	4.263274E-02	2.071305E-06
2.944352E+03	4.718388E-02	2.292421E-06
2.954166E+03	4.841859E-02	2.352409E-06
2.963981E+03	4.969305E-02	2.414329E-06
2.973795E+03	5.101512E-02	2.478561E-06
2.983610E+03	5.237249E-02	2.544508E-06
2.993424E+03	5.378696E-02	2.613229E-06
3.003239E+03	5.523893E-02	2.683773E-06
3.013053E+03	5.674367E-02	2.756880E-06
3.022868E+03	5.829518E-02	2.832260E-06
3.032682E+03	5.990198E-02	2.910326E-06
3.042497E+03	6.156534E-02	2.991140E-06
3.052311E+03	6.327844E-02	3.074370E-06
3.062126E+03	6.504960E-02	3.160421E-06
3.071940E+03	6.687902E-02	3.249303E-06
3.081755E+03	6.876611E-02	3.340987E-06
3.091569E+03	7.070046E-02	3.434967E-06
3.101384E+03	7.269514E-02	3.531878E-06
3.111198E+03	7.472656E-02	3.630574E-06
3.121013E+03	7.680225E-02	3.731420E-06
3.130827E+03	7.889915E-02	3.833297E-06
3.140642E+03	8.099748E-02	3.935244E-06
3.150456E+03	8.307167E-02	4.036018E-06
3.160271E+03	8.509069E-02	4.134111E-06
3.170085E+03	8.702829E-02	4.228249E-06
3.179900E+03	8.884646E-02	4.316583E-06
3.189714E+03	9.049759E-02	4.396803E-06
3.199529E+03	9.195785E-02	4.467749E-06
3.209343E+03	9.320159E-02	4.528176E-06
3.219158E+03	9.420469E-02	4.576911E-06
3.228972E+03	9.498640E-02	4.614890E-06
3.238787E+03	9.554056E-02	4.641813E-06
3.248601E+03	9.591318E-02	4.659916E-06
3.258416E+03	9.613104E-02	4.670501E-06
3.268230E+03	9.623740E-02	4.675668E-06
3.278045E+03	9.628804E-02	4.678128E-06
3.287859E+03	9.631928E-02	4.679646E-06
3.297674E+03	9.638395E-02	4.682787E-06
3.307488E+03	9.652163E-02	4.689476E-06
3.317303E+03	9.675847E-02	4.700982E-06
3.327117E+03	9.714370E-02	4.719698E-06
3.336932E+03	9.768619E-02	4.746055E-06
3.346746E+03	9.842561E-02	4.781979E-06
3.356561E+03	9.936892E-02	4.827809E-06
3.366376E+03	1.005325E-01	4.884340E-06
3.376190E+03	1.019034E-01	4.950945E-06
3.378153E+03	9.235744E-02	4.487158E-06
3.380116E+03	9.497664E-02	4.614411E-06
3.382079E+03	9.612507E-02	4.670207E-06
3.384042E+03	9.667008E-02	4.696686E-06
3.386005E+03	9.820313E-02	4.771169E-06
3.387967E+03	9.849299E-02	4.785251E-06
3.389930E+03	9.814497E-02	4.768343E-06
3.391893E+03	9.786061E-02	4.754527E-06
3.393856E+03	9.952388E-02	4.835337E-06
3.395819E+03	9.976757E-02	4.847176E-06
3.397782E+03	9.929944E-02	4.824432E-06
3.399745E+03	1.010256E-01	4.908295E-06
3.401708E+03	1.024727E-01	4.978605E-06
3.403671E+03	1.031031E-01	5.009233E-06
3.405634E+03	1.040958E-01	5.057461E-06
3.407596E+03	1.046047E-01	5.082185E-06
3.409559E+03	1.053246E-01	5.117163E-06
3.411522E+03	1.059536E-01	5.147723E-06
3.413485E+03	1.054654E-01	5.124004E-06
3.415448E+03	1.068283E-01	5.190217E-06
3.417411E+03	1.083614E-01	5.264703E-06
3.419374E+03	1.096625E-01	5.327920E-06
3.421337E+03	1.107820E-01	5.382310E-06
3.423300E+03	1.124837E-01	5.464986E-06
3.425263E+03	1.133709E-01	5.508087E-06
3.427225E+03	1.147396E-01	5.574587E-06
3.429188E+03	1.155252E-01	5.612753E-06
3.431151E+03	1.178263E-01	5.724554E-06
3.433114E+03	1.203070E-01	5.845075E-06
3.435077E+03	1.196354E-01	5.812447E-06
3.437040E+03	1.218334E-01	5.919235E-06
3.439003E+03	1.241506E-01	6.031815E-06
3.440966E+03	1.232578E-01	5.988438E-06
3.442929E+03	1.237488E-01	6.012295E-06
3.444892E+03	1.247808E-01	6.062434E-06
3.446854E+03	1.243994E-01	6.043902E-06
3.448817E+03	1.256109E-01	6.102764E-06
3.450780E+03	1.266815E-01	6.154780E-06
3.452743E+03	1.270807E-01	6.174174E-06
3.454706E+03	1.268790E-01	6.164376E-06
3.456669E+03	1.270877E-01	6.174513E-06
3.458632E+03	1.287970E-01	6.257559E-06
3.460595E+03	1.295551E-01	6.294392E-06
3.462558E+03	1.299728E-01	6.314686E-06
3.464521E+03	1.318699E-01	6.406854E-06
3.466483E+03	1.336960E-01	6.495574E-06
3.468446E+03	1.335925E-01	6.490549E-06
3.470409E+03	1.337588E-01	6.498624E-06
3.472372E+03	1.329661E-01	6.460111E-06
3.474335E+03	1.325032E-01	6.437624E-06
3.476298E+03	1.319007E-01	6.408352E-06
3.478261E+03	1.305800E-01	6.344184E-06
3.480224E+03	1.301577E-01	6.323669E-06
3.482187E+03	1.301547E-01	6.323521E-06
3.484150E+03	1.290944E-01	6.272009E-06
3.486112E+03	1.288322E-01	6.259271E-06
3.488075E+03	1.287695E-01	6.256224E-06
3.490038E+03	1.274312E-01	6.191203E-06
3.492001E+03	1.257051E-01	6.107337E-06
3.493964E+03	1.247266E-01	6.059800E-06
3.495927E+03	1.234898E-01	5.999709E-06
3.497890E+03	1.233884E-01	5.994782E-06
3.499853E+03	1.223515E-01	5.944404E-06
3.501816E+03	1.198723E-01	5.823955E-06
3.503779E+03	1.180310E-01	5.734497E-06
3.505741E+03	1.167674E-01	5.673102E-06
3.507704E+03	1.161207E-01	5.641683E-06
3.509667E+03	1.131585E-01	5.497766E-06
3.511630E+03	1.118870E-01	5.435988E-06
3.513593E+03	1.111525E-01	5.400305E-06
3.515556E+03	1.116896E-01	5.426401E-06
3.517519E+03	1.109754E-01	5.391699E-06
3.519482E+03	1.098742E-01	5.338201E-06
3.521445E+03	1.097462E-01	5.331980E-06
3.523408E+03	1.112452E-01	5.404810E-06
3.525370E+03	1.121384E-01	5.448203E-06
3.527333E+03	1.126344E-01	5.472304E-06
3.529296E+03	1.133978E-01	5.509390E-06
3.531259E+03	1.137047E-01	5.524303E-06
3.533222E+03	1.130405E-01	5.492034E-06
3.535185E+03	1.125846E-01	5.469883E-06
3.537148E+03	1.130597E-01	5.492966E-06
3.539111E+03	1.135742E-01	5.517959E-06
3.541074E+03	1.134351E-01	5.511201E-06
3.543037E+03	1.128903E-01	5.484732E-06
3.545000E+03	1.130084E-01	5.490473E-06
3.546962E+03	1.134825E-01	5.513507E-06
3.548925E+03	1.135213E-01	5.515390E-06
3.550888E+03	1.136786E-01	5.523034E-06
3.552851E+03	1.122547E-01	5.453853E-06
3.554814E+03	1.095571E-01	5.322794E-06
3.556777E+03	1.087868E-01	5.285368E-06
3.558740E+03	1.084612E-01	5.269549E-06
3.560703E+03	1.091919E-01	5.305049E-06
3.562666E+03	1.094386E-01	5.317033E-06
3.564629E+03	1.090438E-01	5.297853E-06
3.566591E+03	1.080377E-01	5.248972E-06
3.568554E+03	1.081068E-01	5.252331E-06
3.570517E+03	1.082055E-01	5.257123E-06
3.572480E+03	1.086981E-01	5.281059E-06
3.574443E+03	1.090329E-01	5.297325E-06
3.576406E+03	1.100470E-01	5.346594E-06
3.578369E+03	1.097509E-01	5.332209E-06
3.580332E+03	1.099077E-01	5.339826E-06
3.582295E+03	1.116784E-01	5.425852E-06
3.584258E+03	1.118640E-01	5.434869E-06
3.586220E+03	1.113510E-01	5.409948E-06
3.588183E+03	1.117430E-01	5.428991E-06
3.590146E+03	1.123411E-01	5.458051E-06
3.592109E+03	1.131649E-01	5.498072E-06
3.594072E+03	1.145187E-01	5.563847E-06
3.596035E+03	1.138286E-01	5.530321E-06
3.597998E+03	1.133452E-01	5.506832E-06
3.599961E+03	1.136276E-01	5.520553E-06
3.601924E+03	1.147047E-01	5.572884E-06
3.603887E+03	1.153396E-01	5.603733E-06
3.605849E+03	1.161213E-01	5.641709E-06
3.607812E+03	1.161768E-01	5.644406E-06
3.609775E+03	1.162127E-01	5.646148E-06
3.611738E+03	1.161602E-01	5.643599E-06
3.613701E+03	1.165682E-01	5.663422E-06
3.615664E+03	1.169759E-01	5.683231E-06
3.617627E+03	1.168057E-01	5.674958E-06
3.619590E+03	1.175066E-01	5.709012E-06
3.621553E+03	1.170719E-01	5.687891E-06
3.623516E+03	1.167939E-01	5.674388E-06
3.625478E+03	1.179342E-01	5.729789E-06
3.627441E+03	1.184871E-01	5.756650E-06
3.629404E+03	1.189907E-01	5.781120E-06
3.631367E+03	1.182921E-01	5.747178E-06
3.633330E+03	1.175059E-01	5.708978E-06
3.635293E+03	1.166224E-01	5.666053E-06
3.637256E+03	1.163348E-01	5.652082E-06
3.639219E+03	1.164574E-01	5.658040E-06
3.641182E+03	1.164140E-01	5.655928E-06
3.643145E+03	1.156584E-01	5.619217E-06
3.645107E+03	1.137718E-01	5.527559E-06
3.647070E+03	1.118376E-01	5.433586E-06
3.649033E+03	1.110741E-01	5.396490E-06
3.650996E+03	1.102427E-01	5.356096E-06
3.652959E+03	1.095968E-01	5.324717E-06
3.654922E+03	1.076658E-01	5.230899E-06
3.656885E+03	1.070209E-01	5.199569E-06
3.658848E+03	1.058119E-01	5.140828E-06
3.660811E+03	1.045744E-01	5.080704E-06
3.662774E+03	1.023161E-01	4.970989E-06
3.664736E+03	1.013914E-01	4.926061E-06
3.666699E+03	1.022947E-01	4.969948E-06
3.668662E+03	1.023131E-01	4.970840E-06
3.670625E+03	1.010004E-01	4.907064E-06
3.672588E+03	9.963986E-02	4.840963E-06
3.674551E+03	9.857134E-02	4.789049E-06
3.676514E+03	9.824115E-02	4.773007E-06
3.678477E+03	9.858063E-02	4.789500E-06
3.680440E+03	9.906537E-02	4.813051E-06
3.682403E+03	9.984077E-02	4.850724E-06
3.684365E+03	1.004314E-01	4.879419E-06
3.686328E+03	1.009731E-01	4.905740E-06
3.688291E+03	1.012142E-01	4.917451E-06
3.690254E+03	1.015228E-01	4.932446E-06
3.692217E+03	1.019571E-01	4.953543E-06
3.694180E+03	1.022458E-01	4.967573E-06
3.696143E+03	1.019150E-01	4.951498E-06
3.698106E+03	1.010619E-01	4.910050E-06
3.700069E+03	1.014665E-01	4.929709E-06
3.702032E+03	1.020836E-01	4.959691E-06
3.703995E+03	1.021589E-01	4.963350E-06
3.705957E+03	1.023212E-01	4.971234E-06
3.707920E+03	1.030242E-01	5.005390E-06
3.709883E+03	1.037847E-01	5.042338E-06
3.711846E+03	1.054039E-01	5.121007E-06
3.713809E+03	1.063948E-01	5.169146E-06
3.715772E+03	1.067384E-01	5.185843E-06
3.717735E+03	1.075835E-01	5.226898E-06
3.719698E+03	1.081098E-01	5.252468E-06
3.721661E+03	1.090597E-01	5.298621E-06
3.723624E+03	1.092767E-01	5.309163E-06
3.725586E+03	1.093490E-01	5.312677E-06
3.727549E+03	1.092864E-01	5.309634E-06
3.729512E+03	1.087039E-01	5.281334E-06
3.731475E+03	1.084778E-01	5.270347E-06
3.733438E+03	1.080496E-01	5.249546E-06
3.735401E+03	1.074486E-01	5.220347E-06
3.737364E+03	1.067614E-01	5.186959E-06
3.739327E+03	1.048057E-01	5.091942E-06
3.741290E+03	1.027742E-01	4.993243E-06
3.743253E+03	1.012051E-01	4.917008E-06
3.745215E+03	9.987704E-02	4.852484E-06
3.747178E+03	9.863614E-02	4.792196E-06
3.749141E+03	9.719439E-02	4.722149E-06
3.751104E+03	9.514237E-02	4.622452E-06
3.753067E+03	9.215157E-02	4.477145E-06
3.755030E+03	8.960368E-02	4.353357E-06
3.756993E+03	8.771204E-02	4.261453E-06
3.758956E+03	8.580141E-02	4.168626E-06
3.760919E+03	8.277211E-02	4.021448E-06
3.762882E+03	7.971027E-02	3.872690E-06
3.764844E+03	7.764299E-02	3.772252E-06
3.766807E+03	7.518275E-02	3.652722E-06
3.768770E+03	7.257284E-02	3.525921E-06
3.770733E+03	7.009268E-02	3.405423E-06
3.772696E+03	6.735213E-02	3.272274E-06
3.774659E+03	6.464099E-02	3.140555E-06
3.776622E+03	6.145665E-02	2.985845E-06
3.778585E+03	5.931932E-02	2.882004E-06
3.780548E+03	5.760730E-02	2.798826E-06
3.782511E+03	5.625719E-02	2.733231E-06
3.784473E+03	5.475617E-02	2.660305E-06
3.786436E+03	5.347169E-02	2.597899E-06
3.788399E+03	5.202016E-02	2.527377E-06
3.790362E+03	5.093277E-02	2.474547E-06
3.792325E+03	5.042552E-02	2.449902E-06
3.794288E+03	4.996811E-02	2.427679E-06
3.796251E+03	4.915762E-02	2.388302E-06
3.798214E+03	4.935498E-02	2.397890E-06
3.800177E+03	4.983965E-02	2.421438E-06
3.802140E+03	4.965220E-02	2.412330E-06
3.804102E+03	5.006600E-02	2.432435E-06
3.806065E+03	5.011057E-02	2.434601E-06
3.808028E+03	4.993264E-02	2.425956E-06
3.809991E+03	5.027176E-02	2.442431E-06
3.811954E+03	5.039973E-02	2.448649E-06
3.813917E+03	4.970614E-02	2.414951E-06
3.815880E+03	4.957119E-02	2.408395E-06
3.817843E+03	4.940499E-02	2.400320E-06
3.819806E+03	5.020562E-02	2.439218E-06
3.821769E+03	5.196170E-02	2.524537E-06
3.823731E+03	5.284246E-02	2.567328E-06
3.825694E+03	5.371028E-02	2.609490E-06
3.827657E+03	5.501428E-02	2.672845E-06
3.829620E+03	5.577562E-02	2.709834E-06
3.831583E+03	5.634233E-02	2.737367E-06
3.833546E+03	5.684237E-02	2.761662E-06
3.835509E+03	5.748304E-02	2.792788E-06
3.837472E+03	5.841459E-02	2.838047E-06
3.839435E+03	5.938994E-02	2.885434E-06
3.841398E+03	6.036649E-02	2.932879E-06
3.843360E+03	6.103904E-02	2.965555E-06
3.845323E+03	6.214092E-02	3.019089E-06
3.847286E+03	6.302294E-02	3.061941E-06
3.849249E+03	6.362585E-02	3.091234E-06
3.851212E+03	6.450483E-02	3.133939E-06
3.853175E+03	6.608602E-02	3.210760E-06
3.855138E+03	6.707669E-02	3.258891E-06
3.857101E+03	6.823730E-02	3.315279E-06
3.859064E+03	6.872705E-02	3.339073E-06
3.861027E+03	6.990884E-02	3.396490E-06
3.862989E+03	7.207305E-02	3.501637E-06
3.864952E+03	7.373680E-02	3.582469E-06
3.866915E+03	7.583608E-02	3.684462E-06
3.868878E+03	7.795738E-02	3.787524E-06
3.870841E+03	8.030394E-02	3.901531E-06
3.872804E+03	8.359652E-02	4.061499E-06
3.874767E+03	8.718479E-02	4.235834E-06
3.876730E+03	9.038729E-02	4.391426E-06
3.878693E+03	9.251490E-02	4.494795E-06
3.880656E+03	9.495365E-02	4.613280E-06
3.882619E+03	9.775580E-02	4.749421E-06
3.884581E+03	1.000118E-01	4.859028E-06
3.886544E+03	1.028196E-01	4.995445E-06
3.888507E+03	1.059349E-01	5.146799E-06
3.890470E+03	1.086449E-01	5.278464E-06
3.892433E+03	1.116716E-01	5.425513E-06
3.894396E+03	1.136658E-01	5.522400E-06
3.896359E+03	1.162484E-01	5.647878E-06
3.898322E+03	1.200462E-01	5.832389E-06
3.900285E+03	1.234482E-01	5.997673E-06
3.902248E+03	1.270348E-01	6.171928E-06
3.904210E+03	1.297119E-01	6.301993E-06
3.906173E+03	1.325834E-01	6.441503E-06
3.908136E+03	1.358359E-01	6.599525E-06
3.910099E+03	1.389367E-01	6.750177E-06
3.912062E+03	1.410548E-01	6.853082E-06
3.914025E+03	1.426299E-01	6.929609E-06
3.915988E+03	1.438773E-01	6.990211E-06
3.917951E+03	1.457953E-01	7.083400E-06
3.919914E+03	1.463506E-01	7.110376E-06
3.921877E+03	1.470451E-01	7.144119E-06
3.923839E+03	1.475901E-01	7.170595E-06
3.925802E+03	1.478924E-01	7.185283E-06
3.927765E+03	1.484737E-01	7.213527E-06
3.929728E+03	1.496504E-01	7.270693E-06
3.931691E+03	1.510586E-01	7.339113E-06
3.933654E+03	1.518148E-01	7.375850E-06
3.935617E+03	1.526075E-01	7.414363E-06
3.937580E+03	1.532415E-01	7.445169E-06
3.939543E+03	1.539959E-01	7.481817E-06
3.941506E+03	1.544245E-01	7.502641E-06
3.943468E+03	1.553077E-01	7.545550E-06
3.945431E+03	1.554662E-01	7.553253E-06
3.947394E+03	1.552904E-01	7.544714E-06
3.949357E+03	1.553931E-01	7.549700E-06
3.951320E+03	1.551802E-01	7.539358E-06
3.953283E+03	1.548284E-01	7.522266E-06
3.955246E+03	1.547455E-01	7.518238E-06
3.957209E+03	1.547922E-01	7.520507E-06
3.959172E+03	1.540796E-01	7.485887E-06
3.961135E+03	1.542375E-01	7.493554E-06
3.963097E+03	1.543858E-01	7.500763E-06
3.965060E+03	1.552093E-01	7.540771E-06
3.967023E+03	1.560783E-01	7.582988E-06
3.968986E+03	1.564474E-01	7.600924E-06
3.970949E+03	1.573336E-01	7.643978E-06
3.972912E+03	1.582006E-01	7.686103E-06
3.974875E+03	1.586053E-01	7.705765E-06
3.976838E+03	1.594619E-01	7.747380E-06
3.978801E+03	1.601332E-01	7.779997E-06
3.980764E+03	1.612374E-01	7.833643E-06
3.982726E+03	1.623869E-01	7.889488E-06
3.984689E+03	1.633971E-01	7.938572E-06
3.986652E+03	1.638539E-01	7.960763E-06
3.988615E+03	1.639602E-01	7.965930E-06
3.990578E+03	1.644715E-01	7.990769E-06
3.992541E+03	1.649547E-01	8.014244E-06
3.994504E+03	1.653454E-01	8.033227E-06
3.996467E+03	1.651657E-01	8.024496E-06
3.998430E+03	1.651790E-01	8.025141E-06
4.000393E+03	1.653209E-01	8.032037E-06
4.002355E+03	1.658300E-01	8.056770E-06
4.004318E+03	1.659255E-01	8.061411E-06
4.006281E+03	1.666634E-01	8.097259E-06
4.008244E+03	1.672537E-01	8.125941E-06
4.010207E+03	1.672933E-01	8.127864E-06
4.012170E+03	1.675619E-01	8.140916E-06
4.014133E+03	1.681328E-01	8.168649E-06
4.016096E+03	1.686298E-01	8.192799E-06
4.018059E+03	1.689615E-01	8.208913E-06
4.020022E+03	1.690091E-01	8.211225E-06
4.021984E+03	1.679950E-01	8.161953E-06
4.023947E+03	1.671369E-01	8.120266E-06
4.025910E+03	1.667733E-01	8.102600E-06
4.027873E+03	1.659985E-01	8.064957E-06
4.029836E+03	1.650506E-01	8.018902E-06
4.031799E+03	1.640301E-01	7.969324E-06
4.033762E+03	1.627547E-01	7.907359E-06
4.035725E+03	1.609325E-01	7.818827E-06
4.037688E+03	1.593122E-01	7.740105E-06
4.039651E+03	1.574833E-01	7.651250E-06
4.041614E+03	1.569687E-01	7.626247E-06
4.043576E+03	1.563815E-01	7.597717E-06
4.045539E+03	1.553117E-01	7.545744E-06
4.047502E+03	1.542244E-01	7.492918E-06
4.049465E+03	1.527100E-01	7.419338E-06
4.051428E+03	1.517700E-01	7.373669E-06
4.053391E+03	1.504121E-01	7.307696E-06
4.055354E+03	1.487550E-01	7.227190E-06
4.057317E+03	1.472536E-01	7.154245E-06
4.059280E+03	1.459351E-01	7.090185E-06
4.061243E+03	1.440543E-01	6.998804E-06
4.063205E+03	1.422928E-01	6.913226E-06
4.065168E+03	1.400062E-01	6.802131E-06
4.067131E+03	1.387011E-01	6.738724E-06
4.069094E+03	1.373970E-01	6.675363E-06
4.071057E+03	1.362026E-01	6.617334E-06
4.073020E+03	1.360332E-01	6.609104E-06
4.074983E+03	1.360178E-01	6.608359E-06
4.076946E+03	1.353866E-01	6.577688E-06
4.078909E+03	1.344389E-01	6.531647E-06
4.080872E+03	1.333561E-01	6.479038E-06
4.082834E+03	1.325183E-01	6.438336E-06
4.084797E+03	1.323322E-01	6.429295E-06
4.086760E+03	1.316670E-01	6.396978E-06
4.088723E+03	1.314271E-01	6.385319E-06
4.090686E+03	1.306181E-01	6.346016E-06
4.092649E+03	1.302160E-01	6.326480E-06
4.094612E+03	1.297240E-01	6.302573E-06
4.096575E+03	1.293224E-01	6.283063E-06
4.098538E+03	1.287497E-01	6.255241E-06
4.100501E+03	1.279881E-01	6.218236E-06
4.102463E+03	1.272630E-01	6.183011E-06
4.104426E+03	1.265204E-01	6.146932E-06
4.106389E+03	1.266608E-01	6.153752E-06
4.108352E+03	1.268011E-01	6.160566E-06
4.110315E+03	1.271751E-01	6.178736E-06
4.112278E+03	1.274768E-01	6.193394E-06
4.114241E+03	1.274545E-01	6.192311E-06
4.116204E+03	1.273782E-01	6.188606E-06
4.118167E+03	1.271672E-01	6.178353E-06
4.120130E+03	1.266239E-01	6.151960E-06
4.122092E+03	1.263773E-01	6.139979E-06
4.124055E+03	1.260232E-01	6.122774E-06
4.126018E+03	1.259384E-01	6.118651E-06
4.127981E+03	1.260239E-01	6.122807E-06
4.129944E+03	1.258314E-01	6.113454E-06
4.131907E+03	1.254240E-01	6.093661E-06
4.133870E+03	1.251870E-01	6.082147E-06
4.135833E+03	1.247979E-01	6.063243E-06
4.137796E+03	1.247760E-01	6.062179E-06
4.139759E+03	1.246467E-01	6.055896E-06
4.141721E+03	1.242045E-01	6.034410E-06
4.143684E+03	1.246295E-01	6.055062E-06
4.145647E+03	1.256440E-01	6.104347E-06
4.147610E+03	1.260501E-01	6.124081E-06
4.149573E+03	1.258489E-01	6.114303E-06
4.151536E+03	1.260225E-01	6.122737E-06
4.153499E+03	1.260888E-01	6.125961E-06
4.155462E+03	1.265207E-01	6.146943E-06
4.157425E+03	1.270503E-01	6.172671E-06
4.159388E+03	1.275971E-01	6.199239E-06
4.161350E+03	1.280989E-01	6.223619E-06
4.163313E+03	1.287784E-01	6.256632E-06
4.165276E+03	1.294394E-01	6.288745E-06
4.167239E+03	1.297351E-01	6.303114E-06
4.169202E+03	1.305196E-01	6.341228E-06
4.171165E+03	1.314545E-01	6.386650E-06
4.173128E+03	1.319444E-01	6.410448E-06
4.175091E+03	1.325137E-01	6.438109E-06
4.177054E+03	1.326297E-01	6.443744E-06
4.179017E+03	1.326212E-01	6.443332E-06
4.180979E+03	1.326926E-01	6.446800E-06
4.182942E+03	1.327904E-01	6.451552E-06
4.184905E+03	1.329058E-01	6.457161E-06
4.186868E+03	1.330832E-01	6.465776E-06
4.188831E+03	1.335880E-01	6.490302E-06
4.190794E+03	1.336053E-01	6.491145E-06
4.192757E+03	1.331801E-01	6.470486E-06
4.194720E+03	1.331975E-01	6.471329E-06
4.196683E+03	1.330202E-01	6.462716E-06
4.198646E+03	1.323745E-01	6.431347E-06
4.200608E+03	1.320916E-01	6.417601E-06
4.202571E+03	1.323299E-01	6.429180E-06
4.204534E+03	1.319588E-01	6.411149E-06
4.206497E+03	1.306171E-01	6.345963E-06
4.208460E+03	1.301586E-01	6.323687E-06
4.210423E+03	1.302472E-01	6.327991E-06
4.212386E+03	1.302651E-01	6.328861E-06
4.214349E+03	1.303357E-01	6.332292E-06
4.216312E+03	1.302566E-01	6.328449E-06
4.218275E+03	1.302654E-01	6.328877E-06
4.220238E+03	1.302919E-01	6.330161E-06
4.222200E+03	1.304413E-01	6.337423E-06
4.224163E+03	1.302740E-01	6.329295E-06
