#wls	flux	fluxerr
1.570321E+03	2.606607E-04	5.313121E-06
1.609579E+03	2.618729E-04	5.325260E-06
1.648837E+03	2.630483E-04	5.336219E-06
1.688095E+03	2.642259E-04	5.346776E-06
1.727353E+03	2.653980E-04	5.356769E-06
1.766611E+03	2.665565E-04	5.366023E-06
1.805869E+03	2.676467E-04	5.373431E-06
1.845127E+03	2.687505E-04	5.380629E-06
1.884385E+03	2.698111E-04	5.386475E-06
1.923643E+03	2.707715E-04	5.389826E-06
1.962901E+03	2.717106E-04	5.392257E-06
2.002159E+03	2.725692E-04	5.392588E-06
2.041417E+03	2.733330E-04	5.390541E-06
2.080675E+03	2.739867E-04	5.385823E-06
2.119933E+03	2.745142E-04	5.378127E-06
2.159191E+03	2.748985E-04	5.367140E-06
2.198449E+03	2.751673E-04	5.353418E-06
2.237707E+03	2.752568E-04	5.335741E-06
2.276965E+03	2.751932E-04	5.314646E-06
2.316223E+03	2.749125E-04	5.288925E-06
2.355481E+03	2.744402E-04	5.259111E-06
2.394739E+03	2.737132E-04	5.224039E-06
2.433997E+03	2.727144E-04	5.183439E-06
2.473255E+03	2.714708E-04	5.137883E-06
2.512513E+03	2.699672E-04	5.087146E-06
2.551772E+03	2.681906E-04	5.031048E-06
2.591030E+03	2.660902E-04	4.968716E-06
2.630288E+03	2.637030E-04	4.900923E-06
2.669546E+03	2.610286E-04	4.827745E-06
2.708804E+03	2.580722E-04	4.749367E-06
2.748062E+03	2.548081E-04	4.665405E-06
2.787320E+03	2.513342E-04	4.577745E-06
2.826578E+03	2.476047E-04	4.485630E-06
2.865836E+03	2.437337E-04	4.391209E-06
2.905094E+03	2.397004E-04	4.294171E-06
2.944352E+03	2.356393E-04	4.196982E-06
2.954166E+03	2.346208E-04	4.172683E-06
2.963981E+03	2.336003E-04	4.148374E-06
2.973795E+03	2.325794E-04	4.124081E-06
2.983610E+03	2.315594E-04	4.099829E-06
2.993424E+03	2.305750E-04	4.076230E-06
3.003239E+03	2.295944E-04	4.052722E-06
3.013053E+03	2.285872E-04	4.028769E-06
3.022868E+03	2.276200E-04	4.005542E-06
3.032682E+03	2.266621E-04	3.982505E-06
3.042497E+03	2.257154E-04	3.959687E-06
3.052311E+03	2.247820E-04	3.937125E-06
3.062126E+03	2.238953E-04	3.915401E-06
3.071940E+03	2.229946E-04	3.893452E-06
3.081755E+03	2.221444E-04	3.872405E-06
3.091569E+03	2.213159E-04	3.851754E-06
3.101384E+03	2.205113E-04	3.831538E-06
3.111198E+03	2.197332E-04	3.811797E-06
3.121013E+03	2.189841E-04	3.792573E-06
3.130827E+03	2.182666E-04	3.773911E-06
3.140642E+03	2.176132E-04	3.756367E-06
3.150456E+03	2.169670E-04	3.738957E-06
3.160271E+03	2.163903E-04	3.722752E-06
3.170085E+03	2.158564E-04	3.707285E-06
3.179900E+03	2.153391E-04	3.692107E-06
3.189714E+03	2.149293E-04	3.678770E-06
3.199529E+03	2.145426E-04	3.665825E-06
3.209343E+03	2.142118E-04	3.653828E-06
3.219158E+03	2.139691E-04	3.643322E-06
3.228972E+03	2.137607E-04	3.633385E-06
3.238787E+03	2.136478E-04	3.625053E-06
3.248601E+03	2.136056E-04	3.617898E-06
3.258416E+03	2.136384E-04	3.611984E-06
3.268230E+03	2.137503E-04	3.607377E-06
3.278045E+03	2.139459E-04	3.604144E-06
3.287859E+03	2.142299E-04	3.602356E-06
3.297674E+03	2.146350E-04	3.602557E-06
3.307488E+03	2.151102E-04	3.603878E-06
3.317303E+03	2.157168E-04	3.607340E-06
3.327117E+03	2.164323E-04	3.612552E-06
3.336932E+03	2.172621E-04	3.619596E-06
3.346746E+03	2.182124E-04	3.628564E-06
3.356561E+03	2.192892E-04	3.639541E-06
3.366376E+03	2.204989E-04	3.652624E-06
3.376190E+03	2.218768E-04	3.668382E-06
3.386005E+03	2.233730E-04	3.685974E-06
3.395819E+03	2.250517E-04	3.706448E-06
3.405634E+03	2.268921E-04	3.729443E-06
3.415448E+03	2.289023E-04	3.755074E-06
3.425263E+03	2.310906E-04	3.783460E-06
3.435077E+03	2.334655E-04	3.814723E-06
3.444892E+03	2.360361E-04	3.848993E-06
3.454706E+03	2.388419E-04	3.886890E-06
3.464521E+03	2.418329E-04	3.927580E-06
3.474335E+03	2.450798E-04	3.972187E-06
3.484150E+03	2.485323E-04	4.019873E-06
3.493964E+03	2.522633E-04	4.071792E-06
3.503779E+03	2.562537E-04	4.127608E-06
3.513593E+03	2.605159E-04	4.187491E-06
3.523408E+03	2.650625E-04	4.251616E-06
3.533222E+03	2.699068E-04	4.320164E-06
3.543037E+03	2.750964E-04	4.393863E-06
3.552851E+03	2.805787E-04	4.471839E-06
3.562666E+03	2.864020E-04	4.554827E-06
3.572480E+03	2.926173E-04	4.643600E-06
3.582295E+03	2.992068E-04	4.737833E-06
3.592109E+03	3.061875E-04	4.837754E-06
3.601924E+03	3.135394E-04	4.943003E-06
3.611738E+03	3.213554E-04	5.055001E-06
3.621553E+03	3.296178E-04	5.173419E-06
3.631367E+03	3.383868E-04	5.299149E-06
3.641182E+03	3.476030E-04	5.431210E-06
3.650996E+03	3.573274E-04	5.570496E-06
3.660811E+03	3.676254E-04	5.717972E-06
3.670625E+03	3.784340E-04	5.872594E-06
3.680440E+03	3.898651E-04	6.036036E-06
3.690254E+03	4.018523E-04	6.207203E-06
3.700069E+03	4.145140E-04	6.387854E-06
3.709883E+03	4.278301E-04	6.577603E-06
3.719698E+03	4.417758E-04	6.775995E-06
3.729512E+03	4.564795E-04	6.984923E-06
3.739327E+03	4.719192E-04	7.203960E-06
3.749141E+03	4.881233E-04	7.433455E-06
3.758956E+03	5.051205E-04	7.673756E-06
3.768770E+03	5.230002E-04	7.926123E-06
3.778585E+03	5.416740E-04	8.189118E-06
3.788399E+03	5.612298E-04	8.463972E-06
3.798214E+03	5.816976E-04	8.751032E-06
3.808028E+03	6.031759E-04	9.051668E-06
3.817843E+03	6.255601E-04	9.364194E-06
3.827657E+03	6.490191E-04	9.691026E-06
3.837472E+03	6.734384E-04	1.003033E-05
3.847286E+03	6.989959E-04	1.038463E-05
3.857101E+03	7.255655E-04	1.075193E-05
3.866915E+03	7.533340E-04	1.113485E-05
3.876730E+03	7.821621E-04	1.153122E-05
3.886544E+03	8.122454E-04	1.194376E-05
3.896359E+03	8.435236E-04	1.237145E-05
3.906173E+03	8.760176E-04	1.281444E-05
3.915988E+03	9.096472E-04	1.327142E-05
3.925802E+03	9.446251E-04	1.374534E-05
3.935617E+03	9.808691E-04	1.423485E-05
3.945431E+03	1.018392E-03	1.473996E-05
3.955246E+03	1.057085E-03	1.525896E-05
3.965060E+03	1.097178E-03	1.579502E-05
3.974875E+03	1.138563E-03	1.634639E-05
3.984689E+03	1.181236E-03	1.691286E-05
3.994504E+03	1.225188E-03	1.749416E-05
4.004318E+03	1.270406E-03	1.808993E-05
4.014133E+03	1.316733E-03	1.869778E-05
4.023947E+03	1.364421E-03	1.932113E-05
4.033762E+03	1.413306E-03	1.995751E-05
4.043576E+03	1.463351E-03	2.060624E-05
4.053391E+03	1.514358E-03	2.126437E-05
4.063205E+03	1.566590E-03	2.193551E-05
4.073020E+03	1.619840E-03	2.261656E-05
4.082834E+03	1.674047E-03	2.330656E-05
4.092649E+03	1.728960E-03	2.400192E-05
4.102463E+03	1.784861E-03	2.470641E-05
4.112278E+03	1.841490E-03	2.541634E-05
4.122092E+03	1.898562E-03	2.612770E-05
4.131907E+03	1.956369E-03	2.684440E-05
4.141721E+03	2.014406E-03	2.755946E-05
4.151536E+03	2.072975E-03	2.827697E-05
4.161350E+03	2.131540E-03	2.898954E-05
4.171165E+03	2.190189E-03	2.969838E-05
4.180979E+03	2.249026E-03	3.040487E-05
4.190794E+03	2.307472E-03	3.110117E-05
4.200608E+03	2.365619E-03	3.178859E-05
4.210423E+03	2.423341E-03	3.246543E-05
4.220238E+03	2.480507E-03	3.313001E-05
4.230052E+03	2.536993E-03	3.378074E-05
4.239867E+03	2.592677E-03	3.441609E-05
4.249681E+03	2.647443E-03	3.503461E-05
4.259496E+03	2.700914E-03	3.563144E-05
4.269310E+03	2.753524E-03	3.621245E-05
4.279125E+03	2.804919E-03	3.677310E-05
4.288939E+03	2.854729E-03	3.730871E-05
4.298754E+03	2.903440E-03	3.782579E-05
4.308568E+03	2.950401E-03	3.831604E-05
4.318383E+03	2.995811E-03	3.878226E-05
4.328197E+03	3.039582E-03	3.922349E-05
4.338012E+03	3.081623E-03	3.963878E-05
4.347826E+03	3.121848E-03	4.002724E-05
4.357641E+03	3.160180E-03	4.038811E-05
4.367455E+03	3.196553E-03	4.072081E-05
4.377270E+03	3.230602E-03	4.102093E-05
4.387084E+03	3.262909E-03	4.129616E-05
4.396899E+03	3.292821E-03	4.153845E-05
4.406713E+03	3.320637E-03	4.175188E-05
4.416528E+03	3.346679E-03	4.194076E-05
4.426342E+03	3.370314E-03	4.209740E-05
4.436157E+03	3.391560E-03	4.222233E-05
4.445971E+03	3.411096E-03	4.232428E-05
4.455786E+03	3.428640E-03	4.239996E-05
4.465600E+03	3.443910E-03	4.244612E-05
4.475415E+03	3.457617E-03	4.247179E-05
4.485229E+03	3.469164E-03	4.246984E-05
4.495044E+03	3.478941E-03	4.244531E-05
4.504858E+03	3.487017E-03	4.239924E-05
4.514673E+03	3.493464E-03	4.233270E-05
4.524487E+03	3.498024E-03	4.224279E-05
4.534302E+03	3.501431E-03	4.213857E-05
4.544116E+03	3.503104E-03	4.201321E-05
4.553931E+03	3.503448E-03	4.187175E-05
4.563745E+03	3.502541E-03	4.171531E-05
4.573560E+03	3.500460E-03	4.154493E-05
4.583374E+03	3.497282E-03	4.136166E-05
4.593189E+03	3.493082E-03	4.116655E-05
4.603003E+03	3.487615E-03	4.095681E-05
4.612818E+03	3.481280E-03	4.073729E-05
4.622632E+03	3.474469E-03	4.051266E-05
4.632447E+03	3.466294E-03	4.027266E-05
4.642261E+03	3.457786E-03	4.002940E-05
4.652076E+03	3.448695E-03	3.978002E-05
4.661890E+03	3.438771E-03	3.952173E-05
4.671705E+03	3.428712E-03	3.926263E-05
4.681519E+03	3.417953E-03	3.899629E-05
4.691334E+03	3.406870E-03	3.872707E-05
4.701148E+03	3.395214E-03	3.845218E-05
4.710963E+03	3.383662E-03	3.817935E-05
4.720777E+03	3.371654E-03	3.790226E-05
4.730592E+03	3.359553E-03	3.762503E-05
4.740406E+03	3.347411E-03	3.734825E-05
4.750221E+03	3.335276E-03	3.707248E-05
4.760035E+03	3.323197E-03	3.679826E-05
4.769850E+03	3.310923E-03	3.652279E-05
4.779664E+03	3.299092E-03	3.625315E-05
4.789479E+03	3.287156E-03	3.598324E-05
4.799293E+03	3.275450E-03	3.571676E-05
4.809108E+03	3.263720E-03	3.545091E-05
4.818922E+03	3.252588E-03	3.519244E-05
4.828737E+03	3.241505E-03	3.493535E-05
4.838551E+03	3.231083E-03	3.468621E-05
4.848366E+03	3.220776E-03	3.443910E-05
4.858180E+03	3.210615E-03	3.419434E-05
4.867995E+03	3.201199E-03	3.395826E-05
4.877809E+03	3.191984E-03	3.372505E-05
4.887624E+03	3.183559E-03	3.350085E-05
4.897438E+03	3.175382E-03	3.327992E-05
4.907253E+03	3.167477E-03	3.306245E-05
4.917067E+03	3.160421E-03	3.285443E-05
4.926882E+03	3.153673E-03	3.265016E-05
4.936696E+03	3.147806E-03	3.245549E-05
4.946511E+03	3.142279E-03	3.226479E-05
4.956325E+03	3.137383E-03	3.208098E-05
4.966140E+03	3.132856E-03	3.190131E-05
4.975954E+03	3.129259E-03	3.173143E-05
4.985769E+03	3.126051E-03	3.156579E-05
4.995583E+03	3.123517E-03	3.140720E-05
5.005398E+03	3.121665E-03	3.125564E-05
5.015212E+03	3.120500E-03	3.111112E-05
5.025027E+03	3.119758E-03	3.097090E-05
5.034841E+03	3.119986E-03	3.084037E-05
5.044656E+03	3.120645E-03	3.071411E-05
5.054471E+03	3.122011E-03	3.059477E-05
5.064285E+03	3.123814E-03	3.047962E-05
5.074100E+03	3.126595E-03	3.037390E-05
5.083914E+03	3.129815E-03	3.027226E-05
5.093729E+03	3.133741E-03	3.017723E-05
5.103543E+03	3.138370E-03	3.008872E-05
5.113358E+03	3.143700E-03	3.000661E-05
5.123172E+03	3.149724E-03	2.993077E-05
5.132987E+03	3.156164E-03	2.985851E-05
5.142801E+03	3.163284E-03	2.979225E-05
5.152616E+03	3.171073E-03	2.973183E-05
5.162430E+03	3.179520E-03	2.967707E-05
5.172245E+03	3.188613E-03	2.962780E-05
5.182059E+03	3.198064E-03	2.958128E-05
5.191874E+03	3.208129E-03	2.953985E-05
5.201688E+03	3.218793E-03	2.950331E-05
5.211503E+03	3.230037E-03	2.947143E-05
5.221317E+03	3.241843E-03	2.944399E-05
5.231132E+03	3.253915E-03	2.941826E-05
5.240946E+03	3.266788E-03	2.939906E-05
5.250761E+03	3.279888E-03	2.938115E-05
5.260575E+03	3.293476E-03	2.936686E-05
5.270390E+03	3.307536E-03	2.935602E-05
5.280204E+03	3.321774E-03	2.934597E-05
5.290019E+03	3.336742E-03	2.934161E-05
5.299833E+03	3.351870E-03	2.933785E-05
5.309648E+03	3.367436E-03	2.933714E-05
5.319462E+03	3.383443E-03	2.933948E-05
5.329277E+03	3.399608E-03	2.934239E-05
5.339091E+03	3.416513E-03	2.935087E-05
5.348906E+03	3.433588E-03	2.935997E-05
5.358720E+03	3.451422E-03	2.937469E-05
5.368535E+03	3.469439E-03	2.939005E-05
5.378349E+03	3.487638E-03	2.940603E-05
5.388164E+03	3.506606E-03	2.942754E-05
5.397978E+03	3.526044E-03	2.945200E-05
5.407793E+03	3.545646E-03	2.947681E-05
5.417607E+03	3.565693E-03	2.950428E-05
5.427422E+03	3.586168E-03	2.953425E-05
5.437236E+03	3.607052E-03	2.956649E-05
5.447051E+03	3.628321E-03	2.960080E-05
5.456865E+03	3.649647E-03	2.963446E-05
5.466680E+03	3.671624E-03	2.967228E-05
5.476494E+03	3.693619E-03	2.970911E-05
5.486309E+03	3.715927E-03	2.974731E-05
5.496123E+03	3.738542E-03	2.978684E-05
5.505938E+03	3.761463E-03	2.982764E-05
5.515752E+03	3.784376E-03	2.986723E-05
5.525567E+03	3.807922E-03	2.991066E-05
5.535381E+03	3.831477E-03	2.995301E-05
5.545196E+03	3.855374E-03	2.999687E-05
5.555010E+03	3.879631E-03	3.004239E-05
5.564825E+03	3.904270E-03	3.008969E-05
5.574639E+03	3.928983E-03	3.013642E-05
5.584454E+03	3.954449E-03	3.018776E-05
5.594268E+03	3.980030E-03	3.023883E-05
5.604083E+03	4.006414E-03	3.029483E-05
5.613897E+03	4.032953E-03	3.035084E-05
5.623712E+03	4.060001E-03	3.040952E-05
5.633526E+03	4.087576E-03	3.047100E-05
5.643341E+03	4.115350E-03	3.053282E-05
5.653155E+03	4.144026E-03	3.060017E-05
5.662970E+03	4.172921E-03	3.066801E-05
5.672784E+03	4.202741E-03	3.074152E-05
5.682599E+03	4.232792E-03	3.081558E-05
5.692413E+03	4.263424E-03	3.089277E-05
5.702228E+03	4.294636E-03	3.097307E-05
5.712042E+03	4.326423E-03	3.105644E-05
5.721857E+03	4.358413E-03	3.114022E-05
5.731671E+03	4.391318E-03	3.122952E-05
5.741486E+03	4.424390E-03	3.131903E-05
5.751300E+03	4.458346E-03	3.141383E-05
5.761115E+03	4.492418E-03	3.150854E-05
5.770929E+03	4.526947E-03	3.160559E-05
5.780744E+03	4.561898E-03	3.170477E-05
5.790558E+03	4.597235E-03	3.180589E-05
5.800373E+03	4.632915E-03	3.190868E-05
5.810187E+03	4.668502E-03	3.201022E-05
5.820002E+03	4.704723E-03	3.211558E-05
5.829816E+03	4.740741E-03	3.221911E-05
5.839631E+03	4.776888E-03	3.232316E-05
5.849445E+03	4.813509E-03	3.243016E-05
5.859260E+03	4.849736E-03	3.253435E-05
5.869074E+03	4.885904E-03	3.263812E-05
5.878889E+03	4.921535E-03	3.273840E-05
5.888704E+03	4.957382E-03	3.284034E-05
5.898518E+03	4.992969E-03	3.294092E-05
5.908333E+03	5.027809E-03	3.303708E-05
5.918147E+03	5.062678E-03	3.313408E-05
5.927962E+03	5.096671E-03	3.322616E-05
5.937776E+03	5.130584E-03	3.331870E-05
5.947591E+03	5.163514E-03	3.340597E-05
5.957405E+03	5.195846E-03	3.349071E-05
5.967220E+03	5.227551E-03	3.357288E-05
5.977034E+03	5.258607E-03	3.365255E-05
5.986849E+03	5.289004E-03	3.372985E-05
5.996663E+03	5.318294E-03	3.380212E-05
6.006478E+03	5.347371E-03	3.387525E-05
6.016292E+03	5.375804E-03	3.394668E-05
6.026107E+03	5.403151E-03	3.401383E-05
6.035921E+03	5.430328E-03	3.408266E-05
6.045736E+03	5.456428E-03	3.414767E-05
6.055550E+03	5.481898E-03	3.421187E-05
6.065365E+03	5.506733E-03	3.427541E-05
6.075179E+03	5.530925E-03	3.433843E-05
6.084994E+03	5.554948E-03	3.440407E-05
6.094808E+03	5.577420E-03	3.446394E-05
6.104623E+03	5.599770E-03	3.452709E-05
6.114437E+03	5.621555E-03	3.459095E-05
6.124252E+03	5.642792E-03	3.465581E-05
6.134066E+03	5.663486E-03	3.472187E-05
6.143881E+03	5.683162E-03	3.478638E-05
6.153695E+03	5.702771E-03	3.485537E-05
6.163510E+03	5.721353E-03	3.492311E-05
6.173324E+03	5.739877E-03	3.499568E-05
6.183139E+03	5.757386E-03	3.506741E-05
6.192953E+03	5.774379E-03	3.514144E-05
6.202768E+03	5.790878E-03	3.521790E-05
6.212582E+03	5.807410E-03	3.529994E-05
6.222397E+03	5.823033E-03	3.538178E-05
6.232211E+03	5.838283E-03	3.546662E-05
6.242026E+03	5.853211E-03	3.555470E-05
6.251840E+03	5.867873E-03	3.564628E-05
6.261655E+03	5.881826E-03	3.573862E-05
6.271469E+03	5.896125E-03	3.583803E-05
6.281284E+03	5.910331E-03	3.594177E-05
6.291098E+03	5.924501E-03	3.605011E-05
6.300913E+03	5.938191E-03	3.616024E-05
6.310727E+03	5.952456E-03	3.627851E-05
6.320542E+03	5.966340E-03	3.639902E-05
6.330356E+03	5.980903E-03	3.652814E-05
6.340171E+03	5.995173E-03	3.665985E-05
6.349985E+03	6.010207E-03	3.680053E-05
6.359800E+03	6.025021E-03	3.694408E-05
6.369614E+03	6.040155E-03	3.709371E-05
6.379429E+03	6.056150E-03	3.725268E-05
6.389243E+03	6.072000E-03	3.741473E-05
6.399058E+03	6.088236E-03	3.758304E-05
6.408872E+03	6.104870E-03	3.775763E-05
6.418687E+03	6.121913E-03	3.793847E-05
6.428501E+03	6.139367E-03	3.812552E-05
6.438316E+03	6.157232E-03	3.831871E-05
6.448130E+03	6.175504E-03	3.851796E-05
6.457945E+03	6.194176E-03	3.872315E-05
6.467759E+03	6.213234E-03	3.893416E-05
6.477574E+03	6.232664E-03	3.915081E-05
6.487388E+03	6.252446E-03	3.937293E-05
6.497203E+03	6.272023E-03	3.959695E-05
6.507017E+03	6.292437E-03	3.982939E-05
6.516832E+03	6.313127E-03	4.006666E-05
6.526646E+03	6.333521E-03	4.030506E-05
6.536461E+03	6.354666E-03	4.055119E-05
6.546275E+03	6.375988E-03	4.080137E-05
6.556090E+03	6.396901E-03	4.105178E-05
6.565904E+03	6.418460E-03	4.130912E-05
6.575719E+03	6.439527E-03	4.156604E-05
6.585533E+03	6.460608E-03	4.182573E-05
6.595348E+03	6.482218E-03	4.209147E-05
6.605162E+03	6.503202E-03	4.235573E-05
6.614977E+03	6.524072E-03	4.262177E-05
6.624791E+03	6.545346E-03	4.289293E-05
6.634606E+03	6.565858E-03	4.316153E-05
6.644420E+03	6.586124E-03	4.343088E-05
6.654235E+03	6.606103E-03	4.370066E-05
6.664049E+03	6.626322E-03	4.397430E-05
6.673864E+03	6.645599E-03	4.424393E-05
6.683678E+03	6.664463E-03	4.451298E-05
6.693493E+03	6.682873E-03	4.478112E-05
6.703307E+03	6.700789E-03	4.504803E-05
6.713122E+03	6.718172E-03	4.531340E-05
6.722937E+03	6.734987E-03	4.557691E-05
6.732751E+03	6.751195E-03	4.583825E-05
6.742566E+03	6.766761E-03	4.609713E-05
6.752380E+03	6.781063E-03	4.634923E-05
6.762195E+03	6.795239E-03	4.660227E-05
6.772009E+03	6.808671E-03	4.685196E-05
6.781824E+03	6.821325E-03	4.709803E-05
6.791638E+03	6.833171E-03	4.734018E-05
6.801453E+03	6.843580E-03	4.757401E-05
6.811267E+03	6.853709E-03	4.780748E-05
6.821082E+03	6.862338E-03	4.803201E-05
6.830896E+03	6.870624E-03	4.825566E-05
6.840711E+03	6.877943E-03	4.847399E-05
6.850525E+03	6.883663E-03	4.868248E-05
6.860340E+03	6.888950E-03	4.888928E-05
6.870154E+03	6.892571E-03	4.908560E-05
6.879969E+03	6.895093E-03	4.927540E-05
6.889783E+03	6.897084E-03	4.946267E-05
6.899598E+03	6.897307E-03	4.963849E-05
6.909412E+03	6.896330E-03	4.980684E-05
6.919227E+03	6.894718E-03	4.997176E-05
6.929041E+03	6.891231E-03	5.012420E-05
6.938856E+03	6.886436E-03	5.026818E-05
6.948670E+03	6.880293E-03	5.040333E-05
6.958485E+03	6.872768E-03	5.052932E-05
6.968299E+03	6.864420E-03	5.065020E-05
6.978114E+03	6.854012E-03	5.075676E-05
6.987928E+03	6.842104E-03	5.085304E-05
6.997743E+03	6.828658E-03	5.093867E-05
7.007557E+03	6.813036E-03	5.100876E-05
7.017372E+03	6.796398E-03	5.107190E-05
7.027186E+03	6.778107E-03	5.112322E-05
7.037001E+03	6.758123E-03	5.116232E-05
7.046815E+03	6.736411E-03	5.118881E-05
7.056630E+03	6.712341E-03	5.119777E-05
7.066444E+03	6.687062E-03	5.119784E-05
7.076259E+03	6.659947E-03	5.118412E-05
7.086073E+03	6.630376E-03	5.115169E-05
7.095888E+03	6.599492E-03	5.110921E-05
7.105702E+03	6.566096E-03	5.104727E-05
7.115517E+03	6.531323E-03	5.097453E-05
7.125331E+03	6.493991E-03	5.088162E-05
7.135146E+03	6.454656E-03	5.077270E-05
7.144960E+03	6.413869E-03	5.065196E-05
7.154775E+03	6.370474E-03	5.051011E-05
7.164589E+03	6.325031E-03	5.035136E-05
7.174404E+03	6.277533E-03	5.017548E-05
7.184218E+03	6.227980E-03	4.998226E-05
7.194033E+03	6.176375E-03	4.977156E-05
7.203847E+03	6.122731E-03	4.954325E-05
7.213662E+03	6.067068E-03	4.929728E-05
7.223476E+03	6.009416E-03	4.903370E-05
7.233291E+03	5.949812E-03	4.875259E-05
7.243105E+03	5.888309E-03	4.845415E-05
7.252920E+03	5.824446E-03	4.813437E-05
7.262734E+03	5.759342E-03	4.780225E-05
7.272549E+03	5.692558E-03	4.745396E-05
7.282363E+03	5.623689E-03	4.708589E-05
7.292178E+03	5.553858E-03	4.670722E-05
7.301992E+03	5.482184E-03	4.631033E-05
7.311807E+03	5.409299E-03	4.590028E-05
7.321621E+03	5.335816E-03	4.548198E-05
7.331436E+03	5.260899E-03	4.504807E-05
7.341250E+03	5.185164E-03	4.460353E-05
7.351065E+03	5.108729E-03	4.414913E-05
7.360879E+03	5.031708E-03	4.368564E-05
7.370694E+03	4.954202E-03	4.321372E-05
7.380508E+03	4.876317E-03	4.273410E-05
7.390323E+03	4.798150E-03	4.224746E-05
7.400137E+03	4.719795E-03	4.175445E-05
7.409952E+03	4.640920E-03	4.125197E-05
7.419766E+03	4.562445E-03	4.074804E-05
7.429581E+03	4.483612E-03	4.023578E-05
7.439395E+03	4.405309E-03	3.972302E-05
7.449210E+03	4.326802E-03	3.920308E-05
7.459024E+03	4.248955E-03	3.868367E-05
7.468839E+03	4.171065E-03	3.815833E-05
7.478653E+03	4.093603E-03	3.763128E-05
7.488468E+03	4.016649E-03	3.710322E-05
7.498282E+03	3.940286E-03	3.657486E-05
7.508097E+03	3.864595E-03	3.604696E-05
7.517911E+03	3.789655E-03	3.552026E-05
7.527726E+03	3.715547E-03	3.499551E-05
7.537540E+03	3.642343E-03	3.447343E-05
7.547355E+03	3.570115E-03	3.395476E-05
7.557169E+03	3.498606E-03	3.343707E-05
7.566984E+03	3.428522E-03	3.292718E-05
7.576799E+03	3.359283E-03	3.241961E-05
7.586613E+03	3.291556E-03	3.192089E-05
7.596428E+03	3.224771E-03	3.142561E-05
7.606242E+03	3.159272E-03	3.093719E-05
7.616057E+03	3.095085E-03	3.045602E-05
