#wls	flux	fluxerr
1.593911E+03	2.608589E-15	1.346234E-17
1.633759E+03	2.882020E-15	1.478726E-17
1.673607E+03	3.158702E-15	1.611019E-17
1.713455E+03	3.433099E-15	1.740214E-17
1.753302E+03	3.698012E-15	1.862642E-17
1.793150E+03	3.940465E-15	1.971840E-17
1.832998E+03	4.143147E-15	2.059366E-17
1.872846E+03	4.285344E-15	2.115343E-17
1.912694E+03	4.345594E-15	2.129838E-17
1.952541E+03	4.308047E-15	2.095982E-17
1.992389E+03	4.173297E-15	2.015120E-17
2.032237E+03	3.970804E-15	1.902463E-17
2.072085E+03	3.763742E-15	1.788842E-17
2.111932E+03	3.635897E-15	1.713852E-17
2.151780E+03	3.662005E-15	1.711521E-17
2.191628E+03	3.880602E-15	1.797846E-17
2.231476E+03	4.283113E-15	1.966471E-17
2.271324E+03	4.821007E-15	2.192913E-17
2.311171E+03	5.427801E-15	2.445347E-17
2.351019E+03	6.039288E-15	2.694067E-17
2.390867E+03	6.606727E-15	2.917320E-17
2.430715E+03	7.101892E-15	3.103212E-17
2.470562E+03	7.514984E-15	3.248370E-17
2.510410E+03	7.849305E-15	3.355245E-17
2.550258E+03	8.115074E-15	3.429193E-17
2.590106E+03	8.321721E-15	3.475082E-17
2.629954E+03	8.477396E-15	3.497096E-17
2.669801E+03	8.589160E-15	3.498845E-17
2.709649E+03	8.662836E-15	3.483317E-17
2.749497E+03	8.703176E-15	3.452982E-17
2.789345E+03	8.714072E-15	3.409887E-17
2.829192E+03	8.698742E-15	3.355758E-17
2.869040E+03	8.659860E-15	3.292057E-17
2.908888E+03	8.599605E-15	3.220015E-17
2.948736E+03	8.519777E-15	3.140690E-17
2.988584E+03	8.421834E-15	3.054985E-17
2.998546E+03	8.394661E-15	3.032655E-17
3.008508E+03	8.366430E-15	3.009982E-17
3.018469E+03	8.337189E-15	2.986986E-17
3.028431E+03	8.307027E-15	2.963706E-17
3.038393E+03	8.276375E-15	2.940300E-17
3.048355E+03	8.245961E-15	2.917028E-17
3.058317E+03	8.216790E-15	2.894243E-17
3.068279E+03	8.188442E-15	2.871794E-17
3.078241E+03	8.160631E-15	2.849577E-17
3.088203E+03	8.133085E-15	2.827497E-17
3.098165E+03	8.105505E-15	2.805450E-17
3.108127E+03	8.077701E-15	2.783370E-17
3.118089E+03	8.049449E-15	2.761183E-17
3.128051E+03	8.020585E-15	2.738837E-17
3.138013E+03	7.990951E-15	2.716280E-17
3.147975E+03	7.960429E-15	2.693478E-17
3.157937E+03	7.928897E-15	2.670394E-17
3.167899E+03	7.896254E-15	2.647000E-17
3.177861E+03	7.862434E-15	2.623280E-17
3.187823E+03	7.827364E-15	2.599217E-17
3.197784E+03	7.790985E-15	2.574798E-17
3.207746E+03	7.753292E-15	2.550028E-17
3.217708E+03	7.714232E-15	2.524898E-17
3.227670E+03	7.673802E-15	2.499414E-17
3.237632E+03	7.631987E-15	2.473579E-17
3.247594E+03	7.588822E-15	2.447411E-17
3.257556E+03	7.544314E-15	2.420922E-17
3.267518E+03	7.498454E-15	2.394115E-17
3.277480E+03	7.451322E-15	2.367023E-17
3.287442E+03	7.402909E-15	2.339652E-17
3.297404E+03	7.353302E-15	2.312035E-17
3.307366E+03	7.302524E-15	2.284188E-17
3.317328E+03	7.250622E-15	2.256132E-17
3.327290E+03	7.197683E-15	2.227899E-17
3.337252E+03	7.143763E-15	2.199515E-17
3.347214E+03	7.088924E-15	2.171004E-17
3.357176E+03	7.033233E-15	2.142392E-17
3.367138E+03	6.976753E-15	2.113705E-17
3.377099E+03	6.919598E-15	2.084980E-17
3.387061E+03	6.861807E-15	2.056236E-17
3.397023E+03	6.803473E-15	2.027503E-17
3.406985E+03	6.744680E-15	1.998811E-17
3.416947E+03	6.685487E-15	1.970181E-17
3.426909E+03	6.626018E-15	1.941652E-17
3.436871E+03	6.566333E-15	1.913245E-17
3.446833E+03	6.506572E-15	1.885003E-17
3.456795E+03	6.446793E-15	1.856943E-17
3.466757E+03	6.387095E-15	1.829096E-17
3.476719E+03	6.327564E-15	1.801487E-17
3.486681E+03	6.268287E-15	1.774142E-17
3.496643E+03	6.209329E-15	1.747077E-17
3.506605E+03	6.150739E-15	1.720307E-17
3.516567E+03	6.092603E-15	1.693856E-17
3.526529E+03	6.034917E-15	1.667720E-17
3.536491E+03	5.977748E-15	1.641918E-17
3.546453E+03	5.921094E-15	1.616446E-17
3.556414E+03	5.864974E-15	1.591310E-17
3.566376E+03	5.809365E-15	1.566502E-17
3.576338E+03	5.754288E-15	1.542025E-17
3.586300E+03	5.699680E-15	1.517862E-17
3.596262E+03	5.645537E-15	1.494009E-17
3.606224E+03	5.591817E-15	1.470456E-17
3.616186E+03	5.538453E-15	1.447183E-17
3.626148E+03	5.485406E-15	1.424180E-17
3.636110E+03	5.432637E-15	1.401436E-17
3.646072E+03	5.380070E-15	1.378932E-17
3.656034E+03	5.327686E-15	1.356662E-17
3.665996E+03	5.275429E-15	1.334613E-17
3.675958E+03	5.223260E-15	1.312775E-17
3.685920E+03	5.171136E-15	1.291139E-17
3.695882E+03	5.119083E-15	1.269711E-17
3.705844E+03	5.067047E-15	1.248478E-17
3.715806E+03	5.015075E-15	1.227454E-17
3.725768E+03	4.963153E-15	1.206636E-17
3.735730E+03	4.911325E-15	1.186034E-17
3.745691E+03	4.859620E-15	1.165657E-17
3.755653E+03	4.808099E-15	1.145519E-17
3.765615E+03	4.756787E-15	1.125626E-17
3.775577E+03	4.705789E-15	1.106002E-17
3.785539E+03	4.655118E-15	1.086650E-17
3.795501E+03	4.604868E-15	1.067591E-17
3.805463E+03	4.555094E-15	1.048837E-17
3.815425E+03	4.505837E-15	1.030395E-17
3.825387E+03	4.457152E-15	1.012275E-17
3.835349E+03	4.409079E-15	9.944864E-18
3.845311E+03	4.361660E-15	9.770349E-18
3.855273E+03	4.314878E-15	9.599142E-18
3.865235E+03	4.268782E-15	9.431336E-18
3.875197E+03	4.223336E-15	9.266823E-18
3.885159E+03	4.178552E-15	9.105606E-18
3.895121E+03	4.134381E-15	8.947555E-18
3.905083E+03	4.090800E-15	8.792600E-18
3.915045E+03	4.047766E-15	8.640626E-18
3.925006E+03	4.005238E-15	8.491533E-18
3.934968E+03	3.963148E-15	8.345155E-18
3.944930E+03	3.921471E-15	8.201428E-18
3.954892E+03	3.880130E-15	8.060180E-18
3.964854E+03	3.839090E-15	7.921326E-18
3.974816E+03	3.798303E-15	7.784761E-18
3.984778E+03	3.757741E-15	7.650421E-18
3.994740E+03	3.717354E-15	7.518197E-18
4.004702E+03	3.677139E-15	7.388080E-18
4.014664E+03	3.637093E-15	7.260056E-18
4.024626E+03	3.597220E-15	7.134130E-18
4.034588E+03	3.557512E-15	7.010279E-18
4.044550E+03	3.518022E-15	6.888602E-18
4.054512E+03	3.478773E-15	6.769133E-18
4.064474E+03	3.439822E-15	6.651972E-18
4.074436E+03	3.401211E-15	6.537187E-18
4.084398E+03	3.363034E-15	6.424945E-18
4.094360E+03	3.325332E-15	6.315305E-18
4.104321E+03	3.288198E-15	6.208421E-18
4.114283E+03	3.251726E-15	6.104445E-18
4.124245E+03	3.215970E-15	6.003456E-18
4.134207E+03	3.181030E-15	5.905608E-18
4.144169E+03	3.146984E-15	5.811017E-18
4.154131E+03	3.113900E-15	5.719773E-18
4.164093E+03	3.081851E-15	5.631977E-18
4.174055E+03	3.050907E-15	5.547719E-18
4.184017E+03	3.021098E-15	5.467019E-18
4.193979E+03	2.992479E-15	5.389941E-18
4.203941E+03	2.965097E-15	5.316529E-18
4.213903E+03	2.938963E-15	5.246769E-18
4.223865E+03	2.914103E-15	5.180672E-18
4.233827E+03	2.890495E-15	5.118162E-18
4.243789E+03	2.868154E-15	5.059239E-18
4.253751E+03	2.847068E-15	5.003847E-18
4.263713E+03	2.827186E-15	4.951867E-18
4.273675E+03	2.808511E-15	4.903281E-18
4.283637E+03	2.790997E-15	4.857983E-18
4.293598E+03	2.774633E-15	4.815929E-18
4.303560E+03	2.759418E-15	4.777095E-18
4.313522E+03	2.745335E-15	4.741412E-18
4.323484E+03	2.732415E-15	4.708886E-18
4.333446E+03	2.720736E-15	4.679605E-18
4.343408E+03	2.710404E-15	4.653708E-18
4.353370E+03	2.701647E-15	4.631544E-18
4.363332E+03	2.694826E-15	4.613689E-18
4.373294E+03	2.690479E-15	4.601022E-18
4.383256E+03	2.688549E-15	4.593409E-18
4.393218E+03	2.688519E-15	4.589932E-18
4.403180E+03	2.690001E-15	4.589898E-18
4.413142E+03	2.692758E-15	4.592882E-18
4.423104E+03	2.696636E-15	4.598599E-18
4.433066E+03	2.701526E-15	4.606843E-18
4.443028E+03	2.707352E-15	4.617465E-18
4.452990E+03	2.714030E-15	4.630305E-18
4.462952E+03	2.721502E-15	4.645248E-18
4.472913E+03	2.729712E-15	4.662186E-18
4.482875E+03	2.738618E-15	4.681029E-18
4.492837E+03	2.748140E-15	4.701630E-18
4.502799E+03	2.758240E-15	4.723909E-18
4.512761E+03	2.768863E-15	4.747756E-18
4.522723E+03	2.779942E-15	4.773047E-18
4.532685E+03	2.791454E-15	4.799729E-18
4.542647E+03	2.803318E-15	4.827651E-18
4.552609E+03	2.815508E-15	4.856750E-18
4.562571E+03	2.827952E-15	4.886893E-18
4.572533E+03	2.840598E-15	4.917976E-18
4.582495E+03	2.853421E-15	4.949938E-18
4.592457E+03	2.866360E-15	4.982664E-18
4.602419E+03	2.879322E-15	5.015977E-18
4.612381E+03	2.892271E-15	5.049795E-18
4.622343E+03	2.905220E-15	5.084125E-18
4.632305E+03	2.918186E-15	5.118983E-18
4.642267E+03	2.931234E-15	5.154467E-18
4.652228E+03	2.944426E-15	5.190671E-18
4.662190E+03	2.957766E-15	5.227589E-18
4.672152E+03	2.971272E-15	5.265239E-18
4.682114E+03	2.984998E-15	5.303705E-18
4.692076E+03	2.998892E-15	5.342878E-18
4.702038E+03	3.012970E-15	5.382780E-18
4.712000E+03	3.027203E-15	5.423343E-18
4.721962E+03	3.041542E-15	5.464466E-18
4.731924E+03	3.055936E-15	5.506048E-18
4.741886E+03	3.070312E-15	5.547939E-18
4.751848E+03	3.084590E-15	5.589985E-18
4.761810E+03	3.098657E-15	5.631960E-18
4.771772E+03	3.112413E-15	5.673668E-18
4.781734E+03	3.125749E-15	5.714889E-18
4.791696E+03	3.138546E-15	5.755385E-18
4.801658E+03	3.150642E-15	5.794837E-18
4.811620E+03	3.161939E-15	5.833040E-18
4.821582E+03	3.172295E-15	5.869704E-18
4.831544E+03	3.181601E-15	5.904599E-18
4.841505E+03	3.189727E-15	5.937454E-18
4.851467E+03	3.196578E-15	5.968058E-18
4.861429E+03	3.202072E-15	5.996227E-18
4.871391E+03	3.206116E-15	6.021750E-18
4.881353E+03	3.208632E-15	6.044448E-18
4.891315E+03	3.209616E-15	6.064273E-18
4.901277E+03	3.208998E-15	6.081060E-18
4.911239E+03	3.206800E-15	6.094816E-18
4.921201E+03	3.202993E-15	6.105444E-18
4.931163E+03	3.197636E-15	6.113027E-18
4.941125E+03	3.190775E-15	6.117618E-18
4.951087E+03	3.182423E-15	6.119208E-18
4.961049E+03	3.172652E-15	6.117906E-18
4.971011E+03	3.161545E-15	6.113843E-18
4.980973E+03	3.149192E-15	6.107166E-18
4.990935E+03	3.135664E-15	6.097984E-18
5.000897E+03	3.121059E-15	6.086468E-18
5.010859E+03	3.105450E-15	6.072740E-18
5.020820E+03	3.088940E-15	6.056979E-18
5.030782E+03	3.071651E-15	6.039411E-18
5.040744E+03	3.053600E-15	6.020053E-18
5.050706E+03	3.034931E-15	5.999175E-18
5.060668E+03	3.015676E-15	5.976831E-18
5.070630E+03	2.995941E-15	5.953223E-18
5.080592E+03	2.975775E-15	5.928436E-18
5.090554E+03	2.955217E-15	5.902545E-18
5.100516E+03	2.934357E-15	5.875722E-18
5.110478E+03	2.913221E-15	5.848018E-18
5.120440E+03	2.891858E-15	5.819530E-18
5.130402E+03	2.870287E-15	5.790290E-18
5.140364E+03	2.848546E-15	5.760375E-18
5.150326E+03	2.826696E-15	5.729908E-18
5.160288E+03	2.804687E-15	5.698791E-18
5.170250E+03	2.782600E-15	5.667187E-18
5.180212E+03	2.760434E-15	5.635094E-18
5.190174E+03	2.738209E-15	5.602559E-18
5.200135E+03	2.715921E-15	5.569573E-18
5.210097E+03	2.693589E-15	5.536180E-18
5.220059E+03	2.671231E-15	5.502418E-18
5.230021E+03	2.648864E-15	5.468327E-18
5.239983E+03	2.626479E-15	5.433893E-18
5.249945E+03	2.604117E-15	5.399204E-18
5.259907E+03	2.581745E-15	5.364195E-18
5.269869E+03	2.559402E-15	5.328951E-18
5.279831E+03	2.537125E-15	5.293557E-18
5.289793E+03	2.514879E-15	5.257945E-18
5.299755E+03	2.492700E-15	5.222194E-18
5.309717E+03	2.470575E-15	5.186282E-18
5.319679E+03	2.448560E-15	5.150331E-18
5.329641E+03	2.426661E-15	5.114364E-18
5.339603E+03	2.404860E-15	5.078346E-18
5.349565E+03	2.383204E-15	5.042386E-18
5.359527E+03	2.361719E-15	5.006540E-18
5.369489E+03	2.340376E-15	4.970759E-18
5.379450E+03	2.319171E-15	4.935035E-18
5.389412E+03	2.298072E-15	4.899309E-18
5.399374E+03	2.276963E-15	4.863329E-18
5.409336E+03	2.255616E-15	4.826609E-18
5.419298E+03	2.233974E-15	4.789025E-18
5.429260E+03	2.212197E-15	4.750917E-18
5.439222E+03	2.190378E-15	4.712484E-18
5.449184E+03	2.168634E-15	4.673977E-18
5.459146E+03	2.147159E-15	4.635815E-18
5.469108E+03	2.126197E-15	4.598536E-18
5.479070E+03	2.105985E-15	4.562655E-18
5.489032E+03	2.086231E-15	4.527548E-18
5.498994E+03	2.066690E-15	4.492690E-18
5.508956E+03	2.047301E-15	4.457952E-18
5.518918E+03	2.028012E-15	4.423225E-18
5.528880E+03	2.008813E-15	4.388486E-18
5.538842E+03	1.989775E-15	4.353895E-18
5.548804E+03	1.970938E-15	4.319545E-18
5.558766E+03	1.952325E-15	4.285489E-18
5.568727E+03	1.934001E-15	4.251872E-18
5.578689E+03	1.916028E-15	4.218839E-18
5.588651E+03	1.898424E-15	4.186433E-18
5.598613E+03	1.881245E-15	4.154784E-18
5.608575E+03	1.864521E-15	4.123965E-18
5.618537E+03	1.848299E-15	4.094088E-18
5.628499E+03	1.832602E-15	4.065210E-18
5.638461E+03	1.817446E-15	4.037376E-18
5.648423E+03	1.802847E-15	4.010624E-18
5.658385E+03	1.788852E-15	3.985071E-18
5.668347E+03	1.775445E-15	3.960690E-18
5.678309E+03	1.762627E-15	3.937487E-18
5.688271E+03	1.750414E-15	3.915507E-18
5.698233E+03	1.738795E-15	3.894736E-18
5.708195E+03	1.727780E-15	3.875202E-18
5.718157E+03	1.717332E-15	3.856830E-18
5.728119E+03	1.707451E-15	3.839627E-18
5.738081E+03	1.698134E-15	3.823595E-18
5.748042E+03	1.689336E-15	3.808639E-18
5.758004E+03	1.681028E-15	3.794702E-18
5.767966E+03	1.673220E-15	3.781812E-18
5.777928E+03	1.665862E-15	3.769863E-18
5.787890E+03	1.658941E-15	3.758831E-18
5.797852E+03	1.652404E-15	3.748603E-18
5.807814E+03	1.646258E-15	3.739204E-18
5.817776E+03	1.640433E-15	3.730475E-18
5.827738E+03	1.634937E-15	3.722445E-18
5.837700E+03	1.629741E-15	3.715051E-18
5.847662E+03	1.624819E-15	3.708239E-18
5.857624E+03	1.620145E-15	3.701956E-18
5.867586E+03	1.615699E-15	3.696159E-18
5.877548E+03	1.611461E-15	3.690809E-18
5.887510E+03	1.607455E-15	3.685966E-18
5.897472E+03	1.603628E-15	3.681513E-18
5.907434E+03	1.599990E-15	3.677479E-18
5.917396E+03	1.596557E-15	3.673902E-18
5.927357E+03	1.593282E-15	3.670685E-18
5.937319E+03	1.590228E-15	3.667972E-18
5.947281E+03	1.587355E-15	3.665679E-18
5.957243E+03	1.584689E-15	3.663870E-18
5.967205E+03	1.582216E-15	3.662520E-18
5.977167E+03	1.579987E-15	3.661752E-18
5.987129E+03	1.577992E-15	3.661550E-18
5.997091E+03	1.576267E-15	3.661999E-18
6.007053E+03	1.574783E-15	3.663040E-18
6.017015E+03	1.573619E-15	3.664865E-18
6.026977E+03	1.572749E-15	3.667421E-18
6.036939E+03	1.572213E-15	3.670805E-18
6.046901E+03	1.572029E-15	3.675070E-18
6.056863E+03	1.572217E-15	3.680267E-18
6.066825E+03	1.572796E-15	3.686450E-18
6.076787E+03	1.573808E-15	3.693726E-18
6.086749E+03	1.575273E-15	3.702152E-18
6.096711E+03	1.577190E-15	3.711735E-18
6.106673E+03	1.579580E-15	3.722530E-18
6.116634E+03	1.582439E-15	3.734545E-18
6.126596E+03	1.585789E-15	3.747836E-18
6.136558E+03	1.589603E-15	3.762353E-18
6.146520E+03	1.593900E-15	3.778152E-18
6.156482E+03	1.598676E-15	3.795233E-18
6.166444E+03	1.603949E-15	3.813651E-18
6.176406E+03	1.609712E-15	3.833402E-18
6.186368E+03	1.615982E-15	3.854539E-18
6.196330E+03	1.622751E-15	3.877056E-18
6.206292E+03	1.630034E-15	3.901001E-18
6.216254E+03	1.637844E-15	3.926421E-18
6.226216E+03	1.646170E-15	3.953302E-18
6.236178E+03	1.655048E-15	3.981748E-18
6.246140E+03	1.664463E-15	4.011735E-18
6.256102E+03	1.674449E-15	4.043363E-18
6.266064E+03	1.684960E-15	4.076538E-18
6.276026E+03	1.696050E-15	4.111409E-18
6.285988E+03	1.707668E-15	4.147867E-18
6.295949E+03	1.719836E-15	4.185982E-18
6.305911E+03	1.732542E-15	4.225752E-18
6.315873E+03	1.745745E-15	4.267088E-18
6.325835E+03	1.759449E-15	4.310021E-18
6.335797E+03	1.773594E-15	4.354424E-18
6.345759E+03	1.788166E-15	4.400284E-18
6.355721E+03	1.803113E-15	4.447490E-18
6.365683E+03	1.818370E-15	4.495900E-18
6.375645E+03	1.833826E-15	4.545259E-18
6.385607E+03	1.849476E-15	4.595571E-18
6.395569E+03	1.865149E-15	4.646425E-18
6.405531E+03	1.880746E-15	4.697593E-18
6.415493E+03	1.896156E-15	4.748806E-18
6.425455E+03	1.911222E-15	4.799682E-18
6.435417E+03	1.925777E-15	4.849804E-18
6.445379E+03	1.939648E-15	4.898740E-18
6.455341E+03	1.952699E-15	4.946141E-18
6.465303E+03	1.964812E-15	4.991689E-18
6.475264E+03	1.975803E-15	5.034898E-18
6.485226E+03	1.985678E-15	5.075756E-18
6.495188E+03	1.994428E-15	5.114215E-18
6.505150E+03	2.002220E-15	5.150675E-18
6.515112E+03	2.009077E-15	5.185167E-18
6.525074E+03	2.014644E-15	5.216748E-18
6.535036E+03	2.018760E-15	5.244966E-18
6.544998E+03	2.021328E-15	5.269526E-18
6.554960E+03	2.022326E-15	5.290322E-18
6.564922E+03	2.021821E-15	5.307483E-18
6.574884E+03	2.019844E-15	5.321042E-18
6.584846E+03	2.016484E-15	5.331191E-18
6.594808E+03	2.011883E-15	5.338256E-18
6.604770E+03	2.006115E-15	5.342394E-18
6.614732E+03	1.999333E-15	5.343969E-18
6.624694E+03	1.991612E-15	5.343147E-18
6.634656E+03	1.983064E-15	5.340192E-18
6.644618E+03	1.973797E-15	5.335361E-18
6.654580E+03	1.963950E-15	5.329000E-18
6.664541E+03	1.953584E-15	5.321250E-18
6.674503E+03	1.942792E-15	5.312338E-18
6.684465E+03	1.931697E-15	5.302582E-18
6.694427E+03	1.920344E-15	5.292083E-18
6.704389E+03	1.908810E-15	5.281038E-18
6.714351E+03	1.897164E-15	5.269628E-18
6.724313E+03	1.885473E-15	5.258021E-18
6.734275E+03	1.873795E-15	5.246373E-18
6.744237E+03	1.862186E-15	5.234833E-18
6.754199E+03	1.850730E-15	5.223631E-18
6.764161E+03	1.839398E-15	5.212685E-18
6.774123E+03	1.828265E-15	5.202203E-18
6.784085E+03	1.817329E-15	5.192177E-18
6.794047E+03	1.806691E-15	5.182898E-18
6.804009E+03	1.796301E-15	5.174226E-18
6.813971E+03	1.786217E-15	5.166327E-18
6.823933E+03	1.776415E-15	5.159142E-18
6.833895E+03	1.766946E-15	5.152816E-18
6.843856E+03	1.757778E-15	5.147265E-18
6.853818E+03	1.748953E-15	5.142616E-18
6.863780E+03	1.740434E-15	5.138769E-18
6.873742E+03	1.732258E-15	5.135834E-18
6.883704E+03	1.724346E-15	5.133587E-18
6.893666E+03	1.716763E-15	5.132228E-18
6.903628E+03	1.709466E-15	5.131631E-18
6.913590E+03	1.702444E-15	5.131772E-18
6.923552E+03	1.695723E-15	5.132732E-18
6.933514E+03	1.689218E-15	5.134260E-18
6.943476E+03	1.682951E-15	5.136431E-18
6.953438E+03	1.676910E-15	5.139207E-18
6.963400E+03	1.671045E-15	5.142444E-18
6.973362E+03	1.665415E-15	5.146321E-18
6.983324E+03	1.659935E-15	5.150583E-18
6.993286E+03	1.654590E-15	5.155188E-18
7.003248E+03	1.649406E-15	5.160210E-18
7.013210E+03	1.644369E-15	5.165618E-18
7.023171E+03	1.639434E-15	5.171264E-18
7.033133E+03	1.634625E-15	5.177228E-18
7.043095E+03	1.629895E-15	5.183366E-18
7.053057E+03	1.625239E-15	5.189653E-18
7.063019E+03	1.620646E-15	5.196061E-18
7.072981E+03	1.616110E-15	5.202567E-18
7.082943E+03	1.611662E-15	5.209271E-18
7.092905E+03	1.607259E-15	5.216035E-18
7.102867E+03	1.602862E-15	5.222729E-18
7.112829E+03	1.598540E-15	5.229578E-18
7.122791E+03	1.594219E-15	5.236335E-18
7.132753E+03	1.589933E-15	5.243117E-18
7.142715E+03	1.585683E-15	5.249919E-18
7.152677E+03	1.581469E-15	5.256747E-18
7.162639E+03	1.577257E-15	5.263481E-18
7.172601E+03	1.573087E-15	5.270254E-18
7.182563E+03	1.568961E-15	5.277074E-18
7.192525E+03	1.564850E-15	5.283840E-18
7.202487E+03	1.560793E-15	5.290688E-18
7.212448E+03	1.556726E-15	5.297393E-18
7.222410E+03	1.552765E-15	5.304355E-18
7.232372E+03	1.548844E-15	5.311346E-18
7.242334E+03	1.544972E-15	5.318400E-18
7.252296E+03	1.541158E-15	5.325544E-18
7.262258E+03	1.537410E-15	5.332809E-18
7.272220E+03	1.533775E-15	5.340360E-18
7.282182E+03	1.530224E-15	5.348100E-18
7.292144E+03	1.526731E-15	5.355936E-18
7.302106E+03	1.523377E-15	5.364156E-18
7.312068E+03	1.520136E-15	5.372670E-18
7.322030E+03	1.517014E-15	5.381505E-18
7.331992E+03	1.514020E-15	5.390695E-18
7.341954E+03	1.511160E-15	5.400268E-18
7.351916E+03	1.508405E-15	5.410117E-18
7.361878E+03	1.505833E-15	5.420531E-18
7.371840E+03	1.503413E-15	5.431406E-18
7.381802E+03	1.501113E-15	5.442622E-18
7.391763E+03	1.499010E-15	5.454474E-18
7.401725E+03	1.497071E-15	5.466841E-18
7.411687E+03	1.495260E-15	5.479597E-18
7.421649E+03	1.493655E-15	5.493033E-18
7.431611E+03	1.492259E-15	5.507165E-18
7.441573E+03	1.490995E-15	5.521722E-18
7.451535E+03	1.489980E-15	5.537137E-18
7.461497E+03	1.489100E-15	5.552993E-18
7.471459E+03	1.488431E-15	5.569579E-18
7.481421E+03	1.487896E-15	5.586616E-18
7.491383E+03	1.487610E-15	5.604542E-18
7.501345E+03	1.487458E-15	5.622926E-18
7.511307E+03	1.487515E-15	5.642063E-18
7.521269E+03	1.487743E-15	5.661807E-18
7.531231E+03	1.488138E-15	5.682153E-18
7.541193E+03	1.488697E-15	5.703100E-18
7.551155E+03	1.489460E-15	5.724797E-18
7.561117E+03	1.490381E-15	5.747082E-18
7.571078E+03	1.491458E-15	5.769948E-18
7.581040E+03	1.492727E-15	5.793537E-18
7.591002E+03	1.494141E-15	5.817679E-18
7.600964E+03	1.495694E-15	5.842352E-18
7.610926E+03	1.497380E-15	5.867538E-18
7.620888E+03	1.499232E-15	5.893367E-18
7.630850E+03	1.501201E-15	5.919654E-18
7.640812E+03	1.503318E-15	5.946526E-18
7.650774E+03	1.505493E-15	5.973627E-18
7.660736E+03	1.507796E-15	6.001243E-18
7.670698E+03	1.510219E-15	6.029340E-18
7.680660E+03	1.512665E-15	6.057534E-18
7.690622E+03	1.515209E-15	6.086126E-18
7.700584E+03	1.517839E-15	6.115075E-18
7.710546E+03	1.520457E-15	6.143984E-18
7.720508E+03	1.523140E-15	6.173161E-18
7.730470E+03	1.525832E-15	6.202385E-18
