#wls	flux	fluxerr
1.593911E+03	4.331658E-16	5.326596E-18
1.633759E+03	4.568320E-16	5.604993E-18
1.673607E+03	4.779901E-16	5.851069E-18
1.713455E+03	4.961346E-16	6.058819E-18
1.753302E+03	5.106718E-16	6.221229E-18
1.793150E+03	5.204603E-16	6.324714E-18
1.832998E+03	5.240933E-16	6.352630E-18
1.872846E+03	5.200980E-16	6.287732E-18
1.912694E+03	5.072140E-16	6.115548E-18
1.952541E+03	4.850500E-16	5.832261E-18
1.992389E+03	4.549992E-16	5.455541E-18
2.032237E+03	4.212379E-16	5.036180E-18
2.072085E+03	3.907987E-16	4.658463E-18
2.111932E+03	3.721198E-16	4.422389E-18
2.151780E+03	3.725081E-16	4.413290E-18
2.191628E+03	3.961919E-16	4.678995E-18
2.231476E+03	4.438825E-16	5.225192E-18
2.271324E+03	5.132603E-16	6.021790E-18
2.311171E+03	6.001492E-16	7.017245E-18
2.351019E+03	6.997461E-16	8.153287E-18
2.390867E+03	8.077653E-16	9.378363E-18
2.430715E+03	9.209788E-16	1.065382E-17
2.470562E+03	1.037210E-15	1.195363E-17
2.510410E+03	1.155204E-15	1.326271E-17
2.550258E+03	1.274265E-15	1.457259E-17
2.590106E+03	1.394088E-15	1.587934E-17
2.629954E+03	1.514535E-15	1.718100E-17
2.669801E+03	1.635611E-15	1.847726E-17
2.709649E+03	1.757428E-15	1.976897E-17
2.749497E+03	1.880230E-15	2.105846E-17
2.789345E+03	2.004511E-15	2.235082E-17
2.829192E+03	2.130816E-15	2.365156E-17
2.869040E+03	2.259561E-15	2.496466E-17
2.908888E+03	2.391148E-15	2.629391E-17
2.948736E+03	2.525810E-15	2.764108E-17
2.988584E+03	2.663530E-15	2.900522E-17
2.998546E+03	2.698448E-15	2.934892E-17
3.008508E+03	2.733518E-15	2.969320E-17
3.018469E+03	2.768784E-15	3.003851E-17
3.028431E+03	2.804242E-15	3.038481E-17
3.038393E+03	2.840039E-15	3.073367E-17
3.048355E+03	2.876423E-15	3.108775E-17
3.058317E+03	2.913746E-15	3.145084E-17
3.068279E+03	2.951907E-15	3.182177E-17
3.078241E+03	2.990808E-15	3.219948E-17
3.088203E+03	3.030334E-15	3.258268E-17
3.098165E+03	3.070423E-15	3.297068E-17
3.108127E+03	3.110947E-15	3.336208E-17
3.118089E+03	3.151879E-15	3.375656E-17
3.128051E+03	3.193096E-15	3.415278E-17
3.138013E+03	3.234530E-15	3.455001E-17
3.147975E+03	3.276117E-15	3.494755E-17
3.157937E+03	3.317775E-15	3.534451E-17
3.167899E+03	3.359418E-15	3.573997E-17
3.177861E+03	3.401020E-15	3.613365E-17
3.187823E+03	3.442504E-15	3.652471E-17
3.197784E+03	3.483797E-15	3.691242E-17
3.207746E+03	3.524806E-15	3.729577E-17
3.217708E+03	3.565538E-15	3.767484E-17
3.227670E+03	3.605878E-15	3.804844E-17
3.237632E+03	3.645788E-15	3.841617E-17
3.247594E+03	3.685185E-15	3.877718E-17
3.257556E+03	3.724034E-15	3.913111E-17
3.267518E+03	3.762277E-15	3.947740E-17
3.277480E+03	3.799866E-15	3.981553E-17
3.287442E+03	3.836691E-15	4.014440E-17
3.297404E+03	3.872730E-15	4.046381E-17
3.307366E+03	3.907907E-15	4.077300E-17
3.317328E+03	3.942172E-15	4.107146E-17
3.327290E+03	3.975452E-15	4.135851E-17
3.337252E+03	4.007652E-15	4.163317E-17
3.347214E+03	4.038747E-15	4.189526E-17
3.357176E+03	4.068642E-15	4.214381E-17
3.367138E+03	4.097295E-15	4.237846E-17
3.377099E+03	4.124552E-15	4.259767E-17
3.387061E+03	4.150397E-15	4.280133E-17
3.397023E+03	4.174738E-15	4.298856E-17
3.406985E+03	4.197509E-15	4.315876E-17
3.416947E+03	4.218592E-15	4.331078E-17
3.426909E+03	4.237944E-15	4.344426E-17
3.436871E+03	4.255494E-15	4.355855E-17
3.446833E+03	4.271227E-15	4.365358E-17
3.456795E+03	4.285120E-15	4.372920E-17
3.466757E+03	4.297194E-15	4.378572E-17
3.476719E+03	4.307475E-15	4.382348E-17
3.486681E+03	4.316058E-15	4.384353E-17
3.496643E+03	4.323091E-15	4.384745E-17
3.506605E+03	4.328758E-15	4.383720E-17
3.516567E+03	4.333296E-15	4.381521E-17
3.526529E+03	4.337015E-15	4.378468E-17
3.536491E+03	4.340356E-15	4.375010E-17
3.546453E+03	4.343819E-15	4.371652E-17
3.556414E+03	4.348013E-15	4.369005E-17
3.566376E+03	4.353632E-15	4.367761E-17
3.576338E+03	4.361313E-15	4.368554E-17
3.586300E+03	4.371751E-15	4.372069E-17
3.596262E+03	4.385472E-15	4.378817E-17
3.606224E+03	4.402893E-15	4.389197E-17
3.616186E+03	4.424265E-15	4.403444E-17
3.626148E+03	4.449658E-15	4.421606E-17
3.636110E+03	4.478793E-15	4.443388E-17
3.646072E+03	4.511149E-15	4.468255E-17
3.656034E+03	4.545725E-15	4.495202E-17
3.665996E+03	4.581063E-15	4.522779E-17
3.675958E+03	4.615351E-15	4.549194E-17
3.685920E+03	4.646314E-15	4.572216E-17
3.695882E+03	4.671539E-15	4.589489E-17
3.705844E+03	4.688577E-15	4.598638E-17
3.715806E+03	4.695304E-15	4.597623E-17
3.725768E+03	4.690141E-15	4.584952E-17
3.735730E+03	4.672295E-15	4.559908E-17
3.745691E+03	4.641872E-15	4.522657E-17
3.755653E+03	4.599943E-15	4.474302E-17
3.765615E+03	4.548566E-15	4.416898E-17
3.775577E+03	4.490423E-15	4.353091E-17
3.785539E+03	4.428840E-15	4.286136E-17
3.795501E+03	4.367296E-15	4.219410E-17
3.805463E+03	4.309279E-15	4.156277E-17
3.815425E+03	4.257977E-15	4.099791E-17
3.825387E+03	4.216163E-15	4.052584E-17
3.835349E+03	4.185974E-15	4.016660E-17
3.845311E+03	4.168862E-15	3.993353E-17
3.855273E+03	4.165674E-15	3.983409E-17
3.865235E+03	4.176471E-15	3.986815E-17
3.875197E+03	4.200665E-15	4.002944E-17
3.885159E+03	4.237111E-15	4.030638E-17
3.895121E+03	4.284102E-15	4.068217E-17
3.905083E+03	4.339529E-15	4.113627E-17
3.915045E+03	4.401001E-15	4.164564E-17
3.925006E+03	4.466059E-15	4.218676E-17
3.934968E+03	4.532177E-15	4.273561E-17
3.944930E+03	4.597001E-15	4.327000E-17
3.954892E+03	4.658405E-15	4.376998E-17
3.964854E+03	4.714492E-15	4.421797E-17
3.974816E+03	4.763802E-15	4.460055E-17
3.984778E+03	4.805199E-15	4.490745E-17
3.994740E+03	4.837900E-15	4.513176E-17
4.004702E+03	4.861547E-15	4.527057E-17
4.014664E+03	4.875885E-15	4.532200E-17
4.024626E+03	4.880899E-15	4.528637E-17
4.034588E+03	4.876683E-15	4.516501E-17
4.044550E+03	4.863236E-15	4.495840E-17
4.054512E+03	4.840672E-15	4.466806E-17
4.064474E+03	4.809007E-15	4.429459E-17
4.074436E+03	4.768375E-15	4.383969E-17
4.084398E+03	4.718907E-15	4.330505E-17
4.094360E+03	4.660977E-15	4.269452E-17
4.104321E+03	4.595256E-15	4.201466E-17
4.114283E+03	4.522723E-15	4.127484E-17
4.124245E+03	4.444923E-15	4.048946E-17
4.134207E+03	4.363811E-15	3.967658E-17
4.144169E+03	4.281759E-15	3.885789E-17
4.154131E+03	4.201444E-15	3.805771E-17
4.164093E+03	4.125702E-15	3.730157E-17
4.174055E+03	4.057263E-15	3.661390E-17
4.184017E+03	3.998622E-15	3.601679E-17
4.193979E+03	3.951844E-15	3.552832E-17
4.203941E+03	3.918340E-15	3.516055E-17
4.213903E+03	3.898881E-15	3.491971E-17
4.223865E+03	3.893482E-15	3.480522E-17
4.233827E+03	3.901523E-15	3.481084E-17
4.243789E+03	3.921597E-15	3.492335E-17
4.253751E+03	3.951789E-15	3.512512E-17
4.263713E+03	3.989630E-15	3.539376E-17
4.273675E+03	4.032374E-15	3.570454E-17
4.283637E+03	4.077005E-15	3.603057E-17
4.293598E+03	4.120543E-15	3.634548E-17
4.303560E+03	4.160157E-15	3.662440E-17
4.313522E+03	4.193377E-15	3.684585E-17
4.323484E+03	4.218299E-15	3.699344E-17
4.333446E+03	4.233614E-15	3.705615E-17
4.343408E+03	4.239033E-15	3.703194E-17
4.353370E+03	4.235047E-15	3.692559E-17
4.363332E+03	4.223031E-15	3.674953E-17
4.373294E+03	4.205102E-15	3.652257E-17
4.383256E+03	4.183829E-15	3.626728E-17
4.393218E+03	4.162021E-15	3.600811E-17
4.403180E+03	4.142544E-15	3.576985E-17
4.413142E+03	4.128008E-15	3.557486E-17
4.423104E+03	4.120669E-15	3.544230E-17
4.433066E+03	4.122106E-15	3.538537E-17
4.443028E+03	4.133279E-15	3.541183E-17
4.452990E+03	4.154291E-15	3.552209E-17
4.462952E+03	4.184517E-15	3.571031E-17
4.472913E+03	4.222602E-15	3.596449E-17
4.482875E+03	4.266557E-15	3.626733E-17
4.492837E+03	4.313943E-15	3.659783E-17
4.502799E+03	4.362189E-15	3.693407E-17
4.512761E+03	4.408592E-15	3.725315E-17
4.522723E+03	4.450647E-15	3.753406E-17
4.532685E+03	4.486082E-15	3.775788E-17
4.542647E+03	4.512978E-15	3.790882E-17
4.552609E+03	4.529840E-15	3.797480E-17
4.562571E+03	4.535534E-15	3.794681E-17
4.572533E+03	4.529401E-15	3.781992E-17
4.582495E+03	4.511163E-15	3.759241E-17
4.592457E+03	4.480955E-15	3.726600E-17
4.602419E+03	4.439398E-15	3.684645E-17
4.612381E+03	4.387385E-15	3.634172E-17
4.622343E+03	4.326456E-15	3.576506E-17
4.632305E+03	4.258448E-15	3.513208E-17
4.642267E+03	4.185643E-15	3.446191E-17
4.652228E+03	4.110710E-15	3.377672E-17
4.662190E+03	4.036548E-15	3.310040E-17
4.672152E+03	3.966299E-15	3.245861E-17
4.682114E+03	3.903210E-15	3.187768E-17
4.692076E+03	3.850496E-15	3.138344E-17
4.702038E+03	3.811154E-15	3.099978E-17
4.712000E+03	3.787782E-15	3.074711E-17
4.721962E+03	3.782479E-15	3.064166E-17
4.731924E+03	3.796491E-15	3.069259E-17
4.741886E+03	3.830271E-15	3.090260E-17
4.751848E+03	3.883125E-15	3.126516E-17
4.761810E+03	3.953312E-15	3.176531E-17
4.771772E+03	4.037976E-15	3.237933E-17
4.781734E+03	4.133281E-15	3.307581E-17
4.791696E+03	4.234506E-15	3.381653E-17
4.801658E+03	4.336538E-15	3.456046E-17
4.811620E+03	4.434150E-15	3.526601E-17
4.821582E+03	4.522577E-15	3.589558E-17
4.831544E+03	4.597820E-15	3.641795E-17
4.841505E+03	4.657041E-15	3.681136E-17
4.851467E+03	4.698699E-15	3.706442E-17
4.861429E+03	4.722383E-15	3.717478E-17
4.871391E+03	4.728901E-15	3.714966E-17
4.881353E+03	4.719761E-15	3.700172E-17
4.891315E+03	4.697007E-15	3.674772E-17
4.901277E+03	4.662943E-15	3.640629E-17
4.911239E+03	4.619772E-15	3.599517E-17
4.921201E+03	4.569538E-15	3.553067E-17
4.931163E+03	4.514059E-15	3.502726E-17
4.941125E+03	4.454782E-15	3.449637E-17
4.951087E+03	4.392991E-15	3.394813E-17
4.961049E+03	4.329769E-15	3.339099E-17
4.971011E+03	4.266120E-15	3.283275E-17
4.980973E+03	4.203042E-15	3.228110E-17
4.990935E+03	4.141583E-15	3.174403E-17
5.000897E+03	4.082736E-15	3.122908E-17
5.010859E+03	4.027515E-15	3.074385E-17
5.020820E+03	3.976930E-15	3.029585E-17
5.030782E+03	3.931701E-15	2.989036E-17
5.040744E+03	3.892487E-15	2.953212E-17
5.050706E+03	3.859535E-15	2.922274E-17
5.060668E+03	3.832969E-15	2.896283E-17
5.070630E+03	3.812468E-15	2.874971E-17
5.080592E+03	3.797580E-15	2.857971E-17
5.090554E+03	3.787687E-15	2.844791E-17
5.100516E+03	3.782142E-15	2.834925E-17
5.110478E+03	3.780240E-15	2.827828E-17
5.120440E+03	3.781319E-15	2.822988E-17
5.130402E+03	3.784801E-15	2.819964E-17
5.140364E+03	3.790113E-15	2.818318E-17
5.150326E+03	3.796725E-15	2.817651E-17
5.160288E+03	3.804176E-15	2.817616E-17
5.170250E+03	3.811928E-15	2.817813E-17
5.180212E+03	3.819609E-15	2.817967E-17
5.190174E+03	3.826791E-15	2.817765E-17
5.200135E+03	3.833057E-15	2.816903E-17
5.210097E+03	3.837963E-15	2.815061E-17
5.220059E+03	3.841154E-15	2.811985E-17
5.230021E+03	3.842307E-15	2.807448E-17
5.239983E+03	3.841048E-15	2.801187E-17
5.249945E+03	3.837232E-15	2.793107E-17
5.259907E+03	3.830698E-15	2.783103E-17
5.269869E+03	3.821434E-15	2.771177E-17
5.279831E+03	3.809541E-15	2.757415E-17
5.289793E+03	3.795267E-15	2.742008E-17
5.299755E+03	3.778931E-15	2.725194E-17
5.309717E+03	3.760897E-15	2.707246E-17
5.319679E+03	3.741618E-15	2.688496E-17
5.329641E+03	3.721563E-15	2.669284E-17
5.339603E+03	3.701209E-15	2.649956E-17
5.349565E+03	3.680951E-15	2.630796E-17
5.359527E+03	3.661041E-15	2.611983E-17
5.369489E+03	3.641757E-15	2.593715E-17
5.379450E+03	3.623286E-15	2.576121E-17
5.389412E+03	3.605580E-15	2.559166E-17
5.399374E+03	3.588712E-15	2.542897E-17
5.409336E+03	3.572492E-15	2.527180E-17
5.419298E+03	3.556737E-15	2.511881E-17
5.429260E+03	3.541216E-15	2.496835E-17
5.439222E+03	3.525725E-15	2.481897E-17
5.449184E+03	3.509985E-15	2.466869E-17
5.459146E+03	3.493849E-15	2.451647E-17
5.469108E+03	3.477256E-15	2.436188E-17
5.479070E+03	3.460246E-15	2.420521E-17
5.489032E+03	3.442869E-15	2.404681E-17
5.498994E+03	3.425368E-15	2.388836E-17
5.508956E+03	3.407853E-15	2.373062E-17
5.518918E+03	3.390501E-15	2.357483E-17
5.528880E+03	3.373364E-15	2.342130E-17
5.538842E+03	3.356452E-15	2.327010E-17
5.548804E+03	3.339700E-15	2.312075E-17
5.558766E+03	3.322911E-15	2.297188E-17
5.568727E+03	3.305970E-15	2.282268E-17
5.578689E+03	3.288593E-15	2.267119E-17
5.588651E+03	3.270595E-15	2.251613E-17
5.598613E+03	3.251734E-15	2.235585E-17
5.608575E+03	3.231821E-15	2.218906E-17
5.618537E+03	3.210815E-15	2.201550E-17
5.628499E+03	3.188725E-15	2.183524E-17
5.638461E+03	3.165709E-15	2.164939E-17
5.648423E+03	3.142175E-15	2.146074E-17
5.658385E+03	3.118690E-15	2.127316E-17
5.668347E+03	3.095944E-15	2.109134E-17
5.678309E+03	3.074862E-15	2.092155E-17
5.688271E+03	3.056412E-15	2.077030E-17
5.698233E+03	3.041484E-15	2.064357E-17
5.708195E+03	3.030960E-15	2.054723E-17
5.718157E+03	3.025492E-15	2.048559E-17
5.728119E+03	3.025436E-15	2.046092E-17
5.738081E+03	3.030861E-15	2.047356E-17
5.748042E+03	3.041500E-15	2.052157E-17
5.758004E+03	3.056751E-15	2.060077E-17
5.767966E+03	3.075654E-15	2.070460E-17
5.777928E+03	3.097157E-15	2.082590E-17
5.787890E+03	3.119976E-15	2.095598E-17
5.797852E+03	3.142802E-15	2.108604E-17
5.807814E+03	3.164490E-15	2.120841E-17
5.817776E+03	3.183986E-15	2.131606E-17
5.827738E+03	3.200637E-15	2.140467E-17
5.837700E+03	3.213985E-15	2.147125E-17
5.847662E+03	3.223863E-15	2.151475E-17
5.857624E+03	3.230376E-15	2.153595E-17
5.867586E+03	3.233838E-15	2.153700E-17
5.877548E+03	3.234582E-15	2.152019E-17
5.887510E+03	3.232971E-15	2.148797E-17
5.897472E+03	3.229453E-15	2.144338E-17
5.907434E+03	3.224253E-15	2.138793E-17
5.917396E+03	3.217743E-15	2.132413E-17
5.927357E+03	3.210028E-15	2.125270E-17
5.937319E+03	3.201335E-15	2.117514E-17
5.947281E+03	3.191748E-15	2.109205E-17
5.957243E+03	3.181331E-15	2.100384E-17
5.967205E+03	3.170250E-15	2.091163E-17
5.977167E+03	3.158512E-15	2.081548E-17
5.987129E+03	3.146367E-15	2.071705E-17
5.997091E+03	3.133885E-15	2.061678E-17
6.007053E+03	3.121326E-15	2.051641E-17
6.017015E+03	3.108798E-15	2.041663E-17
6.026977E+03	3.096507E-15	2.031880E-17
6.036939E+03	3.084437E-15	2.022280E-17
6.046901E+03	3.072684E-15	2.012926E-17
6.056863E+03	3.061178E-15	2.003772E-17
6.066825E+03	3.049786E-15	1.994730E-17
6.076787E+03	3.038354E-15	1.985699E-17
6.086749E+03	3.026685E-15	1.976551E-17
6.096711E+03	3.014568E-15	1.967146E-17
6.106673E+03	3.001702E-15	1.957292E-17
6.116634E+03	2.988021E-15	1.946945E-17
6.126596E+03	2.973392E-15	1.936020E-17
6.136558E+03	2.957858E-15	1.924545E-17
6.146520E+03	2.941493E-15	1.912571E-17
6.156482E+03	2.924620E-15	1.900308E-17
6.166444E+03	2.907480E-15	1.887913E-17
6.176406E+03	2.890637E-15	1.875752E-17
6.186368E+03	2.874600E-15	1.864155E-17
6.196330E+03	2.859892E-15	1.853459E-17
6.206292E+03	2.847096E-15	1.844041E-17
6.216254E+03	2.836499E-15	1.836085E-17
6.226216E+03	2.828363E-15	1.829756E-17
6.236178E+03	2.822551E-15	1.824965E-17
6.246140E+03	2.818726E-15	1.821490E-17
6.256102E+03	2.816234E-15	1.818907E-17
6.266064E+03	2.814314E-15	1.816725E-17
6.276026E+03	2.812126E-15	1.814402E-17
6.285988E+03	2.808773E-15	1.811358E-17
6.295949E+03	2.803672E-15	1.807221E-17
6.305911E+03	2.796533E-15	1.801804E-17
6.315873E+03	2.787651E-15	1.795300E-17
6.325835E+03	2.777846E-15	1.788239E-17
6.335797E+03	2.768564E-15	1.781552E-17
6.345759E+03	2.761872E-15	1.776568E-17
6.355721E+03	2.760153E-15	1.774817E-17
6.365683E+03	2.765973E-15	1.777947E-17
6.375645E+03	2.781715E-15	1.787484E-17
6.385607E+03	2.809428E-15	1.804740E-17
6.395569E+03	2.850371E-15	1.830516E-17
6.405531E+03	2.905189E-15	1.865223E-17
6.415493E+03	2.973354E-15	1.908514E-17
6.425455E+03	3.053591E-15	1.959567E-17
6.435417E+03	3.143623E-15	2.016917E-17
6.445379E+03	3.240495E-15	2.078668E-17
6.455341E+03	3.340754E-15	2.142603E-17
6.465303E+03	3.440891E-15	2.206474E-17
6.475264E+03	3.537688E-15	2.268220E-17
6.485226E+03	3.628311E-15	2.326026E-17
6.495188E+03	3.710541E-15	2.378474E-17
6.505150E+03	3.782615E-15	2.424436E-17
6.515112E+03	3.843243E-15	2.463088E-17
6.525074E+03	3.891287E-15	2.493703E-17
6.535036E+03	3.926012E-15	2.515813E-17
6.544998E+03	3.946903E-15	2.529087E-17
6.554960E+03	3.954176E-15	2.533666E-17
6.564922E+03	3.948252E-15	2.529819E-17
6.574884E+03	3.930373E-15	2.518340E-17
6.584846E+03	3.901749E-15	2.500004E-17
6.594808E+03	3.864024E-15	2.475862E-17
6.604770E+03	3.818817E-15	2.446950E-17
6.614732E+03	3.767645E-15	2.414238E-17
6.624694E+03	3.711798E-15	2.378550E-17
6.634656E+03	3.652459E-15	2.340642E-17
6.644618E+03	3.590747E-15	2.301228E-17
6.654580E+03	3.527518E-15	2.260855E-17
6.664541E+03	3.463725E-15	2.220133E-17
6.674503E+03	3.400117E-15	2.179538E-17
6.684465E+03	3.337443E-15	2.139552E-17
6.694427E+03	3.276222E-15	2.100502E-17
6.704389E+03	3.216850E-15	2.062644E-17
6.714351E+03	3.159776E-15	2.026264E-17
6.724313E+03	3.105154E-15	1.991460E-17
6.734275E+03	3.053186E-15	1.958360E-17
6.744237E+03	3.004088E-15	1.927103E-17
6.754199E+03	2.957943E-15	1.897742E-17
6.764161E+03	2.914850E-15	1.870339E-17
6.774123E+03	2.874870E-15	1.844935E-17
6.784085E+03	2.838032E-15	1.821548E-17
6.794047E+03	2.804295E-15	1.800150E-17
6.804009E+03	2.773647E-15	1.780736E-17
6.813971E+03	2.746118E-15	1.763325E-17
6.823933E+03	2.721636E-15	1.747870E-17
6.833895E+03	2.700114E-15	1.734316E-17
6.843856E+03	2.681577E-15	1.722680E-17
6.853818E+03	2.665813E-15	1.712825E-17
6.863780E+03	2.652687E-15	1.704667E-17
6.873742E+03	2.641911E-15	1.698019E-17
6.883704E+03	2.633228E-15	1.692718E-17
6.893666E+03	2.626209E-15	1.688488E-17
6.903628E+03	2.620590E-15	1.685159E-17
6.913590E+03	2.615930E-15	1.682448E-17
6.923552E+03	2.612002E-15	1.680210E-17
6.933514E+03	2.608440E-15	1.678208E-17
6.943476E+03	2.605017E-15	1.676297E-17
6.953438E+03	2.601609E-15	1.674397E-17
6.963400E+03	2.598091E-15	1.672427E-17
6.973362E+03	2.594284E-15	1.670272E-17
6.983324E+03	2.590179E-15	1.667926E-17
6.993286E+03	2.585786E-15	1.665395E-17
7.003248E+03	2.580996E-15	1.662609E-17
7.013210E+03	2.575853E-15	1.659597E-17
7.023171E+03	2.570325E-15	1.656337E-17
7.033133E+03	2.564499E-15	1.652885E-17
7.043095E+03	2.558388E-15	1.649250E-17
7.053057E+03	2.552119E-15	1.645514E-17
7.063019E+03	2.545688E-15	1.641673E-17
7.072981E+03	2.539276E-15	1.637846E-17
7.082943E+03	2.532862E-15	1.634018E-17
7.092905E+03	2.526588E-15	1.630282E-17
7.102867E+03	2.520377E-15	1.626587E-17
7.112829E+03	2.514208E-15	1.622921E-17
7.122791E+03	2.508081E-15	1.619283E-17
7.132753E+03	2.501875E-15	1.615597E-17
7.142715E+03	2.495558E-15	1.611840E-17
7.152677E+03	2.488952E-15	1.607900E-17
7.162639E+03	2.482085E-15	1.603793E-17
7.172601E+03	2.474811E-15	1.599425E-17
7.182563E+03	2.467194E-15	1.594840E-17
7.192525E+03	2.459132E-15	1.589969E-17
7.202487E+03	2.450625E-15	1.584815E-17
7.212448E+03	2.441773E-15	1.579440E-17
7.222410E+03	2.432446E-15	1.573762E-17
7.232372E+03	2.422752E-15	1.567851E-17
7.242334E+03	2.412670E-15	1.561693E-17
7.252296E+03	2.402298E-15	1.555352E-17
7.262258E+03	2.391623E-15	1.548819E-17
7.272220E+03	2.380808E-15	1.542201E-17
7.282182E+03	2.370001E-15	1.535594E-17
7.292144E+03	2.359379E-15	1.529112E-17
7.302106E+03	2.349119E-15	1.522872E-17
7.312068E+03	2.339345E-15	1.516954E-17
7.322030E+03	2.330241E-15	1.511478E-17
7.331992E+03	2.321848E-15	1.506472E-17
7.341954E+03	2.314238E-15	1.501983E-17
7.351916E+03	2.307325E-15	1.497957E-17
7.361878E+03	2.301057E-15	1.494360E-17
7.371840E+03	2.295238E-15	1.491067E-17
7.381802E+03	2.289689E-15	1.487961E-17
7.391763E+03	2.284221E-15	1.484921E-17
7.401725E+03	2.278697E-15	1.481858E-17
7.411687E+03	2.272906E-15	1.478636E-17
7.421649E+03	2.266706E-15	1.475162E-17
7.431611E+03	2.259978E-15	1.471360E-17
7.441573E+03	2.252679E-15	1.467200E-17
7.451535E+03	2.244654E-15	1.462584E-17
7.461497E+03	2.236013E-15	1.457583E-17
7.471459E+03	2.226618E-15	1.452104E-17
7.481421E+03	2.216638E-15	1.446262E-17
7.491383E+03	2.206042E-15	1.440033E-17
7.501345E+03	2.195010E-15	1.433536E-17
7.511307E+03	2.183565E-15	1.426786E-17
7.521269E+03	2.171943E-15	1.419938E-17
7.531231E+03	2.160314E-15	1.413101E-17
7.541193E+03	2.148829E-15	1.406377E-17
7.551155E+03	2.137749E-15	1.399937E-17
7.561117E+03	2.127299E-15	1.393928E-17
7.571078E+03	2.117689E-15	1.388490E-17
7.581040E+03	2.109103E-15	1.383745E-17
7.591002E+03	2.101731E-15	1.379819E-17
7.600964E+03	2.095659E-15	1.376772E-17
7.610926E+03	2.090873E-15	1.374597E-17
7.620888E+03	2.087389E-15	1.373305E-17
7.630850E+03	2.085123E-15	1.372845E-17
7.640812E+03	2.083986E-15	1.373162E-17
7.650774E+03	2.083723E-15	1.374088E-17
7.660736E+03	2.084244E-15	1.375567E-17
7.670698E+03	2.085368E-15	1.377482E-17
7.680660E+03	2.086915E-15	1.379716E-17
7.690622E+03	2.088672E-15	1.382130E-17
7.700584E+03	2.090580E-15	1.384686E-17
7.710546E+03	2.092394E-15	1.387222E-17
7.720508E+03	2.094063E-15	1.389707E-17
7.730470E+03	2.095390E-15	1.392010E-17
