#wls	flux	fluxerr
1.593911E+03	2.143407E-17	1.699125E-19
1.633759E+03	2.204727E-17	1.747735E-19
1.673607E+03	2.254085E-17	1.786862E-19
1.713455E+03	2.290687E-17	1.815877E-19
1.753302E+03	2.312515E-17	1.833181E-19
1.793150E+03	2.316292E-17	1.836175E-19
1.832998E+03	2.296746E-17	1.820681E-19
1.872846E+03	2.248239E-17	1.782228E-19
1.912694E+03	2.166922E-17	1.717766E-19
1.952541E+03	2.051420E-17	1.626205E-19
1.992389E+03	1.907638E-17	1.512226E-19
2.032237E+03	1.753276E-17	1.389860E-19
2.072085E+03	1.616600E-17	1.281514E-19
2.111932E+03	1.531190E-17	1.213808E-19
2.151780E+03	1.526199E-17	1.209851E-19
2.191628E+03	1.617634E-17	1.282333E-19
2.231476E+03	1.808157E-17	1.433365E-19
2.271324E+03	2.088030E-17	1.655227E-19
2.311171E+03	2.441648E-17	1.935548E-19
2.351019E+03	2.851153E-17	2.260171E-19
2.390867E+03	3.302339E-17	2.617835E-19
2.430715E+03	3.784652E-17	3.000176E-19
2.470562E+03	4.294016E-17	3.403959E-19
2.510410E+03	4.826599E-17	3.826149E-19
2.550258E+03	5.386086E-17	4.269666E-19
2.590106E+03	5.973201E-17	4.735086E-19
2.629954E+03	6.591773E-17	5.225441E-19
2.669801E+03	7.247117E-17	5.744946E-19
2.709649E+03	7.943828E-17	6.297244E-19
2.749497E+03	8.686388E-17	6.885887E-19
2.789345E+03	9.478978E-17	7.514191E-19
2.829192E+03	1.032776E-16	8.187036E-19
2.869040E+03	1.123616E-16	8.907146E-19
2.908888E+03	1.220949E-16	9.678724E-19
2.948736E+03	1.325256E-16	1.050559E-18
2.988584E+03	1.436822E-16	1.139000E-18
2.998546E+03	1.465940E-16	1.162082E-18
3.008508E+03	1.495488E-16	1.185506E-18
3.018469E+03	1.525460E-16	1.209265E-18
3.028431E+03	1.556004E-16	1.233478E-18
3.038393E+03	1.587204E-16	1.258211E-18
3.048355E+03	1.619060E-16	1.283464E-18
3.058317E+03	1.652057E-16	1.309622E-18
3.068279E+03	1.685724E-16	1.336310E-18
3.078241E+03	1.720436E-16	1.363827E-18
3.088203E+03	1.756008E-16	1.392025E-18
3.098165E+03	1.792395E-16	1.420870E-18
3.108127E+03	1.829413E-16	1.450215E-18
3.118089E+03	1.867310E-16	1.480257E-18
3.128051E+03	1.905904E-16	1.510851E-18
3.138013E+03	1.945305E-16	1.542085E-18
3.147975E+03	1.985334E-16	1.573817E-18
3.157937E+03	2.025959E-16	1.606021E-18
3.167899E+03	2.067296E-16	1.638790E-18
3.177861E+03	2.109171E-16	1.671985E-18
3.187823E+03	2.151705E-16	1.705703E-18
3.197784E+03	2.194726E-16	1.739806E-18
3.207746E+03	2.238512E-16	1.774517E-18
3.217708E+03	2.282746E-16	1.809582E-18
3.227670E+03	2.327559E-16	1.845106E-18
3.237632E+03	2.372941E-16	1.881081E-18
3.247594E+03	2.418881E-16	1.917499E-18
3.257556E+03	2.465520E-16	1.954471E-18
3.267518E+03	2.512553E-16	1.991755E-18
3.277480E+03	2.560284E-16	2.029592E-18
3.287442E+03	2.608715E-16	2.067984E-18
3.297404E+03	2.657543E-16	2.106692E-18
3.307366E+03	2.707243E-16	2.146089E-18
3.317328E+03	2.757516E-16	2.185943E-18
3.327290E+03	2.808386E-16	2.226268E-18
3.337252E+03	2.860183E-16	2.267328E-18
3.347214E+03	2.912620E-16	2.308897E-18
3.357176E+03	2.965888E-16	2.351124E-18
3.367138E+03	3.020182E-16	2.394164E-18
3.377099E+03	3.075227E-16	2.437799E-18
3.387061E+03	3.131231E-16	2.482194E-18
3.397023E+03	3.188398E-16	2.527512E-18
3.406985E+03	3.246638E-16	2.573680E-18
3.416947E+03	3.306165E-16	2.620868E-18
3.426909E+03	3.366893E-16	2.669009E-18
3.436871E+03	3.428902E-16	2.718164E-18
3.446833E+03	3.492579E-16	2.768642E-18
3.456795E+03	3.557695E-16	2.820261E-18
3.466757E+03	3.624487E-16	2.873208E-18
3.476719E+03	3.692877E-16	2.927423E-18
3.484818E+03	4.501938E-16	3.568783E-18
3.487538E+03	4.409601E-16	3.495585E-18
3.490257E+03	4.346813E-16	3.445812E-18
3.492967E+03	4.289059E-16	3.400029E-18
3.495686E+03	4.264452E-16	3.380523E-18
3.498396E+03	4.279515E-16	3.392464E-18
3.501116E+03	4.277287E-16	3.390698E-18
3.503835E+03	4.279642E-16	3.392564E-18
3.506545E+03	4.316350E-16	3.421664E-18
3.509265E+03	4.376112E-16	3.469038E-18
3.511974E+03	4.431852E-16	3.513225E-18
3.514694E+03	4.483041E-16	3.553803E-18
3.517404E+03	4.566813E-16	3.620211E-18
3.520123E+03	4.668581E-16	3.700885E-18
3.522843E+03	4.755781E-16	3.770010E-18
3.525552E+03	4.816432E-16	3.818089E-18
3.528272E+03	4.883939E-16	3.871603E-18
3.530982E+03	4.953940E-16	3.927095E-18
3.533701E+03	5.000343E-16	3.963879E-18
3.536421E+03	5.056583E-16	4.008462E-18
3.539131E+03	5.114493E-16	4.054369E-18
3.541850E+03	5.165106E-16	4.094490E-18
3.544560E+03	5.196662E-16	4.119506E-18
3.547279E+03	5.186784E-16	4.111675E-18
3.549989E+03	5.144125E-16	4.077859E-18
3.552709E+03	5.091590E-16	4.036213E-18
3.555428E+03	5.056203E-16	4.008161E-18
3.558138E+03	5.006276E-16	3.968582E-18
3.560858E+03	4.921566E-16	3.901431E-18
3.563567E+03	4.786403E-16	3.794284E-18
3.566287E+03	4.667257E-16	3.699835E-18
3.569006E+03	4.541137E-16	3.599857E-18
3.571716E+03	4.441185E-16	3.520623E-18
3.574436E+03	4.361425E-16	3.457395E-18
3.577145E+03	4.291445E-16	3.401921E-18
3.579865E+03	4.251041E-16	3.369892E-18
3.582575E+03	4.208110E-16	3.335859E-18
3.585294E+03	4.159920E-16	3.297658E-18
3.588014E+03	4.146586E-16	3.287088E-18
3.590723E+03	4.136253E-16	3.278897E-18
3.593443E+03	4.133339E-16	3.276587E-18
3.596153E+03	4.171427E-16	3.306780E-18
3.598872E+03	4.204048E-16	3.332639E-18
3.601592E+03	4.197295E-16	3.327286E-18
3.604302E+03	4.182805E-16	3.315800E-18
3.607021E+03	4.215746E-16	3.341913E-18
3.609731E+03	4.263333E-16	3.379636E-18
3.612450E+03	4.316216E-16	3.421557E-18
3.615170E+03	4.356995E-16	3.453883E-18
3.617880E+03	4.374037E-16	3.467393E-18
3.620599E+03	4.355435E-16	3.452647E-18
3.623309E+03	4.335977E-16	3.437222E-18
3.626029E+03	4.321486E-16	3.425735E-18
3.628738E+03	4.284267E-16	3.396230E-18
3.631458E+03	4.238707E-16	3.360114E-18
3.634177E+03	4.198091E-16	3.327917E-18
3.636887E+03	4.174619E-16	3.309310E-18
3.639607E+03	4.129767E-16	3.273755E-18
3.642316E+03	4.089583E-16	3.241900E-18
3.645036E+03	4.054366E-16	3.213983E-18
3.647756E+03	3.995219E-16	3.167096E-18
3.650465E+03	3.953521E-16	3.134041E-18
3.653185E+03	3.944047E-16	3.126531E-18
3.655894E+03	3.927045E-16	3.113053E-18
3.658614E+03	3.923674E-16	3.110381E-18
3.661324E+03	3.951209E-16	3.132208E-18
3.664043E+03	4.025871E-16	3.191394E-18
3.666763E+03	4.093634E-16	3.245111E-18
3.669473E+03	4.155879E-16	3.294455E-18
3.672192E+03	4.241356E-16	3.362214E-18
3.674902E+03	4.379397E-16	3.471642E-18
3.677621E+03	4.530712E-16	3.591593E-18
3.680341E+03	4.685810E-16	3.714542E-18
3.683051E+03	4.883835E-16	3.871521E-18
3.685770E+03	5.064161E-16	4.014470E-18
3.688480E+03	5.228703E-16	4.144905E-18
3.691200E+03	5.402384E-16	4.282586E-18
3.693909E+03	5.568663E-16	4.414399E-18
3.696629E+03	5.741007E-16	4.551019E-18
3.699348E+03	5.947455E-16	4.714676E-18
3.702058E+03	6.190579E-16	4.907405E-18
3.704778E+03	6.420484E-16	5.089656E-18
3.707487E+03	6.649207E-16	5.270969E-18
3.710207E+03	6.889977E-16	5.461833E-18
3.712927E+03	7.153483E-16	5.670720E-18
3.715636E+03	7.416121E-16	5.878918E-18
3.718356E+03	7.688612E-16	6.094928E-18
3.721066E+03	7.935744E-16	6.290835E-18
3.723785E+03	8.156669E-16	6.465967E-18
3.726495E+03	8.365124E-16	6.631214E-18
3.729214E+03	8.554919E-16	6.781668E-18
3.731934E+03	8.726295E-16	6.917522E-18
3.734644E+03	8.892473E-16	7.049254E-18
3.737363E+03	9.052349E-16	7.175991E-18
3.740073E+03	9.201925E-16	7.294564E-18
3.742793E+03	9.320584E-16	7.388627E-18
3.745512E+03	9.405995E-16	7.456335E-18
3.748222E+03	9.483847E-16	7.518049E-18
3.750941E+03	9.577378E-16	7.592193E-18
3.753651E+03	9.685445E-16	7.677860E-18
3.756371E+03	9.785432E-16	7.757123E-18
3.759090E+03	9.873054E-16	7.826582E-18
3.761800E+03	9.923877E-16	7.866871E-18
3.764520E+03	9.953490E-16	7.890346E-18
3.767229E+03	9.969209E-16	7.902806E-18
3.769949E+03	9.992362E-16	7.921160E-18
3.772658E+03	1.001951E-15	7.942683E-18
3.775378E+03	1.001543E-15	7.939446E-18
3.778098E+03	9.980614E-16	7.911847E-18
3.780807E+03	9.926102E-16	7.868634E-18
3.783527E+03	9.857603E-16	7.814334E-18
3.786237E+03	9.748826E-16	7.728104E-18
3.788956E+03	9.611725E-16	7.619421E-18
3.791676E+03	9.473345E-16	7.509724E-18
3.794385E+03	9.301971E-16	7.373872E-18
3.797105E+03	9.097301E-16	7.211626E-18
3.799815E+03	8.885827E-16	7.043986E-18
3.802534E+03	8.659281E-16	6.864398E-18
3.805244E+03	8.429335E-16	6.682115E-18
3.807964E+03	8.181411E-16	6.485580E-18
3.810683E+03	7.938382E-16	6.292926E-18
3.813393E+03	7.696228E-16	6.100965E-18
3.816112E+03	7.470180E-16	5.921773E-18
3.818822E+03	7.254208E-16	5.750567E-18
3.821542E+03	7.045487E-16	5.585109E-18
3.824261E+03	6.832231E-16	5.416057E-18
3.826971E+03	6.621607E-16	5.249090E-18
3.829691E+03	6.405884E-16	5.078082E-18
3.832400E+03	6.169770E-16	4.890909E-18
3.835120E+03	5.946654E-16	4.714040E-18
3.837829E+03	5.755261E-16	4.562319E-18
3.840549E+03	5.562807E-16	4.409757E-18
3.843269E+03	5.382253E-16	4.266628E-18
3.845978E+03	5.245643E-16	4.158334E-18
3.848698E+03	5.139789E-16	4.074421E-18
3.851408E+03	5.065588E-16	4.015600E-18
3.854127E+03	5.036416E-16	3.992475E-18
3.856847E+03	5.042212E-16	3.997070E-18
3.859556E+03	5.075216E-16	4.023233E-18
3.862276E+03	5.126231E-16	4.063673E-18
3.864986E+03	5.191494E-16	4.115409E-18
3.867705E+03	5.246128E-16	4.158718E-18
3.870415E+03	5.297050E-16	4.199085E-18
3.873135E+03	5.344565E-16	4.236751E-18
3.875854E+03	5.390985E-16	4.273549E-18
3.878564E+03	5.456632E-16	4.325590E-18
3.881283E+03	5.548834E-16	4.398680E-18
3.883993E+03	5.673434E-16	4.497453E-18
3.886713E+03	5.815670E-16	4.610206E-18
3.889432E+03	5.970314E-16	4.732796E-18
3.892142E+03	6.178185E-16	4.897580E-18
3.894862E+03	6.413739E-16	5.084309E-18
3.897571E+03	6.664157E-16	5.282821E-18
3.900291E+03	6.934175E-16	5.496870E-18
3.903010E+03	7.212122E-16	5.717204E-18
3.905720E+03	7.485139E-16	5.933630E-18
3.908440E+03	7.741839E-16	6.137122E-18
3.911149E+03	8.013188E-16	6.352226E-18
3.913869E+03	8.302467E-16	6.581544E-18
3.916579E+03	8.609678E-16	6.825076E-18
3.919298E+03	8.952774E-16	7.097057E-18
3.922018E+03	9.305989E-16	7.377057E-18
3.924728E+03	9.664033E-16	7.660887E-18
3.927447E+03	1.002549E-15	7.947425E-18
3.930157E+03	1.040356E-15	8.247128E-18
3.932876E+03	1.076360E-15	8.532540E-18
3.935596E+03	1.109144E-15	8.792424E-18
3.938306E+03	1.141850E-15	9.051689E-18
3.941025E+03	1.171595E-15	9.287486E-18
3.943735E+03	1.198811E-15	9.503230E-18
3.946455E+03	1.223469E-15	9.698699E-18
3.949164E+03	1.246739E-15	9.883168E-18
3.951884E+03	1.269423E-15	1.006299E-17
3.954603E+03	1.291517E-15	1.023813E-17
3.957313E+03	1.314022E-15	1.041653E-17
3.960033E+03	1.335168E-15	1.058417E-17
3.962742E+03	1.356074E-15	1.074989E-17
3.965462E+03	1.376656E-15	1.091305E-17
3.968182E+03	1.397059E-15	1.107478E-17
3.970891E+03	1.417723E-15	1.123860E-17
3.973611E+03	1.437914E-15	1.139865E-17
3.976320E+03	1.456258E-15	1.154407E-17
3.979040E+03	1.473976E-15	1.168453E-17
3.981750E+03	1.491061E-15	1.181996E-17
3.984469E+03	1.507191E-15	1.194783E-17
3.987189E+03	1.523672E-15	1.207848E-17
3.989899E+03	1.542199E-15	1.222535E-17
3.992618E+03	1.561323E-15	1.237695E-17
3.995328E+03	1.580291E-15	1.252731E-17
3.998047E+03	1.598453E-15	1.267128E-17
4.000767E+03	1.617089E-15	1.281901E-17
4.003477E+03	1.635987E-15	1.296882E-17
4.006196E+03	1.654766E-15	1.311769E-17
4.008906E+03	1.672339E-15	1.325699E-17
4.011626E+03	1.687215E-15	1.337492E-17
4.014335E+03	1.697729E-15	1.345827E-17
4.017055E+03	1.704392E-15	1.351108E-17
4.019774E+03	1.709174E-15	1.354899E-17
4.022484E+03	1.713148E-15	1.358049E-17
4.025204E+03	1.715238E-15	1.359706E-17
4.027913E+03	1.715012E-15	1.359527E-17
4.030633E+03	1.713255E-15	1.358134E-17
4.033353E+03	1.709118E-15	1.354854E-17
4.036062E+03	1.703072E-15	1.350062E-17
4.038782E+03	1.695967E-15	1.344430E-17
4.041492E+03	1.686345E-15	1.336801E-17
4.044211E+03	1.674538E-15	1.327442E-17
4.046931E+03	1.660631E-15	1.316418E-17
4.049640E+03	1.643677E-15	1.302978E-17
4.052360E+03	1.624343E-15	1.287651E-17
4.055070E+03	1.600495E-15	1.268747E-17
4.057789E+03	1.575680E-15	1.249075E-17
4.060499E+03	1.552102E-15	1.230384E-17
4.063219E+03	1.529407E-15	1.212393E-17
4.065938E+03	1.509598E-15	1.196691E-17
4.068648E+03	1.491705E-15	1.182506E-17
4.071367E+03	1.475344E-15	1.169536E-17
4.074077E+03	1.461514E-15	1.158573E-17
4.076797E+03	1.448644E-15	1.148372E-17
4.079516E+03	1.434386E-15	1.137069E-17
4.082226E+03	1.421447E-15	1.126812E-17
4.084946E+03	1.411212E-15	1.118698E-17
4.087655E+03	1.401449E-15	1.110959E-17
4.090375E+03	1.392135E-15	1.103575E-17
4.093084E+03	1.383692E-15	1.096883E-17
4.095804E+03	1.377906E-15	1.092295E-17
4.098524E+03	1.374134E-15	1.089306E-17
4.101233E+03	1.370783E-15	1.086649E-17
4.103953E+03	1.369396E-15	1.085549E-17
4.106663E+03	1.370583E-15	1.086490E-17
4.109382E+03	1.374111E-15	1.089287E-17
4.112102E+03	1.379366E-15	1.093453E-17
4.114811E+03	1.387057E-15	1.099550E-17
4.117531E+03	1.396611E-15	1.107124E-17
4.120241E+03	1.406083E-15	1.114632E-17
4.122960E+03	1.415820E-15	1.122351E-17
4.125670E+03	1.424827E-15	1.129491E-17
4.128390E+03	1.431751E-15	1.134980E-17
4.131109E+03	1.437758E-15	1.139742E-17
4.133819E+03	1.443895E-15	1.144606E-17
4.136538E+03	1.448405E-15	1.148181E-17
4.139248E+03	1.449356E-15	1.148935E-17
4.141968E+03	1.447369E-15	1.147360E-17
4.144687E+03	1.441440E-15	1.142660E-17
4.147397E+03	1.434258E-15	1.136967E-17
4.150117E+03	1.425641E-15	1.130136E-17
4.152826E+03	1.414583E-15	1.121370E-17
4.155546E+03	1.400217E-15	1.109982E-17
4.158255E+03	1.384331E-15	1.097389E-17
4.160975E+03	1.366185E-15	1.083004E-17
4.163695E+03	1.345954E-15	1.066967E-17
4.166404E+03	1.323632E-15	1.049271E-17
4.169124E+03	1.299126E-15	1.029845E-17
4.171834E+03	1.272364E-15	1.008630E-17
4.174553E+03	1.243971E-15	9.861225E-18
4.177273E+03	1.214129E-15	9.624661E-18
4.179982E+03	1.183144E-15	9.379036E-18
4.182702E+03	1.152180E-15	9.133576E-18
4.185412E+03	1.121449E-15	8.889966E-18
4.188131E+03	1.091241E-15	8.650501E-18
4.190851E+03	1.061051E-15	8.411181E-18
4.193561E+03	1.031851E-15	8.179707E-18
4.196280E+03	1.003964E-15	7.958635E-18
4.198990E+03	9.758431E-16	7.735718E-18
4.201709E+03	9.471483E-16	7.508247E-18
4.204419E+03	9.208037E-16	7.299408E-18
4.207139E+03	8.967253E-16	7.108534E-18
4.209858E+03	8.747260E-16	6.934141E-18
4.212568E+03	8.548713E-16	6.776748E-18
4.215288E+03	8.379610E-16	6.642697E-18
4.217997E+03	8.247243E-16	6.537767E-18
4.220717E+03	8.154595E-16	6.464322E-18
4.223436E+03	8.087468E-16	6.411110E-18
4.226146E+03	8.045899E-16	6.378157E-18
4.228866E+03	8.024914E-16	6.361522E-18
4.231575E+03	8.018480E-16	6.356421E-18
4.234295E+03	8.041293E-16	6.374505E-18
4.237005E+03	8.063796E-16	6.392344E-18
4.239724E+03	8.089216E-16	6.412495E-18
4.242444E+03	8.125182E-16	6.441006E-18
4.245154E+03	8.160543E-16	6.469038E-18
4.247873E+03	8.204586E-16	6.503951E-18
4.250583E+03	8.263031E-16	6.550282E-18
4.253302E+03	8.338196E-16	6.609867E-18
4.256022E+03	8.420503E-16	6.675113E-18
4.258732E+03	8.516661E-16	6.751340E-18
4.261451E+03	8.629312E-16	6.840641E-18
4.264161E+03	8.747226E-16	6.934114E-18
4.266881E+03	8.880410E-16	7.039692E-18
4.269590E+03	9.025313E-16	7.154559E-18
4.272310E+03	9.152474E-16	7.255362E-18
4.275029E+03	9.268896E-16	7.347653E-18
4.277739E+03	9.415368E-16	7.463764E-18
4.280459E+03	9.573990E-16	7.589507E-18
4.283168E+03	9.727664E-16	7.711328E-18
4.285888E+03	9.873530E-16	7.826959E-18
4.288608E+03	1.000929E-15	7.934580E-18
4.291317E+03	1.014296E-15	8.040544E-18
4.294037E+03	1.027492E-15	8.145147E-18
4.296746E+03	1.039475E-15	8.240144E-18
4.299466E+03	1.049732E-15	8.321452E-18
4.302176E+03	1.059353E-15	8.397720E-18
4.304895E+03	1.070060E-15	8.482596E-18
4.307615E+03	1.080329E-15	8.563997E-18
4.310325E+03	1.090479E-15	8.644463E-18
4.313044E+03	1.100452E-15	8.723522E-18
4.315754E+03	1.109949E-15	8.798805E-18
4.318473E+03	1.118682E-15	8.868033E-18
4.321193E+03	1.126223E-15	8.927814E-18
4.323903E+03	1.133185E-15	8.983004E-18
4.326622E+03	1.140291E-15	9.039331E-18
4.329332E+03	1.147175E-15	9.093900E-18
4.332052E+03	1.153516E-15	9.144171E-18
4.334771E+03	1.159311E-15	9.190106E-18
4.337481E+03	1.164064E-15	9.227788E-18
4.340200E+03	1.167322E-15	9.253614E-18
4.342910E+03	1.170057E-15	9.275291E-18
4.345630E+03	1.172831E-15	9.297281E-18
4.348339E+03	1.175572E-15	9.319012E-18
4.351059E+03	1.178779E-15	9.344432E-18
4.353779E+03	1.181694E-15	9.367543E-18
4.356488E+03	1.184083E-15	9.386484E-18
4.359208E+03	1.187465E-15	9.413292E-18
4.361917E+03	1.193053E-15	9.457588E-18
4.364637E+03	1.200133E-15	9.513713E-18
4.367357E+03	1.207157E-15	9.569392E-18
4.370066E+03	1.214517E-15	9.627734E-18
4.372786E+03	1.222088E-15	9.687751E-18
4.375496E+03	1.229995E-15	9.750437E-18
4.378215E+03	1.238909E-15	9.821098E-18
4.380925E+03	1.248526E-15	9.897334E-18
4.383644E+03	1.255941E-15	9.956118E-18
4.386364E+03	1.262207E-15	1.000578E-17
4.389074E+03	1.267582E-15	1.004839E-17
4.391793E+03	1.271673E-15	1.008083E-17
4.394503E+03	1.275068E-15	1.010774E-17
4.397223E+03	1.278338E-15	1.013366E-17
4.399942E+03	1.280813E-15	1.015328E-17
4.402652E+03	1.281024E-15	1.015495E-17
4.405371E+03	1.278539E-15	1.013526E-17
4.408081E+03	1.274447E-15	1.010281E-17
4.410801E+03	1.269817E-15	1.006611E-17
4.413510E+03	1.264007E-15	1.002006E-17
4.416230E+03	1.255920E-15	9.955948E-18
4.418950E+03	1.245814E-15	9.875832E-18
4.421659E+03	1.234785E-15	9.788403E-18
4.424379E+03	1.225415E-15	9.714130E-18
4.427089E+03	1.214788E-15	9.629884E-18
4.429808E+03	1.202001E-15	9.528522E-18
4.432528E+03	1.188322E-15	9.420087E-18
4.435237E+03	1.174720E-15	9.312254E-18
4.437957E+03	1.162644E-15	9.216527E-18
4.440667E+03	1.150580E-15	9.120893E-18
4.443386E+03	1.137760E-15	9.019266E-18
4.446106E+03	1.126233E-15	8.927888E-18
4.448816E+03	1.116302E-15	8.849165E-18
4.451535E+03	1.107775E-15	8.781566E-18
4.454245E+03	1.100951E-15	8.727478E-18
4.456964E+03	1.096146E-15	8.689383E-18
4.459674E+03	1.094168E-15	8.673702E-18
4.462394E+03	1.093643E-15	8.669539E-18
4.465113E+03	1.093961E-15	8.672065E-18
4.467823E+03	1.096375E-15	8.691203E-18
4.470543E+03	1.102692E-15	8.741279E-18
4.473252E+03	1.111354E-15	8.809942E-18
4.475972E+03	1.123220E-15	8.904009E-18
4.478691E+03	1.139517E-15	9.033198E-18
4.481401E+03	1.158587E-15	9.184364E-18
4.484121E+03	1.179691E-15	9.351665E-18
4.486830E+03	1.204872E-15	9.551280E-18
4.489550E+03	1.236086E-15	9.798716E-18
4.492260E+03	1.272145E-15	1.008456E-17
4.494979E+03	1.310611E-15	1.038949E-17
4.497699E+03	1.352851E-15	1.072434E-17
4.500408E+03	1.398425E-15	1.108562E-17
4.503128E+03	1.445946E-15	1.146233E-17
4.505838E+03	1.494761E-15	1.184929E-17
4.508557E+03	1.545838E-15	1.225419E-17
4.511277E+03	1.598595E-15	1.267241E-17
4.513987E+03	1.651558E-15	1.309226E-17
4.516706E+03	1.705113E-15	1.351680E-17
4.519416E+03	1.759218E-15	1.394569E-17
4.522135E+03	1.812851E-15	1.437086E-17
4.524845E+03	1.865384E-15	1.478730E-17
4.527565E+03	1.916514E-15	1.519262E-17
4.530284E+03	1.965545E-15	1.558130E-17
4.532994E+03	2.012157E-15	1.595080E-17
4.535714E+03	2.056699E-15	1.630389E-17
4.538423E+03	2.098880E-15	1.663827E-17
4.541143E+03	2.139363E-15	1.695919E-17
4.543862E+03	2.178344E-15	1.726820E-17
4.546572E+03	2.214122E-15	1.755182E-17
4.549292E+03	2.246043E-15	1.780486E-17
4.552001E+03	2.275195E-15	1.803596E-17
4.554721E+03	2.303975E-15	1.826410E-17
4.557431E+03	2.331260E-15	1.848040E-17
4.560150E+03	2.356816E-15	1.868299E-17
4.562870E+03	2.380079E-15	1.886740E-17
4.565579E+03	2.400898E-15	1.903243E-17
4.568299E+03	2.419036E-15	1.917622E-17
4.571009E+03	2.435207E-15	1.930441E-17
4.573728E+03	2.449941E-15	1.942121E-17
4.576448E+03	2.463751E-15	1.953068E-17
4.579158E+03	2.476525E-15	1.963194E-17
4.581877E+03	2.488481E-15	1.972672E-17
4.584587E+03	2.501177E-15	1.982737E-17
4.587306E+03	2.513509E-15	1.992512E-17
4.590026E+03	2.525049E-15	2.001661E-17
4.592736E+03	2.537155E-15	2.011257E-17
4.595455E+03	2.549490E-15	2.021036E-17
4.598165E+03	2.561447E-15	2.030514E-17
4.600885E+03	2.572370E-15	2.039173E-17
4.603594E+03	2.582703E-15	2.047364E-17
4.606314E+03	2.592454E-15	2.055094E-17
4.609033E+03	2.599827E-15	2.060939E-17
4.611743E+03	2.605056E-15	2.065084E-17
4.614463E+03	2.609028E-15	2.068232E-17
4.617172E+03	2.611693E-15	2.070345E-17
4.619892E+03	2.612004E-15	2.070592E-17
4.622612E+03	2.610551E-15	2.069439E-17
4.625321E+03	2.606722E-15	2.066404E-17
4.628041E+03	2.598761E-15	2.060094E-17
4.630751E+03	2.587955E-15	2.051528E-17
4.633470E+03	2.575336E-15	2.041524E-17
4.636180E+03	2.559825E-15	2.029228E-17
4.638899E+03	2.540616E-15	2.014001E-17
4.641619E+03	2.517873E-15	1.995972E-17
