#wls	flux	fluxerr
1.593911E+03	6.945266E-18	8.840779E-19
1.633759E+03	7.185736E-18	9.122588E-19
1.673607E+03	7.387543E-18	9.353218E-19
1.713455E+03	7.551165E-18	9.533614E-19
1.753302E+03	7.670727E-18	9.656731E-19
1.793150E+03	7.731391E-18	9.704382E-19
1.832998E+03	7.714241E-18	9.653523E-19
1.872846E+03	7.598682E-18	9.479339E-19
1.912694E+03	7.369393E-18	9.163946E-19
1.952541E+03	7.017117E-18	8.697280E-19
1.992389E+03	6.565118E-18	8.109668E-19
2.032237E+03	6.065910E-18	7.467122E-19
2.072085E+03	5.622269E-18	6.896446E-19
2.111932E+03	5.350923E-18	6.539699E-19
2.151780E+03	5.358752E-18	6.524777E-19
2.191628E+03	5.702713E-18	6.916923E-19
2.231476E+03	6.395717E-18	7.726903E-19
2.271324E+03	7.409621E-18	8.915611E-19
2.311171E+03	8.689111E-18	1.041172E-18
2.351019E+03	1.017217E-17	1.213679E-18
2.390867E+03	1.180877E-17	1.402777E-18
2.430715E+03	1.355859E-17	1.603399E-18
2.470562E+03	1.540854E-17	1.813755E-18
2.510410E+03	1.735225E-17	2.032869E-18
2.550258E+03	1.939234E-17	2.260814E-18
2.590106E+03	2.154251E-17	2.498938E-18
2.629954E+03	2.382734E-17	2.749796E-18
2.669801E+03	2.626407E-17	3.015039E-18
2.709649E+03	2.887775E-17	3.297148E-18
2.749497E+03	3.169576E-17	3.598797E-18
2.789345E+03	3.475510E-17	3.923653E-18
2.829192E+03	3.808881E-17	4.274826E-18
2.869040E+03	4.173242E-17	4.655592E-18
2.908888E+03	4.574103E-17	5.071273E-18
2.948736E+03	5.015808E-17	5.525721E-18
2.988584E+03	5.504881E-17	6.025019E-18
2.998546E+03	5.635283E-17	6.157506E-18
3.008508E+03	5.769460E-17	6.293586E-18
3.018469E+03	5.906537E-17	6.432280E-18
3.028431E+03	6.047593E-17	6.574742E-18
3.038393E+03	6.193060E-17	6.721414E-18
3.048355E+03	6.343598E-17	6.872981E-18
3.058317E+03	6.499128E-17	7.029329E-18
3.068279E+03	6.661581E-17	7.192506E-18
3.078241E+03	6.829916E-17	7.361349E-18
3.088203E+03	7.003047E-17	7.534650E-18
3.098165E+03	7.183001E-17	7.714555E-18
3.108127E+03	7.368724E-17	7.899887E-18
3.118089E+03	7.560185E-17	8.090578E-18
3.128051E+03	7.758455E-17	8.287730E-18
3.138013E+03	7.961353E-17	8.488974E-18
3.147975E+03	8.172176E-17	8.697785E-18
3.157937E+03	8.387607E-17	8.910587E-18
3.167899E+03	8.609886E-17	9.129722E-18
3.177861E+03	8.839052E-17	9.355183E-18
3.187823E+03	9.075146E-17	9.586966E-18
3.197784E+03	9.317031E-17	9.823824E-18
3.207746E+03	9.564709E-17	1.006572E-17
3.217708E+03	9.820604E-17	1.031515E-17
3.227670E+03	1.008358E-16	1.057087E-17
3.237632E+03	1.035244E-16	1.083158E-17
3.247594E+03	1.062970E-16	1.109986E-17
3.257556E+03	1.091416E-16	1.137440E-17
3.267518E+03	1.120588E-16	1.165520E-17
3.277480E+03	1.150487E-16	1.194223E-17
3.287442E+03	1.181248E-16	1.223684E-17
3.297404E+03	1.212746E-16	1.253764E-17
3.307366E+03	1.245113E-16	1.284598E-17
3.317328E+03	1.278356E-16	1.316184E-17
3.327290E+03	1.312342E-16	1.348379E-17
3.337252E+03	1.347071E-16	1.381177E-17
3.347214E+03	1.382814E-16	1.414851E-17
3.357176E+03	1.419437E-16	1.449255E-17
3.367138E+03	1.456937E-16	1.484380E-17
3.377099E+03	1.495310E-16	1.520215E-17
3.387061E+03	1.534551E-16	1.556748E-17
3.397023E+03	1.574797E-16	1.594110E-17
3.406985E+03	1.615894E-16	1.632138E-17
3.416947E+03	1.657830E-16	1.670814E-17
3.426909E+03	1.700886E-16	1.710412E-17
3.436871E+03	1.744752E-16	1.750614E-17
3.446833E+03	1.789558E-16	1.791541E-17
3.456795E+03	1.835283E-16	1.833166E-17
3.466757E+03	1.881903E-16	1.875457E-17
3.476719E+03	1.929390E-16	1.918379E-17
3.486681E+03	1.977870E-16	1.962048E-17
3.496643E+03	2.027000E-16	2.006118E-17
3.506605E+03	2.077210E-16	2.051006E-17
3.516567E+03	2.128150E-16	2.096361E-17
3.526529E+03	2.179936E-16	2.142287E-17
3.536491E+03	2.232524E-16	2.188735E-17
3.546453E+03	2.285708E-16	2.235496E-17
3.556414E+03	2.339757E-16	2.282827E-17
3.566376E+03	2.394462E-16	2.330515E-17
3.576338E+03	2.449772E-16	2.378506E-17
3.586300E+03	2.505790E-16	2.426894E-17
3.596262E+03	2.562471E-16	2.475626E-17
3.606224E+03	2.619591E-16	2.524483E-17
3.616186E+03	2.677272E-16	2.573574E-17
3.626148E+03	2.735455E-16	2.622839E-17
3.636110E+03	2.794104E-16	2.672237E-17
3.646072E+03	2.853180E-16	2.721726E-17
3.656034E+03	2.912817E-16	2.771427E-17
3.665996E+03	2.972990E-16	2.821313E-17
3.675958E+03	3.033531E-16	2.871217E-17
3.685920E+03	3.094443E-16	2.921138E-17
3.695882E+03	3.156074E-16	2.971398E-17
3.705844E+03	3.218296E-16	3.021871E-17
3.715806E+03	3.281165E-16	3.072602E-17
3.725768E+03	3.344919E-16	3.123807E-17
3.735730E+03	3.409325E-16	3.175259E-17
3.745691E+03	3.474994E-16	3.227520E-17
3.755653E+03	3.541735E-16	3.280400E-17
3.765615E+03	3.609864E-16	3.334182E-17
3.775577E+03	3.679550E-16	3.389007E-17
3.785539E+03	3.750983E-16	3.445037E-17
3.795501E+03	3.824349E-16	3.502425E-17
3.805463E+03	3.900015E-16	3.561490E-17
3.815425E+03	3.978006E-16	3.622233E-17
3.825387E+03	4.058512E-16	3.684807E-17
3.835349E+03	4.141870E-16	3.749494E-17
3.845311E+03	4.228221E-16	3.816395E-17
3.855273E+03	4.317520E-16	3.885445E-17
3.865235E+03	4.410003E-16	3.956829E-17
3.875197E+03	4.505856E-16	4.030683E-17
3.885159E+03	4.604698E-16	4.106638E-17
3.895121E+03	4.706560E-16	4.184695E-17
3.905083E+03	4.811209E-16	4.264620E-17
3.915045E+03	4.918469E-16	4.346230E-17
3.925006E+03	5.027686E-16	4.428926E-17
3.934968E+03	5.138065E-16	4.511988E-17
3.944930E+03	5.249302E-16	4.595140E-17
3.954892E+03	5.359896E-16	4.677059E-17
3.964854E+03	5.468992E-16	4.757006E-17
3.974816E+03	5.574881E-16	4.833506E-17
3.984778E+03	5.676540E-16	4.905700E-17
3.994740E+03	5.771843E-16	4.971789E-17
4.004702E+03	5.859295E-16	5.030542E-17
4.014664E+03	5.937441E-16	5.080776E-17
4.024626E+03	6.004607E-16	5.121141E-17
4.034588E+03	6.059331E-16	5.150487E-17
4.044550E+03	6.100920E-16	5.168332E-17
4.054512E+03	6.128378E-16	5.173947E-17
4.064474E+03	6.141565E-16	5.167335E-17
4.074436E+03	6.140574E-16	5.148699E-17
4.084398E+03	6.125711E-16	5.118416E-17
4.094360E+03	6.097777E-16	5.077277E-17
4.104321E+03	6.057996E-16	5.026411E-17
4.114283E+03	6.007393E-16	4.966773E-17
4.124245E+03	5.947735E-16	4.899914E-17
4.134207E+03	5.880246E-16	4.826923E-17
4.144169E+03	5.807049E-16	4.749606E-17
4.154131E+03	5.729551E-16	4.669164E-17
4.164093E+03	5.649828E-16	4.587323E-17
4.174055E+03	5.569467E-16	4.505389E-17
4.184017E+03	5.490263E-16	4.424818E-17
4.193979E+03	5.413932E-16	4.346979E-17
4.203941E+03	5.342169E-16	4.273205E-17
4.213903E+03	5.276101E-16	4.204354E-17
4.223865E+03	5.217208E-16	4.141553E-17
4.233827E+03	5.166474E-16	4.085514E-17
4.243789E+03	5.124702E-16	4.036799E-17
4.253751E+03	5.092616E-16	3.995894E-17
4.263713E+03	5.070778E-16	3.963149E-17
4.273675E+03	5.059515E-16	3.938728E-17
4.283637E+03	5.059142E-16	3.922775E-17
4.293598E+03	5.069803E-16	3.915303E-17
4.303560E+03	5.091586E-16	3.916276E-17
4.313522E+03	5.124731E-16	3.925773E-17
4.323484E+03	5.169204E-16	3.943663E-17
4.333446E+03	5.225178E-16	3.969968E-17
4.343408E+03	5.292864E-16	4.004741E-17
4.353370E+03	5.372384E-16	4.047961E-17
4.363332E+03	5.464127E-16	4.099806E-17
4.373294E+03	5.568531E-16	4.160485E-17
4.383256E+03	5.686182E-16	4.230315E-17
4.393218E+03	5.817849E-16	4.309733E-17
4.403180E+03	5.964479E-16	4.399304E-17
4.413142E+03	6.127281E-16	4.499768E-17
4.423104E+03	6.307545E-16	4.611912E-17
4.433066E+03	6.506678E-16	4.736587E-17
4.443028E+03	6.726131E-16	4.874659E-17
4.452990E+03	6.967603E-16	5.027154E-17
4.462952E+03	7.232238E-16	5.194677E-17
4.472913E+03	7.520819E-16	5.377558E-17
4.482875E+03	7.834000E-16	5.576023E-17
4.492837E+03	8.171178E-16	5.789401E-17
4.502799E+03	8.531135E-16	6.016593E-17
4.512761E+03	8.911605E-16	6.255778E-17
4.522723E+03	9.309120E-16	6.504328E-17
4.532685E+03	9.719244E-16	6.758982E-17
4.542647E+03	1.013670E-15	7.015960E-17
4.552609E+03	1.055507E-15	7.270760E-17
4.562571E+03	1.096765E-15	7.518773E-17
4.572533E+03	1.136752E-15	7.755331E-17
4.582495E+03	1.174775E-15	7.975843E-17
4.592457E+03	1.210214E-15	8.176317E-17
4.602419E+03	1.242503E-15	8.353208E-17
4.612381E+03	1.271191E-15	8.503799E-17
4.622343E+03	1.295980E-15	8.626469E-17
4.632305E+03	1.316722E-15	8.720621E-17
4.642267E+03	1.333471E-15	8.787022E-17
4.652228E+03	1.346425E-15	8.827370E-17
4.662190E+03	1.355942E-15	8.844370E-17
4.672152E+03	1.362522E-15	8.841631E-17
4.682114E+03	1.366778E-15	8.823395E-17
4.692076E+03	1.369343E-15	8.793968E-17
4.702038E+03	1.370860E-15	8.757626E-17
4.712000E+03	1.371988E-15	8.718675E-17
4.721962E+03	1.373298E-15	8.680756E-17
4.731924E+03	1.375278E-15	8.646934E-17
4.741886E+03	1.378356E-15	8.619806E-17
4.751848E+03	1.382843E-15	8.601204E-17
4.761810E+03	1.388951E-15	8.592307E-17
4.771772E+03	1.396828E-15	8.593860E-17
4.781734E+03	1.406440E-15	8.605473E-17
4.791696E+03	1.417706E-15	8.626490E-17
4.801658E+03	1.430434E-15	8.655579E-17
4.811620E+03	1.444381E-15	8.691136E-17
4.821582E+03	1.459216E-15	8.731059E-17
4.831544E+03	1.474559E-15	8.773003E-17
4.841505E+03	1.489979E-15	8.814370E-17
4.851467E+03	1.505007E-15	8.852397E-17
4.861429E+03	1.519139E-15	8.884190E-17
4.871391E+03	1.531922E-15	8.907195E-17
4.881353E+03	1.542873E-15	8.918781E-17
4.891315E+03	1.551598E-15	8.916862E-17
4.901277E+03	1.557777E-15	8.899841E-17
4.911239E+03	1.561160E-15	8.866568E-17
4.921201E+03	1.561643E-15	8.816745E-17
4.931163E+03	1.559225E-15	8.750662E-17
4.941125E+03	1.553969E-15	8.668962E-17
4.951087E+03	1.546005E-15	8.572671E-17
4.961049E+03	1.535471E-15	8.462818E-17
4.971011E+03	1.522574E-15	8.340806E-17
4.980973E+03	1.507523E-15	8.208009E-17
4.990935E+03	1.490575E-15	8.066037E-17
5.000897E+03	1.472057E-15	7.916847E-17
5.010859E+03	1.452420E-15	7.763003E-17
5.020820E+03	1.432162E-15	7.607272E-17
5.030782E+03	1.411903E-15	7.452985E-17
5.040744E+03	1.392330E-15	7.303748E-17
5.050706E+03	1.374140E-15	7.163136E-17
5.060668E+03	1.358066E-15	7.034799E-17
5.070630E+03	1.344790E-15	6.922049E-17
5.080592E+03	1.334953E-15	6.827893E-17
5.090554E+03	1.329040E-15	6.754467E-17
5.100516E+03	1.327464E-15	6.703469E-17
5.110478E+03	1.330447E-15	6.675609E-17
5.120440E+03	1.338096E-15	6.670982E-17
5.130402E+03	1.350315E-15	6.688673E-17
5.140364E+03	1.366882E-15	6.727165E-17
5.150326E+03	1.387428E-15	6.784257E-17
5.160288E+03	1.411477E-15	6.857268E-17
5.170250E+03	1.438499E-15	6.943329E-17
5.180212E+03	1.467864E-15	7.039161E-17
5.190174E+03	1.498986E-15	7.141781E-17
5.200135E+03	1.531260E-15	7.248181E-17
5.210097E+03	1.564175E-15	7.355876E-17
5.220059E+03	1.597244E-15	7.462565E-17
5.230021E+03	1.630078E-15	7.566457E-17
5.239983E+03	1.662386E-15	7.666264E-17
5.249945E+03	1.693956E-15	7.761087E-17
5.259907E+03	1.724598E-15	7.850167E-17
5.269869E+03	1.754203E-15	7.933119E-17
5.279831E+03	1.782646E-15	8.009513E-17
5.289793E+03	1.809871E-15	8.079227E-17
5.299755E+03	1.835788E-15	8.142009E-17
5.309717E+03	1.860288E-15	8.197519E-17
5.319679E+03	1.883311E-15	8.245656E-17
5.329641E+03	1.904741E-15	8.286065E-17
5.339603E+03	1.924477E-15	8.318479E-17
5.349565E+03	1.942447E-15	8.342760E-17
5.359527E+03	1.958579E-15	8.358779E-17
5.369489E+03	1.972838E-15	8.366567E-17
5.379450E+03	1.985234E-15	8.366350E-17
5.389412E+03	1.995857E-15	8.358673E-17
5.399374E+03	2.004828E-15	8.344211E-17
5.409336E+03	2.012290E-15	8.323708E-17
5.419298E+03	2.018464E-15	8.298212E-17
5.429260E+03	2.023495E-15	8.268439E-17
5.439222E+03	2.027514E-15	8.235022E-17
5.449184E+03	2.030608E-15	8.198408E-17
5.459146E+03	2.032756E-15	8.158608E-17
5.469108E+03	2.033926E-15	8.115569E-17
5.479070E+03	2.033964E-15	8.068777E-17
5.489032E+03	2.032627E-15	8.017359E-17
5.498994E+03	2.029668E-15	7.960434E-17
5.508956E+03	2.024997E-15	7.897736E-17
5.518918E+03	2.018633E-15	7.829438E-17
5.528880E+03	2.010784E-15	7.756420E-17
5.538842E+03	2.001812E-15	7.680147E-17
5.548804E+03	1.992183E-15	7.602436E-17
5.558766E+03	1.982463E-15	7.525453E-17
5.568727E+03	1.973187E-15	7.451195E-17
5.578689E+03	1.964783E-15	7.381219E-17
5.588651E+03	1.957552E-15	7.316574E-17
5.598613E+03	1.951606E-15	7.257586E-17
5.608575E+03	1.946835E-15	7.203754E-17
5.618537E+03	1.942993E-15	7.154087E-17
5.628499E+03	1.939672E-15	7.107018E-17
5.638461E+03	1.936403E-15	7.060792E-17
5.648423E+03	1.932763E-15	7.013858E-17
5.658385E+03	1.928380E-15	6.964863E-17
5.668347E+03	1.922977E-15	6.912838E-17
5.678309E+03	1.916422E-15	6.857341E-17
5.688271E+03	1.908771E-15	6.798613E-17
5.698233E+03	1.900187E-15	6.737260E-17
5.708195E+03	1.890965E-15	6.674356E-17
5.718157E+03	1.881485E-15	6.611241E-17
5.728119E+03	1.872151E-15	6.549327E-17
5.738081E+03	1.863398E-15	6.490098E-17
5.748042E+03	1.855641E-15	6.434951E-17
5.758004E+03	1.849238E-15	6.385060E-17
5.767966E+03	1.844516E-15	6.341477E-17
5.777928E+03	1.841733E-15	6.304994E-17
5.787890E+03	1.841143E-15	6.276378E-17
5.797852E+03	1.842848E-15	6.255873E-17
5.807814E+03	1.846950E-15	6.243714E-17
5.817776E+03	1.853431E-15	6.239734E-17
5.827738E+03	1.862199E-15	6.243516E-17
5.837700E+03	1.873078E-15	6.254375E-17
5.847662E+03	1.885722E-15	6.271067E-17
5.857624E+03	1.899785E-15	6.292376E-17
5.867586E+03	1.914799E-15	6.316701E-17
5.877548E+03	1.930258E-15	6.342336E-17
5.887510E+03	1.945662E-15	6.367628E-17
5.897472E+03	1.960553E-15	6.391090E-17
5.907434E+03	1.974450E-15	6.411178E-17
5.917396E+03	1.987061E-15	6.426989E-17
5.927357E+03	1.998072E-15	6.437558E-17
5.937319E+03	2.007339E-15	6.442485E-17
5.947281E+03	2.014787E-15	6.441596E-17
5.957243E+03	2.020391E-15	6.434878E-17
5.967205E+03	2.024178E-15	6.422490E-17
5.977167E+03	2.026276E-15	6.404899E-17
5.987129E+03	2.026762E-15	6.382414E-17
5.997091E+03	2.025781E-15	6.355542E-17
6.007053E+03	2.023495E-15	6.324847E-17
6.017015E+03	2.020085E-15	6.290943E-17
6.026977E+03	2.015749E-15	6.254481E-17
6.036939E+03	2.010670E-15	6.216059E-17
6.046901E+03	2.005027E-15	6.176265E-17
6.056863E+03	1.999052E-15	6.135825E-17
6.066825E+03	1.992875E-15	6.095159E-17
6.076787E+03	1.986645E-15	6.054725E-17
6.086749E+03	1.980483E-15	6.014904E-17
6.096711E+03	1.974492E-15	5.976011E-17
6.106673E+03	1.968724E-15	5.938200E-17
6.116634E+03	1.963305E-15	5.901853E-17
6.126596E+03	1.958284E-15	5.867113E-17
6.136558E+03	1.953747E-15	5.834238E-17
6.146520E+03	1.949773E-15	5.803452E-17
6.156482E+03	1.946368E-15	5.774774E-17
6.166444E+03	1.943565E-15	5.748290E-17
6.176406E+03	1.941244E-15	5.723647E-17
6.186368E+03	1.939286E-15	5.700491E-17
6.196330E+03	1.937438E-15	5.678090E-17
6.206292E+03	1.935433E-15	5.655672E-17
6.216254E+03	1.932977E-15	5.632397E-17
6.226216E+03	1.929760E-15	5.607395E-17
6.236178E+03	1.925548E-15	5.580017E-17
6.246140E+03	1.920123E-15	5.549674E-17
6.256102E+03	1.913374E-15	5.516088E-17
6.266064E+03	1.905249E-15	5.479148E-17
6.276026E+03	1.895772E-15	5.438968E-17
6.285988E+03	1.885031E-15	5.395838E-17
6.295949E+03	1.873270E-15	5.350487E-17
6.305911E+03	1.860730E-15	5.303632E-17
6.315873E+03	1.847891E-15	5.256657E-17
6.325835E+03	1.835231E-15	5.210934E-17
6.335797E+03	1.823450E-15	5.168448E-17
6.345759E+03	1.813274E-15	5.131252E-17
6.355721E+03	1.805580E-15	5.101805E-17
6.365683E+03	1.801263E-15	5.082615E-17
6.375645E+03	1.801268E-15	5.076317E-17
6.385607E+03	1.806515E-15	5.085474E-17
6.395569E+03	1.817918E-15	5.112636E-17
6.405531E+03	1.836322E-15	5.160151E-17
6.415493E+03	1.862544E-15	5.230313E-17
6.425455E+03	1.897259E-15	5.325019E-17
6.435417E+03	1.941075E-15	5.446003E-17
6.445379E+03	1.994442E-15	5.594571E-17
6.455341E+03	2.057645E-15	5.771588E-17
6.465303E+03	2.130673E-15	5.977081E-17
6.475264E+03	2.213229E-15	6.210281E-17
6.485226E+03	2.304693E-15	6.469531E-17
6.495188E+03	2.404059E-15	6.752108E-17
6.505150E+03	2.509987E-15	7.054345E-17
6.515112E+03	2.620145E-15	7.369795E-17
6.525074E+03	2.730979E-15	7.688538E-17
6.535036E+03	2.838623E-15	7.999746E-17
6.544998E+03	2.939225E-15	8.292565E-17
6.554960E+03	3.029135E-15	8.556652E-17
6.564922E+03	3.105285E-15	8.783237E-17
6.574884E+03	3.165171E-15	8.965068E-17
6.584846E+03	3.207091E-15	9.097113E-17
6.594808E+03	3.230346E-15	9.177130E-17
6.604770E+03	3.234967E-15	9.204916E-17
6.614732E+03	3.221950E-15	9.183002E-17
6.624694E+03	3.192812E-15	9.115407E-17
6.634656E+03	3.149692E-15	9.007945E-17
6.644618E+03	3.095042E-15	8.867359E-17
6.654580E+03	3.031324E-15	8.700477E-17
6.664541E+03	2.961055E-15	8.514322E-17
6.674503E+03	2.886673E-15	8.315748E-17
6.684465E+03	2.810223E-15	8.110538E-17
6.694427E+03	2.733568E-15	7.903987E-17
6.704389E+03	2.658177E-15	7.700301E-17
6.714351E+03	2.585265E-15	7.502984E-17
6.724313E+03	2.515706E-15	7.314580E-17
6.734275E+03	2.450033E-15	7.136663E-17
6.744237E+03	2.388670E-15	6.970505E-17
6.754199E+03	2.331783E-15	6.816631E-17
6.764161E+03	2.279330E-15	6.674976E-17
6.774123E+03	2.231267E-15	6.545454E-17
6.784085E+03	2.187467E-15	6.427744E-17
6.794047E+03	2.147796E-15	6.321501E-17
6.804009E+03	2.112140E-15	6.226439E-17
6.813971E+03	2.080423E-15	6.142374E-17
6.823933E+03	2.052553E-15	6.069078E-17
6.833895E+03	2.028604E-15	6.006816E-17
6.843856E+03	2.008533E-15	5.955492E-17
6.853818E+03	1.992342E-15	5.915148E-17
6.863780E+03	1.980004E-15	5.885746E-17
6.873742E+03	1.971452E-15	5.867106E-17
6.883704E+03	1.966551E-15	5.858858E-17
6.893666E+03	1.965096E-15	5.860405E-17
6.903628E+03	1.966796E-15	5.870898E-17
6.913590E+03	1.971277E-15	5.889223E-17
6.923552E+03	1.978024E-15	5.913844E-17
6.933514E+03	1.986584E-15	5.943400E-17
6.943476E+03	1.996311E-15	5.975942E-17
6.953438E+03	2.006573E-15	6.009562E-17
6.963400E+03	2.016725E-15	6.042309E-17
6.973362E+03	2.026132E-15	6.072258E-17
6.983324E+03	2.034198E-15	6.097594E-17
6.993286E+03	2.040386E-15	6.116688E-17
7.003248E+03	2.044238E-15	6.128148E-17
7.013210E+03	2.045366E-15	6.130795E-17
7.023171E+03	2.043554E-15	6.123972E-17
7.033133E+03	2.038676E-15	6.107302E-17
7.043095E+03	2.030708E-15	6.080715E-17
7.053057E+03	2.019775E-15	6.044601E-17
7.063019E+03	2.006121E-15	5.999701E-17
7.072981E+03	1.990117E-15	5.947149E-17
7.082943E+03	1.972159E-15	5.888156E-17
7.092905E+03	1.952737E-15	5.824209E-17
7.102867E+03	1.932352E-15	5.756829E-17
7.112829E+03	1.911608E-15	5.687840E-17
7.122791E+03	1.890990E-15	5.618708E-17
7.132753E+03	1.871044E-15	5.551063E-17
7.142715E+03	1.852236E-15	5.486302E-17
7.152677E+03	1.834950E-15	5.425554E-17
7.162639E+03	1.819549E-15	5.369890E-17
7.172601E+03	1.806277E-15	5.320012E-17
7.182563E+03	1.795374E-15	5.276596E-17
7.192525E+03	1.786974E-15	5.240005E-17
7.202487E+03	1.781225E-15	5.210633E-17
7.212448E+03	1.778158E-15	5.188523E-17
7.222410E+03	1.777902E-15	5.173991E-17
7.232372E+03	1.780371E-15	5.166725E-17
7.242334E+03	1.785538E-15	5.166586E-17
7.252296E+03	1.793208E-15	5.172936E-17
7.262258E+03	1.803131E-15	5.184987E-17
7.272220E+03	1.814865E-15	5.201405E-17
7.282182E+03	1.827977E-15	5.220894E-17
7.292144E+03	1.841870E-15	5.241706E-17
7.302106E+03	1.855960E-15	5.262155E-17
7.312068E+03	1.869601E-15	5.280402E-17
7.322030E+03	1.882206E-15	5.294807E-17
7.331992E+03	1.893281E-15	5.304018E-17
7.341954E+03	1.902359E-15	5.306783E-17
7.351916E+03	1.909099E-15	5.302233E-17
7.361878E+03	1.913289E-15	5.289873E-17
7.371840E+03	1.914757E-15	5.269332E-17
7.381802E+03	1.913482E-15	5.240673E-17
7.391763E+03	1.909504E-15	5.204130E-17
7.401725E+03	1.902914E-15	5.160080E-17
7.411687E+03	1.893944E-15	5.109276E-17
7.421649E+03	1.882829E-15	5.052479E-17
7.431611E+03	1.869922E-15	4.990746E-17
7.441573E+03	1.855610E-15	4.925216E-17
7.451535E+03	1.840206E-15	4.856810E-17
7.461497E+03	1.824137E-15	4.786727E-17
7.471459E+03	1.807681E-15	4.715764E-17
7.481421E+03	1.791194E-15	4.644891E-17
7.491383E+03	1.774864E-15	4.574631E-17
7.501345E+03	1.758947E-15	4.505670E-17
7.511307E+03	1.743548E-15	4.438294E-17
7.521269E+03	1.728869E-15	4.373021E-17
7.531231E+03	1.714985E-15	4.310046E-17
7.541193E+03	1.702058E-15	4.249770E-17
7.551155E+03	1.690225E-15	4.192527E-17
7.561117E+03	1.679599E-15	4.138576E-17
7.571078E+03	1.670372E-15	4.088369E-17
7.581040E+03	1.662611E-15	4.042042E-17
7.591002E+03	1.656454E-15	3.999893E-17
7.600964E+03	1.651980E-15	3.962076E-17
7.610926E+03	1.649233E-15	3.928662E-17
7.620888E+03	1.648184E-15	3.899539E-17
7.630850E+03	1.648799E-15	3.874597E-17
7.640812E+03	1.650952E-15	3.853516E-17
7.650774E+03	1.654465E-15	3.835860E-17
7.660736E+03	1.659113E-15	3.821109E-17
7.670698E+03	1.664645E-15	3.808697E-17
7.680660E+03	1.670799E-15	3.798056E-17
7.690622E+03	1.677284E-15	3.788568E-17
7.700584E+03	1.683902E-15	3.779849E-17
7.710546E+03	1.690375E-15	3.771348E-17
7.720508E+03	1.696456E-15	3.762603E-17
7.730470E+03	1.701935E-15	3.753248E-17
