#wls	flux	fluxerr
1.593911E+03	8.298984E-18	8.592169E-19
1.633759E+03	8.574466E-18	8.855532E-19
1.673607E+03	8.808592E-18	9.074344E-19
1.713455E+03	8.993147E-18	9.240434E-19
1.753302E+03	9.126916E-18	9.352908E-19
1.793150E+03	9.186692E-18	9.388430E-19
1.832998E+03	9.158992E-18	9.333855E-19
1.872846E+03	9.013827E-18	9.159458E-19
1.912694E+03	8.733065E-18	8.847919E-19
1.952541E+03	8.309189E-18	8.392915E-19
1.992389E+03	7.766734E-18	7.820550E-19
2.032237E+03	7.173269E-18	7.199871E-19
2.072085E+03	6.644841E-18	6.647587E-19
2.111932E+03	6.323453E-18	6.304746E-19
2.151780E+03	6.328737E-18	6.288187E-19
2.191628E+03	6.733641E-18	6.666739E-19
2.231476E+03	7.553182E-18	7.450881E-19
2.271324E+03	8.749721E-18	8.598922E-19
2.311171E+03	1.025964E-17	1.004410E-18
2.351019E+03	1.201261E-17	1.171388E-18
2.390867E+03	1.394624E-17	1.354440E-18
2.430715E+03	1.601658E-17	1.549049E-18
2.470562E+03	1.820289E-17	1.752994E-18
2.510410E+03	2.050090E-17	1.965661E-18
2.550258E+03	2.291820E-17	2.187566E-18
2.590106E+03	2.547019E-17	2.419949E-18
2.629954E+03	2.817119E-17	2.663908E-18
2.669801E+03	3.105700E-17	2.922531E-18
2.709649E+03	3.414076E-17	3.196704E-18
2.749497E+03	3.747101E-17	3.490571E-18
2.789345E+03	4.107102E-17	3.805831E-18
2.829192E+03	4.497992E-17	4.145578E-18
2.869040E+03	4.923938E-17	4.513039E-18
2.908888E+03	5.389364E-17	4.911569E-18
2.948736E+03	5.899884E-17	5.345482E-18
2.988584E+03	6.461551E-17	5.819336E-18
2.998546E+03	6.610187E-17	5.944125E-18
3.008508E+03	6.762412E-17	6.071683E-18
3.018469E+03	6.918286E-17	6.202044E-18
3.028431E+03	7.078929E-17	6.336192E-18
3.038393E+03	7.243823E-17	6.473641E-18
3.048355E+03	7.413696E-17	6.615020E-18
3.058317E+03	7.589579E-17	6.761220E-18
3.068279E+03	7.771349E-17	6.912106E-18
3.078241E+03	7.959947E-17	7.068481E-18
3.088203E+03	8.155297E-17	7.230247E-18
3.098165E+03	8.356266E-17	7.396365E-18
3.108127E+03	8.563849E-17	7.567689E-18
3.118089E+03	8.776908E-17	7.743178E-18
3.128051E+03	8.996473E-17	7.923712E-18
3.138013E+03	9.222507E-17	8.109227E-18
3.147975E+03	9.454987E-17	8.299666E-18
3.157937E+03	9.692758E-17	8.493986E-18
3.167899E+03	9.938064E-17	8.694118E-18
3.177861E+03	1.018862E-16	8.898028E-18
3.187823E+03	1.044672E-16	9.107689E-18
3.197784E+03	1.071122E-16	9.322070E-18
3.207746E+03	1.098333E-16	9.542174E-18
3.217708E+03	1.126069E-16	9.765923E-18
3.227670E+03	1.154571E-16	9.995368E-18
3.237632E+03	1.183845E-16	1.023052E-17
3.247594E+03	1.213773E-16	1.047032E-17
3.257556E+03	1.244483E-16	1.071584E-17
3.267518E+03	1.275982E-16	1.096709E-17
3.277480E+03	1.308150E-16	1.122300E-17
3.287442E+03	1.341121E-16	1.148466E-17
3.297404E+03	1.375029E-16	1.175319E-17
3.307366E+03	1.409626E-16	1.202642E-17
3.317328E+03	1.445180E-16	1.230658E-17
3.327290E+03	1.481568E-16	1.259259E-17
3.337252E+03	1.518798E-16	1.288445E-17
3.347214E+03	1.557012E-16	1.318332E-17
3.357176E+03	1.596085E-16	1.348809E-17
3.367138E+03	1.636160E-16	1.379990E-17
3.377099E+03	1.677108E-16	1.411762E-17
3.387061E+03	1.719209E-16	1.444355E-17
3.397023E+03	1.762196E-16	1.477538E-17
3.406985E+03	1.806211E-16	1.511425E-17
3.416947E+03	1.851399E-16	1.546130E-17
3.426909E+03	1.897481E-16	1.581414E-17
3.436871E+03	1.944741E-16	1.617508E-17
3.446833E+03	1.993037E-16	1.654285E-17
3.456795E+03	2.042508E-16	1.691856E-17
3.466757E+03	2.093005E-16	1.730090E-17
3.476719E+03	2.144667E-16	1.769095E-17
3.486681E+03	2.197483E-16	1.808855E-17
3.496643E+03	2.251293E-16	1.849231E-17
3.506605E+03	2.306379E-16	1.890448E-17
3.516567E+03	2.362422E-16	1.932237E-17
3.526529E+03	2.419701E-16	1.974818E-17
3.536491E+03	2.478036E-16	2.018039E-17
3.546453E+03	2.537401E-16	2.061870E-17
3.556414E+03	2.597759E-16	2.106275E-17
3.566376E+03	2.659218E-16	2.151335E-17
3.576338E+03	2.721735E-16	2.197006E-17
3.586300E+03	2.785258E-16	2.243242E-17
3.596262E+03	2.849569E-16	2.289858E-17
3.606224E+03	2.914754E-16	2.336918E-17
3.616186E+03	2.980736E-16	2.384354E-17
3.626148E+03	3.047589E-16	2.432220E-17
3.636110E+03	3.114911E-16	2.480189E-17
3.646072E+03	3.182916E-16	2.528427E-17
3.656034E+03	3.251517E-16	2.576858E-17
3.665996E+03	3.320457E-16	2.625277E-17
3.675958E+03	3.389659E-16	2.673616E-17
3.685920E+03	3.459372E-16	2.722071E-17
3.695882E+03	3.529396E-16	2.770480E-17
3.705844E+03	3.599571E-16	2.818712E-17
3.715806E+03	3.670251E-16	2.867043E-17
3.725768E+03	3.741217E-16	2.915297E-17
3.735730E+03	3.812953E-16	2.963848E-17
3.745691E+03	3.885701E-16	3.012877E-17
3.755653E+03	3.959630E-16	3.062506E-17
3.765615E+03	4.035147E-16	3.113042E-17
3.775577E+03	4.112911E-16	3.164980E-17
3.785539E+03	4.193507E-16	3.218754E-17
3.795501E+03	4.277581E-16	3.274841E-17
3.805463E+03	4.365685E-16	3.333639E-17
3.815425E+03	4.458884E-16	3.395932E-17
3.825387E+03	4.557607E-16	3.462016E-17
3.835349E+03	4.662753E-16	3.532536E-17
3.845311E+03	4.775003E-16	3.607964E-17
3.855273E+03	4.895112E-16	3.688824E-17
3.865235E+03	5.023206E-16	3.775161E-17
3.875197E+03	5.159731E-16	3.867258E-17
3.885159E+03	5.304923E-16	3.965235E-17
3.895121E+03	5.458425E-16	4.068771E-17
3.905083E+03	5.619576E-16	4.177319E-17
3.915045E+03	5.787904E-16	4.290479E-17
3.925006E+03	5.962072E-16	4.407215E-17
3.934968E+03	6.140560E-16	4.526364E-17
3.944930E+03	6.321299E-16	4.646376E-17
3.954892E+03	6.502438E-16	4.765875E-17
3.964854E+03	6.681103E-16	4.882756E-17
3.974816E+03	6.854927E-16	4.995304E-17
3.984778E+03	7.020659E-16	5.101183E-17
3.994740E+03	7.175366E-16	5.198319E-17
4.004702E+03	7.316377E-16	5.284847E-17
4.014664E+03	7.440830E-16	5.358792E-17
4.024626E+03	7.546539E-16	5.418686E-17
4.034588E+03	7.631168E-16	5.462979E-17
4.044550E+03	7.693443E-16	5.490894E-17
4.054512E+03	7.732467E-16	5.501938E-17
4.064474E+03	7.747938E-16	5.496047E-17
4.074436E+03	7.739983E-16	5.473465E-17
4.084398E+03	7.709329E-16	5.434858E-17
4.094360E+03	7.657755E-16	5.381629E-17
4.104321E+03	7.586990E-16	5.315127E-17
4.114283E+03	7.499006E-16	5.236858E-17
4.124245E+03	7.396726E-16	5.148975E-17
4.134207E+03	7.282797E-16	5.053411E-17
4.144169E+03	7.160140E-16	4.952268E-17
4.154131E+03	7.031425E-16	4.847448E-17
4.164093E+03	6.899835E-16	4.741181E-17
4.174055E+03	6.767877E-16	4.635209E-17
4.184017E+03	6.638273E-16	4.531394E-17
4.193979E+03	6.513250E-16	4.431238E-17
4.203941E+03	6.394775E-16	4.336046E-17
4.213903E+03	6.284768E-16	4.247075E-17
4.223865E+03	6.184606E-16	4.165195E-17
4.233827E+03	6.095488E-16	4.091147E-17
4.243789E+03	6.018127E-16	4.025333E-17
4.253751E+03	5.953395E-16	3.968254E-17
4.263713E+03	5.901621E-16	3.920044E-17
4.273675E+03	5.862852E-16	3.880644E-17
4.283637E+03	5.837379E-16	3.850156E-17
4.293598E+03	5.824986E-16	3.828347E-17
4.303560E+03	5.825686E-16	3.815133E-17
4.313522E+03	5.839179E-16	3.810227E-17
4.323484E+03	5.865480E-16	3.813549E-17
4.333446E+03	5.904585E-16	3.825005E-17
4.343408E+03	5.956509E-16	3.844514E-17
4.353370E+03	6.021432E-16	3.872100E-17
4.363332E+03	6.100005E-16	3.908086E-17
4.373294E+03	6.192747E-16	3.952705E-17
4.383256E+03	6.300598E-16	4.006452E-17
4.393218E+03	6.424832E-16	4.070025E-17
4.403180E+03	6.566861E-16	4.144195E-17
4.413142E+03	6.728191E-16	4.229778E-17
4.423104E+03	6.910639E-16	4.327770E-17
4.433066E+03	7.115862E-16	4.439051E-17
4.443028E+03	7.345653E-16	4.564565E-17
4.452990E+03	7.601605E-16	4.705117E-17
4.462952E+03	7.884566E-16	4.861035E-17
4.472913E+03	8.195268E-16	5.032569E-17
4.482875E+03	8.533339E-16	5.219283E-17
4.492837E+03	8.897865E-16	5.420416E-17
4.502799E+03	9.286822E-16	5.634539E-17
4.512761E+03	9.697054E-16	5.859562E-17
4.522723E+03	1.012399E-15	6.092571E-17
4.532685E+03	1.056249E-15	6.330359E-17
4.542647E+03	1.100587E-15	6.568852E-17
4.552609E+03	1.144688E-15	6.803684E-17
4.562571E+03	1.187741E-15	7.030081E-17
4.572533E+03	1.228949E-15	7.243418E-17
4.582495E+03	1.267560E-15	7.439420E-17
4.592457E+03	1.302843E-15	7.613990E-17
4.602419E+03	1.334259E-15	7.764254E-17
4.612381E+03	1.361355E-15	7.887872E-17
4.622343E+03	1.383943E-15	7.984077E-17
4.632305E+03	1.401969E-15	8.052907E-17
4.642267E+03	1.415627E-15	8.095803E-17
4.652228E+03	1.425257E-15	8.115045E-17
4.662190E+03	1.431373E-15	8.113834E-17
4.672152E+03	1.434568E-15	8.095802E-17
4.682114E+03	1.435596E-15	8.065391E-17
4.692076E+03	1.435130E-15	8.026545E-17
4.702038E+03	1.433953E-15	7.983729E-17
4.712000E+03	1.432712E-15	7.940592E-17
4.721962E+03	1.432053E-15	7.900704E-17
4.731924E+03	1.432489E-15	7.866833E-17
4.741886E+03	1.434475E-15	7.841396E-17
4.751848E+03	1.438340E-15	7.826066E-17
4.761810E+03	1.444253E-15	7.821610E-17
4.771772E+03	1.452352E-15	7.828624E-17
4.781734E+03	1.462583E-15	7.846660E-17
4.791696E+03	1.474827E-15	7.874914E-17
4.801658E+03	1.488872E-15	7.912112E-17
4.811620E+03	1.504365E-15	7.956256E-17
4.821582E+03	1.520902E-15	8.005108E-17
4.831544E+03	1.537996E-15	8.056042E-17
4.841505E+03	1.555129E-15	8.106317E-17
4.851467E+03	1.571741E-15	8.153038E-17
4.861429E+03	1.587289E-15	8.193437E-17
4.871391E+03	1.601234E-15	8.224834E-17
4.881353E+03	1.613083E-15	8.244834E-17
4.891315E+03	1.622422E-15	8.251497E-17
4.901277E+03	1.628905E-15	8.243264E-17
4.911239E+03	1.632292E-15	8.219153E-17
4.921201E+03	1.632414E-15	8.178554E-17
4.931163E+03	1.629253E-15	8.121628E-17
4.941125E+03	1.622830E-15	8.048736E-17
4.951087E+03	1.613350E-15	7.961134E-17
4.961049E+03	1.601048E-15	7.860211E-17
4.971011E+03	1.586265E-15	7.747855E-17
4.980973E+03	1.569443E-15	7.626395E-17
4.990935E+03	1.551093E-15	7.498464E-17
5.000897E+03	1.531756E-15	7.366776E-17
5.010859E+03	1.512062E-15	7.234422E-17
5.020820E+03	1.492621E-15	7.104339E-17
5.030782E+03	1.474082E-15	6.979574E-17
5.040744E+03	1.457075E-15	6.863038E-17
5.050706E+03	1.442169E-15	6.757277E-17
5.060668E+03	1.429920E-15	6.664735E-17
5.070630E+03	1.420771E-15	6.587270E-17
5.080592E+03	1.415120E-15	6.526497E-17
5.090554E+03	1.413233E-15	6.483376E-17
5.100516E+03	1.415296E-15	6.458494E-17
5.110478E+03	1.421395E-15	6.451951E-17
5.120440E+03	1.431477E-15	6.463233E-17
5.130402E+03	1.445435E-15	6.491573E-17
5.140364E+03	1.463021E-15	6.535596E-17
5.150326E+03	1.483934E-15	6.593714E-17
5.160288E+03	1.507801E-15	6.664055E-17
5.170250E+03	1.534167E-15	6.744421E-17
5.180212E+03	1.562585E-15	6.832705E-17
5.190174E+03	1.592551E-15	6.926578E-17
5.200135E+03	1.623608E-15	7.023977E-17
5.210097E+03	1.655257E-15	7.122696E-17
5.220059E+03	1.687095E-15	7.220995E-17
5.230021E+03	1.718751E-15	7.317291E-17
5.239983E+03	1.749844E-15	7.410016E-17
5.249945E+03	1.780111E-15	7.498120E-17
5.259907E+03	1.809301E-15	7.580625E-17
5.269869E+03	1.837219E-15	7.656817E-17
5.279831E+03	1.863670E-15	7.725990E-17
5.289793E+03	1.888503E-15	7.787647E-17
5.299755E+03	1.911635E-15	7.841571E-17
5.309717E+03	1.932968E-15	7.887499E-17
5.319679E+03	1.952411E-15	7.925197E-17
5.329641E+03	1.969938E-15	7.954701E-17
5.339603E+03	1.985533E-15	7.976091E-17
5.349565E+03	1.999211E-15	7.989567E-17
5.359527E+03	2.011038E-15	7.995529E-17
5.369489E+03	2.021089E-15	7.994410E-17
5.379450E+03	2.029464E-15	7.986721E-17
5.389412E+03	2.036278E-15	7.973033E-17
5.399374E+03	2.041670E-15	7.954000E-17
5.409336E+03	2.045738E-15	7.930101E-17
5.419298E+03	2.048588E-15	7.901829E-17
5.429260E+03	2.050348E-15	7.869764E-17
5.439222E+03	2.051044E-15	7.834076E-17
5.449184E+03	2.050744E-15	7.795101E-17
5.459146E+03	2.049484E-15	7.753034E-17
5.469108E+03	2.047287E-15	7.708029E-17
5.479070E+03	2.044179E-15	7.660240E-17
5.489032E+03	2.040195E-15	7.609856E-17
5.498994E+03	2.035381E-15	7.557080E-17
5.508956E+03	2.029862E-15	7.502407E-17
5.518918E+03	2.023770E-15	7.446339E-17
5.528880E+03	2.017316E-15	7.389671E-17
5.538842E+03	2.010702E-15	7.333137E-17
5.548804E+03	2.004153E-15	7.277548E-17
5.558766E+03	1.997880E-15	7.223653E-17
5.568727E+03	1.992036E-15	7.171972E-17
5.578689E+03	1.986739E-15	7.122894E-17
5.588651E+03	1.982059E-15	7.076634E-17
5.598613E+03	1.977958E-15	7.033014E-17
5.608575E+03	1.974356E-15	6.991712E-17
5.618537E+03	1.971080E-15	6.952090E-17
5.628499E+03	1.968029E-15	6.913761E-17
5.638461E+03	1.964973E-15	6.875904E-17
5.648423E+03	1.961758E-15	6.837970E-17
5.658385E+03	1.958302E-15	6.799672E-17
5.668347E+03	1.954483E-15	6.760582E-17
5.678309E+03	1.950316E-15	6.720758E-17
5.688271E+03	1.945863E-15	6.680416E-17
5.698233E+03	1.941231E-15	6.639924E-17
5.708195E+03	1.936601E-15	6.599888E-17
5.718157E+03	1.932189E-15	6.561039E-17
5.728119E+03	1.928222E-15	6.524119E-17
5.738081E+03	1.924950E-15	6.489949E-17
5.748042E+03	1.922634E-15	6.459374E-17
5.758004E+03	1.921440E-15	6.432900E-17
5.767966E+03	1.921592E-15	6.411235E-17
5.777928E+03	1.923218E-15	6.394749E-17
5.787890E+03	1.926418E-15	6.383714E-17
5.797852E+03	1.931202E-15	6.378105E-17
5.807814E+03	1.937602E-15	6.377971E-17
5.817776E+03	1.945542E-15	6.383007E-17
5.827738E+03	1.954897E-15	6.392752E-17
5.837700E+03	1.965514E-15	6.406657E-17
5.847662E+03	1.977182E-15	6.423995E-17
5.857624E+03	1.989715E-15	6.444130E-17
5.867586E+03	2.002805E-15	6.466043E-17
5.877548E+03	2.016208E-15	6.488927E-17
5.887510E+03	2.029657E-15	6.511917E-17
5.897472E+03	2.042887E-15	6.534167E-17
5.907434E+03	2.055612E-15	6.554769E-17
5.917396E+03	2.067627E-15	6.573088E-17
5.927357E+03	2.078717E-15	6.588463E-17
5.937319E+03	2.088744E-15	6.600483E-17
5.947281E+03	2.097545E-15	6.608669E-17
5.957243E+03	2.105058E-15	6.612859E-17
5.967205E+03	2.111218E-15	6.612886E-17
5.977167E+03	2.116015E-15	6.608755E-17
5.987129E+03	2.119474E-15	6.600577E-17
5.997091E+03	2.121622E-15	6.588479E-17
6.007053E+03	2.122535E-15	6.572727E-17
6.017015E+03	2.122305E-15	6.553639E-17
6.026977E+03	2.121043E-15	6.531585E-17
6.036939E+03	2.118849E-15	6.506898E-17
6.046901E+03	2.115874E-15	6.480065E-17
6.056863E+03	2.112212E-15	6.451393E-17
6.066825E+03	2.108023E-15	6.421386E-17
6.076787E+03	2.103447E-15	6.390481E-17
6.086749E+03	2.098596E-15	6.359032E-17
6.096711E+03	2.093617E-15	6.327490E-17
6.106673E+03	2.088604E-15	6.296138E-17
6.116634E+03	2.083648E-15	6.265253E-17
6.126596E+03	2.078857E-15	6.235164E-17
6.136558E+03	2.074204E-15	6.205781E-17
6.146520E+03	2.069745E-15	6.177281E-17
6.156482E+03	2.065439E-15	6.149530E-17
6.166444E+03	2.061198E-15	6.122272E-17
6.176406E+03	2.056896E-15	6.095133E-17
6.186368E+03	2.052391E-15	6.067702E-17
6.196330E+03	2.047500E-15	6.039442E-17
6.206292E+03	2.042042E-15	6.009835E-17
6.216254E+03	2.035820E-15	5.978319E-17
6.226216E+03	2.028632E-15	5.944319E-17
6.236178E+03	2.020357E-15	5.907500E-17
6.246140E+03	2.010903E-15	5.867623E-17
6.256102E+03	2.000250E-15	5.824647E-17
6.266064E+03	1.988481E-15	5.778843E-17
6.276026E+03	1.975752E-15	5.730684E-17
6.285988E+03	1.962343E-15	5.680995E-17
6.295949E+03	1.948613E-15	5.630831E-17
6.305911E+03	1.935044E-15	5.581584E-17
6.315873E+03	1.922210E-15	5.534905E-17
6.325835E+03	1.910721E-15	5.492539E-17
6.335797E+03	1.901334E-15	5.456642E-17
6.345759E+03	1.894766E-15	5.429238E-17
6.355721E+03	1.891816E-15	5.412584E-17
6.365683E+03	1.893221E-15	5.408741E-17
6.375645E+03	1.899736E-15	5.419818E-17
6.385607E+03	1.912092E-15	5.447848E-17
6.395569E+03	1.930891E-15	5.494492E-17
6.405531E+03	1.956713E-15	5.561349E-17
6.415493E+03	1.989967E-15	5.649532E-17
6.425455E+03	2.030980E-15	5.759926E-17
6.435417E+03	2.079958E-15	5.893076E-17
6.445379E+03	2.136869E-15	6.048868E-17
6.455341E+03	2.201491E-15	6.226651E-17
6.465303E+03	2.273466E-15	6.425381E-17
6.475264E+03	2.352151E-15	6.643220E-17
6.485226E+03	2.436607E-15	6.877498E-17
6.495188E+03	2.525597E-15	7.124721E-17
6.505150E+03	2.617574E-15	7.380520E-17
6.515112E+03	2.710450E-15	7.639023E-17
6.525074E+03	2.801853E-15	7.893554E-17
6.535036E+03	2.889086E-15	8.136534E-17
6.544998E+03	2.969491E-15	8.360500E-17
6.554960E+03	3.040457E-15	8.558115E-17
6.564922E+03	3.099743E-15	8.723089E-17
6.574884E+03	3.145603E-15	8.850514E-17
6.584846E+03	3.176888E-15	8.937165E-17
6.594808E+03	3.193096E-15	8.981622E-17
6.604770E+03	3.194362E-15	8.984253E-17
6.614732E+03	3.181442E-15	8.947168E-17
6.624694E+03	3.155499E-15	8.873613E-17
6.634656E+03	3.118104E-15	8.767980E-17
6.644618E+03	3.071070E-15	8.635338E-17
6.654580E+03	3.016328E-15	8.481089E-17
6.664541E+03	2.955855E-15	8.310764E-17
6.674503E+03	2.891431E-15	8.129338E-17
6.684465E+03	2.824835E-15	7.941794E-17
6.694427E+03	2.757539E-15	7.752246E-17
6.704389E+03	2.690831E-15	7.564293E-17
6.714351E+03	2.625806E-15	7.380999E-17
6.724313E+03	2.563235E-15	7.204515E-17
6.734275E+03	2.503792E-15	7.036719E-17
6.744237E+03	2.447967E-15	6.878977E-17
6.754199E+03	2.396004E-15	6.731964E-17
6.764161E+03	2.348123E-15	6.596280E-17
6.774123E+03	2.304411E-15	6.472163E-17
6.784085E+03	2.264890E-15	6.359657E-17
6.794047E+03	2.229496E-15	6.258573E-17
6.804009E+03	2.198195E-15	6.168796E-17
6.813971E+03	2.170897E-15	6.090062E-17
6.823933E+03	2.147465E-15	6.021971E-17
6.833895E+03	2.127809E-15	5.964248E-17
6.843856E+03	2.111762E-15	5.916408E-17
6.853818E+03	2.099167E-15	5.877990E-17
6.863780E+03	2.089869E-15	5.848538E-17
6.873742E+03	2.083594E-15	5.827263E-17
6.883704E+03	2.080144E-15	5.813584E-17
6.893666E+03	2.079194E-15	5.806569E-17
6.903628E+03	2.080372E-15	5.805155E-17
6.913590E+03	2.083354E-15	5.808410E-17
6.923552E+03	2.087663E-15	5.814986E-17
6.933514E+03	2.092883E-15	5.823698E-17
6.943476E+03	2.098528E-15	5.833179E-17
6.953438E+03	2.104171E-15	5.842226E-17
6.963400E+03	2.109349E-15	5.849544E-17
6.973362E+03	2.113692E-15	5.854102E-17
6.983324E+03	2.116824E-15	5.854861E-17
6.993286E+03	2.118465E-15	5.851049E-17
7.003248E+03	2.118412E-15	5.842119E-17
7.013210E+03	2.116542E-15	5.827746E-17
7.023171E+03	2.112817E-15	5.807844E-17
7.033133E+03	2.107279E-15	5.782549E-17
7.043095E+03	2.100011E-15	5.752118E-17
7.053057E+03	2.091222E-15	5.717146E-17
7.063019E+03	2.081141E-15	5.678280E-17
7.072981E+03	2.070001E-15	5.636185E-17
7.082943E+03	2.058123E-15	5.591749E-17
7.092905E+03	2.045772E-15	5.545712E-17
7.102867E+03	2.033245E-15	5.498894E-17
7.112829E+03	2.020828E-15	5.452073E-17
7.122791E+03	2.008818E-15	5.406055E-17
7.132753E+03	1.997430E-15	5.361416E-17
7.142715E+03	1.986853E-15	5.318654E-17
7.152677E+03	1.977334E-15	5.278424E-17
7.162639E+03	1.968973E-15	5.240971E-17
7.172601E+03	1.961956E-15	5.206768E-17
7.182563E+03	1.956315E-15	5.175878E-17
7.192525E+03	1.952106E-15	5.148419E-17
7.202487E+03	1.949406E-15	5.124561E-17
7.212448E+03	1.948128E-15	5.104044E-17
7.222410E+03	1.948202E-15	5.086654E-17
7.232372E+03	1.949543E-15	5.072135E-17
7.242334E+03	1.951960E-15	5.059960E-17
7.252296E+03	1.955279E-15	5.049655E-17
7.262258E+03	1.959230E-15	5.040500E-17
7.272220E+03	1.963539E-15	5.031781E-17
7.282182E+03	1.967914E-15	5.022746E-17
7.292144E+03	1.972056E-15	5.012635E-17
7.302106E+03	1.975698E-15	5.000791E-17
7.312068E+03	1.978503E-15	4.986384E-17
7.322030E+03	1.980287E-15	4.968986E-17
7.331992E+03	1.980813E-15	4.948053E-17
7.341954E+03	1.979899E-15	4.923184E-17
7.351916E+03	1.977512E-15	4.894358E-17
7.361878E+03	1.973554E-15	4.861402E-17
7.371840E+03	1.968111E-15	4.824595E-17
7.381802E+03	1.961231E-15	4.784124E-17
7.391763E+03	1.953040E-15	4.740366E-17
7.401725E+03	1.943736E-15	4.693865E-17
7.411687E+03	1.933514E-15	4.645152E-17
7.421649E+03	1.922554E-15	4.594713E-17
7.431611E+03	1.911135E-15	4.543263E-17
7.441573E+03	1.899440E-15	4.491273E-17
7.451535E+03	1.887666E-15	4.439240E-17
7.461497E+03	1.876020E-15	4.387674E-17
7.471459E+03	1.864617E-15	4.336867E-17
7.481421E+03	1.853546E-15	4.287038E-17
7.491383E+03	1.842925E-15	4.238469E-17
7.501345E+03	1.832782E-15	4.191236E-17
7.511307E+03	1.823151E-15	4.145422E-17
7.521269E+03	1.814075E-15	4.101132E-17
7.531231E+03	1.805524E-15	4.058304E-17
7.541193E+03	1.797485E-15	4.016920E-17
7.551155E+03	1.789943E-15	3.976954E-17
7.561117E+03	1.782913E-15	3.938452E-17
7.571078E+03	1.776351E-15	3.901329E-17
7.581040E+03	1.770280E-15	3.865647E-17
7.591002E+03	1.764668E-15	3.831351E-17
7.600964E+03	1.759547E-15	3.798530E-17
7.610926E+03	1.754924E-15	3.767217E-17
7.620888E+03	1.750779E-15	3.737384E-17
7.630850E+03	1.747149E-15	3.709130E-17
7.640812E+03	1.744036E-15	3.682485E-17
7.650774E+03	1.741437E-15	3.657463E-17
7.660736E+03	1.739336E-15	3.634053E-17
7.670698E+03	1.737705E-15	3.612226E-17
7.680660E+03	1.736503E-15	3.591926E-17
7.690622E+03	1.735671E-15	3.573067E-17
7.700584E+03	1.735172E-15	3.555606E-17
7.710546E+03	1.734892E-15	3.539354E-17
7.720508E+03	1.734745E-15	3.524179E-17
7.730470E+03	1.734639E-15	3.509941E-17
