#wls	flux	fluxerr
1.593911E+03	4.474963E-18	3.486348E-19
1.633759E+03	4.614637E-18	3.585507E-19
1.673607E+03	4.727422E-18	3.663020E-19
1.713455E+03	4.808540E-18	3.715346E-19
1.753302E+03	4.856063E-18	3.741196E-19
1.793150E+03	4.859340E-18	3.732601E-19
1.832998E+03	4.810777E-18	3.684051E-19
1.872846E+03	4.695706E-18	3.584714E-19
1.912694E+03	4.506938E-18	3.429611E-19
1.952541E+03	4.243375E-18	3.218479E-19
1.992389E+03	3.919505E-18	2.962865E-19
2.032237E+03	3.572573E-18	2.691338E-19
2.072085E+03	3.262010E-18	2.448745E-19
2.111932E+03	3.055394E-18	2.285391E-19
2.151780E+03	3.006740E-18	2.240722E-19
2.191628E+03	3.140834E-18	2.331841E-19
2.231476E+03	3.455283E-18	2.555419E-19
2.271324E+03	3.920942E-18	2.888389E-19
2.311171E+03	4.499159E-18	3.300999E-19
2.351019E+03	5.149467E-18	3.762587E-19
2.390867E+03	5.838781E-18	4.248328E-19
2.430715E+03	6.542916E-18	4.740232E-19
2.470562E+03	7.250715E-18	5.230007E-19
2.510410E+03	7.957177E-18	5.713919E-19
2.550258E+03	8.660232E-18	6.190397E-19
2.590106E+03	9.364958E-18	6.662988E-19
2.629954E+03	1.007406E-17	7.133492E-19
2.669801E+03	1.079591E-17	7.607660E-19
2.709649E+03	1.153483E-17	8.088310E-19
2.749497E+03	1.230077E-17	8.582107E-19
2.789345E+03	1.310474E-17	9.096322E-19
2.829192E+03	1.394996E-17	9.632677E-19
2.869040E+03	1.484886E-17	1.019917E-18
2.908888E+03	1.581869E-17	1.080692E-18
2.948736E+03	1.686899E-17	1.146152E-18
2.988584E+03	1.801756E-17	1.217402E-18
2.998546E+03	1.832422E-17	1.236386E-18
3.008508E+03	1.863748E-17	1.255753E-18
3.018469E+03	1.895763E-17	1.275519E-18
3.028431E+03	1.928883E-17	1.295963E-18
3.038393E+03	1.962880E-17	1.316928E-18
3.048355E+03	1.998348E-17	1.338810E-18
3.058317E+03	2.035198E-17	1.361544E-18
3.068279E+03	2.073407E-17	1.385111E-18
3.078241E+03	2.113754E-17	1.410027E-18
3.088203E+03	2.155042E-17	1.435488E-18
3.098165E+03	2.198068E-17	1.462021E-18
3.108127E+03	2.242845E-17	1.489629E-18
3.118089E+03	2.289389E-17	1.518319E-18
3.128051E+03	2.337297E-17	1.547818E-18
3.138013E+03	2.387015E-17	1.578416E-18
3.147975E+03	2.438131E-17	1.609837E-18
3.157937E+03	2.491563E-17	1.642681E-18
3.167899E+03	2.546464E-17	1.676383E-18
3.177861E+03	2.603321E-17	1.711260E-18
3.187823E+03	2.661722E-17	1.747034E-18
3.197784E+03	2.722653E-17	1.784349E-18
3.207746E+03	2.785715E-17	1.822934E-18
3.217708E+03	2.850487E-17	1.862508E-18
3.227670E+03	2.918013E-17	1.903749E-18
3.237632E+03	2.987895E-17	1.946386E-18
3.247594E+03	3.059696E-17	1.990130E-18
3.257556E+03	3.134530E-17	2.035698E-18
3.267518E+03	3.212518E-17	2.083160E-18
3.277480E+03	3.292704E-17	2.131887E-18
3.287442E+03	3.376268E-17	2.182634E-18
3.297404E+03	3.462793E-17	2.235124E-18
3.307366E+03	3.552394E-17	2.289421E-18
3.317328E+03	3.645781E-17	2.345973E-18
3.327290E+03	3.743112E-17	2.404870E-18
3.337252E+03	3.843956E-17	2.465823E-18
3.347214E+03	3.949072E-17	2.529309E-18
3.357176E+03	4.058018E-17	2.595032E-18
3.367138E+03	4.171594E-17	2.663491E-18
3.377099E+03	4.289995E-17	2.734796E-18
3.387061E+03	4.413430E-17	2.809068E-18
3.397023E+03	4.541449E-17	2.886003E-18
3.406985E+03	4.675606E-17	2.966575E-18
3.416947E+03	4.815476E-17	3.050497E-18
3.426909E+03	4.961304E-17	3.137906E-18
3.436871E+03	5.113337E-17	3.228940E-18
3.446833E+03	5.272578E-17	3.324214E-18
3.456795E+03	5.438579E-17	3.423423E-18
3.466757E+03	5.611616E-17	3.526723E-18
3.476719E+03	5.792753E-17	3.634759E-18
3.486681E+03	5.981527E-17	3.747218E-18
3.496643E+03	6.179047E-17	3.864771E-18
3.506605E+03	6.385659E-17	3.987608E-18
3.516567E+03	6.601714E-17	4.115920E-18
3.526529E+03	6.826695E-17	4.249361E-18
3.536491E+03	7.062686E-17	4.389196E-18
3.546453E+03	7.309185E-17	4.535085E-18
3.556414E+03	7.566540E-17	4.687211E-18
3.566376E+03	7.835101E-17	4.845759E-18
3.576338E+03	8.116171E-17	5.011501E-18
3.586300E+03	8.409141E-17	5.184026E-18
3.596262E+03	8.715308E-17	5.364099E-18
3.606224E+03	9.033965E-17	5.551246E-18
3.616186E+03	9.366397E-17	5.746220E-18
3.626148E+03	9.712870E-17	5.949145E-18
3.636110E+03	1.007361E-16	6.160119E-18
3.646072E+03	1.044880E-16	6.379215E-18
3.656034E+03	1.083858E-16	6.606476E-18
3.665996E+03	1.124304E-16	6.841913E-18
3.675958E+03	1.166219E-16	7.085498E-18
3.685920E+03	1.209722E-16	7.337907E-18
3.695882E+03	1.254809E-16	7.599073E-18
3.705844E+03	1.301340E-16	7.868103E-18
3.715806E+03	1.349417E-16	8.145577E-18
3.725768E+03	1.399008E-16	8.431263E-18
3.735730E+03	1.450073E-16	8.724872E-18
3.745691E+03	1.502561E-16	9.026052E-18
3.755653E+03	1.556407E-16	9.334380E-18
3.765615E+03	1.611677E-16	9.650214E-18
3.775577E+03	1.668146E-16	9.972161E-18
3.785539E+03	1.725710E-16	1.029957E-17
3.795501E+03	1.784402E-16	1.063261E-17
3.805463E+03	1.844099E-16	1.097051E-17
3.815425E+03	1.904660E-16	1.131241E-17
3.825387E+03	1.965930E-16	1.165737E-17
3.835349E+03	2.027899E-16	1.200529E-17
3.845311E+03	2.090065E-16	1.235321E-17
3.855273E+03	2.152546E-16	1.270180E-17
3.865235E+03	2.215132E-16	1.304982E-17
3.875197E+03	2.277432E-16	1.339497E-17
3.885159E+03	2.339371E-16	1.373681E-17
3.895121E+03	2.400699E-16	1.407389E-17
3.905083E+03	2.461147E-16	1.440465E-17
3.915045E+03	2.520451E-16	1.472757E-17
3.925006E+03	2.578495E-16	1.504200E-17
3.934968E+03	2.634826E-16	1.534535E-17
3.944930E+03	2.689154E-16	1.563597E-17
3.954892E+03	2.741529E-16	1.591421E-17
3.964854E+03	2.791324E-16	1.617649E-17
3.974816E+03	2.838429E-16	1.642224E-17
3.984778E+03	2.882738E-16	1.665093E-17
3.994740E+03	2.923659E-16	1.685922E-17
4.004702E+03	2.961290E-16	1.704777E-17
4.014664E+03	2.995252E-16	1.721450E-17
4.024626E+03	3.025692E-16	1.736035E-17
4.034588E+03	3.051983E-16	1.748182E-17
4.044550E+03	3.074510E-16	1.758125E-17
4.054512E+03	3.092918E-16	1.765670E-17
4.064474E+03	3.107524E-16	1.771010E-17
4.074436E+03	3.118243E-16	1.774108E-17
4.084398E+03	3.125213E-16	1.775052E-17
4.094360E+03	3.128617E-16	1.773958E-17
4.104321E+03	3.128846E-16	1.771056E-17
4.114283E+03	3.126181E-16	1.766515E-17
4.124245E+03	3.120816E-16	1.760452E-17
4.134207E+03	3.113253E-16	1.753158E-17
4.144169E+03	3.103889E-16	1.744863E-17
4.154131E+03	3.093140E-16	1.735803E-17
4.164093E+03	3.081451E-16	1.726234E-17
4.174055E+03	3.069266E-16	1.716406E-17
4.184017E+03	3.057160E-16	1.706640E-17
4.193979E+03	3.045353E-16	1.697060E-17
4.203941E+03	3.034517E-16	1.688038E-17
4.213903E+03	3.025075E-16	1.679807E-17
4.223865E+03	3.017322E-16	1.672525E-17
4.233827E+03	3.011747E-16	1.666458E-17
4.243789E+03	3.008600E-16	1.661737E-17
4.253751E+03	3.008319E-16	1.658598E-17
4.263713E+03	3.011213E-16	1.657200E-17
4.273675E+03	3.017574E-16	1.657696E-17
4.283637E+03	3.027688E-16	1.660230E-17
4.293598E+03	3.041829E-16	1.664942E-17
4.303560E+03	3.060286E-16	1.671978E-17
4.313522E+03	3.083358E-16	1.681487E-17
4.323484E+03	3.111449E-16	1.693675E-17
4.333446E+03	3.144904E-16	1.708714E-17
4.343408E+03	3.184010E-16	1.726743E-17
4.353370E+03	3.229272E-16	1.748018E-17
4.363332E+03	3.281149E-16	1.772768E-17
4.373294E+03	3.340149E-16	1.801247E-17
4.383256E+03	3.406909E-16	1.833774E-17
4.393218E+03	3.482034E-16	1.870651E-17
4.403180E+03	3.566096E-16	1.912157E-17
4.413142E+03	3.659874E-16	1.958684E-17
4.423104E+03	3.764200E-16	2.010642E-17
4.433066E+03	3.879744E-16	2.068357E-17
4.443028E+03	4.007363E-16	2.132249E-17
4.452990E+03	4.147904E-16	2.202729E-17
4.462952E+03	4.301867E-16	2.280021E-17
4.472913E+03	4.470113E-16	2.364538E-17
4.482875E+03	4.652877E-16	2.456357E-17
4.492837E+03	4.850435E-16	2.555578E-17
4.502799E+03	5.062779E-16	2.662147E-17
4.512761E+03	5.289318E-16	2.775708E-17
4.522723E+03	5.529234E-16	2.895784E-17
4.532685E+03	5.781115E-16	3.021595E-17
4.542647E+03	6.042921E-16	3.152035E-17
4.552609E+03	6.312308E-16	3.285853E-17
4.562571E+03	6.586086E-16	3.421364E-17
4.572533E+03	6.860986E-16	3.556857E-17
4.582495E+03	7.133167E-16	3.690341E-17
4.592457E+03	7.398462E-16	3.819671E-17
4.602419E+03	7.653053E-16	3.942899E-17
4.612381E+03	7.892907E-16	4.057986E-17
4.622343E+03	8.114472E-16	4.163154E-17
4.632305E+03	8.314880E-16	4.256994E-17
4.642267E+03	8.491588E-16	4.338273E-17
4.652228E+03	8.643174E-16	4.406343E-17
4.662190E+03	8.769159E-16	4.461040E-17
4.672152E+03	8.869883E-16	4.502621E-17
4.682114E+03	8.946743E-16	4.531875E-17
4.692076E+03	9.001956E-16	4.550000E-17
4.702038E+03	9.038019E-16	4.558326E-17
4.712000E+03	9.058430E-16	4.558679E-17
4.721962E+03	9.066733E-16	4.552888E-17
4.731924E+03	9.066568E-16	4.542817E-17
4.741886E+03	9.061505E-16	4.530281E-17
4.751848E+03	9.055035E-16	4.517036E-17
4.761810E+03	9.050197E-16	4.504602E-17
4.771772E+03	9.049630E-16	4.494283E-17
4.781734E+03	9.055629E-16	4.487203E-17
4.791696E+03	9.069973E-16	4.484220E-17
4.801658E+03	9.093688E-16	4.485813E-17
4.811620E+03	9.127714E-16	4.492414E-17
4.821582E+03	9.171991E-16	4.503959E-17
4.831544E+03	9.226189E-16	4.520252E-17
4.841505E+03	9.289504E-16	4.540868E-17
4.851467E+03	9.360622E-16	4.565136E-17
4.861429E+03	9.438125E-16	4.592339E-17
4.871391E+03	9.520124E-16	4.621539E-17
4.881353E+03	9.604681E-16	4.651784E-17
4.891315E+03	9.689781E-16	4.682092E-17
4.901277E+03	9.773530E-16	4.711548E-17
4.911239E+03	9.854125E-16	4.739290E-17
4.921201E+03	9.929730E-16	4.764448E-17
4.931163E+03	9.999074E-16	4.786433E-17
4.941125E+03	1.006096E-15	4.804693E-17
4.951087E+03	1.011465E-15	4.818902E-17
4.961049E+03	1.015972E-15	4.828893E-17
4.971011E+03	1.019623E-15	4.834719E-17
4.980973E+03	1.022444E-15	4.836537E-17
4.990935E+03	1.024493E-15	4.834644E-17
5.000897E+03	1.025855E-15	4.829471E-17
5.010859E+03	1.026654E-15	4.821626E-17
5.020820E+03	1.027039E-15	4.811823E-17
5.030782E+03	1.027172E-15	4.800841E-17
5.040744E+03	1.027239E-15	4.789552E-17
5.050706E+03	1.027466E-15	4.779015E-17
5.060668E+03	1.028079E-15	4.770267E-17
5.070630E+03	1.029333E-15	4.764481E-17
5.080592E+03	1.031458E-15	4.762704E-17
5.090554E+03	1.034716E-15	4.766106E-17
5.100516E+03	1.039333E-15	4.775692E-17
5.110478E+03	1.045533E-15	4.792447E-17
5.120440E+03	1.053500E-15	4.817157E-17
5.130402E+03	1.063376E-15	4.850414E-17
5.140364E+03	1.075247E-15	4.892545E-17
5.150326E+03	1.089160E-15	4.943703E-17
5.160288E+03	1.105135E-15	5.003911E-17
5.170250E+03	1.123105E-15	5.072799E-17
5.180212E+03	1.142984E-15	5.149915E-17
5.190174E+03	1.164676E-15	5.234773E-17
5.200135E+03	1.188019E-15	5.326580E-17
5.210097E+03	1.212866E-15	5.424638E-17
5.220059E+03	1.239054E-15	5.528165E-17
5.230021E+03	1.266413E-15	5.636375E-17
5.239983E+03	1.294777E-15	5.748490E-17
5.249945E+03	1.323981E-15	5.863750E-17
5.259907E+03	1.353873E-15	5.981472E-17
5.269869E+03	1.384266E-15	6.100803E-17
5.279831E+03	1.415010E-15	6.221076E-17
5.289793E+03	1.445936E-15	6.341552E-17
5.299755E+03	1.476890E-15	6.461552E-17
5.309717E+03	1.507667E-15	6.580184E-17
5.319679E+03	1.538097E-15	6.696729E-17
5.329641E+03	1.567995E-15	6.810396E-17
5.339603E+03	1.597170E-15	6.920383E-17
5.349565E+03	1.625415E-15	7.025827E-17
5.359527E+03	1.652559E-15	7.126025E-17
5.369489E+03	1.678406E-15	7.220177E-17
5.379450E+03	1.702774E-15	7.307549E-17
5.389412E+03	1.725553E-15	7.387723E-17
5.399374E+03	1.746591E-15	7.460108E-17
5.409336E+03	1.765819E-15	7.524471E-17
5.419298E+03	1.783151E-15	7.580503E-17
5.429260E+03	1.798585E-15	7.628263E-17
5.439222E+03	1.812115E-15	7.667792E-17
5.449184E+03	1.823762E-15	7.699234E-17
5.459146E+03	1.833603E-15	7.722981E-17
5.469108E+03	1.841677E-15	7.739252E-17
5.479070E+03	1.848025E-15	7.748275E-17
5.489032E+03	1.852633E-15	7.750053E-17
5.498994E+03	1.855477E-15	7.744532E-17
5.508956E+03	1.856583E-15	7.731877E-17
5.518918E+03	1.855981E-15	7.712263E-17
5.528880E+03	1.853791E-15	7.686233E-17
5.538842E+03	1.850151E-15	7.654398E-17
5.548804E+03	1.845289E-15	7.617729E-17
5.558766E+03	1.839451E-15	7.577271E-17
5.568727E+03	1.832886E-15	7.534072E-17
5.578689E+03	1.825858E-15	7.489223E-17
5.588651E+03	1.818594E-15	7.443662E-17
5.598613E+03	1.811246E-15	7.398016E-17
5.608575E+03	1.803923E-15	7.352724E-17
5.618537E+03	1.796598E-15	7.307667E-17
5.628499E+03	1.789193E-15	7.262529E-17
5.638461E+03	1.781584E-15	7.216806E-17
5.648423E+03	1.773541E-15	7.169560E-17
5.658385E+03	1.764912E-15	7.120194E-17
5.668347E+03	1.755512E-15	7.067966E-17
5.678309E+03	1.745254E-15	7.012549E-17
5.688271E+03	1.734130E-15	6.953916E-17
5.698233E+03	1.722236E-15	6.892477E-17
5.708195E+03	1.709817E-15	6.829218E-17
5.718157E+03	1.697172E-15	6.765340E-17
5.728119E+03	1.684705E-15	6.702455E-17
5.738081E+03	1.672922E-15	6.642557E-17
5.748042E+03	1.662317E-15	6.587593E-17
5.758004E+03	1.653419E-15	6.539613E-17
5.767966E+03	1.646754E-15	6.500656E-17
5.777928E+03	1.642793E-15	6.472526E-17
5.787890E+03	1.641959E-15	6.456813E-17
5.797852E+03	1.644548E-15	6.454615E-17
5.807814E+03	1.650759E-15	6.466630E-17
5.817776E+03	1.660685E-15	6.493134E-17
5.827738E+03	1.674217E-15	6.533620E-17
5.837700E+03	1.691096E-15	6.587002E-17
5.847662E+03	1.710897E-15	6.651545E-17
5.857624E+03	1.733050E-15	6.724980E-17
5.867586E+03	1.756838E-15	6.804478E-17
5.877548E+03	1.781444E-15	6.886837E-17
5.887510E+03	1.806011E-15	6.968740E-17
5.897472E+03	1.829650E-15	7.046764E-17
5.907434E+03	1.851543E-15	7.117780E-17
5.917396E+03	1.871009E-15	7.179215E-17
5.927357E+03	1.887447E-15	7.228820E-17
5.937319E+03	1.900497E-15	7.265276E-17
5.947281E+03	1.909946E-15	7.287854E-17
5.957243E+03	1.915780E-15	7.296565E-17
5.967205E+03	1.918086E-15	7.291823E-17
5.977167E+03	1.917167E-15	7.274846E-17
5.987129E+03	1.913351E-15	7.246944E-17
5.997091E+03	1.907059E-15	7.209768E-17
6.007053E+03	1.898741E-15	7.165069E-17
6.017015E+03	1.888834E-15	7.114530E-17
6.026977E+03	1.877771E-15	7.059815E-17
6.036939E+03	1.865938E-15	7.002390E-17
6.046901E+03	1.853691E-15	6.943604E-17
6.056863E+03	1.841353E-15	6.884678E-17
6.066825E+03	1.829162E-15	6.826494E-17
6.076787E+03	1.817318E-15	6.769793E-17
6.086749E+03	1.805969E-15	6.715121E-17
6.096711E+03	1.795216E-15	6.662840E-17
6.106673E+03	1.785135E-15	6.613217E-17
6.116634E+03	1.775752E-15	6.566333E-17
6.126596E+03	1.767064E-15	6.522165E-17
6.136558E+03	1.759066E-15	6.480679E-17
6.146520E+03	1.751707E-15	6.441670E-17
6.156482E+03	1.744970E-15	6.405066E-17
6.166444E+03	1.738795E-15	6.370631E-17
6.176406E+03	1.733123E-15	6.338141E-17
6.186368E+03	1.727862E-15	6.307242E-17
6.196330E+03	1.722908E-15	6.277556E-17
6.206292E+03	1.718116E-15	6.248546E-17
6.216254E+03	1.713344E-15	6.219696E-17
6.226216E+03	1.708367E-15	6.190184E-17
6.236178E+03	1.703018E-15	6.159413E-17
6.246140E+03	1.697079E-15	6.126606E-17
6.256102E+03	1.690324E-15	6.090958E-17
6.266064E+03	1.682594E-15	6.051916E-17
6.276026E+03	1.673739E-15	6.008958E-17
6.285988E+03	1.663661E-15	5.961760E-17
6.295949E+03	1.652350E-15	5.910305E-17
6.305911E+03	1.639862E-15	5.854824E-17
6.315873E+03	1.626368E-15	5.795944E-17
6.325835E+03	1.612124E-15	5.734600E-17
6.335797E+03	1.597509E-15	5.672152E-17
6.345759E+03	1.582973E-15	5.610198E-17
6.355721E+03	1.569086E-15	5.550758E-17
6.365683E+03	1.556493E-15	5.496093E-17
6.375645E+03	1.545864E-15	5.448545E-17
6.385607E+03	1.537947E-15	5.410701E-17
6.395569E+03	1.533454E-15	5.385016E-17
6.405531E+03	1.533100E-15	5.373927E-17
6.415493E+03	1.537565E-15	5.379735E-17
6.425455E+03	1.547498E-15	5.404615E-17
6.435417E+03	1.563402E-15	5.450217E-17
6.445379E+03	1.585690E-15	5.517869E-17
6.455341E+03	1.614644E-15	5.608424E-17
6.465303E+03	1.650341E-15	5.722027E-17
6.475264E+03	1.692649E-15	5.858082E-17
6.485226E+03	1.741192E-15	6.015168E-17
6.495188E+03	1.795382E-15	6.191135E-17
6.505150E+03	1.854349E-15	6.382879E-17
6.515112E+03	1.916961E-15	6.586414E-17
6.525074E+03	1.981895E-15	6.797128E-17
6.535036E+03	2.047587E-15	7.009623E-17
6.544998E+03	2.112410E-15	7.218313E-17
6.554960E+03	2.174699E-15	7.417533E-17
6.564922E+03	2.232806E-15	7.601706E-17
6.574884E+03	2.285191E-15	7.765675E-17
6.584846E+03	2.330554E-15	7.905124E-17
6.594808E+03	2.367752E-15	8.016313E-17
6.604770E+03	2.396083E-15	8.097013E-17
6.614732E+03	2.415067E-15	8.145767E-17
6.624694E+03	2.424689E-15	8.162695E-17
6.634656E+03	2.425175E-15	8.148726E-17
6.644618E+03	2.417180E-15	8.106231E-17
6.654580E+03	2.401450E-15	8.037867E-17
6.664541E+03	2.379054E-15	7.947351E-17
6.674503E+03	2.351037E-15	7.838290E-17
6.684465E+03	2.318552E-15	7.714635E-17
6.694427E+03	2.282711E-15	7.580165E-17
6.704389E+03	2.244568E-15	7.438436E-17
6.714351E+03	2.205090E-15	7.292699E-17
6.724313E+03	2.165118E-15	7.145752E-17
6.734275E+03	2.125425E-15	7.000159E-17
6.744237E+03	2.086670E-15	6.858075E-17
6.754199E+03	2.049322E-15	6.721025E-17
6.764161E+03	2.013786E-15	6.590312E-17
6.774123E+03	1.980390E-15	6.466964E-17
6.784085E+03	1.949340E-15	6.351613E-17
6.794047E+03	1.920744E-15	6.244560E-17
6.804009E+03	1.894684E-15	6.146024E-17
6.813971E+03	1.871146E-15	6.055905E-17
6.823933E+03	1.850099E-15	5.974045E-17
6.833895E+03	1.831480E-15	5.900194E-17
6.843856E+03	1.815227E-15	5.834095E-17
6.853818E+03	1.801202E-15	5.775257E-17
6.863780E+03	1.789320E-15	5.723352E-17
6.873742E+03	1.779445E-15	5.677905E-17
6.883704E+03	1.771499E-15	5.638612E-17
6.893666E+03	1.765289E-15	5.604824E-17
6.903628E+03	1.760719E-15	5.576188E-17
6.913590E+03	1.757618E-15	5.552128E-17
6.923552E+03	1.755821E-15	5.532088E-17
6.933514E+03	1.755150E-15	5.515474E-17
6.943476E+03	1.755413E-15	5.501657E-17
6.953438E+03	1.756405E-15	5.489974E-17
6.963400E+03	1.757919E-15	5.479754E-17
6.973362E+03	1.759702E-15	5.470204E-17
6.983324E+03	1.761617E-15	5.460887E-17
6.993286E+03	1.763421E-15	5.451048E-17
7.003248E+03	1.765002E-15	5.440346E-17
7.013210E+03	1.766199E-15	5.428291E-17
7.023171E+03	1.766976E-15	5.414787E-17
7.033133E+03	1.767256E-15	5.399601E-17
7.043095E+03	1.767064E-15	5.382833E-17
7.053057E+03	1.766446E-15	5.364631E-17
7.063019E+03	1.765458E-15	5.345178E-17
7.072981E+03	1.764204E-15	5.324804E-17
7.082943E+03	1.762828E-15	5.303948E-17
7.092905E+03	1.761442E-15	5.282950E-17
7.102867E+03	1.760176E-15	5.262208E-17
7.112829E+03	1.759157E-15	5.242092E-17
7.122791E+03	1.758492E-15	5.222919E-17
7.132753E+03	1.758265E-15	5.204928E-17
7.142715E+03	1.758531E-15	5.188274E-17
7.152677E+03	1.759314E-15	5.173013E-17
7.162639E+03	1.760581E-15	5.159040E-17
7.172601E+03	1.762316E-15	5.146293E-17
7.182563E+03	1.764451E-15	5.134564E-17
7.192525E+03	1.766876E-15	5.123525E-17
7.202487E+03	1.769509E-15	5.112937E-17
7.212448E+03	1.772214E-15	5.102402E-17
7.222410E+03	1.774894E-15	5.091649E-17
7.232372E+03	1.777426E-15	5.080330E-17
7.242334E+03	1.779665E-15	5.068038E-17
7.252296E+03	1.781482E-15	5.054428E-17
7.262258E+03	1.782776E-15	5.039228E-17
7.272220E+03	1.783419E-15	5.022105E-17
7.282182E+03	1.783286E-15	5.002731E-17
7.292144E+03	1.782233E-15	4.980738E-17
7.302106E+03	1.780150E-15	4.955857E-17
7.312068E+03	1.776989E-15	4.927996E-17
7.322030E+03	1.772654E-15	4.896930E-17
7.331992E+03	1.767072E-15	4.862509E-17
7.341954E+03	1.760250E-15	4.824795E-17
7.351916E+03	1.752220E-15	4.783928E-17
7.361878E+03	1.742997E-15	4.739996E-17
7.371840E+03	1.732642E-15	4.693217E-17
7.381802E+03	1.721241E-15	4.643859E-17
7.391763E+03	1.708892E-15	4.592238E-17
7.401725E+03	1.695732E-15	4.538753E-17
7.411687E+03	1.681881E-15	4.483766E-17
7.421649E+03	1.667445E-15	4.427588E-17
7.431611E+03	1.652564E-15	4.370614E-17
7.441573E+03	1.637401E-15	4.313301E-17
7.451535E+03	1.622081E-15	4.255992E-17
7.461497E+03	1.606776E-15	4.199155E-17
7.471459E+03	1.591639E-15	4.143192E-17
7.481421E+03	1.576796E-15	4.088434E-17
7.491383E+03	1.562413E-15	4.035312E-17
7.501345E+03	1.548625E-15	3.984169E-17
7.511307E+03	1.535536E-15	3.935260E-17
7.521269E+03	1.523280E-15	3.888917E-17
7.531231E+03	1.511957E-15	3.845381E-17
7.541193E+03	1.501634E-15	3.804799E-17
7.551155E+03	1.492424E-15	3.767442E-17
7.561117E+03	1.484321E-15	3.733275E-17
7.571078E+03	1.477430E-15	3.702538E-17
7.581040E+03	1.471731E-15	3.675162E-17
7.591002E+03	1.467245E-15	3.651179E-17
7.600964E+03	1.463929E-15	3.630463E-17
7.610926E+03	1.461753E-15	3.612926E-17
7.620888E+03	1.460639E-15	3.598361E-17
7.630850E+03	1.460479E-15	3.586495E-17
7.640812E+03	1.461122E-15	3.576949E-17
7.650774E+03	1.462435E-15	3.569401E-17
7.660736E+03	1.464251E-15	3.563444E-17
7.670698E+03	1.466373E-15	3.558612E-17
7.680660E+03	1.468672E-15	3.554605E-17
7.690622E+03	1.470938E-15	3.550934E-17
7.700584E+03	1.473042E-15	3.547307E-17
7.710546E+03	1.474869E-15	3.543472E-17
7.720508E+03	1.476260E-15	3.539072E-17
7.730470E+03	1.477162E-15	3.534009E-17
