#wls	flux	fluxerr
1.593911E+03	3.733068E-18	2.214563E-19
1.633759E+03	3.869441E-18	2.291379E-19
1.673607E+03	3.983322E-18	2.354509E-19
1.713455E+03	4.070553E-18	2.401563E-19
1.753302E+03	4.129921E-18	2.431908E-19
1.793150E+03	4.151032E-18	2.439522E-19
1.832998E+03	4.126256E-18	2.420059E-19
1.872846E+03	4.043033E-18	2.366333E-19
1.912694E+03	3.895262E-18	2.274999E-19
1.952541E+03	3.680276E-18	2.144753E-19
1.992389E+03	3.409327E-18	1.982414E-19
2.032237E+03	3.116436E-18	1.807957E-19
2.072085E+03	2.853406E-18	1.651477E-19
2.111932E+03	2.678509E-18	1.546522E-19
2.151780E+03	2.641298E-18	1.521277E-19
2.191628E+03	2.764560E-18	1.588249E-19
2.231476E+03	3.045261E-18	1.744985E-19
2.271324E+03	3.459668E-18	1.977191E-19
2.311171E+03	3.973532E-18	2.264697E-19
2.351019E+03	4.549873E-18	2.585968E-19
2.390867E+03	5.159607E-18	2.924166E-19
2.430715E+03	5.780890E-18	3.266720E-19
2.470562E+03	6.401331E-18	3.606526E-19
2.510410E+03	7.016435E-18	3.940999E-19
2.550258E+03	7.624972E-18	4.269409E-19
2.590106E+03	8.228308E-18	4.592488E-19
2.629954E+03	8.827650E-18	4.910867E-19
2.669801E+03	9.429659E-18	5.228195E-19
2.709649E+03	1.003670E-17	5.545697E-19
2.749497E+03	1.065282E-17	5.865503E-19
2.789345E+03	1.128591E-17	6.191816E-19
2.829192E+03	1.193864E-17	6.525931E-19
2.869040E+03	1.261760E-17	6.871234E-19
2.908888E+03	1.332985E-17	7.231318E-19
2.948736E+03	1.408090E-17	7.608879E-19
2.988584E+03	1.488119E-17	8.009192E-19
2.998546E+03	1.508810E-17	8.112317E-19
3.008508E+03	1.529973E-17	8.217717E-19
3.018469E+03	1.551624E-17	8.325465E-19
3.028431E+03	1.573563E-17	8.434485E-19
3.038393E+03	1.596119E-17	8.546529E-19
3.048355E+03	1.619452E-17	8.662436E-19
3.058317E+03	1.643548E-17	8.782124E-19
3.068279E+03	1.668605E-17	8.906629E-19
3.078241E+03	1.694354E-17	9.034507E-19
3.088203E+03	1.721247E-17	9.168141E-19
3.098165E+03	1.748779E-17	9.304836E-19
3.108127E+03	1.776933E-17	9.444477E-19
3.118089E+03	1.806176E-17	9.589534E-19
3.128051E+03	1.836008E-17	9.737340E-19
3.138013E+03	1.866666E-17	9.889133E-19
3.147975E+03	1.898144E-17	1.004486E-18
3.157937E+03	1.930442E-17	1.020452E-18
3.167899E+03	1.963562E-17	1.036809E-18
3.177861E+03	1.997507E-17	1.053558E-18
3.187823E+03	2.032285E-17	1.070701E-18
3.197784E+03	2.067639E-17	1.088102E-18
3.207746E+03	2.104112E-17	1.106043E-18
3.217708E+03	2.141456E-17	1.124394E-18
3.227670E+03	2.179690E-17	1.143162E-18
3.237632E+03	2.218837E-17	1.162356E-18
3.247594E+03	2.258917E-17	1.181987E-18
3.257556E+03	2.300241E-17	1.202214E-18
3.267518E+03	2.342277E-17	1.222757E-18
3.277480E+03	2.385625E-17	1.243927E-18
3.287442E+03	2.430332E-17	1.265747E-18
3.297404E+03	2.475852E-17	1.287928E-18
3.307366E+03	2.522817E-17	1.310799E-18
3.317328E+03	2.571278E-17	1.334382E-18
3.327290E+03	2.620991E-17	1.358548E-18
3.337252E+03	2.672004E-17	1.383318E-18
3.347214E+03	2.724686E-17	1.408882E-18
3.357176E+03	2.779104E-17	1.435270E-18
3.367138E+03	2.835013E-17	1.462351E-18
3.377099E+03	2.892799E-17	1.490322E-18
3.387061E+03	2.952546E-17	1.519222E-18
3.397023E+03	3.014004E-17	1.548919E-18
3.406985E+03	3.077924E-17	1.579794E-18
3.416947E+03	3.143732E-17	1.611547E-18
3.426909E+03	3.211858E-17	1.644395E-18
3.436871E+03	3.282407E-17	1.678387E-18
3.446833E+03	3.355488E-17	1.713573E-18
3.456795E+03	3.431215E-17	1.750005E-18
3.466757E+03	3.509707E-17	1.787739E-18
3.476719E+03	3.591452E-17	1.827018E-18
3.486681E+03	3.675861E-17	1.867534E-18
3.496643E+03	3.763803E-17	1.909723E-18
3.506605E+03	3.855052E-17	1.953463E-18
3.516567E+03	3.950144E-17	1.999018E-18
3.526529E+03	4.048855E-17	2.046266E-18
3.536491E+03	4.151345E-17	2.095281E-18
3.546453E+03	4.258172E-17	2.146335E-18
3.556414E+03	4.369517E-17	2.199510E-18
3.566376E+03	4.485150E-17	2.254681E-18
3.576338E+03	4.605654E-17	2.312131E-18
3.586300E+03	4.731203E-17	2.371936E-18
3.596262E+03	4.861505E-17	2.433939E-18
3.606224E+03	4.997538E-17	2.498619E-18
3.616186E+03	5.138543E-17	2.565584E-18
3.626148E+03	5.285498E-17	2.635310E-18
3.636110E+03	5.437593E-17	2.707382E-18
3.646072E+03	5.595820E-17	2.782280E-18
3.656034E+03	5.759792E-17	2.859800E-18
3.665996E+03	5.929561E-17	2.939953E-18
3.675958E+03	6.105170E-17	3.022748E-18
3.685920E+03	6.287147E-17	3.108432E-18
3.695882E+03	6.475024E-17	3.196761E-18
3.705844E+03	6.669321E-17	3.287977E-18
3.715806E+03	6.869520E-17	3.381809E-18
3.725768E+03	7.076126E-17	3.478493E-18
3.735730E+03	7.289120E-17	3.578003E-18
3.745691E+03	7.507914E-17	3.680038E-18
3.755653E+03	7.733549E-17	3.785091E-18
3.765615E+03	7.964841E-17	3.892569E-18
3.775577E+03	8.202255E-17	4.002683E-18
3.785539E+03	8.445685E-17	4.115369E-18
3.795501E+03	8.695604E-17	4.230841E-18
3.805463E+03	8.950682E-17	4.348437E-18
3.815425E+03	9.211971E-17	4.468655E-18
3.825387E+03	9.478688E-17	4.591100E-18
3.835349E+03	9.750648E-17	4.715668E-18
3.845311E+03	1.002828E-16	4.842555E-18
3.855273E+03	1.031074E-16	4.971336E-18
3.865235E+03	1.059846E-16	5.102205E-18
3.875197E+03	1.089119E-16	5.235038E-18
3.885159E+03	1.118805E-16	5.369389E-18
3.895121E+03	1.148945E-16	5.505445E-18
3.905083E+03	1.179513E-16	5.643074E-18
3.915045E+03	1.210485E-16	5.782145E-18
3.925006E+03	1.241765E-16	5.922186E-18
3.934968E+03	1.273466E-16	6.063737E-18
3.944930E+03	1.305423E-16	6.205991E-18
3.954892E+03	1.337755E-16	6.349505E-18
3.964854E+03	1.370365E-16	6.493818E-18
3.974816E+03	1.403232E-16	6.638812E-18
3.984778E+03	1.436334E-16	6.784381E-18
3.994740E+03	1.469729E-16	6.930783E-18
4.004702E+03	1.503323E-16	7.077577E-18
4.014664E+03	1.537104E-16	7.224687E-18
4.024626E+03	1.571134E-16	7.372411E-18
4.034588E+03	1.605408E-16	7.520704E-18
4.044550E+03	1.639764E-16	7.668807E-18
4.054512E+03	1.674433E-16	7.817796E-18
4.064474E+03	1.709261E-16	7.966941E-18
4.074436E+03	1.744253E-16	8.116258E-18
4.084398E+03	1.779498E-16	8.266151E-18
4.094360E+03	1.815009E-16	8.416675E-18
4.104321E+03	1.850803E-16	8.567903E-18
4.114283E+03	1.886823E-16	8.719555E-18
4.124245E+03	1.923173E-16	8.872111E-18
4.134207E+03	1.959885E-16	9.025702E-18
4.144169E+03	1.996911E-16	9.180098E-18
4.154131E+03	2.034371E-16	9.335836E-18
4.164093E+03	2.072307E-16	9.493098E-18
4.174055E+03	2.110682E-16	9.651702E-18
4.184017E+03	2.149710E-16	9.812612E-18
4.193979E+03	2.189198E-16	9.974922E-18
4.203941E+03	2.229447E-16	1.014000E-17
4.213903E+03	2.270353E-16	1.030734E-17
4.223865E+03	2.312059E-16	1.047758E-17
4.233827E+03	2.354546E-16	1.065060E-17
4.243789E+03	2.397962E-16	1.082706E-17
4.253751E+03	2.442291E-16	1.100685E-17
4.263713E+03	2.487685E-16	1.119063E-17
4.273675E+03	2.534045E-16	1.137794E-17
4.283637E+03	2.581694E-16	1.157018E-17
4.293598E+03	2.630447E-16	1.176649E-17
4.303560E+03	2.680540E-16	1.196791E-17
4.313522E+03	2.731877E-16	1.217396E-17
4.323484E+03	2.784688E-16	1.238563E-17
4.333446E+03	2.838869E-16	1.260242E-17
4.343408E+03	2.894568E-16	1.282494E-17
4.353370E+03	2.951842E-16	1.305341E-17
4.363332E+03	3.010665E-16	1.328767E-17
4.373294E+03	3.071173E-16	1.352827E-17
4.383256E+03	3.133328E-16	1.377500E-17
4.393218E+03	3.197175E-16	1.402800E-17
4.403180E+03	3.262752E-16	1.428741E-17
4.413142E+03	3.330097E-16	1.455333E-17
4.423104E+03	3.399239E-16	1.482584E-17
4.433066E+03	3.470105E-16	1.510457E-17
4.443028E+03	3.542807E-16	1.538997E-17
4.452990E+03	3.617260E-16	1.568160E-17
4.462952E+03	3.693464E-16	1.597943E-17
4.472913E+03	3.771418E-16	1.628339E-17
4.482875E+03	3.851008E-16	1.659294E-17
4.492837E+03	3.932407E-16	1.690878E-17
4.502799E+03	4.015304E-16	1.722953E-17
4.512761E+03	4.099853E-16	1.755580E-17
4.522723E+03	4.185926E-16	1.788698E-17
4.532685E+03	4.273470E-16	1.822283E-17
4.542647E+03	4.362346E-16	1.856269E-17
4.552609E+03	4.452494E-16	1.890627E-17
4.562571E+03	4.543965E-16	1.925376E-17
4.572533E+03	4.636600E-16	1.960444E-17
4.582495E+03	4.730241E-16	1.995761E-17
4.592457E+03	4.824940E-16	2.031345E-17
4.602419E+03	4.920645E-16	2.067171E-17
4.612381E+03	5.017094E-16	2.103128E-17
4.622343E+03	5.114353E-16	2.139240E-17
4.632305E+03	5.212489E-16	2.175532E-17
4.642267E+03	5.311155E-16	2.211857E-17
4.652228E+03	5.410546E-16	2.248295E-17
4.662190E+03	5.510538E-16	2.284792E-17
4.672152E+03	5.611135E-16	2.321347E-17
4.682114E+03	5.712233E-16	2.357917E-17
4.692076E+03	5.813966E-16	2.394554E-17
4.702038E+03	5.916367E-16	2.431270E-17
4.712000E+03	6.019255E-16	2.467988E-17
4.721962E+03	6.122795E-16	2.504776E-17
4.731924E+03	6.227061E-16	2.541661E-17
4.741886E+03	6.332010E-16	2.578623E-17
4.751848E+03	6.437845E-16	2.615744E-17
4.761810E+03	6.544554E-16	2.653016E-17
4.771772E+03	6.652112E-16	2.690425E-17
4.781734E+03	6.760872E-16	2.728112E-17
4.791696E+03	6.870696E-16	2.766019E-17
4.801658E+03	6.981808E-16	2.804233E-17
4.811620E+03	7.094178E-16	2.842737E-17
4.821582E+03	7.207861E-16	2.881551E-17
4.831544E+03	7.322868E-16	2.920675E-17
4.841505E+03	7.439273E-16	2.960136E-17
4.851467E+03	7.556694E-16	2.999777E-17
4.861429E+03	7.675030E-16	3.039556E-17
4.871391E+03	7.793817E-16	3.079288E-17
4.881353E+03	7.912747E-16	3.118851E-17
4.891315E+03	8.031171E-16	3.157989E-17
4.901277E+03	8.148605E-16	3.196513E-17
4.911239E+03	8.264242E-16	3.234112E-17
4.921201E+03	8.377494E-16	3.270562E-17
4.931163E+03	8.487337E-16	3.305470E-17
4.941125E+03	8.593274E-16	3.338654E-17
4.951087E+03	8.694407E-16	3.369778E-17
4.961049E+03	8.789848E-16	3.398512E-17
4.971011E+03	8.879106E-16	3.424684E-17
4.980973E+03	8.961307E-16	3.447975E-17
4.990935E+03	9.035752E-16	3.468139E-17
5.000897E+03	9.101956E-16	3.485011E-17
5.010859E+03	9.159191E-16	3.498338E-17
5.020820E+03	9.207361E-16	3.508109E-17
5.030782E+03	9.246711E-16	3.514444E-17
5.040744E+03	9.277451E-16	3.517448E-17
5.050706E+03	9.300723E-16	3.517577E-17
5.060668E+03	9.317626E-16	3.515269E-17
5.070630E+03	9.329799E-16	3.511158E-17
5.080592E+03	9.338840E-16	3.505859E-17
5.090554E+03	9.346581E-16	3.500067E-17
5.100516E+03	9.355027E-16	3.494536E-17
5.110478E+03	9.366002E-16	3.489944E-17
5.120440E+03	9.381078E-16	3.486870E-17
5.130402E+03	9.401889E-16	3.485908E-17
5.140364E+03	9.429677E-16	3.487504E-17
5.150326E+03	9.465476E-16	3.492020E-17
5.160288E+03	9.509596E-16	3.499549E-17
5.170250E+03	9.562513E-16	3.510245E-17
5.180212E+03	9.624045E-16	3.524018E-17
5.190174E+03	9.693915E-16	3.540744E-17
5.200135E+03	9.771819E-16	3.560291E-17
5.210097E+03	9.857228E-16	3.582446E-17
5.220059E+03	9.949561E-16	3.606980E-17
5.230021E+03	1.004823E-15	3.633663E-17
5.239983E+03	1.015265E-15	3.662269E-17
5.249945E+03	1.026226E-15	3.692580E-17
5.259907E+03	1.037649E-15	3.724384E-17
5.269869E+03	1.049493E-15	3.757521E-17
5.279831E+03	1.061701E-15	3.791781E-17
5.289793E+03	1.074214E-15	3.826940E-17
5.299755E+03	1.086951E-15	3.862712E-17
5.309717E+03	1.099854E-15	3.898885E-17
5.319679E+03	1.112859E-15	3.935226E-17
5.329641E+03	1.125861E-15	3.971374E-17
5.339603E+03	1.138764E-15	4.006987E-17
5.349565E+03	1.151474E-15	4.041744E-17
5.359527E+03	1.163859E-15	4.075186E-17
5.369489E+03	1.175806E-15	4.106936E-17
5.379450E+03	1.187185E-15	4.136548E-17
5.389412E+03	1.197847E-15	4.163530E-17
5.399374E+03	1.207702E-15	4.187581E-17
5.409336E+03	1.216628E-15	4.208313E-17
5.419298E+03	1.224551E-15	4.225489E-17
5.429260E+03	1.231434E-15	4.239011E-17
5.439222E+03	1.237282E-15	4.248924E-17
5.449184E+03	1.242161E-15	4.255485E-17
5.459146E+03	1.246144E-15	4.258969E-17
5.469108E+03	1.249363E-15	4.259848E-17
5.479070E+03	1.251901E-15	4.258426E-17
5.489032E+03	1.253782E-15	4.254805E-17
5.498994E+03	1.255043E-15	4.249124E-17
5.508956E+03	1.255644E-15	4.241264E-17
5.518918E+03	1.255641E-15	4.231425E-17
5.528880E+03	1.255013E-15	4.219553E-17
5.538842E+03	1.253846E-15	4.205948E-17
5.548804E+03	1.252174E-15	4.190738E-17
5.558766E+03	1.250084E-15	4.174217E-17
5.568727E+03	1.247693E-15	4.156791E-17
5.578689E+03	1.245117E-15	4.138843E-17
5.588651E+03	1.242436E-15	4.120648E-17
5.598613E+03	1.239771E-15	4.102601E-17
5.608575E+03	1.237171E-15	4.084867E-17
5.618537E+03	1.234608E-15	4.067346E-17
5.628499E+03	1.232047E-15	4.049925E-17
5.638461E+03	1.229336E-15	4.032103E-17
5.648423E+03	1.226338E-15	4.013431E-17
5.658385E+03	1.222840E-15	3.993220E-17
5.668347E+03	1.218685E-15	3.970966E-17
5.678309E+03	1.213733E-15	3.946227E-17
5.688271E+03	1.207943E-15	3.918889E-17
5.698233E+03	1.201327E-15	3.888999E-17
5.708195E+03	1.194041E-15	3.857087E-17
5.718157E+03	1.186298E-15	3.823840E-17
5.728119E+03	1.178394E-15	3.790228E-17
5.738081E+03	1.170675E-15	3.757358E-17
5.748042E+03	1.163549E-15	3.726533E-17
5.758004E+03	1.157420E-15	3.699028E-17
5.767966E+03	1.152706E-15	3.676154E-17
5.777928E+03	1.149812E-15	3.659174E-17
5.787890E+03	1.149107E-15	3.649218E-17
5.797852E+03	1.150936E-15	3.647337E-17
5.807814E+03	1.155554E-15	3.654282E-17
5.817776E+03	1.163131E-15	3.670539E-17
5.827738E+03	1.173715E-15	3.696196E-17
5.837700E+03	1.187187E-15	3.730819E-17
5.847662E+03	1.203282E-15	3.773526E-17
5.857624E+03	1.221557E-15	3.822872E-17
5.867586E+03	1.241445E-15	3.877050E-17
5.877548E+03	1.262289E-15	3.933982E-17
5.887510E+03	1.283366E-15	3.991398E-17
5.897472E+03	1.303972E-15	4.047109E-17
5.907434E+03	1.323399E-15	4.098937E-17
5.917396E+03	1.341078E-15	4.145141E-17
5.927357E+03	1.356505E-15	4.184203E-17
5.937319E+03	1.369354E-15	4.215165E-17
5.947281E+03	1.379472E-15	4.237600E-17
5.957243E+03	1.386818E-15	4.251443E-17
5.967205E+03	1.391497E-15	4.257060E-17
5.977167E+03	1.393698E-15	4.255079E-17
5.987129E+03	1.393711E-15	4.246434E-17
5.997091E+03	1.391847E-15	4.232104E-17
6.007053E+03	1.388468E-15	4.213230E-17
6.017015E+03	1.383902E-15	4.190827E-17
6.026977E+03	1.378522E-15	4.166048E-17
6.036939E+03	1.372625E-15	4.139798E-17
6.046901E+03	1.366501E-15	4.112965E-17
6.056863E+03	1.360431E-15	4.086391E-17
6.066825E+03	1.354576E-15	4.060559E-17
6.076787E+03	1.349114E-15	4.035998E-17
6.086749E+03	1.344126E-15	4.012942E-17
6.096711E+03	1.339656E-15	3.991515E-17
6.106673E+03	1.335718E-15	3.971743E-17
6.116634E+03	1.332245E-15	3.953422E-17
6.126596E+03	1.329203E-15	3.936444E-17
6.136558E+03	1.326495E-15	3.920511E-17
6.146520E+03	1.324081E-15	3.905501E-17
6.156482E+03	1.321886E-15	3.891187E-17
6.166444E+03	1.319917E-15	3.877583E-17
6.176406E+03	1.318149E-15	3.864617E-17
6.186368E+03	1.316620E-15	3.852394E-17
6.196330E+03	1.315299E-15	3.840820E-17
6.206292E+03	1.314176E-15	3.829861E-17
6.216254E+03	1.313175E-15	3.819293E-17
6.226216E+03	1.312158E-15	3.808716E-17
6.236178E+03	1.311019E-15	3.797820E-17
6.246140E+03	1.309609E-15	3.786181E-17
6.256102E+03	1.307781E-15	3.773374E-17
6.266064E+03	1.305381E-15	3.758967E-17
6.276026E+03	1.302306E-15	3.742674E-17
6.285988E+03	1.298487E-15	3.724310E-17
6.295949E+03	1.293875E-15	3.703743E-17
6.305911E+03	1.288489E-15	3.681046E-17
6.315873E+03	1.282432E-15	3.656522E-17
6.325835E+03	1.275865E-15	3.630642E-17
6.335797E+03	1.269023E-15	3.604086E-17
6.345759E+03	1.262215E-15	3.577727E-17
6.355721E+03	1.255823E-15	3.552654E-17
6.365683E+03	1.250267E-15	3.530038E-17
6.375645E+03	1.246048E-15	3.511283E-17
6.385607E+03	1.243653E-15	3.497733E-17
6.395569E+03	1.243637E-15	3.490920E-17
6.405531E+03	1.246516E-15	3.492249E-17
6.415493E+03	1.252812E-15	3.503136E-17
6.425455E+03	1.263007E-15	3.524869E-17
6.435417E+03	1.277551E-15	3.558644E-17
6.445379E+03	1.296811E-15	3.605409E-17
6.455341E+03	1.321078E-15	3.665906E-17
6.465303E+03	1.350552E-15	3.740603E-17
6.475264E+03	1.385221E-15	3.829395E-17
6.485226E+03	1.424879E-15	3.931630E-17
6.495188E+03	1.469084E-15	4.046011E-17
6.505150E+03	1.517086E-15	4.170411E-17
6.515112E+03	1.567844E-15	4.301916E-17
6.525074E+03	1.619929E-15	4.436566E-17
6.535036E+03	1.671751E-15	4.570000E-17
6.544998E+03	1.721665E-15	4.697735E-17
6.554960E+03	1.768041E-15	4.815354E-17
6.564922E+03	1.809372E-15	4.918820E-17
6.574884E+03	1.844365E-15	5.004693E-17
6.584846E+03	1.871996E-15	5.070302E-17
6.594808E+03	1.891612E-15	5.113985E-17
6.604770E+03	1.902836E-15	5.134841E-17
6.614732E+03	1.905725E-15	5.133153E-17
6.624694E+03	1.900675E-15	5.110102E-17
6.634656E+03	1.888380E-15	5.067669E-17
6.644618E+03	1.869771E-15	5.008453E-17
6.654580E+03	1.845864E-15	4.935261E-17
6.664541E+03	1.817754E-15	4.851093E-17
6.674503E+03	1.786486E-15	4.758794E-17
6.684465E+03	1.753028E-15	4.660976E-17
6.694427E+03	1.718242E-15	4.559966E-17
6.704389E+03	1.682883E-15	4.457779E-17
6.714351E+03	1.647602E-15	4.356141E-17
6.724313E+03	1.612964E-15	4.256541E-17
6.734275E+03	1.579401E-15	4.160109E-17
6.744237E+03	1.547291E-15	4.067820E-17
6.754199E+03	1.516906E-15	3.980367E-17
6.764161E+03	1.488416E-15	3.898165E-17
6.774123E+03	1.461961E-15	3.821556E-17
6.784085E+03	1.437548E-15	3.750524E-17
6.794047E+03	1.415177E-15	3.685040E-17
6.804009E+03	1.394789E-15	3.624917E-17
6.813971E+03	1.376296E-15	3.569900E-17
6.823933E+03	1.359598E-15	3.519697E-17
6.833895E+03	1.344603E-15	3.474047E-17
6.843856E+03	1.331176E-15	3.432575E-17
6.853818E+03	1.319256E-15	3.395099E-17
6.863780E+03	1.308761E-15	3.361383E-17
6.873742E+03	1.299591E-15	3.331155E-17
6.883704E+03	1.291728E-15	3.304343E-17
6.893666E+03	1.285120E-15	3.280796E-17
6.903628E+03	1.279755E-15	3.260465E-17
6.913590E+03	1.275579E-15	3.243189E-17
6.923552E+03	1.272610E-15	3.229002E-17
6.933514E+03	1.270761E-15	3.217662E-17
6.943476E+03	1.270021E-15	3.209122E-17
6.953438E+03	1.270260E-15	3.203037E-17
6.963400E+03	1.271398E-15	3.199196E-17
6.973362E+03	1.273288E-15	3.197207E-17
6.983324E+03	1.275793E-15	3.196722E-17
6.993286E+03	1.278735E-15	3.197282E-17
7.003248E+03	1.281952E-15	3.198479E-17
7.013210E+03	1.285310E-15	3.199977E-17
7.023171E+03	1.288664E-15	3.201409E-17
7.033133E+03	1.291911E-15	3.202521E-17
7.043095E+03	1.294977E-15	3.203138E-17
7.053057E+03	1.297841E-15	3.203207E-17
7.063019E+03	1.300482E-15	3.202680E-17
7.072981E+03	1.302926E-15	3.201629E-17
7.082943E+03	1.305248E-15	3.200239E-17
7.092905E+03	1.307495E-15	3.198629E-17
7.102867E+03	1.309800E-15	3.197128E-17
7.112829E+03	1.312241E-15	3.195924E-17
7.122791E+03	1.314962E-15	3.195371E-17
7.132753E+03	1.318051E-15	3.195670E-17
7.142715E+03	1.321588E-15	3.197020E-17
7.152677E+03	1.325611E-15	3.199500E-17
7.162639E+03	1.330169E-15	3.203228E-17
7.172601E+03	1.335207E-15	3.208062E-17
7.182563E+03	1.340707E-15	3.213950E-17
7.192525E+03	1.346549E-15	3.220608E-17
7.202487E+03	1.352655E-15	3.227839E-17
7.212448E+03	1.358923E-15	3.235401E-17
7.222410E+03	1.365240E-15	3.243028E-17
7.232372E+03	1.371558E-15	3.250605E-17
7.242334E+03	1.377739E-15	3.257813E-17
7.252296E+03	1.383762E-15	3.264602E-17
7.262258E+03	1.389499E-15	3.270683E-17
7.272220E+03	1.394868E-15	3.275869E-17
7.282182E+03	1.399731E-15	3.279846E-17
7.292144E+03	1.403974E-15	3.282360E-17
7.302106E+03	1.407443E-15	3.283065E-17
7.312068E+03	1.410029E-15	3.281724E-17
7.322030E+03	1.411608E-15	3.278065E-17
7.331992E+03	1.412105E-15	3.271940E-17
7.341954E+03	1.411529E-15	3.263385E-17
7.351916E+03	1.409833E-15	3.252315E-17
7.361878E+03	1.407103E-15	3.238949E-17
7.371840E+03	1.403400E-15	3.223445E-17
7.381802E+03	1.398820E-15	3.206046E-17
7.391763E+03	1.393491E-15	3.187055E-17
7.401725E+03	1.387499E-15	3.166691E-17
7.411687E+03	1.380947E-15	3.145195E-17
7.421649E+03	1.373948E-15	3.122838E-17
7.431611E+03	1.366569E-15	3.099785E-17
7.441573E+03	1.358899E-15	3.076244E-17
7.451535E+03	1.351049E-15	3.052470E-17
7.461497E+03	1.343079E-15	3.028610E-17
7.471459E+03	1.335133E-15	3.004992E-17
7.481421E+03	1.327323E-15	2.981867E-17
7.491383E+03	1.319724E-15	2.959406E-17
7.501345E+03	1.312474E-15	2.937924E-17
7.511307E+03	1.305650E-15	2.917586E-17
7.521269E+03	1.299328E-15	2.898563E-17
7.531231E+03	1.293587E-15	2.881031E-17
7.541193E+03	1.288442E-15	2.865017E-17
7.551155E+03	1.283966E-15	2.850684E-17
7.561117E+03	1.280188E-15	2.838094E-17
7.571078E+03	1.277091E-15	2.827205E-17
7.581040E+03	1.274720E-15	2.818116E-17
7.591002E+03	1.273072E-15	2.810821E-17
7.600964E+03	1.272089E-15	2.805190E-17
7.610926E+03	1.271767E-15	2.801215E-17
7.620888E+03	1.272017E-15	2.798699E-17
7.630850E+03	1.272751E-15	2.797455E-17
7.640812E+03	1.273808E-15	2.797132E-17
7.650774E+03	1.275015E-15	2.797355E-17
7.660736E+03	1.276198E-15	2.797751E-17
7.670698E+03	1.277140E-15	2.797849E-17
7.680660E+03	1.277656E-15	2.797252E-17
7.690622E+03	1.277602E-15	2.795658E-17
7.700584E+03	1.276834E-15	2.792758E-17
7.710546E+03	1.275284E-15	2.788412E-17
7.720508E+03	1.272879E-15	2.782469E-17
7.730470E+03	1.269613E-15	2.774922E-17
