#wls	flux	fluxerr
1.593911E+03	2.215609E-18	4.144218E-19
1.633759E+03	2.298346E-18	4.286499E-19
1.673607E+03	2.367899E-18	4.403007E-19
1.713455E+03	2.422515E-18	4.490679E-19
1.753302E+03	2.460825E-18	4.547207E-19
1.793150E+03	2.478000E-18	4.563963E-19
1.832998E+03	2.467377E-18	4.529082E-19
1.872846E+03	2.423980E-18	4.433977E-19
1.912694E+03	2.341255E-18	4.267344E-19
1.952541E+03	2.217988E-18	4.027787E-19
1.992389E+03	2.062203E-18	3.730695E-19
2.032237E+03	1.892321E-18	3.410007E-19
2.072085E+03	1.739703E-18	3.122396E-19
2.111932E+03	1.640958E-18	2.932996E-19
2.151780E+03	1.626411E-18	2.894632E-19
2.191628E+03	1.711879E-18	3.033410E-19
2.231476E+03	1.897730E-18	3.347593E-19
2.271324E+03	2.171373E-18	3.812557E-19
2.311171E+03	2.512489E-18	4.390484E-19
2.351019E+03	2.900579E-18	5.043826E-19
2.390867E+03	3.317467E-18	5.739693E-19
2.430715E+03	3.752405E-18	6.458572E-19
2.470562E+03	4.197898E-18	7.186878E-19
2.510410E+03	4.651114E-18	7.919214E-19
2.550258E+03	5.112953E-18	8.656603E-19
2.590106E+03	5.584178E-18	9.399782E-19
2.629954E+03	6.069679E-18	1.015636E-18
2.669801E+03	6.571858E-18	1.092957E-18
2.709649E+03	7.094445E-18	1.172476E-18
2.749497E+03	7.642715E-18	1.254961E-18
2.789345E+03	8.220972E-18	1.340995E-18
2.829192E+03	8.835151E-18	1.431405E-18
2.869040E+03	9.490095E-18	1.526811E-18
2.908888E+03	1.018924E-17	1.627581E-18
2.948736E+03	1.094274E-17	1.735128E-18
2.988584E+03	1.175307E-17	1.849601E-18
2.998546E+03	1.196623E-17	1.879538E-18
3.008508E+03	1.218274E-17	1.909856E-18
3.018469E+03	1.240451E-17	1.940849E-18
3.028431E+03	1.263181E-17	1.972553E-18
3.038393E+03	1.286169E-17	2.004505E-18
3.048355E+03	1.310108E-17	2.037776E-18
3.058317E+03	1.334606E-17	2.071749E-18
3.068279E+03	1.360214E-17	2.107273E-18
3.078241E+03	1.386524E-17	2.143703E-18
3.088203E+03	1.413509E-17	2.180993E-18
3.098165E+03	1.441350E-17	2.219413E-18
3.108127E+03	1.470035E-17	2.258934E-18
3.118089E+03	1.499342E-17	2.299209E-18
3.128051E+03	1.529467E-17	2.340528E-18
3.138013E+03	1.560187E-17	2.382544E-18
3.147975E+03	1.591705E-17	2.425558E-18
3.157937E+03	1.624016E-17	2.469555E-18
3.167899E+03	1.656894E-17	2.514181E-18
3.177861E+03	1.690557E-17	2.559760E-18
3.187823E+03	1.724773E-17	2.605933E-18
3.197784E+03	1.759768E-17	2.653035E-18
3.207746E+03	1.795544E-17	2.701058E-18
3.217708E+03	1.832104E-17	2.750000E-18
3.227670E+03	1.869212E-17	2.799496E-18
3.237632E+03	1.907112E-17	2.849905E-18
3.247594E+03	1.945560E-17	2.900854E-18
3.257556E+03	1.985058E-17	2.953081E-18
3.267518E+03	2.025116E-17	3.005849E-18
3.277480E+03	2.065735E-17	3.059153E-18
3.287442E+03	2.107438E-17	3.113756E-18
3.297404E+03	2.149719E-17	3.168901E-18
3.307366E+03	2.192847E-17	3.224976E-18
3.317328E+03	2.236835E-17	3.281991E-18
3.327290E+03	2.281702E-17	3.339960E-18
3.337252E+03	2.327181E-17	3.398487E-18
3.347214E+03	2.373841E-17	3.458390E-18
3.357176E+03	2.421142E-17	3.518871E-18
3.367138E+03	2.469377E-17	3.580347E-18
3.377099E+03	2.518564E-17	3.642833E-18
3.387061E+03	2.568429E-17	3.705920E-18
3.397023E+03	2.619574E-17	3.770467E-18
3.406985E+03	2.671429E-17	3.835640E-18
3.416947E+03	2.724612E-17	3.902316E-18
3.426909E+03	2.778539E-17	3.969644E-18
3.436871E+03	2.833532E-17	4.038073E-18
3.446833E+03	2.889615E-17	4.107625E-18
3.456795E+03	2.947129E-17	4.178768E-18
3.466757E+03	3.005465E-17	4.250624E-18
3.476719E+03	3.064960E-17	4.323659E-18
3.486681E+03	3.125643E-17	4.397899E-18
3.496643E+03	3.187539E-17	4.473363E-18
3.506605E+03	3.250675E-17	4.550076E-18
3.516567E+03	3.315081E-17	4.628061E-18
3.526529E+03	3.380781E-17	4.707339E-18
3.536491E+03	3.447810E-17	4.787940E-18
3.546453E+03	3.516548E-17	4.870374E-18
3.556414E+03	3.586326E-17	4.953697E-18
3.566376E+03	3.657524E-17	5.038418E-18
3.576338E+03	3.730538E-17	5.125064E-18
3.586300E+03	3.804671E-17	5.212657E-18
3.596262E+03	3.880668E-17	5.302200E-18
3.606224E+03	3.958156E-17	5.393162E-18
3.616186E+03	4.037128E-17	5.485515E-18
3.626148E+03	4.117578E-17	5.579233E-18
3.636110E+03	4.199885E-17	5.674806E-18
3.646072E+03	4.283259E-17	5.771148E-18
3.656034E+03	4.368470E-17	5.869281E-18
3.665996E+03	4.455107E-17	5.968629E-18
3.675958E+03	4.543152E-17	6.069149E-18
3.685920E+03	4.632993E-17	6.171337E-18
3.695882E+03	4.723782E-17	6.274044E-18
3.705844E+03	4.816321E-17	6.378319E-18
3.715806E+03	4.910168E-17	6.483553E-18
3.725768E+03	5.005725E-17	6.590255E-18
3.735730E+03	5.102535E-17	6.697804E-18
3.745691E+03	5.200566E-17	6.806139E-18
3.755653E+03	5.299783E-17	6.915196E-18
3.765615E+03	5.400597E-17	7.025490E-18
3.775577E+03	5.502532E-17	7.136384E-18
3.785539E+03	5.605550E-17	7.247809E-18
3.795501E+03	5.710076E-17	7.360296E-18
3.805463E+03	5.815616E-17	7.473189E-18
3.815425E+03	5.922134E-17	7.586424E-18
3.825387E+03	6.030061E-17	7.700537E-18
3.835349E+03	6.138897E-17	7.814869E-18
3.845311E+03	6.248605E-17	7.929355E-18
3.855273E+03	6.359633E-17	8.044550E-18
3.865235E+03	6.471470E-17	8.159788E-18
3.875197E+03	6.584576E-17	8.275632E-18
3.885159E+03	6.698434E-17	8.391414E-18
3.895121E+03	6.813521E-17	8.507715E-18
3.905083E+03	6.929316E-17	8.623866E-18
3.915045E+03	7.045802E-17	8.739833E-18
3.925006E+03	7.163472E-17	8.856211E-18
3.934968E+03	7.281811E-17	8.972346E-18
3.944930E+03	7.401332E-17	9.088853E-18
3.954892E+03	7.521526E-17	9.205091E-18
3.964854E+03	7.642397E-17	9.321049E-18
3.974816E+03	7.764490E-17	9.437377E-18
3.984778E+03	7.887839E-17	9.554093E-18
3.994740E+03	8.011944E-17	9.670575E-18
4.004702E+03	8.136849E-17	9.786857E-18
4.014664E+03	8.263143E-17	9.903631E-18
4.024626E+03	8.390352E-17	1.002031E-17
4.034588E+03	8.519093E-17	1.013760E-17
4.044550E+03	8.648907E-17	1.025494E-17
4.054512E+03	8.780442E-17	1.037308E-17
4.064474E+03	8.913254E-17	1.049146E-17
4.074436E+03	9.048021E-17	1.061086E-17
4.084398E+03	9.184320E-17	1.073074E-17
4.094360E+03	9.322292E-17	1.085125E-17
4.104321E+03	9.462664E-17	1.097320E-17
4.114283E+03	9.605609E-17	1.109676E-17
4.124245E+03	9.750743E-17	1.122144E-17
4.134207E+03	9.898253E-17	1.134741E-17
4.144169E+03	1.004834E-16	1.147489E-17
4.154131E+03	1.020240E-16	1.160538E-17
4.164093E+03	1.035889E-16	1.173712E-17
4.174055E+03	1.051922E-16	1.187164E-17
4.184017E+03	1.068305E-16	1.200849E-17
4.193979E+03	1.085121E-16	1.214856E-17
4.203941E+03	1.102338E-16	1.229141E-17
4.213903E+03	1.120039E-16	1.243792E-17
4.223865E+03	1.138132E-16	1.258699E-17
4.233827E+03	1.156763E-16	1.274016E-17
4.243789E+03	1.175960E-16	1.289766E-17
4.253751E+03	1.195688E-16	1.305902E-17
4.263713E+03	1.215973E-16	1.322445E-17
4.273675E+03	1.236841E-16	1.339413E-17
4.283637E+03	1.258382E-16	1.356895E-17
4.293598E+03	1.280557E-16	1.374839E-17
4.303560E+03	1.303392E-16	1.393262E-17
4.313522E+03	1.326910E-16	1.412180E-17
4.323484E+03	1.351202E-16	1.431676E-17
4.333446E+03	1.376224E-16	1.451695E-17
4.343408E+03	1.402000E-16	1.472248E-17
4.353370E+03	1.428548E-16	1.493345E-17
4.363332E+03	1.455891E-16	1.514994E-17
4.373294E+03	1.484045E-16	1.537203E-17
4.383256E+03	1.513099E-16	1.560049E-17
4.393218E+03	1.542934E-16	1.583396E-17
4.403180E+03	1.573707E-16	1.607392E-17
4.413142E+03	1.605364E-16	1.631968E-17
4.423104E+03	1.637847E-16	1.657050E-17
4.433066E+03	1.671312E-16	1.682783E-17
4.443028E+03	1.705623E-16	1.709016E-17
4.452990E+03	1.740938E-16	1.735891E-17
4.462952E+03	1.777111E-16	1.763248E-17
4.472913E+03	1.814299E-16	1.791228E-17
4.482875E+03	1.852347E-16	1.819664E-17
4.492837E+03	1.891332E-16	1.848616E-17
4.502799E+03	1.931249E-16	1.878063E-17
4.512761E+03	1.972009E-16	1.907907E-17
4.522723E+03	2.013766E-16	1.938279E-17
4.532685E+03	2.056344E-16	1.968996E-17
4.542647E+03	2.099811E-16	2.000109E-17
4.552609E+03	2.144067E-16	2.031509E-17
4.562571E+03	2.189177E-16	2.063245E-17
4.572533E+03	2.235127E-16	2.095288E-17
4.582495E+03	2.281807E-16	2.127523E-17
4.592457E+03	2.329288E-16	2.160003E-17
4.602419E+03	2.377461E-16	2.192616E-17
4.612381E+03	2.426399E-16	2.225415E-17
4.622343E+03	2.476088E-16	2.258376E-17
4.632305E+03	2.526327E-16	2.291302E-17
4.642267E+03	2.577384E-16	2.324429E-17
4.652228E+03	2.628965E-16	2.357479E-17
4.662190E+03	2.681255E-16	2.390605E-17
4.672152E+03	2.734151E-16	2.423708E-17
4.682114E+03	2.787749E-16	2.456861E-17
4.692076E+03	2.841850E-16	2.489878E-17
4.702038E+03	2.896656E-16	2.522928E-17
4.712000E+03	2.952172E-16	2.556002E-17
4.721962E+03	3.008195E-16	2.588915E-17
4.731924E+03	3.064830E-16	2.621750E-17
4.741886E+03	3.122187E-16	2.654590E-17
4.751848E+03	3.180159E-16	2.687333E-17
4.761810E+03	3.238637E-16	2.719878E-17
4.771772E+03	3.297838E-16	2.752399E-17
4.781734E+03	3.357526E-16	2.784690E-17
4.791696E+03	3.417919E-16	2.816923E-17
4.801658E+03	3.478883E-16	2.848978E-17
4.811620E+03	3.540280E-16	2.880735E-17
4.821582E+03	3.602192E-16	2.912255E-17
4.831544E+03	3.664592E-16	2.943509E-17
4.841505E+03	3.727437E-16	2.974456E-17
4.851467E+03	3.790682E-16	3.005055E-17
4.861429E+03	3.854157E-16	3.035169E-17
4.871391E+03	3.917931E-16	3.064850E-17
4.881353E+03	3.981948E-16	3.094052E-17
4.891315E+03	4.046030E-16	3.122636E-17
4.901277E+03	4.110241E-16	3.150653E-17
4.911239E+03	4.174528E-16	3.178065E-17
4.921201E+03	4.238718E-16	3.204742E-17
4.931163E+03	4.302884E-16	3.230744E-17
4.941125E+03	4.366867E-16	3.255957E-17
4.951087E+03	4.430752E-16	3.280451E-17
4.961049E+03	4.494399E-16	3.304129E-17
4.971011E+03	4.557920E-16	3.327082E-17
4.980973E+03	4.621184E-16	3.349221E-17
4.990935E+03	4.684343E-16	3.370665E-17
5.000897E+03	4.747147E-16	3.391244E-17
5.010859E+03	4.810046E-16	3.411287E-17
5.020820E+03	4.872687E-16	3.430552E-17
5.030782E+03	4.935409E-16	3.449285E-17
5.040744E+03	4.998156E-16	3.467455E-17
5.050706E+03	5.061156E-16	3.485225E-17
5.060668E+03	5.124227E-16	3.502475E-17
5.070630E+03	5.187762E-16	3.519479E-17
5.080592E+03	5.251729E-16	3.536218E-17
5.090554E+03	5.316239E-16	3.552767E-17
5.100516E+03	5.381560E-16	3.569306E-17
5.110478E+03	5.447501E-16	3.585709E-17
5.120440E+03	5.514468E-16	3.602240E-17
5.130402E+03	5.582259E-16	3.618766E-17
5.140364E+03	5.651258E-16	3.635533E-17
5.150326E+03	5.721382E-16	3.652484E-17
5.160288E+03	5.792691E-16	3.669651E-17
5.170250E+03	5.865215E-16	3.687052E-17
5.180212E+03	5.938820E-16	3.704598E-17
5.190174E+03	6.013811E-16	3.722479E-17
5.200135E+03	6.090000E-16	3.740575E-17
5.210097E+03	6.167347E-16	3.758862E-17
5.220059E+03	6.245618E-16	3.777198E-17
5.230021E+03	6.325031E-16	3.795721E-17
5.239983E+03	6.405162E-16	3.814180E-17
5.249945E+03	6.486191E-16	3.832693E-17
5.259907E+03	6.567638E-16	3.850987E-17
5.269869E+03	6.649490E-16	3.869069E-17
5.279831E+03	6.731557E-16	3.886848E-17
5.289793E+03	6.813630E-16	3.904223E-17
5.299755E+03	6.895322E-16	3.921000E-17
5.309717E+03	6.976732E-16	3.937263E-17
5.319679E+03	7.057275E-16	3.952713E-17
5.329641E+03	7.136873E-16	3.967346E-17
5.339603E+03	7.215085E-16	3.980955E-17
5.349565E+03	7.291997E-16	3.993634E-17
5.359527E+03	7.366998E-16	4.005092E-17
5.369489E+03	7.440000E-16	4.015335E-17
5.379450E+03	7.510565E-16	4.024178E-17
5.389412E+03	7.578628E-16	4.031646E-17
5.399374E+03	7.643957E-16	4.037672E-17
5.409336E+03	7.706341E-16	4.042206E-17
5.419298E+03	7.765411E-16	4.045116E-17
5.429260E+03	7.821197E-16	4.046483E-17
5.439222E+03	7.873395E-16	4.046212E-17
5.449184E+03	7.922114E-16	4.044425E-17
5.459146E+03	7.967332E-16	4.041173E-17
5.469108E+03	8.008888E-16	4.036435E-17
5.479070E+03	8.046799E-16	4.030282E-17
5.489032E+03	8.081333E-16	4.022905E-17
5.498994E+03	8.111846E-16	4.014041E-17
5.508956E+03	8.138863E-16	4.004006E-17
5.518918E+03	8.161865E-16	3.992598E-17
5.528880E+03	8.181498E-16	3.980171E-17
5.538842E+03	8.197362E-16	3.966548E-17
5.548804E+03	8.210208E-16	3.952110E-17
5.558766E+03	8.219739E-16	3.936721E-17
5.568727E+03	8.226609E-16	3.920704E-17
5.578689E+03	8.231155E-16	3.904222E-17
5.588651E+03	8.233562E-16	3.887361E-17
5.598613E+03	8.234219E-16	3.870300E-17
5.608575E+03	8.233725E-16	3.853313E-17
5.618537E+03	8.232338E-16	3.836508E-17
5.628499E+03	8.230493E-16	3.820076E-17
5.638461E+03	8.228832E-16	3.804294E-17
5.648423E+03	8.227614E-16	3.789264E-17
5.658385E+03	8.227474E-16	3.775255E-17
5.668347E+03	8.228491E-16	3.762281E-17
5.678309E+03	8.231446E-16	3.750671E-17
5.688271E+03	8.236742E-16	3.740584E-17
5.698233E+03	8.244402E-16	3.732001E-17
5.708195E+03	8.255130E-16	3.725213E-17
5.718157E+03	8.269066E-16	3.720254E-17
5.728119E+03	8.286484E-16	3.717218E-17
5.738081E+03	8.307778E-16	3.716254E-17
5.748042E+03	8.332778E-16	3.717255E-17
5.758004E+03	8.361946E-16	3.720400E-17
5.767966E+03	8.395151E-16	3.725605E-17
5.777928E+03	8.432375E-16	3.732835E-17
5.787890E+03	8.473700E-16	3.742101E-17
5.797852E+03	8.518602E-16	3.753148E-17
5.807814E+03	8.567008E-16	3.765924E-17
5.817776E+03	8.618774E-16	3.780343E-17
5.827738E+03	8.673308E-16	3.796127E-17
5.837700E+03	8.730149E-16	3.813059E-17
5.847662E+03	8.788744E-16	3.830882E-17
5.857624E+03	8.848506E-16	3.849329E-17
5.867586E+03	8.908779E-16	3.868102E-17
5.877548E+03	8.968899E-16	3.886906E-17
5.887510E+03	9.028153E-16	3.905426E-17
5.897472E+03	9.085852E-16	3.923357E-17
5.907434E+03	9.141300E-16	3.940399E-17
5.917396E+03	9.193838E-16	3.956265E-17
5.927357E+03	9.242843E-16	3.970688E-17
5.937319E+03	9.287754E-16	3.983429E-17
5.947281E+03	9.328088E-16	3.994285E-17
5.957243E+03	9.363616E-16	4.003162E-17
5.967205E+03	9.393650E-16	4.009771E-17
5.977167E+03	9.418149E-16	4.014102E-17
5.987129E+03	9.436989E-16	4.016109E-17
5.997091E+03	9.449942E-16	4.015702E-17
6.007053E+03	9.457460E-16	4.013082E-17
6.017015E+03	9.459492E-16	4.008234E-17
6.026977E+03	9.456269E-16	4.001264E-17
6.036939E+03	9.448088E-16	3.992306E-17
6.046901E+03	9.435112E-16	3.981437E-17
6.056863E+03	9.418131E-16	3.968998E-17
6.066825E+03	9.397200E-16	3.955018E-17
6.076787E+03	9.373173E-16	3.939865E-17
6.086749E+03	9.346144E-16	3.923585E-17
6.096711E+03	9.316794E-16	3.906470E-17
6.106673E+03	9.285616E-16	3.888732E-17
6.116634E+03	9.253090E-16	3.870580E-17
6.126596E+03	9.219691E-16	3.852216E-17
6.136558E+03	9.185864E-16	3.833832E-17
6.146520E+03	9.152063E-16	3.815623E-17
6.156482E+03	9.118702E-16	3.797767E-17
6.166444E+03	9.086194E-16	3.780441E-17
6.176406E+03	9.054926E-16	3.763811E-17
6.186368E+03	9.025280E-16	3.748041E-17
6.196330E+03	8.997446E-16	3.733216E-17
6.206292E+03	8.972144E-16	3.719640E-17
6.216254E+03	8.949554E-16	3.707394E-17
6.226216E+03	8.929855E-16	3.696558E-17
6.236178E+03	8.913755E-16	3.687431E-17
6.246140E+03	8.901440E-16	3.680099E-17
6.256102E+03	8.893098E-16	3.674647E-17
6.266064E+03	8.889449E-16	3.671380E-17
6.276026E+03	8.890702E-16	3.670395E-17
6.285988E+03	8.897050E-16	3.671780E-17
6.295949E+03	8.909230E-16	3.675853E-17
6.305911E+03	8.927457E-16	3.682715E-17
6.315873E+03	8.952094E-16	3.692528E-17
6.325835E+03	8.983515E-16	3.705463E-17
6.335797E+03	9.022246E-16	3.721755E-17
6.345759E+03	9.068249E-16	3.741406E-17
6.355721E+03	9.121992E-16	3.764633E-17
6.365683E+03	9.183905E-16	3.791634E-17
6.375645E+03	9.253991E-16	3.822440E-17
6.385607E+03	9.332382E-16	3.857132E-17
6.395569E+03	9.419124E-16	3.895761E-17
6.405531E+03	9.514368E-16	3.938425E-17
6.415493E+03	9.617794E-16	3.985027E-17
6.425455E+03	9.729155E-16	4.035506E-17
6.435417E+03	9.848102E-16	4.089758E-17
6.445379E+03	9.974362E-16	4.147710E-17
6.455341E+03	1.010715E-15	4.209055E-17
6.465303E+03	1.024575E-15	4.273502E-17
6.475264E+03	1.038955E-15	4.340801E-17
6.485226E+03	1.053743E-15	4.410490E-17
6.495188E+03	1.068839E-15	4.482145E-17
6.505150E+03	1.084155E-15	4.555400E-17
6.515112E+03	1.099534E-15	4.629589E-17
6.525074E+03	1.114724E-15	4.703636E-17
6.535036E+03	1.129485E-15	4.776507E-17
6.544998E+03	1.143599E-15	4.847255E-17
6.554960E+03	1.156809E-15	4.914747E-17
6.564922E+03	1.168914E-15	4.978080E-17
6.574884E+03	1.179703E-15	5.036303E-17
6.584846E+03	1.188966E-15	5.088445E-17
6.594808E+03	1.196536E-15	5.133721E-17
6.604770E+03	1.202326E-15	5.171679E-17
6.614732E+03	1.206187E-15	5.201583E-17
6.624694E+03	1.208076E-15	5.223157E-17
6.634656E+03	1.207935E-15	5.236063E-17
6.644618E+03	1.205796E-15	5.240331E-17
6.654580E+03	1.201698E-15	5.236043E-17
6.664541E+03	1.195714E-15	5.223425E-17
6.674503E+03	1.187949E-15	5.202842E-17
6.684465E+03	1.178507E-15	5.174665E-17
6.694427E+03	1.167563E-15	5.139590E-17
6.704389E+03	1.155286E-15	5.098283E-17
6.714351E+03	1.141856E-15	5.051479E-17
6.724313E+03	1.127460E-15	4.999951E-17
6.734275E+03	1.112287E-15	4.944493E-17
6.744237E+03	1.096528E-15	4.885912E-17
6.754199E+03	1.080342E-15	4.824891E-17
6.764161E+03	1.063951E-15	4.762399E-17
6.774123E+03	1.047497E-15	4.699057E-17
6.784085E+03	1.031112E-15	4.635452E-17
6.794047E+03	1.014977E-15	4.572395E-17
6.804009E+03	9.991964E-16	4.510361E-17
6.813971E+03	9.838805E-16	4.449854E-17
6.823933E+03	9.691252E-16	4.391320E-17
6.833895E+03	9.550115E-16	4.335140E-17
6.843856E+03	9.416082E-16	4.281642E-17
6.853818E+03	9.289900E-16	4.231183E-17
6.863780E+03	9.171804E-16	4.183889E-17
6.873742E+03	9.061940E-16	4.139846E-17
6.883704E+03	8.961100E-16	4.099431E-17
6.893666E+03	8.868867E-16	4.062473E-17
6.903628E+03	8.785489E-16	4.029102E-17
6.913590E+03	8.711148E-16	3.999415E-17
6.923552E+03	8.645604E-16	3.973316E-17
6.933514E+03	8.588914E-16	3.950843E-17
6.943476E+03	8.540554E-16	3.931766E-17
6.953438E+03	8.500693E-16	3.916169E-17
6.963400E+03	8.469100E-16	3.903951E-17
6.973362E+03	8.445329E-16	3.894911E-17
6.983324E+03	8.429093E-16	3.888920E-17
6.993286E+03	8.420096E-16	3.885838E-17
7.003248E+03	8.418188E-16	3.885596E-17
7.013210E+03	8.423034E-16	3.888034E-17
7.023171E+03	8.433916E-16	3.892815E-17
7.033133E+03	8.451008E-16	3.900011E-17
7.043095E+03	8.473381E-16	3.909185E-17
7.053057E+03	8.501002E-16	3.920311E-17
7.063019E+03	8.533458E-16	3.933188E-17
7.072981E+03	8.570135E-16	3.947518E-17
7.082943E+03	8.610764E-16	3.963167E-17
7.092905E+03	8.654690E-16	3.979816E-17
7.102867E+03	8.701608E-16	3.997313E-17
7.112829E+03	8.750809E-16	4.015317E-17
7.122791E+03	8.801942E-16	4.033653E-17
7.132753E+03	8.854239E-16	4.051956E-17
7.142715E+03	8.907301E-16	4.070032E-17
7.152677E+03	8.960302E-16	4.087490E-17
7.162639E+03	9.012798E-16	4.104121E-17
7.172601E+03	9.064118E-16	4.119611E-17
7.182563E+03	9.113370E-16	4.133550E-17
7.192525E+03	9.160068E-16	4.145715E-17
7.202487E+03	9.203302E-16	4.155698E-17
7.212448E+03	9.242584E-16	4.163283E-17
7.222410E+03	9.277239E-16	4.168176E-17
7.232372E+03	9.306616E-16	4.170096E-17
7.242334E+03	9.329892E-16	4.168696E-17
7.252296E+03	9.346508E-16	4.163747E-17
7.262258E+03	9.356391E-16	4.155246E-17
7.272220E+03	9.358692E-16	4.142849E-17
7.282182E+03	9.353083E-16	4.126448E-17
7.292144E+03	9.339740E-16	4.106162E-17
7.302106E+03	9.318106E-16	4.081792E-17
7.312068E+03	9.288364E-16	4.053469E-17
7.322030E+03	9.250380E-16	4.021187E-17
7.331992E+03	9.204555E-16	3.985175E-17
7.341954E+03	9.151184E-16	3.945617E-17
7.351916E+03	9.090669E-16	3.902746E-17
7.361878E+03	9.023295E-16	3.856741E-17
7.371840E+03	8.949849E-16	3.807996E-17
7.381802E+03	8.870985E-16	3.756846E-17
7.391763E+03	8.787404E-16	3.703640E-17
7.401725E+03	8.699674E-16	3.648671E-17
7.411687E+03	8.608780E-16	3.592399E-17
7.421649E+03	8.515540E-16	3.535210E-17
7.431611E+03	8.420568E-16	3.477398E-17
7.441573E+03	8.325076E-16	3.419498E-17
7.451535E+03	8.229456E-16	3.361700E-17
7.461497E+03	8.134667E-16	3.304422E-17
7.471459E+03	8.041237E-16	3.247898E-17
7.481421E+03	7.950224E-16	3.192571E-17
7.491383E+03	7.861856E-16	3.138541E-17
7.501345E+03	7.776890E-16	3.086116E-17
7.511307E+03	7.695811E-16	3.035492E-17
7.521269E+03	7.618850E-16	2.986756E-17
7.531231E+03	7.546722E-16	2.940185E-17
7.541193E+03	7.479331E-16	2.895733E-17
7.551155E+03	7.417049E-16	2.853536E-17
7.561117E+03	7.359989E-16	2.813626E-17
7.571078E+03	7.308020E-16	2.775944E-17
7.581040E+03	7.261445E-16	2.740595E-17
7.591002E+03	7.219806E-16	2.707397E-17
7.600964E+03	7.183092E-16	2.676339E-17
7.610926E+03	7.151048E-16	2.647321E-17
7.620888E+03	7.123176E-16	2.620160E-17
7.630850E+03	7.099446E-16	2.594846E-17
7.640812E+03	7.079081E-16	2.571103E-17
7.650774E+03	7.061766E-16	2.548829E-17
7.660736E+03	7.046984E-16	2.527854E-17
7.670698E+03	7.034189E-16	2.508004E-17
7.680660E+03	7.022624E-16	2.489039E-17
7.690622E+03	7.012063E-16	2.470910E-17
7.700584E+03	7.001572E-16	2.453327E-17
7.710546E+03	6.990741E-16	2.436188E-17
7.720508E+03	6.979017E-16	2.419348E-17
7.730470E+03	6.965877E-16	2.402675E-17
