#wls	flux	fluxerr
1.593911E+03	1.038120E-18	5.703787E-20
1.633759E+03	1.081223E-18	5.936970E-20
1.673607E+03	1.118908E-18	6.140023E-20
1.713455E+03	1.149617E-18	6.304447E-20
1.753302E+03	1.172963E-18	6.428181E-20
1.793150E+03	1.186548E-18	6.498155E-20
1.832998E+03	1.187021E-18	6.496147E-20
1.872846E+03	1.171165E-18	6.404706E-20
1.912694E+03	1.136558E-18	6.210797E-20
1.952541E+03	1.082278E-18	5.909620E-20
1.992389E+03	1.011358E-18	5.517995E-20
2.032237E+03	9.326543E-19	5.084438E-20
2.072085E+03	8.618487E-19	4.694496E-20
2.111932E+03	8.172621E-19	4.447796E-20
2.151780E+03	8.144822E-19	4.428738E-20
2.191628E+03	8.619572E-19	4.682614E-20
2.231476E+03	9.609451E-19	5.215483E-20
2.271324E+03	1.105964E-18	5.996793E-20
2.311171E+03	1.287183E-18	6.972504E-20
2.351019E+03	1.495020E-18	8.090106E-20
2.390867E+03	1.721013E-18	9.303321E-20
2.430715E+03	1.958901E-18	1.057793E-19
2.470562E+03	2.205785E-18	1.189798E-19
2.510410E+03	2.460481E-18	1.325681E-19
2.550258E+03	2.723239E-18	1.465550E-19
2.590106E+03	2.995243E-18	1.610014E-19
2.629954E+03	3.278255E-18	1.759986E-19
2.669801E+03	3.575803E-18	1.917322E-19
2.709649E+03	3.888318E-18	2.082208E-19
2.749497E+03	4.220608E-18	2.257166E-19
2.789345E+03	4.574869E-18	2.443310E-19
2.829192E+03	4.954175E-18	2.642212E-19
2.869040E+03	5.362722E-18	2.856029E-19
2.908888E+03	5.803147E-18	3.086074E-19
2.948736E+03	6.281228E-18	3.335313E-19
2.988584E+03	6.800115E-18	3.605301E-19
2.998546E+03	6.936111E-18	3.675970E-19
3.008508E+03	7.075767E-18	3.748514E-19
3.018469E+03	7.219185E-18	3.822983E-19
3.028431E+03	7.364179E-18	3.898218E-19
3.038393E+03	7.513565E-18	3.975707E-19
3.048355E+03	7.668129E-18	4.055862E-19
3.058317E+03	7.827751E-18	4.138616E-19
3.068279E+03	7.992280E-18	4.223886E-19
3.078241E+03	8.161577E-18	4.311594E-19
3.088203E+03	8.336803E-18	4.402349E-19
3.098165E+03	8.517900E-18	4.496117E-19
3.108127E+03	8.702167E-18	4.591467E-19
3.118089E+03	8.893489E-18	4.690446E-19
3.128051E+03	9.087788E-18	4.790898E-19
3.138013E+03	9.287701E-18	4.894211E-19
3.147975E+03	9.493213E-18	5.000372E-19
3.157937E+03	9.701455E-18	5.107866E-19
3.167899E+03	9.916661E-18	5.218918E-19
3.177861E+03	1.013447E-17	5.331227E-19
3.187823E+03	1.035775E-17	5.446305E-19
3.197784E+03	1.058654E-17	5.564158E-19
3.207746E+03	1.081930E-17	5.683980E-19
3.217708E+03	1.105756E-17	5.806566E-19
3.227670E+03	1.129975E-17	5.931090E-19
3.237632E+03	1.154583E-17	6.057525E-19
3.247594E+03	1.179740E-17	6.186713E-19
3.257556E+03	1.205284E-17	6.317787E-19
3.267518E+03	1.231379E-17	6.451614E-19
3.277480E+03	1.257857E-17	6.587303E-19
3.287442E+03	1.284888E-17	6.725745E-19
3.297404E+03	1.312476E-17	6.866952E-19
3.307366E+03	1.340263E-17	7.009049E-19
3.317328E+03	1.368785E-17	7.154828E-19
3.327290E+03	1.397679E-17	7.302398E-19
3.337252E+03	1.426941E-17	7.451723E-19
3.347214E+03	1.456753E-17	7.603755E-19
3.357176E+03	1.486921E-17	7.757478E-19
3.367138E+03	1.517633E-17	7.913862E-19
3.377099E+03	1.548886E-17	8.072889E-19
3.387061E+03	1.580475E-17	8.233488E-19
3.397023E+03	1.612590E-17	8.396647E-19
3.406985E+03	1.645020E-17	8.561251E-19
3.416947E+03	1.677955E-17	8.728298E-19
3.426909E+03	1.711176E-17	8.896630E-19
3.436871E+03	1.744874E-17	9.067251E-19
3.446833E+03	1.778819E-17	9.238950E-19
3.456795E+03	1.813205E-17	9.412735E-19
3.466757E+03	1.848012E-17	9.588496E-19
3.476719E+03	1.882992E-17	9.764942E-19
3.486681E+03	1.918339E-17	9.943079E-19
3.496643E+03	1.953793E-17	1.012156E-18
3.506605E+03	1.989548E-17	1.030137E-18
3.516567E+03	2.025568E-17	1.048233E-18
3.526529E+03	2.061575E-17	1.066300E-18
3.536491E+03	2.097760E-17	1.084436E-18
3.546453E+03	2.134079E-17	1.102618E-18
3.556414E+03	2.170240E-17	1.120696E-18
3.566376E+03	2.206438E-17	1.138769E-18
3.576338E+03	2.242381E-17	1.156688E-18
3.586300E+03	2.278280E-17	1.174560E-18
3.596262E+03	2.314106E-17	1.192372E-18
3.606224E+03	2.349587E-17	1.209982E-18
3.616186E+03	2.384962E-17	1.227514E-18
3.626148E+03	2.420226E-17	1.244964E-18
3.636110E+03	2.455373E-17	1.262332E-18
3.646072E+03	2.490139E-17	1.279479E-18
3.656034E+03	2.524514E-17	1.296402E-18
3.665996E+03	2.559027E-17	1.313371E-18
3.675958E+03	2.593142E-17	1.330112E-18
3.685920E+03	2.627120E-17	1.346760E-18
3.695882E+03	2.660688E-17	1.363173E-18
3.705844E+03	2.694381E-17	1.379626E-18
3.715806E+03	2.727650E-17	1.395838E-18
3.725768E+03	2.760485E-17	1.411804E-18
3.735730E+03	2.793428E-17	1.427802E-18
3.745691E+03	2.825921E-17	1.443544E-18
3.755653E+03	2.857950E-17	1.459027E-18
3.765615E+03	2.890065E-17	1.474529E-18
3.775577E+03	2.921698E-17	1.489761E-18
3.785539E+03	2.953117E-17	1.504860E-18
3.795501E+03	2.984313E-17	1.519821E-18
3.805463E+03	3.014992E-17	1.534495E-18
3.815425E+03	3.045426E-17	1.549020E-18
3.825387E+03	3.075604E-17	1.563392E-18
3.835349E+03	3.105516E-17	1.577604E-18
3.845311E+03	3.134867E-17	1.591508E-18
3.855273E+03	3.163930E-17	1.605242E-18
3.865235E+03	3.192696E-17	1.618801E-18
3.875197E+03	3.221158E-17	1.632183E-18
3.885159E+03	3.249018E-17	1.645236E-18
3.895121E+03	3.276556E-17	1.658103E-18
3.905083E+03	3.303766E-17	1.670781E-18
3.915045E+03	3.330641E-17	1.683267E-18
3.925006E+03	3.356890E-17	1.695413E-18
3.934968E+03	3.382796E-17	1.707363E-18
3.944930E+03	3.408357E-17	1.719116E-18
3.954892E+03	3.433286E-17	1.730529E-18
3.964854E+03	3.458158E-17	1.741890E-18
3.974816E+03	3.482402E-17	1.752912E-18
3.984778E+03	3.506311E-17	1.763744E-18
3.994740E+03	3.529606E-17	1.774245E-18
4.004702E+03	3.552872E-17	1.784710E-18
4.014664E+03	3.575553E-17	1.794859E-18
4.024626E+03	3.597956E-17	1.804848E-18
4.034588E+03	3.619822E-17	1.814546E-18
4.044550E+03	3.641470E-17	1.824113E-18
4.054512E+03	3.662938E-17	1.833569E-18
4.064474E+03	3.684271E-17	1.842935E-18
4.074436E+03	3.705520E-17	1.852239E-18
4.084398E+03	3.726463E-17	1.861369E-18
4.094360E+03	3.747452E-17	1.870500E-18
4.104321E+03	3.768567E-17	1.879673E-18
4.114283E+03	3.789617E-17	1.888793E-18
4.124245E+03	3.810985E-17	1.898048E-18
4.134207E+03	3.832780E-17	1.907495E-18
4.144169E+03	3.855121E-17	1.917190E-18
4.154131E+03	3.877854E-17	1.927058E-18
4.164093E+03	3.901388E-17	1.937300E-18
4.174055E+03	3.925849E-17	1.947978E-18
4.184017E+03	3.951094E-17	1.959019E-18
4.193979E+03	3.977530E-17	1.970625E-18
4.203941E+03	4.005277E-17	1.982854E-18
4.213903E+03	4.034189E-17	1.995632E-18
4.223865E+03	4.064653E-17	2.009147E-18
4.233827E+03	4.096787E-17	2.023457E-18
4.243789E+03	4.130693E-17	2.038611E-18
4.253751E+03	4.166191E-17	2.054517E-18
4.263713E+03	4.203367E-17	2.071214E-18
4.273675E+03	4.242855E-17	2.089014E-18
4.283637E+03	4.284168E-17	2.107675E-18
4.293598E+03	4.327367E-17	2.127222E-18
4.303560E+03	4.372772E-17	2.147812E-18
4.313522E+03	4.420439E-17	2.169468E-18
4.323484E+03	4.470403E-17	2.192206E-18
4.333446E+03	4.522413E-17	2.215899E-18
4.343408E+03	4.576512E-17	2.240565E-18
4.353370E+03	4.633005E-17	2.266351E-18
4.363332E+03	4.691942E-17	2.293278E-18
4.373294E+03	4.753062E-17	2.321216E-18
4.383256E+03	4.816688E-17	2.350319E-18
4.393218E+03	4.882558E-17	2.380456E-18
4.403180E+03	4.950989E-17	2.411778E-18
4.413142E+03	5.021705E-17	2.444147E-18
4.423104E+03	5.095019E-17	2.477714E-18
4.433066E+03	5.170957E-17	2.512485E-18
4.443028E+03	5.248931E-17	2.548173E-18
4.452990E+03	5.329862E-17	2.585222E-18
4.462952E+03	5.412844E-17	2.623187E-18
4.472913E+03	5.498806E-17	2.662517E-18
4.482875E+03	5.586803E-17	2.702749E-18
4.492837E+03	5.677416E-17	2.744161E-18
4.502799E+03	5.770585E-17	2.786721E-18
4.512761E+03	5.865555E-17	2.830061E-18
4.522723E+03	5.963143E-17	2.874571E-18
4.532685E+03	6.062158E-17	2.919676E-18
4.542647E+03	6.162998E-17	2.965562E-18
4.552609E+03	6.265026E-17	3.011922E-18
4.562571E+03	6.368239E-17	3.058752E-18
4.572533E+03	6.471946E-17	3.105718E-18
4.582495E+03	6.575784E-17	3.152646E-18
4.592457E+03	6.679757E-17	3.199536E-18
4.602419E+03	6.782874E-17	3.245914E-18
4.612381E+03	6.885562E-17	3.291985E-18
4.622343E+03	6.987620E-17	3.337652E-18
4.632305E+03	7.088184E-17	3.382504E-18
4.642267E+03	7.187870E-17	3.426837E-18
4.652228E+03	7.286277E-17	3.470459E-18
4.662190E+03	7.383433E-17	3.513386E-18
4.672152E+03	7.479421E-17	3.555658E-18
4.682114E+03	7.574766E-17	3.597527E-18
4.692076E+03	7.669303E-17	3.638913E-18
4.702038E+03	7.762925E-17	3.679768E-18
4.712000E+03	7.856698E-17	3.720597E-18
4.721962E+03	7.950586E-17	3.761382E-18
4.731924E+03	8.044964E-17	3.802300E-18
4.741886E+03	8.140210E-17	3.843529E-18
4.751848E+03	8.237085E-17	3.885426E-18
4.761810E+03	8.335160E-17	3.927787E-18
4.771772E+03	8.435136E-17	3.970938E-18
4.781734E+03	8.537669E-17	4.015187E-18
4.791696E+03	8.642183E-17	4.060258E-18
4.801658E+03	8.749205E-17	4.106396E-18
4.811620E+03	8.858782E-17	4.153618E-18
4.821582E+03	8.971287E-17	4.202095E-18
4.831544E+03	9.085789E-17	4.251388E-18
4.841505E+03	9.202489E-17	4.301587E-18
4.851467E+03	9.321131E-17	4.352569E-18
4.861429E+03	9.441401E-17	4.404185E-18
4.871391E+03	9.562969E-17	4.456277E-18
4.881353E+03	9.685061E-17	4.508484E-18
4.891315E+03	9.808166E-17	4.561032E-18
4.901277E+03	9.931095E-17	4.613366E-18
4.911239E+03	1.005393E-16	4.665526E-18
4.921201E+03	1.017637E-16	4.717370E-18
4.931163E+03	1.029813E-16	4.768768E-18
4.941125E+03	1.041898E-16	4.819613E-18
4.951087E+03	1.053829E-16	4.869616E-18
4.961049E+03	1.065635E-16	4.918914E-18
4.971011E+03	1.077307E-16	4.967462E-18
4.980973E+03	1.088792E-16	5.015027E-18
4.990935E+03	1.100180E-16	5.062015E-18
5.000897E+03	1.111383E-16	5.108034E-18
5.010859E+03	1.122412E-16	5.153130E-18
5.020820E+03	1.133379E-16	5.197816E-18
5.030782E+03	1.144223E-16	5.241822E-18
5.040744E+03	1.154991E-16	5.285358E-18
5.050706E+03	1.165787E-16	5.328905E-18
5.060668E+03	1.176684E-16	5.372794E-18
5.070630E+03	1.187769E-16	5.417418E-18
5.080592E+03	1.199092E-16	5.463006E-18
5.090554E+03	1.210757E-16	5.510026E-18
5.100516E+03	1.222920E-16	5.559182E-18
5.110478E+03	1.235689E-16	5.610956E-18
5.120440E+03	1.249119E-16	5.665588E-18
5.130402E+03	1.263348E-16	5.723697E-18
5.140364E+03	1.278403E-16	5.785385E-18
5.150326E+03	1.294384E-16	5.851102E-18
5.160288E+03	1.311272E-16	5.920740E-18
5.170250E+03	1.329119E-16	5.994521E-18
5.180212E+03	1.347852E-16	6.072106E-18
5.190174E+03	1.367430E-16	6.153290E-18
5.200135E+03	1.387841E-16	6.238009E-18
5.210097E+03	1.409013E-16	6.325933E-18
5.220059E+03	1.430818E-16	6.416464E-18
5.230021E+03	1.453172E-16	6.509227E-18
5.239983E+03	1.476047E-16	6.604085E-18
5.249945E+03	1.499312E-16	6.700442E-18
5.259907E+03	1.522892E-16	6.797956E-18
5.269869E+03	1.546768E-16	6.896545E-18
5.279831E+03	1.570817E-16	6.995656E-18
5.289793E+03	1.594977E-16	7.095003E-18
5.299755E+03	1.619244E-16	7.194572E-18
5.309717E+03	1.643506E-16	7.293864E-18
5.319679E+03	1.667711E-16	7.392649E-18
5.329641E+03	1.691870E-16	7.490974E-18
5.339603E+03	1.715873E-16	7.588362E-18
5.349565E+03	1.739670E-16	7.684588E-18
5.359527E+03	1.763199E-16	7.779381E-18
5.369489E+03	1.786447E-16	7.872694E-18
5.379450E+03	1.809262E-16	7.963858E-18
5.389412E+03	1.831527E-16	8.052374E-18
5.399374E+03	1.853108E-16	8.137651E-18
5.409336E+03	1.873906E-16	8.219274E-18
5.419298E+03	1.893617E-16	8.295924E-18
5.429260E+03	1.912181E-16	8.367353E-18
5.439222E+03	1.929341E-16	8.432460E-18
5.449184E+03	1.944911E-16	8.490449E-18
5.459146E+03	1.958779E-16	8.540869E-18
5.469108E+03	1.970660E-16	8.582491E-18
5.479070E+03	1.980547E-16	8.615330E-18
5.489032E+03	1.988268E-16	8.638661E-18
5.498994E+03	1.993746E-16	8.652189E-18
5.508956E+03	1.996939E-16	8.655768E-18
5.518918E+03	1.997851E-16	8.649445E-18
5.528880E+03	1.996530E-16	8.633475E-18
5.538842E+03	1.993086E-16	8.608357E-18
5.548804E+03	1.987745E-16	8.575101E-18
5.558766E+03	1.980593E-16	8.534109E-18
5.568727E+03	1.972015E-16	8.487064E-18
5.578689E+03	1.962167E-16	8.434657E-18
5.588651E+03	1.951471E-16	8.378722E-18
5.598613E+03	1.940152E-16	8.320237E-18
5.608575E+03	1.928420E-16	8.260106E-18
5.618537E+03	1.916636E-16	8.199884E-18
5.628499E+03	1.904945E-16	8.140188E-18
5.638461E+03	1.893457E-16	8.081489E-18
5.648423E+03	1.882432E-16	8.024891E-18
5.658385E+03	1.871928E-16	7.970630E-18
5.668347E+03	1.862051E-16	7.919154E-18
5.678309E+03	1.852852E-16	7.870667E-18
5.688271E+03	1.844570E-16	7.826175E-18
5.698233E+03	1.837238E-16	7.785802E-18
5.708195E+03	1.831147E-16	7.750765E-18
5.718157E+03	1.826449E-16	7.721688E-18
5.728119E+03	1.823322E-16	7.699302E-18
5.738081E+03	1.822139E-16	7.685154E-18
5.748042E+03	1.823057E-16	7.679883E-18
5.758004E+03	1.826409E-16	7.684849E-18
5.767966E+03	1.832456E-16	7.701123E-18
5.777928E+03	1.841493E-16	7.729891E-18
5.787890E+03	1.853593E-16	7.771425E-18
5.797852E+03	1.868935E-16	7.826427E-18
5.807814E+03	1.887499E-16	7.894760E-18
5.817776E+03	1.909331E-16	7.976573E-18
5.827738E+03	1.934190E-16	8.070810E-18
5.837700E+03	1.961711E-16	8.175905E-18
5.847662E+03	1.991582E-16	8.290521E-18
5.857624E+03	2.023140E-16	8.411872E-18
5.867586E+03	2.055811E-16	8.537539E-18
5.877548E+03	2.088889E-16	8.664589E-18
5.887510E+03	2.121640E-16	8.789969E-18
5.897472E+03	2.153335E-16	8.910671E-18
5.907434E+03	2.183289E-16	9.023878E-18
5.917396E+03	2.210829E-16	9.126841E-18
5.927357E+03	2.235575E-16	9.218029E-18
5.937319E+03	2.256999E-16	9.295309E-18
5.947281E+03	2.274890E-16	9.357861E-18
5.957243E+03	2.289086E-16	9.405072E-18
5.967205E+03	2.299535E-16	9.436789E-18
5.977167E+03	2.306224E-16	9.453009E-18
5.987129E+03	2.309438E-16	9.454954E-18
5.997091E+03	2.309275E-16	9.443083E-18
6.007053E+03	2.306115E-16	9.418985E-18
6.017015E+03	2.300326E-16	9.384218E-18
6.026977E+03	2.292323E-16	9.340505E-18
6.036939E+03	2.282549E-16	9.289681E-18
6.046901E+03	2.271389E-16	9.233338E-18
6.056863E+03	2.259420E-16	9.173841E-18
6.066825E+03	2.246929E-16	9.112361E-18
6.076787E+03	2.234359E-16	9.050706E-18
6.086749E+03	2.222034E-16	8.990184E-18
6.096711E+03	2.210147E-16	8.931574E-18
6.106673E+03	2.199018E-16	8.876162E-18
6.116634E+03	2.188643E-16	8.823917E-18
6.126596E+03	2.179150E-16	8.775352E-18
6.136558E+03	2.170625E-16	8.730790E-18
6.146520E+03	2.162871E-16	8.689437E-18
6.156482E+03	2.156060E-16	8.651964E-18
6.166444E+03	2.150112E-16	8.618043E-18
6.176406E+03	2.144956E-16	8.587377E-18
6.186368E+03	2.140716E-16	8.560454E-18
6.196330E+03	2.137270E-16	8.536765E-18
6.206292E+03	2.134672E-16	8.516528E-18
6.216254E+03	2.132911E-16	8.499677E-18
6.226216E+03	2.131899E-16	8.485858E-18
6.236178E+03	2.131730E-16	8.475431E-18
6.246140E+03	2.132314E-16	8.468030E-18
6.256102E+03	2.133576E-16	8.463347E-18
6.266064E+03	2.135588E-16	8.461660E-18
6.276026E+03	2.138395E-16	8.463138E-18
6.285988E+03	2.142085E-16	8.468119E-18
6.295949E+03	2.146792E-16	8.477117E-18
6.305911E+03	2.152701E-16	8.490856E-18
6.315873E+03	2.160051E-16	8.510260E-18
6.325835E+03	2.169072E-16	8.536216E-18
6.335797E+03	2.180232E-16	8.570544E-18
6.345759E+03	2.193796E-16	8.614258E-18
6.355721E+03	2.210319E-16	8.669506E-18
6.365683E+03	2.230134E-16	8.737550E-18
6.375645E+03	2.253774E-16	8.820445E-18
6.385607E+03	2.281780E-16	8.920250E-18
6.395569E+03	2.314474E-16	9.038175E-18
6.405531E+03	2.352337E-16	9.176039E-18
6.415493E+03	2.395725E-16	9.335165E-18
6.425455E+03	2.444906E-16	9.516532E-18
6.435417E+03	2.500038E-16	9.720686E-18
6.445379E+03	2.561135E-16	9.947613E-18
6.455341E+03	2.628040E-16	1.019663E-17
6.465303E+03	2.700395E-16	1.046629E-17
6.475264E+03	2.777621E-16	1.075430E-17
6.485226E+03	2.858902E-16	1.105743E-17
6.495188E+03	2.943185E-16	1.137158E-17
6.505150E+03	3.029183E-16	1.169176E-17
6.515112E+03	3.115480E-16	1.201248E-17
6.525074E+03	3.200204E-16	1.232653E-17
6.535036E+03	3.281610E-16	1.262724E-17
6.544998E+03	3.357802E-16	1.290734E-17
6.554960E+03	3.427004E-16	1.316009E-17
6.564922E+03	3.487255E-16	1.337805E-17
6.574884E+03	3.537193E-16	1.355611E-17
6.584846E+03	3.575335E-16	1.368871E-17
6.594808E+03	3.600939E-16	1.377314E-17
6.604770E+03	3.613329E-16	1.380696E-17
6.614732E+03	3.612313E-16	1.378960E-17
6.624694E+03	3.598072E-16	1.372189E-17
6.634656E+03	3.571143E-16	1.360602E-17
6.644618E+03	3.532477E-16	1.344574E-17
6.654580E+03	3.482977E-16	1.324463E-17
6.664541E+03	3.424154E-16	1.300853E-17
6.674503E+03	3.357338E-16	1.274259E-17
6.684465E+03	3.284022E-16	1.245255E-17
6.694427E+03	3.205702E-16	1.214414E-17
6.704389E+03	3.123923E-16	1.182326E-17
6.714351E+03	3.039875E-16	1.149443E-17
6.724313E+03	2.955004E-16	1.116315E-17
6.734275E+03	2.870359E-16	1.083337E-17
6.744237E+03	2.787022E-16	1.050917E-17
6.754199E+03	2.705680E-16	1.019311E-17
6.764161E+03	2.627199E-16	9.888427E-18
6.774123E+03	2.552133E-16	9.597171E-18
6.784085E+03	2.480757E-16	9.320339E-18
6.794047E+03	2.413529E-16	9.059601E-18
6.804009E+03	2.350577E-16	8.815397E-18
6.813971E+03	2.292021E-16	8.588132E-18
6.823933E+03	2.237982E-16	8.378204E-18
6.833895E+03	2.188391E-16	8.185313E-18
6.843856E+03	2.143212E-16	8.009272E-18
6.853818E+03	2.102378E-16	7.849792E-18
6.863780E+03	2.065865E-16	7.706732E-18
6.873742E+03	2.033567E-16	7.579657E-18
6.883704E+03	2.005246E-16	7.467635E-18
6.893666E+03	1.980893E-16	7.370592E-18
6.903628E+03	1.960367E-16	7.287969E-18
6.913590E+03	1.943461E-16	7.218956E-18
6.923552E+03	1.930019E-16	7.162943E-18
6.933514E+03	1.919879E-16	7.119289E-18
6.943476E+03	1.912983E-16	7.087752E-18
6.953438E+03	1.908985E-16	7.067019E-18
6.963400E+03	1.907817E-16	7.056812E-18
6.973362E+03	1.909240E-16	7.056223E-18
6.983324E+03	1.913130E-16	7.064771E-18
6.993286E+03	1.919257E-16	7.081581E-18
7.003248E+03	1.927514E-16	7.106242E-18
7.013210E+03	1.937693E-16	7.137970E-18
7.023171E+03	1.949662E-16	7.176262E-18
7.033133E+03	1.963363E-16	7.220890E-18
7.043095E+03	1.978700E-16	7.271486E-18
7.053057E+03	1.995533E-16	7.327522E-18
7.063019E+03	2.013858E-16	7.388973E-18
7.072981E+03	2.033566E-16	7.455431E-18
7.082943E+03	2.054621E-16	7.526750E-18
7.092905E+03	2.077059E-16	7.603053E-18
7.102867E+03	2.100859E-16	7.684254E-18
7.112829E+03	2.125932E-16	7.770019E-18
7.122791E+03	2.152308E-16	7.860444E-18
7.132753E+03	2.179865E-16	7.955084E-18
7.142715E+03	2.208587E-16	8.053870E-18
7.152677E+03	2.238286E-16	8.156108E-18
7.162639E+03	2.268864E-16	8.261437E-18
7.172601E+03	2.300102E-16	8.369059E-18
7.182563E+03	2.331648E-16	8.477689E-18
7.192525E+03	2.363231E-16	8.586341E-18
7.202487E+03	2.394370E-16	8.693279E-18
7.212448E+03	2.424681E-16	8.797114E-18
7.222410E+03	2.453585E-16	8.895755E-18
7.232372E+03	2.480699E-16	8.987826E-18
7.242334E+03	2.505233E-16	9.070491E-18
7.252296E+03	2.526861E-16	9.142588E-18
7.262258E+03	2.544880E-16	9.201602E-18
7.272220E+03	2.558782E-16	9.245723E-18
7.282182E+03	2.568197E-16	9.273654E-18
7.292144E+03	2.572767E-16	9.284130E-18
7.302106E+03	2.572233E-16	9.276260E-18
7.312068E+03	2.566381E-16	9.249305E-18
7.322030E+03	2.555289E-16	9.203587E-18
7.331992E+03	2.538999E-16	9.139290E-18
7.341954E+03	2.517916E-16	9.057910E-18
7.351916E+03	2.492143E-16	8.959844E-18
7.361878E+03	2.462349E-16	8.847526E-18
7.371840E+03	2.428863E-16	8.722164E-18
7.381802E+03	2.392294E-16	8.585964E-18
7.391763E+03	2.353191E-16	8.440912E-18
7.401725E+03	2.312035E-16	8.288743E-18
7.411687E+03	2.269447E-16	8.131695E-18
7.421649E+03	2.225887E-16	7.971418E-18
7.431611E+03	2.182005E-16	7.810242E-18
7.441573E+03	2.138138E-16	7.649372E-18
7.451535E+03	2.094812E-16	7.490683E-18
7.461497E+03	2.052386E-16	7.335451E-18
7.471459E+03	2.011327E-16	7.185342E-18
7.481421E+03	1.972011E-16	7.041679E-18
7.491383E+03	1.934783E-16	6.905690E-18
7.501345E+03	1.899967E-16	6.778509E-18
7.511307E+03	1.867795E-16	6.660958E-18
7.521269E+03	1.838606E-16	6.554228E-18
7.531231E+03	1.812589E-16	6.458975E-18
7.541193E+03	1.790089E-16	6.376414E-18
7.551155E+03	1.771187E-16	6.306814E-18
7.561117E+03	1.756113E-16	6.250986E-18
7.571078E+03	1.744951E-16	6.209213E-18
7.581040E+03	1.737928E-16	6.182282E-18
7.591002E+03	1.734991E-16	6.170000E-18
7.600964E+03	1.736216E-16	6.172622E-18
7.610926E+03	1.741498E-16	6.189763E-18
7.620888E+03	1.750834E-16	6.221404E-18
7.630850E+03	1.763893E-16	6.266363E-18
7.640812E+03	1.780428E-16	6.323759E-18
7.650774E+03	1.800034E-16	6.392154E-18
7.660736E+03	1.822157E-16	6.469575E-18
7.670698E+03	1.846360E-16	6.554473E-18
7.680660E+03	1.871905E-16	6.644234E-18
7.690622E+03	1.898224E-16	6.736850E-18
7.700584E+03	1.924697E-16	6.830124E-18
7.710546E+03	1.950668E-16	6.921738E-18
7.720508E+03	1.975671E-16	7.010047E-18
7.730470E+03	1.999312E-16	7.093662E-18
