#wls	flux	fluxerr
1.593911E+03	4.579333E-19	5.410011E-20
1.633759E+03	4.792884E-19	5.655712E-20
1.673607E+03	4.985796E-19	5.876351E-20
1.713455E+03	5.152355E-19	6.065267E-20
1.753302E+03	5.285796E-19	6.214602E-20
1.793150E+03	5.378088E-19	6.315056E-20
1.832998E+03	5.413208E-19	6.348014E-20
1.872846E+03	5.375361E-19	6.295233E-20
1.912694E+03	5.250459E-19	6.140579E-20
1.952541E+03	5.034068E-19	5.879301E-20
1.992389E+03	4.736918E-19	5.524381E-20
2.032237E+03	4.400281E-19	5.124312E-20
2.072085E+03	4.096456E-19	4.763397E-20
2.111932E+03	3.915015E-19	4.545492E-20
2.151780E+03	3.933944E-19	4.560372E-20
2.191628E+03	4.199321E-19	4.860277E-20
2.231476E+03	4.721769E-19	5.456091E-20
2.271324E+03	5.482168E-19	6.324248E-20
2.311171E+03	6.441061E-19	7.417851E-20
2.351019E+03	7.553876E-19	8.684386E-20
2.390867E+03	8.780366E-19	1.007661E-19
2.430715E+03	1.009868E-18	1.156866E-19
2.470562E+03	1.149083E-18	1.313922E-19
2.510410E+03	1.295597E-18	1.478672E-19
2.550258E+03	1.449870E-18	1.651571E-19
2.590106E+03	1.613254E-18	1.834089E-19
2.629954E+03	1.786801E-18	2.027337E-19
2.669801E+03	1.972146E-18	2.233075E-19
2.709649E+03	2.171609E-18	2.453819E-19
2.749497E+03	2.386856E-18	2.691324E-19
2.789345E+03	2.620696E-18	2.948607E-19
2.829192E+03	2.875133E-18	3.227754E-19
2.869040E+03	3.153504E-18	3.532314E-19
2.908888E+03	3.459559E-18	3.866263E-19
2.948736E+03	3.795322E-18	4.231603E-19
2.988584E+03	4.165018E-18	4.632759E-19
2.998546E+03	4.263414E-18	4.739352E-19
3.008508E+03	4.364088E-18	4.848332E-19
3.018469E+03	4.467094E-18	4.959754E-19
3.028431E+03	4.573377E-18	5.074660E-19
3.038393E+03	4.682434E-18	5.192486E-19
3.048355E+03	4.794755E-18	5.313768E-19
3.058317E+03	4.911026E-18	5.439259E-19
3.068279E+03	5.031188E-18	5.568883E-19
3.078241E+03	5.155187E-18	5.702572E-19
3.088203E+03	5.283933E-18	5.841323E-19
3.098165E+03	5.416459E-18	5.984058E-19
3.108127E+03	5.552730E-18	6.130727E-19
3.118089E+03	5.693725E-18	6.282403E-19
3.128051E+03	5.837404E-18	6.436824E-19
3.138013E+03	5.985784E-18	6.596208E-19
3.147975E+03	6.137830E-18	6.759401E-19
3.157937E+03	6.294611E-18	6.927574E-19
3.167899E+03	6.453935E-18	7.098303E-19
3.177861E+03	6.617998E-18	7.273994E-19
3.187823E+03	6.785683E-18	7.453409E-19
3.197784E+03	6.956973E-18	7.636521E-19
3.207746E+03	7.133059E-18	7.824627E-19
3.217708E+03	7.312764E-18	8.016424E-19
3.227670E+03	7.496062E-18	8.211876E-19
3.237632E+03	7.682937E-18	8.410954E-19
3.247594E+03	7.873368E-18	8.613627E-19
3.257556E+03	8.068664E-18	8.821317E-19
3.267518E+03	8.267519E-18	9.032582E-19
3.277480E+03	8.469900E-18	9.247380E-19
3.287442E+03	8.677188E-18	9.467207E-19
3.297404E+03	8.887987E-18	9.690528E-19
3.307366E+03	9.102253E-18	9.917284E-19
3.317328E+03	9.319942E-18	1.014742E-18
3.327290E+03	9.540993E-18	1.038086E-18
3.337252E+03	9.766901E-18	1.061922E-18
3.347214E+03	9.996098E-18	1.086078E-18
3.357176E+03	1.022851E-17	1.110545E-18
3.367138E+03	1.046568E-17	1.135491E-18
3.377099E+03	1.070594E-17	1.160731E-18
3.387061E+03	1.094918E-17	1.186255E-18
3.397023E+03	1.119528E-17	1.212048E-18
3.406985E+03	1.144586E-17	1.238283E-18
3.416947E+03	1.169909E-17	1.264763E-18
3.426909E+03	1.195480E-17	1.291469E-18
3.436871E+03	1.221284E-17	1.318382E-18
3.446833E+03	1.247487E-17	1.345683E-18
3.456795E+03	1.273891E-17	1.373154E-18
3.466757E+03	1.300474E-17	1.400773E-18
3.476719E+03	1.327408E-17	1.428724E-18
3.486681E+03	1.354480E-17	1.456777E-18
3.496643E+03	1.381666E-17	1.484905E-18
3.506605E+03	1.408938E-17	1.513079E-18
3.516567E+03	1.436477E-17	1.541491E-18
3.526529E+03	1.464053E-17	1.569894E-18
3.536491E+03	1.491636E-17	1.598256E-18
3.546453E+03	1.519412E-17	1.626777E-18
3.556414E+03	1.547142E-17	1.655197E-18
3.566376E+03	1.574795E-17	1.683487E-18
3.576338E+03	1.602342E-17	1.711614E-18
3.586300E+03	1.629982E-17	1.739789E-18
3.596262E+03	1.657466E-17	1.767750E-18
3.606224E+03	1.684772E-17	1.795469E-18
3.616186E+03	1.712109E-17	1.823172E-18
3.626148E+03	1.739228E-17	1.850593E-18
3.636110E+03	1.766108E-17	1.877711E-18
3.646072E+03	1.792971E-17	1.904759E-18
3.656034E+03	1.819562E-17	1.931470E-18
3.665996E+03	1.845865E-17	1.957825E-18
3.675958E+03	1.871862E-17	1.983806E-18
3.685920E+03	1.897784E-17	2.009659E-18
3.695882E+03	1.923373E-17	2.035110E-18
3.705844E+03	1.948613E-17	2.060142E-18
3.715806E+03	1.973742E-17	2.085009E-18
3.725768E+03	1.998496E-17	2.109431E-18
3.735730E+03	2.022862E-17	2.133394E-18
3.745691E+03	2.046824E-17	2.156885E-18
3.755653E+03	2.070630E-17	2.180163E-18
3.765615E+03	2.094009E-17	2.202944E-18
3.775577E+03	2.117210E-17	2.225490E-18
3.785539E+03	2.139960E-17	2.247517E-18
3.795501E+03	2.162248E-17	2.269010E-18
3.805463E+03	2.184059E-17	2.289959E-18
3.815425E+03	2.205651E-17	2.310632E-18
3.825387E+03	2.226745E-17	2.330738E-18
3.835349E+03	2.247331E-17	2.350268E-18
3.845311E+03	2.267398E-17	2.369211E-18
3.855273E+03	2.287206E-17	2.387841E-18
3.865235E+03	2.306478E-17	2.405868E-18
3.875197E+03	2.325477E-17	2.423568E-18
3.885159E+03	2.343925E-17	2.440652E-18
3.895121E+03	2.361815E-17	2.457113E-18
3.905083E+03	2.379142E-17	2.472949E-18
3.915045E+03	2.396176E-17	2.488441E-18
3.925006E+03	2.412642E-17	2.503303E-18
3.934968E+03	2.428540E-17	2.517536E-18
3.944930E+03	2.444144E-17	2.531428E-18
3.954892E+03	2.458911E-17	2.544416E-18
3.964854E+03	2.473669E-17	2.557357E-18
3.974816E+03	2.487602E-17	2.569410E-18
3.984778E+03	2.501271E-17	2.581155E-18
3.994740E+03	2.514412E-17	2.592321E-18
4.004702E+03	2.527044E-17	2.602927E-18
4.014664E+03	2.539458E-17	2.613276E-18
4.024626E+03	2.551401E-17	2.623108E-18
4.034588E+03	2.562901E-17	2.632451E-18
4.044550E+03	2.573983E-17	2.641335E-18
4.054512E+03	2.584954E-17	2.650072E-18
4.064474E+03	2.595573E-17	2.658418E-18
4.074436E+03	2.606151E-17	2.666691E-18
4.084398E+03	2.616185E-17	2.674377E-18
4.094360E+03	2.626261E-17	2.682076E-18
4.104321E+03	2.636155E-17	2.689559E-18
4.114283E+03	2.646184E-17	2.697150E-18
4.124245E+03	2.655861E-17	2.704351E-18
4.134207E+03	2.665778E-17	2.711766E-18
4.144169E+03	2.675719E-17	2.719176E-18
4.154131E+03	2.686007E-17	2.726907E-18
4.164093E+03	2.696433E-17	2.734745E-18
4.174055E+03	2.707052E-17	2.742747E-18
4.184017E+03	2.717921E-17	2.750970E-18
4.193979E+03	2.729098E-17	2.759471E-18
4.203941E+03	2.740904E-17	2.768571E-18
4.213903E+03	2.753126E-17	2.778057E-18
4.223865E+03	2.765819E-17	2.787980E-18
4.233827E+03	2.779298E-17	2.798656E-18
4.243789E+03	2.793347E-17	2.809866E-18
4.253751E+03	2.808012E-17	2.821654E-18
4.263713E+03	2.823338E-17	2.834062E-18
4.273675E+03	2.839366E-17	2.847129E-18
4.283637E+03	2.856396E-17	2.861155E-18
4.293598E+03	2.874202E-17	2.875907E-18
4.303560E+03	2.892813E-17	2.891414E-18
4.313522E+03	2.912258E-17	2.907701E-18
4.323484E+03	2.932828E-17	2.925055E-18
4.333446E+03	2.954015E-17	2.942966E-18
4.343408E+03	2.976367E-17	2.961978E-18
4.353370E+03	2.999636E-17	2.981839E-18
4.363332E+03	3.024101E-17	3.002824E-18
4.373294E+03	3.049242E-17	3.024411E-18
4.383256E+03	3.075603E-17	3.047139E-18
4.393218E+03	3.102926E-17	3.070746E-18
4.403180E+03	3.131218E-17	3.095237E-18
4.413142E+03	3.160482E-17	3.120611E-18
4.423104E+03	3.190720E-17	3.146864E-18
4.433066E+03	3.222202E-17	3.174260E-18
4.443028E+03	3.254646E-17	3.202519E-18
4.452990E+03	3.288042E-17	3.231623E-18
4.462952E+03	3.322370E-17	3.261552E-18
4.472913E+03	3.357606E-17	3.292278E-18
4.482875E+03	3.393724E-17	3.323771E-18
4.492837E+03	3.430969E-17	3.356269E-18
4.502799E+03	3.468740E-17	3.389178E-18
4.512761E+03	3.507559E-17	3.423007E-18
4.522723E+03	3.547095E-17	3.457427E-18
4.532685E+03	3.587293E-17	3.492384E-18
4.542647E+03	3.628098E-17	3.527820E-18
4.552609E+03	3.669450E-17	3.563676E-18
4.562571E+03	3.711292E-17	3.599891E-18
4.572533E+03	3.753854E-17	3.636688E-18
4.582495E+03	3.796487E-17	3.673435E-18
4.592457E+03	3.839732E-17	3.710655E-18
4.602419E+03	3.883238E-17	3.748004E-18
4.612381E+03	3.926649E-17	3.785140E-18
4.622343E+03	3.970528E-17	3.822604E-18
4.632305E+03	4.014534E-17	3.860065E-18
4.642267E+03	4.058642E-17	3.897500E-18
4.652228E+03	4.102830E-17	3.934885E-18
4.662190E+03	4.147085E-17	3.972207E-18
4.672152E+03	4.191394E-17	4.009454E-18
4.682114E+03	4.235771E-17	4.046637E-18
4.692076E+03	4.280217E-17	4.083757E-18
4.702038E+03	4.325074E-17	4.121140E-18
4.712000E+03	4.369723E-17	4.158194E-18
4.721962E+03	4.414510E-17	4.195248E-18
4.731924E+03	4.459457E-17	4.232322E-18
4.741886E+03	4.504932E-17	4.269763E-18
4.751848E+03	4.550300E-17	4.306968E-18
4.761810E+03	4.595917E-17	4.344275E-18
4.771772E+03	4.641810E-17	4.381706E-18
4.781734E+03	4.688329E-17	4.419590E-18
4.791696E+03	4.734820E-17	4.457309E-18
4.801658E+03	4.781625E-17	4.495183E-18
4.811620E+03	4.828743E-17	4.533210E-18
4.821582E+03	4.876169E-17	4.571384E-18
4.831544E+03	4.923887E-17	4.609688E-18
4.841505E+03	4.971879E-17	4.648105E-18
4.851467E+03	5.020121E-17	4.686608E-18
4.861429E+03	5.068587E-17	4.725173E-18
4.871391E+03	5.117246E-17	4.763772E-18
4.881353E+03	5.166073E-17	4.802377E-18
4.891315E+03	5.214683E-17	4.840631E-18
4.901277E+03	5.263756E-17	4.879166E-18
4.911239E+03	5.312573E-17	4.917312E-18
4.921201E+03	5.361825E-17	4.955711E-18
4.931163E+03	5.410806E-17	4.993708E-18
4.941125E+03	5.459878E-17	5.031636E-18
4.951087E+03	5.509072E-17	5.069524E-18
4.961049E+03	5.558419E-17	5.107401E-18
4.971011E+03	5.607981E-17	5.145321E-18
4.980973E+03	5.657825E-17	5.183345E-18
4.990935E+03	5.707674E-17	5.221218E-18
5.000897E+03	5.758374E-17	5.259714E-18
5.010859E+03	5.809305E-17	5.298261E-18
5.020820E+03	5.860981E-17	5.337328E-18
5.030782E+03	5.913560E-17	5.377054E-18
5.040744E+03	5.966835E-17	5.417249E-18
5.050706E+03	6.021742E-17	5.458757E-18
5.060668E+03	6.077719E-17	5.501063E-18
5.070630E+03	6.135344E-17	5.544684E-18
5.080592E+03	6.194819E-17	5.589796E-18
5.090554E+03	6.256337E-17	5.636564E-18
5.100516E+03	6.320098E-17	5.685160E-18
5.110478E+03	6.385888E-17	5.735382E-18
5.120440E+03	6.454263E-17	5.787720E-18
5.130402E+03	6.525374E-17	5.842298E-18
5.140364E+03	6.599344E-17	5.899214E-18
5.150326E+03	6.675872E-17	5.958188E-18
5.160288E+03	6.755428E-17	6.019628E-18
5.170250E+03	6.838054E-17	6.083557E-18
5.180212E+03	6.923758E-17	6.149969E-18
5.190174E+03	7.012522E-17	6.218836E-18
5.200135E+03	7.103864E-17	6.289718E-18
5.210097E+03	7.198120E-17	6.362901E-18
5.220059E+03	7.294737E-17	6.437883E-18
5.230021E+03	7.394427E-17	6.515282E-18
5.239983E+03	7.496157E-17	6.594177E-18
5.249945E+03	7.600158E-17	6.674762E-18
5.259907E+03	7.705757E-17	6.756436E-18
5.269869E+03	7.813151E-17	6.839366E-18
5.279831E+03	7.922082E-17	6.923318E-18
5.289793E+03	8.032265E-17	7.008038E-18
5.299755E+03	8.142941E-17	7.092859E-18
5.309717E+03	8.254250E-17	7.177900E-18
5.319679E+03	8.365874E-17	7.262885E-18
5.329641E+03	8.476980E-17	7.347088E-18
5.339603E+03	8.587701E-17	7.430630E-18
5.349565E+03	8.697680E-17	7.513203E-18
5.359527E+03	8.806043E-17	7.594057E-18
5.369489E+03	8.912915E-17	7.673307E-18
5.379450E+03	9.017923E-17	7.750641E-18
5.389412E+03	9.120187E-17	7.825313E-18
5.399374E+03	9.219849E-17	7.897456E-18
5.409336E+03	9.316035E-17	7.966335E-18
5.419298E+03	9.409455E-17	8.032573E-18
5.429260E+03	9.498240E-17	8.094591E-18
5.439222E+03	9.583671E-17	8.153498E-18
5.449184E+03	9.664454E-17	8.208212E-18
5.459146E+03	9.740366E-17	8.258565E-18
5.469108E+03	9.812273E-17	8.305313E-18
5.479070E+03	9.878379E-17	8.346956E-18
5.489032E+03	9.940149E-17	8.384758E-18
5.498994E+03	9.996352E-17	8.417701E-18
5.508956E+03	1.004691E-16	8.445749E-18
5.518918E+03	1.009290E-16	8.469826E-18
5.528880E+03	1.013275E-16	8.488635E-18
5.538842E+03	1.016824E-16	8.503701E-18
5.548804E+03	1.019853E-16	8.514336E-18
5.558766E+03	1.022394E-16	8.520832E-18
5.568727E+03	1.024543E-16	8.524013E-18
5.578689E+03	1.026348E-16	8.524298E-18
5.588651E+03	1.027811E-16	8.521708E-18
5.598613E+03	1.029047E-16	8.517219E-18
5.608575E+03	1.030067E-16	8.510929E-18
5.618537E+03	1.030995E-16	8.503872E-18
5.628499E+03	1.031903E-16	8.496645E-18
5.638461E+03	1.032810E-16	8.489418E-18
5.648423E+03	1.033793E-16	8.482806E-18
5.658385E+03	1.034981E-16	8.477869E-18
5.668347E+03	1.036447E-16	8.475207E-18
5.678309E+03	1.038212E-16	8.474970E-18
5.688271E+03	1.040348E-16	8.477731E-18
5.698233E+03	1.043030E-16	8.484913E-18
5.708195E+03	1.046163E-16	8.495709E-18
5.718157E+03	1.049915E-16	8.511471E-18
5.728119E+03	1.054342E-16	8.532620E-18
5.738081E+03	1.059437E-16	8.559084E-18
5.748042E+03	1.065296E-16	8.591607E-18
5.758004E+03	1.071896E-16	8.629967E-18
5.767966E+03	1.079311E-16	8.674741E-18
5.777928E+03	1.087497E-16	8.725537E-18
5.787890E+03	1.096503E-16	8.782722E-18
5.797852E+03	1.106257E-16	8.845685E-18
5.807814E+03	1.116779E-16	8.914567E-18
5.817776E+03	1.127967E-16	8.988510E-18
5.827738E+03	1.139812E-16	9.067430E-18
5.837700E+03	1.152176E-16	9.150213E-18
5.847662E+03	1.165025E-16	9.236556E-18
5.857624E+03	1.178193E-16	9.325141E-18
5.867586E+03	1.191621E-16	9.415496E-18
5.877548E+03	1.205125E-16	9.506152E-18
5.887510E+03	1.218633E-16	9.596546E-18
5.897472E+03	1.231950E-16	9.685151E-18
5.907434E+03	1.245005E-16	9.771420E-18
5.917396E+03	1.257606E-16	9.853875E-18
5.927357E+03	1.269633E-16	9.931584E-18
5.937319E+03	1.281102E-16	1.000470E-17
5.947281E+03	1.291727E-16	1.007103E-17
5.957243E+03	1.301553E-16	1.013095E-17
5.967205E+03	1.310519E-16	1.018404E-17
5.977167E+03	1.318517E-16	1.022947E-17
5.987129E+03	1.325521E-16	1.026710E-17
5.997091E+03	1.331589E-16	1.029741E-17
6.007053E+03	1.336669E-16	1.032005E-17
6.017015E+03	1.340853E-16	1.033576E-17
6.026977E+03	1.344119E-16	1.034442E-17
6.036939E+03	1.346589E-16	1.034698E-17
6.046901E+03	1.348262E-16	1.034349E-17
6.056863E+03	1.349277E-16	1.033504E-17
6.066825E+03	1.349647E-16	1.032174E-17
6.076787E+03	1.349520E-16	1.030477E-17
6.086749E+03	1.348912E-16	1.028425E-17
6.096711E+03	1.347970E-16	1.026134E-17
6.106673E+03	1.346707E-16	1.023615E-17
6.116634E+03	1.345201E-16	1.020926E-17
6.126596E+03	1.343587E-16	1.018174E-17
6.136558E+03	1.341931E-16	1.015407E-17
6.146520E+03	1.340232E-16	1.012626E-17
6.156482E+03	1.338545E-16	1.009872E-17
6.166444E+03	1.336988E-16	1.007235E-17
6.176406E+03	1.335545E-16	1.004701E-17
6.186368E+03	1.334327E-16	1.002355E-17
6.196330E+03	1.333310E-16	1.000179E-17
6.206292E+03	1.332600E-16	9.982504E-18
6.216254E+03	1.332173E-16	9.965515E-18
6.226216E+03	1.332132E-16	9.951586E-18
6.236178E+03	1.332455E-16	9.940540E-18
6.246140E+03	1.333246E-16	9.933152E-18
6.256102E+03	1.334487E-16	9.929273E-18
6.266064E+03	1.336226E-16	9.929240E-18
6.276026E+03	1.338574E-16	9.933887E-18
6.285988E+03	1.341588E-16	9.943609E-18
6.295949E+03	1.345259E-16	9.958331E-18
6.305911E+03	1.349646E-16	9.978475E-18
6.315873E+03	1.354878E-16	1.000497E-17
6.325835E+03	1.361015E-16	1.003826E-17
6.335797E+03	1.367991E-16	1.007782E-17
6.345759E+03	1.376063E-16	1.012554E-17
6.355721E+03	1.385156E-16	1.018085E-17
6.365683E+03	1.395322E-16	1.024411E-17
6.375645E+03	1.406670E-16	1.031610E-17
6.385607E+03	1.419165E-16	1.039654E-17
6.395569E+03	1.432894E-16	1.048605E-17
6.405531E+03	1.447792E-16	1.058414E-17
6.415493E+03	1.463911E-16	1.069118E-17
6.425455E+03	1.481215E-16	1.080689E-17
6.435417E+03	1.499501E-16	1.092978E-17
6.445379E+03	1.518896E-16	1.106075E-17
6.455341E+03	1.539140E-16	1.119793E-17
6.465303E+03	1.560084E-16	1.134021E-17
6.475264E+03	1.581622E-16	1.148682E-17
6.485226E+03	1.603466E-16	1.163566E-17
6.495188E+03	1.625441E-16	1.178548E-17
6.505150E+03	1.647184E-16	1.193364E-17
6.515112E+03	1.668452E-16	1.207840E-17
6.525074E+03	1.688898E-16	1.221726E-17
6.535036E+03	1.708071E-16	1.234700E-17
6.544998E+03	1.725595E-16	1.246490E-17
6.554960E+03	1.741178E-16	1.256889E-17
6.564922E+03	1.754468E-16	1.265648E-17
6.574884E+03	1.765059E-16	1.272476E-17
6.584846E+03	1.772673E-16	1.277177E-17
6.594808E+03	1.777169E-16	1.279654E-17
6.604770E+03	1.778383E-16	1.279793E-17
6.614732E+03	1.776136E-16	1.277467E-17
6.624694E+03	1.770484E-16	1.272722E-17
6.634656E+03	1.761383E-16	1.265529E-17
6.644618E+03	1.749026E-16	1.256030E-17
6.654580E+03	1.733582E-16	1.244347E-17
6.664541E+03	1.715189E-16	1.230584E-17
6.674503E+03	1.694116E-16	1.214934E-17
6.684465E+03	1.670749E-16	1.197675E-17
6.694427E+03	1.645414E-16	1.179042E-17
6.704389E+03	1.618376E-16	1.159225E-17
6.714351E+03	1.590064E-16	1.138530E-17
6.724313E+03	1.560747E-16	1.117151E-17
6.734275E+03	1.530839E-16	1.095383E-17
6.744237E+03	1.500660E-16	1.073453E-17
6.754199E+03	1.470436E-16	1.051522E-17
6.764161E+03	1.440513E-16	1.029837E-17
6.774123E+03	1.411070E-16	1.008523E-17
6.784085E+03	1.382396E-16	9.877851E-18
6.794047E+03	1.354615E-16	9.677105E-18
6.804009E+03	1.327955E-16	9.484609E-18
6.813971E+03	1.302552E-16	9.301309E-18
6.823933E+03	1.278453E-16	9.127536E-18
6.833895E+03	1.255808E-16	8.964340E-18
6.843856E+03	1.234625E-16	8.811755E-18
6.853818E+03	1.215011E-16	8.670542E-18
6.863780E+03	1.196996E-16	8.540899E-18
6.873742E+03	1.180538E-16	8.422520E-18
6.883704E+03	1.165701E-16	8.315835E-18
6.893666E+03	1.152475E-16	8.220781E-18
6.903628E+03	1.140789E-16	8.136839E-18
6.913590E+03	1.130675E-16	8.064223E-18
6.923552E+03	1.122048E-16	8.002323E-18
6.933514E+03	1.114927E-16	7.951275E-18
6.943476E+03	1.109273E-16	7.910784E-18
6.953438E+03	1.105041E-16	7.880537E-18
6.963400E+03	1.102130E-16	7.859811E-18
6.973362E+03	1.100493E-16	7.848261E-18
6.983324E+03	1.100186E-16	7.846294E-18
6.993286E+03	1.100994E-16	7.852371E-18
7.003248E+03	1.103026E-16	7.867269E-18
7.013210E+03	1.106118E-16	7.889816E-18
7.023171E+03	1.110266E-16	7.919994E-18
7.033133E+03	1.115412E-16	7.957383E-18
7.043095E+03	1.121441E-16	8.001164E-18
7.053057E+03	1.128344E-16	8.051279E-18
7.063019E+03	1.136055E-16	8.107258E-18
7.072981E+03	1.144449E-16	8.168217E-18
7.082943E+03	1.153509E-16	8.234032E-18
7.092905E+03	1.163158E-16	8.304152E-18
7.102867E+03	1.173254E-16	8.377576E-18
7.112829E+03	1.183766E-16	8.454080E-18
7.122791E+03	1.194598E-16	8.532985E-18
7.132753E+03	1.205588E-16	8.613131E-18
7.142715E+03	1.216684E-16	8.694155E-18
7.152677E+03	1.227768E-16	8.775216E-18
7.162639E+03	1.238716E-16	8.855422E-18
7.172601E+03	1.249333E-16	8.933384E-18
7.182563E+03	1.259542E-16	9.008557E-18
7.192525E+03	1.269201E-16	9.079919E-18
7.202487E+03	1.278100E-16	9.145969E-18
7.212448E+03	1.286158E-16	9.206119E-18
7.222410E+03	1.293231E-16	9.259338E-18
7.232372E+03	1.299181E-16	9.304634E-18
7.242334E+03	1.303811E-16	9.340590E-18
7.252296E+03	1.307069E-16	9.366820E-18
7.262258E+03	1.308850E-16	9.382577E-18
7.272220E+03	1.309004E-16	9.386760E-18
7.282182E+03	1.307531E-16	9.379366E-18
7.292144E+03	1.304390E-16	9.360092E-18
7.302106E+03	1.299565E-16	9.328801E-18
7.312068E+03	1.292999E-16	9.285074E-18
7.322030E+03	1.284794E-16	9.229632E-18
7.331992E+03	1.275012E-16	9.162902E-18
7.341954E+03	1.263739E-16	9.085487E-18
7.351916E+03	1.251020E-16	8.997699E-18
7.361878E+03	1.237112E-16	8.901375E-18
7.371840E+03	1.222034E-16	8.796635E-18
7.381802E+03	1.205948E-16	8.684628E-18
7.391763E+03	1.189150E-16	8.567480E-18
7.401725E+03	1.171692E-16	8.445561E-18
7.411687E+03	1.153820E-16	8.320618E-18
7.421649E+03	1.135711E-16	8.193937E-18
7.431611E+03	1.117487E-16	8.066387E-18
7.441573E+03	1.099437E-16	7.940049E-18
7.451535E+03	1.081609E-16	7.815277E-18
7.461497E+03	1.064218E-16	7.693612E-18
7.471459E+03	1.047353E-16	7.575703E-18
7.481421E+03	1.031256E-16	7.463309E-18
7.491383E+03	1.015938E-16	7.356516E-18
7.501345E+03	1.001560E-16	7.256488E-18
7.511307E+03	9.882144E-17	7.163917E-18
7.521269E+03	9.759807E-17	7.079380E-18
7.531231E+03	9.648729E-17	7.002995E-18
7.541193E+03	9.549955E-17	6.935533E-18
7.551155E+03	9.463869E-17	6.877288E-18
7.561117E+03	9.390734E-17	6.828467E-18
7.571078E+03	9.330682E-17	6.789183E-18
7.581040E+03	9.283200E-17	6.759082E-18
7.591002E+03	9.248680E-17	6.738466E-18
7.600964E+03	9.226866E-17	6.727167E-18
7.610926E+03	9.217384E-17	6.724934E-18
7.620888E+03	9.219755E-17	6.731436E-18
7.630850E+03	9.232864E-17	6.745878E-18
7.640812E+03	9.257008E-17	6.768496E-18
7.650774E+03	9.290365E-17	6.797977E-18
7.660736E+03	9.332536E-17	6.834046E-18
7.670698E+03	9.382530E-17	6.875995E-18
7.680660E+03	9.438782E-17	6.922692E-18
7.690622E+03	9.501213E-17	6.974094E-18
7.700584E+03	9.567649E-17	7.028618E-18
7.710546E+03	9.637448E-17	7.085803E-18
7.720508E+03	9.709459E-17	7.144813E-18
7.730470E+03	9.782538E-17	7.204813E-18
