#wls	flux	fluxerr
1.592975E+03	5.543313E-02	1.744357E-03
1.632799E+03	5.623660E-02	1.756448E-03
1.672624E+03	5.673680E-02	1.758497E-03
1.712448E+03	5.690382E-02	1.749792E-03
1.752272E+03	5.671381E-02	1.729845E-03
1.792097E+03	5.614836E-02	1.698366E-03
1.831921E+03	5.520403E-02	1.655545E-03
1.871746E+03	5.389791E-02	1.602194E-03
1.911570E+03	5.228609E-02	1.540271E-03
1.951394E+03	5.049125E-02	1.473623E-03
1.991219E+03	4.876825E-02	1.409793E-03
2.031043E+03	4.760424E-02	1.362693E-03
2.070867E+03	4.766335E-02	1.350684E-03
2.110692E+03	4.934851E-02	1.384012E-03
2.150516E+03	5.258484E-02	1.459149E-03
2.190341E+03	5.685499E-02	1.560466E-03
2.230165E+03	6.132502E-02	1.664332E-03
2.269989E+03	6.465874E-02	1.734653E-03
2.309814E+03	6.669156E-02	1.768083E-03
2.349638E+03	6.815935E-02	1.785102E-03
2.389462E+03	6.934702E-02	1.793608E-03
2.429287E+03	7.037650E-02	1.796975E-03
2.469111E+03	7.138124E-02	1.798714E-03
2.508936E+03	7.253084E-02	1.803060E-03
2.548760E+03	7.396891E-02	1.813377E-03
2.588584E+03	7.534437E-02	1.820873E-03
2.628409E+03	7.533684E-02	1.794163E-03
2.668233E+03	7.430857E-02	1.743216E-03
2.708057E+03	7.350374E-02	1.697884E-03
2.747882E+03	7.313143E-02	1.662701E-03
2.787706E+03	7.310643E-02	1.635307E-03
2.827531E+03	7.334481E-02	1.613487E-03
2.867355E+03	7.378622E-02	1.595660E-03
2.907179E+03	7.438372E-02	1.580617E-03
2.947004E+03	7.509783E-02	1.567373E-03
2.986828E+03	7.589187E-02	1.555063E-03
2.996784E+03	7.609874E-02	1.552039E-03
3.006740E+03	7.630773E-02	1.549011E-03
3.016696E+03	7.651880E-02	1.545977E-03
3.026652E+03	7.673070E-02	1.542913E-03
3.036609E+03	7.694432E-02	1.539835E-03
3.046565E+03	7.715956E-02	1.536742E-03
3.056521E+03	7.737552E-02	1.533617E-03
3.066477E+03	7.759169E-02	1.530449E-03
3.076433E+03	7.780762E-02	1.527230E-03
3.086389E+03	7.802220E-02	1.523938E-03
3.096345E+03	7.823539E-02	1.520575E-03
3.106301E+03	7.844619E-02	1.517122E-03
3.116257E+03	7.865462E-02	1.513580E-03
3.126213E+03	7.885978E-02	1.509933E-03
3.136169E+03	7.906141E-02	1.506178E-03
3.146126E+03	7.925944E-02	1.502315E-03
3.156082E+03	7.945301E-02	1.498330E-03
3.166038E+03	7.964201E-02	1.494222E-03
3.175994E+03	7.982605E-02	1.489987E-03
3.185950E+03	8.000508E-02	1.485626E-03
3.195906E+03	8.017826E-02	1.481124E-03
3.205862E+03	8.034581E-02	1.476489E-03
3.215818E+03	8.050683E-02	1.471707E-03
3.225774E+03	8.066051E-02	1.466766E-03
3.235730E+03	8.080611E-02	1.461654E-03
3.245687E+03	8.094241E-02	1.456354E-03
3.255643E+03	8.106660E-02	1.450818E-03
3.265599E+03	8.117756E-02	1.445031E-03
3.275555E+03	8.127489E-02	1.438991E-03
3.285511E+03	8.135755E-02	1.432683E-03
3.295467E+03	8.142298E-02	1.426069E-03
3.305423E+03	8.146659E-02	1.419074E-03
3.315379E+03	8.148251E-02	1.411604E-03
3.325335E+03	8.146129E-02	1.403504E-03
3.335291E+03	8.139322E-02	1.394621E-03
3.345247E+03	8.127000E-02	1.384825E-03
3.355204E+03	8.109256E-02	1.374151E-03
3.365160E+03	8.087533E-02	1.362857E-03
3.375116E+03	8.064202E-02	1.351352E-03
3.385072E+03	8.041513E-02	1.340017E-03
3.395028E+03	8.021346E-02	1.329163E-03
3.404984E+03	8.005119E-02	1.319017E-03
3.414940E+03	7.993577E-02	1.309691E-03
3.424896E+03	7.987093E-02	1.301234E-03
3.434852E+03	7.985498E-02	1.293604E-03
3.444808E+03	7.988590E-02	1.286758E-03
3.454764E+03	7.996534E-02	1.280710E-03
3.464721E+03	8.009556E-02	1.275483E-03
3.474677E+03	8.027347E-02	1.271016E-03
3.484633E+03	8.048980E-02	1.267152E-03
3.494589E+03	8.072871E-02	1.263632E-03
3.504545E+03	8.096941E-02	1.260129E-03
3.514501E+03	8.118686E-02	1.256257E-03
3.524457E+03	8.135648E-02	1.251644E-03
3.534413E+03	8.146101E-02	1.246041E-03
3.544369E+03	8.149423E-02	1.239372E-03
3.554325E+03	8.145852E-02	1.231692E-03
3.564282E+03	8.136488E-02	1.223186E-03
3.574238E+03	8.123544E-02	1.214202E-03
3.584194E+03	8.109135E-02	1.205061E-03
3.594150E+03	8.095130E-02	1.196043E-03
3.604106E+03	8.083357E-02	1.187416E-03
3.614062E+03	8.074823E-02	1.179319E-03
3.624018E+03	8.069623E-02	1.171759E-03
3.633974E+03	8.066696E-02	1.164572E-03
3.643930E+03	8.064091E-02	1.157472E-03
3.653886E+03	8.058883E-02	1.150042E-03
3.663842E+03	8.047900E-02	1.141837E-03
3.673799E+03	8.027664E-02	1.132380E-03
3.683755E+03	7.994570E-02	1.121188E-03
3.693711E+03	7.945598E-02	1.107870E-03
3.703667E+03	7.878408E-02	1.092140E-03
3.713623E+03	7.792475E-02	1.073969E-03
3.723579E+03	7.690049E-02	1.053709E-03
3.733535E+03	7.575083E-02	1.031936E-03
3.743491E+03	7.452808E-02	1.009386E-03
3.753447E+03	7.329875E-02	9.869724E-04
3.763403E+03	7.212974E-02	9.655891E-04
3.773359E+03	7.107608E-02	9.459533E-04
3.783316E+03	7.017623E-02	9.285456E-04
3.793272E+03	6.945145E-02	9.136085E-04
3.803228E+03	6.890670E-02	9.011661E-04
3.813184E+03	6.853074E-02	8.910296E-04
3.823140E+03	6.829805E-02	8.828305E-04
3.833096E+03	6.817513E-02	8.761056E-04
3.843052E+03	6.812453E-02	8.703513E-04
3.853008E+03	6.810537E-02	8.650324E-04
3.862964E+03	6.808091E-02	8.596780E-04
3.872920E+03	6.802540E-02	8.539662E-04
3.882877E+03	6.792011E-02	8.476702E-04
3.892833E+03	6.774999E-02	8.406146E-04
3.902789E+03	6.750792E-02	8.327255E-04
3.912745E+03	6.719341E-02	8.240126E-04
3.922701E+03	6.681708E-02	8.146210E-04
3.932657E+03	6.640202E-02	8.048436E-04
3.942613E+03	6.598118E-02	7.950858E-04
3.952569E+03	6.559031E-02	7.857768E-04
3.962525E+03	6.526199E-02	7.772982E-04
3.972481E+03	6.502127E-02	7.699339E-04
3.982437E+03	6.488254E-02	7.638351E-04
3.992394E+03	6.484204E-02	7.589371E-04
4.002350E+03	6.487935E-02	7.549830E-04
4.012306E+03	6.495932E-02	7.515508E-04
4.022262E+03	6.503515E-02	7.480946E-04
4.032218E+03	6.505143E-02	7.439822E-04
4.042174E+03	6.495403E-02	7.386107E-04
4.052130E+03	6.469726E-02	7.314864E-04
4.062086E+03	6.425018E-02	7.222933E-04
4.072042E+03	6.359909E-02	7.109147E-04
4.081998E+03	6.275445E-02	6.975060E-04
4.091954E+03	6.174340E-02	6.824029E-04
4.101911E+03	6.060363E-02	6.660502E-04
4.111867E+03	5.937920E-02	6.489519E-04
4.121823E+03	5.811735E-02	6.316357E-04
4.131779E+03	5.686543E-02	6.146186E-04
4.141735E+03	5.567061E-02	5.984040E-04
4.151691E+03	5.457695E-02	5.834515E-04
4.161647E+03	5.362485E-02	5.701714E-04
4.171603E+03	5.285116E-02	5.589278E-04
4.181559E+03	5.228625E-02	5.500086E-04
4.191515E+03	5.195009E-02	5.435873E-04
4.201472E+03	5.185516E-02	5.397560E-04
4.211428E+03	5.200009E-02	5.384616E-04
4.221384E+03	5.236647E-02	5.394771E-04
4.231340E+03	5.291953E-02	5.424128E-04
4.241296E+03	5.360835E-02	5.467228E-04
4.251252E+03	5.436827E-02	5.517328E-04
4.261208E+03	5.512808E-02	5.567163E-04
4.271164E+03	5.581792E-02	5.609745E-04
4.281120E+03	5.637889E-02	5.639315E-04
4.291076E+03	5.677818E-02	5.652817E-04
4.301032E+03	5.700320E-02	5.649256E-04
4.310989E+03	5.705572E-02	5.629060E-04
4.320945E+03	5.694775E-02	5.593639E-04
4.330901E+03	5.669566E-02	5.544792E-04
4.340857E+03	5.631954E-02	5.484636E-04
4.350813E+03	5.584444E-02	5.415732E-04
4.360769E+03	5.529474E-02	5.340530E-04
4.370725E+03	5.469393E-02	5.261352E-04
4.380681E+03	5.407008E-02	5.180916E-04
4.390637E+03	5.345216E-02	5.101986E-04
4.400593E+03	5.286619E-02	5.027004E-04
4.410549E+03	5.233515E-02	4.958082E-04
4.420506E+03	5.187659E-02	4.896799E-04
4.430462E+03	5.149841E-02	4.843798E-04
4.440418E+03	5.119991E-02	4.798914E-04
4.450374E+03	5.096969E-02	4.760986E-04
4.460330E+03	5.078887E-02	4.728176E-04
4.470286E+03	5.062902E-02	4.697785E-04
4.480242E+03	5.045947E-02	4.666944E-04
4.490198E+03	5.025416E-02	4.633245E-04
4.500154E+03	4.999948E-02	4.595456E-04
4.510110E+03	4.968888E-02	4.553005E-04
4.520067E+03	4.931641E-02	4.505381E-04
4.530023E+03	4.887338E-02	4.451829E-04
4.539979E+03	4.835328E-02	4.391795E-04
4.549935E+03	4.775280E-02	4.325026E-04
4.559891E+03	4.707604E-02	4.251935E-04
4.569847E+03	4.633240E-02	4.173408E-04
4.579803E+03	4.553481E-02	4.090638E-04
4.589759E+03	4.470136E-02	4.005264E-04
4.599715E+03	4.385260E-02	3.919130E-04
4.609671E+03	4.300814E-02	3.833977E-04
4.619627E+03	4.218888E-02	3.751644E-04
4.629584E+03	4.141674E-02	3.674041E-04
4.639540E+03	4.071386E-02	3.603079E-04
4.649496E+03	4.010273E-02	3.540680E-04
4.659452E+03	3.960680E-02	3.488831E-04
4.669408E+03	3.924824E-02	3.449391E-04
4.679364E+03	3.904656E-02	3.423973E-04
4.689320E+03	3.901931E-02	3.414007E-04
4.699276E+03	3.917832E-02	3.420411E-04
4.709232E+03	3.952905E-02	3.443545E-04
4.719188E+03	4.006936E-02	3.483104E-04
4.729144E+03	4.078771E-02	3.537972E-04
4.739101E+03	4.165945E-02	3.605908E-04
4.749057E+03	4.264536E-02	3.683435E-04
4.759013E+03	4.369580E-02	3.766204E-04
4.768969E+03	4.475047E-02	3.848985E-04
4.778925E+03	4.574528E-02	3.926267E-04
4.788881E+03	4.662044E-02	3.992953E-04
4.798837E+03	4.732964E-02	4.045142E-04
4.808793E+03	4.784231E-02	4.080306E-04
4.818749E+03	4.814462E-02	4.097368E-04
4.828705E+03	4.824102E-02	4.096810E-04
4.838662E+03	4.814943E-02	4.080256E-04
4.848618E+03	4.789825E-02	4.050204E-04
4.858574E+03	4.752143E-02	4.009601E-04
4.868530E+03	4.705483E-02	3.961529E-04
4.878486E+03	4.653207E-02	3.908859E-04
4.888442E+03	4.598309E-02	3.854130E-04
4.898398E+03	4.543039E-02	3.799236E-04
4.908354E+03	4.488709E-02	3.745273E-04
4.918310E+03	4.435421E-02	3.692322E-04
4.928266E+03	4.382711E-02	3.639989E-04
4.938222E+03	4.330216E-02	3.587974E-04
4.948179E+03	4.278178E-02	3.536476E-04
4.958135E+03	4.227309E-02	3.486081E-04
4.968091E+03	4.178446E-02	3.437475E-04
4.978047E+03	4.132565E-02	3.391449E-04
4.988003E+03	4.090447E-02	3.348630E-04
4.997959E+03	4.052734E-02	3.309520E-04
5.007915E+03	4.019763E-02	3.274373E-04
5.017871E+03	3.991407E-02	3.243062E-04
5.027827E+03	3.967212E-02	3.215193E-04
5.037783E+03	3.946370E-02	3.190093E-04
5.047739E+03	3.927943E-02	3.166992E-04
5.057696E+03	3.910934E-02	3.145075E-04
5.067652E+03	3.894510E-02	3.123675E-04
5.077608E+03	3.878062E-02	3.102305E-04
5.087564E+03	3.861184E-02	3.080649E-04
5.097520E+03	3.843485E-02	3.058407E-04
5.107476E+03	3.824939E-02	3.035569E-04
5.117432E+03	3.805800E-02	3.012351E-04
5.127388E+03	3.786466E-02	2.989079E-04
5.137344E+03	3.767432E-02	2.966154E-04
5.147300E+03	3.748931E-02	2.943763E-04
5.157256E+03	3.730732E-02	2.921734E-04
5.167213E+03	3.712252E-02	2.899619E-04
5.177169E+03	3.692981E-02	2.877030E-04
5.187125E+03	3.672711E-02	2.853822E-04
5.197081E+03	3.651585E-02	2.830122E-04
5.207037E+03	3.629894E-02	2.806170E-04
5.216993E+03	3.608003E-02	2.782262E-04
5.226949E+03	3.586391E-02	2.758776E-04
5.236905E+03	3.565495E-02	2.736057E-04
5.246861E+03	3.545304E-02	2.714103E-04
5.256817E+03	3.525614E-02	2.692764E-04
5.266774E+03	3.506412E-02	2.672041E-04
5.276730E+03	3.487734E-02	2.651967E-04
5.286686E+03	3.469757E-02	2.632684E-04
5.296642E+03	3.452551E-02	2.614254E-04
5.306598E+03	3.436113E-02	2.596681E-04
5.316554E+03	3.420327E-02	2.579885E-04
5.326510E+03	3.404682E-02	2.563489E-04
5.336466E+03	3.388321E-02	2.546859E-04
5.346422E+03	3.370090E-02	2.529141E-04
5.356378E+03	3.349268E-02	2.509812E-04
5.366334E+03	3.325728E-02	2.488794E-04
5.376291E+03	3.299778E-02	2.466331E-04
5.386247E+03	3.271986E-02	2.442861E-04
5.396203E+03	3.243454E-02	2.419216E-04
5.406159E+03	3.215350E-02	2.396269E-04
5.416115E+03	3.188758E-02	2.374824E-04
5.426071E+03	3.164356E-02	2.355366E-04
5.436027E+03	3.142748E-02	2.338319E-04
5.445983E+03	3.124012E-02	2.323722E-04
5.455939E+03	3.107567E-02	2.311122E-04
5.465895E+03	3.092730E-02	2.299991E-04
5.475851E+03	3.078832E-02	2.289817E-04
5.485808E+03	3.064562E-02	2.279608E-04
5.495764E+03	3.048806E-02	2.268517E-04
5.505720E+03	3.030867E-02	2.256010E-04
5.515676E+03	3.010110E-02	2.241596E-04
5.525632E+03	2.986144E-02	2.224963E-04
5.535588E+03	2.959228E-02	2.206284E-04
5.545544E+03	2.930079E-02	2.186075E-04
5.555500E+03	2.899874E-02	2.165192E-04
5.565456E+03	2.870014E-02	2.144667E-04
5.575412E+03	2.842228E-02	2.125777E-04
5.585369E+03	2.818092E-02	2.109693E-04
5.595325E+03	2.798719E-02	2.097243E-04
5.605281E+03	2.784490E-02	2.088712E-04
5.615237E+03	2.775121E-02	2.083887E-04
5.625193E+03	2.769840E-02	2.082189E-04
5.635149E+03	2.767606E-02	2.082836E-04
5.645105E+03	2.767187E-02	2.084898E-04
5.655061E+03	2.767454E-02	2.087521E-04
5.665017E+03	2.767600E-02	2.090088E-04
5.674973E+03	2.767352E-02	2.092385E-04
5.684929E+03	2.766929E-02	2.094569E-04
5.694886E+03	2.767302E-02	2.097370E-04
5.704842E+03	2.769838E-02	2.101820E-04
5.714798E+03	2.775810E-02	2.108886E-04
5.724754E+03	2.786034E-02	2.119193E-04
5.734710E+03	2.800856E-02	2.133009E-04
5.744666E+03	2.820187E-02	2.150275E-04
5.754622E+03	2.843238E-02	2.170395E-04
5.764578E+03	2.868656E-02	2.192341E-04
5.774534E+03	2.894682E-02	2.214769E-04
5.784490E+03	2.919323E-02	2.236148E-04
5.794446E+03	2.940337E-02	2.254752E-04
5.804403E+03	2.955848E-02	2.269129E-04
5.814359E+03	2.964866E-02	2.278499E-04
5.824315E+03	2.966830E-02	2.282415E-04
5.834271E+03	2.961818E-02	2.280916E-04
5.844227E+03	2.950743E-02	2.274689E-04
5.854183E+03	2.934713E-02	2.264575E-04
5.864139E+03	2.915011E-02	2.251553E-04
5.874095E+03	2.892919E-02	2.236610E-04
5.884051E+03	2.869574E-02	2.220618E-04
5.894007E+03	2.845635E-02	2.204090E-04
5.903964E+03	2.821571E-02	2.187389E-04
5.913920E+03	2.797342E-02	2.170487E-04
5.923876E+03	2.772719E-02	2.153210E-04
5.933832E+03	2.747319E-02	2.135261E-04
5.943788E+03	2.720764E-02	2.116349E-04
5.953744E+03	2.692755E-02	2.096245E-04
5.963700E+03	2.663530E-02	2.075133E-04
5.973656E+03	2.633511E-02	2.053344E-04
5.983612E+03	2.603257E-02	2.031320E-04
5.993568E+03	2.573540E-02	2.009667E-04
6.003524E+03	2.545030E-02	1.988915E-04
6.013481E+03	2.518106E-02	1.969366E-04
6.023437E+03	2.493000E-02	1.951210E-04
6.033393E+03	2.469586E-02	1.934357E-04
6.043349E+03	2.447224E-02	1.918314E-04
6.053305E+03	2.424961E-02	1.902340E-04
6.063261E+03	2.401691E-02	1.885571E-04
6.073217E+03	2.376666E-02	1.867424E-04
6.083173E+03	2.350171E-02	1.848126E-04
6.093129E+03	2.322845E-02	1.828179E-04
6.103085E+03	2.295430E-02	1.808172E-04
6.113041E+03	2.268521E-02	1.788580E-04
6.122998E+03	2.242586E-02	1.769776E-04
6.132954E+03	2.217617E-02	1.751762E-04
6.142910E+03	2.193180E-02	1.734197E-04
6.152866E+03	2.168470E-02	1.716447E-04
6.162822E+03	2.142732E-02	1.697910E-04
6.172778E+03	2.115236E-02	1.678007E-04
6.182734E+03	2.085545E-02	1.656383E-04
6.192690E+03	2.053925E-02	1.633244E-04
6.202646E+03	2.021543E-02	1.609512E-04
6.212602E+03	1.989906E-02	1.586385E-04
6.222559E+03	1.960441E-02	1.565002E-04
6.232515E+03	1.934515E-02	1.546464E-04
6.242471E+03	1.912995E-02	1.531474E-04
6.252427E+03	1.896167E-02	1.520278E-04
6.262383E+03	1.883848E-02	1.512746E-04
6.272339E+03	1.875376E-02	1.508364E-04
6.282295E+03	1.870002E-02	1.506543E-04
6.292251E+03	1.867376E-02	1.507016E-04
6.302207E+03	1.867459E-02	1.509767E-04
6.312163E+03	1.870478E-02	1.514990E-04
6.322119E+03	1.877571E-02	1.523629E-04
6.332076E+03	1.890203E-02	1.536896E-04
6.342032E+03	1.909754E-02	1.555947E-04
6.351988E+03	1.937756E-02	1.582073E-04
6.361944E+03	1.975187E-02	1.616126E-04
6.371900E+03	2.022182E-02	1.658275E-04
6.381856E+03	2.077773E-02	1.707789E-04
6.391812E+03	2.140009E-02	1.763114E-04
6.401768E+03	2.206222E-02	1.822090E-04
6.411724E+03	2.273530E-02	1.882356E-04
6.421680E+03	2.338986E-02	1.941476E-04
6.431636E+03	2.399814E-02	1.997126E-04
6.441593E+03	2.453592E-02	2.047257E-04
6.451549E+03	2.498470E-02	2.090270E-04
6.461505E+03	2.533693E-02	2.125470E-04
6.471461E+03	2.559533E-02	2.153011E-04
6.481417E+03	2.577205E-02	2.173850E-04
6.491373E+03	2.588349E-02	2.189309E-04
6.501329E+03	2.594298E-02	2.200463E-04
6.511285E+03	2.596329E-02	2.208353E-04
6.521241E+03	2.595402E-02	2.213761E-04
6.531197E+03	2.591332E-02	2.216500E-04
6.541154E+03	2.583741E-02	2.216213E-04
6.551110E+03	2.572538E-02	2.212789E-04
6.561066E+03	2.557480E-02	2.205985E-04
6.571022E+03	2.538628E-02	2.195816E-04
6.580978E+03	2.516318E-02	2.182540E-04
6.590934E+03	2.490816E-02	2.166357E-04
6.600890E+03	2.462521E-02	2.147586E-04
6.610846E+03	2.431992E-02	2.126690E-04
6.620802E+03	2.399710E-02	2.104069E-04
6.630758E+03	2.366388E-02	2.080334E-04
6.640714E+03	2.332566E-02	2.055952E-04
6.650671E+03	2.298755E-02	2.031365E-04
6.660627E+03	2.265384E-02	2.006952E-04
6.670583E+03	2.232872E-02	1.983085E-04
6.680539E+03	2.201678E-02	1.960178E-04
6.690495E+03	2.172123E-02	1.938523E-04
6.700451E+03	2.144465E-02	1.918363E-04
6.710407E+03	2.118848E-02	1.899835E-04
6.720363E+03	2.095145E-02	1.882839E-04
6.730319E+03	2.073205E-02	1.867249E-04
6.740275E+03	2.052759E-02	1.852833E-04
6.750231E+03	2.033357E-02	1.839193E-04
6.760188E+03	2.014623E-02	1.825993E-04
6.770144E+03	1.996288E-02	1.812992E-04
6.780100E+03	1.978157E-02	1.800016E-04
6.790056E+03	1.960096E-02	1.786945E-04
6.800012E+03	1.942293E-02	1.773952E-04
6.809968E+03	1.924829E-02	1.761111E-04
6.819924E+03	1.908010E-02	1.748708E-04
6.829880E+03	1.892191E-02	1.737072E-04
6.839836E+03	1.877713E-02	1.726523E-04
6.849792E+03	1.864864E-02	1.717334E-04
6.859749E+03	1.853860E-02	1.709712E-04
6.869705E+03	1.844889E-02	1.703839E-04
6.879661E+03	1.837881E-02	1.699659E-04
6.889617E+03	1.832586E-02	1.696951E-04
6.899573E+03	1.828547E-02	1.695296E-04
6.909529E+03	1.825294E-02	1.694265E-04
6.919485E+03	1.822349E-02	1.693416E-04
6.929441E+03	1.819315E-02	1.692384E-04
6.939397E+03	1.815950E-02	1.690941E-04
6.949353E+03	1.812183E-02	1.689024E-04
6.959309E+03	1.808063E-02	1.686679E-04
6.969266E+03	1.803809E-02	1.684112E-04
6.979222E+03	1.799647E-02	1.681535E-04
6.989178E+03	1.795763E-02	1.679125E-04
6.999134E+03	1.792464E-02	1.677172E-04
7.009090E+03	1.789884E-02	1.675806E-04
7.019046E+03	1.788186E-02	1.675183E-04
7.029002E+03	1.787361E-02	1.675299E-04
7.038958E+03	1.787325E-02	1.676079E-04
7.048914E+03	1.788006E-02	1.677459E-04
7.058870E+03	1.789136E-02	1.679193E-04
7.068826E+03	1.790448E-02	1.681031E-04
7.078783E+03	1.791587E-02	1.682645E-04
7.088739E+03	1.792259E-02	1.683762E-04
7.098695E+03	1.792169E-02	1.684108E-04
7.108651E+03	1.791091E-02	1.683474E-04
7.118607E+03	1.788935E-02	1.681779E-04
7.128563E+03	1.785756E-02	1.679077E-04
7.138519E+03	1.781705E-02	1.675518E-04
7.148475E+03	1.776917E-02	1.671229E-04
7.158431E+03	1.771665E-02	1.666474E-04
7.168387E+03	1.766116E-02	1.661416E-04
7.178344E+03	1.760288E-02	1.656076E-04
7.188300E+03	1.754197E-02	1.650474E-04
7.198256E+03	1.747754E-02	1.644533E-04
7.208212E+03	1.740870E-02	1.638174E-04
7.218168E+03	1.733643E-02	1.631495E-04
7.228124E+03	1.726146E-02	1.624572E-04
7.238080E+03	1.718462E-02	1.617486E-04
7.248036E+03	1.710623E-02	1.610275E-04
7.257992E+03	1.702570E-02	1.602891E-04
7.267948E+03	1.694306E-02	1.595339E-04
7.277904E+03	1.685831E-02	1.587628E-04
7.287861E+03	1.677098E-02	1.579717E-04
7.297817E+03	1.668036E-02	1.571548E-04
7.307773E+03	1.658522E-02	1.563009E-04
7.317729E+03	1.648540E-02	1.554091E-04
7.327685E+03	1.638011E-02	1.544725E-04
7.337641E+03	1.627077E-02	1.535048E-04
7.347597E+03	1.615897E-02	1.525219E-04
7.357553E+03	1.604738E-02	1.515492E-04
7.367509E+03	1.593821E-02	1.506082E-04
7.377465E+03	1.583365E-02	1.497203E-04
7.387421E+03	1.573683E-02	1.489156E-04
7.397378E+03	1.565002E-02	1.482163E-04
7.407334E+03	1.557430E-02	1.476333E-04
7.417290E+03	1.551085E-02	1.471788E-04
7.427246E+03	1.545949E-02	1.468515E-04
7.437202E+03	1.541814E-02	1.466323E-04
7.447158E+03	1.538370E-02	1.464918E-04
7.457114E+03	1.535059E-02	1.463771E-04
7.467070E+03	1.531227E-02	1.462259E-04
7.477026E+03	1.526502E-02	1.460025E-04
7.486982E+03	1.520670E-02	1.456859E-04
7.496939E+03	1.513869E-02	1.452888E-04
7.506895E+03	1.506361E-02	1.448361E-04
7.516851E+03	1.498412E-02	1.443526E-04
7.526807E+03	1.490115E-02	1.438473E-04
7.536763E+03	1.481683E-02	1.433404E-04
7.546719E+03	1.473121E-02	1.428322E-04
7.556675E+03	1.464530E-02	1.423322E-04
7.566631E+03	1.456052E-02	1.418545E-04
7.576587E+03	1.447844E-02	1.414142E-04
7.586543E+03	1.440151E-02	1.410354E-04
7.596499E+03	1.433318E-02	1.407524E-04
7.606456E+03	1.427607E-02	1.405917E-04
7.616412E+03	1.423258E-02	1.405780E-04
7.626368E+03	1.420378E-02	1.407229E-04
7.636324E+03	1.418786E-02	1.410102E-04
7.646280E+03	1.418118E-02	1.414048E-04
7.656236E+03	1.418032E-02	1.418736E-04
7.666192E+03	1.418035E-02	1.423678E-04
7.676148E+03	1.417682E-02	1.428432E-04
7.686104E+03	1.416685E-02	1.432701E-04
7.696060E+03	1.414705E-02	1.436140E-04
7.706016E+03	1.411593E-02	1.438582E-04
7.715973E+03	1.407232E-02	1.439900E-04
7.725929E+03	1.401618E-02	1.440074E-04
