#wls	flux	fluxerr
1.592975E+03	2.191869E-05	4.300186E-06
1.632799E+03	2.205963E-05	4.314091E-06
1.672624E+03	2.222695E-05	4.332538E-06
1.712448E+03	2.241528E-05	4.354411E-06
1.752272E+03	2.263138E-05	4.380956E-06
1.792097E+03	2.287347E-05	4.411754E-06
1.831921E+03	2.313862E-05	4.446158E-06
1.871746E+03	2.341640E-05	4.482096E-06
1.911570E+03	2.370807E-05	4.519755E-06
1.951394E+03	2.400921E-05	4.558233E-06
1.991219E+03	2.431942E-05	4.597402E-06
2.031043E+03	2.464811E-05	4.638978E-06
2.070867E+03	2.502647E-05	4.688729E-06
2.110692E+03	2.548247E-05	4.751705E-06
2.150516E+03	2.606861E-05	4.837396E-06
2.190341E+03	2.679762E-05	4.947748E-06
2.230165E+03	2.765771E-05	5.080134E-06
2.269989E+03	2.862432E-05	5.229613E-06
2.309814E+03	2.966572E-05	5.390024E-06
2.349638E+03	3.075941E-05	5.556980E-06
2.389462E+03	3.188658E-05	5.726850E-06
2.429287E+03	3.305594E-05	5.900977E-06
2.469111E+03	3.425409E-05	6.076743E-06
2.508936E+03	3.550404E-05	6.257997E-06
2.548760E+03	3.678891E-05	6.441494E-06
2.588584E+03	3.813423E-05	6.631431E-06
2.628409E+03	3.953825E-05	6.827168E-06
2.668233E+03	4.100671E-05	7.029341E-06
2.708057E+03	4.255342E-05	7.239923E-06
2.747882E+03	4.418582E-05	7.459730E-06
2.787706E+03	4.591240E-05	7.689693E-06
2.827531E+03	4.775073E-05	7.932195E-06
2.867355E+03	4.971252E-05	8.188541E-06
2.907179E+03	5.181152E-05	8.460278E-06
2.947004E+03	5.408059E-05	8.751951E-06
2.986828E+03	5.654022E-05	9.065897E-06
2.996784E+03	5.718349E-05	9.147512E-06
3.006740E+03	5.784481E-05	9.231419E-06
3.016696E+03	5.852473E-05	9.317678E-06
3.026652E+03	5.921532E-05	9.405005E-06
3.036609E+03	5.991750E-05	9.493532E-06
3.046565E+03	6.064091E-05	9.584763E-06
3.056521E+03	6.138603E-05	9.678746E-06
3.066477E+03	6.214460E-05	9.774153E-06
3.076433E+03	6.292591E-05	9.872423E-06
3.086389E+03	6.373056E-05	9.973616E-06
3.096345E+03	6.455027E-05	1.007641E-05
3.106301E+03	6.539460E-05	1.018227E-05
3.116257E+03	6.625524E-05	1.028987E-05
3.126213E+03	6.714195E-05	1.040071E-05
3.136169E+03	6.805555E-05	1.051486E-05
3.146126E+03	6.898775E-05	1.063102E-05
3.156082E+03	6.995786E-05	1.075213E-05
3.166038E+03	7.093908E-05	1.087403E-05
3.175994E+03	7.196028E-05	1.100110E-05
3.185950E+03	7.300388E-05	1.113063E-05
3.195906E+03	7.408038E-05	1.126416E-05
3.205862E+03	7.519103E-05	1.140185E-05
3.215818E+03	7.632749E-05	1.154239E-05
3.225774E+03	7.751043E-05	1.168885E-05
3.235730E+03	7.872186E-05	1.183847E-05
3.245687E+03	7.997302E-05	1.199288E-05
3.255643E+03	8.126549E-05	1.215227E-05
3.265599E+03	8.259088E-05	1.231533E-05
3.275555E+03	8.397109E-05	1.248527E-05
3.285511E+03	8.538768E-05	1.265927E-05
3.295467E+03	8.685270E-05	1.283906E-05
3.305423E+03	8.836818E-05	1.302488E-05
3.315379E+03	8.993627E-05	1.321696E-05
3.325335E+03	9.155922E-05	1.341556E-05
3.335291E+03	9.323937E-05	1.362094E-05
3.345247E+03	9.496828E-05	1.383179E-05
3.355204E+03	9.677023E-05	1.405156E-05
3.365160E+03	9.863712E-05	1.427898E-05
3.375116E+03	1.005718E-04	1.451435E-05
3.385072E+03	1.025657E-04	1.475637E-05
3.395028E+03	1.046448E-04	1.500864E-05
3.404984E+03	1.068011E-04	1.526990E-05
3.414940E+03	1.090378E-04	1.554051E-05
3.424896E+03	1.113586E-04	1.582087E-05
3.434852E+03	1.137673E-04	1.611139E-05
3.444808E+03	1.162678E-04	1.641249E-05
3.454764E+03	1.188644E-04	1.672463E-05
3.464721E+03	1.215739E-04	1.705005E-05
3.474677E+03	1.243889E-04	1.738751E-05
3.484633E+03	1.273009E-04	1.773570E-05
3.494589E+03	1.303411E-04	1.809879E-05
3.504545E+03	1.335020E-04	1.847554E-05
3.514501E+03	1.368027E-04	1.886843E-05
3.524457E+03	1.402360E-04	1.927624E-05
3.534413E+03	1.438079E-04	1.969961E-05
3.544369E+03	1.475249E-04	2.013919E-05
3.554325E+03	1.513933E-04	2.059564E-05
3.564282E+03	1.554346E-04	2.107163E-05
3.574238E+03	1.596404E-04	2.156575E-05
3.584194E+03	1.640317E-04	2.208061E-05
3.594150E+03	1.685815E-04	2.261228E-05
3.604106E+03	1.733393E-04	2.316713E-05
3.614062E+03	1.782594E-04	2.373877E-05
3.624018E+03	1.833745E-04	2.433127E-05
3.633974E+03	1.886854E-04	2.494445E-05
3.643930E+03	1.941748E-04	2.557571E-05
3.653886E+03	1.998415E-04	2.622461E-05
3.663842E+03	2.057007E-04	2.689287E-05
3.673799E+03	2.117325E-04	2.757759E-05
3.683755E+03	2.179517E-04	2.828040E-05
3.693711E+03	2.243356E-04	2.899808E-05
3.703667E+03	2.308977E-04	2.973209E-05
3.713623E+03	2.376326E-04	3.048146E-05
3.723579E+03	2.445136E-04	3.124246E-05
3.733535E+03	2.515317E-04	3.201372E-05
3.743491E+03	2.587192E-04	3.279906E-05
3.753447E+03	2.660246E-04	3.359171E-05
3.763403E+03	2.734359E-04	3.438995E-05
3.773359E+03	2.809619E-04	3.519467E-05
3.783316E+03	2.885890E-04	3.600395E-05
3.793272E+03	2.962801E-04	3.681301E-05
3.803228E+03	3.040415E-04	3.762247E-05
3.813184E+03	3.118559E-04	3.843006E-05
3.823140E+03	3.197055E-04	3.923347E-05
3.833096E+03	3.275470E-04	4.002730E-05
3.843052E+03	3.353836E-04	4.081190E-05
3.853008E+03	3.431944E-04	4.158473E-05
3.862964E+03	3.509326E-04	4.234011E-05
3.872920E+03	3.586259E-04	4.308143E-05
3.882877E+03	3.662012E-04	4.379999E-05
3.892833E+03	3.736352E-04	4.449313E-05
3.902789E+03	3.809571E-04	4.516451E-05
3.912745E+03	3.881195E-04	4.580866E-05
3.922701E+03	3.950752E-04	4.642022E-05
3.932657E+03	4.018305E-04	4.700023E-05
3.942613E+03	4.083680E-04	4.754694E-05
3.952569E+03	4.146716E-04	4.805878E-05
3.962525E+03	4.207016E-04	4.853150E-05
3.972481E+03	4.265017E-04	4.897052E-05
3.982437E+03	4.320110E-04	4.936920E-05
3.992394E+03	4.372530E-04	4.973066E-05
4.002350E+03	4.422291E-04	5.005546E-05
4.012306E+03	4.469438E-04	5.034448E-05
4.022262E+03	4.514070E-04	5.059924E-05
4.032218E+03	4.556048E-04	5.081856E-05
4.042174E+03	4.596107E-04	5.101101E-05
4.052130E+03	4.633930E-04	5.117338E-05
4.062086E+03	4.670341E-04	5.131506E-05
4.072042E+03	4.705117E-04	5.143380E-05
4.081998E+03	4.738895E-04	5.153680E-05
4.091954E+03	4.771809E-04	5.162563E-05
4.101911E+03	4.804840E-04	5.171098E-05
4.111867E+03	4.838192E-04	5.179497E-05
4.121823E+03	4.872093E-04	5.187995E-05
4.131779E+03	4.907331E-04	5.197414E-05
4.141735E+03	4.944698E-04	5.208564E-05
4.151691E+03	4.983938E-04	5.221134E-05
4.161647E+03	5.026371E-04	5.236465E-05
4.171603E+03	5.072253E-04	5.254765E-05
4.181559E+03	5.121819E-04	5.276208E-05
4.191515E+03	5.175803E-04	5.301481E-05
4.201472E+03	5.234637E-04	5.330940E-05
4.211428E+03	5.298714E-04	5.364894E-05
4.221384E+03	5.368104E-04	5.403313E-05
4.231340E+03	5.443616E-04	5.446909E-05
4.241296E+03	5.524934E-04	5.495251E-05
4.251252E+03	5.612197E-04	5.548367E-05
4.261208E+03	5.706007E-04	5.606735E-05
4.271164E+03	5.805814E-04	5.669692E-05
4.281120E+03	5.911517E-04	5.737023E-05
4.291076E+03	6.023208E-04	5.808702E-05
4.301032E+03	6.140636E-04	5.884371E-05
4.310989E+03	6.263479E-04	5.963608E-05
4.320945E+03	6.391073E-04	6.045677E-05
4.330901E+03	6.522993E-04	6.130081E-05
4.340857E+03	6.659380E-04	6.216861E-05
4.350813E+03	6.798944E-04	6.304727E-05
4.360769E+03	6.941894E-04	6.393802E-05
4.370725E+03	7.087962E-04	6.483766E-05
4.380681E+03	7.236701E-04	6.574144E-05
4.390637E+03	7.388102E-04	6.664867E-05
4.400593E+03	7.542581E-04	6.756245E-05
4.410549E+03	7.699723E-04	6.847839E-05
4.420506E+03	7.860724E-04	6.940641E-05
4.430462E+03	8.024902E-04	7.033970E-05
4.440418E+03	8.193146E-04	7.128524E-05
4.450374E+03	8.365321E-04	7.224096E-05
4.460330E+03	8.541530E-04	7.320687E-05
4.470286E+03	8.721770E-04	7.418201E-05
4.480242E+03	8.906274E-04	7.516743E-05
4.490198E+03	9.094160E-04	7.615480E-05
4.500154E+03	9.285463E-04	7.714359E-05
4.510110E+03	9.480131E-04	7.813256E-05
4.520067E+03	9.676912E-04	7.911069E-05
4.530023E+03	9.875457E-04	8.007458E-05
4.539979E+03	1.007491E-03	8.101685E-05
4.549935E+03	1.027428E-03	8.192931E-05
4.559891E+03	1.047247E-03	8.280312E-05
4.569847E+03	1.066795E-03	8.362648E-05
4.579803E+03	1.085994E-03	8.439366E-05
4.589759E+03	1.104734E-03	8.509688E-05
4.599715E+03	1.122919E-03	8.572949E-05
4.609671E+03	1.140426E-03	8.628333E-05
4.619627E+03	1.157193E-03	8.675498E-05
4.629584E+03	1.173217E-03	8.714569E-05
4.639540E+03	1.188480E-03	8.745561E-05
4.649496E+03	1.202950E-03	8.768381E-05
4.659452E+03	1.216655E-03	8.783394E-05
4.669408E+03	1.229684E-03	8.791394E-05
4.679364E+03	1.242067E-03	8.792726E-05
4.689320E+03	1.253889E-03	8.788117E-05
4.699276E+03	1.265250E-03	8.778368E-05
4.709232E+03	1.276295E-03	8.764583E-05
4.719188E+03	1.287099E-03	8.747318E-05
4.729144E+03	1.297772E-03	8.727377E-05
4.739101E+03	1.308424E-03	8.705503E-05
4.749057E+03	1.319112E-03	8.682087E-05
4.759013E+03	1.330002E-03	8.658192E-05
4.768969E+03	1.341123E-03	8.633954E-05
4.778925E+03	1.352521E-03	8.609624E-05
4.788881E+03	1.364181E-03	8.585049E-05
4.798837E+03	1.376188E-03	8.560686E-05
4.808793E+03	1.388440E-03	8.535839E-05
4.818749E+03	1.400934E-03	8.510438E-05
4.828705E+03	1.413568E-03	8.483814E-05
4.838662E+03	1.426301E-03	8.455700E-05
4.848618E+03	1.439041E-03	8.425529E-05
4.858574E+03	1.451645E-03	8.392474E-05
4.868530E+03	1.464046E-03	8.356191E-05
4.878486E+03	1.476137E-03	8.316120E-05
4.888442E+03	1.487775E-03	8.271540E-05
4.898398E+03	1.498864E-03	8.222028E-05
4.908354E+03	1.509355E-03	8.167454E-05
4.918310E+03	1.519131E-03	8.107321E-05
4.928266E+03	1.528123E-03	8.041444E-05
4.938222E+03	1.536318E-03	7.969930E-05
4.948179E+03	1.543635E-03	7.892559E-05
4.958135E+03	1.550050E-03	7.809419E-05
4.968091E+03	1.555601E-03	7.720910E-05
4.978047E+03	1.560225E-03	7.626928E-05
4.988003E+03	1.564043E-03	7.528282E-05
4.997959E+03	1.567079E-03	7.425282E-05
5.007915E+03	1.569421E-03	7.318533E-05
5.017871E+03	1.571223E-03	7.208907E-05
5.027827E+03	1.572539E-03	7.096793E-05
5.037783E+03	1.573563E-03	6.983184E-05
5.047739E+03	1.574468E-03	6.868915E-05
5.057696E+03	1.575439E-03	6.754831E-05
5.067652E+03	1.576710E-03	6.641921E-05
5.077608E+03	1.578401E-03	6.530646E-05
5.087564E+03	1.580747E-03	6.421887E-05
5.097520E+03	1.583934E-03	6.316270E-05
5.107476E+03	1.588092E-03	6.214136E-05
5.117432E+03	1.593434E-03	6.116126E-05
5.127388E+03	1.599988E-03	6.022112E-05
5.137344E+03	1.607891E-03	5.932365E-05
5.147300E+03	1.617087E-03	5.846425E-05
5.157256E+03	1.627552E-03	5.763964E-05
5.167213E+03	1.639299E-03	5.684795E-05
5.177169E+03	1.652156E-03	5.608108E-05
5.187125E+03	1.666041E-03	5.533443E-05
5.197081E+03	1.680815E-03	5.460192E-05
5.207037E+03	1.696293E-03	5.387647E-05
5.216993E+03	1.712365E-03	5.315394E-05
5.226949E+03	1.728887E-03	5.242952E-05
5.236905E+03	1.745718E-03	5.169906E-05
5.246861E+03	1.762685E-03	5.095796E-05
5.256817E+03	1.779663E-03	5.020357E-05
5.266774E+03	1.796578E-03	4.943506E-05
5.276730E+03	1.813330E-03	4.865127E-05
5.286686E+03	1.829798E-03	4.785083E-05
5.296642E+03	1.845958E-03	4.703535E-05
5.306598E+03	1.861766E-03	4.620610E-05
5.316554E+03	1.877159E-03	4.536416E-05
5.326510E+03	1.892128E-03	4.451222E-05
5.336466E+03	1.906723E-03	4.365444E-05
5.346422E+03	1.920960E-03	4.279432E-05
5.356378E+03	1.934820E-03	4.193473E-05
5.366334E+03	1.948324E-03	4.107961E-05
5.376291E+03	1.961526E-03	4.023377E-05
5.386247E+03	1.974390E-03	3.940026E-05
5.396203E+03	1.986944E-03	3.858373E-05
5.406159E+03	1.999122E-03	3.778716E-05
5.416115E+03	2.010884E-03	3.701439E-05
5.426071E+03	2.022218E-03	3.626999E-05
5.436027E+03	2.033047E-03	3.555762E-05
5.445983E+03	2.043188E-03	3.487937E-05
5.455939E+03	2.052604E-03	3.424008E-05
5.465895E+03	2.061166E-03	3.364314E-05
5.475851E+03	2.068646E-03	3.309035E-05
5.485808E+03	2.074956E-03	3.258574E-05
5.495764E+03	2.079883E-03	3.213108E-05
5.505720E+03	2.083315E-03	3.172925E-05
5.515676E+03	2.085077E-03	3.138158E-05
5.525632E+03	2.085065E-03	3.108960E-05
5.535588E+03	2.083228E-03	3.085314E-05
5.545544E+03	2.079579E-03	3.066960E-05
5.555500E+03	2.074243E-03	3.053682E-05
5.565456E+03	2.067333E-03	3.045155E-05
5.575412E+03	2.059058E-03	3.041130E-05
5.585369E+03	2.049670E-03	3.041378E-05
5.595325E+03	2.039452E-03	3.045686E-05
5.605281E+03	2.028701E-03	3.053863E-05
5.615237E+03	2.017762E-03	3.065809E-05
5.625193E+03	2.006869E-03	3.081287E-05
5.635149E+03	1.996414E-03	3.100349E-05
5.645105E+03	1.986652E-03	3.122890E-05
5.655061E+03	1.978008E-03	3.149136E-05
5.665017E+03	1.970830E-03	3.179262E-05
5.674973E+03	1.965502E-03	3.213578E-05
5.684929E+03	1.962567E-03	3.252722E-05
5.694886E+03	1.962462E-03	3.297250E-05
5.704842E+03	1.965806E-03	3.348097E-05
5.714798E+03	1.973095E-03	3.406071E-05
5.724754E+03	1.984937E-03	3.472247E-05
5.734710E+03	2.001927E-03	3.547748E-05
5.744666E+03	2.024513E-03	3.633502E-05
5.754622E+03	2.053160E-03	3.730506E-05
5.764578E+03	2.088328E-03	3.839786E-05
5.774534E+03	2.130214E-03	3.961908E-05
5.784490E+03	2.179030E-03	4.097467E-05
5.794446E+03	2.234657E-03	4.246420E-05
5.804403E+03	2.296838E-03	4.408426E-05
5.814359E+03	2.365148E-03	4.582765E-05
5.824315E+03	2.438694E-03	4.767743E-05
5.834271E+03	2.516372E-03	4.961158E-05
5.844227E+03	2.596627E-03	5.159811E-05
5.854183E+03	2.677636E-03	5.359859E-05
5.864139E+03	2.757219E-03	5.556618E-05
5.874095E+03	2.832925E-03	5.744744E-05
5.884051E+03	2.902339E-03	5.918864E-05
5.894007E+03	2.963138E-03	6.073722E-05
5.903964E+03	3.013288E-03	6.204617E-05
5.913920E+03	3.051369E-03	6.308103E-05
5.923876E+03	3.076458E-03	6.381812E-05
5.933832E+03	3.088402E-03	6.425036E-05
5.943788E+03	3.087581E-03	6.438274E-05
5.953744E+03	3.075053E-03	6.423542E-05
5.963700E+03	3.052225E-03	6.383693E-05
5.973656E+03	3.020938E-03	6.322578E-05
5.983612E+03	2.983098E-03	6.244269E-05
5.993568E+03	2.940766E-03	6.153214E-05
6.003524E+03	2.895831E-03	6.053536E-05
6.013481E+03	2.850086E-03	5.949173E-05
6.023437E+03	2.805165E-03	5.843719E-05
6.033393E+03	2.762400E-03	5.740118E-05
6.043349E+03	2.722804E-03	5.640617E-05
6.053305E+03	2.687162E-03	5.546949E-05
6.063261E+03	2.656025E-03	5.460328E-05
6.073217E+03	2.629581E-03	5.381176E-05
6.083173E+03	2.607808E-03	5.309461E-05
6.093129E+03	2.590490E-03	5.244737E-05
6.103085E+03	2.577158E-03	5.186030E-05
6.113041E+03	2.567063E-03	5.131818E-05
6.122998E+03	2.559495E-03	5.080680E-05
6.132954E+03	2.553550E-03	5.030844E-05
6.142910E+03	2.548223E-03	4.980392E-05
6.152866E+03	2.542545E-03	4.927541E-05
6.162822E+03	2.535636E-03	4.870755E-05
6.172778E+03	2.526642E-03	4.808612E-05
6.182734E+03	2.514940E-03	4.740208E-05
6.192690E+03	2.499961E-03	4.664797E-05
6.202646E+03	2.481347E-03	4.582087E-05
6.212602E+03	2.458781E-03	4.491899E-05
6.222559E+03	2.432156E-03	4.394482E-05
6.232515E+03	2.401413E-03	4.290183E-05
6.242471E+03	2.366670E-03	4.179681E-05
6.252427E+03	2.328228E-03	4.063972E-05
6.262383E+03	2.286490E-03	3.944201E-05
6.272339E+03	2.241959E-03	3.821649E-05
6.282295E+03	2.195341E-03	3.697895E-05
6.292251E+03	2.147374E-03	3.574503E-05
6.302207E+03	2.098964E-03	3.453242E-05
6.312163E+03	2.051042E-03	3.335840E-05
6.322119E+03	2.004551E-03	3.223964E-05
6.332076E+03	1.960528E-03	3.119351E-05
6.342032E+03	1.919983E-03	3.023619E-05
6.351988E+03	1.883893E-03	2.938272E-05
6.361944E+03	1.853300E-03	2.864867E-05
6.371900E+03	1.829229E-03	2.804898E-05
6.381856E+03	1.812731E-03	2.759886E-05
6.391812E+03	1.804880E-03	2.731391E-05
6.401768E+03	1.806916E-03	2.721260E-05
6.411724E+03	1.820060E-03	2.731364E-05
6.421680E+03	1.845754E-03	2.763994E-05
6.431636E+03	1.885553E-03	2.821742E-05
6.441593E+03	1.941180E-03	2.907580E-05
6.451549E+03	2.014533E-03	3.024725E-05
6.461505E+03	2.107679E-03	3.176767E-05
6.471461E+03	2.222802E-03	3.367709E-05
6.481417E+03	2.362090E-03	3.601820E-05
6.491373E+03	2.527482E-03	3.883264E-05
6.501329E+03	2.720109E-03	4.215220E-05
6.511285E+03	2.938934E-03	4.597699E-05
6.521241E+03	3.180112E-03	5.026334E-05
6.531197E+03	3.436521E-03	5.491344E-05
6.541154E+03	3.698142E-03	5.977770E-05
6.551110E+03	3.952559E-03	6.465919E-05
6.561066E+03	4.185695E-03	6.932240E-05
6.571022E+03	4.383934E-03	7.352627E-05
6.580978E+03	4.535227E-03	7.704278E-05
6.590934E+03	4.631613E-03	7.970180E-05
6.600890E+03	4.669473E-03	8.140005E-05
6.610846E+03	4.649880E-03	8.211265E-05
6.620802E+03	4.577688E-03	8.188268E-05
6.630758E+03	4.460424E-03	8.080596E-05
6.640714E+03	4.307255E-03	7.901570E-05
6.650671E+03	4.127872E-03	7.666402E-05
6.660627E+03	3.931515E-03	7.390426E-05
6.670583E+03	3.726509E-03	7.088169E-05
6.680539E+03	3.519876E-03	6.772486E-05
6.690495E+03	3.317397E-03	6.454512E-05
6.700451E+03	3.123362E-03	6.143009E-05
6.710407E+03	2.940968E-03	5.844961E-05
6.720363E+03	2.772078E-03	5.564971E-05
6.730319E+03	2.617807E-03	5.306263E-05
6.740275E+03	2.478486E-03	5.070541E-05
6.750231E+03	2.353907E-03	4.858394E-05
6.760188E+03	2.243489E-03	4.669588E-05
6.770144E+03	2.146404E-03	4.503291E-05
6.780100E+03	2.061638E-03	4.358181E-05
6.790056E+03	1.988215E-03	4.232905E-05
6.800012E+03	1.925020E-03	4.125722E-05
6.809968E+03	1.871006E-03	4.034916E-05
6.819924E+03	1.825184E-03	3.958815E-05
6.829880E+03	1.786651E-03	3.895837E-05
6.839836E+03	1.754589E-03	3.844521E-05
6.849792E+03	1.728273E-03	3.803533E-05
6.859749E+03	1.707092E-03	3.771740E-05
6.869705E+03	1.690449E-03	3.747994E-05
6.879661E+03	1.677860E-03	3.731348E-05
6.889617E+03	1.668907E-03	3.720976E-05
6.899573E+03	1.663233E-03	3.716156E-05
6.909529E+03	1.660566E-03	3.716329E-05
6.919485E+03	1.660607E-03	3.720860E-05
6.929441E+03	1.663147E-03	3.729296E-05
6.939397E+03	1.667924E-03	3.741050E-05
6.949353E+03	1.674706E-03	3.755589E-05
6.959309E+03	1.683247E-03	3.772338E-05
6.969266E+03	1.693312E-03	3.790743E-05
6.979222E+03	1.704613E-03	3.810121E-05
6.989178E+03	1.716807E-03	3.829672E-05
6.999134E+03	1.729575E-03	3.848647E-05
7.009090E+03	1.742631E-03	3.866376E-05
7.019046E+03	1.755644E-03	3.882098E-05
7.029002E+03	1.768386E-03	3.895292E-05
7.038958E+03	1.780617E-03	3.905425E-05
7.048914E+03	1.792235E-03	3.912280E-05
7.058870E+03	1.803189E-03	3.915755E-05
7.068826E+03	1.813479E-03	3.915876E-05
7.078783E+03	1.823224E-03	3.912930E-05
7.088739E+03	1.832656E-03	3.907444E-05
7.098695E+03	1.842032E-03	3.899994E-05
7.108651E+03	1.851615E-03	3.891154E-05
7.118607E+03	1.861754E-03	3.881670E-05
7.128563E+03	1.872755E-03	3.872177E-05
7.138519E+03	1.884858E-03	3.863154E-05
7.148475E+03	1.898322E-03	3.855106E-05
7.158431E+03	1.913303E-03	3.848309E-05
7.168387E+03	1.929829E-03	3.842774E-05
7.178344E+03	1.947900E-03	3.838459E-05
7.188300E+03	1.967365E-03	3.835028E-05
7.198256E+03	1.987910E-03	3.831847E-05
7.208212E+03	2.009169E-03	3.828223E-05
7.218168E+03	2.030620E-03	3.823203E-05
7.228124E+03	2.051586E-03	3.815609E-05
7.238080E+03	2.071381E-03	3.804320E-05
7.248036E+03	2.089217E-03	3.788107E-05
7.257992E+03	2.104278E-03	3.765783E-05
7.267948E+03	2.115720E-03	3.736202E-05
7.277904E+03	2.122886E-03	3.698640E-05
7.287861E+03	2.125057E-03	3.652338E-05
7.297817E+03	2.121750E-03	3.597015E-05
7.307773E+03	2.112755E-03	3.532895E-05
7.317729E+03	2.097902E-03	3.460283E-05
7.327685E+03	2.077359E-03	3.380047E-05
7.337641E+03	2.051458E-03	3.293284E-05
7.347597E+03	2.020703E-03	3.201315E-05
7.357553E+03	1.985688E-03	3.105536E-05
7.367509E+03	1.947183E-03	3.007532E-05
7.377465E+03	1.905957E-03	2.908796E-05
7.387421E+03	1.862786E-03	2.810742E-05
7.397378E+03	1.818417E-03	2.714652E-05
7.407334E+03	1.773505E-03	2.621588E-05
7.417290E+03	1.728739E-03	2.532595E-05
7.427246E+03	1.684574E-03	2.448310E-05
7.437202E+03	1.641484E-03	2.369356E-05
7.447158E+03	1.599829E-03	2.296142E-05
7.457114E+03	1.559869E-03	2.228764E-05
7.467070E+03	1.521924E-03	2.167283E-05
7.477026E+03	1.486179E-03	2.111578E-05
7.486982E+03	1.452929E-03	2.061707E-05
7.496939E+03	1.422444E-03	2.017725E-05
7.506895E+03	1.394996E-03	1.979714E-05
7.516851E+03	1.370823E-03	1.947751E-05
7.526807E+03	1.350089E-03	1.921836E-05
7.536763E+03	1.332985E-03	1.902043E-05
7.546719E+03	1.319522E-03	1.888221E-05
7.556675E+03	1.309738E-03	1.880286E-05
7.566631E+03	1.303585E-03	1.878051E-05
7.576587E+03	1.300960E-03	1.881274E-05
7.586543E+03	1.301712E-03	1.889654E-05
7.596499E+03	1.305617E-03	1.902792E-05
7.606456E+03	1.312493E-03	1.920361E-05
7.616412E+03	1.322005E-03	1.941809E-05
7.626368E+03	1.333871E-03	1.966662E-05
7.636324E+03	1.347747E-03	1.994353E-05
7.646280E+03	1.363264E-03	2.024273E-05
7.656236E+03	1.380031E-03	2.055779E-05
7.666192E+03	1.397646E-03	2.088207E-05
7.676148E+03	1.415675E-03	2.120843E-05
7.686104E+03	1.433788E-03	2.153131E-05
7.696060E+03	1.451554E-03	2.184367E-05
7.706016E+03	1.468674E-03	2.214049E-05
7.715973E+03	1.484894E-03	2.241751E-05
7.725929E+03	1.499911E-03	2.266988E-05
