#wls	flux	fluxerr
1.591691E+03	3.885664E-06	9.000313E-08
1.631484E+03	3.832041E-06	8.865173E-08
1.671276E+03	3.775274E-06	8.722778E-08
1.711068E+03	3.714236E-06	8.570559E-08
1.750861E+03	3.650460E-06	8.412096E-08
1.790653E+03	3.581550E-06	8.241909E-08
1.830445E+03	3.507514E-06	8.060076E-08
1.870237E+03	3.425391E-06	7.859863E-08
1.910030E+03	3.333722E-06	7.638027E-08
1.949822E+03	3.233147E-06	7.396147E-08
1.989614E+03	3.125451E-06	7.138419E-08
2.029406E+03	3.015980E-06	6.877128E-08
2.069199E+03	2.918428E-06	6.643499E-08
2.108991E+03	2.848474E-06	6.473045E-08
2.148783E+03	2.820468E-06	6.398007E-08
2.188576E+03	2.840930E-06	6.432643E-08
2.228368E+03	2.901238E-06	6.556849E-08
2.268160E+03	2.988708E-06	6.741480E-08
2.307952E+03	3.092201E-06	6.961067E-08
2.347745E+03	3.202541E-06	7.194736E-08
2.387537E+03	3.317957E-06	7.438376E-08
2.427329E+03	3.434381E-06	7.682764E-08
2.467122E+03	3.556094E-06	7.937392E-08
2.506914E+03	3.682793E-06	8.201451E-08
2.546706E+03	3.816817E-06	8.480002E-08
2.586498E+03	3.963220E-06	8.784071E-08
2.626291E+03	4.122424E-06	9.114322E-08
2.666083E+03	4.297394E-06	9.477008E-08
2.705875E+03	4.494056E-06	9.884815E-08
2.745668E+03	4.713449E-06	1.033955E-07
2.785460E+03	4.959591E-06	1.084949E-07
2.825252E+03	5.240107E-06	1.143067E-07
2.865044E+03	5.557485E-06	1.208772E-07
2.904837E+03	5.919531E-06	1.283670E-07
2.944629E+03	6.331849E-06	1.368868E-07
2.984421E+03	6.806509E-06	1.466844E-07
2.994369E+03	6.934532E-06	1.493235E-07
3.004317E+03	7.068931E-06	1.520946E-07
3.014266E+03	7.205993E-06	1.549175E-07
3.024214E+03	7.349911E-06	1.578822E-07
3.034162E+03	7.497073E-06	1.609106E-07
3.044110E+03	7.652006E-06	1.640998E-07
3.054058E+03	7.812834E-06	1.674089E-07
3.064006E+03	7.977545E-06	1.707945E-07
3.073954E+03	8.150612E-06	1.743521E-07
3.083902E+03	8.330090E-06	1.780396E-07
3.093850E+03	8.516171E-06	1.818607E-07
3.103798E+03	8.709056E-06	1.858191E-07
3.113746E+03	8.908954E-06	1.899191E-07
3.123694E+03	9.116099E-06	1.941650E-07
3.133642E+03	9.330714E-06	1.985611E-07
3.143590E+03	9.553052E-06	2.031124E-07
3.153539E+03	9.783362E-06	2.078236E-07
3.163487E+03	1.002456E-05	2.127559E-07
3.173435E+03	1.027167E-05	2.178035E-07
3.183383E+03	1.052758E-05	2.230268E-07
3.193331E+03	1.079541E-05	2.284913E-07
3.203279E+03	1.106987E-05	2.340843E-07
3.213227E+03	1.135403E-05	2.398705E-07
3.223175E+03	1.165125E-05	2.459197E-07
3.233123E+03	1.195897E-05	2.521772E-07
3.243071E+03	1.227435E-05	2.585828E-07
3.253019E+03	1.260404E-05	2.652752E-07
3.262967E+03	1.294527E-05	2.721959E-07
3.272915E+03	1.329503E-05	2.792804E-07
3.282863E+03	1.366041E-05	2.866769E-07
3.292812E+03	1.403847E-05	2.943228E-07
3.302760E+03	1.442960E-05	3.022252E-07
3.312708E+03	1.483419E-05	3.103914E-07
3.322656E+03	1.525264E-05	3.188288E-07
3.332604E+03	1.568534E-05	3.275446E-07
3.342552E+03	1.613271E-05	3.365463E-07
3.352500E+03	1.659514E-05	3.458411E-07
3.362448E+03	1.707304E-05	3.554362E-07
3.372396E+03	1.756680E-05	3.653390E-07
3.382344E+03	1.808131E-05	3.756494E-07
3.392292E+03	1.860812E-05	3.861908E-07
3.402240E+03	1.915199E-05	3.970606E-07
3.412188E+03	1.971812E-05	4.083656E-07
3.422136E+03	2.029735E-05	4.199143E-07
3.432085E+03	2.089476E-05	4.318106E-07
3.442033E+03	2.151590E-05	4.441678E-07
3.451981E+03	2.215616E-05	4.568890E-07
3.461929E+03	2.281035E-05	4.698657E-07
3.471877E+03	2.348965E-05	4.833268E-07
3.481825E+03	2.418897E-05	4.971655E-07
3.491773E+03	2.490259E-05	5.112632E-07
3.501721E+03	2.564251E-05	5.258643E-07
3.511669E+03	2.640310E-05	5.408516E-07
3.521617E+03	2.718452E-05	5.562267E-07
3.531565E+03	2.798690E-05	5.719904E-07
3.541513E+03	2.881032E-05	5.881424E-07
3.551461E+03	2.965481E-05	6.046818E-07
3.561409E+03	3.052036E-05	6.216066E-07
3.571358E+03	3.140693E-05	6.389139E-07
3.581306E+03	3.231442E-05	6.565998E-07
3.591254E+03	3.324265E-05	6.746592E-07
3.601202E+03	3.419936E-05	6.932468E-07
3.611150E+03	3.516866E-05	7.120385E-07
3.621098E+03	3.615793E-05	7.311822E-07
3.631046E+03	3.717532E-05	7.508407E-07
3.640994E+03	3.820362E-05	7.706643E-07
3.650942E+03	3.925067E-05	7.908100E-07
3.660890E+03	4.032504E-05	8.114482E-07
3.670838E+03	4.140814E-05	8.322029E-07
3.680786E+03	4.251786E-05	8.534322E-07
3.690734E+03	4.364442E-05	8.749373E-07
3.700682E+03	4.477706E-05	8.965013E-07
3.710631E+03	4.593501E-05	9.185077E-07
3.720579E+03	4.710772E-05	9.407435E-07
3.730527E+03	4.829450E-05	9.631932E-07
3.740475E+03	4.948364E-05	9.856220E-07
3.750423E+03	5.069617E-05	1.008448E-06
3.760371E+03	5.192077E-05	1.031443E-06
3.770319E+03	5.315682E-05	1.054594E-06
3.780267E+03	5.440383E-05	1.077890E-06
3.790215E+03	5.566140E-05	1.101322E-06
3.800163E+03	5.692927E-05	1.124882E-06
3.810111E+03	5.820730E-05	1.148568E-06
3.820059E+03	5.949550E-05	1.172377E-06
3.830007E+03	6.079417E-05	1.196315E-06
3.839955E+03	6.211708E-05	1.220650E-06
3.849904E+03	6.343856E-05	1.244876E-06
3.859852E+03	6.477274E-05	1.269270E-06
3.869800E+03	6.612092E-05	1.293856E-06
3.879748E+03	6.749923E-05	1.318947E-06
3.889696E+03	6.888131E-05	1.344026E-06
3.899644E+03	7.029859E-05	1.369704E-06
3.909592E+03	7.172475E-05	1.395465E-06
3.919540E+03	7.317774E-05	1.421658E-06
3.929488E+03	7.467729E-05	1.448661E-06
3.939436E+03	7.621282E-05	1.476265E-06
3.949384E+03	7.777338E-05	1.504255E-06
3.959332E+03	7.939681E-05	1.533359E-06
3.969280E+03	8.105688E-05	1.563065E-06
3.979228E+03	8.279393E-05	1.594146E-06
3.989176E+03	8.459932E-05	1.626428E-06
3.999125E+03	8.646384E-05	1.659728E-06
4.009073E+03	8.843182E-05	1.694889E-06
4.019021E+03	9.049598E-05	1.731762E-06
4.028969E+03	9.266708E-05	1.770543E-06
4.038917E+03	9.495668E-05	1.811442E-06
4.048865E+03	9.735756E-05	1.854311E-06
4.058813E+03	9.992165E-05	1.900126E-06
4.068761E+03	1.026437E-04	1.948771E-06
4.078709E+03	1.055383E-04	2.000507E-06
4.088657E+03	1.086210E-04	2.055610E-06
4.098605E+03	1.119077E-04	2.114366E-06
4.108553E+03	1.154151E-04	2.177066E-06
4.118501E+03	1.191605E-04	2.244016E-06
4.128449E+03	1.231614E-04	2.315520E-06
4.138398E+03	1.274357E-04	2.391889E-06
4.148346E+03	1.320272E-04	2.473917E-06
4.158294E+03	1.369030E-04	2.560956E-06
4.168242E+03	1.421056E-04	2.653772E-06
4.178190E+03	1.476520E-04	2.752646E-06
4.188138E+03	1.535580E-04	2.857841E-06
4.198086E+03	1.598384E-04	2.969591E-06
4.208034E+03	1.665382E-04	3.088696E-06
4.217982E+03	1.736056E-04	3.214151E-06
4.227930E+03	1.810799E-04	3.346645E-06
4.237878E+03	1.889669E-04	3.486241E-06
4.247826E+03	1.973065E-04	3.633633E-06
4.257774E+03	2.060245E-04	3.787407E-06
4.267722E+03	2.151524E-04	3.948102E-06
4.277671E+03	2.247245E-04	4.116300E-06
4.287619E+03	2.346464E-04	4.290228E-06
4.297567E+03	2.449440E-04	4.470322E-06
4.307515E+03	2.556480E-04	4.657096E-06
4.317463E+03	2.666457E-04	4.848458E-06
4.327411E+03	2.780147E-04	5.045784E-06
4.337359E+03	2.896342E-04	5.246840E-06
4.347307E+03	3.015355E-04	5.452165E-06
4.357255E+03	3.137606E-04	5.662483E-06
4.367203E+03	3.261831E-04	5.875479E-06
4.377151E+03	3.388911E-04	6.092711E-06
4.387099E+03	3.517146E-04	6.311098E-06
4.397047E+03	3.647321E-04	6.532025E-06
4.406995E+03	3.777661E-04	6.752297E-06
4.416944E+03	3.908361E-04	6.972254E-06
4.426892E+03	4.039729E-04	7.192437E-06
4.436840E+03	4.169939E-04	7.409589E-06
4.446788E+03	4.300101E-04	7.625687E-06
4.456736E+03	4.428361E-04	7.837444E-06
4.466684E+03	4.555961E-04	8.047072E-06
4.476632E+03	4.680990E-04	8.251202E-06
4.486580E+03	4.804809E-04	8.452254E-06
4.496528E+03	4.925435E-04	8.646755E-06
4.506476E+03	5.044301E-04	8.837247E-06
4.516424E+03	5.159350E-04	9.020145E-06
4.526372E+03	5.272059E-04	9.198068E-06
4.536320E+03	5.380278E-04	9.367294E-06
4.546268E+03	5.485532E-04	9.530516E-06
4.556217E+03	5.585565E-04	9.683853E-06
4.566165E+03	5.680953E-04	9.828357E-06
4.576113E+03	5.772328E-04	9.965165E-06
4.586061E+03	5.857318E-04	1.009024E-05
4.596009E+03	5.937566E-04	1.020646E-05
4.605957E+03	6.010662E-04	1.030975E-05
4.615905E+03	6.077270E-04	1.040133E-05
4.625853E+03	6.138118E-04	1.048250E-05
4.635801E+03	6.190809E-04	1.054925E-05
4.645749E+03	6.237192E-04	1.060482E-05
4.655697E+03	6.274931E-04	1.064530E-05
4.665645E+03	6.304916E-04	1.067230E-05
4.675593E+03	6.327033E-04	1.068572E-05
4.685541E+03	6.342292E-04	1.068735E-05
4.695490E+03	6.348551E-04	1.067366E-05
4.705438E+03	6.346943E-04	1.064666E-05
4.715386E+03	6.337581E-04	1.060663E-05
4.725334E+03	6.321689E-04	1.055570E-05
4.735282E+03	6.297389E-04	1.049083E-05
4.745230E+03	6.266016E-04	1.041432E-05
4.755178E+03	6.227894E-04	1.032681E-05
4.765126E+03	6.183390E-04	1.022897E-05
4.775074E+03	6.132902E-04	1.012154E-05
4.785022E+03	6.076871E-04	1.000532E-05
4.794970E+03	6.015749E-04	9.881116E-06
4.804918E+03	5.950986E-04	9.751370E-06
4.814866E+03	5.881121E-04	9.613740E-06
4.824814E+03	5.806691E-04	9.469160E-06
4.834763E+03	5.730104E-04	9.321609E-06
4.844711E+03	5.650912E-04	9.170385E-06
4.854659E+03	5.569610E-04	9.016323E-06
4.864607E+03	5.486692E-04	8.860252E-06
4.874555E+03	5.402637E-04	8.702965E-06
4.884503E+03	5.317920E-04	8.545239E-06
4.894451E+03	5.232158E-04	8.386474E-06
4.904399E+03	5.147475E-04	8.230080E-06
4.914347E+03	5.063439E-04	8.075357E-06
4.924295E+03	4.979660E-04	7.921683E-06
4.934243E+03	4.898110E-04	7.772184E-06
4.944191E+03	4.817586E-04	7.624933E-06
4.954139E+03	4.739963E-04	7.482879E-06
4.964087E+03	4.664049E-04	7.344112E-06
4.974036E+03	4.591627E-04	7.211416E-06
4.983984E+03	4.521516E-04	7.082900E-06
4.993932E+03	4.455409E-04	6.961181E-06
5.003880E+03	4.392141E-04	6.844402E-06
5.013828E+03	4.332635E-04	6.733960E-06
5.023776E+03	4.277101E-04	6.630138E-06
5.033724E+03	4.225722E-04	6.533173E-06
5.043672E+03	4.179316E-04	6.444275E-06
5.053620E+03	4.136741E-04	6.361630E-06
5.063568E+03	4.098788E-04	6.286406E-06
5.073516E+03	4.065592E-04	6.218752E-06
5.083464E+03	4.036644E-04	6.157837E-06
5.093412E+03	4.013300E-04	6.105669E-06
5.103360E+03	3.995022E-04	6.061368E-06
5.113309E+03	3.981903E-04	6.025010E-06
5.123257E+03	3.974013E-04	5.996640E-06
5.133205E+03	3.970825E-04	5.975400E-06
5.143153E+03	3.973607E-04	5.963137E-06
5.153101E+03	3.981200E-04	5.958043E-06
5.163049E+03	3.994866E-04	5.961943E-06
5.172997E+03	4.013439E-04	5.973027E-06
5.182945E+03	4.038161E-04	5.993079E-06
5.192893E+03	4.067859E-04	6.020287E-06
5.202841E+03	4.103157E-04	6.055512E-06
5.212789E+03	4.144084E-04	6.098730E-06
5.222737E+03	4.191275E-04	6.150802E-06
5.232685E+03	4.243497E-04	6.209848E-06
5.242633E+03	4.301376E-04	6.276721E-06
5.252582E+03	4.364902E-04	6.351337E-06
5.262530E+03	4.433411E-04	6.432666E-06
5.272478E+03	4.508170E-04	6.522481E-06
5.282426E+03	4.588506E-04	6.619735E-06
5.292374E+03	4.674356E-04	6.724271E-06
5.302322E+03	4.764957E-04	6.834931E-06
5.312270E+03	4.861600E-04	6.953502E-06
5.322218E+03	4.962752E-04	7.077730E-06
5.332166E+03	5.069714E-04	7.209412E-06
5.342114E+03	5.180836E-04	7.346138E-06
5.352062E+03	5.296633E-04	7.488593E-06
5.362010E+03	5.416852E-04	7.636364E-06
5.371958E+03	5.541195E-04	7.788984E-06
5.381906E+03	5.669314E-04	7.945921E-06
5.391855E+03	5.800817E-04	8.106586E-06
5.401803E+03	5.935257E-04	8.270319E-06
5.411751E+03	6.072136E-04	8.436402E-06
5.421699E+03	6.210914E-04	8.604062E-06
5.431647E+03	6.351000E-04	8.772468E-06
5.441595E+03	6.490855E-04	8.939492E-06
5.451543E+03	6.631684E-04	9.106798E-06
5.461491E+03	6.770988E-04	9.270962E-06
5.471439E+03	6.909110E-04	9.432481E-06
5.481387E+03	7.046569E-04	9.592083E-06
5.491335E+03	7.180963E-04	9.746526E-06
5.501283E+03	7.312910E-04	9.896693E-06
5.511231E+03	7.442101E-04	1.004220E-05
5.521179E+03	7.568291E-04	1.018278E-05
5.531128E+03	7.691275E-04	1.031818E-05
5.541076E+03	7.809813E-04	1.044680E-05
5.551024E+03	7.926005E-04	1.057150E-05
5.560972E+03	8.038729E-04	1.069083E-05
5.570920E+03	8.146875E-04	1.080337E-05
5.580868E+03	8.252787E-04	1.091229E-05
5.590816E+03	8.354291E-04	1.101475E-05
5.600764E+03	8.452708E-04	1.111255E-05
5.610712E+03	8.548249E-04	1.120601E-05
5.620660E+03	8.642366E-04	1.129707E-05
5.630608E+03	8.732938E-04	1.138300E-05
5.640556E+03	8.820220E-04	1.146418E-05
5.650504E+03	8.906950E-04	1.154419E-05
5.660452E+03	8.992203E-04	1.162187E-05
5.670401E+03	9.076267E-04	1.169761E-05
5.680349E+03	9.158138E-04	1.177014E-05
5.690297E+03	9.240558E-04	1.184302E-05
5.700245E+03	9.321183E-04	1.191326E-05
5.710193E+03	9.401431E-04	1.198268E-05
5.720141E+03	9.481393E-04	1.205143E-05
5.730089E+03	9.561118E-04	1.211958E-05
5.740037E+03	9.640596E-04	1.218714E-05
5.749985E+03	9.719762E-04	1.225403E-05
5.759933E+03	9.798494E-04	1.232012E-05
5.769881E+03	9.876628E-04	1.238522E-05
5.779829E+03	9.952586E-04	1.244738E-05
5.789777E+03	1.002883E-03	1.250971E-05
5.799725E+03	1.010236E-03	1.256847E-05
5.809674E+03	1.017560E-03	1.262674E-05
5.819622E+03	1.024551E-03	1.268073E-05
5.829570E+03	1.031314E-03	1.273183E-05
5.839518E+03	1.037822E-03	1.277971E-05
5.849466E+03	1.044048E-03	1.282409E-05
5.859414E+03	1.049970E-03	1.286474E-05
5.869362E+03	1.055427E-03	1.289974E-05
5.879310E+03	1.060693E-03	1.293248E-05
5.889258E+03	1.065620E-03	1.296118E-05
5.899206E+03	1.070063E-03	1.298414E-05
5.909154E+03	1.074173E-03	1.300324E-05
5.919102E+03	1.078108E-03	1.302044E-05
5.929050E+03	1.081600E-03	1.303252E-05
5.938998E+03	1.084817E-03	1.304156E-05
5.948946E+03	1.087790E-03	1.304795E-05
5.958895E+03	1.090404E-03	1.305038E-05
5.968843E+03	1.092990E-03	1.305281E-05
5.978791E+03	1.095435E-03	1.305394E-05
5.988739E+03	1.097634E-03	1.305251E-05
5.998687E+03	1.099913E-03	1.305244E-05
6.008635E+03	1.102014E-03	1.305068E-05
6.018583E+03	1.104114E-03	1.304935E-05
6.028531E+03	1.106240E-03	1.304877E-05
6.038479E+03	1.108414E-03	1.304922E-05
6.048427E+03	1.110654E-03	1.305091E-05
6.058375E+03	1.112969E-03	1.305397E-05
6.068323E+03	1.115366E-03	1.305847E-05
6.078271E+03	1.117695E-03	1.306268E-05
6.088219E+03	1.120246E-03	1.306999E-05
6.098168E+03	1.122709E-03	1.307681E-05
6.108116E+03	1.125217E-03	1.308468E-05
6.118064E+03	1.127746E-03	1.309334E-05
6.128012E+03	1.130420E-03	1.310425E-05
6.137960E+03	1.132760E-03	1.311187E-05
6.147908E+03	1.135183E-03	1.312104E-05
6.157856E+03	1.137504E-03	1.312965E-05
6.167804E+03	1.139686E-03	1.313728E-05
6.177752E+03	1.141544E-03	1.314181E-05
6.187700E+03	1.143339E-03	1.314629E-05
6.197648E+03	1.144734E-03	1.314686E-05
6.207596E+03	1.145844E-03	1.314484E-05
6.217544E+03	1.146641E-03	1.313990E-05
6.227492E+03	1.147108E-03	1.313188E-05
6.237441E+03	1.147234E-03	1.312064E-05
6.247389E+03	1.147006E-03	1.310604E-05
6.257337E+03	1.146417E-03	1.308799E-05
6.267285E+03	1.145308E-03	1.306470E-05
6.277233E+03	1.143974E-03	1.303952E-05
6.287181E+03	1.142113E-03	1.300901E-05
6.297129E+03	1.139872E-03	1.297484E-05
6.307077E+03	1.137399E-03	1.293868E-05
6.317025E+03	1.134394E-03	1.289713E-05
6.326973E+03	1.131007E-03	1.285189E-05
6.336921E+03	1.127091E-03	1.280126E-05
6.346869E+03	1.122938E-03	1.274857E-05
6.356817E+03	1.118400E-03	1.269214E-05
6.366765E+03	1.113329E-03	1.263025E-05
6.376714E+03	1.108015E-03	1.256619E-05
6.386662E+03	1.102162E-03	1.249660E-05
6.396610E+03	1.095913E-03	1.242308E-05
6.406558E+03	1.089263E-03	1.234556E-05
6.416506E+03	1.082207E-03	1.226398E-05
6.426454E+03	1.074743E-03	1.217827E-05
6.436402E+03	1.066868E-03	1.208841E-05
6.446350E+03	1.058580E-03	1.199435E-05
6.456298E+03	1.049746E-03	1.189456E-05
6.466246E+03	1.040643E-03	1.179216E-05
6.476194E+03	1.031009E-03	1.168417E-05
6.486142E+03	1.020992E-03	1.157223E-05
6.496090E+03	1.010609E-03	1.145653E-05
6.506038E+03	9.998821E-04	1.133729E-05
6.515987E+03	9.888378E-04	1.121478E-05
6.525935E+03	9.775074E-04	1.108935E-05
6.535883E+03	9.659276E-04	1.096138E-05
6.545831E+03	9.541404E-04	1.083134E-05
6.555779E+03	9.420684E-04	1.069832E-05
6.565727E+03	9.300081E-04	1.056566E-05
6.575675E+03	9.177675E-04	1.043117E-05
6.585623E+03	9.055237E-04	1.029683E-05
6.595571E+03	8.933341E-04	1.016329E-05
6.605519E+03	8.812548E-04	1.003117E-05
6.615467E+03	8.693423E-04	9.901082E-06
6.625415E+03	8.576528E-04	9.773671E-06
6.635363E+03	8.462406E-04	9.649536E-06
6.645311E+03	8.350483E-04	9.528017E-06
6.655260E+03	8.243438E-04	9.412160E-06
6.665208E+03	8.139577E-04	9.300026E-06
6.675156E+03	8.041442E-04	9.194519E-06
6.685104E+03	7.947312E-04	9.093668E-06
6.695052E+03	7.858583E-04	8.999072E-06
6.705000E+03	7.775562E-04	8.911085E-06
6.714948E+03	7.698508E-04	8.830009E-06
6.724896E+03	7.627644E-04	8.756109E-06
6.734844E+03	7.562170E-04	8.688473E-06
6.744792E+03	7.504216E-04	8.629560E-06
6.754740E+03	7.452914E-04	8.578385E-06
6.764688E+03	7.407386E-04	8.533951E-06
6.774636E+03	7.368681E-04	8.497482E-06
6.784584E+03	7.337791E-04	8.470138E-06
6.794533E+03	7.312834E-04	8.449768E-06
6.804481E+03	7.294762E-04	8.437489E-06
6.814429E+03	7.283570E-04	8.433315E-06
6.824377E+03	7.278292E-04	8.436152E-06
6.834325E+03	7.280785E-04	8.448171E-06
6.844273E+03	7.290061E-04	8.468254E-06
6.854221E+03	7.305107E-04	8.495248E-06
6.864169E+03	7.327779E-04	8.531335E-06
6.874117E+03	7.356092E-04	8.574233E-06
6.884065E+03	7.390937E-04	8.625006E-06
6.894013E+03	7.433203E-04	8.684719E-06
6.903961E+03	7.480881E-04	8.751057E-06
6.913909E+03	7.534843E-04	8.825067E-06
6.923857E+03	7.595018E-04	8.906694E-06
6.933806E+03	7.660311E-04	8.994685E-06
6.943754E+03	7.732633E-04	9.091313E-06
6.953702E+03	7.810896E-04	9.195334E-06
6.963650E+03	7.893974E-04	9.305452E-06
6.973598E+03	7.983836E-04	9.424022E-06
6.983546E+03	8.078293E-04	9.548491E-06
6.993494E+03	8.178285E-04	9.680004E-06
7.003442E+03	8.283704E-04	9.818465E-06
7.013390E+03	8.395538E-04	9.965081E-06
7.023338E+03	8.511479E-04	1.011715E-05
7.033286E+03	8.631344E-04	1.027448E-05
7.043234E+03	8.757239E-04	1.043962E-05
7.053182E+03	8.887899E-04	1.061109E-05
7.063130E+03	9.023139E-04	1.078871E-05
7.073079E+03	9.161550E-04	1.097082E-05
7.083027E+03	9.305300E-04	1.116006E-05
7.092975E+03	9.451700E-04	1.135324E-05
7.102923E+03	9.601667E-04	1.155147E-05
7.112871E+03	9.754877E-04	1.175442E-05
7.122819E+03	9.912278E-04	1.196325E-05
7.132767E+03	1.007086E-03	1.217435E-05
7.142715E+03	1.023145E-03	1.238877E-05
7.152663E+03	1.039219E-03	1.260426E-05
7.162611E+03	1.055527E-03	1.282350E-05
7.172559E+03	1.071876E-03	1.304416E-05
7.182507E+03	1.088201E-03	1.326549E-05
7.192455E+03	1.104292E-03	1.348492E-05
7.202403E+03	1.120369E-03	1.370514E-05
7.212352E+03	1.136064E-03	1.392167E-05
7.222300E+03	1.151450E-03	1.413538E-05
7.232248E+03	1.166450E-03	1.434534E-05
7.242196E+03	1.181149E-03	1.455256E-05
7.252144E+03	1.195155E-03	1.475221E-05
7.262092E+03	1.208550E-03	1.494528E-05
7.272040E+03	1.221101E-03	1.512884E-05
7.281988E+03	1.233064E-03	1.530603E-05
7.291936E+03	1.244214E-03	1.547403E-05
7.301884E+03	1.254492E-03	1.563204E-05
7.311832E+03	1.263675E-03	1.577726E-05
7.321780E+03	1.272057E-03	1.591327E-05
7.331728E+03	1.279257E-03	1.603526E-05
7.341676E+03	1.285415E-03	1.614491E-05
7.351625E+03	1.290681E-03	1.624403E-05
7.361573E+03	1.294693E-03	1.632802E-05
7.371521E+03	1.297616E-03	1.639885E-05
7.381469E+03	1.299452E-03	1.645647E-05
7.391417E+03	1.300207E-03	1.650089E-05
7.401365E+03	1.299897E-03	1.653222E-05
7.411313E+03	1.298544E-03	1.655067E-05
7.421261E+03	1.296174E-03	1.655648E-05
7.431209E+03	1.292647E-03	1.654777E-05
7.441157E+03	1.288350E-03	1.652942E-05
7.451105E+03	1.282975E-03	1.649742E-05
7.461053E+03	1.276919E-03	1.645675E-05
7.471001E+03	1.269879E-03	1.640347E-05
7.480949E+03	1.262253E-03	1.634262E-05
7.490898E+03	1.253748E-03	1.627032E-05
7.500846E+03	1.244588E-03	1.618940E-05
7.510794E+03	1.234823E-03	1.610043E-05
7.520742E+03	1.224503E-03	1.600398E-05
7.530690E+03	1.213672E-03	1.590058E-05
7.540638E+03	1.202371E-03	1.579068E-05
7.550586E+03	1.190630E-03	1.567462E-05
7.560534E+03	1.178467E-03	1.555259E-05
7.570482E+03	1.165888E-03	1.542458E-05
7.580430E+03	1.152737E-03	1.528850E-05
7.590378E+03	1.139402E-03	1.514940E-05
7.600326E+03	1.125641E-03	1.500404E-05
7.610274E+03	1.111821E-03	1.485725E-05
7.620222E+03	1.097674E-03	1.470543E-05
7.630171E+03	1.083537E-03	1.455305E-05
7.640119E+03	1.069134E-03	1.439636E-05
7.650067E+03	1.054635E-03	1.423764E-05
7.660015E+03	1.040058E-03	1.407709E-05
7.669963E+03	1.025562E-03	1.391684E-05
7.679911E+03	1.010872E-03	1.375315E-05
7.689859E+03	9.961430E-04	1.358810E-05
7.699807E+03	9.812506E-04	1.341996E-05
7.709755E+03	9.664801E-04	1.325263E-05
7.719703E+03	9.517014E-04	1.308429E-05
