#wls	flux	fluxerr
1.591691E+03	3.833622E-06	1.224552E-07
1.631484E+03	3.787648E-06	1.208154E-07
1.671276E+03	3.737088E-06	1.190290E-07
1.711068E+03	3.683817E-06	1.171564E-07
1.750861E+03	3.627809E-06	1.151973E-07
1.790653E+03	3.565098E-06	1.130263E-07
1.830445E+03	3.497238E-06	1.106939E-07
1.870237E+03	3.421128E-06	1.081030E-07
1.910030E+03	3.336563E-06	1.052486E-07
1.949822E+03	3.241503E-06	1.020683E-07
1.989614E+03	3.137819E-06	9.862281E-08
2.029406E+03	3.032067E-06	9.511970E-08
2.069199E+03	2.938094E-06	9.199334E-08
2.108991E+03	2.872752E-06	8.976847E-08
2.148783E+03	2.848430E-06	8.882633E-08
2.188576E+03	2.873186E-06	8.940975E-08
2.228368E+03	2.937232E-06	9.120501E-08
2.268160E+03	3.030027E-06	9.387704E-08
2.307952E+03	3.138240E-06	9.700728E-08
2.347745E+03	3.254773E-06	1.003728E-07
2.387537E+03	3.374511E-06	1.038137E-07
2.427329E+03	3.496551E-06	1.073006E-07
2.467122E+03	3.623111E-06	1.109003E-07
2.506914E+03	3.756188E-06	1.146715E-07
2.546706E+03	3.895562E-06	1.186053E-07
2.586498E+03	4.047886E-06	1.229008E-07
2.626291E+03	4.211893E-06	1.275155E-07
2.666083E+03	4.393365E-06	1.326196E-07
2.705875E+03	4.595641E-06	1.383075E-07
2.745668E+03	4.820804E-06	1.446346E-07
2.785460E+03	5.072762E-06	1.517096E-07
2.825252E+03	5.357651E-06	1.597058E-07
2.865044E+03	5.678902E-06	1.687133E-07
2.904837E+03	6.044174E-06	1.789453E-07
2.944629E+03	6.458350E-06	1.905295E-07
2.984421E+03	6.929018E-06	2.036702E-07
2.994369E+03	7.057607E-06	2.072576E-07
3.004317E+03	7.190445E-06	2.109614E-07
3.014266E+03	7.325423E-06	2.147195E-07
3.024214E+03	7.467261E-06	2.186700E-07
3.034162E+03	7.614121E-06	2.227582E-07
3.044110E+03	7.766420E-06	2.269959E-07
3.054058E+03	7.924285E-06	2.313864E-07
3.064006E+03	8.087849E-06	2.359329E-07
3.073954E+03	8.257255E-06	2.406389E-07
3.083902E+03	8.432652E-06	2.455084E-07
3.093850E+03	8.614205E-06	2.505454E-07
3.103798E+03	8.802081E-06	2.557543E-07
3.113746E+03	8.996462E-06	2.611395E-07
3.123694E+03	9.197529E-06	2.667058E-07
3.133642E+03	9.405484E-06	2.724582E-07
3.143590E+03	9.620527E-06	2.784018E-07
3.153539E+03	9.842875E-06	2.845421E-07
3.163487E+03	1.007274E-05	2.908846E-07
3.173435E+03	1.031036E-05	2.974352E-07
3.183383E+03	1.055911E-05	3.042903E-07
3.193331E+03	1.081301E-05	3.112769E-07
3.203279E+03	1.107540E-05	3.184901E-07
3.213227E+03	1.134653E-05	3.259364E-07
3.223175E+03	1.163010E-05	3.337209E-07
3.233123E+03	1.191960E-05	3.416557E-07
3.243071E+03	1.222225E-05	3.499468E-07
3.253019E+03	1.253126E-05	3.583984E-07
3.262967E+03	1.285041E-05	3.671181E-07
3.272915E+03	1.318385E-05	3.762229E-07
3.282863E+03	1.352429E-05	3.855036E-07
3.292812E+03	1.387981E-05	3.951895E-07
3.302760E+03	1.424690E-05	4.051788E-07
3.312708E+03	1.462167E-05	4.153599E-07
3.322656E+03	1.501277E-05	4.259773E-07
3.332604E+03	1.541201E-05	4.367968E-07
3.342552E+03	1.582846E-05	4.480741E-07
3.352500E+03	1.625812E-05	4.596947E-07
3.362448E+03	1.669660E-05	4.715326E-07
3.372396E+03	1.715361E-05	4.838607E-07
3.382344E+03	1.762486E-05	4.965560E-07
3.392292E+03	1.811069E-05	5.096260E-07
3.402240E+03	1.861142E-05	5.230786E-07
3.412188E+03	1.912202E-05	5.367703E-07
3.422136E+03	1.965343E-05	5.510064E-07
3.432085E+03	2.020072E-05	5.656467E-07
3.442033E+03	2.076420E-05	5.806982E-07
3.451981E+03	2.134420E-05	5.961673E-07
3.461929E+03	2.194100E-05	6.120603E-07
3.471877E+03	2.255489E-05	6.283829E-07
3.481825E+03	2.318616E-05	6.451410E-07
3.491773E+03	2.383506E-05	6.623394E-07
3.501721E+03	2.450184E-05	6.799830E-07
3.511669E+03	2.518676E-05	6.980761E-07
3.521617E+03	2.589002E-05	7.166223E-07
3.531565E+03	2.661183E-05	7.356250E-07
3.541513E+03	2.735983E-05	7.552923E-07
3.551461E+03	2.811949E-05	7.752204E-07
3.561409E+03	2.889822E-05	7.956118E-07
3.571358E+03	2.969615E-05	8.164675E-07
3.581306E+03	3.051341E-05	8.377880E-07
3.591254E+03	3.135851E-05	8.598044E-07
3.601202E+03	3.221490E-05	8.820596E-07
3.611150E+03	3.309086E-05	9.047782E-07
3.621098E+03	3.399549E-05	9.282061E-07
3.631046E+03	3.491094E-05	9.518528E-07
3.640994E+03	3.584607E-05	9.759573E-07
3.650942E+03	3.681060E-05	1.000782E-06
3.660890E+03	3.778537E-05	1.025801E-06
3.670838E+03	3.879002E-05	1.051546E-06
3.680786E+03	3.980441E-05	1.077468E-06
3.690734E+03	4.084924E-05	1.104125E-06
3.700682E+03	4.190338E-05	1.130941E-06
3.710631E+03	4.298850E-05	1.158499E-06
3.720579E+03	4.408257E-05	1.186202E-06
3.730527E+03	4.520838E-05	1.214660E-06
3.740475E+03	4.634284E-05	1.243250E-06
3.750423E+03	4.750992E-05	1.272612E-06
3.760371E+03	4.869817E-05	1.302434E-06
3.770319E+03	4.989514E-05	1.332381E-06
3.780267E+03	5.112665E-05	1.363140E-06
3.790215E+03	5.238067E-05	1.394385E-06
3.800163E+03	5.364420E-05	1.425767E-06
3.810111E+03	5.494516E-05	1.458025E-06
3.820059E+03	5.627102E-05	1.490821E-06
3.830007E+03	5.762296E-05	1.524184E-06
3.839955E+03	5.900227E-05	1.558142E-06
3.849904E+03	6.039516E-05	1.592328E-06
3.859852E+03	6.183351E-05	1.627577E-06
3.869800E+03	6.330435E-05	1.663544E-06
3.879748E+03	6.480981E-05	1.700278E-06
3.889696E+03	6.635244E-05	1.737841E-06
3.899644E+03	6.793489E-05	1.776295E-06
3.909592E+03	6.954300E-05	1.815266E-06
3.919540E+03	7.121429E-05	1.855727E-06
3.929488E+03	7.293554E-05	1.897324E-06
3.939436E+03	7.471076E-05	1.940153E-06
3.949384E+03	7.654443E-05	1.984323E-06
3.959332E+03	7.844133E-05	2.029948E-06
3.969280E+03	8.040658E-05	2.077150E-06
3.979228E+03	8.244580E-05	2.126065E-06
3.989176E+03	8.456493E-05	2.176833E-06
3.999125E+03	8.677034E-05	2.229605E-06
4.009073E+03	8.906880E-05	2.284543E-06
4.019021E+03	9.146751E-05	2.341817E-06
4.028969E+03	9.397396E-05	2.401601E-06
4.038917E+03	9.659611E-05	2.464083E-06
4.048865E+03	9.936605E-05	2.530062E-06
4.058813E+03	1.022454E-04	2.598540E-06
4.068761E+03	1.052663E-04	2.670314E-06
4.078709E+03	1.084379E-04	2.745595E-06
4.088657E+03	1.117695E-04	2.824595E-06
4.098605E+03	1.152708E-04	2.907531E-06
4.108553E+03	1.189513E-04	2.994616E-06
4.118501E+03	1.228206E-04	3.086068E-06
4.128449E+03	1.269182E-04	3.182842E-06
4.138398E+03	1.311947E-04	3.283667E-06
4.148346E+03	1.356882E-04	3.389467E-06
4.158294E+03	1.404074E-04	3.500422E-06
4.168242E+03	1.453605E-04	3.616706E-06
4.178190E+03	1.505904E-04	3.739338E-06
4.188138E+03	1.560351E-04	3.866741E-06
4.198086E+03	1.617345E-04	3.999871E-06
4.208034E+03	1.676941E-04	4.138814E-06
4.217982E+03	1.739181E-04	4.283634E-06
4.227930E+03	1.804512E-04	4.435386E-06
4.237878E+03	1.872142E-04	4.592077E-06
4.247826E+03	1.942484E-04	4.754679E-06
4.257774E+03	2.015542E-04	4.923153E-06
4.267722E+03	2.091785E-04	5.098599E-06
4.277671E+03	2.170265E-04	5.278657E-06
4.287619E+03	2.251424E-04	5.464362E-06
4.297567E+03	2.335241E-04	5.655613E-06
4.307515E+03	2.422238E-04	5.853627E-06
4.317463E+03	2.511315E-04	6.055698E-06
4.327411E+03	2.602974E-04	6.262992E-06
4.337359E+03	2.697784E-04	6.476833E-06
4.347307E+03	2.794511E-04	6.694210E-06
4.357255E+03	2.893671E-04	6.916317E-06
4.367203E+03	2.995157E-04	7.142856E-06
4.377151E+03	3.099502E-04	7.375050E-06
4.387099E+03	3.205146E-04	7.609147E-06
4.397047E+03	3.312496E-04	7.846086E-06
4.406995E+03	3.421252E-04	8.085117E-06
4.416944E+03	3.531854E-04	8.327255E-06
4.426892E+03	3.642412E-04	8.568016E-06
4.436840E+03	3.753312E-04	8.808300E-06
4.446788E+03	3.864168E-04	9.047195E-06
4.456736E+03	3.975462E-04	9.285819E-06
4.466684E+03	4.085100E-04	9.519279E-06
4.476632E+03	4.193548E-04	9.748680E-06
4.486580E+03	4.300427E-04	9.973161E-06
4.496528E+03	4.405370E-04	1.019189E-05
4.506476E+03	4.508996E-04	1.040632E-05
4.516424E+03	4.609035E-04	1.061125E-05
4.526372E+03	4.706094E-04	1.080813E-05
4.536320E+03	4.799859E-04	1.099628E-05
4.546268E+03	4.890014E-04	1.117504E-05
4.556217E+03	4.977324E-04	1.134619E-05
4.566165E+03	5.059399E-04	1.150436E-05
4.576113E+03	5.137024E-04	1.165141E-05
4.586061E+03	5.209943E-04	1.178684E-05
4.596009E+03	5.277933E-04	1.191021E-05
4.605957E+03	5.340785E-04	1.202114E-05
4.615905E+03	5.398312E-04	1.211930E-05
4.625853E+03	5.450358E-04	1.220443E-05
4.635801E+03	5.496792E-04	1.227632E-05
4.645749E+03	5.537502E-04	1.233483E-05
4.655697E+03	5.573586E-04	1.238249E-05
4.665645E+03	5.602669E-04	1.241412E-05
4.675593E+03	5.625903E-04	1.243240E-05
4.685541E+03	5.643303E-04	1.243744E-05
4.695490E+03	5.654930E-04	1.242950E-05
4.705438E+03	5.660857E-04	1.240884E-05
4.715386E+03	5.660043E-04	1.237328E-05
4.725334E+03	5.654972E-04	1.232835E-05
4.735282E+03	5.644645E-04	1.227197E-05
4.745230E+03	5.629271E-04	1.220468E-05
4.755178E+03	5.609079E-04	1.212708E-05
4.765126E+03	5.584318E-04	1.203978E-05
4.775074E+03	5.555267E-04	1.194347E-05
4.785022E+03	5.522217E-04	1.183885E-05
4.794970E+03	5.484360E-04	1.172428E-05
4.804918E+03	5.444253E-04	1.160529E-05
4.814866E+03	5.401105E-04	1.148025E-05
4.824814E+03	5.355253E-04	1.134992E-05
4.834763E+03	5.305968E-04	1.121283E-05
4.844711E+03	5.255740E-04	1.107429E-05
4.854659E+03	5.203844E-04	1.093278E-05
4.864607E+03	5.149580E-04	1.078689E-05
4.874555E+03	5.095366E-04	1.064170E-05
4.884503E+03	5.040485E-04	1.049573E-05
4.894451E+03	4.984275E-04	1.034761E-05
4.904399E+03	4.929043E-04	1.020216E-05
4.914347E+03	4.873125E-04	1.005592E-05
4.924295E+03	4.818763E-04	9.913523E-06
4.934243E+03	4.764313E-04	9.771568E-06
4.944191E+03	4.711942E-04	9.634492E-06
4.954139E+03	4.660040E-04	9.498976E-06
4.964087E+03	4.609791E-04	9.367422E-06
4.974036E+03	4.562320E-04	9.242078E-06
4.983984E+03	4.516042E-04	9.119697E-06
4.993932E+03	4.472071E-04	9.002500E-06
5.003880E+03	4.431459E-04	8.892557E-06
5.013828E+03	4.392652E-04	8.786697E-06
5.023776E+03	4.356690E-04	8.686965E-06
5.033724E+03	4.323727E-04	8.593609E-06
5.043672E+03	4.293912E-04	8.506876E-06
5.053620E+03	4.267377E-04	8.426965E-06
5.063568E+03	4.244245E-04	8.354058E-06
5.073516E+03	4.224628E-04	8.288311E-06
5.083464E+03	4.208636E-04	8.229874E-06
5.093412E+03	4.196368E-04	8.178870E-06
5.103360E+03	4.187902E-04	8.135386E-06
5.113309E+03	4.183325E-04	8.099513E-06
5.123257E+03	4.182709E-04	8.071320E-06
5.133205E+03	4.186121E-04	8.050859E-06
5.143153E+03	4.193619E-04	8.038167E-06
5.153101E+03	4.204456E-04	8.031737E-06
5.163049E+03	4.220274E-04	8.034635E-06
5.172997E+03	4.240315E-04	8.045327E-06
5.182945E+03	4.263805E-04	8.062269E-06
5.192893E+03	4.292380E-04	8.088479E-06
5.202841E+03	4.325248E-04	8.122374E-06
5.212789E+03	4.361608E-04	8.162371E-06
5.222737E+03	4.402263E-04	8.209907E-06
5.232685E+03	4.448045E-04	8.266440E-06
5.242633E+03	4.497275E-04	8.328770E-06
5.252582E+03	4.551596E-04	8.399862E-06
5.262530E+03	4.609287E-04	8.476454E-06
5.272478E+03	4.671131E-04	8.559919E-06
5.282426E+03	4.737070E-04	8.650077E-06
5.292374E+03	4.807911E-04	8.748318E-06
5.302322E+03	4.881792E-04	8.851174E-06
5.312270E+03	4.959479E-04	8.959977E-06
5.322218E+03	5.040851E-04	9.074437E-06
5.332166E+03	5.125758E-04	9.194222E-06
5.342114E+03	5.214041E-04	9.318981E-06
5.352062E+03	5.305516E-04	9.448331E-06
5.362010E+03	5.398988E-04	9.580094E-06
5.371958E+03	5.496214E-04	9.717345E-06
5.381906E+03	5.595989E-04	9.857896E-06
5.391855E+03	5.698060E-04	1.000126E-05
5.401803E+03	5.801116E-04	1.014511E-05
5.411751E+03	5.907002E-04	1.029266E-05
5.421699E+03	6.014403E-04	1.044156E-05
5.431647E+03	6.121949E-04	1.058944E-05
5.441595E+03	6.230453E-04	1.073770E-05
5.451543E+03	6.340817E-04	1.088789E-05
5.461491E+03	6.450503E-04	1.103564E-05
5.471439E+03	6.561564E-04	1.118446E-05
5.481387E+03	6.671363E-04	1.132988E-05
5.491335E+03	6.780786E-04	1.147343E-05
5.501283E+03	6.889558E-04	1.161465E-05
5.511231E+03	6.997429E-04	1.175317E-05
5.521179E+03	7.104181E-04	1.188864E-05
5.531128E+03	7.209623E-04	1.202079E-05
5.541076E+03	7.313596E-04	1.214938E-05
5.551024E+03	7.415983E-04	1.227428E-05
5.560972E+03	7.516684E-04	1.239534E-05
5.570920E+03	7.615638E-04	1.251254E-05
5.580868E+03	7.712808E-04	1.262585E-05
5.590816E+03	7.806798E-04	1.273304E-05
5.600764E+03	7.900393E-04	1.283870E-05
5.610712E+03	7.990823E-04	1.293838E-05
5.620660E+03	8.080979E-04	1.303682E-05
5.630608E+03	8.168063E-04	1.312952E-05
5.640556E+03	8.255046E-04	1.322133E-05
5.650504E+03	8.339098E-04	1.330774E-05
5.660452E+03	8.421749E-04	1.339125E-05
5.670401E+03	8.504600E-04	1.347444E-05
5.680349E+03	8.584737E-04	1.355273E-05
5.690297E+03	8.663724E-04	1.362863E-05
5.700245E+03	8.741630E-04	1.370229E-05
5.710193E+03	8.818514E-04	1.377384E-05
5.720141E+03	8.894416E-04	1.384338E-05
5.730089E+03	8.969356E-04	1.391097E-05
5.740037E+03	9.041772E-04	1.397423E-05
5.749985E+03	9.114808E-04	1.403807E-05
5.759933E+03	9.186880E-04	1.410006E-05
5.769881E+03	9.257942E-04	1.416017E-05
5.779829E+03	9.326324E-04	1.421588E-05
5.789777E+03	9.395216E-04	1.427212E-05
5.799725E+03	9.461274E-04	1.432382E-05
5.809674E+03	9.526062E-04	1.437341E-05
5.819622E+03	9.591161E-04	1.442331E-05
5.829570E+03	9.653172E-04	1.446844E-05
5.839518E+03	9.713676E-04	1.451124E-05
5.849466E+03	9.772596E-04	1.455162E-05
5.859414E+03	9.831580E-04	1.459209E-05
5.869362E+03	9.887173E-04	1.462755E-05
5.879310E+03	9.939304E-04	1.465797E-05
5.889258E+03	9.991388E-04	1.468844E-05
5.899206E+03	1.004169E-03	1.471644E-05
5.909154E+03	1.009022E-03	1.474203E-05
5.919102E+03	1.013698E-03	1.476526E-05
5.929050E+03	1.018025E-03	1.478370E-05
5.938998E+03	1.022358E-03	1.480253E-05
5.948946E+03	1.026350E-03	1.481676E-05
5.958895E+03	1.030360E-03	1.483164E-05
5.968843E+03	1.034039E-03	1.484218E-05
5.978791E+03	1.037750E-03	1.485363E-05
5.988739E+03	1.041141E-03	1.486102E-05
5.998687E+03	1.044398E-03	1.486699E-05
6.008635E+03	1.047524E-03	1.487169E-05
6.018583E+03	1.050524E-03	1.487518E-05
6.028531E+03	1.053399E-03	1.487754E-05
6.038479E+03	1.056151E-03	1.487882E-05
6.048427E+03	1.058780E-03	1.487906E-05
6.058375E+03	1.061283E-03	1.487824E-05
6.068323E+03	1.063654E-03	1.487634E-05
6.078271E+03	1.065708E-03	1.487078E-05
6.088219E+03	1.067800E-03	1.486658E-05
6.098168E+03	1.069557E-03	1.485856E-05
6.108116E+03	1.071334E-03	1.485170E-05
6.118064E+03	1.072755E-03	1.484081E-05
6.128012E+03	1.074173E-03	1.483082E-05
6.137960E+03	1.075212E-03	1.481656E-05
6.147908E+03	1.076042E-03	1.480044E-05
6.157856E+03	1.076652E-03	1.478232E-05
6.167804E+03	1.077032E-03	1.476210E-05
6.177752E+03	1.077171E-03	1.473967E-05
6.187700E+03	1.077060E-03	1.471493E-05
6.197648E+03	1.076691E-03	1.468780E-05
6.207596E+03	1.076055E-03	1.465813E-05
6.217544E+03	1.075139E-03	1.462577E-05
6.227492E+03	1.073930E-03	1.459052E-05
6.237441E+03	1.072231E-03	1.454974E-05
6.247389E+03	1.070393E-03	1.450815E-05
6.257337E+03	1.068041E-03	1.446068E-05
6.267285E+03	1.065527E-03	1.441207E-05
6.277233E+03	1.062482E-03	1.435734E-05
6.287181E+03	1.059081E-03	1.429884E-05
6.297129E+03	1.055322E-03	1.423653E-05
6.307077E+03	1.051380E-03	1.417276E-05
6.317025E+03	1.046902E-03	1.410274E-05
6.326973E+03	1.042068E-03	1.402889E-05
6.336921E+03	1.036883E-03	1.395125E-05
6.346869E+03	1.031351E-03	1.386988E-05
6.356817E+03	1.025309E-03	1.378254E-05
6.366765E+03	1.019110E-03	1.369395E-05
6.376714E+03	1.012590E-03	1.360190E-05
6.386662E+03	1.005589E-03	1.350420E-05
6.396610E+03	9.984587E-04	1.340556E-05
6.406558E+03	9.908733E-04	1.330156E-05
6.416506E+03	9.831800E-04	1.319685E-05
6.426454E+03	9.750606E-04	1.308711E-05
6.436402E+03	9.668597E-04	1.297696E-05
6.446350E+03	9.582661E-04	1.286217E-05
6.456298E+03	9.494601E-04	1.274514E-05
6.466246E+03	9.404610E-04	1.262609E-05
6.476194E+03	9.312876E-04	1.250525E-05
6.486142E+03	9.219605E-04	1.238287E-05
6.496090E+03	9.125024E-04	1.225921E-05
6.506038E+03	9.029359E-04	1.213455E-05
6.515987E+03	8.931363E-04	1.200719E-05
6.525935E+03	8.834313E-04	1.188150E-05
6.535883E+03	8.736958E-04	1.175578E-05
6.545831E+03	8.638132E-04	1.162841E-05
6.555779E+03	8.541044E-04	1.150371E-05
6.565727E+03	8.443103E-04	1.137816E-05
6.575675E+03	8.347459E-04	1.125597E-05
6.585623E+03	8.251605E-04	1.113375E-05
6.595571E+03	8.157253E-04	1.101378E-05
6.605519E+03	8.064711E-04	1.089647E-05
6.615467E+03	7.974268E-04	1.078218E-05
6.625415E+03	7.886221E-04	1.067131E-05
6.635363E+03	7.800843E-04	1.056422E-05
6.645311E+03	7.718403E-04	1.046125E-05
6.655260E+03	7.639170E-04	1.036278E-05
6.665208E+03	7.563375E-04	1.026909E-05
6.675156E+03	7.491254E-04	1.018052E-05
6.685104E+03	7.421769E-04	1.009565E-05
6.695052E+03	7.357625E-04	1.001816E-05
6.705000E+03	7.296511E-04	9.944901E-06
6.714948E+03	7.241063E-04	9.879479E-06
6.724896E+03	7.188977E-04	9.818760E-06
6.734844E+03	7.141603E-04	9.764591E-06
6.744792E+03	7.100261E-04	9.718790E-06
6.754740E+03	7.062642E-04	9.678213E-06
6.764688E+03	7.030043E-04	9.644650E-06
6.774636E+03	7.002530E-04	9.618207E-06
6.784584E+03	6.980163E-04	9.598984E-06
6.794533E+03	6.962990E-04	9.587069E-06
6.804481E+03	6.951045E-04	9.582529E-06
6.814429E+03	6.944364E-04	9.585440E-06
6.824377E+03	6.942953E-04	9.595832E-06
6.834325E+03	6.945668E-04	9.612148E-06
6.844273E+03	6.954845E-04	9.637647E-06
6.854221E+03	6.968131E-04	9.669097E-06
6.864169E+03	6.987873E-04	9.709784E-06
6.874117E+03	7.011703E-04	9.756449E-06
6.884065E+03	7.041948E-04	9.812361E-06
6.894013E+03	7.076227E-04	9.874235E-06
6.903961E+03	7.115684E-04	9.943697E-06
6.913909E+03	7.161487E-04	1.002242E-05
6.923857E+03	7.211198E-04	1.010702E-05
6.933806E+03	7.265970E-04	1.019916E-05
6.943754E+03	7.325747E-04	1.029879E-05
6.953702E+03	7.390477E-04	1.040587E-05
6.963650E+03	7.460095E-04	1.052035E-05
6.973598E+03	7.533274E-04	1.064040E-05
6.983546E+03	7.612455E-04	1.076950E-05
6.993494E+03	7.696305E-04	1.090582E-05
7.003442E+03	7.784740E-04	1.104928E-05
7.013390E+03	7.876320E-04	1.119786E-05
7.023338E+03	7.973582E-04	1.135522E-05
7.033286E+03	8.073732E-04	1.151742E-05
7.043234E+03	8.179337E-04	1.168817E-05
7.053182E+03	8.287506E-04	1.186338E-05
7.063130E+03	8.399441E-04	1.204481E-05
7.073079E+03	8.516389E-04	1.223428E-05
7.083027E+03	8.635290E-04	1.242746E-05
7.092975E+03	8.757352E-04	1.262611E-05
7.102923E+03	8.882320E-04	1.282991E-05
7.112871E+03	9.009942E-04	1.303853E-05
7.122819E+03	9.139923E-04	1.325158E-05
7.132767E+03	9.271964E-04	1.346867E-05
7.142715E+03	9.405719E-04	1.368934E-05
7.152663E+03	9.540832E-04	1.391309E-05
7.162611E+03	9.675287E-04	1.413701E-05
7.172559E+03	9.811941E-04	1.436531E-05
7.182507E+03	9.948754E-04	1.459503E-05
7.192455E+03	1.008356E-03	1.482300E-05
7.202403E+03	1.021931E-03	1.505360E-05
7.212352E+03	1.035206E-03	1.528102E-05
7.222300E+03	1.048484E-03	1.550974E-05
7.232248E+03	1.061360E-03	1.573378E-05
7.242196E+03	1.073958E-03	1.595497E-05
7.252144E+03	1.086416E-03	1.617536E-05
7.262092E+03	1.098312E-03	1.638867E-05
7.272040E+03	1.109780E-03	1.659688E-05
7.281988E+03	1.120772E-03	1.679924E-05
7.291936E+03	1.131241E-03	1.699500E-05
7.301884E+03	1.141139E-03	1.718347E-05
7.311832E+03	1.150426E-03	1.736393E-05
7.321780E+03	1.159058E-03	1.753574E-05
7.331728E+03	1.167000E-03	1.769827E-05
7.341676E+03	1.174214E-03	1.785094E-05
7.351625E+03	1.180468E-03	1.799011E-05
7.361573E+03	1.186138E-03	1.812146E-05
7.371521E+03	1.190999E-03	1.824149E-05
7.381469E+03	1.194822E-03	1.834662E-05
7.391417E+03	1.198006E-03	1.844287E-05
7.401365E+03	1.200124E-03	1.852359E-05
7.411313E+03	1.201582E-03	1.859497E-05
7.421261E+03	1.201962E-03	1.865043E-05
7.431209E+03	1.201679E-03	1.869633E-05
7.441157E+03	1.200321E-03	1.872614E-05
7.451105E+03	1.198104E-03	1.874313E-05
7.461053E+03	1.195040E-03	1.874739E-05
7.471001E+03	1.191144E-03	1.873904E-05
7.480949E+03	1.186645E-03	1.872154E-05
7.490898E+03	1.181150E-03	1.868860E-05
7.500846E+03	1.174896E-03	1.864381E-05
7.510794E+03	1.167915E-03	1.858756E-05
7.520742E+03	1.160243E-03	1.852029E-05
7.530690E+03	1.151723E-03	1.843934E-05
7.540638E+03	1.142807E-03	1.835185E-05
7.550586E+03	1.133348E-03	1.825537E-05
7.560534E+03	1.123410E-03	1.815080E-05
7.570482E+03	1.112862E-03	1.803593E-05
7.580430E+03	1.102142E-03	1.791777E-05
7.590378E+03	1.091067E-03	1.779327E-05
7.600326E+03	1.079444E-03	1.765918E-05
7.610274E+03	1.067650E-03	1.752161E-05
7.620222E+03	1.055314E-03	1.737435E-05
7.630171E+03	1.042822E-03	1.722369E-05
7.640119E+03	1.029821E-03	1.706372E-05
7.650067E+03	1.016518E-03	1.689778E-05
7.660015E+03	1.003115E-03	1.672915E-05
7.669963E+03	9.892797E-04	1.655224E-05
7.679911E+03	9.752185E-04	1.637040E-05
7.689859E+03	9.609576E-04	1.618403E-05
7.699807E+03	9.465242E-04	1.599351E-05
7.709755E+03	9.321104E-04	1.580205E-05
7.719703E+03	9.174068E-04	1.560436E-05
