#wls	flux	fluxerr
1.596488E+03	3.620701E-16	2.038320E-18
1.636400E+03	3.461595E-16	1.948749E-18
1.676312E+03	3.307479E-16	1.861988E-18
1.716224E+03	3.159141E-16	1.778478E-18
1.756136E+03	3.017864E-16	1.698945E-18
1.796049E+03	2.883562E-16	1.623338E-18
1.835961E+03	2.755699E-16	1.551356E-18
1.875873E+03	2.633770E-16	1.482714E-18
1.915785E+03	2.517474E-16	1.417244E-18
1.955697E+03	2.407099E-16	1.355107E-18
1.995610E+03	2.304379E-16	1.297279E-18
2.035522E+03	2.214637E-16	1.246758E-18
2.075434E+03	2.147470E-16	1.208945E-18
2.115346E+03	2.116852E-16	1.191708E-18
2.155258E+03	2.137162E-16	1.203142E-18
2.195171E+03	2.218661E-16	1.249023E-18
2.235083E+03	2.366583E-16	1.332297E-18
2.274995E+03	2.584474E-16	1.454962E-18
2.314907E+03	2.880473E-16	1.621598E-18
2.354819E+03	3.272094E-16	1.842066E-18
2.394732E+03	3.790517E-16	2.133919E-18
2.434644E+03	4.486536E-16	2.525751E-18
2.474556E+03	5.435225E-16	3.059827E-18
2.514468E+03	6.747576E-16	3.798632E-18
2.554380E+03	8.599198E-16	4.841025E-18
2.594293E+03	1.122784E-15	6.320849E-18
2.634205E+03	1.484781E-15	8.358761E-18
2.674117E+03	1.955525E-15	1.100887E-17
2.714029E+03	2.526707E-15	1.422441E-17
2.753941E+03	3.164672E-15	1.781591E-17
2.793854E+03	3.809602E-15	2.144662E-17
2.833766E+03	4.409675E-15	2.482481E-17
2.873678E+03	4.964417E-15	2.794779E-17
2.913590E+03	5.536496E-15	3.116838E-17
2.953502E+03	6.179081E-15	3.478589E-17
2.993414E+03	6.866113E-15	3.865362E-17
3.003393E+03	7.036660E-15	3.961373E-17
3.013371E+03	7.204578E-15	4.055905E-17
3.023349E+03	7.369248E-15	4.148608E-17
3.033327E+03	7.530274E-15	4.239260E-17
3.043305E+03	7.686408E-15	4.327157E-17
3.053283E+03	7.837782E-15	4.412375E-17
3.063261E+03	7.983276E-15	4.494283E-17
3.073239E+03	8.122029E-15	4.572395E-17
3.083217E+03	8.252470E-15	4.645828E-17
3.093195E+03	8.373399E-15	4.713907E-17
3.103173E+03	8.483371E-15	4.775817E-17
3.113151E+03	8.581480E-15	4.831048E-17
3.123129E+03	8.666259E-15	4.878776E-17
3.133107E+03	8.737291E-15	4.918764E-17
3.143085E+03	8.793425E-15	4.950365E-17
3.153063E+03	8.834372E-15	4.973417E-17
3.163041E+03	8.859613E-15	4.987627E-17
3.173019E+03	8.868563E-15	4.992665E-17
3.182997E+03	8.860748E-15	4.988265E-17
3.192975E+03	8.836376E-15	4.974545E-17
3.202954E+03	8.795060E-15	4.951286E-17
3.212932E+03	8.737252E-15	4.918742E-17
3.222910E+03	8.663564E-15	4.877259E-17
3.232888E+03	8.575485E-15	4.827673E-17
3.242866E+03	8.474589E-15	4.770872E-17
3.252844E+03	8.363485E-15	4.708325E-17
3.262822E+03	8.245201E-15	4.641736E-17
3.272800E+03	8.123647E-15	4.573305E-17
3.282778E+03	8.002970E-15	4.505369E-17
3.292756E+03	7.887701E-15	4.440477E-17
3.302734E+03	7.782284E-15	4.381131E-17
3.312712E+03	7.691243E-15	4.329879E-17
3.322690E+03	7.618254E-15	4.288788E-17
3.332668E+03	7.566726E-15	4.259780E-17
3.342646E+03	7.539622E-15	4.244522E-17
3.352624E+03	7.539248E-15	4.244311E-17
3.362602E+03	7.567767E-15	4.260366E-17
3.372580E+03	7.626694E-15	4.293539E-17
3.382558E+03	7.718072E-15	4.344982E-17
3.392536E+03	7.843420E-15	4.415548E-17
3.402514E+03	8.004520E-15	4.506241E-17
3.412493E+03	8.203322E-15	4.618159E-17
3.422471E+03	8.441507E-15	4.752248E-17
3.432449E+03	8.721043E-15	4.909616E-17
3.442427E+03	9.043585E-15	5.091195E-17
3.452405E+03	9.410790E-15	5.297918E-17
3.462383E+03	9.823515E-15	5.530266E-17
3.472361E+03	1.028237E-14	5.788585E-17
3.473359E+03	7.844447E-15	4.416126E-17
3.474855E+03	7.925851E-15	4.461954E-17
3.476352E+03	8.007847E-15	4.508114E-17
3.477849E+03	8.108734E-15	4.564909E-17
3.479345E+03	8.225118E-15	4.630429E-17
3.480842E+03	8.351212E-15	4.701415E-17
3.482339E+03	8.482134E-15	4.775120E-17
3.483836E+03	8.649521E-15	4.869352E-17
3.485332E+03	8.802032E-15	4.955210E-17
3.486829E+03	8.904052E-15	5.012643E-17
3.488326E+03	9.030115E-15	5.083612E-17
3.489822E+03	9.207566E-15	5.183510E-17
3.491319E+03	9.341142E-15	5.258708E-17
3.492816E+03	9.461485E-15	5.326457E-17
3.494313E+03	9.643180E-15	5.428744E-17
3.495809E+03	9.787609E-15	5.510053E-17
3.497306E+03	9.937041E-15	5.594177E-17
3.498803E+03	1.010392E-14	5.688121E-17
3.500299E+03	1.025010E-14	5.770415E-17
3.501796E+03	1.044025E-14	5.877464E-17
3.503293E+03	1.066776E-14	6.005544E-17
3.504789E+03	1.084804E-14	6.107033E-17
3.506286E+03	1.099518E-14	6.189868E-17
3.507783E+03	1.116972E-14	6.288130E-17
3.509280E+03	1.132605E-14	6.376137E-17
3.510776E+03	1.154629E-14	6.500126E-17
3.512273E+03	1.174666E-14	6.612926E-17
3.513770E+03	1.192716E-14	6.714539E-17
3.515266E+03	1.211516E-14	6.820375E-17
3.516763E+03	1.228577E-14	6.916421E-17
3.518260E+03	1.247965E-14	7.025567E-17
3.519757E+03	1.269765E-14	7.148295E-17
3.521253E+03	1.286835E-14	7.244395E-17
3.522750E+03	1.303993E-14	7.340986E-17
3.524247E+03	1.322981E-14	7.447881E-17
3.525743E+03	1.342139E-14	7.555732E-17
3.527240E+03	1.360303E-14	7.657991E-17
3.528737E+03	1.378720E-14	7.761671E-17
3.530233E+03	1.395314E-14	7.855086E-17
3.531730E+03	1.409999E-14	7.937757E-17
3.533227E+03	1.425268E-14	8.023717E-17
3.534724E+03	1.440291E-14	8.108290E-17
3.536220E+03	1.454236E-14	8.186796E-17
3.537717E+03	1.467269E-14	8.260167E-17
3.539214E+03	1.480055E-14	8.332149E-17
3.540710E+03	1.493758E-14	8.409292E-17
3.542207E+03	1.508628E-14	8.493005E-17
3.543704E+03	1.519176E-14	8.552386E-17
3.545201E+03	1.528147E-14	8.602885E-17
3.546697E+03	1.537617E-14	8.656198E-17
3.548194E+03	1.545509E-14	8.700628E-17
3.549691E+03	1.553901E-14	8.747870E-17
3.551187E+03	1.558134E-14	8.771704E-17
3.552684E+03	1.564698E-14	8.808657E-17
3.554181E+03	1.568767E-14	8.831562E-17
3.555678E+03	1.580492E-14	8.897572E-17
3.557174E+03	1.599712E-14	9.005770E-17
3.558671E+03	1.617104E-14	9.103680E-17
3.560168E+03	1.634249E-14	9.200199E-17
3.561664E+03	1.646984E-14	9.271892E-17
3.563161E+03	1.651811E-14	9.299067E-17
3.564658E+03	1.656306E-14	9.324372E-17
3.566154E+03	1.666881E-14	9.383905E-17
3.567651E+03	1.683622E-14	9.478150E-17
3.569148E+03	1.694701E-14	9.540521E-17
3.570645E+03	1.704616E-14	9.596340E-17
3.572141E+03	1.712283E-14	9.639504E-17
3.573638E+03	1.727118E-14	9.723016E-17
3.575135E+03	1.735621E-14	9.770888E-17
3.576631E+03	1.741293E-14	9.802819E-17
3.578128E+03	1.745132E-14	9.824429E-17
3.579625E+03	1.764393E-14	9.932860E-17
3.581122E+03	1.767233E-14	9.948853E-17
3.582618E+03	1.772909E-14	9.980805E-17
3.584115E+03	1.779754E-14	1.001934E-16
3.585612E+03	1.789268E-14	1.007290E-16
3.587108E+03	1.797532E-14	1.011942E-16
3.588605E+03	1.803046E-14	1.015046E-16
3.590102E+03	1.806559E-14	1.017024E-16
3.591598E+03	1.811490E-14	1.019800E-16
3.593095E+03	1.814670E-14	1.021590E-16
3.594592E+03	1.816932E-14	1.022864E-16
3.596089E+03	1.817276E-14	1.023057E-16
3.597585E+03	1.820623E-14	1.024942E-16
3.599082E+03	1.824807E-14	1.027297E-16
3.600579E+03	1.823147E-14	1.026362E-16
3.602075E+03	1.820652E-14	1.024958E-16
3.603572E+03	1.828843E-14	1.029569E-16
3.605069E+03	1.833613E-14	1.032254E-16
3.606566E+03	1.832954E-14	1.031884E-16
3.608062E+03	1.834635E-14	1.032830E-16
3.609559E+03	1.831221E-14	1.030908E-16
3.611056E+03	1.828223E-14	1.029220E-16
3.612552E+03	1.832409E-14	1.031577E-16
3.614049E+03	1.837264E-14	1.034310E-16
3.615546E+03	1.836689E-14	1.033986E-16
3.617043E+03	1.834025E-14	1.032486E-16
3.618539E+03	1.833365E-14	1.032115E-16
3.620036E+03	1.834043E-14	1.032496E-16
3.621533E+03	1.838481E-14	1.034995E-16
3.623029E+03	1.846600E-14	1.039565E-16
3.624526E+03	1.854050E-14	1.043760E-16
3.626023E+03	1.855566E-14	1.044613E-16
3.627519E+03	1.860593E-14	1.047443E-16
3.629016E+03	1.866291E-14	1.050651E-16
3.630513E+03	1.871488E-14	1.053576E-16
3.632010E+03	1.876017E-14	1.056126E-16
3.633506E+03	1.879208E-14	1.057923E-16
3.635003E+03	1.877881E-14	1.057176E-16
3.636500E+03	1.879399E-14	1.058030E-16
3.637996E+03	1.885604E-14	1.061523E-16
3.639493E+03	1.893399E-14	1.065912E-16
3.640990E+03	1.895923E-14	1.067333E-16
3.642487E+03	1.901544E-14	1.070497E-16
3.643983E+03	1.910097E-14	1.075312E-16
3.645480E+03	1.911116E-14	1.075886E-16
3.646977E+03	1.914062E-14	1.077544E-16
3.648473E+03	1.917342E-14	1.079391E-16
3.649970E+03	1.920875E-14	1.081379E-16
3.651467E+03	1.929516E-14	1.086244E-16
3.652963E+03	1.933218E-14	1.088328E-16
3.654460E+03	1.930219E-14	1.086640E-16
3.655957E+03	1.932665E-14	1.088017E-16
3.657454E+03	1.940138E-14	1.092224E-16
3.658950E+03	1.945016E-14	1.094970E-16
3.660447E+03	1.952575E-14	1.099225E-16
3.661944E+03	1.956616E-14	1.101500E-16
3.663440E+03	1.963591E-14	1.105427E-16
3.664937E+03	1.974171E-14	1.111383E-16
3.666434E+03	1.981485E-14	1.115501E-16
3.667931E+03	1.988213E-14	1.119288E-16
3.669427E+03	1.992510E-14	1.121708E-16
3.670924E+03	1.991694E-14	1.121248E-16
3.672421E+03	1.995994E-14	1.123668E-16
3.673917E+03	2.004654E-14	1.128544E-16
3.675414E+03	2.011891E-14	1.132618E-16
3.676911E+03	2.015522E-14	1.134662E-16
3.678408E+03	2.017727E-14	1.135904E-16
3.679904E+03	2.018171E-14	1.136154E-16
3.681401E+03	2.019119E-14	1.136687E-16
3.682898E+03	2.023171E-14	1.138969E-16
3.684394E+03	2.026553E-14	1.140873E-16
3.685891E+03	2.030356E-14	1.143013E-16
3.687388E+03	2.034159E-14	1.145154E-16
3.688884E+03	2.036200E-14	1.146303E-16
3.690381E+03	2.036646E-14	1.146554E-16
3.691878E+03	2.034574E-14	1.145388E-16
3.693375E+03	2.030150E-14	1.142897E-16
3.694871E+03	2.029504E-14	1.142533E-16
3.696368E+03	2.028858E-14	1.142170E-16
3.697865E+03	2.028884E-14	1.142185E-16
3.699361E+03	2.029498E-14	1.142530E-16
3.700858E+03	2.029104E-14	1.142308E-16
3.702355E+03	2.031146E-14	1.143458E-16
3.703852E+03	2.029913E-14	1.142764E-16
3.705348E+03	2.030779E-14	1.143252E-16
3.706845E+03	2.031898E-14	1.143882E-16
3.708342E+03	2.033018E-14	1.144512E-16
3.709838E+03	2.034389E-14	1.145284E-16
3.711335E+03	2.035593E-14	1.145961E-16
3.712832E+03	2.031416E-14	1.143610E-16
3.714328E+03	2.028669E-14	1.142063E-16
3.715825E+03	2.032563E-14	1.144256E-16
3.717322E+03	2.036627E-14	1.146544E-16
3.718819E+03	2.037159E-14	1.146843E-16
3.720315E+03	2.041056E-14	1.149037E-16
3.721812E+03	2.044701E-14	1.151089E-16
3.723309E+03	2.045487E-14	1.151531E-16
3.724805E+03	2.052162E-14	1.155289E-16
3.726302E+03	2.059260E-14	1.159285E-16
3.727799E+03	2.066107E-14	1.163140E-16
3.729296E+03	2.069588E-14	1.165100E-16
3.730792E+03	2.070713E-14	1.165733E-16
3.732289E+03	2.072260E-14	1.166604E-16
3.733786E+03	2.075155E-14	1.168233E-16
3.735282E+03	2.077544E-14	1.169578E-16
3.736779E+03	2.081113E-14	1.171587E-16
3.738276E+03	2.086788E-14	1.174782E-16
3.739773E+03	2.091959E-14	1.177693E-16
3.741269E+03	2.096289E-14	1.180131E-16
3.742766E+03	2.100535E-14	1.182521E-16
3.744263E+03	2.106214E-14	1.185718E-16
3.745759E+03	2.112064E-14	1.189012E-16
3.747256E+03	2.115217E-14	1.190787E-16
3.748753E+03	2.115591E-14	1.190997E-16
3.750249E+03	2.116892E-14	1.191730E-16
3.751746E+03	2.121902E-14	1.194550E-16
3.753243E+03	2.125649E-14	1.196659E-16
3.754740E+03	2.125687E-14	1.196681E-16
3.756236E+03	2.127581E-14	1.197747E-16
3.757733E+03	2.132088E-14	1.200284E-16
3.759230E+03	2.134572E-14	1.201683E-16
3.760726E+03	2.136636E-14	1.202845E-16
3.762223E+03	2.140471E-14	1.205004E-16
3.763720E+03	2.144139E-14	1.207068E-16
3.765217E+03	2.148397E-14	1.209466E-16
3.766713E+03	2.153754E-14	1.212482E-16
3.768210E+03	2.160546E-14	1.216305E-16
3.769707E+03	2.163374E-14	1.217897E-16
3.771203E+03	2.166455E-14	1.219632E-16
3.772700E+03	2.168693E-14	1.220891E-16
3.774197E+03	2.166373E-14	1.219586E-16
3.775693E+03	2.164728E-14	1.218660E-16
3.777190E+03	2.167727E-14	1.220348E-16
3.778687E+03	2.169122E-14	1.221133E-16
3.780184E+03	2.171024E-14	1.222204E-16
3.781680E+03	2.171407E-14	1.222419E-16
3.783177E+03	2.170692E-14	1.222017E-16
3.784674E+03	2.173017E-14	1.223326E-16
3.786170E+03	2.176779E-14	1.225444E-16
3.787667E+03	2.178852E-14	1.226611E-16
3.789164E+03	2.181096E-14	1.227874E-16
3.790661E+03	2.179452E-14	1.226949E-16
3.792157E+03	2.177132E-14	1.225642E-16
3.793654E+03	2.174474E-14	1.224146E-16
3.795151E+03	2.170209E-14	1.221745E-16
3.796647E+03	2.166620E-14	1.219724E-16
3.798144E+03	2.164298E-14	1.218417E-16
3.799641E+03	2.164174E-14	1.218348E-16
3.801137E+03	2.163966E-14	1.218231E-16
3.802634E+03	2.160545E-14	1.216305E-16
3.804131E+03	2.157038E-14	1.214331E-16
3.805628E+03	2.156576E-14	1.214070E-16
3.807124E+03	2.155691E-14	1.213572E-16
3.808621E+03	2.153621E-14	1.212407E-16
3.810118E+03	2.153836E-14	1.212527E-16
3.811614E+03	2.156589E-14	1.214077E-16
3.813111E+03	2.158751E-14	1.215295E-16
3.814608E+03	2.159304E-14	1.215606E-16
3.816105E+03	2.156473E-14	1.214012E-16
3.817601E+03	2.153726E-14	1.212466E-16
3.819098E+03	2.153603E-14	1.212396E-16
3.820595E+03	2.154241E-14	1.212756E-16
3.822091E+03	2.156744E-14	1.214165E-16
3.823588E+03	2.160008E-14	1.216002E-16
3.825085E+03	2.159293E-14	1.215600E-16
3.826582E+03	2.157646E-14	1.214673E-16
3.828078E+03	2.157778E-14	1.214747E-16
3.829575E+03	2.159351E-14	1.215632E-16
3.831072E+03	2.162702E-14	1.217519E-16
3.832568E+03	2.166310E-14	1.219550E-16
3.834065E+03	2.169155E-14	1.221152E-16
3.835562E+03	2.171407E-14	1.222420E-16
3.837058E+03	2.173237E-14	1.223450E-16
3.838555E+03	2.174558E-14	1.224193E-16
3.840052E+03	2.177829E-14	1.226035E-16
3.841549E+03	2.182883E-14	1.228880E-16
3.843045E+03	2.187767E-14	1.231629E-16
3.844542E+03	2.191041E-14	1.233473E-16
3.846039E+03	2.193722E-14	1.234982E-16
3.847535E+03	2.198270E-14	1.237542E-16
3.849032E+03	2.201801E-14	1.239530E-16
3.850529E+03	2.206860E-14	1.242378E-16
3.852026E+03	2.214042E-14	1.246421E-16
3.853522E+03	2.220376E-14	1.249987E-16
3.855019E+03	2.229343E-14	1.255035E-16
3.856516E+03	2.238142E-14	1.259989E-16
3.858012E+03	2.246773E-14	1.264848E-16
3.859509E+03	2.255830E-14	1.269946E-16
3.861006E+03	2.265738E-14	1.275524E-16
3.862502E+03	2.275479E-14	1.281008E-16
3.863999E+03	2.285816E-14	1.286828E-16
3.865496E+03	2.297429E-14	1.293365E-16
3.866993E+03	2.308366E-14	1.299522E-16
3.868489E+03	2.318794E-14	1.305393E-16
3.869986E+03	2.329991E-14	1.311696E-16
3.871483E+03	2.338979E-14	1.316756E-16
3.872979E+03	2.348141E-14	1.321914E-16
3.874476E+03	2.360108E-14	1.328651E-16
3.875973E+03	2.367488E-14	1.332806E-16
3.877470E+03	2.374361E-14	1.336675E-16
3.878966E+03	2.380469E-14	1.340114E-16
3.880463E+03	2.386665E-14	1.343601E-16
3.881960E+03	2.393286E-14	1.347329E-16
3.883456E+03	2.403310E-14	1.352972E-16
3.884953E+03	2.412146E-14	1.357946E-16
3.886450E+03	2.420219E-14	1.362491E-16
3.887947E+03	2.426337E-14	1.365935E-16
3.889443E+03	2.431009E-14	1.368566E-16
3.890940E+03	2.436960E-14	1.371915E-16
3.892437E+03	2.442996E-14	1.375314E-16
3.893933E+03	2.449034E-14	1.378713E-16
3.895430E+03	2.454393E-14	1.381730E-16
3.896927E+03	2.458136E-14	1.383837E-16
3.898423E+03	2.462135E-14	1.386088E-16
3.899920E+03	2.468944E-14	1.389922E-16
3.901417E+03	2.475159E-14	1.393420E-16
3.902914E+03	2.477969E-14	1.395002E-16
3.904410E+03	2.483079E-14	1.397879E-16
3.905907E+03	2.490404E-14	1.402003E-16
3.907404E+03	2.495516E-14	1.404881E-16
3.908900E+03	2.499012E-14	1.406848E-16
3.910397E+03	2.504893E-14	1.410160E-16
3.911894E+03	2.511628E-14	1.413951E-16
3.913391E+03	2.516831E-14	1.416880E-16
3.914887E+03	2.521693E-14	1.419617E-16
3.916384E+03	2.526301E-14	1.422211E-16
3.917881E+03	2.531933E-14	1.425382E-16
3.919377E+03	2.534924E-14	1.427066E-16
3.920874E+03	2.539535E-14	1.429662E-16
3.922371E+03	2.544829E-14	1.432642E-16
3.923867E+03	2.550210E-14	1.435671E-16
3.925364E+03	2.556359E-14	1.439133E-16
3.926861E+03	2.561232E-14	1.441876E-16
3.928358E+03	2.567042E-14	1.445147E-16
3.929854E+03	2.573964E-14	1.449044E-16
3.931351E+03	2.579692E-14	1.452268E-16
3.932848E+03	2.585080E-14	1.455301E-16
3.934344E+03	2.591066E-14	1.458672E-16
3.935841E+03	2.596628E-14	1.461803E-16
3.937338E+03	2.603215E-14	1.465511E-16
3.938835E+03	2.609120E-14	1.468835E-16
3.940331E+03	2.614344E-14	1.471776E-16
3.941828E+03	2.620166E-14	1.475054E-16
3.943325E+03	2.626161E-14	1.478428E-16
3.944821E+03	2.631559E-14	1.481467E-16
3.946318E+03	2.636702E-14	1.484363E-16
3.947815E+03	2.642273E-14	1.487499E-16
3.949312E+03	2.648956E-14	1.491261E-16
3.950808E+03	2.654274E-14	1.494255E-16
3.952305E+03	2.656859E-14	1.495710E-16
3.953802E+03	2.660640E-14	1.497839E-16
3.955298E+03	2.665875E-14	1.500786E-16
3.956795E+03	2.670428E-14	1.503349E-16
3.958292E+03	2.675323E-14	1.506105E-16
3.959788E+03	2.680818E-14	1.509199E-16
3.961285E+03	2.686570E-14	1.512437E-16
3.962782E+03	2.692410E-14	1.515724E-16
3.964279E+03	2.697994E-14	1.518868E-16
3.965775E+03	2.702981E-14	1.521675E-16
3.967272E+03	2.708567E-14	1.524820E-16
3.968769E+03	2.712786E-14	1.527195E-16
3.970265E+03	2.716921E-14	1.529523E-16
3.971762E+03	2.720115E-14	1.531321E-16
3.973259E+03	2.722967E-14	1.532927E-16
3.974756E+03	2.725649E-14	1.534437E-16
3.976252E+03	2.727989E-14	1.535754E-16
3.977749E+03	2.731015E-14	1.537457E-16
3.979246E+03	2.733613E-14	1.538920E-16
3.980742E+03	2.737068E-14	1.540865E-16
3.982239E+03	2.738384E-14	1.541606E-16
3.983736E+03	2.738928E-14	1.541912E-16
3.985232E+03	2.739730E-14	1.542364E-16
3.986729E+03	2.740018E-14	1.542526E-16
3.988226E+03	2.739107E-14	1.542013E-16
3.989723E+03	2.737425E-14	1.541066E-16
3.991219E+03	2.735229E-14	1.539830E-16
3.992716E+03	2.732432E-14	1.538255E-16
3.994213E+03	2.728863E-14	1.536246E-16
3.995709E+03	2.726580E-14	1.534961E-16
3.997206E+03	2.724552E-14	1.533819E-16
3.998703E+03	2.722696E-14	1.532774E-16
4.000200E+03	2.720582E-14	1.531584E-16
4.001696E+03	2.719068E-14	1.530732E-16
4.003193E+03	2.717726E-14	1.529976E-16
4.004690E+03	2.716553E-14	1.529316E-16
4.006186E+03	2.714353E-14	1.528077E-16
4.007683E+03	2.711551E-14	1.526500E-16
4.009180E+03	2.710206E-14	1.525743E-16
4.010677E+03	2.709290E-14	1.525227E-16
4.012173E+03	2.708803E-14	1.524953E-16
4.013670E+03	2.707801E-14	1.524389E-16
4.015167E+03	2.706799E-14	1.523825E-16
4.016663E+03	2.705797E-14	1.523260E-16
4.018160E+03	2.704365E-14	1.522454E-16
4.019657E+03	2.703533E-14	1.521986E-16
4.021153E+03	2.703045E-14	1.521711E-16
4.022650E+03	2.700668E-14	1.520373E-16
4.024147E+03	2.698290E-14	1.519034E-16
4.025644E+03	2.698487E-14	1.519146E-16
4.027140E+03	2.699974E-14	1.519982E-16
4.028637E+03	2.699141E-14	1.519514E-16
4.030134E+03	2.699081E-14	1.519480E-16
4.031630E+03	2.698936E-14	1.519398E-16
4.033127E+03	2.700852E-14	1.520477E-16
4.034624E+03	2.701565E-14	1.520878E-16
4.036121E+03	2.703139E-14	1.521764E-16
4.037617E+03	2.704883E-14	1.522746E-16
4.039114E+03	2.706801E-14	1.523826E-16
4.040611E+03	2.708461E-14	1.524760E-16
4.042107E+03	2.709949E-14	1.525598E-16
4.043604E+03	2.712899E-14	1.527259E-16
4.045101E+03	2.715333E-14	1.528629E-16
4.046597E+03	2.718715E-14	1.530533E-16
4.048094E+03	2.722527E-14	1.532679E-16
4.049591E+03	2.726511E-14	1.534922E-16
4.051088E+03	2.731529E-14	1.537746E-16
4.052584E+03	2.736117E-14	1.540330E-16
4.054081E+03	2.740448E-14	1.542768E-16
4.055578E+03	2.745469E-14	1.545594E-16
4.057074E+03	2.749887E-14	1.548082E-16
4.058571E+03	2.755254E-14	1.551103E-16
4.060068E+03	2.762516E-14	1.555191E-16
4.061565E+03	2.769348E-14	1.559037E-16
4.063061E+03	2.776267E-14	1.562933E-16
4.064558E+03	2.783619E-14	1.567071E-16
4.066055E+03	2.790111E-14	1.570726E-16
4.067551E+03	2.796604E-14	1.574381E-16
4.069048E+03	2.803357E-14	1.578183E-16
4.070545E+03	2.809507E-14	1.581645E-16
4.072042E+03	2.815142E-14	1.584818E-16
4.073538E+03	2.821295E-14	1.588282E-16
4.075035E+03	2.828140E-14	1.592135E-16
4.076532E+03	2.835846E-14	1.596473E-16
4.078028E+03	2.843382E-14	1.600716E-16
4.079525E+03	2.850919E-14	1.604959E-16
4.081022E+03	2.858371E-14	1.609154E-16
4.082518E+03	2.864963E-14	1.612865E-16
4.084015E+03	2.871987E-14	1.616819E-16
4.085512E+03	2.879098E-14	1.620823E-16
4.087009E+03	2.886470E-14	1.624973E-16
4.088505E+03	2.893584E-14	1.628978E-16
4.090002E+03	2.898542E-14	1.631769E-16
4.091499E+03	2.903502E-14	1.634561E-16
4.092995E+03	2.909326E-14	1.637839E-16
4.094492E+03	2.913682E-14	1.640292E-16
4.095989E+03	2.917868E-14	1.642648E-16
4.097486E+03	2.923176E-14	1.645637E-16
4.098982E+03	2.928657E-14	1.648722E-16
4.100479E+03	2.932327E-14	1.650789E-16
4.101976E+03	2.936602E-14	1.653195E-16
4.103472E+03	2.941913E-14	1.656185E-16
4.104969E+03	2.945066E-14	1.657960E-16
4.106466E+03	2.947615E-14	1.659395E-16
4.107962E+03	2.951115E-14	1.661365E-16
4.109459E+03	2.953578E-14	1.662752E-16
4.110956E+03	2.956561E-14	1.664431E-16
4.112453E+03	2.959975E-14	1.666353E-16
