#wls	flux	fluxerr
1.596488E+03	9.138620E-17	8.717730E-19
1.636400E+03	8.583548E-17	8.175218E-19
1.676312E+03	8.050917E-17	7.655418E-19
1.716224E+03	7.544646E-17	7.162000E-19
1.756136E+03	7.064925E-17	6.695074E-19
1.796049E+03	6.611692E-17	6.254503E-19
1.835961E+03	6.183462E-17	5.838804E-19
1.875873E+03	5.778979E-17	5.446712E-19
1.915785E+03	5.396180E-17	5.076208E-19
1.955697E+03	5.035769E-17	4.727882E-19
1.995610E+03	4.700026E-17	4.403790E-19
2.035522E+03	4.399269E-17	4.113482E-19
2.075434E+03	4.149588E-17	3.871805E-19
2.115346E+03	3.973908E-17	3.699831E-19
2.155258E+03	3.892076E-17	3.615569E-19
2.195171E+03	3.913210E-17	3.626895E-19
2.235083E+03	4.034794E-17	3.730821E-19
2.274995E+03	4.249584E-17	3.919989E-19
2.314907E+03	4.554315E-17	4.190737E-19
2.354819E+03	4.955241E-17	4.548144E-19
2.394732E+03	5.469756E-17	5.007398E-19
2.434644E+03	6.125831E-17	5.593144E-19
2.474556E+03	6.958838E-17	6.336449E-19
2.514468E+03	8.010932E-17	7.274140E-19
2.554380E+03	9.323082E-17	8.441466E-19
2.594293E+03	1.092366E-16	9.861799E-19
2.634205E+03	1.281074E-16	1.153085E-18
2.674117E+03	1.493722E-16	1.340372E-18
2.714029E+03	1.720086E-16	1.538659E-18
2.753941E+03	1.945574E-16	1.734780E-18
2.793854E+03	2.154530E-16	1.914789E-18
2.833766E+03	2.334093E-16	2.067404E-18
2.873678E+03	2.477087E-16	2.186520E-18
2.913590E+03	2.581361E-16	2.270556E-18
2.953502E+03	2.647488E-16	2.320353E-18
2.993414E+03	2.675637E-16	2.336410E-18
3.003393E+03	2.676730E-16	2.335185E-18
3.013371E+03	2.675600E-16	2.332011E-18
3.023349E+03	2.671994E-16	2.326673E-18
3.033327E+03	2.666118E-16	2.319357E-18
3.043305E+03	2.657892E-16	2.309997E-18
3.053283E+03	2.647751E-16	2.298979E-18
3.063261E+03	2.635469E-16	2.286111E-18
3.073239E+03	2.621349E-16	2.271661E-18
3.083217E+03	2.605336E-16	2.255587E-18
3.093195E+03	2.587532E-16	2.237980E-18
3.103173E+03	2.568062E-16	2.218955E-18
3.113151E+03	2.547197E-16	2.198749E-18
3.123129E+03	2.525001E-16	2.177422E-18
3.133107E+03	2.501689E-16	2.155162E-18
3.143085E+03	2.477614E-16	2.132278E-18
3.153063E+03	2.452938E-16	2.108908E-18
3.163041E+03	2.427967E-16	2.085320E-18
3.173019E+03	2.403143E-16	2.061892E-18
3.182997E+03	2.378828E-16	2.038935E-18
3.192975E+03	2.355313E-16	2.016698E-18
3.202954E+03	2.333126E-16	1.995630E-18
3.212932E+03	2.312623E-16	1.976031E-18
3.222910E+03	2.294388E-16	1.958397E-18
3.232888E+03	2.278936E-16	1.943160E-18
3.242866E+03	2.266815E-16	1.930779E-18
3.252844E+03	2.258511E-16	1.921660E-18
3.262822E+03	2.254830E-16	1.916477E-18
3.272800E+03	2.256245E-16	1.915619E-18
3.282778E+03	2.263553E-16	1.919749E-18
3.292756E+03	2.277514E-16	1.929494E-18
3.302734E+03	2.298950E-16	1.945530E-18
3.312712E+03	2.328852E-16	1.968675E-18
3.322690E+03	2.368025E-16	1.999585E-18
3.332668E+03	2.417751E-16	2.039315E-18
3.342646E+03	2.479072E-16	2.088712E-18
3.352624E+03	2.553552E-16	2.149059E-18
3.362602E+03	2.642750E-16	2.221630E-18
3.372580E+03	2.748226E-16	2.307691E-18
3.382558E+03	2.872165E-16	2.409028E-18
3.392536E+03	3.016817E-16	2.527471E-18
3.402514E+03	3.184597E-16	2.664982E-18
3.412493E+03	3.378433E-16	2.823938E-18
3.422471E+03	3.601322E-16	3.006765E-18
3.432449E+03	3.856796E-16	3.216322E-18
3.442427E+03	4.148385E-16	3.455453E-18
3.452405E+03	4.480089E-16	3.727375E-18
3.462383E+03	4.855875E-16	4.035267E-18
3.472361E+03	5.279658E-16	4.382243E-18
3.482339E+03	5.755092E-16	4.771187E-18
3.492317E+03	6.285281E-16	5.204512E-18
3.502295E+03	6.872212E-16	5.683694E-18
3.512273E+03	7.517206E-16	6.209649E-18
3.522251E+03	8.219148E-16	6.781276E-18
3.532229E+03	8.974504E-16	7.395488E-18
3.542207E+03	9.777779E-16	8.047591E-18
3.552185E+03	1.061981E-15	8.729907E-18
3.562163E+03	1.148737E-15	9.431440E-18
3.572141E+03	1.236507E-15	1.013949E-17
3.582119E+03	1.323542E-15	1.083970E-17
3.592097E+03	1.408013E-15	1.151712E-17
3.602075E+03	1.488554E-15	1.216067E-17
3.612053E+03	1.564067E-15	1.276148E-17
3.622032E+03	1.633934E-15	1.331468E-17
3.632010E+03	1.697649E-15	1.381632E-17
3.641988E+03	1.755016E-15	1.426500E-17
3.651966E+03	1.805931E-15	1.466005E-17
3.661944E+03	1.850494E-15	1.500250E-17
3.671922E+03	1.889019E-15	1.529506E-17
3.681900E+03	1.921872E-15	1.554091E-17
3.691878E+03	1.949659E-15	1.574509E-17
3.701856E+03	1.973268E-15	1.591494E-17
3.711834E+03	1.993763E-15	1.605915E-17
3.721812E+03	2.012589E-15	1.618945E-17
3.731790E+03	2.031583E-15	1.632064E-17
3.741768E+03	2.052753E-15	1.646883E-17
3.751746E+03	2.078408E-15	1.665244E-17
3.761724E+03	2.110829E-15	1.688960E-17
3.771702E+03	2.152338E-15	1.719861E-17
3.781680E+03	2.205147E-15	1.759685E-17
3.791658E+03	2.271325E-15	1.810044E-17
3.801636E+03	2.352542E-15	1.872223E-17
3.811614E+03	2.450126E-15	1.947228E-17
3.821592E+03	2.564959E-15	2.035705E-17
3.831571E+03	2.697124E-15	2.137663E-17
3.841549E+03	2.846251E-15	2.252752E-17
3.851527E+03	3.011013E-15	2.379866E-17
3.861505E+03	3.189382E-15	2.517353E-17
3.871483E+03	3.378636E-15	2.663020E-17
3.881461E+03	3.575493E-15	2.814249E-17
3.891439E+03	3.776296E-15	2.968138E-17
3.901417E+03	3.977220E-15	3.121672E-17
3.911395E+03	4.174456E-15	3.271863E-17
3.921373E+03	4.364348E-15	3.415861E-17
3.931351E+03	4.543477E-15	3.551018E-17
3.941329E+03	4.708600E-15	3.674836E-17
3.951307E+03	4.856975E-15	3.785227E-17
3.961285E+03	4.986020E-15	3.880234E-17
3.971263E+03	5.093797E-15	3.958418E-17
3.981241E+03	5.178838E-15	4.018709E-17
3.991219E+03	5.240283E-15	4.060518E-17
4.001197E+03	5.278233E-15	4.084001E-17
4.011175E+03	5.293834E-15	4.090124E-17
4.021153E+03	5.288858E-15	4.080329E-17
4.031132E+03	5.266332E-15	4.057018E-17
4.041110E+03	5.229603E-15	4.022825E-17
4.051088E+03	5.182482E-15	3.980726E-17
4.061066E+03	5.128863E-15	3.933743E-17
4.071044E+03	5.072371E-15	3.884675E-17
4.081022E+03	5.016566E-15	3.836255E-17
4.091000E+03	4.964082E-15	3.790492E-17
4.100978E+03	4.917535E-15	3.749369E-17
4.110956E+03	4.878868E-15	3.714348E-17
4.120934E+03	4.849521E-15	3.686494E-17
4.130912E+03	4.830668E-15	3.666669E-17
4.140890E+03	4.823202E-15	3.655514E-17
4.150868E+03	4.827785E-15	3.653491E-17
4.160846E+03	4.844831E-15	3.660871E-17
4.170824E+03	4.874475E-15	3.677716E-17
4.180802E+03	4.916479E-15	3.703802E-17
4.190780E+03	4.970403E-15	3.738757E-17
4.200758E+03	5.035803E-15	3.782207E-17
4.210736E+03	5.112286E-15	3.833818E-17
4.220714E+03	5.199345E-15	3.893173E-17
4.230692E+03	5.296799E-15	3.960100E-17
4.240671E+03	5.404657E-15	4.034572E-17
4.250649E+03	5.523235E-15	4.116788E-17
4.260627E+03	5.653237E-15	4.207237E-17
4.270605E+03	5.795691E-15	4.306644E-17
4.280583E+03	5.952376E-15	4.416286E-17
4.290561E+03	6.125101E-15	4.537456E-17
4.300539E+03	6.315422E-15	4.671250E-17
4.310517E+03	6.524535E-15	4.818493E-17
4.320495E+03	6.752095E-15	4.978866E-17
4.330473E+03	6.995202E-15	5.150174E-17
4.340451E+03	7.247580E-15	5.327750E-17
4.350429E+03	7.498040E-15	5.503352E-17
4.360407E+03	7.730277E-15	5.665038E-17
4.370385E+03	7.923477E-15	5.797644E-17
4.380363E+03	8.055270E-15	5.884959E-17
4.390341E+03	8.129623E-15	5.930087E-17
4.400319E+03	8.176870E-15	5.955317E-17
4.410297E+03	8.225093E-15	5.981162E-17
4.420275E+03	8.294872E-15	6.022563E-17
4.430253E+03	8.400262E-15	6.089637E-17
4.440231E+03	8.549486E-15	6.188217E-17
4.450210E+03	8.746549E-15	6.321050E-17
4.460188E+03	8.991659E-15	6.488130E-17
4.470166E+03	9.281953E-15	6.687233E-17
4.480144E+03	9.612254E-15	6.914488E-17
4.490122E+03	9.975852E-15	7.164944E-17
4.500100E+03	1.036390E-14	7.432152E-17
4.510078E+03	1.076577E-14	7.708416E-17
4.520056E+03	1.116975E-14	7.985337E-17
4.530034E+03	1.156349E-14	8.254077E-17
4.540012E+03	1.193376E-14	8.505251E-17
4.549990E+03	1.226712E-14	8.729377E-17
4.559968E+03	1.255200E-14	8.918362E-17
4.569946E+03	1.277785E-14	9.064871E-17
4.579924E+03	1.293659E-14	9.163389E-17
4.589902E+03	1.302396E-14	9.211111E-17
4.599880E+03	1.303943E-14	9.207912E-17
4.609858E+03	1.298636E-14	9.156379E-17
4.619836E+03	1.287271E-14	9.062343E-17
4.629814E+03	1.270904E-14	8.933429E-17
4.639792E+03	1.250807E-14	8.778719E-17
4.649771E+03	1.228330E-14	8.607795E-17
4.659749E+03	1.204777E-14	8.429850E-17
4.669727E+03	1.181332E-14	8.253192E-17
4.679705E+03	1.158934E-14	8.084373E-17
4.689683E+03	1.138319E-14	7.928480E-17
4.699661E+03	1.119963E-14	7.788758E-17
4.709639E+03	1.104153E-14	7.667137E-17
4.719617E+03	1.091020E-14	7.564434E-17
4.729595E+03	1.080584E-14	7.480711E-17
4.739573E+03	1.072820E-14	7.415708E-17
4.749551E+03	1.067762E-14	7.369565E-17
4.759529E+03	1.065362E-14	7.341877E-17
4.769507E+03	1.065479E-14	7.331588E-17
4.779485E+03	1.067763E-14	7.336214E-17
4.789463E+03	1.071739E-14	7.352435E-17
4.799441E+03	1.076744E-14	7.375648E-17
4.809419E+03	1.081935E-14	7.400058E-17
4.819397E+03	1.086429E-14	7.419634E-17
4.829375E+03	1.089559E-14	7.429843E-17
4.839353E+03	1.090930E-14	7.428049E-17
4.849331E+03	1.090465E-14	7.413772E-17
4.859310E+03	1.088312E-14	7.388080E-17
4.869288E+03	1.084729E-14	7.352771E-17
4.879266E+03	1.080131E-14	7.310697E-17
4.889244E+03	1.075011E-14	7.265227E-17
4.899222E+03	1.069781E-14	7.219145E-17
4.909200E+03	1.064828E-14	7.175074E-17
4.919178E+03	1.060407E-14	7.134708E-17
4.929156E+03	1.056553E-14	7.098283E-17
4.939134E+03	1.053201E-14	7.065333E-17
4.949112E+03	1.050183E-14	7.034725E-17
4.959090E+03	1.047202E-14	7.004455E-17
4.969068E+03	1.044088E-14	6.973396E-17
4.979046E+03	1.040898E-14	6.941926E-17
4.989024E+03	1.037857E-14	6.911554E-17
4.999002E+03	1.035439E-14	6.885414E-17
5.008980E+03	1.034332E-14	6.868072E-17
5.018958E+03	1.035362E-14	6.864957E-17
5.028936E+03	1.039339E-14	6.881376E-17
5.038914E+03	1.046829E-14	6.920985E-17
5.048892E+03	1.058114E-14	6.985550E-17
5.058870E+03	1.073188E-14	7.074923E-17
5.068849E+03	1.091720E-14	7.186821E-17
5.078827E+03	1.113043E-14	7.316762E-17
5.088805E+03	1.136326E-14	7.459223E-17
5.098783E+03	1.160760E-14	7.608837E-17
5.108761E+03	1.185593E-14	7.760671E-17
5.118739E+03	1.210274E-14	7.911112E-17
5.128717E+03	1.234524E-14	8.058340E-17
5.138695E+03	1.258251E-14	8.201772E-17
5.148673E+03	1.281589E-14	8.342304E-17
5.158651E+03	1.304729E-14	8.481197E-17
5.168629E+03	1.327666E-14	8.618418E-17
5.178607E+03	1.350400E-14	8.753982E-17
5.188585E+03	1.372935E-14	8.887931E-17
5.198563E+03	1.395299E-14	9.020448E-17
5.208541E+03	1.417636E-14	9.152470E-17
5.218519E+03	1.440208E-14	9.285701E-17
5.228497E+03	1.463378E-14	9.422473E-17
5.238475E+03	1.487529E-14	9.565245E-17
5.248453E+03	1.512889E-14	9.715451E-17
5.258431E+03	1.539401E-14	9.872703E-17
5.268409E+03	1.566722E-14	1.003479E-16
5.278388E+03	1.594353E-14	1.019850E-16
5.288366E+03	1.621412E-14	1.035820E-16
5.298344E+03	1.646967E-14	1.050796E-16
5.308322E+03	1.670307E-14	1.064330E-16
5.318300E+03	1.690919E-14	1.076100E-16
5.328278E+03	1.708492E-14	1.085918E-16
5.338256E+03	1.722988E-14	1.093767E-16
5.348234E+03	1.734740E-14	1.099865E-16
5.358212E+03	1.744175E-14	1.104489E-16
5.368190E+03	1.751754E-14	1.107939E-16
5.378168E+03	1.758224E-14	1.110688E-16
5.388146E+03	1.764072E-14	1.113049E-16
5.398124E+03	1.769023E-14	1.114849E-16
5.408102E+03	1.771994E-14	1.115409E-16
5.418080E+03	1.771229E-14	1.113630E-16
5.428058E+03	1.764765E-14	1.108287E-16
5.438036E+03	1.751070E-14	1.098433E-16
5.448014E+03	1.729816E-14	1.083876E-16
5.457992E+03	1.703435E-14	1.066154E-16
5.467970E+03	1.677947E-14	1.049042E-16
5.477949E+03	1.662115E-14	1.038010E-16
5.487927E+03	1.662067E-14	1.036861E-16
5.497905E+03	1.670736E-14	1.041159E-16
5.507883E+03	1.681939E-14	1.047038E-16
5.517861E+03	1.691610E-14	1.051965E-16
5.527839E+03	1.698303E-14	1.055044E-16
5.537817E+03	1.702076E-14	1.056318E-16
5.547795E+03	1.703227E-14	1.055976E-16
5.557773E+03	1.702123E-14	1.054250E-16
5.567751E+03	1.698726E-14	1.051121E-16
5.577729E+03	1.692578E-14	1.046309E-16
5.587707E+03	1.682872E-14	1.039321E-16
5.597685E+03	1.668765E-14	1.029642E-16
5.607663E+03	1.649645E-14	1.016902E-16
5.617641E+03	1.625607E-14	1.001168E-16
5.627619E+03	1.597349E-14	9.828753E-17
5.637597E+03	1.566198E-14	9.628482E-17
5.647575E+03	1.534138E-14	9.423073E-17
5.657553E+03	1.503317E-14	9.225730E-17
5.667531E+03	1.475685E-14	9.048373E-17
5.677509E+03	1.452773E-14	8.900326E-17
5.687488E+03	1.435577E-14	8.787605E-17
5.697466E+03	1.424554E-14	8.712909E-17
5.707444E+03	1.419609E-14	8.675562E-17
5.717422E+03	1.420234E-14	8.672372E-17
5.727400E+03	1.425809E-14	8.699463E-17
5.737378E+03	1.435755E-14	8.753241E-17
5.747356E+03	1.449573E-14	8.830597E-17
5.757334E+03	1.466803E-14	8.928687E-17
5.767312E+03	1.487165E-14	9.045749E-17
5.777290E+03	1.510248E-14	9.179250E-17
5.787268E+03	1.535205E-14	9.324010E-17
5.797246E+03	1.560579E-14	9.471165E-17
5.807224E+03	1.584477E-14	9.609226E-17
5.817202E+03	1.605040E-14	9.726962E-17
5.827180E+03	1.620749E-14	9.815207E-17
5.837158E+03	1.630700E-14	9.868556E-17
5.847136E+03	1.635009E-14	9.887785E-17
5.857114E+03	1.634939E-14	9.880602E-17
5.867092E+03	1.632389E-14	9.858523E-17
5.877070E+03	1.629103E-14	9.832104E-17
5.887048E+03	1.626028E-14	9.807064E-17
5.897027E+03	1.623389E-14	9.784751E-17
5.907005E+03	1.620995E-14	9.764014E-17
5.916983E+03	1.618260E-14	9.741317E-17
5.926961E+03	1.614363E-14	9.711726E-17
5.936939E+03	1.608653E-14	9.671337E-17
5.946917E+03	1.600796E-14	9.618162E-17
5.956895E+03	1.590759E-14	9.552029E-17
5.966873E+03	1.578760E-14	9.474258E-17
5.976851E+03	1.565314E-14	9.387966E-17
5.986829E+03	1.551125E-14	9.297384E-17
5.996807E+03	1.537060E-14	9.207706E-17
6.006785E+03	1.524142E-14	9.125051E-17
6.016763E+03	1.513377E-14	9.055440E-17
6.026741E+03	1.505673E-14	9.004262E-17
6.036719E+03	1.501784E-14	8.976001E-17
6.046697E+03	1.502070E-14	8.972758E-17
6.056675E+03	1.506457E-14	8.994062E-17
6.066653E+03	1.514357E-14	9.036357E-17
6.076631E+03	1.524910E-14	9.094483E-17
6.086609E+03	1.537203E-14	9.162974E-17
6.096588E+03	1.550474E-14	9.237266E-17
6.106566E+03	1.564201E-14	9.314256E-17
6.116544E+03	1.577974E-14	9.391491E-17
6.126522E+03	1.591481E-14	9.467119E-17
6.136500E+03	1.604376E-14	9.539090E-17
6.146478E+03	1.615890E-14	9.602834E-17
6.156456E+03	1.624441E-14	9.648971E-17
6.166434E+03	1.628244E-14	9.666934E-17
6.176412E+03	1.626017E-14	9.649147E-17
6.186390E+03	1.617314E-14	9.593017E-17
6.196368E+03	1.602467E-14	9.500571E-17
6.206346E+03	1.582399E-14	9.377323E-17
6.216324E+03	1.558720E-14	9.232854E-17
6.226302E+03	1.533261E-14	9.078024E-17
6.236280E+03	1.507847E-14	8.923652E-17
6.246258E+03	1.484217E-14	8.780013E-17
6.256236E+03	1.463954E-14	8.656461E-17
6.266214E+03	1.447977E-14	8.558395E-17
6.276192E+03	1.436365E-14	8.486251E-17
6.286170E+03	1.428831E-14	8.438300E-17
6.296148E+03	1.425052E-14	8.412610E-17
6.306127E+03	1.424812E-14	8.407868E-17
6.316105E+03	1.428046E-14	8.423676E-17
6.326083E+03	1.434732E-14	8.459873E-17
6.336061E+03	1.444707E-14	8.515487E-17
6.346039E+03	1.457743E-14	8.589143E-17
6.356017E+03	1.473530E-14	8.679004E-17
6.365995E+03	1.491486E-14	8.781631E-17
6.375973E+03	1.510785E-14	8.892140E-17
6.385951E+03	1.530314E-14	9.003986E-17
6.395929E+03	1.548572E-14	9.108338E-17
6.405907E+03	1.563796E-14	9.194843E-17
6.415885E+03	1.574344E-14	9.253866E-17
6.425863E+03	1.578935E-14	9.277910E-17
6.435841E+03	1.576677E-14	9.261761E-17
6.445819E+03	1.567264E-14	9.203666E-17
6.455797E+03	1.551290E-14	9.107139E-17
6.465775E+03	1.530071E-14	8.979936E-17
6.475753E+03	1.505608E-14	8.833824E-17
6.485731E+03	1.480588E-14	8.684573E-17
6.495709E+03	1.458143E-14	8.550543E-17
6.505687E+03	1.441653E-14	8.451539E-17
6.515666E+03	1.434726E-14	8.408673E-17
6.525644E+03	1.437771E-14	8.424291E-17
6.535622E+03	1.446938E-14	8.475794E-17
6.545600E+03	1.458664E-14	8.542293E-17
6.555578E+03	1.470152E-14	8.607385E-17
6.565556E+03	1.479355E-14	8.659104E-17
6.575534E+03	1.485250E-14	8.691464E-17
6.585512E+03	1.487807E-14	8.704304E-17
6.595490E+03	1.487368E-14	8.699631E-17
6.605468E+03	1.484296E-14	8.679593E-17
6.615446E+03	1.478956E-14	8.646314E-17
6.625424E+03	1.471791E-14	8.602410E-17
6.635402E+03	1.463119E-14	8.549728E-17
6.645380E+03	1.453242E-14	8.490054E-17
6.655358E+03	1.442436E-14	8.424987E-17
6.665336E+03	1.430976E-14	8.356137E-17
6.675314E+03	1.419074E-14	8.284755E-17
6.685292E+03	1.406876E-14	8.211678E-17
6.695270E+03	1.394498E-14	8.137597E-17
6.705248E+03	1.381978E-14	8.062719E-17
6.715227E+03	1.369249E-14	7.986667E-17
6.725205E+03	1.356144E-14	7.908453E-17
6.735183E+03	1.342492E-14	7.827085E-17
6.745161E+03	1.328271E-14	7.742438E-17
6.755139E+03	1.313499E-14	7.654619E-17
6.765117E+03	1.298403E-14	7.564945E-17
6.775095E+03	1.283277E-14	7.475136E-17
6.785073E+03	1.268462E-14	7.387175E-17
6.795051E+03	1.254321E-14	7.303175E-17
6.805029E+03	1.241259E-14	7.225487E-17
6.815007E+03	1.229716E-14	7.156668E-17
6.824985E+03	1.220142E-14	7.099334E-17
6.834963E+03	1.212924E-14	7.055718E-17
6.844941E+03	1.208490E-14	7.028307E-17
6.854919E+03	1.207174E-14	7.019031E-17
6.864897E+03	1.209100E-14	7.028600E-17
6.874875E+03	1.214129E-14	7.056187E-17
6.884853E+03	1.221914E-14	7.099760E-17
6.894831E+03	1.231792E-14	7.155465E-17
6.904809E+03	1.242745E-14	7.217377E-17
6.914787E+03	1.253624E-14	7.278819E-17
6.924766E+03	1.263396E-14	7.333791E-17
6.934744E+03	1.271259E-14	7.377651E-17
6.944722E+03	1.276745E-14	7.407683E-17
6.954700E+03	1.279680E-14	7.422890E-17
6.964678E+03	1.280263E-14	7.424441E-17
6.974656E+03	1.278902E-14	7.414705E-17
6.984634E+03	1.276101E-14	7.396616E-17
6.994612E+03	1.272461E-14	7.373662E-17
7.004590E+03	1.268470E-14	7.348676E-17
7.014568E+03	1.264638E-14	7.324612E-17
7.024546E+03	1.261283E-14	7.303309E-17
7.034524E+03	1.258669E-14	7.286297E-17
7.044502E+03	1.256937E-14	7.274388E-17
7.054480E+03	1.256123E-14	7.267785E-17
7.064458E+03	1.256188E-14	7.266260E-17
7.074436E+03	1.257036E-14	7.269252E-17
7.084414E+03	1.258609E-14	7.276428E-17
7.094392E+03	1.260768E-14	7.286976E-17
7.104370E+03	1.263447E-14	7.300511E-17
7.114348E+03	1.266634E-14	7.316974E-17
7.124326E+03	1.270285E-14	7.336096E-17
7.134305E+03	1.274423E-14	7.358015E-17
7.144283E+03	1.279097E-14	7.383008E-17
7.154261E+03	1.284332E-14	7.411221E-17
7.164239E+03	1.290044E-14	7.442171E-17
7.174217E+03	1.296030E-14	7.474680E-17
7.184195E+03	1.301919E-14	7.506610E-17
7.194173E+03	1.307312E-14	7.535661E-17
7.204151E+03	1.311734E-14	7.559104E-17
7.214129E+03	1.314707E-14	7.574182E-17
7.224107E+03	1.315698E-14	7.577849E-17
7.234085E+03	1.314302E-14	7.567763E-17
7.244063E+03	1.310110E-14	7.541602E-17
7.254041E+03	1.302903E-14	7.498109E-17
7.264019E+03	1.292535E-14	7.436454E-17
7.273997E+03	1.279011E-14	7.356699E-17
7.283975E+03	1.262454E-14	7.259548E-17
7.293953E+03	1.243071E-14	7.146217E-17
7.303931E+03	1.221129E-14	7.018254E-17
7.313909E+03	1.196830E-14	6.876827E-17
7.323887E+03	1.170396E-14	6.723224E-17
7.333865E+03	1.141955E-14	6.558190E-17
7.343844E+03	1.111707E-14	6.382888E-17
7.353822E+03	1.079821E-14	6.198287E-17
7.363800E+03	1.046533E-14	6.005750E-17
7.373778E+03	1.012156E-14	5.807081E-17
7.383756E+03	9.770120E-15	5.604134E-17
7.393734E+03	9.415193E-15	5.399303E-17
7.403712E+03	9.060420E-15	5.194678E-17
7.413690E+03	8.709852E-15	4.992580E-17
7.423668E+03	8.366815E-15	4.794912E-17
7.433646E+03	8.034521E-15	4.603510E-17
7.443624E+03	7.716041E-15	4.420128E-17
7.453602E+03	7.414451E-15	4.246519E-17
7.463580E+03	7.133082E-15	4.084586E-17
7.473558E+03	6.875099E-15	3.936130E-17
7.483536E+03	6.644125E-15	3.803216E-17
7.493514E+03	6.443677E-15	3.687848E-17
7.503492E+03	6.277057E-15	3.591905E-17
7.513470E+03	6.146454E-15	3.516629E-17
7.523448E+03	6.053241E-15	3.462794E-17
7.533426E+03	5.997630E-15	3.430513E-17
7.543405E+03	5.979010E-15	3.419429E-17
7.553383E+03	5.995799E-15	3.428628E-17
7.563361E+03	6.046253E-15	3.457110E-17
7.573339E+03	6.128299E-15	3.503684E-17
7.583317E+03	6.240095E-15	3.567296E-17
7.593295E+03	6.379342E-15	3.646630E-17
7.603273E+03	6.543377E-15	3.740165E-17
7.613251E+03	6.729136E-15	3.846153E-17
7.623229E+03	6.932616E-15	3.962308E-17
7.633207E+03	7.148874E-15	4.085812E-17
7.643185E+03	7.371882E-15	4.213224E-17
7.653163E+03	7.594981E-15	4.340747E-17
7.663141E+03	7.811106E-15	4.464350E-17
7.673119E+03	8.013662E-15	4.580271E-17
7.683097E+03	8.197177E-15	4.685388E-17
7.693075E+03	8.358384E-15	4.777839E-17
7.703053E+03	8.496075E-15	4.856938E-17
7.713031E+03	8.611598E-15	4.923460E-17
7.723009E+03	8.708072E-15	4.979188E-17
7.732987E+03	8.789563E-15	5.026451E-17
7.742965E+03	8.860512E-15	5.067789E-17
