#wls	flux	fluxerr
1.596488E+03	2.595112E-17	7.571179E-19
1.636400E+03	2.532711E-17	7.378169E-19
1.676312E+03	2.469321E-17	7.182521E-19
1.716224E+03	2.405557E-17	6.986052E-19
1.756136E+03	2.341698E-17	6.789592E-19
1.796049E+03	2.277289E-17	6.591844E-19
1.835961E+03	2.211598E-17	6.390717E-19
1.875873E+03	2.143720E-17	6.183645E-19
1.915785E+03	2.072777E-17	5.968147E-19
1.955697E+03	1.998497E-17	5.743517E-19
1.995610E+03	1.921801E-17	5.512476E-19
2.035522E+03	1.846574E-17	5.286213E-19
2.075434E+03	1.780314E-17	5.086153E-19
2.115346E+03	1.733331E-17	4.941552E-19
2.155258E+03	1.714940E-17	4.878586E-19
2.195171E+03	1.728868E-17	4.907303E-19
2.235083E+03	1.771931E-17	5.018064E-19
2.274995E+03	1.836626E-17	5.189078E-19
2.314907E+03	1.915549E-17	5.399003E-19
2.354819E+03	2.003435E-17	5.632703E-19
2.394732E+03	2.097884E-17	5.883197E-19
2.434644E+03	2.198447E-17	6.149036E-19
2.474556E+03	2.305960E-17	6.432351E-19
2.514468E+03	2.421998E-17	6.737292E-19
2.554380E+03	2.548575E-17	7.069176E-19
2.594293E+03	2.688147E-17	7.434461E-19
2.634205E+03	2.843164E-17	7.839491E-19
2.674117E+03	3.016905E-17	8.292783E-19
2.714029E+03	3.212803E-17	8.803151E-19
2.753941E+03	3.435168E-17	9.381643E-19
2.793854E+03	3.688869E-17	1.004064E-18
2.833766E+03	3.979903E-17	1.079538E-18
2.873678E+03	4.315681E-17	1.166462E-18
2.913590E+03	4.704874E-17	1.267017E-18
2.953502E+03	5.158179E-17	1.383887E-18
2.993414E+03	5.688573E-17	1.520313E-18
3.003393E+03	5.835059E-17	1.557935E-18
3.013371E+03	5.987495E-17	1.597057E-18
3.023349E+03	6.146367E-17	1.637806E-18
3.033327E+03	6.312110E-17	1.680289E-18
3.043305E+03	6.484584E-17	1.724465E-18
3.053283E+03	6.664748E-17	1.770580E-18
3.063261E+03	6.853132E-17	1.818770E-18
3.073239E+03	7.050069E-17	1.869114E-18
3.083217E+03	7.255680E-17	1.921638E-18
3.093195E+03	7.470559E-17	1.976489E-18
3.103173E+03	7.695100E-17	2.033763E-18
3.113151E+03	7.929461E-17	2.093493E-18
3.123129E+03	8.174056E-17	2.155779E-18
3.133107E+03	8.429587E-17	2.220795E-18
3.143085E+03	8.696518E-17	2.288654E-18
3.153063E+03	8.975077E-17	2.359404E-18
3.163041E+03	9.265750E-17	2.433162E-18
3.173019E+03	9.569346E-17	2.510128E-18
3.182997E+03	9.886437E-17	2.590440E-18
3.192975E+03	1.021729E-16	2.674151E-18
3.202954E+03	1.056279E-16	2.761484E-18
3.212932E+03	1.092325E-16	2.852503E-18
3.222910E+03	1.129963E-16	2.947445E-18
3.232888E+03	1.169259E-16	3.046465E-18
3.242866E+03	1.210211E-16	3.149541E-18
3.252844E+03	1.252996E-16	3.257116E-18
3.262822E+03	1.297614E-16	3.369170E-18
3.272800E+03	1.344136E-16	3.485870E-18
3.282778E+03	1.392678E-16	3.607498E-18
3.292756E+03	1.443276E-16	3.734124E-18
3.302734E+03	1.496052E-16	3.866041E-18
3.312712E+03	1.551043E-16	4.003324E-18
3.322690E+03	1.608376E-16	4.146276E-18
3.332668E+03	1.668088E-16	4.294966E-18
3.342646E+03	1.730310E-16	4.449710E-18
3.352624E+03	1.795132E-16	4.610705E-18
3.362602E+03	1.862535E-16	4.777881E-18
3.372580E+03	1.932709E-16	4.951691E-18
3.382558E+03	2.005741E-16	5.132331E-18
3.392536E+03	2.081664E-16	5.319853E-18
3.402514E+03	2.160621E-16	5.514591E-18
3.412493E+03	2.242640E-16	5.716577E-18
3.422471E+03	2.327801E-16	5.925987E-18
3.432449E+03	2.416251E-16	6.143159E-18
3.442427E+03	2.508007E-16	6.368094E-18
3.452405E+03	2.603218E-16	6.601134E-18
3.462383E+03	2.701889E-16	6.842254E-18
3.472361E+03	2.804169E-16	7.091789E-18
3.482339E+03	2.910053E-16	7.349685E-18
3.492317E+03	3.019607E-16	7.616067E-18
3.502295E+03	3.132975E-16	7.891252E-18
3.512273E+03	3.250132E-16	8.175135E-18
3.522251E+03	3.371220E-16	8.468023E-18
3.532229E+03	3.496200E-16	8.769774E-18
3.542207E+03	3.625110E-16	9.080436E-18
3.552185E+03	3.758082E-16	9.400290E-18
3.562163E+03	3.895049E-16	9.729119E-18
3.572141E+03	4.036135E-16	1.006718E-17
3.582119E+03	4.181143E-16	1.041394E-17
3.592097E+03	4.330399E-16	1.077015E-17
3.602075E+03	4.483571E-16	1.113493E-17
3.612053E+03	4.640867E-16	1.150875E-17
3.622032E+03	4.802148E-16	1.189122E-17
3.632010E+03	4.967499E-16	1.228249E-17
3.641988E+03	5.136617E-16	1.268176E-17
3.651966E+03	5.309693E-16	1.308945E-17
3.661944E+03	5.486654E-16	1.350532E-17
3.671922E+03	5.667132E-16	1.392843E-17
3.681900E+03	5.851286E-16	1.435910E-17
3.691878E+03	6.038993E-16	1.479700E-17
3.701856E+03	6.229798E-16	1.524094E-17
3.711834E+03	6.423821E-16	1.569120E-17
3.721812E+03	6.620704E-16	1.614683E-17
3.731790E+03	6.820208E-16	1.660722E-17
3.741768E+03	7.022228E-16	1.707207E-17
3.751746E+03	7.226302E-16	1.754022E-17
3.761724E+03	7.432087E-16	1.801080E-17
3.771702E+03	7.639204E-16	1.848287E-17
3.781680E+03	7.847229E-16	1.895538E-17
3.791658E+03	8.055882E-16	1.942762E-17
3.801636E+03	8.264467E-16	1.989791E-17
3.811614E+03	8.472412E-16	2.036485E-17
3.821592E+03	8.679118E-16	2.082702E-17
3.831571E+03	8.883917E-16	2.128280E-17
3.841549E+03	9.086305E-16	2.173101E-17
3.851527E+03	9.285104E-16	2.216886E-17
3.861505E+03	9.479951E-16	2.259550E-17
3.871483E+03	9.669788E-16	2.300847E-17
3.881461E+03	9.853732E-16	2.340571E-17
3.891439E+03	1.003089E-15	2.378519E-17
3.901417E+03	1.020057E-15	2.414531E-17
3.911395E+03	1.036139E-15	2.448291E-17
3.921373E+03	1.051289E-15	2.479699E-17
3.931351E+03	1.065368E-15	2.508443E-17
3.941329E+03	1.078338E-15	2.534443E-17
3.951307E+03	1.090070E-15	2.557407E-17
3.961285E+03	1.100536E-15	2.577289E-17
3.971263E+03	1.109649E-15	2.593902E-17
3.981241E+03	1.117359E-15	2.607142E-17
3.991219E+03	1.123631E-15	2.616950E-17
4.001197E+03	1.128453E-15	2.623310E-17
4.011175E+03	1.131806E-15	2.626203E-17
4.021153E+03	1.133773E-15	2.625835E-17
4.031132E+03	1.134384E-15	2.622298E-17
4.041110E+03	1.133722E-15	2.615798E-17
4.051088E+03	1.131890E-15	2.606590E-17
4.061066E+03	1.128988E-15	2.594919E-17
4.071044E+03	1.125205E-15	2.581235E-17
4.081022E+03	1.120671E-15	2.565844E-17
4.091000E+03	1.115523E-15	2.549071E-17
4.100978E+03	1.109971E-15	2.531405E-17
4.110956E+03	1.104130E-15	2.513113E-17
4.120934E+03	1.098184E-15	2.494615E-17
4.130912E+03	1.092281E-15	2.476252E-17
4.140890E+03	1.086560E-15	2.458336E-17
4.150868E+03	1.081149E-15	2.441154E-17
4.160846E+03	1.076159E-15	2.424951E-17
4.170824E+03	1.071664E-15	2.409890E-17
4.180802E+03	1.067790E-15	2.396247E-17
4.190780E+03	1.064560E-15	2.384065E-17
4.200758E+03	1.062055E-15	2.373515E-17
4.210736E+03	1.060323E-15	2.364697E-17
4.220714E+03	1.059390E-15	2.357656E-17
4.230692E+03	1.059348E-15	2.352585E-17
4.240671E+03	1.060208E-15	2.349497E-17
4.250649E+03	1.062055E-15	2.348567E-17
4.260627E+03	1.064969E-15	2.349957E-17
4.270605E+03	1.069027E-15	2.353822E-17
4.280583E+03	1.074370E-15	2.360457E-17
4.290561E+03	1.081148E-15	2.370168E-17
4.300539E+03	1.089512E-15	2.383268E-17
4.310517E+03	1.099706E-15	2.400265E-17
4.320495E+03	1.111895E-15	2.421494E-17
4.330473E+03	1.126398E-15	2.447614E-17
4.340451E+03	1.143446E-15	2.479096E-17
4.350429E+03	1.163361E-15	2.516598E-17
4.360407E+03	1.186455E-15	2.560750E-17
4.370385E+03	1.213033E-15	2.612161E-17
4.380363E+03	1.243425E-15	2.671488E-17
4.390341E+03	1.278005E-15	2.739477E-17
4.400319E+03	1.317035E-15	2.816622E-17
4.410297E+03	1.360786E-15	2.903438E-17
4.420275E+03	1.409495E-15	3.000354E-17
4.430253E+03	1.463278E-15	3.107542E-17
4.440231E+03	1.522086E-15	3.224820E-17
4.450210E+03	1.585734E-15	3.351720E-17
4.460188E+03	1.653732E-15	3.487135E-17
4.470166E+03	1.725351E-15	3.629460E-17
4.480144E+03	1.799448E-15	3.776245E-17
4.490122E+03	1.874575E-15	3.924412E-17
4.500100E+03	1.948851E-15	4.070021E-17
4.510078E+03	2.020154E-15	4.208659E-17
4.520056E+03	2.086084E-15	4.335382E-17
4.530034E+03	2.144254E-15	4.445322E-17
4.540012E+03	2.192328E-15	4.533766E-17
4.549990E+03	2.228375E-15	4.596883E-17
4.559968E+03	2.250849E-15	4.631677E-17
4.569946E+03	2.259061E-15	4.636944E-17
4.579924E+03	2.252848E-15	4.612569E-17
4.589902E+03	2.232855E-15	4.560095E-17
4.599880E+03	2.200382E-15	4.482383E-17
4.609858E+03	2.157281E-15	4.383395E-17
4.619836E+03	2.105668E-15	4.267583E-17
4.629814E+03	2.047890E-15	4.139828E-17
4.639792E+03	1.986206E-15	4.004781E-17
4.649771E+03	1.922755E-15	3.866810E-17
4.659749E+03	1.859460E-15	3.729799E-17
4.669727E+03	1.797865E-15	3.596838E-17
4.679705E+03	1.739228E-15	3.470411E-17
4.689683E+03	1.684490E-15	3.352350E-17
4.699661E+03	1.634339E-15	3.243956E-17
4.709639E+03	1.589153E-15	3.145907E-17
4.719617E+03	1.549135E-15	3.058531E-17
4.729595E+03	1.514352E-15	2.981874E-17
4.739573E+03	1.484680E-15	2.915616E-17
4.749551E+03	1.459929E-15	2.859299E-17
4.759529E+03	1.439829E-15	2.812325E-17
4.769507E+03	1.424057E-15	2.773987E-17
4.779485E+03	1.412273E-15	2.743558E-17
4.789463E+03	1.404060E-15	2.720170E-17
4.799441E+03	1.399011E-15	2.702977E-17
4.809419E+03	1.396707E-15	2.691122E-17
4.819397E+03	1.396726E-15	2.683754E-17
4.829375E+03	1.398656E-15	2.680045E-17
4.839353E+03	1.402114E-15	2.679234E-17
4.849331E+03	1.406682E-15	2.680500E-17
4.859310E+03	1.411981E-15	2.683106E-17
4.869288E+03	1.417651E-15	2.686361E-17
4.879266E+03	1.423360E-15	2.689629E-17
4.889244E+03	1.428804E-15	2.692340E-17
4.899222E+03	1.433727E-15	2.694015E-17
4.909200E+03	1.437947E-15	2.694325E-17
4.919178E+03	1.441276E-15	2.692930E-17
4.929156E+03	1.443693E-15	2.689803E-17
4.939134E+03	1.445162E-15	2.684896E-17
4.949112E+03	1.445831E-15	2.678497E-17
4.959090E+03	1.445876E-15	2.670945E-17
4.969068E+03	1.445594E-15	2.662797E-17
4.979046E+03	1.445367E-15	2.654762E-17
4.989024E+03	1.445744E-15	2.647843E-17
4.999002E+03	1.447289E-15	2.643065E-17
5.008980E+03	1.450656E-15	2.641599E-17
5.018958E+03	1.456531E-15	2.644662E-17
5.028936E+03	1.465602E-15	2.653462E-17
5.038914E+03	1.478517E-15	2.669120E-17
5.048892E+03	1.495828E-15	2.692571E-17
5.058870E+03	1.518053E-15	2.724675E-17
5.068849E+03	1.545495E-15	2.765902E-17
5.078827E+03	1.578312E-15	2.816454E-17
5.088805E+03	1.616429E-15	2.876116E-17
5.098783E+03	1.659614E-15	2.944396E-17
5.108761E+03	1.707301E-15	3.020217E-17
5.118739E+03	1.758636E-15	3.102006E-17
5.128717E+03	1.812574E-15	3.187873E-17
5.138695E+03	1.867697E-15	3.275294E-17
5.148673E+03	1.922462E-15	3.361559E-17
5.158651E+03	1.975209E-15	3.443781E-17
5.168629E+03	2.024168E-15	3.518918E-17
5.178607E+03	2.067789E-15	3.584343E-17
5.188585E+03	2.104744E-15	3.637849E-17
5.198563E+03	2.134084E-15	3.677902E-17
5.208541E+03	2.155305E-15	3.703754E-17
5.218519E+03	2.168334E-15	3.715403E-17
5.228497E+03	2.173618E-15	3.713737E-17
5.238475E+03	2.171798E-15	3.699965E-17
5.248453E+03	2.163861E-15	3.675870E-17
5.258431E+03	2.150750E-15	3.643138E-17
5.268409E+03	2.133495E-15	3.603588E-17
5.278388E+03	2.113003E-15	3.558806E-17
5.288366E+03	2.090057E-15	3.510154E-17
5.298344E+03	2.065262E-15	3.458682E-17
5.308322E+03	2.039188E-15	3.405364E-17
5.318300E+03	2.012158E-15	3.350761E-17
5.328278E+03	1.984505E-15	3.295434E-17
5.338256E+03	1.956456E-15	3.239770E-17
5.348234E+03	1.928188E-15	3.184062E-17
5.358212E+03	1.899832E-15	3.128532E-17
5.368190E+03	1.871484E-15	3.073334E-17
5.378168E+03	1.843169E-15	3.018510E-17
5.388146E+03	1.814928E-15	2.964124E-17
5.398124E+03	1.786727E-15	2.910118E-17
5.408102E+03	1.758481E-15	2.856355E-17
5.418080E+03	1.730057E-15	2.802614E-17
5.428058E+03	1.701277E-15	2.748610E-17
5.438036E+03	1.671901E-15	2.693959E-17
5.448014E+03	1.641727E-15	2.638342E-17
5.457992E+03	1.610530E-15	2.581408E-17
5.467970E+03	1.578123E-15	2.522866E-17
5.477949E+03	1.544380E-15	2.462528E-17
5.487927E+03	1.509238E-15	2.400309E-17
5.497905E+03	1.472778E-15	2.336348E-17
5.507883E+03	1.435168E-15	2.270920E-17
5.517861E+03	1.396588E-15	2.204320E-17
5.527839E+03	1.357321E-15	2.137000E-17
5.537817E+03	1.317731E-15	2.069533E-17
5.547795E+03	1.278115E-15	2.002385E-17
5.557773E+03	1.238840E-15	1.936122E-17
5.567751E+03	1.200242E-15	1.871260E-17
5.577729E+03	1.162641E-15	1.808283E-17
5.587707E+03	1.126331E-15	1.747633E-17
5.597685E+03	1.091564E-15	1.689681E-17
5.607663E+03	1.058611E-15	1.634822E-17
5.617641E+03	1.027647E-15	1.583305E-17
5.627619E+03	9.988664E-16	1.535402E-17
5.637597E+03	9.724085E-16	1.491300E-17
5.647575E+03	9.484300E-16	1.451210E-17
5.657553E+03	9.270119E-16	1.415227E-17
5.667531E+03	9.082562E-16	1.383479E-17
5.677509E+03	8.922351E-16	1.356044E-17
5.687488E+03	8.790045E-16	1.332979E-17
5.697466E+03	8.686040E-16	1.314312E-17
5.707444E+03	8.610501E-16	1.300039E-17
5.717422E+03	8.563799E-16	1.290187E-17
5.727400E+03	8.545680E-16	1.284688E-17
5.737378E+03	8.556091E-16	1.283507E-17
5.747356E+03	8.594679E-16	1.286562E-17
5.757334E+03	8.660731E-16	1.293721E-17
5.767312E+03	8.753622E-16	1.304864E-17
5.777290E+03	8.871902E-16	1.319752E-17
5.787268E+03	9.014074E-16	1.338138E-17
5.797246E+03	9.178067E-16	1.359696E-17
5.807224E+03	9.361296E-16	1.384023E-17
5.817202E+03	9.560657E-16	1.410647E-17
5.827180E+03	9.772510E-16	1.439017E-17
5.837158E+03	9.992611E-16	1.468501E-17
5.847136E+03	1.021657E-15	1.498449E-17
5.857114E+03	1.043975E-15	1.528180E-17
5.867092E+03	1.065694E-15	1.556936E-17
5.877070E+03	1.086354E-15	1.584051E-17
5.887048E+03	1.105499E-15	1.608871E-17
5.897027E+03	1.122788E-15	1.630919E-17
5.907005E+03	1.137932E-15	1.649786E-17
5.916983E+03	1.150756E-15	1.665244E-17
5.926961E+03	1.161283E-15	1.677341E-17
5.936939E+03	1.169609E-15	1.686237E-17
5.946917E+03	1.176038E-15	1.692387E-17
5.956895E+03	1.180994E-15	1.696415E-17
5.966873E+03	1.185028E-15	1.699123E-17
5.976851E+03	1.188791E-15	1.701451E-17
5.986829E+03	1.193020E-15	1.704453E-17
5.996807E+03	1.198495E-15	1.709238E-17
6.006785E+03	1.206098E-15	1.717052E-17
6.016763E+03	1.216697E-15	1.729115E-17
6.026741E+03	1.231197E-15	1.746688E-17
6.036719E+03	1.250593E-15	1.771153E-17
6.046697E+03	1.275853E-15	1.803841E-17
6.056675E+03	1.308052E-15	1.846232E-17
6.066653E+03	1.348333E-15	1.899888E-17
6.076631E+03	1.397860E-15	1.966391E-17
6.086609E+03	1.457947E-15	2.047525E-17
6.096588E+03	1.529991E-15	2.145180E-17
6.106566E+03	1.615495E-15	2.261381E-17
6.116544E+03	1.716086E-15	2.398316E-17
6.126522E+03	1.833386E-15	2.558155E-17
6.136500E+03	1.969118E-15	2.743192E-17
6.146478E+03	2.124916E-15	2.955589E-17
6.156456E+03	2.302244E-15	3.197258E-17
6.166434E+03	2.502226E-15	3.469631E-17
6.176412E+03	2.725447E-15	3.773389E-17
6.186390E+03	2.971753E-15	4.108184E-17
6.196368E+03	3.239814E-15	4.472056E-17
6.206346E+03	3.527106E-15	4.861411E-17
6.216324E+03	3.829534E-15	5.270517E-17
6.226302E+03	4.141389E-15	5.691458E-17
6.236280E+03	4.455112E-15	6.113831E-17
6.246258E+03	4.761800E-15	6.525447E-17
6.256236E+03	5.051395E-15	6.912608E-17
6.266214E+03	5.313068E-15	7.260637E-17
6.276192E+03	5.536041E-15	7.555005E-17
6.286170E+03	5.710680E-15	7.782821E-17
6.296148E+03	5.828878E-15	7.933329E-17
6.306127E+03	5.885139E-15	7.999378E-17
6.316105E+03	5.877057E-15	7.978043E-17
6.326083E+03	5.805578E-15	7.870944E-17
6.336061E+03	5.674878E-15	7.684064E-17
6.346039E+03	5.491943E-15	7.427144E-17
6.356017E+03	5.265950E-15	7.112828E-17
6.365995E+03	5.007126E-15	6.755110E-17
6.375973E+03	4.726441E-15	6.368911E-17
6.385951E+03	4.434293E-15	5.968307E-17
6.395929E+03	4.140168E-15	5.566082E-17
6.405907E+03	3.852103E-15	5.173014E-17
6.415885E+03	3.576424E-15	4.797534E-17
6.425863E+03	3.317703E-15	4.445691E-17
6.435841E+03	3.078648E-15	4.121016E-17
6.445819E+03	2.860646E-15	3.825256E-17
6.455797E+03	2.663690E-15	3.558296E-17
6.465775E+03	2.486879E-15	3.318831E-17
6.475753E+03	2.328685E-15	3.104724E-17
6.485731E+03	2.187056E-15	2.913152E-17
6.495709E+03	2.059859E-15	2.741201E-17
6.505687E+03	1.944818E-15	2.585777E-17
6.515666E+03	1.839932E-15	2.444168E-17
6.525644E+03	1.743713E-15	2.314351E-17
6.535622E+03	1.655372E-15	2.195244E-17
6.545600E+03	1.574237E-15	2.085919E-17
6.555578E+03	1.499673E-15	1.985505E-17
6.565556E+03	1.431071E-15	1.893169E-17
6.575534E+03	1.367783E-15	1.808030E-17
6.585512E+03	1.309282E-15	1.729371E-17
6.595490E+03	1.255041E-15	1.656475E-17
6.605468E+03	1.204532E-15	1.588630E-17
6.615446E+03	1.157341E-15	1.525275E-17
6.625424E+03	1.113036E-15	1.465830E-17
6.635402E+03	1.071266E-15	1.409819E-17
6.645380E+03	1.031698E-15	1.356797E-17
6.655358E+03	9.940775E-16	1.306419E-17
6.665336E+03	9.582157E-16	1.258430E-17
6.675314E+03	9.240051E-16	1.212682E-17
6.685292E+03	8.913696E-16	1.169069E-17
6.695270E+03	8.603125E-16	1.127590E-17
6.705248E+03	8.308493E-16	1.088259E-17
6.715227E+03	8.030346E-16	1.051142E-17
6.725205E+03	7.769357E-16	1.016322E-17
6.735183E+03	7.526341E-16	9.838994E-18
6.745161E+03	7.301838E-16	9.539400E-18
6.755139E+03	7.096520E-16	9.265257E-18
6.765117E+03	6.910726E-16	9.016953E-18
6.775095E+03	6.744886E-16	8.794990E-18
6.785073E+03	6.599006E-16	8.599325E-18
6.795051E+03	6.473502E-16	8.430441E-18
6.805029E+03	6.368113E-16	8.287946E-18
6.815007E+03	6.283022E-16	8.172023E-18
6.824985E+03	6.218177E-16	8.082549E-18
6.834963E+03	6.173408E-16	8.019253E-18
6.844941E+03	6.148627E-16	7.981964E-18
6.854919E+03	6.143812E-16	7.970602E-18
6.864897E+03	6.158718E-16	7.984795E-18
6.874875E+03	6.193234E-16	8.024348E-18
6.884853E+03	6.247001E-16	8.088743E-18
6.894831E+03	6.319784E-16	8.177622E-18
6.904809E+03	6.411098E-16	8.290306E-18
6.914787E+03	6.520519E-16	8.426196E-18
6.924766E+03	6.647721E-16	8.584818E-18
6.934744E+03	6.792308E-16	8.765612E-18
6.944722E+03	6.953838E-16	8.967954E-18
6.954700E+03	7.132144E-16	9.191581E-18
6.964678E+03	7.326919E-16	9.436046E-18
6.974656E+03	7.538031E-16	9.701126E-18
6.984634E+03	7.765524E-16	9.986830E-18
6.994612E+03	8.009414E-16	1.029312E-17
7.004590E+03	8.269692E-16	1.061994E-17
7.014568E+03	8.546763E-16	1.096775E-17
7.024546E+03	8.841067E-16	1.133706E-17
7.034524E+03	9.153660E-16	1.172916E-17
7.044502E+03	9.485880E-16	1.214571E-17
7.054480E+03	9.839982E-16	1.258952E-17
7.064458E+03	1.021868E-15	1.306398E-17
7.074436E+03	1.062573E-15	1.357382E-17
7.084414E+03	1.106551E-15	1.412452E-17
7.094392E+03	1.154282E-15	1.472210E-17
7.104370E+03	1.206318E-15	1.537345E-17
7.114348E+03	1.263179E-15	1.608506E-17
7.124326E+03	1.325386E-15	1.686340E-17
7.134305E+03	1.393326E-15	1.771320E-17
7.144283E+03	1.467270E-15	1.863769E-17
7.154261E+03	1.547239E-15	1.963695E-17
7.164239E+03	1.632924E-15	2.070684E-17
7.174217E+03	1.723696E-15	2.183918E-17
7.184195E+03	1.818480E-15	2.302019E-17
7.194173E+03	1.915729E-15	2.423014E-17
7.204151E+03	2.013524E-15	2.544470E-17
7.214129E+03	2.109520E-15	2.663421E-17
7.224107E+03	2.201181E-15	2.776673E-17
7.234085E+03	2.285830E-15	2.880867E-17
7.244063E+03	2.360826E-15	2.972699E-17
7.254041E+03	2.423845E-15	3.049279E-17
7.264019E+03	2.472934E-15	3.108194E-17
7.273997E+03	2.506616E-15	3.147635E-17
7.283975E+03	2.524060E-15	3.166617E-17
7.293953E+03	2.524966E-15	3.164821E-17
7.303931E+03	2.509512E-15	3.142528E-17
7.313909E+03	2.478412E-15	3.100690E-17
7.323887E+03	2.432711E-15	3.040669E-17
7.333865E+03	2.373715E-15	2.964152E-17
7.343844E+03	2.303053E-15	2.873218E-17
7.353822E+03	2.222497E-15	2.770118E-17
7.363800E+03	2.133914E-15	2.657214E-17
7.373778E+03	2.039323E-15	2.537047E-17
7.383756E+03	1.940719E-15	2.412118E-17
7.393734E+03	1.840055E-15	2.284868E-17
7.403712E+03	1.739155E-15	2.157567E-17
7.413690E+03	1.639747E-15	2.032358E-17
7.423668E+03	1.543323E-15	1.911082E-17
7.433646E+03	1.451111E-15	1.795248E-17
7.443624E+03	1.364127E-15	1.686099E-17
7.453602E+03	1.283098E-15	1.584511E-17
7.463580E+03	1.208493E-15	1.491044E-17
7.473558E+03	1.140543E-15	1.405958E-17
7.483536E+03	1.079324E-15	1.329326E-17
7.493514E+03	1.024750E-15	1.261019E-17
7.503492E+03	9.766318E-16	1.200780E-17
7.513470E+03	9.346925E-16	1.148249E-17
7.523448E+03	8.986533E-16	1.103063E-17
7.533426E+03	8.681986E-16	1.064816E-17
7.543405E+03	8.430180E-16	1.033111E-17
7.553383E+03	8.227961E-16	1.007546E-17
7.563361E+03	8.072698E-16	9.877830E-18
7.573339E+03	7.961857E-16	9.735010E-18
7.583317E+03	7.893190E-16	9.644129E-18
7.593295E+03	7.864576E-16	9.602493E-18
7.603273E+03	7.874504E-16	9.608166E-18
7.613251E+03	7.921055E-16	9.658729E-18
7.623229E+03	8.002575E-16	9.752095E-18
7.633207E+03	8.117521E-16	9.886327E-18
7.643185E+03	8.263635E-16	1.005863E-17
7.653163E+03	8.438178E-16	1.026564E-17
7.663141E+03	8.638060E-16	1.050358E-17
7.673119E+03	8.859380E-16	1.076769E-17
7.683097E+03	9.097398E-16	1.105224E-17
7.693075E+03	9.347251E-16	1.135133E-17
7.703053E+03	9.603036E-16	1.165783E-17
7.713031E+03	9.859217E-16	1.196507E-17
7.723009E+03	1.011027E-15	1.226640E-17
7.732987E+03	1.035096E-15	1.255555E-17
7.742965E+03	1.057736E-15	1.282781E-17
