#wls	flux	fluxerr
1.596488E+03	2.720939E-17	7.794373E-20
1.636400E+03	2.665909E-17	7.636734E-20
1.676312E+03	2.609345E-17	7.474702E-20
1.716224E+03	2.551671E-17	7.309488E-20
1.756136E+03	2.493129E-17	7.141792E-20
1.796049E+03	2.433192E-17	6.970095E-20
1.835961E+03	2.371022E-17	6.792002E-20
1.875873E+03	2.305597E-17	6.604588E-20
1.915785E+03	2.236038E-17	6.405329E-20
1.955697E+03	2.161640E-17	6.192211E-20
1.995610E+03	2.083737E-17	5.969051E-20
2.035522E+03	2.006318E-17	5.747277E-20
2.075434E+03	1.937601E-17	5.550431E-20
2.115346E+03	1.888919E-17	5.410976E-20
2.155258E+03	1.870556E-17	5.358376E-20
2.195171E+03	1.886679E-17	5.404561E-20
2.235083E+03	1.933762E-17	5.539432E-20
2.274995E+03	2.003683E-17	5.739729E-20
2.314907E+03	2.088207E-17	5.981854E-20
2.354819E+03	2.181723E-17	6.249739E-20
2.394732E+03	2.281254E-17	6.534856E-20
2.434644E+03	2.386360E-17	6.835941E-20
2.474556E+03	2.497895E-17	7.155442E-20
2.514468E+03	2.617498E-17	7.498057E-20
2.554380E+03	2.747253E-17	7.869751E-20
2.594293E+03	2.889536E-17	8.277333E-20
2.634205E+03	3.046849E-17	8.727972E-20
2.674117E+03	3.222371E-17	9.230770E-20
2.714029E+03	3.419104E-17	9.794328E-20
2.753941E+03	3.640734E-17	1.042921E-19
2.793854E+03	3.891641E-17	1.114795E-19
2.833766E+03	4.176713E-17	1.196457E-19
2.873678E+03	4.501428E-17	1.289474E-19
2.913590E+03	4.872298E-17	1.395713E-19
2.953502E+03	5.296847E-17	1.517329E-19
2.993414E+03	5.783955E-17	1.656865E-19
3.003393E+03	5.916709E-17	1.694894E-19
3.013371E+03	6.053882E-17	1.734188E-19
3.023349E+03	6.196107E-17	1.774930E-19
3.033327E+03	6.343463E-17	1.817141E-19
3.043305E+03	6.495873E-17	1.860801E-19
3.053283E+03	6.654166E-17	1.906145E-19
3.063261E+03	6.818755E-17	1.953293E-19
3.073239E+03	6.989283E-17	2.002142E-19
3.083217E+03	7.166442E-17	2.052891E-19
3.093195E+03	7.349866E-17	2.105435E-19
3.103173E+03	7.540287E-17	2.159982E-19
3.113151E+03	7.737611E-17	2.216508E-19
3.123129E+03	7.942033E-17	2.275066E-19
3.133107E+03	8.153756E-17	2.335716E-19
3.143085E+03	8.372979E-17	2.398514E-19
3.153063E+03	8.600239E-17	2.463615E-19
3.163041E+03	8.835107E-17	2.530895E-19
3.173019E+03	9.078453E-17	2.600604E-19
3.182997E+03	9.329844E-17	2.672617E-19
3.192975E+03	9.590179E-17	2.747192E-19
3.202954E+03	9.859358E-17	2.824301E-19
3.212932E+03	1.013761E-16	2.904009E-19
3.222910E+03	1.042517E-16	2.986383E-19
3.232888E+03	1.072227E-16	3.071491E-19
3.242866E+03	1.102916E-16	3.159402E-19
3.252844E+03	1.134648E-16	3.250300E-19
3.262822E+03	1.167366E-16	3.344023E-19
3.272800E+03	1.201175E-16	3.440874E-19
3.282778E+03	1.236016E-16	3.540678E-19
3.292756E+03	1.271997E-16	3.643747E-19
3.302734E+03	1.309097E-16	3.750026E-19
3.312712E+03	1.347341E-16	3.859580E-19
3.322690E+03	1.386749E-16	3.972467E-19
3.332668E+03	1.427343E-16	4.088752E-19
3.342646E+03	1.469142E-16	4.208489E-19
3.352624E+03	1.512168E-16	4.331739E-19
3.362602E+03	1.556437E-16	4.458552E-19
3.372580E+03	1.602024E-16	4.589142E-19
3.382558E+03	1.648837E-16	4.723239E-19
3.392536E+03	1.697003E-16	4.861216E-19
3.402514E+03	1.746422E-16	5.002781E-19
3.412493E+03	1.797227E-16	5.148316E-19
3.422471E+03	1.849307E-16	5.297505E-19
3.432449E+03	1.902801E-16	5.450743E-19
3.442427E+03	1.957657E-16	5.607884E-19
3.452405E+03	2.013885E-16	5.768952E-19
3.462383E+03	2.071491E-16	5.933971E-19
3.472361E+03	2.130486E-16	6.102967E-19
3.482339E+03	2.190874E-16	6.275954E-19
3.492317E+03	2.252662E-16	6.452951E-19
3.502295E+03	2.315856E-16	6.633977E-19
3.512273E+03	2.380461E-16	6.819044E-19
3.522251E+03	2.446483E-16	7.008168E-19
3.532229E+03	2.513926E-16	7.201366E-19
3.542207E+03	2.582798E-16	7.398656E-19
3.552185E+03	2.653194E-16	7.600310E-19
3.562163E+03	2.724948E-16	7.805858E-19
3.572141E+03	2.798159E-16	8.015576E-19
3.582119E+03	2.872934E-16	8.229776E-19
3.592097E+03	2.949104E-16	8.447972E-19
3.602075E+03	3.026882E-16	8.670775E-19
3.612053E+03	3.106100E-16	8.897700E-19
3.622032E+03	3.186987E-16	9.129410E-19
3.632010E+03	3.269382E-16	9.365437E-19
3.641988E+03	3.353538E-16	9.606510E-19
3.651966E+03	3.439298E-16	9.852176E-19
3.661944E+03	3.526944E-16	1.010325E-18
3.671922E+03	3.616329E-16	1.035930E-18
3.681900E+03	3.707765E-16	1.062122E-18
3.691878E+03	3.801116E-16	1.088863E-18
3.701856E+03	3.896725E-16	1.116252E-18
3.711834E+03	3.994467E-16	1.144251E-18
3.721812E+03	4.094714E-16	1.172967E-18
3.731790E+03	4.197341E-16	1.202366E-18
3.741768E+03	4.302745E-16	1.232560E-18
3.751746E+03	4.410788E-16	1.263510E-18
3.761724E+03	4.521870E-16	1.295330E-18
3.771702E+03	4.635821E-16	1.327972E-18
3.781680E+03	4.753021E-16	1.361545E-18
3.791658E+03	4.873235E-16	1.395982E-18
3.801636E+03	4.996783E-16	1.431373E-18
3.811614E+03	5.123327E-16	1.467623E-18
3.821592E+03	5.252925E-16	1.504747E-18
3.831571E+03	5.385572E-16	1.542745E-18
3.841549E+03	5.520687E-16	1.581450E-18
3.851527E+03	5.658080E-16	1.620808E-18
3.861505E+03	5.797297E-16	1.660687E-18
3.871483E+03	5.937953E-16	1.700980E-18
3.881461E+03	6.079007E-16	1.741386E-18
3.891439E+03	6.219844E-16	1.781730E-18
3.901417E+03	6.359558E-16	1.821752E-18
3.911395E+03	6.497149E-16	1.861166E-18
3.921373E+03	6.631531E-16	1.899661E-18
3.931351E+03	6.761560E-16	1.936909E-18
3.941329E+03	6.885849E-16	1.972513E-18
3.951307E+03	7.003625E-16	2.006251E-18
3.961285E+03	7.113546E-16	2.037738E-18
3.971263E+03	7.214317E-16	2.066605E-18
3.981241E+03	7.305432E-16	2.092706E-18
3.991219E+03	7.385885E-16	2.115752E-18
4.001197E+03	7.454887E-16	2.135518E-18
4.011175E+03	7.512307E-16	2.151967E-18
4.021153E+03	7.558275E-16	2.165134E-18
4.031132E+03	7.592541E-16	2.174950E-18
4.041110E+03	7.615773E-16	2.181605E-18
4.051088E+03	7.628670E-16	2.185299E-18
4.061066E+03	7.632162E-16	2.186300E-18
4.071044E+03	7.627135E-16	2.184860E-18
4.081022E+03	7.615298E-16	2.181469E-18
4.091000E+03	7.597761E-16	2.176445E-18
4.100978E+03	7.575714E-16	2.170129E-18
4.110956E+03	7.550992E-16	2.163047E-18
4.120934E+03	7.524491E-16	2.155455E-18
4.130912E+03	7.497716E-16	2.147785E-18
4.140890E+03	7.471831E-16	2.140370E-18
4.150868E+03	7.447855E-16	2.133502E-18
4.160846E+03	7.426676E-16	2.127435E-18
4.170824E+03	7.409015E-16	2.122375E-18
4.180802E+03	7.395225E-16	2.118424E-18
4.190780E+03	7.386137E-16	2.115821E-18
4.200758E+03	7.381620E-16	2.114526E-18
4.210736E+03	7.382060E-16	2.114652E-18
4.220714E+03	7.387745E-16	2.116280E-18
4.230692E+03	7.398109E-16	2.119249E-18
4.240671E+03	7.413776E-16	2.123736E-18
4.250649E+03	7.434572E-16	2.129693E-18
4.260627E+03	7.460336E-16	2.137072E-18
4.270605E+03	7.820459E-16	2.240232E-18
4.272600E+03	7.850108E-16	2.248725E-18
4.274596E+03	7.866807E-16	2.253508E-18
4.276591E+03	7.863811E-16	2.252650E-18
4.278587E+03	7.887172E-16	2.259342E-18
4.280583E+03	7.862200E-16	2.252188E-18
4.282578E+03	7.829133E-16	2.242716E-18
4.284574E+03	7.816871E-16	2.239203E-18
4.286570E+03	7.808639E-16	2.236845E-18
4.288565E+03	7.798386E-16	2.233908E-18
4.290561E+03	7.812826E-16	2.238044E-18
4.292556E+03	7.810578E-16	2.237400E-18
4.294552E+03	7.808760E-16	2.236879E-18
4.296548E+03	7.821520E-16	2.240534E-18
4.298543E+03	7.835802E-16	2.244625E-18
4.300539E+03	7.852875E-16	2.249515E-18
4.302534E+03	7.873498E-16	2.255423E-18
4.304530E+03	7.898511E-16	2.262588E-18
4.306526E+03	7.928261E-16	2.271109E-18
4.308521E+03	7.963093E-16	2.281087E-18
4.310517E+03	8.003074E-16	2.292540E-18
4.312512E+03	8.048222E-16	2.305473E-18
4.314508E+03	8.098375E-16	2.319839E-18
4.316504E+03	8.153182E-16	2.335539E-18
4.318499E+03	8.212318E-16	2.352479E-18
4.320495E+03	8.319803E-16	2.383268E-18
4.322491E+03	8.481572E-16	2.429608E-18
4.324486E+03	8.581871E-16	2.458339E-18
4.326482E+03	8.644160E-16	2.476182E-18
4.328477E+03	8.703089E-16	2.493062E-18
4.330473E+03	8.741747E-16	2.504136E-18
4.332469E+03	8.755887E-16	2.508186E-18
4.334464E+03	8.792872E-16	2.518781E-18
4.336460E+03	8.818020E-16	2.525984E-18
4.338455E+03	8.848262E-16	2.534647E-18
4.340451E+03	8.882738E-16	2.544523E-18
4.342447E+03	8.901153E-16	2.549797E-18
4.344442E+03	8.917022E-16	2.554343E-18
4.346438E+03	8.927823E-16	2.557437E-18
4.348433E+03	8.919154E-16	2.554953E-18
4.350429E+03	8.880832E-16	2.543975E-18
4.352425E+03	8.862825E-16	2.538817E-18
4.354420E+03	8.824481E-16	2.527833E-18
4.356416E+03	8.801373E-16	2.521213E-18
4.358411E+03	8.818949E-16	2.526247E-18
4.360407E+03	8.839071E-16	2.532011E-18
4.362403E+03	8.846476E-16	2.534132E-18
4.364398E+03	8.870848E-16	2.541113E-18
4.366394E+03	8.835014E-16	2.530848E-18
4.368390E+03	8.809343E-16	2.523494E-18
4.370385E+03	8.805721E-16	2.522456E-18
4.372381E+03	8.779185E-16	2.514855E-18
4.374376E+03	8.711059E-16	2.495339E-18
4.376372E+03	8.661578E-16	2.481165E-18
4.378368E+03	8.622271E-16	2.469905E-18
4.380363E+03	8.556635E-16	2.451102E-18
4.382359E+03	8.500313E-16	2.434968E-18
4.384354E+03	8.505127E-16	2.436347E-18
4.386350E+03	8.465254E-16	2.424925E-18
4.388346E+03	8.392998E-16	2.404226E-18
4.390341E+03	8.408761E-16	2.408741E-18
4.392337E+03	8.479095E-16	2.428888E-18
4.394332E+03	8.538577E-16	2.445927E-18
4.396328E+03	8.580815E-16	2.458026E-18
4.398324E+03	8.623059E-16	2.470127E-18
4.400319E+03	8.639810E-16	2.474925E-18
4.402315E+03	8.658263E-16	2.480210E-18
4.404311E+03	8.766912E-16	2.511333E-18
4.406306E+03	8.918993E-16	2.554897E-18
4.408302E+03	9.064320E-16	2.596526E-18
4.410297E+03	9.171384E-16	2.627195E-18
4.412293E+03	9.260611E-16	2.652754E-18
4.414289E+03	9.342199E-16	2.676125E-18
4.416284E+03	9.405928E-16	2.694380E-18
4.418280E+03	9.459453E-16	2.709712E-18
4.420275E+03	9.541966E-16	2.733348E-18
4.422271E+03	9.587865E-16	2.746495E-18
4.424267E+03	9.628663E-16	2.758182E-18
4.426262E+03	9.707837E-16	2.780861E-18
4.428258E+03	9.750375E-16	2.793046E-18
4.430253E+03	9.792074E-16	2.804990E-18
4.432249E+03	9.832931E-16	2.816693E-18
4.434245E+03	9.852480E-16	2.822292E-18
4.436240E+03	9.860093E-16	2.824473E-18
4.438236E+03	9.885619E-16	2.831784E-18
4.440231E+03	9.893239E-16	2.833966E-18
4.442227E+03	9.904273E-16	2.837126E-18
4.444223E+03	9.927259E-16	2.843710E-18
4.446218E+03	9.922930E-16	2.842470E-18
4.448214E+03	9.869076E-16	2.827042E-18
4.450210E+03	9.871571E-16	2.827756E-18
4.452205E+03	9.900539E-16	2.836054E-18
4.454201E+03	9.928668E-16	2.844111E-18
4.456196E+03	9.962789E-16	2.853884E-18
4.458192E+03	1.003623E-15	2.874922E-18
4.460188E+03	1.010800E-15	2.895478E-18
4.462183E+03	1.020628E-15	2.923631E-18
4.464179E+03	1.036445E-15	2.968939E-18
4.466174E+03	1.055603E-15	3.023817E-18
4.468170E+03	1.078531E-15	3.089493E-18
4.470166E+03	1.102577E-15	3.158375E-18
4.472161E+03	1.122098E-15	3.214291E-18
4.474157E+03	1.143336E-15	3.275128E-18
4.476152E+03	1.166721E-15	3.342114E-18
4.478148E+03	1.192682E-15	3.416480E-18
4.480144E+03	1.221819E-15	3.499943E-18
4.482139E+03	1.256361E-15	3.598889E-18
4.484135E+03	1.292627E-15	3.702773E-18
4.486131E+03	1.331304E-15	3.813562E-18
4.488126E+03	1.369222E-15	3.922179E-18
4.490122E+03	1.408267E-15	4.034023E-18
4.492117E+03	1.449638E-15	4.152531E-18
4.494113E+03	1.495395E-15	4.283602E-18
4.496109E+03	1.541681E-15	4.416188E-18
4.498104E+03	1.585753E-15	4.542431E-18
4.500100E+03	1.630096E-15	4.669452E-18
4.502095E+03	1.678400E-15	4.807818E-18
4.504091E+03	1.727663E-15	4.948932E-18
4.506087E+03	1.776770E-15	5.089599E-18
4.508082E+03	1.816711E-15	5.204009E-18
4.510078E+03	1.845936E-15	5.287723E-18
4.512073E+03	1.874912E-15	5.370724E-18
4.514069E+03	1.902696E-15	5.450310E-18
4.516065E+03	1.926967E-15	5.519833E-18
4.518060E+03	1.955113E-15	5.600454E-18
4.520056E+03	1.986101E-15	5.689217E-18
4.522051E+03	2.017615E-15	5.779488E-18
4.524047E+03	2.049483E-15	5.870771E-18
4.526043E+03	2.085056E-15	5.972669E-18
4.528038E+03	2.121759E-15	6.077803E-18
4.530034E+03	2.159849E-15	6.186910E-18
4.532030E+03	2.199585E-15	6.300730E-18
4.534025E+03	2.238559E-15	6.412371E-18
4.536021E+03	2.279353E-15	6.529223E-18
4.538016E+03	2.320418E-15	6.646850E-18
4.540012E+03	2.361840E-15	6.765501E-18
4.542008E+03	2.398973E-15	6.871865E-18
4.544003E+03	2.433879E-15	6.971851E-18
4.545999E+03	2.467849E-15	7.069155E-18
4.547994E+03	2.497611E-15	7.154406E-18
4.549990E+03	2.528503E-15	7.242892E-18
4.551986E+03	2.560954E-15	7.335846E-18
4.553981E+03	2.589625E-15	7.417971E-18
4.555977E+03	2.613567E-15	7.486549E-18
4.557972E+03	2.633811E-15	7.544533E-18
4.559968E+03	2.649579E-15	7.589698E-18
4.561964E+03	2.657767E-15	7.613149E-18
4.563959E+03	2.662853E-15	7.627714E-18
4.565955E+03	2.667424E-15	7.640802E-18
4.567951E+03	2.671392E-15	7.652164E-18
4.569946E+03	2.670617E-15	7.649940E-18
4.571942E+03	2.665959E-15	7.636593E-18
4.573937E+03	2.659660E-15	7.618546E-18
4.575933E+03	2.647145E-15	7.582694E-18
4.577929E+03	2.630224E-15	7.534219E-18
4.579924E+03	2.614246E-15	7.488448E-18
4.581920E+03	2.594638E-15	7.432276E-18
4.583915E+03	2.572864E-15	7.369900E-18
4.585911E+03	2.551427E-15	7.308491E-18
4.587907E+03	2.524801E-15	7.232217E-18
4.589902E+03	2.490563E-15	7.134141E-18
4.591898E+03	2.456573E-15	7.036773E-18
4.593893E+03	2.417128E-15	6.923778E-18
4.595889E+03	2.375076E-15	6.803318E-18
4.597885E+03	2.334480E-15	6.687027E-18
4.599880E+03	2.287385E-15	6.552124E-18
4.601876E+03	2.237076E-15	6.408011E-18
4.603871E+03	2.186145E-15	6.262117E-18
4.605867E+03	2.135371E-15	6.116672E-18
4.607863E+03	2.081378E-15	5.962009E-18
4.609858E+03	2.029359E-15	5.812998E-18
4.611854E+03	1.977063E-15	5.663195E-18
4.613850E+03	1.924923E-15	5.513839E-18
4.615845E+03	1.875623E-15	5.372617E-18
4.617841E+03	1.826307E-15	5.231352E-18
4.619836E+03	1.776369E-15	5.088304E-18
4.621832E+03	1.728580E-15	4.951411E-18
4.623828E+03	1.682595E-15	4.819686E-18
4.625823E+03	1.641880E-15	4.703057E-18
4.627819E+03	1.607305E-15	4.604015E-18
4.629814E+03	1.578785E-15	4.522319E-18
4.631810E+03	1.551036E-15	4.442832E-18
4.633806E+03	1.523192E-15	4.363070E-18
4.635801E+03	1.500715E-15	4.298682E-18
4.637797E+03	1.485428E-15	4.254891E-18
4.639792E+03	1.471177E-15	4.214068E-18
4.641788E+03	1.460392E-15	4.183170E-18
4.643784E+03	1.449950E-15	4.153258E-18
4.645779E+03	1.441588E-15	4.129300E-18
4.647775E+03	1.437215E-15	4.116771E-18
4.649771E+03	1.436573E-15	4.114929E-18
4.651766E+03	1.429680E-15	4.095180E-18
4.653762E+03	1.414621E-15	4.052042E-18
4.655757E+03	1.393044E-15	3.990234E-18
4.657753E+03	1.368421E-15	3.919699E-18
4.659749E+03	1.347264E-15	3.859093E-18
4.661744E+03	1.328098E-15	3.804192E-18
4.663740E+03	1.312577E-15	3.759729E-18
4.665735E+03	1.298528E-15	3.719483E-18
4.667731E+03	1.286908E-15	3.686197E-18
4.669727E+03	1.273633E-15	3.648168E-18
4.671722E+03	1.258788E-15	3.605643E-18
4.673718E+03	1.246025E-15	3.569082E-18
4.675713E+03	1.232911E-15	3.531515E-18
4.677709E+03	1.222489E-15	3.501659E-18
4.679705E+03	1.213978E-15	3.477276E-18
4.681700E+03	1.204159E-15	3.449146E-18
4.683696E+03	1.191899E-15	3.414026E-18
4.685691E+03	1.177895E-15	3.373910E-18
4.687687E+03	1.168239E-15	3.346247E-18
4.689683E+03	1.159973E-15	3.322568E-18
4.691678E+03	1.148831E-15	3.290649E-18
4.693674E+03	1.139688E-15	3.264456E-18
4.695670E+03	1.132894E-15	3.244992E-18
4.697665E+03	1.128800E-15	3.233261E-18
4.699661E+03	1.124355E-15	3.220525E-18
4.701656E+03	1.117032E-15	3.199546E-18
4.703652E+03	1.111363E-15	3.183306E-18
4.705648E+03	1.108221E-15	3.174301E-18
4.707643E+03	1.097579E-15	3.143814E-18
4.709639E+03	1.088328E-15	3.117314E-18
4.711634E+03	1.087012E-15	3.113539E-18
4.713630E+03	1.080897E-15	3.096021E-18
4.715626E+03	1.072250E-15	3.071248E-18
4.717621E+03	1.066916E-15	3.055966E-18
4.719617E+03	1.062104E-15	3.042179E-18
4.721612E+03	1.057290E-15	3.028387E-18
4.723608E+03	1.056491E-15	3.026094E-18
4.725604E+03	1.056740E-15	3.026801E-18
4.727599E+03	1.057337E-15	3.028507E-18
4.729595E+03	1.057584E-15	3.029212E-18
4.731591E+03	1.058619E-15	3.032171E-18
4.733586E+03	1.059653E-15	3.035129E-18
4.735582E+03	1.059901E-15	3.035833E-18
4.737577E+03	1.056041E-15	3.024773E-18
4.739573E+03	1.055502E-15	3.023224E-18
4.741569E+03	1.053738E-15	3.018167E-18
4.743564E+03	1.051361E-15	3.011353E-18
4.745560E+03	1.047934E-15	3.001533E-18
4.747555E+03	1.046868E-15	2.998474E-18
4.749551E+03	1.047200E-15	2.999422E-18
4.751547E+03	1.046308E-15	2.996861E-18
4.753542E+03	1.045152E-15	2.993546E-18
4.755538E+03	1.045659E-15	2.994993E-18
4.757533E+03	1.047479E-15	3.000199E-18
4.759529E+03	1.048949E-15	3.004406E-18
4.761525E+03	1.051995E-15	3.013125E-18
4.763520E+03	1.052940E-15	3.015826E-18
4.765516E+03	1.050470E-15	3.008746E-18
4.767511E+03	1.049313E-15	3.005426E-18
4.769507E+03	1.049470E-15	3.005869E-18
4.771503E+03	1.047698E-15	3.000789E-18
4.773498E+03	1.048730E-15	3.003739E-18
4.775494E+03	1.051078E-15	3.010457E-18
4.777490E+03	1.050094E-15	3.007633E-18
4.779485E+03	1.046655E-15	2.997778E-18
4.781481E+03	1.045670E-15	2.994950E-18
4.783476E+03	1.047053E-15	2.998905E-18
4.785472E+03	1.046681E-15	2.997834E-18
4.787468E+03	1.043063E-15	2.987466E-18
4.789463E+03	1.040585E-15	2.980362E-18
4.791459E+03	1.039334E-15	2.976774E-18
4.793454E+03	1.038434E-15	2.974188E-18
4.795450E+03	1.039201E-15	2.976380E-18
4.797446E+03	1.040847E-15	2.981085E-18
4.799441E+03	1.038453E-15	2.974222E-18
4.801437E+03	1.032282E-15	2.956543E-18
4.803432E+03	1.028305E-15	2.945146E-18
4.805428E+03	1.026172E-15	2.939029E-18
4.807424E+03	1.024126E-15	2.933161E-18
4.809419E+03	1.023309E-15	2.930814E-18
4.811415E+03	1.023194E-15	2.930478E-18
4.813410E+03	1.018597E-15	2.917306E-18
4.815406E+03	1.018921E-15	2.918225E-18
4.817402E+03	1.019245E-15	2.919147E-18
4.819397E+03	1.019481E-15	2.919815E-18
4.821393E+03	1.021387E-15	2.925268E-18
4.823389E+03	1.023998E-15	2.932737E-18
4.825384E+03	1.025378E-15	2.936682E-18
4.827380E+03	1.024382E-15	2.933822E-18
4.829375E+03	1.024178E-15	2.933230E-18
4.831371E+03	1.025734E-15	2.937678E-18
4.833367E+03	1.027290E-15	2.942127E-18
4.835362E+03	1.029903E-15	2.949603E-18
4.837358E+03	1.032868E-15	2.958086E-18
4.839353E+03	1.032049E-15	2.955730E-18
4.841349E+03	1.034839E-15	2.963712E-18
4.843345E+03	1.039567E-15	2.977246E-18
4.845340E+03	1.042359E-15	2.985232E-18
4.847336E+03	1.043742E-15	2.989184E-18
4.849331E+03	1.047680E-15	3.000452E-18
4.851327E+03	1.051090E-15	3.010210E-18
4.853323E+03	1.054942E-15	3.021233E-18
4.855318E+03	1.057209E-15	3.027714E-18
4.857314E+03	1.064325E-15	3.048084E-18
4.859310E+03	1.070207E-15	3.064922E-18
4.861305E+03	1.071330E-15	3.068125E-18
4.863301E+03	1.075980E-15	3.081433E-18
4.865296E+03	1.084337E-15	3.105355E-18
4.867292E+03	1.091726E-15	3.126506E-18
4.869288E+03	1.098852E-15	3.146902E-18
4.871283E+03	1.108274E-15	3.173875E-18
4.873279E+03	1.114786E-15	3.192512E-18
4.875274E+03	1.120152E-15	3.207868E-18
4.877270E+03	1.122517E-15	3.214629E-18
4.879266E+03	1.124440E-15	3.220127E-18
4.881261E+03	1.127336E-15	3.228408E-18
4.883257E+03	1.126346E-15	3.225561E-18
4.885252E+03	1.120672E-15	3.209301E-18
4.887248E+03	1.118709E-15	3.203666E-18
4.889244E+03	1.117716E-15	3.200811E-18
4.891239E+03	1.114337E-15	3.191122E-18
4.893235E+03	1.111575E-15	3.183200E-18
4.895230E+03	1.108459E-15	3.174263E-18
4.897226E+03	1.103750E-15	3.160767E-18
4.899222E+03	1.097979E-15	3.144227E-18
4.901217E+03	1.094593E-15	3.134518E-18
4.903213E+03	1.094126E-15	3.133168E-18
4.905209E+03	1.093216E-15	3.130548E-18
4.907204E+03	1.088854E-15	3.118046E-18
4.909200E+03	1.085111E-15	3.107313E-18
4.911195E+03	1.082340E-15	3.099364E-18
4.913191E+03	1.076647E-15	3.083049E-18
4.915187E+03	1.071572E-15	3.068502E-18
4.917182E+03	1.070391E-15	3.065108E-18
4.919178E+03	1.071778E-15	3.069065E-18
4.921173E+03	1.073431E-15	3.073784E-18
4.923169E+03	1.073489E-15	3.073937E-18
4.925165E+03	1.072396E-15	3.070793E-18
4.927160E+03	1.075201E-15	3.078809E-18
4.929156E+03	1.079867E-15	3.092158E-18
4.931151E+03	1.085243E-15	3.107537E-18
4.933147E+03	1.090621E-15	3.122921E-18
4.935143E+03	1.094759E-15	3.134753E-18
4.937138E+03	1.097125E-15	3.141512E-18
4.939134E+03	1.100289E-15	3.150555E-18
4.941130E+03	1.106823E-15	3.169251E-18
4.943125E+03	1.113183E-15	3.187443E-18
4.945121E+03	1.115551E-15	3.194208E-18
4.947116E+03	1.118363E-15	3.202244E-18
4.949112E+03	1.124194E-15	3.218922E-18
4.951108E+03	1.128605E-15	3.231537E-18
4.953103E+03	1.131776E-15	3.240597E-18
4.955099E+03	1.136101E-15	3.252962E-18
4.957094E+03	1.141758E-15	3.269142E-18
4.959090E+03	1.146618E-15	3.283038E-18
4.961086E+03	1.150501E-15	3.294140E-18
4.963081E+03	1.155007E-15	3.307023E-18
4.965077E+03	1.159515E-15	3.319910E-18
