#wls	flux	fluxerr
1.596488E+03	2.062092E-17	4.178916E-19
1.636400E+03	2.035910E-17	4.123037E-19
1.676312E+03	2.007994E-17	4.063644E-19
1.716224E+03	1.978560E-17	4.001183E-19
1.756136E+03	1.947698E-17	3.935846E-19
1.796049E+03	1.915022E-17	3.866858E-19
1.835961E+03	1.879635E-17	3.792422E-19
1.875873E+03	1.840734E-17	3.710936E-19
1.915785E+03	1.797272E-17	3.620307E-19
1.955697E+03	1.748759E-17	3.519581E-19
1.995610E+03	1.695984E-17	3.410372E-19
2.035522E+03	1.642346E-17	3.299539E-19
2.075434E+03	1.594499E-17	3.200447E-19
2.115346E+03	1.561932E-17	3.132098E-19
2.155258E+03	1.553519E-17	3.112184E-19
2.195171E+03	1.572930E-17	3.147907E-19
2.235083E+03	1.617476E-17	3.233720E-19
2.274995E+03	1.680493E-17	3.356148E-19
2.314907E+03	1.755073E-17	3.501283E-19
2.354819E+03	1.836437E-17	3.659508E-19
2.394732E+03	1.921993E-17	3.825608E-19
2.434644E+03	2.010980E-17	3.998019E-19
2.474556E+03	2.104138E-17	4.178173E-19
2.514468E+03	2.202604E-17	4.368273E-19
2.554380E+03	2.307548E-17	4.570578E-19
2.594293E+03	2.420690E-17	4.788418E-19
2.634205E+03	2.543870E-17	5.025339E-19
2.674117E+03	2.678565E-17	5.284152E-19
2.714029E+03	2.826958E-17	5.569031E-19
2.753941E+03	2.990707E-17	5.883091E-19
2.793854E+03	3.172272E-17	6.230994E-19
2.833766E+03	3.373754E-17	6.616666E-19
2.873678E+03	3.597374E-17	7.044228E-19
2.913590E+03	3.846119E-17	7.519267E-19
2.953502E+03	4.122289E-17	8.045978E-19
2.993414E+03	4.429185E-17	8.630464E-19
3.003393E+03	4.510824E-17	8.785791E-19
3.013371E+03	4.594851E-17	8.945609E-19
3.023349E+03	4.681060E-17	9.109510E-19
3.033327E+03	4.769325E-17	9.277243E-19
3.043305E+03	4.860029E-17	9.449545E-19
3.053283E+03	4.953157E-17	9.626382E-19
3.063261E+03	5.049269E-17	9.808831E-19
3.073239E+03	5.147810E-17	9.995805E-19
3.083217E+03	5.249362E-17	1.018843E-18
3.093195E+03	5.353352E-17	1.038558E-18
3.103173E+03	5.460386E-17	1.058842E-18
3.113151E+03	5.570180E-17	1.079640E-18
3.123129E+03	5.682427E-17	1.100891E-18
3.133107E+03	5.797768E-17	1.122718E-18
3.143085E+03	5.915572E-17	1.144998E-18
3.153063E+03	6.036504E-17	1.167860E-18
3.163041E+03	6.159904E-17	1.191173E-18
3.173019E+03	6.286109E-17	1.215003E-18
3.182997E+03	6.415481E-17	1.239419E-18
3.192975E+03	6.547316E-17	1.264283E-18
3.202954E+03	6.682335E-17	1.289734E-18
3.212932E+03	6.819800E-17	1.315628E-18
3.222910E+03	6.960463E-17	1.342110E-18
3.232888E+03	7.103535E-17	1.369026E-18
3.242866E+03	7.249396E-17	1.396448E-18
3.252844E+03	7.398435E-17	1.424451E-18
3.262822E+03	7.549818E-17	1.452872E-18
3.272800E+03	7.703926E-17	1.481785E-18
3.282778E+03	7.861153E-17	1.511263E-18
3.292756E+03	8.020607E-17	1.541135E-18
3.302734E+03	8.182676E-17	1.571473E-18
3.312712E+03	8.347768E-17	1.602355E-18
3.322690E+03	8.514923E-17	1.633596E-18
3.332668E+03	8.684531E-17	1.665270E-18
3.342646E+03	8.856515E-17	1.697361E-18
3.352624E+03	9.031310E-17	1.729951E-18
3.362602E+03	9.207850E-17	1.762835E-18
3.372580E+03	9.386529E-17	1.796087E-18
3.382558E+03	9.567259E-17	1.829691E-18
3.392536E+03	9.749931E-17	1.863623E-18
3.402514E+03	9.934444E-17	1.897864E-18
3.412493E+03	1.012122E-16	1.932494E-18
3.422471E+03	1.030907E-16	1.967284E-18
3.432449E+03	1.049839E-16	2.002310E-18
3.442427E+03	1.068905E-16	2.037545E-18
3.452405E+03	1.088091E-16	2.072963E-18
3.462383E+03	1.107383E-16	2.108535E-18
3.472361E+03	1.126767E-16	2.144236E-18
3.482339E+03	1.146227E-16	2.180034E-18
3.492317E+03	1.165750E-16	2.215904E-18
3.502295E+03	1.185321E-16	2.251815E-18
3.512273E+03	1.204926E-16	2.287742E-18
3.522251E+03	1.224552E-16	2.323659E-18
3.532229E+03	1.244120E-16	2.359417E-18
3.542207E+03	1.263752E-16	2.395244E-18
3.552185E+03	1.283372E-16	2.431000E-18
3.562163E+03	1.302976E-16	2.466672E-18
3.572141E+03	1.322558E-16	2.502254E-18
3.582119E+03	1.342049E-16	2.537611E-18
3.592097E+03	1.361593E-16	2.573016E-18
3.602075E+03	1.381131E-16	2.608358E-18
3.612053E+03	1.400679E-16	2.643667E-18
3.622032E+03	1.420186E-16	2.678844E-18
3.632010E+03	1.439833E-16	2.714233E-18
3.641988E+03	1.459589E-16	2.749774E-18
3.651966E+03	1.479431E-16	2.785421E-18
3.661944E+03	1.499582E-16	2.821596E-18
3.671922E+03	1.519971E-16	2.858162E-18
3.681900E+03	1.540860E-16	2.895611E-18
3.691878E+03	1.562214E-16	2.933876E-18
3.701856E+03	1.584352E-16	2.973550E-18
3.711834E+03	1.607291E-16	3.014666E-18
3.721812E+03	1.631423E-16	3.057953E-18
3.731790E+03	1.656844E-16	3.103587E-18
3.741768E+03	1.683955E-16	3.152313E-18
3.751746E+03	1.713213E-16	3.204979E-18
3.761724E+03	1.744866E-16	3.262040E-18
3.771702E+03	1.779477E-16	3.324542E-18
3.781680E+03	1.817571E-16	3.393449E-18
3.791658E+03	1.859806E-16	3.469976E-18
3.801636E+03	1.906578E-16	3.554847E-18
3.811614E+03	1.958575E-16	3.649325E-18
3.821592E+03	2.016382E-16	3.754477E-18
3.831571E+03	2.080549E-16	3.871306E-18
3.841549E+03	2.151568E-16	4.000702E-18
3.851527E+03	2.229846E-16	4.143389E-18
3.861505E+03	2.315661E-16	4.299858E-18
3.871483E+03	2.409131E-16	4.470297E-18
3.881461E+03	2.510168E-16	4.654509E-18
3.891439E+03	2.618429E-16	4.851829E-18
3.901417E+03	2.733276E-16	5.061047E-18
3.911395E+03	2.853746E-16	5.280350E-18
3.921373E+03	2.978528E-16	5.507292E-18
3.931351E+03	3.105819E-16	5.738523E-18
3.941329E+03	3.233988E-16	5.971016E-18
3.951307E+03	3.360712E-16	6.200482E-18
3.961285E+03	3.483519E-16	6.422366E-18
3.971263E+03	3.600461E-16	6.633096E-18
3.981241E+03	3.709204E-16	6.828393E-18
3.991219E+03	3.807651E-16	7.004432E-18
4.001197E+03	3.894654E-16	7.159146E-18
4.011175E+03	3.968748E-16	7.289887E-18
4.021153E+03	4.029768E-16	7.396404E-18
4.031132E+03	4.077262E-16	7.477922E-18
4.041110E+03	4.111888E-16	7.535704E-18
4.051088E+03	4.134773E-16	7.571865E-18
4.061066E+03	4.146805E-16	7.588079E-18
4.071044E+03	4.149809E-16	7.587729E-18
4.081022E+03	4.145623E-16	7.574211E-18
4.091000E+03	4.136422E-16	7.551525E-18
4.100978E+03	4.123793E-16	7.522591E-18
4.110956E+03	4.109907E-16	7.491377E-18
4.120934E+03	4.096600E-16	7.461235E-18
4.130912E+03	4.085524E-16	7.435171E-18
4.140890E+03	4.078091E-16	7.415740E-18
4.150868E+03	4.075439E-16	7.404994E-18
4.160846E+03	4.078400E-16	7.404426E-18
4.170824E+03	4.087501E-16	7.414965E-18
4.180802E+03	4.102761E-16	7.436618E-18
4.190780E+03	4.124531E-16	7.469994E-18
4.200758E+03	4.152298E-16	7.514136E-18
4.210736E+03	4.185547E-16	7.568086E-18
4.220714E+03	4.223390E-16	7.630215E-18
4.230692E+03	4.265466E-16	7.699849E-18
4.240671E+03	4.310524E-16	7.774714E-18
4.250649E+03	4.358196E-16	7.854130E-18
4.260627E+03	4.407363E-16	7.936072E-18
4.270605E+03	4.457975E-16	8.020441E-18
4.280583E+03	4.509396E-16	8.106087E-18
4.290561E+03	4.562018E-16	8.193710E-18
4.300539E+03	4.616679E-16	8.284809E-18
4.310517E+03	4.674015E-16	8.380511E-18
4.320495E+03	4.735834E-16	8.484044E-18
4.330473E+03	4.804215E-16	8.599108E-18
4.340451E+03	4.881728E-16	8.730265E-18
4.350429E+03	4.971418E-16	8.882916E-18
4.360407E+03	5.076793E-16	9.063263E-18
4.370385E+03	5.201820E-16	9.278307E-18
4.380363E+03	5.350897E-16	9.535792E-18
4.390341E+03	5.528831E-16	9.844162E-18
4.400319E+03	5.740771E-16	1.021244E-17
4.410297E+03	5.992108E-16	1.065003E-17
4.420275E+03	6.287979E-16	1.116588E-17
4.430253E+03	6.634208E-16	1.177010E-17
4.440231E+03	7.035088E-16	1.247006E-17
4.450210E+03	7.493618E-16	1.327079E-17
4.460188E+03	8.011862E-16	1.417566E-17
4.470166E+03	8.587503E-16	1.518028E-17
4.480144E+03	9.215348E-16	1.627520E-17
4.490122E+03	9.885396E-16	1.744251E-17
4.500100E+03	1.058056E-15	1.865188E-17
4.510078E+03	1.127931E-15	1.986522E-17
4.520056E+03	1.195494E-15	2.103557E-17
4.530034E+03	1.257541E-15	2.210667E-17
4.540012E+03	1.310918E-15	2.302342E-17
4.549990E+03	1.352625E-15	2.373358E-17
4.559968E+03	1.380219E-15	2.419492E-17
4.569946E+03	1.392109E-15	2.438024E-17
4.579924E+03	1.387754E-15	2.428089E-17
4.589902E+03	1.367712E-15	2.390743E-17
4.599880E+03	1.333480E-15	2.328676E-17
4.609858E+03	1.287524E-15	2.246267E-17
4.619836E+03	1.232603E-15	2.148379E-17
4.629814E+03	1.171653E-15	2.040175E-17
4.639792E+03	1.107682E-15	1.926914E-17
4.649771E+03	1.043146E-15	1.812885E-17
4.659749E+03	9.802677E-16	1.701949E-17
4.669727E+03	9.205690E-16	1.596737E-17
4.679705E+03	8.652261E-16	1.499273E-17
4.689683E+03	8.149707E-16	1.410801E-17
4.699661E+03	7.700560E-16	1.331734E-17
4.709639E+03	7.305803E-16	1.262215E-17
4.719617E+03	6.963996E-16	1.201967E-17
4.729595E+03	6.672351E-16	1.150484E-17
4.739573E+03	6.427239E-16	1.107115E-17
4.749551E+03	6.224580E-16	1.071134E-17
4.759529E+03	6.060117E-16	1.041787E-17
4.769507E+03	5.929602E-16	1.018325E-17
4.779485E+03	5.828906E-16	1.000023E-17
4.789463E+03	5.753814E-16	9.861414E-18
4.799441E+03	5.701138E-16	9.761232E-18
4.809419E+03	5.666809E-16	9.692597E-18
4.819397E+03	5.648039E-16	9.650653E-18
4.829375E+03	5.641157E-16	9.629053E-18
4.839353E+03	5.643750E-16	9.623622E-18
4.849331E+03	5.652536E-16	9.628717E-18
4.859310E+03	5.665251E-16	9.640457E-18
4.869288E+03	5.679887E-16	9.655407E-18
4.879266E+03	5.693918E-16	9.669266E-18
4.889244E+03	5.705935E-16	9.679648E-18
4.899222E+03	5.714598E-16	9.684296E-18
4.909200E+03	5.718918E-16	9.681550E-18
4.919178E+03	5.718262E-16	9.670366E-18
4.929156E+03	5.712109E-16	9.649890E-18
4.939134E+03	5.701153E-16	9.621320E-18
4.949112E+03	5.685738E-16	9.585267E-18
4.959090E+03	5.666992E-16	9.543650E-18
4.969068E+03	5.646329E-16	9.498869E-18
4.979046E+03	5.626540E-16	9.455625E-18
4.989024E+03	5.609927E-16	9.417778E-18
4.999002E+03	5.600102E-16	9.391370E-18
5.008980E+03	5.601108E-16	9.383136E-18
5.018958E+03	5.616510E-16	9.398989E-18
5.028936E+03	5.650833E-16	9.446412E-18
5.038914E+03	5.708342E-16	9.532433E-18
5.048892E+03	5.793136E-16	9.663762E-18
5.058870E+03	5.908935E-16	9.846458E-18
5.068849E+03	6.058867E-16	1.008556E-17
5.078827E+03	6.245205E-16	1.038467E-17
5.088805E+03	6.469093E-16	1.074549E-17
5.098783E+03	6.730244E-16	1.116735E-17
5.108761E+03	7.026322E-16	1.164619E-17
5.118739E+03	7.353973E-16	1.217625E-17
5.128717E+03	7.706385E-16	1.274612E-17
5.138695E+03	8.075938E-16	1.334306E-17
5.148673E+03	8.451570E-16	1.394874E-17
5.158651E+03	8.821755E-16	1.454412E-17
5.168629E+03	9.174134E-16	1.510889E-17
5.178607E+03	9.495182E-16	1.562088E-17
5.188585E+03	9.773752E-16	1.606194E-17
5.198563E+03	1.000054E-15	1.641703E-17
5.208541E+03	1.016931E-15	1.667621E-17
5.218519E+03	1.027742E-15	1.683544E-17
5.228497E+03	1.032582E-15	1.689662E-17
5.238475E+03	1.031820E-15	1.686607E-17
5.248453E+03	1.026206E-15	1.675635E-17
5.258431E+03	1.016497E-15	1.658007E-17
5.268409E+03	1.003505E-15	1.635065E-17
5.278388E+03	9.881598E-16	1.608342E-17
5.288366E+03	9.711258E-16	1.578929E-17
5.298344E+03	9.531423E-16	1.548037E-17
5.308322E+03	9.346460E-16	1.516378E-17
5.318300E+03	9.160903E-16	1.484690E-17
5.328278E+03	8.977803E-16	1.453467E-17
5.338256E+03	8.799367E-16	1.423065E-17
5.348234E+03	8.627081E-16	1.393722E-17
5.358212E+03	8.461878E-16	1.365584E-17
5.368190E+03	8.304176E-16	1.338716E-17
5.378168E+03	8.153946E-16	1.313108E-17
5.388146E+03	8.010284E-16	1.288612E-17
5.398124E+03	7.872860E-16	1.265171E-17
5.408102E+03	7.739623E-16	1.242453E-17
5.418080E+03	7.607878E-16	1.220023E-17
5.428058E+03	7.474924E-16	1.197447E-17
5.438036E+03	7.337360E-16	1.174183E-17
5.448014E+03	7.190254E-16	1.149443E-17
5.457992E+03	7.029511E-16	1.122578E-17
5.467970E+03	6.851109E-16	1.092954E-17
5.477949E+03	6.652290E-16	1.060140E-17
5.487927E+03	6.432455E-16	1.024049E-17
5.497905E+03	6.193435E-16	9.849837E-18
5.507883E+03	5.938829E-16	9.435241E-18
5.517861E+03	5.673074E-16	9.003816E-18
5.527839E+03	5.400523E-16	8.562515E-18
5.537817E+03	5.126054E-16	8.119089E-18
5.547795E+03	4.853131E-16	7.679023E-18
5.557773E+03	4.585626E-16	7.248428E-18
5.567751E+03	4.326003E-16	6.831160E-18
5.577729E+03	4.076862E-16	6.431278E-18
5.587707E+03	3.840300E-16	6.052035E-18
5.597685E+03	3.617480E-16	5.695196E-18
5.607663E+03	3.409758E-16	5.362825E-18
5.617641E+03	3.218011E-16	5.056224E-18
5.627619E+03	3.042857E-16	4.776286E-18
5.637597E+03	2.884568E-16	4.523356E-18
5.647575E+03	2.743632E-16	4.298118E-18
5.657553E+03	2.619990E-16	4.100396E-18
5.667531E+03	2.513497E-16	3.929882E-18
5.677509E+03	2.424284E-16	3.786700E-18
5.687488E+03	2.351992E-16	3.670207E-18
5.697466E+03	2.296699E-16	3.580450E-18
5.707444E+03	2.258088E-16	3.516854E-18
5.717422E+03	2.236206E-16	3.479416E-18
5.727400E+03	2.231058E-16	3.468070E-18
5.737378E+03	2.242717E-16	3.482854E-18
5.747356E+03	2.271311E-16	3.523890E-18
5.757334E+03	2.316996E-16	3.591345E-18
5.767312E+03	2.379896E-16	3.685337E-18
5.777290E+03	2.460030E-16	3.805821E-18
5.787268E+03	2.557207E-16	3.952427E-18
5.797246E+03	2.670776E-16	4.124076E-18
5.807224E+03	2.799950E-16	4.319486E-18
5.817202E+03	2.942824E-16	4.535654E-18
5.827180E+03	3.097072E-16	4.768942E-18
5.837158E+03	3.259497E-16	5.014387E-18
5.847136E+03	3.425528E-16	5.264928E-18
5.857114E+03	3.590116E-16	5.512803E-18
5.867092E+03	3.747342E-16	5.748941E-18
5.877070E+03	3.890883E-16	5.963682E-18
5.887048E+03	4.014461E-16	6.147472E-18
5.897027E+03	4.112413E-16	6.291737E-18
5.907005E+03	4.180093E-16	6.389483E-18
5.916983E+03	4.215133E-16	6.437219E-18
5.926961E+03	4.216485E-16	6.433485E-18
5.936939E+03	4.186027E-16	6.381282E-18
5.946917E+03	4.126931E-16	6.285570E-18
5.956895E+03	4.044808E-16	6.155005E-18
5.966873E+03	3.945749E-16	5.998941E-18
5.976851E+03	3.837073E-16	5.828560E-18
5.986829E+03	3.726090E-16	5.654992E-18
5.996807E+03	3.619877E-16	5.488980E-18
6.006785E+03	3.525020E-16	5.340478E-18
6.016763E+03	3.447496E-16	5.218486E-18
6.026741E+03	3.392692E-16	5.131084E-18
6.036719E+03	3.365406E-16	5.085429E-18
6.046697E+03	3.370673E-16	5.089017E-18
6.056675E+03	3.413017E-16	5.148546E-18
6.066653E+03	3.498002E-16	5.272260E-18
6.076631E+03	3.631403E-16	5.468692E-18
6.086609E+03	3.820854E-16	5.749148E-18
6.096588E+03	4.075012E-16	6.126435E-18
6.106566E+03	4.405144E-16	6.617237E-18
6.116544E+03	4.824919E-16	7.241794E-18
6.126522E+03	5.350951E-16	8.024695E-18
6.136500E+03	6.003050E-16	8.995241E-18
6.146478E+03	6.804216E-16	1.018742E-17
6.156456E+03	7.779865E-16	1.163873E-17
6.166434E+03	8.958127E-16	1.339060E-17
6.176412E+03	1.036563E-15	1.548209E-17
6.186390E+03	1.202768E-15	1.795020E-17
6.196368E+03	1.396110E-15	2.081912E-17
6.206346E+03	1.617370E-15	2.409961E-17
6.216324E+03	1.865489E-15	2.777495E-17
6.226302E+03	2.137551E-15	3.180089E-17
6.236280E+03	2.428202E-15	3.609706E-17
6.246258E+03	2.729565E-15	4.054593E-17
6.256236E+03	3.031371E-15	4.499476E-17
6.266214E+03	3.321397E-15	4.926235E-17
6.276192E+03	3.586245E-15	5.315062E-17
6.286170E+03	3.812245E-15	5.645801E-17
6.296148E+03	3.987397E-15	5.900832E-17
6.306127E+03	4.101507E-15	6.065252E-17
6.316105E+03	4.148678E-15	6.130549E-17
6.326083E+03	4.126638E-15	6.093585E-17
6.336061E+03	4.038207E-15	5.958744E-17
6.346039E+03	3.890397E-15	5.736572E-17
6.356017E+03	3.693033E-15	5.441729E-17
6.365995E+03	3.458619E-15	5.092775E-17
6.375973E+03	3.200305E-15	4.709168E-17
6.385951E+03	2.930699E-15	4.309511E-17
6.395929E+03	2.661383E-15	3.910851E-17
6.405907E+03	2.401431E-15	3.526502E-17
6.415885E+03	2.157646E-15	3.166412E-17
6.425863E+03	1.934327E-15	2.836832E-17
6.435841E+03	1.733787E-15	2.541085E-17
6.445819E+03	1.556514E-15	2.279815E-17
6.455797E+03	1.401449E-15	2.051399E-17
6.465775E+03	1.266848E-15	1.853220E-17
6.475753E+03	1.150415E-15	1.681862E-17
6.485731E+03	1.049482E-15	1.533372E-17
6.495709E+03	9.615691E-16	1.404084E-17
6.505687E+03	8.843341E-16	1.290543E-17
6.515666E+03	8.159586E-16	1.190066E-17
6.525644E+03	7.549670E-16	1.100477E-17
6.535622E+03	7.003377E-16	1.020268E-17
6.545600E+03	6.512875E-16	9.482784E-18
6.555578E+03	6.072499E-16	8.836705E-18
6.565556E+03	5.675963E-16	8.255157E-18
6.575534E+03	5.318122E-16	7.730543E-18
6.585512E+03	4.994091E-16	7.255665E-18
6.595490E+03	4.698747E-16	6.822992E-18
6.605468E+03	4.428175E-16	6.426767E-18
6.615446E+03	4.178815E-16	6.061762E-18
6.625424E+03	3.947738E-16	5.723674E-18
6.635402E+03	3.732635E-16	5.409109E-18
6.645380E+03	3.531628E-16	5.115307E-18
6.655358E+03	3.343833E-16	4.840950E-18
6.665336E+03	3.168304E-16	4.584636E-18
6.675314E+03	3.004441E-16	4.345467E-18
6.685292E+03	2.852246E-16	4.123416E-18
6.695270E+03	2.711273E-16	3.917812E-18
6.705248E+03	2.581465E-16	3.728544E-18
6.715227E+03	2.462669E-16	3.555366E-18
6.725205E+03	2.354298E-16	3.397407E-18
6.735183E+03	2.255992E-16	3.254124E-18
6.745161E+03	2.167193E-16	3.124690E-18
6.755139E+03	2.087298E-16	3.008217E-18
6.765117E+03	2.015619E-16	2.903694E-18
6.775095E+03	1.951788E-16	2.810577E-18
6.785073E+03	1.895263E-16	2.728066E-18
6.795051E+03	1.845630E-16	2.655553E-18
6.805029E+03	1.802860E-16	2.592983E-18
6.815007E+03	1.766730E-16	2.540023E-18
6.824985E+03	1.737455E-16	2.496969E-18
6.834963E+03	1.715037E-16	2.463811E-18
6.844941E+03	1.699783E-16	2.440979E-18
6.854919E+03	1.691971E-16	2.428859E-18
6.864897E+03	1.691905E-16	2.427875E-18
6.874875E+03	1.699901E-16	2.438470E-18
6.884853E+03	1.716273E-16	2.461079E-18
6.894831E+03	1.741324E-16	2.496127E-18
6.904809E+03	1.775350E-16	2.544024E-18
6.914787E+03	1.818564E-16	2.605060E-18
6.924766E+03	1.871418E-16	2.679874E-18
6.934744E+03	1.934058E-16	2.768660E-18
6.944722E+03	2.006973E-16	2.872105E-18
6.954700E+03	2.090315E-16	2.990415E-18
6.964678E+03	2.184484E-16	3.124147E-18
6.974656E+03	2.289758E-16	3.273689E-18
6.984634E+03	2.406458E-16	3.439484E-18
6.994612E+03	2.534500E-16	3.621402E-18
7.004590E+03	2.674013E-16	3.819614E-18
7.014568E+03	2.824813E-16	4.033847E-18
7.024546E+03	2.987047E-16	4.264299E-18
7.034524E+03	3.160561E-16	4.510741E-18
7.044502E+03	3.345516E-16	4.773392E-18
7.054480E+03	3.542316E-16	5.052818E-18
7.064458E+03	3.752451E-16	5.351136E-18
7.074436E+03	3.977673E-16	5.670832E-18
7.084414E+03	4.221313E-16	6.016643E-18
7.094392E+03	4.488005E-16	6.395158E-18
7.104370E+03	4.783110E-16	6.813994E-18
7.114348E+03	5.113768E-16	7.283298E-18
7.124326E+03	5.487896E-16	7.814315E-18
7.134305E+03	5.913952E-16	8.419050E-18
7.144283E+03	6.400310E-16	9.109380E-18
7.154261E+03	6.954431E-16	9.895879E-18
7.164239E+03	7.581490E-16	1.078585E-17
7.174217E+03	8.284444E-16	1.178346E-17
7.184195E+03	9.060856E-16	1.288519E-17
7.194173E+03	9.902494E-16	1.407928E-17
7.204151E+03	1.079595E-15	1.534666E-17
7.214129E+03	1.171945E-15	1.665634E-17
7.224107E+03	1.264660E-15	1.797082E-17
7.234085E+03	1.354631E-15	1.924595E-17
7.244063E+03	1.438613E-15	2.043570E-17
7.254041E+03	1.513259E-15	2.149257E-17
7.264019E+03	1.575745E-15	2.237656E-17
7.273997E+03	1.623731E-15	2.305453E-17
7.283975E+03	1.655456E-15	2.350160E-17
7.293953E+03	1.670069E-15	2.370581E-17
7.303931E+03	1.667154E-15	2.366133E-17
7.313909E+03	1.646955E-15	2.337175E-17
7.323887E+03	1.610168E-15	2.284703E-17
7.333865E+03	1.558172E-15	2.210680E-17
7.343844E+03	1.492488E-15	2.117269E-17
7.353822E+03	1.415229E-15	2.007474E-17
7.363800E+03	1.328829E-15	1.884749E-17
7.373778E+03	1.235793E-15	1.752645E-17
7.383756E+03	1.138943E-15	1.615167E-17
7.393734E+03	1.041030E-15	1.476213E-17
7.403712E+03	9.446331E-16	1.339439E-17
7.413690E+03	8.520124E-16	1.208045E-17
7.423668E+03	7.649836E-16	1.084600E-17
7.433646E+03	6.848503E-16	9.709507E-18
7.443624E+03	6.123717E-16	8.681689E-18
7.453602E+03	5.479188E-16	7.767770E-18
7.463580E+03	4.913872E-16	6.966246E-18
7.473558E+03	4.423988E-16	6.271730E-18
7.483536E+03	4.004361E-16	5.676869E-18
7.493514E+03	3.648796E-16	5.172866E-18
7.503492E+03	3.350345E-16	4.749864E-18
7.513470E+03	3.102778E-16	4.399023E-18
7.523448E+03	2.900179E-16	4.111954E-18
7.533426E+03	2.737382E-16	3.881332E-18
7.543405E+03	2.609539E-16	3.700287E-18
7.553383E+03	2.512857E-16	3.563444E-18
7.563361E+03	2.443954E-16	3.466010E-18
7.573339E+03	2.400370E-16	3.404507E-18
7.583317E+03	2.379856E-16	3.375750E-18
7.593295E+03	2.380750E-16	3.377392E-18
7.603273E+03	2.401674E-16	3.407491E-18
7.613251E+03	2.441867E-16	3.464974E-18
7.623229E+03	2.500319E-16	3.548426E-18
7.633207E+03	2.576511E-16	3.657122E-18
7.643185E+03	2.669380E-16	3.789568E-18
7.653163E+03	2.777955E-16	3.944406E-18
7.663141E+03	2.900907E-16	4.119763E-18
7.673119E+03	3.036034E-16	4.312532E-18
7.683097E+03	3.180942E-16	4.519329E-18
7.693075E+03	3.332527E-16	4.735760E-18
7.703053E+03	3.487130E-16	4.956641E-18
7.713031E+03	3.640634E-16	5.176129E-18
7.723009E+03	3.788439E-16	5.387692E-18
7.732987E+03	3.926317E-16	5.585317E-18
7.742965E+03	4.049624E-16	5.762393E-18
