#wls	flux	fluxerr
1.596488E+03	1.549863E-17	5.614781E-19
1.636400E+03	1.540321E-17	5.575352E-19
1.676312E+03	1.529274E-17	5.530408E-19
1.716224E+03	1.516820E-17	5.480314E-19
1.756136E+03	1.502961E-17	5.425095E-19
1.796049E+03	1.487235E-17	5.363095E-19
1.835961E+03	1.468854E-17	5.291501E-19
1.875873E+03	1.447250E-17	5.208300E-19
1.915785E+03	1.421487E-17	5.110161E-19
1.955697E+03	1.391078E-17	4.995393E-19
1.995610E+03	1.356558E-17	4.865971E-19
2.035522E+03	1.320498E-17	4.731168E-19
2.075434E+03	1.288341E-17	4.610488E-19
2.115346E+03	1.267744E-17	4.531257E-19
2.155258E+03	1.266214E-17	4.520128E-19
2.195171E+03	1.286944E-17	4.588225E-19
2.235083E+03	1.327927E-17	4.728083E-19
2.274995E+03	1.383691E-17	4.919942E-19
2.314907E+03	1.448769E-17	5.144152E-19
2.354819E+03	1.518949E-17	5.385614E-19
2.394732E+03	1.591934E-17	5.636082E-19
2.434644E+03	1.667287E-17	5.893937E-19
2.474556E+03	1.745004E-17	6.159088E-19
2.514468E+03	1.825946E-17	6.434499E-19
2.554380E+03	1.911234E-17	6.724016E-19
2.594293E+03	2.001650E-17	7.030270E-19
2.634205E+03	2.098444E-17	7.357506E-19
2.674117E+03	2.202741E-17	7.709497E-19
2.714029E+03	2.315681E-17	8.090032E-19
2.753941E+03	2.438426E-17	8.502937E-19
2.793854E+03	2.572160E-17	8.952079E-19
2.833766E+03	2.717894E-17	9.440674E-19
2.873678E+03	2.877271E-17	9.974094E-19
2.913590E+03	3.051364E-17	1.055567E-18
2.953502E+03	3.241210E-17	1.118858E-18
2.993414E+03	3.448298E-17	1.187749E-18
3.003393E+03	3.502910E-17	1.205891E-18
3.013371E+03	3.558696E-17	1.224413E-18
3.023349E+03	3.615675E-17	1.243319E-18
3.033327E+03	3.673940E-17	1.262640E-18
3.043305E+03	3.733360E-17	1.282332E-18
3.053283E+03	3.794320E-17	1.302525E-18
3.063261E+03	3.856809E-17	1.323214E-18
3.073239E+03	3.920813E-17	1.344394E-18
3.083217E+03	3.986322E-17	1.366059E-18
3.093195E+03	4.053324E-17	1.388205E-18
3.103173E+03	4.121810E-17	1.410827E-18
3.113151E+03	4.191773E-17	1.433921E-18
3.123129E+03	4.263204E-17	1.457484E-18
3.133107E+03	4.336095E-17	1.481512E-18
3.143085E+03	4.410441E-17	1.506002E-18
3.153063E+03	4.486233E-17	1.530949E-18
3.163041E+03	4.563466E-17	1.556350E-18
3.173019E+03	4.641788E-17	1.582085E-18
3.182997E+03	4.721874E-17	1.608382E-18
3.192975E+03	4.803380E-17	1.635123E-18
3.202954E+03	4.886297E-17	1.662304E-18
3.212932E+03	4.970617E-17	1.689920E-18
3.222910E+03	5.056330E-17	1.717967E-18
3.232888E+03	5.143428E-17	1.746441E-18
3.242866E+03	5.231513E-17	1.775206E-18
3.252844E+03	5.321340E-17	1.804516E-18
3.262822E+03	5.412515E-17	1.834237E-18
3.272800E+03	5.505026E-17	1.864364E-18
3.282778E+03	5.598856E-17	1.894889E-18
3.292756E+03	5.693571E-17	1.925664E-18
3.302734E+03	5.789983E-17	1.956963E-18
3.312712E+03	5.887662E-17	1.988639E-18
3.322690E+03	5.986585E-17	2.020684E-18
3.332668E+03	6.086284E-17	2.052937E-18
3.342646E+03	6.187620E-17	2.085688E-18
3.352624E+03	6.290130E-17	2.118781E-18
3.362602E+03	6.393784E-17	2.152202E-18
3.372580E+03	6.498078E-17	2.185783E-18
3.382558E+03	6.603926E-17	2.219828E-18
3.392536E+03	6.710827E-17	2.254169E-18
3.402514E+03	6.818249E-17	2.288625E-18
3.412493E+03	6.927146E-17	2.323516E-18
3.422471E+03	7.036992E-17	2.358663E-18
3.432449E+03	7.147225E-17	2.393878E-18
3.442427E+03	7.258843E-17	2.429494E-18
3.452405E+03	7.371293E-17	2.465324E-18
3.462383E+03	7.483989E-17	2.501171E-18
3.472361E+03	7.597974E-17	2.537384E-18
3.482339E+03	7.712101E-17	2.573577E-18
3.492317E+03	7.827455E-17	2.610113E-18
3.502295E+03	7.942854E-17	2.646595E-18
3.512273E+03	8.059415E-17	2.683396E-18
3.522251E+03	8.175925E-17	2.720110E-18
3.532229E+03	8.293533E-17	2.757120E-18
3.542207E+03	8.411621E-17	2.794217E-18
3.552185E+03	8.529530E-17	2.831183E-18
3.562163E+03	8.647839E-17	2.868209E-18
3.572141E+03	8.767157E-17	2.905496E-18
3.582119E+03	8.886190E-17	2.942616E-18
3.592097E+03	9.006209E-17	2.979986E-18
3.602075E+03	9.125916E-17	3.017178E-18
3.612053E+03	9.246604E-17	3.054619E-18
3.622032E+03	9.366978E-17	3.091879E-18
3.632010E+03	9.488407E-17	3.129410E-18
3.641988E+03	9.609577E-17	3.166777E-18
3.651966E+03	9.731261E-17	3.204235E-18
3.661944E+03	9.854315E-17	3.242064E-18
3.671922E+03	9.977562E-17	3.279876E-18
3.681900E+03	1.010209E-16	3.318027E-18
3.691878E+03	1.022918E-16	3.356938E-18
3.701856E+03	1.035821E-16	3.396397E-18
3.711834E+03	1.049105E-16	3.437020E-18
3.721812E+03	1.063001E-16	3.479560E-18
3.731790E+03	1.077559E-16	3.524167E-18
3.741768E+03	1.093097E-16	3.571884E-18
3.751746E+03	1.109907E-16	3.623647E-18
3.761724E+03	1.128397E-16	3.680778E-18
3.771702E+03	1.148766E-16	3.743916E-18
3.781680E+03	1.171483E-16	3.814561E-18
3.791658E+03	1.196947E-16	3.893997E-18
3.801636E+03	1.225568E-16	3.983531E-18
3.811614E+03	1.257847E-16	4.084756E-18
3.821592E+03	1.294004E-16	4.198358E-18
3.831571E+03	1.334508E-16	4.325818E-18
3.841549E+03	1.379705E-16	4.468217E-18
3.851527E+03	1.429890E-16	4.626466E-18
3.861505E+03	1.485278E-16	4.801214E-18
3.871483E+03	1.545980E-16	4.992770E-18
3.881461E+03	1.611961E-16	5.200966E-18
3.891439E+03	1.683007E-16	5.425070E-18
3.901417E+03	1.758695E-16	5.663663E-18
3.911395E+03	1.838365E-16	5.914578E-18
3.921373E+03	1.921108E-16	6.174855E-18
3.931351E+03	2.005781E-16	6.440790E-18
3.941329E+03	2.091033E-16	6.708026E-18
3.951307E+03	2.175355E-16	6.971721E-18
3.961285E+03	2.257159E-16	7.226794E-18
3.971263E+03	2.334858E-16	7.468189E-18
3.981241E+03	2.406959E-16	7.691175E-18
3.991219E+03	2.472158E-16	7.891633E-18
4.001197E+03	2.529407E-16	8.066289E-18
4.011175E+03	2.577977E-16	8.212892E-18
4.021153E+03	2.617491E-16	8.330323E-18
4.031132E+03	2.647760E-16	8.418073E-18
4.041110E+03	2.669533E-16	8.478602E-18
4.051088E+03	2.683367E-16	8.513761E-18
4.061066E+03	2.690326E-16	8.527007E-18
4.071044E+03	2.691745E-16	8.522626E-18
4.081022E+03	2.688952E-16	8.504874E-18
4.091000E+03	2.683951E-16	8.480127E-18
4.100978E+03	2.678207E-16	8.453033E-18
4.110956E+03	2.673345E-16	8.428722E-18
4.120934E+03	2.670719E-16	8.411446E-18
4.130912E+03	2.672115E-16	8.406804E-18
4.140890E+03	2.678581E-16	8.418052E-18
4.150868E+03	2.690961E-16	8.447781E-18
4.160846E+03	2.710422E-16	8.499595E-18
4.170824E+03	2.737301E-16	8.574476E-18
4.180802E+03	2.771654E-16	8.672520E-18
4.190780E+03	2.813847E-16	8.794792E-18
4.200758E+03	2.863208E-16	8.939111E-18
4.210736E+03	2.919625E-16	9.105049E-18
4.220714E+03	2.982169E-16	9.289640E-18
4.230692E+03	3.049710E-16	9.489300E-18
4.240671E+03	3.121599E-16	9.701955E-18
4.250649E+03	3.196243E-16	9.922610E-18
4.260627E+03	3.272911E-16	1.014897E-17
4.270605E+03	3.350068E-16	1.037625E-17
4.280583E+03	3.427047E-16	1.060239E-17
4.290561E+03	3.503487E-16	1.082625E-17
4.300539E+03	3.578652E-16	1.104559E-17
4.310517E+03	3.653179E-16	1.126236E-17
4.320495E+03	3.727111E-16	1.147671E-17
4.330473E+03	3.801671E-16	1.169241E-17
4.340451E+03	3.878546E-16	1.191462E-17
4.350429E+03	3.959111E-16	1.214753E-17
4.360407E+03	4.046071E-16	1.239940E-17
4.370385E+03	4.142713E-16	1.268021E-17
4.380363E+03	4.252031E-16	1.299899E-17
4.390341E+03	4.378409E-16	1.336900E-17
4.400319E+03	4.526420E-16	1.380398E-17
4.410297E+03	4.701328E-16	1.431971E-17
4.420275E+03	4.907639E-16	1.492960E-17
4.430253E+03	5.150798E-16	1.564982E-17
4.440231E+03	5.435590E-16	1.649447E-17
4.450210E+03	5.765941E-16	1.747497E-17
4.460188E+03	6.144208E-16	1.859790E-17
4.470166E+03	6.570712E-16	1.986369E-17
4.480144E+03	7.040930E-16	2.125810E-17
4.490122E+03	7.547203E-16	2.275752E-17
4.500100E+03	8.076358E-16	2.432184E-17
4.510078E+03	8.609994E-16	2.589544E-17
4.520056E+03	9.125069E-16	2.740903E-17
4.530034E+03	9.595396E-16	2.878426E-17
4.540012E+03	9.994008E-16	2.994084E-17
4.549990E+03	1.029609E-15	3.080536E-17
4.559968E+03	1.048211E-15	3.132058E-17
4.569946E+03	1.054033E-15	3.145286E-17
4.579924E+03	1.046755E-15	3.119418E-17
4.589902E+03	1.027213E-15	3.057094E-17
4.599880E+03	9.968363E-16	2.962713E-17
4.609858E+03	9.577316E-16	2.842659E-17
4.619836E+03	9.123463E-16	2.704290E-17
4.629814E+03	8.631994E-16	2.555141E-17
4.639792E+03	8.126422E-16	2.402210E-17
4.649771E+03	7.626392E-16	2.251315E-17
4.659749E+03	7.148832E-16	2.107441E-17
4.669727E+03	6.704482E-16	1.973723E-17
4.679705E+03	6.299969E-16	1.852071E-17
4.689683E+03	5.939659E-16	1.743720E-17
4.699661E+03	5.623787E-16	1.648686E-17
4.709639E+03	5.351059E-16	1.566535E-17
4.719617E+03	5.118543E-16	1.496359E-17
4.729595E+03	4.923634E-16	1.437348E-17
4.739573E+03	4.761991E-16	1.388191E-17
4.749551E+03	4.630580E-16	1.347963E-17
4.759529E+03	4.525484E-16	1.315490E-17
4.769507E+03	4.443030E-16	1.289672E-17
4.779485E+03	4.380702E-16	1.269753E-17
4.789463E+03	4.335012E-16	1.254697E-17
4.799441E+03	4.303896E-16	1.243888E-17
4.809419E+03	4.284310E-16	1.236429E-17
4.819397E+03	4.274276E-16	1.231735E-17
4.829375E+03	4.271989E-16	1.229276E-17
4.839353E+03	4.274928E-16	1.228316E-17
4.849331E+03	4.281897E-16	1.228507E-17
4.859310E+03	4.290679E-16	1.229208E-17
4.869288E+03	4.300101E-16	1.230082E-17
4.879266E+03	4.309170E-16	1.230844E-17
4.889244E+03	4.316216E-16	1.231017E-17
4.899222E+03	4.320664E-16	1.230442E-17
4.909200E+03	4.321864E-16	1.228937E-17
4.919178E+03	4.319667E-16	1.226463E-17
4.929156E+03	4.313234E-16	1.222788E-17
4.939134E+03	4.302814E-16	1.217987E-17
4.949112E+03	4.288591E-16	1.212117E-17
4.959090E+03	4.271033E-16	1.205316E-17
4.969068E+03	4.251256E-16	1.197902E-17
4.979046E+03	4.229954E-16	1.190075E-17
4.989024E+03	4.209191E-16	1.182414E-17
4.999002E+03	4.191252E-16	1.175562E-17
5.008980E+03	4.178898E-16	1.170288E-17
5.018958E+03	4.175276E-16	1.167464E-17
5.028936E+03	4.183792E-16	1.168030E-17
5.038914E+03	4.207949E-16	1.172946E-17
5.048892E+03	4.251172E-16	1.183147E-17
5.058870E+03	4.316614E-16	1.199482E-17
5.068849E+03	4.406945E-16	1.222665E-17
5.078827E+03	4.524123E-16	1.253204E-17
5.088805E+03	4.668829E-16	1.291253E-17
5.098783E+03	4.841455E-16	1.336885E-17
5.108761E+03	5.039998E-16	1.389510E-17
5.118739E+03	5.261113E-16	1.448174E-17
5.128717E+03	5.499715E-16	1.511450E-17
5.138695E+03	5.749017E-16	1.577452E-17
5.148673E+03	6.000300E-16	1.643779E-17
5.158651E+03	6.244895E-16	1.708056E-17
5.168629E+03	6.472386E-16	1.767449E-17
5.178607E+03	6.672502E-16	1.819179E-17
5.188585E+03	6.837397E-16	1.861147E-17
5.198563E+03	6.959830E-16	1.891431E-17
5.208541E+03	7.035099E-16	1.908812E-17
5.218519E+03	7.062835E-16	1.913251E-17
5.228497E+03	7.043642E-16	1.904975E-17
5.238475E+03	6.982485E-16	1.885386E-17
5.248453E+03	6.884701E-16	1.855978E-17
5.258431E+03	6.756696E-16	1.818523E-17
5.268409E+03	6.606581E-16	1.775239E-17
5.278388E+03	6.440386E-16	1.727775E-17
5.288366E+03	6.264805E-16	1.677944E-17
5.298344E+03	6.085539E-16	1.627282E-17
5.308322E+03	5.906006E-16	1.576708E-17
5.318300E+03	5.730236E-16	1.527294E-17
5.328278E+03	5.559748E-16	1.479442E-17
5.338256E+03	5.396478E-16	1.433657E-17
5.348234E+03	5.241722E-16	1.390275E-17
5.358212E+03	5.095276E-16	1.349230E-17
5.368190E+03	4.957716E-16	1.310664E-17
5.378168E+03	4.829033E-16	1.274563E-17
5.388146E+03	4.709318E-16	1.240939E-17
5.398124E+03	4.597457E-16	1.209487E-17
5.408102E+03	4.492959E-16	1.180069E-17
5.418080E+03	4.394578E-16	1.152347E-17
5.428058E+03	4.300539E-16	1.125850E-17
5.438036E+03	4.208513E-16	1.099963E-17
5.448014E+03	4.115637E-16	1.073937E-17
5.457992E+03	4.018618E-16	1.046914E-17
5.467970E+03	3.913869E-16	1.017966E-17
5.477949E+03	3.797695E-16	9.861447E-18
5.487927E+03	3.668117E-16	9.509501E-18
5.497905E+03	3.527710E-16	9.130657E-18
5.507883E+03	3.379496E-16	8.732853E-18
5.517861E+03	3.226184E-16	8.323174E-18
5.527839E+03	3.070248E-16	7.908050E-18
5.537817E+03	2.913970E-16	7.493377E-18
5.547795E+03	2.759442E-16	7.084527E-18
5.557773E+03	2.608548E-16	6.686303E-18
5.567751E+03	2.462783E-16	6.302479E-18
5.577729E+03	2.323899E-16	5.937465E-18
5.587707E+03	2.192897E-16	5.593723E-18
5.597685E+03	2.070722E-16	5.273561E-18
5.607663E+03	1.957987E-16	4.978424E-18
5.617641E+03	1.855517E-16	4.710285E-18
5.627619E+03	1.763557E-16	4.469640E-18
5.637597E+03	1.682226E-16	4.256654E-18
5.647575E+03	1.611836E-16	4.071990E-18
5.657553E+03	1.552235E-16	3.915121E-18
5.667531E+03	1.503187E-16	3.785325E-18
5.677509E+03	1.464700E-16	3.682490E-18
5.687488E+03	1.436357E-16	3.605442E-18
5.697466E+03	1.418144E-16	3.554024E-18
5.707444E+03	1.409712E-16	3.527235E-18
5.717422E+03	1.411145E-16	3.525170E-18
5.727400E+03	1.422215E-16	3.547144E-18
5.737378E+03	1.443036E-16	3.593323E-18
5.747356E+03	1.473776E-16	3.664008E-18
5.757334E+03	1.514343E-16	3.758853E-18
5.767312E+03	1.564934E-16	3.878233E-18
5.777290E+03	1.625718E-16	4.022447E-18
5.787268E+03	1.696439E-16	4.190742E-18
5.797246E+03	1.776968E-16	4.382689E-18
5.807224E+03	1.866923E-16	4.597228E-18
5.817202E+03	1.965176E-16	4.831479E-18
5.827180E+03	2.070481E-16	5.082293E-18
5.837158E+03	2.180923E-16	5.344894E-18
5.847136E+03	2.293995E-16	5.613089E-18
5.857114E+03	2.406601E-16	5.879290E-18
5.867092E+03	2.515133E-16	6.134705E-18
5.877070E+03	2.615615E-16	6.369701E-18
5.887048E+03	2.704118E-16	6.574824E-18
5.897027E+03	2.776366E-16	6.739833E-18
5.907005E+03	2.829183E-16	6.857216E-18
5.916983E+03	2.860014E-16	6.921022E-18
5.926961E+03	2.868228E-16	6.929975E-18
5.936939E+03	2.854225E-16	6.885302E-18
5.946917E+03	2.820207E-16	6.792556E-18
5.956895E+03	2.769760E-16	6.660591E-18
5.966873E+03	2.707452E-16	6.500556E-18
5.976851E+03	2.638359E-16	6.324755E-18
5.986829E+03	2.567644E-16	6.145621E-18
5.996807E+03	2.500061E-16	5.974525E-18
6.006785E+03	2.440422E-16	5.822918E-18
6.016763E+03	2.392520E-16	5.699745E-18
6.026741E+03	2.359680E-16	5.612779E-18
6.036719E+03	2.345328E-16	5.569993E-18
6.046697E+03	2.352239E-16	5.577763E-18
6.056675E+03	2.383230E-16	5.642519E-18
6.066653E+03	2.441859E-16	5.772416E-18
6.076631E+03	2.531757E-16	5.975719E-18
6.086609E+03	2.657326E-16	6.262469E-18
6.096588E+03	2.824571E-16	6.646412E-18
6.106566E+03	3.040171E-16	7.142794E-18
6.116544E+03	3.313242E-16	7.772494E-18
6.126522E+03	3.654044E-16	8.558931E-18
6.136500E+03	4.075811E-16	9.532353E-18
6.146478E+03	4.592839E-16	1.072530E-17
6.156456E+03	5.221826E-16	1.217571E-17
6.166434E+03	5.980469E-16	1.392363E-17
6.176412E+03	6.884804E-16	1.600503E-17
6.186390E+03	7.949468E-16	1.845238E-17
6.196368E+03	9.184471E-16	2.128727E-17
6.206346E+03	1.059057E-15	2.450975E-17
6.216324E+03	1.216019E-15	2.810060E-17
6.226302E+03	1.387310E-15	3.201157E-17
6.236280E+03	1.569579E-15	3.616407E-17
6.246258E+03	1.758235E-15	4.045141E-17
6.256236E+03	1.947062E-15	4.473033E-17
6.266214E+03	2.129077E-15	4.884067E-17
6.276192E+03	2.296430E-15	5.260344E-17
6.286170E+03	2.441025E-15	5.583501E-17
6.296148E+03	2.555190E-15	5.836251E-17
6.306127E+03	2.632444E-15	6.004118E-17
6.316105E+03	2.668223E-15	6.077073E-17
6.326083E+03	2.660463E-15	6.050830E-17
6.336061E+03	2.609899E-15	5.927479E-17
6.346039E+03	2.520026E-15	5.715357E-17
6.356017E+03	2.396710E-15	5.428118E-17
6.365995E+03	2.247514E-15	5.083175E-17
6.375973E+03	2.080717E-15	4.699462E-17
6.385951E+03	1.905024E-15	4.296767E-17
6.395929E+03	1.727979E-15	3.892153E-17
6.405907E+03	1.556028E-15	3.500119E-17
6.415885E+03	1.393993E-15	3.131440E-17
6.425863E+03	1.245383E-15	2.793886E-17
6.435841E+03	1.111922E-15	2.491188E-17
6.445819E+03	9.941719E-16	2.224460E-17
6.455797E+03	8.916736E-16	1.992528E-17
6.465775E+03	8.034757E-16	1.793127E-17
6.475753E+03	7.279826E-16	1.622572E-17
6.485731E+03	6.635926E-16	1.477182E-17
6.495709E+03	6.084236E-16	1.352673E-17
6.505687E+03	5.607629E-16	1.245159E-17
6.515666E+03	5.187973E-16	1.150554E-17
6.525644E+03	4.815193E-16	1.066574E-17
6.535622E+03	4.485162E-16	9.922657E-18
6.545600E+03	4.193992E-16	9.267327E-18
6.555578E+03	3.935923E-16	8.686700E-18
6.565556E+03	3.706321E-16	8.170278E-18
6.575534E+03	3.499954E-16	7.706302E-18
6.585512E+03	3.312966E-16	7.286094E-18
6.595490E+03	3.141898E-16	6.901888E-18
6.605468E+03	2.984096E-16	6.547731E-18
6.615446E+03	2.836848E-16	6.217561E-18
6.625424E+03	2.698515E-16	5.907707E-18
6.635402E+03	2.567680E-16	5.614989E-18
6.645380E+03	2.443488E-16	5.337475E-18
6.655358E+03	2.324987E-16	5.073030E-18
6.665336E+03	2.212079E-16	4.821394E-18
6.675314E+03	2.104802E-16	4.582599E-18
6.685292E+03	2.003403E-16	4.357136E-18
6.695270E+03	1.908230E-16	4.145714E-18
6.705248E+03	1.819622E-16	3.949019E-18
6.715227E+03	1.737805E-16	3.767486E-18
6.725205E+03	1.662839E-16	3.601197E-18
6.735183E+03	1.594604E-16	3.449840E-18
6.745161E+03	1.532832E-16	3.312786E-18
6.755139E+03	1.477165E-16	3.189214E-18
6.765117E+03	1.427223E-16	3.078263E-18
6.775095E+03	1.382584E-16	2.978981E-18
6.785073E+03	1.343185E-16	2.891197E-18
6.795051E+03	1.308780E-16	2.814344E-18
6.805029E+03	1.279300E-16	2.748240E-18
6.815007E+03	1.254733E-16	2.692825E-18
6.824985E+03	1.235020E-16	2.647945E-18
6.834963E+03	1.220370E-16	2.614009E-18
6.844941E+03	1.210757E-16	2.590935E-18
6.854919E+03	1.206172E-16	2.578670E-18
6.864897E+03	1.206866E-16	2.577716E-18
6.874875E+03	1.212869E-16	2.588111E-18
6.884853E+03	1.224239E-16	2.609941E-18
6.894831E+03	1.241291E-16	2.643850E-18
6.904809E+03	1.264044E-16	2.689844E-18
6.914787E+03	1.292872E-16	2.748684E-18
6.924766E+03	1.327851E-16	2.820501E-18
6.934744E+03	1.369444E-16	2.906241E-18
6.944722E+03	1.417808E-16	3.006201E-18
6.954700E+03	1.473397E-16	3.121309E-18
6.964678E+03	1.536692E-16	3.252543E-18
6.974656E+03	1.607853E-16	3.400204E-18
6.984634E+03	1.687375E-16	3.565295E-18
6.994612E+03	1.775216E-16	3.747687E-18
7.004590E+03	1.871501E-16	3.947603E-18
7.014568E+03	1.976081E-16	4.164689E-18
7.024546E+03	2.088781E-16	4.398538E-18
7.034524E+03	2.208915E-16	4.647670E-18
7.044502E+03	2.336190E-16	4.911433E-18
7.054480E+03	2.470360E-16	5.189286E-18
7.064458E+03	2.611613E-16	5.481589E-18
7.074436E+03	2.760854E-16	5.790217E-18
7.084414E+03	2.919986E-16	6.119125E-18
7.094392E+03	3.092301E-16	6.475166E-18
7.104370E+03	3.281743E-16	6.866537E-18
7.114348E+03	3.494003E-16	7.305065E-18
7.124326E+03	3.735503E-16	7.804070E-18
7.134305E+03	4.013181E-16	8.377910E-18
7.144283E+03	4.333667E-16	9.040266E-18
7.154261E+03	4.703722E-16	9.805051E-18
7.164239E+03	5.127751E-16	1.068124E-17
7.174217E+03	5.607866E-16	1.167301E-17
7.184195E+03	6.142515E-16	1.277691E-17
7.194173E+03	6.725449E-16	1.397975E-17
7.204151E+03	7.345005E-16	1.525715E-17
7.214129E+03	7.983565E-16	1.657240E-17
7.224107E+03	8.620521E-16	1.788274E-17
7.234085E+03	9.231215E-16	1.913708E-17
7.244063E+03	9.791519E-16	2.028560E-17
7.254041E+03	1.027951E-15	2.128316E-17
7.264019E+03	1.068031E-15	2.209930E-17
7.273997E+03	1.098300E-15	2.271180E-17
7.283975E+03	1.118200E-15	2.310951E-17
7.293953E+03	1.127794E-15	2.329418E-17
7.303931E+03	1.127094E-15	2.326640E-17
7.313909E+03	1.116496E-15	2.303475E-17
7.323887E+03	1.096131E-15	2.260226E-17
7.333865E+03	1.066466E-15	2.197885E-17
7.343844E+03	1.027801E-15	2.117101E-17
7.353822E+03	9.809513E-16	2.019579E-17
7.363800E+03	9.268008E-16	1.907159E-17
7.373778E+03	8.668716E-16	1.782989E-17
7.383756E+03	8.027965E-16	1.650439E-17
7.393734E+03	7.366181E-16	1.513712E-17
7.403712E+03	6.704222E-16	1.377092E-17
7.413690E+03	6.060236E-16	1.244299E-17
7.423668E+03	5.450746E-16	1.118714E-17
7.433646E+03	4.887659E-16	1.002766E-17
7.443624E+03	4.378691E-16	8.980199E-18
7.453602E+03	3.926478E-16	8.049996E-18
7.463580E+03	3.531150E-16	7.237147E-18
7.473558E+03	3.190048E-16	6.536049E-18
7.483536E+03	2.899021E-16	5.938060E-18
7.493514E+03	2.653231E-16	5.433154E-18
7.503492E+03	2.447898E-16	5.011443E-18
7.513470E+03	2.278002E-16	4.662565E-18
7.523448E+03	2.139462E-16	4.378101E-18
7.533426E+03	2.028527E-16	4.150323E-18
7.543405E+03	1.941955E-16	3.972550E-18
7.553383E+03	1.876971E-16	3.839077E-18
7.563361E+03	1.831224E-16	3.745069E-18
7.573339E+03	1.802747E-16	3.686482E-18
7.583317E+03	1.789788E-16	3.659723E-18
7.593295E+03	1.791232E-16	3.662507E-18
7.603273E+03	1.805840E-16	3.692298E-18
7.613251E+03	1.832652E-16	3.747134E-18
7.623229E+03	1.870788E-16	3.825222E-18
7.633207E+03	1.919378E-16	3.924796E-18
7.643185E+03	1.977355E-16	4.043683E-18
7.653163E+03	2.043895E-16	4.180218E-18
7.663141E+03	2.117596E-16	4.331550E-18
7.673119E+03	2.196942E-16	4.494600E-18
7.683097E+03	2.280007E-16	4.665448E-18
7.693075E+03	2.365053E-16	4.840560E-18
7.703053E+03	2.449684E-16	5.015051E-18
7.713031E+03	2.531337E-16	5.183688E-18
7.723009E+03	2.607893E-16	5.342145E-18
7.732987E+03	2.676641E-16	5.484875E-18
7.742965E+03	2.735741E-16	5.608105E-18
