#wls	flux	fluxerr
1.596074E+03	1.951373E-15	0.000000E+00
1.635976E+03	2.148983E-15	0.000000E+00
1.675877E+03	2.337960E-15	0.000000E+00
1.715779E+03	2.511606E-15	0.000000E+00
1.755681E+03	2.661703E-15	0.000000E+00
1.795583E+03	2.774924E-15	0.000000E+00
1.835485E+03	2.835488E-15	0.000000E+00
1.875387E+03	2.827230E-15	0.000000E+00
1.915288E+03	2.737687E-15	0.000000E+00
1.955190E+03	2.565015E-15	0.000000E+00
1.995092E+03	2.326326E-15	0.000000E+00
2.034994E+03	2.061991E-15	0.000000E+00
2.074896E+03	1.828667E-15	0.000000E+00
2.114798E+03	1.681266E-15	0.000000E+00
2.154699E+03	1.656028E-15	0.000000E+00
2.194601E+03	1.765940E-15	0.000000E+00
2.234503E+03	2.003034E-15	0.000000E+00
2.274405E+03	2.340473E-15	0.000000E+00
2.314307E+03	2.741284E-15	0.000000E+00
2.354209E+03	3.165083E-15	0.000000E+00
2.394110E+03	3.576962E-15	0.000000E+00
2.434012E+03	3.953341E-15	0.000000E+00
2.473914E+03	4.282704E-15	0.000000E+00
2.513816E+03	4.563234E-15	0.000000E+00
2.553718E+03	4.798836E-15	0.000000E+00
2.593620E+03	4.995030E-15	0.000000E+00
2.633522E+03	5.156981E-15	0.000000E+00
2.673423E+03	5.289242E-15	0.000000E+00
2.713325E+03	5.395742E-15	0.000000E+00
2.753227E+03	5.479895E-15	0.000000E+00
2.793129E+03	5.544660E-15	0.000000E+00
2.833031E+03	5.592566E-15	0.000000E+00
2.872933E+03	5.625742E-15	0.000000E+00
2.912834E+03	5.645966E-15	0.000000E+00
2.952736E+03	5.654695E-15	0.000000E+00
2.992638E+03	5.653080E-15	0.000000E+00
3.002614E+03	5.651172E-15	0.000000E+00
3.012589E+03	5.648691E-15	0.000000E+00
3.022564E+03	5.645646E-15	0.000000E+00
3.032540E+03	5.642349E-15	0.000000E+00
3.042515E+03	5.639661E-15	0.000000E+00
3.052491E+03	5.638723E-15	0.000000E+00
3.062466E+03	5.639161E-15	0.000000E+00
3.072442E+03	5.640683E-15	0.000000E+00
3.082417E+03	5.642983E-15	0.000000E+00
3.092393E+03	5.645815E-15	0.000000E+00
3.102368E+03	5.648943E-15	0.000000E+00
3.112344E+03	5.652153E-15	0.000000E+00
3.122319E+03	5.655271E-15	0.000000E+00
3.132295E+03	5.658141E-15	0.000000E+00
3.142270E+03	5.660596E-15	0.000000E+00
3.152245E+03	5.662517E-15	0.000000E+00
3.162221E+03	5.663784E-15	0.000000E+00
3.172196E+03	5.664310E-15	0.000000E+00
3.182172E+03	5.664016E-15	0.000000E+00
3.192147E+03	5.662825E-15	0.000000E+00
3.202123E+03	5.660684E-15	0.000000E+00
3.212098E+03	5.657536E-15	0.000000E+00
3.222074E+03	5.653351E-15	0.000000E+00
3.232049E+03	5.648088E-15	0.000000E+00
3.242025E+03	5.641747E-15	0.000000E+00
3.252000E+03	5.634290E-15	0.000000E+00
3.261976E+03	5.625731E-15	0.000000E+00
3.271951E+03	5.616074E-15	0.000000E+00
3.281926E+03	5.605314E-15	0.000000E+00
3.291902E+03	5.593449E-15	0.000000E+00
3.301877E+03	5.580531E-15	0.000000E+00
3.311853E+03	5.566549E-15	0.000000E+00
3.321828E+03	5.551531E-15	0.000000E+00
3.331804E+03	5.535504E-15	0.000000E+00
3.341779E+03	5.518501E-15	0.000000E+00
3.351755E+03	5.500539E-15	0.000000E+00
3.361730E+03	5.481668E-15	0.000000E+00
3.371706E+03	5.461895E-15	0.000000E+00
3.381681E+03	5.441273E-15	0.000000E+00
3.391657E+03	5.419809E-15	0.000000E+00
3.401632E+03	5.397546E-15	0.000000E+00
3.411607E+03	5.374507E-15	0.000000E+00
3.421583E+03	5.350719E-15	0.000000E+00
3.431558E+03	5.326208E-15	0.000000E+00
3.441534E+03	5.301034E-15	0.000000E+00
3.451509E+03	5.275227E-15	0.000000E+00
3.461485E+03	5.248829E-15	0.000000E+00
3.471460E+03	5.221875E-15	0.000000E+00
3.481436E+03	5.194424E-15	0.000000E+00
3.491411E+03	5.166514E-15	0.000000E+00
3.501387E+03	5.138178E-15	0.000000E+00
3.511362E+03	5.109456E-15	0.000000E+00
3.521338E+03	5.080371E-15	0.000000E+00
3.531313E+03	5.050997E-15	0.000000E+00
3.541288E+03	5.021381E-15	0.000000E+00
3.551264E+03	4.991540E-15	0.000000E+00
3.561239E+03	4.961540E-15	0.000000E+00
3.571215E+03	4.931452E-15	0.000000E+00
3.581190E+03	4.901319E-15	0.000000E+00
3.591166E+03	4.871202E-15	0.000000E+00
3.601141E+03	4.841179E-15	0.000000E+00
3.611117E+03	4.811304E-15	0.000000E+00
3.621092E+03	4.781666E-15	0.000000E+00
3.631068E+03	4.752340E-15	0.000000E+00
3.641043E+03	4.723413E-15	0.000000E+00
3.651018E+03	4.694992E-15	0.000000E+00
3.660994E+03	4.667194E-15	0.000000E+00
3.670969E+03	4.640131E-15	0.000000E+00
3.680945E+03	4.613929E-15	0.000000E+00
3.690920E+03	4.588736E-15	0.000000E+00
3.700896E+03	4.564720E-15	0.000000E+00
3.710871E+03	4.542041E-15	0.000000E+00
3.720847E+03	4.520913E-15	0.000000E+00
3.730822E+03	4.501482E-15	0.000000E+00
3.740798E+03	4.483972E-15	0.000000E+00
3.750773E+03	4.468570E-15	0.000000E+00
3.760749E+03	4.455424E-15	0.000000E+00
3.770724E+03	4.444725E-15	0.000000E+00
3.780699E+03	4.436609E-15	0.000000E+00
3.790675E+03	4.431182E-15	0.000000E+00
3.800650E+03	4.428500E-15	0.000000E+00
3.810626E+03	4.428622E-15	0.000000E+00
3.820601E+03	4.431521E-15	0.000000E+00
3.830577E+03	4.437151E-15	0.000000E+00
3.840552E+03	4.445410E-15	0.000000E+00
3.850528E+03	4.456168E-15	0.000000E+00
3.860503E+03	4.469223E-15	0.000000E+00
3.870479E+03	4.484373E-15	0.000000E+00
3.880454E+03	4.501389E-15	0.000000E+00
3.890430E+03	4.520005E-15	0.000000E+00
3.900405E+03	4.539962E-15	0.000000E+00
3.910380E+03	4.560961E-15	0.000000E+00
3.920356E+03	4.582741E-15	0.000000E+00
3.930331E+03	4.605068E-15	0.000000E+00
3.940307E+03	4.627650E-15	0.000000E+00
3.950282E+03	4.650286E-15	0.000000E+00
3.960258E+03	4.672776E-15	0.000000E+00
3.970233E+03	4.694905E-15	0.000000E+00
3.980209E+03	4.716513E-15	0.000000E+00
3.990184E+03	4.737463E-15	0.000000E+00
4.000160E+03	4.757617E-15	0.000000E+00
4.010135E+03	4.776854E-15	0.000000E+00
4.020111E+03	4.795092E-15	0.000000E+00
4.030086E+03	4.812263E-15	0.000000E+00
4.040061E+03	4.828307E-15	0.000000E+00
4.050037E+03	4.843177E-15	0.000000E+00
4.060012E+03	4.856879E-15	0.000000E+00
4.069988E+03	4.869402E-15	0.000000E+00
4.079963E+03	4.880855E-15	0.000000E+00
4.089939E+03	4.891271E-15	0.000000E+00
4.099914E+03	4.900792E-15	0.000000E+00
4.109890E+03	4.909588E-15	0.000000E+00
4.119865E+03	4.917843E-15	0.000000E+00
4.129841E+03	4.925748E-15	0.000000E+00
4.139816E+03	4.933555E-15	0.000000E+00
4.149792E+03	4.941523E-15	0.000000E+00
4.159767E+03	4.949845E-15	0.000000E+00
4.169742E+03	4.958780E-15	0.000000E+00
4.179718E+03	4.968466E-15	0.000000E+00
4.189693E+03	4.979055E-15	0.000000E+00
4.199669E+03	4.990575E-15	0.000000E+00
4.209644E+03	5.003049E-15	0.000000E+00
4.219620E+03	5.016373E-15	0.000000E+00
4.229595E+03	5.030342E-15	0.000000E+00
4.239571E+03	5.044698E-15	0.000000E+00
4.249546E+03	5.059097E-15	0.000000E+00
4.259522E+03	5.073201E-15	0.000000E+00
4.269497E+03	5.086523E-15	0.000000E+00
4.279472E+03	5.098708E-15	0.000000E+00
4.289448E+03	5.109282E-15	0.000000E+00
4.299423E+03	5.117906E-15	0.000000E+00
4.309399E+03	5.124293E-15	0.000000E+00
4.319374E+03	5.128224E-15	0.000000E+00
4.329350E+03	5.129902E-15	0.000000E+00
4.339325E+03	5.129545E-15	0.000000E+00
4.349301E+03	5.127542E-15	0.000000E+00
4.359276E+03	5.124256E-15	0.000000E+00
4.369252E+03	5.120086E-15	0.000000E+00
4.379227E+03	5.115392E-15	0.000000E+00
4.389203E+03	5.110510E-15	0.000000E+00
4.399178E+03	5.105712E-15	0.000000E+00
4.409153E+03	5.101130E-15	0.000000E+00
4.419129E+03	5.096837E-15	0.000000E+00
4.429104E+03	5.092804E-15	0.000000E+00
4.439080E+03	5.088854E-15	0.000000E+00
4.449055E+03	5.084753E-15	0.000000E+00
4.459031E+03	5.080200E-15	0.000000E+00
4.469006E+03	5.074818E-15	0.000000E+00
4.478982E+03	5.068203E-15	0.000000E+00
4.488957E+03	5.059985E-15	0.000000E+00
4.498933E+03	5.049751E-15	0.000000E+00
4.508908E+03	5.037132E-15	0.000000E+00
4.518884E+03	5.021878E-15	0.000000E+00
4.528859E+03	5.003754E-15	0.000000E+00
4.538834E+03	4.982548E-15	0.000000E+00
4.548810E+03	4.958257E-15	0.000000E+00
4.558785E+03	4.930852E-15	0.000000E+00
4.568761E+03	4.900427E-15	0.000000E+00
4.578736E+03	4.867223E-15	0.000000E+00
4.588712E+03	4.831406E-15	0.000000E+00
4.598687E+03	4.793302E-15	0.000000E+00
4.608663E+03	4.753328E-15	0.000000E+00
4.618638E+03	4.711841E-15	0.000000E+00
4.628614E+03	4.669356E-15	0.000000E+00
4.638589E+03	4.626449E-15	0.000000E+00
4.648565E+03	4.583723E-15	0.000000E+00
4.658540E+03	4.541753E-15	0.000000E+00
4.668515E+03	4.501040E-15	0.000000E+00
4.678491E+03	4.462029E-15	0.000000E+00
4.688466E+03	4.425075E-15	0.000000E+00
4.698442E+03	4.390517E-15	0.000000E+00
4.708417E+03	4.358522E-15	0.000000E+00
4.718393E+03	4.329210E-15	0.000000E+00
4.728368E+03	4.302622E-15	0.000000E+00
4.738344E+03	4.278654E-15	0.000000E+00
4.748319E+03	4.257198E-15	0.000000E+00
4.758295E+03	4.238054E-15	0.000000E+00
4.768270E+03	4.220966E-15	0.000000E+00
4.778246E+03	4.205642E-15	0.000000E+00
4.788221E+03	4.191728E-15	0.000000E+00
4.798196E+03	4.178892E-15	0.000000E+00
4.808172E+03	4.166795E-15	0.000000E+00
4.818147E+03	4.155088E-15	0.000000E+00
4.828123E+03	4.143501E-15	0.000000E+00
4.838098E+03	4.131706E-15	0.000000E+00
4.848074E+03	4.119507E-15	0.000000E+00
4.858049E+03	4.106661E-15	0.000000E+00
4.868025E+03	4.093099E-15	0.000000E+00
4.878000E+03	4.078642E-15	0.000000E+00
4.887976E+03	4.063288E-15	0.000000E+00
4.897951E+03	4.047016E-15	0.000000E+00
4.907927E+03	4.029874E-15	0.000000E+00
4.917902E+03	4.011955E-15	0.000000E+00
4.927877E+03	3.993307E-15	0.000000E+00
4.937853E+03	3.974139E-15	0.000000E+00
4.947828E+03	3.954507E-15	0.000000E+00
4.957804E+03	3.934641E-15	0.000000E+00
4.967779E+03	3.914644E-15	0.000000E+00
4.977755E+03	3.894676E-15	0.000000E+00
4.987730E+03	3.874890E-15	0.000000E+00
4.997706E+03	3.855422E-15	0.000000E+00
5.007681E+03	3.836325E-15	0.000000E+00
5.017657E+03	3.817725E-15	0.000000E+00
5.027632E+03	3.799696E-15	0.000000E+00
5.037607E+03	3.782221E-15	0.000000E+00
5.047583E+03	3.765350E-15	0.000000E+00
5.057558E+03	3.749088E-15	0.000000E+00
5.067534E+03	3.733344E-15	0.000000E+00
5.077509E+03	3.718138E-15	0.000000E+00
5.087485E+03	3.703315E-15	0.000000E+00
5.097460E+03	3.688860E-15	0.000000E+00
5.107436E+03	3.674656E-15	0.000000E+00
5.117411E+03	3.660575E-15	0.000000E+00
5.127387E+03	3.646509E-15	0.000000E+00
5.137362E+03	3.632355E-15	0.000000E+00
5.147338E+03	3.617978E-15	0.000000E+00
5.157313E+03	3.603334E-15	0.000000E+00
5.167288E+03	3.588235E-15	0.000000E+00
5.177264E+03	3.572622E-15	0.000000E+00
5.187239E+03	3.556395E-15	0.000000E+00
5.197215E+03	3.539518E-15	0.000000E+00
5.207190E+03	3.521917E-15	0.000000E+00
5.217166E+03	3.503566E-15	0.000000E+00
5.227141E+03	3.484460E-15	0.000000E+00
5.237117E+03	3.464575E-15	0.000000E+00
5.247092E+03	3.443941E-15	0.000000E+00
5.257068E+03	3.422640E-15	0.000000E+00
5.267043E+03	3.400671E-15	0.000000E+00
5.277019E+03	3.378147E-15	0.000000E+00
5.286994E+03	3.355180E-15	0.000000E+00
5.296969E+03	3.331779E-15	0.000000E+00
5.306945E+03	3.308135E-15	0.000000E+00
5.316920E+03	3.284285E-15	0.000000E+00
5.326896E+03	3.260331E-15	0.000000E+00
5.336871E+03	3.236408E-15	0.000000E+00
5.346847E+03	3.212605E-15	0.000000E+00
5.356822E+03	3.188982E-15	0.000000E+00
5.366798E+03	3.165657E-15	0.000000E+00
5.376773E+03	3.142677E-15	0.000000E+00
5.386749E+03	3.120149E-15	0.000000E+00
5.396724E+03	3.098240E-15	0.000000E+00
5.406700E+03	3.077038E-15	0.000000E+00
5.416675E+03	3.056815E-15	0.000000E+00
5.426650E+03	3.037361E-15	0.000000E+00
5.436626E+03	3.018509E-15	0.000000E+00
5.446601E+03	3.000047E-15	0.000000E+00
5.456577E+03	2.981843E-15	0.000000E+00
5.466552E+03	2.963603E-15	0.000000E+00
5.476528E+03	2.944893E-15	0.000000E+00
5.486503E+03	2.925433E-15	0.000000E+00
5.496479E+03	2.905719E-15	0.000000E+00
5.506454E+03	2.886152E-15	0.000000E+00
5.516430E+03	2.866988E-15	0.000000E+00
5.526405E+03	2.848363E-15	0.000000E+00
5.536381E+03	2.830322E-15	0.000000E+00
5.546356E+03	2.812832E-15	0.000000E+00
5.556331E+03	2.795942E-15	0.000000E+00
5.566307E+03	2.779626E-15	0.000000E+00
5.576282E+03	2.763832E-15	0.000000E+00
5.586258E+03	2.748590E-15	0.000000E+00
5.596233E+03	2.733857E-15	0.000000E+00
5.606209E+03	2.719614E-15	0.000000E+00
5.616184E+03	2.705915E-15	0.000000E+00
5.626160E+03	2.692727E-15	0.000000E+00
5.636135E+03	2.680082E-15	0.000000E+00
5.646111E+03	2.667983E-15	0.000000E+00
5.656086E+03	2.656469E-15	0.000000E+00
5.666061E+03	2.645485E-15	0.000000E+00
5.676037E+03	2.635121E-15	0.000000E+00
5.686012E+03	2.625344E-15	0.000000E+00
5.695988E+03	2.616142E-15	0.000000E+00
5.705963E+03	2.607523E-15	0.000000E+00
5.715939E+03	2.599454E-15	0.000000E+00
5.725914E+03	2.591890E-15	0.000000E+00
5.735890E+03	2.584774E-15	0.000000E+00
5.745865E+03	2.578099E-15	0.000000E+00
5.755841E+03	2.571726E-15	0.000000E+00
5.765816E+03	2.565630E-15	0.000000E+00
5.775792E+03	2.559688E-15	0.000000E+00
5.785767E+03	2.553835E-15	0.000000E+00
5.795742E+03	2.547975E-15	0.000000E+00
5.805718E+03	2.542014E-15	0.000000E+00
5.815693E+03	2.535894E-15	0.000000E+00
5.825669E+03	2.529531E-15	0.000000E+00
5.835644E+03	2.522824E-15	0.000000E+00
5.845620E+03	2.515768E-15	0.000000E+00
5.855595E+03	2.508282E-15	0.000000E+00
5.865571E+03	2.500355E-15	0.000000E+00
5.875546E+03	2.491953E-15	0.000000E+00
5.885522E+03	2.483025E-15	0.000000E+00
5.895497E+03	2.473618E-15	0.000000E+00
5.905473E+03	2.463724E-15	0.000000E+00
5.915448E+03	2.453312E-15	0.000000E+00
5.925423E+03	2.442384E-15	0.000000E+00
5.935399E+03	2.431007E-15	0.000000E+00
5.945374E+03	2.419159E-15	0.000000E+00
5.955350E+03	2.406817E-15	0.000000E+00
5.965325E+03	2.394086E-15	0.000000E+00
5.975301E+03	2.380885E-15	0.000000E+00
5.985276E+03	2.367286E-15	0.000000E+00
5.995252E+03	2.353273E-15	0.000000E+00
6.005227E+03	2.338892E-15	0.000000E+00
6.015203E+03	2.324130E-15	0.000000E+00
6.025178E+03	2.309041E-15	0.000000E+00
6.035154E+03	2.293590E-15	0.000000E+00
6.045129E+03	2.277874E-15	0.000000E+00
6.055104E+03	2.261875E-15	0.000000E+00
6.065080E+03	2.245675E-15	0.000000E+00
6.075055E+03	2.229279E-15	0.000000E+00
6.085031E+03	2.212762E-15	0.000000E+00
6.095006E+03	2.196243E-15	0.000000E+00
6.104982E+03	2.179730E-15	0.000000E+00
6.114957E+03	2.163335E-15	0.000000E+00
6.124933E+03	2.147176E-15	0.000000E+00
6.134908E+03	2.131379E-15	0.000000E+00
6.144884E+03	2.116014E-15	0.000000E+00
6.154859E+03	2.101241E-15	0.000000E+00
6.164835E+03	2.087161E-15	0.000000E+00
6.174810E+03	2.073930E-15	0.000000E+00
6.184785E+03	2.061617E-15	0.000000E+00
6.194761E+03	2.050405E-15	0.000000E+00
6.204736E+03	2.040419E-15	0.000000E+00
6.214712E+03	2.031788E-15	0.000000E+00
6.224687E+03	2.024644E-15	0.000000E+00
6.234663E+03	2.019128E-15	0.000000E+00
6.244638E+03	2.015420E-15	0.000000E+00
6.254614E+03	2.013707E-15	0.000000E+00
6.264589E+03	2.014093E-15	0.000000E+00
6.274565E+03	2.016774E-15	0.000000E+00
6.284540E+03	2.021944E-15	0.000000E+00
6.294515E+03	2.029758E-15	0.000000E+00
6.304491E+03	2.040325E-15	0.000000E+00
6.314466E+03	2.053757E-15	0.000000E+00
6.324442E+03	2.070199E-15	0.000000E+00
6.334417E+03	2.089627E-15	0.000000E+00
6.344393E+03	2.112064E-15	0.000000E+00
6.354368E+03	2.137448E-15	0.000000E+00
6.364344E+03	2.165619E-15	0.000000E+00
6.374319E+03	2.196459E-15	0.000000E+00
6.384295E+03	2.229680E-15	0.000000E+00
6.394270E+03	2.264965E-15	0.000000E+00
6.404246E+03	2.301970E-15	0.000000E+00
6.414221E+03	2.340264E-15	0.000000E+00
6.424196E+03	2.379365E-15	0.000000E+00
6.434172E+03	2.418796E-15	0.000000E+00
6.444147E+03	2.457972E-15	0.000000E+00
6.454123E+03	2.496423E-15	0.000000E+00
6.464098E+03	2.533513E-15	0.000000E+00
6.474074E+03	2.568790E-15	0.000000E+00
6.484049E+03	2.601707E-15	0.000000E+00
6.494025E+03	2.631799E-15	0.000000E+00
6.504000E+03	2.658702E-15	0.000000E+00
6.513976E+03	2.682069E-15	0.000000E+00
6.523951E+03	2.701578E-15	0.000000E+00
6.533927E+03	2.717071E-15	0.000000E+00
6.543902E+03	2.728420E-15	0.000000E+00
6.553877E+03	2.735571E-15	0.000000E+00
6.563853E+03	2.738495E-15	0.000000E+00
6.573828E+03	2.737324E-15	0.000000E+00
6.583804E+03	2.732251E-15	0.000000E+00
6.593779E+03	2.723327E-15	0.000000E+00
6.603755E+03	2.710939E-15	0.000000E+00
6.613730E+03	2.695313E-15	0.000000E+00
6.623706E+03	2.676704E-15	0.000000E+00
6.633681E+03	2.655480E-15	0.000000E+00
6.643657E+03	2.631921E-15	0.000000E+00
6.653632E+03	2.606457E-15	0.000000E+00
6.663608E+03	2.579272E-15	0.000000E+00
6.673583E+03	2.550828E-15	0.000000E+00
6.683558E+03	2.521336E-15	0.000000E+00
6.693534E+03	2.491083E-15	0.000000E+00
6.703509E+03	2.460386E-15	0.000000E+00
6.713485E+03	2.429445E-15	0.000000E+00
6.723460E+03	2.398529E-15	0.000000E+00
6.733436E+03	2.367749E-15	0.000000E+00
6.743411E+03	2.337373E-15	0.000000E+00
6.753387E+03	2.307511E-15	0.000000E+00
6.763362E+03	2.278341E-15	0.000000E+00
6.773338E+03	2.249886E-15	0.000000E+00
6.783313E+03	2.222285E-15	0.000000E+00
6.793289E+03	2.195610E-15	0.000000E+00
6.803264E+03	2.169921E-15	0.000000E+00
6.813239E+03	2.145259E-15	0.000000E+00
6.823215E+03	2.121652E-15	0.000000E+00
6.833190E+03	2.099074E-15	0.000000E+00
6.843166E+03	2.077572E-15	0.000000E+00
6.853141E+03	2.057102E-15	0.000000E+00
6.863117E+03	2.037689E-15	0.000000E+00
6.873092E+03	2.019316E-15	0.000000E+00
6.883068E+03	2.001873E-15	0.000000E+00
6.893043E+03	1.985452E-15	0.000000E+00
6.903019E+03	1.969898E-15	0.000000E+00
6.912994E+03	1.955253E-15	0.000000E+00
6.922969E+03	1.941395E-15	0.000000E+00
6.932945E+03	1.928364E-15	0.000000E+00
6.942920E+03	1.916077E-15	0.000000E+00
6.952896E+03	1.904491E-15	0.000000E+00
6.962871E+03	1.893522E-15	0.000000E+00
6.972847E+03	1.883207E-15	0.000000E+00
6.982822E+03	1.873426E-15	0.000000E+00
6.992798E+03	1.864179E-15	0.000000E+00
7.002773E+03	1.855424E-15	0.000000E+00
7.012749E+03	1.847086E-15	0.000000E+00
7.022724E+03	1.839129E-15	0.000000E+00
7.032700E+03	1.831559E-15	0.000000E+00
7.042675E+03	1.824343E-15	0.000000E+00
7.052650E+03	1.817412E-15	0.000000E+00
7.062626E+03	1.810737E-15	0.000000E+00
7.072601E+03	1.804290E-15	0.000000E+00
7.082577E+03	1.798046E-15	0.000000E+00
7.092552E+03	1.791982E-15	0.000000E+00
7.102528E+03	1.786112E-15	0.000000E+00
7.112503E+03	1.780337E-15	0.000000E+00
7.122479E+03	1.774674E-15	0.000000E+00
7.132454E+03	1.769145E-15	0.000000E+00
7.142430E+03	1.763611E-15	0.000000E+00
7.152405E+03	1.758174E-15	0.000000E+00
7.162381E+03	1.752736E-15	0.000000E+00
7.172356E+03	1.747322E-15	0.000000E+00
7.182331E+03	1.741877E-15	0.000000E+00
7.192307E+03	1.736428E-15	0.000000E+00
7.202282E+03	1.730920E-15	0.000000E+00
7.212258E+03	1.725343E-15	0.000000E+00
7.222233E+03	1.719725E-15	0.000000E+00
7.232209E+03	1.714019E-15	0.000000E+00
7.242184E+03	1.708217E-15	0.000000E+00
7.252160E+03	1.702352E-15	0.000000E+00
7.262135E+03	1.696343E-15	0.000000E+00
7.272111E+03	1.690226E-15	0.000000E+00
7.282086E+03	1.684003E-15	0.000000E+00
7.292062E+03	1.677674E-15	0.000000E+00
7.302037E+03	1.671245E-15	0.000000E+00
7.312012E+03	1.664720E-15	0.000000E+00
7.321988E+03	1.658067E-15	0.000000E+00
7.331963E+03	1.651293E-15	0.000000E+00
7.341939E+03	1.644448E-15	0.000000E+00
7.351914E+03	1.637540E-15	0.000000E+00
7.361890E+03	1.630504E-15	0.000000E+00
7.371865E+03	1.623428E-15	0.000000E+00
7.381841E+03	1.616287E-15	0.000000E+00
7.391816E+03	1.609092E-15	0.000000E+00
7.401792E+03	1.601819E-15	0.000000E+00
7.411767E+03	1.594557E-15	0.000000E+00
7.421743E+03	1.587241E-15	0.000000E+00
7.431718E+03	1.579922E-15	0.000000E+00
7.441693E+03	1.572605E-15	0.000000E+00
7.451669E+03	1.565261E-15	0.000000E+00
7.461644E+03	1.557967E-15	0.000000E+00
7.471620E+03	1.550645E-15	0.000000E+00
7.481595E+03	1.543364E-15	0.000000E+00
7.491571E+03	1.536075E-15	0.000000E+00
7.501546E+03	1.528761E-15	0.000000E+00
7.511522E+03	1.521440E-15	0.000000E+00
7.521497E+03	1.514047E-15	0.000000E+00
7.531473E+03	1.506595E-15	0.000000E+00
7.541448E+03	1.499054E-15	0.000000E+00
7.551423E+03	1.491399E-15	0.000000E+00
7.561399E+03	1.483606E-15	0.000000E+00
7.571374E+03	1.475619E-15	0.000000E+00
7.581350E+03	1.467505E-15	0.000000E+00
7.591325E+03	1.459223E-15	0.000000E+00
7.601301E+03	1.450818E-15	0.000000E+00
7.611276E+03	1.442230E-15	0.000000E+00
7.621252E+03	1.433559E-15	0.000000E+00
7.631227E+03	1.424793E-15	0.000000E+00
7.641203E+03	1.416003E-15	0.000000E+00
7.651178E+03	1.407181E-15	0.000000E+00
7.661154E+03	1.398393E-15	0.000000E+00
7.671129E+03	1.389625E-15	0.000000E+00
7.681104E+03	1.380893E-15	0.000000E+00
7.691080E+03	1.372245E-15	0.000000E+00
7.701055E+03	1.363684E-15	0.000000E+00
7.711031E+03	1.355166E-15	0.000000E+00
7.721006E+03	1.346719E-15	0.000000E+00
7.730982E+03	1.338287E-15	0.000000E+00
7.740957E+03	1.329889E-15	0.000000E+00
