#wls	flux	fluxerr
1.596074E+03	1.892563E-18	1.344679E-19
1.635976E+03	2.000827E-18	1.419462E-19
1.675877E+03	2.092751E-18	1.482382E-19
1.715779E+03	2.165585E-18	1.531541E-19
1.755681E+03	2.214758E-18	1.563768E-19
1.795583E+03	2.234063E-18	1.574764E-19
1.835485E+03	2.213862E-18	1.557850E-19
1.875387E+03	2.146867E-18	1.508050E-19
1.915288E+03	2.027787E-18	1.421832E-19
1.955190E+03	1.860353E-18	1.302016E-19
1.995092E+03	1.658853E-18	1.158786E-19
2.034994E+03	1.452390E-18	1.012584E-19
2.074896E+03	1.279204E-18	8.900590E-20
2.114798E+03	1.175210E-18	8.160236E-20
2.154699E+03	1.165039E-18	8.072596E-20
2.194601E+03	1.260214E-18	8.713219E-20
2.234503E+03	1.464422E-18	1.010272E-19
2.274405E+03	1.771172E-18	1.219119E-19
2.314307E+03	2.167787E-18	1.488641E-19
2.354209E+03	2.634330E-18	1.804703E-19
2.394110E+03	3.151986E-18	2.154049E-19
2.434012E+03	3.702676E-18	2.524039E-19
2.473914E+03	4.274689E-18	2.906471E-19
2.513816E+03	4.861208E-18	3.296544E-19
2.553718E+03	5.458379E-18	3.691498E-19
2.593620E+03	6.063767E-18	4.089557E-19
2.633522E+03	6.679932E-18	4.492317E-19
2.673423E+03	7.307261E-18	4.899896E-19
2.713325E+03	7.949206E-18	5.314452E-19
2.753227E+03	8.606952E-18	5.736598E-19
2.793129E+03	9.286227E-18	6.169952E-19
2.833031E+03	9.990235E-18	6.616406E-19
2.872933E+03	1.072228E-17	7.077880E-19
2.912834E+03	1.148748E-17	7.557458E-19
2.952736E+03	1.228954E-17	8.057222E-19
2.992638E+03	1.313608E-17	8.581794E-19
3.002614E+03	1.335290E-17	8.715611E-19
3.012589E+03	1.357565E-17	8.853001E-19
3.022564E+03	1.380049E-17	8.991442E-19
3.032540E+03	1.402819E-17	9.131441E-19
3.042515E+03	1.426305E-17	9.275784E-19
3.052491E+03	1.450821E-17	9.426492E-19
3.062466E+03	1.476102E-17	9.581830E-19
3.072442E+03	1.502306E-17	9.742796E-19
3.082417E+03	1.529174E-17	9.907701E-19
3.092393E+03	1.556872E-17	1.007761E-18
3.102368E+03	1.585363E-17	1.025225E-18
3.112344E+03	1.614392E-17	1.042997E-18
3.122319E+03	1.644142E-17	1.061193E-18
3.132295E+03	1.674584E-17	1.079793E-18
3.142270E+03	1.705465E-17	1.098633E-18
3.152245E+03	1.736984E-17	1.117838E-18
3.162221E+03	1.769119E-17	1.137395E-18
3.172196E+03	1.801853E-17	1.157290E-18
3.182172E+03	1.834929E-17	1.177357E-18
3.192147E+03	1.868568E-17	1.197736E-18
3.202123E+03	1.902757E-17	1.218418E-18
3.212098E+03	1.937240E-17	1.239238E-18
3.222074E+03	1.972499E-17	1.260503E-18
3.232049E+03	2.008034E-17	1.281891E-18
3.242025E+03	2.044086E-17	1.303556E-18
3.252000E+03	2.080652E-17	1.325494E-18
3.261976E+03	2.117733E-17	1.347705E-18
3.271951E+03	2.155068E-17	1.370021E-18
3.281926E+03	2.193181E-17	1.392774E-18
3.291902E+03	2.231551E-17	1.415631E-18
3.301877E+03	2.270444E-17	1.438760E-18
3.311853E+03	2.310141E-17	1.462339E-18
3.321828E+03	2.350109E-17	1.486027E-18
3.331804E+03	2.390628E-17	1.510000E-18
3.341779E+03	2.431708E-17	1.534264E-18
3.351755E+03	2.473362E-17	1.558825E-18
3.361730E+03	2.515605E-17	1.583690E-18
3.371706E+03	2.558740E-17	1.609048E-18
3.381681E+03	2.602209E-17	1.634548E-18
3.391657E+03	2.646314E-17	1.660377E-18
3.401632E+03	2.691073E-17	1.686544E-18
3.411607E+03	2.736803E-17	1.713246E-18
3.421583E+03	2.783230E-17	1.740310E-18
3.431558E+03	2.830072E-17	1.767558E-18
3.441534E+03	2.877953E-17	1.795376E-18
3.451509E+03	2.926594E-17	1.823588E-18
3.461485E+03	2.976326E-17	1.852399E-18
3.471460E+03	3.026556E-17	1.881437E-18
3.481436E+03	3.077928E-17	1.911100E-18
3.491411E+03	3.130155E-17	1.941207E-18
3.501387E+03	3.183263E-17	1.971771E-18
3.511362E+03	3.237271E-17	2.002803E-18
3.521338E+03	3.292532E-17	2.034516E-18
3.531313E+03	3.348747E-17	2.066725E-18
3.541288E+03	3.406270E-17	2.099644E-18
3.551264E+03	3.464467E-17	2.132879E-18
3.561239E+03	3.524359E-17	2.167055E-18
3.571215E+03	3.584969E-17	2.201570E-18
3.581190E+03	3.646992E-17	2.236845E-18
3.591166E+03	3.710112E-17	2.272685E-18
3.601141E+03	3.774697E-17	2.309310E-18
3.611117E+03	3.840774E-17	2.346734E-18
3.621092E+03	3.907661E-17	2.384535E-18
3.631068E+03	3.976432E-17	2.423367E-18
3.641043E+03	4.046043E-17	2.462587E-18
3.651018E+03	4.117579E-17	2.502854E-18
3.660994E+03	4.190340E-17	2.543736E-18
3.670969E+03	4.264332E-17	2.585235E-18
3.680945E+03	4.339927E-17	2.627571E-18
3.690920E+03	4.417134E-17	2.670744E-18
3.700896E+03	4.495585E-17	2.714529E-18
3.710871E+03	4.575650E-17	2.759145E-18
3.720847E+03	4.657327E-17	2.804585E-18
3.730822E+03	4.740227E-17	2.850611E-18
3.740798E+03	4.824716E-17	2.897439E-18
3.750773E+03	4.910779E-17	2.945055E-18
3.760749E+03	4.998393E-17	2.993440E-18
3.770724E+03	5.087138E-17	3.042339E-18
3.780699E+03	5.177370E-17	3.091961E-18
3.790675E+03	5.268651E-17	3.142038E-18
3.800650E+03	5.361737E-17	3.193020E-18
3.810626E+03	5.455772E-17	3.244389E-18
3.820601E+03	5.551514E-17	3.296595E-18
3.830577E+03	5.648081E-17	3.349107E-18
3.840552E+03	5.745817E-17	3.402127E-18
3.850528E+03	5.844227E-17	3.455358E-18
3.860503E+03	5.944073E-17	3.509248E-18
3.870479E+03	6.044856E-17	3.563497E-18
3.880454E+03	6.146064E-17	3.617800E-18
3.890430E+03	6.248031E-17	3.672352E-18
3.900405E+03	6.351098E-17	3.727350E-18
3.910380E+03	6.454314E-17	3.782233E-18
3.920356E+03	6.558016E-17	3.837196E-18
3.930331E+03	6.662115E-17	3.892185E-18
3.940307E+03	6.766524E-17	3.947148E-18
3.950282E+03	6.871600E-17	4.002290E-18
3.960258E+03	6.976381E-17	4.057049E-18
3.970233E+03	7.081237E-17	4.111640E-18
3.980209E+03	7.186100E-17	4.166023E-18
3.990184E+03	7.290915E-17	4.220164E-18
4.000160E+03	7.395637E-17	4.274036E-18
4.010135E+03	7.500234E-17	4.327621E-18
4.020111E+03	7.604681E-17	4.380903E-18
4.030086E+03	7.709431E-17	4.434142E-18
4.040061E+03	7.813575E-17	4.486815E-18
4.050037E+03	7.917591E-17	4.539196E-18
4.060012E+03	8.021517E-17	4.591307E-18
4.069988E+03	8.125869E-17	4.643441E-18
4.079963E+03	8.229788E-17	4.695106E-18
4.089939E+03	8.334285E-17	4.746879E-18
4.099914E+03	8.438532E-17	4.798286E-18
4.109890E+03	8.543104E-17	4.849653E-18
4.119865E+03	8.648593E-17	4.901314E-18
4.129841E+03	8.754208E-17	4.952818E-18
4.139816E+03	8.861025E-17	5.004771E-18
4.149792E+03	8.968273E-17	5.056735E-18
4.159767E+03	9.077053E-17	5.109326E-18
4.169742E+03	9.186598E-17	5.162109E-18
4.179718E+03	9.298027E-17	5.215707E-18
4.189693E+03	9.410574E-17	5.269687E-18
4.199669E+03	9.524892E-17	5.324408E-18
4.209644E+03	9.641633E-17	5.380227E-18
4.219620E+03	9.760024E-17	5.436708E-18
4.229595E+03	9.880715E-17	5.494204E-18
4.239571E+03	1.000387E-16	5.552798E-18
4.249546E+03	1.012964E-16	5.612570E-18
4.259522E+03	1.025818E-16	5.673593E-18
4.269497E+03	1.038916E-16	5.735673E-18
4.279472E+03	1.052365E-16	5.799399E-18
4.289448E+03	1.066082E-16	5.864298E-18
4.299423E+03	1.080126E-16	5.930683E-18
4.309399E+03	1.094459E-16	5.998334E-18
4.319374E+03	1.109184E-16	6.067815E-18
4.329350E+03	1.124215E-16	6.138627E-18
4.339325E+03	1.139605E-16	6.211063E-18
4.349301E+03	1.155312E-16	6.284876E-18
4.359276E+03	1.171439E-16	6.360618E-18
4.369252E+03	1.187845E-16	6.437504E-18
4.379227E+03	1.204681E-16	6.516346E-18
4.389203E+03	1.221803E-16	6.596350E-18
4.399178E+03	1.239363E-16	6.678325E-18
4.409153E+03	1.257214E-16	6.761465E-18
4.419129E+03	1.275506E-16	6.846573E-18
4.429104E+03	1.294090E-16	6.932826E-18
4.439080E+03	1.313065E-16	7.020741E-18
4.449055E+03	1.332375E-16	7.110015E-18
4.459031E+03	1.352065E-16	7.200873E-18
4.469006E+03	1.372076E-16	7.292983E-18
4.478982E+03	1.392394E-16	7.386265E-18
4.488957E+03	1.413004E-16	7.480624E-18
4.498933E+03	1.433939E-16	7.576224E-18
4.508908E+03	1.455072E-16	7.672386E-18
4.518884E+03	1.476429E-16	7.769236E-18
4.528859E+03	1.498035E-16	7.866899E-18
4.538834E+03	1.519753E-16	7.964641E-18
4.548810E+03	1.541656E-16	8.062839E-18
4.558785E+03	1.563600E-16	8.160738E-18
4.568761E+03	1.585602E-16	8.258422E-18
4.578736E+03	1.607625E-16	8.355692E-18
4.588712E+03	1.629631E-16	8.452348E-18
4.598687E+03	1.651528E-16	8.547913E-18
4.608663E+03	1.673335E-16	8.642486E-18
4.618638E+03	1.695018E-16	8.735896E-18
4.628614E+03	1.716490E-16	8.827697E-18
4.638589E+03	1.737780E-16	8.918038E-18
4.648565E+03	1.758808E-16	9.006513E-18
4.658540E+03	1.779610E-16	9.093315E-18
4.668515E+03	1.800114E-16	9.178085E-18
4.678491E+03	1.820310E-16	9.260774E-18
4.688466E+03	1.840248E-16	9.341649E-18
4.698442E+03	1.859871E-16	9.420423E-18
4.708417E+03	1.879181E-16	9.497119E-18
4.718393E+03	1.898185E-16	9.571782E-18
4.728368E+03	1.916894E-16	9.644471E-18
4.738344E+03	1.935379E-16	9.715551E-18
4.748319E+03	1.953541E-16	9.784534E-18
4.758295E+03	1.971512E-16	9.852089E-18
4.768270E+03	1.989196E-16	9.917742E-18
4.778246E+03	2.006670E-16	9.981882E-18
4.788221E+03	2.023953E-16	1.004461E-17
4.798196E+03	2.041063E-16	1.010602E-17
4.808172E+03	2.058017E-16	1.016620E-17
4.818147E+03	2.074774E-16	1.022494E-17
4.828123E+03	2.091404E-16	1.028261E-17
4.838098E+03	2.107920E-16	1.033927E-17
4.848074E+03	2.124275E-16	1.039469E-17
4.858049E+03	2.140477E-16	1.044891E-17
4.868025E+03	2.156649E-16	1.050253E-17
4.878000E+03	2.172624E-16	1.055475E-17
4.887976E+03	2.188581E-16	1.060644E-17
4.897951E+03	2.204354E-16	1.065679E-17
4.907927E+03	2.220064E-16	1.070639E-17
4.917902E+03	2.235662E-16	1.075500E-17
4.927877E+03	2.251217E-16	1.080297E-17
4.937853E+03	2.266624E-16	1.084979E-17
4.947828E+03	2.282018E-16	1.089610E-17
4.957804E+03	2.297360E-16	1.094172E-17
4.967779E+03	2.312733E-16	1.098705E-17
4.977755E+03	2.328052E-16	1.103168E-17
4.987730E+03	2.343409E-16	1.107604E-17
4.997706E+03	2.358902E-16	1.112060E-17
5.007681E+03	2.374461E-16	1.116502E-17
5.017657E+03	2.390252E-16	1.121007E-17
5.027632E+03	2.406217E-16	1.125548E-17
5.037607E+03	2.422529E-16	1.130204E-17
5.047583E+03	2.439138E-16	1.134951E-17
5.057558E+03	2.456169E-16	1.139845E-17
5.067534E+03	2.473750E-16	1.144945E-17
5.077509E+03	2.491838E-16	1.150227E-17
5.087485E+03	2.510505E-16	1.155724E-17
5.097460E+03	2.529941E-16	1.161520E-17
5.107436E+03	2.550103E-16	1.167593E-17
5.117411E+03	2.571120E-16	1.173998E-17
5.127387E+03	2.593059E-16	1.180763E-17
5.137362E+03	2.615987E-16	1.187915E-17
5.147338E+03	2.639906E-16	1.195450E-17
5.157313E+03	2.664931E-16	1.203418E-17
5.167288E+03	2.691111E-16	1.211835E-17
5.177264E+03	2.718432E-16	1.220691E-17
5.187239E+03	2.746990E-16	1.230024E-17
5.197215E+03	2.776814E-16	1.239843E-17
5.207190E+03	2.807865E-16	1.250125E-17
5.217166E+03	2.840155E-16	1.260870E-17
5.227141E+03	2.873812E-16	1.272131E-17
5.237117E+03	2.908706E-16	1.283845E-17
5.247092E+03	2.944823E-16	1.296001E-17
5.257068E+03	2.982202E-16	1.308610E-17
5.267043E+03	3.020745E-16	1.321626E-17
5.277019E+03	3.060472E-16	1.335052E-17
5.286994E+03	3.101331E-16	1.348861E-17
5.296969E+03	3.143197E-16	1.362994E-17
5.306945E+03	3.185995E-16	1.377416E-17
5.316920E+03	3.229712E-16	1.392116E-17
5.326896E+03	3.274191E-16	1.407023E-17
5.336871E+03	3.319404E-16	1.422123E-17
5.346847E+03	3.365178E-16	1.437339E-17
5.356822E+03	3.411398E-16	1.452619E-17
5.366798E+03	3.458023E-16	1.467945E-17
5.376773E+03	3.504922E-16	1.483259E-17
5.386749E+03	3.551835E-16	1.498451E-17
5.396724E+03	3.598775E-16	1.513526E-17
5.406700E+03	3.645604E-16	1.528427E-17
5.416675E+03	3.692055E-16	1.543042E-17
5.426650E+03	3.738142E-16	1.557379E-17
5.436626E+03	3.783736E-16	1.571386E-17
5.446601E+03	3.828575E-16	1.584956E-17
5.456577E+03	3.872691E-16	1.598107E-17
5.466552E+03	3.915980E-16	1.610798E-17
5.476528E+03	3.958200E-16	1.622934E-17
5.486503E+03	3.999421E-16	1.634547E-17
5.496479E+03	4.039501E-16	1.645586E-17
5.506454E+03	4.078393E-16	1.656034E-17
5.516430E+03	4.116061E-16	1.665884E-17
5.526405E+03	4.152492E-16	1.675134E-17
5.536381E+03	4.187769E-16	1.683824E-17
5.546356E+03	4.221833E-16	1.691936E-17
5.556331E+03	4.254730E-16	1.699492E-17
5.566307E+03	4.286513E-16	1.706519E-17
5.576282E+03	4.317265E-16	1.713056E-17
5.586258E+03	4.347080E-16	1.719143E-17
5.596233E+03	4.376150E-16	1.724862E-17
5.606209E+03	4.404436E-16	1.730200E-17
5.616184E+03	4.432165E-16	1.735250E-17
5.626160E+03	4.459570E-16	1.740106E-17
5.636135E+03	4.486648E-16	1.744769E-17
5.646111E+03	4.513652E-16	1.749338E-17
5.656086E+03	4.540841E-16	1.753916E-17
5.666061E+03	4.568227E-16	1.758507E-17
5.676037E+03	4.596076E-16	1.763213E-17
5.686012E+03	4.624559E-16	1.768098E-17
5.695988E+03	4.653849E-16	1.773227E-17
5.705963E+03	4.684106E-16	1.778659E-17
5.715939E+03	4.715396E-16	1.784415E-17
5.725914E+03	4.747936E-16	1.790575E-17
5.735890E+03	4.781854E-16	1.797183E-17
5.745865E+03	4.817241E-16	1.804270E-17
5.755841E+03	4.854180E-16	1.811861E-17
5.765816E+03	4.892640E-16	1.819940E-17
5.775792E+03	4.932735E-16	1.828546E-17
5.785767E+03	4.974468E-16	1.837674E-17
5.795742E+03	5.017725E-16	1.847279E-17
5.805718E+03	5.062549E-16	1.857371E-17
5.815693E+03	5.108855E-16	1.867914E-17
5.825669E+03	5.156448E-16	1.878836E-17
5.835644E+03	5.205292E-16	1.890119E-17
5.845620E+03	5.255133E-16	1.901668E-17
5.855595E+03	5.305884E-16	1.913451E-17
5.865571E+03	5.357261E-16	1.925364E-17
5.875546E+03	5.409140E-16	1.937363E-17
5.885522E+03	5.461208E-16	1.949337E-17
5.895497E+03	5.513316E-16	1.961234E-17
5.905473E+03	5.565136E-16	1.972939E-17
5.915448E+03	5.616428E-16	1.984373E-17
5.925423E+03	5.667048E-16	1.995489E-17
5.935399E+03	5.716680E-16	2.006180E-17
5.945374E+03	5.765194E-16	2.016409E-17
5.955350E+03	5.812300E-16	2.026079E-17
5.965325E+03	5.857804E-16	2.035133E-17
5.975301E+03	5.901550E-16	2.043523E-17
5.985276E+03	5.943498E-16	2.051246E-17
5.995252E+03	5.983429E-16	2.058235E-17
6.005227E+03	6.021353E-16	2.064503E-17
6.015203E+03	6.057000E-16	2.069968E-17
6.025178E+03	6.090536E-16	2.074697E-17
6.035154E+03	6.121839E-16	2.078658E-17
6.045129E+03	6.151029E-16	2.081902E-17
6.055104E+03	6.177922E-16	2.084378E-17
6.065080E+03	6.202784E-16	2.086184E-17
6.075055E+03	6.225579E-16	2.087318E-17
6.085031E+03	6.246403E-16	2.087822E-17
6.095006E+03	6.265461E-16	2.087773E-17
6.104982E+03	6.282680E-16	2.087155E-17
6.114957E+03	6.298401E-16	2.086089E-17
6.124933E+03	6.312671E-16	2.084598E-17
6.134908E+03	6.325765E-16	2.082780E-17
6.144884E+03	6.337654E-16	2.080632E-17
6.154859E+03	6.348745E-16	2.078293E-17
6.164835E+03	6.359021E-16	2.075762E-17
6.174810E+03	6.369035E-16	2.073225E-17
6.184785E+03	6.378693E-16	2.070654E-17
6.194761E+03	6.388357E-16	2.068171E-17
6.204736E+03	6.398387E-16	2.065894E-17
6.214712E+03	6.408970E-16	2.063886E-17
6.224687E+03	6.420488E-16	2.062271E-17
6.234663E+03	6.433045E-16	2.061082E-17
6.244638E+03	6.447173E-16	2.060492E-17
6.254614E+03	6.463090E-16	2.060567E-17
6.264589E+03	6.481255E-16	2.061455E-17
6.274565E+03	6.501896E-16	2.063225E-17
6.284540E+03	6.525372E-16	2.065989E-17
6.294515E+03	6.552131E-16	2.069887E-17
6.304491E+03	6.582418E-16	2.074992E-17
6.314466E+03	6.616554E-16	2.081404E-17
6.324442E+03	6.654965E-16	2.089253E-17
6.334417E+03	6.697939E-16	2.098625E-17
6.344393E+03	6.745605E-16	2.109559E-17
6.354368E+03	6.798166E-16	2.122114E-17
6.364344E+03	6.855880E-16	2.136370E-17
6.374319E+03	6.918820E-16	2.152345E-17
6.384295E+03	6.986861E-16	2.170001E-17
6.394270E+03	7.060014E-16	2.189341E-17
6.404246E+03	7.137942E-16	2.210259E-17
6.414221E+03	7.220536E-16	2.232725E-17
6.424196E+03	7.306951E-16	2.256480E-17
6.434172E+03	7.396898E-16	2.281439E-17
6.444147E+03	7.489450E-16	2.307319E-17
6.454123E+03	7.583506E-16	2.333785E-17
6.464098E+03	7.678041E-16	2.360523E-17
6.474074E+03	7.771759E-16	2.387141E-17
6.484049E+03	7.863233E-16	2.413203E-17
6.494025E+03	7.950971E-16	2.438261E-17
6.504000E+03	8.033519E-16	2.461872E-17
6.513976E+03	8.109552E-16	2.483639E-17
6.523951E+03	8.178000E-16	2.503239E-17
6.533927E+03	8.238094E-16	2.520444E-17
6.543902E+03	8.289333E-16	2.535104E-17
6.553877E+03	8.331563E-16	2.547176E-17
6.563853E+03	8.364335E-16	2.556526E-17
6.573828E+03	8.387859E-16	2.563218E-17
6.583804E+03	8.402005E-16	2.567214E-17
6.593779E+03	8.406982E-16	2.568577E-17
6.603755E+03	8.402766E-16	2.567296E-17
6.613730E+03	8.389551E-16	2.563429E-17
6.623706E+03	8.367568E-16	2.557040E-17
6.633681E+03	8.337412E-16	2.548307E-17
6.643657E+03	8.299016E-16	2.537204E-17
6.653632E+03	8.253095E-16	2.523942E-17
6.663608E+03	8.200126E-16	2.508659E-17
6.673583E+03	8.140498E-16	2.491467E-17
6.683558E+03	8.074930E-16	2.472577E-17
6.693534E+03	8.004038E-16	2.452170E-17
6.703509E+03	7.928311E-16	2.430386E-17
6.713485E+03	7.848545E-16	2.407461E-17
6.723460E+03	7.765401E-16	2.383588E-17
6.733436E+03	7.679402E-16	2.358920E-17
6.743411E+03	7.591316E-16	2.333685E-17
6.753387E+03	7.501897E-16	2.308106E-17
6.763362E+03	7.411476E-16	2.282279E-17
6.773338E+03	7.320736E-16	2.256406E-17
6.783313E+03	7.230199E-16	2.230643E-17
6.793289E+03	7.140333E-16	2.205127E-17
6.803264E+03	7.051567E-16	2.179987E-17
6.813239E+03	6.964286E-16	2.155338E-17
6.823215E+03	6.878825E-16	2.131279E-17
6.833190E+03	6.795466E-16	2.107894E-17
6.843166E+03	6.714580E-16	2.085296E-17
6.853141E+03	6.636124E-16	2.063469E-17
6.863117E+03	6.560499E-16	2.042537E-17
6.873092E+03	6.487702E-16	2.022497E-17
6.883068E+03	6.417832E-16	2.003381E-17
6.893043E+03	6.350932E-16	1.985200E-17
6.903019E+03	6.287152E-16	1.968002E-17
6.912994E+03	6.226375E-16	1.951751E-17
6.922969E+03	6.168577E-16	1.936440E-17
6.932945E+03	6.113826E-16	1.922092E-17
6.942920E+03	6.061954E-16	1.908654E-17
6.952896E+03	6.012880E-16	1.896102E-17
6.962871E+03	5.966631E-16	1.884446E-17
6.972847E+03	5.922987E-16	1.873619E-17
6.982822E+03	5.881960E-16	1.863625E-17
6.992798E+03	5.843320E-16	1.854394E-17
7.002773E+03	5.807052E-16	1.845922E-17
7.012749E+03	5.772921E-16	1.838135E-17
7.022724E+03	5.740804E-16	1.830997E-17
7.032700E+03	5.710772E-16	1.824532E-17
7.042675E+03	5.682386E-16	1.818600E-17
7.052650E+03	5.655816E-16	1.813257E-17
7.062626E+03	5.630622E-16	1.808364E-17
7.072601E+03	5.606979E-16	1.803977E-17
7.082577E+03	5.584543E-16	1.799987E-17
7.092552E+03	5.563189E-16	1.796356E-17
7.102528E+03	5.542987E-16	1.793104E-17
7.112503E+03	5.523606E-16	1.790128E-17
7.122479E+03	5.504911E-16	1.787382E-17
7.132454E+03	5.486886E-16	1.784862E-17
7.142430E+03	5.469406E-16	1.782528E-17
7.152405E+03	5.452346E-16	1.780338E-17
7.162381E+03	5.435492E-16	1.778223E-17
7.172356E+03	5.418819E-16	1.776174E-17
7.182331E+03	5.402225E-16	1.774157E-17
7.192307E+03	5.385497E-16	1.772101E-17
7.202282E+03	5.368629E-16	1.770004E-17
7.212258E+03	5.351525E-16	1.767832E-17
7.222233E+03	5.334091E-16	1.765553E-17
7.232209E+03	5.316131E-16	1.763101E-17
7.242184E+03	5.297677E-16	1.760485E-17
7.252160E+03	5.278646E-16	1.757676E-17
7.262135E+03	5.258973E-16	1.754650E-17
7.272111E+03	5.238507E-16	1.751356E-17
7.282086E+03	5.217291E-16	1.747805E-17
7.292062E+03	5.195398E-16	1.744019E-17
7.302037E+03	5.172495E-16	1.739886E-17
7.312012E+03	5.148867E-16	1.735497E-17
7.321988E+03	5.124309E-16	1.730783E-17
7.331963E+03	5.099024E-16	1.725810E-17
7.341939E+03	5.072832E-16	1.720514E-17
7.351914E+03	5.045866E-16	1.714939E-17
7.361890E+03	5.018061E-16	1.709060E-17
7.371865E+03	4.989667E-16	1.702960E-17
7.381841E+03	4.960546E-16	1.696591E-17
7.391816E+03	4.930866E-16	1.690009E-17
7.401792E+03	4.900804E-16	1.683272E-17
7.411767E+03	4.870151E-16	1.676308E-17
7.421743E+03	4.839292E-16	1.669247E-17
7.431718E+03	4.808227E-16	1.662089E-17
7.441693E+03	4.776960E-16	1.654836E-17
7.451669E+03	4.745789E-16	1.647588E-17
7.461644E+03	4.714627E-16	1.640317E-17
7.471620E+03	4.683678E-16	1.633092E-17
7.481595E+03	4.653045E-16	1.625951E-17
7.491571E+03	4.622738E-16	1.618898E-17
7.501546E+03	4.593044E-16	1.612033E-17
7.511522E+03	4.563964E-16	1.605359E-17
7.521497E+03	4.535493E-16	1.598874E-17
7.531473E+03	4.507806E-16	1.592643E-17
7.541448E+03	4.480980E-16	1.586693E-17
7.551423E+03	4.455077E-16	1.581050E-17
7.561399E+03	4.430155E-16	1.575735E-17
7.571374E+03	4.406259E-16	1.570767E-17
7.581350E+03	4.383426E-16	1.566163E-17
7.591325E+03	4.361588E-16	1.561899E-17
7.601301E+03	4.340944E-16	1.558050E-17
7.611276E+03	4.321314E-16	1.554554E-17
7.621252E+03	4.302781E-16	1.551444E-17
7.631227E+03	4.285326E-16	1.548716E-17
7.641203E+03	4.268922E-16	1.546362E-17
7.651178E+03	4.253530E-16	1.544372E-17
7.661154E+03	4.239101E-16	1.542729E-17
7.671129E+03	4.225579E-16	1.541417E-17
7.681104E+03	4.212809E-16	1.540382E-17
7.691080E+03	4.200900E-16	1.539665E-17
7.701055E+03	4.189594E-16	1.539173E-17
7.711031E+03	4.178987E-16	1.538945E-17
7.721006E+03	4.168812E-16	1.538884E-17
7.730982E+03	4.159067E-16	1.538990E-17
7.740957E+03	4.149658E-16	1.539230E-17
