#wls	flux	fluxerr
1.596074E+03	8.518351E-19	5.236161E-20
1.635976E+03	9.032831E-19	5.527355E-20
1.675877E+03	9.478652E-19	5.773284E-20
1.715779E+03	9.840260E-19	5.965009E-20
1.755681E+03	1.010321E-18	6.094469E-20
1.795583E+03	1.022849E-18	6.139072E-20
1.835485E+03	1.017607E-18	6.076127E-20
1.875387E+03	9.911605E-19	5.886886E-20
1.915288E+03	9.406045E-19	5.556244E-20
1.955190E+03	8.668483E-19	5.091972E-20
1.995092E+03	7.768395E-19	4.537089E-20
2.034994E+03	6.833651E-19	3.967662E-20
2.074896E+03	6.052703E-19	3.492994E-20
2.114798E+03	5.590447E-19	3.206201E-20
2.154699E+03	5.573390E-19	3.176045E-20
2.194601E+03	6.065041E-19	3.433597E-20
2.234503E+03	7.088181E-19	3.985859E-20
2.274405E+03	8.628612E-19	4.818604E-20
2.314307E+03	1.062646E-18	5.892252E-20
2.354209E+03	1.300083E-18	7.156380E-20
2.394110E+03	1.565690E-18	8.554069E-20
2.434012E+03	1.851547E-18	1.003829E-19
2.473914E+03	2.151833E-18	1.157449E-19
2.513816E+03	2.463737E-18	1.314513E-19
2.553718E+03	2.785620E-18	1.473926E-19
2.593620E+03	3.114894E-18	1.634122E-19
2.633522E+03	3.453803E-18	1.796089E-19
2.673423E+03	3.803357E-18	1.960133E-19
2.713325E+03	4.162016E-18	2.125236E-19
2.753227E+03	4.533733E-18	2.293184E-19
2.793129E+03	4.920144E-18	2.464519E-19
2.833031E+03	5.321153E-18	2.638890E-19
2.872933E+03	5.738119E-18	2.816653E-19
2.912834E+03	6.172397E-18	2.998132E-19
2.952736E+03	6.627500E-18	3.184653E-19
2.992638E+03	7.105148E-18	3.376613E-19
3.002614E+03	7.227918E-18	3.425321E-19
3.012589E+03	7.349691E-18	3.473198E-19
3.022564E+03	7.475212E-18	3.522480E-19
3.032540E+03	7.602568E-18	3.572252E-19
3.042515E+03	7.732973E-18	3.623075E-19
3.052491E+03	7.868091E-18	3.675713E-19
3.062466E+03	8.007598E-18	3.729992E-19
3.072442E+03	8.151194E-18	3.785754E-19
3.082417E+03	8.298595E-18	3.842850E-19
3.092393E+03	8.449534E-18	3.901139E-19
3.102368E+03	8.606494E-18	3.961747E-19
3.112344E+03	8.763826E-18	4.022055E-19
3.122319E+03	8.923998E-18	4.083190E-19
3.132295E+03	9.086806E-18	4.145044E-19
3.142270E+03	9.252059E-18	4.207518E-19
3.152245E+03	9.419581E-18	4.270520E-19
3.162221E+03	9.592205E-18	4.335319E-19
3.172196E+03	9.763825E-18	4.399142E-19
3.182172E+03	9.937250E-18	4.463251E-19
3.192147E+03	1.011550E-17	4.528990E-19
3.202123E+03	1.029221E-17	4.593496E-19
3.212098E+03	1.047036E-17	4.658101E-19
3.222074E+03	1.065317E-17	4.724221E-19
3.232049E+03	1.083399E-17	4.788901E-19
3.242025E+03	1.101600E-17	4.853543E-19
3.252000E+03	1.120255E-17	4.919617E-19
3.261976E+03	1.138677E-17	4.984092E-19
3.271951E+03	1.157554E-17	5.049975E-19
3.281926E+03	1.176179E-17	5.114176E-19
3.291902E+03	1.195259E-17	5.179766E-19
3.301877E+03	1.214071E-17	5.243602E-19
3.311853E+03	1.233344E-17	5.308830E-19
3.321828E+03	1.252714E-17	5.373870E-19
3.331804E+03	1.271797E-17	5.437076E-19
3.341779E+03	1.291353E-17	5.501695E-19
3.351755E+03	1.311007E-17	5.566113E-19
3.361730E+03	1.330362E-17	5.628643E-19
3.371706E+03	1.350208E-17	5.692633E-19
3.381681E+03	1.370157E-17	5.756425E-19
3.391657E+03	1.389798E-17	5.818296E-19
3.401632E+03	1.409955E-17	5.881697E-19
3.411607E+03	1.430223E-17	5.944920E-19
3.421583E+03	1.450605E-17	6.007976E-19
3.431558E+03	1.471108E-17	6.070878E-19
3.441534E+03	1.491296E-17	6.131836E-19
3.451509E+03	1.512047E-17	6.194456E-19
3.461485E+03	1.532932E-17	6.256968E-19
3.471460E+03	1.553955E-17	6.319376E-19
3.481436E+03	1.575125E-17	6.381712E-19
3.491411E+03	1.596444E-17	6.443978E-19
3.501387E+03	1.617920E-17	6.506199E-19
3.511362E+03	1.639558E-17	6.568390E-19
3.521338E+03	1.661365E-17	6.630569E-19
3.531313E+03	1.683347E-17	6.692754E-19
3.541288E+03	1.705510E-17	6.754964E-19
3.551264E+03	1.727861E-17	6.817213E-19
3.561239E+03	1.750406E-17	6.879520E-19
3.571215E+03	1.773151E-17	6.941905E-19
3.581190E+03	1.796103E-17	7.004382E-19
3.591166E+03	1.819269E-17	7.066971E-19
3.601141E+03	1.843176E-17	7.131705E-19
3.611117E+03	1.866793E-17	7.194576E-19
3.621092E+03	1.890644E-17	7.257610E-19
3.631068E+03	1.914733E-17	7.320817E-19
3.641043E+03	1.939069E-17	7.384218E-19
3.651018E+03	1.964205E-17	7.449904E-19
3.660994E+03	1.989056E-17	7.513743E-19
3.670969E+03	2.014172E-17	7.577817E-19
3.680945E+03	2.039557E-17	7.642137E-19
3.690920E+03	2.065792E-17	7.708855E-19
3.700896E+03	2.091744E-17	7.773726E-19
3.710871E+03	2.117983E-17	7.838882E-19
3.720847E+03	2.145107E-17	7.906513E-19
3.730822E+03	2.171947E-17	7.972291E-19
3.740798E+03	2.199092E-17	8.038387E-19
3.750773E+03	2.227156E-17	8.107029E-19
3.760749E+03	2.254935E-17	8.173814E-19
3.770724E+03	2.283657E-17	8.243190E-19
3.780699E+03	2.312091E-17	8.310697E-19
3.790675E+03	2.341490E-17	8.380841E-19
3.800650E+03	2.370600E-17	8.449109E-19
3.810626E+03	2.400698E-17	8.520057E-19
3.820601E+03	2.430504E-17	8.589122E-19
3.830577E+03	2.461320E-17	8.660906E-19
3.840552E+03	2.491840E-17	8.730794E-19
3.850528E+03	2.523395E-17	8.803449E-19
3.860503E+03	2.554647E-17	8.874189E-19
3.870479E+03	2.586958E-17	8.947742E-19
3.880454E+03	2.618961E-17	9.019365E-19
3.890430E+03	2.652045E-17	9.093843E-19
3.900405E+03	2.685525E-17	9.168799E-19
3.910380E+03	2.718690E-17	9.241806E-19
3.920356E+03	2.752969E-17	9.317727E-19
3.930331E+03	2.786925E-17	9.391685E-19
3.940307E+03	2.822018E-17	9.468598E-19
3.950282E+03	2.857528E-17	9.546028E-19
3.960258E+03	2.892705E-17	9.621473E-19
3.970233E+03	2.929052E-17	9.699936E-19
3.980209E+03	2.965826E-17	9.778932E-19
3.990184E+03	3.003032E-17	9.858475E-19
4.000160E+03	3.039888E-17	9.936002E-19
4.010135E+03	3.077958E-17	1.001663E-18
4.020111E+03	3.116471E-17	1.009784E-18
4.030086E+03	3.154618E-17	1.017700E-18
4.040061E+03	3.194013E-17	1.025934E-18
4.050037E+03	3.233860E-17	1.034227E-18
4.060012E+03	3.274157E-17	1.042580E-18
4.069988E+03	3.314069E-17	1.050727E-18
4.079963E+03	3.355272E-17	1.059201E-18
4.089939E+03	3.396935E-17	1.067738E-18
4.099914E+03	3.439059E-17	1.076337E-18
4.109890E+03	3.481648E-17	1.085002E-18
4.119865E+03	3.523817E-17	1.093456E-18
4.129841E+03	3.567328E-17	1.102251E-18
4.139816E+03	3.611307E-17	1.111112E-18
4.149792E+03	3.655754E-17	1.120042E-18
4.159767E+03	3.700669E-17	1.129040E-18
4.169742E+03	3.745122E-17	1.137826E-18
4.179718E+03	3.790965E-17	1.146964E-18
4.189693E+03	3.837276E-17	1.156174E-18
4.199669E+03	3.884052E-17	1.165456E-18
4.209644E+03	3.931291E-17	1.174811E-18
4.219620E+03	3.978994E-17	1.184241E-18
4.229595E+03	4.027157E-17	1.193747E-18
4.239571E+03	4.074778E-17	1.203033E-18
4.249546E+03	4.123840E-17	1.212689E-18
4.259522E+03	4.173352E-17	1.222423E-18
4.269497E+03	4.223307E-17	1.232234E-18
4.279472E+03	4.273702E-17	1.242125E-18
4.289448E+03	4.324533E-17	1.252096E-18
4.299423E+03	4.375792E-17	1.262147E-18
4.309399E+03	4.426405E-17	1.271973E-18
4.319374E+03	4.478494E-17	1.282187E-18
4.329350E+03	4.530996E-17	1.292486E-18
4.339325E+03	4.583902E-17	1.302869E-18
4.349301E+03	4.637209E-17	1.313339E-18
4.359276E+03	4.690913E-17	1.323899E-18
4.369252E+03	4.745009E-17	1.334550E-18
4.379227E+03	4.798359E-17	1.344976E-18
4.389203E+03	4.853227E-17	1.355818E-18
4.399178E+03	4.908487E-17	1.366761E-18
4.409153E+03	4.964139E-17	1.377810E-18
4.419129E+03	5.020186E-17	1.388970E-18
4.429104E+03	5.076632E-17	1.400246E-18
4.439080E+03	5.132278E-17	1.411311E-18
4.449055E+03	5.189529E-17	1.422833E-18
4.459031E+03	5.247196E-17	1.434488E-18
4.469006E+03	5.305289E-17	1.446283E-18
4.478982E+03	5.363812E-17	1.458220E-18
4.488957E+03	5.422777E-17	1.470305E-18
4.498933E+03	5.480920E-17	1.482196E-18
4.508908E+03	5.540780E-17	1.494579E-18
4.518884E+03	5.601108E-17	1.507118E-18
4.528859E+03	5.661911E-17	1.519814E-18
4.538834E+03	5.721886E-17	1.532318E-18
4.548810E+03	5.783658E-17	1.545334E-18
4.558785E+03	5.845937E-17	1.558516E-18
4.568761E+03	5.908729E-17	1.571864E-18
4.578736E+03	5.970686E-17	1.585022E-18
4.588712E+03	6.034524E-17	1.598709E-18
4.598687E+03	6.098909E-17	1.612571E-18
4.608663E+03	6.162449E-17	1.626240E-18
4.618638E+03	6.227940E-17	1.640453E-18
4.628614E+03	6.294004E-17	1.654846E-18
4.638589E+03	6.360653E-17	1.669421E-18
4.648565E+03	6.426452E-17	1.683800E-18
4.658540E+03	6.494289E-17	1.698741E-18
4.668515E+03	6.561273E-17	1.713485E-18
4.678491E+03	6.630341E-17	1.728798E-18
4.688466E+03	6.700046E-17	1.744301E-18
4.698442E+03	6.768893E-17	1.759604E-18
4.708417E+03	6.839896E-17	1.775489E-18
4.718393E+03	6.910040E-17	1.791172E-18
4.728368E+03	6.982387E-17	1.807445E-18
4.738344E+03	7.053871E-17	1.823512E-18
4.748319E+03	7.127610E-17	1.840179E-18
4.758295E+03	7.200487E-17	1.856637E-18
4.768270E+03	7.275670E-17	1.873702E-18
4.778246E+03	7.349989E-17	1.890557E-18
4.788221E+03	7.426669E-17	1.908027E-18
4.798196E+03	7.502488E-17	1.925283E-18
4.808172E+03	7.580723E-17	1.943165E-18
4.818147E+03	7.658096E-17	1.960828E-18
4.828123E+03	7.736263E-17	1.978696E-18
4.838098E+03	7.816934E-17	1.997202E-18
4.848074E+03	7.896749E-17	2.015487E-18
4.858049E+03	7.977404E-17	2.033979E-18
4.868025E+03	8.058917E-17	2.052683E-18
4.878000E+03	8.143059E-17	2.072044E-18
4.887976E+03	8.226353E-17	2.091176E-18
4.897951E+03	8.310558E-17	2.110523E-18
4.907927E+03	8.395692E-17	2.130088E-18
4.917902E+03	8.483586E-17	2.150330E-18
4.927877E+03	8.570648E-17	2.170336E-18
4.937853E+03	8.658693E-17	2.190564E-18
4.947828E+03	8.747745E-17	2.211016E-18
4.957804E+03	8.837823E-17	2.231693E-18
4.967779E+03	8.928948E-17	2.252598E-18
4.977755E+03	9.021140E-17	2.273733E-18
4.987730E+03	9.114421E-17	2.295099E-18
4.997706E+03	9.208814E-17	2.316698E-18
5.007681E+03	9.304341E-17	2.338532E-18
5.017657E+03	9.401023E-17	2.360604E-18
5.027632E+03	9.498887E-17	2.382915E-18
5.037607E+03	9.597952E-17	2.405467E-18
5.047583E+03	9.696216E-17	2.427756E-18
5.057558E+03	9.797744E-17	2.450794E-18
5.067534E+03	9.900548E-17	2.474080E-18
5.077509E+03	1.000465E-16	2.497617E-18
5.087485E+03	1.010799E-16	2.520882E-18
5.097460E+03	1.021476E-16	2.544922E-18
5.107436E+03	1.032291E-16	2.569220E-18
5.117411E+03	1.043031E-16	2.593241E-18
5.127387E+03	1.054129E-16	2.618057E-18
5.137362E+03	1.065373E-16	2.643139E-18
5.147338E+03	1.076544E-16	2.667937E-18
5.157313E+03	1.088087E-16	2.693552E-18
5.167288E+03	1.099560E-16	2.718881E-18
5.177264E+03	1.111187E-16	2.744477E-18
5.187239E+03	1.123200E-16	2.770909E-18
5.197215E+03	1.135146E-16	2.797051E-18
5.207190E+03	1.147489E-16	2.824045E-18
5.217166E+03	1.159766E-16	2.850745E-18
5.227141E+03	1.172213E-16	2.877726E-18
5.237117E+03	1.184832E-16	2.904990E-18
5.247092E+03	1.197627E-16	2.932541E-18
5.257068E+03	1.210847E-16	2.960983E-18
5.267043E+03	1.224006E-16	2.989121E-18
5.277019E+03	1.237350E-16	3.017556E-18
5.286994E+03	1.250884E-16	3.046289E-18
5.296969E+03	1.264611E-16	3.075324E-18
5.306945E+03	1.278533E-16	3.104663E-18
5.316920E+03	1.292654E-16	3.134310E-18
5.326896E+03	1.306978E-16	3.164268E-18
5.336871E+03	1.321508E-16	3.194538E-18
5.346847E+03	1.335980E-16	3.224478E-18
5.356822E+03	1.350929E-16	3.255377E-18
5.366798E+03	1.366094E-16	3.286594E-18
5.376773E+03	1.381477E-16	3.318133E-18
5.386749E+03	1.396804E-16	3.349330E-18
5.396724E+03	1.412630E-16	3.381512E-18
5.406700E+03	1.428400E-16	3.413341E-18
5.416675E+03	1.444680E-16	3.446168E-18
5.426650E+03	1.460904E-16	3.478634E-18
5.436626E+03	1.477647E-16	3.512108E-18
5.446601E+03	1.494332E-16	3.545207E-18
5.456577E+03	1.511548E-16	3.579326E-18
5.466552E+03	1.528703E-16	3.613057E-18
5.476528E+03	1.546095E-16	3.647101E-18
5.486503E+03	1.563726E-16	3.681459E-18
5.496479E+03	1.581909E-16	3.716860E-18
5.506454E+03	1.600030E-16	3.751852E-18
5.516430E+03	1.618398E-16	3.787164E-18
5.526405E+03	1.637017E-16	3.822796E-18
5.536381E+03	1.655891E-16	3.858750E-18
5.546356E+03	1.675021E-16	3.895028E-18
5.556331E+03	1.694411E-16	3.931633E-18
5.566307E+03	1.714063E-16	3.968565E-18
5.576282E+03	1.733980E-16	4.005826E-18
5.586258E+03	1.753822E-16	4.042627E-18
5.596233E+03	1.774268E-16	4.080532E-18
5.606209E+03	1.794981E-16	4.118754E-18
5.616184E+03	1.815610E-16	4.156482E-18
5.626160E+03	1.836855E-16	4.195312E-18
5.636135E+03	1.858365E-16	4.234437E-18
5.646111E+03	1.879778E-16	4.273025E-18
5.656086E+03	1.901815E-16	4.312710E-18
5.666061E+03	1.923744E-16	4.351825E-18
5.676037E+03	1.945926E-16	4.391187E-18
5.686012E+03	1.968738E-16	4.431636E-18
5.695988E+03	1.991425E-16	4.471464E-18
5.705963E+03	2.014359E-16	4.511506E-18
5.715939E+03	2.037535E-16	4.551750E-18
5.725914E+03	2.060953E-16	4.592185E-18
5.735890E+03	2.084607E-16	4.632798E-18
5.745865E+03	2.108494E-16	4.673577E-18
5.755841E+03	2.132610E-16	4.714508E-18
5.765816E+03	2.156950E-16	4.755579E-18
5.775792E+03	2.181511E-16	4.796778E-18
5.785767E+03	2.206286E-16	4.838089E-18
5.795742E+03	2.231271E-16	4.879500E-18
5.805718E+03	2.256460E-16	4.920996E-18
5.815693E+03	2.281415E-16	4.961624E-18
5.825669E+03	2.306989E-16	5.003242E-18
5.835644E+03	2.332307E-16	5.043949E-18
5.845620E+03	2.358241E-16	5.085633E-18
5.855595E+03	2.383896E-16	5.126362E-18
5.865571E+03	2.410160E-16	5.168054E-18
5.875546E+03	2.436120E-16	5.208748E-18
5.885522E+03	2.462218E-16	5.249399E-18
5.895497E+03	2.488915E-16	5.290991E-18
5.905473E+03	2.515268E-16	5.331520E-18
5.915448E+03	2.541732E-16	5.371964E-18
5.925423E+03	2.568298E-16	5.412309E-18
5.935399E+03	2.594955E-16	5.452539E-18
5.945374E+03	2.621692E-16	5.492641E-18
5.955350E+03	2.648500E-16	5.532603E-18
5.965325E+03	2.675367E-16	5.572410E-18
5.975301E+03	2.702280E-16	5.612048E-18
5.985276E+03	2.728718E-16	5.650449E-18
5.995252E+03	2.755685E-16	5.689707E-18
6.005227E+03	2.782662E-16	5.728760E-18
6.015203E+03	2.809112E-16	5.766519E-18
6.025178E+03	2.836065E-16	5.805119E-18
6.035154E+03	2.862454E-16	5.842390E-18
6.045129E+03	2.889327E-16	5.880494E-18
6.055104E+03	2.915599E-16	5.917235E-18
6.065080E+03	2.941788E-16	5.953695E-18
6.075055E+03	2.968431E-16	5.990978E-18
6.085031E+03	2.994413E-16	6.026852E-18
6.095006E+03	3.020266E-16	6.062421E-18
6.104982E+03	3.045972E-16	6.097674E-18
6.114957E+03	3.071517E-16	6.132607E-18
6.124933E+03	3.096885E-16	6.167215E-18
6.134908E+03	3.122056E-16	6.201491E-18
6.144884E+03	3.147016E-16	6.235432E-18
6.154859E+03	3.171745E-16	6.269034E-18
6.164835E+03	3.196228E-16	6.302295E-18
6.174810E+03	3.219850E-16	6.334038E-18
6.184785E+03	3.243781E-16	6.366605E-18
6.194761E+03	3.267412E-16	6.398827E-18
6.204736E+03	3.290116E-16	6.429515E-18
6.214712E+03	3.313088E-16	6.461042E-18
6.224687E+03	3.335089E-16	6.491029E-18
6.234663E+03	3.356710E-16	6.520667E-18
6.244638E+03	3.378556E-16	6.551169E-18
6.254614E+03	3.399367E-16	6.580125E-18
6.264589E+03	3.419744E-16	6.608747E-18
6.274565E+03	3.439670E-16	6.637039E-18
6.284540E+03	3.459127E-16	6.665007E-18
6.294515E+03	3.478739E-16	6.693893E-18
6.304491E+03	3.497211E-16	6.721242E-18
6.314466E+03	3.514516E-16	6.747051E-18
6.324442E+03	3.531929E-16	6.773805E-18
6.334417E+03	3.548791E-16	6.800279E-18
6.344393E+03	3.565085E-16	6.826481E-18
6.354368E+03	3.580795E-16	6.852421E-18
6.364344E+03	3.595247E-16	6.876845E-18
6.374319E+03	3.609744E-16	6.902288E-18
6.384295E+03	3.622949E-16	6.926228E-18
6.394270E+03	3.636177E-16	6.951216E-18
6.404246E+03	3.648082E-16	6.974712E-18
6.414221E+03	3.659989E-16	6.999284E-18
6.424196E+03	3.670544E-16	7.022377E-18
6.434172E+03	3.680407E-16	7.045281E-18
6.444147E+03	3.689566E-16	7.068006E-18
6.454123E+03	3.698014E-16	7.090547E-18
6.464098E+03	3.705744E-16	7.112882E-18
6.474074E+03	3.712752E-16	7.134987E-18
6.484049E+03	3.719039E-16	7.156842E-18
6.494025E+03	3.724605E-16	7.178427E-18
6.504000E+03	3.729451E-16	7.199722E-18
6.513976E+03	3.733582E-16	7.220707E-18
6.523951E+03	3.736998E-16	7.241362E-18
6.533927E+03	3.739019E-16	7.260333E-18
6.543902E+03	3.741016E-16	7.280256E-18
6.553877E+03	3.742311E-16	7.299779E-18
6.563853E+03	3.742224E-16	7.317544E-18
6.573828E+03	3.742131E-16	7.336207E-18
6.583804E+03	3.740671E-16	7.353064E-18
6.593779E+03	3.738539E-16	7.369442E-18
6.603755E+03	3.736428E-16	7.386674E-18
6.613730E+03	3.732980E-16	7.402043E-18
6.623706E+03	3.728892E-16	7.416885E-18
6.633681E+03	3.724176E-16	7.431184E-18
6.643657E+03	3.718843E-16	7.444928E-18
6.653632E+03	3.712906E-16	7.458103E-18
6.663608E+03	3.706380E-16	7.470699E-18
6.673583E+03	3.699276E-16	7.482703E-18
6.683558E+03	3.691609E-16	7.494104E-18
6.693534E+03	3.683394E-16	7.504894E-18
6.703509E+03	3.673972E-16	7.513688E-18
6.713485E+03	3.664703E-16	7.523228E-18
6.723460E+03	3.654930E-16	7.532133E-18
6.733436E+03	3.643998E-16	7.539015E-18
6.743411E+03	3.633261E-16	7.546629E-18
6.753387E+03	3.621399E-16	7.552208E-18
6.763362E+03	3.609758E-16	7.558513E-18
6.773338E+03	3.597026E-16	7.562773E-18
6.783313E+03	3.583884E-16	7.566370E-18
6.793289E+03	3.571000E-16	7.570688E-18
6.803264E+03	3.557077E-16	7.572954E-18
6.813239E+03	3.542788E-16	7.574553E-18
6.823215E+03	3.528146E-16	7.575484E-18
6.833190E+03	3.513165E-16	7.575750E-18
6.843166E+03	3.497860E-16	7.575349E-18
6.853141E+03	3.482244E-16	7.574284E-18
6.863117E+03	3.466330E-16	7.572557E-18
6.873092E+03	3.450130E-16	7.570167E-18
6.883068E+03	3.433028E-16	7.565731E-18
6.893043E+03	3.416299E-16	7.562025E-18
6.903019E+03	3.399321E-16	7.557666E-18
6.912994E+03	3.381484E-16	7.551267E-18
6.922969E+03	3.364045E-16	7.545605E-18
6.932945E+03	3.345774E-16	7.537911E-18
6.942920E+03	3.327916E-16	7.530958E-18
6.952896E+03	3.309252E-16	7.521980E-18
6.962871E+03	3.291013E-16	7.513747E-18
6.972847E+03	3.271992E-16	7.503495E-18
6.982822E+03	3.252808E-16	7.492611E-18
6.992798E+03	3.233469E-16	7.481099E-18
7.002773E+03	3.214573E-16	7.470335E-18
7.012749E+03	3.194942E-16	7.457570E-18
7.022724E+03	3.175177E-16	7.444184E-18
7.032700E+03	3.155284E-16	7.430179E-18
7.042675E+03	3.135271E-16	7.415558E-18
7.052650E+03	3.115144E-16	7.400325E-18
7.062626E+03	3.094336E-16	7.383120E-18
7.072601E+03	3.074000E-16	7.366672E-18
7.082577E+03	3.053566E-16	7.349621E-18
7.092552E+03	3.033040E-16	7.331971E-18
7.102528E+03	3.011868E-16	7.312372E-18
7.112503E+03	2.991175E-16	7.293536E-18
7.122479E+03	2.969854E-16	7.272767E-18
7.132454E+03	2.949013E-16	7.252764E-18
7.142430E+03	2.927561E-16	7.230844E-18
7.152405E+03	2.906591E-16	7.209693E-18
7.162381E+03	2.885026E-16	7.186645E-18
7.172356E+03	2.863414E-16	7.163044E-18
7.182331E+03	2.842286E-16	7.140223E-18
7.192307E+03	2.820588E-16	7.115536E-18
7.202282E+03	2.798856E-16	7.090318E-18
7.212258E+03	2.777096E-16	7.064583E-18
7.222233E+03	2.755311E-16	7.038336E-18
7.232209E+03	2.733505E-16	7.011589E-18
7.242184E+03	2.711686E-16	6.984353E-18
7.252160E+03	2.689856E-16	6.956640E-18
7.262135E+03	2.668022E-16	6.928463E-18
7.272111E+03	2.646188E-16	6.899832E-18
7.282086E+03	2.624360E-16	6.870765E-18
7.292062E+03	2.602057E-16	6.839996E-18
7.302037E+03	2.580261E-16	6.810100E-18
7.312012E+03	2.558486E-16	6.779812E-18
7.321988E+03	2.536266E-16	6.747885E-18
7.331963E+03	2.514557E-16	6.716866E-18
7.341939E+03	2.492421E-16	6.684252E-18
7.351914E+03	2.470801E-16	6.652573E-18
7.361890E+03	2.448773E-16	6.619347E-18
7.371865E+03	2.427267E-16	6.587083E-18
7.381841E+03	2.405372E-16	6.553323E-18
7.391816E+03	2.383554E-16	6.519328E-18
7.401792E+03	2.362265E-16	6.486339E-18
7.411767E+03	2.340617E-16	6.451932E-18
7.421743E+03	2.319066E-16	6.417354E-18
7.431718E+03	2.297616E-16	6.382627E-18
7.441693E+03	2.276276E-16	6.347774E-18
7.451669E+03	2.255049E-16	6.312815E-18
7.461644E+03	2.233943E-16	6.277773E-18
7.471620E+03	2.212964E-16	6.242673E-18
7.481595E+03	2.192118E-16	6.207535E-18
7.491571E+03	2.171411E-16	6.172383E-18
7.501546E+03	2.150847E-16	6.137239E-18
7.511522E+03	2.130434E-16	6.102126E-18
7.521497E+03	2.109776E-16	6.065916E-18
7.531473E+03	2.089683E-16	6.030938E-18
7.541448E+03	2.069756E-16	5.996059E-18
7.551423E+03	2.050002E-16	5.961302E-18
7.561399E+03	2.030038E-16	5.925558E-18
7.571374E+03	2.010645E-16	5.891113E-18
7.581350E+03	1.991059E-16	5.855737E-18
7.591325E+03	1.972048E-16	5.821693E-18
7.601301E+03	1.952859E-16	5.786770E-18
7.611276E+03	1.933876E-16	5.752108E-18
7.621252E+03	1.915471E-16	5.718821E-18
7.631227E+03	1.896910E-16	5.684734E-18
7.641203E+03	1.878568E-16	5.650967E-18
7.651178E+03	1.860804E-16	5.618618E-18
7.661154E+03	1.842905E-16	5.585542E-18
7.671129E+03	1.825234E-16	5.552842E-18
7.681104E+03	1.807795E-16	5.520536E-18
7.691080E+03	1.790589E-16	5.488640E-18
7.701055E+03	1.773620E-16	5.457172E-18
7.711031E+03	1.756890E-16	5.426149E-18
7.721006E+03	1.740402E-16	5.395584E-18
7.730982E+03	1.724156E-16	5.365495E-18
7.740957E+03	1.708156E-16	5.335896E-18
