#wls	flux	fluxerr
1.596074E+03	7.067942E-19	4.535780E-20
1.635976E+03	7.501204E-19	4.792071E-20
1.675877E+03	7.878646E-19	5.009842E-20
1.715779E+03	8.187228E-19	5.181253E-20
1.755681E+03	8.411255E-19	5.296978E-20
1.795583E+03	8.521442E-19	5.339398E-20
1.835485E+03	8.488056E-19	5.291030E-20
1.875387E+03	8.270841E-19	5.128305E-20
1.915288E+03	7.856257E-19	4.844732E-20
1.955190E+03	7.247377E-19	4.444275E-20
1.995092E+03	6.499051E-19	3.962511E-20
2.034994E+03	5.723364E-19	3.469005E-20
2.074896E+03	5.073420E-19	3.056457E-20
2.114798E+03	4.691864E-19	2.809028E-20
2.154699E+03	4.679815E-19	2.783939E-20
2.194601E+03	5.097607E-19	3.012611E-20
2.234503E+03	5.966211E-19	3.502228E-20
2.274405E+03	7.267786E-19	4.236805E-20
2.314307E+03	8.957092E-19	5.184576E-20
2.354209E+03	1.096749E-18	6.302031E-20
2.394110E+03	1.321953E-18	7.539314E-20
2.434012E+03	1.564711E-18	8.855342E-20
2.473914E+03	1.820161E-18	1.021991E-19
2.513816E+03	2.085217E-18	1.161351E-19
2.553718E+03	2.359221E-18	1.303053E-19
2.593620E+03	2.639765E-18	1.445586E-19
2.633522E+03	2.929040E-18	1.589977E-19
2.673423E+03	3.226662E-18	1.735822E-19
2.713325E+03	3.533487E-18	1.883382E-19
2.753227E+03	3.852064E-18	2.033790E-19
2.793129E+03	4.180525E-18	2.185814E-19
2.833031E+03	4.523200E-18	2.341465E-19
2.872933E+03	4.879690E-18	2.500237E-19
2.912834E+03	5.249082E-18	2.661363E-19
2.952736E+03	5.638630E-18	2.828191E-19
2.992638E+03	6.043279E-18	2.997799E-19
3.002614E+03	6.147246E-18	3.040816E-19
3.012589E+03	6.252366E-18	3.084083E-19
3.022564E+03	6.358656E-18	3.127601E-19
3.032540E+03	6.466483E-18	3.171545E-19
3.042515E+03	6.576876E-18	3.216409E-19
3.052491E+03	6.693803E-18	3.264116E-19
3.062466E+03	6.811924E-18	3.312042E-19
3.072442E+03	6.933492E-18	3.361271E-19
3.082417E+03	7.058264E-18	3.411669E-19
3.092393E+03	7.186014E-18	3.463114E-19
3.102368E+03	7.316528E-18	3.515487E-19
3.112344E+03	7.452420E-18	3.570027E-19
3.122319E+03	7.587923E-18	3.623955E-19
3.132295E+03	7.725627E-18	3.678505E-19
3.142270E+03	7.865371E-18	3.733588E-19
3.152245E+03	8.007000E-18	3.789122E-19
3.162221E+03	8.153428E-18	3.846471E-19
3.172196E+03	8.298463E-18	3.902701E-19
3.182172E+03	8.444990E-18	3.959167E-19
3.192147E+03	8.592894E-18	4.015810E-19
3.202123E+03	8.745330E-18	4.074091E-19
3.212098E+03	8.895743E-18	4.130943E-19
3.222074E+03	9.047254E-18	4.187821E-19
3.232049E+03	9.203195E-18	4.246254E-19
3.242025E+03	9.356733E-18	4.303079E-19
3.252000E+03	9.511163E-18	4.359816E-19
3.261976E+03	9.666436E-18	4.416437E-19
3.271951E+03	9.826123E-18	4.474563E-19
3.281926E+03	9.983003E-18	4.530896E-19
3.291902E+03	1.014061E-17	4.587047E-19
3.301877E+03	1.030270E-17	4.644702E-19
3.311853E+03	1.046176E-17	4.700463E-19
3.321828E+03	1.062537E-17	4.757743E-19
3.331804E+03	1.078583E-17	4.813076E-19
3.341779E+03	1.094694E-17	4.868176E-19
3.351755E+03	1.111279E-17	4.924840E-19
3.361730E+03	1.127532E-17	4.979495E-19
3.371706E+03	1.143856E-17	5.033923E-19
3.381681E+03	1.160669E-17	5.089960E-19
3.391657E+03	1.177144E-17	5.143961E-19
3.401632E+03	1.194124E-17	5.199616E-19
3.411607E+03	1.210760E-17	5.253213E-19
3.421583E+03	1.227919E-17	5.308521E-19
3.431558E+03	1.244729E-17	5.361757E-19
3.441534E+03	1.261629E-17	5.414823E-19
3.451509E+03	1.279079E-17	5.469681E-19
3.461485E+03	1.296176E-17	5.522456E-19
3.471460E+03	1.313846E-17	5.577094E-19
3.481436E+03	1.331159E-17	5.629635E-19
3.491411E+03	1.349064E-17	5.684103E-19
3.501387E+03	1.366613E-17	5.736480E-19
3.511362E+03	1.384776E-17	5.790841E-19
3.521338E+03	1.402579E-17	5.843110E-19
3.531313E+03	1.421019E-17	5.897428E-19
3.541288E+03	1.439100E-17	5.949658E-19
3.551264E+03	1.457838E-17	6.003998E-19
3.561239E+03	1.476219E-17	6.056254E-19
3.571215E+03	1.495279E-17	6.110686E-19
3.581190E+03	1.513980E-17	6.163031E-19
3.591166E+03	1.533384E-17	6.217616E-19
3.601141E+03	1.552971E-17	6.272307E-19
3.611117E+03	1.572199E-17	6.324919E-19
3.621092E+03	1.592164E-17	6.379860E-19
3.631068E+03	1.611770E-17	6.432722E-19
3.641043E+03	1.632136E-17	6.487972E-19
3.651018E+03	1.652140E-17	6.541137E-19
3.660994E+03	1.672928E-17	6.596752E-19
3.670969E+03	1.693939E-17	6.652579E-19
3.680945E+03	1.714588E-17	6.706322E-19
3.690920E+03	1.736055E-17	6.762602E-19
3.700896E+03	1.757158E-17	6.816788E-19
3.710871E+03	1.779102E-17	6.873564E-19
3.720847E+03	1.801297E-17	6.930622E-19
3.730822E+03	1.823124E-17	6.985576E-19
3.740798E+03	1.845827E-17	7.043202E-19
3.750773E+03	1.868160E-17	7.098722E-19
3.760749E+03	1.891395E-17	7.156973E-19
3.770724E+03	1.914906E-17	7.215557E-19
3.780699E+03	1.938040E-17	7.272012E-19
3.790675E+03	1.962112E-17	7.331282E-19
3.800650E+03	1.986474E-17	7.390914E-19
3.810626E+03	2.010454E-17	7.448403E-19
3.820601E+03	2.035406E-17	7.508777E-19
3.830577E+03	2.059970E-17	7.566998E-19
3.840552E+03	2.085532E-17	7.628158E-19
3.850528E+03	2.111410E-17	7.689732E-19
3.860503E+03	2.136890E-17	7.749127E-19
3.870479E+03	2.163405E-17	7.811538E-19
3.880454E+03	2.190249E-17	7.874392E-19
3.890430E+03	2.216687E-17	7.935047E-19
3.900405E+03	2.244196E-17	7.998793E-19
3.910380E+03	2.272047E-17	8.063008E-19
3.920356E+03	2.299483E-17	8.125003E-19
3.930331E+03	2.328026E-17	8.190168E-19
3.940307E+03	2.356925E-17	8.255827E-19
3.950282E+03	2.385396E-17	8.319242E-19
3.960258E+03	2.415012E-17	8.385905E-19
3.970233E+03	2.444998E-17	8.453096E-19
3.980209E+03	2.474541E-17	8.518012E-19
3.990184E+03	2.505268E-17	8.586261E-19
4.000160E+03	2.536374E-17	8.655058E-19
4.010135E+03	2.567027E-17	8.721567E-19
4.020111E+03	2.598899E-17	8.791484E-19
4.030086E+03	2.631164E-17	8.861984E-19
4.040061E+03	2.662956E-17	8.930163E-19
4.050037E+03	2.696007E-17	9.001838E-19
4.060012E+03	2.729462E-17	9.074127E-19
4.069988E+03	2.762425E-17	9.144067E-19
4.079963E+03	2.796684E-17	9.217589E-19
4.089939E+03	2.831355E-17	9.291753E-19
4.099914E+03	2.866440E-17	9.366568E-19
4.109890E+03	2.901006E-17	9.438997E-19
4.119865E+03	2.936918E-17	9.515129E-19
4.129841E+03	2.973250E-17	9.591939E-19
4.139816E+03	3.009038E-17	9.666333E-19
4.149792E+03	3.046206E-17	9.744513E-19
4.159767E+03	3.083798E-17	9.823400E-19
4.169742E+03	3.120818E-17	9.899838E-19
4.179718E+03	3.159250E-17	9.980145E-19
4.189693E+03	3.198109E-17	1.006119E-18
4.199669E+03	3.236361E-17	1.013974E-18
4.209644E+03	3.276057E-17	1.022226E-18
4.219620E+03	3.316175E-17	1.030552E-18
4.229595E+03	3.355647E-17	1.038625E-18
4.239571E+03	3.396591E-17	1.047102E-18
4.249546E+03	3.437948E-17	1.055656E-18
4.259522E+03	3.478617E-17	1.063952E-18
4.269497E+03	3.520777E-17	1.072659E-18
4.279472E+03	3.562217E-17	1.081103E-18
4.289448E+03	3.605161E-17	1.089964E-18
4.299423E+03	3.648489E-17	1.098903E-18
4.309399E+03	3.691041E-17	1.107572E-18
4.319374E+03	3.735109E-17	1.116664E-18
4.329350E+03	3.779537E-17	1.125833E-18
4.339325E+03	3.823119E-17	1.134723E-18
4.349301E+03	3.868220E-17	1.144042E-18
4.359276E+03	3.913643E-17	1.153433E-18
4.369252E+03	3.958146E-17	1.162537E-18
4.379227E+03	4.004157E-17	1.172071E-18
4.389203E+03	4.049202E-17	1.181312E-18
4.399178E+03	4.095785E-17	1.190996E-18
4.409153E+03	4.142671E-17	1.200764E-18
4.419129E+03	4.188580E-17	1.210251E-18
4.429104E+03	4.236087E-17	1.220204E-18
4.439080E+03	4.282604E-17	1.229881E-18
4.449055E+03	4.330759E-17	1.240042E-18
4.459031E+03	4.377912E-17	1.249932E-18
4.469006E+03	4.426744E-17	1.260323E-18
4.478982E+03	4.475928E-17	1.270837E-18
4.488957E+03	4.524093E-17	1.281085E-18
4.498933E+03	4.573993E-17	1.291849E-18
4.508908E+03	4.622858E-17	1.302347E-18
4.518884E+03	4.673497E-17	1.313371E-18
4.528859E+03	4.723091E-17	1.324127E-18
4.538834E+03	4.774502E-17	1.335419E-18
4.548810E+03	4.824853E-17	1.346441E-18
4.558785E+03	4.877062E-17	1.358010E-18
4.568761E+03	4.928199E-17	1.369307E-18
4.578736E+03	4.981238E-17	1.381160E-18
4.588712E+03	5.033196E-17	1.392740E-18
4.598687E+03	5.087098E-17	1.404885E-18
4.608663E+03	5.139912E-17	1.416756E-18
4.618638E+03	5.193160E-17	1.428774E-18
4.628614E+03	5.248422E-17	1.441372E-18
4.638589E+03	5.302583E-17	1.453693E-18
4.648565E+03	5.358809E-17	1.466605E-18
4.658540E+03	5.413926E-17	1.479238E-18
4.668515E+03	5.471160E-17	1.492472E-18
4.678491E+03	5.527278E-17	1.505425E-18
4.688466E+03	5.583910E-17	1.518540E-18
4.698442E+03	5.642742E-17	1.532273E-18
4.708417E+03	5.700452E-17	1.545722E-18
4.718393E+03	5.758715E-17	1.559340E-18
4.728368E+03	5.819265E-17	1.573594E-18
4.738344E+03	5.878691E-17	1.587560E-18
4.748319E+03	5.938714E-17	1.601702E-18
4.758295E+03	6.001118E-17	1.616500E-18
4.768270E+03	6.062398E-17	1.631006E-18
4.778246E+03	6.124324E-17	1.645696E-18
4.788221E+03	6.188726E-17	1.661061E-18
4.798196E+03	6.252009E-17	1.676131E-18
4.808172E+03	6.315992E-17	1.691395E-18
4.818147E+03	6.380690E-17	1.706853E-18
4.828123E+03	6.448004E-17	1.723012E-18
4.838098E+03	6.514207E-17	1.738874E-18
4.848074E+03	6.581182E-17	1.754938E-18
4.858049E+03	6.648953E-17	1.771210E-18
4.868025E+03	6.717535E-17	1.787692E-18
4.878000E+03	6.788920E-17	1.804910E-18
4.887976E+03	6.859209E-17	1.821824E-18
4.897951E+03	6.930372E-17	1.838957E-18
4.907927E+03	7.002431E-17	1.856311E-18
4.917902E+03	7.075410E-17	1.873890E-18
4.927877E+03	7.149328E-17	1.891696E-18
4.937853E+03	7.224207E-17	1.909733E-18
4.947828E+03	7.300071E-17	1.928003E-18
4.957804E+03	7.376940E-17	1.946510E-18
4.967779E+03	7.454836E-17	1.965255E-18
4.977755E+03	7.535944E-17	1.984812E-18
4.987730E+03	7.615983E-17	2.004048E-18
4.997706E+03	7.697119E-17	2.023532E-18
5.007681E+03	7.779372E-17	2.043266E-18
5.017657E+03	7.860519E-17	2.062663E-18
5.027632E+03	7.945050E-17	2.082899E-18
5.037607E+03	8.030764E-17	2.103391E-18
5.047583E+03	8.117685E-17	2.124143E-18
5.057558E+03	8.205831E-17	2.145155E-18
5.067534E+03	8.295225E-17	2.166431E-18
5.077509E+03	8.385886E-17	2.187971E-18
5.087485E+03	8.477837E-17	2.209777E-18
5.097460E+03	8.571097E-17	2.231851E-18
5.107436E+03	8.665685E-17	2.254194E-18
5.117411E+03	8.759146E-17	2.276164E-18
5.127387E+03	8.856423E-17	2.299042E-18
5.137362E+03	8.955084E-17	2.322191E-18
5.147338E+03	9.055144E-17	2.345611E-18
5.157313E+03	9.154051E-17	2.368638E-18
5.167288E+03	9.256937E-17	2.392596E-18
5.177264E+03	9.361273E-17	2.416826E-18
5.187239E+03	9.467071E-17	2.441326E-18
5.197215E+03	9.571666E-17	2.465406E-18
5.207190E+03	9.680406E-17	2.490440E-18
5.217166E+03	9.790644E-17	2.515739E-18
5.227141E+03	9.899636E-17	2.540597E-18
5.237117E+03	1.001288E-16	2.566421E-18
5.247092E+03	1.012484E-16	2.591785E-18
5.257068E+03	1.024114E-16	2.618124E-18
5.267043E+03	1.035898E-16	2.644720E-18
5.277019E+03	1.047547E-16	2.670828E-18
5.286994E+03	1.059641E-16	2.697923E-18
5.296969E+03	1.071594E-16	2.724511E-18
5.306945E+03	1.083999E-16	2.752091E-18
5.316920E+03	1.096258E-16	2.779143E-18
5.326896E+03	1.108669E-16	2.806419E-18
5.336871E+03	1.121542E-16	2.834697E-18
5.346847E+03	1.134261E-16	2.862415E-18
5.356822E+03	1.147448E-16	2.891140E-18
5.366798E+03	1.160476E-16	2.919283E-18
5.376773E+03	1.173656E-16	2.947628E-18
5.386749E+03	1.187316E-16	2.976990E-18
5.396724E+03	1.200805E-16	3.005736E-18
5.406700E+03	1.214448E-16	3.034671E-18
5.416675E+03	1.228245E-16	3.063793E-18
5.426650E+03	1.242535E-16	3.093944E-18
5.436626E+03	1.256642E-16	3.123434E-18
5.446601E+03	1.270904E-16	3.153099E-18
5.456577E+03	1.285321E-16	3.182937E-18
5.466552E+03	1.299893E-16	3.212943E-18
5.476528E+03	1.314621E-16	3.243117E-18
5.486503E+03	1.329867E-16	3.274346E-18
5.496479E+03	1.344914E-16	3.304856E-18
5.506454E+03	1.360119E-16	3.335528E-18
5.516430E+03	1.375485E-16	3.366363E-18
5.526405E+03	1.391013E-16	3.397360E-18
5.536381E+03	1.406706E-16	3.428521E-18
5.546356E+03	1.422563E-16	3.459845E-18
5.556331E+03	1.438589E-16	3.491334E-18
5.566307E+03	1.454783E-16	3.522990E-18
5.576282E+03	1.471150E-16	3.554814E-18
5.586258E+03	1.487287E-16	3.585837E-18
5.596233E+03	1.503996E-16	3.617988E-18
5.606209E+03	1.520880E-16	3.650303E-18
5.616184E+03	1.537939E-16	3.682779E-18
5.626160E+03	1.555175E-16	3.715412E-18
5.636135E+03	1.572165E-16	3.747192E-18
5.646111E+03	1.589752E-16	3.780124E-18
5.656086E+03	1.607518E-16	3.813204E-18
5.666061E+03	1.625462E-16	3.846430E-18
5.676037E+03	1.643144E-16	3.878754E-18
5.686012E+03	1.661442E-16	3.912249E-18
5.695988E+03	1.679918E-16	3.945876E-18
5.705963E+03	1.698118E-16	3.978563E-18
5.715939E+03	1.716946E-16	4.012431E-18
5.725914E+03	1.735487E-16	4.045333E-18
5.735890E+03	1.754663E-16	4.079419E-18
5.745865E+03	1.773539E-16	4.112512E-18
5.755841E+03	1.793058E-16	4.146794E-18
5.765816E+03	1.812263E-16	4.180050E-18
5.775792E+03	1.832116E-16	4.214499E-18
5.785767E+03	1.851641E-16	4.247891E-18
5.795742E+03	1.871320E-16	4.281335E-18
5.805718E+03	1.891653E-16	4.315973E-18
5.815693E+03	1.911634E-16	4.349505E-18
5.825669E+03	1.931757E-16	4.383064E-18
5.835644E+03	1.952539E-16	4.417816E-18
5.845620E+03	1.972941E-16	4.451412E-18
5.855595E+03	1.993474E-16	4.485009E-18
5.865571E+03	2.014132E-16	4.518598E-18
5.875546E+03	2.035451E-16	4.553377E-18
5.885522E+03	2.056350E-16	4.586932E-18
5.895497E+03	2.077359E-16	4.620454E-18
5.905473E+03	2.098472E-16	4.653934E-18
5.915448E+03	2.119684E-16	4.687365E-18
5.925423E+03	2.140988E-16	4.720738E-18
5.935399E+03	2.162379E-16	4.754047E-18
5.945374E+03	2.183850E-16	4.787285E-18
5.955350E+03	2.205395E-16	4.820445E-18
5.965325E+03	2.227007E-16	4.853522E-18
5.975301E+03	2.248679E-16	4.886511E-18
5.985276E+03	2.270406E-16	4.919407E-18
5.995252E+03	2.292180E-16	4.952205E-18
6.005227E+03	2.313994E-16	4.984903E-18
6.015203E+03	2.335227E-16	5.016179E-18
6.025178E+03	2.357094E-16	5.048660E-18
6.035154E+03	2.378980E-16	5.081034E-18
6.045129E+03	2.400877E-16	5.113301E-18
6.055104E+03	2.422141E-16	5.144107E-18
6.065080E+03	2.444030E-16	5.176148E-18
6.075055E+03	2.465907E-16	5.208081E-18
6.085031E+03	2.487110E-16	5.238533E-18
6.095006E+03	2.508929E-16	5.270246E-18
6.104982E+03	2.530710E-16	5.301854E-18
6.114957E+03	2.551773E-16	5.331964E-18
6.124933E+03	2.573442E-16	5.363363E-18
6.134908E+03	2.594363E-16	5.393253E-18
6.144884E+03	2.615879E-16	5.424452E-18
6.154859E+03	2.636614E-16	5.454131E-18
6.164835E+03	2.657238E-16	5.483705E-18
6.174810E+03	2.678436E-16	5.514615E-18
6.184785E+03	2.698802E-16	5.543990E-18
6.194761E+03	2.719017E-16	5.573263E-18
6.204736E+03	2.739782E-16	5.603898E-18
6.214712E+03	2.759655E-16	5.632977E-18
6.224687E+03	2.779332E-16	5.661953E-18
6.234663E+03	2.799525E-16	5.692309E-18
6.244638E+03	2.818763E-16	5.721081E-18
6.254614E+03	2.837750E-16	5.749742E-18
6.264589E+03	2.856468E-16	5.778285E-18
6.274565E+03	2.874897E-16	5.806707E-18
6.284540E+03	2.893014E-16	5.834995E-18
6.294515E+03	2.910797E-16	5.863142E-18
6.304491E+03	2.928222E-16	5.891136E-18
6.314466E+03	2.945266E-16	5.918963E-18
6.324442E+03	2.961901E-16	5.946608E-18
6.334417E+03	2.978102E-16	5.974053E-18
6.344393E+03	2.993840E-16	6.001278E-18
6.354368E+03	3.009086E-16	6.028263E-18
6.364344E+03	3.023811E-16	6.054981E-18
6.374319E+03	3.037984E-16	6.081407E-18
6.384295E+03	3.051572E-16	6.107509E-18
6.394270E+03	3.063747E-16	6.131664E-18
6.404246E+03	3.076063E-16	6.157015E-18
6.414221E+03	3.087694E-16	6.181936E-18
6.424196E+03	3.098602E-16	6.206386E-18
6.434172E+03	3.107943E-16	6.228700E-18
6.444147E+03	3.117292E-16	6.252059E-18
6.454123E+03	3.125804E-16	6.274779E-18
6.464098E+03	3.132628E-16	6.295140E-18
6.474074E+03	3.139349E-16	6.316309E-18
6.484049E+03	3.144301E-16	6.334914E-18
6.494025E+03	3.149073E-16	6.354137E-18
6.504000E+03	3.151992E-16	6.370577E-18
6.513976E+03	3.154648E-16	6.387419E-18
6.523951E+03	3.155398E-16	6.401310E-18
6.533927E+03	3.155923E-16	6.415626E-18
6.543902E+03	3.154636E-16	6.427108E-18
6.553877E+03	3.152400E-16	6.437477E-18
6.563853E+03	3.150076E-16	6.448458E-18
6.573828E+03	3.146076E-16	6.456767E-18
6.583804E+03	3.141260E-16	6.464124E-18
6.593779E+03	3.135668E-16	6.470575E-18
6.603755E+03	3.130154E-16	6.477850E-18
6.613730E+03	3.123134E-16	6.482639E-18
6.623706E+03	3.115462E-16	6.486664E-18
6.633681E+03	3.107178E-16	6.489971E-18
6.643657E+03	3.098321E-16	6.492606E-18
6.653632E+03	3.088930E-16	6.494612E-18
6.663608E+03	3.079044E-16	6.496037E-18
6.673583E+03	3.068699E-16	6.496922E-18
6.683558E+03	3.057935E-16	6.497312E-18
6.693534E+03	3.046786E-16	6.497251E-18
6.703509E+03	3.035289E-16	6.496783E-18
6.713485E+03	3.023479E-16	6.495949E-18
6.723460E+03	3.011389E-16	6.494790E-18
6.733436E+03	2.999051E-16	6.493347E-18
6.743411E+03	2.986498E-16	6.491659E-18
6.753387E+03	2.973758E-16	6.489764E-18
6.763362E+03	2.960093E-16	6.486016E-18
6.773338E+03	2.947068E-16	6.483812E-18
6.783313E+03	2.933938E-16	6.481502E-18
6.793289E+03	2.919968E-16	6.477436E-18
6.803264E+03	2.906699E-16	6.475001E-18
6.813239E+03	2.893390E-16	6.472542E-18
6.823215E+03	2.879314E-16	6.468403E-18
6.833190E+03	2.865982E-16	6.465959E-18
6.843166E+03	2.852660E-16	6.463546E-18
6.853141E+03	2.838624E-16	6.459503E-18
6.863117E+03	2.825362E-16	6.457192E-18
6.873092E+03	2.811413E-16	6.453268E-18
6.883068E+03	2.798246E-16	6.451085E-18
6.893043E+03	2.784412E-16	6.447294E-18
6.903019E+03	2.770644E-16	6.443566E-18
6.912994E+03	2.757659E-16	6.441566E-18
6.922969E+03	2.744023E-16	6.437943E-18
6.932945E+03	2.730455E-16	6.434354E-18
6.942920E+03	2.717656E-16	6.432454E-18
6.952896E+03	2.704209E-16	6.428884E-18
6.962871E+03	2.690817E-16	6.425293E-18
6.972847E+03	2.678169E-16	6.423326E-18
6.982822E+03	2.664862E-16	6.419618E-18
6.992798E+03	2.651587E-16	6.415809E-18
7.002773E+03	2.638334E-16	6.411868E-18
7.012749E+03	2.625093E-16	6.407762E-18
7.022724E+03	2.611851E-16	6.403456E-18
7.032700E+03	2.598597E-16	6.398912E-18
7.042675E+03	2.585320E-16	6.394095E-18
7.052650E+03	2.572005E-16	6.388964E-18
7.062626E+03	2.558640E-16	6.383479E-18
7.072601E+03	2.545212E-16	6.377600E-18
7.082577E+03	2.531707E-16	6.371286E-18
7.092552E+03	2.518112E-16	6.364497E-18
7.102528E+03	2.504414E-16	6.357191E-18
7.112503E+03	2.490602E-16	6.349331E-18
7.122479E+03	2.476660E-16	6.340873E-18
7.132454E+03	2.462580E-16	6.331783E-18
7.142430E+03	2.447710E-16	6.320373E-18
7.152405E+03	2.433321E-16	6.309909E-18
7.162381E+03	2.418761E-16	6.298707E-18
7.172356E+03	2.404022E-16	6.286735E-18
7.182331E+03	2.388470E-16	6.272325E-18
7.192307E+03	2.373352E-16	6.258732E-18
7.202282E+03	2.358034E-16	6.244291E-18
7.212258E+03	2.341899E-16	6.227352E-18
7.222233E+03	2.326171E-16	6.211160E-18
7.232209E+03	2.310234E-16	6.194069E-18
7.242184E+03	2.293484E-16	6.174450E-18
7.252160E+03	2.277127E-16	6.155536E-18
7.262135E+03	2.259969E-16	6.134093E-18
7.272111E+03	2.243201E-16	6.113344E-18
7.282086E+03	2.225646E-16	6.090082E-18
7.292062E+03	2.208481E-16	6.067514E-18
7.302037E+03	2.190551E-16	6.042464E-18
7.312012E+03	2.172445E-16	6.016545E-18
7.321988E+03	2.154740E-16	5.991349E-18
7.331963E+03	2.136309E-16	5.963745E-18
7.341939E+03	2.117733E-16	5.935340E-18
7.351914E+03	2.099575E-16	5.907716E-18
7.361890E+03	2.080740E-16	5.877788E-18
7.371865E+03	2.061796E-16	5.847154E-18
7.381841E+03	2.042759E-16	5.815850E-18
7.391816E+03	2.024177E-16	5.785440E-18
7.401792E+03	2.004991E-16	5.752907E-18
7.411767E+03	1.985756E-16	5.719827E-18
7.421743E+03	1.966486E-16	5.686244E-18
7.431718E+03	1.947199E-16	5.652205E-18
7.441693E+03	1.927910E-16	5.617755E-18
7.451669E+03	1.908633E-16	5.582940E-18
7.461644E+03	1.889385E-16	5.547811E-18
7.471620E+03	1.870181E-16	5.512412E-18
7.481595E+03	1.851037E-16	5.476794E-18
7.491571E+03	1.831965E-16	5.441000E-18
7.501546E+03	1.812983E-16	5.405080E-18
7.511522E+03	1.794103E-16	5.369080E-18
7.521497E+03	1.775338E-16	5.333042E-18
7.531473E+03	1.756702E-16	5.297012E-18
7.541448E+03	1.738206E-16	5.261032E-18
7.551423E+03	1.719863E-16	5.225143E-18
7.561399E+03	1.701681E-16	5.189383E-18
7.571374E+03	1.683225E-16	5.152421E-18
7.581350E+03	1.665404E-16	5.117042E-18
7.591325E+03	1.647774E-16	5.081901E-18
7.601301E+03	1.630343E-16	5.047031E-18
7.611276E+03	1.612688E-16	5.011123E-18
7.621252E+03	1.595680E-16	4.976891E-18
7.631227E+03	1.578891E-16	4.943015E-18
7.641203E+03	1.562326E-16	4.909519E-18
7.651178E+03	1.545576E-16	4.875123E-18
7.661154E+03	1.529475E-16	4.842462E-18
7.671129E+03	1.513205E-16	4.808958E-18
7.681104E+03	1.497583E-16	4.777211E-18
7.691080E+03	1.482200E-16	4.745941E-18
7.701055E+03	1.466667E-16	4.713899E-18
7.711031E+03	1.451774E-16	4.683633E-18
7.721006E+03	1.436739E-16	4.652636E-18
7.730982E+03	1.422339E-16	4.623423E-18
7.740957E+03	1.407804E-16	4.593511E-18
