#wls	flux	fluxerr
1.600000E+03	7.892814E-18	8.944523E-18
1.640000E+03	7.678803E-18	8.658285E-18
1.680000E+03	7.464776E-18	8.373811E-18
1.720000E+03	7.250658E-18	8.091270E-18
1.760000E+03	7.037549E-18	7.812101E-18
1.800000E+03	6.823914E-18	7.534765E-18
1.840000E+03	6.609472E-18	7.259089E-18
1.880000E+03	6.394977E-18	6.985986E-18
1.920000E+03	6.180944E-18	6.716039E-18
1.960000E+03	5.964602E-18	6.446218E-18
2.000000E+03	5.747397E-18	6.178054E-18
2.040000E+03	5.527629E-18	5.909647E-18
2.080000E+03	5.306455E-18	5.642164E-18
2.120000E+03	5.081389E-18	5.372888E-18
2.160000E+03	4.853601E-18	5.103022E-18
2.200000E+03	4.622578E-18	4.832006E-18
2.240000E+03	4.388028E-18	4.559561E-18
2.280000E+03	4.149943E-18	4.285746E-18
2.320000E+03	3.909246E-18	4.011613E-18
2.360000E+03	3.667030E-18	3.738392E-18
2.400000E+03	3.423535E-18	3.466435E-18
2.440000E+03	3.180961E-18	3.198068E-18
2.480000E+03	2.940187E-18	2.934220E-18
2.520000E+03	2.703698E-18	2.677377E-18
2.560000E+03	2.472787E-18	2.428758E-18
2.600000E+03	2.250245E-18	2.190994E-18
2.640000E+03	2.037310E-18	1.965116E-18
2.680000E+03	1.835752E-18	1.752638E-18
2.720000E+03	1.647245E-18	1.554935E-18
2.760000E+03	1.472426E-18	1.372379E-18
2.800000E+03	1.312421E-18	1.205787E-18
2.840000E+03	1.167360E-18	1.055035E-18
2.880000E+03	1.037363E-18	9.199844E-19
2.920000E+03	9.219731E-19	7.999603E-19
2.960000E+03	8.208413E-19	6.943580E-19
3.000000E+03	7.331951E-19	6.021686E-19
3.010000E+03	7.132620E-19	5.810641E-19
3.020000E+03	6.941525E-19	5.607494E-19
3.030000E+03	6.758474E-19	5.412008E-19
3.040000E+03	6.581908E-19	5.222861E-19
3.050000E+03	6.413776E-19	5.041528E-19
3.060000E+03	6.252552E-19	4.866714E-19
3.070000E+03	6.098134E-19	4.698261E-19
3.080000E+03	5.951620E-19	4.536924E-19
3.090000E+03	5.811635E-19	4.381552E-19
3.100000E+03	5.678093E-19	4.231989E-19
3.110000E+03	5.551452E-19	4.088481E-19
3.120000E+03	5.432112E-19	3.951206E-19
3.130000E+03	5.318370E-19	3.818810E-19
3.140000E+03	5.211705E-19	3.692249E-19
3.150000E+03	5.111491E-19	3.570947E-19
3.160000E+03	5.017178E-19	3.454392E-19
3.170000E+03	4.929649E-19	3.343062E-19
3.180000E+03	4.847918E-19	3.236142E-19
3.190000E+03	4.772849E-19	3.134066E-19
3.200000E+03	4.703536E-19	3.036078E-19
3.210000E+03	4.640829E-19	2.942568E-19
3.220000E+03	4.584307E-19	2.853087E-19
3.230000E+03	4.534000E-19	2.767473E-19
3.240000E+03	4.489963E-19	2.685568E-19
3.250000E+03	4.452655E-19	2.607438E-19
3.260000E+03	4.421408E-19	2.532471E-19
3.270000E+03	4.397481E-19	2.461160E-19
3.280000E+03	4.379915E-19	2.392706E-19
3.290000E+03	4.370001E-19	2.327553E-19
3.300000E+03	4.366888E-19	2.264950E-19
3.310000E+03	4.371925E-19	2.205293E-19
3.320000E+03	4.384728E-19	2.148040E-19
3.330000E+03	4.405685E-19	2.093026E-19
3.340000E+03	4.435589E-19	2.040235E-19
3.350000E+03	4.475298E-19	1.989620E-19
3.360000E+03	4.524376E-19	1.940512E-19
3.370000E+03	4.584544E-19	1.893142E-19
3.380000E+03	4.656251E-19	1.847114E-19
3.390000E+03	4.740412E-19	1.802161E-19
3.400000E+03	4.838076E-19	1.757985E-19
3.410000E+03	4.950455E-19	1.714255E-19
3.420000E+03	5.078937E-19	1.670596E-19
3.430000E+03	5.225124E-19	1.626579E-19
3.440000E+03	5.391232E-19	1.581817E-19
3.450000E+03	5.579026E-19	1.535616E-19
3.460000E+03	5.791350E-19	1.487403E-19
3.470000E+03	6.030666E-19	1.436271E-19
3.480000E+03	6.300241E-19	1.381276E-19
3.490000E+03	6.604278E-19	1.321379E-19
3.500000E+03	6.947177E-19	1.255216E-19
3.510000E+03	7.334000E-19	1.181151E-19
3.520000E+03	7.770070E-19	1.097147E-19
3.530000E+03	8.262953E-19	1.000988E-19
3.540000E+03	8.819108E-19	8.897304E-20
3.550000E+03	9.447303E-19	7.601645E-20
3.560000E+03	1.015713E-18	6.087658E-20
3.570000E+03	1.095686E-18	4.327473E-20
3.580000E+03	1.185720E-18	2.390069E-20
3.590000E+03	1.286636E-18	1.617679E-20
3.600000E+03	1.399686E-18	3.949809E-20
3.610000E+03	1.526879E-18	7.186765E-20
3.620000E+03	1.670701E-18	1.095355E-19
3.630000E+03	1.833724E-18	1.526750E-19
3.640000E+03	2.018895E-18	2.019783E-19
3.650000E+03	2.229741E-18	2.583695E-19
3.660000E+03	2.469772E-18	3.228794E-19
3.670000E+03	2.743442E-18	3.967345E-19
3.680000E+03	3.055232E-18	4.812362E-19
3.690000E+03	3.410630E-18	5.778875E-19
3.700000E+03	3.815865E-18	6.883627E-19
3.710000E+03	4.277375E-18	8.143992E-19
3.720000E+03	4.803177E-18	9.580337E-19
3.730000E+03	5.401603E-18	1.121359E-18
3.740000E+03	6.082411E-18	1.306722E-18
3.750000E+03	6.855871E-18	1.516518E-18
3.760000E+03	7.733542E-18	1.753329E-18
3.770000E+03	8.728457E-18	2.019949E-18
3.780000E+03	9.854476E-18	2.319221E-18
3.790000E+03	1.112607E-17	2.653953E-18
3.800000E+03	1.256012E-17	3.027334E-18
3.810000E+03	1.417249E-17	3.442103E-18
3.820000E+03	1.598129E-17	3.901331E-18
3.830000E+03	1.800464E-17	4.407905E-18
3.840000E+03	2.026091E-17	4.964596E-18
3.850000E+03	2.276826E-17	5.574007E-18
3.860000E+03	2.554420E-17	6.238522E-18
3.870000E+03	2.860503E-17	6.960243E-18
3.880000E+03	3.196520E-17	7.740912E-18
3.890000E+03	3.563791E-17	8.582148E-18
3.900000E+03	3.962915E-17	9.484076E-18
3.910000E+03	4.394612E-17	1.044742E-17
3.920000E+03	4.858875E-17	1.147145E-17
3.930000E+03	5.354758E-17	1.255355E-17
3.940000E+03	5.881391E-17	1.369148E-17
3.950000E+03	6.436697E-17	1.488033E-17
3.960000E+03	7.018314E-17	1.611456E-17
3.970000E+03	7.622491E-17	1.738530E-17
3.980000E+03	8.246013E-17	1.868474E-17
3.990000E+03	8.883517E-17	1.999985E-17
4.000000E+03	9.530098E-17	2.131836E-17
4.010000E+03	1.018046E-16	2.262676E-17
4.020000E+03	1.082838E-16	2.390917E-17
4.030000E+03	1.146774E-16	2.514977E-17
4.040000E+03	1.209245E-16	2.633265E-17
4.050000E+03	1.269662E-16	2.744230E-17
4.060000E+03	1.327440E-16	2.846339E-17
4.070000E+03	1.382170E-16	2.938452E-17
4.080000E+03	1.433370E-16	3.019290E-17
4.090000E+03	1.480765E-16	3.088056E-17
4.100000E+03	1.524106E-16	3.144031E-17
4.110000E+03	1.563295E-16	3.186845E-17
4.120000E+03	1.598384E-16	3.216472E-17
4.130000E+03	1.629406E-16	3.232873E-17
4.140000E+03	1.656621E-16	3.236487E-17
4.150000E+03	1.680338E-16	3.227852E-17
4.160000E+03	1.700942E-16	3.207651E-17
4.170000E+03	1.718801E-16	3.176503E-17
4.180000E+03	1.734504E-16	3.135402E-17
4.190000E+03	1.748502E-16	3.085016E-17
4.200000E+03	1.761389E-16	3.026191E-17
4.210000E+03	1.773668E-16	2.959508E-17
4.220000E+03	1.785862E-16	2.885470E-17
4.230000E+03	1.798448E-16	2.804380E-17
4.240000E+03	1.811841E-16	2.716314E-17
4.250000E+03	1.826294E-16	2.620992E-17
4.260000E+03	1.842097E-16	2.518080E-17
4.270000E+03	1.859395E-16	2.406954E-17
4.280000E+03	1.878193E-16	2.286746E-17
4.290000E+03	1.898391E-16	2.156470E-17
4.300000E+03	1.919909E-16	2.015235E-17
4.310000E+03	1.942376E-16	1.862020E-17
4.320000E+03	1.965501E-16	1.696286E-17
4.330000E+03	1.988853E-16	1.518053E-17
4.340000E+03	2.012045E-16	1.328654E-17
4.350000E+03	2.034561E-16	1.131770E-17
4.360000E+03	2.056039E-16	9.362576E-18
4.370000E+03	2.076066E-16	7.620867E-18
4.380000E+03	2.094459E-16	6.508748E-18
4.390000E+03	2.111102E-16	6.581959E-18
4.400000E+03	2.126223E-16	7.830945E-18
4.410000E+03	2.140144E-16	9.708714E-18
4.420000E+03	2.153502E-16	1.181543E-17
4.430000E+03	2.166879E-16	1.395529E-17
4.440000E+03	2.180869E-16	1.603709E-17
4.450000E+03	2.196110E-16	1.801793E-17
4.460000E+03	2.213046E-16	1.987683E-17
4.470000E+03	2.232139E-16	2.160508E-17
4.480000E+03	2.253648E-16	2.319877E-17
4.490000E+03	2.277774E-16	2.465673E-17
4.500000E+03	2.304457E-16	2.597633E-17
4.510000E+03	2.333602E-16	2.715453E-17
4.520000E+03	2.364878E-16	2.818484E-17
4.530000E+03	2.397834E-16	2.905815E-17
4.540000E+03	2.431868E-16	2.976219E-17
4.550000E+03	2.466231E-16	3.028182E-17
4.560000E+03	2.500015E-16	3.059920E-17
4.570000E+03	2.532305E-16	3.069624E-17
4.580000E+03	2.562069E-16	3.055399E-17
4.590000E+03	2.588339E-16	3.015553E-17
4.600000E+03	2.610236E-16	2.948709E-17
4.610000E+03	2.627044E-16	2.853947E-17
4.620000E+03	2.638267E-16	2.730927E-17
4.630000E+03	2.643634E-16	2.579945E-17
4.640000E+03	2.643279E-16	2.402166E-17
4.650000E+03	2.637450E-16	2.199415E-17
4.660000E+03	2.626713E-16	1.974569E-17
4.670000E+03	2.611887E-16	1.731871E-17
4.680000E+03	2.593723E-16	1.477634E-17
4.690000E+03	2.573046E-16	1.222619E-17
4.700000E+03	2.550618E-16	9.873652E-18
4.710000E+03	2.526967E-16	8.130814E-18
4.720000E+03	2.502316E-16	7.648025E-18
4.730000E+03	2.477202E-16	8.672534E-18
4.740000E+03	2.452695E-16	1.061918E-17
4.750000E+03	2.429712E-16	1.293259E-17
4.760000E+03	2.408794E-16	1.533395E-17
4.770000E+03	2.390210E-16	1.770179E-17
4.780000E+03	2.374057E-16	1.998447E-17
4.790000E+03	2.360191E-16	2.216041E-17
4.800000E+03	2.348563E-16	2.422405E-17
4.810000E+03	2.338934E-16	2.617555E-17
4.820000E+03	2.331149E-16	2.801948E-17
4.830000E+03	2.325175E-16	2.976356E-17
4.840000E+03	2.320952E-16	3.141586E-17
4.850000E+03	2.318537E-16	3.298600E-17
4.860000E+03	2.318073E-16	3.448453E-17
4.870000E+03	2.319836E-16	3.592379E-17
4.880000E+03	2.324030E-16	3.731469E-17
4.890000E+03	2.330984E-16	3.866976E-17
4.900000E+03	2.340995E-16	4.000080E-17
4.910000E+03	2.354363E-16	4.131935E-17
4.920000E+03	2.371289E-16	4.263502E-17
4.930000E+03	2.391851E-16	4.395479E-17
4.940000E+03	2.416100E-16	4.528473E-17
4.950000E+03	2.443809E-16	4.662528E-17
4.960000E+03	2.474719E-16	4.797570E-17
4.970000E+03	2.508336E-16	4.933014E-17
4.980000E+03	2.544000E-16	5.067888E-17
4.990000E+03	2.580875E-16	5.200795E-17
5.000000E+03	2.618115E-16	5.330252E-17
5.010000E+03	2.654713E-16	5.454371E-17
5.020000E+03	2.689731E-16	5.571323E-17
5.030000E+03	2.722225E-16	5.679185E-17
5.040000E+03	2.751452E-16	5.776366E-17
5.050000E+03	2.776818E-16	5.861515E-17
5.060000E+03	2.797952E-16	5.933678E-17
5.070000E+03	2.814723E-16	5.992362E-17
5.080000E+03	2.827238E-16	6.037542E-17
5.090000E+03	2.835846E-16	6.069700E-17
5.100000E+03	2.841026E-16	6.089597E-17
5.110000E+03	2.843327E-16	6.098162E-17
5.120000E+03	2.843387E-16	6.096542E-17
5.130000E+03	2.841878E-16	6.085985E-17
5.140000E+03	2.839386E-16	6.067583E-17
5.150000E+03	2.836414E-16	6.042277E-17
5.160000E+03	2.833360E-16	6.010806E-17
5.170000E+03	2.830477E-16	5.973607E-17
5.180000E+03	2.827983E-16	5.931052E-17
5.190000E+03	2.825962E-16	5.883233E-17
5.200000E+03	2.824388E-16	5.829998E-17
5.210000E+03	2.823279E-16	5.771287E-17
5.220000E+03	2.822470E-16	5.706649E-17
5.230000E+03	2.821841E-16	5.635719E-17
5.240000E+03	2.821297E-16	5.558164E-17
5.250000E+03	2.820699E-16	5.473550E-17
5.260000E+03	2.819873E-16	5.381356E-17
5.270000E+03	2.818680E-16	5.281109E-17
5.280000E+03	2.816981E-16	5.172310E-17
5.290000E+03	2.814667E-16	5.054494E-17
5.300000E+03	2.811521E-16	4.926969E-17
5.310000E+03	2.807427E-16	4.789215E-17
5.320000E+03	2.802237E-16	4.640634E-17
5.330000E+03	2.795809E-16	4.480645E-17
5.340000E+03	2.787990E-16	4.308651E-17
5.350000E+03	2.778696E-16	4.124196E-17
5.360000E+03	2.767936E-16	3.926978E-17
5.370000E+03	2.755686E-16	3.716683E-17
5.380000E+03	2.742156E-16	3.493354E-17
5.390000E+03	2.727554E-16	3.257064E-17
5.400000E+03	2.712203E-16	3.008094E-17
5.410000E+03	2.696607E-16	2.747029E-17
5.420000E+03	2.681306E-16	2.474673E-17
5.430000E+03	2.666990E-16	2.192345E-17
5.440000E+03	2.654331E-16	1.902121E-17
5.450000E+03	2.644071E-16	1.607832E-17
5.460000E+03	2.636832E-16	1.317156E-17
5.470000E+03	2.633173E-16	1.047381E-17
5.480000E+03	2.633350E-16	8.388283E-18
5.490000E+03	2.637474E-16	7.677250E-18
5.500000E+03	2.645290E-16	8.804195E-18
5.510000E+03	2.656250E-16	1.113397E-17
5.520000E+03	2.669522E-16	1.397350E-17
5.530000E+03	2.684062E-16	1.697732E-17
5.540000E+03	2.698459E-16	1.998678E-17
5.550000E+03	2.711402E-16	2.291981E-17
5.560000E+03	2.721448E-16	2.572408E-17
5.570000E+03	2.727246E-16	2.836100E-17
5.580000E+03	2.727731E-16	3.080086E-17
5.590000E+03	2.722020E-16	3.301940E-17
5.600000E+03	2.709498E-16	3.499783E-17
5.610000E+03	2.689910E-16	3.672397E-17
5.620000E+03	2.663399E-16	3.819334E-17
5.630000E+03	2.630279E-16	3.940649E-17
5.640000E+03	2.591273E-16	4.037261E-17
5.650000E+03	2.547261E-16	4.110620E-17
5.660000E+03	2.499267E-16	4.162672E-17
5.670000E+03	2.448497E-16	4.195924E-17
5.680000E+03	2.396199E-16	4.213182E-17
5.690000E+03	2.343648E-16	4.217491E-17
5.700000E+03	2.292142E-16	4.212084E-17
5.710000E+03	2.242879E-16	4.200122E-17
5.720000E+03	2.197052E-16	4.184810E-17
5.730000E+03	2.155744E-16	4.169161E-17
5.740000E+03	2.119911E-16	4.155932E-17
5.750000E+03	2.090481E-16	4.147776E-17
5.760000E+03	2.068180E-16	4.146889E-17
5.770000E+03	2.053637E-16	4.155180E-17
5.780000E+03	2.047370E-16	4.174246E-17
5.790000E+03	2.049700E-16	4.205182E-17
5.800000E+03	2.060820E-16	4.248706E-17
5.810000E+03	2.080775E-16	4.305128E-17
5.820000E+03	2.109398E-16	4.374200E-17
5.830000E+03	2.146310E-16	4.455127E-17
5.840000E+03	2.190876E-16	4.546472E-17
5.850000E+03	2.242295E-16	4.646359E-17
5.860000E+03	2.299401E-16	4.752064E-17
5.870000E+03	2.360829E-16	4.860392E-17
5.880000E+03	2.425049E-16	4.967758E-17
5.890000E+03	2.490221E-16	5.069939E-17
5.900000E+03	2.554474E-16	5.162671E-17
5.910000E+03	2.615866E-16	5.241606E-17
5.920000E+03	2.672468E-16	5.302541E-17
5.930000E+03	2.722607E-16	5.341914E-17
5.940000E+03	2.764682E-16	5.356483E-17
5.950000E+03	2.797593E-16	5.344179E-17
5.960000E+03	2.820567E-16	5.303746E-17
5.970000E+03	2.833221E-16	5.234862E-17
5.980000E+03	2.835657E-16	5.138249E-17
5.990000E+03	2.828434E-16	5.015581E-17
6.000000E+03	2.812391E-16	4.869064E-17
6.010000E+03	2.788825E-16	4.701693E-17
6.020000E+03	2.759162E-16	4.516570E-17
6.030000E+03	2.724970E-16	4.316865E-17
6.040000E+03	2.687942E-16	4.105704E-17
6.050000E+03	2.649696E-16	3.885798E-17
6.060000E+03	2.611740E-16	3.659350E-17
6.070000E+03	2.575381E-16	3.427921E-17
6.080000E+03	2.541751E-16	3.192490E-17
6.090000E+03	2.511777E-16	2.953461E-17
6.100000E+03	2.486072E-16	2.710618E-17
6.110000E+03	2.465031E-16	2.463403E-17
6.120000E+03	2.448794E-16	2.211100E-17
6.130000E+03	2.437258E-16	1.953211E-17
6.140000E+03	2.430079E-16	1.690088E-17
6.150000E+03	2.426689E-16	1.424166E-17
6.160000E+03	2.426304E-16	1.162666E-17
6.170000E+03	2.427921E-16	9.241492E-18
6.180000E+03	2.430440E-16	7.526651E-18
6.190000E+03	2.432606E-16	7.220485E-18
6.200000E+03	2.433427E-16	8.532139E-18
6.210000E+03	2.432525E-16	1.076501E-17
6.220000E+03	2.429483E-16	1.333736E-17
6.230000E+03	2.423932E-16	1.597057E-17
6.240000E+03	2.415458E-16	1.853640E-17
6.250000E+03	2.403763E-16	2.097093E-17
6.260000E+03	2.388591E-16	2.323930E-17
6.270000E+03	2.369916E-16	2.532345E-17
6.280000E+03	2.347868E-16	2.721564E-17
6.290000E+03	2.322901E-16	2.891763E-17
6.300000E+03	2.295687E-16	3.043847E-17
6.310000E+03	2.267227E-16	3.179545E-17
6.320000E+03	2.238689E-16	3.301175E-17
6.330000E+03	2.211462E-16	3.411707E-17
6.340000E+03	2.186949E-16	3.514433E-17
6.350000E+03	2.166602E-16	3.612974E-17
6.360000E+03	2.151741E-16	3.710950E-17
6.370000E+03	2.143514E-16	3.811832E-17
6.380000E+03	2.142803E-16	3.918712E-17
6.390000E+03	2.150268E-16	4.034304E-17
6.400000E+03	2.166252E-16	4.160711E-17
6.410000E+03	2.190667E-16	4.299128E-17
6.420000E+03	2.223151E-16	4.450086E-17
6.430000E+03	2.262978E-16	4.613224E-17
6.440000E+03	2.308998E-16	4.787119E-17
6.450000E+03	2.359759E-16	4.969486E-17
6.460000E+03	2.413562E-16	5.157276E-17
6.470000E+03	2.468451E-16	5.346625E-17
6.480000E+03	2.522457E-16	5.533392E-17
6.490000E+03	2.573642E-16	5.713262E-17
6.500000E+03	2.620246E-16	5.882103E-17
6.510000E+03	2.660974E-16	6.036674E-17
6.520000E+03	2.694898E-16	6.174453E-17
6.530000E+03	2.721666E-16	6.294198E-17
6.540000E+03	2.741484E-16	6.395957E-17
6.550000E+03	2.755101E-16	6.481105E-17
6.560000E+03	2.763586E-16	6.551867E-17
6.570000E+03	2.768383E-16	6.611465E-17
6.580000E+03	2.770869E-16	6.663082E-17
6.590000E+03	2.772469E-16	6.710116E-17
6.600000E+03	2.774351E-16	6.755443E-17
6.610000E+03	2.777399E-16	6.801309E-17
6.620000E+03	2.782021E-16	6.848832E-17
6.630000E+03	2.788277E-16	6.898295E-17
6.640000E+03	2.795779E-16	6.948860E-17
6.650000E+03	2.803732E-16	6.998668E-17
6.660000E+03	2.811143E-16	7.045331E-17
6.670000E+03	2.816840E-16	7.085978E-17
6.680000E+03	2.819505E-16	7.117332E-17
6.690000E+03	2.817906E-16	7.136299E-17
6.700000E+03	2.811002E-16	7.140231E-17
6.710000E+03	2.797937E-16	7.126919E-17
6.720000E+03	2.778091E-16	7.094734E-17
6.730000E+03	2.751270E-16	7.043113E-17
6.740000E+03	2.717413E-16	6.971831E-17
6.750000E+03	2.676898E-16	6.881793E-17
6.760000E+03	2.630220E-16	6.774229E-17
6.770000E+03	2.578120E-16	6.651015E-17
6.780000E+03	2.521532E-16	6.514573E-17
6.790000E+03	2.461437E-16	6.367471E-17
6.800000E+03	2.398975E-16	6.212722E-17
6.810000E+03	2.335295E-16	6.053401E-17
6.820000E+03	2.271569E-16	5.892648E-17
6.830000E+03	2.208922E-16	5.733504E-17
6.840000E+03	2.148518E-16	5.579095E-17
6.850000E+03	2.091459E-16	5.432382E-17
6.860000E+03	2.038676E-16	5.295864E-17
6.870000E+03	1.991142E-16	5.172120E-17
6.880000E+03	1.949639E-16	5.063207E-17
6.890000E+03	1.914881E-16	4.970976E-17
6.900000E+03	1.887476E-16	4.896978E-17
6.910000E+03	1.867928E-16	4.842465E-17
6.920000E+03	1.856664E-16	4.808455E-17
6.930000E+03	1.853936E-16	4.795499E-17
6.940000E+03	1.859906E-16	4.803875E-17
6.950000E+03	1.874622E-16	4.833552E-17
6.960000E+03	1.897914E-16	4.883915E-17
6.970000E+03	1.929455E-16	4.953927E-17
6.980000E+03	1.968704E-16	5.041999E-17
6.990000E+03	2.014917E-16	5.146020E-17
7.000000E+03	2.067013E-16	5.263028E-17
7.010000E+03	2.123798E-16	5.389797E-17
7.020000E+03	2.183782E-16	5.522371E-17
7.030000E+03	2.245355E-16	5.656538E-17
7.040000E+03	2.306852E-16	5.787974E-17
7.050000E+03	2.366644E-16	5.912498E-17
7.060000E+03	2.423251E-16	6.026336E-17
7.070000E+03	2.475437E-16	6.126358E-17
7.080000E+03	2.522236E-16	6.210147E-17
7.090000E+03	2.563109E-16	6.276374E-17
7.100000E+03	2.597785E-16	6.324395E-17
7.110000E+03	2.626389E-16	6.354558E-17
7.120000E+03	2.649221E-16	6.367651E-17
7.130000E+03	2.666861E-16	6.365135E-17
7.140000E+03	2.679895E-16	6.348473E-17
7.150000E+03	2.689158E-16	6.319688E-17
7.160000E+03	2.695357E-16	6.280455E-17
7.170000E+03	2.699383E-16	6.232825E-17
7.180000E+03	2.701909E-16	6.178272E-17
7.190000E+03	2.703802E-16	6.118651E-17
7.200000E+03	2.705804E-16	6.055453E-17
7.210000E+03	2.708556E-16	5.989862E-17
7.220000E+03	2.712655E-16	5.922883E-17
7.230000E+03	2.718537E-16	5.855088E-17
7.240000E+03	2.726615E-16	5.786923E-17
7.250000E+03	2.736951E-16	5.717998E-17
7.260000E+03	2.749527E-16	5.647715E-17
7.270000E+03	2.764018E-16	5.574789E-17
7.280000E+03	2.779908E-16	5.497555E-17
7.290000E+03	2.796457E-16	5.413925E-17
7.300000E+03	2.812712E-16	5.321484E-17
7.310000E+03	2.827544E-16	5.217606E-17
7.320000E+03	2.839645E-16	5.099529E-17
7.330000E+03	2.847730E-16	4.964781E-17
7.340000E+03	2.850431E-16	4.811046E-17
7.350000E+03	2.846570E-16	4.636681E-17
7.360000E+03	2.835022E-16	4.440506E-17
7.370000E+03	2.815132E-16	4.222466E-17
7.380000E+03	2.786426E-16	3.983124E-17
7.390000E+03	2.749026E-16	3.724215E-17
7.400000E+03	2.703316E-16	3.448036E-17
7.410000E+03	2.650233E-16	3.157738E-17
7.420000E+03	2.590994E-16	2.856830E-17
7.430000E+03	2.527180E-16	2.549183E-17
7.440000E+03	2.460496E-16	2.238713E-17
7.450000E+03	2.392654E-16	1.929384E-17
7.460000E+03	2.325329E-16	1.625519E-17
7.470000E+03	2.260037E-16	1.332599E-17
7.480000E+03	2.197943E-16	1.059367E-17
7.490000E+03	2.139733E-16	8.232567E-18
7.500000E+03	2.085779E-16	6.611997E-18
7.510000E+03	2.035724E-16	6.276720E-18
7.520000E+03	1.989667E-16	7.251042E-18
7.530000E+03	1.948209E-16	8.906164E-18
7.540000E+03	1.911480E-16	1.078097E-17
7.550000E+03	1.879286E-16	1.267355E-17
7.560000E+03	1.851261E-16	1.450522E-17
7.570000E+03	1.826925E-16	1.624666E-17
7.580000E+03	1.805814E-16	1.788910E-17
7.590000E+03	1.787497E-16	1.943270E-17
7.600000E+03	1.771667E-16	2.088244E-17
7.610000E+03	1.758175E-16	2.224664E-17
7.620000E+03	1.746851E-16	2.353389E-17
7.630000E+03	1.737719E-16	2.475531E-17
7.640000E+03	1.730750E-16	2.592111E-17
7.650000E+03	1.726037E-16	2.704284E-17
7.660000E+03	1.723659E-16	2.813144E-17
7.670000E+03	1.723687E-16	2.919707E-17
7.680000E+03	1.726155E-16	3.024869E-17
7.690000E+03	1.731045E-16	3.129356E-17
7.700000E+03	1.738263E-16	3.233674E-17
7.710000E+03	1.747626E-16	3.338074E-17
7.720000E+03	1.758846E-16	3.442516E-17
7.730000E+03	1.771531E-16	3.546650E-17
7.740000E+03	1.785178E-16	3.649812E-17
7.750000E+03	1.799223E-16	3.751099E-17
7.760000E+03	1.812929E-16	3.849149E-17
