#wls	flux	fluxerr
1.600000E+03	8.447416E-18	9.471633E-18
1.640000E+03	8.224838E-18	9.167699E-18
1.680000E+03	8.003828E-18	8.867685E-18
1.720000E+03	7.784372E-18	8.571893E-18
1.760000E+03	7.566374E-18	8.280488E-18
1.800000E+03	7.350938E-18	7.994894E-18
1.840000E+03	7.136367E-18	7.713409E-18
1.880000E+03	6.924673E-18	7.438286E-18
1.920000E+03	6.712716E-18	7.166156E-18
1.960000E+03	6.500983E-18	6.897503E-18
2.000000E+03	6.289687E-18	6.632453E-18
2.040000E+03	6.077758E-18	6.369727E-18
2.080000E+03	5.863094E-18	6.106974E-18
2.120000E+03	5.646623E-18	5.845024E-18
2.160000E+03	5.427170E-18	5.582537E-18
2.200000E+03	5.202832E-18	5.317498E-18
2.240000E+03	4.974517E-18	5.050845E-18
2.280000E+03	4.740750E-18	4.781152E-18
2.320000E+03	4.502017E-18	4.509057E-18
2.360000E+03	4.259027E-18	4.235449E-18
2.400000E+03	4.011516E-18	3.960266E-18
2.440000E+03	3.762170E-18	3.686344E-18
2.480000E+03	3.510957E-18	3.413776E-18
2.520000E+03	3.260561E-18	3.145232E-18
2.560000E+03	3.013218E-18	2.882822E-18
2.600000E+03	2.770462E-18	2.627875E-18
2.640000E+03	2.535528E-18	2.383237E-18
2.680000E+03	2.310242E-18	2.150332E-18
2.720000E+03	2.096331E-18	1.930443E-18
2.760000E+03	1.896041E-18	1.725315E-18
2.800000E+03	1.710111E-18	1.535293E-18
2.840000E+03	1.539845E-18	1.361250E-18
2.880000E+03	1.385601E-18	1.203212E-18
2.920000E+03	1.247390E-18	1.060897E-18
2.960000E+03	1.125180E-18	9.339693E-19
3.000000E+03	1.018273E-18	8.214874E-19
3.010000E+03	9.939092E-19	7.955536E-19
3.020000E+03	9.704005E-19	7.704080E-19
3.030000E+03	9.478388E-19	7.461162E-19
3.040000E+03	9.262068E-19	7.226555E-19
3.050000E+03	9.053940E-19	6.999309E-19
3.060000E+03	8.855750E-19	6.780682E-19
3.070000E+03	8.664617E-19	6.568365E-19
3.080000E+03	8.483122E-19	6.364228E-19
3.090000E+03	8.310221E-19	6.167361E-19
3.100000E+03	8.144984E-19	5.976961E-19
3.110000E+03	7.988929E-19	5.794028E-19
3.120000E+03	7.840365E-19	5.617197E-19
3.130000E+03	7.700004E-19	5.446856E-19
3.140000E+03	7.568485E-19	5.283306E-19
3.150000E+03	7.444286E-19	5.125328E-19
3.160000E+03	7.328778E-19	4.973714E-19
3.170000E+03	7.221213E-19	4.827774E-19
3.180000E+03	7.121577E-19	4.687323E-19
3.190000E+03	7.029877E-19	4.552179E-19
3.200000E+03	6.946763E-19	4.422558E-19
3.210000E+03	6.871637E-19	4.297854E-19
3.220000E+03	6.804577E-19	4.177893E-19
3.230000E+03	6.746271E-19	4.062855E-19
3.240000E+03	6.696821E-19	3.952525E-19
3.250000E+03	6.655803E-19	3.846370E-19
3.260000E+03	6.623979E-19	3.744531E-19
3.270000E+03	6.601021E-19	3.646501E-19
3.280000E+03	6.587763E-19	3.552396E-19
3.290000E+03	6.584526E-19	3.462008E-19
3.300000E+03	6.591688E-19	3.375124E-19
3.310000E+03	6.609695E-19	3.291528E-19
3.320000E+03	6.639066E-19	3.210998E-19
3.330000E+03	6.680398E-19	3.133301E-19
3.340000E+03	6.734384E-19	3.058193E-19
3.350000E+03	6.802330E-19	2.985641E-19
3.360000E+03	6.884117E-19	2.914906E-19
3.370000E+03	6.981817E-19	2.846129E-19
3.380000E+03	7.096627E-19	2.778955E-19
3.390000E+03	7.229399E-19	2.712798E-19
3.400000E+03	7.381697E-19	2.647245E-19
3.410000E+03	7.555835E-19	2.582009E-19
3.420000E+03	7.753875E-19	2.516533E-19
3.430000E+03	7.977636E-19	2.450016E-19
3.440000E+03	8.230911E-19	2.382065E-19
3.450000E+03	8.515704E-19	2.311497E-19
3.460000E+03	8.836125E-19	2.237485E-19
3.470000E+03	9.196863E-19	2.158995E-19
3.480000E+03	9.602053E-19	2.074489E-19
3.490000E+03	1.005709E-18	1.982330E-19
3.500000E+03	1.056817E-18	1.880581E-19
3.510000E+03	1.114308E-18	1.767065E-19
3.520000E+03	1.178931E-18	1.638975E-19
3.530000E+03	1.251692E-18	1.493305E-19
3.540000E+03	1.333670E-18	1.326581E-19
3.550000E+03	1.426016E-18	1.135212E-19
3.560000E+03	1.530228E-18	9.168115E-20
3.570000E+03	1.648052E-18	6.743112E-20
3.580000E+03	1.781237E-18	4.383806E-20
3.590000E+03	1.932217E-18	3.766257E-20
3.600000E+03	2.103434E-18	6.508971E-20
3.610000E+03	2.297719E-18	1.092461E-19
3.620000E+03	2.518417E-18	1.629388E-19
3.630000E+03	2.769116E-18	2.253367E-19
3.640000E+03	3.054235E-18	2.970165E-19
3.650000E+03	3.378700E-18	3.790289E-19
3.660000E+03	3.748134E-18	4.726926E-19
3.670000E+03	4.168925E-18	5.795284E-19
3.680000E+03	4.648316E-18	7.012345E-19
3.690000E+03	5.194493E-18	8.396717E-19
3.700000E+03	5.816683E-18	9.968517E-19
3.710000E+03	6.525553E-18	1.174976E-18
3.720000E+03	7.332475E-18	1.376269E-18
3.730000E+03	8.250770E-18	1.603155E-18
3.740000E+03	9.294525E-18	1.857984E-18
3.750000E+03	1.048008E-17	2.143259E-18
3.760000E+03	1.182552E-17	2.461481E-18
3.770000E+03	1.334909E-17	2.814733E-18
3.780000E+03	1.507199E-17	3.205206E-18
3.790000E+03	1.701721E-17	3.634877E-18
3.800000E+03	1.920787E-17	4.105111E-18
3.810000E+03	2.166884E-17	4.616967E-18
3.820000E+03	2.442678E-17	5.171210E-18
3.830000E+03	2.750710E-17	5.767707E-18
3.840000E+03	3.093702E-17	6.406186E-18
3.850000E+03	3.474218E-17	7.085679E-18
3.860000E+03	3.894660E-17	7.804793E-18
3.870000E+03	4.357014E-17	8.561533E-18
3.880000E+03	4.863342E-17	9.354691E-18
3.890000E+03	5.414574E-17	1.018192E-17
3.900000E+03	6.011673E-17	1.104245E-17
3.910000E+03	6.654274E-17	1.193492E-17
3.920000E+03	7.341239E-17	1.285860E-17
3.930000E+03	8.070361E-17	1.381294E-17
3.940000E+03	8.838558E-17	1.479762E-17
3.950000E+03	9.641033E-17	1.581063E-17
3.960000E+03	1.047240E-16	1.684957E-17
3.970000E+03	1.132561E-16	1.790913E-17
3.980000E+03	1.219294E-16	1.898228E-17
3.990000E+03	1.306628E-16	2.006023E-17
4.000000E+03	1.393651E-16	2.113145E-17
4.010000E+03	1.479351E-16	2.218188E-17
4.020000E+03	1.562713E-16	2.319658E-17
4.030000E+03	1.642698E-16	2.415977E-17
4.040000E+03	1.718330E-16	2.505614E-17
4.050000E+03	1.788596E-16	2.586958E-17
4.060000E+03	1.852687E-16	2.658665E-17
4.070000E+03	1.909807E-16	2.719384E-17
4.080000E+03	1.959559E-16	2.768311E-17
4.090000E+03	2.001569E-16	2.804659E-17
4.100000E+03	2.035838E-16	2.828179E-17
4.110000E+03	2.062526E-16	2.838860E-17
4.120000E+03	2.081925E-16	2.836921E-17
4.130000E+03	2.094530E-16	2.822911E-17
4.140000E+03	2.101012E-16	2.797674E-17
4.150000E+03	2.101998E-16	2.762051E-17
4.160000E+03	2.098309E-16	2.717172E-17
4.170000E+03	2.090899E-16	2.664333E-17
4.180000E+03	2.080698E-16	2.604757E-17
4.190000E+03	2.068746E-16	2.539716E-17
4.200000E+03	2.056067E-16	2.470342E-17
4.210000E+03	2.043680E-16	2.397615E-17
4.220000E+03	2.032678E-16	2.322439E-17
4.230000E+03	2.023833E-16	2.245197E-17
4.240000E+03	2.017977E-16	2.166205E-17
4.250000E+03	2.015547E-16	2.085242E-17
4.260000E+03	2.016975E-16	2.002000E-17
4.270000E+03	2.022276E-16	1.915688E-17
4.280000E+03	2.031457E-16	1.825460E-17
4.290000E+03	2.044134E-16	1.730050E-17
4.300000E+03	2.059945E-16	1.628161E-17
4.310000E+03	2.078185E-16	1.518177E-17
4.320000E+03	2.098168E-16	1.398593E-17
4.330000E+03	2.119026E-16	1.268156E-17
4.340000E+03	2.139814E-16	1.126633E-17
4.350000E+03	2.159583E-16	9.762429E-18
4.360000E+03	2.177360E-16	8.244310E-18
4.370000E+03	2.192262E-16	6.892032E-18
4.380000E+03	2.203665E-16	6.050400E-18
4.390000E+03	2.211413E-16	6.104104E-18
4.400000E+03	2.215990E-16	7.053715E-18
4.410000E+03	2.218605E-16	8.522246E-18
4.420000E+03	2.220774E-16	1.017137E-17
4.430000E+03	2.223977E-16	1.181843E-17
4.440000E+03	2.229537E-16	1.338098E-17
4.450000E+03	2.238623E-16	1.482813E-17
4.460000E+03	2.252059E-16	1.615370E-17
4.470000E+03	2.270512E-16	1.736415E-17
4.480000E+03	2.294439E-16	1.847100E-17
4.490000E+03	2.324109E-16	1.948670E-17
4.500000E+03	2.359579E-16	2.042156E-17
4.510000E+03	2.400724E-16	2.128225E-17
4.520000E+03	2.447317E-16	2.207157E-17
4.530000E+03	2.498743E-16	2.278550E-17
4.540000E+03	2.554156E-16	2.341475E-17
4.550000E+03	2.612358E-16	2.394437E-17
4.560000E+03	2.671811E-16	2.435468E-17
4.570000E+03	2.730497E-16	2.462121E-17
4.580000E+03	2.786205E-16	2.471843E-17
4.590000E+03	2.836524E-16	2.462058E-17
4.600000E+03	2.879078E-16	2.430424E-17
4.610000E+03	2.911727E-16	2.375008E-17
4.620000E+03	2.932904E-16	2.294512E-17
4.630000E+03	2.941847E-16	2.188387E-17
4.640000E+03	2.938479E-16	2.056709E-17
4.650000E+03	2.923620E-16	1.900439E-17
4.660000E+03	2.898825E-16	1.721574E-17
4.670000E+03	2.866106E-16	1.523556E-17
4.680000E+03	2.827712E-16	1.312309E-17
4.690000E+03	2.786041E-16	1.098537E-17
4.700000E+03	2.743355E-16	9.023735E-18
4.710000E+03	2.701662E-16	7.604226E-18
4.720000E+03	2.662724E-16	7.204791E-18
4.730000E+03	2.627687E-16	7.970927E-18
4.740000E+03	2.597272E-16	9.506457E-18
4.750000E+03	2.571717E-16	1.135688E-17
4.760000E+03	2.550932E-16	1.326238E-17
4.770000E+03	2.534458E-16	1.510438E-17
4.780000E+03	2.521664E-16	1.683482E-17
4.790000E+03	2.511732E-16	1.843826E-17
4.800000E+03	2.503759E-16	1.991415E-17
4.810000E+03	2.497027E-16	2.126992E-17
4.820000E+03	2.490795E-16	2.251460E-17
4.830000E+03	2.484746E-16	2.366008E-17
4.840000E+03	2.478732E-16	2.471785E-17
4.850000E+03	2.472966E-16	2.570032E-17
4.860000E+03	2.467876E-16	2.661973E-17
4.870000E+03	2.464211E-16	2.748970E-17
4.880000E+03	2.462797E-16	2.832344E-17
4.890000E+03	2.464620E-16	2.913518E-17
4.900000E+03	2.470671E-16	2.993905E-17
4.910000E+03	2.481940E-16	3.074924E-17
4.920000E+03	2.499317E-16	3.157903E-17
4.930000E+03	2.523432E-16	3.243870E-17
4.940000E+03	2.554780E-16	3.333707E-17
4.950000E+03	2.593502E-16	3.427863E-17
4.960000E+03	2.639242E-16	3.526177E-17
4.970000E+03	2.691340E-16	3.628145E-17
4.980000E+03	2.748502E-16	3.732508E-17
4.990000E+03	2.809092E-16	3.837676E-17
5.000000E+03	2.871016E-16	3.941566E-17
5.010000E+03	2.931873E-16	4.041782E-17
5.020000E+03	2.989241E-16	4.135908E-17
5.030000E+03	3.040824E-16	4.221610E-17
5.040000E+03	3.084664E-16	4.296776E-17
5.050000E+03	3.119338E-16	4.359701E-17
5.060000E+03	3.144216E-16	4.409404E-17
5.070000E+03	3.159391E-16	4.445584E-17
5.080000E+03	3.165694E-16	4.468732E-17
5.090000E+03	3.164446E-16	4.479896E-17
5.100000E+03	3.157402E-16	4.480711E-17
5.110000E+03	3.146435E-16	4.473024E-17
5.120000E+03	3.133373E-16	4.458721E-17
5.130000E+03	3.119807E-16	4.439487E-17
5.140000E+03	3.107117E-16	4.416867E-17
5.150000E+03	3.096164E-16	4.391829E-17
5.160000E+03	3.087567E-16	4.365136E-17
5.170000E+03	3.081491E-16	4.337013E-17
5.180000E+03	3.077814E-16	4.307351E-17
5.190000E+03	3.076321E-16	4.275940E-17
5.200000E+03	3.076614E-16	4.242318E-17
5.210000E+03	3.078190E-16	4.205872E-17
5.220000E+03	3.080672E-16	4.166169E-17
5.230000E+03	3.083671E-16	4.122765E-17
5.240000E+03	3.086973E-16	4.075478E-17
5.250000E+03	3.090302E-16	4.024050E-17
5.260000E+03	3.093550E-16	3.968440E-17
5.270000E+03	3.096584E-16	3.908528E-17
5.280000E+03	3.099324E-16	3.844175E-17
5.290000E+03	3.101676E-16	3.775106E-17
5.300000E+03	3.103466E-16	3.700807E-17
5.310000E+03	3.104519E-16	3.620638E-17
5.320000E+03	3.104503E-16	3.533676E-17
5.330000E+03	3.103038E-16	3.438902E-17
5.340000E+03	3.099677E-16	3.335235E-17
5.350000E+03	3.093884E-16	3.221546E-17
5.360000E+03	3.085295E-16	3.096948E-17
5.370000E+03	3.073507E-16	2.960556E-17
5.380000E+03	3.058356E-16	2.811729E-17
5.390000E+03	3.039905E-16	2.650005E-17
5.400000E+03	3.018453E-16	2.475086E-17
5.410000E+03	2.994666E-16	2.286970E-17
5.420000E+03	2.969419E-16	2.085910E-17
5.430000E+03	2.943984E-16	1.872784E-17
5.440000E+03	2.919843E-16	1.649425E-17
5.450000E+03	2.898750E-16	1.419703E-17
5.460000E+03	2.882633E-16	1.191754E-17
5.470000E+03	2.873504E-16	9.829268E-18
5.480000E+03	2.873274E-16	8.282880E-18
5.490000E+03	2.883317E-16	7.802183E-18
5.500000E+03	2.903978E-16	8.653254E-18
5.510000E+03	2.934004E-16	1.049089E-17
5.520000E+03	2.971092E-16	1.281849E-17
5.530000E+03	3.012310E-16	1.532191E-17
5.540000E+03	3.054360E-16	1.783542E-17
5.550000E+03	3.093918E-16	2.026694E-17
5.560000E+03	3.127733E-16	2.255761E-17
5.570000E+03	3.152895E-16	2.466531E-17
5.580000E+03	3.166973E-16	2.655774E-17
5.590000E+03	3.168240E-16	2.821120E-17
5.600000E+03	3.155673E-16	2.960953E-17
5.610000E+03	3.129142E-16	3.074581E-17
5.620000E+03	3.089143E-16	3.162024E-17
5.630000E+03	3.036846E-16	3.224117E-17
5.640000E+03	2.973900E-16	3.262392E-17
5.650000E+03	2.902107E-16	3.278785E-17
5.660000E+03	2.823524E-16	3.275796E-17
5.670000E+03	2.740259E-16	3.256291E-17
5.680000E+03	2.654380E-16	3.223385E-17
5.690000E+03	2.567918E-16	3.180395E-17
5.700000E+03	2.482873E-16	3.130777E-17
5.710000E+03	2.401119E-16	3.077909E-17
5.720000E+03	2.324524E-16	3.025150E-17
5.730000E+03	2.254750E-16	2.975495E-17
5.740000E+03	2.193438E-16	2.931773E-17
5.750000E+03	2.142039E-16	2.896399E-17
5.760000E+03	2.101822E-16	2.871410E-17
5.770000E+03	2.073960E-16	2.858611E-17
5.780000E+03	2.059357E-16	2.859374E-17
5.790000E+03	2.058799E-16	2.874876E-17
5.800000E+03	2.072850E-16	2.905967E-17
5.810000E+03	2.101874E-16	2.953202E-17
5.820000E+03	2.145896E-16	3.016655E-17
5.830000E+03	2.204706E-16	3.096058E-17
5.840000E+03	2.277614E-16	3.190457E-17
5.850000E+03	2.363459E-16	3.298220E-17
5.860000E+03	2.460500E-16	3.416896E-17
5.870000E+03	2.566377E-16	3.543154E-17
5.880000E+03	2.678121E-16	3.672799E-17
5.890000E+03	2.792234E-16	3.800908E-17
5.900000E+03	2.904824E-16	3.922018E-17
5.910000E+03	3.011958E-16	4.030640E-17
5.920000E+03	3.109694E-16	4.121326E-17
5.930000E+03	3.194519E-16	4.189316E-17
5.940000E+03	3.263508E-16	4.230778E-17
5.950000E+03	3.314505E-16	4.243094E-17
5.960000E+03	3.346081E-16	4.224799E-17
5.970000E+03	3.357841E-16	4.175951E-17
5.980000E+03	3.350102E-16	4.097652E-17
5.990000E+03	3.324276E-16	3.992447E-17
6.000000E+03	3.282347E-16	3.863587E-17
6.010000E+03	3.227118E-16	3.715238E-17
6.020000E+03	3.161832E-16	3.551945E-17
6.030000E+03	3.089954E-16	3.378273E-17
6.040000E+03	3.015025E-16	3.198563E-17
6.050000E+03	2.940305E-16	3.016444E-17
6.060000E+03	2.868667E-16	2.834675E-17
6.070000E+03	2.802584E-16	2.655090E-17
6.080000E+03	2.743828E-16	2.478312E-17
6.090000E+03	2.693800E-16	2.304120E-17
6.100000E+03	2.653327E-16	2.131344E-17
6.110000E+03	2.622831E-16	1.958173E-17
6.120000E+03	2.602322E-16	1.782378E-17
6.130000E+03	2.591497E-16	1.601806E-17
6.140000E+03	2.589628E-16	1.415052E-17
6.150000E+03	2.595625E-16	1.222954E-17
6.160000E+03	2.608016E-16	1.031496E-17
6.170000E+03	2.624835E-16	8.575972E-18
6.180000E+03	2.643913E-16	7.376292E-18
6.190000E+03	2.663113E-16	7.208416E-18
6.200000E+03	2.680854E-16	8.205398E-18
6.210000E+03	2.696255E-16	9.959819E-18
6.220000E+03	2.708678E-16	1.202421E-17
6.230000E+03	2.717384E-16	1.413721E-17
6.240000E+03	2.721269E-16	1.616740E-17
6.250000E+03	2.718898E-16	1.804746E-17
6.260000E+03	2.708784E-16	1.974094E-17
6.270000E+03	2.689537E-16	2.122664E-17
6.280000E+03	2.660333E-16	2.249427E-17
6.290000E+03	2.621002E-16	2.354184E-17
6.300000E+03	2.572452E-16	2.437825E-17
6.310000E+03	2.516607E-16	2.502337E-17
6.320000E+03	2.456298E-16	2.550797E-17
6.330000E+03	2.395106E-16	2.587336E-17
6.340000E+03	2.336830E-16	2.616670E-17
6.350000E+03	2.285242E-16	2.643852E-17
6.360000E+03	2.243788E-16	2.673905E-17
6.370000E+03	2.215283E-16	2.711393E-17
6.380000E+03	2.202001E-16	2.760432E-17
6.390000E+03	2.205490E-16	2.824365E-17
6.400000E+03	2.226572E-16	2.905672E-17
6.410000E+03	2.265518E-16	3.006119E-17
6.420000E+03	2.321746E-16	3.126311E-17
6.430000E+03	2.393958E-16	3.265810E-17
6.440000E+03	2.479946E-16	3.422830E-17
6.450000E+03	2.576571E-16	3.594135E-17
6.460000E+03	2.679780E-16	3.774995E-17
6.470000E+03	2.784757E-16	3.959313E-17
6.480000E+03	2.886256E-16	4.140020E-17
6.490000E+03	2.978940E-16	4.309511E-17
6.500000E+03	3.058015E-16	4.460577E-17
6.510000E+03	3.119829E-16	4.587332E-17
6.520000E+03	3.162105E-16	4.685690E-17
6.530000E+03	3.184545E-16	4.754382E-17
6.540000E+03	3.188569E-16	4.794732E-17
6.550000E+03	3.177472E-16	4.810996E-17
6.560000E+03	3.155592E-16	4.809214E-17
6.570000E+03	3.128053E-16	4.796859E-17
6.580000E+03	3.100018E-16	4.781715E-17
6.590000E+03	3.076049E-16	4.770846E-17
6.600000E+03	3.059782E-16	4.770032E-17
6.610000E+03	3.053680E-16	4.783301E-17
6.620000E+03	3.058706E-16	4.812357E-17
6.630000E+03	3.074479E-16	4.856776E-17
6.640000E+03	3.099390E-16	4.914171E-17
6.650000E+03	3.130731E-16	4.980406E-17
6.660000E+03	3.165027E-16	5.050135E-17
6.670000E+03	3.198446E-16	5.117461E-17
6.680000E+03	3.227085E-16	5.176380E-17
6.690000E+03	3.247530E-16	5.221651E-17
6.700000E+03	3.257061E-16	5.249079E-17
6.710000E+03	3.253868E-16	5.255839E-17
6.720000E+03	3.237128E-16	5.240571E-17
6.730000E+03	3.206800E-16	5.203061E-17
6.740000E+03	3.163480E-16	5.144022E-17
6.750000E+03	3.108151E-16	5.064737E-17
6.760000E+03	3.042184E-16	4.967108E-17
6.770000E+03	2.966979E-16	4.853128E-17
6.780000E+03	2.884113E-16	4.725176E-17
6.790000E+03	2.795199E-16	4.585825E-17
6.800000E+03	2.701888E-16	4.437850E-17
6.810000E+03	2.606005E-16	4.284434E-17
6.820000E+03	2.509280E-16	4.128680E-17
6.830000E+03	2.413595E-16	3.973960E-17
6.840000E+03	2.320701E-16	3.823397E-17
6.850000E+03	2.232313E-16	3.679979E-17
6.860000E+03	2.150058E-16	3.546468E-17
6.870000E+03	2.075365E-16	3.425211E-17
6.880000E+03	2.009557E-16	3.318323E-17
6.890000E+03	1.953772E-16	3.227568E-17
6.900000E+03	1.908973E-16	3.154399E-17
6.910000E+03	1.876049E-16	3.100135E-17
6.920000E+03	1.855755E-16	3.065862E-17
6.930000E+03	1.848753E-16	3.052495E-17
6.940000E+03	1.855578E-16	3.060724E-17
6.950000E+03	1.876691E-16	3.091091E-17
6.960000E+03	1.912364E-16	3.143807E-17
6.970000E+03	1.962488E-16	3.218440E-17
6.980000E+03	2.026705E-16	3.314164E-17
6.990000E+03	2.104011E-16	3.429135E-17
7.000000E+03	2.192713E-16	3.560471E-17
7.010000E+03	2.290402E-16	3.704248E-17
7.020000E+03	2.393867E-16	3.855382E-17
7.030000E+03	2.499229E-16	4.007843E-17
7.040000E+03	2.602339E-16	4.155254E-17
7.050000E+03	2.699082E-16	4.291303E-17
7.060000E+03	2.785962E-16	4.410598E-17
7.070000E+03	2.860518E-16	4.509279E-17
7.080000E+03	2.921427E-16	4.585174E-17
7.090000E+03	2.968650E-16	4.638079E-17
7.100000E+03	3.003017E-16	4.669172E-17
7.110000E+03	3.026148E-16	4.680943E-17
7.120000E+03	3.039889E-16	4.676344E-17
7.130000E+03	3.046222E-16	4.658618E-17
7.140000E+03	3.046720E-16	4.630400E-17
7.150000E+03	3.042893E-16	4.594156E-17
7.160000E+03	3.035871E-16	4.551652E-17
7.170000E+03	3.026688E-16	4.504357E-17
7.180000E+03	3.016372E-16	4.453611E-17
7.190000E+03	3.006022E-16	4.400780E-17
7.200000E+03	2.996938E-16	4.347497E-17
7.210000E+03	2.990549E-16	4.295579E-17
7.220000E+03	2.988357E-16	4.246932E-17
7.230000E+03	2.991592E-16	4.203025E-17
7.240000E+03	3.001450E-16	4.165182E-17
7.250000E+03	3.018678E-16	4.133970E-17
7.260000E+03	3.043494E-16	4.109098E-17
7.270000E+03	3.075711E-16	4.089618E-17
7.280000E+03	3.114681E-16	4.073885E-17
7.290000E+03	3.159157E-16	4.059432E-17
7.300000E+03	3.207396E-16	4.043142E-17
7.310000E+03	3.257269E-16	4.021460E-17
7.320000E+03	3.306121E-16	3.990294E-17
7.330000E+03	3.350979E-16	3.945397E-17
7.340000E+03	3.388628E-16	3.882585E-17
7.350000E+03	3.415784E-16	3.798071E-17
7.360000E+03	3.429230E-16	3.688721E-17
7.370000E+03	3.426349E-16	3.552675E-17
7.380000E+03	3.405281E-16	3.389452E-17
7.390000E+03	3.365006E-16	3.199898E-17
7.400000E+03	3.306001E-16	2.986632E-17
7.410000E+03	3.229702E-16	2.753245E-17
7.420000E+03	3.138883E-16	2.504406E-17
7.430000E+03	3.037040E-16	2.245093E-17
7.440000E+03	2.928024E-16	1.980247E-17
7.450000E+03	2.815901E-16	1.714772E-17
7.460000E+03	2.704523E-16	1.453666E-17
7.470000E+03	2.597267E-16	1.202890E-17
7.480000E+03	2.497261E-16	9.716573E-18
7.490000E+03	2.407145E-16	7.766263E-18
7.500000E+03	2.328994E-16	6.473092E-18
7.510000E+03	2.263920E-16	6.171691E-18
7.520000E+03	2.211429E-16	6.850137E-18
7.530000E+03	2.169498E-16	8.108649E-18
7.540000E+03	2.135567E-16	9.582523E-18
7.550000E+03	2.107285E-16	1.107876E-17
7.560000E+03	2.082777E-16	1.251107E-17
7.570000E+03	2.060709E-16	1.384365E-17
7.580000E+03	2.040180E-16	1.506391E-17
7.590000E+03	2.020664E-16	1.617083E-17
7.600000E+03	2.002026E-16	1.717072E-17
7.610000E+03	1.984392E-16	1.807450E-17
7.620000E+03	1.968025E-16	1.889581E-17
7.630000E+03	1.953385E-16	1.965098E-17
7.640000E+03	1.940964E-16	2.035699E-17
7.650000E+03	1.931333E-16	2.103137E-17
7.660000E+03	1.925131E-16	2.169178E-17
7.670000E+03	1.922885E-16	2.235372E-17
7.680000E+03	1.925054E-16	2.303075E-17
7.690000E+03	1.932064E-16	2.373487E-17
7.700000E+03	1.944093E-16	2.447393E-17
7.710000E+03	1.961136E-16	2.525243E-17
7.720000E+03	1.982931E-16	2.607074E-17
7.730000E+03	2.008931E-16	2.692483E-17
7.740000E+03	2.038324E-16	2.780663E-17
7.750000E+03	2.069950E-16	2.870301E-17
7.760000E+03	2.102433E-16	2.959735E-17
