#wls	flux	fluxerr
1.600000E+03	4.317873E-18	5.162890E-18
1.640000E+03	4.159161E-18	4.966862E-18
1.680000E+03	3.997019E-18	4.766948E-18
1.720000E+03	3.830264E-18	4.561772E-18
1.760000E+03	3.659913E-18	4.352577E-18
1.800000E+03	3.486329E-18	4.139831E-18
1.840000E+03	3.310517E-18	3.924757E-18
1.880000E+03	3.131841E-18	3.706629E-18
1.920000E+03	2.952000E-18	3.487490E-18
1.960000E+03	2.771118E-18	3.267517E-18
2.000000E+03	2.590402E-18	3.048159E-18
2.040000E+03	2.409798E-18	2.829388E-18
2.080000E+03	2.231060E-18	2.613293E-18
2.120000E+03	2.055064E-18	2.400934E-18
2.160000E+03	1.882422E-18	2.193057E-18
2.200000E+03	1.714165E-18	1.990898E-18
2.240000E+03	1.551819E-18	1.796262E-18
2.280000E+03	1.395762E-18	1.609614E-18
2.320000E+03	1.246930E-18	1.432061E-18
2.360000E+03	1.106517E-18	1.264996E-18
2.400000E+03	9.748050E-19	1.108751E-18
2.440000E+03	8.526504E-19	9.643034E-19
2.480000E+03	7.401368E-19	8.317346E-19
2.520000E+03	6.377209E-19	7.115325E-19
2.560000E+03	5.452221E-19	6.034505E-19
2.600000E+03	4.626883E-19	5.074795E-19
2.640000E+03	3.897275E-19	4.231045E-19
2.680000E+03	3.259513E-19	3.497997E-19
2.720000E+03	2.707357E-19	2.867702E-19
2.760000E+03	2.234652E-19	2.332217E-19
2.800000E+03	1.833808E-19	1.882026E-19
2.840000E+03	1.497362E-19	1.507754E-19
2.880000E+03	1.218111E-19	1.200328E-19
2.920000E+03	9.881823E-20	9.501064E-20
2.960000E+03	8.005973E-20	7.484977E-20
3.000000E+03	6.490723E-20	5.877609E-20
3.010000E+03	6.160809E-20	5.530699E-20
3.020000E+03	5.849460E-20	5.204323E-20
3.030000E+03	5.554223E-20	4.896033E-20
3.040000E+03	5.275894E-20	4.606286E-20
3.050000E+03	5.012926E-20	4.333467E-20
3.060000E+03	4.764603E-20	4.076711E-20
3.070000E+03	4.530232E-20	3.835184E-20
3.080000E+03	4.309147E-20	3.608085E-20
3.090000E+03	4.101263E-20	3.395101E-20
3.100000E+03	3.905354E-20	3.194979E-20
3.110000E+03	3.720837E-20	3.007016E-20
3.120000E+03	3.547153E-20	2.830541E-20
3.130000E+03	3.383767E-20	2.664910E-20
3.140000E+03	3.230597E-20	2.509841E-20
3.150000E+03	3.086278E-20	2.364063E-20
3.160000E+03	2.951187E-20	2.227664E-20
3.170000E+03	2.824461E-20	2.099785E-20
3.180000E+03	2.706040E-20	1.980181E-20
3.190000E+03	2.594807E-20	1.867839E-20
3.200000E+03	2.491090E-20	1.762813E-20
3.210000E+03	2.394190E-20	1.664413E-20
3.220000E+03	2.303782E-20	1.572234E-20
3.230000E+03	2.219564E-20	1.485891E-20
3.240000E+03	2.141252E-20	1.405018E-20
3.250000E+03	2.068851E-20	1.329441E-20
3.260000E+03	2.001832E-20	1.258641E-20
3.270000E+03	1.939976E-20	1.192312E-20
3.280000E+03	1.883082E-20	1.130159E-20
3.290000E+03	1.830967E-20	1.071906E-20
3.300000E+03	1.783696E-20	1.017420E-20
3.310000E+03	1.740890E-20	9.663078E-21
3.320000E+03	1.702430E-20	9.183336E-21
3.330000E+03	1.668215E-20	8.732724E-21
3.340000E+03	1.638171E-20	8.309089E-21
3.350000E+03	1.612441E-20	7.911350E-21
3.360000E+03	1.590590E-20	7.535502E-21
3.370000E+03	1.573011E-20	7.181539E-21
3.380000E+03	1.559524E-20	6.846606E-21
3.390000E+03	1.550371E-20	6.529663E-21
3.400000E+03	1.545250E-20	6.227242E-21
3.410000E+03	1.544659E-20	5.939077E-21
3.420000E+03	1.548374E-20	5.661824E-21
3.430000E+03	1.557155E-20	5.395637E-21
3.440000E+03	1.570685E-20	5.136463E-21
3.450000E+03	1.589447E-20	4.882879E-21
3.460000E+03	1.613993E-20	4.633174E-21
3.470000E+03	1.644366E-20	4.383737E-21
3.480000E+03	1.681459E-20	4.132914E-21
3.490000E+03	1.725673E-20	3.877096E-21
3.500000E+03	1.777915E-20	3.613256E-21
3.510000E+03	1.838579E-20	3.336574E-21
3.520000E+03	1.909031E-20	3.043383E-21
3.530000E+03	1.990142E-20	2.728169E-21
3.540000E+03	2.083142E-20	2.385313E-21
3.550000E+03	2.189415E-20	2.009074E-21
3.560000E+03	2.310484E-20	1.595158E-21
3.570000E+03	2.448272E-20	1.147285E-21
3.580000E+03	2.603986E-20	7.125093E-22
3.590000E+03	2.780196E-20	5.879887E-22
3.600000E+03	2.979148E-20	1.066473E-21
3.610000E+03	3.204155E-20	1.813408E-21
3.620000E+03	3.459636E-20	2.710425E-21
3.630000E+03	3.749452E-20	3.749569E-21
3.640000E+03	4.079627E-20	4.946911E-21
3.650000E+03	4.455175E-20	6.325766E-21
3.660000E+03	4.883783E-20	7.918016E-21
3.670000E+03	5.372717E-20	9.759739E-21
3.680000E+03	5.931520E-20	1.189533E-20
3.690000E+03	6.569190E-20	1.437275E-20
3.700000E+03	7.298951E-20	1.725361E-20
3.710000E+03	8.132938E-20	2.060264E-20
3.720000E+03	9.088634E-20	2.450328E-20
3.730000E+03	1.018348E-19	2.904566E-20
3.740000E+03	1.143854E-19	3.433638E-20
3.750000E+03	1.287810E-19	4.049882E-20
3.760000E+03	1.453177E-19	4.768061E-20
3.770000E+03	1.642889E-19	5.603674E-20
3.780000E+03	1.861004E-19	6.576789E-20
3.790000E+03	2.111655E-19	7.708686E-20
3.800000E+03	2.399515E-19	9.023395E-20
3.810000E+03	2.730722E-19	1.055127E-19
3.820000E+03	3.111868E-19	1.232540E-19
3.830000E+03	3.549778E-19	1.438055E-19
3.840000E+03	4.053245E-19	1.675998E-19
3.850000E+03	4.631980E-19	1.951138E-19
3.860000E+03	5.297605E-19	2.269088E-19
3.870000E+03	6.062327E-19	2.635731E-19
3.880000E+03	6.939775E-19	3.057536E-19
3.890000E+03	7.947548E-19	3.542648E-19
3.900000E+03	9.103418E-19	4.099194E-19
3.910000E+03	1.042816E-18	4.736457E-19
3.920000E+03	1.194515E-18	5.464644E-19
3.930000E+03	1.368067E-18	6.294920E-19
3.940000E+03	1.566414E-18	7.239421E-19
3.950000E+03	1.792842E-18	8.311255E-19
3.960000E+03	2.051218E-18	9.525436E-19
3.970000E+03	2.345222E-18	1.089514E-18
3.980000E+03	2.679796E-18	1.243822E-18
3.990000E+03	3.059399E-18	1.416881E-18
4.000000E+03	3.490054E-18	1.610657E-18
4.010000E+03	3.977069E-18	1.826580E-18
4.020000E+03	4.527679E-18	2.066722E-18
4.030000E+03	5.148587E-18	2.332626E-18
4.040000E+03	5.846830E-18	2.625663E-18
4.050000E+03	6.631641E-18	2.947818E-18
4.060000E+03	7.511229E-18	3.300182E-18
4.070000E+03	8.494022E-18	3.683470E-18
4.080000E+03	9.591297E-18	4.099104E-18
4.090000E+03	1.081252E-17	4.547104E-18
4.100000E+03	1.216826E-17	5.027317E-18
4.110000E+03	1.366939E-17	5.538994E-18
4.120000E+03	1.532697E-17	6.080694E-18
4.130000E+03	1.715051E-17	6.649547E-18
4.140000E+03	1.915411E-17	7.243610E-18
4.150000E+03	2.134706E-17	7.858157E-18
4.160000E+03	2.373967E-17	8.487936E-18
4.170000E+03	2.634152E-17	9.126511E-18
4.180000E+03	2.915855E-17	9.765290E-18
4.190000E+03	3.220331E-17	1.039705E-17
4.200000E+03	3.547923E-17	1.101067E-17
4.210000E+03	3.898682E-17	1.159349E-17
4.220000E+03	4.273485E-17	1.213484E-17
4.230000E+03	4.671531E-17	1.261867E-17
4.240000E+03	5.093318E-17	1.303249E-17
4.250000E+03	5.537333E-17	1.335854E-17
4.260000E+03	6.003604E-17	1.358353E-17
4.270000E+03	6.489807E-17	1.368949E-17
4.280000E+03	6.994823E-17	1.366289E-17
4.290000E+03	7.516686E-17	1.349049E-17
4.300000E+03	8.053099E-17	1.316162E-17
4.310000E+03	8.601464E-17	1.266964E-17
4.320000E+03	9.158916E-17	1.201405E-17
4.330000E+03	9.722387E-17	1.120400E-17
4.340000E+03	1.028776E-16	1.026331E-17
4.350000E+03	1.085356E-16	9.244885E-18
4.360000E+03	1.141467E-16	8.242886E-18
4.370000E+03	1.196990E-16	7.425977E-18
4.380000E+03	1.251410E-16	7.037883E-18
4.390000E+03	1.304516E-16	7.311588E-18
4.400000E+03	1.355974E-16	8.292769E-18
4.410000E+03	1.405433E-16	9.825994E-18
4.420000E+03	1.452539E-16	1.170744E-17
4.430000E+03	1.496830E-16	1.377477E-17
4.440000E+03	1.538262E-16	1.591731E-17
4.450000E+03	1.576319E-16	1.805204E-17
4.460000E+03	1.610925E-16	2.011964E-17
4.470000E+03	1.641926E-16	2.207237E-17
4.480000E+03	1.669219E-16	2.387144E-17
4.490000E+03	1.692606E-16	2.548291E-17
4.500000E+03	1.712364E-16	2.688509E-17
4.510000E+03	1.728243E-16	2.805300E-17
4.520000E+03	1.740462E-16	2.897314E-17
4.530000E+03	1.749130E-16	2.963437E-17
4.540000E+03	1.754391E-16	3.002977E-17
4.550000E+03	1.756411E-16	3.015629E-17
4.560000E+03	1.755236E-16	3.001194E-17
4.570000E+03	1.751221E-16	2.960295E-17
4.580000E+03	1.744587E-16	2.893584E-17
4.590000E+03	1.735569E-16	2.801949E-17
4.600000E+03	1.724263E-16	2.686262E-17
4.610000E+03	1.711199E-16	2.548231E-17
4.620000E+03	1.696341E-16	2.388818E-17
4.630000E+03	1.680075E-16	2.209741E-17
4.640000E+03	1.662644E-16	2.012590E-17
4.650000E+03	1.644154E-16	1.798905E-17
4.660000E+03	1.624978E-16	1.570694E-17
4.670000E+03	1.605473E-16	1.330159E-17
4.680000E+03	1.585475E-16	1.079660E-17
4.690000E+03	1.565591E-16	8.237386E-18
4.700000E+03	1.545777E-16	5.713074E-18
4.710000E+03	1.526354E-16	3.523592E-18
4.720000E+03	1.507484E-16	2.838604E-18
4.730000E+03	1.489266E-16	4.426350E-18
4.740000E+03	1.471615E-16	6.796588E-18
4.750000E+03	1.454642E-16	9.301234E-18
4.760000E+03	1.438326E-16	1.179047E-17
4.770000E+03	1.422648E-16	1.421841E-17
4.780000E+03	1.407481E-16	1.656664E-17
4.790000E+03	1.393037E-16	1.883094E-17
4.800000E+03	1.378978E-16	2.100475E-17
4.810000E+03	1.365627E-16	2.309256E-17
4.820000E+03	1.352766E-16	2.509207E-17
4.830000E+03	1.340499E-16	2.700668E-17
4.840000E+03	1.328825E-16	2.883843E-17
4.850000E+03	1.317744E-16	3.058957E-17
4.860000E+03	1.307152E-16	3.225987E-17
4.870000E+03	1.297152E-16	3.385392E-17
4.880000E+03	1.287743E-16	3.537406E-17
4.890000E+03	1.278825E-16	3.681970E-17
4.900000E+03	1.270594E-16	3.819864E-17
4.910000E+03	1.262849E-16	3.950723E-17
4.920000E+03	1.255591E-16	4.074721E-17
4.930000E+03	1.249009E-16	4.192666E-17
4.940000E+03	1.242905E-16	4.304103E-17
4.950000E+03	1.237277E-16	4.409174E-17
4.960000E+03	1.232308E-16	4.508696E-17
4.970000E+03	1.227803E-16	4.602124E-17
4.980000E+03	1.223849E-16	4.689913E-17
4.990000E+03	1.220440E-16	4.772167E-17
5.000000E+03	1.217473E-16	4.848604E-17
5.010000E+03	1.215035E-16	4.919648E-17
5.020000E+03	1.213115E-16	4.985353E-17
5.030000E+03	1.211704E-16	5.045750E-17
5.040000E+03	1.210702E-16	5.100473E-17
5.050000E+03	1.210189E-16	5.149897E-17
5.060000E+03	1.210155E-16	5.194005E-17
5.070000E+03	1.210499E-16	5.232370E-17
5.080000E+03	1.211300E-16	5.265328E-17
5.090000E+03	1.212545E-16	5.292811E-17
5.100000E+03	1.214224E-16	5.314736E-17
5.110000E+03	1.216233E-16	5.330605E-17
5.120000E+03	1.218649E-16	5.340701E-17
5.130000E+03	1.221459E-16	5.344895E-17
5.140000E+03	1.224558E-16	5.342646E-17
5.150000E+03	1.228114E-16	5.334593E-17
5.160000E+03	1.231838E-16	5.319379E-17
5.170000E+03	1.235987E-16	5.298010E-17
5.180000E+03	1.240363E-16	5.269509E-17
5.190000E+03	1.245040E-16	5.234067E-17
5.200000E+03	1.249999E-16	5.191475E-17
5.210000E+03	1.255223E-16	5.141510E-17
5.220000E+03	1.260599E-16	5.083574E-17
5.230000E+03	1.266198E-16	5.017816E-17
5.240000E+03	1.271905E-16	4.943640E-17
5.250000E+03	1.277885E-16	4.861539E-17
5.260000E+03	1.283927E-16	4.770556E-17
5.270000E+03	1.290100E-16	4.670819E-17
5.280000E+03	1.296282E-16	4.561761E-17
5.290000E+03	1.302637E-16	4.443833E-17
5.300000E+03	1.308946E-16	4.316158E-17
5.310000E+03	1.315179E-16	4.178560E-17
5.320000E+03	1.321498E-16	4.031468E-17
5.330000E+03	1.327679E-16	3.874109E-17
5.340000E+03	1.333786E-16	3.706636E-17
5.350000E+03	1.339787E-16	3.528918E-17
5.360000E+03	1.345549E-16	3.340609E-17
5.370000E+03	1.351136E-16	3.141910E-17
5.380000E+03	1.356514E-16	2.932786E-17
5.390000E+03	1.361649E-16	2.713245E-17
5.400000E+03	1.366406E-16	2.483165E-17
5.410000E+03	1.370851E-16	2.242886E-17
5.420000E+03	1.374951E-16	1.992619E-17
5.430000E+03	1.378674E-16	1.732715E-17
5.440000E+03	1.381890E-16	1.463645E-17
5.450000E+03	1.384671E-16	1.186585E-17
5.460000E+03	1.386991E-16	9.036131E-18
5.470000E+03	1.388828E-16	6.199485E-18
5.480000E+03	1.390065E-16	3.552236E-18
5.490000E+03	1.390790E-16	2.299004E-18
5.500000E+03	1.391001E-16	4.096817E-18
5.510000E+03	1.390700E-16	6.826381E-18
5.520000E+03	1.389802E-16	9.672088E-18
5.530000E+03	1.388524E-16	1.249544E-17
5.540000E+03	1.386688E-16	1.525314E-17
5.550000E+03	1.384320E-16	1.792680E-17
5.560000E+03	1.381647E-16	2.050956E-17
5.570000E+03	1.378500E-16	2.299321E-17
5.580000E+03	1.375011E-16	2.537567E-17
5.590000E+03	1.371212E-16	2.765475E-17
5.600000E+03	1.367135E-16	2.982910E-17
5.610000E+03	1.362717E-16	3.189564E-17
5.620000E+03	1.358089E-16	3.385610E-17
5.630000E+03	1.353284E-16	3.571059E-17
5.640000E+03	1.348335E-16	3.745956E-17
5.650000E+03	1.343272E-16	3.910372E-17
5.660000E+03	1.338031E-16	4.064113E-17
5.670000E+03	1.332737E-16	4.207564E-17
5.680000E+03	1.327417E-16	4.340858E-17
5.690000E+03	1.322099E-16	4.464141E-17
5.700000E+03	1.316711E-16	4.577240E-17
5.710000E+03	1.311466E-16	4.680965E-17
5.720000E+03	1.306196E-16	4.774817E-17
5.730000E+03	1.301015E-16	4.859291E-17
5.740000E+03	1.295939E-16	4.934551E-17
5.750000E+03	1.290893E-16	5.000401E-17
5.760000E+03	1.285982E-16	5.057344E-17
5.770000E+03	1.281310E-16	5.105895E-17
5.780000E+03	1.276701E-16	5.145465E-17
5.790000E+03	1.272258E-16	5.176547E-17
5.800000E+03	1.267894E-16	5.198885E-17
5.810000E+03	1.263795E-16	5.213331E-17
5.820000E+03	1.259784E-16	5.219234E-17
5.830000E+03	1.255952E-16	5.217049E-17
5.840000E+03	1.252298E-16	5.206847E-17
5.850000E+03	1.248820E-16	5.188688E-17
5.860000E+03	1.245426E-16	5.162248E-17
5.870000E+03	1.242290E-16	5.128303E-17
5.880000E+03	1.239228E-16	5.086143E-17
5.890000E+03	1.236321E-16	5.036153E-17
5.900000E+03	1.233562E-16	4.978340E-17
5.910000E+03	1.230942E-16	4.912703E-17
5.920000E+03	1.228449E-16	4.839235E-17
5.930000E+03	1.225987E-16	4.757582E-17
5.940000E+03	1.223718E-16	4.668413E-17
5.950000E+03	1.221455E-16	4.571035E-17
5.960000E+03	1.219273E-16	4.465769E-17
5.970000E+03	1.217157E-16	4.352593E-17
5.980000E+03	1.215095E-16	4.231489E-17
5.990000E+03	1.212984E-16	4.102147E-17
6.000000E+03	1.210984E-16	3.965153E-17
6.010000E+03	1.208905E-16	3.819926E-17
6.020000E+03	1.206905E-16	3.667024E-17
6.030000E+03	1.204794E-16	3.505926E-17
6.040000E+03	1.202644E-16	3.336928E-17
6.050000E+03	1.200438E-16	3.160070E-17
6.060000E+03	1.198073E-16	2.975189E-17
6.070000E+03	1.195704E-16	2.782799E-17
6.080000E+03	1.193143E-16	2.582580E-17
6.090000E+03	1.190546E-16	2.375039E-17
6.100000E+03	1.187723E-16	2.159978E-17
6.110000E+03	1.184744E-16	1.937787E-17
6.120000E+03	1.181593E-16	1.708750E-17
6.130000E+03	1.178252E-16	1.473273E-17
6.140000E+03	1.174701E-16	1.231992E-17
6.150000E+03	1.170918E-16	9.860335E-18
6.160000E+03	1.166789E-16	7.376777E-18
6.170000E+03	1.162443E-16	4.933177E-18
6.180000E+03	1.157669E-16	2.787680E-18
6.190000E+03	1.152595E-16	2.279042E-18
6.200000E+03	1.147057E-16	4.066506E-18
6.210000E+03	1.141177E-16	6.416592E-18
6.220000E+03	1.135015E-16	8.838272E-18
6.230000E+03	1.128623E-16	1.123506E-17
6.240000E+03	1.122044E-16	1.357719E-17
6.250000E+03	1.115311E-16	1.585285E-17
6.260000E+03	1.108372E-16	1.805554E-17
6.270000E+03	1.101412E-16	2.018547E-17
6.280000E+03	1.094294E-16	2.223917E-17
6.290000E+03	1.087197E-16	2.421983E-17
6.300000E+03	1.079983E-16	2.612477E-17
6.310000E+03	1.072751E-16	2.795660E-17
6.320000E+03	1.065594E-16	2.971875E-17
6.330000E+03	1.058374E-16	3.140848E-17
6.340000E+03	1.051184E-16	3.302938E-17
6.350000E+03	1.044038E-16	3.458315E-17
6.360000E+03	1.036950E-16	3.607155E-17
6.370000E+03	1.029855E-16	3.749365E-17
6.380000E+03	1.022915E-16	3.885667E-17
6.390000E+03	1.016063E-16	4.015983E-17
6.400000E+03	1.009309E-16	4.140503E-17
6.410000E+03	1.002586E-16	4.259104E-17
6.420000E+03	9.960479E-17	4.372581E-17
6.430000E+03	9.895542E-17	4.480493E-17
6.440000E+03	9.831828E-17	4.583329E-17
6.450000E+03	9.770088E-17	4.681609E-17
6.460000E+03	9.708927E-17	4.774830E-17
6.470000E+03	9.649088E-17	4.863497E-17
6.480000E+03	9.590592E-17	4.947774E-17
6.490000E+03	9.533457E-17	5.027819E-17
6.500000E+03	9.478385E-17	5.104162E-17
6.510000E+03	9.423998E-17	5.176211E-17
6.520000E+03	9.370999E-17	5.244478E-17
6.530000E+03	9.318708E-17	5.308716E-17
6.540000E+03	9.268495E-17	5.369832E-17
6.550000E+03	9.219675E-17	5.427573E-17
6.560000E+03	9.172249E-17	5.482067E-17
6.570000E+03	9.126218E-17	5.533436E-17
6.580000E+03	9.080916E-17	5.581391E-17
6.590000E+03	9.037680E-17	5.626862E-17
6.600000E+03	8.995184E-17	5.669140E-17
6.610000E+03	8.954756E-17	5.709164E-17
6.620000E+03	8.915739E-17	5.746628E-17
6.630000E+03	8.877489E-17	5.781211E-17
6.640000E+03	8.840674E-17	5.813435E-17
6.650000E+03	8.805956E-17	5.843829E-17
6.660000E+03	8.772051E-17	5.871635E-17
6.670000E+03	8.740272E-17	5.897809E-17
6.680000E+03	8.709350E-17	5.921579E-17
6.690000E+03	8.679954E-17	5.943468E-17
6.700000E+03	8.652109E-17	5.963566E-17
6.710000E+03	8.625844E-17	5.981960E-17
6.720000E+03	8.601823E-17	5.999176E-17
6.730000E+03	8.578807E-17	6.014413E-17
6.740000E+03	8.557464E-17	6.028192E-17
6.750000E+03	8.537830E-17	6.040587E-17
6.760000E+03	8.519941E-17	6.051672E-17
6.770000E+03	8.503833E-17	6.061515E-17
6.780000E+03	8.489541E-17	6.070181E-17
6.790000E+03	8.477101E-17	6.077731E-17
6.800000E+03	8.465922E-17	6.083768E-17
6.810000E+03	8.457293E-17	6.089244E-17
6.820000E+03	8.450620E-17	6.093754E-17
6.830000E+03	8.445933E-17	6.097335E-17
6.840000E+03	8.443260E-17	6.100018E-17
6.850000E+03	8.441997E-17	6.101375E-17
6.860000E+03	8.443424E-17	6.102330E-17
6.870000E+03	8.446931E-17	6.102439E-17
6.880000E+03	8.451900E-17	6.101249E-17
6.890000E+03	8.459602E-17	6.099661E-17
6.900000E+03	8.469410E-17	6.097205E-17
6.910000E+03	8.480690E-17	6.093401E-17
6.920000E+03	8.494702E-17	6.089124E-17
6.930000E+03	8.510162E-17	6.083421E-17
6.940000E+03	8.527685E-17	6.076693E-17
6.950000E+03	8.547885E-17	6.069331E-17
6.960000E+03	8.569451E-17	6.060354E-17
6.970000E+03	8.592981E-17	6.050134E-17
6.980000E+03	8.619076E-17	6.039031E-17
6.990000E+03	8.646390E-17	6.026036E-17
7.000000E+03	8.675506E-17	6.011492E-17
7.010000E+03	8.706356E-17	5.995279E-17
7.020000E+03	8.739522E-17	5.977718E-17
7.030000E+03	8.773607E-17	5.957769E-17
7.040000E+03	8.809177E-17	5.935738E-17
7.050000E+03	8.846134E-17	5.911472E-17
7.060000E+03	8.884373E-17	5.884809E-17
7.070000E+03	8.923783E-17	5.855584E-17
7.080000E+03	8.964245E-17	5.823622E-17
7.090000E+03	9.004952E-17	5.788308E-17
7.100000E+03	9.047133E-17	5.750337E-17
7.110000E+03	9.089970E-17	5.709083E-17
7.120000E+03	9.133321E-17	5.664357E-17
7.130000E+03	9.176339E-17	5.615540E-17
7.140000E+03	9.220258E-17	5.563296E-17
7.150000E+03	9.264224E-17	5.507004E-17
7.160000E+03	9.307364E-17	5.446058E-17
7.170000E+03	9.350919E-17	5.381100E-17
7.180000E+03	9.393297E-17	5.311122E-17
7.190000E+03	9.435746E-17	5.236756E-17
7.200000E+03	9.476650E-17	5.157024E-17
7.210000E+03	9.516543E-17	5.072161E-17
7.220000E+03	9.555239E-17	4.982008E-17
7.230000E+03	9.593283E-17	4.886788E-17
7.240000E+03	9.629027E-17	4.785608E-17
7.250000E+03	9.663013E-17	4.678720E-17
7.260000E+03	9.695056E-17	4.566012E-17
7.270000E+03	9.724973E-17	4.447385E-17
7.280000E+03	9.752584E-17	4.322758E-17
7.290000E+03	9.777712E-17	4.192066E-17
7.300000E+03	9.799434E-17	4.054952E-17
7.310000E+03	9.819089E-17	3.912025E-17
7.320000E+03	9.835767E-17	3.762956E-17
7.330000E+03	9.848560E-17	3.607485E-17
7.340000E+03	9.858841E-17	3.446218E-17
7.350000E+03	9.864957E-17	3.278672E-17
7.360000E+03	9.868300E-17	3.105450E-17
7.370000E+03	9.867226E-17	2.926169E-17
7.380000E+03	9.862379E-17	2.741211E-17
7.390000E+03	9.853637E-17	2.550735E-17
7.400000E+03	9.840877E-17	2.354923E-17
7.410000E+03	9.823958E-17	2.153988E-17
7.420000E+03	9.802714E-17	1.948180E-17
7.430000E+03	9.776936E-17	1.737800E-17
7.440000E+03	9.746357E-17	1.523225E-17
7.450000E+03	9.710620E-17	1.304961E-17
7.460000E+03	9.668499E-17	1.083666E-17
7.470000E+03	9.620880E-17	8.607706E-18
7.480000E+03	9.565458E-17	6.385983E-18
7.490000E+03	9.502020E-17	4.237105E-18
7.500000E+03	9.430300E-17	2.422622E-18
7.510000E+03	9.348155E-17	2.116708E-18
7.520000E+03	9.256523E-17	3.648355E-18
7.530000E+03	9.156501E-17	5.609105E-18
7.540000E+03	9.049577E-17	7.601970E-18
7.550000E+03	8.937176E-17	9.543008E-18
7.560000E+03	8.819806E-17	1.140489E-17
7.570000E+03	8.699828E-17	1.317912E-17
7.580000E+03	8.577302E-17	1.486101E-17
7.590000E+03	8.452166E-17	1.644825E-17
7.600000E+03	8.325588E-17	1.794234E-17
7.610000E+03	8.198610E-17	1.934612E-17
7.620000E+03	8.070252E-17	2.065846E-17
7.630000E+03	7.941449E-17	2.188294E-17
7.640000E+03	7.812439E-17	2.302191E-17
7.650000E+03	7.683435E-17	2.407792E-17
7.660000E+03	7.554027E-17	2.505161E-17
7.670000E+03	7.425598E-17	2.594964E-17
7.680000E+03	7.297119E-17	2.677076E-17
7.690000E+03	7.169906E-17	2.752201E-17
7.700000E+03	7.042948E-17	2.820197E-17
7.710000E+03	6.916952E-17	2.881568E-17
7.720000E+03	6.792039E-17	2.936605E-17
7.730000E+03	6.668318E-17	2.985601E-17
7.740000E+03	6.545894E-17	3.028843E-17
7.750000E+03	6.424861E-17	3.066620E-17
7.760000E+03	6.305308E-17	3.099213E-17
