#wls	flux	fluxerr
1.600000E+03	3.232670E-18	3.896686E-18
1.640000E+03	3.109016E-18	3.744711E-18
1.680000E+03	2.981755E-18	3.588439E-18
1.720000E+03	2.851193E-18	3.428256E-18
1.760000E+03	2.718169E-18	3.265184E-18
1.800000E+03	2.583035E-18	3.099661E-18
1.840000E+03	2.445780E-18	2.931691E-18
1.880000E+03	2.307350E-18	2.762425E-18
1.920000E+03	2.167902E-18	2.592071E-18
1.960000E+03	2.028445E-18	2.421857E-18
2.000000E+03	1.889617E-18	2.252565E-18
2.040000E+03	1.752093E-18	2.085024E-18
2.080000E+03	1.616308E-18	1.919778E-18
2.120000E+03	1.483060E-18	1.757803E-18
2.160000E+03	1.353606E-18	1.600616E-18
2.200000E+03	1.228179E-18	1.448522E-18
2.240000E+03	1.107715E-18	1.302653E-18
2.280000E+03	9.928491E-19	1.163782E-18
2.320000E+03	8.841476E-19	1.032596E-18
2.360000E+03	7.819637E-19	9.095269E-19
2.400000E+03	6.868443E-19	7.952251E-19
2.440000E+03	5.990600E-19	6.900081E-19
2.480000E+03	5.187635E-19	5.940467E-19
2.520000E+03	4.459871E-19	5.073615E-19
2.560000E+03	3.806443E-19	4.298251E-19
2.600000E+03	3.224838E-19	3.611118E-19
2.640000E+03	2.713186E-19	3.009561E-19
2.680000E+03	2.266632E-19	2.487483E-19
2.720000E+03	1.881407E-19	2.039910E-19
2.760000E+03	1.551758E-19	1.659642E-19
2.800000E+03	1.272851E-19	1.340449E-19
2.840000E+03	1.038728E-19	1.074906E-19
2.880000E+03	8.441749E-20	8.564250E-20
2.920000E+03	6.840403E-20	6.785432E-20
2.960000E+03	5.531542E-20	5.348940E-20
3.000000E+03	4.471197E-20	4.200155E-20
3.010000E+03	4.239805E-20	3.951676E-20
3.020000E+03	4.021397E-20	3.717872E-20
3.030000E+03	3.814728E-20	3.497413E-20
3.040000E+03	3.618701E-20	3.289133E-20
3.050000E+03	3.433931E-20	3.093434E-20
3.060000E+03	3.259331E-20	2.909167E-20
3.070000E+03	3.093942E-20	2.735323E-20
3.080000E+03	2.938267E-20	2.572197E-20
3.090000E+03	2.791358E-20	2.418800E-20
3.100000E+03	2.652784E-20	2.274610E-20
3.110000E+03	2.522134E-20	2.139128E-20
3.120000E+03	2.399011E-20	2.011877E-20
3.130000E+03	2.283381E-20	1.892686E-20
3.140000E+03	2.174178E-20	1.780531E-20
3.150000E+03	2.071419E-20	1.675300E-20
3.160000E+03	1.974776E-20	1.576598E-20
3.170000E+03	1.884219E-20	1.484272E-20
3.180000E+03	1.798873E-20	1.397504E-20
3.190000E+03	1.719011E-20	1.316389E-20
3.200000E+03	1.643838E-20	1.240199E-20
3.210000E+03	1.573609E-20	1.169011E-20
3.220000E+03	1.507830E-20	1.102341E-20
3.230000E+03	1.446063E-20	1.039763E-20
3.240000E+03	1.388540E-20	9.813384E-21
3.250000E+03	1.334841E-20	9.266590E-21
3.260000E+03	1.284782E-20	8.754963E-21
3.270000E+03	1.238195E-20	8.276341E-21
3.280000E+03	1.194922E-20	7.828690E-21
3.290000E+03	1.154819E-20	7.410096E-21
3.300000E+03	1.117752E-20	7.018761E-21
3.310000E+03	1.083602E-20	6.652996E-21
3.320000E+03	1.052415E-20	6.312145E-21
3.330000E+03	1.023781E-20	5.992829E-21
3.340000E+03	9.977775E-21	5.694642E-21
3.350000E+03	9.744750E-21	5.417089E-21
3.360000E+03	9.535291E-21	5.157354E-21
3.370000E+03	9.350419E-21	4.915164E-21
3.380000E+03	9.191177E-21	4.690184E-21
3.390000E+03	9.056048E-21	4.480743E-21
3.400000E+03	8.943771E-21	4.285390E-21
3.410000E+03	8.857160E-21	4.104653E-21
3.420000E+03	8.795303E-21	3.937239E-21
3.430000E+03	8.757553E-21	3.782068E-21
3.440000E+03	8.747279E-21	3.639826E-21
3.450000E+03	8.764317E-21	3.509653E-21
3.460000E+03	8.810062E-21	3.391403E-21
3.470000E+03	8.886234E-21	3.285109E-21
3.480000E+03	8.994925E-21	3.191012E-21
3.490000E+03	9.138644E-21	3.109604E-21
3.500000E+03	9.320380E-21	3.041684E-21
3.510000E+03	9.543659E-21	2.988420E-21
3.520000E+03	9.812631E-21	2.951422E-21
3.530000E+03	1.013358E-20	2.933237E-21
3.540000E+03	1.050935E-20	2.935772E-21
3.550000E+03	1.094791E-20	2.962868E-21
3.560000E+03	1.145688E-20	3.018690E-21
3.570000E+03	1.204678E-20	3.108624E-21
3.580000E+03	1.272453E-20	3.237569E-21
3.590000E+03	1.350541E-20	3.412990E-21
3.600000E+03	1.439934E-20	3.641347E-21
3.610000E+03	1.542596E-20	3.931904E-21
3.620000E+03	1.659922E-20	4.292862E-21
3.630000E+03	1.794451E-20	4.735825E-21
3.640000E+03	1.948118E-20	5.271441E-21
3.650000E+03	2.124238E-20	5.914833E-21
3.660000E+03	2.325795E-20	6.681308E-21
3.670000E+03	2.556181E-20	7.588475E-21
3.680000E+03	2.820399E-20	8.660141E-21
3.690000E+03	3.123149E-20	9.921013E-21
3.700000E+03	3.470247E-20	1.140114E-20
3.710000E+03	3.868438E-20	1.313570E-20
3.720000E+03	4.324948E-20	1.516378E-20
3.730000E+03	4.849955E-20	1.753722E-20
3.740000E+03	5.453434E-20	2.031022E-20
3.750000E+03	6.147569E-20	2.354792E-20
3.760000E+03	6.946475E-20	2.732602E-20
3.770000E+03	7.866511E-20	3.173232E-20
3.780000E+03	8.926623E-20	3.686852E-20
3.790000E+03	1.014874E-19	4.285218E-20
3.800000E+03	1.155825E-19	4.981900E-20
3.810000E+03	1.318450E-19	5.792529E-20
3.820000E+03	1.506140E-19	6.735079E-20
3.830000E+03	1.722810E-19	7.830169E-20
3.840000E+03	1.972977E-19	9.101405E-20
3.850000E+03	2.261846E-19	1.057575E-19
3.860000E+03	2.595410E-19	1.228391E-19
3.870000E+03	2.980559E-19	1.426079E-19
3.880000E+03	3.425659E-19	1.654811E-19
3.890000E+03	3.938939E-19	1.918645E-19
3.900000E+03	4.531186E-19	2.222796E-19
3.910000E+03	5.214276E-19	2.572899E-19
3.920000E+03	6.001762E-19	2.975249E-19
3.930000E+03	6.909083E-19	3.436847E-19
3.940000E+03	7.953788E-19	3.965446E-19
3.950000E+03	9.156989E-19	4.570191E-19
3.960000E+03	1.053899E-18	5.259330E-19
3.970000E+03	1.212629E-18	6.043584E-19
3.980000E+03	1.394755E-18	6.933990E-19
3.990000E+03	1.603495E-18	7.942399E-19
4.000000E+03	1.842456E-18	9.081442E-19
4.010000E+03	2.115938E-18	1.036579E-18
4.020000E+03	2.427911E-18	1.180684E-18
4.030000E+03	2.783583E-18	1.342011E-18
4.040000E+03	3.188445E-18	1.522015E-18
4.050000E+03	3.648539E-18	1.722146E-18
4.060000E+03	4.170485E-18	1.943814E-18
4.070000E+03	4.761503E-18	2.188348E-18
4.080000E+03	5.429432E-18	2.456948E-18
4.090000E+03	6.182732E-18	2.750625E-18
4.100000E+03	7.030484E-18	3.070133E-18
4.110000E+03	7.982372E-18	3.415896E-18
4.120000E+03	9.048650E-18	3.787914E-18
4.130000E+03	1.024010E-17	4.185675E-18
4.140000E+03	1.156794E-17	4.608048E-18
4.150000E+03	1.304375E-17	5.053172E-18
4.160000E+03	1.467935E-17	5.518342E-18
4.170000E+03	1.648662E-17	5.999891E-18
4.180000E+03	1.847736E-17	6.493075E-18
4.190000E+03	2.066304E-17	6.991963E-18
4.200000E+03	2.305454E-17	7.489338E-18
4.210000E+03	2.566188E-17	7.976614E-18
4.220000E+03	2.849031E-17	8.442719E-18
4.230000E+03	3.155388E-17	8.878257E-18
4.240000E+03	3.485468E-17	9.269323E-18
4.250000E+03	3.839561E-17	9.601640E-18
4.260000E+03	4.217151E-17	9.858445E-18
4.270000E+03	4.618916E-17	1.002559E-17
4.280000E+03	5.043047E-17	1.008323E-17
4.290000E+03	5.489611E-17	1.001606E-17
4.300000E+03	5.955684E-17	9.803867E-18
4.310000E+03	6.440552E-17	9.431985E-18
4.320000E+03	6.939979E-17	8.882376E-18
4.330000E+03	7.452321E-17	8.144128E-18
4.340000E+03	7.971871E-17	7.206135E-18
4.350000E+03	8.494912E-17	6.067834E-18
4.360000E+03	9.016218E-17	4.743175E-18
4.370000E+03	9.531092E-17	3.294018E-18
4.380000E+03	1.003078E-16	2.016528E-18
4.390000E+03	1.050947E-16	2.121736E-18
4.400000E+03	1.096215E-16	3.709855E-18
4.410000E+03	1.138611E-16	5.689759E-18
4.420000E+03	1.177916E-16	7.762757E-18
4.430000E+03	1.213955E-16	9.837932E-18
4.440000E+03	1.246593E-16	1.186520E-17
4.450000E+03	1.275587E-16	1.380565E-17
4.460000E+03	1.301194E-16	1.563155E-17
4.470000E+03	1.323252E-16	1.731513E-17
4.480000E+03	1.341626E-16	1.883184E-17
4.490000E+03	1.356700E-16	2.016757E-17
4.500000E+03	1.368408E-16	2.130549E-17
4.510000E+03	1.376704E-16	2.223181E-17
4.520000E+03	1.381899E-16	2.294145E-17
4.530000E+03	1.384326E-16	2.343302E-17
4.540000E+03	1.383839E-16	2.369979E-17
4.550000E+03	1.380800E-16	2.374622E-17
4.560000E+03	1.375419E-16	2.357648E-17
4.570000E+03	1.367910E-16	2.319691E-17
4.580000E+03	1.358492E-16	2.261566E-17
4.590000E+03	1.347384E-16	2.184238E-17
4.600000E+03	1.334804E-16	2.088786E-17
4.610000E+03	1.320965E-16	1.976371E-17
4.620000E+03	1.306076E-16	1.848206E-17
4.630000E+03	1.290184E-16	1.705330E-17
4.640000E+03	1.273790E-16	1.549405E-17
4.650000E+03	1.256777E-16	1.381272E-17
4.660000E+03	1.239620E-16	1.202465E-17
4.670000E+03	1.222193E-16	1.013835E-17
4.680000E+03	1.204810E-16	8.167023E-18
4.690000E+03	1.187768E-16	6.124515E-18
4.700000E+03	1.170944E-16	4.030921E-18
4.710000E+03	1.154640E-16	1.970571E-18
4.720000E+03	1.139018E-16	1.113146E-18
4.730000E+03	1.124170E-16	2.908332E-18
4.740000E+03	1.110048E-16	4.955925E-18
4.750000E+03	1.096472E-16	6.962743E-18
4.760000E+03	1.083665E-16	8.903243E-18
4.770000E+03	1.071470E-16	1.077274E-17
4.780000E+03	1.059744E-16	1.257022E-17
4.790000E+03	1.048722E-16	1.430001E-17
4.800000E+03	1.038145E-16	1.596092E-17
4.810000E+03	1.028127E-16	1.755642E-17
4.820000E+03	1.018658E-16	1.908848E-17
4.830000E+03	1.009726E-16	2.055905E-17
4.840000E+03	1.001322E-16	2.196999E-17
4.850000E+03	9.934343E-17	2.332308E-17
4.860000E+03	9.860519E-17	2.462004E-17
4.870000E+03	9.791631E-17	2.586245E-17
4.880000E+03	9.727560E-17	2.705181E-17
4.890000E+03	9.667073E-17	2.818626E-17
4.900000E+03	9.612281E-17	2.927343E-17
4.910000E+03	9.560844E-17	3.030787E-17
4.920000E+03	9.514843E-17	3.129747E-17
4.930000E+03	9.471969E-17	3.223610E-17
4.940000E+03	9.433201E-17	3.312805E-17
4.950000E+03	9.398423E-17	3.397404E-17
4.960000E+03	9.367519E-17	3.477468E-17
4.970000E+03	9.340378E-17	3.553045E-17
4.980000E+03	9.316890E-17	3.624173E-17
4.990000E+03	9.295890E-17	3.690461E-17
5.000000E+03	9.279395E-17	3.752760E-17
5.010000E+03	9.266240E-17	3.810666E-17
5.020000E+03	9.255274E-17	3.863736E-17
5.030000E+03	9.247454E-17	3.912389E-17
5.040000E+03	9.243732E-17	3.957054E-17
5.050000E+03	9.241914E-17	3.996808E-17
5.060000E+03	9.242954E-17	4.032058E-17
5.070000E+03	9.246759E-17	4.062759E-17
5.080000E+03	9.253235E-17	4.088855E-17
5.090000E+03	9.262289E-17	4.110283E-17
5.100000E+03	9.273827E-17	4.126972E-17
5.110000E+03	9.286707E-17	4.138377E-17
5.120000E+03	9.302929E-17	4.145345E-17
5.130000E+03	9.320300E-17	4.146850E-17
5.140000E+03	9.340822E-17	4.143727E-17
5.150000E+03	9.362291E-17	4.134938E-17
5.160000E+03	9.385657E-17	4.120840E-17
5.170000E+03	9.410814E-17	4.101319E-17
5.180000E+03	9.437657E-17	4.076255E-17
5.190000E+03	9.466075E-17	4.045523E-17
5.200000E+03	9.495954E-17	4.008999E-17
5.210000E+03	9.527180E-17	3.966551E-17
5.220000E+03	9.559631E-17	3.918049E-17
5.230000E+03	9.592111E-17	3.862929E-17
5.240000E+03	9.626638E-17	3.801929E-17
5.250000E+03	9.660928E-17	3.734063E-17
5.260000E+03	9.695921E-17	3.659636E-17
5.270000E+03	9.732565E-17	3.578924E-17
5.280000E+03	9.768546E-17	3.490998E-17
5.290000E+03	9.804801E-17	3.396154E-17
5.300000E+03	9.841180E-17	3.294284E-17
5.310000E+03	9.877530E-17	3.185291E-17
5.320000E+03	9.913694E-17	3.069086E-17
5.330000E+03	9.948406E-17	2.945262E-17
5.340000E+03	9.983714E-17	2.814425E-17
5.350000E+03	1.001724E-16	2.675885E-17
5.360000E+03	1.005104E-16	2.530216E-17
5.370000E+03	1.008273E-16	2.376823E-17
5.380000E+03	1.011436E-16	2.216251E-17
5.390000E+03	1.014355E-16	2.048010E-17
5.400000E+03	1.017125E-16	1.872406E-17
5.410000E+03	1.019729E-16	1.689499E-17
5.420000E+03	1.022154E-16	1.499372E-17
5.430000E+03	1.024385E-16	1.302124E-17
5.440000E+03	1.026407E-16	1.097876E-17
5.450000E+03	1.028094E-16	8.866764E-18
5.460000E+03	1.029663E-16	6.689630E-18
5.470000E+03	1.030875E-16	4.450327E-18
5.480000E+03	1.031949E-16	2.169861E-18
5.490000E+03	1.032650E-16	5.830526E-19
5.500000E+03	1.033203E-16	2.677616E-18
5.510000E+03	1.033381E-16	4.958623E-18
5.520000E+03	1.033302E-16	7.192525E-18
5.530000E+03	1.032972E-16	9.365795E-18
5.540000E+03	1.032398E-16	1.147428E-17
5.550000E+03	1.031589E-16	1.351564E-17
5.560000E+03	1.030554E-16	1.548806E-17
5.570000E+03	1.029191E-16	1.738803E-17
5.580000E+03	1.027738E-16	1.921777E-17
5.590000E+03	1.026094E-16	2.097433E-17
5.600000E+03	1.024158E-16	2.265416E-17
5.610000E+03	1.022168E-16	2.426120E-17
5.620000E+03	1.019913E-16	2.578962E-17
5.630000E+03	1.017517E-16	2.724143E-17
5.640000E+03	1.015106E-16	2.861947E-17
5.650000E+03	1.012468E-16	2.991742E-17
5.660000E+03	1.009727E-16	3.113827E-17
5.670000E+03	1.006897E-16	3.228211E-17
5.680000E+03	1.003988E-16	3.334918E-17
5.690000E+03	1.001012E-16	3.433980E-17
5.700000E+03	9.978704E-17	3.525050E-17
5.710000E+03	9.947924E-17	3.608941E-17
5.720000E+03	9.916780E-17	3.685331E-17
5.730000E+03	9.884277E-17	3.753867E-17
5.740000E+03	9.852674E-17	3.815430E-17
5.750000E+03	9.819880E-17	3.869256E-17
5.760000E+03	9.788125E-17	3.916257E-17
5.770000E+03	9.755322E-17	3.955650E-17
5.780000E+03	9.722605E-17	3.987931E-17
5.790000E+03	9.690022E-17	4.013171E-17
5.800000E+03	9.657618E-17	4.031439E-17
5.810000E+03	9.625426E-17	4.042806E-17
5.820000E+03	9.593476E-17	4.047336E-17
5.830000E+03	9.561788E-17	4.045096E-17
5.840000E+03	9.530377E-17	4.036145E-17
5.850000E+03	9.499250E-17	4.020544E-17
5.860000E+03	9.468409E-17	3.998349E-17
5.870000E+03	9.436812E-17	3.969178E-17
5.880000E+03	9.406520E-17	3.933956E-17
5.890000E+03	9.376475E-17	3.892294E-17
5.900000E+03	9.345629E-17	3.843816E-17
5.910000E+03	9.314981E-17	3.789000E-17
5.920000E+03	9.285510E-17	3.728299E-17
5.930000E+03	9.255134E-17	3.660932E-17
5.940000E+03	9.224824E-17	3.587357E-17
5.950000E+03	9.195531E-17	3.508001E-17
5.960000E+03	9.165174E-17	3.422130E-17
5.970000E+03	9.134696E-17	3.330180E-17
5.980000E+03	9.104022E-17	3.232198E-17
5.990000E+03	9.073070E-17	3.128233E-17
6.000000E+03	9.041752E-17	3.018337E-17
6.010000E+03	9.009972E-17	2.902568E-17
6.020000E+03	8.976645E-17	2.780683E-17
6.030000E+03	8.943630E-17	2.653375E-17
6.040000E+03	8.909820E-17	2.520405E-17
6.050000E+03	8.875089E-17	2.381858E-17
6.060000E+03	8.838331E-17	2.237589E-17
6.070000E+03	8.801346E-17	2.088218E-17
6.080000E+03	8.762052E-17	1.933399E-17
6.090000E+03	8.722226E-17	1.773724E-17
6.100000E+03	8.679813E-17	1.608959E-17
6.110000E+03	8.635654E-17	1.439514E-17
6.120000E+03	8.590621E-17	1.265762E-17
6.130000E+03	8.542830E-17	1.087677E-17
6.140000E+03	8.493371E-17	9.057435E-18
6.150000E+03	8.442590E-17	7.203830E-18
6.160000E+03	8.391140E-17	5.322638E-18
6.170000E+03	8.341012E-17	3.430331E-18
6.180000E+03	8.291996E-17	1.609227E-18
6.190000E+03	8.247265E-17	1.076202E-18
6.200000E+03	8.207476E-17	2.733867E-18
6.210000E+03	8.169447E-17	4.583511E-18
6.220000E+03	8.133124E-17	6.418638E-18
6.230000E+03	8.096401E-17	8.214834E-18
6.240000E+03	8.058565E-17	9.965371E-18
6.250000E+03	8.019256E-17	1.166732E-17
6.260000E+03	7.977479E-17	1.331759E-17
6.270000E+03	7.935019E-17	1.491795E-17
6.280000E+03	7.891114E-17	1.646659E-17
6.290000E+03	7.845065E-17	1.796134E-17
6.300000E+03	7.798786E-17	1.940608E-17
6.310000E+03	7.750747E-17	2.079704E-17
6.320000E+03	7.702842E-17	2.213918E-17
6.330000E+03	7.653547E-17	2.342845E-17
6.340000E+03	7.603878E-17	2.466798E-17
6.350000E+03	7.554816E-17	2.586154E-17
6.360000E+03	7.504832E-17	2.700459E-17
6.370000E+03	7.454891E-17	2.810093E-17
6.380000E+03	7.405925E-17	2.915493E-17
6.390000E+03	7.356403E-17	3.016147E-17
6.400000E+03	7.307246E-17	3.112486E-17
6.410000E+03	7.258543E-17	3.204636E-17
6.420000E+03	7.210375E-17	3.292724E-17
6.430000E+03	7.162819E-17	3.376877E-17
6.440000E+03	7.115944E-17	3.457225E-17
6.450000E+03	7.069814E-17	3.533895E-17
6.460000E+03	7.024488E-17	3.607016E-17
6.470000E+03	6.980018E-17	3.676715E-17
6.480000E+03	6.936454E-17	3.743116E-17
6.490000E+03	6.893841E-17	3.806344E-17
6.500000E+03	6.852221E-17	3.866521E-17
6.510000E+03	6.811632E-17	3.923766E-17
6.520000E+03	6.771360E-17	3.977757E-17
6.530000E+03	6.732937E-17	4.029481E-17
6.540000E+03	6.695639E-17	4.078616E-17
6.550000E+03	6.658758E-17	4.124815E-17
6.560000E+03	6.623792E-17	4.169089E-17
6.570000E+03	6.590025E-17	4.211090E-17
6.580000E+03	6.556752E-17	4.250447E-17
6.590000E+03	6.525444E-17	4.288191E-17
6.600000E+03	6.494670E-17	4.323468E-17
6.610000E+03	6.465888E-17	4.357321E-17
6.620000E+03	6.437675E-17	4.388874E-17
6.630000E+03	6.411472E-17	4.419175E-17
6.640000E+03	6.385870E-17	4.447328E-17
6.650000E+03	6.362294E-17	4.474389E-17
6.660000E+03	6.339342E-17	4.499439E-17
6.670000E+03	6.317730E-17	4.523037E-17
6.680000E+03	6.298163E-17	4.545751E-17
6.690000E+03	6.279250E-17	4.566635E-17
6.700000E+03	6.261696E-17	4.586246E-17
6.710000E+03	6.245506E-17	4.604635E-17
6.720000E+03	6.231377E-17	4.622363E-17
6.730000E+03	6.217927E-17	4.638450E-17
6.740000E+03	6.205853E-17	4.653448E-17
6.750000E+03	6.195155E-17	4.667393E-17
6.760000E+03	6.185837E-17	4.680317E-17
6.770000E+03	6.177897E-17	4.692248E-17
6.780000E+03	6.171337E-17	4.703212E-17
6.790000E+03	6.166154E-17	4.713227E-17
6.800000E+03	6.162346E-17	4.722312E-17
6.810000E+03	6.159911E-17	4.730476E-17
6.820000E+03	6.158843E-17	4.737729E-17
6.830000E+03	6.159138E-17	4.744074E-17
6.840000E+03	6.160789E-17	4.749509E-17
6.850000E+03	6.163789E-17	4.754029E-17
6.860000E+03	6.168127E-17	4.757626E-17
6.870000E+03	6.173104E-17	4.759752E-17
6.880000E+03	6.180084E-17	4.761452E-17
6.890000E+03	6.188366E-17	4.762170E-17
6.900000E+03	6.197933E-17	4.761880E-17
6.910000E+03	6.208074E-17	4.760016E-17
6.920000E+03	6.220155E-17	4.757604E-17
6.930000E+03	6.233462E-17	4.754069E-17
6.940000E+03	6.247271E-17	4.748835E-17
6.950000E+03	6.262952E-17	4.742911E-17
6.960000E+03	6.279779E-17	4.735709E-17
6.970000E+03	6.297015E-17	4.726639E-17
6.980000E+03	6.316033E-17	4.716693E-17
6.990000E+03	6.335383E-17	4.704743E-17
7.000000E+03	6.356443E-17	4.691770E-17
7.010000E+03	6.377746E-17	4.676640E-17
7.020000E+03	6.399955E-17	4.659796E-17
7.030000E+03	6.423740E-17	4.641672E-17
7.040000E+03	6.447611E-17	4.621131E-17
7.050000E+03	6.472953E-17	4.599115E-17
7.060000E+03	6.498255E-17	4.574490E-17
7.070000E+03	6.524177E-17	4.547670E-17
7.080000E+03	6.550649E-17	4.518549E-17
7.090000E+03	6.578339E-17	4.487522E-17
7.100000E+03	6.605694E-17	4.453463E-17
7.110000E+03	6.633368E-17	4.416766E-17
7.120000E+03	6.661277E-17	4.377314E-17
7.130000E+03	6.689332E-17	4.334990E-17
7.140000E+03	6.717436E-17	4.289674E-17
7.150000E+03	6.745493E-17	4.241249E-17
7.160000E+03	6.773399E-17	4.189594E-17
7.170000E+03	6.801045E-17	4.134593E-17
7.180000E+03	6.828319E-17	4.076128E-17
7.190000E+03	6.855104E-17	4.014086E-17
7.200000E+03	6.881278E-17	3.948355E-17
7.210000E+03	6.906714E-17	3.878827E-17
7.220000E+03	6.931280E-17	3.805399E-17
7.230000E+03	6.954840E-17	3.727974E-17
7.240000E+03	6.977254E-17	3.646460E-17
7.250000E+03	6.997582E-17	3.560371E-17
7.260000E+03	7.017259E-17	3.470448E-17
7.270000E+03	7.035340E-17	3.376212E-17
7.280000E+03	7.051665E-17	3.277610E-17
7.290000E+03	7.065270E-17	3.174236E-17
7.300000E+03	7.077590E-17	3.066794E-17
7.310000E+03	7.087653E-17	2.954897E-17
7.320000E+03	7.094477E-17	2.838221E-17
7.330000E+03	7.099497E-17	2.717443E-17
7.340000E+03	7.100914E-17	2.591968E-17
7.350000E+03	7.100160E-17	2.462455E-17
7.360000E+03	7.095429E-17	2.328407E-17
7.370000E+03	7.087339E-17	2.190222E-17
7.380000E+03	7.076507E-17	2.048260E-17
7.390000E+03	7.061126E-17	1.902193E-17
7.400000E+03	7.041817E-17	1.752455E-17
7.410000E+03	7.019207E-17	1.599449E-17
7.420000E+03	6.991529E-17	1.443046E-17
7.430000E+03	6.959463E-17	1.283745E-17
7.440000E+03	6.922936E-17	1.121892E-17
7.450000E+03	6.882753E-17	9.580041E-18
7.460000E+03	6.837486E-17	7.923351E-18
7.470000E+03	6.788283E-17	6.256596E-18
7.480000E+03	6.735789E-17	4.590134E-18
7.490000E+03	6.681043E-17	2.948924E-18
7.500000E+03	6.625580E-17	1.455373E-18
7.510000E+03	6.571466E-17	1.172362E-18
7.520000E+03	6.519122E-17	2.500189E-18
7.530000E+03	6.465786E-17	4.027254E-18
7.540000E+03	6.411410E-17	5.543363E-18
7.550000E+03	6.354290E-17	7.015947E-18
7.560000E+03	6.293918E-17	8.434818E-18
7.570000E+03	6.230108E-17	9.795167E-18
7.580000E+03	6.162177E-17	1.109294E-17
7.590000E+03	6.091718E-17	1.232887E-17
7.600000E+03	6.018256E-17	1.350087E-17
7.610000E+03	5.941387E-17	1.460687E-17
7.620000E+03	5.862794E-17	1.565022E-17
7.630000E+03	5.781417E-17	1.662788E-17
7.640000E+03	5.698898E-17	1.754439E-17
7.650000E+03	5.614192E-17	1.839687E-17
7.660000E+03	5.528239E-17	1.918855E-17
7.670000E+03	5.441924E-17	1.992324E-17
7.680000E+03	5.354213E-17	2.059806E-17
7.690000E+03	5.265969E-17	2.121700E-17
7.700000E+03	5.178001E-17	2.178449E-17
7.710000E+03	5.089287E-17	2.229749E-17
7.720000E+03	5.000615E-17	2.276049E-17
7.730000E+03	4.912150E-17	2.317558E-17
7.740000E+03	4.824043E-17	2.354483E-17
7.750000E+03	4.736432E-17	2.387038E-17
7.760000E+03	4.649444E-17	2.415433E-17
