#wls	flux	fluxerr
1.600000E+03	2.377562E-18	2.879872E-18
1.640000E+03	2.289260E-18	2.771549E-18
1.680000E+03	2.198456E-18	2.660184E-18
1.720000E+03	2.105372E-18	2.546051E-18
1.760000E+03	2.010272E-18	2.429477E-18
1.800000E+03	1.913797E-18	2.311240E-18
1.840000E+03	1.815917E-18	2.191314E-18
1.880000E+03	1.717012E-18	2.070166E-18
1.920000E+03	1.617500E-18	1.948311E-18
1.960000E+03	1.518099E-18	1.826625E-18
2.000000E+03	1.418983E-18	1.705333E-18
2.040000E+03	1.320655E-18	1.585052E-18
2.080000E+03	1.223842E-18	1.466673E-18
2.120000E+03	1.128620E-18	1.350304E-18
2.160000E+03	1.035916E-18	1.237076E-18
2.200000E+03	9.461823E-19	1.127548E-18
2.240000E+03	8.597007E-19	1.022076E-18
2.280000E+03	7.769125E-19	9.212044E-19
2.320000E+03	6.982122E-19	8.254201E-19
2.360000E+03	6.239373E-19	7.351395E-19
2.400000E+03	5.544564E-19	6.508098E-19
2.440000E+03	4.899370E-19	5.726361E-19
2.480000E+03	4.303296E-19	5.005640E-19
2.520000E+03	3.758466E-19	4.348396E-19
2.560000E+03	3.263839E-19	3.753320E-19
2.600000E+03	2.818977E-19	3.219738E-19
2.640000E+03	2.421686E-19	2.744887E-19
2.680000E+03	2.069843E-19	2.326027E-19
2.720000E+03	1.760843E-19	1.959815E-19
2.760000E+03	1.491963E-19	1.642727E-19
2.800000E+03	1.259639E-19	1.370271E-19
2.840000E+03	1.060687E-19	1.138362E-19
2.880000E+03	8.913158E-20	9.422638E-20
2.920000E+03	7.485092E-20	7.780912E-20
2.960000E+03	6.289825E-20	6.417056E-20
3.000000E+03	5.294917E-20	5.290729E-20
3.010000E+03	5.074593E-20	5.042512E-20
3.020000E+03	4.864695E-20	4.806492E-20
3.030000E+03	4.664830E-20	4.582174E-20
3.040000E+03	4.474613E-20	4.369074E-20
3.050000E+03	4.293672E-20	4.166726E-20
3.060000E+03	4.121644E-20	3.974677E-20
3.070000E+03	3.958181E-20	3.792486E-20
3.080000E+03	3.802944E-20	3.619730E-20
3.090000E+03	3.655609E-20	3.456000E-20
3.100000E+03	3.516442E-20	3.301446E-20
3.110000E+03	3.383954E-20	3.154571E-20
3.120000E+03	3.258462E-20	3.015581E-20
3.130000E+03	3.139686E-20	2.884123E-20
3.140000E+03	3.027361E-20	2.759862E-20
3.150000E+03	2.921230E-20	2.642472E-20
3.160000E+03	2.821516E-20	2.532063E-20
3.170000E+03	2.727042E-20	2.427486E-20
3.180000E+03	2.638071E-20	2.328896E-20
3.190000E+03	2.554395E-20	2.236024E-20
3.200000E+03	2.476226E-20	2.148969E-20
3.210000E+03	2.402553E-20	2.066767E-20
3.220000E+03	2.333624E-20	1.989559E-20
3.230000E+03	2.269280E-20	1.917128E-20
3.240000E+03	2.209734E-20	1.849575E-20
3.250000E+03	2.154117E-20	1.786092E-20
3.260000E+03	2.103020E-20	1.727098E-20
3.270000E+03	2.055637E-20	1.671853E-20
3.280000E+03	2.012220E-20	1.620497E-20
3.290000E+03	1.973006E-20	1.573145E-20
3.300000E+03	1.937271E-20	1.529149E-20
3.310000E+03	1.905596E-20	1.488901E-20
3.320000E+03	1.877309E-20	1.451805E-20
3.330000E+03	1.852696E-20	1.418022E-20
3.340000E+03	1.832039E-20	1.387701E-20
3.350000E+03	1.814740E-20	1.360321E-20
3.360000E+03	1.801413E-20	1.336283E-20
3.370000E+03	1.791504E-20	1.315113E-20
3.380000E+03	1.785656E-20	1.297224E-20
3.390000E+03	1.783364E-20	1.282190E-20
3.400000E+03	1.785308E-20	1.270442E-20
3.410000E+03	1.791323E-20	1.261805E-20
3.420000E+03	1.801269E-20	1.256128E-20
3.430000E+03	1.815908E-20	1.253891E-20
3.440000E+03	1.834867E-20	1.254784E-20
3.450000E+03	1.858982E-20	1.259334E-20
3.460000E+03	1.887943E-20	1.267281E-20
3.470000E+03	1.922683E-20	1.279212E-20
3.480000E+03	1.963280E-20	1.295135E-20
3.490000E+03	2.009842E-20	1.315086E-20
3.500000E+03	2.063497E-20	1.339774E-20
3.510000E+03	2.124488E-20	1.369325E-20
3.520000E+03	2.193094E-20	1.403897E-20
3.530000E+03	2.270722E-20	1.444378E-20
3.540000E+03	2.357844E-20	1.491053E-20
3.550000E+03	2.454980E-20	1.544251E-20
3.560000E+03	2.563939E-20	1.605117E-20
3.570000E+03	2.685513E-20	1.674159E-20
3.580000E+03	2.820577E-20	1.751950E-20
3.590000E+03	2.971506E-20	1.840004E-20
3.600000E+03	3.139563E-20	1.939151E-20
3.610000E+03	3.326664E-20	2.050638E-20
3.620000E+03	3.534412E-20	2.175534E-20
3.630000E+03	3.766347E-20	2.316116E-20
3.640000E+03	4.024712E-20	2.473876E-20
3.650000E+03	4.312648E-20	2.650877E-20
3.660000E+03	4.632972E-20	2.849007E-20
3.670000E+03	4.991131E-20	3.071787E-20
3.680000E+03	5.391000E-20	3.321801E-20
3.690000E+03	5.837749E-20	3.602452E-20
3.700000E+03	6.336237E-20	3.916975E-20
3.710000E+03	6.895026E-20	4.270920E-20
3.720000E+03	7.520723E-20	4.668656E-20
3.730000E+03	8.221866E-20	5.115772E-20
3.740000E+03	9.008134E-20	5.618587E-20
3.750000E+03	9.888942E-20	6.183265E-20
3.760000E+03	1.087970E-19	6.819723E-20
3.770000E+03	1.199307E-19	7.536172E-20
3.780000E+03	1.324504E-19	8.342869E-20
3.790000E+03	1.465368E-19	9.251366E-20
3.800000E+03	1.623694E-19	1.027305E-19
3.810000E+03	1.802280E-19	1.142557E-19
3.820000E+03	2.003518E-19	1.272388E-19
3.830000E+03	2.230370E-19	1.418633E-19
3.840000E+03	2.486180E-19	1.583349E-19
3.850000E+03	2.774290E-19	1.768556E-19
3.860000E+03	3.099775E-19	1.977335E-19
3.870000E+03	3.467039E-19	2.212288E-19
3.880000E+03	3.881474E-19	2.476578E-19
3.890000E+03	4.348462E-19	2.773279E-19
3.900000E+03	4.876078E-19	3.107078E-19
3.910000E+03	5.471337E-19	3.481860E-19
3.920000E+03	6.142761E-19	3.902315E-19
3.930000E+03	6.899872E-19	4.373586E-19
3.940000E+03	7.752080E-19	4.900522E-19
3.950000E+03	8.713458E-19	5.490667E-19
3.960000E+03	9.796047E-19	6.149957E-19
3.970000E+03	1.101437E-18	6.885532E-19
3.980000E+03	1.238257E-18	7.703869E-19
3.990000E+03	1.392194E-18	8.615416E-19
4.000000E+03	1.565023E-18	9.627818E-19
4.010000E+03	1.758874E-18	1.075028E-18
4.020000E+03	1.975771E-18	1.199061E-18
4.030000E+03	2.218823E-18	1.336238E-18
4.040000E+03	2.490505E-18	1.487432E-18
4.050000E+03	2.793787E-18	1.653709E-18
4.060000E+03	3.131378E-18	1.835866E-18
4.070000E+03	3.507604E-18	2.035518E-18
4.080000E+03	3.925672E-18	2.253479E-18
4.090000E+03	4.388761E-18	2.490399E-18
4.100000E+03	4.902196E-18	2.747993E-18
4.110000E+03	5.469612E-18	3.026827E-18
4.120000E+03	6.094468E-18	3.327206E-18
4.130000E+03	6.783052E-18	3.650803E-18
4.140000E+03	7.539132E-18	3.997705E-18
4.150000E+03	8.366065E-18	4.367627E-18
4.160000E+03	9.270898E-18	4.762036E-18
4.170000E+03	1.025700E-17	5.180291E-18
4.180000E+03	1.132699E-17	5.621270E-18
4.190000E+03	1.248827E-17	6.086105E-18
4.200000E+03	1.374089E-17	6.572222E-18
4.210000E+03	1.509215E-17	7.080512E-18
4.220000E+03	1.654033E-17	7.607581E-18
4.230000E+03	1.809226E-17	8.154119E-18
4.240000E+03	1.974388E-17	8.715942E-18
4.250000E+03	2.150124E-17	9.293644E-18
4.260000E+03	2.335732E-17	9.882346E-18
4.270000E+03	2.531712E-17	1.048271E-17
4.280000E+03	2.737014E-17	1.108932E-17
4.290000E+03	2.952006E-17	1.170309E-17
4.300000E+03	3.175257E-17	1.231822E-17
4.310000E+03	3.406994E-17	1.293605E-17
4.320000E+03	3.645387E-17	1.355051E-17
4.330000E+03	3.889952E-17	1.416128E-17
4.340000E+03	4.140231E-17	1.476845E-17
4.350000E+03	4.393817E-17	1.536547E-17
4.360000E+03	4.650715E-17	1.595468E-17
4.370000E+03	4.908198E-17	1.652897E-17
4.380000E+03	5.165513E-17	1.708805E-17
4.390000E+03	5.421212E-17	1.762898E-17
4.400000E+03	5.674694E-17	1.815117E-17
4.410000E+03	5.922846E-17	1.864541E-17
4.420000E+03	6.165086E-17	1.911006E-17
4.430000E+03	6.400081E-17	1.954032E-17
4.440000E+03	6.627576E-17	1.993394E-17
4.450000E+03	6.844469E-17	2.027933E-17
4.460000E+03	7.050699E-17	2.057350E-17
4.470000E+03	7.245377E-17	2.081037E-17
4.480000E+03	7.427758E-17	2.098386E-17
4.490000E+03	7.597247E-17	2.108806E-17
4.500000E+03	7.753401E-17	2.111734E-17
4.510000E+03	7.895930E-17	2.106654E-17
4.520000E+03	8.025893E-17	2.093421E-17
4.530000E+03	8.140906E-17	2.071015E-17
4.540000E+03	8.242286E-17	2.039437E-17
4.550000E+03	8.330295E-17	1.998454E-17
4.560000E+03	8.404050E-17	1.947626E-17
4.570000E+03	8.466524E-17	1.887477E-17
4.580000E+03	8.517035E-17	1.817723E-17
4.590000E+03	8.556215E-17	1.738455E-17
4.600000E+03	8.584759E-17	1.649835E-17
4.610000E+03	8.603406E-17	1.552090E-17
4.620000E+03	8.612929E-17	1.445504E-17
4.630000E+03	8.614120E-17	1.330415E-17
4.640000E+03	8.606503E-17	1.207026E-17
4.650000E+03	8.593436E-17	1.076151E-17
4.660000E+03	8.574425E-17	9.380839E-18
4.670000E+03	8.550236E-17	7.934159E-18
4.680000E+03	8.520347E-17	6.428465E-18
4.690000E+03	8.487997E-17	4.879377E-18
4.700000E+03	8.451341E-17	3.318126E-18
4.710000E+03	8.413530E-17	1.881294E-18
4.720000E+03	8.373914E-17	1.391658E-18
4.730000E+03	8.331784E-17	2.529765E-18
4.740000E+03	8.290003E-17	4.065002E-18
4.750000E+03	8.246463E-17	5.639325E-18
4.760000E+03	8.203921E-17	7.193808E-18
4.770000E+03	8.160232E-17	8.710000E-18
4.780000E+03	8.118058E-17	1.018414E-17
4.790000E+03	8.075213E-17	1.161082E-17
4.800000E+03	8.033081E-17	1.299012E-17
4.810000E+03	7.992992E-17	1.432365E-17
4.820000E+03	7.952712E-17	1.560724E-17
4.830000E+03	7.913526E-17	1.684291E-17
4.840000E+03	7.876675E-17	1.803351E-17
4.850000E+03	7.839901E-17	1.917425E-17
4.860000E+03	7.804420E-17	2.026797E-17
4.870000E+03	7.770269E-17	2.131506E-17
4.880000E+03	7.737474E-17	2.231594E-17
4.890000E+03	7.707185E-17	2.327443E-17
4.900000E+03	7.677148E-17	2.418425E-17
4.910000E+03	7.648502E-17	2.504906E-17
4.920000E+03	7.621247E-17	2.586925E-17
4.930000E+03	7.595378E-17	2.664517E-17
4.940000E+03	7.570886E-17	2.737714E-17
4.950000E+03	7.547759E-17	2.806548E-17
4.960000E+03	7.525982E-17	2.871047E-17
4.970000E+03	7.505538E-17	2.931234E-17
4.980000E+03	7.486407E-17	2.987133E-17
4.990000E+03	7.467478E-17	3.038317E-17
5.000000E+03	7.450910E-17	3.085683E-17
5.010000E+03	7.435586E-17	3.128807E-17
5.020000E+03	7.421478E-17	3.167697E-17
5.030000E+03	7.408561E-17	3.202361E-17
5.040000E+03	7.395727E-17	3.232329E-17
5.050000E+03	7.385103E-17	3.258539E-17
5.060000E+03	7.375578E-17	3.280522E-17
5.070000E+03	7.366049E-17	3.297790E-17
5.080000E+03	7.358626E-17	3.311293E-17
5.090000E+03	7.352203E-17	3.320541E-17
5.100000E+03	7.345676E-17	3.325035E-17
5.110000E+03	7.341145E-17	3.325726E-17
5.120000E+03	7.336439E-17	3.321628E-17
5.130000E+03	7.333650E-17	3.313686E-17
5.140000E+03	7.330609E-17	3.300914E-17
5.150000E+03	7.328341E-17	3.283771E-17
5.160000E+03	7.327866E-17	3.262707E-17
5.170000E+03	7.327018E-17	3.236743E-17
5.180000E+03	7.326815E-17	3.206331E-17
5.190000E+03	7.328275E-17	3.171902E-17
5.200000E+03	7.329230E-17	3.132503E-17
5.210000E+03	7.330697E-17	3.088573E-17
5.220000E+03	7.332629E-17	3.040084E-17
5.230000E+03	7.336041E-17	2.987442E-17
5.240000E+03	7.338763E-17	2.929749E-17
5.250000E+03	7.341810E-17	2.867421E-17
5.260000E+03	7.345133E-17	2.800438E-17
5.270000E+03	7.348685E-17	2.728780E-17
5.280000E+03	7.352419E-17	2.652431E-17
5.290000E+03	7.356287E-17	2.571378E-17
5.300000E+03	7.360241E-17	2.485611E-17
5.310000E+03	7.364234E-17	2.395124E-17
5.320000E+03	7.368220E-17	2.299917E-17
5.330000E+03	7.372151E-17	2.199991E-17
5.340000E+03	7.375982E-17	2.095356E-17
5.350000E+03	7.379664E-17	1.986025E-17
5.360000E+03	7.382086E-17	1.871747E-17
5.370000E+03	7.385326E-17	1.753103E-17
5.380000E+03	7.388269E-17	1.629840E-17
5.390000E+03	7.390860E-17	1.501995E-17
5.400000E+03	7.391975E-17	1.369417E-17
5.410000E+03	7.393680E-17	1.232574E-17
5.420000E+03	7.394840E-17	1.091314E-17
5.430000E+03	7.394315E-17	9.455739E-18
5.440000E+03	7.394158E-17	7.957392E-18
5.450000E+03	7.392165E-17	6.416854E-18
5.460000E+03	7.390395E-17	4.838395E-18
5.470000E+03	7.386675E-17	3.226089E-18
5.480000E+03	7.383116E-17	1.607858E-18
5.490000E+03	7.377623E-17	5.760283E-19
5.500000E+03	7.372350E-17	1.957948E-18
5.510000E+03	7.365112E-17	3.569381E-18
5.520000E+03	7.357990E-17	5.156845E-18
5.530000E+03	7.348874E-17	6.701620E-18
5.540000E+03	7.338854E-17	8.199880E-18
5.550000E+03	7.329033E-17	9.651202E-18
5.560000E+03	7.317362E-17	1.105194E-17
5.570000E+03	7.304951E-17	1.240246E-17
5.580000E+03	7.291851E-17	1.370210E-17
5.590000E+03	7.278110E-17	1.495030E-17
5.600000E+03	7.264811E-17	1.614888E-17
5.610000E+03	7.249904E-17	1.729296E-17
5.620000E+03	7.234462E-17	1.838434E-17
5.630000E+03	7.218515E-17	1.942273E-17
5.640000E+03	7.202088E-17	2.040791E-17
5.650000E+03	7.185203E-17	2.133971E-17
5.660000E+03	7.167883E-17	2.221801E-17
5.670000E+03	7.150150E-17	2.304273E-17
5.680000E+03	7.132024E-17	2.381386E-17
5.690000E+03	7.113525E-17	2.453140E-17
5.700000E+03	7.094675E-17	2.519543E-17
5.710000E+03	7.075492E-17	2.580604E-17
5.720000E+03	7.055996E-17	2.636336E-17
5.730000E+03	7.035197E-17	2.686373E-17
5.740000E+03	7.015132E-17	2.731497E-17
5.750000E+03	6.994807E-17	2.771354E-17
5.760000E+03	6.974238E-17	2.805969E-17
5.770000E+03	6.952445E-17	2.834965E-17
5.780000E+03	6.931435E-17	2.859179E-17
5.790000E+03	6.910223E-17	2.878241E-17
5.800000E+03	6.887833E-17	2.891772E-17
5.810000E+03	6.866251E-17	2.900632E-17
5.820000E+03	6.844495E-17	2.904447E-17
5.830000E+03	6.821597E-17	2.902839E-17
5.840000E+03	6.799516E-17	2.896678E-17
5.850000E+03	6.776309E-17	2.885175E-17
5.860000E+03	6.753918E-17	2.869200E-17
5.870000E+03	6.730410E-17	2.847972E-17
5.880000E+03	6.707712E-17	2.822352E-17
5.890000E+03	6.683900E-17	2.791575E-17
5.900000E+03	6.660886E-17	2.756490E-17
5.910000E+03	6.636755E-17	2.716349E-17
5.920000E+03	6.613402E-17	2.671983E-17
5.930000E+03	6.588925E-17	2.622672E-17
5.940000E+03	6.564265E-17	2.568856E-17
5.950000E+03	6.540345E-17	2.510946E-17
5.960000E+03	6.515281E-17	2.448271E-17
5.970000E+03	6.489999E-17	2.381255E-17
5.980000E+03	6.464487E-17	2.309957E-17
5.990000E+03	6.439650E-17	2.234758E-17
6.000000E+03	6.413631E-17	2.155073E-17
6.010000E+03	6.387340E-17	2.071297E-17
6.020000E+03	6.360763E-17	1.983503E-17
6.030000E+03	6.333887E-17	1.891764E-17
6.040000E+03	6.307604E-17	1.796415E-17
6.050000E+03	6.280096E-17	1.697012E-17
6.060000E+03	6.252264E-17	1.593916E-17
6.070000E+03	6.224106E-17	1.487220E-17
6.080000E+03	6.195626E-17	1.377027E-17
6.090000E+03	6.166833E-17	1.263449E-17
6.100000E+03	6.137746E-17	1.146607E-17
6.110000E+03	6.108388E-17	1.026637E-17
6.120000E+03	6.078791E-17	9.036983E-18
6.130000E+03	6.048989E-17	7.779827E-18
6.140000E+03	6.019014E-17	6.497542E-18
6.150000E+03	5.988885E-17	5.194388E-18
6.160000E+03	5.958593E-17	3.879156E-18
6.170000E+03	5.928082E-17	2.577015E-18
6.180000E+03	5.896388E-17	1.405338E-18
6.190000E+03	5.864991E-17	1.114488E-18
6.200000E+03	5.832992E-17	2.108016E-18
6.210000E+03	5.800642E-17	3.363239E-18
6.220000E+03	5.768125E-17	4.641776E-18
6.230000E+03	5.734729E-17	5.903026E-18
6.240000E+03	5.702149E-17	7.137547E-18
6.250000E+03	5.669579E-17	8.340685E-18
6.260000E+03	5.637020E-17	9.510756E-18
6.270000E+03	5.603667E-17	1.064550E-17
6.280000E+03	5.571128E-17	1.174750E-17
6.290000E+03	5.538600E-17	1.281538E-17
6.300000E+03	5.505308E-17	1.384728E-17
6.310000E+03	5.472850E-17	1.484729E-17
6.320000E+03	5.440458E-17	1.581391E-17
6.330000E+03	5.407386E-17	1.674518E-17
6.340000E+03	5.375219E-17	1.764623E-17
6.350000E+03	5.342448E-17	1.851270E-17
6.360000E+03	5.310641E-17	1.935034E-17
6.370000E+03	5.278312E-17	2.015437E-17
6.380000E+03	5.247010E-17	2.093108E-17
6.390000E+03	5.215268E-17	2.167530E-17
6.400000E+03	5.184616E-17	2.239380E-17
6.410000E+03	5.153601E-17	2.308102E-17
6.420000E+03	5.123736E-17	2.374418E-17
6.430000E+03	5.093582E-17	2.437734E-17
6.440000E+03	5.064631E-17	2.498813E-17
6.450000E+03	5.035461E-17	2.557024E-17
6.460000E+03	5.006827E-17	2.612791E-17
6.470000E+03	4.979469E-17	2.666573E-17
6.480000E+03	4.951984E-17	2.717689E-17
6.490000E+03	4.925112E-17	2.766588E-17
6.500000E+03	4.899577E-17	2.813747E-17
6.510000E+03	4.873996E-17	2.858440E-17
6.520000E+03	4.849093E-17	2.901134E-17
6.530000E+03	4.825579E-17	2.942323E-17
6.540000E+03	4.802087E-17	2.981239E-17
6.550000E+03	4.779329E-17	3.018364E-17
6.560000E+03	4.757320E-17	3.053765E-17
6.570000E+03	4.736753E-17	3.087949E-17
6.580000E+03	4.716283E-17	3.120098E-17
6.590000E+03	4.696605E-17	3.150709E-17
6.600000E+03	4.677729E-17	3.179842E-17
6.610000E+03	4.659668E-17	3.207552E-17
6.620000E+03	4.642430E-17	3.233894E-17
6.630000E+03	4.626689E-17	3.259386E-17
6.640000E+03	4.611123E-17	3.283146E-17
6.650000E+03	4.596406E-17	3.305685E-17
6.660000E+03	4.582544E-17	3.327048E-17
6.670000E+03	4.569543E-17	3.347275E-17
6.680000E+03	4.557407E-17	3.366407E-17
6.690000E+03	4.546140E-17	3.384480E-17
6.700000E+03	4.535745E-17	3.401529E-17
6.710000E+03	4.526226E-17	3.417583E-17
6.720000E+03	4.517582E-17	3.432672E-17
6.730000E+03	4.509815E-17	3.446822E-17
6.740000E+03	4.502925E-17	3.460056E-17
6.750000E+03	4.496910E-17	3.472395E-17
6.760000E+03	4.491769E-17	3.483854E-17
6.770000E+03	4.487499E-17	3.494451E-17
6.780000E+03	4.484097E-17	3.504196E-17
6.790000E+03	4.481558E-17	3.513097E-17
6.800000E+03	4.479877E-17	3.521162E-17
6.810000E+03	4.479048E-17	3.528394E-17
6.820000E+03	4.478420E-17	3.534284E-17
6.830000E+03	4.479272E-17	3.539845E-17
6.840000E+03	4.480952E-17	3.544565E-17
6.850000E+03	4.483449E-17	3.548434E-17
6.860000E+03	4.486752E-17	3.551442E-17
6.870000E+03	4.490849E-17	3.553574E-17
6.880000E+03	4.495080E-17	3.554301E-17
6.890000E+03	4.500723E-17	3.554625E-17
6.900000E+03	4.507116E-17	3.554012E-17
6.910000E+03	4.514242E-17	3.552436E-17
6.920000E+03	4.521431E-17	3.549356E-17
6.930000E+03	4.529965E-17	3.545763E-17
6.940000E+03	4.539173E-17	3.541110E-17
6.950000E+03	4.549031E-17	3.535360E-17
6.960000E+03	4.558859E-17	3.527963E-17
6.970000E+03	4.569942E-17	3.519895E-17
6.980000E+03	4.581599E-17	3.510600E-17
6.990000E+03	4.593137E-17	3.499524E-17
7.000000E+03	4.605849E-17	3.487628E-17
7.010000E+03	4.618374E-17	3.473850E-17
7.020000E+03	4.632009E-17	3.459140E-17
7.030000E+03	4.646052E-17	3.442936E-17
7.040000E+03	4.659793E-17	3.424683E-17
7.050000E+03	4.674533E-17	3.405311E-17
7.060000E+03	4.688883E-17	3.383771E-17
7.070000E+03	4.704150E-17	3.360977E-17
7.080000E+03	4.718930E-17	3.335890E-17
7.090000E+03	4.734535E-17	3.309409E-17
7.100000E+03	4.749548E-17	3.280507E-17
7.110000E+03	4.765287E-17	3.250065E-17
7.120000E+03	4.780318E-17	3.217072E-17
7.130000E+03	4.795966E-17	3.182392E-17
7.140000E+03	4.810784E-17	3.145032E-17
7.150000E+03	4.826100E-17	3.105839E-17
7.160000E+03	4.840454E-17	3.063840E-17
7.170000E+03	4.855178E-17	3.019863E-17
7.180000E+03	4.868799E-17	2.972964E-17
7.190000E+03	4.881947E-17	2.923524E-17
7.200000E+03	4.895257E-17	2.871902E-17
7.210000E+03	4.907237E-17	2.817203E-17
7.220000E+03	4.919230E-17	2.760198E-17
7.230000E+03	4.929731E-17	2.700033E-17
7.240000E+03	4.939372E-17	2.637074E-17
7.250000E+03	4.948068E-17	2.571283E-17
7.260000E+03	4.956455E-17	2.502995E-17
7.270000E+03	4.963009E-17	2.431449E-17
7.280000E+03	4.968363E-17	2.357001E-17
7.290000E+03	4.973150E-17	2.279975E-17
7.300000E+03	4.975840E-17	2.199698E-17
7.310000E+03	4.977067E-17	2.116522E-17
7.320000E+03	4.976744E-17	2.030470E-17
7.330000E+03	4.974786E-17	1.941572E-17
7.340000E+03	4.971834E-17	1.850144E-17
7.350000E+03	4.966365E-17	1.755691E-17
7.360000E+03	4.959030E-17	1.658567E-17
7.370000E+03	4.949764E-17	1.558861E-17
7.380000E+03	4.938513E-17	1.456675E-17
7.390000E+03	4.925235E-17	1.352132E-17
7.400000E+03	4.909903E-17	1.245372E-17
7.410000E+03	4.893222E-17	1.136724E-17
7.420000E+03	4.873777E-17	1.026028E-17
7.430000E+03	4.852316E-17	9.136849E-18
7.440000E+03	4.828897E-17	7.999562E-18
7.450000E+03	4.803597E-17	6.851734E-18
7.460000E+03	4.776502E-17	5.697965E-18
7.470000E+03	4.747698E-17	4.545694E-18
7.480000E+03	4.717244E-17	3.409877E-18
7.490000E+03	4.685153E-17	2.330589E-18
7.500000E+03	4.651352E-17	1.459014E-18
7.510000E+03	4.615670E-17	1.319642E-18
7.520000E+03	4.578104E-17	2.041894E-18
7.530000E+03	4.538920E-17	3.027062E-18
7.540000E+03	4.498293E-17	4.056359E-18
7.550000E+03	4.455653E-17	5.075968E-18
7.560000E+03	4.412339E-17	6.069912E-18
7.570000E+03	4.367693E-17	7.030305E-18
7.580000E+03	4.321711E-17	7.953485E-18
7.590000E+03	4.274401E-17	8.837394E-18
7.600000E+03	4.225785E-17	9.680824E-18
7.610000E+03	4.175907E-17	1.048308E-17
7.620000E+03	4.124223E-17	1.124219E-17
7.630000E+03	4.072028E-17	1.196128E-17
7.640000E+03	4.018798E-17	1.263901E-17
7.650000E+03	3.964634E-17	1.327573E-17
7.660000E+03	3.909068E-17	1.386993E-17
7.670000E+03	3.853364E-17	1.442629E-17
7.680000E+03	3.797051E-17	1.494364E-17
7.690000E+03	3.740239E-17	1.542289E-17
7.700000E+03	3.682493E-17	1.586269E-17
7.710000E+03	3.625010E-17	1.626871E-17
7.720000E+03	3.567340E-17	1.663981E-17
7.730000E+03	3.509064E-17	1.697465E-17
7.740000E+03	3.451314E-17	1.727941E-17
7.750000E+03	3.393652E-17	1.755287E-17
7.760000E+03	3.335668E-17	1.779368E-17
