#wls	flux	fluxerr
1.600000E+03	1.384901E-18	1.683884E-18
1.640000E+03	1.345230E-18	1.635274E-18
1.680000E+03	1.304107E-18	1.584882E-18
1.720000E+03	1.262085E-18	1.533375E-18
1.760000E+03	1.218789E-18	1.480299E-18
1.800000E+03	1.174768E-18	1.426322E-18
1.840000E+03	1.129707E-18	1.371063E-18
1.880000E+03	1.084152E-18	1.315183E-18
1.920000E+03	1.038034E-18	1.258603E-18
1.960000E+03	9.913309E-19	1.201296E-18
2.000000E+03	9.445752E-19	1.143912E-18
2.040000E+03	8.977572E-19	1.086440E-18
2.080000E+03	8.510614E-19	1.029109E-18
2.120000E+03	8.046779E-19	9.721529E-19
2.160000E+03	7.588000E-19	9.158099E-19
2.200000E+03	7.136207E-19	8.603190E-19
2.240000E+03	6.693305E-19	8.059158E-19
2.280000E+03	6.261140E-19	7.528289E-19
2.320000E+03	5.841469E-19	7.012764E-19
2.360000E+03	5.435930E-19	6.514615E-19
2.400000E+03	5.046015E-19	6.035698E-19
2.440000E+03	4.673882E-19	5.578653E-19
2.480000E+03	4.318929E-19	5.142813E-19
2.520000E+03	3.982985E-19	4.730407E-19
2.560000E+03	3.667416E-19	4.343090E-19
2.600000E+03	3.371350E-19	3.979849E-19
2.640000E+03	3.096329E-19	3.642507E-19
2.680000E+03	2.841268E-19	3.329773E-19
2.720000E+03	2.607110E-19	3.042716E-19
2.760000E+03	2.392586E-19	2.779799E-19
2.800000E+03	2.198148E-19	2.541466E-19
2.840000E+03	2.022776E-19	2.326431E-19
2.880000E+03	1.865491E-19	2.133447E-19
2.920000E+03	1.726286E-19	1.962359E-19
2.960000E+03	1.604086E-19	1.811771E-19
3.000000E+03	1.498196E-19	1.680712E-19
3.010000E+03	1.474000E-19	1.650670E-19
3.020000E+03	1.451038E-19	1.622073E-19
3.030000E+03	1.429035E-19	1.594609E-19
3.040000E+03	1.407735E-19	1.567988E-19
3.050000E+03	1.387632E-19	1.542760E-19
3.060000E+03	1.368466E-19	1.518629E-19
3.070000E+03	1.350232E-19	1.495586E-19
3.080000E+03	1.332687E-19	1.473359E-19
3.090000E+03	1.316301E-19	1.452465E-19
3.100000E+03	1.300832E-19	1.432630E-19
3.110000E+03	1.286048E-19	1.413597E-19
3.120000E+03	1.272406E-19	1.395864E-19
3.130000E+03	1.259673E-19	1.379170E-19
3.140000E+03	1.247849E-19	1.363512E-19
3.150000E+03	1.236716E-19	1.348645E-19
3.160000E+03	1.226715E-19	1.335050E-19
3.170000E+03	1.217629E-19	1.322483E-19
3.180000E+03	1.209462E-19	1.310945E-19
3.190000E+03	1.202006E-19	1.300206E-19
3.200000E+03	1.195697E-19	1.290732E-19
3.210000E+03	1.190328E-19	1.282297E-19
3.220000E+03	1.185911E-19	1.274905E-19
3.230000E+03	1.182246E-19	1.268341E-19
3.240000E+03	1.179769E-19	1.263065E-19
3.250000E+03	1.178285E-19	1.258862E-19
3.260000E+03	1.177813E-19	1.255749E-19
3.270000E+03	1.178163E-19	1.253517E-19
3.280000E+03	1.179776E-19	1.252631E-19
3.290000E+03	1.182468E-19	1.252889E-19
3.300000E+03	1.186268E-19	1.254315E-19
3.310000E+03	1.190995E-19	1.256714E-19
3.320000E+03	1.197105E-19	1.260558E-19
3.330000E+03	1.204424E-19	1.265660E-19
3.340000E+03	1.212993E-19	1.272055E-19
3.350000E+03	1.222641E-19	1.279557E-19
3.360000E+03	1.233847E-19	1.288661E-19
3.370000E+03	1.246450E-19	1.299190E-19
3.380000E+03	1.260506E-19	1.311197E-19
3.390000E+03	1.275854E-19	1.324504E-19
3.400000E+03	1.293008E-19	1.339639E-19
3.410000E+03	1.311820E-19	1.356438E-19
3.420000E+03	1.332369E-19	1.374975E-19
3.430000E+03	1.354503E-19	1.395082E-19
3.440000E+03	1.378789E-19	1.417334E-19
3.450000E+03	1.405092E-19	1.441582E-19
3.460000E+03	1.433521E-19	1.467927E-19
3.470000E+03	1.464195E-19	1.496478E-19
3.480000E+03	1.496976E-19	1.527082E-19
3.490000E+03	1.532525E-19	1.560400E-19
3.500000E+03	1.570730E-19	1.596304E-19
3.510000E+03	1.611752E-19	1.634942E-19
3.520000E+03	1.655471E-19	1.676178E-19
3.530000E+03	1.702651E-19	1.720767E-19
3.540000E+03	1.753207E-19	1.768604E-19
3.550000E+03	1.807356E-19	1.819888E-19
3.560000E+03	1.865003E-19	1.874503E-19
3.570000E+03	1.927048E-19	1.933330E-19
3.580000E+03	1.993443E-19	1.996295E-19
3.590000E+03	2.064482E-19	2.063665E-19
3.600000E+03	2.140481E-19	2.135725E-19
3.610000E+03	2.221389E-19	2.212394E-19
3.620000E+03	2.308340E-19	2.294767E-19
3.630000E+03	2.401354E-19	2.382822E-19
3.640000E+03	2.500857E-19	2.476941E-19
3.650000E+03	2.606848E-19	2.577077E-19
3.660000E+03	2.720722E-19	2.684560E-19
3.670000E+03	2.842571E-19	2.799422E-19
3.680000E+03	2.972969E-19	2.922167E-19
3.690000E+03	3.112533E-19	3.053335E-19
3.700000E+03	3.261355E-19	3.192944E-19
3.710000E+03	3.421270E-19	3.342707E-19
3.720000E+03	3.592500E-19	3.502751E-19
3.730000E+03	3.775872E-19	3.673782E-19
3.740000E+03	3.971579E-19	3.855877E-19
3.750000E+03	4.181935E-19	4.051166E-19
3.760000E+03	4.407304E-19	4.259860E-19
3.770000E+03	4.648787E-19	4.482878E-19
3.780000E+03	4.906704E-19	4.720365E-19
3.790000E+03	5.184001E-19	4.974973E-19
3.800000E+03	5.481219E-19	5.247019E-19
3.810000E+03	5.799813E-19	5.537671E-19
3.820000E+03	6.141343E-19	5.848173E-19
3.830000E+03	6.506331E-19	6.178752E-19
3.840000E+03	6.898776E-19	6.532908E-19
3.850000E+03	7.319502E-19	6.911083E-19
3.860000E+03	7.770539E-19	7.314824E-19
3.870000E+03	8.252601E-19	7.744402E-19
3.880000E+03	8.770800E-19	8.204171E-19
3.890000E+03	9.326223E-19	8.694642E-19
3.900000E+03	9.921475E-19	9.217700E-19
3.910000E+03	1.055747E-18	9.773596E-19
3.920000E+03	1.124072E-18	1.036771E-18
3.930000E+03	1.197260E-18	1.100055E-18
3.940000E+03	1.275639E-18	1.167434E-18
3.950000E+03	1.359555E-18	1.239137E-18
3.960000E+03	1.449119E-18	1.315169E-18
3.970000E+03	1.545208E-18	1.396221E-18
3.980000E+03	1.647989E-18	1.482324E-18
3.990000E+03	1.757884E-18	1.573732E-18
4.000000E+03	1.875010E-18	1.670411E-18
4.010000E+03	2.000467E-18	1.773190E-18
4.020000E+03	2.134431E-18	1.882055E-18
4.030000E+03	2.277405E-18	1.997271E-18
4.040000E+03	2.429488E-18	2.118727E-18
4.050000E+03	2.592045E-18	2.247401E-18
4.060000E+03	2.765238E-18	2.383196E-18
4.070000E+03	2.949644E-18	2.526358E-18
4.080000E+03	3.145307E-18	2.676649E-18
4.090000E+03	3.353901E-18	2.835202E-18
4.100000E+03	3.575530E-18	3.001777E-18
4.110000E+03	3.810160E-18	3.176003E-18
4.120000E+03	4.059724E-18	3.359120E-18
4.130000E+03	4.324245E-18	3.550737E-18
4.140000E+03	4.604376E-18	3.750955E-18
4.150000E+03	4.899913E-18	3.959149E-18
4.160000E+03	5.213169E-18	4.176695E-18
4.170000E+03	5.543983E-18	4.402918E-18
4.180000E+03	5.892995E-18	4.637753E-18
4.190000E+03	6.259731E-18	4.880228E-18
4.200000E+03	6.646922E-18	5.131827E-18
4.210000E+03	7.054120E-18	5.391499E-18
4.220000E+03	7.480576E-18	5.657945E-18
4.230000E+03	7.929351E-18	5.932714E-18
4.240000E+03	8.399704E-18	6.214402E-18
4.250000E+03	8.892080E-18	6.502468E-18
4.260000E+03	9.405237E-18	6.795097E-18
4.270000E+03	9.942715E-18	7.093893E-18
4.280000E+03	1.050325E-17	7.396906E-18
4.290000E+03	1.108514E-17	7.701883E-18
4.300000E+03	1.169230E-17	8.010450E-18
4.310000E+03	1.232298E-17	8.320204E-18
4.320000E+03	1.297719E-17	8.629930E-18
4.330000E+03	1.365248E-17	8.936749E-18
4.340000E+03	1.435331E-17	9.242304E-18
4.350000E+03	1.507718E-17	9.543560E-18
4.360000E+03	1.582095E-17	9.837171E-18
4.370000E+03	1.658957E-17	1.012479E-17
4.380000E+03	1.737984E-17	1.040293E-17
4.390000E+03	1.818794E-17	1.066780E-17
4.400000E+03	1.901928E-17	1.092108E-17
4.410000E+03	1.986995E-17	1.115888E-17
4.420000E+03	2.073534E-17	1.137704E-17
4.430000E+03	2.162142E-17	1.157729E-17
4.440000E+03	2.252348E-17	1.175540E-17
4.450000E+03	2.343611E-17	1.190699E-17
4.460000E+03	2.436586E-17	1.203382E-17
4.470000E+03	2.530724E-17	1.213150E-17
4.480000E+03	2.625399E-17	1.219553E-17
4.490000E+03	2.721331E-17	1.222780E-17
4.500000E+03	2.817890E-17	1.222388E-17
4.510000E+03	2.914369E-17	1.217936E-17
4.520000E+03	3.011557E-17	1.209630E-17
4.530000E+03	3.108746E-17	1.197044E-17
4.540000E+03	3.205151E-17	1.179770E-17
4.550000E+03	3.301638E-17	1.158035E-17
4.560000E+03	3.396836E-17	1.131258E-17
4.570000E+03	3.491667E-17	1.099682E-17
4.580000E+03	3.585309E-17	1.062969E-17
4.590000E+03	3.676873E-17	1.020826E-17
4.600000E+03	3.767377E-17	9.735263E-18
4.610000E+03	3.855954E-17	9.208260E-18
4.620000E+03	3.941681E-17	8.625482E-18
4.630000E+03	4.025694E-17	7.990183E-18
4.640000E+03	4.106398E-17	7.300151E-18
4.650000E+03	4.185024E-17	6.559425E-18
4.660000E+03	4.260716E-17	5.769061E-18
4.670000E+03	4.332602E-17	4.932509E-18
4.680000E+03	4.402106E-17	4.059640E-18
4.690000E+03	4.467689E-17	3.165613E-18
4.700000E+03	4.530932E-17	2.293635E-18
4.710000E+03	4.591149E-17	1.574888E-18
4.720000E+03	4.647608E-17	1.387214E-18
4.730000E+03	4.701905E-17	1.939942E-18
4.740000E+03	4.752290E-17	2.840540E-18
4.750000E+03	4.800218E-17	3.851792E-18
4.760000E+03	4.843853E-17	4.897919E-18
4.770000E+03	4.884732E-17	5.952362E-18
4.780000E+03	4.921934E-17	7.000720E-18
4.790000E+03	4.954555E-17	8.033371E-18
4.800000E+03	4.984315E-17	9.047255E-18
4.810000E+03	5.009526E-17	1.003512E-17
4.820000E+03	5.031992E-17	1.099685E-17
4.830000E+03	5.050065E-17	1.192597E-17
4.840000E+03	5.065609E-17	1.282409E-17
4.850000E+03	5.076998E-17	1.368490E-17
4.860000E+03	5.086136E-17	1.451135E-17
4.870000E+03	5.091411E-17	1.529715E-17
4.880000E+03	5.094745E-17	1.604636E-17
4.890000E+03	5.094534E-17	1.675265E-17
4.900000E+03	5.092707E-17	1.742106E-17
4.910000E+03	5.087662E-17	1.804517E-17
4.920000E+03	5.081325E-17	1.863086E-17
4.930000E+03	5.072092E-17	1.917164E-17
4.940000E+03	5.061880E-17	1.967407E-17
4.950000E+03	5.049082E-17	2.013158E-17
4.960000E+03	5.035599E-17	2.055132E-17
4.970000E+03	5.019821E-17	2.092662E-17
4.980000E+03	5.003627E-17	2.126510E-17
4.990000E+03	4.985408E-17	2.155998E-17
5.000000E+03	4.967017E-17	2.181926E-17
5.010000E+03	4.946846E-17	2.203608E-17
5.020000E+03	4.926721E-17	2.221870E-17
5.030000E+03	4.905034E-17	2.236018E-17
5.040000E+03	4.883585E-17	2.246897E-17
5.050000E+03	4.860768E-17	2.253806E-17
5.060000E+03	4.838354E-17	2.257600E-17
5.070000E+03	4.814741E-17	2.257576E-17
5.080000E+03	4.791672E-17	2.254591E-17
5.090000E+03	4.767550E-17	2.247941E-17
5.100000E+03	4.743268E-17	2.238093E-17
5.110000E+03	4.719700E-17	2.225506E-17
5.120000E+03	4.695256E-17	2.209481E-17
5.130000E+03	4.671611E-17	2.190855E-17
5.140000E+03	4.647183E-17	2.168937E-17
5.150000E+03	4.623623E-17	2.144547E-17
5.160000E+03	4.599355E-17	2.117003E-17
5.170000E+03	4.575211E-17	2.086745E-17
5.180000E+03	4.552004E-17	2.054189E-17
5.190000E+03	4.528172E-17	2.018677E-17
5.200000E+03	4.505303E-17	1.980970E-17
5.210000E+03	4.481846E-17	1.940431E-17
5.220000E+03	4.458594E-17	1.897461E-17
5.230000E+03	4.436322E-17	1.852434E-17
5.240000E+03	4.413494E-17	1.804751E-17
5.250000E+03	4.391643E-17	1.755091E-17
5.260000E+03	4.369243E-17	1.702887E-17
5.270000E+03	4.347056E-17	1.648496E-17
5.280000E+03	4.325824E-17	1.592242E-17
5.290000E+03	4.304040E-17	1.533607E-17
5.300000E+03	4.282449E-17	1.472924E-17
5.310000E+03	4.261778E-17	1.410480E-17
5.320000E+03	4.240539E-17	1.345822E-17
5.330000E+03	4.220194E-17	1.279472E-17
5.340000E+03	4.199269E-17	1.211023E-17
5.350000E+03	4.178491E-17	1.140754E-17
5.360000E+03	4.158570E-17	1.068900E-17
5.370000E+03	4.138060E-17	9.951269E-18
5.380000E+03	4.117683E-17	9.196860E-18
5.390000E+03	4.098150E-17	8.427788E-18
5.400000E+03	4.078049E-17	7.641621E-18
5.410000E+03	4.058105E-17	6.840661E-18
5.420000E+03	4.038343E-17	6.025796E-18
5.430000E+03	4.019489E-17	5.199138E-18
5.440000E+03	4.000196E-17	4.360609E-18
5.450000E+03	3.981225E-17	3.514520E-18
5.460000E+03	3.963337E-17	2.668058E-18
5.470000E+03	3.945258E-17	1.837516E-18
5.480000E+03	3.927786E-17	1.088074E-18
5.490000E+03	3.911690E-17	7.528516E-19
5.500000E+03	3.895641E-17	1.225792E-18
5.510000E+03	3.880253E-17	1.978225E-18
5.520000E+03	3.865407E-17	2.771521E-18
5.530000E+03	3.851648E-17	3.560221E-18
5.540000E+03	3.837537E-17	4.329934E-18
5.550000E+03	3.823661E-17	5.075973E-18
5.560000E+03	3.809956E-17	5.795985E-18
5.570000E+03	3.797031E-17	6.489926E-18
5.580000E+03	3.783537E-17	7.155072E-18
5.590000E+03	3.770108E-17	7.792120E-18
5.600000E+03	3.756729E-17	8.400926E-18
5.610000E+03	3.744035E-17	8.982992E-18
5.620000E+03	3.730727E-17	9.535321E-18
5.630000E+03	3.717453E-17	1.005941E-17
5.640000E+03	3.704215E-17	1.055535E-17
5.650000E+03	3.691019E-17	1.102322E-17
5.660000E+03	3.678505E-17	1.146514E-17
5.670000E+03	3.665408E-17	1.187735E-17
5.680000E+03	3.652373E-17	1.226190E-17
5.690000E+03	3.639408E-17	1.261896E-17
5.700000E+03	3.627146E-17	1.295093E-17
5.710000E+03	3.614341E-17	1.325357E-17
5.720000E+03	3.601627E-17	1.352925E-17
5.730000E+03	3.589009E-17	1.377815E-17
5.740000E+03	3.576493E-17	1.400048E-17
5.750000E+03	3.564082E-17	1.419642E-17
5.760000E+03	3.552392E-17	1.436865E-17
5.770000E+03	3.540196E-17	1.451242E-17
5.780000E+03	3.528111E-17	1.463040E-17
5.790000E+03	3.516134E-17	1.472275E-17
5.800000E+03	3.504264E-17	1.478969E-17
5.810000E+03	3.492499E-17	1.483138E-17
5.820000E+03	3.481433E-17	1.485058E-17
5.830000E+03	3.469859E-17	1.484233E-17
5.840000E+03	3.458372E-17	1.480938E-17
5.850000E+03	3.446965E-17	1.475189E-17
5.860000E+03	3.435627E-17	1.467004E-17
5.870000E+03	3.424350E-17	1.456400E-17
5.880000E+03	3.413121E-17	1.443392E-17
5.890000E+03	3.402514E-17	1.428245E-17
5.900000E+03	3.391341E-17	1.410479E-17
5.910000E+03	3.380175E-17	1.390360E-17
5.920000E+03	3.369000E-17	1.367905E-17
5.930000E+03	3.357799E-17	1.343132E-17
5.940000E+03	3.346555E-17	1.316060E-17
5.950000E+03	3.335248E-17	1.286708E-17
5.960000E+03	3.323858E-17	1.255095E-17
5.970000E+03	3.312366E-17	1.221245E-17
5.980000E+03	3.301319E-17	1.185383E-17
5.990000E+03	3.289555E-17	1.147121E-17
6.000000E+03	3.277623E-17	1.106695E-17
6.010000E+03	3.265501E-17	1.064136E-17
6.020000E+03	3.253166E-17	1.019475E-17
6.030000E+03	3.240597E-17	9.727477E-18
6.040000E+03	3.227772E-17	9.239933E-18
6.050000E+03	3.214672E-17	8.732551E-18
6.060000E+03	3.201279E-17	8.205811E-18
6.070000E+03	3.187577E-17	7.660252E-18
6.080000E+03	3.173553E-17	7.096490E-18
6.090000E+03	3.159200E-17	6.515236E-18
6.100000E+03	3.144512E-17	5.917338E-18
6.110000E+03	3.129494E-17	5.303849E-18
6.120000E+03	3.114156E-17	4.676152E-18
6.130000E+03	3.098518E-17	4.036210E-18
6.140000E+03	3.083141E-17	3.387665E-18
6.150000E+03	3.067004E-17	2.734639E-18
6.160000E+03	3.050698E-17	2.088995E-18
6.170000E+03	3.034294E-17	1.479159E-18
6.180000E+03	3.017866E-17	9.965841E-19
6.190000E+03	3.001473E-17	8.954438E-19
6.200000E+03	2.985130E-17	1.266925E-18
6.210000E+03	2.968802E-17	1.833779E-18
6.220000E+03	2.952430E-17	2.452308E-18
6.230000E+03	2.935956E-17	3.080268E-18
6.240000E+03	2.919337E-17	3.703033E-18
6.250000E+03	2.902543E-17	4.314442E-18
6.260000E+03	2.885560E-17	4.911534E-18
6.270000E+03	2.868384E-17	5.492769E-18
6.280000E+03	2.851021E-17	6.057312E-18
6.290000E+03	2.833485E-17	6.604719E-18
6.300000E+03	2.815795E-17	7.134774E-18
6.310000E+03	2.797974E-17	7.647413E-18
6.320000E+03	2.780049E-17	8.142668E-18
6.330000E+03	2.761573E-17	8.619164E-18
6.340000E+03	2.743531E-17	9.079962E-18
6.350000E+03	2.725476E-17	9.523871E-18
6.360000E+03	2.707436E-17	9.951146E-18
6.370000E+03	2.689445E-17	1.036207E-17
6.380000E+03	2.671530E-17	1.075696E-17
6.390000E+03	2.653721E-17	1.113616E-17
6.400000E+03	2.636047E-17	1.150001E-17
6.410000E+03	2.618534E-17	1.184890E-17
6.420000E+03	2.601208E-17	1.218321E-17
6.430000E+03	2.584093E-17	1.250333E-17
6.440000E+03	2.567211E-17	1.280968E-17
6.450000E+03	2.550584E-17	1.310266E-17
6.460000E+03	2.534233E-17	1.338269E-17
6.470000E+03	2.518176E-17	1.365018E-17
6.480000E+03	2.502431E-17	1.390555E-17
6.490000E+03	2.487014E-17	1.414921E-17
6.500000E+03	2.471513E-17	1.437909E-17
6.510000E+03	2.456797E-17	1.460051E-17
6.520000E+03	2.442451E-17	1.481143E-17
6.530000E+03	2.428487E-17	1.501225E-17
6.540000E+03	2.414914E-17	1.520333E-17
6.550000E+03	2.401742E-17	1.538506E-17
6.560000E+03	2.388981E-17	1.555780E-17
6.570000E+03	2.376638E-17	1.572189E-17
6.580000E+03	2.364721E-17	1.587768E-17
6.590000E+03	2.353235E-17	1.602550E-17
6.600000E+03	2.341783E-17	1.616287E-17
6.610000E+03	2.331179E-17	1.629565E-17
6.620000E+03	2.321022E-17	1.642137E-17
6.630000E+03	2.311315E-17	1.654030E-17
6.640000E+03	2.302063E-17	1.665271E-17
6.650000E+03	2.293266E-17	1.675884E-17
6.660000E+03	2.284928E-17	1.685894E-17
6.670000E+03	2.276657E-17	1.695031E-17
6.680000E+03	2.269242E-17	1.703897E-17
6.690000E+03	2.262289E-17	1.712223E-17
6.700000E+03	2.255797E-17	1.720026E-17
6.710000E+03	2.249768E-17	1.727322E-17
6.720000E+03	2.244201E-17	1.734127E-17
6.730000E+03	2.239095E-17	1.740454E-17
6.740000E+03	2.234062E-17	1.746015E-17
6.750000E+03	2.229874E-17	1.751422E-17
6.760000E+03	2.226142E-17	1.756384E-17
6.770000E+03	2.222864E-17	1.760909E-17
6.780000E+03	2.220037E-17	1.765004E-17
6.790000E+03	2.217658E-17	1.768675E-17
6.800000E+03	2.215342E-17	1.771618E-17
6.810000E+03	2.213850E-17	1.774448E-17
6.820000E+03	2.212795E-17	1.776860E-17
6.830000E+03	2.212173E-17	1.778853E-17
6.840000E+03	2.211979E-17	1.780427E-17
6.850000E+03	2.211827E-17	1.781270E-17
6.860000E+03	2.212474E-17	1.781992E-17
6.870000E+03	2.213533E-17	1.782281E-17
6.880000E+03	2.214998E-17	1.782127E-17
6.890000E+03	2.216862E-17	1.781524E-17
6.900000E+03	2.218734E-17	1.780153E-17
6.910000E+03	2.221373E-17	1.778617E-17
6.920000E+03	2.224388E-17	1.776596E-17
6.930000E+03	2.227770E-17	1.774076E-17
6.940000E+03	2.231511E-17	1.771041E-17
6.950000E+03	2.235214E-17	1.767169E-17
6.960000E+03	2.239640E-17	1.763052E-17
6.970000E+03	2.244393E-17	1.758365E-17
6.980000E+03	2.249462E-17	1.753088E-17
6.990000E+03	2.254445E-17	1.746896E-17
7.000000E+03	2.260107E-17	1.740371E-17
7.010000E+03	2.266045E-17	1.733185E-17
7.020000E+03	2.272245E-17	1.725313E-17
7.030000E+03	2.278299E-17	1.716431E-17
7.040000E+03	2.284975E-17	1.707106E-17
7.050000E+03	2.291864E-17	1.697011E-17
7.060000E+03	2.298949E-17	1.686117E-17
7.070000E+03	2.305812E-17	1.674103E-17
7.080000E+03	2.313229E-17	1.661518E-17
7.090000E+03	2.320781E-17	1.648040E-17
7.100000E+03	2.328447E-17	1.633635E-17
7.110000E+03	2.335799E-17	1.617990E-17
7.120000E+03	2.343619E-17	1.601634E-17
7.130000E+03	2.351480E-17	1.584251E-17
7.140000E+03	2.359354E-17	1.565806E-17
7.150000E+03	2.366805E-17	1.545998E-17
7.160000E+03	2.374621E-17	1.525332E-17
7.170000E+03	2.382363E-17	1.503503E-17
7.180000E+03	2.389587E-17	1.480223E-17
7.190000E+03	2.397083E-17	1.455975E-17
7.200000E+03	2.404407E-17	1.430469E-17
7.210000E+03	2.411523E-17	1.403675E-17
7.220000E+03	2.417975E-17	1.375327E-17
7.230000E+03	2.424560E-17	1.345878E-17
7.240000E+03	2.430823E-17	1.315062E-17
7.250000E+03	2.436300E-17	1.282635E-17
7.260000E+03	2.441792E-17	1.249027E-17
7.270000E+03	2.446836E-17	1.213994E-17
7.280000E+03	2.450963E-17	1.177320E-17
7.290000E+03	2.454977E-17	1.139410E-17
7.300000E+03	2.458408E-17	1.100049E-17
7.310000E+03	2.461210E-17	1.059237E-17
7.320000E+03	2.462911E-17	1.016804E-17
7.330000E+03	2.464316E-17	9.731187E-18
7.340000E+03	2.464953E-17	9.280157E-18
7.350000E+03	2.464349E-17	8.813662E-18
7.360000E+03	2.463313E-17	8.335149E-18
7.370000E+03	2.461376E-17	7.843410E-18
7.380000E+03	2.458069E-17	7.337667E-18
7.390000E+03	2.454206E-17	6.821153E-18
7.400000E+03	2.449325E-17	6.293247E-18
7.410000E+03	2.442974E-17	5.753850E-18
7.420000E+03	2.435973E-17	5.206169E-18
7.430000E+03	2.427460E-17	4.649737E-18
7.440000E+03	2.418266E-17	4.088164E-18
7.450000E+03	2.407970E-17	3.523254E-18
7.460000E+03	2.396166E-17	2.958677E-18
7.470000E+03	2.383709E-17	2.402791E-18
7.480000E+03	2.370219E-17	1.869332E-18
7.490000E+03	2.355334E-17	1.391201E-18
7.500000E+03	2.339928E-17	1.052344E-18
7.510000E+03	2.323635E-17	1.001812E-18
7.520000E+03	2.306078E-17	1.264271E-18
7.530000E+03	2.288054E-17	1.687648E-18
7.540000E+03	2.268755E-17	2.166558E-18
7.550000E+03	2.248959E-17	2.659859E-18
7.560000E+03	2.228274E-17	3.150232E-18
7.570000E+03	2.206332E-17	3.629156E-18
7.580000E+03	2.183928E-17	4.093706E-18
7.590000E+03	2.160340E-17	4.540236E-18
7.600000E+03	2.136364E-17	4.968875E-18
7.610000E+03	2.111674E-17	5.378094E-18
7.620000E+03	2.085962E-17	5.766424E-18
7.630000E+03	2.060015E-17	6.135566E-18
7.640000E+03	2.033173E-17	6.483404E-18
7.650000E+03	2.006206E-17	6.812200E-18
7.660000E+03	1.978818E-17	7.121068E-18
7.670000E+03	1.950728E-17	7.408985E-18
7.680000E+03	1.922678E-17	7.678807E-18
7.690000E+03	1.894050E-17	7.928316E-18
7.700000E+03	1.865563E-17	8.160664E-18
7.710000E+03	1.836934E-17	8.375003E-18
7.720000E+03	1.807900E-17	8.570363E-18
7.730000E+03	1.779140E-17	8.750234E-18
7.740000E+03	1.750077E-17	8.912184E-18
7.750000E+03	1.721364E-17	9.059864E-18
7.760000E+03	1.692439E-17	9.190761E-18
