#wls	flux	fluxerr
1.600000E+03	5.692941E-18	1.489279E-19
1.640000E+03	5.679432E-18	1.479392E-19
1.680000E+03	5.668050E-18	1.469939E-19
1.720000E+03	5.657740E-18	1.460638E-19
1.760000E+03	5.650688E-18	1.452045E-19
1.800000E+03	5.644776E-18	1.443604E-19
1.840000E+03	5.643252E-18	1.436137E-19
1.880000E+03	5.642948E-18	1.428821E-19
1.920000E+03	5.647107E-18	1.422468E-19
1.960000E+03	5.653650E-18	1.416535E-19
2.000000E+03	5.664755E-18	1.411552E-19
2.040000E+03	5.679422E-18	1.407251E-19
2.080000E+03	5.697728E-18	1.403630E-19
2.120000E+03	5.721850E-18	1.401204E-19
2.160000E+03	5.749784E-18	1.399453E-19
2.200000E+03	5.784765E-18	1.399140E-19
2.240000E+03	5.823779E-18	1.399501E-19
2.280000E+03	5.870081E-18	1.401290E-19
2.320000E+03	5.923815E-18	1.404498E-19
2.360000E+03	5.984113E-18	1.408877E-19
2.400000E+03	6.052200E-18	1.414674E-19
2.440000E+03	6.130362E-18	1.422370E-19
2.480000E+03	6.216777E-18	1.431483E-19
2.520000E+03	6.313793E-18	1.442497E-19
2.560000E+03	6.422763E-18	1.455649E-19
2.600000E+03	6.543025E-18	1.470711E-19
2.640000E+03	6.678101E-18	1.488392E-19
2.680000E+03	6.827453E-18	1.508472E-19
2.720000E+03	6.993723E-18	1.531431E-19
2.760000E+03	7.178625E-18	1.557521E-19
2.800000E+03	7.383997E-18	1.587006E-19
2.840000E+03	7.611834E-18	1.620162E-19
2.880000E+03	7.865381E-18	1.657509E-19
2.920000E+03	8.148159E-18	1.699592E-19
2.960000E+03	8.464037E-18	1.746990E-19
3.000000E+03	8.817352E-18	1.800340E-19
3.010000E+03	8.912812E-18	1.814836E-19
3.020000E+03	9.010372E-18	1.829631E-19
3.030000E+03	9.110062E-18	1.844727E-19
3.040000E+03	9.214119E-18	1.860573E-19
3.050000E+03	9.320429E-18	1.876733E-19
3.060000E+03	9.430151E-18	1.893438E-19
3.070000E+03	9.542258E-18	1.910473E-19
3.080000E+03	9.659014E-18	1.928287E-19
3.090000E+03	9.779401E-18	1.946668E-19
3.100000E+03	9.902398E-18	1.965406E-19
3.110000E+03	1.003032E-17	1.984954E-19
3.120000E+03	1.016214E-17	2.005102E-19
3.130000E+03	1.029798E-17	2.025863E-19
3.140000E+03	1.043793E-17	2.047249E-19
3.150000E+03	1.058324E-17	2.069497E-19
3.160000E+03	1.073179E-17	2.092181E-19
3.170000E+03	1.088710E-17	2.115980E-19
3.180000E+03	1.104592E-17	2.140250E-19
3.190000E+03	1.121181E-17	2.165673E-19
3.200000E+03	1.138151E-17	2.191607E-19
3.210000E+03	1.155863E-17	2.218739E-19
3.220000E+03	1.174109E-17	2.246652E-19
3.230000E+03	1.193020E-17	2.275589E-19
3.240000E+03	1.212621E-17	2.305583E-19
3.250000E+03	1.232933E-17	2.336661E-19
3.260000E+03	1.253982E-17	2.368856E-19
3.270000E+03	1.275792E-17	2.402201E-19
3.280000E+03	1.298390E-17	2.436731E-19
3.290000E+03	1.321925E-17	2.472707E-19
3.300000E+03	1.346308E-17	2.509946E-19
3.310000E+03	1.371571E-17	2.548489E-19
3.320000E+03	1.397868E-17	2.588603E-19
3.330000E+03	1.425111E-17	2.630108E-19
3.340000E+03	1.453460E-17	2.673277E-19
3.350000E+03	1.482953E-17	2.718159E-19
3.360000E+03	1.513632E-17	2.764805E-19
3.370000E+03	1.545536E-17	2.813263E-19
3.380000E+03	1.578836E-17	2.863817E-19
3.390000E+03	1.613320E-17	2.916058E-19
3.400000E+03	1.649158E-17	2.970266E-19
3.410000E+03	1.686654E-17	3.026960E-19
3.420000E+03	1.725462E-17	3.085488E-19
3.430000E+03	1.766020E-17	3.146601E-19
3.440000E+03	1.808109E-17	3.209876E-19
3.450000E+03	1.851904E-17	3.275591E-19
3.460000E+03	1.897447E-17	3.343784E-19
3.470000E+03	1.944778E-17	3.414490E-19
3.480000E+03	1.993934E-17	3.487736E-19
3.490000E+03	2.045090E-17	3.563788E-19
3.500000E+03	2.098141E-17	3.642425E-19
3.510000E+03	2.153257E-17	3.723899E-19
3.520000E+03	2.210324E-17	3.807972E-19
3.530000E+03	2.269657E-17	3.895141E-19
3.540000E+03	2.331136E-17	3.985157E-19
3.550000E+03	2.394637E-17	4.077761E-19
3.560000E+03	2.460479E-17	4.173453E-19
3.570000E+03	2.528692E-17	4.272234E-19
3.580000E+03	2.599155E-17	4.373850E-19
3.590000E+03	2.672051E-17	4.478561E-19
3.600000E+03	2.747414E-17	4.586371E-19
3.610000E+03	2.825114E-17	4.697012E-19
3.620000E+03	2.905496E-17	4.811004E-19
3.630000E+03	2.988433E-17	4.928085E-19
3.640000E+03	3.074124E-17	5.048523E-19
3.650000E+03	3.162444E-17	5.172056E-19
3.660000E+03	3.253595E-17	5.298959E-19
3.670000E+03	3.347618E-17	5.429236E-19
3.680000E+03	3.444547E-17	5.562880E-19
3.690000E+03	3.544411E-17	5.699877E-19
3.700000E+03	3.647405E-17	5.840478E-19
3.710000E+03	3.753191E-17	5.984072E-19
3.720000E+03	3.862299E-17	6.131445E-19
3.730000E+03	3.974364E-17	6.281943E-19
3.740000E+03	4.089721E-17	6.436032E-19
3.750000E+03	4.207963E-17	6.593003E-19
3.760000E+03	4.329211E-17	6.752981E-19
3.770000E+03	4.453571E-17	6.916066E-19
3.780000E+03	4.580756E-17	7.081745E-19
3.790000E+03	4.710830E-17	7.250056E-19
3.800000E+03	4.843454E-17	7.420417E-19
3.810000E+03	4.978647E-17	7.592800E-19
3.820000E+03	5.116211E-17	7.766847E-19
3.830000E+03	5.255921E-17	7.942167E-19
3.840000E+03	5.397525E-17	8.118332E-19
3.850000E+03	5.540743E-17	8.294882E-19
3.860000E+03	5.685266E-17	8.471321E-19
3.870000E+03	5.830967E-17	8.647428E-19
3.880000E+03	5.977281E-17	8.822346E-19
3.890000E+03	6.123826E-17	8.995496E-19
3.900000E+03	6.270402E-17	9.166582E-19
3.910000E+03	6.416376E-17	9.334679E-19
3.920000E+03	6.561516E-17	9.499464E-19
3.930000E+03	6.705156E-17	9.659994E-19
3.940000E+03	6.846832E-17	9.815635E-19
3.950000E+03	6.986286E-17	9.966061E-19
3.960000E+03	7.122841E-17	1.011036E-18
3.970000E+03	7.256250E-17	1.024824E-18
3.980000E+03	7.385643E-17	1.037855E-18
3.990000E+03	7.511022E-17	1.050138E-18
4.000000E+03	7.631778E-17	1.061597E-18
4.010000E+03	7.747341E-17	1.072163E-18
4.020000E+03	7.857604E-17	1.081832E-18
4.030000E+03	7.962091E-17	1.090552E-18
4.040000E+03	8.060589E-17	1.098304E-18
4.050000E+03	8.153154E-17	1.105111E-18
4.060000E+03	8.239285E-17	1.110918E-18
4.070000E+03	8.318969E-17	1.115737E-18
4.080000E+03	8.392461E-17	1.119616E-18
4.090000E+03	8.459479E-17	1.122531E-18
4.100000E+03	8.520220E-17	1.124523E-18
4.110000E+03	8.575139E-17	1.125665E-18
4.120000E+03	8.624167E-17	1.125961E-18
4.130000E+03	8.667684E-17	1.125474E-18
4.140000E+03	8.705937E-17	1.124248E-18
4.150000E+03	8.739586E-17	1.122379E-18
4.160000E+03	8.768773E-17	1.119896E-18
4.170000E+03	8.794041E-17	1.116878E-18
4.180000E+03	8.815950E-17	1.113404E-18
4.190000E+03	8.834717E-17	1.109510E-18
4.200000E+03	8.850919E-17	1.105274E-18
4.210000E+03	8.865128E-17	1.100775E-18
4.220000E+03	8.877730E-17	1.096063E-18
4.230000E+03	8.889093E-17	1.091190E-18
4.240000E+03	8.899569E-17	1.086200E-18
4.250000E+03	8.909641E-17	1.081155E-18
4.260000E+03	8.919753E-17	1.076111E-18
4.270000E+03	8.929996E-17	1.071078E-18
4.280000E+03	8.940582E-17	1.066082E-18
4.290000E+03	8.951993E-17	1.061181E-18
4.300000E+03	8.964350E-17	1.056387E-18
4.310000E+03	8.977729E-17	1.051709E-18
4.320000E+03	8.992159E-17	1.047149E-18
4.330000E+03	9.007910E-17	1.042735E-18
4.340000E+03	9.024892E-17	1.038457E-18
4.350000E+03	9.043088E-17	1.034310E-18
4.360000E+03	9.062401E-17	1.030282E-18
4.370000E+03	9.082658E-17	1.026351E-18
4.380000E+03	9.103680E-17	1.022497E-18
4.390000E+03	9.125576E-17	1.018731E-18
4.400000E+03	9.148802E-17	1.015103E-18
4.410000E+03	9.174013E-17	1.011684E-18
4.420000E+03	9.202152E-17	1.008573E-18
4.430000E+03	9.234275E-17	1.005881E-18
4.440000E+03	9.270956E-17	1.003663E-18
4.450000E+03	9.313081E-17	1.002007E-18
4.460000E+03	9.361051E-17	1.000943E-18
4.470000E+03	9.415189E-17	1.000495E-18
4.480000E+03	9.475745E-17	1.000676E-18
4.490000E+03	9.543020E-17	1.001506E-18
4.500000E+03	9.616709E-17	1.002938E-18
4.510000E+03	9.697207E-17	1.005001E-18
4.520000E+03	9.784028E-17	1.007632E-18
4.530000E+03	9.877239E-17	1.010825E-18
4.540000E+03	9.976273E-17	1.014509E-18
4.550000E+03	1.008098E-16	1.018660E-18
4.560000E+03	1.019069E-16	1.023198E-18
4.570000E+03	1.030502E-16	1.028075E-18
4.580000E+03	1.042304E-16	1.033192E-18
4.590000E+03	1.054401E-16	1.038468E-18
4.600000E+03	1.066705E-16	1.043811E-18
4.610000E+03	1.079119E-16	1.049124E-18
4.620000E+03	1.091536E-16	1.054301E-18
4.630000E+03	1.103831E-16	1.059223E-18
4.640000E+03	1.115897E-16	1.063790E-18
4.650000E+03	1.127616E-16	1.067896E-18
4.660000E+03	1.138856E-16	1.071422E-18
4.670000E+03	1.149501E-16	1.074271E-18
4.680000E+03	1.159459E-16	1.076367E-18
4.690000E+03	1.168618E-16	1.077621E-18
4.700000E+03	1.176912E-16	1.077988E-18
4.710000E+03	1.184273E-16	1.077423E-18
4.720000E+03	1.190643E-16	1.075890E-18
4.730000E+03	1.195995E-16	1.073384E-18
4.740000E+03	1.200339E-16	1.069934E-18
4.750000E+03	1.203678E-16	1.065561E-18
4.760000E+03	1.206048E-16	1.060316E-18
4.770000E+03	1.207531E-16	1.054289E-18
4.780000E+03	1.208173E-16	1.047536E-18
4.790000E+03	1.208083E-16	1.040167E-18
4.800000E+03	1.207344E-16	1.032267E-18
4.810000E+03	1.206070E-16	1.023946E-18
4.820000E+03	1.204369E-16	1.015304E-18
4.830000E+03	1.202348E-16	1.006440E-18
4.840000E+03	1.200129E-16	9.974625E-19
4.850000E+03	1.197828E-16	9.884717E-19
4.860000E+03	1.195558E-16	9.795623E-19
4.870000E+03	1.193399E-16	9.707996E-19
4.880000E+03	1.191472E-16	9.622819E-19
4.890000E+03	1.189828E-16	9.540465E-19
4.900000E+03	1.188553E-16	9.461593E-19
4.910000E+03	1.187701E-16	9.386580E-19
4.920000E+03	1.187325E-16	9.315786E-19
4.930000E+03	1.187452E-16	9.249360E-19
4.940000E+03	1.188110E-16	9.187452E-19
4.950000E+03	1.189287E-16	9.129920E-19
4.960000E+03	1.190987E-16	9.076715E-19
4.970000E+03	1.193199E-16	9.027704E-19
4.980000E+03	1.195877E-16	8.982494E-19
4.990000E+03	1.198991E-16	8.940804E-19
5.000000E+03	1.202488E-16	8.902207E-19
5.010000E+03	1.206306E-16	8.866238E-19
5.020000E+03	1.210396E-16	8.832511E-19
5.030000E+03	1.214674E-16	8.800435E-19
5.040000E+03	1.219073E-16	8.769526E-19
5.050000E+03	1.223538E-16	8.739436E-19
5.060000E+03	1.228020E-16	8.709847E-19
5.070000E+03	1.232438E-16	8.680235E-19
5.080000E+03	1.236742E-16	8.650331E-19
5.090000E+03	1.240925E-16	8.620140E-19
5.100000E+03	1.244958E-16	8.589551E-19
5.110000E+03	1.248803E-16	8.558385E-19
5.120000E+03	1.252486E-16	8.526901E-19
5.130000E+03	1.256006E-16	8.495183E-19
5.140000E+03	1.259398E-16	8.463552E-19
5.150000E+03	1.262682E-16	8.432224E-19
5.160000E+03	1.265897E-16	8.401543E-19
5.170000E+03	1.269114E-16	8.372059E-19
5.180000E+03	1.272358E-16	8.344011E-19
5.190000E+03	1.275692E-16	8.317875E-19
5.200000E+03	1.279169E-16	8.294070E-19
5.210000E+03	1.282825E-16	8.272884E-19
5.220000E+03	1.286733E-16	8.254860E-19
5.230000E+03	1.290925E-16	8.240248E-19
5.240000E+03	1.295437E-16	8.229347E-19
5.250000E+03	1.300301E-16	8.222423E-19
5.260000E+03	1.305561E-16	8.219805E-19
5.270000E+03	1.311223E-16	8.221605E-19
5.280000E+03	1.317316E-16	8.228064E-19
5.290000E+03	1.323838E-16	8.239252E-19
5.300000E+03	1.330809E-16	8.255367E-19
5.310000E+03	1.338217E-16	8.276410E-19
5.320000E+03	1.346089E-16	8.302638E-19
5.330000E+03	1.354392E-16	8.333948E-19
5.340000E+03	1.363138E-16	8.370507E-19
5.350000E+03	1.372320E-16	8.412371E-19
5.360000E+03	1.381947E-16	8.459708E-19
5.370000E+03	1.391985E-16	8.512425E-19
5.380000E+03	1.402458E-16	8.570787E-19
5.390000E+03	1.413364E-16	8.634898E-19
5.400000E+03	1.424670E-16	8.704695E-19
5.410000E+03	1.436401E-16	8.780449E-19
5.420000E+03	1.448538E-16	8.862183E-19
5.430000E+03	1.461083E-16	8.950023E-19
5.440000E+03	1.474007E-16	9.043831E-19
5.450000E+03	1.487298E-16	9.143566E-19
5.460000E+03	1.500908E-16	9.248952E-19
5.470000E+03	1.514785E-16	9.359700E-19
5.480000E+03	1.528885E-16	9.475558E-19
5.490000E+03	1.543120E-16	9.595982E-19
5.500000E+03	1.557421E-16	9.720557E-19
5.510000E+03	1.571663E-16	9.848488E-19
5.520000E+03	1.585772E-16	9.979290E-19
5.530000E+03	1.599610E-16	1.011207E-18
5.540000E+03	1.613063E-16	1.024604E-18
5.550000E+03	1.625949E-16	1.037998E-18
5.560000E+03	1.638145E-16	1.051301E-18
5.570000E+03	1.649471E-16	1.064384E-18
5.580000E+03	1.659767E-16	1.077130E-18
5.590000E+03	1.668876E-16	1.089418E-18
5.600000E+03	1.676658E-16	1.101138E-18
5.610000E+03	1.682994E-16	1.112186E-18
5.620000E+03	1.687789E-16	1.122474E-18
5.630000E+03	1.690984E-16	1.131935E-18
5.640000E+03	1.692550E-16	1.140518E-18
5.650000E+03	1.692482E-16	1.148190E-18
5.660000E+03	1.690828E-16	1.154952E-18
5.670000E+03	1.687690E-16	1.160840E-18
5.680000E+03	1.683169E-16	1.165893E-18
5.690000E+03	1.677427E-16	1.170195E-18
5.700000E+03	1.670604E-16	1.173813E-18
5.710000E+03	1.662904E-16	1.176869E-18
5.720000E+03	1.654531E-16	1.179481E-18
5.730000E+03	1.645680E-16	1.181771E-18
5.740000E+03	1.636560E-16	1.183873E-18
5.750000E+03	1.627397E-16	1.185937E-18
5.760000E+03	1.618359E-16	1.188077E-18
5.770000E+03	1.609666E-16	1.190451E-18
5.780000E+03	1.601457E-16	1.193159E-18
5.790000E+03	1.593906E-16	1.196331E-18
5.800000E+03	1.587128E-16	1.200060E-18
5.810000E+03	1.581254E-16	1.204450E-18
5.820000E+03	1.576342E-16	1.209554E-18
5.830000E+03	1.572488E-16	1.215458E-18
5.840000E+03	1.569704E-16	1.222183E-18
5.850000E+03	1.568025E-16	1.229768E-18
5.860000E+03	1.567431E-16	1.238212E-18
5.870000E+03	1.567914E-16	1.247522E-18
5.880000E+03	1.569410E-16	1.257660E-18
5.890000E+03	1.571855E-16	1.268588E-18
5.900000E+03	1.575167E-16	1.280250E-18
5.910000E+03	1.579250E-16	1.292579E-18
5.920000E+03	1.583977E-16	1.305479E-18
5.930000E+03	1.589247E-16	1.318873E-18
5.940000E+03	1.594932E-16	1.332660E-18
5.950000E+03	1.600888E-16	1.346721E-18
5.960000E+03	1.606983E-16	1.360946E-18
5.970000E+03	1.613105E-16	1.375238E-18
5.980000E+03	1.619134E-16	1.389491E-18
5.990000E+03	1.624926E-16	1.403574E-18
6.000000E+03	1.630411E-16	1.417421E-18
6.010000E+03	1.635504E-16	1.430948E-18
6.020000E+03	1.640120E-16	1.444070E-18
6.030000E+03	1.644226E-16	1.456747E-18
6.040000E+03	1.647794E-16	1.468942E-18
6.050000E+03	1.650811E-16	1.480633E-18
6.060000E+03	1.653307E-16	1.491835E-18
6.070000E+03	1.655311E-16	1.502563E-18
6.080000E+03	1.656856E-16	1.512835E-18
6.090000E+03	1.658052E-16	1.522746E-18
6.100000E+03	1.658947E-16	1.532329E-18
6.110000E+03	1.659660E-16	1.541690E-18
6.120000E+03	1.660271E-16	1.550897E-18
6.130000E+03	1.660895E-16	1.560056E-18
6.140000E+03	1.661632E-16	1.569260E-18
6.150000E+03	1.662579E-16	1.578599E-18
6.160000E+03	1.663810E-16	1.588147E-18
6.170000E+03	1.665407E-16	1.597984E-18
6.180000E+03	1.667404E-16	1.608149E-18
6.190000E+03	1.669907E-16	1.618746E-18
6.200000E+03	1.672922E-16	1.629788E-18
6.210000E+03	1.676501E-16	1.641333E-18
6.220000E+03	1.680648E-16	1.653389E-18
6.230000E+03	1.685332E-16	1.665932E-18
6.240000E+03	1.690539E-16	1.678957E-18
6.250000E+03	1.696204E-16	1.692401E-18
6.260000E+03	1.702249E-16	1.706192E-18
6.270000E+03	1.708599E-16	1.720257E-18
6.280000E+03	1.715190E-16	1.734534E-18
6.290000E+03	1.721875E-16	1.748876E-18
6.300000E+03	1.728595E-16	1.763220E-18
6.310000E+03	1.735234E-16	1.777448E-18
6.320000E+03	1.741673E-16	1.791435E-18
6.330000E+03	1.747836E-16	1.805097E-18
6.340000E+03	1.753633E-16	1.818337E-18
6.350000E+03	1.758962E-16	1.831041E-18
6.360000E+03	1.763750E-16	1.843126E-18
6.370000E+03	1.767968E-16	1.854555E-18
6.380000E+03	1.771528E-16	1.865227E-18
6.390000E+03	1.774408E-16	1.875111E-18
6.400000E+03	1.776600E-16	1.884188E-18
6.410000E+03	1.778068E-16	1.892412E-18
6.420000E+03	1.778844E-16	1.899809E-18
6.430000E+03	1.778932E-16	1.906376E-18
6.440000E+03	1.778364E-16	1.912138E-18
6.450000E+03	1.777140E-16	1.917090E-18
6.460000E+03	1.775339E-16	1.921308E-18
6.470000E+03	1.772986E-16	1.924816E-18
6.480000E+03	1.770128E-16	1.927659E-18
6.490000E+03	1.766806E-16	1.929877E-18
6.500000E+03	1.763063E-16	1.931514E-18
6.510000E+03	1.758878E-16	1.932543E-18
6.520000E+03	1.754301E-16	1.933016E-18
6.530000E+03	1.749282E-16	1.932875E-18
6.540000E+03	1.743862E-16	1.932163E-18
6.550000E+03	1.737978E-16	1.930806E-18
6.560000E+03	1.731640E-16	1.928814E-18
6.570000E+03	1.724794E-16	1.926124E-18
6.580000E+03	1.717459E-16	1.922754E-18
6.590000E+03	1.709576E-16	1.918634E-18
6.600000E+03	1.701140E-16	1.913759E-18
6.610000E+03	1.692109E-16	1.908076E-18
6.620000E+03	1.682459E-16	1.901557E-18
6.630000E+03	1.672170E-16	1.894175E-18
6.640000E+03	1.661242E-16	1.885929E-18
6.650000E+03	1.649644E-16	1.876781E-18
6.660000E+03	1.637366E-16	1.866716E-18
6.670000E+03	1.624425E-16	1.855751E-18
6.680000E+03	1.610820E-16	1.843886E-18
6.690000E+03	1.596548E-16	1.831112E-18
6.700000E+03	1.581657E-16	1.817486E-18
6.710000E+03	1.566136E-16	1.802991E-18
6.720000E+03	1.550032E-16	1.787683E-18
6.730000E+03	1.533400E-16	1.771624E-18
6.740000E+03	1.516263E-16	1.754840E-18
6.750000E+03	1.498685E-16	1.737407E-18
6.760000E+03	1.480721E-16	1.719389E-18
6.770000E+03	1.462409E-16	1.700831E-18
6.780000E+03	1.443843E-16	1.681845E-18
6.790000E+03	1.425071E-16	1.662488E-18
6.800000E+03	1.406158E-16	1.642840E-18
6.810000E+03	1.387174E-16	1.622982E-18
6.820000E+03	1.368200E-16	1.603017E-18
6.830000E+03	1.349308E-16	1.583030E-18
6.840000E+03	1.330549E-16	1.563085E-18
6.850000E+03	1.312023E-16	1.543302E-18
6.860000E+03	1.293763E-16	1.523728E-18
6.870000E+03	1.275848E-16	1.504458E-18
6.880000E+03	1.258354E-16	1.485587E-18
6.890000E+03	1.241310E-16	1.467153E-18
6.900000E+03	1.224795E-16	1.449257E-18
6.910000E+03	1.208860E-16	1.431961E-18
6.920000E+03	1.193536E-16	1.415310E-18
6.930000E+03	1.178860E-16	1.399350E-18
6.940000E+03	1.164884E-16	1.384150E-18
6.950000E+03	1.151635E-16	1.369746E-18
6.960000E+03	1.139126E-16	1.356159E-18
6.970000E+03	1.127390E-16	1.343432E-18
6.980000E+03	1.116443E-16	1.331590E-18
6.990000E+03	1.106282E-16	1.320634E-18
7.000000E+03	1.096941E-16	1.310609E-18
7.010000E+03	1.088394E-16	1.301489E-18
7.020000E+03	1.080657E-16	1.293295E-18
7.030000E+03	1.073737E-16	1.286043E-18
7.040000E+03	1.067600E-16	1.279694E-18
7.050000E+03	1.062263E-16	1.274274E-18
7.060000E+03	1.057687E-16	1.269738E-18
7.070000E+03	1.053883E-16	1.266105E-18
7.080000E+03	1.050822E-16	1.263341E-18
7.090000E+03	1.048484E-16	1.261429E-18
7.100000E+03	1.046851E-16	1.260347E-18
7.110000E+03	1.045913E-16	1.260089E-18
7.120000E+03	1.045636E-16	1.260616E-18
7.130000E+03	1.045996E-16	1.261904E-18
7.140000E+03	1.046985E-16	1.263942E-18
7.150000E+03	1.048563E-16	1.266690E-18
7.160000E+03	1.050721E-16	1.270137E-18
7.170000E+03	1.053434E-16	1.274257E-18
7.180000E+03	1.056664E-16	1.279007E-18
7.190000E+03	1.060401E-16	1.284375E-18
7.200000E+03	1.064605E-16	1.290320E-18
7.210000E+03	1.069280E-16	1.296846E-18
7.220000E+03	1.074373E-16	1.303893E-18
7.230000E+03	1.079888E-16	1.311469E-18
7.240000E+03	1.085787E-16	1.319529E-18
7.250000E+03	1.092042E-16	1.328046E-18
7.260000E+03	1.098632E-16	1.336993E-18
7.270000E+03	1.105544E-16	1.346359E-18
7.280000E+03	1.112739E-16	1.356100E-18
7.290000E+03	1.120191E-16	1.366187E-18
7.300000E+03	1.127905E-16	1.376628E-18
7.310000E+03	1.135828E-16	1.387363E-18
7.320000E+03	1.143930E-16	1.398358E-18
7.330000E+03	1.152220E-16	1.409628E-18
7.340000E+03	1.160640E-16	1.421102E-18
7.350000E+03	1.169164E-16	1.432755E-18
7.360000E+03	1.177782E-16	1.444577E-18
7.370000E+03	1.186450E-16	1.456517E-18
7.380000E+03	1.195158E-16	1.468566E-18
7.390000E+03	1.203844E-16	1.480651E-18
7.400000E+03	1.212478E-16	1.492739E-18
7.410000E+03	1.221044E-16	1.504810E-18
7.420000E+03	1.229471E-16	1.516785E-18
7.430000E+03	1.237738E-16	1.528636E-18
7.440000E+03	1.245765E-16	1.540270E-18
7.450000E+03	1.253552E-16	1.551688E-18
7.460000E+03	1.261008E-16	1.562781E-18
7.470000E+03	1.268084E-16	1.573490E-18
7.480000E+03	1.274709E-16	1.583727E-18
7.490000E+03	1.280820E-16	1.593416E-18
7.500000E+03	1.286336E-16	1.602459E-18
7.510000E+03	1.291186E-16	1.610765E-18
7.520000E+03	1.295375E-16	1.618341E-18
7.530000E+03	1.298925E-16	1.625215E-18
7.540000E+03	1.301906E-16	1.631473E-18
7.550000E+03	1.304411E-16	1.637233E-18
7.560000E+03	1.306499E-16	1.642567E-18
7.570000E+03	1.308252E-16	1.647582E-18
7.580000E+03	1.309698E-16	1.652310E-18
7.590000E+03	1.310910E-16	1.656846E-18
7.600000E+03	1.311938E-16	1.661256E-18
7.610000E+03	1.312829E-16	1.665598E-18
7.620000E+03	1.313606E-16	1.669905E-18
7.630000E+03	1.314310E-16	1.674229E-18
7.640000E+03	1.314996E-16	1.678644E-18
7.650000E+03	1.315679E-16	1.683170E-18
7.660000E+03	1.316393E-16	1.687853E-18
7.670000E+03	1.317185E-16	1.692754E-18
7.680000E+03	1.318048E-16	1.697862E-18
7.690000E+03	1.319026E-16	1.703234E-18
7.700000E+03	1.320160E-16	1.708923E-18
7.710000E+03	1.321435E-16	1.714909E-18
7.720000E+03	1.322885E-16	1.721236E-18
7.730000E+03	1.324525E-16	1.727926E-18
7.740000E+03	1.326366E-16	1.734992E-18
7.750000E+03	1.328430E-16	1.742466E-18
7.760000E+03	1.330684E-16	1.750305E-18
