#wls	flux	fluxerr
1.600000E+03	3.808326E-18	1.453398E-19
1.640000E+03	3.825009E-18	1.453295E-19
1.680000E+03	3.843000E-18	1.453479E-19
1.720000E+03	3.862360E-18	1.453960E-19
1.760000E+03	3.883818E-18	1.455000E-19
1.800000E+03	3.906119E-18	1.456113E-19
1.840000E+03	3.930670E-18	1.457813E-19
1.880000E+03	3.956227E-18	1.459620E-19
1.920000E+03	3.984216E-18	1.462046E-19
1.960000E+03	4.014748E-18	1.465112E-19
2.000000E+03	4.047267E-18	1.468592E-19
2.040000E+03	4.081896E-18	1.472511E-19
2.080000E+03	4.119452E-18	1.477143E-19
2.120000E+03	4.159408E-18	1.482271E-19
2.160000E+03	4.202620E-18	1.488175E-19
2.200000E+03	4.249278E-18	1.494891E-19
2.240000E+03	4.299597E-18	1.502459E-19
2.280000E+03	4.353115E-18	1.510685E-19
2.320000E+03	4.410785E-18	1.519862E-19
2.360000E+03	4.473607E-18	1.530291E-19
2.400000E+03	4.540494E-18	1.541551E-19
2.440000E+03	4.613232E-18	1.554201E-19
2.480000E+03	4.691520E-18	1.568080E-19
2.520000E+03	4.775811E-18	1.583279E-19
2.560000E+03	4.866618E-18	1.599902E-19
2.600000E+03	4.965260E-18	1.618308E-19
2.640000E+03	5.072409E-18	1.638630E-19
2.680000E+03	5.188051E-18	1.660771E-19
2.720000E+03	5.313789E-18	1.685143E-19
2.760000E+03	5.450586E-18	1.711935E-19
2.800000E+03	5.599529E-18	1.741362E-19
2.840000E+03	5.761033E-18	1.773412E-19
2.880000E+03	5.938119E-18	1.808858E-19
2.920000E+03	6.131566E-18	1.847755E-19
2.960000E+03	6.342292E-18	1.890183E-19
3.000000E+03	6.574949E-18	1.937307E-19
3.010000E+03	6.636339E-18	1.949732E-19
3.020000E+03	6.699002E-18	1.962402E-19
3.030000E+03	6.762974E-18	1.975324E-19
3.040000E+03	6.829211E-18	1.988771E-19
3.050000E+03	6.896844E-18	2.002485E-19
3.060000E+03	6.965915E-18	2.016474E-19
3.070000E+03	7.036465E-18	2.030745E-19
3.080000E+03	7.109480E-18	2.045577E-19
3.090000E+03	7.184075E-18	2.060710E-19
3.100000E+03	7.260291E-18	2.076149E-19
3.110000E+03	7.338177E-18	2.091905E-19
3.120000E+03	7.417780E-18	2.107985E-19
3.130000E+03	7.500128E-18	2.124674E-19
3.140000E+03	7.584308E-18	2.141708E-19
3.150000E+03	7.670369E-18	2.159094E-19
3.160000E+03	7.758367E-18	2.176841E-19
3.170000E+03	7.848353E-18	2.194959E-19
3.180000E+03	7.941405E-18	2.213741E-19
3.190000E+03	8.036575E-18	2.232915E-19
3.200000E+03	8.133923E-18	2.252490E-19
3.210000E+03	8.233504E-18	2.272475E-19
3.220000E+03	8.336442E-18	2.293171E-19
3.230000E+03	8.441755E-18	2.314300E-19
3.240000E+03	8.549509E-18	2.335872E-19
3.250000E+03	8.659767E-18	2.357897E-19
3.260000E+03	8.773692E-18	2.380681E-19
3.270000E+03	8.889166E-18	2.403641E-19
3.280000E+03	9.008459E-18	2.427383E-19
3.290000E+03	9.130546E-18	2.451619E-19
3.300000E+03	9.256634E-18	2.476665E-19
3.310000E+03	9.384519E-18	2.501919E-19
3.320000E+03	9.516570E-18	2.528006E-19
3.330000E+03	9.651710E-18	2.554626E-19
3.340000E+03	9.790013E-18	2.581789E-19
3.350000E+03	9.932752E-18	2.609819E-19
3.360000E+03	1.007882E-17	2.638412E-19
3.370000E+03	1.022828E-17	2.667576E-19
3.380000E+03	1.038120E-17	2.697314E-19
3.390000E+03	1.053766E-17	2.727637E-19
3.400000E+03	1.069898E-17	2.758877E-19
3.410000E+03	1.086271E-17	2.790382E-19
3.420000E+03	1.103277E-17	2.823151E-19
3.430000E+03	1.120535E-17	2.856193E-19
3.440000E+03	1.138180E-17	2.889841E-19
3.450000E+03	1.156353E-17	2.924438E-19
3.460000E+03	1.174927E-17	2.959648E-19
3.470000E+03	1.193907E-17	2.995472E-19
3.480000E+03	1.213298E-17	3.031903E-19
3.490000E+03	1.233244E-17	3.069292E-19
3.500000E+03	1.253613E-17	3.107291E-19
3.510000E+03	1.274406E-17	3.145889E-19
3.520000E+03	1.295627E-17	3.185082E-19
3.530000E+03	1.317279E-17	3.224861E-19
3.540000E+03	1.339515E-17	3.265585E-19
3.550000E+03	1.362191E-17	3.306884E-19
3.560000E+03	1.385306E-17	3.348745E-19
3.570000E+03	1.408864E-17	3.391157E-19
3.580000E+03	1.432867E-17	3.434112E-19
3.590000E+03	1.457476E-17	3.477983E-19
3.600000E+03	1.482539E-17	3.522384E-19
3.610000E+03	1.508062E-17	3.567313E-19
3.620000E+03	1.534052E-17	3.612773E-19
3.630000E+03	1.560516E-17	3.658766E-19
3.640000E+03	1.587635E-17	3.705695E-19
3.650000E+03	1.615250E-17	3.753171E-19
3.660000E+03	1.643367E-17	3.801190E-19
3.670000E+03	1.671998E-17	3.849760E-19
3.680000E+03	1.701147E-17	3.898879E-19
3.690000E+03	1.731012E-17	3.948974E-19
3.700000E+03	1.761418E-17	3.999626E-19
3.710000E+03	1.792374E-17	4.050839E-19
3.720000E+03	1.823890E-17	4.102613E-19
3.730000E+03	1.855970E-17	4.154940E-19
3.740000E+03	1.888624E-17	4.207822E-19
3.750000E+03	1.922058E-17	4.261695E-19
3.760000E+03	1.956083E-17	4.316119E-19
3.770000E+03	1.990705E-17	4.371085E-19
3.780000E+03	2.025929E-17	4.426582E-19
3.790000E+03	2.061760E-17	4.482604E-19
3.800000E+03	2.098203E-17	4.539137E-19
3.810000E+03	2.135477E-17	4.596634E-19
3.820000E+03	2.173153E-17	4.654150E-19
3.830000E+03	2.211672E-17	4.712607E-19
3.840000E+03	2.250818E-17	4.771520E-19
3.850000E+03	2.290592E-17	4.830871E-19
3.860000E+03	2.330993E-17	4.890635E-19
3.870000E+03	2.372256E-17	4.951285E-19
3.880000E+03	2.413911E-17	5.011813E-19
3.890000E+03	2.456431E-17	5.073183E-19
3.900000E+03	2.499329E-17	5.134368E-19
3.910000E+03	2.543091E-17	5.196346E-19
3.920000E+03	2.587468E-17	5.258585E-19
3.930000E+03	2.632454E-17	5.321051E-19
3.940000E+03	2.678042E-17	5.383711E-19
3.950000E+03	2.724222E-17	5.446525E-19
3.960000E+03	2.770986E-17	5.509457E-19
3.970000E+03	2.818592E-17	5.573002E-19
3.980000E+03	2.866492E-17	5.636053E-19
3.990000E+03	2.914939E-17	5.699096E-19
4.000000E+03	2.964199E-17	5.762631E-19
4.010000E+03	3.013982E-17	5.826074E-19
4.020000E+03	3.063983E-17	5.888821E-19
4.030000E+03	3.114754E-17	5.951921E-19
4.040000E+03	3.165990E-17	6.014773E-19
4.050000E+03	3.217669E-17	6.077322E-19
4.060000E+03	3.269765E-17	6.139506E-19
4.070000E+03	3.321946E-17	6.200694E-19
4.080000E+03	3.374791E-17	6.261961E-19
4.090000E+03	3.427968E-17	6.322676E-19
4.100000E+03	3.481442E-17	6.382768E-19
4.110000E+03	3.535177E-17	6.442166E-19
4.120000E+03	3.589137E-17	6.500796E-19
4.130000E+03	3.643277E-17	6.558578E-19
4.140000E+03	3.697555E-17	6.615435E-19
4.150000E+03	3.751924E-17	6.671281E-19
4.160000E+03	3.806332E-17	6.726031E-19
4.170000E+03	3.860726E-17	6.779592E-19
4.180000E+03	3.915048E-17	6.831873E-19
4.190000E+03	3.969239E-17	6.882778E-19
4.200000E+03	4.023234E-17	6.932206E-19
4.210000E+03	4.076966E-17	6.980054E-19
4.220000E+03	4.130363E-17	7.026219E-19
4.230000E+03	4.182989E-17	7.069981E-19
4.240000E+03	4.235490E-17	7.112456E-19
4.250000E+03	4.287423E-17	7.152922E-19
4.260000E+03	4.338338E-17	7.190655E-19
4.270000E+03	4.388892E-17	7.226783E-19
4.280000E+03	4.438252E-17	7.259964E-19
4.290000E+03	4.487093E-17	7.291340E-19
4.300000E+03	4.534570E-17	7.319577E-19
4.310000E+03	4.580987E-17	7.345214E-19
4.320000E+03	4.626272E-17	7.368182E-19
4.330000E+03	4.670358E-17	7.388424E-19
4.340000E+03	4.713190E-17	7.405899E-19
4.350000E+03	4.754720E-17	7.420587E-19
4.360000E+03	4.794517E-17	7.431871E-19
4.370000E+03	4.833353E-17	7.441007E-19
4.380000E+03	4.870423E-17	7.446804E-19
4.390000E+03	4.906129E-17	7.449943E-19
4.400000E+03	4.940455E-17	7.450454E-19
4.410000E+03	4.973366E-17	7.448338E-19
4.420000E+03	5.004838E-17	7.443618E-19
4.430000E+03	5.034450E-17	7.435728E-19
4.440000E+03	5.063023E-17	7.425944E-19
4.450000E+03	5.089757E-17	7.413142E-19
4.460000E+03	5.115088E-17	7.398025E-19
4.470000E+03	5.139059E-17	7.380700E-19
4.480000E+03	5.161719E-17	7.361279E-19
4.490000E+03	5.182718E-17	7.339299E-19
4.500000E+03	5.202946E-17	7.316061E-19
4.510000E+03	5.221651E-17	7.290531E-19
4.520000E+03	5.239321E-17	7.263429E-19
4.530000E+03	5.256038E-17	7.234892E-19
4.540000E+03	5.271467E-17	7.204490E-19
4.550000E+03	5.286106E-17	7.172928E-19
4.560000E+03	5.300037E-17	7.140338E-19
4.570000E+03	5.313344E-17	7.106848E-19
4.580000E+03	5.326105E-17	7.072576E-19
4.590000E+03	5.337990E-17	7.037097E-19
4.600000E+03	5.349492E-17	7.001079E-19
4.610000E+03	5.360684E-17	6.964624E-19
4.620000E+03	5.371644E-17	6.927837E-19
4.630000E+03	5.382031E-17	6.890286E-19
4.640000E+03	5.392743E-17	6.853124E-19
4.650000E+03	5.403020E-17	6.815382E-19
4.660000E+03	5.412933E-17	6.777159E-19
4.670000E+03	5.423367E-17	6.739560E-19
4.680000E+03	5.433562E-17	6.701634E-19
4.690000E+03	5.443989E-17	6.663962E-19
4.700000E+03	5.454296E-17	6.626109E-19
4.710000E+03	5.464949E-17	6.588641E-19
4.720000E+03	5.476000E-17	6.551609E-19
4.730000E+03	5.487502E-17	6.515067E-19
4.740000E+03	5.499505E-17	6.479062E-19
4.750000E+03	5.511646E-17	6.443159E-19
4.760000E+03	5.524381E-17	6.407883E-19
4.770000E+03	5.537344E-17	6.372803E-19
4.780000E+03	5.550987E-17	6.338431E-19
4.790000E+03	5.565352E-17	6.304800E-19
4.800000E+03	5.580475E-17	6.271938E-19
4.810000E+03	5.595985E-17	6.239417E-19
4.820000E+03	5.612325E-17	6.207724E-19
4.830000E+03	5.629531E-17	6.176884E-19
4.840000E+03	5.647634E-17	6.146916E-19
4.850000E+03	5.666251E-17	6.117394E-19
4.860000E+03	5.685825E-17	6.088790E-19
4.870000E+03	5.705965E-17	6.060676E-19
4.880000E+03	5.727112E-17	6.033514E-19
4.890000E+03	5.749288E-17	6.007318E-19
4.900000E+03	5.772515E-17	5.982098E-19
4.910000E+03	5.796394E-17	5.957437E-19
4.920000E+03	5.821361E-17	5.933780E-19
4.930000E+03	5.847013E-17	5.910713E-19
4.940000E+03	5.874199E-17	5.889093E-19
4.950000E+03	5.901671E-17	5.867664E-19
4.960000E+03	5.930701E-17	5.847699E-19
4.970000E+03	5.960452E-17	5.828370E-19
4.980000E+03	5.991351E-17	5.810102E-19
4.990000E+03	6.023400E-17	5.792902E-19
5.000000E+03	6.056174E-17	5.776370E-19
5.010000E+03	6.090095E-17	5.760927E-19
5.020000E+03	6.125159E-17	5.746579E-19
5.030000E+03	6.160926E-17	5.732931E-19
5.040000E+03	6.197816E-17	5.720401E-19
5.050000E+03	6.235379E-17	5.708598E-19
5.060000E+03	6.274473E-17	5.698333E-19
5.070000E+03	6.314201E-17	5.688819E-19
5.080000E+03	6.354532E-17	5.680071E-19
5.090000E+03	6.396328E-17	5.672898E-19
5.100000E+03	6.438669E-17	5.666521E-19
5.110000E+03	6.481512E-17	5.660957E-19
5.120000E+03	6.525266E-17	5.656620E-19
5.130000E+03	6.569888E-17	5.653525E-19
5.140000E+03	6.615330E-17	5.651691E-19
5.150000E+03	6.661078E-17	5.650744E-19
5.160000E+03	6.707531E-17	5.651097E-19
5.170000E+03	6.754625E-17	5.652768E-19
5.180000E+03	6.801823E-17	5.655389E-19
5.190000E+03	6.849511E-17	5.659369E-19
5.200000E+03	6.897610E-17	5.664730E-19
5.210000E+03	6.945552E-17	5.671098E-19
5.220000E+03	6.993715E-17	5.678883E-19
5.230000E+03	7.041996E-17	5.688101E-19
5.240000E+03	7.089799E-17	5.698376E-19
5.250000E+03	7.137485E-17	5.710109E-19
5.260000E+03	7.184931E-17	5.723309E-19
5.270000E+03	7.232003E-17	5.737983E-19
5.280000E+03	7.278059E-17	5.753735E-19
5.290000E+03	7.322944E-17	5.770563E-19
5.300000E+03	7.367497E-17	5.789241E-19
5.310000E+03	7.410548E-17	5.808964E-19
5.320000E+03	7.452430E-17	5.830107E-19
5.330000E+03	7.492452E-17	5.852239E-19
5.340000E+03	7.531451E-17	5.876121E-19
5.350000E+03	7.568221E-17	5.900912E-19
5.360000E+03	7.602571E-17	5.926559E-19
5.370000E+03	7.635348E-17	5.953814E-19
5.380000E+03	7.665340E-17	5.981809E-19
5.390000E+03	7.692375E-17	6.010481E-19
5.400000E+03	7.717332E-17	6.040533E-19
5.410000E+03	7.739028E-17	6.070996E-19
5.420000E+03	7.757860E-17	6.102121E-19
5.430000E+03	7.773199E-17	6.133343E-19
5.440000E+03	7.785484E-17	6.164924E-19
5.450000E+03	7.794651E-17	6.196722E-19
5.460000E+03	7.800646E-17	6.228590E-19
5.470000E+03	7.803418E-17	6.260378E-19
5.480000E+03	7.802381E-17	6.291494E-19
5.490000E+03	7.797458E-17	6.321740E-19
5.500000E+03	7.789646E-17	6.351788E-19
5.510000E+03	7.777960E-17	6.380692E-19
5.520000E+03	7.762984E-17	6.408781E-19
5.530000E+03	7.744765E-17	6.435943E-19
5.540000E+03	7.723346E-17	6.462059E-19
5.550000E+03	7.698255E-17	6.486576E-19
5.560000E+03	7.670073E-17	6.509820E-19
5.570000E+03	7.638369E-17	6.531262E-19
5.580000E+03	7.604271E-17	6.551707E-19
5.590000E+03	7.566878E-17	6.570225E-19
5.600000E+03	7.526845E-17	6.587224E-19
5.610000E+03	7.484328E-17	6.602690E-19
5.620000E+03	7.438999E-17	6.616183E-19
5.630000E+03	7.391538E-17	6.628161E-19
5.640000E+03	7.342127E-17	6.638652E-19
5.650000E+03	7.290951E-17	6.647692E-19
5.660000E+03	7.237711E-17	6.654884E-19
5.670000E+03	7.183079E-17	6.660722E-19
5.680000E+03	7.127234E-17	6.665263E-19
5.690000E+03	7.070349E-17	6.668569E-19
5.700000E+03	7.012588E-17	6.670698E-19
5.710000E+03	6.953649E-17	6.671273E-19
5.720000E+03	6.894155E-17	6.670805E-19
5.730000E+03	6.834251E-17	6.669360E-19
5.740000E+03	6.773622E-17	6.666561E-19
5.750000E+03	6.713306E-17	6.663366E-19
5.760000E+03	6.652525E-17	6.658954E-19
5.770000E+03	6.591843E-17	6.653835E-19
5.780000E+03	6.531367E-17	6.648076E-19
5.790000E+03	6.470765E-17	6.641299E-19
5.800000E+03	6.410997E-17	6.634455E-19
5.810000E+03	6.351289E-17	6.626722E-19
5.820000E+03	6.292148E-17	6.618602E-19
5.830000E+03	6.233234E-17	6.609716E-19
5.840000E+03	6.175447E-17	6.601005E-19
5.850000E+03	6.118020E-17	6.591642E-19
5.860000E+03	6.061422E-17	6.582123E-19
5.870000E+03	6.005705E-17	6.572502E-19
5.880000E+03	5.950910E-17	6.562826E-19
5.890000E+03	5.897077E-17	6.553146E-19
5.900000E+03	5.843853E-17	6.543071E-19
5.910000E+03	5.792047E-17	6.533515E-19
5.920000E+03	5.740913E-17	6.523650E-19
5.930000E+03	5.690860E-17	6.513949E-19
5.940000E+03	5.641529E-17	6.504014E-19
5.950000E+03	5.593694E-17	6.494750E-19
5.960000E+03	5.546613E-17	6.485318E-19
5.970000E+03	5.501040E-17	6.476614E-19
5.980000E+03	5.456241E-17	6.467800E-19
5.990000E+03	5.412588E-17	6.459330E-19
6.000000E+03	5.369724E-17	6.450798E-19
6.010000E+03	5.328366E-17	6.443086E-19
6.020000E+03	5.288147E-17	6.435777E-19
6.030000E+03	5.248708E-17	6.428456E-19
6.040000E+03	5.210397E-17	6.421566E-19
6.050000E+03	5.173205E-17	6.415121E-19
6.060000E+03	5.137117E-17	6.409125E-19
6.070000E+03	5.102120E-17	6.403586E-19
6.080000E+03	5.068200E-17	6.398509E-19
6.090000E+03	5.035002E-17	6.393467E-19
6.100000E+03	5.002848E-17	6.388889E-19
6.110000E+03	4.972056E-17	6.385204E-19
6.120000E+03	4.941936E-17	6.381551E-19
6.130000E+03	4.912803E-17	6.378355E-19
6.140000E+03	4.884637E-17	6.375610E-19
6.150000E+03	4.857415E-17	6.373311E-19
6.160000E+03	4.830791E-17	6.371018E-19
6.170000E+03	4.805393E-17	6.369580E-19
6.180000E+03	4.780553E-17	6.368132E-19
6.190000E+03	4.756569E-17	6.367086E-19
6.200000E+03	4.733740E-17	6.366863E-19
6.210000E+03	4.711402E-17	6.366592E-19
6.220000E+03	4.689852E-17	6.366685E-19
6.230000E+03	4.669068E-17	6.367131E-19
6.240000E+03	4.649027E-17	6.367915E-19
6.250000E+03	4.629393E-17	6.368590E-19
6.260000E+03	4.610773E-17	6.370004E-19
6.270000E+03	4.592517E-17	6.371278E-19
6.280000E+03	4.575229E-17	6.373261E-19
6.290000E+03	4.558268E-17	6.375075E-19
6.300000E+03	4.541924E-17	6.377137E-19
6.310000E+03	4.526482E-17	6.379863E-19
6.320000E+03	4.511312E-17	6.382377E-19
6.330000E+03	4.496704E-17	6.385098E-19
6.340000E+03	4.482640E-17	6.388013E-19
6.350000E+03	4.468801E-17	6.390678E-19
6.360000E+03	4.455778E-17	6.393946E-19
6.370000E+03	4.443253E-17	6.397376E-19
6.380000E+03	4.430914E-17	6.400528E-19
6.390000E+03	4.419350E-17	6.404260E-19
6.400000E+03	4.407950E-17	6.407697E-19
6.410000E+03	4.397302E-17	6.411706E-19
6.420000E+03	4.386802E-17	6.415412E-19
6.430000E+03	4.377039E-17	6.419688E-19
6.440000E+03	4.367410E-17	6.423658E-19
6.450000E+03	4.358210E-17	6.427763E-19
6.460000E+03	4.349436E-17	6.432006E-19
6.470000E+03	4.341084E-17	6.436392E-19
6.480000E+03	4.333157E-17	6.440931E-19
6.490000E+03	4.325651E-17	6.445628E-19
6.500000E+03	4.318571E-17	6.450497E-19
6.510000E+03	4.311921E-17	6.455552E-19
6.520000E+03	4.305409E-17	6.460365E-19
6.530000E+03	4.299632E-17	6.465837E-19
6.540000E+03	4.294301E-17	6.471544E-19
6.550000E+03	4.289133E-17	6.477065E-19
6.560000E+03	4.284725E-17	6.483311E-19
6.570000E+03	4.280794E-17	6.489862E-19
6.580000E+03	4.277058E-17	6.496299E-19
6.590000E+03	4.274120E-17	6.503542E-19
6.600000E+03	4.271405E-17	6.510728E-19
6.610000E+03	4.269226E-17	6.518338E-19
6.620000E+03	4.267890E-17	6.526852E-19
6.630000E+03	4.266830E-17	6.535408E-19
6.640000E+03	4.266359E-17	6.544495E-19
6.650000E+03	4.266496E-17	6.554148E-19
6.660000E+03	4.267557E-17	6.564860E-19
6.670000E+03	4.268974E-17	6.575770E-19
6.680000E+03	4.271068E-17	6.587373E-19
6.690000E+03	4.273858E-17	6.599710E-19
6.700000E+03	4.277371E-17	6.612830E-19
6.710000E+03	4.281632E-17	6.626779E-19
6.720000E+03	4.286665E-17	6.641600E-19
6.730000E+03	4.292498E-17	6.657348E-19
6.740000E+03	4.299158E-17	6.674067E-19
6.750000E+03	4.306672E-17	6.691809E-19
6.760000E+03	4.314767E-17	6.710158E-19
6.770000E+03	4.324071E-17	6.730095E-19
6.780000E+03	4.334314E-17	6.751209E-19
6.790000E+03	4.345524E-17	6.773552E-19
6.800000E+03	4.357731E-17	6.797175E-19
6.810000E+03	4.370659E-17	6.821656E-19
6.820000E+03	4.384945E-17	6.847996E-19
6.830000E+03	4.400315E-17	6.875773E-19
6.840000E+03	4.416492E-17	6.904562E-19
6.850000E+03	4.434116E-17	6.935371E-19
6.860000E+03	4.452603E-17	6.967291E-19
6.870000E+03	4.472600E-17	7.001342E-19
6.880000E+03	4.493511E-17	7.036598E-19
6.890000E+03	4.515992E-17	7.074093E-19
6.900000E+03	4.539440E-17	7.112888E-19
6.910000E+03	4.564517E-17	7.154027E-19
6.920000E+03	4.590610E-17	7.196556E-19
6.930000E+03	4.618062E-17	7.241021E-19
6.940000E+03	4.647224E-17	7.287977E-19
6.950000E+03	4.677471E-17	7.336451E-19
6.960000E+03	4.709148E-17	7.386992E-19
6.970000E+03	4.742275E-17	7.439638E-19
6.980000E+03	4.776875E-17	7.494431E-19
6.990000E+03	4.813302E-17	7.551936E-19
7.000000E+03	4.850899E-17	7.611129E-19
7.010000E+03	4.890017E-17	7.672568E-19
7.020000E+03	4.930670E-17	7.736283E-19
7.030000E+03	4.972865E-17	7.802296E-19
7.040000E+03	5.016614E-17	7.870634E-19
7.050000E+03	5.061920E-17	7.941310E-19
7.060000E+03	5.108787E-17	8.014342E-19
7.070000E+03	5.156850E-17	8.089166E-19
7.080000E+03	5.206830E-17	8.166928E-19
7.090000E+03	5.258362E-17	8.247063E-19
7.100000E+03	5.311432E-17	8.329565E-19
7.110000E+03	5.365644E-17	8.413825E-19
7.120000E+03	5.421739E-17	8.501018E-19
7.130000E+03	5.479313E-17	8.590530E-19
7.140000E+03	5.537946E-17	8.681713E-19
7.150000E+03	5.598383E-17	8.775757E-19
7.160000E+03	5.659793E-17	8.871375E-19
7.170000E+03	5.722525E-17	8.969134E-19
7.180000E+03	5.786935E-17	9.069613E-19
7.190000E+03	5.852145E-17	9.171457E-19
7.200000E+03	5.918495E-17	9.275222E-19
7.210000E+03	5.985911E-17	9.380816E-19
7.220000E+03	6.054310E-17	9.488133E-19
7.230000E+03	6.124039E-17	9.597748E-19
7.240000E+03	6.193680E-17	9.707463E-19
7.250000E+03	6.264444E-17	9.819207E-19
7.260000E+03	6.335772E-17	9.932134E-19
7.270000E+03	6.407535E-17	1.004607E-18
7.280000E+03	6.479595E-17	1.016085E-18
7.290000E+03	6.551803E-17	1.027625E-18
7.300000E+03	6.623524E-17	1.039132E-18
7.310000E+03	6.695536E-17	1.050732E-18
7.320000E+03	6.766696E-17	1.062250E-18
7.330000E+03	6.837294E-17	1.073734E-18
7.340000E+03	6.907628E-17	1.085235E-18
7.350000E+03	6.976494E-17	1.096568E-18
7.360000E+03	7.044167E-17	1.107781E-18
7.370000E+03	7.110421E-17	1.118841E-18
7.380000E+03	7.175023E-17	1.129717E-18
7.390000E+03	7.237735E-17	1.140374E-18
7.400000E+03	7.298320E-17	1.150779E-18
7.410000E+03	7.356538E-17	1.160898E-18
7.420000E+03	7.411614E-17	1.170611E-18
7.430000E+03	7.464396E-17	1.180058E-18
7.440000E+03	7.514131E-17	1.189121E-18
7.450000E+03	7.560063E-17	1.197684E-18
7.460000E+03	7.602551E-17	1.205807E-18
7.470000E+03	7.641433E-17	1.213465E-18
7.480000E+03	7.677129E-17	1.220729E-18
7.490000E+03	7.708404E-17	1.227404E-18
7.500000E+03	7.735727E-17	1.233565E-18
7.510000E+03	7.758466E-17	1.239113E-18
7.520000E+03	7.777680E-17	1.244218E-18
7.530000E+03	7.792692E-17	1.248771E-18
7.540000E+03	7.802843E-17	1.252668E-18
7.550000E+03	7.809224E-17	1.256082E-18
7.560000E+03	7.810659E-17	1.258823E-18
7.570000E+03	7.807722E-17	1.260982E-18
7.580000E+03	7.800443E-17	1.262562E-18
7.590000E+03	7.788877E-17	1.263570E-18
7.600000E+03	7.773104E-17	1.264014E-18
7.610000E+03	7.753221E-17	1.263905E-18
7.620000E+03	7.729347E-17	1.263253E-18
7.630000E+03	7.701039E-17	1.261978E-18
7.640000E+03	7.669016E-17	1.260191E-18
7.650000E+03	7.633996E-17	1.257999E-18
7.660000E+03	7.594997E-17	1.255235E-18
7.670000E+03	7.552749E-17	1.252009E-18
7.680000E+03	7.507414E-17	1.248340E-18
7.690000E+03	7.459155E-17	1.244247E-18
7.700000E+03	7.407579E-17	1.239654E-18
7.710000E+03	7.353961E-17	1.234768E-18
7.720000E+03	7.297352E-17	1.229419E-18
7.730000E+03	7.239008E-17	1.223812E-18
7.740000E+03	7.177988E-17	1.217779E-18
7.750000E+03	7.114988E-17	1.211430E-18
7.760000E+03	7.050155E-17	1.204782E-18
