#wls	flux	fluxerr
1.596806E+03	1.423231E-15	2.629715E-17
1.636727E+03	1.532510E-15	2.821853E-17
1.676647E+03	1.647810E-15	3.023403E-17
1.716567E+03	1.768860E-15	3.233694E-17
1.756487E+03	1.895193E-15	3.451703E-17
1.796407E+03	2.025956E-15	3.675710E-17
1.836327E+03	2.159905E-15	3.903311E-17
1.876248E+03	2.295317E-15	4.131264E-17
1.916168E+03	2.429932E-15	4.355420E-17
1.956088E+03	2.560980E-15	4.570782E-17
1.996008E+03	2.685433E-15	4.771979E-17
2.035928E+03	2.800553E-15	4.954254E-17
2.075848E+03	2.904709E-15	5.114893E-17
2.115768E+03	2.997745E-15	5.253834E-17
2.155689E+03	3.079603E-15	5.371197E-17
2.195609E+03	3.147860E-15	5.463011E-17
2.235529E+03	3.197188E-15	5.520391E-17
2.275449E+03	3.222247E-15	5.534632E-17
2.315369E+03	3.221121E-15	5.503101E-17
2.355289E+03	3.195727E-15	5.429771E-17
2.395210E+03	3.150230E-15	5.322371E-17
2.435130E+03	3.089655E-15	5.189942E-17
2.475050E+03	3.018995E-15	5.041289E-17
2.514970E+03	2.942670E-15	4.884087E-17
2.554890E+03	2.863939E-15	4.723925E-17
2.594810E+03	2.784337E-15	4.563433E-17
2.634731E+03	2.704202E-15	4.403238E-17
2.674651E+03	2.623280E-15	4.242986E-17
2.714571E+03	2.540936E-15	4.081731E-17
2.754491E+03	2.456338E-15	3.918241E-17
2.794411E+03	2.368533E-15	3.751131E-17
2.834331E+03	2.276550E-15	3.579035E-17
2.874251E+03	2.179485E-15	3.400744E-17
2.914172E+03	2.076548E-15	3.215271E-17
2.954092E+03	1.967164E-15	3.022001E-17
2.994012E+03	1.851055E-15	2.820813E-17
3.003992E+03	1.820983E-15	2.769324E-17
3.013972E+03	1.790504E-15	2.717387E-17
3.023952E+03	1.759627E-15	2.665016E-17
3.033932E+03	1.728372E-15	2.612249E-17
3.043912E+03	1.696737E-15	2.559088E-17
3.053892E+03	1.664773E-15	2.505612E-17
3.063872E+03	1.632491E-15	2.451844E-17
3.073852E+03	1.599913E-15	2.397821E-17
3.083832E+03	1.567053E-15	2.343568E-17
3.093812E+03	1.533943E-15	2.289134E-17
3.103792E+03	1.500603E-15	2.234555E-17
3.113772E+03	1.467068E-15	2.179885E-17
3.123752E+03	1.433377E-15	2.125187E-17
3.133733E+03	1.399565E-15	2.070513E-17
3.143713E+03	1.365685E-15	2.015945E-17
3.153693E+03	1.331788E-15	1.961558E-17
3.163673E+03	1.297937E-15	1.907448E-17
3.173653E+03	1.264206E-15	1.853723E-17
3.183633E+03	1.230679E-15	1.800506E-17
3.193613E+03	1.197459E-15	1.747947E-17
3.203593E+03	1.164668E-15	1.696222E-17
3.213573E+03	1.132458E-15	1.645547E-17
3.223553E+03	1.101008E-15	1.596176E-17
3.233533E+03	1.070520E-15	1.548399E-17
3.243513E+03	1.041226E-15	1.502538E-17
3.253493E+03	1.013368E-15	1.458931E-17
3.263473E+03	9.871670E-16	1.417884E-17
3.273453E+03	9.627731E-16	1.379593E-17
3.283433E+03	9.402416E-16	1.344122E-17
3.293413E+03	9.195204E-16	1.311377E-17
3.303393E+03	9.004414E-16	1.281102E-17
3.313373E+03	8.827615E-16	1.252935E-17
3.323353E+03	8.662044E-16	1.226471E-17
3.333333E+03	8.505375E-16	1.201371E-17
3.343313E+03	8.355949E-16	1.177392E-17
3.353293E+03	8.212947E-16	1.154413E-17
3.363273E+03	8.076111E-16	1.132390E-17
3.373253E+03	7.945361E-16	1.111307E-17
3.383234E+03	7.820321E-16	1.091105E-17
3.393214E+03	7.700044E-16	1.071647E-17
3.403194E+03	7.582815E-16	1.052690E-17
3.413174E+03	7.466606E-16	1.033951E-17
3.423154E+03	7.349547E-16	1.015171E-17
3.433134E+03	7.230490E-16	9.961922E-18
3.443114E+03	7.109595E-16	9.770396E-18
3.453094E+03	6.988605E-16	9.579542E-18
3.463074E+03	6.870470E-16	9.393401E-18
3.473054E+03	6.758890E-16	9.216988E-18
3.483034E+03	6.657330E-16	9.054951E-18
3.493014E+03	6.568290E-16	8.910580E-18
3.502994E+03	6.493038E-16	8.785458E-18
3.512974E+03	6.431534E-16	8.679388E-18
3.522954E+03	6.382553E-16	8.590577E-18
3.532934E+03	6.343984E-16	8.516059E-18
3.542914E+03	6.313171E-16	8.452167E-18
3.552894E+03	6.287235E-16	8.394979E-18
3.562874E+03	6.263580E-16	8.340983E-18
3.572854E+03	6.240359E-16	8.287707E-18
3.582834E+03	6.216719E-16	8.234017E-18
3.592814E+03	6.192841E-16	8.180156E-18
3.602794E+03	6.169910E-16	8.127692E-18
3.612774E+03	6.149736E-16	8.078992E-18
3.622754E+03	6.134611E-16	8.037032E-18
3.632735E+03	6.127041E-16	8.005032E-18
3.642715E+03	6.129343E-16	7.985933E-18
3.652695E+03	6.143102E-16	7.981687E-18
3.662675E+03	6.168626E-16	7.992568E-18
3.672655E+03	6.204479E-16	8.016599E-18
3.682635E+03	6.247480E-16	8.049567E-18
3.692615E+03	6.293020E-16	8.085477E-18
3.702595E+03	6.335320E-16	8.116896E-18
3.712575E+03	6.367997E-16	8.135708E-18
3.722555E+03	6.384901E-16	8.134183E-18
3.732535E+03	6.380962E-16	8.106052E-18
3.742515E+03	6.353263E-16	8.047850E-18
3.752495E+03	6.301771E-16	7.959795E-18
3.762475E+03	6.229370E-16	7.845779E-18
3.772455E+03	6.141464E-16	7.712818E-18
3.782435E+03	6.044883E-16	7.569635E-18
3.792415E+03	5.946553E-16	7.424972E-18
3.802395E+03	5.852446E-16	7.286288E-18
3.812375E+03	5.766789E-16	7.158782E-18
3.822355E+03	5.691679E-16	7.044961E-18
3.832335E+03	5.627377E-16	6.945034E-18
3.842315E+03	5.572947E-16	6.857734E-18
3.852295E+03	5.526624E-16	6.780788E-18
3.862275E+03	5.486492E-16	6.711767E-18
3.872255E+03	5.450853E-16	6.648535E-18
3.882236E+03	5.418458E-16	6.589524E-18
3.892216E+03	5.388646E-16	6.533900E-18
3.902196E+03	5.361219E-16	6.481397E-18
3.912176E+03	5.336218E-16	6.432040E-18
3.922156E+03	5.313824E-16	6.386020E-18
3.932136E+03	5.294099E-16	6.343389E-18
3.942116E+03	5.276858E-16	6.303897E-18
3.952096E+03	5.261719E-16	6.267062E-18
3.962076E+03	5.248185E-16	6.232275E-18
3.972056E+03	5.235882E-16	6.199077E-18
3.982036E+03	5.224708E-16	6.167337E-18
3.992016E+03	5.215063E-16	6.137515E-18
4.001996E+03	5.207766E-16	6.110556E-18
4.011976E+03	5.203756E-16	6.087536E-18
4.021956E+03	5.203710E-16	6.069214E-18
4.031936E+03	5.207354E-16	6.055228E-18
4.041916E+03	5.213301E-16	6.043936E-18
4.051896E+03	5.218851E-16	6.032196E-18
4.061876E+03	5.220192E-16	6.015618E-18
4.071856E+03	5.213017E-16	5.989302E-18
4.081836E+03	5.193327E-16	5.948756E-18
4.091816E+03	5.158134E-16	5.890701E-18
4.101796E+03	5.106137E-16	5.813815E-18
4.111776E+03	5.037725E-16	5.718711E-18
4.121756E+03	4.954836E-16	5.607754E-18
4.131737E+03	4.860644E-16	5.484669E-18
4.141717E+03	4.759078E-16	5.353991E-18
4.151697E+03	4.654116E-16	5.220254E-18
4.161677E+03	4.549129E-16	5.087259E-18
4.171657E+03	4.446383E-16	4.957530E-18
4.181637E+03	4.346854E-16	4.832129E-18
4.191617E+03	4.250450E-16	4.710917E-18
4.201597E+03	4.156519E-16	4.593139E-18
4.211577E+03	4.064190E-16	4.477812E-18
4.221557E+03	3.972708E-16	4.364085E-18
4.231537E+03	3.881377E-16	4.251185E-18
4.241517E+03	3.789519E-16	4.138367E-18
4.251497E+03	3.696371E-16	4.024802E-18
4.261477E+03	3.601102E-16	3.909598E-18
4.271457E+03	3.502603E-16	3.791569E-18
4.281437E+03	3.399315E-16	3.669062E-18
4.291417E+03	3.289180E-16	3.539899E-18
4.301397E+03	3.170013E-16	3.401795E-18
4.311377E+03	3.040125E-16	3.253023E-18
4.321357E+03	2.899362E-16	3.093511E-18
4.331337E+03	2.750142E-16	2.925920E-18
4.341317E+03	2.598591E-16	2.756818E-18
4.351297E+03	2.455059E-16	2.597164E-18
4.361277E+03	2.333806E-16	2.461918E-18
4.371257E+03	2.252000E-16	2.368932E-18
4.381238E+03	2.227206E-16	2.336275E-18
4.391218E+03	2.260315E-16	2.364369E-18
4.401198E+03	2.337302E-16	2.438076E-18
4.411178E+03	2.445444E-16	2.543780E-18
4.421158E+03	2.574337E-16	2.670421E-18
4.431138E+03	2.715346E-16	2.808889E-18
4.441118E+03	2.861206E-16	2.951592E-18
4.451098E+03	3.005973E-16	3.092377E-18
4.461078E+03	3.144987E-16	3.226475E-18
4.471058E+03	3.274988E-16	3.350606E-18
4.481038E+03	3.393903E-16	3.462731E-18
4.491018E+03	3.500951E-16	3.562153E-18
4.500998E+03	3.596276E-16	3.649118E-18
4.510978E+03	3.680883E-16	3.724744E-18
4.520958E+03	3.756453E-16	3.790814E-18
4.530938E+03	3.825254E-16	3.849688E-18
4.540918E+03	3.889941E-16	3.904086E-18
4.550898E+03	3.953186E-16	3.956714E-18
4.560878E+03	4.017321E-16	4.009912E-18
4.570858E+03	4.083660E-16	4.064980E-18
4.580838E+03	4.152332E-16	4.122027E-18
4.590818E+03	4.221969E-16	4.179678E-18
4.600798E+03	4.289793E-16	4.235181E-18
4.610778E+03	4.351724E-16	4.284534E-18
4.620758E+03	4.403241E-16	4.323342E-18
4.630739E+03	4.439894E-16	4.347333E-18
4.640719E+03	4.457926E-16	4.352956E-18
4.650699E+03	4.454707E-16	4.337799E-18
4.660679E+03	4.429272E-16	4.301094E-18
4.670659E+03	4.382440E-16	4.243810E-18
4.680639E+03	4.316966E-16	4.168781E-18
4.690619E+03	4.237142E-16	4.080288E-18
4.700599E+03	4.148330E-16	3.983592E-18
4.710579E+03	4.056174E-16	3.884170E-18
4.720559E+03	3.965819E-16	3.786959E-18
4.730539E+03	3.881702E-16	3.696169E-18
4.740519E+03	3.807255E-16	3.615007E-18
4.750499E+03	3.744675E-16	3.545473E-18
4.760479E+03	3.695077E-16	3.488522E-18
4.770459E+03	3.658596E-16	3.444176E-18
4.780439E+03	3.634320E-16	3.411470E-18
4.790419E+03	3.620644E-16	3.388802E-18
4.800399E+03	3.615311E-16	3.373977E-18
4.810379E+03	3.615608E-16	3.364404E-18
4.820359E+03	3.618482E-16	3.357198E-18
4.830339E+03	3.620833E-16	3.349473E-18
4.840319E+03	3.619612E-16	3.338419E-18
4.850299E+03	3.612318E-16	3.321763E-18
4.860279E+03	3.597137E-16	3.297892E-18
4.870259E+03	3.573311E-16	3.266177E-18
4.880240E+03	3.540991E-16	3.226826E-18
4.890220E+03	3.501457E-16	3.181073E-18
4.900200E+03	3.456737E-16	3.130814E-18
4.910180E+03	3.409158E-16	3.078194E-18
4.920160E+03	3.361014E-16	3.025303E-18
4.930140E+03	3.313989E-16	2.973656E-18
4.940120E+03	3.269397E-16	2.924419E-18
4.950100E+03	3.227966E-16	2.878220E-18
4.960080E+03	3.190024E-16	2.835328E-18
4.970060E+03	3.155548E-16	2.795689E-18
4.980040E+03	3.124234E-16	2.759008E-18
4.990020E+03	3.095612E-16	2.724842E-18
5.000000E+03	3.069097E-16	2.692657E-18
5.009980E+03	3.044170E-16	2.661980E-18
5.019960E+03	3.020431E-16	2.632450E-18
5.029940E+03	2.997790E-16	2.603977E-18
5.039920E+03	2.976353E-16	2.576644E-18
5.049900E+03	2.956357E-16	2.550647E-18
5.059880E+03	2.938223E-16	2.526333E-18
5.069860E+03	2.922261E-16	2.503954E-18
5.079840E+03	2.908646E-16	2.483638E-18
5.089820E+03	2.897194E-16	2.465209E-18
5.099800E+03	2.887620E-16	2.448406E-18
5.109780E+03	2.879226E-16	2.432622E-18
5.119760E+03	2.871208E-16	2.417170E-18
5.129741E+03	2.862580E-16	2.401219E-18
5.139721E+03	2.852412E-16	2.383999E-18
5.149701E+03	2.839954E-16	2.364899E-18
5.159681E+03	2.824814E-16	2.343615E-18
5.169661E+03	2.807161E-16	2.320311E-18
5.179641E+03	2.787516E-16	2.295443E-18
5.189621E+03	2.766721E-16	2.269718E-18
5.199601E+03	2.745583E-16	2.243808E-18
5.209581E+03	2.724859E-16	2.218334E-18
5.219561E+03	2.704863E-16	2.193548E-18
5.229541E+03	2.685565E-16	2.169418E-18
5.239521E+03	2.666517E-16	2.145580E-18
5.249501E+03	2.647199E-16	2.121615E-18
5.259481E+03	2.626942E-16	2.096992E-18
5.269461E+03	2.605204E-16	2.071290E-18
5.279441E+03	2.581477E-16	2.044124E-18
5.289421E+03	2.555217E-16	2.015084E-18
5.299401E+03	2.526121E-16	1.983958E-18
5.309381E+03	2.493945E-16	1.950584E-18
5.319361E+03	2.458655E-16	1.914967E-18
5.329341E+03	2.420166E-16	1.877075E-18
5.339321E+03	2.378318E-16	1.836815E-18
5.349301E+03	2.332631E-16	1.793854E-18
5.359281E+03	2.282358E-16	1.747660E-18
5.369261E+03	2.226696E-16	1.697669E-18
5.379242E+03	2.164807E-16	1.643298E-18
5.389222E+03	2.095993E-16	1.584087E-18
5.399202E+03	2.019973E-16	1.519894E-18
5.409182E+03	1.936978E-16	1.450968E-18
5.419162E+03	1.848056E-16	1.378163E-18
5.429142E+03	1.755156E-16	1.302987E-18
5.439122E+03	1.661515E-16	1.227875E-18
5.449102E+03	1.571947E-16	1.156377E-18
5.459082E+03	1.492974E-16	1.093231E-18
5.469062E+03	1.432839E-16	1.044338E-18
5.479042E+03	1.401322E-16	1.016603E-18
5.489022E+03	1.403521E-16	1.013416E-18
5.499002E+03	1.431383E-16	1.028646E-18
5.508982E+03	1.475784E-16	1.055503E-18
5.518962E+03	1.529749E-16	1.088851E-18
5.528942E+03	1.587996E-16	1.124850E-18
5.538922E+03	1.646756E-16	1.160798E-18
5.548902E+03	1.703343E-16	1.194804E-18
5.558882E+03	1.756150E-16	1.225767E-18
5.568862E+03	1.804269E-16	1.253097E-18
5.578842E+03	1.847586E-16	1.276762E-18
5.588822E+03	1.886415E-16	1.297027E-18
5.598802E+03	1.921619E-16	1.314530E-18
5.608782E+03	1.954234E-16	1.330014E-18
5.618762E+03	1.985396E-16	1.344275E-18
5.628743E+03	2.015987E-16	1.357921E-18
5.638723E+03	2.046473E-16	1.371273E-18
5.648703E+03	2.076641E-16	1.384190E-18
5.658683E+03	2.105640E-16	1.396110E-18
5.668663E+03	2.132220E-16	1.406223E-18
5.678643E+03	2.154739E-16	1.413478E-18
5.688623E+03	2.171828E-16	1.417026E-18
5.698603E+03	2.182522E-16	1.416299E-18
5.708583E+03	2.186639E-16	1.411249E-18
5.718563E+03	2.184759E-16	1.402318E-18
5.728543E+03	2.178231E-16	1.390434E-18
5.738523E+03	2.168760E-16	1.376730E-18
5.748503E+03	2.158203E-16	1.362410E-18
5.758483E+03	2.148136E-16	1.348477E-18
5.768463E+03	2.139615E-16	1.335587E-18
5.778443E+03	2.133119E-16	1.324022E-18
5.788423E+03	2.128475E-16	1.313658E-18
5.798403E+03	2.125100E-16	1.304117E-18
5.808383E+03	2.122075E-16	1.294829E-18
5.818363E+03	2.118494E-16	1.285242E-18
5.828343E+03	2.113629E-16	1.274926E-18
5.838323E+03	2.107002E-16	1.263608E-18
5.848303E+03	2.098482E-16	1.251234E-18
5.858283E+03	2.088150E-16	1.237871E-18
5.868263E+03	2.076373E-16	1.223757E-18
5.878244E+03	2.063517E-16	1.209126E-18
5.888224E+03	2.049895E-16	1.194172E-18
5.898204E+03	2.035708E-16	1.179022E-18
5.908184E+03	2.021038E-16	1.163731E-18
5.918164E+03	2.005899E-16	1.148314E-18
5.928144E+03	1.990255E-16	1.132759E-18
5.938124E+03	1.974095E-16	1.117066E-18
5.948104E+03	1.957582E-16	1.101335E-18
5.958084E+03	1.940886E-16	1.085665E-18
5.968064E+03	1.924255E-16	1.070201E-18
5.978044E+03	1.907948E-16	1.055085E-18
5.988024E+03	1.892231E-16	1.040464E-18
5.998004E+03	1.877208E-16	1.026391E-18
6.007984E+03	1.862900E-16	1.012874E-18
6.017964E+03	1.849390E-16	9.999530E-19
6.027944E+03	1.836627E-16	9.875965E-19
6.037924E+03	1.824649E-16	9.758213E-19
6.047904E+03	1.813481E-16	9.646354E-19
6.057884E+03	1.803116E-16	9.540319E-19
6.067864E+03	1.793441E-16	9.439469E-19
6.077844E+03	1.784226E-16	9.342576E-19
6.087824E+03	1.775299E-16	9.248735E-19
6.097804E+03	1.766517E-16	9.157219E-19
6.107784E+03	1.757778E-16	9.067521E-19
6.117764E+03	1.749139E-16	8.979960E-19
6.127745E+03	1.740703E-16	8.895092E-19
6.137725E+03	1.732662E-16	8.813907E-19
6.147705E+03	1.725170E-16	8.737187E-19
6.157685E+03	1.718387E-16	8.665742E-19
6.167665E+03	1.712414E-16	8.600066E-19
6.177645E+03	1.707266E-16	8.540222E-19
6.187625E+03	1.702846E-16	8.485710E-19
6.197605E+03	1.698945E-16	8.435499E-19
6.207585E+03	1.695321E-16	8.388396E-19
6.217565E+03	1.691716E-16	8.343157E-19
6.227545E+03	1.687984E-16	8.299102E-19
6.237525E+03	1.684066E-16	8.255992E-19
6.247505E+03	1.680131E-16	8.214694E-19
6.257485E+03	1.676401E-16	8.176327E-19
6.267465E+03	1.673037E-16	8.141711E-19
6.277445E+03	1.670074E-16	8.111030E-19
6.287425E+03	1.667415E-16	8.083846E-19
6.297405E+03	1.664860E-16	8.059211E-19
6.307385E+03	1.662056E-16	8.035461E-19
6.317365E+03	1.658586E-16	8.010609E-19
6.327345E+03	1.654031E-16	7.982670E-19
6.337325E+03	1.648008E-16	7.949834E-19
6.347305E+03	1.640071E-16	7.909973E-19
6.357285E+03	1.629869E-16	7.861393E-19
6.367265E+03	1.617034E-16	7.802259E-19
6.377246E+03	1.601206E-16	7.730732E-19
6.387226E+03	1.582043E-16	7.645025E-19
6.397206E+03	1.559250E-16	7.543552E-19
6.407186E+03	1.532522E-16	7.424656E-19
6.417166E+03	1.501498E-16	7.286356E-19
6.427146E+03	1.465940E-16	7.127236E-19
6.437126E+03	1.425725E-16	6.946417E-19
6.447106E+03	1.381123E-16	6.744881E-19
6.457086E+03	1.333014E-16	6.526602E-19
6.467066E+03	1.283054E-16	6.299382E-19
6.477046E+03	1.233760E-16	6.075350E-19
6.487026E+03	1.188595E-16	5.871446E-19
6.497006E+03	1.151818E-16	5.708800E-19
6.506986E+03	1.128312E-16	5.611981E-19
6.516966E+03	1.123518E-16	5.608740E-19
6.526946E+03	1.138440E-16	5.705088E-19
6.536926E+03	1.167298E-16	5.873083E-19
6.546906E+03	1.204658E-16	6.086140E-19
6.556886E+03	1.245682E-16	6.320298E-19
6.566866E+03	1.286417E-16	6.555702E-19
6.576846E+03	1.323973E-16	6.777587E-19
6.586826E+03	1.356708E-16	6.977325E-19
6.596806E+03	1.384120E-16	7.152006E-19
6.606786E+03	1.406699E-16	7.303795E-19
6.616766E+03	1.425478E-16	7.437720E-19
6.626747E+03	1.441637E-16	7.559676E-19
6.636727E+03	1.455953E-16	7.673531E-19
6.646707E+03	1.468813E-16	7.781178E-19
6.656687E+03	1.480160E-16	7.882169E-19
6.666667E+03	1.489538E-16	7.973914E-19
6.676647E+03	1.496428E-16	8.053433E-19
6.686627E+03	1.500316E-16	8.117701E-19
6.696607E+03	1.500867E-16	8.164604E-19
6.706587E+03	1.498009E-16	8.193423E-19
6.716567E+03	1.491914E-16	8.204761E-19
6.726547E+03	1.483079E-16	8.201035E-19
6.736527E+03	1.472091E-16	8.185221E-19
6.746507E+03	1.459611E-16	8.160781E-19
6.756487E+03	1.446325E-16	8.131392E-19
6.766467E+03	1.432792E-16	8.100096E-19
6.776447E+03	1.419409E-16	8.069102E-19
6.786427E+03	1.406481E-16	8.040123E-19
6.796407E+03	1.394148E-16	8.013981E-19
6.806387E+03	1.382449E-16	7.990921E-19
6.816367E+03	1.371451E-16	7.971376E-19
6.826347E+03	1.361158E-16	7.955405E-19
6.836327E+03	1.351464E-16	7.942426E-19
6.846307E+03	1.342348E-16	7.932355E-19
6.856287E+03	1.333562E-16	7.923748E-19
6.866267E+03	1.324953E-16	7.915706E-19
6.876248E+03	1.316273E-16	7.906744E-19
6.886228E+03	1.307363E-16	7.895863E-19
6.896208E+03	1.298058E-16	7.882033E-19
6.906188E+03	1.288429E-16	7.865630E-19
6.916168E+03	1.278553E-16	7.847081E-19
6.926148E+03	1.268710E-16	7.828076E-19
6.936128E+03	1.259163E-16	7.810236E-19
6.946108E+03	1.250186E-16	7.795287E-19
6.956088E+03	1.242059E-16	7.785035E-19
6.966068E+03	1.234951E-16	7.780606E-19
6.976048E+03	1.228929E-16	7.782528E-19
6.986028E+03	1.223952E-16	7.790628E-19
6.996008E+03	1.219836E-16	7.803833E-19
7.005988E+03	1.216365E-16	7.820815E-19
7.015968E+03	1.213208E-16	7.839497E-19
7.025948E+03	1.210059E-16	7.857924E-19
7.035928E+03	1.206570E-16	7.873807E-19
7.045908E+03	1.202469E-16	7.885333E-19
7.055888E+03	1.197599E-16	7.891403E-19
7.065868E+03	1.191848E-16	7.891195E-19
7.075848E+03	1.185260E-16	7.884916E-19
7.085828E+03	1.177887E-16	7.872834E-19
7.095808E+03	1.169955E-16	7.856396E-19
7.105788E+03	1.161616E-16	7.836565E-19
7.115768E+03	1.153128E-16	7.815052E-19
7.125749E+03	1.144633E-16	7.792821E-19
7.135729E+03	1.136212E-16	7.770418E-19
7.145709E+03	1.127958E-16	7.748487E-19
7.155689E+03	1.119815E-16	7.726665E-19
7.165669E+03	1.111796E-16	7.705054E-19
7.175649E+03	1.103890E-16	7.683590E-19
7.185629E+03	1.096101E-16	7.662308E-19
7.195609E+03	1.088408E-16	7.641084E-19
7.205589E+03	1.080831E-16	7.620066E-19
7.215569E+03	1.073330E-16	7.598983E-19
7.225549E+03	1.065924E-16	7.577979E-19
7.235529E+03	1.058614E-16	7.557083E-19
7.245509E+03	1.051382E-16	7.536168E-19
7.255489E+03	1.044236E-16	7.515307E-19
7.265469E+03	1.037238E-16	7.494956E-19
7.275449E+03	1.030322E-16	7.474658E-19
7.285429E+03	1.023559E-16	7.454951E-19
7.295409E+03	1.016959E-16	7.435904E-19
7.305389E+03	1.010580E-16	7.417984E-19
7.315369E+03	1.004417E-16	7.401163E-19
7.325349E+03	9.984801E-17	7.385543E-19
7.335329E+03	9.927001E-17	7.370638E-19
7.345309E+03	9.870375E-17	7.356171E-19
7.355289E+03	9.813919E-17	7.341405E-19
7.365269E+03	9.757256E-17	7.326064E-19
7.375250E+03	9.699961E-17	7.309833E-19
7.385230E+03	9.642695E-17	7.293211E-19
7.395210E+03	9.586226E-17	7.276787E-19
7.405190E+03	9.531567E-17	7.261347E-19
7.415170E+03	9.478810E-17	7.246980E-19
7.425150E+03	9.428693E-17	7.234276E-19
7.435130E+03	9.380602E-17	7.222787E-19
7.445110E+03	9.334941E-17	7.212850E-19
7.455090E+03	9.290772E-17	7.203762E-19
7.465070E+03	9.248974E-17	7.196227E-19
7.475050E+03	9.210742E-17	7.191200E-19
7.485030E+03	9.177586E-17	7.189901E-19
7.495010E+03	9.151468E-17	7.193920E-19
7.504990E+03	9.134143E-17	7.204701E-19
7.514970E+03	9.126609E-17	7.223112E-19
7.524950E+03	9.128886E-17	7.249254E-19
7.534930E+03	9.138660E-17	7.281367E-19
7.544910E+03	9.153992E-17	7.317967E-19
7.554890E+03	9.170937E-17	7.355941E-19
7.564870E+03	9.185911E-17	7.392424E-19
7.574850E+03	9.194786E-17	7.424073E-19
7.584830E+03	9.194016E-17	7.447975E-19
7.594810E+03	9.181006E-17	7.461950E-19
7.604790E+03	9.153940E-17	7.464425E-19
7.614770E+03	9.111805E-17	7.454467E-19
7.624750E+03	9.056062E-17	7.433160E-19
7.634731E+03	8.988849E-17	7.402161E-19
7.644711E+03	8.913768E-17	7.364359E-19
7.654691E+03	8.835119E-17	7.323262E-19
7.664671E+03	8.757308E-17	7.282508E-19
7.674651E+03	8.683129E-17	7.244443E-19
7.684631E+03	8.613935E-17	7.210232E-19
7.694611E+03	8.549171E-17	7.179456E-19
7.704591E+03	8.487726E-17	7.151221E-19
7.714571E+03	8.426935E-17	7.123306E-19
7.724551E+03	8.364046E-17	7.093387E-19
7.734531E+03	8.296466E-17	7.059247E-19
7.744511E+03	8.222130E-17	7.019086E-19
