#wls	flux	fluxerr
1.596806E+03	7.962135E-15	1.971985E-16
1.636727E+03	8.530000E-15	2.097532E-16
1.676647E+03	9.126573E-15	2.227745E-16
1.716567E+03	9.750591E-15	2.362094E-16
1.756487E+03	1.039996E-14	2.499850E-16
1.796407E+03	1.107090E-14	2.639892E-16
1.836327E+03	1.175786E-14	2.780709E-16
1.876248E+03	1.245330E-14	2.920352E-16
1.916168E+03	1.314741E-14	3.056409E-16
1.956088E+03	1.382834E-14	3.186076E-16
1.996008E+03	1.448352E-14	3.306484E-16
2.035928E+03	1.510215E-14	3.415276E-16
2.075848E+03	1.567871E-14	3.511376E-16
2.115768E+03	1.621608E-14	3.595633E-16
2.155689E+03	1.671675E-14	3.668791E-16
2.195609E+03	1.716595E-14	3.727834E-16
2.235529E+03	1.752442E-14	3.764634E-16
2.275449E+03	1.774669E-14	3.770130E-16
2.315369E+03	1.783265E-14	3.745251E-16
2.355289E+03	1.779937E-14	3.694527E-16
2.395210E+03	1.766943E-14	3.623474E-16
2.435130E+03	1.746841E-14	3.538023E-16
2.475050E+03	1.722180E-14	3.443843E-16
2.514970E+03	1.695289E-14	3.345919E-16
2.554890E+03	1.667906E-14	3.247853E-16
2.594810E+03	1.640807E-14	3.151219E-16
2.634731E+03	1.613961E-14	3.055976E-16
2.674651E+03	1.586913E-14	2.961304E-16
2.714571E+03	1.559006E-14	2.866056E-16
2.754491E+03	1.529491E-14	2.768996E-16
2.794411E+03	1.497581E-14	2.668907E-16
2.834331E+03	1.462466E-14	2.564626E-16
2.874251E+03	1.423336E-14	2.455084E-16
2.914172E+03	1.379412E-14	2.339364E-16
2.954092E+03	1.329992E-14	2.216775E-16
2.994012E+03	1.274510E-14	2.086934E-16
3.003992E+03	1.259647E-14	2.053335E-16
3.013972E+03	1.244380E-14	2.019292E-16
3.023952E+03	1.228709E-14	1.984810E-16
3.033932E+03	1.212637E-14	1.949906E-16
3.043912E+03	1.196157E-14	1.914579E-16
3.053892E+03	1.179299E-14	1.878887E-16
3.063872E+03	1.162061E-14	1.842834E-16
3.073852E+03	1.144453E-14	1.806446E-16
3.083832E+03	1.126477E-14	1.769737E-16
3.093812E+03	1.108145E-14	1.732732E-16
3.103792E+03	1.089467E-14	1.695457E-16
3.113772E+03	1.070456E-14	1.657942E-16
3.123752E+03	1.051132E-14	1.620224E-16
3.133733E+03	1.031517E-14	1.582343E-16
3.143713E+03	1.011630E-14	1.544338E-16
3.153693E+03	9.914990E-15	1.506258E-16
3.163673E+03	9.711539E-15	1.468154E-16
3.173653E+03	9.506331E-15	1.430087E-16
3.183633E+03	9.299812E-15	1.392131E-16
3.193613E+03	9.092510E-15	1.354367E-16
3.203593E+03	8.885134E-15	1.316902E-16
3.213573E+03	8.678593E-15	1.279871E-16
3.223553E+03	8.474132E-15	1.243456E-16
3.233533E+03	8.273372E-15	1.207887E-16
3.243513E+03	8.078462E-15	1.173471E-16
3.253493E+03	7.891970E-15	1.140564E-16
3.263473E+03	7.717004E-15	1.109596E-16
3.273453E+03	7.556217E-15	1.080921E-16
3.283433E+03	7.410253E-15	1.054599E-16
3.293413E+03	7.279295E-15	1.030624E-16
3.303393E+03	7.162499E-15	1.008845E-16
3.313373E+03	7.055734E-15	9.886502E-17
3.323353E+03	6.954782E-15	9.694315E-17
3.333333E+03	6.857174E-15	9.508336E-17
3.343313E+03	6.761315E-15	9.326295E-17
3.353293E+03	6.667599E-15	9.148696E-17
3.363273E+03	6.577657E-15	8.977719E-17
3.373253E+03	6.492378E-15	8.814493E-17
3.383234E+03	6.412950E-15	8.660520E-17
3.393214E+03	6.339493E-15	8.515838E-17
3.403194E+03	6.268861E-15	8.376119E-17
3.413174E+03	6.197386E-15	8.236427E-17
3.423154E+03	6.122129E-15	8.092898E-17
3.433134E+03	6.039748E-15	7.941219E-17
3.443114E+03	5.949150E-15	7.780111E-17
3.453094E+03	5.852531E-15	7.612607E-17
3.463074E+03	5.754051E-15	7.444212E-17
3.473054E+03	5.660242E-15	7.283369E-17
3.483034E+03	5.577463E-15	7.138118E-17
3.493014E+03	5.508347E-15	7.011578E-17
3.502994E+03	5.454354E-15	6.905314E-17
3.512974E+03	5.415956E-15	6.819611E-17
3.522954E+03	5.390579E-15	6.750925E-17
3.532934E+03	5.375020E-15	6.695006E-17
3.542914E+03	5.366127E-15	6.647754E-17
3.552894E+03	5.359311E-15	6.603383E-17
3.562874E+03	5.350764E-15	6.557185E-17
3.572854E+03	5.338101E-15	6.506285E-17
3.582834E+03	5.319666E-15	6.448756E-17
3.592814E+03	5.296089E-15	6.385469E-17
3.602794E+03	5.269796E-15	6.319432E-17
3.612774E+03	5.242989E-15	6.253319E-17
3.622754E+03	5.218872E-15	6.190939E-17
3.632735E+03	5.201486E-15	6.137005E-17
3.642715E+03	5.194229E-15	6.095372E-17
3.652695E+03	5.200608E-15	6.069939E-17
3.662675E+03	5.222856E-15	6.063041E-17
3.672655E+03	5.258954E-15	6.072050E-17
3.682635E+03	5.305341E-15	6.092619E-17
3.692615E+03	5.357654E-15	6.119580E-17
3.702595E+03	5.408825E-15	6.144800E-17
3.712575E+03	5.451322E-15	6.159792E-17
3.722555E+03	5.477924E-15	6.156609E-17
3.732535E+03	5.480391E-15	6.126331E-17
3.742515E+03	5.453110E-15	6.063154E-17
3.752495E+03	5.395780E-15	5.967281E-17
3.762475E+03	5.312552E-15	5.843807E-17
3.772455E+03	5.212235E-15	5.702821E-17
3.782435E+03	5.105223E-15	5.555928E-17
3.792415E+03	5.000226E-15	5.412661E-17
3.802395E+03	4.904806E-15	5.281119E-17
3.812375E+03	4.824133E-15	5.166660E-17
3.822355E+03	4.758620E-15	5.069467E-17
3.832335E+03	4.706853E-15	4.987775E-17
3.842315E+03	4.666732E-15	4.919134E-17
3.852295E+03	4.634949E-15	4.859878E-17
3.862275E+03	4.608312E-15	4.806536E-17
3.872255E+03	4.584487E-15	4.756602E-17
3.882236E+03	4.561808E-15	4.708307E-17
3.892216E+03	4.539792E-15	4.661140E-17
3.902196E+03	4.518864E-15	4.615523E-17
3.912176E+03	4.499164E-15	4.571580E-17
3.922156E+03	4.481624E-15	4.530235E-17
3.932136E+03	4.467399E-15	4.492616E-17
3.942116E+03	4.456075E-15	4.458260E-17
3.952096E+03	4.447140E-15	4.426612E-17
3.962076E+03	4.440185E-15	4.397235E-17
3.972056E+03	4.434025E-15	4.368933E-17
3.982036E+03	4.427962E-15	4.341014E-17
3.992016E+03	4.422398E-15	4.313870E-17
4.001996E+03	4.418303E-15	4.288441E-17
4.011976E+03	4.418012E-15	4.266964E-17
4.021956E+03	4.424141E-15	4.251903E-17
4.031936E+03	4.436947E-15	4.243416E-17
4.041916E+03	4.456164E-15	4.241166E-17
4.051896E+03	4.480164E-15	4.243530E-17
4.061876E+03	4.503303E-15	4.245129E-17
4.071856E+03	4.518888E-15	4.239707E-17
4.081836E+03	4.521633E-15	4.222437E-17
4.091816E+03	4.507132E-15	4.189399E-17
4.101796E+03	4.473684E-15	4.139244E-17
4.111776E+03	4.422337E-15	4.073180E-17
4.121756E+03	4.355342E-15	3.993493E-17
4.131737E+03	4.277023E-15	3.904316E-17
4.141717E+03	4.193017E-15	3.810897E-17
4.151697E+03	4.108466E-15	3.717949E-17
4.161677E+03	4.028487E-15	3.630076E-17
4.171657E+03	3.956724E-15	3.550481E-17
4.181637E+03	3.892867E-15	3.478787E-17
4.191617E+03	3.835415E-15	3.413560E-17
4.201597E+03	3.783146E-15	3.353639E-17
4.211577E+03	3.734794E-15	3.297845E-17
4.221557E+03	3.689719E-15	3.245567E-17
4.231537E+03	3.647981E-15	3.196819E-17
4.241517E+03	3.609662E-15	3.151635E-17
4.251497E+03	3.575018E-15	3.110200E-17
4.261477E+03	3.544314E-15	3.072706E-17
4.271457E+03	3.517598E-15	3.039155E-17
4.281437E+03	3.494009E-15	3.008767E-17
4.291417E+03	3.470671E-15	2.979046E-17
4.301397E+03	3.442539E-15	2.945671E-17
4.311377E+03	3.402780E-15	2.902848E-17
4.321357E+03	3.344572E-15	2.844858E-17
4.331337E+03	3.263408E-15	2.767996E-17
4.341317E+03	3.157846E-15	2.671176E-17
4.351297E+03	3.034817E-15	2.560378E-17
4.361277E+03	2.913820E-15	2.452087E-17
4.371257E+03	2.817501E-15	2.365261E-17
4.381238E+03	2.767187E-15	2.317581E-17
4.391218E+03	2.770007E-15	2.314711E-17
4.401198E+03	2.813631E-15	2.346062E-17
4.411178E+03	2.882779E-15	2.398699E-17
4.421158E+03	2.966967E-15	2.463792E-17
4.431138E+03	3.057534E-15	2.534095E-17
4.441118E+03	3.146379E-15	2.602886E-17
4.451098E+03	3.228595E-15	2.666127E-17
4.461078E+03	3.300941E-15	2.721185E-17
4.471058E+03	3.361211E-15	2.766288E-17
4.481038E+03	3.409239E-15	2.801350E-17
4.491018E+03	3.446119E-15	2.827317E-17
4.500998E+03	3.473316E-15	2.845426E-17
4.510978E+03	3.492383E-15	2.856978E-17
4.520958E+03	3.505326E-15	2.863633E-17
4.530938E+03	3.514760E-15	2.867539E-17
4.540918E+03	3.523579E-15	2.871058E-17
4.550898E+03	3.535547E-15	2.877245E-17
4.560878E+03	3.554057E-15	2.888843E-17
4.570858E+03	3.580262E-15	2.906763E-17
4.580838E+03	3.614684E-15	2.931398E-17
4.590818E+03	3.656594E-15	2.962132E-17
4.600798E+03	3.702088E-15	2.995779E-17
4.610778E+03	3.745818E-15	3.028002E-17
4.620758E+03	3.782370E-15	3.054427E-17
4.630739E+03	3.806788E-15	3.071069E-17
4.640719E+03	3.814741E-15	3.074461E-17
4.650699E+03	3.803165E-15	3.062165E-17
4.660679E+03	3.770728E-15	3.033148E-17
4.670659E+03	3.717824E-15	2.987766E-17
4.680639E+03	3.646830E-15	2.927965E-17
4.690619E+03	3.562484E-15	2.857578E-17
4.700599E+03	3.470976E-15	2.781588E-17
4.710579E+03	3.378245E-15	2.704759E-17
4.720559E+03	3.288988E-15	2.630844E-17
4.730539E+03	3.207629E-15	2.563365E-17
4.740519E+03	3.137790E-15	2.505193E-17
4.750499E+03	3.080954E-15	2.457480E-17
4.760479E+03	3.037807E-15	2.420740E-17
4.770459E+03	3.008551E-15	2.395098E-17
4.780439E+03	2.991812E-15	2.379425E-17
4.790419E+03	2.985859E-15	2.372315E-17
4.800399E+03	2.988739E-15	2.372186E-17
4.810379E+03	2.997471E-15	2.376650E-17
4.820359E+03	3.008804E-15	2.383115E-17
4.830339E+03	3.019568E-15	2.389061E-17
4.840319E+03	3.026163E-15	2.391642E-17
4.850299E+03	3.025501E-15	2.388427E-17
4.860279E+03	3.015571E-15	2.377847E-17
4.870259E+03	2.995682E-15	2.359382E-17
4.880240E+03	2.966309E-15	2.333431E-17
4.890220E+03	2.929101E-15	2.301317E-17
4.900200E+03	2.886689E-15	2.265129E-17
4.910180E+03	2.842248E-15	2.227370E-17
4.920160E+03	2.798512E-15	2.190189E-17
4.930140E+03	2.756665E-15	2.154509E-17
4.940120E+03	2.717595E-15	2.121022E-17
4.950100E+03	2.682000E-15	2.090262E-17
4.960080E+03	2.649945E-15	2.062273E-17
4.970060E+03	2.621359E-15	2.036987E-17
4.980040E+03	2.596120E-15	2.014299E-17
4.990020E+03	2.573598E-15	1.993713E-17
5.000000E+03	2.552965E-15	1.974578E-17
5.009980E+03	2.533364E-15	1.956229E-17
5.019960E+03	2.514244E-15	1.938239E-17
5.029940E+03	2.495251E-15	1.920335E-17
5.039920E+03	2.476355E-15	1.902495E-17
5.049900E+03	2.457964E-15	1.885034E-17
5.059880E+03	2.440879E-15	1.868565E-17
5.069860E+03	2.425895E-15	1.853694E-17
5.079840E+03	2.413386E-15	1.840698E-17
5.089820E+03	2.403409E-15	1.829613E-17
5.099800E+03	2.395903E-15	1.820383E-17
5.109780E+03	2.390324E-15	1.812588E-17
5.119760E+03	2.385793E-15	1.805554E-17
5.129741E+03	2.381226E-15	1.798462E-17
5.139721E+03	2.375465E-15	1.790441E-17
5.149701E+03	2.367308E-15	1.780594E-17
5.159681E+03	2.356059E-15	1.768414E-17
5.169661E+03	2.342033E-15	1.754154E-17
5.179641E+03	2.326113E-15	1.738489E-17
5.189621E+03	2.309322E-15	1.722197E-17
5.199601E+03	2.292957E-15	1.706248E-17
5.209581E+03	2.278232E-15	1.691547E-17
5.219561E+03	2.265847E-15	1.678606E-17
5.229541E+03	2.255562E-15	1.667240E-17
5.239521E+03	2.246613E-15	1.656879E-17
5.249501E+03	2.238247E-15	1.646965E-17
5.259481E+03	2.230043E-15	1.637190E-17
5.269461E+03	2.221491E-15	1.627182E-17
5.279441E+03	2.212105E-15	1.616592E-17
5.289421E+03	2.201554E-15	1.605186E-17
5.299401E+03	2.189367E-15	1.592631E-17
5.309381E+03	2.175374E-15	1.578816E-17
5.319361E+03	2.159902E-15	1.563988E-17
5.329341E+03	2.143546E-15	1.548591E-17
5.339321E+03	2.126686E-15	1.532904E-17
5.349301E+03	2.109068E-15	1.516751E-17
5.359281E+03	2.090034E-15	1.499668E-17
5.369261E+03	2.068726E-15	1.481048E-17
5.379242E+03	2.044221E-15	1.460247E-17
5.389222E+03	2.015297E-15	1.436412E-17
5.399202E+03	1.980722E-15	1.408690E-17
5.409182E+03	1.939837E-15	1.376641E-17
5.419162E+03	1.892082E-15	1.339897E-17
5.429142E+03	1.837282E-15	1.298361E-17
5.439122E+03	1.777408E-15	1.253449E-17
5.449102E+03	1.714954E-15	1.206931E-17
5.459082E+03	1.654612E-15	1.162106E-17
5.469062E+03	1.606067E-15	1.125749E-17
5.479042E+03	1.577340E-15	1.103417E-17
5.489022E+03	1.570499E-15	1.096465E-17
5.499002E+03	1.581897E-15	1.102260E-17
5.508982E+03	1.604644E-15	1.115933E-17
5.518962E+03	1.631404E-15	1.132344E-17
5.528942E+03	1.658298E-15	1.148788E-17
5.538922E+03	1.683018E-15	1.163667E-17
5.548902E+03	1.703779E-15	1.175756E-17
5.558882E+03	1.720511E-15	1.185021E-17
5.568862E+03	1.733375E-15	1.191586E-17
5.578842E+03	1.742482E-15	1.195540E-17
5.588822E+03	1.748974E-15	1.197680E-17
5.598802E+03	1.754043E-15	1.198825E-17
5.608782E+03	1.758902E-15	1.199811E-17
5.618762E+03	1.765417E-15	1.201903E-17
5.628743E+03	1.775203E-15	1.206193E-17
5.638723E+03	1.788864E-15	1.213074E-17
5.648703E+03	1.805673E-15	1.222038E-17
5.658683E+03	1.823882E-15	1.231888E-17
5.668663E+03	1.841235E-15	1.241097E-17
5.678643E+03	1.855290E-15	1.248025E-17
5.688623E+03	1.863746E-15	1.251139E-17
5.698603E+03	1.865077E-15	1.249438E-17
5.708583E+03	1.859010E-15	1.242769E-17
5.718563E+03	1.846324E-15	1.231682E-17
5.728543E+03	1.828734E-15	1.217347E-17
5.738523E+03	1.808764E-15	1.201462E-17
5.748503E+03	1.789303E-15	1.185952E-17
5.758483E+03	1.772499E-15	1.172237E-17
5.768463E+03	1.759256E-15	1.160901E-17
5.778443E+03	1.749628E-15	1.151966E-17
5.788423E+03	1.743192E-15	1.145139E-17
5.798403E+03	1.738597E-15	1.139521E-17
5.808383E+03	1.734403E-15	1.134162E-17
5.818363E+03	1.729520E-15	1.128351E-17
5.828343E+03	1.723039E-15	1.121501E-17
5.838323E+03	1.714462E-15	1.113298E-17
5.848303E+03	1.703851E-15	1.103791E-17
5.858283E+03	1.691616E-15	1.093259E-17
5.868263E+03	1.678449E-15	1.082156E-17
5.878244E+03	1.664931E-15	1.070863E-17
5.888224E+03	1.651312E-15	1.059544E-17
5.898204E+03	1.637742E-15	1.048297E-17
5.908184E+03	1.624224E-15	1.037128E-17
5.918164E+03	1.610537E-15	1.025896E-17
5.928144E+03	1.596408E-15	1.014433E-17
5.938124E+03	1.581754E-15	1.002691E-17
5.948104E+03	1.566769E-15	9.907964E-18
5.958084E+03	1.551708E-15	9.789157E-18
5.968064E+03	1.536859E-15	9.672327E-18
5.978044E+03	1.522483E-15	9.559137E-18
5.988024E+03	1.508896E-15	9.451569E-18
5.998004E+03	1.496164E-15	9.350029E-18
6.007984E+03	1.484108E-15	9.253402E-18
6.017964E+03	1.472476E-15	9.160115E-18
6.027944E+03	1.461219E-15	9.069882E-18
6.037924E+03	1.450292E-15	8.982437E-18
6.047904E+03	1.439906E-15	8.899104E-18
6.057884E+03	1.430219E-15	8.820871E-18
6.067864E+03	1.421067E-15	8.746735E-18
6.077844E+03	1.412170E-15	8.674992E-18
6.087824E+03	1.403362E-15	8.604647E-18
6.097804E+03	1.394565E-15	8.535251E-18
6.107784E+03	1.385671E-15	8.466188E-18
6.117764E+03	1.376646E-15	8.397279E-18
6.127745E+03	1.367626E-15	8.329393E-18
6.137725E+03	1.358813E-15	8.263782E-18
6.147705E+03	1.350456E-15	8.201978E-18
6.157685E+03	1.342865E-15	8.145866E-18
6.167665E+03	1.336321E-15	8.097160E-18
6.177645E+03	1.331055E-15	8.057266E-18
6.187625E+03	1.327014E-15	8.025867E-18
6.197605E+03	1.323948E-15	8.001465E-18
6.207585E+03	1.321364E-15	7.981103E-18
6.217565E+03	1.318744E-15	7.961678E-18
6.227545E+03	1.315697E-15	7.940874E-18
6.237525E+03	1.312116E-15	7.918079E-18
6.247505E+03	1.308297E-15	7.895103E-18
6.257485E+03	1.304764E-15	7.875148E-18
6.267465E+03	1.301937E-15	7.860771E-18
6.277445E+03	1.300001E-15	7.853130E-18
6.287425E+03	1.298943E-15	7.852190E-18
6.297405E+03	1.298584E-15	7.856909E-18
6.307385E+03	1.298638E-15	7.865604E-18
6.317365E+03	1.298719E-15	7.875982E-18
6.327345E+03	1.298471E-15	7.885914E-18
6.337325E+03	1.297594E-15	7.893596E-18
6.347305E+03	1.295902E-15	7.897915E-18
6.357285E+03	1.293216E-15	7.897755E-18
6.367265E+03	1.289382E-15	7.892109E-18
6.377246E+03	1.284294E-15	7.880200E-18
6.387226E+03	1.277793E-15	7.860929E-18
6.397206E+03	1.269891E-15	7.834224E-18
6.407186E+03	1.260453E-15	7.799099E-18
6.417166E+03	1.249099E-15	7.753027E-18
6.427146E+03	1.235433E-15	7.693350E-18
6.437126E+03	1.218790E-15	7.615662E-18
6.447106E+03	1.198430E-15	7.515045E-18
6.457086E+03	1.174425E-15	7.391593E-18
6.467066E+03	1.146899E-15	7.245727E-18
6.477046E+03	1.116805E-15	7.083125E-18
6.487026E+03	1.086989E-15	6.921603E-18
6.497006E+03	1.060869E-15	6.782919E-18
6.506986E+03	1.042936E-15	6.696107E-18
6.516966E+03	1.041312E-15	6.714106E-18
6.526946E+03	1.057631E-15	6.848789E-18
6.536926E+03	1.082728E-15	7.042028E-18
6.546906E+03	1.111039E-15	7.258221E-18
6.556886E+03	1.138250E-15	7.469324E-18
6.566866E+03	1.160662E-15	7.650855E-18
6.576846E+03	1.176533E-15	7.790825E-18
6.586826E+03	1.185280E-15	7.884743E-18
6.596806E+03	1.187347E-15	7.934893E-18
6.606786E+03	1.185077E-15	7.956350E-18
6.616766E+03	1.181251E-15	7.967426E-18
6.626747E+03	1.177960E-15	7.982096E-18
6.636727E+03	1.176237E-15	8.007404E-18
6.646707E+03	1.176074E-15	8.043410E-18
6.656687E+03	1.176934E-15	8.086533E-18
6.666667E+03	1.177913E-15	8.130589E-18
6.676647E+03	1.178029E-15	8.168747E-18
6.686627E+03	1.176273E-15	8.193869E-18
6.696607E+03	1.172096E-15	8.201888E-18
6.706587E+03	1.165280E-15	8.191027E-18
6.716567E+03	1.155872E-15	8.161323E-18
6.726547E+03	1.144299E-15	8.115541E-18
6.736527E+03	1.131181E-15	8.057869E-18
6.746507E+03	1.117306E-15	7.993786E-18
6.756487E+03	1.103282E-15	7.927552E-18
6.766467E+03	1.089711E-15	7.863506E-18
6.776447E+03	1.076982E-15	7.804472E-18
6.786427E+03	1.065265E-15	7.751765E-18
6.796407E+03	1.054542E-15	7.705328E-18
6.806387E+03	1.044738E-15	7.664696E-18
6.816367E+03	1.035882E-15	7.630143E-18
6.826347E+03	1.027961E-15	7.601657E-18
6.836327E+03	1.020876E-15	7.578572E-18
6.846307E+03	1.014561E-15	7.560462E-18
6.856287E+03	1.008829E-15	7.545983E-18
6.866267E+03	1.003445E-15	7.533414E-18
6.876248E+03	9.981353E-16	7.520711E-18
6.886228E+03	9.925407E-16	7.505161E-18
6.896208E+03	9.864891E-16	7.485431E-18
6.906188E+03	9.799599E-16	7.461323E-18
6.916168E+03	9.731444E-16	7.434262E-18
6.926148E+03	9.662039E-16	7.405461E-18
6.936128E+03	9.594955E-16	7.377657E-18
6.946108E+03	9.533350E-16	7.353305E-18
6.956088E+03	9.479935E-16	7.334544E-18
6.966068E+03	9.435714E-16	7.322212E-18
6.976048E+03	9.401731E-16	7.317186E-18
6.986028E+03	9.377691E-16	7.319306E-18
6.996008E+03	9.362094E-16	7.327464E-18
7.005988E+03	9.352789E-16	7.340024E-18
7.015968E+03	9.347143E-16	7.354954E-18
7.025948E+03	9.341841E-16	7.369659E-18
7.035928E+03	9.333715E-16	7.381634E-18
7.045908E+03	9.320154E-16	7.388793E-18
7.055888E+03	9.299368E-16	7.389683E-18
7.065868E+03	9.270646E-16	7.383700E-18
7.075848E+03	9.234345E-16	7.371092E-18
7.085828E+03	9.192053E-16	7.353094E-18
7.095808E+03	9.146000E-16	7.331472E-18
7.105788E+03	9.098654E-16	7.308198E-18
7.115768E+03	9.051584E-16	7.284537E-18
7.125749E+03	9.006701E-16	7.262044E-18
7.135729E+03	8.964858E-16	7.241426E-18
7.145709E+03	8.923845E-16	7.220919E-18
7.155689E+03	8.882513E-16	7.199608E-18
7.165669E+03	8.839556E-16	7.176439E-18
7.175649E+03	8.794027E-16	7.150651E-18
7.185629E+03	8.746040E-16	7.122337E-18
7.195609E+03	8.696873E-16	7.092545E-18
7.205589E+03	8.645964E-16	7.060826E-18
7.215569E+03	8.593155E-16	7.027058E-18
7.225549E+03	8.539088E-16	6.991778E-18
7.235529E+03	8.483980E-16	6.955173E-18
7.245509E+03	8.428401E-16	6.917727E-18
7.255489E+03	8.373075E-16	6.880046E-18
7.265469E+03	8.317713E-16	6.841912E-18
7.275449E+03	8.262411E-16	6.803420E-18
7.285429E+03	8.207321E-16	6.764714E-18
7.295409E+03	8.152910E-16	6.726195E-18
7.305389E+03	8.099891E-16	6.688471E-18
7.315369E+03	8.048880E-16	6.652073E-18
7.325349E+03	7.999512E-16	6.616720E-18
7.335329E+03	7.951513E-16	6.582205E-18
7.345309E+03	7.904792E-16	6.548475E-18
7.355289E+03	7.858576E-16	6.514908E-18
7.365269E+03	7.811459E-16	6.480354E-18
7.375250E+03	7.763260E-16	6.444684E-18
7.385230E+03	7.714962E-16	6.408726E-18
7.395210E+03	7.667963E-16	6.373662E-18
7.405190E+03	7.622864E-16	6.340013E-18
7.415170E+03	7.580361E-16	6.308377E-18
7.425150E+03	7.540044E-16	6.278436E-18
7.435130E+03	7.501715E-16	6.250046E-18
7.445110E+03	7.464457E-16	6.222460E-18
7.455090E+03	7.427210E-16	6.194808E-18
7.465070E+03	7.390687E-16	6.167703E-18
7.475050E+03	7.357405E-16	6.143260E-18
7.485030E+03	7.330819E-16	6.124385E-18
7.495010E+03	7.313437E-16	6.113198E-18
7.504990E+03	7.308480E-16	6.112423E-18
7.514970E+03	7.317527E-16	6.123413E-18
7.524950E+03	7.339258E-16	6.145099E-18
7.534930E+03	7.371002E-16	6.175278E-18
7.544910E+03	7.409223E-16	6.211021E-18
7.554890E+03	7.449967E-16	6.249040E-18
7.564870E+03	7.488943E-16	6.285759E-18
7.574850E+03	7.521487E-16	6.317278E-18
7.584830E+03	7.544032E-16	6.340609E-18
7.594810E+03	7.553550E-16	6.353212E-18
7.604790E+03	7.548137E-16	6.353479E-18
7.614770E+03	7.526495E-16	6.340311E-18
7.624750E+03	7.490344E-16	6.315142E-18
7.634731E+03	7.442020E-16	6.279931E-18
7.644711E+03	7.385575E-16	6.238090E-18
7.654691E+03	7.326928E-16	6.194618E-18
7.664671E+03	7.272923E-16	6.155316E-18
7.674651E+03	7.227991E-16	6.123966E-18
7.684631E+03	7.192893E-16	6.101252E-18
7.694611E+03	7.166476E-16	6.086242E-18
7.704591E+03	7.146501E-16	6.077077E-18
7.714571E+03	7.129633E-16	6.070958E-18
7.724551E+03	7.112428E-16	6.064976E-18
7.734531E+03	7.091333E-16	6.056119E-18
7.744511E+03	7.064371E-16	6.042697E-18
