#wls	flux	fluxerr
1.596806E+03	1.163625E-14	3.982421E-17
1.636727E+03	1.242616E-14	4.252762E-17
1.676647E+03	1.325243E-14	4.535547E-17
1.716567E+03	1.411321E-14	4.830138E-17
1.756487E+03	1.500534E-14	5.135464E-17
1.796407E+03	1.592355E-14	5.449710E-17
1.836327E+03	1.686029E-14	5.770303E-17
1.876248E+03	1.780544E-14	6.093771E-17
1.916168E+03	1.874620E-14	6.415737E-17
1.956088E+03	1.966755E-14	6.731057E-17
1.996008E+03	2.055411E-14	7.034475E-17
2.035928E+03	2.139447E-14	7.322079E-17
2.075848E+03	2.218626E-14	7.593061E-17
2.115768E+03	2.293759E-14	7.850195E-17
2.155689E+03	2.365277E-14	8.094956E-17
2.195609E+03	2.431245E-14	8.320724E-17
2.235529E+03	2.486637E-14	8.510298E-17
2.275449E+03	2.526295E-14	8.646021E-17
2.315369E+03	2.548758E-14	8.722896E-17
2.355289E+03	2.555552E-14	8.746146E-17
2.395210E+03	2.549471E-14	8.725330E-17
2.435130E+03	2.533835E-14	8.671817E-17
2.475050E+03	2.512005E-14	8.597104E-17
2.514970E+03	2.487056E-14	8.511718E-17
2.554890E+03	2.461397E-14	8.423897E-17
2.594810E+03	2.436368E-14	8.338237E-17
2.634731E+03	2.411956E-14	8.254687E-17
2.674651E+03	2.387312E-14	8.170344E-17
2.714571E+03	2.361346E-14	8.081477E-17
2.754491E+03	2.332859E-14	7.983980E-17
2.794411E+03	2.300599E-14	7.873572E-17
2.834331E+03	2.263252E-14	7.745755E-17
2.874251E+03	2.219452E-14	7.595851E-17
2.914172E+03	2.167836E-14	7.419198E-17
2.954092E+03	2.107073E-14	7.211243E-17
2.994012E+03	2.036000E-14	6.968003E-17
3.003992E+03	2.016510E-14	6.901299E-17
3.013972E+03	1.996302E-14	6.832140E-17
3.023952E+03	1.975380E-14	6.760535E-17
3.033932E+03	1.953744E-14	6.686486E-17
3.043912E+03	1.931366E-14	6.609901E-17
3.053892E+03	1.908292E-14	6.530932E-17
3.063872E+03	1.884521E-14	6.449577E-17
3.073852E+03	1.860052E-14	6.365835E-17
3.083832E+03	1.834888E-14	6.279715E-17
3.093812E+03	1.809042E-14	6.191259E-17
3.103792E+03	1.782525E-14	6.100506E-17
3.113772E+03	1.755353E-14	6.007514E-17
3.123752E+03	1.727551E-14	5.912364E-17
3.133733E+03	1.699146E-14	5.815149E-17
3.143713E+03	1.670169E-14	5.715979E-17
3.153693E+03	1.640663E-14	5.614996E-17
3.163673E+03	1.610661E-14	5.512317E-17
3.173653E+03	1.580212E-14	5.408110E-17
3.183633E+03	1.549374E-14	5.302569E-17
3.193613E+03	1.518208E-14	5.195908E-17
3.203593E+03	1.486790E-14	5.088381E-17
3.213573E+03	1.455233E-14	4.980382E-17
3.223553E+03	1.423684E-14	4.872408E-17
3.233533E+03	1.392398E-14	4.765334E-17
3.243259E+03	1.485492E-14	5.083938E-17
3.244997E+03	1.478933E-14	5.061491E-17
3.246736E+03	1.472510E-14	5.039508E-17
3.248474E+03	1.464777E-14	5.013045E-17
3.250212E+03	1.456172E-14	4.983594E-17
3.251950E+03	1.447266E-14	4.953113E-17
3.253688E+03	1.438087E-14	4.921701E-17
3.255426E+03	1.428473E-14	4.888796E-17
3.257164E+03	1.419077E-14	4.856639E-17
3.258902E+03	1.410173E-14	4.826166E-17
3.260641E+03	1.402332E-14	4.799333E-17
3.262378E+03	1.394874E-14	4.773807E-17
3.264117E+03	1.387198E-14	4.747537E-17
3.265854E+03	1.379412E-14	4.720892E-17
3.267593E+03	1.371928E-14	4.695277E-17
3.269331E+03	1.363489E-14	4.666395E-17
3.271069E+03	1.354859E-14	4.636860E-17
3.272807E+03	1.346338E-14	4.607699E-17
3.274545E+03	1.338118E-14	4.579566E-17
3.276283E+03	1.330089E-14	4.552087E-17
3.278021E+03	1.322470E-14	4.526013E-17
3.279759E+03	1.315314E-14	4.501523E-17
3.281498E+03	1.308759E-14	4.479086E-17
3.283236E+03	1.302312E-14	4.457024E-17
3.284974E+03	1.296629E-14	4.437575E-17
3.286712E+03	1.291165E-14	4.418874E-17
3.288450E+03	1.286355E-14	4.402413E-17
3.290189E+03	1.282008E-14	4.387535E-17
3.291926E+03	1.278425E-14	4.375274E-17
3.293665E+03	1.275223E-14	4.364315E-17
3.295402E+03	1.271585E-14	4.351864E-17
3.297141E+03	1.268629E-14	4.341746E-17
3.298879E+03	1.266516E-14	4.334517E-17
3.300617E+03	1.265086E-14	4.329620E-17
3.302355E+03	1.264908E-14	4.329012E-17
3.304093E+03	1.265275E-14	4.330269E-17
3.305831E+03	1.266267E-14	4.333665E-17
3.307569E+03	1.268405E-14	4.340981E-17
3.309307E+03	1.270732E-14	4.348942E-17
3.311046E+03	1.272023E-14	4.353361E-17
3.312783E+03	1.273205E-14	4.357406E-17
3.314522E+03	1.274468E-14	4.361730E-17
3.316259E+03	1.276383E-14	4.368285E-17
3.317998E+03	1.278763E-14	4.376428E-17
3.319736E+03	1.280432E-14	4.382141E-17
3.321474E+03	1.282864E-14	4.390465E-17
3.323213E+03	1.284805E-14	4.397107E-17
3.324950E+03	1.285112E-14	4.398158E-17
3.326689E+03	1.284683E-14	4.396690E-17
3.328426E+03	1.284254E-14	4.395223E-17
3.330165E+03	1.283907E-14	4.394034E-17
3.331902E+03	1.284376E-14	4.395640E-17
3.333641E+03	1.281470E-14	4.385693E-17
3.335379E+03	1.275188E-14	4.364194E-17
3.337117E+03	1.268444E-14	4.341115E-17
3.338855E+03	1.261374E-14	4.316918E-17
3.340593E+03	1.255313E-14	4.296172E-17
3.342331E+03	1.248298E-14	4.272165E-17
3.344070E+03	1.240414E-14	4.245182E-17
3.345807E+03	1.231006E-14	4.212985E-17
3.347546E+03	1.221382E-14	4.180047E-17
3.349283E+03	1.211650E-14	4.146742E-17
3.351022E+03	1.202354E-14	4.114927E-17
3.352759E+03	1.193440E-14	4.084419E-17
3.354498E+03	1.185371E-14	4.056803E-17
3.356237E+03	1.177655E-14	4.030398E-17
3.357974E+03	1.170865E-14	4.007159E-17
3.359713E+03	1.164919E-14	3.986808E-17
3.361450E+03	1.159218E-14	3.967298E-17
3.363189E+03	1.152674E-14	3.944903E-17
3.364927E+03	1.145996E-14	3.922048E-17
3.366665E+03	1.140351E-14	3.902728E-17
3.368403E+03	1.136501E-14	3.889554E-17
3.370141E+03	1.132951E-14	3.877402E-17
3.371879E+03	1.128422E-14	3.861903E-17
3.373618E+03	1.123431E-14	3.844823E-17
3.375355E+03	1.119040E-14	3.829793E-17
3.377094E+03	1.115981E-14	3.819323E-17
3.378831E+03	1.112975E-14	3.809037E-17
3.380570E+03	1.110107E-14	3.799221E-17
3.382307E+03	1.106858E-14	3.788103E-17
3.384046E+03	1.103692E-14	3.777265E-17
3.385783E+03	1.101449E-14	3.769588E-17
3.387522E+03	1.099206E-14	3.761913E-17
3.389260E+03	1.096175E-14	3.751541E-17
3.390998E+03	1.094042E-14	3.744240E-17
3.392737E+03	1.092154E-14	3.737779E-17
3.394474E+03	1.090727E-14	3.732895E-17
3.396213E+03	1.089111E-14	3.727363E-17
3.397951E+03	1.086543E-14	3.718577E-17
3.399689E+03	1.085281E-14	3.714255E-17
3.401427E+03	1.084860E-14	3.712814E-17
3.403165E+03	1.083923E-14	3.709608E-17
3.404903E+03	1.083611E-14	3.708542E-17
3.406641E+03	1.084276E-14	3.710818E-17
3.408379E+03	1.085702E-14	3.715698E-17
3.410118E+03	1.087616E-14	3.722248E-17
3.411855E+03	1.088199E-14	3.724244E-17
3.413594E+03	1.087997E-14	3.723551E-17
3.415331E+03	1.087549E-14	3.722017E-17
3.417070E+03	1.086668E-14	3.719002E-17
3.418808E+03	1.084674E-14	3.712178E-17
3.420546E+03	1.083223E-14	3.707214E-17
3.422284E+03	1.081854E-14	3.702527E-17
3.424022E+03	1.080648E-14	3.698400E-17
3.425760E+03	1.079361E-14	3.693996E-17
3.427499E+03	1.077966E-14	3.689220E-17
3.429237E+03	1.076191E-14	3.683147E-17
3.430975E+03	1.074255E-14	3.676520E-17
3.432713E+03	1.071857E-14	3.668313E-17
3.434451E+03	1.069785E-14	3.661224E-17
3.436189E+03	1.067199E-14	3.652372E-17
3.437927E+03	1.064261E-14	3.642316E-17
3.439666E+03	1.061105E-14	3.631518E-17
3.441403E+03	1.057626E-14	3.619611E-17
3.443142E+03	1.052955E-14	3.603622E-17
3.444879E+03	1.048012E-14	3.586706E-17
3.446618E+03	1.044209E-14	3.573693E-17
3.448356E+03	1.040299E-14	3.560310E-17
3.450094E+03	1.036417E-14	3.547023E-17
3.451832E+03	1.033050E-14	3.535502E-17
3.453570E+03	1.029223E-14	3.522405E-17
3.455308E+03	1.025939E-14	3.511165E-17
3.457046E+03	1.022738E-14	3.500209E-17
3.458784E+03	1.018154E-14	3.484521E-17
3.460522E+03	1.012759E-14	3.466059E-17
3.462260E+03	1.008882E-14	3.452788E-17
3.463999E+03	1.005711E-14	3.441935E-17
3.465737E+03	1.002540E-14	3.431085E-17
3.467475E+03	9.987194E-15	3.418008E-17
3.469213E+03	9.946020E-15	3.403917E-17
3.470951E+03	9.905398E-15	3.390014E-17
3.472690E+03	9.863968E-15	3.375835E-17
3.474427E+03	9.825264E-15	3.362589E-17
3.476166E+03	9.791711E-15	3.351106E-17
3.477903E+03	9.763311E-15	3.341386E-17
3.479642E+03	9.731394E-15	3.330463E-17
3.481380E+03	9.697050E-15	3.318709E-17
3.483118E+03	9.663265E-15	3.307147E-17
3.484856E+03	9.626500E-15	3.294564E-17
3.486594E+03	9.593809E-15	3.283376E-17
3.488332E+03	9.567085E-15	3.274230E-17
3.490070E+03	9.544426E-15	3.266475E-17
3.491808E+03	9.519882E-15	3.258075E-17
3.493547E+03	9.496705E-15	3.250143E-17
3.495284E+03	9.477583E-15	3.243599E-17
3.497023E+03	9.455508E-15	3.236044E-17
3.498760E+03	9.435325E-15	3.229137E-17
3.500499E+03	9.423817E-15	3.225198E-17
3.502238E+03	9.414481E-15	3.222003E-17
3.503975E+03	9.405416E-15	3.218900E-17
3.505714E+03	9.395825E-15	3.215618E-17
3.507451E+03	9.384350E-15	3.211691E-17
3.509190E+03	9.375853E-15	3.208783E-17
3.510927E+03	9.368443E-15	3.206247E-17
3.512666E+03	9.358615E-15	3.202883E-17
3.514404E+03	9.346895E-15	3.198872E-17
3.516142E+03	9.335455E-15	3.194957E-17
3.517880E+03	9.326189E-15	3.191785E-17
3.519618E+03	9.314496E-15	3.187784E-17
3.521356E+03	9.305792E-15	3.184805E-17
3.523094E+03	9.304396E-15	3.184327E-17
3.524832E+03	9.311124E-15	3.186630E-17
3.526571E+03	9.321113E-15	3.190048E-17
3.528308E+03	9.324067E-15	3.191059E-17
3.530047E+03	9.333524E-15	3.194296E-17
3.531784E+03	9.345156E-15	3.198277E-17
3.533523E+03	9.352471E-15	3.200780E-17
3.535260E+03	9.363582E-15	3.204583E-17
3.536999E+03	9.373889E-15	3.208110E-17
3.538738E+03	9.376084E-15	3.208861E-17
3.540475E+03	9.376941E-15	3.209155E-17
3.542214E+03	9.382411E-15	3.211027E-17
3.543951E+03	9.391134E-15	3.214012E-17
3.545690E+03	9.397695E-15	3.216257E-17
3.547428E+03	9.406432E-15	3.219248E-17
3.549166E+03	9.417617E-15	3.223075E-17
3.550904E+03	9.419067E-15	3.223572E-17
3.552642E+03	9.414313E-15	3.221945E-17
3.554380E+03	9.413347E-15	3.221614E-17
3.556119E+03	9.413750E-15	3.221752E-17
3.557856E+03	9.410911E-15	3.220780E-17
3.559595E+03	9.399431E-15	3.216851E-17
3.561332E+03	9.384708E-15	3.211813E-17
3.563071E+03	9.374867E-15	3.208445E-17
3.564808E+03	9.362599E-15	3.204246E-17
3.566547E+03	9.353038E-15	3.200974E-17
3.568285E+03	9.345924E-15	3.198539E-17
3.570023E+03	9.339362E-15	3.196293E-17
3.571761E+03	9.331984E-15	3.193768E-17
3.573499E+03	9.322457E-15	3.190508E-17
3.575238E+03	9.305644E-15	3.184754E-17
3.576976E+03	9.282875E-15	3.176961E-17
3.578714E+03	9.264989E-15	3.170840E-17
3.580452E+03	9.258193E-15	3.168514E-17
3.582190E+03	9.251132E-15	3.166097E-17
3.583928E+03	9.245974E-15	3.164332E-17
3.585666E+03	9.242716E-15	3.163217E-17
3.587404E+03	9.237029E-15	3.161271E-17
3.589143E+03	9.231076E-15	3.159234E-17
3.590880E+03	9.220798E-15	3.155716E-17
3.592619E+03	9.209456E-15	3.151834E-17
3.594356E+03	9.204330E-15	3.150080E-17
3.596095E+03	9.201641E-15	3.149160E-17
3.597832E+03	9.189230E-15	3.144912E-17
3.599571E+03	9.177088E-15	3.140757E-17
3.601309E+03	9.169286E-15	3.138086E-17
3.603047E+03	9.159857E-15	3.134859E-17
3.604785E+03	9.152067E-15	3.132193E-17
3.606523E+03	9.136700E-15	3.126934E-17
3.608261E+03	9.120259E-15	3.121307E-17
3.610000E+03	9.105718E-15	3.116331E-17
3.611738E+03	9.091182E-15	3.111356E-17
3.613476E+03	9.070972E-15	3.104439E-17
3.615214E+03	9.045621E-15	3.095763E-17
3.616952E+03	9.027850E-15	3.089681E-17
3.618690E+03	9.019278E-15	3.086747E-17
3.620428E+03	9.003408E-15	3.081316E-17
3.622167E+03	8.983485E-15	3.074498E-17
3.623904E+03	8.965189E-15	3.068236E-17
3.625643E+03	8.951763E-15	3.063641E-17
3.627380E+03	8.934825E-15	3.057844E-17
3.629119E+03	8.907344E-15	3.048439E-17
3.630857E+03	8.881759E-15	3.039683E-17
3.632595E+03	8.869158E-15	3.035370E-17
3.634333E+03	8.859263E-15	3.031984E-17
3.636071E+03	8.858027E-15	3.031561E-17
3.637809E+03	8.862472E-15	3.033082E-17
3.639547E+03	8.862864E-15	3.033216E-17
3.641285E+03	8.855146E-15	3.030575E-17
3.643024E+03	8.852028E-15	3.029508E-17
3.644761E+03	8.861083E-15	3.032607E-17
3.646500E+03	8.864733E-15	3.033856E-17
3.648238E+03	8.872713E-15	3.036587E-17
3.649976E+03	8.884483E-15	3.040615E-17
3.651714E+03	8.891117E-15	3.042885E-17
3.653452E+03	8.897482E-15	3.045064E-17
3.655191E+03	8.902227E-15	3.046688E-17
3.656928E+03	8.901566E-15	3.046462E-17
3.658667E+03	8.905505E-15	3.047810E-17
3.660404E+03	8.913234E-15	3.050455E-17
3.662143E+03	8.921776E-15	3.053378E-17
3.663881E+03	8.933838E-15	3.057506E-17
3.665619E+03	8.946984E-15	3.062005E-17
3.667357E+03	8.957427E-15	3.065579E-17
3.669095E+03	8.972742E-15	3.070821E-17
3.670833E+03	8.996717E-15	3.079026E-17
3.672571E+03	9.019072E-15	3.086676E-17
3.674309E+03	9.034394E-15	3.091920E-17
3.676048E+03	9.049450E-15	3.097073E-17
3.677785E+03	9.066129E-15	3.102781E-17
3.679524E+03	9.085247E-15	3.109324E-17
3.681261E+03	9.105723E-15	3.116332E-17
3.683000E+03	9.126197E-15	3.123339E-17
3.684739E+03	9.146941E-15	3.130438E-17
3.686476E+03	9.164715E-15	3.136521E-17
3.688215E+03	9.177356E-15	3.140847E-17
3.689952E+03	9.196215E-15	3.147301E-17
3.691691E+03	9.221566E-15	3.155978E-17
3.693428E+03	9.244767E-15	3.163918E-17
3.695167E+03	9.264444E-15	3.170652E-17
3.696905E+03	9.281961E-15	3.176647E-17
3.698643E+03	9.295687E-15	3.181344E-17
3.700381E+03	9.309145E-15	3.185950E-17
3.702119E+03	9.325583E-15	3.191576E-17
3.703857E+03	9.343920E-15	3.197852E-17
3.705595E+03	9.359003E-15	3.203014E-17
3.707333E+03	9.368682E-15	3.206326E-17
3.709072E+03	9.384584E-15	3.211768E-17
3.710809E+03	9.410507E-15	3.220640E-17
3.712548E+03	9.435881E-15	3.229324E-17
3.714285E+03	9.459101E-15	3.237271E-17
3.716024E+03	9.486108E-15	3.246514E-17
3.717762E+03	9.507428E-15	3.253810E-17
3.719500E+03	9.519552E-15	3.257960E-17
3.721239E+03	9.528428E-15	3.260997E-17
3.722976E+03	9.536486E-15	3.263755E-17
3.724715E+03	9.546990E-15	3.267350E-17
3.726452E+03	9.563448E-15	3.272982E-17
3.728191E+03	9.582616E-15	3.279543E-17
3.729929E+03	9.596905E-15	3.284433E-17
3.731667E+03	9.605518E-15	3.287380E-17
3.733405E+03	9.615474E-15	3.290788E-17
3.735143E+03	9.626527E-15	3.294571E-17
3.736881E+03	9.636763E-15	3.298074E-17
3.738620E+03	9.644285E-15	3.300648E-17
3.740357E+03	9.650460E-15	3.302761E-17
3.742096E+03	9.654467E-15	3.304133E-17
3.743833E+03	9.649812E-15	3.302539E-17
3.745572E+03	9.636219E-15	3.297887E-17
3.747310E+03	9.616669E-15	3.291196E-17
3.749048E+03	9.598749E-15	3.285064E-17
3.750786E+03	9.580819E-15	3.278927E-17
3.752524E+03	9.555852E-15	3.270382E-17
3.754262E+03	9.524376E-15	3.259610E-17
3.756000E+03	9.485596E-15	3.246338E-17
3.757739E+03	9.440304E-15	3.230837E-17
3.759476E+03	9.383642E-15	3.211445E-17
3.761215E+03	9.319122E-15	3.189364E-17
3.762953E+03	9.254602E-15	3.167283E-17
3.764691E+03	9.190609E-15	3.145382E-17
3.766429E+03	9.129062E-15	3.124318E-17
3.768167E+03	9.064528E-15	3.102232E-17
3.769905E+03	8.991323E-15	3.077179E-17
3.771644E+03	8.912697E-15	3.050270E-17
3.773381E+03	8.831629E-15	3.022525E-17
3.775120E+03	8.756517E-15	2.996819E-17
3.776857E+03	8.682484E-15	2.971482E-17
3.778596E+03	8.607634E-15	2.945865E-17
3.780333E+03	8.539281E-15	2.922472E-17
3.782072E+03	8.477969E-15	2.901489E-17
3.783810E+03	8.419364E-15	2.881432E-17
3.785548E+03	8.358044E-15	2.860446E-17
3.787286E+03	8.292387E-15	2.837976E-17
3.789024E+03	8.228352E-15	2.816060E-17
3.790762E+03	8.169191E-15	2.795813E-17
3.792501E+03	8.123031E-15	2.780015E-17
3.794239E+03	8.084997E-15	2.766999E-17
3.795977E+03	8.043167E-15	2.752683E-17
3.797715E+03	8.001334E-15	2.738366E-17
3.799453E+03	7.960583E-15	2.724419E-17
3.801192E+03	7.930939E-15	2.714274E-17
3.802929E+03	7.909964E-15	2.707095E-17
3.804668E+03	7.882212E-15	2.697598E-17
3.806405E+03	7.855271E-15	2.688378E-17
3.808144E+03	7.838085E-15	2.682496E-17
3.809881E+03	7.826045E-15	2.678375E-17
3.811620E+03	7.816714E-15	2.675182E-17
3.813358E+03	7.804401E-15	2.670968E-17
3.815096E+03	7.789375E-15	2.665825E-17
3.816834E+03	7.778685E-15	2.662167E-17
3.818572E+03	7.773955E-15	2.660548E-17
3.820310E+03	7.772477E-15	2.660042E-17
3.822049E+03	7.772353E-15	2.659999E-17
3.823786E+03	7.767620E-15	2.658380E-17
3.825525E+03	7.769390E-15	2.658986E-17
3.827262E+03	7.779292E-15	2.662374E-17
3.829001E+03	7.787566E-15	2.665206E-17
3.830739E+03	7.793941E-15	2.667388E-17
3.832477E+03	7.798148E-15	2.668827E-17
3.834215E+03	7.804250E-15	2.670916E-17
3.835953E+03	7.811978E-15	2.673561E-17
3.837692E+03	7.817266E-15	2.675370E-17
3.839429E+03	7.824721E-15	2.677922E-17
3.841168E+03	7.827025E-15	2.678710E-17
3.842905E+03	7.821466E-15	2.676808E-17
3.844644E+03	7.816990E-15	2.675276E-17
3.846382E+03	7.808989E-15	2.672538E-17
3.848120E+03	7.796377E-15	2.668221E-17
3.849858E+03	7.783763E-15	2.663904E-17
3.851596E+03	7.769249E-15	2.658937E-17
3.853334E+03	7.752023E-15	2.653042E-17
3.855072E+03	7.732898E-15	2.646496E-17
3.856810E+03	7.722989E-15	2.643105E-17
3.858549E+03	7.721212E-15	2.642497E-17
3.860286E+03	7.718349E-15	2.641517E-17
3.862025E+03	7.711417E-15	2.639145E-17
3.863762E+03	7.702315E-15	2.636029E-17
3.865501E+03	7.689415E-15	2.631615E-17
3.867240E+03	7.670006E-15	2.624972E-17
3.868977E+03	7.649239E-15	2.617865E-17
3.870716E+03	7.633623E-15	2.612520E-17
3.872453E+03	7.625054E-15	2.609588E-17
3.874192E+03	7.618654E-15	2.607397E-17
3.875930E+03	7.610082E-15	2.604464E-17
3.877668E+03	7.597442E-15	2.600138E-17
3.879406E+03	7.585884E-15	2.596182E-17
3.881144E+03	7.582460E-15	2.595010E-17
3.882882E+03	7.580120E-15	2.594209E-17
3.884620E+03	7.577506E-15	2.593315E-17
3.886358E+03	7.575704E-15	2.592698E-17
3.888097E+03	7.575258E-15	2.592546E-17
3.889834E+03	7.577792E-15	2.593413E-17
3.891573E+03	7.577614E-15	2.593352E-17
3.893310E+03	7.577977E-15	2.593476E-17
3.895049E+03	7.582136E-15	2.594899E-17
3.896787E+03	7.589276E-15	2.597343E-17
3.898525E+03	7.594787E-15	2.599229E-17
3.900263E+03	7.597857E-15	2.600280E-17
3.902001E+03	7.596314E-15	2.599752E-17
3.903740E+03	7.590160E-15	2.597645E-17
3.905477E+03	7.576137E-15	2.592846E-17
3.907216E+03	7.559401E-15	2.587119E-17
3.908953E+03	7.544833E-15	2.582133E-17
3.910692E+03	7.532976E-15	2.578075E-17
3.912430E+03	7.525729E-15	2.575594E-17
3.914168E+03	7.516037E-15	2.572278E-17
3.915906E+03	7.504989E-15	2.568497E-17
3.917644E+03	7.491497E-15	2.563879E-17
3.919382E+03	7.472037E-15	2.557219E-17
3.921121E+03	7.444437E-15	2.547773E-17
3.922858E+03	7.420904E-15	2.539719E-17
3.924597E+03	7.407406E-15	2.535100E-17
3.926334E+03	7.391192E-15	2.529551E-17
3.928073E+03	7.371452E-15	2.522795E-17
3.929811E+03	7.353609E-15	2.516688E-17
3.931549E+03	7.342273E-15	2.512809E-17
3.933287E+03	7.331209E-15	2.509022E-17
3.935025E+03	7.315801E-15	2.503749E-17
3.936763E+03	7.303376E-15	2.499497E-17
3.938501E+03	7.297732E-15	2.497565E-17
3.940240E+03	7.293442E-15	2.496097E-17
3.941978E+03	7.290778E-15	2.495185E-17
3.943716E+03	7.290825E-15	2.495201E-17
3.945454E+03	7.290058E-15	2.494939E-17
3.947192E+03	7.286034E-15	2.493562E-17
3.948930E+03	7.286620E-15	2.493762E-17
3.950669E+03	7.292088E-15	2.495633E-17
3.952406E+03	7.288873E-15	2.494533E-17
3.954145E+03	7.279418E-15	2.491297E-17
3.955882E+03	7.276471E-15	2.490288E-17
3.957621E+03	7.274880E-15	2.489744E-17
3.959358E+03	7.269489E-15	2.487899E-17
3.961097E+03	7.261927E-15	2.485311E-17
3.962835E+03	7.256804E-15	2.483558E-17
3.964573E+03	7.257377E-15	2.483754E-17
3.966311E+03	7.256050E-15	2.483300E-17
3.968049E+03	7.254179E-15	2.482659E-17
3.969787E+03	7.255562E-15	2.483133E-17
3.971525E+03	7.256672E-15	2.483513E-17
3.973263E+03	7.259138E-15	2.484357E-17
3.975002E+03	7.264586E-15	2.486221E-17
3.976740E+03	7.266507E-15	2.486878E-17
3.978478E+03	7.264899E-15	2.486328E-17
3.980216E+03	7.263832E-15	2.485963E-17
3.981954E+03	7.261408E-15	2.485133E-17
3.983693E+03	7.263594E-15	2.485881E-17
3.985430E+03	7.264150E-15	2.486072E-17
3.987169E+03	7.260095E-15	2.484684E-17
3.988906E+03	7.252510E-15	2.482088E-17
3.990645E+03	7.244923E-15	2.479491E-17
3.992382E+03	7.240049E-15	2.477823E-17
3.994121E+03	7.231375E-15	2.474855E-17
3.995859E+03	7.215375E-15	2.469379E-17
3.997597E+03	7.200187E-15	2.464181E-17
3.999335E+03	7.187710E-15	2.459911E-17
4.001073E+03	7.177675E-15	2.456476E-17
4.002811E+03	7.171436E-15	2.454341E-17
4.004550E+03	7.167094E-15	2.452855E-17
4.006287E+03	7.164652E-15	2.452019E-17
4.008026E+03	7.161393E-15	2.450904E-17
4.009763E+03	7.154063E-15	2.448396E-17
4.011502E+03	7.143207E-15	2.444680E-17
4.013240E+03	7.130991E-15	2.440499E-17
4.014978E+03	7.115790E-15	2.435297E-17
4.016717E+03	7.106286E-15	2.432044E-17
4.018454E+03	7.105191E-15	2.431669E-17
4.020193E+03	7.101653E-15	2.430459E-17
4.021930E+03	7.094315E-15	2.427948E-17
4.023669E+03	7.089147E-15	2.426179E-17
4.025406E+03	7.087232E-15	2.425523E-17
4.027145E+03	7.084775E-15	2.424682E-17
