#wls	flux	fluxerr
1.596806E+03	7.769773E-15	1.949189E-16
1.636727E+03	8.323509E-15	2.073067E-16
1.676647E+03	8.905266E-15	2.201542E-16
1.716567E+03	9.513839E-15	2.334092E-16
1.756487E+03	1.014719E-14	2.470002E-16
1.796407E+03	1.080167E-14	2.608168E-16
1.836327E+03	1.147190E-14	2.747101E-16
1.876248E+03	1.215054E-14	2.884884E-16
1.916168E+03	1.282806E-14	3.019139E-16
1.956088E+03	1.349295E-14	3.147109E-16
1.996008E+03	1.413300E-14	3.265968E-16
2.035928E+03	1.473772E-14	3.373399E-16
2.075848E+03	1.530174E-14	3.468345E-16
2.115768E+03	1.582796E-14	3.551661E-16
2.155689E+03	1.631884E-14	3.624089E-16
2.195609E+03	1.676004E-14	3.682663E-16
2.235529E+03	1.711323E-14	3.719356E-16
2.275449E+03	1.733405E-14	3.725225E-16
2.315369E+03	1.742237E-14	3.701188E-16
2.355289E+03	1.739483E-14	3.651712E-16
2.395210E+03	1.727346E-14	3.582251E-16
2.435130E+03	1.708323E-14	3.498654E-16
2.475050E+03	1.684903E-14	3.406525E-16
2.514970E+03	1.659364E-14	3.310786E-16
2.554890E+03	1.633408E-14	3.215003E-16
2.594810E+03	1.607800E-14	3.120733E-16
2.634731E+03	1.582510E-14	3.027936E-16
2.674651E+03	1.557098E-14	2.935800E-16
2.714571E+03	1.530919E-14	2.843184E-16
2.754491E+03	1.503240E-14	2.748859E-16
2.794411E+03	1.473283E-14	2.651601E-16
2.834331E+03	1.440246E-14	2.550240E-16
2.874251E+03	1.403315E-14	2.443686E-16
2.914172E+03	1.361708E-14	2.330995E-16
2.954092E+03	1.314701E-14	2.211430E-16
2.994012E+03	1.261703E-14	2.084553E-16
3.003992E+03	1.247467E-14	2.051680E-16
3.013972E+03	1.232829E-14	2.018352E-16
3.023952E+03	1.217787E-14	1.984576E-16
3.033932E+03	1.202345E-14	1.950369E-16
3.043912E+03	1.186493E-14	1.915725E-16
3.053892E+03	1.170260E-14	1.880701E-16
3.063872E+03	1.153644E-14	1.845304E-16
3.073852E+03	1.136655E-14	1.809556E-16
3.083832E+03	1.119292E-14	1.773469E-16
3.093812E+03	1.101568E-14	1.737070E-16
3.103792E+03	1.083491E-14	1.700382E-16
3.113772E+03	1.065074E-14	1.663434E-16
3.123752E+03	1.046335E-14	1.626263E-16
3.133733E+03	1.027294E-14	1.588906E-16
3.143713E+03	1.007971E-14	1.551402E-16
3.153693E+03	9.883903E-15	1.513797E-16
3.163673E+03	9.685812E-15	1.476140E-16
3.173653E+03	9.485781E-15	1.438490E-16
3.183633E+03	9.284236E-15	1.400917E-16
3.193613E+03	9.081659E-15	1.363495E-16
3.203593E+03	8.878699E-15	1.326326E-16
3.213573E+03	8.676204E-15	1.289537E-16
3.223553E+03	8.475380E-15	1.253304E-16
3.233533E+03	8.277810E-15	1.217858E-16
3.243513E+03	8.085653E-15	1.183508E-16
3.253493E+03	7.901521E-15	1.150622E-16
3.263473E+03	7.728644E-15	1.119649E-16
3.273453E+03	7.569971E-15	1.090990E-16
3.283433E+03	7.426093E-15	1.064698E-16
3.293413E+03	7.297358E-15	1.040790E-16
3.303393E+03	7.183189E-15	1.019149E-16
3.313373E+03	7.079054E-15	9.991037E-17
3.323353E+03	6.980230E-15	9.799693E-17
3.333333E+03	6.883934E-15	9.613451E-17
3.343313E+03	6.788843E-15	9.430421E-17
3.353293E+03	6.695622E-15	9.251495E-17
3.363273E+03	6.606076E-15	9.079115E-17
3.373253E+03	6.521305E-15	8.914706E-17
3.383234E+03	6.442814E-15	8.760210E-17
3.393214E+03	6.370992E-15	8.616017E-17
3.403194E+03	6.302275E-15	8.477189E-17
3.413174E+03	6.232536E-15	8.338138E-17
3.423154E+03	6.158620E-15	8.194692E-17
3.433134E+03	6.076858E-15	8.042088E-17
3.443114E+03	5.985795E-15	7.878577E-17
3.453094E+03	5.887528E-15	7.707107E-17
3.463074E+03	5.786661E-15	7.533825E-17
3.473054E+03	5.690495E-15	7.368237E-17
3.483034E+03	5.606097E-15	7.219342E-17
3.493014E+03	5.535925E-15	7.090038E-17
3.502994E+03	5.481524E-15	6.981991E-17
3.512974E+03	5.443596E-15	6.895761E-17
3.522954E+03	5.419208E-15	6.827311E-17
3.532934E+03	5.404835E-15	6.771948E-17
3.542914E+03	5.397095E-15	6.725253E-17
3.552894E+03	5.391171E-15	6.681127E-17
3.562874E+03	5.382993E-15	6.634514E-17
3.572854E+03	5.369920E-15	6.582223E-17
3.582834E+03	5.350032E-15	6.522008E-17
3.592814E+03	5.324008E-15	6.454826E-17
3.602794E+03	5.294708E-15	6.384247E-17
3.612774E+03	5.264331E-15	6.312966E-17
3.622754E+03	5.236320E-15	6.245109E-17
3.632735E+03	5.215192E-15	6.185984E-17
3.642715E+03	5.204375E-15	6.139495E-17
3.652695E+03	5.207714E-15	6.109955E-17
3.662675E+03	5.227956E-15	6.100296E-17
3.672655E+03	5.262700E-15	6.107408E-17
3.682635E+03	5.308211E-15	6.126710E-17
3.692615E+03	5.360288E-15	6.153181E-17
3.702595E+03	5.411526E-15	6.178249E-17
3.712575E+03	5.454178E-15	6.193139E-17
3.722555E+03	5.480943E-15	6.189772E-17
3.732535E+03	5.483015E-15	6.158555E-17
3.742515E+03	5.453922E-15	6.092711E-17
3.752495E+03	5.392860E-15	5.991913E-17
3.762475E+03	5.304823E-15	5.862255E-17
3.772455E+03	5.199647E-15	5.715024E-17
3.782435E+03	5.088190E-15	5.562383E-17
3.792415E+03	4.979579E-15	5.414359E-17
3.802395E+03	4.881686E-15	5.279401E-17
3.812375E+03	4.799706E-15	5.162901E-17
3.822355E+03	4.733775E-15	5.064718E-17
3.832335E+03	4.682153E-15	4.982717E-17
3.842315E+03	4.642547E-15	4.914222E-17
3.852295E+03	4.611406E-15	4.855286E-17
3.862275E+03	4.585329E-15	4.802203E-17
3.872255E+03	4.561868E-15	4.752337E-17
3.882236E+03	4.539273E-15	4.703831E-17
3.892216E+03	4.517012E-15	4.656120E-17
3.902196E+03	4.495616E-15	4.609746E-17
3.912176E+03	4.475174E-15	4.564784E-17
3.922156E+03	4.456789E-15	4.522339E-17
3.932136E+03	4.441912E-15	4.483843E-17
3.942116E+03	4.430038E-15	4.448735E-17
3.952096E+03	4.420685E-15	4.416490E-17
3.962076E+03	4.413524E-15	4.386741E-17
3.972056E+03	4.407243E-15	4.358164E-17
3.982036E+03	4.400942E-15	4.329860E-17
3.992016E+03	4.394922E-15	4.302129E-17
4.001996E+03	4.390183E-15	4.275944E-17
4.011976E+03	4.389197E-15	4.253685E-17
4.021956E+03	4.394874E-15	4.238108E-17
4.031936E+03	4.407475E-15	4.229375E-17
4.041916E+03	4.427077E-15	4.227467E-17
4.051896E+03	4.452485E-15	4.231158E-17
4.061876E+03	4.477581E-15	4.234594E-17
4.071856E+03	4.495080E-15	4.230931E-17
4.081836E+03	4.499411E-15	4.215060E-17
4.091816E+03	4.486142E-15	4.183033E-17
4.101796E+03	4.453548E-15	4.133483E-17
4.111776E+03	4.402544E-15	4.067501E-17
4.121756E+03	4.335665E-15	3.987651E-17
4.131737E+03	4.257457E-15	3.898285E-17
4.141717E+03	4.173667E-15	3.804770E-17
4.151697E+03	4.089638E-15	3.712012E-17
4.161677E+03	4.010861E-15	3.624964E-17
4.171657E+03	3.941345E-15	3.547159E-17
4.181637E+03	3.880441E-15	3.477902E-17
4.191617E+03	3.826340E-15	3.415472E-17
4.201597E+03	3.777674E-15	3.358573E-17
4.211577E+03	3.733270E-15	3.306100E-17
4.221557E+03	3.692540E-15	3.257485E-17
4.231537E+03	3.655472E-15	3.212675E-17
4.241517E+03	3.622509E-15	3.172019E-17
4.251497E+03	3.594207E-15	3.135957E-17
4.261477E+03	3.571020E-15	3.104839E-17
4.271457E+03	3.553338E-15	3.078955E-17
4.281437E+03	3.540673E-15	3.057834E-17
4.291417E+03	3.530353E-15	3.039136E-17
4.301397E+03	3.517081E-15	3.018296E-17
4.311377E+03	3.493333E-15	2.988901E-17
4.321357E+03	3.451218E-15	2.944299E-17
4.331337E+03	3.385285E-15	2.879971E-17
4.341317E+03	3.292052E-15	2.793108E-17
4.351297E+03	3.176450E-15	2.688034E-17
4.361277E+03	3.059164E-15	2.582317E-17
4.371257E+03	2.962482E-15	2.494698E-17
4.381238E+03	2.905620E-15	2.441163E-17
4.391218E+03	2.898471E-15	2.429750E-17
4.401198E+03	2.931372E-15	2.452089E-17
4.411178E+03	2.988827E-15	2.495027E-17
4.421158E+03	3.061378E-15	2.550564E-17
4.431138E+03	3.140534E-15	2.611568E-17
4.441118E+03	3.217556E-15	2.670764E-17
4.451098E+03	3.287973E-15	2.724461E-17
4.461078E+03	3.348686E-15	2.770128E-17
4.471058E+03	3.397288E-15	2.805819E-17
4.481038E+03	3.434068E-15	2.831821E-17
4.491018E+03	3.460381E-15	2.849290E-17
4.500998E+03	3.477678E-15	2.859452E-17
4.510978E+03	3.487679E-15	2.863743E-17
4.520958E+03	3.492264E-15	2.863724E-17
4.530938E+03	3.493800E-15	2.861341E-17
4.540918E+03	3.495313E-15	2.859070E-17
4.550898E+03	3.500649E-15	2.860044E-17
4.560878E+03	3.513233E-15	2.867039E-17
4.570858E+03	3.534099E-15	2.880872E-17
4.580838E+03	3.563862E-15	2.902011E-17
4.590818E+03	3.601979E-15	2.929987E-17
4.600798E+03	3.644404E-15	2.961485E-17
4.610778E+03	3.685671E-15	2.992052E-17
4.620758E+03	3.720207E-15	3.017164E-17
4.630739E+03	3.743321E-15	3.033032E-17
4.640719E+03	3.750616E-15	3.036114E-17
4.650699E+03	3.738570E-15	3.023591E-17
4.660679E+03	3.706256E-15	2.994746E-17
4.670659E+03	3.653961E-15	2.949848E-17
4.680639E+03	3.583564E-15	2.890446E-17
4.690619E+03	3.500057E-15	2.820596E-17
4.700599E+03	3.409666E-15	2.745329E-17
4.710579E+03	3.318154E-15	2.669289E-17
4.720559E+03	3.230096E-15	2.596149E-17
4.730539E+03	3.149943E-15	2.529472E-17
4.740519E+03	3.081413E-15	2.472220E-17
4.750499E+03	3.025936E-15	2.425509E-17
4.760479E+03	2.984137E-15	2.389807E-17
4.770459E+03	2.956123E-15	2.365167E-17
4.780439E+03	2.940600E-15	2.350521E-17
4.790419E+03	2.935892E-15	2.344497E-17
4.800399E+03	2.940066E-15	2.345525E-17
4.810379E+03	2.950157E-15	2.351218E-17
4.820359E+03	2.962878E-15	2.358939E-17
4.830339E+03	2.975005E-15	2.366115E-17
4.840319E+03	2.982952E-15	2.369894E-17
4.850299E+03	2.983507E-15	2.367735E-17
4.860279E+03	2.974448E-15	2.357893E-17
4.870259E+03	2.955300E-15	2.340014E-17
4.880240E+03	2.926641E-15	2.314585E-17
4.890220E+03	2.890096E-15	2.282914E-17
4.900200E+03	2.848397E-15	2.247178E-17
4.910180E+03	2.804789E-15	2.209955E-17
4.920160E+03	2.762016E-15	2.173407E-17
4.930140E+03	2.721191E-15	2.138411E-17
4.940120E+03	2.683112E-15	2.105589E-17
4.950100E+03	2.648397E-15	2.075416E-17
4.960080E+03	2.617162E-15	2.047976E-17
4.970060E+03	2.589411E-15	2.023262E-17
4.980040E+03	2.565053E-15	2.001192E-17
4.990020E+03	2.543445E-15	1.981255E-17
5.000000E+03	2.523751E-15	1.962793E-17
5.009980E+03	2.505113E-15	1.945136E-17
5.019960E+03	2.486901E-15	1.927790E-17
5.029940E+03	2.468651E-15	1.910398E-17
5.039920E+03	2.450277E-15	1.892897E-17
5.049900E+03	2.432211E-15	1.875621E-17
5.059880E+03	2.415321E-15	1.859241E-17
5.069860E+03	2.400491E-15	1.844432E-17
5.079840E+03	2.388100E-15	1.831479E-17
5.089820E+03	2.378284E-15	1.820478E-17
5.099800E+03	2.371073E-15	1.811443E-17
5.109780E+03	2.365895E-15	1.803927E-17
5.119760E+03	2.361864E-15	1.797251E-17
5.129741E+03	2.357940E-15	1.790621E-17
5.139721E+03	2.352877E-15	1.783095E-17
5.149701E+03	2.345393E-15	1.773711E-17
5.159681E+03	2.334774E-15	1.761945E-17
5.169661E+03	2.321335E-15	1.748051E-17
5.179641E+03	2.305987E-15	1.732732E-17
5.189621E+03	2.289752E-15	1.716766E-17
5.199601E+03	2.273977E-15	1.701169E-17
5.209581E+03	2.259958E-15	1.686910E-17
5.219561E+03	2.248514E-15	1.674593E-17
5.229541E+03	2.239290E-15	1.663944E-17
5.239521E+03	2.231472E-15	1.654353E-17
5.249501E+03	2.224331E-15	1.645276E-17
5.259481E+03	2.217467E-15	1.636419E-17
5.269461E+03	2.210400E-15	1.627430E-17
5.279441E+03	2.202588E-15	1.617916E-17
5.289421E+03	2.193816E-15	1.607726E-17
5.299401E+03	2.183578E-15	1.596501E-17
5.309381E+03	2.171573E-15	1.584029E-17
5.319361E+03	2.158273E-15	1.570669E-17
5.329341E+03	2.144330E-15	1.556903E-17
5.339321E+03	2.130171E-15	1.543049E-17
5.349301E+03	2.115605E-15	1.528971E-17
5.359281E+03	2.100069E-15	1.514270E-17
5.369261E+03	2.082754E-15	1.498373E-17
5.379242E+03	2.062778E-15	1.480657E-17
5.389222E+03	2.038870E-15	1.460228E-17
5.399202E+03	2.009710E-15	1.436165E-17
5.409182E+03	1.974673E-15	1.408049E-17
5.419162E+03	1.933028E-15	1.375388E-17
5.429142E+03	1.884209E-15	1.337807E-17
5.439122E+03	1.830271E-15	1.296788E-17
5.449102E+03	1.773252E-15	1.253789E-17
5.459082E+03	1.717027E-15	1.211550E-17
5.469062E+03	1.671606E-15	1.177112E-17
5.479042E+03	1.644094E-15	1.155415E-17
5.489022E+03	1.635227E-15	1.146896E-17
5.499002E+03	1.642967E-15	1.150047E-17
5.508982E+03	1.661332E-15	1.160618E-17
5.518962E+03	1.682783E-15	1.173306E-17
5.528942E+03	1.704041E-15	1.185814E-17
5.538922E+03	1.723186E-15	1.196809E-17
5.548902E+03	1.738401E-15	1.205036E-17
5.558882E+03	1.749945E-15	1.210689E-17
5.568862E+03	1.758081E-15	1.213962E-17
5.578842E+03	1.762788E-15	1.214852E-17
5.588822E+03	1.765360E-15	1.214259E-17
5.598802E+03	1.766950E-15	1.212984E-17
5.608782E+03	1.768643E-15	1.211769E-17
5.618762E+03	1.772490E-15	1.212017E-17
5.628743E+03	1.780295E-15	1.214946E-17
5.638723E+03	1.792715E-15	1.220987E-17
5.648703E+03	1.808895E-15	1.229538E-17
5.658683E+03	1.826800E-15	1.239202E-17
5.668663E+03	1.843861E-15	1.248229E-17
5.678643E+03	1.857659E-15	1.254988E-17
5.688623E+03	1.865765E-15	1.257855E-17
5.698603E+03	1.866407E-15	1.255658E-17
5.708583E+03	1.859437E-15	1.248329E-17
5.718563E+03	1.845632E-15	1.236421E-17
5.728543E+03	1.826627E-15	1.221055E-17
5.738523E+03	1.805221E-15	1.204123E-17
5.748503E+03	1.784593E-15	1.187751E-17
5.758483E+03	1.767043E-15	1.173462E-17
5.768463E+03	1.753391E-15	1.161789E-17
5.778443E+03	1.743564E-15	1.152665E-17
5.788423E+03	1.737076E-15	1.145754E-17
5.798403E+03	1.732487E-15	1.140095E-17
5.808383E+03	1.728261E-15	1.134671E-17
5.818363E+03	1.723262E-15	1.128736E-17
5.828343E+03	1.716589E-15	1.121708E-17
5.838323E+03	1.707768E-15	1.113287E-17
5.848303E+03	1.696850E-15	1.103517E-17
5.858283E+03	1.684320E-15	1.092726E-17
5.868263E+03	1.670953E-15	1.081423E-17
5.878244E+03	1.657354E-15	1.070007E-17
5.888224E+03	1.643733E-15	1.058615E-17
5.898204E+03	1.630199E-15	1.047320E-17
5.908184E+03	1.616746E-15	1.036120E-17
5.918164E+03	1.603130E-15	1.024862E-17
5.928144E+03	1.589070E-15	1.013370E-17
5.938124E+03	1.574420E-15	1.001556E-17
5.948104E+03	1.559456E-15	9.896005E-18
5.958084E+03	1.544454E-15	9.776819E-18
5.968064E+03	1.529664E-15	9.659629E-18
5.978044E+03	1.515384E-15	9.546314E-18
5.988024E+03	1.501927E-15	9.438857E-18
5.998004E+03	1.489370E-15	9.337738E-18
6.007984E+03	1.477489E-15	9.241532E-18
6.017964E+03	1.465965E-15	9.148271E-18
6.027944E+03	1.454704E-15	9.057371E-18
6.037924E+03	1.443716E-15	8.968925E-18
6.047904E+03	1.433248E-15	8.884479E-18
6.057884E+03	1.423417E-15	8.804774E-18
6.067864E+03	1.414136E-15	8.729283E-18
6.077844E+03	1.405132E-15	8.656341E-18
6.087824E+03	1.396178E-15	8.584567E-18
6.097804E+03	1.387253E-15	8.513881E-18
6.107784E+03	1.378278E-15	8.443822E-18
6.117764E+03	1.369224E-15	8.374253E-18
6.127745E+03	1.360193E-15	8.305835E-18
6.137725E+03	1.351344E-15	8.239554E-18
6.147705E+03	1.342890E-15	8.176739E-18
6.157685E+03	1.335230E-15	8.119821E-18
6.167665E+03	1.328715E-15	8.070943E-18
6.177645E+03	1.323607E-15	8.031693E-18
6.187625E+03	1.319897E-15	8.002026E-18
6.197605E+03	1.317299E-15	7.980213E-18
6.207585E+03	1.315248E-15	7.962863E-18
6.217565E+03	1.313139E-15	7.946340E-18
6.227545E+03	1.310516E-15	7.927920E-18
6.237525E+03	1.307241E-15	7.906813E-18
6.247505E+03	1.303638E-15	7.885013E-18
6.257485E+03	1.300298E-15	7.866118E-18
6.267465E+03	1.297683E-15	7.852969E-18
6.277445E+03	1.295995E-15	7.846812E-18
6.287425E+03	1.295240E-15	7.847737E-18
6.297405E+03	1.295265E-15	7.854858E-18
6.307385E+03	1.295762E-15	7.866364E-18
6.317365E+03	1.296325E-15	7.879830E-18
6.327345E+03	1.296595E-15	7.893111E-18
6.337325E+03	1.296272E-15	7.904410E-18
6.347305E+03	1.295181E-15	7.912670E-18
6.357285E+03	1.293182E-15	7.917028E-18
6.367265E+03	1.290141E-15	7.916586E-18
6.377246E+03	1.285990E-15	7.910816E-18
6.387226E+03	1.280630E-15	7.898989E-18
6.397206E+03	1.274132E-15	7.881409E-18
6.407186E+03	1.266418E-15	7.857461E-18
6.417166E+03	1.257115E-15	7.824663E-18
6.427146E+03	1.245870E-15	7.780634E-18
6.437126E+03	1.231985E-15	7.720793E-18
6.447106E+03	1.214655E-15	7.639802E-18
6.457086E+03	1.193858E-15	7.537194E-18
6.467066E+03	1.169493E-15	7.411967E-18
6.477046E+03	1.142185E-15	7.267728E-18
6.487026E+03	1.114796E-15	7.122422E-18
6.497006E+03	1.090461E-15	6.996054E-18
6.506986E+03	1.073400E-15	6.915949E-18
6.516966E+03	1.072587E-15	6.940706E-18
6.526946E+03	1.089571E-15	7.081700E-18
6.536926E+03	1.114413E-15	7.275542E-18
6.546906E+03	1.141523E-15	7.486262E-18
6.556886E+03	1.166819E-15	7.687155E-18
6.566866E+03	1.186617E-15	7.853657E-18
6.576846E+03	1.199365E-15	7.974919E-18
6.586826E+03	1.204605E-15	8.047212E-18
6.596806E+03	1.202881E-15	8.073440E-18
6.606786E+03	1.196876E-15	8.070987E-18
6.616766E+03	1.189749E-15	8.060813E-18
6.626747E+03	1.183828E-15	8.058604E-18
6.636727E+03	1.180076E-15	8.071024E-18
6.646707E+03	1.178360E-15	8.097325E-18
6.656687E+03	1.178061E-15	8.133384E-18
6.666667E+03	1.178187E-15	8.172432E-18
6.676647E+03	1.177640E-15	8.206817E-18
6.686627E+03	1.175300E-15	8.228599E-18
6.696607E+03	1.170604E-15	8.233600E-18
6.706587E+03	1.163296E-15	8.219765E-18
6.716567E+03	1.153341E-15	8.186557E-18
6.726547E+03	1.141223E-15	8.137145E-18
6.736527E+03	1.127585E-15	8.075892E-18
6.746507E+03	1.113184E-15	8.008090E-18
6.756487E+03	1.098674E-15	7.938374E-18
6.766467E+03	1.084698E-15	7.871375E-18
6.776447E+03	1.071661E-15	7.810088E-18
6.786427E+03	1.059706E-15	7.755631E-18
6.796407E+03	1.048800E-15	7.707855E-18
6.806387E+03	1.038889E-15	7.666439E-18
6.816367E+03	1.029960E-15	7.631370E-18
6.826347E+03	1.021995E-15	7.602598E-18
6.836327E+03	1.014911E-15	7.579568E-18
6.846307E+03	1.008625E-15	7.561738E-18
6.856287E+03	1.002952E-15	7.547775E-18
6.866267E+03	9.976712E-16	7.536057E-18
6.876248E+03	9.924808E-16	7.524317E-18
6.886228E+03	9.869928E-16	7.509606E-18
6.896208E+03	9.810209E-16	7.490473E-18
6.906188E+03	9.745480E-16	7.466745E-18
6.916168E+03	9.677766E-16	7.439938E-18
6.926148E+03	9.608779E-16	7.411349E-18
6.936128E+03	9.542040E-16	7.383693E-18
6.946108E+03	9.480729E-16	7.359458E-18
6.956088E+03	9.427617E-16	7.340844E-18
6.966068E+03	9.383646E-16	7.328646E-18
6.976048E+03	9.349812E-16	7.323710E-18
6.986028E+03	9.325770E-16	7.325834E-18
6.996008E+03	9.310158E-16	7.334011E-18
7.005988E+03	9.300882E-16	7.346640E-18
7.015968E+03	9.295402E-16	7.361750E-18
7.025948E+03	9.290364E-16	7.376699E-18
7.035928E+03	9.282528E-16	7.388909E-18
7.045908E+03	9.269262E-16	7.396263E-18
7.055888E+03	9.248852E-16	7.397361E-18
7.065868E+03	9.220648E-16	7.391643E-18
7.075848E+03	9.184893E-16	7.379268E-18
7.085828E+03	9.143433E-16	7.361687E-18
7.095808E+03	9.098649E-16	7.340801E-18
7.105788E+03	9.053022E-16	7.318608E-18
7.115768E+03	9.008151E-16	7.296408E-18
7.125749E+03	8.965948E-16	7.275768E-18
7.135729E+03	8.927268E-16	7.257403E-18
7.145709E+03	8.889440E-16	7.239165E-18
7.155689E+03	8.850836E-16	7.219741E-18
7.165669E+03	8.809935E-16	7.197895E-18
7.175649E+03	8.765600E-16	7.172699E-18
7.185629E+03	8.718053E-16	7.144336E-18
7.195609E+03	8.668852E-16	7.114087E-18
7.205589E+03	8.617287E-16	7.081376E-18
7.215569E+03	8.563313E-16	7.046174E-18
7.225549E+03	8.507775E-16	7.009184E-18
7.235529E+03	8.450864E-16	6.970576E-18
7.245509E+03	8.393275E-16	6.930937E-18
7.255489E+03	8.335996E-16	6.891099E-18
7.265469E+03	8.278573E-16	6.850704E-18
7.275449E+03	8.221079E-16	6.809828E-18
7.285429E+03	8.163728E-16	6.768669E-18
7.295409E+03	8.106984E-16	6.727629E-18
7.305389E+03	8.051522E-16	6.687288E-18
7.315369E+03	7.998005E-16	6.648219E-18
7.325349E+03	7.946072E-16	6.610141E-18
7.335329E+03	7.895504E-16	6.572896E-18
7.345309E+03	7.846285E-16	6.536491E-18
7.355289E+03	7.797700E-16	6.500349E-18
7.365269E+03	7.748396E-16	6.463362E-18
7.375250E+03	7.698124E-16	6.425338E-18
7.385230E+03	7.647960E-16	6.387195E-18
7.395210E+03	7.599327E-16	6.350139E-18
7.405190E+03	7.552877E-16	6.314737E-18
7.415170E+03	7.509029E-16	6.281361E-18
7.425150E+03	7.467243E-16	6.249581E-18
7.435130E+03	7.427345E-16	6.219273E-18
7.445110E+03	7.388250E-16	6.189545E-18
7.455090E+03	7.348871E-16	6.159502E-18
7.465070E+03	7.310050E-16	6.129867E-18
7.475050E+03	7.274768E-16	6.103154E-18
7.485030E+03	7.246889E-16	6.082626E-18
7.495010E+03	7.229081E-16	6.070549E-18
7.504990E+03	7.224983E-16	6.070006E-18
7.514970E+03	7.235959E-16	6.082179E-18
7.524950E+03	7.260138E-16	6.105527E-18
7.534930E+03	7.294450E-16	6.137503E-18
7.544910E+03	7.335198E-16	6.175026E-18
7.554890E+03	7.378456E-16	6.214819E-18
7.564870E+03	7.419768E-16	6.253150E-18
7.574850E+03	7.454375E-16	6.286026E-18
7.584830E+03	7.478569E-16	6.310330E-18
7.594810E+03	7.489527E-16	6.323685E-18
7.604790E+03	7.485343E-16	6.324480E-18
7.614770E+03	7.464493E-16	6.311420E-18
7.624750E+03	7.429050E-16	6.286251E-18
7.634731E+03	7.381360E-16	6.250947E-18
7.644711E+03	7.325235E-16	6.208731E-18
7.654691E+03	7.267055E-16	6.165014E-18
7.664671E+03	7.214091E-16	6.125979E-18
7.674651E+03	7.171136E-16	6.095727E-18
7.684631E+03	7.138663E-16	6.074704E-18
7.694611E+03	7.115336E-16	6.061820E-18
7.704591E+03	7.098862E-16	6.055163E-18
7.714571E+03	7.085882E-16	6.051907E-18
7.724551E+03	7.072843E-16	6.049045E-18
7.734531E+03	7.055947E-16	6.043347E-18
7.744511E+03	7.033333E-16	6.033220E-18
