#wls	flux	fluxerr
1.596806E+03	9.255582E-16	4.089812E-17
1.636727E+03	9.410219E-16	4.129666E-17
1.676647E+03	9.559732E-16	4.165756E-17
1.716567E+03	9.704801E-16	4.198394E-17
1.756487E+03	9.847016E-16	4.228273E-17
1.796407E+03	9.986607E-16	4.255487E-17
1.836327E+03	1.012450E-15	4.280424E-17
1.876248E+03	1.026187E-15	4.303566E-17
1.916168E+03	1.039932E-15	4.325138E-17
1.956088E+03	1.053913E-15	4.346056E-17
1.996008E+03	1.068522E-15	4.367869E-17
2.035928E+03	1.084520E-15	4.393565E-17
2.075848E+03	1.103329E-15	4.428667E-17
2.115768E+03	1.127001E-15	4.480994E-17
2.155689E+03	1.157726E-15	4.558574E-17
2.195609E+03	1.197100E-15	4.666757E-17
2.235529E+03	1.245597E-15	4.806297E-17
2.275449E+03	1.302940E-15	4.974968E-17
2.315369E+03	1.368689E-15	5.169943E-17
2.355289E+03	1.442672E-15	5.389453E-17
2.395210E+03	1.525016E-15	5.632821E-17
2.435130E+03	1.616134E-15	5.900387E-17
2.475050E+03	1.716665E-15	6.193206E-17
2.514970E+03	1.827349E-15	6.512574E-17
2.554890E+03	1.948957E-15	6.859745E-17
2.594810E+03	2.082311E-15	7.235995E-17
2.634731E+03	2.228289E-15	7.642635E-17
2.674651E+03	2.387774E-15	8.080829E-17
2.714571E+03	2.561549E-15	8.551235E-17
2.754491E+03	2.750334E-15	9.054164E-17
2.794411E+03	2.954711E-15	9.589364E-17
2.834331E+03	3.174502E-15	1.015405E-16
2.874251E+03	3.408640E-15	1.074272E-16
2.914172E+03	3.654610E-15	1.134561E-16
2.954092E+03	3.908013E-15	1.194774E-16
2.994012E+03	4.161617E-15	1.252651E-16
3.003992E+03	4.223952E-15	1.266429E-16
3.013972E+03	4.285360E-15	1.279786E-16
3.023952E+03	4.345783E-15	1.292707E-16
3.033932E+03	4.404880E-15	1.305097E-16
3.043912E+03	4.462409E-15	1.316889E-16
3.053892E+03	4.518182E-15	1.328034E-16
3.063872E+03	4.571834E-15	1.338432E-16
3.073852E+03	4.623101E-15	1.348014E-16
3.083832E+03	4.671640E-15	1.356691E-16
3.093812E+03	4.717042E-15	1.364354E-16
3.103792E+03	4.758998E-15	1.370926E-16
3.113772E+03	4.797077E-15	1.376297E-16
3.123752E+03	4.830906E-15	1.380374E-16
3.133733E+03	4.860113E-15	1.383067E-16
3.143713E+03	4.884279E-15	1.384275E-16
3.153693E+03	4.903127E-15	1.383938E-16
3.163673E+03	4.916297E-15	1.381974E-16
3.173653E+03	4.923485E-15	1.378319E-16
3.183633E+03	4.924566E-15	1.372959E-16
3.193613E+03	4.919335E-15	1.365860E-16
3.203593E+03	4.907863E-15	1.357062E-16
3.213573E+03	4.890182E-15	1.346598E-16
3.223553E+03	4.866629E-15	1.334582E-16
3.233533E+03	4.837534E-15	1.321125E-16
3.243513E+03	4.803491E-15	1.306407E-16
3.253493E+03	4.765206E-15	1.290636E-16
3.263473E+03	4.723554E-15	1.274064E-16
3.273453E+03	4.679673E-15	1.257008E-16
3.283433E+03	4.634837E-15	1.239816E-16
3.293413E+03	4.590344E-15	1.222838E-16
3.303393E+03	4.547497E-15	1.206417E-16
3.313373E+03	4.507509E-15	1.190871E-16
3.323353E+03	4.471297E-15	1.176430E-16
3.333333E+03	4.439523E-15	1.163256E-16
3.343313E+03	4.412529E-15	1.151425E-16
3.353293E+03	4.390305E-15	1.140919E-16
3.363273E+03	4.372581E-15	1.131652E-16
3.373253E+03	4.358808E-15	1.123470E-16
3.383234E+03	4.348213E-15	1.116162E-16
3.393214E+03	4.340169E-15	1.109559E-16
3.403194E+03	4.334153E-15	1.103520E-16
3.413174E+03	4.329883E-15	1.097969E-16
3.423154E+03	4.327397E-15	1.092910E-16
3.433134E+03	4.327150E-15	1.088453E-16
3.443114E+03	4.329637E-15	1.084717E-16
3.453094E+03	4.335484E-15	1.081850E-16
3.463074E+03	4.344891E-15	1.079894E-16
3.473054E+03	4.357875E-15	1.078842E-16
3.483034E+03	4.373927E-15	1.078561E-16
3.493014E+03	4.392200E-15	1.078835E-16
3.502994E+03	4.411332E-15	1.079326E-16
3.512974E+03	4.429890E-15	1.079683E-16
3.522954E+03	4.446239E-15	1.079513E-16
3.532934E+03	4.459040E-15	1.078499E-16
3.542914E+03	4.467219E-15	1.076395E-16
3.552894E+03	4.470247E-15	1.073087E-16
3.562874E+03	4.468710E-15	1.068731E-16
3.572854E+03	4.464187E-15	1.063715E-16
3.582834E+03	4.459302E-15	1.058672E-16
3.592814E+03	4.456225E-15	1.054116E-16
3.602794E+03	4.455718E-15	1.050222E-16
3.612774E+03	4.457470E-15	1.046908E-16
3.622754E+03	4.461257E-15	1.044117E-16
3.632735E+03	4.467098E-15	1.041848E-16
3.642715E+03	4.475035E-15	1.040105E-16
3.652695E+03	4.484765E-15	1.038812E-16
3.662675E+03	4.495616E-15	1.037810E-16
3.672655E+03	4.506523E-15	1.036851E-16
3.682635E+03	4.516158E-15	1.035630E-16
3.692615E+03	4.523148E-15	1.033836E-16
3.702595E+03	4.526473E-15	1.031243E-16
3.712575E+03	4.525362E-15	1.027682E-16
3.722555E+03	4.519562E-15	1.023106E-16
3.732535E+03	4.509225E-15	1.017559E-16
3.742515E+03	4.494866E-15	1.011164E-16
3.752495E+03	4.477164E-15	1.004083E-16
3.762475E+03	4.456913E-15	9.964989E-17
3.772455E+03	4.434860E-15	9.885817E-17
3.782435E+03	4.411836E-15	9.805188E-17
3.792415E+03	4.388731E-15	9.725087E-17
3.802395E+03	4.366234E-15	9.647024E-17
3.812375E+03	4.344618E-15	9.571580E-17
3.822355E+03	4.323686E-15	9.498295E-17
3.832335E+03	4.302850E-15	9.425857E-17
3.842315E+03	4.281293E-15	9.352469E-17
3.852295E+03	4.258171E-15	9.276302E-17
3.862275E+03	4.232937E-15	9.196182E-17
3.872255E+03	4.205706E-15	9.112384E-17
3.882236E+03	4.177324E-15	9.026766E-17
3.892216E+03	4.149239E-15	8.942456E-17
3.902196E+03	4.123078E-15	8.862937E-17
3.912176E+03	4.100455E-15	8.791626E-17
3.922156E+03	4.082594E-15	8.731075E-17
3.932136E+03	4.070105E-15	8.682502E-17
3.942116E+03	4.062881E-15	8.645584E-17
3.952096E+03	4.060110E-15	8.618513E-17
3.962076E+03	4.060488E-15	8.598453E-17
3.972056E+03	4.062408E-15	8.581960E-17
3.982036E+03	4.064226E-15	8.565543E-17
3.992016E+03	4.064505E-15	8.546182E-17
4.001996E+03	4.062148E-15	8.521596E-17
4.011976E+03	4.056541E-15	8.490537E-17
4.021956E+03	4.047583E-15	8.452838E-17
4.031936E+03	4.035636E-15	8.409295E-17
4.041916E+03	4.021468E-15	8.361546E-17
4.051896E+03	4.006023E-15	8.311573E-17
4.061876E+03	3.990311E-15	8.261483E-17
4.071856E+03	3.975275E-15	8.213220E-17
4.081836E+03	3.961621E-15	8.168231E-17
4.091816E+03	3.949616E-15	8.127039E-17
4.101796E+03	3.939390E-15	8.089895E-17
4.111776E+03	3.930749E-15	8.056374E-17
4.121756E+03	3.923355E-15	8.025762E-17
4.131737E+03	3.916891E-15	7.997399E-17
4.141717E+03	3.911067E-15	7.970680E-17
4.151697E+03	3.905500E-15	7.944819E-17
4.161677E+03	3.899982E-15	7.919392E-17
4.171657E+03	3.894151E-15	7.893661E-17
4.181637E+03	3.887662E-15	7.866931E-17
4.191617E+03	3.880064E-15	7.838302E-17
4.201597E+03	3.870890E-15	7.806839E-17
4.211577E+03	3.859505E-15	7.771280E-17
4.221557E+03	3.845419E-15	7.730660E-17
4.231537E+03	3.828185E-15	7.684106E-17
4.241517E+03	3.807570E-15	7.631178E-17
4.251497E+03	3.783586E-15	7.571928E-17
4.261477E+03	3.756804E-15	7.507525E-17
4.271457E+03	3.728197E-15	7.439929E-17
4.281437E+03	3.698932E-15	7.371475E-17
4.291417E+03	3.669890E-15	7.303921E-17
4.301397E+03	3.641530E-15	7.238165E-17
4.311377E+03	3.613722E-15	7.173949E-17
4.321357E+03	3.586177E-15	7.110683E-17
4.331337E+03	3.558417E-15	7.047418E-17
4.341317E+03	3.530381E-15	6.984030E-17
4.351297E+03	3.502552E-15	6.921463E-17
4.361277E+03	3.476313E-15	6.862432E-17
4.371257E+03	3.453573E-15	6.810677E-17
4.381238E+03	3.436120E-15	6.769687E-17
4.391218E+03	3.424442E-15	6.740381E-17
4.401198E+03	3.417676E-15	6.721018E-17
4.411178E+03	3.414238E-15	6.708450E-17
4.421158E+03	3.412593E-15	6.699641E-17
4.431138E+03	3.411626E-15	6.692382E-17
4.441118E+03	3.410668E-15	6.685357E-17
4.451098E+03	3.409552E-15	6.678225E-17
4.461078E+03	3.408421E-15	6.671263E-17
4.471058E+03	3.407481E-15	6.664866E-17
4.481038E+03	3.407035E-15	6.659616E-17
4.491018E+03	3.407149E-15	6.655636E-17
4.500998E+03	3.407793E-15	6.652858E-17
4.510978E+03	3.408650E-15	6.650652E-17
4.520958E+03	3.409262E-15	6.648122E-17
4.530938E+03	3.409052E-15	6.644135E-17
4.540918E+03	3.407504E-15	6.637683E-17
4.550898E+03	3.404278E-15	6.628099E-17
4.560878E+03	3.399130E-15	6.614911E-17
4.570858E+03	3.392134E-15	6.598262E-17
4.580838E+03	3.383468E-15	6.578491E-17
4.590818E+03	3.373461E-15	6.556241E-17
4.600798E+03	3.362483E-15	6.532225E-17
4.610778E+03	3.350854E-15	6.507063E-17
4.620758E+03	3.338815E-15	6.481215E-17
4.630739E+03	3.326606E-15	6.455144E-17
4.640719E+03	3.314486E-15	6.429349E-17
4.650699E+03	3.302748E-15	6.404388E-17
4.660679E+03	3.291616E-15	6.380693E-17
4.670659E+03	3.281303E-15	6.358668E-17
4.680639E+03	3.271728E-15	6.338149E-17
4.690619E+03	3.262381E-15	6.318143E-17
4.700599E+03	3.252519E-15	6.297204E-17
4.710579E+03	3.241411E-15	6.273909E-17
4.720559E+03	3.228841E-15	6.247840E-17
4.730539E+03	3.215182E-15	6.219714E-17
4.740519E+03	3.201342E-15	6.191285E-17
4.750499E+03	3.188144E-15	6.164135E-17
4.760479E+03	3.176306E-15	6.139650E-17
4.770459E+03	3.166383E-15	6.118897E-17
4.780439E+03	3.158873E-15	6.102827E-17
4.790419E+03	3.154029E-15	6.091925E-17
4.800399E+03	3.151972E-15	6.086415E-17
4.810379E+03	3.152551E-15	6.085998E-17
4.820359E+03	3.155242E-15	6.089657E-17
4.830339E+03	3.159294E-15	6.095933E-17
4.840319E+03	3.163583E-15	6.102657E-17
4.850299E+03	3.166896E-15	6.107486E-17
4.860279E+03	3.167985E-15	6.108012E-17
4.870259E+03	3.165963E-15	6.102525E-17
4.880240E+03	3.160315E-15	6.090035E-17
4.890220E+03	3.150967E-15	6.070406E-17
4.900200E+03	3.138282E-15	6.044338E-17
4.910180E+03	3.122831E-15	6.012938E-17
4.920160E+03	3.105182E-15	5.977299E-17
4.930140E+03	3.085875E-15	5.938467E-17
4.940120E+03	3.065509E-15	5.897593E-17
4.950100E+03	3.044896E-15	5.856240E-17
4.960080E+03	3.025240E-15	5.816726E-17
4.970060E+03	3.007856E-15	5.781576E-17
4.980040E+03	2.993828E-15	5.752870E-17
4.990020E+03	2.983632E-15	5.731514E-17
5.000000E+03	2.977107E-15	5.717197E-17
5.009980E+03	2.973653E-15	5.708758E-17
5.019960E+03	2.972043E-15	5.703837E-17
5.029940E+03	2.970958E-15	5.699904E-17
5.039920E+03	2.969017E-15	5.694307E-17
5.049900E+03	2.965179E-15	5.685055E-17
5.059880E+03	2.958822E-15	5.670958E-17
5.069860E+03	2.949812E-15	5.651769E-17
5.079840E+03	2.938493E-15	5.628152E-17
5.089820E+03	2.925712E-15	5.601737E-17
5.099800E+03	2.912665E-15	5.574815E-17
5.109780E+03	2.900671E-15	5.549916E-17
5.119760E+03	2.890932E-15	5.529335E-17
5.129741E+03	2.884083E-15	5.514289E-17
5.139721E+03	2.880071E-15	5.504670E-17
5.149701E+03	2.878043E-15	5.498848E-17
5.159681E+03	2.876772E-15	5.494474E-17
5.169661E+03	2.874711E-15	5.488600E-17
5.179641E+03	2.870408E-15	5.478456E-17
5.189621E+03	2.862867E-15	5.462154E-17
5.199601E+03	2.851900E-15	5.439340E-17
5.209581E+03	2.837950E-15	5.410874E-17
5.219561E+03	2.822046E-15	5.378723E-17
5.229541E+03	2.805438E-15	5.345277E-17
5.239521E+03	2.789462E-15	5.313084E-17
5.249501E+03	2.775195E-15	5.284198E-17
5.259481E+03	2.763150E-15	5.259598E-17
5.269461E+03	2.753447E-15	5.239508E-17
5.279441E+03	2.745688E-15	5.223176E-17
5.289421E+03	2.739128E-15	5.209180E-17
5.299401E+03	2.732848E-15	5.195779E-17
5.309381E+03	2.725737E-15	5.180863E-17
5.319361E+03	2.716909E-15	5.162755E-17
5.329341E+03	2.705576E-15	5.139964E-17
5.339321E+03	2.691412E-15	5.111880E-17
5.349301E+03	2.674513E-15	5.078689E-17
5.359281E+03	2.655324E-15	5.041246E-17
5.369261E+03	2.634577E-15	5.000946E-17
5.379242E+03	2.613059E-15	4.959288E-17
5.389222E+03	2.591518E-15	4.917690E-17
5.399202E+03	2.570564E-15	4.877317E-17
5.409182E+03	2.550540E-15	4.838821E-17
5.419162E+03	2.531598E-15	4.802491E-17
5.429142E+03	2.513697E-15	4.768251E-17
5.439122E+03	2.496842E-15	4.736114E-17
5.449102E+03	2.481171E-15	4.706333E-17
5.459082E+03	2.467101E-15	4.679694E-17
5.469062E+03	2.455361E-15	4.657577E-17
5.479042E+03	2.446767E-15	4.641521E-17
5.489022E+03	2.441456E-15	4.631790E-17
5.499002E+03	2.438553E-15	4.626715E-17
5.508982E+03	2.436706E-15	4.623731E-17
5.518962E+03	2.434501E-15	4.620150E-17
5.528942E+03	2.430961E-15	4.614119E-17
5.538922E+03	2.425430E-15	4.604384E-17
5.548902E+03	2.417774E-15	4.590689E-17
5.558882E+03	2.408227E-15	4.573468E-17
5.568862E+03	2.397293E-15	4.553676E-17
5.578842E+03	2.385575E-15	4.532452E-17
5.588822E+03	2.373520E-15	4.510644E-17
5.598802E+03	2.361375E-15	4.488714E-17
5.608782E+03	2.349436E-15	4.467225E-17
5.618762E+03	2.337777E-15	4.446311E-17
5.628743E+03	2.326601E-15	4.426361E-17
5.638723E+03	2.316151E-15	4.407832E-17
5.648703E+03	2.306749E-15	4.391334E-17
5.658683E+03	2.298699E-15	4.377449E-17
5.668663E+03	2.292179E-15	4.366517E-17
5.678643E+03	2.287088E-15	4.358344E-17
5.688623E+03	2.283157E-15	4.352420E-17
5.698603E+03	2.279935E-15	4.347885E-17
5.708583E+03	2.276856E-15	4.343658E-17
5.718563E+03	2.273438E-15	4.338822E-17
5.728543E+03	2.269292E-15	4.332629E-17
5.738523E+03	2.264149E-15	4.324563E-17
5.748503E+03	2.257954E-15	4.314517E-17
5.758483E+03	2.250693E-15	4.302460E-17
5.768463E+03	2.242332E-15	4.288324E-17
5.778443E+03	2.232821E-15	4.272008E-17
5.788423E+03	2.222130E-15	4.253453E-17
5.798403E+03	2.210178E-15	4.232499E-17
5.808383E+03	2.197005E-15	4.209217E-17
5.818363E+03	2.182871E-15	4.184106E-17
5.828343E+03	2.168281E-15	4.158127E-17
5.838323E+03	2.153919E-15	4.132594E-17
5.848303E+03	2.140410E-15	4.108704E-17
5.858283E+03	2.128247E-15	4.087408E-17
5.868263E+03	2.117656E-15	4.069141E-17
5.878244E+03	2.108642E-15	4.053922E-17
5.888224E+03	2.100966E-15	4.041293E-17
5.898204E+03	2.094336E-15	4.030699E-17
5.908184E+03	2.088473E-15	4.021602E-17
5.918164E+03	2.083215E-15	4.013698E-17
5.928144E+03	2.078417E-15	4.006705E-17
5.938124E+03	2.073869E-15	4.000225E-17
5.948104E+03	2.069236E-15	3.993611E-17
5.958084E+03	2.064026E-15	3.985915E-17
5.968064E+03	2.057818E-15	3.976321E-17
5.978044E+03	2.050238E-15	3.964103E-17
5.988024E+03	2.041140E-15	3.948978E-17
5.998004E+03	2.030530E-15	3.930950E-17
6.007984E+03	2.018695E-15	3.910569E-17
6.017964E+03	2.005920E-15	3.888388E-17
6.027944E+03	1.992614E-15	3.865195E-17
6.037924E+03	1.978953E-15	3.841331E-17
6.047904E+03	1.965160E-15	3.817229E-17
6.057884E+03	1.951365E-15	3.793140E-17
6.067864E+03	1.937695E-15	3.769313E-17
6.077844E+03	1.924322E-15	3.746086E-17
6.087824E+03	1.911404E-15	3.723767E-17
6.097804E+03	1.899114E-15	3.702695E-17
6.107784E+03	1.887637E-15	3.683237E-17
6.117764E+03	1.877057E-15	3.665563E-17
6.127745E+03	1.867342E-15	3.649612E-17
6.137725E+03	1.858504E-15	3.635413E-17
6.147705E+03	1.850612E-15	3.623107E-17
6.157685E+03	1.843875E-15	3.613105E-17
6.167665E+03	1.838724E-15	3.606253E-17
6.177645E+03	1.835536E-15	3.603303E-17
6.187625E+03	1.834216E-15	3.604073E-17
6.197605E+03	1.834095E-15	3.607258E-17
6.207585E+03	1.834209E-15	3.610968E-17
6.217565E+03	1.833439E-15	3.612993E-17
6.227545E+03	1.830781E-15	3.611350E-17
6.237525E+03	1.825421E-15	3.604419E-17
6.247505E+03	1.816799E-15	3.591074E-17
6.257485E+03	1.804818E-15	3.571104E-17
6.267465E+03	1.789943E-15	3.545404E-17
6.277445E+03	1.773225E-15	3.516041E-17
6.287425E+03	1.756124E-15	3.485897E-17
6.297405E+03	1.740218E-15	3.458106E-17
6.307385E+03	1.726933E-15	3.435507E-17
6.317365E+03	1.717316E-15	3.420202E-17
6.327345E+03	1.711790E-15	3.413058E-17
6.337325E+03	1.710097E-15	3.413588E-17
6.347305E+03	1.711326E-15	3.419996E-17
6.357285E+03	1.714168E-15	3.429681E-17
6.367265E+03	1.717082E-15	3.439570E-17
6.377246E+03	1.718593E-15	3.446705E-17
6.387226E+03	1.717569E-15	3.448800E-17
6.397206E+03	1.713431E-15	3.444672E-17
6.407186E+03	1.706133E-15	3.434205E-17
6.417166E+03	1.695981E-15	3.417985E-17
6.427146E+03	1.683595E-15	3.397239E-17
6.437126E+03	1.669793E-15	3.373601E-17
6.447106E+03	1.655682E-15	3.349291E-17
6.457086E+03	1.642500E-15	3.326818E-17
6.467066E+03	1.631708E-15	3.309141E-17
6.477046E+03	1.624757E-15	3.299227E-17
6.487026E+03	1.623021E-15	3.299895E-17
6.497006E+03	1.627441E-15	3.313098E-17
6.506986E+03	1.638334E-15	3.339530E-17
6.516966E+03	1.654836E-15	3.377470E-17
6.526946E+03	1.674912E-15	3.422805E-17
6.536926E+03	1.695537E-15	3.469373E-17
6.546906E+03	1.713240E-15	3.510058E-17
6.556886E+03	1.724788E-15	3.538208E-17
6.566866E+03	1.727863E-15	3.549012E-17
6.576846E+03	1.721623E-15	3.540664E-17
6.586826E+03	1.706661E-15	3.514318E-17
6.596806E+03	1.684858E-15	3.473775E-17
6.606786E+03	1.658959E-15	3.424654E-17
6.616766E+03	1.631895E-15	3.372977E-17
6.626747E+03	1.606284E-15	3.324151E-17
6.636727E+03	1.584039E-15	3.282153E-17
6.646707E+03	1.566184E-15	3.249129E-17
6.656687E+03	1.553092E-15	3.225889E-17
6.666667E+03	1.544551E-15	3.212026E-17
6.676647E+03	1.539955E-15	3.206311E-17
6.686627E+03	1.538470E-15	3.207035E-17
6.696607E+03	1.539156E-15	3.212257E-17
6.706587E+03	1.541093E-15	3.220073E-17
6.716567E+03	1.543440E-15	3.228729E-17
6.726547E+03	1.545543E-15	3.236857E-17
6.736527E+03	1.546858E-15	3.243316E-17
6.746507E+03	1.547139E-15	3.247580E-17
6.756487E+03	1.546218E-15	3.249291E-17
6.766467E+03	1.544083E-15	3.248411E-17
6.776447E+03	1.540900E-15	3.245285E-17
6.786427E+03	1.536771E-15	3.240119E-17
6.796407E+03	1.531885E-15	3.233305E-17
6.806387E+03	1.526453E-15	3.225284E-17
6.816367E+03	1.520555E-15	3.216221E-17
6.826347E+03	1.514349E-15	3.206447E-17
6.836327E+03	1.507899E-15	3.196096E-17
6.846307E+03	1.501230E-15	3.185224E-17
6.856287E+03	1.494466E-15	3.174087E-17
6.866267E+03	1.487618E-15	3.162714E-17
6.876248E+03	1.480802E-15	3.151349E-17
6.886228E+03	1.474053E-15	3.140069E-17
6.896208E+03	1.467418E-15	3.128975E-17
6.906188E+03	1.460756E-15	3.117766E-17
6.916168E+03	1.453946E-15	3.106185E-17
6.926148E+03	1.446829E-15	3.093896E-17
6.936128E+03	1.439244E-15	3.080548E-17
6.946108E+03	1.431064E-15	3.065871E-17
6.956088E+03	1.422289E-15	3.049863E-17
6.966068E+03	1.413046E-15	3.032792E-17
6.976048E+03	1.403527E-15	3.015069E-17
6.986028E+03	1.394010E-15	2.997294E-17
6.996008E+03	1.384862E-15	2.980257E-17
7.005988E+03	1.376357E-15	2.964553E-17
7.015968E+03	1.368793E-15	2.950828E-17
7.025948E+03	1.362302E-15	2.939374E-17
7.035928E+03	1.356850E-15	2.930127E-17
7.045908E+03	1.352281E-15	2.922755E-17
7.055888E+03	1.348283E-15	2.916590E-17
7.065868E+03	1.344530E-15	2.910934E-17
7.075848E+03	1.340717E-15	2.905124E-17
7.085828E+03	1.336645E-15	2.898735E-17
7.095808E+03	1.332314E-15	2.891763E-17
7.105788E+03	1.327808E-15	2.884393E-17
7.115768E+03	1.323223E-15	2.876836E-17
7.125749E+03	1.318600E-15	2.869181E-17
7.135729E+03	1.313915E-15	2.861376E-17
7.145709E+03	1.309029E-15	2.853124E-17
7.155689E+03	1.303703E-15	2.843901E-17
7.165669E+03	1.297751E-15	2.833302E-17
7.175649E+03	1.291078E-15	2.821117E-17
7.185629E+03	1.283731E-15	2.807448E-17
7.195609E+03	1.275815E-15	2.792522E-17
7.205589E+03	1.267605E-15	2.776940E-17
7.215569E+03	1.259395E-15	2.761351E-17
7.225549E+03	1.251460E-15	2.746354E-17
7.235529E+03	1.243973E-15	2.732337E-17
7.245509E+03	1.237088E-15	2.719643E-17
7.255489E+03	1.230761E-15	2.708179E-17
7.265469E+03	1.224889E-15	2.697724E-17
7.275449E+03	1.219307E-15	2.687922E-17
7.285429E+03	1.213779E-15	2.678250E-17
7.295409E+03	1.208061E-15	2.668176E-17
7.305389E+03	1.201934E-15	2.657219E-17
7.315369E+03	1.195308E-15	2.645173E-17
7.325349E+03	1.188262E-15	2.632216E-17
7.335329E+03	1.180900E-15	2.618576E-17
7.345309E+03	1.173447E-15	2.604754E-17
7.355289E+03	1.166074E-15	2.591129E-17
7.365269E+03	1.158975E-15	2.578136E-17
7.375250E+03	1.152174E-15	2.565832E-17
7.385230E+03	1.145694E-15	2.554272E-17
7.395210E+03	1.139450E-15	2.543269E-17
7.405190E+03	1.133409E-15	2.532755E-17
7.415170E+03	1.127526E-15	2.522634E-17
7.425150E+03	1.121875E-15	2.513071E-17
7.435130E+03	1.116584E-15	2.504359E-17
7.445110E+03	1.111795E-15	2.496820E-17
7.455090E+03	1.107737E-15	2.490978E-17
7.465070E+03	1.104581E-15	2.487219E-17
7.475050E+03	1.102471E-15	2.485880E-17
7.485030E+03	1.101589E-15	2.487379E-17
7.495010E+03	1.101918E-15	2.491693E-17
7.504990E+03	1.103274E-15	2.498414E-17
7.514970E+03	1.105236E-15	2.506600E-17
7.524950E+03	1.107287E-15	2.515082E-17
7.534930E+03	1.108999E-15	2.522892E-17
7.544910E+03	1.110056E-15	2.529308E-17
7.554890E+03	1.110281E-15	2.533916E-17
7.564870E+03	1.109682E-15	2.536728E-17
7.574850E+03	1.108334E-15	2.537905E-17
7.584830E+03	1.106437E-15	2.537900E-17
7.594810E+03	1.104171E-15	2.537121E-17
7.604790E+03	1.101673E-15	2.535877E-17
7.614770E+03	1.098959E-15	2.534203E-17
7.624750E+03	1.096008E-15	2.532049E-17
7.634731E+03	1.092619E-15	2.528944E-17
7.644711E+03	1.088645E-15	2.524547E-17
7.654691E+03	1.083912E-15	2.518439E-17
7.664671E+03	1.078388E-15	2.510539E-17
7.674651E+03	1.072239E-15	2.501225E-17
7.684631E+03	1.065777E-15	2.491211E-17
7.694611E+03	1.059522E-15	2.481716E-17
7.704591E+03	1.054180E-15	2.474393E-17
7.714571E+03	1.050383E-15	2.470748E-17
7.724551E+03	1.048733E-15	2.472219E-17
7.734531E+03	1.049542E-15	2.479578E-17
7.744511E+03	1.052769E-15	2.492766E-17
