#wls	flux	fluxerr
1.596806E+03	3.834139E-17	9.931580E-19
1.636727E+03	3.874122E-17	9.951880E-19
1.676647E+03	3.919827E-17	9.983294E-19
1.716567E+03	3.969995E-17	1.002219E-18
1.756487E+03	4.024820E-17	1.006867E-18
1.796407E+03	4.087372E-17	1.012995E-18
1.836327E+03	4.154378E-17	1.019734E-18
1.876248E+03	4.227107E-17	1.027351E-18
1.916168E+03	4.305195E-17	1.035707E-18
1.956088E+03	4.390027E-17	1.045081E-18
1.996008E+03	4.482010E-17	1.055505E-18
2.035928E+03	4.581401E-17	1.066971E-18
2.075848E+03	4.694297E-17	1.080812E-18
2.115768E+03	4.829603E-17	1.098932E-18
2.155689E+03	4.991930E-17	1.122168E-18
2.195609E+03	5.191742E-17	1.152601E-18
2.235529E+03	5.426233E-17	1.189277E-18
2.275449E+03	5.694462E-17	1.231669E-18
2.315369E+03	5.993206E-17	1.278767E-18
2.355289E+03	6.322513E-17	1.330278E-18
2.395210E+03	6.682295E-17	1.385876E-18
2.435130E+03	7.071621E-17	1.445059E-18
2.475050E+03	7.496523E-17	1.508733E-18
2.514970E+03	7.957116E-17	1.576552E-18
2.554890E+03	8.460130E-17	1.649455E-18
2.594810E+03	9.007799E-17	1.727431E-18
2.634731E+03	9.601833E-17	1.810338E-18
2.674651E+03	1.024828E-16	1.898815E-18
2.714571E+03	1.094753E-16	1.992392E-18
2.754491E+03	1.170137E-16	2.090846E-18
2.794411E+03	1.251302E-16	2.194193E-18
2.834331E+03	1.337872E-16	2.301202E-18
2.874251E+03	1.430134E-16	2.411838E-18
2.914172E+03	1.527037E-16	2.523824E-18
2.954092E+03	1.628848E-16	2.637187E-18
2.994012E+03	1.734866E-16	2.750408E-18
3.003992E+03	1.761947E-16	2.778528E-18
3.013972E+03	1.789450E-16	2.806868E-18
3.023952E+03	1.817048E-16	2.834907E-18
3.033932E+03	1.844735E-16	2.862638E-18
3.043912E+03	1.872804E-16	2.890514E-18
3.053892E+03	1.901288E-16	2.918579E-18
3.063872E+03	1.929858E-16	2.946323E-18
3.073852E+03	1.958831E-16	2.974227E-18
3.083832E+03	1.988201E-16	3.002280E-18
3.093812E+03	2.017650E-16	3.029995E-18
3.103792E+03	2.047506E-16	3.057863E-18
3.113772E+03	2.078103E-16	3.086377E-18
3.123752E+03	2.108809E-16	3.114588E-18
3.133733E+03	2.139968E-16	3.143005E-18
3.143713E+03	2.171607E-16	3.171659E-18
3.153693E+03	2.203757E-16	3.200592E-18
3.163673E+03	2.236462E-16	3.229856E-18
3.173653E+03	2.270091E-16	3.259978E-18
3.183633E+03	2.304375E-16	3.290554E-18
3.193613E+03	2.339375E-16	3.321663E-18
3.203593E+03	2.375161E-16	3.353393E-18
3.213573E+03	2.412139E-16	3.386302E-18
3.223553E+03	2.450397E-16	3.420493E-18
3.233533E+03	2.489700E-16	3.455618E-18
3.243513E+03	2.530152E-16	3.491804E-18
3.253493E+03	2.572524E-16	3.530090E-18
3.263473E+03	2.616277E-16	3.569704E-18
3.273453E+03	2.661864E-16	3.611242E-18
3.283433E+03	2.709088E-16	3.654404E-18
3.293413E+03	2.758748E-16	3.700238E-18
3.303393E+03	2.810657E-16	3.748448E-18
3.313373E+03	2.864959E-16	3.799190E-18
3.323353E+03	2.922134E-16	3.853055E-18
3.333333E+03	2.981655E-16	3.909302E-18
3.343313E+03	3.044338E-16	3.968959E-18
3.353293E+03	3.110321E-16	4.032153E-18
3.363273E+03	3.179391E-16	4.098554E-18
3.373253E+03	3.251660E-16	4.168259E-18
3.383234E+03	3.327919E-16	4.242227E-18
3.393214E+03	3.407555E-16	4.319620E-18
3.403194E+03	3.491321E-16	4.401338E-18
3.413174E+03	3.578534E-16	4.486464E-18
3.423154E+03	3.669887E-16	4.575818E-18
3.433134E+03	3.764956E-16	4.668817E-18
3.443114E+03	3.863613E-16	4.765260E-18
3.453094E+03	3.966023E-16	4.865310E-18
3.463074E+03	4.071537E-16	4.968136E-18
3.473054E+03	4.180142E-16	5.073696E-18
3.483034E+03	4.291342E-16	5.181371E-18
3.493014E+03	4.404507E-16	5.290394E-18
3.502994E+03	4.519235E-16	5.400291E-18
3.512974E+03	4.633802E-16	5.509028E-18
3.522954E+03	4.747813E-16	5.616182E-18
3.532934E+03	4.859478E-16	5.719706E-18
3.542914E+03	4.967498E-16	5.818162E-18
3.552894E+03	5.069839E-16	5.909290E-18
3.562874E+03	5.163647E-16	5.989921E-18
3.572854E+03	5.246740E-16	6.057721E-18
3.582834E+03	5.315178E-16	6.108377E-18
3.592814E+03	5.365670E-16	6.138396E-18
3.602794E+03	5.400421E-16	6.150599E-18
3.612774E+03	5.422734E-16	6.148999E-18
3.622754E+03	5.436260E-16	6.137923E-18
3.632735E+03	5.443837E-16	6.120709E-18
3.642715E+03	5.447898E-16	6.100179E-18
3.652695E+03	5.450514E-16	6.078706E-18
3.662675E+03	5.453784E-16	6.058647E-18
3.672655E+03	5.458829E-16	6.041231E-18
3.682635E+03	5.467208E-16	6.028142E-18
3.692615E+03	5.479897E-16	6.020404E-18
3.702595E+03	5.497325E-16	6.018430E-18
3.712575E+03	5.520662E-16	6.023435E-18
3.722555E+03	5.549891E-16	6.035333E-18
3.732535E+03	5.585103E-16	6.054154E-18
3.742515E+03	5.626488E-16	6.080044E-18
3.752495E+03	5.673745E-16	6.112615E-18
3.762475E+03	5.726437E-16	6.151345E-18
3.772455E+03	5.783733E-16	6.195295E-18
3.782435E+03	5.845637E-16	6.244433E-18
3.792415E+03	5.910995E-16	6.297495E-18
3.802395E+03	5.980155E-16	6.354828E-18
3.812375E+03	6.052158E-16	6.415390E-18
3.822355E+03	6.126790E-16	6.478941E-18
3.832335E+03	6.204340E-16	6.545770E-18
3.842315E+03	6.285340E-16	6.616425E-18
3.852295E+03	6.369783E-16	6.690881E-18
3.862275E+03	6.458761E-16	6.770268E-18
3.872255E+03	6.553608E-16	6.855959E-18
3.882236E+03	6.655304E-16	6.948948E-18
3.892216E+03	6.765458E-16	7.050881E-18
3.902196E+03	6.885132E-16	7.162826E-18
3.912176E+03	7.015788E-16	7.286259E-18
3.922156E+03	7.158385E-16	7.422131E-18
3.932136E+03	7.313551E-16	7.571044E-18
3.942116E+03	7.481250E-16	7.732918E-18
3.952096E+03	7.661525E-16	7.907757E-18
3.962076E+03	7.853936E-16	8.095070E-18
3.972056E+03	8.056751E-16	8.293043E-18
3.982036E+03	8.268813E-16	8.500465E-18
3.992016E+03	8.487421E-16	8.714548E-18
4.001996E+03	8.710514E-16	8.933176E-18
4.011976E+03	8.934855E-16	9.153037E-18
4.021956E+03	9.157176E-16	9.370803E-18
4.031936E+03	9.374034E-16	9.582979E-18
4.041916E+03	9.581653E-16	9.785744E-18
4.051896E+03	9.777208E-16	9.976254E-18
4.061876E+03	9.957326E-16	1.015112E-17
4.071856E+03	1.011912E-15	1.030745E-17
4.081836E+03	1.026091E-15	1.044358E-17
4.091816E+03	1.038153E-15	1.055839E-17
4.101796E+03	1.048020E-15	1.065112E-17
4.111776E+03	1.055816E-15	1.072308E-17
4.121756E+03	1.061671E-15	1.077563E-17
4.131737E+03	1.065824E-15	1.081122E-17
4.141717E+03	1.068556E-15	1.083273E-17
4.151697E+03	1.070219E-15	1.084372E-17
4.161677E+03	1.071217E-15	1.084832E-17
4.171657E+03	1.071895E-15	1.085000E-17
4.181637E+03	1.072641E-15	1.085269E-17
4.191617E+03	1.073834E-15	1.086020E-17
4.201597E+03	1.075822E-15	1.087606E-17
4.211577E+03	1.078906E-15	1.090325E-17
4.221557E+03	1.083374E-15	1.094471E-17
4.231537E+03	1.089462E-15	1.100276E-17
4.241517E+03	1.097384E-15	1.107958E-17
4.251497E+03	1.107314E-15	1.117689E-17
4.261477E+03	1.119328E-15	1.129544E-17
4.271457E+03	1.133477E-15	1.143573E-17
4.281437E+03	1.149709E-15	1.159725E-17
4.291417E+03	1.167903E-15	1.177874E-17
4.301397E+03	1.187743E-15	1.197703E-17
4.311377E+03	1.208793E-15	1.218771E-17
4.321357E+03	1.230404E-15	1.240426E-17
4.331337E+03	1.251736E-15	1.261821E-17
4.341317E+03	1.271686E-15	1.281847E-17
4.351297E+03	1.288903E-15	1.299140E-17
4.361277E+03	1.301786E-15	1.312091E-17
4.371257E+03	1.308548E-15	1.318898E-17
4.381238E+03	1.307288E-15	1.317646E-17
4.391218E+03	1.297992E-15	1.308321E-17
4.401198E+03	1.282435E-15	1.292709E-17
4.411178E+03	1.262366E-15	1.272573E-17
4.421158E+03	1.239329E-15	1.249467E-17
4.431138E+03	1.214711E-15	1.224788E-17
4.441118E+03	1.189714E-15	1.199745E-17
4.451098E+03	1.165413E-15	1.175421E-17
4.461078E+03	1.142683E-15	1.152697E-17
4.471058E+03	1.122297E-15	1.132350E-17
4.481038E+03	1.104898E-15	1.115028E-17
4.491018E+03	1.090980E-15	1.101228E-17
4.500998E+03	1.080967E-15	1.091379E-17
4.510978E+03	1.075129E-15	1.085755E-17
4.520958E+03	1.073646E-15	1.084537E-17
4.530938E+03	1.076599E-15	1.087811E-17
4.540918E+03	1.083958E-15	1.095546E-17
4.550898E+03	1.095553E-15	1.107577E-17
4.560878E+03	1.111134E-15	1.123649E-17
4.570858E+03	1.130342E-15	1.143403E-17
4.580838E+03	1.152705E-15	1.166364E-17
4.590818E+03	1.177685E-15	1.191987E-17
4.600798E+03	1.204656E-15	1.219640E-17
4.610778E+03	1.232972E-15	1.248671E-17
4.620758E+03	1.261939E-15	1.278375E-17
4.630739E+03	1.290880E-15	1.308065E-17
4.640719E+03	1.319154E-15	1.337089E-17
4.650699E+03	1.346194E-15	1.364872E-17
4.660679E+03	1.371517E-15	1.390920E-17
4.670659E+03	1.394815E-15	1.414917E-17
4.680639E+03	1.415903E-15	1.436673E-17
4.690619E+03	1.434804E-15	1.456208E-17
4.700599E+03	1.451716E-15	1.473719E-17
4.710579E+03	1.467069E-15	1.489641E-17
4.720559E+03	1.481114E-15	1.504224E-17
4.730539E+03	1.493678E-15	1.517293E-17
4.740519E+03	1.504598E-15	1.528679E-17
4.750499E+03	1.513852E-15	1.538357E-17
4.760479E+03	1.521528E-15	1.546415E-17
4.770459E+03	1.527823E-15	1.553050E-17
4.780439E+03	1.532968E-15	1.558497E-17
4.790419E+03	1.537315E-15	1.563110E-17
4.800399E+03	1.541216E-15	1.567248E-17
4.810379E+03	1.545046E-15	1.571289E-17
4.820359E+03	1.549115E-15	1.575548E-17
4.830339E+03	1.553738E-15	1.580345E-17
4.840319E+03	1.559091E-15	1.585859E-17
4.850299E+03	1.565337E-15	1.592254E-17
4.860279E+03	1.572472E-15	1.599524E-17
4.870259E+03	1.580443E-15	1.607617E-17
4.880240E+03	1.589065E-15	1.616343E-17
4.890220E+03	1.598067E-15	1.625424E-17
4.900200E+03	1.607117E-15	1.634524E-17
4.910180E+03	1.615843E-15	1.643264E-17
4.920160E+03	1.623823E-15	1.651213E-17
4.930140E+03	1.630674E-15	1.657981E-17
4.940120E+03	1.636096E-15	1.663266E-17
4.950100E+03	1.639813E-15	1.666786E-17
4.960080E+03	1.641659E-15	1.668372E-17
4.970060E+03	1.641502E-15	1.667894E-17
4.980040E+03	1.639309E-15	1.665318E-17
4.990020E+03	1.635002E-15	1.660569E-17
5.000000E+03	1.628557E-15	1.653623E-17
5.009980E+03	1.619943E-15	1.644450E-17
5.019960E+03	1.609090E-15	1.632985E-17
5.029940E+03	1.595976E-15	1.619207E-17
5.039920E+03	1.580593E-15	1.603113E-17
5.049900E+03	1.563010E-15	1.584775E-17
5.059880E+03	1.543326E-15	1.564298E-17
5.069860E+03	1.521818E-15	1.541967E-17
5.079840E+03	1.498784E-15	1.518086E-17
5.089820E+03	1.474665E-15	1.493108E-17
5.099800E+03	1.449962E-15	1.467542E-17
5.109780E+03	1.425244E-15	1.441967E-17
5.119760E+03	1.401079E-15	1.416959E-17
5.129741E+03	1.378018E-15	1.393076E-17
5.139721E+03	1.356563E-15	1.370826E-17
5.149701E+03	1.337153E-15	1.350653E-17
5.159681E+03	1.320122E-15	1.332892E-17
5.169661E+03	1.305704E-15	1.317781E-17
5.179641E+03	1.294036E-15	1.305454E-17
5.189621E+03	1.285177E-15	1.295970E-17
5.199601E+03	1.279082E-15	1.289280E-17
5.209581E+03	1.275680E-15	1.285313E-17
5.219561E+03	1.274826E-15	1.283920E-17
5.229541E+03	1.276320E-15	1.284899E-17
5.239521E+03	1.279960E-15	1.288046E-17
5.249501E+03	1.285508E-15	1.293119E-17
5.259481E+03	1.292711E-15	1.299867E-17
5.269461E+03	1.301291E-15	1.308007E-17
5.279441E+03	1.310949E-15	1.317244E-17
5.289421E+03	1.321393E-15	1.327283E-17
5.299401E+03	1.332296E-15	1.337798E-17
5.309381E+03	1.343347E-15	1.348481E-17
5.319361E+03	1.354273E-15	1.359060E-17
5.329341E+03	1.364796E-15	1.369258E-17
5.339321E+03	1.374641E-15	1.378805E-17
5.349301E+03	1.383643E-15	1.387539E-17
5.359281E+03	1.391620E-15	1.395281E-17
5.369261E+03	1.398501E-15	1.401962E-17
5.379242E+03	1.404229E-15	1.407532E-17
5.389222E+03	1.408833E-15	1.412022E-17
5.399202E+03	1.412377E-15	1.415501E-17
5.409182E+03	1.414961E-15	1.418072E-17
5.419162E+03	1.416773E-15	1.419925E-17
5.429142E+03	1.418019E-15	1.421273E-17
5.439122E+03	1.418921E-15	1.422338E-17
5.449102E+03	1.419810E-15	1.423457E-17
5.459082E+03	1.420978E-15	1.424924E-17
5.469062E+03	1.422750E-15	1.427071E-17
5.479042E+03	1.425455E-15	1.430230E-17
5.489022E+03	1.429264E-15	1.434573E-17
5.499002E+03	1.433975E-15	1.439899E-17
5.508982E+03	1.439317E-15	1.445936E-17
5.518962E+03	1.444915E-15	1.452308E-17
5.528942E+03	1.450434E-15	1.458677E-17
5.538922E+03	1.455519E-15	1.464685E-17
5.548902E+03	1.459876E-15	1.470036E-17
5.558882E+03	1.463338E-15	1.474557E-17
5.568862E+03	1.465896E-15	1.478240E-17
5.578842E+03	1.467621E-15	1.481150E-17
5.588822E+03	1.468768E-15	1.483543E-17
5.598802E+03	1.469678E-15	1.485761E-17
5.608782E+03	1.470739E-15	1.488196E-17
5.618762E+03	1.472311E-15	1.491209E-17
5.628743E+03	1.474706E-15	1.495120E-17
5.638723E+03	1.478073E-15	1.500081E-17
5.648703E+03	1.482451E-15	1.506132E-17
5.658683E+03	1.487684E-15	1.513120E-17
5.668663E+03	1.493505E-15	1.520773E-17
5.678643E+03	1.499493E-15	1.528665E-17
5.688623E+03	1.505216E-15	1.536355E-17
5.698603E+03	1.510209E-15	1.543366E-17
5.708583E+03	1.514132E-15	1.549346E-17
5.718563E+03	1.516693E-15	1.553993E-17
5.728543E+03	1.517777E-15	1.557183E-17
5.738523E+03	1.517357E-15	1.558881E-17
5.748503E+03	1.515549E-15	1.559198E-17
5.758483E+03	1.512562E-15	1.558345E-17
5.768463E+03	1.508608E-15	1.556533E-17
5.778443E+03	1.503942E-15	1.554019E-17
5.788423E+03	1.498825E-15	1.551072E-17
5.798403E+03	1.493436E-15	1.547871E-17
5.808383E+03	1.488001E-15	1.544652E-17
5.818363E+03	1.482678E-15	1.541575E-17
5.828343E+03	1.477593E-15	1.538773E-17
5.838323E+03	1.472849E-15	1.536353E-17
5.848303E+03	1.468493E-15	1.534366E-17
5.858283E+03	1.464528E-15	1.532815E-17
5.868263E+03	1.460903E-15	1.531649E-17
5.878244E+03	1.457499E-15	1.530746E-17
5.888224E+03	1.454182E-15	1.529964E-17
5.898204E+03	1.450796E-15	1.529139E-17
5.908184E+03	1.447167E-15	1.528088E-17
5.918164E+03	1.443191E-15	1.526698E-17
5.928144E+03	1.438798E-15	1.524893E-17
5.938124E+03	1.433939E-15	1.522619E-17
5.948104E+03	1.428663E-15	1.519925E-17
5.958084E+03	1.423033E-15	1.516874E-17
5.968064E+03	1.417138E-15	1.513560E-17
5.978044E+03	1.411112E-15	1.510125E-17
5.988024E+03	1.405074E-15	1.506694E-17
5.998004E+03	1.399113E-15	1.503364E-17
6.007984E+03	1.393333E-15	1.500248E-17
6.017964E+03	1.387858E-15	1.497478E-17
6.027944E+03	1.382730E-15	1.495106E-17
6.037924E+03	1.378037E-15	1.493225E-17
6.047904E+03	1.373856E-15	1.491925E-17
6.057884E+03	1.370215E-15	1.491239E-17
6.067864E+03	1.367172E-15	1.491236E-17
6.077844E+03	1.364757E-15	1.491952E-17
6.087824E+03	1.362977E-15	1.493400E-17
6.097804E+03	1.361807E-15	1.495559E-17
6.107784E+03	1.361189E-15	1.498368E-17
6.117764E+03	1.360995E-15	1.501693E-17
6.127745E+03	1.361031E-15	1.505323E-17
6.137725E+03	1.361064E-15	1.509002E-17
6.147705E+03	1.360767E-15	1.512368E-17
6.157685E+03	1.359796E-15	1.515035E-17
6.167665E+03	1.357805E-15	1.516610E-17
6.177645E+03	1.354420E-15	1.516663E-17
6.187625E+03	1.349538E-15	1.515067E-17
6.197605E+03	1.343473E-15	1.512156E-17
6.207585E+03	1.336522E-15	1.508254E-17
6.217565E+03	1.328972E-15	1.503678E-17
6.227545E+03	1.321077E-15	1.498704E-17
6.237525E+03	1.313048E-15	1.493569E-17
6.247505E+03	1.305073E-15	1.488484E-17
6.257485E+03	1.297267E-15	1.483578E-17
6.267465E+03	1.289754E-15	1.478992E-17
6.277445E+03	1.282668E-15	1.474881E-17
6.287425E+03	1.276093E-15	1.471345E-17
6.297405E+03	1.270129E-15	1.468500E-17
6.307385E+03	1.264830E-15	1.466415E-17
6.317365E+03	1.260267E-15	1.465176E-17
6.327345E+03	1.256442E-15	1.464791E-17
6.337325E+03	1.253365E-15	1.465277E-17
6.347305E+03	1.250986E-15	1.466581E-17
6.357285E+03	1.249262E-15	1.468659E-17
6.367265E+03	1.248157E-15	1.471472E-17
6.377246E+03	1.247616E-15	1.474961E-17
6.387226E+03	1.247646E-15	1.479138E-17
6.397206E+03	1.248250E-15	1.484012E-17
6.407186E+03	1.249452E-15	1.489615E-17
6.417166E+03	1.251285E-15	1.495993E-17
6.427146E+03	1.253795E-15	1.503205E-17
6.437126E+03	1.257004E-15	1.511283E-17
6.447106E+03	1.260907E-15	1.520229E-17
6.457086E+03	1.265470E-15	1.530004E-17
6.467066E+03	1.270638E-15	1.540551E-17
6.477046E+03	1.276279E-15	1.551714E-17
6.487026E+03	1.282214E-15	1.563276E-17
6.497006E+03	1.288171E-15	1.574907E-17
6.506986E+03	1.293851E-15	1.586243E-17
6.516966E+03	1.298874E-15	1.596809E-17
6.526946E+03	1.302887E-15	1.606164E-17
6.536926E+03	1.305627E-15	1.613972E-17
6.546906E+03	1.306885E-15	1.619960E-17
6.556886E+03	1.306443E-15	1.623839E-17
6.566866E+03	1.304226E-15	1.625500E-17
6.576846E+03	1.300221E-15	1.624908E-17
6.586826E+03	1.294564E-15	1.622213E-17
6.596806E+03	1.287472E-15	1.617672E-17
6.606786E+03	1.279280E-15	1.611691E-17
6.616766E+03	1.270364E-15	1.604733E-17
6.626747E+03	1.261091E-15	1.597256E-17
6.636727E+03	1.251832E-15	1.589726E-17
6.646707E+03	1.242864E-15	1.582497E-17
6.656687E+03	1.234415E-15	1.575863E-17
6.666667E+03	1.226599E-15	1.569973E-17
6.676647E+03	1.219472E-15	1.564908E-17
6.686627E+03	1.212993E-15	1.560618E-17
6.696607E+03	1.207081E-15	1.557008E-17
6.706587E+03	1.201617E-15	1.553929E-17
6.716567E+03	1.196470E-15	1.551216E-17
6.726547E+03	1.191506E-15	1.548696E-17
6.736527E+03	1.186599E-15	1.546209E-17
6.746507E+03	1.181630E-15	1.543598E-17
6.756487E+03	1.176530E-15	1.540774E-17
6.766467E+03	1.171220E-15	1.537633E-17
6.776447E+03	1.165683E-15	1.534148E-17
6.786427E+03	1.159892E-15	1.530281E-17
6.796407E+03	1.153843E-15	1.526028E-17
6.806387E+03	1.147608E-15	1.521479E-17
6.816367E+03	1.141215E-15	1.516672E-17
6.826347E+03	1.134757E-15	1.511729E-17
6.836327E+03	1.128315E-15	1.506758E-17
6.846307E+03	1.121954E-15	1.501846E-17
6.856287E+03	1.115753E-15	1.497100E-17
6.866267E+03	1.109721E-15	1.492535E-17
6.876248E+03	1.103903E-15	1.488214E-17
6.886228E+03	1.098276E-15	1.484107E-17
6.896208E+03	1.092801E-15	1.480165E-17
6.906188E+03	1.087471E-15	1.476380E-17
6.916168E+03	1.082273E-15	1.472735E-17
6.926148E+03	1.077212E-15	1.469241E-17
6.936128E+03	1.072300E-15	1.465915E-17
6.946108E+03	1.067580E-15	1.462818E-17
6.956088E+03	1.063099E-15	1.460017E-17
6.966068E+03	1.058915E-15	1.457594E-17
6.976048E+03	1.055025E-15	1.455549E-17
6.986028E+03	1.051466E-15	1.453938E-17
6.996008E+03	1.048197E-15	1.452705E-17
7.005988E+03	1.045205E-15	1.451838E-17
7.015968E+03	1.042440E-15	1.451268E-17
7.025948E+03	1.039883E-15	1.450975E-17
7.035928E+03	1.037510E-15	1.450925E-17
7.045908E+03	1.035279E-15	1.451063E-17
7.055888E+03	1.033222E-15	1.451436E-17
7.065868E+03	1.031347E-15	1.452059E-17
7.075848E+03	1.029637E-15	1.452908E-17
7.085828E+03	1.028110E-15	1.454012E-17
7.095808E+03	1.026758E-15	1.455361E-17
7.105788E+03	1.025552E-15	1.456919E-17
7.115768E+03	1.024443E-15	1.458617E-17
7.125749E+03	1.023417E-15	1.460438E-17
7.135729E+03	1.022395E-15	1.462268E-17
7.145709E+03	1.021399E-15	1.464143E-17
7.155689E+03	1.020384E-15	1.465996E-17
7.165669E+03	1.019391E-15	1.467890E-17
7.175649E+03	1.018434E-15	1.469844E-17
7.185629E+03	1.017557E-15	1.471926E-17
7.195609E+03	1.016778E-15	1.474160E-17
7.205589E+03	1.016099E-15	1.476555E-17
7.215569E+03	1.015565E-15	1.479174E-17
7.225549E+03	1.015162E-15	1.482004E-17
7.235529E+03	1.014863E-15	1.485005E-17
7.245509E+03	1.014676E-15	1.488191E-17
7.255489E+03	1.014522E-15	1.491449E-17
7.265469E+03	1.014359E-15	1.494718E-17
7.275449E+03	1.014049E-15	1.497796E-17
7.285429E+03	1.013472E-15	1.500502E-17
7.295409E+03	1.012471E-15	1.502607E-17
7.305389E+03	1.010877E-15	1.503852E-17
7.315369E+03	1.008583E-15	1.504072E-17
7.325349E+03	1.005532E-15	1.503177E-17
7.335329E+03	1.001699E-15	1.501122E-17
7.345309E+03	9.971907E-16	1.498058E-17
7.355289E+03	9.921779E-16	1.494237E-17
7.365269E+03	9.868911E-16	1.490001E-17
7.375250E+03	9.815969E-16	1.485752E-17
7.385230E+03	9.765789E-16	1.481921E-17
7.395210E+03	9.720655E-16	1.478858E-17
7.405190E+03	9.682515E-16	1.476867E-17
7.415170E+03	9.652824E-16	1.476180E-17
7.425150E+03	9.632169E-16	1.476898E-17
7.435130E+03	9.620239E-16	1.478984E-17
7.445110E+03	9.616282E-16	1.482335E-17
7.455090E+03	9.618510E-16	1.486686E-17
7.465070E+03	9.624667E-16	1.491694E-17
7.475050E+03	9.631347E-16	1.496836E-17
7.485030E+03	9.634481E-16	1.501479E-17
7.495010E+03	9.628858E-16	1.504802E-17
7.504990E+03	9.612378E-16	1.506465E-17
7.514970E+03	9.588201E-16	1.506948E-17
7.524950E+03	9.558582E-16	1.506597E-17
7.534930E+03	9.525236E-16	1.505673E-17
7.544910E+03	9.488978E-16	1.504299E-17
7.554890E+03	9.450576E-16	1.502594E-17
7.564870E+03	9.410351E-16	1.500603E-17
7.574850E+03	9.368784E-16	1.498400E-17
7.584830E+03	9.326598E-16	1.496098E-17
7.594810E+03	9.284325E-16	1.493781E-17
7.604790E+03	9.242902E-16	1.491599E-17
7.614770E+03	9.203011E-16	1.489661E-17
7.624750E+03	9.165463E-16	1.488101E-17
7.634731E+03	9.130972E-16	1.487038E-17
7.644711E+03	9.100235E-16	1.486589E-17
7.654691E+03	9.073576E-16	1.486811E-17
7.664671E+03	9.050920E-16	1.487699E-17
7.674651E+03	9.032247E-16	1.489253E-17
7.684631E+03	9.017022E-16	1.491391E-17
7.694611E+03	9.005000E-16	1.494077E-17
7.704591E+03	8.995224E-16	1.497156E-17
7.714571E+03	8.987148E-16	1.500539E-17
7.724551E+03	8.980056E-16	1.504109E-17
7.734531E+03	8.973096E-16	1.507723E-17
7.744511E+03	8.966056E-16	1.511346E-17
