#wls	flux	fluxerr
1.596806E+03	2.502001E-17	2.707874E-18
1.636727E+03	2.524327E-17	2.718866E-18
1.676647E+03	2.544823E-17	2.727425E-18
1.716567E+03	2.563938E-17	2.734055E-18
1.756487E+03	2.579195E-17	2.736144E-18
1.796407E+03	2.592254E-17	2.735505E-18
1.836327E+03	2.601798E-17	2.730789E-18
1.876248E+03	2.607152E-17	2.721348E-18
1.916168E+03	2.607612E-17	2.706526E-18
1.956088E+03	2.601925E-17	2.685118E-18
1.996008E+03	2.591224E-17	2.658396E-18
2.035928E+03	2.575510E-17	2.626462E-18
2.075848E+03	2.557387E-17	2.592051E-18
2.115768E+03	2.538768E-17	2.557146E-18
2.155689E+03	2.523857E-17	2.525971E-18
2.195609E+03	2.513060E-17	2.498869E-18
2.235529E+03	2.504750E-17	2.474159E-18
2.275449E+03	2.496332E-17	2.449254E-18
2.315369E+03	2.484748E-17	2.421185E-18
2.355289E+03	2.467404E-17	2.387515E-18
2.395210E+03	2.443773E-17	2.347868E-18
2.435130E+03	2.413019E-17	2.301589E-18
2.475050E+03	2.376178E-17	2.249822E-18
2.514970E+03	2.332581E-17	2.192082E-18
2.554890E+03	2.283528E-17	2.129746E-18
2.594810E+03	2.229016E-17	2.062943E-18
2.634731E+03	2.169949E-17	1.992643E-18
2.674651E+03	2.106834E-17	1.919424E-18
2.714571E+03	2.040227E-17	1.843899E-18
2.754491E+03	1.971064E-17	1.767003E-18
2.794411E+03	1.899630E-17	1.689062E-18
2.834331E+03	1.827501E-17	1.611536E-18
2.874251E+03	1.754695E-17	1.534473E-18
2.914172E+03	1.682441E-17	1.458968E-18
2.954092E+03	1.611611E-17	1.385774E-18
2.994012E+03	1.542814E-17	1.315388E-18
3.003992E+03	1.526060E-17	1.298336E-18
3.013972E+03	1.509372E-17	1.281405E-18
3.023952E+03	1.492979E-17	1.264787E-18
3.033932E+03	1.476892E-17	1.248492E-18
3.043912E+03	1.460895E-17	1.232335E-18
3.053892E+03	1.445240E-17	1.216528E-18
3.063872E+03	1.429925E-17	1.201069E-18
3.073852E+03	1.414756E-17	1.185792E-18
3.083832E+03	1.399939E-17	1.170869E-18
3.093812E+03	1.385475E-17	1.156300E-18
3.103792E+03	1.371183E-17	1.141930E-18
3.113772E+03	1.357441E-17	1.128076E-18
3.123752E+03	1.343885E-17	1.114430E-18
3.133733E+03	1.330705E-17	1.101150E-18
3.143713E+03	1.317734E-17	1.088096E-18
3.153693E+03	1.305328E-17	1.075560E-18
3.163673E+03	1.293149E-17	1.063261E-18
3.173653E+03	1.281377E-17	1.051346E-18
3.183633E+03	1.270183E-17	1.039953E-18
3.193613E+03	1.259247E-17	1.028817E-18
3.203593E+03	1.248743E-17	1.018079E-18
3.213573E+03	1.238680E-17	1.007744E-18
3.223553E+03	1.229068E-17	9.978193E-19
3.233533E+03	1.219918E-17	9.883096E-19
3.243513E+03	1.211242E-17	9.792230E-19
3.253493E+03	1.203197E-17	9.706841E-19
3.263473E+03	1.195502E-17	9.624638E-19
3.273453E+03	1.188320E-17	9.546903E-19
3.283433E+03	1.181805E-17	9.474863E-19
3.293413E+03	1.175830E-17	9.407454E-19
3.303393E+03	1.170413E-17	9.344797E-19
3.313373E+03	1.165571E-17	9.287015E-19
3.323353E+03	1.161459E-17	9.235297E-19
3.333333E+03	1.157963E-17	9.188704E-19
3.343313E+03	1.155104E-17	9.147393E-19
3.353293E+03	1.153040E-17	9.112563E-19
3.363273E+03	1.151665E-17	9.083360E-19
3.373253E+03	1.151012E-17	9.059997E-19
3.383234E+03	1.151238E-17	9.043688E-19
3.393214E+03	1.152254E-17	9.033688E-19
3.403194E+03	1.154221E-17	9.031233E-19
3.413174E+03	1.157060E-17	9.035658E-19
3.423154E+03	1.161062E-17	9.049201E-19
3.433134E+03	1.165914E-17	9.069369E-19
3.443114E+03	1.172038E-17	9.099415E-19
3.453094E+03	1.179256E-17	9.137900E-19
3.463074E+03	1.187640E-17	9.185341E-19
3.473054E+03	1.197508E-17	9.244153E-19
3.483034E+03	1.208708E-17	9.313098E-19
3.493014E+03	1.221457E-17	9.393796E-19
3.502994E+03	1.235859E-17	9.487000E-19
3.512974E+03	1.252035E-17	9.593560E-19
3.522954E+03	1.270113E-17	9.714399E-19
3.532934E+03	1.290235E-17	9.850527E-19
3.542914E+03	1.312554E-17	1.000305E-18
3.552894E+03	1.337237E-17	1.017316E-18
3.562874E+03	1.364461E-17	1.036210E-18
3.572854E+03	1.394413E-17	1.057123E-18
3.582834E+03	1.427418E-17	1.080291E-18
3.592814E+03	1.463416E-17	1.105659E-18
3.602794E+03	1.502824E-17	1.133532E-18
3.612774E+03	1.545659E-17	1.163912E-18
3.622754E+03	1.592198E-17	1.196998E-18
3.632735E+03	1.642456E-17	1.232789E-18
3.642715E+03	1.696581E-17	1.271387E-18
3.652695E+03	1.754871E-17	1.313004E-18
3.662675E+03	1.817349E-17	1.357646E-18
3.672655E+03	1.884335E-17	1.405541E-18
3.682635E+03	1.955862E-17	1.456703E-18
3.692615E+03	2.032275E-17	1.511378E-18
3.702595E+03	2.113788E-17	1.569713E-18
3.712575E+03	2.200448E-17	1.631733E-18
3.722555E+03	2.292826E-17	1.697849E-18
3.732535E+03	2.390819E-17	1.767974E-18
3.742515E+03	2.494665E-17	1.842269E-18
3.752495E+03	2.604996E-17	1.921192E-18
3.762475E+03	2.721909E-17	2.004799E-18
3.772455E+03	2.845487E-17	2.093136E-18
3.782435E+03	2.976432E-17	2.186709E-18
3.792415E+03	3.114635E-17	2.285421E-18
3.802395E+03	3.260846E-17	2.389811E-18
3.812375E+03	3.415182E-17	2.499948E-18
3.822355E+03	3.577981E-17	2.616065E-18
3.832335E+03	3.749588E-17	2.738401E-18
3.842315E+03	3.930358E-17	2.867200E-18
3.852295E+03	4.120922E-17	3.002905E-18
3.862275E+03	4.321398E-17	3.145587E-18
3.872255E+03	4.532161E-17	3.295503E-18
3.882236E+03	4.753891E-17	3.453131E-18
3.892216E+03	4.986694E-17	3.618533E-18
3.902196E+03	5.231283E-17	3.792208E-18
3.912176E+03	5.487751E-17	3.974206E-18
3.922156E+03	5.756493E-17	4.164798E-18
3.932136E+03	6.038623E-17	4.364771E-18
3.942116E+03	6.333496E-17	4.573642E-18
3.952096E+03	6.642630E-17	4.792488E-18
3.962076E+03	6.965699E-17	5.021056E-18
3.972056E+03	7.303110E-17	5.259622E-18
3.982036E+03	7.655661E-17	5.508742E-18
3.992016E+03	8.024228E-17	5.769027E-18
4.001996E+03	8.407917E-17	6.039816E-18
4.011976E+03	8.808463E-17	6.322335E-18
4.021956E+03	9.225349E-17	6.616195E-18
4.031936E+03	9.659423E-17	6.921983E-18
4.041916E+03	1.011108E-16	7.239966E-18
4.051896E+03	1.058070E-16	7.570389E-18
4.061876E+03	1.106807E-16	7.913084E-18
4.071856E+03	1.157461E-16	8.269052E-18
4.081836E+03	1.209953E-16	8.637693E-18
4.091816E+03	1.264366E-16	9.019590E-18
4.101796E+03	1.320723E-16	9.414890E-18
4.111776E+03	1.379049E-16	9.823740E-18
4.121756E+03	1.439360E-16	1.024624E-17
4.131737E+03	1.501670E-16	1.068247E-17
4.141717E+03	1.565987E-16	1.113245E-17
4.151697E+03	1.632242E-16	1.159569E-17
4.161677E+03	1.700499E-16	1.207262E-17
4.171657E+03	1.770824E-16	1.256367E-17
4.181637E+03	1.843049E-16	1.306765E-17
4.191617E+03	1.917144E-16	1.358430E-17
4.201597E+03	1.993231E-16	1.411450E-17
4.211577E+03	2.071107E-16	1.465676E-17
4.221557E+03	2.150886E-16	1.521190E-17
4.231537E+03	2.232250E-16	1.577761E-17
4.241517E+03	2.315386E-16	1.635523E-17
4.251497E+03	2.400038E-16	1.694291E-17
4.261477E+03	2.486207E-16	1.754066E-17
4.271457E+03	2.573797E-16	1.814777E-17
4.281437E+03	2.662605E-16	1.876280E-17
4.291417E+03	2.752518E-16	1.938494E-17
4.301397E+03	2.843516E-16	2.001403E-17
4.311377E+03	2.935482E-16	2.064923E-17
4.321357E+03	3.028187E-16	2.128894E-17
4.331337E+03	3.121503E-16	2.193223E-17
4.341317E+03	3.215305E-16	2.257820E-17
4.351297E+03	3.309579E-16	2.322677E-17
4.361277E+03	3.403983E-16	2.387552E-17
4.371257E+03	3.498627E-16	2.452520E-17
4.381238E+03	3.593171E-16	2.517345E-17
4.391218E+03	3.687734E-16	2.582107E-17
4.401198E+03	3.781964E-16	2.646561E-17
4.411178E+03	3.875866E-16	2.710709E-17
4.421158E+03	3.969343E-16	2.774484E-17
4.431138E+03	4.062305E-16	2.837821E-17
4.441118E+03	4.154424E-16	2.900493E-17
4.451098E+03	4.246010E-16	2.962714E-17
4.461078E+03	4.336635E-16	3.024188E-17
4.471058E+03	4.426514E-16	3.085063E-17
4.481038E+03	4.515498E-16	3.145235E-17
4.491018E+03	4.603578E-16	3.204698E-17
4.500998E+03	4.690756E-16	3.263454E-17
4.510978E+03	4.776916E-16	3.321423E-17
4.520958E+03	4.862352E-16	3.378808E-17
4.530938E+03	4.946837E-16	3.435451E-17
4.540918E+03	5.030415E-16	3.491384E-17
4.550898E+03	5.113279E-16	3.546740E-17
4.560878E+03	5.195355E-16	3.601467E-17
4.570858E+03	5.276712E-16	3.655613E-17
4.580838E+03	5.357562E-16	3.709325E-17
4.590818E+03	5.437708E-16	3.762464E-17
4.600798E+03	5.517367E-16	3.815182E-17
4.610778E+03	5.596626E-16	3.867537E-17
4.620758E+03	5.675429E-16	3.919491E-17
4.630739E+03	5.754003E-16	3.971199E-17
4.640719E+03	5.832437E-16	4.022722E-17
4.650699E+03	5.910534E-16	4.073923E-17
4.660679E+03	5.988665E-16	4.125056E-17
4.670659E+03	6.066628E-16	4.175981E-17
4.680639E+03	6.144791E-16	4.226950E-17
4.690619E+03	6.222944E-16	4.277818E-17
4.700599E+03	6.301447E-16	4.328831E-17
4.710579E+03	6.379936E-16	4.379736E-17
4.720559E+03	6.458747E-16	4.430763E-17
4.730539E+03	6.537899E-16	4.481923E-17
4.740519E+03	6.617260E-16	4.533125E-17
4.750499E+03	6.696828E-16	4.584365E-17
4.760479E+03	6.776454E-16	4.635539E-17
4.770459E+03	6.856414E-16	4.686837E-17
4.780439E+03	6.936547E-16	4.738145E-17
4.790419E+03	7.016686E-16	4.789348E-17
4.800399E+03	7.097101E-16	4.840629E-17
4.810379E+03	7.177323E-16	4.891667E-17
4.820359E+03	7.257620E-16	4.942644E-17
4.830339E+03	7.337963E-16	4.993540E-17
4.840319E+03	7.418178E-16	5.044234E-17
4.850299E+03	7.498236E-16	5.094706E-17
4.860279E+03	7.578112E-16	5.144939E-17
4.870259E+03	7.657783E-16	5.194916E-17
4.880240E+03	7.737381E-16	5.244726E-17
4.890220E+03	7.816581E-16	5.294149E-17
4.900200E+03	7.895533E-16	5.343286E-17
4.910180E+03	7.974223E-16	5.392127E-17
4.920160E+03	8.052512E-16	5.440579E-17
4.930140E+03	8.130704E-16	5.488846E-17
4.940120E+03	8.208513E-16	5.536735E-17
4.950100E+03	8.285962E-16	5.584262E-17
4.960080E+03	8.363256E-16	5.631564E-17
4.970060E+03	8.440427E-16	5.678665E-17
4.980040E+03	8.517385E-16	5.725501E-17
4.990020E+03	8.594366E-16	5.772234E-17
5.000000E+03	8.671289E-16	5.818807E-17
5.009980E+03	8.748258E-16	5.865292E-17
5.019960E+03	8.825533E-16	5.911860E-17
5.029940E+03	8.903086E-16	5.958494E-17
5.039920E+03	8.981204E-16	6.005385E-17
5.049900E+03	9.059725E-16	6.052424E-17
5.059880E+03	9.139267E-16	6.100022E-17
5.069860E+03	9.219543E-16	6.147987E-17
5.079840E+03	9.301029E-16	6.196636E-17
5.089820E+03	9.383763E-16	6.245990E-17
5.099800E+03	9.467918E-16	6.296165E-17
5.109780E+03	9.553867E-16	6.347405E-17
5.119760E+03	9.641634E-16	6.399724E-17
5.129741E+03	9.731577E-16	6.453358E-17
5.139721E+03	9.823741E-16	6.508330E-17
5.149701E+03	9.918316E-16	6.564766E-17
5.159681E+03	1.001565E-15	6.622892E-17
5.169661E+03	1.011576E-15	6.682713E-17
5.179641E+03	1.021883E-15	6.744348E-17
5.189621E+03	1.032518E-15	6.808006E-17
5.199601E+03	1.043496E-15	6.873779E-17
5.209581E+03	1.054816E-15	6.941652E-17
5.219561E+03	1.066488E-15	7.011696E-17
5.229541E+03	1.078559E-15	7.084198E-17
5.239521E+03	1.090985E-15	7.158883E-17
5.249501E+03	1.103827E-15	7.236134E-17
5.259481E+03	1.117057E-15	7.315763E-17
5.269461E+03	1.130695E-15	7.397898E-17
5.279441E+03	1.144727E-15	7.482447E-17
5.289421E+03	1.159189E-15	7.569630E-17
5.299401E+03	1.174045E-15	7.659217E-17
5.309381E+03	1.189312E-15	7.751308E-17
5.319361E+03	1.204986E-15	7.845875E-17
5.329341E+03	1.221046E-15	7.942773E-17
5.339321E+03	1.237521E-15	8.042197E-17
5.349301E+03	1.254389E-15	8.143992E-17
5.359281E+03	1.271624E-15	8.247994E-17
5.369261E+03	1.289258E-15	8.354399E-17
5.379242E+03	1.307266E-15	8.463050E-17
5.389222E+03	1.325622E-15	8.573776E-17
5.399202E+03	1.344360E-15	8.686790E-17
5.409182E+03	1.363454E-15	8.801928E-17
5.419162E+03	1.382899E-15	8.919162E-17
5.429142E+03	1.402691E-15	9.038454E-17
5.439122E+03	1.422846E-15	9.159917E-17
5.449102E+03	1.443317E-15	9.283251E-17
5.459082E+03	1.464139E-15	9.408679E-17
5.469062E+03	1.485286E-15	9.536031E-17
5.479042E+03	1.506745E-15	9.665237E-17
5.489022E+03	1.528499E-15	9.796182E-17
5.499002E+03	1.550508E-15	9.928620E-17
5.508982E+03	1.572748E-15	1.006240E-16
5.518962E+03	1.595150E-15	1.019709E-16
5.528942E+03	1.617636E-15	1.033220E-16
5.538922E+03	1.640197E-15	1.046768E-16
5.548902E+03	1.662778E-15	1.060318E-16
5.558882E+03	1.685274E-15	1.073806E-16
5.568862E+03	1.707653E-15	1.087211E-16
5.578842E+03	1.729857E-15	1.100499E-16
5.588822E+03	1.751856E-15	1.113652E-16
5.598802E+03	1.773552E-15	1.126608E-16
5.608782E+03	1.794916E-15	1.139350E-16
5.618762E+03	1.815925E-15	1.151867E-16
5.628743E+03	1.836488E-15	1.164098E-16
5.638723E+03	1.856559E-15	1.176019E-16
5.648703E+03	1.876149E-15	1.187637E-16
5.658683E+03	1.895173E-15	1.198900E-16
5.668663E+03	1.913622E-15	1.209803E-16
5.678643E+03	1.931466E-15	1.220330E-16
5.688623E+03	1.948651E-15	1.230447E-16
5.698603E+03	1.965180E-15	1.240157E-16
5.708583E+03	1.981005E-15	1.249432E-16
5.718563E+03	1.996107E-15	1.258262E-16
5.728543E+03	2.010469E-15	1.266638E-16
5.738523E+03	2.024104E-15	1.274568E-16
5.748503E+03	2.036975E-15	1.282032E-16
5.758483E+03	2.049074E-15	1.289025E-16
5.768463E+03	2.060394E-15	1.295545E-16
5.778443E+03	2.070933E-15	1.301591E-16
5.788423E+03	2.080659E-15	1.307145E-16
5.798403E+03	2.089602E-15	1.312227E-16
5.808383E+03	2.097764E-15	1.316840E-16
5.818363E+03	2.105121E-15	1.320970E-16
5.828343E+03	2.111707E-15	1.324639E-16
5.838323E+03	2.117504E-15	1.327837E-16
5.848303E+03	2.122546E-15	1.330587E-16
5.858283E+03	2.126794E-15	1.332864E-16
5.868263E+03	2.130313E-15	1.334711E-16
5.878244E+03	2.133089E-15	1.336121E-16
5.888224E+03	2.135114E-15	1.337088E-16
5.898204E+03	2.136457E-15	1.337658E-16
5.908184E+03	2.137085E-15	1.337809E-16
5.918164E+03	2.137042E-15	1.337571E-16
5.928144E+03	2.136326E-15	1.336943E-16
5.938124E+03	2.134984E-15	1.335954E-16
5.948104E+03	2.133013E-15	1.334604E-16
5.958084E+03	2.130463E-15	1.332924E-16
5.968064E+03	2.127334E-15	1.330914E-16
5.978044E+03	2.123653E-15	1.328593E-16
5.988024E+03	2.119445E-15	1.325976E-16
5.998004E+03	2.114764E-15	1.323097E-16
6.007984E+03	2.109587E-15	1.319941E-16
6.017964E+03	2.103967E-15	1.316544E-16
6.027944E+03	2.097934E-15	1.312922E-16
6.037924E+03	2.091516E-15	1.309095E-16
6.047904E+03	2.084743E-15	1.305081E-16
6.057884E+03	2.077620E-15	1.300883E-16
6.067864E+03	2.070200E-15	1.296535E-16
6.077844E+03	2.062513E-15	1.292055E-16
6.087824E+03	2.054588E-15	1.287461E-16
6.097804E+03	2.046428E-15	1.282756E-16
6.107784E+03	2.038063E-15	1.277958E-16
6.117764E+03	2.029543E-15	1.273100E-16
6.127745E+03	2.020897E-15	1.268197E-16
6.137725E+03	2.012126E-15	1.263253E-16
6.147705E+03	2.003277E-15	1.258295E-16
6.157685E+03	1.994351E-15	1.253325E-16
6.167665E+03	1.985393E-15	1.248371E-16
6.177645E+03	1.976398E-15	1.243429E-16
6.187625E+03	1.967404E-15	1.238525E-16
6.197605E+03	1.958398E-15	1.233649E-16
6.207585E+03	1.949409E-15	1.228819E-16
6.217565E+03	1.940443E-15	1.224041E-16
6.227545E+03	1.931482E-15	1.219301E-16
6.237525E+03	1.922553E-15	1.214618E-16
6.247505E+03	1.913637E-15	1.209979E-16
6.257485E+03	1.904785E-15	1.205418E-16
6.267465E+03	1.895958E-15	1.200907E-16
6.277445E+03	1.887183E-15	1.196466E-16
6.287425E+03	1.878490E-15	1.192114E-16
6.297405E+03	1.869844E-15	1.187827E-16
6.307385E+03	1.861273E-15	1.183624E-16
6.317365E+03	1.852813E-15	1.179529E-16
6.327345E+03	1.844431E-15	1.175519E-16
6.337325E+03	1.836185E-15	1.171633E-16
6.347305E+03	1.828089E-15	1.167879E-16
6.357285E+03	1.820117E-15	1.164240E-16
6.367265E+03	1.812351E-15	1.160771E-16
6.377246E+03	1.804767E-15	1.157455E-16
6.387226E+03	1.797406E-15	1.154320E-16
6.397206E+03	1.790291E-15	1.151381E-16
6.407186E+03	1.783421E-15	1.148637E-16
6.417166E+03	1.776865E-15	1.146134E-16
6.427146E+03	1.770622E-15	1.143870E-16
6.437126E+03	1.764718E-15	1.141863E-16
6.447106E+03	1.759196E-15	1.140139E-16
6.457086E+03	1.754058E-15	1.138700E-16
6.467066E+03	1.749323E-15	1.137560E-16
6.477046E+03	1.745034E-15	1.136744E-16
6.487026E+03	1.741203E-15	1.136263E-16
6.497006E+03	1.737839E-15	1.136123E-16
6.506986E+03	1.734951E-15	1.136329E-16
6.516966E+03	1.732534E-15	1.136880E-16
6.526946E+03	1.730578E-15	1.137770E-16
6.536926E+03	1.729085E-15	1.139000E-16
6.546906E+03	1.728005E-15	1.140540E-16
6.556886E+03	1.727306E-15	1.142369E-16
6.566866E+03	1.726973E-15	1.144477E-16
6.576846E+03	1.726966E-15	1.146838E-16
6.586826E+03	1.727243E-15	1.149425E-16
6.596806E+03	1.727738E-15	1.152196E-16
6.606786E+03	1.728449E-15	1.155148E-16
6.616766E+03	1.729313E-15	1.158240E-16
6.626747E+03	1.730285E-15	1.161441E-16
6.636727E+03	1.731322E-15	1.164723E-16
6.646707E+03	1.732406E-15	1.168072E-16
6.656687E+03	1.733473E-15	1.171446E-16
6.666667E+03	1.734510E-15	1.174834E-16
6.676647E+03	1.735456E-15	1.178195E-16
6.686627E+03	1.736323E-15	1.181536E-16
6.696607E+03	1.737032E-15	1.184802E-16
6.706587E+03	1.737577E-15	1.187986E-16
6.716567E+03	1.737930E-15	1.191069E-16
6.726547E+03	1.738063E-15	1.194030E-16
6.736527E+03	1.737975E-15	1.196866E-16
6.746507E+03	1.737599E-15	1.199530E-16
6.756487E+03	1.736959E-15	1.202035E-16
6.766467E+03	1.736014E-15	1.204352E-16
6.776447E+03	1.734772E-15	1.206483E-16
6.786427E+03	1.733193E-15	1.208398E-16
6.796407E+03	1.731285E-15	1.210102E-16
6.806387E+03	1.729018E-15	1.211569E-16
6.816367E+03	1.726401E-15	1.212805E-16
6.826347E+03	1.723403E-15	1.213784E-16
6.836327E+03	1.720063E-15	1.214532E-16
6.846307E+03	1.716329E-15	1.215009E-16
6.856287E+03	1.712221E-15	1.215225E-16
6.866267E+03	1.707733E-15	1.215175E-16
6.876248E+03	1.702863E-15	1.214855E-16
6.886228E+03	1.697611E-15	1.214260E-16
6.896208E+03	1.691953E-15	1.213372E-16
6.906188E+03	1.685936E-15	1.212220E-16
6.916168E+03	1.679538E-15	1.210787E-16
6.926148E+03	1.672763E-15	1.209073E-16
6.936128E+03	1.665614E-15	1.207077E-16
6.946108E+03	1.658096E-15	1.204799E-16
6.956088E+03	1.650236E-15	1.202257E-16
6.966068E+03	1.641995E-15	1.199419E-16
6.976048E+03	1.633425E-15	1.196321E-16
6.986028E+03	1.624511E-15	1.192949E-16
6.996008E+03	1.615284E-15	1.189323E-16
7.005988E+03	1.605707E-15	1.185413E-16
7.015968E+03	1.595835E-15	1.181259E-16
7.025948E+03	1.585657E-15	1.176847E-16
7.035928E+03	1.575181E-15	1.172184E-16
7.045908E+03	1.564442E-15	1.167292E-16
7.055888E+03	1.553431E-15	1.162162E-16
7.065868E+03	1.542157E-15	1.156800E-16
7.075848E+03	1.530657E-15	1.151230E-16
7.085828E+03	1.518922E-15	1.145444E-16
7.095808E+03	1.506966E-15	1.139451E-16
7.105788E+03	1.494825E-15	1.133276E-16
7.115768E+03	1.482492E-15	1.126912E-16
7.125749E+03	1.469981E-15	1.120368E-16
7.135729E+03	1.457330E-15	1.113672E-16
7.145709E+03	1.444532E-15	1.106818E-16
7.155689E+03	1.431605E-15	1.099817E-16
7.165669E+03	1.418564E-15	1.092679E-16
7.175649E+03	1.405446E-15	1.085434E-16
7.185629E+03	1.392249E-15	1.078077E-16
7.195609E+03	1.379008E-15	1.070636E-16
7.205589E+03	1.365721E-15	1.063108E-16
7.215569E+03	1.352407E-15	1.055506E-16
7.225549E+03	1.339081E-15	1.047844E-16
7.235529E+03	1.325782E-15	1.040151E-16
7.245509E+03	1.312509E-15	1.032425E-16
7.255489E+03	1.299277E-15	1.024680E-16
7.265469E+03	1.286127E-15	1.016946E-16
7.275449E+03	1.273056E-15	1.009222E-16
7.285429E+03	1.260083E-15	1.001523E-16
7.295409E+03	1.247224E-15	9.938639E-17
7.305389E+03	1.234518E-15	9.862738E-17
7.315369E+03	1.221946E-15	9.787389E-17
7.325349E+03	1.209561E-15	9.713028E-17
7.335329E+03	1.197381E-15	9.639812E-17
7.345309E+03	1.185387E-15	9.567592E-17
7.355289E+03	1.173632E-15	9.496817E-17
7.365269E+03	1.162115E-15	9.427481E-17
7.375250E+03	1.150853E-15	9.359737E-17
7.385230E+03	1.139861E-15	9.293724E-17
7.395210E+03	1.129172E-15	9.229736E-17
7.405190E+03	1.118765E-15	9.167607E-17
7.415170E+03	1.108692E-15	9.107778E-17
7.425150E+03	1.098945E-15	9.050210E-17
7.435130E+03	1.089539E-15	8.995045E-17
7.445110E+03	1.080500E-15	8.942523E-17
7.455090E+03	1.071807E-15	8.892478E-17
7.465070E+03	1.063499E-15	8.845272E-17
7.475050E+03	1.055569E-15	8.800853E-17
7.485030E+03	1.048020E-15	8.759274E-17
7.495010E+03	1.040856E-15	8.720588E-17
7.504990E+03	1.034072E-15	8.684788E-17
7.514970E+03	1.027675E-15	8.651951E-17
7.524950E+03	1.021622E-15	8.621726E-17
7.534930E+03	1.015930E-15	8.594286E-17
7.544910E+03	1.010568E-15	8.569394E-17
7.554890E+03	1.005522E-15	8.546939E-17
7.564870E+03	1.000776E-15	8.526812E-17
7.574850E+03	9.963134E-16	8.508884E-17
7.584830E+03	9.921342E-16	8.493176E-17
7.594810E+03	9.882065E-16	8.479428E-17
7.604790E+03	9.844990E-16	8.467387E-17
7.614770E+03	9.810284E-16	8.457209E-17
7.624750E+03	9.777626E-16	8.448631E-17
7.634731E+03	9.747049E-16	8.441693E-17
7.644711E+03	9.718082E-16	8.435997E-17
7.654691E+03	9.690908E-16	8.431714E-17
7.664671E+03	9.665087E-16	8.428468E-17
7.674651E+03	9.640819E-16	8.426444E-17
7.684631E+03	9.617818E-16	8.425399E-17
7.694611E+03	9.595989E-16	8.425257E-17
7.704591E+03	9.575386E-16	8.426071E-17
7.714571E+03	9.555594E-16	8.427485E-17
7.724551E+03	9.536845E-16	8.429705E-17
7.734531E+03	9.518745E-16	8.432389E-17
7.744511E+03	9.501550E-16	8.435769E-17
