#wls	flux	fluxerr
1.596806E+03	2.298611E-17	3.587411E-18
1.636727E+03	2.315643E-17	3.591017E-18
1.676647E+03	2.330704E-17	3.590860E-18
1.716567E+03	2.343529E-17	3.586583E-18
1.756487E+03	2.353151E-17	3.576782E-18
1.796407E+03	2.359773E-17	3.561860E-18
1.836327E+03	2.362841E-17	3.541077E-18
1.876248E+03	2.361734E-17	3.513631E-18
1.916168E+03	2.355203E-17	3.477812E-18
1.956088E+03	2.343960E-17	3.434855E-18
1.996008E+03	2.326631E-17	3.382929E-18
2.035928E+03	2.305029E-17	3.324873E-18
2.075848E+03	2.279797E-17	3.261770E-18
2.115768E+03	2.254867E-17	3.199346E-18
2.155689E+03	2.232300E-17	3.140510E-18
2.195609E+03	2.212932E-17	3.086361E-18
2.235529E+03	2.195762E-17	3.035417E-18
2.275449E+03	2.177474E-17	2.983074E-18
2.315369E+03	2.155898E-17	2.926449E-18
2.355289E+03	2.128806E-17	2.862688E-18
2.395210E+03	2.096259E-17	2.792111E-18
2.435130E+03	2.057567E-17	2.714042E-18
2.475050E+03	2.012876E-17	2.628941E-18
2.514970E+03	1.962528E-17	2.537516E-18
2.554890E+03	1.907338E-17	2.441063E-18
2.594810E+03	1.847410E-17	2.339941E-18
2.634731E+03	1.783961E-17	2.235898E-18
2.674651E+03	1.717166E-17	2.129323E-18
2.714571E+03	1.647900E-17	2.021455E-18
2.754491E+03	1.576728E-17	1.913109E-18
2.794411E+03	1.504249E-17	1.805108E-18
2.834331E+03	1.431329E-17	1.698558E-18
2.874251E+03	1.358350E-17	1.593944E-18
2.914172E+03	1.286583E-17	1.492763E-18
2.954092E+03	1.216182E-17	1.395153E-18
2.994012E+03	1.148111E-17	1.302166E-18
3.003992E+03	1.131518E-17	1.279701E-18
3.013972E+03	1.115031E-17	1.257471E-18
3.023952E+03	1.098823E-17	1.235672E-18
3.033932E+03	1.082900E-17	1.214309E-18
3.043912E+03	1.067104E-17	1.193201E-18
3.053892E+03	1.051469E-17	1.172384E-18
3.063872E+03	1.036153E-17	1.152033E-18
3.073852E+03	1.021155E-17	1.132145E-18
3.083832E+03	1.006478E-17	1.112718E-18
3.093812E+03	9.918430E-18	1.093443E-18
3.103792E+03	9.776796E-18	1.074790E-18
3.113772E+03	9.637133E-18	1.056456E-18
3.123752E+03	9.500864E-18	1.038593E-18
3.133733E+03	9.366738E-18	1.021062E-18
3.143713E+03	9.236111E-18	1.004007E-18
3.153693E+03	9.109029E-18	9.874319E-19
3.163673E+03	8.984319E-18	9.712050E-19
3.173653E+03	8.863280E-18	9.554644E-19
3.183633E+03	8.745953E-18	9.402109E-19
3.193613E+03	8.631265E-18	9.253263E-19
3.203593E+03	8.520439E-18	9.109388E-19
3.213573E+03	8.413531E-18	8.970506E-19
3.223553E+03	8.310604E-18	8.836650E-19
3.233533E+03	8.210687E-18	8.706753E-19
3.243513E+03	8.114927E-18	8.582003E-19
3.253493E+03	8.023410E-18	8.462451E-19
3.263473E+03	7.936218E-18	8.348147E-19
3.273453E+03	7.852470E-18	8.238129E-19
3.283433E+03	7.774222E-18	8.134519E-19
3.293413E+03	7.699653E-18	8.035371E-19
3.303393E+03	7.629863E-18	7.941796E-19
3.313373E+03	7.564052E-18	7.852927E-19
3.323353E+03	7.504196E-18	7.770777E-19
3.333333E+03	7.449512E-18	7.694488E-19
3.343313E+03	7.399307E-18	7.623308E-19
3.353293E+03	7.354636E-18	7.558285E-19
3.363273E+03	7.316533E-18	7.500439E-19
3.373253E+03	7.283515E-18	7.448203E-19
3.383234E+03	7.256654E-18	7.402635E-19
3.393214E+03	7.236204E-18	7.363949E-19
3.403194E+03	7.222420E-18	7.332362E-19
3.413174E+03	7.215604E-18	7.308131E-19
3.423154E+03	7.216864E-18	7.292333E-19
3.433134E+03	7.224956E-18	7.283661E-19
3.443114E+03	7.241052E-18	7.283251E-19
3.453094E+03	7.265566E-18	7.291471E-19
3.463074E+03	7.298936E-18	7.308710E-19
3.473054E+03	7.342419E-18	7.336173E-19
3.483034E+03	7.394988E-18	7.372780E-19
3.493014E+03	7.458746E-18	7.420576E-19
3.502994E+03	7.532764E-18	7.478581E-19
3.512974E+03	7.619227E-18	7.548909E-19
3.522954E+03	7.718072E-18	7.631438E-19
3.532934E+03	7.830813E-18	7.727606E-19
3.542914E+03	7.956681E-18	7.836592E-19
3.552894E+03	8.097297E-18	7.959938E-19
3.562874E+03	8.254338E-18	8.099228E-19
3.572854E+03	8.427936E-18	8.254529E-19
3.582834E+03	8.619891E-18	8.427542E-19
3.592814E+03	8.829560E-18	8.617574E-19
3.602794E+03	9.059653E-18	8.827210E-19
3.612774E+03	9.310420E-18	9.056632E-19
3.622754E+03	9.583860E-18	9.307724E-19
3.632735E+03	9.879393E-18	9.579862E-19
3.642715E+03	1.020001E-17	9.875895E-19
3.652695E+03	1.054703E-17	1.019704E-18
3.662675E+03	1.092089E-17	1.054366E-18
3.672655E+03	1.132296E-17	1.091705E-18
3.682635E+03	1.175469E-17	1.131853E-18
3.692615E+03	1.221863E-17	1.175056E-18
3.702595E+03	1.271647E-17	1.221469E-18
3.712575E+03	1.324885E-17	1.271152E-18
3.722555E+03	1.381751E-17	1.324271E-18
3.732535E+03	1.442545E-17	1.381109E-18
3.742515E+03	1.507346E-17	1.441740E-18
3.752495E+03	1.576480E-17	1.506472E-18
3.762475E+03	1.650032E-17	1.575387E-18
3.772455E+03	1.728356E-17	1.648820E-18
3.782435E+03	1.811546E-17	1.726860E-18
3.792415E+03	1.899983E-17	1.809871E-18
3.802395E+03	1.993765E-17	1.897947E-18
3.812375E+03	2.093303E-17	1.991481E-18
3.822355E+03	2.198868E-17	2.090732E-18
3.832335E+03	2.310568E-17	2.195809E-18
3.842315E+03	2.428855E-17	2.307142E-18
3.852295E+03	2.553834E-17	2.424840E-18
3.862275E+03	2.685986E-17	2.549363E-18
3.872255E+03	2.825620E-17	2.681013E-18
3.882236E+03	2.972840E-17	2.819897E-18
3.892216E+03	3.128164E-17	2.966517E-18
3.902196E+03	3.291685E-17	3.120971E-18
3.912176E+03	3.464188E-17	3.284016E-18
3.922156E+03	3.645532E-17	3.455533E-18
3.932136E+03	3.836019E-17	3.635822E-18
3.942116E+03	4.036224E-17	3.825446E-18
3.952096E+03	4.246482E-17	4.024740E-18
3.962076E+03	4.467123E-17	4.234035E-18
3.972056E+03	4.698166E-17	4.453372E-18
3.982036E+03	4.940219E-17	4.683349E-18
3.992016E+03	5.193598E-17	4.924290E-18
4.001996E+03	5.458614E-17	5.176515E-18
4.011976E+03	5.735203E-17	5.439992E-18
4.021956E+03	6.023987E-17	5.715339E-18
4.031936E+03	6.324853E-17	6.002479E-18
4.041916E+03	6.638828E-17	6.302418E-18
4.051896E+03	6.965352E-17	6.614660E-18
4.061876E+03	7.305050E-17	6.939831E-18
4.071856E+03	7.657670E-17	7.277729E-18
4.081836E+03	8.023812E-17	7.628962E-18
4.091816E+03	8.403638E-17	7.993722E-18
4.101796E+03	8.797283E-17	8.372178E-18
4.111776E+03	9.204321E-17	8.763966E-18
4.121756E+03	9.625326E-17	9.169673E-18
4.131737E+03	1.006034E-16	9.589381E-18
4.141717E+03	1.050938E-16	1.002316E-17
4.151697E+03	1.097182E-16	1.047044E-17
4.161677E+03	1.144819E-16	1.093179E-17
4.171657E+03	1.193776E-16	1.140653E-17
4.181637E+03	1.244167E-16	1.189582E-17
4.191617E+03	1.295778E-16	1.239766E-17
4.201597E+03	1.348790E-16	1.291381E-17
4.211577E+03	1.403044E-16	1.344280E-17
4.221557E+03	1.458582E-16	1.398509E-17
4.231537E+03	1.515302E-16	1.453971E-17
4.241517E+03	1.573247E-16	1.510715E-17
4.251497E+03	1.632385E-16	1.568712E-17
4.261477E+03	1.692599E-16	1.627855E-17
4.271457E+03	1.753848E-16	1.688108E-17
4.281437E+03	1.816265E-16	1.749603E-17
4.291417E+03	1.879550E-16	1.812055E-17
4.301397E+03	1.943931E-16	1.875686E-17
4.311377E+03	2.009095E-16	1.940198E-17
4.321357E+03	2.075185E-16	2.005733E-17
4.331337E+03	2.142168E-16	2.072261E-17
4.341317E+03	2.209910E-16	2.139656E-17
4.351297E+03	2.278371E-16	2.207880E-17
4.361277E+03	2.347618E-16	2.277004E-17
4.371257E+03	2.417513E-16	2.346893E-17
4.381238E+03	2.488124E-16	2.417615E-17
4.391218E+03	2.559188E-16	2.488918E-17
4.401198E+03	2.630873E-16	2.560966E-17
4.411178E+03	2.703129E-16	2.633713E-17
4.421158E+03	2.775670E-16	2.706880E-17
4.431138E+03	2.848671E-16	2.780640E-17
4.441118E+03	2.921961E-16	2.854824E-17
4.451098E+03	2.995485E-16	2.929382E-17
4.461078E+03	3.069193E-16	3.004263E-17
4.471058E+03	3.143039E-16	3.079422E-17
4.481038E+03	3.216979E-16	3.154817E-17
4.491018E+03	3.290979E-16	3.230411E-17
4.500998E+03	3.365006E-16	3.306174E-17
4.510978E+03	3.439034E-16	3.382079E-17
4.520958E+03	3.513048E-16	3.458108E-17
4.530938E+03	3.587033E-16	3.534247E-17
4.540918E+03	3.660986E-16	3.610492E-17
4.550898E+03	3.734910E-16	3.686843E-17
4.560878E+03	3.808672E-16	3.763169E-17
4.570858E+03	3.882430E-16	3.839622E-17
4.580838E+03	3.956205E-16	3.916223E-17
4.590818E+03	4.029884E-16	3.992859E-17
4.600798E+03	4.103648E-16	4.069706E-17
4.610778E+03	4.177542E-16	4.146809E-17
4.620758E+03	4.251467E-16	4.224067E-17
4.630739E+03	4.325627E-16	4.301681E-17
4.640719E+03	4.399933E-16	4.379563E-17
4.650699E+03	4.474600E-16	4.457924E-17
4.660679E+03	4.549547E-16	4.536683E-17
4.670659E+03	4.624843E-16	4.615907E-17
4.680639E+03	4.700719E-16	4.695827E-17
4.690619E+03	4.777095E-16	4.776362E-17
4.700599E+03	4.854040E-16	4.857579E-17
4.710579E+03	4.931781E-16	4.939708E-17
4.720559E+03	5.010216E-16	5.022643E-17
4.730539E+03	5.089385E-16	5.106426E-17
4.740519E+03	5.169320E-16	5.191088E-17
4.750499E+03	5.250043E-16	5.276651E-17
4.760479E+03	5.331573E-16	5.363133E-17
4.770459E+03	5.413922E-16	5.450547E-17
4.780439E+03	5.497099E-16	5.538902E-17
4.790419E+03	5.581112E-16	5.628205E-17
4.800399E+03	5.665967E-16	5.718461E-17
4.810379E+03	5.751495E-16	5.809500E-17
4.820359E+03	5.838043E-16	5.901673E-17
4.830339E+03	5.925268E-16	5.994630E-17
4.840319E+03	6.013346E-16	6.088551E-17
4.850299E+03	6.102281E-16	6.183438E-17
4.860279E+03	6.192078E-16	6.279297E-17
4.870259E+03	6.282561E-16	6.375947E-17
4.880240E+03	6.373731E-16	6.473391E-17
4.890220E+03	6.465969E-16	6.572012E-17
4.900200E+03	6.558728E-16	6.671255E-17
4.910180E+03	6.652582E-16	6.771703E-17
4.920160E+03	6.747172E-16	6.872991E-17
4.930140E+03	6.842517E-16	6.975136E-17
4.940120E+03	6.938830E-16	7.078355E-17
4.950100E+03	7.035946E-16	7.182480E-17
4.960080E+03	7.133894E-16	7.287538E-17
4.970060E+03	7.232904E-16	7.393765E-17
4.980040E+03	7.332819E-16	7.500998E-17
4.990020E+03	7.433679E-16	7.609281E-17
5.000000E+03	7.535733E-16	7.718864E-17
5.009980E+03	7.638833E-16	7.829599E-17
5.019960E+03	7.743027E-16	7.941531E-17
5.029940E+03	7.848386E-16	8.054737E-17
5.039920E+03	7.954961E-16	8.169265E-17
5.049900E+03	8.063039E-16	8.285413E-17
5.059880E+03	8.172262E-16	8.402812E-17
5.069860E+03	8.283121E-16	8.521967E-17
5.079840E+03	8.395489E-16	8.642748E-17
5.089820E+03	8.509230E-16	8.765017E-17
5.099800E+03	8.624857E-16	8.889300E-17
5.109780E+03	8.742219E-16	9.015444E-17
5.119760E+03	8.861195E-16	9.143327E-17
5.129741E+03	8.982295E-16	9.273473E-17
5.139721E+03	9.105384E-16	9.405746E-17
5.149701E+03	9.230320E-16	9.539999E-17
5.159681E+03	9.357391E-16	9.676533E-17
5.169661E+03	9.486686E-16	9.815441E-17
5.179641E+03	9.618499E-16	9.957028E-17
5.189621E+03	9.752209E-16	1.010065E-16
5.199601E+03	9.888564E-16	1.024710E-16
5.209581E+03	1.002716E-15	1.039594E-16
5.219561E+03	1.016851E-15	1.054771E-16
5.229541E+03	1.031219E-15	1.070198E-16
5.239521E+03	1.045823E-15	1.085879E-16
5.249501E+03	1.060714E-15	1.101865E-16
5.259481E+03	1.075846E-15	1.118109E-16
5.269461E+03	1.091243E-15	1.134638E-16
5.279441E+03	1.106906E-15	1.151451E-16
5.289421E+03	1.122807E-15	1.168521E-16
5.299401E+03	1.138972E-15	1.185874E-16
5.309381E+03	1.155369E-15	1.203479E-16
5.319361E+03	1.172049E-15	1.221387E-16
5.329341E+03	1.188924E-15	1.239508E-16
5.339321E+03	1.206070E-15	1.257921E-16
5.349301E+03	1.223424E-15	1.276560E-16
5.359281E+03	1.240976E-15	1.295417E-16
5.369261E+03	1.258744E-15	1.314509E-16
5.379242E+03	1.276715E-15	1.333824E-16
5.389222E+03	1.294849E-15	1.353320E-16
5.399202E+03	1.313159E-15	1.373010E-16
5.409182E+03	1.331601E-15	1.392850E-16
5.419162E+03	1.350186E-15	1.412851E-16
5.429142E+03	1.368865E-15	1.432961E-16
5.439122E+03	1.387647E-15	1.453192E-16
5.449102E+03	1.406481E-15	1.473489E-16
5.459082E+03	1.425342E-15	1.493828E-16
5.469062E+03	1.444237E-15	1.514214E-16
5.479042E+03	1.463139E-15	1.534622E-16
5.489022E+03	1.481965E-15	1.554964E-16
5.499002E+03	1.500782E-15	1.575309E-16
5.508982E+03	1.519474E-15	1.595537E-16
5.518962E+03	1.538079E-15	1.615689E-16
5.528942E+03	1.556543E-15	1.635707E-16
5.538922E+03	1.574874E-15	1.655601E-16
5.548902E+03	1.593014E-15	1.675310E-16
5.558882E+03	1.610938E-15	1.694807E-16
5.568862E+03	1.628621E-15	1.714067E-16
5.578842E+03	1.646071E-15	1.733099E-16
5.588822E+03	1.663229E-15	1.751840E-16
5.598802E+03	1.680069E-15	1.770264E-16
5.608782E+03	1.696570E-15	1.788346E-16
5.618762E+03	1.712738E-15	1.806096E-16
5.628743E+03	1.728483E-15	1.823418E-16
5.638723E+03	1.743851E-15	1.840359E-16
5.648703E+03	1.758786E-15	1.856860E-16
5.658683E+03	1.773303E-15	1.872937E-16
5.668663E+03	1.787310E-15	1.888495E-16
5.678643E+03	1.800827E-15	1.903551E-16
5.688623E+03	1.813869E-15	1.918125E-16
5.698603E+03	1.826351E-15	1.932123E-16
5.708583E+03	1.838331E-15	1.945608E-16
5.718563E+03	1.849757E-15	1.958526E-16
5.728543E+03	1.860586E-15	1.970829E-16
5.738523E+03	1.870875E-15	1.982580E-16
5.748503E+03	1.880583E-15	1.993732E-16
5.758483E+03	1.889667E-15	2.004241E-16
5.768463E+03	1.898191E-15	2.014174E-16
5.778443E+03	1.906080E-15	2.023453E-16
5.788423E+03	1.913404E-15	2.032149E-16
5.798403E+03	1.920088E-15	2.040185E-16
5.808383E+03	1.926170E-15	2.047599E-16
5.818363E+03	1.931650E-15	2.054392E-16
5.828343E+03	1.936532E-15	2.060567E-16
5.838323E+03	1.940820E-15	2.066129E-16
5.848303E+03	1.944517E-15	2.071081E-16
5.858283E+03	1.947596E-15	2.075393E-16
5.868263E+03	1.950100E-15	2.079111E-16
5.878244E+03	1.952038E-15	2.082243E-16
5.888224E+03	1.953419E-15	2.084800E-16
5.898204E+03	1.954254E-15	2.086794E-16
5.908184E+03	1.954520E-15	2.088198E-16
5.918164E+03	1.954264E-15	2.089064E-16
5.928144E+03	1.953464E-15	2.089366E-16
5.938124E+03	1.952208E-15	2.089198E-16
5.948104E+03	1.950437E-15	2.088499E-16
5.958084E+03	1.948205E-15	2.087324E-16
5.968064E+03	1.945490E-15	2.085651E-16
5.978044E+03	1.942347E-15	2.083538E-16
5.988024E+03	1.938793E-15	2.081002E-16
5.998004E+03	1.934810E-15	2.078025E-16
6.007984E+03	1.930453E-15	2.074664E-16
6.017964E+03	1.925740E-15	2.070939E-16
6.027944E+03	1.920655E-15	2.066833E-16
6.037924E+03	1.915253E-15	2.062403E-16
6.047904E+03	1.909553E-15	2.057673E-16
6.057884E+03	1.903541E-15	2.052623E-16
6.067864E+03	1.897270E-15	2.047314E-16
6.077844E+03	1.890726E-15	2.041729E-16
6.087824E+03	1.883962E-15	2.035924E-16
6.097804E+03	1.876964E-15	2.029886E-16
6.107784E+03	1.869786E-15	2.023671E-16
6.117764E+03	1.862444E-15	2.017299E-16
6.127745E+03	1.854925E-15	2.010753E-16
6.137725E+03	1.847279E-15	2.004089E-16
6.147705E+03	1.839522E-15	1.997323E-16
6.157685E+03	1.831638E-15	1.990439E-16
6.167665E+03	1.823674E-15	1.983487E-16
6.177645E+03	1.815609E-15	1.976444E-16
6.187625E+03	1.807489E-15	1.969361E-16
6.197605E+03	1.799319E-15	1.962244E-16
6.207585E+03	1.791077E-15	1.955067E-16
6.217565E+03	1.782800E-15	1.947873E-16
6.227545E+03	1.774461E-15	1.940629E-16
6.237525E+03	1.766129E-15	1.933414E-16
6.247505E+03	1.757713E-15	1.926127E-16
6.257485E+03	1.749315E-15	1.918879E-16
6.267465E+03	1.740876E-15	1.911607E-16
6.277445E+03	1.732435E-15	1.904353E-16
6.287425E+03	1.723996E-15	1.897121E-16
6.297405E+03	1.715570E-15	1.889924E-16
6.307385E+03	1.707131E-15	1.882733E-16
6.317365E+03	1.698722E-15	1.875597E-16
6.327345E+03	1.690353E-15	1.868524E-16
6.337325E+03	1.682004E-15	1.861495E-16
6.347305E+03	1.673750E-15	1.854592E-16
6.357285E+03	1.665544E-15	1.847764E-16
6.367265E+03	1.657434E-15	1.841064E-16
6.377246E+03	1.649436E-15	1.834509E-16
6.387226E+03	1.641569E-15	1.828122E-16
6.397206E+03	1.633854E-15	1.821925E-16
6.407186E+03	1.626313E-15	1.815944E-16
6.417166E+03	1.618971E-15	1.810203E-16
6.427146E+03	1.611856E-15	1.804735E-16
6.437126E+03	1.604992E-15	1.799567E-16
6.447106E+03	1.598408E-15	1.794733E-16
6.457086E+03	1.592135E-15	1.790265E-16
6.467066E+03	1.586203E-15	1.786199E-16
6.477046E+03	1.580668E-15	1.782600E-16
6.487026E+03	1.575502E-15	1.779435E-16
6.497006E+03	1.570790E-15	1.776802E-16
6.506986E+03	1.566522E-15	1.774691E-16
6.516966E+03	1.562709E-15	1.773117E-16
6.526946E+03	1.559345E-15	1.772074E-16
6.536926E+03	1.556432E-15	1.771566E-16
6.546906E+03	1.553906E-15	1.771521E-16
6.556886E+03	1.551724E-15	1.771891E-16
6.566866E+03	1.549870E-15	1.772661E-16
6.576846E+03	1.548270E-15	1.773746E-16
6.586826E+03	1.546878E-15	1.775094E-16
6.596806E+03	1.545679E-15	1.776689E-16
6.606786E+03	1.544630E-15	1.778480E-16
6.616766E+03	1.543660E-15	1.780388E-16
6.626747E+03	1.542729E-15	1.782366E-16
6.636727E+03	1.541860E-15	1.784439E-16
6.646707E+03	1.540930E-15	1.786465E-16
6.656687E+03	1.539992E-15	1.788504E-16
6.666667E+03	1.538957E-15	1.790453E-16
6.676647E+03	1.537797E-15	1.792279E-16
6.686627E+03	1.536543E-15	1.794014E-16
6.696607E+03	1.535111E-15	1.795560E-16
6.706587E+03	1.533507E-15	1.796923E-16
6.716567E+03	1.531683E-15	1.798043E-16
6.726547E+03	1.529674E-15	1.798962E-16
6.736527E+03	1.527408E-15	1.799591E-16
6.746507E+03	1.524895E-15	1.799942E-16
6.756487E+03	1.522122E-15	1.799993E-16
6.766467E+03	1.519075E-15	1.799730E-16
6.776447E+03	1.515743E-15	1.799136E-16
6.786427E+03	1.512115E-15	1.798195E-16
6.796407E+03	1.508184E-15	1.796895E-16
6.806387E+03	1.503941E-15	1.795224E-16
6.816367E+03	1.499380E-15	1.793172E-16
6.826347E+03	1.494496E-15	1.790730E-16
6.836327E+03	1.489287E-15	1.787892E-16
6.846307E+03	1.483774E-15	1.784683E-16
6.856287E+03	1.477904E-15	1.781033E-16
6.866267E+03	1.471729E-15	1.777004E-16
6.876248E+03	1.465194E-15	1.772526E-16
6.886228E+03	1.458356E-15	1.767666E-16
6.896208E+03	1.451190E-15	1.762388E-16
6.906188E+03	1.443726E-15	1.756729E-16
6.916168E+03	1.435912E-15	1.750621E-16
6.926148E+03	1.427807E-15	1.744134E-16
6.936128E+03	1.419390E-15	1.737238E-16
6.946108E+03	1.410695E-15	1.729973E-16
6.956088E+03	1.401698E-15	1.722308E-16
6.966068E+03	1.392409E-15	1.714251E-16
6.976048E+03	1.382861E-15	1.705839E-16
6.986028E+03	1.373036E-15	1.697050E-16
6.996008E+03	1.362943E-15	1.687892E-16
7.005988E+03	1.352618E-15	1.678406E-16
7.015968E+03	1.342043E-15	1.668568E-16
7.025948E+03	1.331256E-15	1.658423E-16
7.035928E+03	1.320241E-15	1.647948E-16
7.045908E+03	1.309008E-15	1.637155E-16
7.055888E+03	1.297597E-15	1.626090E-16
7.065868E+03	1.286017E-15	1.614765E-16
7.075848E+03	1.274256E-15	1.603161E-16
7.085828E+03	1.262350E-15	1.591324E-16
7.095808E+03	1.250288E-15	1.579235E-16
7.105788E+03	1.238107E-15	1.566943E-16
7.115768E+03	1.225797E-15	1.554430E-16
7.125749E+03	1.213394E-15	1.541744E-16
7.135729E+03	1.200911E-15	1.528900E-16
7.145709E+03	1.188339E-15	1.515884E-16
7.155689E+03	1.175691E-15	1.502712E-16
7.165669E+03	1.163029E-15	1.489462E-16
7.175649E+03	1.150319E-15	1.476091E-16
7.185629E+03	1.137576E-15	1.462617E-16
7.195609E+03	1.124859E-15	1.449116E-16
7.205589E+03	1.112138E-15	1.435547E-16
7.215569E+03	1.099424E-15	1.421928E-16
7.225549E+03	1.086758E-15	1.408307E-16
7.235529E+03	1.074150E-15	1.394701E-16
7.245509E+03	1.061615E-15	1.381129E-16
7.255489E+03	1.049146E-15	1.367580E-16
7.265469E+03	1.036777E-15	1.354101E-16
7.275449E+03	1.024521E-15	1.340709E-16
7.285429E+03	1.012394E-15	1.327423E-16
7.295409E+03	1.000386E-15	1.314235E-16
7.305389E+03	9.885300E-16	1.301187E-16
7.315369E+03	9.768408E-16	1.288299E-16
7.325349E+03	9.653085E-16	1.275560E-16
7.335329E+03	9.539674E-16	1.263016E-16
7.345309E+03	9.428281E-16	1.250682E-16
7.355289E+03	9.319025E-16	1.238576E-16
7.365269E+03	9.211818E-16	1.226687E-16
7.375250E+03	9.106956E-16	1.215056E-16
7.385230E+03	9.004549E-16	1.203701E-16
7.395210E+03	8.904691E-16	1.192634E-16
7.405190E+03	8.807474E-16	1.181871E-16
7.415170E+03	8.712790E-16	1.171398E-16
7.425150E+03	8.620912E-16	1.161254E-16
7.435130E+03	8.531898E-16	1.151450E-16
7.445110E+03	8.445820E-16	1.141997E-16
7.455090E+03	8.362727E-16	1.132903E-16
7.465070E+03	8.282474E-16	1.124152E-16
7.475050E+03	8.205278E-16	1.115774E-16
7.485030E+03	8.131141E-16	1.107773E-16
7.495010E+03	8.060046E-16	1.100148E-16
7.504990E+03	7.991770E-16	1.092872E-16
7.514970E+03	7.926585E-16	1.085983E-16
7.524950E+03	7.864036E-16	1.079421E-16
7.534930E+03	7.804182E-16	1.073197E-16
7.544910E+03	7.746897E-16	1.067295E-16
7.554890E+03	7.692051E-16	1.061698E-16
7.564870E+03	7.639342E-16	1.056368E-16
7.574850E+03	7.588980E-16	1.051335E-16
7.584830E+03	7.540493E-16	1.046535E-16
7.594810E+03	7.493924E-16	1.041975E-16
7.604790E+03	7.449148E-16	1.037640E-16
7.614770E+03	7.406045E-16	1.033513E-16
7.624750E+03	7.364500E-16	1.029581E-16
7.634731E+03	7.324232E-16	1.025804E-16
7.644711E+03	7.285306E-16	1.022194E-16
7.654691E+03	7.247787E-16	1.018759E-16
7.664671E+03	7.211251E-16	1.015442E-16
7.674651E+03	7.175775E-16	1.012255E-16
7.684631E+03	7.141114E-16	1.009162E-16
7.694611E+03	7.107524E-16	1.006201E-16
7.704591E+03	7.074609E-16	1.003317E-16
7.714571E+03	7.042637E-16	1.000548E-16
7.724551E+03	7.011225E-16	9.978403E-17
7.734531E+03	6.980491E-16	9.952112E-17
7.744511E+03	6.950397E-16	9.926558E-17
