#wls	flux	fluxerr
1.596806E+03	8.885523E-18	1.824167E-18
1.636727E+03	8.811630E-18	1.798681E-18
1.676647E+03	8.724783E-18	1.770519E-18
1.716567E+03	8.627814E-18	1.740305E-18
1.756487E+03	8.517173E-18	1.707370E-18
1.796407E+03	8.394987E-18	1.672197E-18
1.836327E+03	8.260028E-18	1.634596E-18
1.876248E+03	8.111017E-18	1.594375E-18
1.916168E+03	7.944049E-18	1.550841E-18
1.956088E+03	7.761274E-18	1.504495E-18
1.996008E+03	7.563315E-18	1.455539E-18
2.035928E+03	7.350904E-18	1.404191E-18
2.075848E+03	7.135586E-18	1.352722E-18
2.115768E+03	6.921933E-18	1.302020E-18
2.155689E+03	6.720414E-18	1.254052E-18
2.195609E+03	6.533194E-18	1.209180E-18
2.235529E+03	6.355484E-18	1.166479E-18
2.275449E+03	6.177298E-18	1.124102E-18
2.315369E+03	5.995431E-18	1.081491E-18
2.355289E+03	5.802200E-18	1.037306E-18
2.395210E+03	5.599921E-18	9.920295E-19
2.435130E+03	5.385825E-18	9.452389E-19
2.475050E+03	5.164645E-18	8.978330E-19
2.514970E+03	4.935263E-18	8.496731E-19
2.554890E+03	4.702580E-18	8.016545E-19
2.594810E+03	4.467143E-18	7.539037E-19
2.634731E+03	4.230909E-18	7.067789E-19
2.674651E+03	3.995757E-18	6.606106E-19
2.714571E+03	3.763473E-18	6.157002E-19
2.754491E+03	3.535740E-18	5.723185E-19
2.794411E+03	3.314988E-18	5.308426E-19
2.834331E+03	3.100903E-18	4.911964E-19
2.874251E+03	2.896459E-18	4.538190E-19
2.914172E+03	2.702667E-18	4.188238E-19
2.954092E+03	2.519201E-18	3.861100E-19
2.994012E+03	2.348259E-18	3.559609E-19
3.003992E+03	2.307936E-18	3.488859E-19
3.013972E+03	2.267823E-18	3.418796E-19
3.023952E+03	2.228495E-18	3.350282E-19
3.033932E+03	2.190489E-18	3.284111E-19
3.043912E+03	2.152754E-18	3.218697E-19
3.053892E+03	2.116369E-18	3.155644E-19
3.063872E+03	2.080822E-18	3.094174E-19
3.073852E+03	2.046117E-18	3.034282E-19
3.083832E+03	2.012260E-18	2.975966E-19
3.093812E+03	1.979255E-18	2.919223E-19
3.103792E+03	1.947108E-18	2.864051E-19
3.113772E+03	1.915826E-18	2.810448E-19
3.123752E+03	1.885415E-18	2.758413E-19
3.133733E+03	1.855881E-18	2.707943E-19
3.143713E+03	1.827645E-18	2.659642E-19
3.153693E+03	1.799879E-18	2.612289E-19
3.163673E+03	1.773409E-18	2.567077E-19
3.173653E+03	1.747831E-18	2.523407E-19
3.183633E+03	1.722768E-18	2.480724E-19
3.193613E+03	1.699005E-18	2.440151E-19
3.203593E+03	1.676160E-18	2.401124E-19
3.213573E+03	1.654243E-18	2.363646E-19
3.223553E+03	1.633624E-18	2.328235E-19
3.233533E+03	1.613587E-18	2.293859E-19
3.243513E+03	1.594511E-18	2.261048E-19
3.253493E+03	1.576751E-18	2.230292E-19
3.263473E+03	1.559628E-18	2.200622E-19
3.273453E+03	1.543838E-18	2.173008E-19
3.283433E+03	1.528725E-18	2.146516E-19
3.293413E+03	1.514967E-18	2.122088E-19
3.303393E+03	1.502249E-18	2.099273E-19
3.313373E+03	1.490592E-18	2.078085E-19
3.323353E+03	1.480015E-18	2.058544E-19
3.333333E+03	1.470543E-18	2.040672E-19
3.343313E+03	1.462506E-18	2.024919E-19
3.353293E+03	1.455316E-18	2.010457E-19
3.363273E+03	1.449613E-18	1.998161E-19
3.373253E+03	1.444823E-18	1.987232E-19
3.383234E+03	1.441584E-18	1.978534E-19
3.393214E+03	1.439632E-18	1.971695E-19
3.403194E+03	1.438713E-18	1.966360E-19
3.413174E+03	1.439466E-18	1.963390E-19
3.423154E+03	1.441643E-18	1.962439E-19
3.433134E+03	1.445592E-18	1.963967E-19
3.443114E+03	1.450785E-18	1.967249E-19
3.453094E+03	1.457581E-18	1.972762E-19
3.463074E+03	1.466049E-18	1.980592E-19
3.473054E+03	1.476560E-18	1.991229E-19
3.483034E+03	1.488905E-18	2.004382E-19
3.493014E+03	1.502878E-18	2.019766E-19
3.502994E+03	1.519174E-18	2.038305E-19
3.512974E+03	1.537604E-18	2.059737E-19
3.522954E+03	1.558288E-18	2.084214E-19
3.532934E+03	1.581356E-18	2.111903E-19
3.542914E+03	1.606948E-18	2.142983E-19
3.552894E+03	1.635220E-18	2.177654E-19
3.562874E+03	1.666660E-18	2.216559E-19
3.572854E+03	1.700810E-18	2.259084E-19
3.582834E+03	1.738511E-18	2.306339E-19
3.592814E+03	1.779294E-18	2.357696E-19
3.602794E+03	1.824017E-18	2.414290E-19
3.612774E+03	1.872529E-18	2.475916E-19
3.622754E+03	1.925020E-18	2.542824E-19
3.632735E+03	1.981688E-18	2.615274E-19
3.642715E+03	2.042745E-18	2.693551E-19
3.652695E+03	2.108420E-18	2.777956E-19
3.662675E+03	2.179362E-18	2.869352E-19
3.672655E+03	2.255039E-18	2.967043E-19
3.682635E+03	2.336553E-18	3.072490E-19
3.692615E+03	2.423360E-18	3.184988E-19
3.702595E+03	2.516654E-18	3.306123E-19
3.712575E+03	2.616347E-18	3.435797E-19
3.722555E+03	2.722314E-18	3.573866E-19
3.732535E+03	2.835906E-18	3.722128E-19
3.742515E+03	2.957057E-18	3.880517E-19
3.752495E+03	3.086200E-18	4.049629E-19
3.762475E+03	3.224365E-18	4.230846E-19
3.772455E+03	3.370911E-18	4.423359E-19
3.782435E+03	3.526900E-18	4.628598E-19
3.792415E+03	3.693515E-18	4.848161E-19
3.802395E+03	3.870049E-18	5.081166E-19
3.812375E+03	4.058428E-18	5.330194E-19
3.822355E+03	4.258626E-18	5.595268E-19
3.832335E+03	4.471301E-18	5.877317E-19
3.842315E+03	4.697138E-18	6.177314E-19
3.852295E+03	4.936856E-18	6.496278E-19
3.862275E+03	5.191201E-18	6.835276E-19
3.872255E+03	5.460953E-18	7.195426E-19
3.882236E+03	5.746921E-18	7.577894E-19
3.892216E+03	6.050966E-18	7.985243E-19
3.902196E+03	6.371962E-18	8.416103E-19
3.912176E+03	6.712916E-18	8.874573E-19
3.922156E+03	7.072548E-18	9.359098E-19
3.932136E+03	7.454137E-18	9.874160E-19
3.942116E+03	7.857536E-18	1.041973E-18
3.952096E+03	8.282396E-18	1.099550E-18
3.962076E+03	8.732418E-18	1.160657E-18
3.972056E+03	9.207349E-18	1.225281E-18
3.982036E+03	9.708272E-18	1.293584E-18
3.992016E+03	1.023793E-17	1.365957E-18
4.001996E+03	1.079418E-17	1.442134E-18
4.011976E+03	1.137970E-17	1.522499E-18
4.021956E+03	1.199753E-17	1.607484E-18
4.031936E+03	1.264501E-17	1.696761E-18
4.041916E+03	1.332719E-17	1.791036E-18
4.051896E+03	1.404101E-17	1.889928E-18
4.061876E+03	1.479191E-17	1.994199E-18
4.071856E+03	1.557880E-17	2.103739E-18
4.081836E+03	1.640013E-17	2.218372E-18
4.091816E+03	1.726192E-17	2.338946E-18
4.101796E+03	1.816264E-17	2.465295E-18
4.111776E+03	1.910317E-17	2.597577E-18
4.121756E+03	2.008436E-17	2.735946E-18
4.131737E+03	2.111020E-17	2.880990E-18
4.141717E+03	2.217503E-17	3.031980E-18
4.151697E+03	2.328257E-17	3.189466E-18
4.161677E+03	2.443706E-17	3.354074E-18
4.171657E+03	2.563163E-17	3.524911E-18
4.181637E+03	2.687018E-17	3.702558E-18
4.191617E+03	2.815715E-17	3.887675E-18
4.201597E+03	2.948878E-17	4.079792E-18
4.211577E+03	3.086047E-17	4.278324E-18
4.221557E+03	3.228113E-17	4.484551E-18
4.231537E+03	3.374609E-17	4.697880E-18
4.241517E+03	3.525500E-17	4.918311E-18
4.251497E+03	3.680197E-17	5.145072E-18
4.261477E+03	3.839700E-17	5.379608E-18
4.271457E+03	4.003417E-17	5.621141E-18
4.281437E+03	4.171265E-17	5.869606E-18
4.291417E+03	4.343148E-17	6.124914E-18
4.301397E+03	4.519612E-17	6.387888E-18
4.311377E+03	4.699263E-17	6.656603E-18
4.321357E+03	4.882606E-17	6.931816E-18
4.331337E+03	5.069508E-17	7.213386E-18
4.341317E+03	5.259830E-17	7.501155E-18
4.351297E+03	5.454198E-17	7.796061E-18
4.361277E+03	5.650941E-17	8.095757E-18
4.371257E+03	5.851469E-17	8.402299E-18
4.381238E+03	6.053993E-17	8.713159E-18
4.391218E+03	6.260012E-17	9.030526E-18
4.401198E+03	6.467609E-17	9.351669E-18
4.411178E+03	6.678370E-17	9.678910E-18
4.421158E+03	6.890265E-17	1.000934E-17
4.431138E+03	7.104966E-17	1.034540E-17
4.441118E+03	7.320359E-17	1.068405E-17
4.451098E+03	7.538220E-17	1.102790E-17
4.461078E+03	7.757382E-17	1.137526E-17
4.471058E+03	7.977662E-17	1.172588E-17
4.481038E+03	8.197777E-17	1.207790E-17
4.491018E+03	8.419751E-17	1.243428E-17
4.500998E+03	8.642346E-17	1.279324E-17
4.510978E+03	8.865425E-17	1.315457E-17
4.520958E+03	9.087653E-17	1.351628E-17
4.530938E+03	9.311306E-17	1.388178E-17
4.540918E+03	9.535110E-17	1.424917E-17
4.550898E+03	9.758986E-17	1.461832E-17
4.560878E+03	9.982870E-17	1.498916E-17
4.570858E+03	1.020671E-16	1.536160E-17
4.580838E+03	1.043051E-16	1.573562E-17
4.590818E+03	1.065284E-16	1.610910E-17
4.600798E+03	1.087648E-16	1.648621E-17
4.610778E+03	1.110009E-16	1.686493E-17
4.620758E+03	1.132373E-16	1.724534E-17
4.630739E+03	1.154745E-16	1.762753E-17
4.640719E+03	1.177135E-16	1.801165E-17
4.650699E+03	1.199552E-16	1.839783E-17
4.660679E+03	1.222009E-16	1.878625E-17
4.670659E+03	1.244360E-16	1.917471E-17
4.680639E+03	1.266934E-16	1.956821E-17
4.690619E+03	1.289589E-16	1.996463E-17
4.700599E+03	1.312343E-16	2.036423E-17
4.710579E+03	1.335211E-16	2.076725E-17
4.720559E+03	1.358210E-16	2.117396E-17
4.730539E+03	1.381184E-16	2.158192E-17
4.740519E+03	1.404486E-16	2.199666E-17
4.750499E+03	1.427960E-16	2.241578E-17
4.760479E+03	1.451621E-16	2.283950E-17
4.770459E+03	1.475303E-16	2.326523E-17
4.780439E+03	1.499376E-16	2.369881E-17
4.790419E+03	1.523679E-16	2.413772E-17
4.800399E+03	1.548038E-16	2.457921E-17
4.810379E+03	1.572840E-16	2.502946E-17
4.820359E+03	1.597724E-16	2.548271E-17
4.830339E+03	1.623084E-16	2.594532E-17
4.840319E+03	1.648554E-16	2.641140E-17
4.850299E+03	1.674536E-16	2.688747E-17
4.860279E+03	1.700654E-16	2.736747E-17
4.870259E+03	1.727119E-16	2.785485E-17
4.880240E+03	1.754155E-16	2.835326E-17
4.890220E+03	1.781367E-16	2.885632E-17
4.900200E+03	1.808977E-16	2.936767E-17
4.910180E+03	1.837002E-16	2.988760E-17
4.920160E+03	1.865458E-16	3.041642E-17
4.930140E+03	1.894362E-16	3.095444E-17
4.940120E+03	1.923733E-16	3.150199E-17
4.950100E+03	1.953585E-16	3.205938E-17
4.960080E+03	1.983937E-16	3.262692E-17
4.970060E+03	2.014805E-16	3.320493E-17
4.980040E+03	2.046205E-16	3.379373E-17
4.990020E+03	2.077917E-16	3.438970E-17
5.000000E+03	2.110428E-16	3.500094E-17
5.009980E+03	2.143276E-16	3.561985E-17
5.019960E+03	2.176958E-16	3.625472E-17
5.029940E+03	2.211000E-16	3.689774E-17
5.039920E+03	2.245659E-16	3.755320E-17
5.049900E+03	2.281203E-16	3.822564E-17
5.059880E+03	2.317135E-16	3.890683E-17
5.069860E+03	2.353721E-16	3.960121E-17
5.079840E+03	2.390968E-16	4.030902E-17
5.089820E+03	2.428888E-16	4.103044E-17
5.099800E+03	2.467486E-16	4.176568E-17
5.109780E+03	2.506494E-16	4.251020E-17
5.119760E+03	2.546466E-16	4.327343E-17
5.129741E+03	2.587130E-16	4.405087E-17
5.139721E+03	2.628203E-16	4.483771E-17
5.149701E+03	2.670254E-16	4.564371E-17
5.159681E+03	2.712704E-16	4.645901E-17
5.169661E+03	2.755833E-16	4.728848E-17
5.179641E+03	2.799636E-16	4.813206E-17
5.189621E+03	2.844103E-16	4.898963E-17
5.199601E+03	2.889223E-16	4.986104E-17
5.209581E+03	2.934983E-16	5.074610E-17
5.219561E+03	2.981364E-16	5.164455E-17
5.229541E+03	3.028022E-16	5.255046E-17
5.239521E+03	3.075579E-16	5.347464E-17
5.249501E+03	3.123357E-16	5.440535E-17
5.259481E+03	3.171650E-16	5.534773E-17
5.269461E+03	3.220427E-16	5.630125E-17
5.279441E+03	3.269651E-16	5.726530E-17
5.289421E+03	3.319285E-16	5.823926E-17
5.299401E+03	3.369286E-16	5.922238E-17
5.309381E+03	3.419609E-16	6.021390E-17
5.319361E+03	3.469845E-16	6.120658E-17
5.329341E+03	3.520662E-16	6.221223E-17
5.339321E+03	3.571277E-16	6.321702E-17
5.349301E+03	3.621997E-16	6.422634E-17
5.359281E+03	3.672762E-16	6.523914E-17
5.369261E+03	3.723514E-16	6.625433E-17
5.379242E+03	3.774188E-16	6.727077E-17
5.389222E+03	3.824721E-16	6.828729E-17
5.399202E+03	3.874653E-16	6.929563E-17
5.409182E+03	3.924707E-16	7.030868E-17
5.419162E+03	3.974022E-16	7.131095E-17
5.429142E+03	4.022930E-16	7.230837E-17
5.439122E+03	4.071370E-16	7.329976E-17
5.449102E+03	4.119281E-16	7.428398E-17
5.459082E+03	4.166609E-16	7.525994E-17
5.469062E+03	4.212872E-16	7.621891E-17
5.479042E+03	4.258872E-16	7.717528E-17
5.489022E+03	4.303711E-16	7.811272E-17
5.499002E+03	4.347780E-16	7.903822E-17
5.508982E+03	4.391049E-16	7.995116E-17
5.518962E+03	4.433498E-16	8.085108E-17
5.528942E+03	4.475109E-16	8.173756E-17
5.538922E+03	4.515421E-16	8.260209E-17
5.548902E+03	4.554873E-16	8.345260E-17
5.558882E+03	4.593920E-16	8.429736E-17
5.568862E+03	4.631660E-16	8.511969E-17
5.578842E+03	4.668552E-16	8.592800E-17
5.588822E+03	4.704148E-16	8.671387E-17
5.598802E+03	4.739388E-16	8.749459E-17
5.608782E+03	4.773364E-16	8.825331E-17
5.618762E+03	4.807036E-16	8.900768E-17
5.628743E+03	4.839488E-16	8.974069E-17
5.638723E+03	4.871218E-16	9.046147E-17
5.648703E+03	4.902257E-16	9.117054E-17
5.658683E+03	4.932157E-16	9.185947E-17
5.668663E+03	4.961912E-16	9.254670E-17
5.678643E+03	4.990592E-16	9.321484E-17
5.688623E+03	5.018713E-16	9.387345E-17
5.698603E+03	5.046313E-16	9.452318E-17
5.708583E+03	5.073426E-16	9.516463E-17
5.718563E+03	5.099596E-16	9.578918E-17
5.728543E+03	5.125842E-16	9.641592E-17
5.738523E+03	5.151214E-16	9.702695E-17
5.748503E+03	5.176237E-16	9.763209E-17
5.758483E+03	5.200946E-16	9.823198E-17
5.768463E+03	5.225374E-16	9.882719E-17
5.778443E+03	5.249049E-16	9.940878E-17
5.788423E+03	5.273005E-16	9.999628E-17
5.798403E+03	5.296265E-16	1.005711E-16
5.808383E+03	5.319357E-16	1.011434E-16
5.818363E+03	5.342309E-16	1.017135E-16
5.828343E+03	5.364631E-16	1.022721E-16
5.838323E+03	5.387367E-16	1.028391E-16
5.848303E+03	5.409513E-16	1.033953E-16
5.858283E+03	5.431598E-16	1.039508E-16
5.868263E+03	5.453639E-16	1.045060E-16
5.878244E+03	5.475647E-16	1.050610E-16
5.888224E+03	5.497118E-16	1.056061E-16
5.898204E+03	5.519097E-16	1.061613E-16
5.908184E+03	5.540550E-16	1.067069E-16
5.918164E+03	5.562004E-16	1.072529E-16
5.928144E+03	5.583461E-16	1.077994E-16
5.938124E+03	5.604397E-16	1.083362E-16
5.948104E+03	5.625858E-16	1.088836E-16
5.958084E+03	5.646791E-16	1.094210E-16
5.968064E+03	5.667713E-16	1.099587E-16
5.978044E+03	5.688618E-16	1.104964E-16
5.988024E+03	5.709494E-16	1.110339E-16
5.998004E+03	5.729798E-16	1.115606E-16
6.007984E+03	5.750043E-16	1.120865E-16
6.017964E+03	5.770216E-16	1.126113E-16
6.027944E+03	5.790296E-16	1.131346E-16
6.037924E+03	5.810265E-16	1.136560E-16
6.047904E+03	5.829561E-16	1.141646E-16
6.057884E+03	5.849237E-16	1.146809E-16
6.067864E+03	5.868188E-16	1.151832E-16
6.077844E+03	5.886926E-16	1.156816E-16
6.087824E+03	5.905423E-16	1.161756E-16
6.097804E+03	5.923104E-16	1.166537E-16
6.107784E+03	5.940481E-16	1.171260E-16
6.117764E+03	5.958070E-16	1.176026E-16
6.127745E+03	5.974744E-16	1.180614E-16
6.137725E+03	5.990465E-16	1.185015E-16
6.147705E+03	6.006299E-16	1.189439E-16
6.157685E+03	6.021110E-16	1.193662E-16
6.167665E+03	6.035415E-16	1.197786E-16
6.177645E+03	6.049181E-16	1.201802E-16
6.187625E+03	6.062374E-16	1.205706E-16
6.197605E+03	6.074964E-16	1.209489E-16
6.207585E+03	6.086363E-16	1.213035E-16
6.217565E+03	6.097096E-16	1.216448E-16
6.227545E+03	6.107134E-16	1.219720E-16
6.237525E+03	6.116444E-16	1.222847E-16
6.247505E+03	6.124997E-16	1.225820E-16
6.257485E+03	6.132200E-16	1.228521E-16
6.267465E+03	6.138580E-16	1.231055E-16
6.277445E+03	6.144663E-16	1.233526E-16
6.287425E+03	6.148734E-16	1.235591E-16
6.297405E+03	6.152436E-16	1.237577E-16
6.307385E+03	6.154612E-16	1.239253E-16
6.317365E+03	6.156343E-16	1.240835E-16
6.327345E+03	6.156469E-16	1.242089E-16
6.337325E+03	6.155510E-16	1.243119E-16
6.347305E+03	6.152866E-16	1.243803E-16
6.357285E+03	6.149611E-16	1.244358E-16
6.367265E+03	6.144586E-16	1.244548E-16
6.377246E+03	6.138308E-16	1.244477E-16
6.387226E+03	6.130734E-16	1.244135E-16
6.397206E+03	6.121822E-16	1.243515E-16
6.407186E+03	6.110979E-16	1.242493E-16
6.417166E+03	6.098723E-16	1.241175E-16
6.427146E+03	6.085569E-16	1.239665E-16
6.437126E+03	6.069834E-16	1.237619E-16
6.447106E+03	6.053141E-16	1.235367E-16
6.457086E+03	6.034919E-16	1.232792E-16
6.467066E+03	6.014603E-16	1.229777E-16
6.477046E+03	5.992733E-16	1.226431E-16
6.487026E+03	5.969306E-16	1.222754E-16
6.497006E+03	5.944328E-16	1.218746E-16
6.506986E+03	5.917282E-16	1.214300E-16
6.516966E+03	5.889264E-16	1.209639E-16
6.526946E+03	5.859249E-16	1.204553E-16
6.536926E+03	5.827825E-16	1.199162E-16
6.546906E+03	5.795054E-16	1.193477E-16
6.556886E+03	5.761008E-16	1.187514E-16
6.566866E+03	5.725249E-16	1.181180E-16
6.576846E+03	5.688386E-16	1.174601E-16
6.586826E+03	5.650506E-16	1.167795E-16
6.596806E+03	5.611702E-16	1.160779E-16
6.606786E+03	5.572065E-16	1.153573E-16
6.616766E+03	5.531191E-16	1.146092E-16
6.626747E+03	5.490176E-16	1.138564E-16
6.636727E+03	5.448117E-16	1.130801E-16
6.646707E+03	5.405605E-16	1.122924E-16
6.656687E+03	5.362729E-16	1.114953E-16
6.666667E+03	5.319095E-16	1.106806E-16
6.676647E+03	5.275749E-16	1.098700E-16
6.686627E+03	5.231815E-16	1.090452E-16
6.696607E+03	5.187849E-16	1.082178E-16
6.706587E+03	5.143922E-16	1.073894E-16
6.716567E+03	5.100101E-16	1.065614E-16
6.726547E+03	5.055993E-16	1.057255E-16
6.736527E+03	5.012575E-16	1.049021E-16
6.746507E+03	4.968991E-16	1.040735E-16
6.756487E+03	4.925749E-16	1.032503E-16
6.766467E+03	4.882895E-16	1.024334E-16
6.776447E+03	4.840036E-16	1.016146E-16
6.786427E+03	4.798087E-16	1.008132E-16
6.796407E+03	4.756213E-16	1.000116E-16
6.806387E+03	4.714883E-16	9.921980E-17
6.816367E+03	4.674123E-16	9.843834E-17
6.826347E+03	4.633961E-16	9.766781E-17
6.836327E+03	4.594416E-16	9.690869E-17
6.846307E+03	4.555094E-16	9.615269E-17
6.856287E+03	4.516432E-16	9.540905E-17
6.866267E+03	4.478442E-16	9.467809E-17
6.876248E+03	4.441136E-16	9.396009E-17
6.886228E+03	4.404521E-16	9.325523E-17
6.896208E+03	4.368603E-16	9.256372E-17
6.906188E+03	4.332993E-16	9.187731E-17
6.916168E+03	4.298485E-16	9.121289E-17
6.926148E+03	4.264294E-16	9.055383E-17
6.936128E+03	4.230812E-16	8.990853E-17
6.946108E+03	4.198038E-16	8.927696E-17
6.956088E+03	4.165587E-16	8.865098E-17
6.966068E+03	4.134215E-16	8.804675E-17
6.976048E+03	4.103161E-16	8.744807E-17
6.986028E+03	4.072795E-16	8.686285E-17
6.996008E+03	4.043108E-16	8.629098E-17
7.005988E+03	4.014092E-16	8.573228E-17
7.015968E+03	3.985734E-16	8.518654E-17
7.025948E+03	3.957662E-16	8.464580E-17
7.035928E+03	3.930589E-16	8.412540E-17
7.045908E+03	3.903781E-16	8.360962E-17
7.055888E+03	3.877585E-16	8.310596E-17
7.065868E+03	3.851989E-16	8.261416E-17
7.075848E+03	3.826977E-16	8.213390E-17
7.085828E+03	3.802183E-16	8.165740E-17
7.095808E+03	3.778294E-16	8.119940E-17
7.105788E+03	3.754595E-16	8.074459E-17
7.115768E+03	3.731765E-16	8.030759E-17
7.125749E+03	3.709095E-16	7.987316E-17
7.135729E+03	3.686915E-16	7.944846E-17
7.145709E+03	3.664868E-16	7.902578E-17
7.155689E+03	3.643616E-16	7.861944E-17
7.165669E+03	3.622465E-16	7.821449E-17
7.175649E+03	3.602071E-16	7.782510E-17
7.185629E+03	3.581744E-16	7.743641E-17
7.195609E+03	3.561803E-16	7.705530E-17
7.205589E+03	3.542229E-16	7.668141E-17
7.215569E+03	3.523003E-16	7.631435E-17
7.225549E+03	3.503782E-16	7.594669E-17
7.235529E+03	3.485201E-16	7.559222E-17
7.245509E+03	3.466592E-16	7.523645E-17
7.255489E+03	3.448264E-16	7.488611E-17
7.265469E+03	3.430519E-16	7.454777E-17
7.275449E+03	3.412696E-16	7.420710E-17
7.285429E+03	3.394783E-16	7.386386E-17
7.295409E+03	3.377404E-16	7.353157E-17
7.305389E+03	3.360219E-16	7.320292E-17
7.315369E+03	3.342902E-16	7.287076E-17
7.325349E+03	3.326067E-16	7.254853E-17
7.335329E+03	3.309072E-16	7.222221E-17
7.345309E+03	3.292218E-16	7.189838E-17
7.355289E+03	3.275494E-16	7.157680E-17
7.365269E+03	3.258884E-16	7.125717E-17
7.375250E+03	3.242075E-16	7.093258E-17
7.385230E+03	3.225669E-16	7.061627E-17
7.395210E+03	3.209045E-16	7.029463E-17
7.405190E+03	3.192805E-16	6.998085E-17
7.415170E+03	3.176333E-16	6.966144E-17
7.425150E+03	3.159928E-16	6.934298E-17
7.435130E+03	3.143584E-16	6.902528E-17
7.445110E+03	3.127296E-16	6.870829E-17
7.455090E+03	3.111060E-16	6.839193E-17
7.465070E+03	3.094576E-16	6.806956E-17
7.475050E+03	3.078433E-16	6.775418E-17
7.485030E+03	3.062037E-16	6.743271E-17
7.495010E+03	3.045677E-16	6.711149E-17
7.504990E+03	3.029639E-16	6.679685E-17
7.514970E+03	3.013324E-16	6.647560E-17
7.524950E+03	2.997015E-16	6.615397E-17
7.534930E+03	2.980699E-16	6.583166E-17
7.544910E+03	2.964077E-16	6.550207E-17
7.554890E+03	2.947711E-16	6.517764E-17
7.564870E+03	2.931017E-16	6.484545E-17
7.574850E+03	2.914557E-16	6.451791E-17
7.584830E+03	2.897752E-16	6.418223E-17
7.594810E+03	2.880880E-16	6.384457E-17
7.604790E+03	2.863935E-16	6.350477E-17
7.614770E+03	2.846911E-16	6.316269E-17
7.624750E+03	2.829802E-16	6.281824E-17
7.634731E+03	2.812606E-16	6.247133E-17
7.644711E+03	2.795319E-16	6.212191E-17
7.654691E+03	2.777941E-16	6.176994E-17
7.664671E+03	2.760199E-16	6.140935E-17
7.674651E+03	2.742367E-16	6.104626E-17
7.684631E+03	2.724716E-16	6.068668E-17
7.694611E+03	2.706707E-16	6.031862E-17
7.704591E+03	2.688614E-16	5.994818E-17
7.714571E+03	2.670440E-16	5.957539E-17
7.724551E+03	2.652188E-16	5.920036E-17
7.734531E+03	2.633863E-16	5.882318E-17
7.744511E+03	2.615468E-16	5.844394E-17
