#wls	flux	fluxerr
1.596806E+03	5.462674E-18	4.224375E-19
1.636727E+03	5.439721E-18	4.206348E-19
1.676647E+03	5.409434E-18	4.182645E-19
1.716567E+03	5.371585E-18	4.153092E-19
1.756487E+03	5.328093E-18	4.119173E-19
1.796407E+03	5.276100E-18	4.078681E-19
1.836327E+03	5.214891E-18	4.031062E-19
1.876248E+03	5.145760E-18	3.977320E-19
1.916168E+03	5.065811E-18	3.915219E-19
1.956088E+03	4.974612E-18	3.844425E-19
1.996008E+03	4.874480E-18	3.766733E-19
2.035928E+03	4.765431E-18	3.682157E-19
2.075848E+03	4.651817E-18	3.594061E-19
2.115768E+03	4.541560E-18	3.508566E-19
2.155689E+03	4.438330E-18	3.428507E-19
2.195609E+03	4.343861E-18	3.355223E-19
2.235529E+03	4.256879E-18	3.287728E-19
2.275449E+03	4.170510E-18	3.220713E-19
2.315369E+03	4.081628E-18	3.151762E-19
2.355289E+03	3.985918E-18	3.077547E-19
2.395210E+03	3.882475E-18	2.997370E-19
2.435130E+03	3.772943E-18	2.912504E-19
2.475050E+03	3.656779E-18	2.822529E-19
2.514970E+03	3.535166E-18	2.728361E-19
2.554890E+03	3.410567E-18	2.631905E-19
2.594810E+03	3.282953E-18	2.533138E-19
2.634731E+03	3.154650E-18	2.433856E-19
2.674651E+03	3.025666E-18	2.334067E-19
2.714571E+03	2.898141E-18	2.235421E-19
2.754491E+03	2.772104E-18	2.137942E-19
2.794411E+03	2.648627E-18	2.042456E-19
2.834331E+03	2.529568E-18	1.950396E-19
2.874251E+03	2.414980E-18	1.861802E-19
2.914172E+03	2.306544E-18	1.777969E-19
2.954092E+03	2.204327E-18	1.698947E-19
2.994012E+03	2.109190E-18	1.625400E-19
3.003992E+03	2.086445E-18	1.607816E-19
3.013972E+03	2.064862E-18	1.591128E-19
3.023952E+03	2.043144E-18	1.574339E-19
3.033932E+03	2.022607E-18	1.558459E-19
3.043912E+03	2.001968E-18	1.542501E-19
3.053892E+03	1.982544E-18	1.527481E-19
3.063872E+03	1.963094E-18	1.512443E-19
3.073852E+03	1.944861E-18	1.498342E-19
3.083832E+03	1.927232E-18	1.484707E-19
3.093812E+03	1.909626E-18	1.471091E-19
3.103792E+03	1.893243E-18	1.458417E-19
3.113772E+03	1.877495E-18	1.446234E-19
3.123752E+03	1.861823E-18	1.434110E-19
3.133733E+03	1.847390E-18	1.422940E-19
3.143713E+03	1.833631E-18	1.412291E-19
3.153693E+03	1.820559E-18	1.402171E-19
3.163673E+03	1.808190E-18	1.392594E-19
3.173653E+03	1.796540E-18	1.383570E-19
3.183633E+03	1.785084E-18	1.374696E-19
3.193613E+03	1.774925E-18	1.366821E-19
3.203593E+03	1.765537E-18	1.359541E-19
3.213573E+03	1.756938E-18	1.352869E-19
3.223553E+03	1.749148E-18	1.346820E-19
3.233533E+03	1.742190E-18	1.341411E-19
3.243513E+03	1.736086E-18	1.336661E-19
3.253493E+03	1.730860E-18	1.332586E-19
3.263473E+03	1.726538E-18	1.329207E-19
3.273453E+03	1.723656E-18	1.326938E-19
3.283433E+03	1.721220E-18	1.325012E-19
3.293413E+03	1.719774E-18	1.323847E-19
3.303393E+03	1.719350E-18	1.323469E-19
3.313373E+03	1.719979E-18	1.323902E-19
3.323353E+03	1.721703E-18	1.325177E-19
3.333333E+03	1.725059E-18	1.327708E-19
3.343313E+03	1.729084E-18	1.330754E-19
3.353293E+03	1.734326E-18	1.334736E-19
3.363273E+03	1.741335E-18	1.340077E-19
3.373253E+03	1.749155E-18	1.346041E-19
3.383234E+03	1.758341E-18	1.353057E-19
3.393214E+03	1.769462E-18	1.361560E-19
3.403194E+03	1.781563E-18	1.370816E-19
3.413174E+03	1.795729E-18	1.381660E-19
3.423154E+03	1.811005E-18	1.393358E-19
3.433134E+03	1.828498E-18	1.406760E-19
3.443114E+03	1.847253E-18	1.421131E-19
3.453094E+03	1.868399E-18	1.437341E-19
3.463074E+03	1.890974E-18	1.454648E-19
3.473054E+03	1.916141E-18	1.473948E-19
3.483034E+03	1.943476E-18	1.494913E-19
3.493014E+03	1.972537E-18	1.517204E-19
3.502994E+03	2.004545E-18	1.541760E-19
3.512974E+03	2.039081E-18	1.568258E-19
3.522954E+03	2.075701E-18	1.596356E-19
3.532934E+03	2.115699E-18	1.627049E-19
3.542914E+03	2.158660E-18	1.660019E-19
3.552894E+03	2.204746E-18	1.695388E-19
3.562874E+03	2.253511E-18	1.732814E-19
3.572854E+03	2.306370E-18	1.773385E-19
3.582834E+03	2.362907E-18	1.816780E-19
3.592814E+03	2.423333E-18	1.863161E-19
3.602794E+03	2.487868E-18	1.912697E-19
3.612774E+03	2.556747E-18	1.965568E-19
3.622754E+03	2.630215E-18	2.021963E-19
3.632735E+03	2.708541E-18	2.082087E-19
3.642715E+03	2.791245E-18	2.145570E-19
3.652695E+03	2.880113E-18	2.213786E-19
3.662675E+03	2.974727E-18	2.286412E-19
3.672655E+03	3.076246E-18	2.364339E-19
3.682635E+03	3.183396E-18	2.446587E-19
3.692615E+03	3.297358E-18	2.534062E-19
3.702595E+03	3.418528E-18	2.627069E-19
3.712575E+03	3.547330E-18	2.725932E-19
3.722555E+03	3.684212E-18	2.830995E-19
3.732535E+03	3.829650E-18	2.942624E-19
3.742515E+03	3.984150E-18	3.061204E-19
3.752495E+03	4.148244E-18	3.187146E-19
3.762475E+03	4.323638E-18	3.321757E-19
3.772455E+03	4.508700E-18	3.463784E-19
3.782435E+03	4.705162E-18	3.614555E-19
3.792415E+03	4.913692E-18	3.774584E-19
3.802395E+03	5.136339E-18	3.945442E-19
3.812375E+03	5.371235E-18	4.125693E-19
3.822355E+03	5.620454E-18	4.316929E-19
3.832335E+03	5.884830E-18	4.519788E-19
3.842315E+03	6.166832E-18	4.736167E-19
3.852295E+03	6.464278E-18	4.964386E-19
3.862275E+03	6.781404E-18	5.207698E-19
3.872255E+03	7.115833E-18	5.464275E-19
3.882236E+03	7.470300E-18	5.736215E-19
3.892216E+03	7.847931E-18	6.025917E-19
3.902196E+03	8.246001E-18	6.331284E-19
3.912176E+03	8.669846E-18	6.656414E-19
3.922156E+03	9.116463E-18	6.998997E-19
3.932136E+03	9.589285E-18	7.361666E-19
3.942116E+03	1.009225E-17	7.747440E-19
3.952096E+03	1.062184E-17	8.153620E-19
3.962076E+03	1.118478E-17	8.585362E-19
3.972056E+03	1.178010E-17	9.041919E-19
3.982036E+03	1.240633E-17	9.522154E-19
3.992016E+03	1.307115E-17	1.003197E-18
4.001996E+03	1.376994E-17	1.056780E-18
4.011976E+03	1.451108E-17	1.113609E-18
4.021956E+03	1.528934E-17	1.173281E-18
4.031936E+03	1.611387E-17	1.236499E-18
4.041916E+03	1.697877E-17	1.302807E-18
4.051896E+03	1.789399E-17	1.372971E-18
4.061876E+03	1.885741E-17	1.446827E-18
4.071856E+03	1.986602E-17	1.524143E-18
4.081836E+03	2.093109E-17	1.605783E-18
4.091816E+03	2.204977E-17	1.691529E-18
4.101796E+03	2.321817E-17	1.781081E-18
4.111776E+03	2.444891E-17	1.875407E-18
4.121756E+03	2.573822E-17	1.974216E-18
4.131737E+03	2.708102E-17	2.077119E-18
4.141717E+03	2.849136E-17	2.185193E-18
4.151697E+03	2.996420E-17	2.298051E-18
4.161677E+03	3.149300E-17	2.415190E-18
4.171657E+03	3.309320E-17	2.537794E-18
4.181637E+03	3.475818E-17	2.665354E-18
4.191617E+03	3.648819E-17	2.797889E-18
4.201597E+03	3.827411E-17	2.934699E-18
4.211577E+03	4.013329E-17	3.077114E-18
4.221557E+03	4.205630E-17	3.224410E-18
4.231537E+03	4.404201E-17	3.376499E-18
4.241517E+03	4.607803E-17	3.532431E-18
4.251497E+03	4.818350E-17	3.693674E-18
4.261477E+03	5.034553E-17	3.859238E-18
4.271457E+03	5.256117E-17	4.028896E-18
4.281437E+03	5.481414E-17	4.201401E-18
4.291417E+03	5.712543E-17	4.378360E-18
4.301397E+03	5.947829E-17	4.558489E-18
4.311377E+03	6.186771E-17	4.741405E-18
4.321357E+03	6.427343E-17	4.925554E-18
4.331337E+03	6.671870E-17	5.112717E-18
4.341317E+03	6.918304E-17	5.301324E-18
4.351297E+03	7.165993E-17	5.490878E-18
4.361277E+03	7.412586E-17	5.679575E-18
4.371257E+03	7.660749E-17	5.869458E-18
4.381238E+03	7.908195E-17	6.058776E-18
4.391218E+03	8.154319E-17	6.247065E-18
4.401198E+03	8.398568E-17	6.433902E-18
4.411178E+03	8.638490E-17	6.617408E-18
4.421158E+03	8.877486E-17	6.800189E-18
4.431138E+03	9.113247E-17	6.980477E-18
4.441118E+03	9.345413E-17	7.157996E-18
4.451098E+03	9.571524E-17	7.330864E-18
4.461078E+03	9.795554E-17	7.502122E-18
4.471058E+03	1.001517E-16	7.669991E-18
4.481038E+03	1.022792E-16	7.832582E-18
4.491018E+03	1.043816E-16	7.993237E-18
4.500998E+03	1.064354E-16	8.150159E-18
4.510978E+03	1.084397E-16	8.303286E-18
4.520958E+03	1.103699E-16	8.450716E-18
4.530938E+03	1.122739E-16	8.596135E-18
4.540918E+03	1.141278E-16	8.737710E-18
4.550898E+03	1.159065E-16	8.873516E-18
4.560878E+03	1.176610E-16	9.007456E-18
4.570858E+03	1.193668E-16	9.137659E-18
4.580838E+03	1.209984E-16	9.262171E-18
4.590818E+03	1.226091E-16	9.385076E-18
4.600798E+03	1.241739E-16	9.504461E-18
4.610778E+03	1.256669E-16	9.618340E-18
4.620758E+03	1.271432E-16	9.730936E-18
4.630739E+03	1.285498E-16	9.838188E-18
4.640719E+03	1.299431E-16	9.944419E-18
4.650699E+03	1.312973E-16	1.004764E-17
4.660679E+03	1.325852E-16	1.014580E-17
4.670659E+03	1.338650E-16	1.024332E-17
4.680639E+03	1.350816E-16	1.033600E-17
4.690619E+03	1.362939E-16	1.042836E-17
4.700599E+03	1.374460E-16	1.051609E-17
4.710579E+03	1.385979E-16	1.060381E-17
4.720559E+03	1.396932E-16	1.068719E-17
4.730539E+03	1.407932E-16	1.077093E-17
4.740519E+03	1.418411E-16	1.085068E-17
4.750499E+03	1.428693E-16	1.092892E-17
4.760479E+03	1.439104E-16	1.100814E-17
4.770459E+03	1.449070E-16	1.108395E-17
4.780439E+03	1.459225E-16	1.116121E-17
4.790419E+03	1.468985E-16	1.123544E-17
4.800399E+03	1.478683E-16	1.130919E-17
4.810379E+03	1.488654E-16	1.138503E-17
4.820359E+03	1.498307E-16	1.145844E-17
4.830339E+03	1.507976E-16	1.153197E-17
4.840319E+03	1.517688E-16	1.160582E-17
4.850299E+03	1.527779E-16	1.168257E-17
4.860279E+03	1.537650E-16	1.175762E-17
4.870259E+03	1.547632E-16	1.183353E-17
4.880240E+03	1.557751E-16	1.191049E-17
4.890220E+03	1.568028E-16	1.198865E-17
4.900200E+03	1.578485E-16	1.206818E-17
4.910180E+03	1.589140E-16	1.214923E-17
4.920160E+03	1.600017E-16	1.223197E-17
4.930140E+03	1.611458E-16	1.231901E-17
4.940120E+03	1.622830E-16	1.240553E-17
4.950100E+03	1.634475E-16	1.249414E-17
4.960080E+03	1.646078E-16	1.258241E-17
4.970060E+03	1.658318E-16	1.267556E-17
4.980040E+03	1.670879E-16	1.277115E-17
4.990020E+03	1.683773E-16	1.286930E-17
5.000000E+03	1.697018E-16	1.297011E-17
5.009980E+03	1.710623E-16	1.307368E-17
5.019960E+03	1.724601E-16	1.318010E-17
5.029940E+03	1.738615E-16	1.328678E-17
5.039920E+03	1.753368E-16	1.339911E-17
5.049900E+03	1.768525E-16	1.351453E-17
5.059880E+03	1.783738E-16	1.363037E-17
5.069860E+03	1.799722E-16	1.375209E-17
5.079840E+03	1.816131E-16	1.387706E-17
5.089820E+03	1.832609E-16	1.400255E-17
5.099800E+03	1.849881E-16	1.413411E-17
5.109780E+03	1.867224E-16	1.426621E-17
5.119760E+03	1.885372E-16	1.440444E-17
5.129741E+03	1.903588E-16	1.454320E-17
5.139721E+03	1.922239E-16	1.468528E-17
5.149701E+03	1.941703E-16	1.483356E-17
5.159681E+03	1.961220E-16	1.498225E-17
5.169661E+03	1.981163E-16	1.513418E-17
5.179641E+03	2.001916E-16	1.529229E-17
5.189621E+03	2.022692E-16	1.545059E-17
5.199601E+03	2.043872E-16	1.561195E-17
5.209581E+03	2.065443E-16	1.577631E-17
5.219561E+03	2.087391E-16	1.594354E-17
5.229541E+03	2.109704E-16	1.611355E-17
5.239521E+03	2.132363E-16	1.628620E-17
5.249501E+03	2.155349E-16	1.646134E-17
5.259481E+03	2.178643E-16	1.663883E-17
5.269461E+03	2.202221E-16	1.681849E-17
5.279441E+03	2.226057E-16	1.700011E-17
5.289421E+03	2.250123E-16	1.718348E-17
5.299401E+03	2.274391E-16	1.736840E-17
5.309381E+03	2.298389E-16	1.755125E-17
5.319361E+03	2.322956E-16	1.773844E-17
5.329341E+03	2.347621E-16	1.792637E-17
5.339321E+03	2.371896E-16	1.811132E-17
5.349301E+03	2.396634E-16	1.829981E-17
5.359281E+03	2.421349E-16	1.848812E-17
5.369261E+03	2.445532E-16	1.867236E-17
5.379242E+03	2.469593E-16	1.885567E-17
5.389222E+03	2.493954E-16	1.904126E-17
5.399202E+03	2.517631E-16	1.922164E-17
5.409182E+03	2.541520E-16	1.940363E-17
5.419162E+03	2.564621E-16	1.957960E-17
5.429142E+03	2.587360E-16	1.975281E-17
5.439122E+03	2.609692E-16	1.992291E-17
5.449102E+03	2.631572E-16	2.008956E-17
5.459082E+03	2.652962E-16	2.025247E-17
5.469062E+03	2.673825E-16	2.041135E-17
5.479042E+03	2.694130E-16	2.056599E-17
5.489022E+03	2.713858E-16	2.071621E-17
5.499002E+03	2.732997E-16	2.086194E-17
5.508982E+03	2.751544E-16	2.100315E-17
5.518962E+03	2.769502E-16	2.113987E-17
5.528942E+03	2.786885E-16	2.127220E-17
5.538922E+03	2.803185E-16	2.139628E-17
5.548902E+03	2.819460E-16	2.152016E-17
5.558882E+03	2.834693E-16	2.163609E-17
5.568862E+03	2.849954E-16	2.175224E-17
5.578842E+03	2.864223E-16	2.186083E-17
5.588822E+03	2.878585E-16	2.197012E-17
5.598802E+03	2.892015E-16	2.207231E-17
5.608782E+03	2.905609E-16	2.217576E-17
5.618762E+03	2.918337E-16	2.227260E-17
5.628743E+03	2.930765E-16	2.236715E-17
5.638723E+03	2.942930E-16	2.245971E-17
5.648703E+03	2.954866E-16	2.255053E-17
5.658683E+03	2.966611E-16	2.263989E-17
5.668663E+03	2.978199E-16	2.272805E-17
5.678643E+03	2.989664E-16	2.281529E-17
5.688623E+03	3.001040E-16	2.290185E-17
5.698603E+03	3.012361E-16	2.298800E-17
5.708583E+03	3.023657E-16	2.307396E-17
5.718563E+03	3.034960E-16	2.315999E-17
5.728543E+03	3.045749E-16	2.324209E-17
5.738523E+03	3.057152E-16	2.332889E-17
5.748503E+03	3.068646E-16	2.341639E-17
5.758483E+03	3.079701E-16	2.350055E-17
5.768463E+03	3.090893E-16	2.358575E-17
5.778443E+03	3.102803E-16	2.367644E-17
5.788423E+03	3.114335E-16	2.376426E-17
5.798403E+03	3.126629E-16	2.385789E-17
5.808383E+03	3.138576E-16	2.394889E-17
5.818363E+03	3.150753E-16	2.404165E-17
5.828343E+03	3.163174E-16	2.413627E-17
5.838323E+03	3.175849E-16	2.423284E-17
5.848303E+03	3.188785E-16	2.433142E-17
5.858283E+03	3.201993E-16	2.443206E-17
5.868263E+03	3.215474E-16	2.453481E-17
5.878244E+03	3.229232E-16	2.463967E-17
5.888224E+03	3.242688E-16	2.474224E-17
5.898204E+03	3.256996E-16	2.485131E-17
5.908184E+03	3.271572E-16	2.496244E-17
5.918164E+03	3.285828E-16	2.507113E-17
5.928144E+03	3.300917E-16	2.518619E-17
5.938124E+03	3.315658E-16	2.529860E-17
5.948104E+03	3.331210E-16	2.541720E-17
5.958084E+03	3.346374E-16	2.553286E-17
5.968064E+03	3.361719E-16	2.564991E-17
5.978044E+03	3.377821E-16	2.577273E-17
5.988024E+03	3.393456E-16	2.589201E-17
5.998004E+03	3.409190E-16	2.601205E-17
6.007984E+03	3.424993E-16	2.613261E-17
6.017964E+03	3.440826E-16	2.625343E-17
6.027944E+03	3.456652E-16	2.637420E-17
6.037924E+03	3.472429E-16	2.649460E-17
6.047904E+03	3.488113E-16	2.661430E-17
6.057884E+03	3.503039E-16	2.672823E-17
6.067864E+03	3.518389E-16	2.684540E-17
6.077844E+03	3.533498E-16	2.696075E-17
6.087824E+03	3.547687E-16	2.706909E-17
6.097804E+03	3.562148E-16	2.717951E-17
6.107784E+03	3.575574E-16	2.728204E-17
6.117764E+03	3.588534E-16	2.738103E-17
6.127745E+03	3.601603E-16	2.748087E-17
6.137725E+03	3.613462E-16	2.757148E-17
6.147705E+03	3.624691E-16	2.765730E-17
6.157685E+03	3.635236E-16	2.773790E-17
6.167665E+03	3.645052E-16	2.781296E-17
6.177645E+03	3.654096E-16	2.788214E-17
6.187625E+03	3.662335E-16	2.794518E-17
6.197605E+03	3.669743E-16	2.800190E-17
6.207585E+03	3.676299E-16	2.805212E-17
6.217565E+03	3.681990E-16	2.809576E-17
6.227545E+03	3.686161E-16	2.812781E-17
6.237525E+03	3.690092E-16	2.815804E-17
6.247505E+03	3.693133E-16	2.818149E-17
6.257485E+03	3.694637E-16	2.819322E-17
6.267465E+03	3.695889E-16	2.820304E-17
6.277445E+03	3.695601E-16	2.820112E-17
6.287425E+03	3.694412E-16	2.819233E-17
6.297405E+03	3.692323E-16	2.817668E-17
6.307385E+03	3.689971E-16	2.815904E-17
6.317365E+03	3.686071E-16	2.812960E-17
6.327345E+03	3.681260E-16	2.809320E-17
6.337325E+03	3.675530E-16	2.804981E-17
6.347305E+03	3.668880E-16	2.799940E-17
6.357285E+03	3.661299E-16	2.794190E-17
6.367265E+03	3.652147E-16	2.787242E-17
6.377246E+03	3.642685E-16	2.780058E-17
6.387226E+03	3.632268E-16	2.772146E-17
6.397206E+03	3.620258E-16	2.763018E-17
6.407186E+03	3.607906E-16	2.753630E-17
6.417166E+03	3.593948E-16	2.743018E-17
6.427146E+03	3.579626E-16	2.732128E-17
6.437126E+03	3.563691E-16	2.720008E-17
6.447106E+03	3.546763E-16	2.707130E-17
6.457086E+03	3.529452E-16	2.693960E-17
6.467066E+03	3.510534E-16	2.679564E-17
6.477046E+03	3.490631E-16	2.664417E-17
6.487026E+03	3.469754E-16	2.648527E-17
6.497006E+03	3.447919E-16	2.631905E-17
6.506986E+03	3.425151E-16	2.614572E-17
6.516966E+03	3.401481E-16	2.596550E-17
6.526946E+03	3.376950E-16	2.577871E-17
6.536926E+03	3.351032E-16	2.558133E-17
6.546906E+03	3.324946E-16	2.538268E-17
6.556886E+03	3.298177E-16	2.517880E-17
6.566866E+03	3.270223E-16	2.496588E-17
6.576846E+03	3.242293E-16	2.475315E-17
6.586826E+03	3.213335E-16	2.453255E-17
6.596806E+03	3.183985E-16	2.430897E-17
6.606786E+03	3.154864E-16	2.408713E-17
6.616766E+03	3.124947E-16	2.385921E-17
6.626747E+03	3.094857E-16	2.362997E-17
6.636727E+03	3.064661E-16	2.339992E-17
6.646707E+03	3.034429E-16	2.316958E-17
6.656687E+03	3.004222E-16	2.293943E-17
6.666667E+03	2.974104E-16	2.270996E-17
6.676647E+03	2.944132E-16	2.248160E-17
6.686627E+03	2.914362E-16	2.225477E-17
6.696607E+03	2.884845E-16	2.202988E-17
6.706587E+03	2.855138E-16	2.180353E-17
6.716567E+03	2.826278E-16	2.158364E-17
6.726547E+03	2.797323E-16	2.136301E-17
6.736527E+03	2.769287E-16	2.114940E-17
6.746507E+03	2.741240E-16	2.093571E-17
6.756487E+03	2.714171E-16	2.072947E-17
6.766467E+03	2.687164E-16	2.052370E-17
6.776447E+03	2.660721E-16	2.032224E-17
6.786427E+03	2.634866E-16	2.012526E-17
6.796407E+03	2.610073E-16	1.993639E-17
6.806387E+03	2.585452E-16	1.974882E-17
6.816367E+03	2.561476E-16	1.956619E-17
6.826347E+03	2.538161E-16	1.938859E-17
6.836327E+03	2.515085E-16	1.921280E-17
6.846307E+03	2.493131E-16	1.904560E-17
6.856287E+03	2.471870E-16	1.888367E-17
6.866267E+03	2.451310E-16	1.872710E-17
6.876248E+03	2.431033E-16	1.857269E-17
6.886228E+03	2.411892E-16	1.842694E-17
6.896208E+03	2.393464E-16	1.828664E-17
6.906188E+03	2.375340E-16	1.814866E-17
6.916168E+03	2.358345E-16	1.801931E-17
6.926148E+03	2.341659E-16	1.789231E-17
6.936128E+03	2.325691E-16	1.777079E-17
6.946108E+03	2.310440E-16	1.765475E-17
6.956088E+03	2.296299E-16	1.754719E-17
6.966068E+03	2.282465E-16	1.744197E-17
6.976048E+03	2.269334E-16	1.734212E-17
6.986028E+03	2.256901E-16	1.724759E-17
6.996008E+03	2.245156E-16	1.715833E-17
7.005988E+03	2.234095E-16	1.707429E-17
7.015968E+03	2.223708E-16	1.699540E-17
7.025948E+03	2.213603E-16	1.691866E-17
7.035928E+03	2.204541E-16	1.684990E-17
7.045908E+03	2.196128E-16	1.678609E-17
7.055888E+03	2.188352E-16	1.672715E-17
7.065868E+03	2.180822E-16	1.667009E-17
7.075848E+03	2.174289E-16	1.662065E-17
7.085828E+03	2.167979E-16	1.657292E-17
7.095808E+03	2.162263E-16	1.652972E-17
7.105788E+03	2.157502E-16	1.649383E-17
7.115768E+03	2.152927E-16	1.645936E-17
7.125749E+03	2.148903E-16	1.642910E-17
7.135729E+03	2.145786E-16	1.640578E-17
7.145709E+03	2.142812E-16	1.638354E-17
7.155689E+03	2.140336E-16	1.636513E-17
7.165669E+03	2.138343E-16	1.635040E-17
7.175649E+03	2.136811E-16	1.633921E-17
7.185629E+03	2.135722E-16	1.633140E-17
7.195609E+03	2.135055E-16	1.632682E-17
7.205589E+03	2.134410E-16	1.632241E-17
7.215569E+03	2.134516E-16	1.632374E-17
7.225549E+03	2.134971E-16	1.632775E-17
7.235529E+03	2.135751E-16	1.633424E-17
7.245509E+03	2.136450E-16	1.634012E-17
7.255489E+03	2.137794E-16	1.635093E-17
7.265469E+03	2.138996E-16	1.636067E-17
7.275449E+03	2.140780E-16	1.637485E-17
7.285429E+03	2.142356E-16	1.638745E-17
7.295409E+03	2.144447E-16	1.640399E-17
7.305389E+03	2.146257E-16	1.641839E-17
7.315369E+03	2.148126E-16	1.643324E-17
7.325349E+03	2.150014E-16	1.644823E-17
7.335329E+03	2.152261E-16	1.646598E-17
7.345309E+03	2.154060E-16	1.648031E-17
7.355289E+03	2.155750E-16	1.649380E-17
7.365269E+03	2.157283E-16	1.650610E-17
7.375250E+03	2.158613E-16	1.651685E-17
7.385230E+03	2.159693E-16	1.652568E-17
7.395210E+03	2.160472E-16	1.653221E-17
7.405190E+03	2.160521E-16	1.653317E-17
7.415170E+03	2.160558E-16	1.653403E-17
7.425150E+03	2.160154E-16	1.653152E-17
7.435130E+03	2.159261E-16	1.652527E-17
7.445110E+03	2.157454E-16	1.651203E-17
7.455090E+03	2.155459E-16	1.649735E-17
7.465070E+03	2.152473E-16	1.647509E-17
7.475050E+03	2.149232E-16	1.645087E-17
7.485030E+03	2.144943E-16	1.641863E-17
7.495010E+03	2.140357E-16	1.638413E-17
7.504990E+03	2.134701E-16	1.634143E-17
7.514970E+03	2.128363E-16	1.629351E-17
7.524950E+03	2.121741E-16	1.624341E-17
7.534930E+03	2.114092E-16	1.618544E-17
7.544910E+03	2.105821E-16	1.612272E-17
7.554890E+03	2.096959E-16	1.605546E-17
7.564870E+03	2.087535E-16	1.598390E-17
7.574850E+03	2.077586E-16	1.590832E-17
7.584830E+03	2.067143E-16	1.582895E-17
7.594810E+03	2.056242E-16	1.574606E-17
7.604790E+03	2.044915E-16	1.565992E-17
7.614770E+03	2.033198E-16	1.557078E-17
7.624750E+03	2.021122E-16	1.547889E-17
7.634731E+03	2.008719E-16	1.538448E-17
7.644711E+03	1.996018E-16	1.528779E-17
7.654691E+03	1.982687E-16	1.518627E-17
7.664671E+03	1.969472E-16	1.508563E-17
7.674651E+03	1.956038E-16	1.498331E-17
7.684631E+03	1.942048E-16	1.487672E-17
7.694611E+03	1.928234E-16	1.477148E-17
7.704591E+03	1.913908E-16	1.466230E-17
7.714571E+03	1.899783E-16	1.455466E-17
7.724551E+03	1.885177E-16	1.444332E-17
7.734531E+03	1.870791E-16	1.433366E-17
7.744511E+03	1.855946E-16	1.422049E-17
