#wls	flux	fluxerr
1.591248E+03	3.462326E-04	3.079184E-06
1.631029E+03	3.326841E-04	2.958691E-06
1.670811E+03	3.197555E-04	2.843712E-06
1.710592E+03	3.074063E-04	2.733886E-06
1.750373E+03	2.959592E-04	2.632082E-06
1.790154E+03	2.855498E-04	2.539507E-06
1.829935E+03	2.762615E-04	2.456902E-06
1.869717E+03	2.682838E-04	2.385953E-06
1.909498E+03	2.617983E-04	2.328276E-06
1.949279E+03	2.569348E-04	2.285023E-06
1.989060E+03	2.538733E-04	2.257796E-06
2.028841E+03	2.527513E-04	2.247817E-06
2.068623E+03	2.537168E-04	2.256403E-06
2.108404E+03	2.570243E-04	2.285818E-06
2.148185E+03	2.628054E-04	2.337232E-06
2.187966E+03	2.713032E-04	2.412806E-06
2.227747E+03	2.826783E-04	2.513969E-06
2.267529E+03	2.972454E-04	2.643521E-06
2.307310E+03	3.151071E-04	2.802372E-06
2.347091E+03	3.364808E-04	2.992456E-06
2.386872E+03	3.614603E-04	3.214609E-06
2.426653E+03	3.899515E-04	3.467992E-06
2.466435E+03	4.218010E-04	3.751243E-06
2.506216E+03	4.564912E-04	4.059756E-06
2.545997E+03	4.933096E-04	4.387197E-06
2.585778E+03	5.313414E-04	4.725429E-06
2.625559E+03	5.696204E-04	5.065858E-06
2.665341E+03	6.073257E-04	5.401187E-06
2.705122E+03	6.439011E-04	5.726466E-06
2.744903E+03	6.790594E-04	6.039142E-06
2.784684E+03	7.126149E-04	6.337565E-06
2.824465E+03	7.447188E-04	6.623077E-06
2.864247E+03	7.753261E-04	6.895280E-06
2.904028E+03	8.048917E-04	7.158219E-06
2.943809E+03	8.338579E-04	7.415827E-06
2.983590E+03	8.627508E-04	7.672783E-06
2.993536E+03	8.699639E-04	7.736931E-06
3.003481E+03	8.773742E-04	7.802834E-06
3.013426E+03	8.847723E-04	7.868628E-06
3.023371E+03	8.922770E-04	7.935371E-06
3.033317E+03	8.998962E-04	8.003131E-06
3.043262E+03	9.075298E-04	8.071020E-06
3.053207E+03	9.154074E-04	8.141078E-06
3.063153E+03	9.233182E-04	8.211432E-06
3.073098E+03	9.314918E-04	8.284123E-06
3.083043E+03	9.398287E-04	8.358267E-06
3.092989E+03	9.482268E-04	8.432954E-06
3.102934E+03	9.569187E-04	8.510254E-06
3.112879E+03	9.658023E-04	8.589259E-06
3.122824E+03	9.749997E-04	8.671056E-06
3.132770E+03	9.844094E-04	8.754740E-06
3.142715E+03	9.940402E-04	8.840390E-06
3.152660E+03	1.004014E-03	8.929094E-06
3.162606E+03	1.014227E-03	9.019922E-06
3.172551E+03	1.024917E-03	9.114989E-06
3.182496E+03	1.035863E-03	9.212339E-06
3.192442E+03	1.047189E-03	9.313063E-06
3.202387E+03	1.058902E-03	9.417230E-06
3.212332E+03	1.071009E-03	9.524901E-06
3.222277E+03	1.083515E-03	9.636129E-06
3.232223E+03	1.096428E-03	9.750968E-06
3.242168E+03	1.109867E-03	9.870486E-06
3.252113E+03	1.123837E-03	9.994728E-06
3.262059E+03	1.138222E-03	1.012265E-05
3.272004E+03	1.153140E-03	1.025533E-05
3.281949E+03	1.168590E-03	1.039273E-05
3.291895E+03	1.184568E-03	1.053482E-05
3.301840E+03	1.201068E-03	1.068157E-05
3.311785E+03	1.218202E-03	1.083395E-05
3.321730E+03	1.235838E-03	1.099079E-05
3.331676E+03	1.254082E-03	1.115304E-05
3.341621E+03	1.272914E-03	1.132053E-05
3.351566E+03	1.292192E-03	1.149197E-05
3.361512E+03	1.312128E-03	1.166927E-05
3.371457E+03	1.332569E-03	1.185106E-05
3.381402E+03	1.353596E-03	1.203806E-05
3.391348E+03	1.375165E-03	1.222989E-05
3.401293E+03	1.397099E-03	1.242495E-05
3.411238E+03	1.419582E-03	1.262490E-05
3.421183E+03	1.442296E-03	1.282690E-05
3.431129E+03	1.465408E-03	1.303245E-05
3.441074E+03	1.488830E-03	1.324075E-05
3.451019E+03	1.512458E-03	1.345088E-05
3.460965E+03	1.536178E-03	1.366183E-05
3.470910E+03	1.559861E-03	1.387246E-05
3.480855E+03	1.583496E-03	1.408265E-05
3.490801E+03	1.606805E-03	1.428995E-05
3.500746E+03	1.629753E-03	1.449404E-05
3.510691E+03	1.652173E-03	1.469342E-05
3.520636E+03	1.673890E-03	1.488656E-05
3.530582E+03	1.694726E-03	1.507186E-05
3.540527E+03	1.714630E-03	1.524888E-05
3.550472E+03	1.733428E-03	1.541606E-05
3.560418E+03	1.750956E-03	1.557194E-05
3.570363E+03	1.766941E-03	1.571410E-05
3.580308E+03	1.781496E-03	1.584355E-05
3.590254E+03	1.794396E-03	1.595827E-05
3.600199E+03	1.805686E-03	1.605867E-05
3.610144E+03	1.815214E-03	1.614341E-05
3.620090E+03	1.823111E-03	1.621364E-05
3.630035E+03	1.829445E-03	1.626997E-05
3.639980E+03	1.834232E-03	1.631255E-05
3.649925E+03	1.837897E-03	1.634514E-05
3.659871E+03	1.840603E-03	1.636921E-05
3.669816E+03	1.842717E-03	1.638800E-05
3.679761E+03	1.844694E-03	1.640559E-05
3.689707E+03	1.847190E-03	1.642779E-05
3.699652E+03	1.850753E-03	1.645947E-05
3.709597E+03	1.856131E-03	1.650730E-05
3.719543E+03	1.864356E-03	1.658045E-05
3.729488E+03	1.876057E-03	1.668451E-05
3.739433E+03	1.892514E-03	1.683087E-05
3.749378E+03	1.914495E-03	1.702635E-05
3.759324E+03	1.943371E-03	1.728316E-05
3.769269E+03	1.980073E-03	1.760957E-05
3.779214E+03	2.025710E-03	1.801544E-05
3.789160E+03	2.081546E-03	1.851200E-05
3.799105E+03	2.148307E-03	1.910573E-05
3.809050E+03	2.227166E-03	1.980706E-05
3.818996E+03	2.318566E-03	2.061991E-05
3.828941E+03	2.423299E-03	2.155135E-05
3.838886E+03	2.541280E-03	2.260060E-05
3.848831E+03	2.672552E-03	2.376805E-05
3.858777E+03	2.816406E-03	2.504741E-05
3.868722E+03	2.971715E-03	2.642863E-05
3.878667E+03	3.136648E-03	2.789544E-05
3.888613E+03	3.309100E-03	2.942912E-05
3.898558E+03	3.486005E-03	3.100241E-05
3.908503E+03	3.663709E-03	3.258280E-05
3.918449E+03	3.838211E-03	3.413471E-05
3.928394E+03	4.005340E-03	3.562106E-05
3.938339E+03	4.160566E-03	3.700154E-05
3.948284E+03	4.299631E-03	3.823830E-05
3.958230E+03	4.418530E-03	3.929572E-05
3.968175E+03	4.514309E-03	4.014753E-05
3.978120E+03	4.584134E-03	4.076850E-05
3.988066E+03	4.626838E-03	4.114828E-05
3.998011E+03	4.641863E-03	4.128191E-05
4.001229E+03	3.496571E-03	3.109638E-05
4.004086E+03	3.603320E-03	3.204574E-05
4.006952E+03	3.697578E-03	3.288401E-05
4.007662E+03	3.828049E-03	3.404434E-05
4.008381E+03	3.944454E-03	3.507958E-05
4.009809E+03	4.019714E-03	3.574889E-05
4.011237E+03	4.106729E-03	3.652275E-05
4.012665E+03	4.223554E-03	3.756172E-05
4.013384E+03	4.347727E-03	3.866604E-05
4.014813E+03	4.449227E-03	3.956872E-05
4.015532E+03	4.567102E-03	4.061703E-05
4.016242E+03	4.691695E-03	4.172508E-05
4.018389E+03	4.763910E-03	4.236732E-05
4.019108E+03	4.844838E-03	4.308705E-05
4.020536E+03	4.938466E-03	4.391972E-05
4.021245E+03	5.025376E-03	4.469264E-05
4.021964E+03	5.097592E-03	4.533489E-05
4.024111E+03	5.197308E-03	4.622170E-05
4.025540E+03	5.284324E-03	4.699556E-05
4.029825E+03	5.350136E-03	4.758086E-05
4.030544E+03	5.397790E-03	4.800467E-05
4.031972E+03	5.463498E-03	4.858903E-05
4.034829E+03	5.539597E-03	4.926581E-05
4.036268E+03	5.609190E-03	4.988473E-05
4.036977E+03	5.679304E-03	5.050828E-05
4.038405E+03	5.729375E-03	5.095358E-05
4.039124E+03	5.780701E-03	5.141004E-05
4.044127E+03	5.854071E-03	5.206255E-05
4.044847E+03	5.904136E-03	5.250779E-05
4.045556E+03	5.973205E-03	5.312206E-05
4.046275E+03	6.011832E-03	5.346558E-05
4.047704E+03	6.056441E-03	5.386231E-05
4.049132E+03	6.088874E-03	5.415074E-05
4.049851E+03	6.111651E-03	5.435331E-05
4.050560E+03	6.141355E-03	5.461748E-05
4.051988E+03	6.152066E-03	5.471273E-05
4.055564E+03	6.161932E-03	5.480048E-05
4.056993E+03	6.185442E-03	5.500957E-05
4.058431E+03	6.240024E-03	5.549498E-05
4.059140E+03	6.256607E-03	5.564246E-05
4.059859E+03	6.268262E-03	5.574611E-05
4.060568E+03	6.256084E-03	5.563781E-05
4.063435E+03	6.245379E-03	5.554261E-05
4.064863E+03	6.248001E-03	5.556593E-05
4.066291E+03	6.261434E-03	5.568539E-05
4.067010E+03	6.246529E-03	5.555283E-05
4.067720E+03	6.229319E-03	5.539978E-05
4.069148E+03	6.218402E-03	5.530269E-05
4.071296E+03	6.208742E-03	5.521678E-05
4.072724E+03	6.183026E-03	5.498807E-05
4.073443E+03	6.171060E-03	5.488165E-05
4.074152E+03	6.135794E-03	5.456802E-05
4.074871E+03	6.091185E-03	5.417129E-05
4.075590E+03	6.045208E-03	5.376241E-05
4.076299E+03	5.997977E-03	5.334236E-05
4.077018E+03	5.949378E-03	5.291016E-05
4.077727E+03	5.899202E-03	5.246392E-05
4.078447E+03	5.847249E-03	5.200188E-05
4.079166E+03	5.794028E-03	5.152857E-05
4.081304E+03	5.739341E-03	5.104221E-05
4.082023E+03	5.683293E-03	5.054375E-05
4.082732E+03	5.625878E-03	5.003314E-05
4.083451E+03	5.566886E-03	4.950850E-05
4.086307E+03	5.506638E-03	4.897269E-05
4.087026E+03	5.462238E-03	4.857782E-05
4.089883E+03	5.409756E-03	4.811108E-05
4.092750E+03	5.360213E-03	4.767047E-05
4.094178E+03	5.335441E-03	4.745017E-05
4.094887E+03	5.260497E-03	4.678366E-05
4.097034E+03	5.222815E-03	4.644854E-05
4.097753E+03	5.138423E-03	4.569801E-05
4.098463E+03	5.079853E-03	4.517713E-05
4.102039E+03	5.017294E-03	4.462077E-05
4.103467E+03	4.959459E-03	4.410642E-05
4.104186E+03	4.868140E-03	4.329428E-05
4.105614E+03	4.775142E-03	4.246721E-05
4.107042E+03	4.710169E-03	4.188938E-05
4.108471E+03	4.640787E-03	4.127234E-05
4.109909E+03	4.564373E-03	4.059276E-05
4.111338E+03	4.466967E-03	3.972649E-05
4.112766E+03	4.380371E-03	3.895636E-05
4.114913E+03	4.291571E-03	3.816662E-05
4.115622E+03	4.223030E-03	3.755706E-05
4.116341E+03	4.131290E-03	3.674119E-05
4.117060E+03	4.053512E-03	3.604947E-05
4.119198E+03	3.987594E-03	3.546324E-05
4.120627E+03	3.908661E-03	3.476126E-05
4.122774E+03	3.823955E-03	3.400793E-05
4.123493E+03	3.788477E-03	3.369241E-05
4.124921E+03	3.747856E-03	3.333115E-05
4.125630E+03	3.697893E-03	3.288681E-05
4.128497E+03	3.644466E-03	3.241167E-05
4.131354E+03	3.578758E-03	3.182730E-05
4.132073E+03	3.525541E-03	3.135402E-05
4.133501E+03	3.506333E-03	3.118320E-05
4.134929E+03	3.445874E-03	3.064550E-05
4.136358E+03	3.411340E-03	3.033839E-05
4.139224E+03	3.357494E-03	2.985951E-05
4.147085E+03	3.330937E-03	2.962333E-05
4.148513E+03	3.294095E-03	2.929568E-05
4.149232E+03	3.258722E-03	2.898109E-05
4.149941E+03	3.245497E-03	2.886347E-05
4.150660E+03	3.164149E-03	2.814002E-05
4.151369E+03	3.199837E-03	2.845741E-05
4.153517E+03	3.074825E-03	2.734562E-05
4.154237E+03	3.088890E-03	2.747071E-05
4.154946E+03	3.086161E-03	2.744644E-05
4.157093E+03	3.088680E-03	2.746884E-05
4.157812E+03	3.065168E-03	2.725974E-05
4.159240E+03	3.005023E-03	2.672485E-05
4.159949E+03	3.014575E-03	2.680980E-05
4.160668E+03	2.972799E-03	2.643827E-05
4.162817E+03	2.914439E-03	2.591925E-05
4.164245E+03	2.886099E-03	2.566721E-05
4.165673E+03	2.910870E-03	2.588751E-05
4.166392E+03	2.803492E-03	2.493255E-05
4.167101E+03	2.695694E-03	2.397386E-05
4.169248E+03	2.679319E-03	2.382824E-05
4.169967E+03	2.659061E-03	2.364807E-05
4.170676E+03	2.582017E-03	2.296289E-05
4.171395E+03	2.537827E-03	2.256989E-05
4.172104E+03	2.529745E-03	2.249802E-05
4.173544E+03	2.476738E-03	2.202660E-05
4.174972E+03	2.498151E-03	2.221703E-05
4.175681E+03	2.471805E-03	2.198273E-05
4.176400E+03	2.337765E-03	2.079066E-05
4.178547E+03	2.289482E-03	2.036126E-05
4.179256E+03	2.282764E-03	2.030152E-05
4.181403E+03	2.242248E-03	1.994119E-05
4.182123E+03	2.182733E-03	1.941190E-05
4.182832E+03	2.164784E-03	1.925228E-05
4.184261E+03	2.196483E-03	1.953419E-05
4.187127E+03	2.132875E-03	1.896849E-05
4.187836E+03	2.087215E-03	1.856242E-05
4.188555E+03	1.981306E-03	1.762053E-05
4.189264E+03	1.967031E-03	1.749358E-05
4.190703E+03	1.957689E-03	1.741050E-05
4.191412E+03	1.940790E-03	1.726021E-05
4.192131E+03	1.848841E-03	1.644247E-05
4.193559E+03	1.899959E-03	1.689708E-05
4.194269E+03	1.866476E-03	1.659930E-05
4.196416E+03	1.842649E-03	1.638740E-05
4.197844E+03	1.829738E-03	1.627258E-05
4.198563E+03	1.841179E-03	1.637433E-05
4.199272E+03	1.790901E-03	1.592719E-05
4.201420E+03	1.802552E-03	1.603080E-05
4.202848E+03	1.831312E-03	1.628658E-05
4.203567E+03	1.853984E-03	1.648821E-05
4.204286E+03	1.875398E-03	1.667865E-05
4.204996E+03	1.880331E-03	1.672252E-05
4.207143E+03	1.885159E-03	1.676546E-05
4.207862E+03	1.917593E-03	1.705391E-05
4.209291E+03	1.914969E-03	1.703057E-05
4.210000E+03	1.923576E-03	1.710712E-05
4.210719E+03	1.922422E-03	1.709685E-05
4.212147E+03	1.924101E-03	1.711178E-05
4.214294E+03	1.917278E-03	1.705111E-05
4.215003E+03	1.916858E-03	1.704737E-05
4.215723E+03	1.958424E-03	1.741703E-05
4.216442E+03	1.950237E-03	1.734422E-05
4.217151E+03	1.957689E-03	1.741050E-05
4.218580E+03	1.969760E-03	1.751785E-05
4.219299E+03	1.966612E-03	1.748985E-05
4.220727E+03	1.947298E-03	1.731808E-05
4.221446E+03	1.919482E-03	1.707071E-05
4.222155E+03	1.879071E-03	1.671132E-05
4.222874E+03	1.884425E-03	1.675893E-05
4.223583E+03	1.891562E-03	1.682240E-05
4.224302E+03	1.939845E-03	1.725181E-05
4.225730E+03	1.958949E-03	1.742170E-05
4.226450E+03	1.992222E-03	1.771762E-05
4.227159E+03	2.052157E-03	1.825064E-05
4.228588E+03	2.014580E-03	1.791645E-05
4.230026E+03	2.057511E-03	1.829825E-05
4.230735E+03	2.115975E-03	1.881820E-05
4.231454E+03	2.136129E-03	1.899743E-05
4.232163E+03	2.195958E-03	1.952952E-05
4.233601E+03	2.243297E-03	1.995052E-05
4.234310E+03	2.297249E-03	2.043034E-05
4.235029E+03	2.304702E-03	2.049662E-05
4.235738E+03	2.361802E-03	2.100443E-05
4.236457E+03	2.315723E-03	2.059463E-05
4.237887E+03	2.320236E-03	2.063477E-05
4.238606E+03	2.311314E-03	2.055542E-05
4.239315E+03	2.320551E-03	2.063757E-05
4.241462E+03	2.369045E-03	2.106884E-05
4.243609E+03	2.344903E-03	2.085414E-05
4.244318E+03	2.368730E-03	2.106604E-05
4.245038E+03	2.373663E-03	2.110992E-05
4.245747E+03	2.427720E-03	2.159066E-05
4.247185E+03	2.390038E-03	2.125554E-05
4.247895E+03	2.375763E-03	2.112859E-05
4.248614E+03	2.386049E-03	2.122007E-05
4.250042E+03	2.419742E-03	2.151972E-05
4.250751E+03	2.453226E-03	2.181750E-05
4.251470E+03	2.465192E-03	2.192392E-05
4.252189E+03	2.507598E-03	2.230105E-05
4.255765E+03	2.553467E-03	2.270898E-05
4.256474E+03	2.616970E-03	2.327374E-05
4.257193E+03	2.644786E-03	2.352112E-05
4.257903E+03	2.666933E-03	2.371808E-05
4.258622E+03	2.702936E-03	2.403827E-05
4.259341E+03	2.711228E-03	2.411202E-05
4.260050E+03	2.729912E-03	2.427818E-05
4.260769E+03	2.778720E-03	2.471225E-05
4.261478E+03	2.838235E-03	2.524154E-05
4.262197E+03	2.852405E-03	2.536756E-05
4.263625E+03	2.844008E-03	2.529288E-05
4.264345E+03	2.851251E-03	2.535729E-05
4.265054E+03	2.853245E-03	2.537503E-05
4.267201E+03	2.828054E-03	2.515099E-05
4.267920E+03	2.870984E-03	2.553279E-05
4.268630E+03	2.893341E-03	2.573162E-05
4.270058E+03	2.915699E-03	2.593045E-05
4.270777E+03	2.904888E-03	2.583431E-05
4.271486E+03	2.927140E-03	2.603220E-05
4.272925E+03	2.897750E-03	2.577082E-05
4.273634E+03	2.864161E-03	2.547211E-05
4.274353E+03	2.862062E-03	2.545344E-05
4.275062E+03	2.897330E-03	2.576709E-05
4.275781E+03	2.925775E-03	2.602007E-05
4.276500E+03	2.928819E-03	2.604714E-05
4.277209E+03	2.934172E-03	2.609474E-05
4.277928E+03	2.930289E-03	2.606021E-05
4.278637E+03	2.926510E-03	2.602660E-05
4.279357E+03	2.937427E-03	2.612369E-05
4.281504E+03	2.889353E-03	2.569615E-05
4.282214E+03	2.874448E-03	2.556359E-05
4.282933E+03	2.838655E-03	2.524527E-05
4.283642E+03	2.830048E-03	2.516873E-05
4.284361E+03	2.803492E-03	2.493255E-05
4.285070E+03	2.809895E-03	2.498950E-05
4.285789E+03	2.808215E-03	2.497456E-05
4.286508E+03	2.766859E-03	2.460676E-05
4.287217E+03	2.764655E-03	2.458716E-05
4.287936E+03	2.757098E-03	2.451995E-05
4.288645E+03	2.720045E-03	2.419043E-05
4.289364E+03	2.650874E-03	2.357526E-05
4.290084E+03	2.655597E-03	2.361727E-05
4.290793E+03	2.638803E-03	2.346791E-05
4.291513E+03	2.657592E-03	2.363501E-05
4.292222E+03	2.660111E-03	2.365741E-05
4.292941E+03	2.653498E-03	2.359860E-05
4.293650E+03	2.608048E-03	2.319440E-05
4.295088E+03	2.592933E-03	2.305997E-05
4.295797E+03	2.546959E-03	2.265110E-05
4.296516E+03	2.514420E-03	2.236172E-05
4.297225E+03	2.447138E-03	2.176336E-05
4.299372E+03	2.420792E-03	2.152905E-05
4.300092E+03	2.362957E-03	2.101470E-05
4.300802E+03	2.339130E-03	2.080280E-05
4.302240E+03	2.331047E-03	2.073092E-05
4.302949E+03	2.313939E-03	2.057876E-05
4.303668E+03	2.298614E-03	2.044247E-05
4.304377E+03	2.275102E-03	2.023337E-05
4.305096E+03	2.272267E-03	2.020816E-05
4.305805E+03	2.253794E-03	2.004387E-05
4.306524E+03	2.246761E-03	1.998133E-05
4.307243E+03	2.235320E-03	1.987958E-05
4.307952E+03	2.224299E-03	1.978156E-05
4.308671E+03	2.218946E-03	1.973395E-05
4.309381E+03	2.230596E-03	1.983757E-05
4.310100E+03	2.250015E-03	2.001027E-05
4.310810E+03	2.257573E-03	2.007748E-05
4.311529E+03	2.254318E-03	2.004854E-05
4.312248E+03	2.256943E-03	2.007188E-05
4.312957E+03	2.231331E-03	1.984411E-05
4.313676E+03	2.240253E-03	1.992345E-05
4.314385E+03	2.195119E-03	1.952205E-05
4.315104E+03	2.216006E-03	1.970781E-05
4.315823E+03	2.221675E-03	1.975822E-05
4.317251E+03	2.229337E-03	1.982637E-05
4.317960E+03	2.211808E-03	1.967048E-05
4.320108E+03	2.212963E-03	1.968074E-05
4.320827E+03	2.220835E-03	1.975076E-05
4.321537E+03	2.220205E-03	1.974516E-05
4.322256E+03	2.215377E-03	1.970222E-05
4.322965E+03	2.201311E-03	1.957713E-05
4.323684E+03	2.244137E-03	1.995799E-05
4.324403E+03	2.277306E-03	2.025298E-05
4.325112E+03	2.302182E-03	2.047421E-05
4.325831E+03	2.323175E-03	2.066091E-05
4.326540E+03	2.374083E-03	2.111365E-05
4.327259E+03	2.393396E-03	2.128541E-05
4.327969E+03	2.417328E-03	2.149825E-05
4.328688E+03	2.458579E-03	2.186511E-05
4.329407E+03	2.519563E-03	2.240746E-05
4.330116E+03	2.501824E-03	2.224970E-05
4.330835E+03	2.481566E-03	2.206954E-05
4.331545E+03	2.458894E-03	2.186791E-05
4.332264E+03	2.452072E-03	2.180723E-05
4.332983E+03	2.481881E-03	2.207234E-05
4.333692E+03	2.494162E-03	2.218156E-05
4.334411E+03	2.475374E-03	2.201447E-05
4.335120E+03	2.500880E-03	2.224131E-05
4.336548E+03	2.510746E-03	2.232905E-05
4.337268E+03	2.548638E-03	2.266604E-05
4.337987E+03	2.547064E-03	2.265204E-05
4.338696E+03	2.570261E-03	2.285834E-05
4.339415E+03	2.601960E-03	2.314025E-05
4.340124E+03	2.626102E-03	2.335496E-05
4.340843E+03	2.660951E-03	2.366488E-05
4.341562E+03	2.632085E-03	2.340817E-05
4.342272E+03	2.669347E-03	2.373955E-05
4.342991E+03	2.650874E-03	2.357526E-05
4.343700E+03	2.666409E-03	2.371342E-05
4.344419E+03	2.695589E-03	2.397293E-05
4.345128E+03	2.737365E-03	2.434446E-05
4.345847E+03	2.760982E-03	2.455449E-05
4.346567E+03	2.762241E-03	2.456569E-05
4.347276E+03	2.745027E-03	2.441260E-05
4.347995E+03	2.753844E-03	2.449101E-05
4.348704E+03	2.776621E-03	2.469358E-05
4.349423E+03	2.763815E-03	2.457969E-05
4.350142E+03	2.798349E-03	2.488681E-05
4.350851E+03	2.806326E-03	2.495776E-05
4.351570E+03	2.806221E-03	2.495682E-05
4.355147E+03	2.845478E-03	2.530595E-05
4.356575E+03	2.871719E-03	2.553932E-05
4.357284E+03	2.884630E-03	2.565414E-05
4.358003E+03	2.899639E-03	2.578763E-05
4.358722E+03	2.907407E-03	2.585671E-05
4.359431E+03	2.916013E-03	2.593325E-05
4.360150E+03	2.889668E-03	2.569895E-05
4.360859E+03	2.871929E-03	2.554119E-05
4.362287E+03	2.865211E-03	2.548144E-05
4.363726E+03	2.859018E-03	2.542637E-05
4.364436E+03	2.901528E-03	2.580443E-05
4.365155E+03	2.937741E-03	2.612648E-05
4.365864E+03	2.924831E-03	2.601167E-05
4.366583E+03	2.935957E-03	2.611061E-05
4.367302E+03	2.934172E-03	2.609474E-05
4.368011E+03	2.958524E-03	2.631132E-05
4.368730E+03	2.924621E-03	2.600980E-05
4.369439E+03	2.958209E-03	2.630851E-05
4.370158E+03	2.946349E-03	2.620303E-05
4.370867E+03	2.938896E-03	2.613675E-05
4.371586E+03	2.950652E-03	2.624130E-05
4.372305E+03	2.914020E-03	2.591552E-05
4.373014E+03	2.934487E-03	2.609755E-05
4.373733E+03	2.947713E-03	2.621517E-05
4.374444E+03	2.926615E-03	2.602754E-05
4.375163E+03	2.906567E-03	2.584924E-05
4.375882E+03	2.923466E-03	2.599953E-05
4.376591E+03	2.949707E-03	2.623290E-05
4.377310E+03	2.946454E-03	2.620397E-05
4.378019E+03	2.947188E-03	2.621050E-05
4.378738E+03	2.937322E-03	2.612275E-05
4.379447E+03	2.929659E-03	2.605461E-05
4.380166E+03	2.954325E-03	2.627397E-05
4.380885E+03	2.958944E-03	2.631505E-05
4.381594E+03	2.984241E-03	2.654002E-05
4.382314E+03	2.961254E-03	2.633559E-05
4.383023E+03	2.949077E-03	2.622730E-05
4.383742E+03	2.942885E-03	2.617223E-05
4.384461E+03	2.964192E-03	2.636172E-05
4.385171E+03	2.952436E-03	2.625717E-05
4.385890E+03	2.922522E-03	2.599113E-05
4.386599E+03	2.909821E-03	2.587818E-05
4.388027E+03	2.883685E-03	2.564574E-05
4.388746E+03	2.857549E-03	2.541330E-05
4.389465E+03	2.833722E-03	2.520140E-05
4.390893E+03	2.821021E-03	2.508845E-05
4.391603E+03	2.810524E-03	2.499509E-05
4.392322E+03	2.803072E-03	2.492882E-05
4.393041E+03	2.803177E-03	2.492975E-05
4.393750E+03	2.790791E-03	2.481960E-05
4.394469E+03	2.754158E-03	2.449381E-05
4.395179E+03	2.711543E-03	2.411482E-05
4.395898E+03	2.693804E-03	2.395706E-05
4.396607E+03	2.661266E-03	2.366768E-05
4.397326E+03	2.641217E-03	2.348938E-05
4.398045E+03	2.621694E-03	2.331575E-05
4.398754E+03	2.581912E-03	2.296196E-05
