#wls	flux	fluxerr
1.570938E+03	1.871471E-16	2.566167E-18
1.610211E+03	2.007456E-16	2.749095E-18
1.649485E+03	2.153547E-16	2.945261E-18
1.688758E+03	2.310805E-16	3.156034E-18
1.728031E+03	2.479504E-16	3.381698E-18
1.767305E+03	2.659991E-16	3.622631E-18
1.806578E+03	2.851112E-16	3.877161E-18
1.845852E+03	3.051216E-16	4.142948E-18
1.885125E+03	3.257337E-16	4.415877E-18
1.924399E+03	3.465668E-16	4.690718E-18
1.963672E+03	3.672283E-16	4.962109E-18
2.002946E+03	3.877203E-16	5.230047E-18
2.042219E+03	4.088658E-16	5.505586E-18
2.081492E+03	4.327491E-16	5.816645E-18
2.120766E+03	4.627700E-16	6.208587E-18
2.160039E+03	5.026104E-16	6.730187E-18
2.199313E+03	5.548097E-16	7.414536E-18
2.238586E+03	6.200069E-16	8.269066E-18
2.277860E+03	6.971632E-16	9.278748E-18
2.317133E+03	7.848402E-16	1.042331E-17
2.356406E+03	8.817169E-16	1.168413E-17
2.395680E+03	9.869353E-16	1.304884E-17
2.434953E+03	1.100209E-15	1.451265E-17
2.474227E+03	1.221435E-15	1.607318E-17
2.513500E+03	1.350499E-15	1.772786E-17
2.552774E+03	1.487362E-15	1.947509E-17
2.592047E+03	1.631487E-15	2.130671E-17
2.631321E+03	1.782077E-15	2.321120E-17
2.670594E+03	1.937613E-15	2.516775E-17
2.709867E+03	2.096174E-15	2.715051E-17
2.749141E+03	2.254920E-15	2.912198E-17
2.788414E+03	2.410414E-15	3.103743E-17
2.827688E+03	2.558549E-15	3.284404E-17
2.866961E+03	2.694656E-15	3.448247E-17
2.906235E+03	2.813656E-15	3.588893E-17
2.945508E+03	2.910209E-15	3.699729E-17
2.955326E+03	2.930174E-15	3.721963E-17
2.965145E+03	2.948338E-15	3.741849E-17
2.974963E+03	2.964535E-15	3.759184E-17
2.984782E+03	2.978804E-15	3.774022E-17
2.994600E+03	2.991000E-15	3.786185E-17
3.004418E+03	3.001047E-15	3.795584E-17
3.014237E+03	3.008848E-15	3.802103E-17
3.024055E+03	3.014434E-15	3.805788E-17
3.033873E+03	3.017644E-15	3.806444E-17
3.043692E+03	3.018398E-15	3.803979E-17
3.053510E+03	3.016835E-15	3.798574E-17
3.063328E+03	3.012903E-15	3.790173E-17
3.073147E+03	3.006501E-15	3.778656E-17
3.082965E+03	2.997534E-15	3.763914E-17
3.092784E+03	2.985918E-15	3.745850E-17
3.102602E+03	2.971636E-15	3.724451E-17
3.112420E+03	2.954567E-15	3.699576E-17
3.122239E+03	2.934713E-15	3.671238E-17
3.132057E+03	2.912032E-15	3.639393E-17
3.141875E+03	2.886494E-15	3.604015E-17
3.151694E+03	2.858138E-15	3.565165E-17
3.161512E+03	2.826944E-15	3.522828E-17
3.171330E+03	2.793330E-15	3.477533E-17
3.181149E+03	2.757505E-15	3.429552E-17
3.190967E+03	2.720053E-15	3.379618E-17
3.200785E+03	2.681535E-15	3.328434E-17
3.210604E+03	2.642703E-15	3.276939E-17
3.220422E+03	2.604299E-15	3.226051E-17
3.230241E+03	2.567129E-15	3.176770E-17
3.240059E+03	2.532040E-15	3.130137E-17
3.249877E+03	2.499549E-15	3.086784E-17
3.259696E+03	2.470149E-15	3.047309E-17
3.269514E+03	2.444174E-15	3.012114E-17
3.279332E+03	2.421598E-15	2.981152E-17
3.289151E+03	2.402394E-15	2.954379E-17
3.298969E+03	2.386358E-15	2.931531E-17
3.308787E+03	2.373178E-15	2.912211E-17
3.318606E+03	2.362448E-15	2.895912E-17
3.328424E+03	2.353733E-15	2.882093E-17
3.338243E+03	2.346562E-15	2.870168E-17
3.348061E+03	2.340499E-15	2.859599E-17
3.357879E+03	2.335118E-15	2.849862E-17
3.367698E+03	2.329934E-15	2.840362E-17
3.377516E+03	2.324714E-15	2.830816E-17
3.387334E+03	2.319216E-15	2.820928E-17
3.397153E+03	2.313174E-15	2.810377E-17
3.406971E+03	2.306559E-15	2.799130E-17
3.416789E+03	2.299341E-15	2.787155E-17
3.426608E+03	2.291578E-15	2.774522E-17
3.436426E+03	2.283376E-15	2.761363E-17
3.446244E+03	2.274971E-15	2.747965E-17
3.456063E+03	2.266523E-15	2.734521E-17
3.465881E+03	2.258345E-15	2.721410E-17
3.475700E+03	2.250730E-15	2.708984E-17
3.485518E+03	2.243900E-15	2.697506E-17
3.495336E+03	2.238177E-15	2.687360E-17
3.505155E+03	2.233719E-15	2.678730E-17
3.514973E+03	2.230623E-15	2.671729E-17
3.524791E+03	2.229027E-15	2.666513E-17
3.534610E+03	2.228937E-15	2.663085E-17
3.544428E+03	2.230308E-15	2.661382E-17
3.554246E+03	2.233085E-15	2.661334E-17
3.564065E+03	2.237096E-15	2.662730E-17
3.573883E+03	2.242067E-15	2.665236E-17
3.583702E+03	2.247648E-15	2.668435E-17
3.593520E+03	2.253457E-15	2.671869E-17
3.603338E+03	2.258982E-15	2.674931E-17
3.613157E+03	2.263831E-15	2.677159E-17
3.622975E+03	2.267629E-15	2.678114E-17
3.632793E+03	2.269952E-15	2.677299E-17
3.642612E+03	2.270541E-15	2.674416E-17
3.652430E+03	2.269218E-15	2.669264E-17
3.662248E+03	2.265784E-15	2.661620E-17
3.672067E+03	2.260202E-15	2.651448E-17
3.681885E+03	2.252545E-15	2.638844E-17
3.691703E+03	2.242904E-15	2.623927E-17
3.701522E+03	2.231573E-15	2.607050E-17
3.711340E+03	2.218942E-15	2.588674E-17
3.721159E+03	2.205400E-15	2.569261E-17
3.730977E+03	2.191449E-15	2.549399E-17
3.740795E+03	2.177575E-15	2.529654E-17
3.750614E+03	2.164222E-15	2.510544E-17
3.760432E+03	2.151851E-15	2.492598E-17
3.770250E+03	2.140759E-15	2.476155E-17
3.780069E+03	2.131107E-15	2.461396E-17
3.789887E+03	2.122935E-15	2.448359E-17
3.799705E+03	2.116018E-15	2.436777E-17
3.809524E+03	2.109921E-15	2.426147E-17
3.819342E+03	2.104125E-15	2.415865E-17
3.829161E+03	2.097954E-15	2.405156E-17
3.838979E+03	2.090710E-15	2.393223E-17
3.848797E+03	2.081931E-15	2.379544E-17
3.858616E+03	2.071321E-15	2.363790E-17
3.868434E+03	2.058780E-15	2.345856E-17
3.878252E+03	2.044626E-15	2.326115E-17
3.888071E+03	2.029377E-15	2.305163E-17
3.897889E+03	2.013653E-15	2.283711E-17
3.907707E+03	1.998145E-15	2.262544E-17
3.917526E+03	1.983537E-15	2.242433E-17
3.927344E+03	1.970265E-15	2.223867E-17
3.937162E+03	1.958605E-15	2.207150E-17
3.946981E+03	1.948615E-15	2.192338E-17
3.956799E+03	1.940089E-15	2.179191E-17
3.966618E+03	1.932789E-15	2.167435E-17
3.976436E+03	1.926284E-15	2.156581E-17
3.986254E+03	1.920160E-15	2.146161E-17
3.996073E+03	1.914051E-15	2.135765E-17
4.005891E+03	1.907619E-15	2.125018E-17
4.015709E+03	1.900575E-15	2.113597E-17
4.025528E+03	1.892690E-15	2.101255E-17
4.035346E+03	1.883821E-15	2.087837E-17
4.045164E+03	1.873740E-15	2.073096E-17
4.054983E+03	1.862356E-15	2.056940E-17
4.064801E+03	1.849592E-15	2.039292E-17
4.074620E+03	1.835378E-15	2.020082E-17
4.084438E+03	1.819848E-15	1.999466E-17
4.094256E+03	1.803213E-15	1.977685E-17
4.104075E+03	1.785783E-15	1.955083E-17
4.113893E+03	1.768126E-15	1.932287E-17
4.123711E+03	1.750802E-15	1.909910E-17
4.133530E+03	1.734409E-15	1.888602E-17
4.143348E+03	1.719518E-15	1.868978E-17
4.153166E+03	1.706572E-15	1.851510E-17
4.162985E+03	1.695759E-15	1.836389E-17
4.172803E+03	1.687078E-15	1.823605E-17
4.182622E+03	1.680288E-15	1.812881E-17
4.192440E+03	1.674854E-15	1.803632E-17
4.202258E+03	1.670208E-15	1.795241E-17
4.212077E+03	1.665681E-15	1.786982E-17
4.221895E+03	1.660660E-15	1.778200E-17
4.231713E+03	1.654831E-15	1.768563E-17
4.241532E+03	1.648040E-15	1.757912E-17
4.251350E+03	1.640416E-15	1.746389E-17
4.261168E+03	1.632366E-15	1.734432E-17
4.270987E+03	1.624461E-15	1.722652E-17
4.280805E+03	1.617160E-15	1.711531E-17
4.290623E+03	1.610945E-15	1.701576E-17
4.300442E+03	1.606093E-15	1.693073E-17
4.310260E+03	1.602677E-15	1.686089E-17
4.320079E+03	1.600719E-15	1.680639E-17
4.329897E+03	1.600088E-15	1.676576E-17
4.339715E+03	1.600520E-15	1.673615E-17
4.349534E+03	1.601775E-15	1.671502E-17
4.359352E+03	1.603569E-15	1.669932E-17
4.369170E+03	1.605551E-15	1.668539E-17
4.378989E+03	1.607495E-15	1.667087E-17
4.388807E+03	1.609144E-15	1.665310E-17
4.398625E+03	1.610263E-15	1.662968E-17
4.408444E+03	1.610727E-15	1.659935E-17
4.418262E+03	1.610437E-15	1.656115E-17
4.428081E+03	1.609315E-15	1.651431E-17
4.437899E+03	1.607368E-15	1.645897E-17
4.447717E+03	1.604601E-15	1.639524E-17
4.457536E+03	1.601086E-15	1.632390E-17
4.467354E+03	1.596885E-15	1.624562E-17
4.477172E+03	1.592092E-15	1.616143E-17
4.486991E+03	1.586780E-15	1.607211E-17
4.496809E+03	1.581081E-15	1.597901E-17
4.506627E+03	1.575058E-15	1.588280E-17
4.516446E+03	1.568719E-15	1.578360E-17
4.526264E+03	1.562150E-15	1.568227E-17
4.536082E+03	1.555310E-15	1.557845E-17
4.545901E+03	1.548111E-15	1.547125E-17
4.555719E+03	1.540535E-15	1.536054E-17
4.565538E+03	1.532503E-15	1.524556E-17
4.575356E+03	1.523883E-15	1.512502E-17
4.585174E+03	1.514736E-15	1.499957E-17
4.594993E+03	1.505101E-15	1.486966E-17
4.604811E+03	1.495075E-15	1.473625E-17
4.614629E+03	1.484956E-15	1.460231E-17
4.624448E+03	1.475057E-15	1.447093E-17
4.634266E+03	1.465713E-15	1.434537E-17
4.644084E+03	1.457352E-15	1.422977E-17
4.653903E+03	1.450366E-15	1.412789E-17
4.663721E+03	1.445040E-15	1.404240E-17
4.673540E+03	1.441637E-15	1.397574E-17
4.683358E+03	1.440321E-15	1.392937E-17
4.693176E+03	1.441042E-15	1.390265E-17
4.702995E+03	1.443749E-15	1.389496E-17
4.712813E+03	1.448259E-15	1.390440E-17
4.722631E+03	1.454164E-15	1.392693E-17
4.732450E+03	1.461186E-15	1.395980E-17
4.742268E+03	1.468873E-15	1.399864E-17
4.752086E+03	1.476786E-15	1.403923E-17
4.761905E+03	1.484600E-15	1.407844E-17
4.771723E+03	1.492068E-15	1.411398E-17
4.781541E+03	1.498917E-15	1.414329E-17
4.791360E+03	1.505110E-15	1.416606E-17
4.801178E+03	1.510630E-15	1.418219E-17
4.810997E+03	1.515444E-15	1.419140E-17
4.820815E+03	1.519627E-15	1.419447E-17
4.830633E+03	1.523192E-15	1.419156E-17
4.840452E+03	1.526094E-15	1.418229E-17
4.850270E+03	1.528333E-15	1.416670E-17
4.860088E+03	1.529866E-15	1.414447E-17
4.869907E+03	1.530525E-15	1.411409E-17
4.879725E+03	1.530365E-15	1.407614E-17
4.889543E+03	1.529389E-15	1.403069E-17
4.899362E+03	1.527599E-15	1.397784E-17
4.909180E+03	1.525191E-15	1.391943E-17
4.918999E+03	1.522384E-15	1.385751E-17
4.928817E+03	1.519317E-15	1.379335E-17
4.938635E+03	1.516267E-15	1.372950E-17
4.948454E+03	1.513406E-15	1.366752E-17
4.958272E+03	1.510827E-15	1.360823E-17
4.968090E+03	1.508601E-15	1.355224E-17
4.977909E+03	1.506643E-15	1.349878E-17
4.987727E+03	1.504791E-15	1.344639E-17
4.997545E+03	1.502980E-15	1.339448E-17
5.007364E+03	1.501006E-15	1.334125E-17
5.017182E+03	1.498596E-15	1.328427E-17
5.027000E+03	1.495778E-15	1.322383E-17
5.036819E+03	1.492464E-15	1.315921E-17
5.046637E+03	1.488540E-15	1.308941E-17
5.056456E+03	1.484126E-15	1.301556E-17
5.066274E+03	1.479307E-15	1.293844E-17
5.076092E+03	1.474069E-15	1.285793E-17
5.085911E+03	1.468552E-15	1.277532E-17
5.095729E+03	1.462804E-15	1.269102E-17
5.105547E+03	1.456836E-15	1.260516E-17
5.115366E+03	1.450657E-15	1.251784E-17
5.125184E+03	1.444277E-15	1.242914E-17
5.135002E+03	1.437612E-15	1.233839E-17
5.144821E+03	1.430740E-15	1.224626E-17
5.154639E+03	1.423635E-15	1.215256E-17
5.164458E+03	1.416298E-15	1.205729E-17
5.174276E+03	1.408936E-15	1.196226E-17
5.184094E+03	1.401674E-15	1.186851E-17
5.193913E+03	1.394579E-15	1.177661E-17
5.203731E+03	1.387860E-15	1.168832E-17
5.213549E+03	1.381602E-15	1.160433E-17
5.223368E+03	1.375794E-15	1.152450E-17
5.233186E+03	1.370551E-15	1.144978E-17
5.243004E+03	1.365894E-15	1.138032E-17
5.252823E+03	1.361744E-15	1.131540E-17
5.262641E+03	1.358097E-15	1.125498E-17
5.272459E+03	1.354872E-15	1.119836E-17
5.282278E+03	1.351836E-15	1.114359E-17
5.292096E+03	1.348855E-15	1.108955E-17
5.301915E+03	1.345610E-15	1.103364E-17
5.311733E+03	1.341735E-15	1.097289E-17
5.321551E+03	1.337088E-15	1.090616E-17
5.331370E+03	1.331401E-15	1.083137E-17
5.341188E+03	1.324455E-15	1.074676E-17
5.351006E+03	1.316395E-15	1.065363E-17
5.360825E+03	1.307337E-15	1.055294E-17
5.370643E+03	1.297564E-15	1.044706E-17
5.380461E+03	1.287866E-15	1.034236E-17
5.390280E+03	1.278962E-15	1.024461E-17
5.400098E+03	1.270992E-15	1.015486E-17
5.409917E+03	1.263785E-15	1.007171E-17
5.419735E+03	1.256834E-15	9.991054E-18
5.429553E+03	1.249675E-15	9.909219E-18
5.439372E+03	1.242294E-15	9.826103E-18
5.449190E+03	1.234803E-15	9.742588E-18
5.459008E+03	1.227238E-15	9.658976E-18
5.468827E+03	1.219708E-15	9.576117E-18
5.478645E+03	1.212262E-15	9.494404E-18
5.488463E+03	1.204825E-15	9.413240E-18
5.498282E+03	1.197305E-15	9.331898E-18
5.508100E+03	1.189534E-15	9.249087E-18
5.517919E+03	1.181264E-15	9.162882E-18
5.527737E+03	1.172281E-15	9.071675E-18
5.537555E+03	1.162366E-15	8.973792E-18
5.547374E+03	1.151359E-15	8.868064E-18
5.557192E+03	1.139441E-15	8.755928E-18
5.567010E+03	1.126874E-15	8.639444E-18
5.576829E+03	1.113958E-15	8.520934E-18
5.586647E+03	1.101161E-15	8.403990E-18
5.596465E+03	1.088939E-15	8.292069E-18
5.606284E+03	1.077696E-15	8.188210E-18
5.616102E+03	1.067829E-15	8.095373E-18
5.625920E+03	1.059613E-15	8.015559E-18
5.635739E+03	1.053199E-15	7.949824E-18
5.645557E+03	1.048640E-15	7.898486E-18
5.655376E+03	1.045855E-15	7.860845E-18
5.665194E+03	1.044573E-15	7.834781E-18
5.675012E+03	1.044475E-15	7.817843E-18
5.684831E+03	1.045120E-15	7.806683E-18
5.694649E+03	1.045943E-15	7.797066E-18
5.704467E+03	1.046563E-15	7.786145E-18
5.714286E+03	1.046554E-15	7.770770E-18
5.724104E+03	1.045508E-15	7.747952E-18
5.733922E+03	1.043266E-15	7.716572E-18
5.743741E+03	1.039786E-15	7.676360E-18
5.753559E+03	1.035068E-15	7.627373E-18
5.763378E+03	1.029396E-15	7.571757E-18
5.773196E+03	1.023121E-15	7.512118E-18
5.783014E+03	1.016539E-15	7.450663E-18
5.792833E+03	1.009877E-15	7.389053E-18
5.802651E+03	1.003302E-15	7.328517E-18
5.812469E+03	9.968904E-16	7.269598E-18
5.822288E+03	9.906393E-16	7.212278E-18
5.832106E+03	9.844901E-16	7.156122E-18
5.841924E+03	9.784112E-16	7.100898E-18
5.851743E+03	9.724117E-16	7.046666E-18
5.861561E+03	9.665590E-16	6.993913E-18
5.871379E+03	9.608627E-16	6.942702E-18
5.881198E+03	9.553638E-16	6.893325E-18
5.891016E+03	9.500617E-16	6.845770E-18
5.900835E+03	9.449250E-16	6.799806E-18
5.910653E+03	9.399625E-16	6.755491E-18
5.920471E+03	9.351215E-16	6.712444E-18
5.930290E+03	9.303752E-16	6.670467E-18
5.940108E+03	9.256739E-16	6.629203E-18
5.949926E+03	9.210045E-16	6.588558E-18
5.959745E+03	9.162919E-16	6.547995E-18
5.969563E+03	9.115304E-16	6.507473E-18
5.979381E+03	9.066676E-16	6.466619E-18
5.989200E+03	9.016685E-16	6.425187E-18
5.999018E+03	8.965296E-16	6.383154E-18
6.008837E+03	8.912636E-16	6.340612E-18
6.018655E+03	8.858669E-16	6.297536E-18
6.028473E+03	8.803894E-16	6.254281E-18
6.038292E+03	8.748896E-16	6.211263E-18
6.048110E+03	8.693961E-16	6.168683E-18
6.057928E+03	8.639155E-16	6.126586E-18
6.067747E+03	8.584493E-16	6.084982E-18
6.077565E+03	8.529539E-16	6.043559E-18
6.087383E+03	8.474118E-16	6.002191E-18
6.097202E+03	8.417831E-16	5.960593E-18
6.107020E+03	8.360088E-16	5.918347E-18
6.116838E+03	8.300947E-16	5.875491E-18
6.126657E+03	8.240659E-16	5.832200E-18
6.136475E+03	8.179508E-16	5.788672E-18
6.146294E+03	8.119223E-16	5.746126E-18
6.156112E+03	8.062311E-16	5.706334E-18
6.165930E+03	8.010412E-16	5.670452E-18
6.175749E+03	7.964078E-16	5.638872E-18
6.185567E+03	7.923914E-16	5.612021E-18
6.195385E+03	7.889211E-16	5.589399E-18
6.205204E+03	7.858388E-16	5.569889E-18
6.215022E+03	7.828947E-16	5.551722E-18
6.224840E+03	7.798723E-16	5.533363E-18
6.234659E+03	7.766037E-16	5.513618E-18
6.244477E+03	7.729438E-16	5.491453E-18
6.254296E+03	7.688433E-16	5.466508E-18
6.264114E+03	7.645296E-16	5.440391E-18
6.273932E+03	7.603150E-16	5.415314E-18
6.283751E+03	7.564558E-16	5.393094E-18
6.293569E+03	7.530343E-16	5.374314E-18
6.303387E+03	7.501034E-16	5.359352E-18
6.313206E+03	7.476106E-16	5.347836E-18
6.323024E+03	7.453628E-16	5.338384E-18
6.332842E+03	7.431298E-16	5.329344E-18
6.342661E+03	7.407929E-16	5.319855E-18
6.352479E+03	7.384722E-16	5.310769E-18
6.362297E+03	7.364136E-16	5.303850E-18
6.372116E+03	7.347746E-16	5.300234E-18
6.381934E+03	7.333402E-16	5.298374E-18
6.391753E+03	7.319407E-16	5.297042E-18
6.401571E+03	7.307006E-16	5.297135E-18
6.411389E+03	7.301327E-16	5.302375E-18
6.421208E+03	7.303893E-16	5.313891E-18
6.431026E+03	7.308425E-16	5.327133E-18
6.440844E+03	7.310247E-16	5.338690E-18
6.450663E+03	7.308380E-16	5.347829E-18
6.460481E+03	7.303071E-16	5.354709E-18
6.470299E+03	7.294261E-16	5.359266E-18
6.480118E+03	7.282343E-16	5.361767E-18
6.489936E+03	7.267827E-16	5.362567E-18
6.499755E+03	7.251206E-16	5.362012E-18
6.509573E+03	7.233447E-16	5.360802E-18
6.519391E+03	7.215086E-16	5.359322E-18
6.529210E+03	7.195918E-16	5.357408E-18
6.539028E+03	7.175674E-16	5.354850E-18
6.548846E+03	7.153957E-16	5.351338E-18
6.558665E+03	7.130365E-16	5.346555E-18
6.568483E+03	7.104494E-16	5.340182E-18
6.578301E+03	7.075880E-16	5.331848E-18
6.588120E+03	7.045301E-16	5.322117E-18
6.597938E+03	7.013942E-16	5.311871E-18
6.607757E+03	6.982344E-16	5.301506E-18
6.617575E+03	6.951247E-16	5.291579E-18
6.627393E+03	6.921297E-16	5.282578E-18
6.637212E+03	6.892561E-16	5.274554E-18
6.647030E+03	6.864789E-16	5.267317E-18
6.656848E+03	6.837440E-16	5.260451E-18
6.666667E+03	6.809883E-16	5.253463E-18
6.676485E+03	6.781454E-16	5.245833E-18
6.686303E+03	6.751770E-16	5.237253E-18
6.696122E+03	6.720396E-16	5.227371E-18
6.705940E+03	6.686977E-16	5.215892E-18
6.715758E+03	6.651551E-16	5.202826E-18
6.725577E+03	6.614216E-16	5.188232E-18
6.735395E+03	6.575779E-16	5.172726E-18
6.745214E+03	6.537169E-16	5.157028E-18
6.755032E+03	6.499183E-16	5.141760E-18
6.764850E+03	6.463195E-16	5.128012E-18
6.774669E+03	6.429956E-16	5.116390E-18
6.784487E+03	6.399911E-16	5.107263E-18
6.794305E+03	6.373786E-16	5.101229E-18
6.804124E+03	6.351761E-16	5.098456E-18
6.813942E+03	6.333837E-16	5.098968E-18
6.823760E+03	6.320117E-16	5.102875E-18
6.833579E+03	6.310296E-16	5.109953E-18
6.843397E+03	6.304022E-16	5.119944E-18
6.853216E+03	6.300953E-16	5.132589E-18
6.863034E+03	6.300701E-16	5.147593E-18
6.872852E+03	6.302714E-16	5.164519E-18
6.882671E+03	6.306814E-16	5.183236E-18
6.892489E+03	6.312313E-16	5.203189E-18
6.902307E+03	6.318723E-16	5.223981E-18
6.912126E+03	6.325637E-16	5.245280E-18
6.921944E+03	6.332331E-16	5.266485E-18
6.931762E+03	6.338164E-16	5.287056E-18
6.941581E+03	6.342548E-16	5.306493E-18
6.951399E+03	6.344922E-16	5.324312E-18
6.961217E+03	6.344916E-16	5.340183E-18
6.971036E+03	6.341941E-16	5.353590E-18
6.980854E+03	6.335803E-16	5.364343E-18
6.990673E+03	6.326582E-16	5.372483E-18
7.000491E+03	6.314426E-16	5.378112E-18
7.010309E+03	6.299505E-16	5.381348E-18
7.020128E+03	6.282405E-16	5.382672E-18
7.029946E+03	6.263544E-16	5.382423E-18
7.039764E+03	6.243913E-16	5.381439E-18
7.049583E+03	6.224121E-16	5.380238E-18
7.059401E+03	6.204925E-16	5.379474E-18
7.069219E+03	6.186806E-16	5.379567E-18
7.079038E+03	6.170424E-16	5.381098E-18
7.088856E+03	6.155764E-16	5.384066E-18
7.098675E+03	6.142926E-16	5.388571E-18
7.108493E+03	6.131523E-16	5.394282E-18
7.118311E+03	6.121355E-16	5.401033E-18
7.128130E+03	6.111828E-16	5.408308E-18
7.137948E+03	6.102440E-16	5.415661E-18
7.147766E+03	6.093029E-16	5.422950E-18
7.157585E+03	6.083279E-16	5.429889E-18
7.167403E+03	6.073265E-16	5.436543E-18
7.177221E+03	6.062964E-16	5.442886E-18
7.187040E+03	6.052818E-16	5.449314E-18
7.196858E+03	6.043263E-16	5.456219E-18
7.206676E+03	6.034384E-16	5.463681E-18
7.216495E+03	6.026474E-16	5.471970E-18
7.226313E+03	6.019331E-16	5.480908E-18
7.236132E+03	6.012901E-16	5.490452E-18
7.245950E+03	6.006637E-16	5.500103E-18
7.255768E+03	5.999923E-16	5.509298E-18
7.265587E+03	5.992156E-16	5.517473E-18
7.275405E+03	5.982500E-16	5.523851E-18
7.285223E+03	5.970214E-16	5.527728E-18
7.295042E+03	5.954723E-16	5.528549E-18
7.304860E+03	5.935412E-16	5.525717E-18
7.314678E+03	5.911736E-16	5.518694E-18
7.324497E+03	5.883031E-16	5.506822E-18
7.334315E+03	5.849020E-16	5.489802E-18
7.344134E+03	5.809204E-16	5.467126E-18
7.353952E+03	5.763369E-16	5.438545E-18
7.363770E+03	5.711476E-16	5.403977E-18
7.373589E+03	5.653724E-16	5.363564E-18
7.383407E+03	5.591018E-16	5.318124E-18
7.393225E+03	5.523899E-16	5.268134E-18
7.403044E+03	5.453440E-16	5.214589E-18
7.412862E+03	5.381009E-16	5.158773E-18
7.422680E+03	5.308073E-16	5.102083E-18
7.432499E+03	5.235705E-16	5.045551E-18
7.442317E+03	5.165697E-16	4.990910E-18
7.452135E+03	5.099504E-16	4.939589E-18
7.461954E+03	5.038386E-16	4.892840E-18
7.471772E+03	4.983232E-16	4.851568E-18
7.481591E+03	4.934869E-16	4.816623E-18
7.491409E+03	4.893144E-16	4.787905E-18
7.501227E+03	4.857581E-16	4.764999E-18
7.511046E+03	4.827424E-16	4.747205E-18
7.520864E+03	4.801046E-16	4.732958E-18
7.530682E+03	4.776941E-16	4.720799E-18
7.540501E+03	4.753400E-16	4.709050E-18
7.550319E+03	4.728714E-16	4.696019E-18
7.560137E+03	4.701808E-16	4.680627E-18
7.569956E+03	4.671983E-16	4.662161E-18
7.579774E+03	4.638503E-16	4.639863E-18
7.589593E+03	4.601793E-16	4.614135E-18
7.599411E+03	4.562125E-16	4.585224E-18
7.609229E+03	4.519968E-16	4.553586E-18
7.619048E+03	4.476233E-16	4.520122E-18
