#wls	flux	fluxerr
1.570938E+03	6.602403E-17	2.306702E-18
1.610211E+03	7.036361E-17	2.443015E-18
1.649485E+03	7.497378E-17	2.586408E-18
1.688758E+03	7.987736E-17	2.737406E-18
1.728031E+03	8.507500E-17	2.895754E-18
1.767305E+03	9.058095E-17	3.061639E-18
1.806578E+03	9.633144E-17	3.232611E-18
1.845852E+03	1.022661E-16	3.406380E-18
1.885125E+03	1.082729E-16	3.579007E-18
1.924399E+03	1.142251E-16	3.746174E-18
1.963672E+03	1.200045E-16	3.903970E-18
2.002946E+03	1.256181E-16	4.052653E-18
2.042219E+03	1.313353E-16	4.200870E-18
2.081492E+03	1.378536E-16	4.370550E-18
2.120766E+03	1.462449E-16	4.594563E-18
2.160039E+03	1.576863E-16	4.907776E-18
2.199313E+03	1.729786E-16	5.331982E-18
2.238586E+03	1.923346E-16	5.869934E-18
2.277860E+03	2.154673E-16	6.508887E-18
2.317133E+03	2.418694E-16	7.229724E-18
2.356406E+03	2.711171E-16	8.016308E-18
2.395680E+03	3.029211E-16	8.856876E-18
2.434953E+03	3.371269E-16	9.743840E-18
2.474227E+03	3.736571E-16	1.067193E-17
2.513500E+03	4.124298E-16	1.163577E-17
2.552774E+03	4.533590E-16	1.262989E-17
2.592047E+03	4.962362E-16	1.364551E-17
2.631321E+03	5.407068E-16	1.467010E-17
2.670594E+03	5.862775E-16	1.568791E-17
2.709867E+03	6.322052E-16	1.667728E-17
2.749141E+03	6.775162E-16	1.761168E-17
2.788414E+03	7.209753E-16	1.845942E-17
2.827688E+03	7.611170E-16	1.918500E-17
2.866961E+03	7.964956E-16	1.975588E-17
2.906235E+03	8.257000E-16	2.014288E-17
2.945508E+03	8.473919E-16	2.032108E-17
2.955326E+03	8.514776E-16	2.033016E-17
2.965145E+03	8.550085E-16	2.032492E-17
2.974963E+03	8.579158E-16	2.030389E-17
2.984782E+03	8.602325E-16	2.026805E-17
2.994600E+03	8.619164E-16	2.021660E-17
3.004418E+03	8.629450E-16	2.014921E-17
3.014237E+03	8.633104E-16	2.006591E-17
3.024055E+03	8.630043E-16	1.996673E-17
3.033873E+03	8.619982E-16	1.985122E-17
3.043692E+03	8.602709E-16	1.971913E-17
3.053510E+03	8.578616E-16	1.957159E-17
3.063328E+03	8.547576E-16	1.940854E-17
3.073147E+03	8.509485E-16	1.922996E-17
3.082965E+03	8.464077E-16	1.903551E-17
3.092784E+03	8.410968E-16	1.882457E-17
3.102602E+03	8.350476E-16	1.859810E-17
3.112420E+03	8.282146E-16	1.835535E-17
3.122239E+03	8.206213E-16	1.809711E-17
3.132057E+03	8.122679E-16	1.782363E-17
3.141875E+03	8.031652E-16	1.753541E-17
3.151694E+03	7.933425E-16	1.723336E-17
3.161512E+03	7.828783E-16	1.691942E-17
3.171330E+03	7.718364E-16	1.659518E-17
3.181149E+03	7.603247E-16	1.626316E-17
3.190967E+03	7.484948E-16	1.592675E-17
3.200785E+03	7.365270E-16	1.558989E-17
3.210604E+03	7.246039E-16	1.525648E-17
3.220422E+03	7.129573E-16	1.493138E-17
3.230241E+03	7.018253E-16	1.461947E-17
3.240059E+03	6.914588E-16	1.432577E-17
3.249877E+03	6.820401E-16	1.405381E-17
3.259696E+03	6.736778E-16	1.380549E-17
3.269514E+03	6.664491E-16	1.358205E-17
3.279332E+03	6.603496E-16	1.338301E-17
3.289151E+03	6.553438E-16	1.320730E-17
3.298969E+03	6.513658E-16	1.305321E-17
3.308787E+03	6.483008E-16	1.291813E-17
3.318606E+03	6.460328E-16	1.279946E-17
3.328424E+03	6.443977E-16	1.269368E-17
3.338243E+03	6.432498E-16	1.259775E-17
3.348061E+03	6.424428E-16	1.250866E-17
3.357879E+03	6.418219E-16	1.242329E-17
3.367698E+03	6.412589E-16	1.233912E-17
3.377516E+03	6.406231E-16	1.225365E-17
3.387334E+03	6.398313E-16	1.216532E-17
3.397153E+03	6.388103E-16	1.207281E-17
3.406971E+03	6.374987E-16	1.197506E-17
3.416789E+03	6.358780E-16	1.187182E-17
3.426608E+03	6.339412E-16	1.176308E-17
3.436426E+03	6.317063E-16	1.164929E-17
3.446244E+03	6.292191E-16	1.153140E-17
3.456063E+03	6.265414E-16	1.141063E-17
3.465881E+03	6.237569E-16	1.128858E-17
3.475700E+03	6.209733E-16	1.116721E-17
3.485518E+03	6.183161E-16	1.104879E-17
3.495336E+03	6.159142E-16	1.093557E-17
3.505155E+03	6.138972E-16	1.082976E-17
3.514973E+03	6.123502E-16	1.073272E-17
3.524791E+03	6.112548E-16	1.064398E-17
3.534610E+03	6.105239E-16	1.056190E-17
3.544428E+03	6.102159E-16	1.048735E-17
3.554246E+03	6.103602E-16	1.042071E-17
3.564065E+03	6.109120E-16	1.036106E-17
3.573883E+03	6.117721E-16	1.030662E-17
3.583702E+03	6.128137E-16	1.025516E-17
3.593520E+03	6.139093E-16	1.020451E-17
3.603338E+03	6.149546E-16	1.015294E-17
3.613157E+03	6.158453E-16	1.009878E-17
3.622975E+03	6.164891E-16	1.004058E-17
3.632793E+03	6.168327E-16	9.977580E-18
3.642612E+03	6.168020E-16	9.908693E-18
3.652430E+03	6.163573E-16	9.833428E-18
3.662248E+03	6.154574E-16	9.751281E-18
3.672067E+03	6.140592E-16	9.661737E-18
3.681885E+03	6.121298E-16	9.564458E-18
3.691703E+03	6.096729E-16	9.459688E-18
3.701522E+03	6.067480E-16	9.348526E-18
3.711340E+03	6.034493E-16	9.232579E-18
3.721159E+03	5.999203E-16	9.114158E-18
3.730977E+03	5.963396E-16	8.996041E-18
3.740795E+03	5.929430E-16	8.881789E-18
3.750614E+03	5.899629E-16	8.774811E-18
3.760432E+03	5.876350E-16	8.678466E-18
3.770250E+03	5.861681E-16	8.595627E-18
3.780069E+03	5.857381E-16	8.528600E-18
3.789887E+03	5.863928E-16	8.477772E-18
3.799705E+03	5.881238E-16	8.442709E-18
3.809524E+03	5.908189E-16	8.421507E-18
3.819342E+03	5.942343E-16	8.410450E-18
3.829161E+03	5.980527E-16	8.404893E-18
3.833969E+03	4.890837E-16	6.849761E-18
3.835216E+03	4.984721E-16	6.975000E-18
3.836461E+03	5.073556E-16	7.092959E-18
3.837708E+03	5.160427E-16	7.207953E-18
3.838955E+03	5.240568E-16	7.313347E-18
3.840201E+03	5.306128E-16	7.398225E-18
3.841448E+03	5.374490E-16	7.486846E-18
3.842695E+03	5.458831E-16	7.597544E-18
3.843941E+03	5.538966E-16	7.702196E-18
3.845188E+03	5.618538E-16	7.805873E-18
3.846435E+03	5.718294E-16	7.937376E-18
3.847681E+03	5.820011E-16	8.071366E-18
3.848928E+03	5.918361E-16	8.200444E-18
3.850175E+03	6.000169E-16	8.306388E-18
3.851421E+03	6.062912E-16	8.385777E-18
3.852668E+03	6.134345E-16	8.477023E-18
3.853915E+03	6.216989E-16	8.583582E-18
3.855161E+03	6.310004E-16	8.704260E-18
3.856407E+03	6.419276E-16	8.847121E-18
3.857654E+03	6.542562E-16	9.009021E-18
3.858900E+03	6.652391E-16	9.152122E-18
3.860147E+03	6.725214E-16	9.244094E-18
3.861393E+03	6.780096E-16	9.311266E-18
3.862640E+03	6.848992E-16	9.397540E-18
3.863887E+03	6.920689E-16	9.487497E-18
3.865134E+03	6.973325E-16	9.551183E-18
3.866380E+03	7.012503E-16	9.596344E-18
3.867627E+03	7.047477E-16	9.635667E-18
3.868873E+03	7.091138E-16	9.686793E-18
3.870120E+03	7.144332E-16	9.750828E-18
3.871367E+03	7.182665E-16	9.794482E-18
3.872613E+03	7.205301E-16	9.816678E-18
3.873860E+03	7.231018E-16	9.843019E-18
3.875107E+03	7.261781E-16	9.876174E-18
3.876352E+03	7.278531E-16	9.890235E-18
3.877599E+03	7.277623E-16	9.880288E-18
3.878846E+03	7.275026E-16	9.868065E-18
3.880092E+03	7.276916E-16	9.861950E-18
3.881339E+03	7.276571E-16	9.852810E-18
3.882586E+03	7.271175E-16	9.836850E-18
3.883832E+03	7.271102E-16	9.828119E-18
3.885079E+03	7.283080E-16	9.835670E-18
3.886325E+03	7.293660E-16	9.841327E-18
3.887572E+03	7.279574E-16	9.813712E-18
3.888819E+03	7.246714E-16	9.760857E-18
3.890065E+03	7.224223E-16	9.722055E-18
3.891312E+03	7.212378E-16	9.697626E-18
3.892559E+03	7.201379E-16	9.674376E-18
3.893805E+03	7.181122E-16	9.638746E-18
3.895052E+03	7.149387E-16	9.587778E-18
3.896298E+03	7.119890E-16	9.539895E-18
3.897544E+03	7.098795E-16	9.503352E-18
3.898791E+03	7.076586E-16	9.465373E-18
3.900038E+03	7.062502E-16	9.438319E-18
3.901284E+03	7.061028E-16	9.428156E-18
3.902531E+03	7.060114E-16	9.418751E-18
3.903778E+03	7.059201E-16	9.409363E-18
3.905024E+03	7.068375E-16	9.413432E-18
3.906271E+03	7.087637E-16	9.430910E-18
3.907518E+03	7.093727E-16	9.430847E-18
3.908764E+03	7.100097E-16	9.431163E-18
3.910011E+03	7.117399E-16	9.445980E-18
3.911257E+03	7.133856E-16	9.459659E-18
3.912504E+03	7.153952E-16	9.478130E-18
3.913751E+03	7.184418E-16	9.510296E-18
3.914997E+03	7.201713E-16	9.524994E-18
3.916243E+03	7.213128E-16	9.531892E-18
3.917490E+03	7.264040E-16	9.590928E-18
3.918736E+03	7.356147E-16	9.704215E-18
3.919983E+03	7.440408E-16	9.806961E-18
3.921230E+03	7.500285E-16	9.877421E-18
3.922476E+03	7.521498E-16	9.896893E-18
3.923723E+03	7.528699E-16	9.897905E-18
3.924970E+03	7.552153E-16	9.920268E-18
3.926216E+03	7.571679E-16	9.937446E-18
3.927463E+03	7.574959E-16	9.933287E-18
3.928710E+03	7.551056E-16	9.893520E-18
3.929956E+03	7.519595E-16	9.843937E-18
3.931203E+03	7.523994E-16	9.841337E-18
3.932450E+03	7.532874E-16	9.844602E-18
3.933696E+03	7.515699E-16	9.813847E-18
3.934943E+03	7.482835E-16	9.762673E-18
3.936189E+03	7.429804E-16	9.685305E-18
3.937435E+03	7.363887E-16	9.591280E-18
3.938682E+03	7.294889E-16	9.493408E-18
3.939928E+03	7.235977E-16	9.408824E-18
3.941175E+03	7.202837E-16	9.357863E-18
3.942422E+03	7.176421E-16	9.315717E-18
3.943668E+03	7.137955E-16	9.258025E-18
3.944915E+03	7.102582E-16	9.204435E-18
3.946162E+03	7.084848E-16	9.173778E-18
3.947408E+03	7.069359E-16	9.146085E-18
3.948655E+03	7.047706E-16	9.110470E-18
3.949902E+03	7.018771E-16	9.065513E-18
3.951148E+03	6.998240E-16	9.031485E-18
3.952395E+03	6.995075E-16	9.019906E-18
3.953642E+03	6.988269E-16	9.003659E-18
3.954888E+03	6.959895E-16	8.959685E-18
3.956135E+03	6.919197E-16	8.899930E-18
3.957381E+03	6.867296E-16	8.825881E-18
3.958627E+03	6.840324E-16	8.783977E-18
3.959874E+03	6.858727E-16	8.800360E-18
3.961120E+03	6.874887E-16	8.813852E-18
3.962367E+03	6.859678E-16	8.787139E-18
3.963614E+03	6.813942E-16	8.721402E-18
3.964860E+03	6.746080E-16	8.627487E-18
3.966107E+03	6.712668E-16	8.577747E-18
3.967354E+03	6.721266E-16	8.581732E-18
3.968600E+03	6.729584E-16	8.585365E-18
3.969847E+03	6.716056E-16	8.561144E-18
3.971094E+03	6.695527E-16	8.528052E-18
3.972340E+03	6.681720E-16	8.503580E-18
3.973587E+03	6.670433E-16	8.482352E-18
3.974834E+03	6.665027E-16	8.468638E-18
3.976080E+03	6.666901E-16	8.464200E-18
3.977326E+03	6.681377E-16	8.475757E-18
3.978573E+03	6.702574E-16	8.495820E-18
3.979819E+03	6.715368E-16	8.505221E-18
3.981066E+03	6.706600E-16	8.487322E-18
3.982312E+03	6.663389E-16	8.425911E-18
3.983559E+03	6.629979E-16	8.376982E-18
3.984806E+03	6.610850E-16	8.346169E-18
3.986052E+03	6.588922E-16	8.311886E-18
3.987299E+03	6.571754E-16	8.283660E-18
3.988546E+03	6.575306E-16	8.281583E-18
3.989792E+03	6.586138E-16	8.288684E-18
3.991039E+03	6.598930E-16	8.298240E-18
3.992286E+03	6.610320E-16	8.306028E-18
3.993532E+03	6.618070E-16	8.309247E-18
3.994779E+03	6.623019E-16	8.308951E-18
3.996026E+03	6.632727E-16	8.314629E-18
3.997271E+03	6.624517E-16	8.297867E-18
3.998518E+03	6.611827E-16	8.275528E-18
3.999765E+03	6.631894E-16	8.294199E-18
4.001011E+03	6.666516E-16	8.331046E-18
4.002258E+03	6.708978E-16	8.377629E-18
4.003505E+03	6.741918E-16	8.412269E-18
4.004751E+03	6.754421E-16	8.421388E-18
4.005998E+03	6.745927E-16	8.404340E-18
4.007244E+03	6.730434E-16	8.378619E-18
4.008491E+03	6.742096E-16	8.386722E-18
4.009738E+03	6.774752E-16	8.420918E-18
4.010984E+03	6.785572E-16	8.427954E-18
4.012231E+03	6.776236E-16	8.409971E-18
4.013478E+03	6.767740E-16	8.393067E-18
4.014724E+03	6.758964E-16	8.375857E-18
4.015971E+03	6.744030E-16	8.351053E-18
4.017217E+03	6.717339E-16	8.311750E-18
4.018463E+03	6.694847E-16	8.277714E-18
4.019710E+03	6.677394E-16	8.249959E-18
4.020957E+03	6.656022E-16	8.217420E-18
4.022203E+03	6.631012E-16	8.180457E-18
4.023450E+03	6.612720E-16	8.151835E-18
4.024697E+03	6.615418E-16	8.149126E-18
4.025943E+03	6.635750E-16	8.168142E-18
4.027190E+03	6.655800E-16	8.186791E-18
4.028436E+03	6.661017E-16	8.187196E-18
4.029683E+03	6.660075E-16	8.180044E-18
4.030930E+03	6.657174E-16	8.170511E-18
4.032176E+03	6.649794E-16	8.155515E-18
4.033423E+03	6.628422E-16	8.123400E-18
4.034670E+03	6.599214E-16	8.081749E-18
4.035916E+03	6.600509E-16	8.077505E-18
4.037162E+03	6.623632E-16	8.099966E-18
4.038409E+03	6.629125E-16	8.100864E-18
4.039655E+03	6.607192E-16	8.068289E-18
4.040902E+03	6.566231E-16	8.012549E-18
4.042149E+03	6.525831E-16	7.957585E-18
4.043395E+03	6.498583E-16	7.918745E-18
4.044642E+03	6.473015E-16	7.882012E-18
4.045889E+03	6.442690E-16	7.839557E-18
4.047135E+03	6.410966E-16	7.795479E-18
4.048382E+03	6.377845E-16	7.749774E-18
4.049629E+03	6.343324E-16	7.702447E-18
4.050875E+03	6.312162E-16	7.659279E-18
4.052122E+03	6.283519E-16	7.619235E-18
4.053368E+03	6.253197E-16	7.577230E-18
4.054615E+03	6.224555E-16	7.537327E-18
4.055862E+03	6.200389E-16	7.502910E-18
4.057108E+03	6.175664E-16	7.467882E-18
4.058354E+03	6.161291E-16	7.445421E-18
4.059601E+03	6.165662E-16	7.445640E-18
4.060847E+03	6.171711E-16	7.447902E-18
4.062094E+03	6.167968E-16	7.438362E-18
4.063341E+03	6.164784E-16	7.429524E-18
4.064587E+03	6.167475E-16	7.427791E-18
4.065834E+03	6.159814E-16	7.413614E-18
4.067081E+03	6.142922E-16	7.388367E-18
4.068327E+03	6.138337E-16	7.377966E-18
4.069574E+03	6.133194E-16	7.366919E-18
4.070821E+03	6.120778E-16	7.347171E-18
4.072067E+03	6.111997E-16	7.331830E-18
4.073314E+03	6.109090E-16	7.323562E-18
4.074561E+03	6.124084E-16	7.336766E-18
4.075807E+03	6.141873E-16	7.353318E-18
4.077054E+03	6.147635E-16	7.355472E-18
4.078299E+03	6.141929E-16	7.343930E-18
4.079546E+03	6.138460E-16	7.335089E-18
4.080793E+03	6.155127E-16	7.350322E-18
4.082039E+03	6.178785E-16	7.373897E-18
4.083286E+03	6.187340E-16	7.379444E-18
4.084533E+03	6.186664E-16	7.373999E-18
4.085779E+03	6.194379E-16	7.378575E-18
4.087026E+03	6.227540E-16	7.413452E-18
4.088273E+03	6.284748E-16	7.476912E-18
4.089519E+03	6.344751E-16	7.543636E-18
4.090766E+03	6.391608E-16	7.594673E-18
4.092013E+03	6.433429E-16	7.639685E-18
4.093259E+03	6.475808E-16	7.685326E-18
4.094506E+03	6.506999E-16	7.717658E-18
4.095753E+03	6.536511E-16	7.747979E-18
4.096999E+03	6.558472E-16	7.769342E-18
4.098245E+03	6.557503E-16	7.763548E-18
4.099492E+03	6.545631E-16	7.744878E-18
4.100738E+03	6.522574E-16	7.713029E-18
4.101985E+03	6.481903E-16	7.660418E-18
4.103231E+03	6.444030E-16	7.611195E-18
4.104478E+03	6.422372E-16	7.581187E-18
4.105725E+03	6.421683E-16	7.575972E-18
4.106971E+03	6.424068E-16	7.574412E-18
4.108218E+03	6.414432E-16	7.558704E-18
4.109465E+03	6.404795E-16	7.543033E-18
4.110711E+03	6.402146E-16	7.535630E-18
4.111958E+03	6.411517E-16	7.542392E-18
4.113205E+03	6.428155E-16	7.557711E-18
4.114451E+03	6.432214E-16	7.558255E-18
4.115698E+03	6.435711E-16	7.558157E-18
4.116945E+03	6.450669E-16	7.571533E-18
4.118190E+03	6.472334E-16	7.592785E-18
4.119437E+03	6.496232E-16	7.616652E-18
4.120684E+03	6.500006E-16	7.616932E-18
4.121930E+03	6.484493E-16	7.594648E-18
4.123177E+03	6.465626E-16	7.568482E-18
4.124423E+03	6.442568E-16	7.537464E-18
4.125670E+03	6.401344E-16	7.485257E-18
4.126917E+03	6.337485E-16	7.406673E-18
4.128163E+03	6.277540E-16	7.332769E-18
4.129410E+03	6.242748E-16	7.288327E-18
4.130657E+03	6.243167E-16	7.285040E-18
4.131903E+03	6.241909E-16	7.279826E-18
4.133150E+03	6.225561E-16	7.257046E-18
4.134397E+03	6.208095E-16	7.233009E-18
4.135643E+03	6.183085E-16	7.200236E-18
4.136890E+03	6.154443E-16	7.163289E-18
4.138136E+03	6.143684E-16	7.147205E-18
4.139382E+03	6.128454E-16	7.125963E-18
4.140629E+03	6.110150E-16	7.101191E-18
4.141876E+03	6.103023E-16	7.089447E-18
4.143122E+03	6.098410E-16	7.080659E-18
4.144369E+03	6.082900E-16	7.059255E-18
4.145616E+03	6.067390E-16	7.037894E-18
4.146862E+03	6.064452E-16	7.031154E-18
4.148109E+03	6.059838E-16	7.022499E-18
4.149355E+03	6.051870E-16	7.009993E-18
4.150602E+03	6.032169E-16	6.983935E-18
4.151849E+03	6.009956E-16	6.955016E-18
4.153095E+03	5.996121E-16	6.935842E-18
4.154342E+03	5.983684E-16	6.918322E-18
4.155589E+03	5.963426E-16	6.891803E-18
4.156835E+03	5.933951E-16	6.854686E-18
4.158081E+03	5.894142E-16	6.805691E-18
4.159328E+03	5.850145E-16	6.751929E-18
4.160574E+03	5.805870E-16	6.697919E-18
4.161821E+03	5.760200E-16	6.642368E-18
4.163068E+03	5.711460E-16	6.583349E-18
4.164314E+03	5.675568E-16	6.539209E-18
4.165561E+03	5.656434E-16	6.514426E-18
4.166808E+03	5.627245E-16	6.478113E-18
4.168054E+03	5.599175E-16	6.443142E-18
4.169301E+03	5.586185E-16	6.425567E-18
4.170548E+03	5.584922E-16	6.421513E-18
4.171794E+03	5.588126E-16	6.422622E-18
4.173041E+03	5.583790E-16	6.415088E-18
4.174287E+03	5.576941E-16	6.404701E-18
4.175534E+03	5.566462E-16	6.390175E-18
4.176781E+03	5.550399E-16	6.369276E-18
4.178027E+03	5.540198E-16	6.355144E-18
4.179273E+03	5.550099E-16	6.364094E-18
4.180520E+03	5.556928E-16	6.369540E-18
4.181766E+03	5.552589E-16	6.362211E-18
4.183013E+03	5.551320E-16	6.358426E-18
4.184260E+03	5.536930E-16	6.339646E-18
4.185506E+03	5.518074E-16	6.315792E-18
4.186753E+03	5.511500E-16	6.306031E-18
4.188000E+03	5.514974E-16	6.307794E-18
4.189246E+03	5.521518E-16	6.313091E-18
4.190493E+03	5.535318E-16	6.326701E-18
4.191740E+03	5.555256E-16	6.347339E-18
4.192986E+03	5.566262E-16	6.357788E-18
4.194233E+03	5.571126E-16	6.361240E-18
4.195480E+03	5.593849E-16	6.385101E-18
4.196726E+03	5.617408E-16	6.409926E-18
4.197973E+03	5.620315E-16	6.411201E-18
4.199218E+03	5.622661E-16	6.411863E-18
4.200465E+03	5.634216E-16	6.423047E-18
4.201712E+03	5.646049E-16	6.434566E-18
4.202958E+03	5.654810E-16	6.442607E-18
4.204205E+03	5.670825E-16	6.458928E-18
4.205452E+03	5.698556E-16	6.488608E-18
4.206698E+03	5.733260E-16	6.526235E-18
4.207945E+03	5.762939E-16	6.558147E-18
4.209192E+03	5.771692E-16	6.566261E-18
4.210438E+03	5.774863E-16	6.568051E-18
4.211685E+03	5.788356E-16	6.581601E-18
4.212932E+03	5.799614E-16	6.592633E-18
4.214178E+03	5.794972E-16	6.585616E-18
4.215425E+03	5.772475E-16	6.558345E-18
4.216672E+03	5.737427E-16	6.516859E-18
4.217918E+03	5.703218E-16	6.476375E-18
4.219164E+03	5.690766E-16	6.460637E-18
4.220411E+03	5.690306E-16	6.458546E-18
4.221657E+03	5.697933E-16	6.465662E-18
4.222904E+03	5.710580E-16	6.478495E-18
4.224150E+03	5.711512E-16	6.478064E-18
4.225397E+03	5.707144E-16	6.471650E-18
4.226644E+03	5.717833E-16	6.482337E-18
4.227890E+03	5.736608E-16	6.502214E-18
4.229137E+03	5.743112E-16	6.508203E-18
4.230384E+03	5.751845E-16	6.516743E-18
4.231630E+03	5.766154E-16	6.531625E-18
4.232877E+03	5.772374E-16	6.537369E-18
4.234124E+03	5.761307E-16	6.523564E-18
4.235370E+03	5.749404E-16	6.508848E-18
4.236617E+03	5.752834E-16	6.511520E-18
4.237864E+03	5.757378E-16	6.515481E-18
4.239109E+03	5.748818E-16	6.504643E-18
4.240356E+03	5.732452E-16	6.485006E-18
4.241603E+03	5.713858E-16	6.462884E-18
4.242849E+03	5.694984E-16	6.440484E-18
4.244096E+03	5.671651E-16	6.413076E-18
4.245343E+03	5.644974E-16	6.381925E-18
4.246589E+03	5.622479E-16	6.355540E-18
4.247836E+03	5.594131E-16	6.322576E-18
4.249082E+03	5.569128E-16	6.293431E-18
4.250329E+03	5.570602E-16	6.294238E-18
4.251576E+03	5.590188E-16	6.315536E-18
4.252822E+03	5.605035E-16	6.331503E-18
4.254069E+03	5.606504E-16	6.332386E-18
4.255316E+03	5.601564E-16	6.326058E-18
4.256562E+03	5.607768E-16	6.332346E-18
4.257809E+03	5.613134E-16	6.337715E-18
4.259055E+03	5.609863E-16	6.333361E-18
4.260301E+03	5.606312E-16	6.328721E-18
4.261548E+03	5.616968E-16	6.340147E-18
4.262795E+03	5.623166E-16	6.346568E-18
4.264041E+03	5.617105E-16	6.339184E-18
4.265288E+03	5.596280E-16	6.315169E-18
4.266535E+03	5.562641E-16	6.276729E-18
4.267781E+03	5.521205E-16	6.229526E-18
4.269028E+03	5.488406E-16	6.192102E-18
4.270275E+03	5.453659E-16	6.152516E-18
4.271521E+03	5.416964E-16	6.110764E-18
4.272768E+03	5.393916E-16	6.084440E-18
4.274014E+03	5.384516E-16	6.073541E-18
4.275261E+03	5.387925E-16	6.077119E-18
4.276508E+03	5.408320E-16	6.099880E-18
4.277754E+03	5.429546E-16	6.123607E-18
4.279000E+03	5.432950E-16	6.127261E-18
4.280247E+03	5.424380E-16	6.117438E-18
4.281493E+03	5.421935E-16	6.114551E-18
4.282740E+03	5.430903E-16	6.124564E-18
4.283987E+03	5.456853E-16	6.153753E-18
4.285233E+03	5.491707E-16	6.193012E-18
4.286480E+03	5.508185E-16	6.211576E-18
4.287727E+03	5.513247E-16	6.217294E-18
4.288973E+03	5.528050E-16	6.234025E-18
4.290220E+03	5.544243E-16	6.252352E-18
4.291467E+03	5.546238E-16	6.254695E-18
4.292713E+03	5.541552E-16	6.249533E-18
4.293960E+03	5.538535E-16	6.246281E-18
4.295206E+03	5.539136E-16	6.247137E-18
4.296453E+03	5.546135E-16	6.255236E-18
4.297700E+03	5.554803E-16	6.265246E-18
4.298946E+03	5.566530E-16	6.278735E-18
4.300192E+03	5.584375E-16	6.299155E-18
4.301439E+03	5.600827E-16	6.318032E-18
4.302685E+03	5.604756E-16	6.322812E-18
4.303932E+03	5.609240E-16	6.328247E-18
4.305179E+03	5.620121E-16	6.340927E-18
4.306425E+03	5.627940E-16	6.350182E-18
4.307672E+03	5.626855E-16	6.349419E-18
4.308919E+03	5.623544E-16	6.346170E-18
4.310165E+03	5.612721E-16	6.334471E-18
4.311412E+03	5.610521E-16	6.332530E-18
4.312659E+03	5.616385E-16	6.339719E-18
4.313905E+03	5.620023E-16	6.344422E-18
