#wls	flux	fluxerr
1.570938E+03	1.442411E-17	7.613884E-19
1.610211E+03	1.482427E-17	7.818829E-19
1.649485E+03	1.520939E-17	8.015321E-19
1.688758E+03	1.558298E-17	8.205202E-19
1.728031E+03	1.593549E-17	8.383445E-19
1.767305E+03	1.626285E-17	8.547920E-19
1.806578E+03	1.655270E-17	8.692159E-19
1.845852E+03	1.679601E-17	8.811452E-19
1.885125E+03	1.696512E-17	8.891361E-19
1.924399E+03	1.705198E-17	8.927777E-19
1.963672E+03	1.704243E-17	8.913413E-19
2.002946E+03	1.694468E-17	8.852708E-19
2.042219E+03	1.680506E-17	8.769989E-19
2.081492E+03	1.670674E-17	8.708684E-19
2.120766E+03	1.676973E-17	8.731205E-19
2.160039E+03	1.708748E-17	8.885837E-19
2.199313E+03	1.769329E-17	9.189365E-19
2.238586E+03	1.854917E-17	9.621484E-19
2.277860E+03	1.956826E-17	1.013664E-18
2.317133E+03	2.065794E-17	1.068653E-18
2.356406E+03	2.174855E-17	1.123493E-18
2.395680E+03	2.278762E-17	1.175471E-18
2.434953E+03	2.375415E-17	1.223509E-18
2.474227E+03	2.463188E-17	1.266780E-18
2.513500E+03	2.540684E-17	1.304582E-18
2.552774E+03	2.608081E-17	1.337025E-18
2.592047E+03	2.664857E-17	1.363861E-18
2.631321E+03	2.710984E-17	1.385097E-18
2.670594E+03	2.746501E-17	1.400778E-18
2.709867E+03	2.771113E-17	1.410777E-18
2.749141E+03	2.785115E-17	1.415271E-18
2.788414E+03	2.789833E-17	1.414961E-18
2.827688E+03	2.785184E-17	1.409831E-18
2.866961E+03	2.773036E-17	1.400849E-18
2.906235E+03	2.754765E-17	1.388734E-18
2.945508E+03	2.732835E-17	1.374743E-18
2.955326E+03	2.726925E-17	1.371026E-18
2.965145E+03	2.721184E-17	1.367393E-18
2.974963E+03	2.715287E-17	1.363680E-18
2.984782E+03	2.709275E-17	1.359908E-18
2.994600E+03	2.703542E-17	1.356274E-18
3.004418E+03	2.698131E-17	1.352800E-18
3.014237E+03	2.693063E-17	1.349497E-18
3.024055E+03	2.688034E-17	1.346211E-18
3.033873E+03	2.683129E-17	1.342985E-18
3.043692E+03	2.678929E-17	1.340110E-18
3.053510E+03	2.675059E-17	1.337398E-18
3.063328E+03	2.671848E-17	1.335012E-18
3.073147E+03	2.669613E-17	1.333111E-18
3.082965E+03	2.667727E-17	1.331381E-18
3.092784E+03	2.666517E-17	1.329984E-18
3.102602E+03	2.665995E-17	1.328925E-18
3.112420E+03	2.666476E-17	1.328362E-18
3.122239E+03	2.667667E-17	1.328147E-18
3.132057E+03	2.669583E-17	1.328288E-18
3.141875E+03	2.672240E-17	1.328791E-18
3.151694E+03	2.675946E-17	1.329808E-18
3.161512E+03	2.680708E-17	1.331342E-18
3.171330E+03	2.686247E-17	1.333255E-18
3.181149E+03	2.692577E-17	1.335550E-18
3.190967E+03	2.700268E-17	1.338511E-18
3.200785E+03	2.708760E-17	1.341860E-18
3.210604E+03	2.718334E-17	1.345733E-18
3.220422E+03	2.728986E-17	1.350128E-18
3.230241E+03	2.740980E-17	1.355175E-18
3.240059E+03	2.753755E-17	1.360594E-18
3.249877E+03	2.767838E-17	1.366646E-18
3.259696E+03	2.782934E-17	1.373182E-18
3.269514E+03	2.799278E-17	1.380319E-18
3.279332E+03	2.816568E-17	1.387905E-18
3.289151E+03	2.834762E-17	1.395919E-18
3.298969E+03	2.854332E-17	1.404593E-18
3.308787E+03	2.874695E-17	1.413637E-18
3.318606E+03	2.896304E-17	1.423274E-18
3.328424E+03	2.918566E-17	1.433212E-18
3.338243E+03	2.941913E-17	1.443660E-18
3.348061E+03	2.965997E-17	1.454448E-18
3.357879E+03	2.990722E-17	1.465527E-18
3.367698E+03	3.016234E-17	1.476968E-18
3.377516E+03	3.042174E-17	1.488594E-18
3.387334E+03	3.068916E-17	1.500588E-18
3.397153E+03	3.095849E-17	1.512649E-18
3.406971E+03	3.123096E-17	1.524838E-18
3.416789E+03	3.150770E-17	1.537209E-18
3.426608E+03	3.178507E-17	1.549584E-18
3.436426E+03	3.206183E-17	1.561903E-18
3.446244E+03	3.233920E-17	1.574224E-18
3.456063E+03	3.261605E-17	1.586492E-18
3.465881E+03	3.288903E-17	1.598545E-18
3.475700E+03	3.316189E-17	1.610565E-18
3.485518E+03	3.343151E-17	1.622400E-18
3.495336E+03	3.369732E-17	1.634022E-18
3.505155E+03	3.395890E-17	1.645412E-18
3.514973E+03	3.422052E-17	1.656776E-18
3.524791E+03	3.447768E-17	1.667898E-18
3.534610E+03	3.473284E-17	1.678895E-18
3.544428E+03	3.498651E-17	1.689793E-18
3.554246E+03	3.524160E-17	1.700731E-18
3.564065E+03	3.549486E-17	1.711554E-18
3.573883E+03	3.575406E-17	1.722635E-18
3.583702E+03	3.601664E-17	1.733850E-18
3.593520E+03	3.628881E-17	1.745497E-18
3.603338E+03	3.656884E-17	1.757492E-18
3.613157E+03	3.686361E-17	1.770164E-18
3.622975E+03	3.717430E-17	1.783568E-18
3.632793E+03	3.750653E-17	1.797970E-18
3.642612E+03	3.786441E-17	1.813565E-18
3.652430E+03	3.825249E-17	1.830567E-18
3.662248E+03	3.867398E-17	1.849125E-18
3.672067E+03	3.914023E-17	1.869778E-18
3.681885E+03	3.965163E-17	1.892537E-18
3.691703E+03	4.022051E-17	1.917985E-18
3.701522E+03	4.085021E-17	1.946273E-18
3.711340E+03	4.155029E-17	1.977848E-18
3.721159E+03	4.233086E-17	2.013181E-18
3.730977E+03	4.319889E-17	2.052593E-18
3.740795E+03	4.416389E-17	2.096522E-18
3.750614E+03	4.523793E-17	2.145528E-18
3.760432E+03	4.643189E-17	2.200112E-18
3.770250E+03	4.775736E-17	2.260804E-18
3.780069E+03	4.922468E-17	2.328076E-18
3.789887E+03	5.085056E-17	2.402698E-18
3.799705E+03	5.264843E-17	2.485281E-18
3.809524E+03	5.462996E-17	2.576351E-18
3.819342E+03	5.680871E-17	2.676519E-18
3.829161E+03	5.920200E-17	2.786574E-18
3.838979E+03	6.181802E-17	2.906869E-18
3.848797E+03	6.466963E-17	3.037974E-18
3.858616E+03	6.776549E-17	3.180263E-18
3.868434E+03	7.111124E-17	3.333964E-18
3.878252E+03	7.470874E-17	3.499125E-18
3.888071E+03	7.855770E-17	3.675695E-18
3.897889E+03	8.264764E-17	3.863146E-18
3.907707E+03	8.696424E-17	4.060772E-18
3.917526E+03	9.148679E-17	4.267571E-18
3.927344E+03	9.619011E-17	4.482337E-18
3.937162E+03	1.010332E-16	4.703131E-18
3.946981E+03	1.059773E-16	4.928130E-18
3.956799E+03	1.109684E-16	5.154799E-18
3.966618E+03	1.159344E-16	5.379790E-18
3.976436E+03	1.207995E-16	5.599583E-18
3.986254E+03	1.254746E-16	5.810071E-18
3.996073E+03	1.298491E-16	6.006153E-18
4.005891E+03	1.338104E-16	6.182676E-18
4.015709E+03	1.372480E-16	6.334593E-18
4.025528E+03	1.400553E-16	6.457072E-18
4.035346E+03	1.421362E-16	6.545775E-18
4.045164E+03	1.434313E-16	6.598081E-18
4.054983E+03	1.439087E-16	6.612644E-18
4.064801E+03	1.435808E-16	6.590162E-18
4.074620E+03	1.424884E-16	6.532626E-18
4.084438E+03	1.407152E-16	6.443987E-18
4.094256E+03	1.383648E-16	6.329098E-18
4.104075E+03	1.355581E-16	6.193574E-18
4.113893E+03	1.324300E-16	6.043642E-18
4.123711E+03	1.291069E-16	5.885119E-18
4.133530E+03	1.257146E-16	5.723763E-18
4.143348E+03	1.223652E-16	5.564692E-18
4.153166E+03	1.191591E-16	5.412461E-18
4.162985E+03	1.161787E-16	5.270782E-18
4.172803E+03	1.134889E-16	5.142568E-18
4.182622E+03	1.111394E-16	5.030014E-18
4.192440E+03	1.091574E-16	4.934307E-18
4.202258E+03	1.075544E-16	4.855897E-18
4.212077E+03	1.063255E-16	4.794511E-18
4.221895E+03	1.054465E-16	4.748987E-18
4.231713E+03	1.048727E-16	4.717264E-18
4.241532E+03	1.045510E-16	4.696903E-18
4.251350E+03	1.044085E-16	4.684588E-18
4.261168E+03	1.043656E-16	4.676731E-18
4.270987E+03	1.043385E-16	4.669551E-18
4.280805E+03	1.042407E-16	4.659193E-18
4.290623E+03	1.039982E-16	4.642355E-18
4.300442E+03	1.035509E-16	4.616390E-18
4.310260E+03	1.028618E-16	4.579680E-18
4.320079E+03	1.019221E-16	4.531885E-18
4.329897E+03	1.007563E-16	4.474130E-18
4.339715E+03	9.941425E-17	4.408669E-18
4.349534E+03	9.796653E-17	4.338660E-18
4.359352E+03	9.649638E-17	4.267806E-18
4.369170E+03	9.509729E-17	4.200239E-18
4.378989E+03	9.386239E-17	4.140057E-18
4.388807E+03	9.288560E-17	4.091368E-18
4.398625E+03	9.225288E-17	4.057905E-18
4.408444E+03	9.204363E-17	4.043095E-18
4.418262E+03	9.232895E-17	4.049980E-18
4.428081E+03	9.317157E-17	4.081215E-18
4.437899E+03	9.462512E-17	4.139044E-18
4.447717E+03	9.673722E-17	4.225432E-18
4.457536E+03	9.954586E-17	4.341911E-18
4.467354E+03	1.030744E-16	4.489368E-18
4.477172E+03	1.073330E-16	4.668103E-18
4.486991E+03	1.123078E-16	4.877374E-18
4.496809E+03	1.179605E-16	5.115381E-18
4.506627E+03	1.242155E-16	5.378715E-18
4.516446E+03	1.309619E-16	5.662459E-18
4.526264E+03	1.380380E-16	5.959541E-18
4.536082E+03	1.452456E-16	6.261335E-18
4.545901E+03	1.523415E-16	6.557345E-18
4.555719E+03	1.590655E-16	6.836405E-18
4.565538E+03	1.651468E-16	7.086959E-18
4.575356E+03	1.703381E-16	7.298529E-18
4.585174E+03	1.744315E-16	7.462399E-18
4.594993E+03	1.772862E-16	7.572760E-18
4.604811E+03	1.788408E-16	7.627246E-18
4.614629E+03	1.791117E-16	7.626806E-18
4.624448E+03	1.781955E-16	7.575810E-18
4.634266E+03	1.762456E-16	7.481004E-18
4.644084E+03	1.734666E-16	7.351274E-18
4.653903E+03	1.700867E-16	7.196441E-18
4.663721E+03	1.663380E-16	7.026446E-18
4.673540E+03	1.624419E-16	6.850693E-18
4.683358E+03	1.586045E-16	6.677901E-18
4.693176E+03	1.549907E-16	6.514993E-18
4.702995E+03	1.517364E-16	6.367621E-18
4.712813E+03	1.489340E-16	6.239591E-18
4.722631E+03	1.466370E-16	6.133049E-18
4.732450E+03	1.448654E-16	6.048719E-18
4.742268E+03	1.436015E-16	5.985759E-18
4.752086E+03	1.428036E-16	5.942327E-18
4.761905E+03	1.424113E-16	5.915810E-18
4.771723E+03	1.423557E-16	5.903267E-18
4.781541E+03	1.425638E-16	5.901607E-18
4.791360E+03	1.429713E-16	5.908111E-18
4.801178E+03	1.435249E-16	5.920534E-18
4.810997E+03	1.441847E-16	5.937206E-18
4.820815E+03	1.449204E-16	5.956857E-18
4.830633E+03	1.457191E-16	5.978938E-18
4.840452E+03	1.465685E-16	6.002930E-18
4.850270E+03	1.474656E-16	6.028703E-18
4.860088E+03	1.484094E-16	6.056198E-18
4.869907E+03	1.493979E-16	6.085326E-18
4.879725E+03	1.504365E-16	6.116296E-18
4.889543E+03	1.515304E-16	6.149304E-18
4.899362E+03	1.526746E-16	6.184135E-18
4.909180E+03	1.538653E-16	6.220623E-18
4.918999E+03	1.550739E-16	6.257603E-18
4.928817E+03	1.562600E-16	6.293445E-18
4.938635E+03	1.573562E-16	6.325438E-18
4.948454E+03	1.582785E-16	6.350233E-18
4.958272E+03	1.589339E-16	6.364148E-18
4.968090E+03	1.592326E-16	6.363656E-18
4.977909E+03	1.591026E-16	6.345965E-18
4.987727E+03	1.585028E-16	6.309543E-18
4.997545E+03	1.574329E-16	6.254492E-18
5.007364E+03	1.559375E-16	6.182685E-18
5.017182E+03	1.541025E-16	6.097633E-18
5.027000E+03	1.520537E-16	6.004384E-18
5.036819E+03	1.499336E-16	5.908605E-18
5.046637E+03	1.478993E-16	5.816496E-18
5.056456E+03	1.460953E-16	5.733706E-18
5.066274E+03	1.446509E-16	5.665249E-18
5.076092E+03	1.436649E-16	5.614898E-18
5.085911E+03	1.431949E-16	5.584788E-18
5.095729E+03	1.432671E-16	5.575811E-18
5.105547E+03	1.438672E-16	5.587278E-18
5.115366E+03	1.449590E-16	5.617658E-18
5.125184E+03	1.464829E-16	5.664520E-18
5.135002E+03	1.483724E-16	5.725194E-18
5.144821E+03	1.505630E-16	5.797094E-18
5.154639E+03	1.529983E-16	5.877986E-18
5.164458E+03	1.556350E-16	5.966139E-18
5.174276E+03	1.584455E-16	6.060448E-18
5.184094E+03	1.614123E-16	6.160195E-18
5.193913E+03	1.645294E-16	6.265112E-18
5.203731E+03	1.677988E-16	6.375229E-18
5.213549E+03	1.712207E-16	6.490522E-18
5.223368E+03	1.747956E-16	6.610957E-18
5.233186E+03	1.785177E-16	6.736280E-18
5.243004E+03	1.823723E-16	6.865896E-18
5.252823E+03	1.863349E-16	6.998839E-18
5.262641E+03	1.903630E-16	7.133497E-18
5.272459E+03	1.944032E-16	7.267843E-18
5.282278E+03	1.983900E-16	7.399431E-18
5.292096E+03	2.022496E-16	7.525531E-18
5.301915E+03	2.059076E-16	7.643406E-18
5.311733E+03	2.092870E-16	7.750260E-18
5.321551E+03	2.123274E-16	7.843929E-18
5.331370E+03	2.149852E-16	7.922899E-18
5.341188E+03	2.172325E-16	7.986242E-18
5.351006E+03	2.190734E-16	8.034220E-18
5.360825E+03	2.205338E-16	8.067888E-18
5.370643E+03	2.216683E-16	8.089341E-18
5.380461E+03	2.225477E-16	8.101241E-18
5.390280E+03	2.232592E-16	8.106830E-18
5.400098E+03	2.238969E-16	8.109563E-18
5.409917E+03	2.245554E-16	8.112870E-18
5.419735E+03	2.253218E-16	8.119889E-18
5.429553E+03	2.262721E-16	8.133325E-18
5.439372E+03	2.274547E-16	8.154861E-18
5.449190E+03	2.288979E-16	8.185438E-18
5.459008E+03	2.305882E-16	8.224511E-18
5.468827E+03	2.324675E-16	8.269940E-18
5.478645E+03	2.344369E-16	8.318165E-18
5.488463E+03	2.363533E-16	8.364094E-18
5.498282E+03	2.380416E-16	8.401559E-18
5.508100E+03	2.393005E-16	8.423543E-18
5.517919E+03	2.399282E-16	8.423082E-18
5.527737E+03	2.397398E-16	8.393878E-18
5.537555E+03	2.385890E-16	8.331054E-18
5.547374E+03	2.363790E-16	8.231515E-18
5.557192E+03	2.330672E-16	8.094088E-18
5.567010E+03	2.286804E-16	7.920013E-18
5.576829E+03	2.232787E-16	7.711676E-18
5.586647E+03	2.169686E-16	7.473040E-18
5.596465E+03	2.098743E-16	7.208634E-18
5.606284E+03	2.021311E-16	6.923326E-18
5.616102E+03	1.938858E-16	6.622320E-18
5.625920E+03	1.852945E-16	6.311077E-18
5.635739E+03	1.765269E-16	5.995472E-18
5.645557E+03	1.677608E-16	5.681577E-18
5.655376E+03	1.591912E-16	5.375989E-18
5.665194E+03	1.510151E-16	5.085282E-18
5.675012E+03	1.434243E-16	4.815788E-18
5.684831E+03	1.366034E-16	4.573526E-18
5.694649E+03	1.307159E-16	4.363727E-18
5.704467E+03	1.259063E-16	4.190938E-18
5.714286E+03	1.222924E-16	4.058751E-18
5.724104E+03	1.199707E-16	3.970019E-18
5.733922E+03	1.190221E-16	3.927032E-18
5.743741E+03	1.195157E-16	3.931660E-18
5.753559E+03	1.215078E-16	3.985333E-18
5.763378E+03	1.250399E-16	4.088969E-18
5.773196E+03	1.301395E-16	4.243014E-18
5.783014E+03	1.368016E-16	4.446839E-18
5.792833E+03	1.449762E-16	4.698376E-18
5.802651E+03	1.545571E-16	4.993739E-18
5.812469E+03	1.653563E-16	5.326467E-18
5.822288E+03	1.771037E-16	5.687526E-18
5.832106E+03	1.894472E-16	6.065362E-18
5.841924E+03	2.019627E-16	6.446265E-18
5.851743E+03	2.141856E-16	6.815408E-18
5.861561E+03	2.256544E-16	7.158232E-18
5.871379E+03	2.359357E-16	7.461256E-18
5.881198E+03	2.446731E-16	7.713602E-18
5.891016E+03	2.516140E-16	7.907778E-18
5.900835E+03	2.566129E-16	8.039764E-18
5.910653E+03	2.596475E-16	8.109433E-18
5.920471E+03	2.607965E-16	8.119818E-18
5.930290E+03	2.602201E-16	8.076441E-18
5.940108E+03	2.581371E-16	7.986586E-18
5.949926E+03	2.548063E-16	7.858675E-18
5.959745E+03	2.504940E-16	7.701264E-18
5.969563E+03	2.454635E-16	7.522709E-18
5.979381E+03	2.399575E-16	7.330635E-18
5.989200E+03	2.341947E-16	7.131839E-18
5.999018E+03	2.283626E-16	6.932093E-18
6.008837E+03	2.226134E-16	6.736018E-18
6.018655E+03	2.170735E-16	6.547406E-18
6.028473E+03	2.118423E-16	6.369181E-18
6.038292E+03	2.069905E-16	6.203371E-18
6.048110E+03	2.025698E-16	6.051418E-18
6.057928E+03	1.986134E-16	5.914177E-18
6.067747E+03	1.951354E-16	5.791937E-18
6.077565E+03	1.921389E-16	5.684652E-18
6.087383E+03	1.896193E-16	5.592052E-18
6.097202E+03	1.875594E-16	5.513487E-18
6.107020E+03	1.859356E-16	5.448144E-18
6.116838E+03	1.847253E-16	5.395234E-18
6.126657E+03	1.839057E-16	5.353982E-18
6.136475E+03	1.834586E-16	5.323747E-18
6.146294E+03	1.833683E-16	5.303975E-18
6.156112E+03	1.836226E-16	5.294214E-18
6.165930E+03	1.842061E-16	5.293929E-18
6.175749E+03	1.850919E-16	5.302259E-18
6.185567E+03	1.862371E-16	5.317902E-18
6.195385E+03	1.875819E-16	5.339083E-18
6.205204E+03	1.890382E-16	5.363256E-18
6.215022E+03	1.905041E-16	5.387511E-18
6.224840E+03	1.918642E-16	5.408598E-18
6.234659E+03	1.930131E-16	5.423587E-18
6.244477E+03	1.938487E-16	5.429676E-18
6.254296E+03	1.943069E-16	5.425170E-18
6.264114E+03	1.943524E-16	5.409189E-18
6.273932E+03	1.939920E-16	5.382029E-18
6.283751E+03	1.932821E-16	5.345366E-18
6.293569E+03	1.923173E-16	5.301899E-18
6.303387E+03	1.912249E-16	5.255194E-18
6.313206E+03	1.901692E-16	5.209786E-18
6.323024E+03	1.893253E-16	5.170451E-18
6.332842E+03	1.888833E-16	5.142307E-18
6.342661E+03	1.890218E-16	5.130105E-18
6.352479E+03	1.899049E-16	5.138136E-18
6.362297E+03	1.916691E-16	5.169903E-18
6.372116E+03	1.944129E-16	5.227838E-18
6.381934E+03	1.981963E-16	5.313311E-18
6.391753E+03	2.030227E-16	5.426164E-18
6.401571E+03	2.088429E-16	5.564834E-18
6.411389E+03	2.155521E-16	5.726303E-18
6.421208E+03	2.229395E-16	5.904786E-18
6.431026E+03	2.306729E-16	6.091352E-18
6.440844E+03	2.383821E-16	6.276187E-18
6.450663E+03	2.457047E-16	6.449785E-18
6.460481E+03	2.523108E-16	6.603618E-18
6.470299E+03	2.579664E-16	6.731746E-18
6.480118E+03	2.625342E-16	6.830826E-18
6.489936E+03	2.660074E-16	6.900930E-18
6.499755E+03	2.684871E-16	6.944927E-18
6.509573E+03	2.701601E-16	6.967857E-18
6.519391E+03	2.712483E-16	6.975612E-18
6.529210E+03	2.719843E-16	6.974281E-18
6.539028E+03	2.725568E-16	6.968765E-18
6.548846E+03	2.731240E-16	6.963131E-18
6.558665E+03	2.737736E-16	6.959608E-18
6.568483E+03	2.745372E-16	6.958971E-18
6.578301E+03	2.753914E-16	6.960607E-18
6.588120E+03	2.762676E-16	6.962760E-18
6.597938E+03	2.770623E-16	6.962823E-18
6.607757E+03	2.776538E-16	6.957761E-18
6.617575E+03	2.779025E-16	6.944124E-18
6.627393E+03	2.776837E-16	6.918879E-18
6.637212E+03	2.768763E-16	6.879113E-18
6.647030E+03	2.753829E-16	6.822531E-18
6.656848E+03	2.731310E-16	6.747487E-18
6.666667E+03	2.700755E-16	6.653022E-18
6.676485E+03	2.661989E-16	6.538874E-18
6.686303E+03	2.615143E-16	6.405532E-18
6.696122E+03	2.560553E-16	6.253975E-18
6.705940E+03	2.498831E-16	6.085856E-18
6.715758E+03	2.430822E-16	5.903363E-18
6.725577E+03	2.357568E-16	5.709153E-18
6.735395E+03	2.280265E-16	5.506210E-18
6.745214E+03	2.200183E-16	5.297675E-18
6.755032E+03	2.118598E-16	5.086663E-18
6.764850E+03	2.036747E-16	4.876161E-18
6.774669E+03	1.955690E-16	4.668700E-18
6.784487E+03	1.876456E-16	4.466709E-18
6.794305E+03	1.799860E-16	4.272081E-18
6.804124E+03	1.726705E-16	4.086659E-18
6.813942E+03	1.657652E-16	3.911934E-18
6.823760E+03	1.593354E-16	3.749349E-18
6.833579E+03	1.534450E-16	3.600307E-18
6.843397E+03	1.481592E-16	3.466220E-18
6.853216E+03	1.435460E-16	3.348553E-18
6.863034E+03	1.396761E-16	3.248810E-18
6.872852E+03	1.366223E-16	3.168524E-18
6.882671E+03	1.344565E-16	3.109195E-18
6.892489E+03	1.332460E-16	3.072192E-18
6.902307E+03	1.330480E-16	3.058634E-18
6.912126E+03	1.339028E-16	3.069243E-18
6.921944E+03	1.358289E-16	3.104225E-18
6.931762E+03	1.388071E-16	3.162929E-18
6.941581E+03	1.427822E-16	3.243887E-18
6.951399E+03	1.476515E-16	3.344569E-18
6.961217E+03	1.532572E-16	3.461237E-18
6.971036E+03	1.593903E-16	3.589034E-18
6.980854E+03	1.658043E-16	3.722320E-18
6.990673E+03	1.722180E-16	3.854749E-18
7.000491E+03	1.783445E-16	3.979918E-18
7.010309E+03	1.839118E-16	4.091836E-18
7.020128E+03	1.886855E-16	4.185418E-18
7.029946E+03	1.924874E-16	4.256883E-18
7.039764E+03	1.952095E-16	4.304051E-18
7.049583E+03	1.968082E-16	4.326178E-18
7.059401E+03	1.973186E-16	4.324260E-18
7.069219E+03	1.968295E-16	4.300456E-18
7.079038E+03	1.954840E-16	4.258088E-18
7.088856E+03	1.934567E-16	4.201116E-18
7.098675E+03	1.909465E-16	4.133982E-18
7.108493E+03	1.881599E-16	4.061242E-18
7.118311E+03	1.853014E-16	3.987353E-18
7.128130E+03	1.825550E-16	3.916276E-18
7.137948E+03	1.800848E-16	3.851499E-18
7.147766E+03	1.780220E-16	3.795768E-18
7.157585E+03	1.764590E-16	3.750966E-18
7.167403E+03	1.754631E-16	3.718426E-18
7.177221E+03	1.750563E-16	3.698504E-18
7.187040E+03	1.752259E-16	3.690823E-18
7.196858E+03	1.759326E-16	3.694447E-18
7.206676E+03	1.771057E-16	3.707797E-18
7.216495E+03	1.786481E-16	3.728764E-18
7.226313E+03	1.804499E-16	3.754994E-18
7.236132E+03	1.823794E-16	3.783711E-18
7.245950E+03	1.842984E-16	3.812042E-18
7.255768E+03	1.860697E-16	3.837163E-18
7.265587E+03	1.875550E-16	3.856265E-18
7.275405E+03	1.886385E-16	3.867035E-18
7.285223E+03	1.892285E-16	3.867678E-18
7.295042E+03	1.892604E-16	3.856974E-18
7.304860E+03	1.887080E-16	3.834493E-18
7.314678E+03	1.875855E-16	3.800634E-18
7.324497E+03	1.859348E-16	3.756347E-18
7.334315E+03	1.838342E-16	3.703305E-18
7.344134E+03	1.813815E-16	3.643553E-18
7.353952E+03	1.786768E-16	3.579157E-18
7.363770E+03	1.758265E-16	3.512283E-18
7.373589E+03	1.729240E-16	3.444817E-18
7.383407E+03	1.700442E-16	3.378255E-18
7.393225E+03	1.672447E-16	3.313736E-18
7.403044E+03	1.645658E-16	3.252040E-18
7.412862E+03	1.620251E-16	3.193493E-18
7.422680E+03	1.596279E-16	3.138181E-18
7.432499E+03	1.573689E-16	3.085974E-18
7.442317E+03	1.552353E-16	3.036602E-18
7.452135E+03	1.532101E-16	2.989714E-18
7.461954E+03	1.512735E-16	2.944912E-18
7.471772E+03	1.494031E-16	2.901746E-18
7.481591E+03	1.475798E-16	2.859837E-18
7.491409E+03	1.457806E-16	2.818733E-18
7.501227E+03	1.439869E-16	2.778075E-18
7.511046E+03	1.421800E-16	2.737499E-18
7.520864E+03	1.403421E-16	2.696667E-18
7.530682E+03	1.384630E-16	2.655382E-18
7.540501E+03	1.365426E-16	2.613645E-18
7.550319E+03	1.345879E-16	2.571597E-18
7.560137E+03	1.326222E-16	2.529680E-18
7.569956E+03	1.306865E-16	2.488674E-18
7.579774E+03	1.288352E-16	2.449608E-18
7.589593E+03	1.271421E-16	2.413871E-18
7.599411E+03	1.256895E-16	2.383008E-18
7.609229E+03	1.245680E-16	2.358716E-18
7.619048E+03	1.238700E-16	2.342719E-18
