#wls	flux	fluxerr
1.570938E+03	3.071125E-18	1.917699E-19
1.610211E+03	3.132139E-18	1.948309E-19
1.649485E+03	3.188972E-18	1.975837E-19
1.688758E+03	3.240780E-18	1.999781E-19
1.728031E+03	3.287059E-18	2.019853E-19
1.767305E+03	3.327830E-18	2.036098E-19
1.806578E+03	3.359238E-18	2.046199E-19
1.845852E+03	3.379797E-18	2.049320E-19
1.885125E+03	3.386512E-18	2.043739E-19
1.924399E+03	3.375987E-18	2.027527E-19
1.963672E+03	3.346904E-18	2.000047E-19
2.002946E+03	3.302892E-18	1.963626E-19
2.042219E+03	3.251406E-18	1.922816E-19
2.081492E+03	3.211383E-18	1.888833E-19
2.120766E+03	3.203218E-18	1.873502E-19
2.160039E+03	3.246986E-18	1.888183E-19
2.199313E+03	3.347964E-18	1.935386E-19
2.238586E+03	3.499372E-18	2.010602E-19
2.277860E+03	3.685296E-18	2.104173E-19
2.317133E+03	3.890587E-18	2.207086E-19
2.356406E+03	4.103633E-18	2.312532E-19
2.395680E+03	4.317785E-18	2.416650E-19
2.434953E+03	4.529545E-18	2.517426E-19
2.474227E+03	4.739332E-18	2.615069E-19
2.513500E+03	4.947426E-18	2.709703E-19
2.552774E+03	5.156348E-18	2.802665E-19
2.592047E+03	5.368155E-18	2.895003E-19
2.631321E+03	5.585025E-18	2.987793E-19
2.670594E+03	5.809188E-18	3.082101E-19
2.709867E+03	6.041954E-18	3.178466E-19
2.749141E+03	6.286595E-18	3.278425E-19
2.788414E+03	6.545600E-18	3.383046E-19
2.827688E+03	6.820530E-18	3.492872E-19
2.866961E+03	7.115283E-18	3.609597E-19
2.906235E+03	7.433031E-18	3.734470E-19
2.945508E+03	7.777290E-18	3.868840E-19
2.955326E+03	7.868067E-18	3.904146E-19
2.965145E+03	7.960736E-18	3.940125E-19
2.974963E+03	8.055366E-18	3.976802E-19
2.984782E+03	8.152031E-18	4.014207E-19
2.994600E+03	8.250856E-18	4.052391E-19
3.004418E+03	8.351966E-18	4.091406E-19
3.014237E+03	8.455421E-18	4.131272E-19
3.024055E+03	8.561284E-18	4.172009E-19
3.033873E+03	8.669780E-18	4.213717E-19
3.043692E+03	8.780655E-18	4.256262E-19
3.053510E+03	8.894803E-18	4.300066E-19
3.063328E+03	9.013629E-18	4.345790E-19
3.073147E+03	9.134363E-18	4.392086E-19
3.082965E+03	9.258419E-18	4.439622E-19
3.092784E+03	9.387277E-18	4.489092E-19
3.102602E+03	9.518097E-18	4.539122E-19
3.112420E+03	9.653839E-18	4.591110E-19
3.122239E+03	9.791610E-18	4.643665E-19
3.132057E+03	9.934475E-18	4.698225E-19
3.141875E+03	1.008101E-17	4.754097E-19
3.151694E+03	1.022972E-17	4.810568E-19
3.161512E+03	1.038383E-17	4.869131E-19
3.171330E+03	1.054185E-17	4.929079E-19
3.181149E+03	1.070229E-17	4.989689E-19
3.190967E+03	1.086848E-17	5.052502E-19
3.200785E+03	1.103892E-17	5.116800E-19
3.210604E+03	1.121374E-17	5.182624E-19
3.220422E+03	1.139306E-17	5.250012E-19
3.230241E+03	1.157702E-17	5.319006E-19
3.240059E+03	1.176576E-17	5.389654E-19
3.249877E+03	1.195943E-17	5.462001E-19
3.259696E+03	1.215817E-17	5.536095E-19
3.269514E+03	1.236402E-17	5.612834E-19
3.279332E+03	1.257344E-17	5.690589E-19
3.289151E+03	1.278845E-17	5.770252E-19
3.298969E+03	1.300920E-17	5.851875E-19
3.308787E+03	1.323789E-17	5.936410E-19
3.318606E+03	1.347074E-17	6.022146E-19
3.328424E+03	1.370993E-17	6.110024E-19
3.338243E+03	1.395771E-17	6.201030E-19
3.348061E+03	1.421018E-17	6.293389E-19
3.357879E+03	1.447174E-17	6.389031E-19
3.367698E+03	1.473833E-17	6.486129E-19
3.377516E+03	1.501451E-17	6.586663E-19
3.387334E+03	1.529609E-17	6.688761E-19
3.397153E+03	1.558779E-17	6.794455E-19
3.406971E+03	1.588761E-17	6.902835E-19
3.416789E+03	1.619337E-17	7.012930E-19
3.426608E+03	1.651006E-17	7.126863E-19
3.436426E+03	1.683555E-17	7.243673E-19
3.446244E+03	1.716755E-17	7.362344E-19
3.456063E+03	1.751128E-17	7.485078E-19
3.465881E+03	1.786449E-17	7.610874E-19
3.475700E+03	1.822739E-17	7.739778E-19
3.485518E+03	1.860018E-17	7.871842E-19
3.495336E+03	1.898309E-17	8.007113E-19
3.505155E+03	1.937629E-17	8.145631E-19
3.514973E+03	1.977995E-17	8.287427E-19
3.524791E+03	2.019426E-17	8.432532E-19
3.534610E+03	2.061935E-17	8.580965E-19
3.544428E+03	2.105535E-17	8.732739E-19
3.554246E+03	2.150237E-17	8.887852E-19
3.564065E+03	2.196049E-17	9.046297E-19
3.573883E+03	2.242975E-17	9.208054E-19
3.583702E+03	2.291019E-17	9.373089E-19
3.593520E+03	2.340177E-17	9.541352E-19
3.603338E+03	2.390445E-17	9.712783E-19
3.613157E+03	2.442163E-17	9.888719E-19
3.622975E+03	2.494622E-17	1.006625E-18
3.632793E+03	2.548147E-17	1.024665E-18
3.642612E+03	2.602711E-17	1.042979E-18
3.652430E+03	2.658285E-17	1.061550E-18
3.662248E+03	2.715215E-17	1.080515E-18
3.672067E+03	2.772693E-17	1.099547E-18
3.681885E+03	2.831046E-17	1.118774E-18
3.691703E+03	2.890623E-17	1.138333E-18
3.701522E+03	2.950546E-17	1.157873E-18
3.711340E+03	3.011141E-17	1.177524E-18
3.721159E+03	3.072757E-17	1.197419E-18
3.730977E+03	3.134442E-17	1.217186E-18
3.740795E+03	3.196519E-17	1.236951E-18
3.750614E+03	3.259335E-17	1.256849E-18
3.760432E+03	3.321862E-17	1.276483E-18
3.770250E+03	3.384894E-17	1.296160E-18
3.780069E+03	3.447353E-17	1.315468E-18
3.789887E+03	3.509559E-17	1.334534E-18
3.799705E+03	3.571855E-17	1.353490E-18
3.809524E+03	3.633089E-17	1.371904E-18
3.819342E+03	3.694098E-17	1.390097E-18
3.829161E+03	3.753686E-17	1.407622E-18
3.838979E+03	3.812708E-17	1.424809E-18
3.848797E+03	3.869930E-17	1.441202E-18
3.858616E+03	3.925688E-17	1.456934E-18
3.868434E+03	3.980345E-17	1.472149E-18
3.878252E+03	4.032622E-17	1.486381E-18
3.888071E+03	4.083442E-17	1.499982E-18
3.897889E+03	4.131507E-17	1.512484E-18
3.907707E+03	4.177201E-17	1.524041E-18
3.917526E+03	4.220942E-17	1.534815E-18
3.927344E+03	4.261428E-17	1.544345E-18
3.937162E+03	4.299681E-17	1.553015E-18
3.946981E+03	4.334413E-17	1.560371E-18
3.956799E+03	4.366106E-17	1.566602E-18
3.966618E+03	4.395279E-17	1.571907E-18
3.976436E+03	4.420683E-17	1.575851E-18
3.986254E+03	4.443487E-17	1.578866E-18
3.996073E+03	4.462484E-17	1.580536E-18
4.005891E+03	4.478300E-17	1.581097E-18
4.015709E+03	4.491594E-17	1.580794E-18
4.025528E+03	4.501237E-17	1.579240E-18
4.035346E+03	4.507941E-17	1.576701E-18
4.045164E+03	4.511842E-17	1.573233E-18
4.054983E+03	4.513705E-17	1.569115E-18
4.064801E+03	4.512498E-17	1.563997E-18
4.074620E+03	4.509026E-17	1.558167E-18
4.084438E+03	4.503508E-17	1.551711E-18
4.094256E+03	4.496774E-17	1.544920E-18
4.104075E+03	4.487862E-17	1.537471E-18
4.113893E+03	4.477625E-17	1.529662E-18
4.123711E+03	4.466318E-17	1.521585E-18
4.133530E+03	4.454201E-17	1.513332E-18
4.143348E+03	4.441536E-17	1.504997E-18
4.153166E+03	4.428584E-17	1.496669E-18
4.162985E+03	4.415604E-17	1.488437E-18
4.172803E+03	4.402852E-17	1.480389E-18
4.182622E+03	4.390579E-17	1.472609E-18
4.192440E+03	4.379032E-17	1.465180E-18
4.202258E+03	4.368446E-17	1.458179E-18
4.212077E+03	4.359054E-17	1.451682E-18
4.221895E+03	4.351075E-17	1.445762E-18
4.231713E+03	4.344152E-17	1.440296E-18
4.241532E+03	4.339626E-17	1.435728E-18
4.251350E+03	4.337114E-17	1.431928E-18
4.261168E+03	4.336795E-17	1.428951E-18
4.270987E+03	4.338263E-17	1.426662E-18
4.280805E+03	4.342798E-17	1.425478E-18
4.290623E+03	4.349393E-17	1.425066E-18
4.300442E+03	4.359285E-17	1.425830E-18
4.310260E+03	4.371985E-17	1.427605E-18
4.320079E+03	4.386934E-17	1.430207E-18
4.329897E+03	4.404642E-17	1.433803E-18
4.339715E+03	4.425597E-17	1.438546E-18
4.349534E+03	4.448545E-17	1.444026E-18
4.359352E+03	4.474502E-17	1.450569E-18
4.369170E+03	4.502162E-17	1.457750E-18
4.378989E+03	4.531927E-17	1.465696E-18
4.388807E+03	4.563610E-17	1.474345E-18
4.398625E+03	4.597004E-17	1.483629E-18
4.408444E+03	4.631885E-17	1.493475E-18
4.418262E+03	4.668610E-17	1.503997E-18
4.428081E+03	4.705729E-17	1.514727E-18
4.437899E+03	4.742953E-17	1.525573E-18
4.447717E+03	4.781202E-17	1.536830E-18
4.457536E+03	4.819566E-17	1.548207E-18
4.467354E+03	4.857728E-17	1.559602E-18
4.477172E+03	4.895359E-17	1.570910E-18
4.486991E+03	4.932127E-17	1.582024E-18
4.496809E+03	4.967066E-17	1.592637E-18
4.506627E+03	5.001107E-17	1.603047E-18
4.516446E+03	5.032670E-17	1.612747E-18
4.526264E+03	5.062728E-17	1.622050E-18
4.536082E+03	5.089734E-17	1.630459E-18
4.545901E+03	5.114733E-17	1.638311E-18
4.555719E+03	5.136240E-17	1.645128E-18
4.565538E+03	5.154750E-17	1.651068E-18
4.575356E+03	5.170164E-17	1.656099E-18
4.585174E+03	5.183092E-17	1.660414E-18
4.594993E+03	5.192244E-17	1.663598E-18
4.604811E+03	5.198343E-17	1.665880E-18
4.614629E+03	5.201513E-17	1.667299E-18
4.624448E+03	5.201933E-17	1.667909E-18
4.634266E+03	5.199824E-17	1.667778E-18
4.644084E+03	5.194800E-17	1.666779E-18
4.653903E+03	5.188453E-17	1.665421E-18
4.663721E+03	5.180448E-17	1.663592E-18
4.673540E+03	5.170466E-17	1.661189E-18
4.683358E+03	5.160131E-17	1.658728E-18
4.693176E+03	5.149124E-17	1.656106E-18
4.702995E+03	5.137117E-17	1.653214E-18
4.712813E+03	5.125047E-17	1.650352E-18
4.722631E+03	5.113814E-17	1.647806E-18
4.732450E+03	5.102382E-17	1.645242E-18
4.742268E+03	5.091589E-17	1.642927E-18
4.752086E+03	5.081599E-17	1.640913E-18
4.761905E+03	5.072541E-17	1.639240E-18
4.771723E+03	5.064506E-17	1.637936E-18
4.781541E+03	5.057552E-17	1.637020E-18
4.791360E+03	5.051706E-17	1.636498E-18
4.801178E+03	5.046967E-17	1.636370E-18
4.810997E+03	5.043310E-17	1.636627E-18
4.820815E+03	5.040069E-17	1.637052E-18
4.830633E+03	5.038428E-17	1.638028E-18
4.840452E+03	5.037694E-17	1.639330E-18
4.850270E+03	5.037172E-17	1.640731E-18
4.860088E+03	5.037399E-17	1.642404E-18
4.869907E+03	5.038913E-17	1.644526E-18
4.879725E+03	5.040401E-17	1.646666E-18
4.889543E+03	5.042406E-17	1.649000E-18
4.899362E+03	5.044863E-17	1.651508E-18
4.909180E+03	5.047716E-17	1.654169E-18
4.918999E+03	5.051530E-17	1.657168E-18
4.928817E+03	5.054419E-17	1.659886E-18
4.938635E+03	5.058207E-17	1.662919E-18
4.948454E+03	5.062260E-17	1.666060E-18
4.958272E+03	5.066576E-17	1.669306E-18
4.968090E+03	5.071162E-17	1.672660E-18
4.977909E+03	5.075424E-17	1.675924E-18
4.987727E+03	5.080628E-17	1.679515E-18
4.997545E+03	5.085581E-17	1.683038E-18
5.007364E+03	5.090951E-17	1.686714E-18
5.017182E+03	5.097413E-17	1.690766E-18
5.027000E+03	5.103790E-17	1.694803E-18
5.036819E+03	5.110757E-17	1.699049E-18
5.046637E+03	5.118364E-17	1.703520E-18
5.056456E+03	5.126651E-17	1.708230E-18
5.066274E+03	5.135642E-17	1.713185E-18
5.076092E+03	5.145344E-17	1.718389E-18
5.085911E+03	5.155737E-17	1.723835E-18
5.095729E+03	5.166777E-17	1.729508E-18
5.105547E+03	5.178393E-17	1.735384E-18
5.115366E+03	5.189861E-17	1.741220E-18
5.125184E+03	5.202305E-17	1.747394E-18
5.135002E+03	5.214327E-17	1.753434E-18
5.144821E+03	5.227011E-17	1.759705E-18
5.154639E+03	5.238917E-17	1.765722E-18
5.164458E+03	5.250481E-17	1.771630E-18
5.174276E+03	5.262137E-17	1.777575E-18
5.184094E+03	5.272427E-17	1.783063E-18
5.193913E+03	5.281797E-17	1.788243E-18
5.203731E+03	5.290075E-17	1.793055E-18
5.213549E+03	5.297111E-17	1.797446E-18
5.223368E+03	5.302782E-17	1.801372E-18
5.233186E+03	5.306992E-17	1.804799E-18
5.243004E+03	5.309045E-17	1.807488E-18
5.252823E+03	5.310187E-17	1.809860E-18
5.262641E+03	5.309795E-17	1.811701E-18
5.272459E+03	5.307283E-17	1.812810E-18
5.282278E+03	5.304007E-17	1.813646E-18
5.292096E+03	5.298813E-17	1.813814E-18
5.301915E+03	5.293116E-17	1.813796E-18
5.311733E+03	5.285820E-17	1.813216E-18
5.321551E+03	5.277746E-17	1.812352E-18
5.331370E+03	5.269089E-17	1.811271E-18
5.341188E+03	5.260674E-17	1.810257E-18
5.351006E+03	5.251432E-17	1.808940E-18
5.360825E+03	5.242165E-17	1.807596E-18
5.370643E+03	5.232391E-17	1.806059E-18
5.380461E+03	5.223463E-17	1.804795E-18
5.390280E+03	5.214813E-17	1.803608E-18
5.400098E+03	5.206444E-17	1.802497E-18
5.409917E+03	5.198282E-17	1.801437E-18
5.419735E+03	5.189581E-17	1.800168E-18
5.429553E+03	5.181391E-17	1.799053E-18
5.439372E+03	5.172244E-17	1.797582E-18
5.449190E+03	5.163097E-17	1.796087E-18
5.459008E+03	5.152415E-17	1.794030E-18
5.468827E+03	5.140487E-17	1.791511E-18
5.478645E+03	5.127586E-17	1.788624E-18
5.488463E+03	5.112162E-17	1.784825E-18
5.498282E+03	5.094513E-17	1.780216E-18
5.508100E+03	5.074358E-17	1.774696E-18
5.517919E+03	5.051459E-17	1.768178E-18
5.527737E+03	5.025636E-17	1.760597E-18
5.537555E+03	4.996771E-17	1.751908E-18
5.547374E+03	4.964824E-17	1.742095E-18
5.557192E+03	4.929244E-17	1.730960E-18
5.567010E+03	4.891319E-17	1.718954E-18
5.576829E+03	4.850651E-17	1.705935E-18
5.586647E+03	4.806934E-17	1.691793E-18
5.596465E+03	4.761641E-17	1.677044E-18
5.606284E+03	4.714023E-17	1.661424E-18
5.616102E+03	4.665629E-17	1.645476E-18
5.625920E+03	4.615809E-17	1.628972E-18
5.635739E+03	4.566137E-17	1.612468E-18
5.645557E+03	4.516010E-17	1.595749E-18
5.655376E+03	4.466450E-17	1.579178E-18
5.665194E+03	4.417912E-17	1.562917E-18
5.675012E+03	4.370823E-17	1.547117E-18
5.684831E+03	4.325573E-17	1.531919E-18
5.694649E+03	4.283012E-17	1.517624E-18
5.704467E+03	4.241913E-17	1.503801E-18
5.714286E+03	4.204032E-17	1.491073E-18
5.724104E+03	4.169047E-17	1.479327E-18
5.733922E+03	4.137080E-17	1.468609E-18
5.743741E+03	4.108197E-17	1.458943E-18
5.753559E+03	4.082408E-17	1.450336E-18
5.763378E+03	4.059192E-17	1.442604E-18
5.773196E+03	4.039422E-17	1.436057E-18
5.783014E+03	4.022008E-17	1.430310E-18
5.792833E+03	4.007732E-17	1.425641E-18
5.802651E+03	3.995446E-17	1.421644E-18
5.812469E+03	3.985875E-17	1.418575E-18
5.822288E+03	3.977838E-17	1.416018E-18
5.832106E+03	3.972040E-17	1.414220E-18
5.841924E+03	3.967306E-17	1.412766E-18
5.851743E+03	3.963885E-17	1.411743E-18
5.861561E+03	3.961583E-17	1.411083E-18
5.871379E+03	3.960237E-17	1.410727E-18
5.881198E+03	3.960195E-17	1.410799E-18
5.891016E+03	3.960450E-17	1.410940E-18
5.900835E+03	3.961457E-17	1.411312E-18
5.910653E+03	3.963258E-17	1.411930E-18
5.920471E+03	3.965964E-17	1.412833E-18
5.930290E+03	3.969746E-17	1.414081E-18
5.940108E+03	3.974369E-17	1.415590E-18
5.949926E+03	3.981065E-17	1.417799E-18
5.959745E+03	3.989716E-17	1.420665E-18
5.969563E+03	4.000720E-17	1.424328E-18
5.979381E+03	4.014041E-17	1.428776E-18
5.989200E+03	4.031100E-17	1.434511E-18
5.999018E+03	4.051919E-17	1.441542E-18
6.008837E+03	4.076529E-17	1.449876E-18
6.018655E+03	4.106405E-17	1.460037E-18
6.028473E+03	4.141087E-17	1.471857E-18
6.038292E+03	4.182045E-17	1.485857E-18
6.048110E+03	4.228756E-17	1.501846E-18
6.057928E+03	4.282641E-17	1.520325E-18
6.067747E+03	4.343065E-17	1.541063E-18
6.077565E+03	4.410834E-17	1.564341E-18
6.087383E+03	4.486704E-17	1.590421E-18
6.097202E+03	4.569751E-17	1.618968E-18
6.107020E+03	4.660512E-17	1.650167E-18
6.116838E+03	4.758870E-17	1.683967E-18
6.126657E+03	4.864558E-17	1.720267E-18
6.136475E+03	4.977140E-17	1.758903E-18
6.146294E+03	5.095994E-17	1.799648E-18
6.156112E+03	5.220918E-17	1.842422E-18
6.165930E+03	5.349663E-17	1.886422E-18
6.175749E+03	5.480941E-17	1.931189E-18
6.185567E+03	5.614582E-17	1.976656E-18
6.195385E+03	5.748313E-17	2.022016E-18
6.205204E+03	5.880324E-17	2.066630E-18
6.215022E+03	6.008680E-17	2.109816E-18
6.224840E+03	6.131366E-17	2.150865E-18
6.234659E+03	6.246356E-17	2.189070E-18
6.244477E+03	6.350928E-17	2.223482E-18
6.254296E+03	6.444744E-17	2.253989E-18
6.264114E+03	6.525445E-17	2.279778E-18
6.273932E+03	6.590924E-17	2.300124E-18
6.283751E+03	6.641769E-17	2.315249E-18
6.293569E+03	6.676649E-17	2.324703E-18
6.303387E+03	6.694653E-17	2.328190E-18
6.313206E+03	6.697706E-17	2.326397E-18
6.323024E+03	6.685002E-17	2.319065E-18
6.332842E+03	6.659313E-17	2.307175E-18
6.342661E+03	6.620595E-17	2.290730E-18
6.352479E+03	6.572239E-17	2.270920E-18
6.362297E+03	6.514693E-17	2.247917E-18
6.372116E+03	6.450866E-17	2.222736E-18
6.381934E+03	6.383652E-17	2.196385E-18
6.391753E+03	6.313586E-17	2.169055E-18
6.401571E+03	6.243340E-17	2.141667E-18
6.411389E+03	6.175313E-17	2.115047E-18
6.421208E+03	6.109143E-17	2.089068E-18
6.431026E+03	6.046001E-17	2.064130E-18
6.440844E+03	5.986058E-17	2.040287E-18
6.450663E+03	5.929279E-17	2.017523E-18
6.460481E+03	5.876166E-17	1.996006E-18
6.470299E+03	5.824997E-17	1.975146E-18
6.480118E+03	5.776060E-17	1.955038E-18
6.489936E+03	5.728872E-17	1.935518E-18
6.499755E+03	5.682899E-17	1.916403E-18
6.509573E+03	5.637584E-17	1.897504E-18
6.519391E+03	5.592355E-17	1.878630E-18
6.529210E+03	5.546645E-17	1.859592E-18
6.539028E+03	5.499908E-17	1.840208E-18
6.548846E+03	5.451629E-17	1.820312E-18
6.558665E+03	5.401335E-17	1.799749E-18
6.568483E+03	5.347972E-17	1.778175E-18
6.578301E+03	5.292463E-17	1.755905E-18
6.588120E+03	5.233876E-17	1.732637E-18
6.597938E+03	5.171996E-17	1.708308E-18
6.607757E+03	5.106677E-17	1.682880E-18
6.617575E+03	5.037252E-17	1.656143E-18
6.627393E+03	4.964937E-17	1.628508E-18
6.637212E+03	4.889204E-17	1.599811E-18
6.647030E+03	4.810204E-17	1.570112E-18
6.656848E+03	4.727593E-17	1.539310E-18
6.666667E+03	4.642795E-17	1.507879E-18
6.676485E+03	4.555039E-17	1.475578E-18
6.686303E+03	4.465831E-17	1.442903E-18
6.696122E+03	4.375069E-17	1.409829E-18
6.705940E+03	4.282746E-17	1.376359E-18
6.715758E+03	4.190433E-17	1.343007E-18
6.725577E+03	4.097684E-17	1.309631E-18
6.735395E+03	4.006076E-17	1.276739E-18
6.745214E+03	3.915226E-17	1.244209E-18
6.755032E+03	3.826212E-17	1.212384E-18
6.764850E+03	3.740052E-17	1.181584E-18
6.774669E+03	3.656378E-17	1.151688E-18
6.784487E+03	3.576590E-17	1.123130E-18
6.794305E+03	3.500279E-17	1.095776E-18
6.804124E+03	3.428302E-17	1.069885E-18
6.813942E+03	3.361422E-17	1.045684E-18
6.823760E+03	3.299133E-17	1.023004E-18
6.833579E+03	3.242100E-17	1.002038E-18
6.843397E+03	3.190520E-17	9.828330E-19
6.853216E+03	3.144921E-17	9.655371E-19
6.863034E+03	3.104647E-17	9.499320E-19
6.872852E+03	3.070140E-17	9.361377E-19
6.882671E+03	3.041427E-17	9.241456E-19
6.892489E+03	3.018503E-17	9.139365E-19
6.902307E+03	3.001335E-17	9.054830E-19
6.912126E+03	2.989874E-17	8.987528E-19
6.921944E+03	2.984055E-17	8.937079E-19
6.931762E+03	2.983803E-17	8.903083E-19
6.941581E+03	2.989041E-17	8.885124E-19
6.951399E+03	2.999689E-17	8.882783E-19
6.961217E+03	3.015669E-17	8.895651E-19
6.971036E+03	3.036912E-17	8.923342E-19
6.980854E+03	3.063356E-17	8.965491E-19
6.990673E+03	3.094950E-17	9.021764E-19
7.000491E+03	3.131652E-17	9.091859E-19
7.010309E+03	3.173433E-17	9.175504E-19
7.020128E+03	3.219883E-17	9.271336E-19
7.029946E+03	3.271763E-17	9.381365E-19
7.039764E+03	3.328683E-17	9.504275E-19
7.049583E+03	3.390637E-17	9.639861E-19
7.059401E+03	3.457194E-17	9.786711E-19
7.069219E+03	3.529164E-17	9.946931E-19
7.079038E+03	3.606094E-17	1.011904E-18
7.088856E+03	3.687467E-17	1.030142E-18
7.098675E+03	3.774059E-17	1.049603E-18
7.108493E+03	3.865271E-17	1.070103E-18
7.118311E+03	3.960394E-17	1.091427E-18
7.128130E+03	4.060073E-17	1.113738E-18
7.137948E+03	4.162931E-17	1.136642E-18
7.147766E+03	4.269453E-17	1.160258E-18
7.157585E+03	4.377976E-17	1.184121E-18
7.167403E+03	4.488774E-17	1.208299E-18
7.177221E+03	4.599840E-17	1.232245E-18
7.187040E+03	4.711203E-17	1.255965E-18
7.196858E+03	4.820493E-17	1.278832E-18
7.206676E+03	4.926891E-17	1.300636E-18
7.216495E+03	5.029502E-17	1.321157E-18
7.226313E+03	5.125503E-17	1.339672E-18
7.236132E+03	5.213823E-17	1.355930E-18
7.245950E+03	5.292772E-17	1.369526E-18
7.255768E+03	5.361358E-17	1.380245E-18
7.265587E+03	5.416732E-17	1.387398E-18
7.275405E+03	5.458165E-17	1.390856E-18
7.285223E+03	5.484511E-17	1.390386E-18
7.295042E+03	5.494915E-17	1.385834E-18
7.304860E+03	5.488862E-17	1.377136E-18
7.314678E+03	5.466204E-17	1.364323E-18
7.324497E+03	5.427178E-17	1.347523E-18
7.334315E+03	5.372406E-17	1.326954E-18
7.344134E+03	5.302863E-17	1.302922E-18
7.353952E+03	5.219849E-17	1.275803E-18
7.363770E+03	5.124923E-17	1.246032E-18
7.373589E+03	5.019851E-17	1.214081E-18
7.383407E+03	4.906527E-17	1.180448E-18
7.393225E+03	4.786914E-17	1.145634E-18
7.403044E+03	4.662400E-17	1.109995E-18
7.412862E+03	4.536050E-17	1.074275E-18
7.422680E+03	4.409075E-17	1.038767E-18
7.432499E+03	4.283128E-17	1.003859E-18
7.442317E+03	4.159179E-17	9.697736E-19
7.452135E+03	4.039571E-17	9.370458E-19
7.461954E+03	3.924879E-17	9.057920E-19
7.471772E+03	3.815551E-17	8.760960E-19
7.481591E+03	3.713274E-17	8.483234E-19
7.491409E+03	3.617682E-17	8.223650E-19
7.501227E+03	3.530089E-17	7.984941E-19
7.511046E+03	3.449883E-17	7.765448E-19
7.520864E+03	3.378078E-17	7.567192E-19
7.530682E+03	3.313881E-17	7.388119E-19
7.540501E+03	3.257679E-17	7.228844E-19
7.550319E+03	3.209763E-17	7.089756E-19
7.560137E+03	3.169161E-17	6.968467E-19
7.569956E+03	3.136059E-17	6.865172E-19
7.579774E+03	3.110587E-17	6.779945E-19
7.589593E+03	3.091671E-17	6.710255E-19
7.599411E+03	3.079379E-17	6.656086E-19
7.609229E+03	3.073358E-17	6.616528E-19
7.619048E+03	3.073228E-17	6.590634E-19
