#wls	flux	fluxerr
1.570938E+03	2.063038E-18	1.513597E-19
1.610211E+03	2.103637E-18	1.539519E-19
1.649485E+03	2.141311E-18	1.563057E-19
1.688758E+03	2.175903E-18	1.584106E-19
1.728031E+03	2.207515E-18	1.602753E-19
1.767305E+03	2.234649E-18	1.617924E-19
1.806578E+03	2.256709E-18	1.629210E-19
1.845852E+03	2.271567E-18	1.635106E-19
1.885125E+03	2.276839E-18	1.633944E-19
1.924399E+03	2.271873E-18	1.625317E-19
1.963672E+03	2.254583E-18	1.607807E-19
2.002946E+03	2.227046E-18	1.582974E-19
2.042219E+03	2.195834E-18	1.555550E-19
2.081492E+03	2.172221E-18	1.533523E-19
2.120766E+03	2.171221E-18	1.527404E-19
2.160039E+03	2.205527E-18	1.545918E-19
2.199313E+03	2.279778E-18	1.592030E-19
2.238586E+03	2.389782E-18	1.662497E-19
2.277860E+03	2.524658E-18	1.749476E-19
2.317133E+03	2.674855E-18	1.846150E-19
2.356406E+03	2.832257E-18	1.946786E-19
2.395680E+03	2.992506E-18	2.048316E-19
2.434953E+03	3.154449E-18	2.149900E-19
2.474227E+03	3.317011E-18	2.250768E-19
2.513500E+03	3.482273E-18	2.352293E-19
2.552774E+03	3.651126E-18	2.455023E-19
2.592047E+03	3.825244E-18	2.560019E-19
2.631321E+03	4.006420E-18	2.668398E-19
2.670594E+03	4.197246E-18	2.781781E-19
2.709867E+03	4.398241E-18	2.900390E-19
2.749141E+03	4.612928E-18	3.026406E-19
2.788414E+03	4.842744E-18	3.160599E-19
2.827688E+03	5.090006E-18	3.304288E-19
2.866961E+03	5.357228E-18	3.458885E-19
2.906235E+03	5.648122E-18	3.626530E-19
2.945508E+03	5.964833E-18	3.808307E-19
2.955326E+03	6.047910E-18	3.855838E-19
2.965145E+03	6.132848E-18	3.904384E-19
2.974963E+03	6.220766E-18	3.954654E-19
2.984782E+03	6.309620E-18	4.005340E-19
2.994600E+03	6.401649E-18	4.057858E-19
3.004418E+03	6.494782E-18	4.110888E-19
3.014237E+03	6.591277E-18	4.165854E-19
3.024055E+03	6.688947E-18	4.221366E-19
3.033873E+03	6.790242E-18	4.278964E-19
3.043692E+03	6.892672E-18	4.337070E-19
3.053510E+03	6.999264E-18	4.397582E-19
3.063328E+03	7.107660E-18	4.459011E-19
3.073147E+03	7.220289E-18	4.522870E-19
3.082965E+03	7.334720E-18	4.587627E-19
3.092784E+03	7.453470E-18	4.654849E-19
3.102602E+03	7.574039E-18	4.722964E-19
3.112420E+03	7.699029E-18	4.793586E-19
3.122239E+03	7.827205E-18	4.865935E-19
3.132057E+03	7.957268E-18	4.939194E-19
3.141875E+03	8.091945E-18	5.015048E-19
3.151694E+03	8.228569E-18	5.091834E-19
3.161512E+03	8.369957E-18	5.171284E-19
3.171330E+03	8.514805E-18	5.252581E-19
3.181149E+03	8.661702E-18	5.334845E-19
3.190967E+03	8.813630E-18	5.419905E-19
3.200785E+03	8.967695E-18	5.505968E-19
3.210604E+03	9.126988E-18	5.594922E-19
3.220422E+03	9.290084E-18	5.685880E-19
3.230241E+03	9.455468E-18	5.777905E-19
3.240059E+03	9.626388E-18	5.872971E-19
3.249877E+03	9.801347E-18	5.970151E-19
3.259696E+03	9.978757E-18	6.068466E-19
3.269514E+03	1.016203E-17	6.169982E-19
3.279332E+03	1.034960E-17	6.273730E-19
3.289151E+03	1.053978E-17	6.378679E-19
3.298969E+03	1.073619E-17	6.487005E-19
3.308787E+03	1.093714E-17	6.597676E-19
3.318606E+03	1.114275E-17	6.710745E-19
3.328424E+03	1.135118E-17	6.825096E-19
3.338243E+03	1.156630E-17	6.943040E-19
3.348061E+03	1.178632E-17	7.063494E-19
3.357879E+03	1.200931E-17	7.185273E-19
3.367698E+03	1.223933E-17	7.310814E-19
3.377516E+03	1.247449E-17	7.438952E-19
3.387334E+03	1.271487E-17	7.569726E-19
3.397153E+03	1.295834E-17	7.701862E-19
3.406971E+03	1.320929E-17	7.837947E-19
3.416789E+03	1.346563E-17	7.976727E-19
3.426608E+03	1.372742E-17	8.118223E-19
3.436426E+03	1.399236E-17	8.261058E-19
3.446244E+03	1.426513E-17	8.407983E-19
3.456063E+03	1.454346E-17	8.557640E-19
3.465881E+03	1.482737E-17	8.710029E-19
3.475700E+03	1.511686E-17	8.865132E-19
3.485518E+03	1.540935E-17	9.021427E-19
3.495336E+03	1.570994E-17	9.181885E-19
3.505155E+03	1.601607E-17	9.344990E-19
3.514973E+03	1.632770E-17	9.510700E-19
3.524791E+03	1.664198E-17	9.677353E-19
3.534610E+03	1.696435E-17	9.848100E-19
3.544428E+03	1.729199E-17	1.002128E-18
3.554246E+03	1.762480E-17	1.019682E-18
3.564065E+03	1.796264E-17	1.037464E-18
3.573883E+03	1.830536E-17	1.055463E-18
3.583702E+03	1.864968E-17	1.073489E-18
3.593520E+03	1.900155E-17	1.091885E-18
3.603338E+03	1.935773E-17	1.110462E-18
3.613157E+03	1.971794E-17	1.129204E-18
3.622975E+03	2.008194E-17	1.148095E-18
3.632793E+03	2.044601E-17	1.166924E-18
3.642612E+03	2.081658E-17	1.186057E-18
3.652430E+03	2.118993E-17	1.205281E-18
3.662248E+03	2.156570E-17	1.224575E-18
3.672067E+03	2.194347E-17	1.243915E-18
3.681885E+03	2.232279E-17	1.263276E-18
3.691703E+03	2.269943E-17	1.282418E-18
3.701522E+03	2.308033E-17	1.301736E-18
3.711340E+03	2.346126E-17	1.320989E-18
3.721159E+03	2.384166E-17	1.340147E-18
3.730977E+03	2.422093E-17	1.359177E-18
3.740795E+03	2.459437E-17	1.377817E-18
3.750614E+03	2.496938E-17	1.396482E-18
3.760432E+03	2.534128E-17	1.414914E-18
3.770250E+03	2.570936E-17	1.433072E-18
3.780069E+03	2.607287E-17	1.450917E-18
3.789887E+03	2.642670E-17	1.468167E-18
3.799705E+03	2.677871E-17	1.485262E-18
3.809524E+03	2.712380E-17	1.501921E-18
3.819342E+03	2.746114E-17	1.518101E-18
3.829161E+03	2.778990E-17	1.533758E-18
3.838979E+03	2.810923E-17	1.548849E-18
3.848797E+03	2.841359E-17	1.563072E-18
3.858616E+03	2.871141E-17	1.576897E-18
3.868434E+03	2.899721E-17	1.590023E-18
3.878252E+03	2.927010E-17	1.602408E-18
3.888071E+03	2.952922E-17	1.614009E-18
3.897889E+03	2.976884E-17	1.624516E-18
3.907707E+03	2.999781E-17	1.634419E-18
3.917526E+03	3.021044E-17	1.643412E-18
3.927344E+03	3.040589E-17	1.651453E-18
3.937162E+03	3.057832E-17	1.658231E-18
3.946981E+03	3.073688E-17	1.664249E-18
3.956799E+03	3.087578E-17	1.669197E-18
3.966618E+03	3.099427E-17	1.673042E-18
3.976436E+03	3.108662E-17	1.675480E-18
3.986254E+03	3.116251E-17	1.677038E-18
3.996073E+03	3.121666E-17	1.677438E-18
4.005891E+03	3.124918E-17	1.676692E-18
4.015709E+03	3.125554E-17	1.674564E-18
4.025528E+03	3.124693E-17	1.671657E-18
4.035346E+03	3.121972E-17	1.667782E-18
4.045164E+03	3.117573E-17	1.663042E-18
4.054983E+03	3.111206E-17	1.657285E-18
4.064801E+03	3.104113E-17	1.651179E-18
4.074620E+03	3.096022E-17	1.644579E-18
4.084438E+03	3.086654E-17	1.637341E-18
4.094256E+03	3.077218E-17	1.630108E-18
4.104075E+03	3.067399E-17	1.622713E-18
4.113893E+03	3.056863E-17	1.614983E-18
4.123711E+03	3.046758E-17	1.607523E-18
4.133530E+03	3.036724E-17	1.600144E-18
4.143348E+03	3.026414E-17	1.592663E-18
4.153166E+03	3.016951E-17	1.585670E-18
4.162985E+03	3.007986E-17	1.578983E-18
4.172803E+03	2.999179E-17	1.572421E-18
4.182622E+03	2.991641E-17	1.566566E-18
4.192440E+03	2.984531E-17	1.560977E-18
4.202258E+03	2.978927E-17	1.556215E-18
4.212077E+03	2.974431E-17	1.552070E-18
4.221895E+03	2.970625E-17	1.548324E-18
4.231713E+03	2.968501E-17	1.545492E-18
4.241532E+03	2.967108E-17	1.543076E-18
4.251350E+03	2.967398E-17	1.541571E-18
4.261168E+03	2.968393E-17	1.540467E-18
4.270987E+03	2.971032E-17	1.540249E-18
4.280805E+03	2.974822E-17	1.540661E-18
4.290623E+03	2.979280E-17	1.541451E-18
4.300442E+03	2.985371E-17	1.543118E-18
4.310260E+03	2.992129E-17	1.545161E-18
4.320079E+03	3.000478E-17	1.548056E-18
4.329897E+03	3.009386E-17	1.551269E-18
4.339715E+03	3.019253E-17	1.555006E-18
4.349534E+03	3.030496E-17	1.559478E-18
4.359352E+03	3.042084E-17	1.564153E-18
4.369170E+03	3.054953E-17	1.569513E-18
4.378989E+03	3.068097E-17	1.575039E-18
4.388807E+03	3.082483E-17	1.581226E-18
4.398625E+03	3.097112E-17	1.587560E-18
4.408444E+03	3.112455E-17	1.594283E-18
4.418262E+03	3.128976E-17	1.601631E-18
4.428081E+03	3.145615E-17	1.609060E-18
4.437899E+03	3.163282E-17	1.617035E-18
4.447717E+03	3.180829E-17	1.624970E-18
4.457536E+03	3.198584E-17	1.633029E-18
4.467354E+03	3.216835E-17	1.641362E-18
4.477172E+03	3.234286E-17	1.649305E-18
4.486991E+03	3.251132E-17	1.656960E-18
4.496809E+03	3.267019E-17	1.664146E-18
4.506627E+03	3.282080E-17	1.670931E-18
4.516446E+03	3.294859E-17	1.676574E-18
4.526264E+03	3.305457E-17	1.681129E-18
4.536082E+03	3.313465E-17	1.684388E-18
4.545901E+03	3.319036E-17	1.686432E-18
4.555719E+03	3.320791E-17	1.686560E-18
4.565538E+03	3.319020E-17	1.684922E-18
4.575356E+03	3.313582E-17	1.681447E-18
4.585174E+03	3.304451E-17	1.676125E-18
4.594993E+03	3.292244E-17	1.669270E-18
4.604811E+03	3.276117E-17	1.660454E-18
4.614629E+03	3.256911E-17	1.650105E-18
4.624448E+03	3.235034E-17	1.638431E-18
4.634266E+03	3.210971E-17	1.625677E-18
4.644084E+03	3.185266E-17	1.612119E-18
4.653903E+03	3.158502E-17	1.598051E-18
4.663721E+03	3.131279E-17	1.583777E-18
4.673540E+03	3.104201E-17	1.569600E-18
4.683358E+03	3.077848E-17	1.555813E-18
4.693176E+03	3.052764E-17	1.542690E-18
4.702995E+03	3.029436E-17	1.530476E-18
4.712813E+03	3.008282E-17	1.519378E-18
4.722631E+03	2.989632E-17	1.509563E-18
4.732450E+03	2.973726E-17	1.501150E-18
4.742268E+03	2.960712E-17	1.494212E-18
4.752086E+03	2.950649E-17	1.488776E-18
4.761905E+03	2.943517E-17	1.484831E-18
4.771723E+03	2.939231E-17	1.482332E-18
4.781541E+03	2.937653E-17	1.481209E-18
4.791360E+03	2.938609E-17	1.481371E-18
4.801178E+03	2.941891E-17	1.482713E-18
4.810997E+03	2.946813E-17	1.484888E-18
4.820815E+03	2.954077E-17	1.488248E-18
4.830633E+03	2.962984E-17	1.492441E-18
4.840452E+03	2.973315E-17	1.497355E-18
4.850270E+03	2.984871E-17	1.502888E-18
4.860088E+03	2.997007E-17	1.508716E-18
4.869907E+03	3.010532E-17	1.515245E-18
4.879725E+03	3.024877E-17	1.522187E-18
4.889543E+03	3.039984E-17	1.529513E-18
4.899362E+03	3.055341E-17	1.536965E-18
4.909180E+03	3.071895E-17	1.545018E-18
4.918999E+03	3.089155E-17	1.553425E-18
4.928817E+03	3.106601E-17	1.561924E-18
4.938635E+03	3.125150E-17	1.570974E-18
4.948454E+03	3.144220E-17	1.580284E-18
4.958272E+03	3.163188E-17	1.589538E-18
4.968090E+03	3.182906E-17	1.599165E-18
4.977909E+03	3.202235E-17	1.608592E-18
4.987727E+03	3.222070E-17	1.618267E-18
4.997545E+03	3.241342E-17	1.627654E-18
5.007364E+03	3.261081E-17	1.637269E-18
5.017182E+03	3.280354E-17	1.646644E-18
5.027000E+03	3.300360E-17	1.656379E-18
5.036819E+03	3.320299E-17	1.666072E-18
5.046637E+03	3.341494E-17	1.676387E-18
5.056456E+03	3.363189E-17	1.686944E-18
5.066274E+03	3.386713E-17	1.698408E-18
5.076092E+03	3.411231E-17	1.710359E-18
5.085911E+03	3.437957E-17	1.723405E-18
5.095729E+03	3.465858E-17	1.737028E-18
5.105547E+03	3.495406E-17	1.751462E-18
5.115366E+03	3.526976E-17	1.766895E-18
5.125184E+03	3.559193E-17	1.782636E-18
5.135002E+03	3.592252E-17	1.798783E-18
5.144821E+03	3.626320E-17	1.815417E-18
5.154639E+03	3.659833E-17	1.831755E-18
5.164458E+03	3.692918E-17	1.847860E-18
5.174276E+03	3.725735E-17	1.863812E-18
5.184094E+03	3.756717E-17	1.878825E-18
5.193913E+03	3.786062E-17	1.893000E-18
5.203731E+03	3.813421E-17	1.906162E-18
5.213549E+03	3.838465E-17	1.918146E-18
5.223368E+03	3.861507E-17	1.929108E-18
5.233186E+03	3.881075E-17	1.938316E-18
5.243004E+03	3.897547E-17	1.945957E-18
5.252823E+03	3.910741E-17	1.951941E-18
5.262641E+03	3.920531E-17	1.956208E-18
5.272459E+03	3.926845E-17	1.958722E-18
5.282278E+03	3.929679E-17	1.959482E-18
5.292096E+03	3.929094E-17	1.958520E-18
5.301915E+03	3.925213E-17	1.955899E-18
5.311733E+03	3.918224E-17	1.951713E-18
5.321551E+03	3.908370E-17	1.946086E-18
5.331370E+03	3.895938E-17	1.939161E-18
5.341188E+03	3.881250E-17	1.931101E-18
5.351006E+03	3.864655E-17	1.922080E-18
5.360825E+03	3.846512E-17	1.912277E-18
5.370643E+03	3.827186E-17	1.901874E-18
5.380461E+03	3.807028E-17	1.891047E-18
5.390280E+03	3.786370E-17	1.879961E-18
5.400098E+03	3.765513E-17	1.868766E-18
5.409917E+03	3.744708E-17	1.857586E-18
5.419735E+03	3.724150E-17	1.846519E-18
5.429553E+03	3.703960E-17	1.835623E-18
5.439372E+03	3.684165E-17	1.824911E-18
5.449190E+03	3.664099E-17	1.814055E-18
5.459008E+03	3.644682E-17	1.803509E-18
5.468827E+03	3.624974E-17	1.792808E-18
5.478645E+03	3.604486E-17	1.781711E-18
5.488463E+03	3.582084E-17	1.769658E-18
5.498282E+03	3.558272E-17	1.756899E-18
5.508100E+03	3.531884E-17	1.742861E-18
5.517919E+03	3.502383E-17	1.727280E-18
5.527737E+03	3.468802E-17	1.709685E-18
5.537555E+03	3.431959E-17	1.690481E-18
5.547374E+03	3.391215E-17	1.669357E-18
5.557192E+03	3.346138E-17	1.646106E-18
5.567010E+03	3.298040E-17	1.621375E-18
5.576829E+03	3.246798E-17	1.595111E-18
5.586647E+03	3.192436E-17	1.567327E-18
5.596465E+03	3.136558E-17	1.538814E-18
5.606284E+03	3.078828E-17	1.509412E-18
5.616102E+03	3.020887E-17	1.479925E-18
5.625920E+03	2.962920E-17	1.450447E-18
5.635739E+03	2.905127E-17	1.421076E-18
5.645557E+03	2.849047E-17	1.392565E-18
5.655376E+03	2.794365E-17	1.364760E-18
5.665194E+03	2.742496E-17	1.338349E-18
5.675012E+03	2.693053E-17	1.313144E-18
5.684831E+03	2.647292E-17	1.289752E-18
5.694649E+03	2.604718E-17	1.267930E-18
5.704467E+03	2.566003E-17	1.248002E-18
5.714286E+03	2.531709E-17	1.230236E-18
5.724104E+03	2.501130E-17	1.214284E-18
5.733922E+03	2.475056E-17	1.200525E-18
5.743741E+03	2.452650E-17	1.188549E-18
5.753559E+03	2.434168E-17	1.178475E-18
5.763378E+03	2.419803E-17	1.170390E-18
5.773196E+03	2.408565E-17	1.163811E-18
5.783014E+03	2.400925E-17	1.158962E-18
5.792833E+03	2.395818E-17	1.155323E-18
5.802651E+03	2.393271E-17	1.152903E-18
5.812469E+03	2.392903E-17	1.151517E-18
5.822288E+03	2.394687E-17	1.151145E-18
5.832106E+03	2.397458E-17	1.151228E-18
5.841924E+03	2.401163E-17	1.151737E-18
5.851743E+03	2.405374E-17	1.152465E-18
5.861561E+03	2.410060E-17	1.153397E-18
5.871379E+03	2.414103E-17	1.153998E-18
5.881198E+03	2.417567E-17	1.154298E-18
5.891016E+03	2.420215E-17	1.154186E-18
5.900835E+03	2.421911E-17	1.153598E-18
5.910653E+03	2.423001E-17	1.152700E-18
5.920471E+03	2.422818E-17	1.151177E-18
5.930290E+03	2.421947E-17	1.149308E-18
5.940108E+03	2.420713E-17	1.147248E-18
5.949926E+03	2.419551E-17	1.145204E-18
5.959745E+03	2.418994E-17	1.143428E-18
5.969563E+03	2.419655E-17	1.142208E-18
5.979381E+03	2.422211E-17	1.141861E-18
5.989200E+03	2.427761E-17	1.142901E-18
5.999018E+03	2.436302E-17	1.145319E-18
6.008837E+03	2.448980E-17	1.149648E-18
6.018655E+03	2.466573E-17	1.156245E-18
6.028473E+03	2.489869E-17	1.165467E-18
6.038292E+03	2.519660E-17	1.177672E-18
6.048110E+03	2.556745E-17	1.193219E-18
6.057928E+03	2.601931E-17	1.212469E-18
6.067747E+03	2.656032E-17	1.235781E-18
6.077565E+03	2.719862E-17	1.263513E-18
6.087383E+03	2.794237E-17	1.296021E-18
6.097202E+03	2.879511E-17	1.333444E-18
6.107020E+03	2.977332E-17	1.376517E-18
6.116838E+03	3.087976E-17	1.425339E-18
6.126657E+03	3.212053E-17	1.480157E-18
6.136475E+03	3.350018E-17	1.541147E-18
6.146294E+03	3.502108E-17	1.608384E-18
6.156112E+03	3.668262E-17	1.681802E-18
6.165930E+03	3.848034E-17	1.761159E-18
6.175749E+03	4.040503E-17	1.845999E-18
6.185567E+03	4.243533E-17	1.935311E-18
6.195385E+03	4.456295E-17	2.028689E-18
6.205204E+03	4.675364E-17	2.124546E-18
6.215022E+03	4.897233E-17	2.221271E-18
6.224840E+03	5.117701E-17	2.316950E-18
6.234659E+03	5.331121E-17	2.409030E-18
6.244477E+03	5.533825E-17	2.495868E-18
6.254296E+03	5.719466E-17	2.574632E-18
6.264114E+03	5.882521E-17	2.642880E-18
6.273932E+03	6.016918E-17	2.697944E-18
6.283751E+03	6.120143E-17	2.738774E-18
6.293569E+03	6.188074E-17	2.763609E-18
6.303387E+03	6.218993E-17	2.771777E-18
6.313206E+03	6.211935E-17	2.762949E-18
6.323024E+03	6.170633E-17	2.738887E-18
6.332842E+03	6.097605E-17	2.700801E-18
6.342661E+03	5.996796E-17	2.650527E-18
6.352479E+03	5.875923E-17	2.591548E-18
6.362297E+03	5.740291E-17	2.526260E-18
6.372116E+03	5.595198E-17	2.457032E-18
6.381934E+03	5.448065E-17	2.387149E-18
6.391753E+03	5.302860E-17	2.318354E-18
6.401571E+03	5.162676E-17	2.251992E-18
6.411389E+03	5.031926E-17	2.189974E-18
6.421208E+03	4.910602E-17	2.132270E-18
6.431026E+03	4.800759E-17	2.079745E-18
6.440844E+03	4.700698E-17	2.031632E-18
6.450663E+03	4.611328E-17	1.988295E-18
6.460481E+03	4.531116E-17	1.949044E-18
6.470299E+03	4.458460E-17	1.913165E-18
6.480118E+03	4.393770E-17	1.880812E-18
6.489936E+03	4.334636E-17	1.850932E-18
6.499755E+03	4.281355E-17	1.823634E-18
6.509573E+03	4.231501E-17	1.797872E-18
6.519391E+03	4.185309E-17	1.773733E-18
6.529210E+03	4.140385E-17	1.750196E-18
6.539028E+03	4.096987E-17	1.727366E-18
6.548846E+03	4.052877E-17	1.704299E-18
6.558665E+03	4.008500E-17	1.681183E-18
6.568483E+03	3.961953E-17	1.657224E-18
6.578301E+03	3.913424E-17	1.632510E-18
6.588120E+03	3.863283E-17	1.607203E-18
6.597938E+03	3.810275E-17	1.580788E-18
6.607757E+03	3.755694E-17	1.553811E-18
6.617575E+03	3.698537E-17	1.525866E-18
6.627393E+03	3.640147E-17	1.497517E-18
6.637212E+03	3.579510E-17	1.468351E-18
6.647030E+03	3.517233E-17	1.438627E-18
6.656848E+03	3.453781E-17	1.408543E-18
6.666667E+03	3.387902E-17	1.377594E-18
6.676485E+03	3.319932E-17	1.345928E-18
6.686303E+03	3.250174E-17	1.313677E-18
6.696122E+03	3.177473E-17	1.280383E-18
6.705940E+03	3.102349E-17	1.246268E-18
6.715758E+03	3.025460E-17	1.211606E-18
6.725577E+03	2.946238E-17	1.176180E-18
6.735395E+03	2.865754E-17	1.140427E-18
6.745214E+03	2.785193E-17	1.104822E-18
6.755032E+03	2.704527E-17	1.069359E-18
6.764850E+03	2.625105E-17	1.034570E-18
6.774669E+03	2.547810E-17	1.000801E-18
6.784487E+03	2.473856E-17	9.685191E-19
6.794305E+03	2.403186E-17	9.376924E-19
6.804124E+03	2.336819E-17	9.087053E-19
6.813942E+03	2.275254E-17	8.817365E-19
6.823760E+03	2.219222E-17	8.570498E-19
6.833579E+03	2.168287E-17	8.344577E-19
6.843397E+03	2.122964E-17	8.141380E-19
6.853216E+03	2.083310E-17	7.960907E-19
6.863034E+03	2.049292E-17	7.802814E-19
6.872852E+03	2.021114E-17	7.667653E-19
6.882671E+03	1.997963E-17	7.552117E-19
6.892489E+03	1.979929E-17	7.456346E-19
6.902307E+03	1.966746E-17	7.379127E-19
6.912126E+03	1.958120E-17	7.319167E-19
6.921944E+03	1.953743E-17	7.275127E-19
6.931762E+03	1.953302E-17	7.245675E-19
6.941581E+03	1.956801E-17	7.230652E-19
6.951399E+03	1.963337E-17	7.226571E-19
6.961217E+03	1.972958E-17	7.233481E-19
6.971036E+03	1.985445E-17	7.250444E-19
6.980854E+03	2.000629E-17	7.276725E-19
6.990673E+03	2.018402E-17	7.311810E-19
7.000491E+03	2.038718E-17	7.355423E-19
7.010309E+03	2.061590E-17	7.407499E-19
7.020128E+03	2.087094E-17	7.468193E-19
7.029946E+03	2.115348E-17	7.537807E-19
7.039764E+03	2.146510E-17	7.616784E-19
7.049583E+03	2.180766E-17	7.705644E-19
7.059401E+03	2.218320E-17	7.804966E-19
7.069219E+03	2.259385E-17	7.915348E-19
7.079038E+03	2.304187E-17	8.037419E-19
7.088856E+03	2.352961E-17	8.171822E-19
7.098675E+03	2.405948E-17	8.319210E-19
7.108493E+03	2.463403E-17	8.480265E-19
7.118311E+03	2.525583E-17	8.655668E-19
7.128130E+03	2.592748E-17	8.846085E-19
7.137948E+03	2.665141E-17	9.052116E-19
7.147766E+03	2.742967E-17	9.274211E-19
7.157585E+03	2.826354E-17	9.512556E-19
7.167403E+03	2.915314E-17	9.766928E-19
7.177221E+03	3.009676E-17	1.003651E-18
7.187040E+03	3.109036E-17	1.031971E-18
7.196858E+03	3.212690E-17	1.061399E-18
7.206676E+03	3.319572E-17	1.091563E-18
7.216495E+03	3.427669E-17	1.121792E-18
7.226313E+03	3.536120E-17	1.151800E-18
7.236132E+03	3.642031E-17	1.180650E-18
7.245950E+03	3.742602E-17	1.207451E-18
7.255768E+03	3.834695E-17	1.231221E-18
7.265587E+03	3.914961E-17	1.250934E-18
7.275405E+03	3.980065E-17	1.265585E-18
7.285223E+03	4.026291E-17	1.274071E-18
7.295042E+03	4.052348E-17	1.276075E-18
7.304860E+03	4.055819E-17	1.270936E-18
7.314678E+03	4.035851E-17	1.258492E-18
7.324497E+03	3.992609E-17	1.238907E-18
7.334315E+03	3.926634E-17	1.212453E-18
7.344134E+03	3.841211E-17	1.180247E-18
7.353952E+03	3.738424E-17	1.143014E-18
7.363770E+03	3.621434E-17	1.101796E-18
7.373589E+03	3.493057E-17	1.057508E-18
7.383407E+03	3.357775E-17	1.011551E-18
7.393225E+03	3.218209E-17	9.647410E-19
7.403044E+03	3.077269E-17	9.179628E-19
7.412862E+03	2.937047E-17	8.718423E-19
7.422680E+03	2.800667E-17	8.272964E-19
7.432499E+03	2.669435E-17	7.846899E-19
7.442317E+03	2.544364E-17	7.442945E-19
7.452135E+03	2.427350E-17	7.066326E-19
7.461954E+03	2.318724E-17	6.717637E-19
7.471772E+03	2.218617E-17	6.396872E-19
7.481591E+03	2.127986E-17	6.106401E-19
7.491409E+03	2.046509E-17	5.844884E-19
7.501227E+03	1.973753E-17	5.610702E-19
7.511046E+03	1.910099E-17	5.404561E-19
7.520864E+03	1.854868E-17	5.224166E-19
7.530682E+03	1.807340E-17	5.067164E-19
7.540501E+03	1.767623E-17	4.933540E-19
7.550319E+03	1.734660E-17	4.820060E-19
7.560137E+03	1.708530E-17	4.726683E-19
7.569956E+03	1.688499E-17	4.651137E-19
7.579774E+03	1.673876E-17	4.591313E-19
7.589593E+03	1.664797E-17	4.547401E-19
7.599411E+03	1.660357E-17	4.516755E-19
7.609229E+03	1.660726E-17	4.499694E-19
7.619048E+03	1.665029E-17	4.493721E-19
