#wls	flux	fluxerr
1.570938E+03	1.381260E-18	9.755888E-20
1.610211E+03	1.409463E-18	9.938000E-20
1.649485E+03	1.436130E-18	1.010820E-19
1.688758E+03	1.460919E-18	1.026409E-19
1.728031E+03	1.483644E-18	1.040442E-19
1.767305E+03	1.503831E-18	1.052593E-19
1.806578E+03	1.520554E-18	1.062222E-19
1.845852E+03	1.532645E-18	1.068526E-19
1.885125E+03	1.538761E-18	1.070590E-19
1.924399E+03	1.537627E-18	1.067551E-19
1.963672E+03	1.528621E-18	1.059011E-19
2.002946E+03	1.513115E-18	1.045953E-19
2.042219E+03	1.494734E-18	1.030909E-19
2.081492E+03	1.481698E-18	1.019549E-19
2.120766E+03	1.484569E-18	1.019099E-19
2.160039E+03	1.511628E-18	1.035150E-19
2.199313E+03	1.566800E-18	1.070260E-19
2.238586E+03	1.646604E-18	1.121907E-19
2.277860E+03	1.744910E-18	1.185786E-19
2.317133E+03	1.854425E-18	1.256846E-19
2.356406E+03	1.969948E-18	1.331496E-19
2.395680E+03	2.088539E-18	1.407711E-19
2.434953E+03	2.208680E-18	1.484437E-19
2.474227E+03	2.331186E-18	1.562198E-19
2.513500E+03	2.456396E-18	1.641194E-19
2.552774E+03	2.585830E-18	1.722406E-19
2.592047E+03	2.719815E-18	1.806011E-19
2.631321E+03	2.860103E-18	1.893125E-19
2.670594E+03	3.008061E-18	1.984594E-19
2.709867E+03	3.165105E-18	2.081284E-19
2.749141E+03	3.333306E-18	2.184477E-19
2.788414E+03	3.513071E-18	2.294343E-19
2.827688E+03	3.707267E-18	2.412654E-19
2.866961E+03	3.916380E-18	2.539603E-19
2.906235E+03	4.143656E-18	2.677165E-19
2.945508E+03	4.389705E-18	2.825578E-19
2.955326E+03	4.454709E-18	2.864717E-19
2.965145E+03	4.521106E-18	2.904662E-19
2.974963E+03	4.588932E-18	2.945435E-19
2.984782E+03	4.658235E-18	2.987061E-19
2.994600E+03	4.729077E-18	3.029579E-19
3.004418E+03	4.801528E-18	3.073028E-19
3.014237E+03	4.875619E-18	3.117427E-19
3.024055E+03	4.951383E-18	3.162792E-19
3.033873E+03	5.028947E-18	3.209201E-19
3.043692E+03	5.108152E-18	3.256549E-19
3.053510E+03	5.188598E-18	3.304577E-19
3.063328E+03	5.272098E-18	3.354437E-19
3.073147E+03	5.357752E-18	3.405550E-19
3.082965E+03	5.445566E-18	3.457915E-19
3.092784E+03	5.535544E-18	3.511531E-19
3.102602E+03	5.627700E-18	3.566400E-19
3.112420E+03	5.722044E-18	3.622527E-19
3.122239E+03	5.818592E-18	3.679915E-19
3.132057E+03	5.917363E-18	3.738572E-19
3.141875E+03	6.018375E-18	3.798504E-19
3.151694E+03	6.121650E-18	3.859722E-19
3.161512E+03	6.227213E-18	3.922234E-19
3.171330E+03	6.335088E-18	3.986052E-19
3.181149E+03	6.445302E-18	4.051188E-19
3.190967E+03	6.557882E-18	4.117654E-19
3.200785E+03	6.672860E-18	4.185463E-19
3.210604E+03	6.790259E-18	4.254626E-19
3.220422E+03	6.910119E-18	4.325163E-19
3.230241E+03	7.032468E-18	4.397084E-19
3.240059E+03	7.157335E-18	4.470404E-19
3.249877E+03	7.284753E-18	4.545137E-19
3.259696E+03	7.414759E-18	4.621301E-19
3.269514E+03	7.547380E-18	4.698906E-19
3.279332E+03	7.681298E-18	4.777128E-19
3.289151E+03	7.819219E-18	4.857643E-19
3.298969E+03	7.959848E-18	4.939641E-19
3.308787E+03	8.103216E-18	5.023134E-19
3.318606E+03	8.249347E-18	5.108131E-19
3.328424E+03	8.398273E-18	5.194646E-19
3.338243E+03	8.550014E-18	5.282684E-19
3.348061E+03	8.704590E-18	5.372253E-19
3.357879E+03	8.862030E-18	5.463364E-19
3.367698E+03	9.022347E-18	5.556018E-19
3.377516E+03	9.185552E-18	5.650215E-19
3.387334E+03	9.351660E-18	5.745959E-19
3.397153E+03	9.520676E-18	5.843245E-19
3.406971E+03	9.692609E-18	5.942074E-19
3.416789E+03	9.867457E-18	6.042438E-19
3.426608E+03	1.004521E-17	6.144326E-19
3.436426E+03	1.022587E-17	6.247725E-19
3.446244E+03	1.040941E-17	6.352625E-19
3.456063E+03	1.059582E-17	6.459003E-19
3.465881E+03	1.078507E-17	6.566835E-19
3.475700E+03	1.097712E-17	6.676096E-19
3.485518E+03	1.117194E-17	6.786759E-19
3.495336E+03	1.136949E-17	6.898789E-19
3.505155E+03	1.156969E-17	7.012144E-19
3.514973E+03	1.177251E-17	7.126782E-19
3.524791E+03	1.197786E-17	7.242662E-19
3.534610E+03	1.218567E-17	7.359721E-19
3.544428E+03	1.239584E-17	7.477905E-19
3.554246E+03	1.260830E-17	7.597157E-19
3.564065E+03	1.282293E-17	7.717400E-19
3.573883E+03	1.303960E-17	7.838559E-19
3.583702E+03	1.325820E-17	7.960562E-19
3.593520E+03	1.347860E-17	8.083319E-19
3.603338E+03	1.370063E-17	8.206737E-19
3.613157E+03	1.392415E-17	8.330714E-19
3.622975E+03	1.414899E-17	8.455158E-19
3.632793E+03	1.437496E-17	8.579948E-19
3.642612E+03	1.460189E-17	8.704974E-19
3.652430E+03	1.482955E-17	8.830108E-19
3.662248E+03	1.505774E-17	8.955229E-19
3.672067E+03	1.528624E-17	9.080195E-19
3.681885E+03	1.551480E-17	9.204869E-19
3.691703E+03	1.574319E-17	9.329108E-19
3.701522E+03	1.597114E-17	9.452757E-19
3.711340E+03	1.619839E-17	9.575664E-19
3.721159E+03	1.642467E-17	9.697664E-19
3.730977E+03	1.664968E-17	9.818592E-19
3.740795E+03	1.687314E-17	9.938283E-19
3.750614E+03	1.709473E-17	1.005655E-18
3.760432E+03	1.731417E-17	1.017324E-18
3.770250E+03	1.753113E-17	1.028816E-18
3.780069E+03	1.774530E-17	1.040114E-18
3.789887E+03	1.795636E-17	1.051199E-18
3.799705E+03	1.816398E-17	1.062053E-18
3.809524E+03	1.836786E-17	1.072659E-18
3.819342E+03	1.856767E-17	1.082999E-18
3.829161E+03	1.876308E-17	1.093056E-18
3.838979E+03	1.895381E-17	1.102812E-18
3.848797E+03	1.913955E-17	1.112252E-18
3.858616E+03	1.932000E-17	1.121359E-18
3.868434E+03	1.949490E-17	1.130120E-18
3.878252E+03	1.966398E-17	1.138520E-18
3.888071E+03	1.982699E-17	1.146546E-18
3.897889E+03	1.998372E-17	1.154188E-18
3.907707E+03	2.013396E-17	1.161435E-18
3.917526E+03	2.027756E-17	1.168279E-18
3.927344E+03	2.041435E-17	1.174714E-18
3.937162E+03	2.054423E-17	1.180733E-18
3.946981E+03	2.066713E-17	1.186335E-18
3.956799E+03	2.078299E-17	1.191519E-18
3.966618E+03	2.089183E-17	1.196287E-18
3.976436E+03	2.099367E-17	1.200641E-18
3.986254E+03	2.108859E-17	1.204588E-18
3.996073E+03	2.117670E-17	1.208136E-18
4.005891E+03	2.125816E-17	1.211296E-18
4.015709E+03	2.133315E-17	1.214079E-18
4.025528E+03	2.140192E-17	1.216501E-18
4.035346E+03	2.146473E-17	1.218578E-18
4.045164E+03	2.152188E-17	1.220330E-18
4.054983E+03	2.157371E-17	1.221775E-18
4.064801E+03	2.161683E-17	1.222724E-18
4.074620E+03	2.165910E-17	1.223623E-18
4.084438E+03	2.169719E-17	1.224285E-18
4.094256E+03	2.173152E-17	1.224733E-18
4.104075E+03	2.176253E-17	1.224994E-18
4.113893E+03	2.179063E-17	1.225092E-18
4.123711E+03	2.181629E-17	1.225053E-18
4.133530E+03	2.183993E-17	1.224902E-18
4.143348E+03	2.186197E-17	1.224663E-18
4.153166E+03	2.188288E-17	1.224363E-18
4.162985E+03	2.190303E-17	1.224023E-18
4.172803E+03	2.192284E-17	1.223666E-18
4.182622E+03	2.194269E-17	1.223314E-18
4.192440E+03	2.196293E-17	1.222988E-18
4.202258E+03	2.198012E-17	1.222494E-18
4.212077E+03	2.200217E-17	1.222274E-18
4.221895E+03	2.202557E-17	1.222132E-18
4.231713E+03	2.205058E-17	1.222082E-18
4.241532E+03	2.207744E-17	1.222138E-18
4.251350E+03	2.210637E-17	1.222311E-18
4.261168E+03	2.213754E-17	1.222610E-18
4.270987E+03	2.217108E-17	1.223043E-18
4.280805E+03	2.220712E-17	1.223617E-18
4.290623E+03	2.224573E-17	1.224334E-18
4.300442E+03	2.228307E-17	1.224985E-18
4.310260E+03	2.232683E-17	1.225990E-18
4.320079E+03	2.237305E-17	1.227132E-18
4.329897E+03	2.242158E-17	1.228403E-18
4.339715E+03	2.247220E-17	1.229790E-18
4.349534E+03	2.252465E-17	1.231277E-18
4.359352E+03	2.257862E-17	1.232849E-18
4.369170E+03	2.263380E-17	1.234487E-18
4.378989E+03	2.268591E-17	1.235958E-18
4.388807E+03	2.274239E-17	1.237667E-18
4.398625E+03	2.279894E-17	1.239380E-18
4.408444E+03	2.285513E-17	1.241073E-18
4.418262E+03	2.291054E-17	1.242723E-18
4.428081E+03	2.296472E-17	1.244306E-18
4.437899E+03	2.301326E-17	1.245582E-18
4.447717E+03	2.306364E-17	1.246958E-18
4.457536E+03	2.311145E-17	1.248196E-18
4.467354E+03	2.315627E-17	1.249271E-18
4.477172E+03	2.319768E-17	1.250162E-18
4.486991E+03	2.323131E-17	1.250634E-18
4.496809E+03	2.326479E-17	1.251100E-18
4.506627E+03	2.329383E-17	1.251327E-18
4.516446E+03	2.331817E-17	1.251303E-18
4.526264E+03	2.333763E-17	1.251018E-18
4.536082E+03	2.334804E-17	1.250251E-18
4.545901E+03	2.335741E-17	1.249431E-18
4.555719E+03	2.336173E-17	1.248343E-18
4.565538E+03	2.336112E-17	1.246995E-18
4.575356E+03	2.335576E-17	1.245396E-18
4.585174E+03	2.334193E-17	1.243350E-18
4.594993E+03	2.332802E-17	1.241304E-18
4.604811E+03	2.331045E-17	1.239067E-18
4.614629E+03	2.328974E-17	1.236668E-18
4.624448E+03	2.326246E-17	1.233925E-18
4.634266E+03	2.323729E-17	1.231299E-18
4.644084E+03	2.321088E-17	1.228612E-18
4.653903E+03	2.318398E-17	1.225903E-18
4.663721E+03	2.315336E-17	1.223002E-18
4.673540E+03	2.312775E-17	1.220370E-18
4.683358E+03	2.310393E-17	1.217836E-18
4.693176E+03	2.308265E-17	1.215440E-18
4.702995E+03	2.306070E-17	1.213011E-18
4.712813E+03	2.304670E-17	1.211002E-18
4.722631E+03	2.303733E-17	1.209239E-18
4.732450E+03	2.302928E-17	1.207546E-18
4.742268E+03	2.303100E-17	1.206366E-18
4.752086E+03	2.303904E-17	1.205516E-18
4.761905E+03	2.304988E-17	1.204811E-18
4.771723E+03	2.307183E-17	1.204684E-18
4.781541E+03	2.310122E-17	1.204943E-18
4.791360E+03	2.313833E-17	1.205600E-18
4.801178E+03	2.317937E-17	1.206456E-18
4.810997E+03	2.323243E-17	1.207931E-18
4.820815E+03	2.329362E-17	1.209821E-18
4.830633E+03	2.335897E-17	1.211919E-18
4.840452E+03	2.343648E-17	1.214638E-18
4.850270E+03	2.351807E-17	1.217559E-18
4.860088E+03	2.361173E-17	1.221092E-18
4.869907E+03	2.371332E-17	1.225022E-18
4.879725E+03	2.381863E-17	1.229131E-18
4.889543E+03	2.393565E-17	1.233829E-18
4.899362E+03	2.406014E-17	1.238896E-18
4.909180E+03	2.418777E-17	1.244108E-18
4.918999E+03	2.432661E-17	1.249878E-18
4.928817E+03	2.446814E-17	1.255768E-18
4.938635E+03	2.462049E-17	1.262193E-18
4.948454E+03	2.477927E-17	1.268928E-18
4.958272E+03	2.493999E-17	1.275739E-18
4.968090E+03	2.511091E-17	1.283050E-18
4.977909E+03	2.528323E-17	1.290409E-18
4.987727E+03	2.546532E-17	1.298242E-18
4.997545E+03	2.565260E-17	1.306315E-18
5.007364E+03	2.584038E-17	1.314387E-18
5.017182E+03	2.603716E-17	1.322890E-18
5.027000E+03	2.623374E-17	1.331356E-18
5.036819E+03	2.643872E-17	1.340220E-18
5.046637E+03	2.664271E-17	1.349005E-18
5.056456E+03	2.685438E-17	1.358149E-18
5.066274E+03	2.706409E-17	1.367164E-18
5.076092E+03	2.728058E-17	1.376491E-18
5.085911E+03	2.749400E-17	1.385633E-18
5.095729E+03	2.771311E-17	1.395029E-18
5.105547E+03	2.792782E-17	1.404172E-18
5.115366E+03	2.814692E-17	1.413505E-18
5.125184E+03	2.836009E-17	1.422507E-18
5.135002E+03	2.857616E-17	1.431623E-18
5.144821E+03	2.878456E-17	1.440322E-18
5.154639E+03	2.899422E-17	1.449052E-18
5.164458E+03	2.919436E-17	1.457275E-18
5.174276E+03	2.939398E-17	1.465440E-18
5.184094E+03	2.958214E-17	1.473004E-18
5.193913E+03	2.976799E-17	1.480421E-18
5.203731E+03	2.994045E-17	1.487144E-18
5.213549E+03	3.010886E-17	1.493637E-18
5.223368E+03	3.026207E-17	1.499347E-18
5.233186E+03	3.040958E-17	1.504750E-18
5.243004E+03	3.054026E-17	1.509294E-18
5.252823E+03	3.065861E-17	1.513205E-18
5.262641E+03	3.076924E-17	1.516712E-18
5.272459E+03	3.086111E-17	1.519273E-18
5.282278E+03	3.094426E-17	1.521387E-18
5.292096E+03	3.100774E-17	1.522514E-18
5.301915E+03	3.106181E-17	1.523164E-18
5.311733E+03	3.109563E-17	1.522807E-18
5.321551E+03	3.111433E-17	1.521697E-18
5.331370E+03	3.112313E-17	1.520093E-18
5.341188E+03	3.111136E-17	1.517477E-18
5.351006E+03	3.108439E-17	1.514111E-18
5.360825E+03	3.104757E-17	1.510263E-18
5.370643E+03	3.099044E-17	1.505423E-18
5.380461E+03	3.092375E-17	1.500118E-18
5.390280E+03	3.083713E-17	1.493849E-18
5.400098E+03	3.073617E-17	1.486888E-18
5.409917E+03	3.062640E-17	1.479507E-18
5.419735E+03	3.049772E-17	1.471219E-18
5.429553E+03	3.035578E-17	1.462301E-18
5.439372E+03	3.020614E-17	1.453024E-18
5.449190E+03	3.003891E-17	1.442912E-18
5.459008E+03	2.985971E-17	1.432242E-18
5.468827E+03	2.967410E-17	1.421279E-18
5.478645E+03	2.947242E-17	1.409566E-18
5.488463E+03	2.926034E-17	1.397375E-18
5.498282E+03	2.904340E-17	1.384973E-18
5.508100E+03	2.881230E-17	1.371919E-18
5.517919E+03	2.857276E-17	1.358488E-18
5.527737E+03	2.832554E-17	1.344717E-18
5.537555E+03	2.807626E-17	1.330876E-18
5.547374E+03	2.781624E-17	1.316553E-18
5.557192E+03	2.755128E-17	1.302026E-18
5.567010E+03	2.728707E-17	1.287564E-18
5.576829E+03	2.701535E-17	1.272779E-18
5.586647E+03	2.674196E-17	1.257946E-18
5.596465E+03	2.646810E-17	1.243123E-18
5.606284E+03	2.619940E-17	1.228575E-18
5.616102E+03	2.592812E-17	1.213937E-18
5.625920E+03	2.565997E-17	1.199478E-18
5.635739E+03	2.539612E-17	1.185252E-18
5.645557E+03	2.513773E-17	1.171312E-18
5.655376E+03	2.489013E-17	1.157906E-18
5.665194E+03	2.464583E-17	1.144682E-18
5.675012E+03	2.441007E-17	1.131885E-18
5.684831E+03	2.418375E-17	1.119552E-18
5.694649E+03	2.396763E-17	1.107719E-18
5.704467E+03	2.376647E-17	1.096602E-18
5.714286E+03	2.357273E-17	1.085850E-18
5.724104E+03	2.339100E-17	1.075674E-18
5.733922E+03	2.322168E-17	1.066090E-18
5.743741E+03	2.306509E-17	1.057108E-18
5.753559E+03	2.292536E-17	1.048915E-18
5.763378E+03	2.279480E-17	1.041157E-18
5.773196E+03	2.267741E-17	1.034014E-18
5.783014E+03	2.257323E-17	1.027484E-18
5.792833E+03	2.248222E-17	1.021563E-18
5.802651E+03	2.240434E-17	1.016246E-18
5.812469E+03	2.234328E-17	1.011697E-18
5.822288E+03	2.229135E-17	1.007565E-18
5.832106E+03	2.225228E-17	1.004015E-18
5.841924E+03	2.222602E-17	1.001043E-18
5.851743E+03	2.221252E-17	9.986433E-19
5.861561E+03	2.221181E-17	9.968146E-19
5.871379E+03	2.222397E-17	9.955566E-19
5.881198E+03	2.224913E-17	9.948727E-19
5.891016E+03	2.228751E-17	9.947698E-19
5.900835E+03	2.234321E-17	9.954266E-19
5.910653E+03	2.240899E-17	9.965179E-19
5.920471E+03	2.248911E-17	9.982298E-19
5.930290E+03	2.258413E-17	1.000584E-18
5.940108E+03	2.269465E-17	1.003602E-18
5.949926E+03	2.282135E-17	1.007313E-18
5.959745E+03	2.296498E-17	1.011743E-18
5.969563E+03	2.312632E-17	1.016923E-18
5.979381E+03	2.330619E-17	1.022886E-18
5.989200E+03	2.350540E-17	1.029661E-18
5.999018E+03	2.372475E-17	1.037279E-18
6.008837E+03	2.396502E-17	1.045769E-18
6.018655E+03	2.422688E-17	1.055154E-18
6.028473E+03	2.451095E-17	1.065457E-18
6.038292E+03	2.481767E-17	1.076691E-18
6.048110E+03	2.514734E-17	1.088863E-18
6.057928E+03	2.550007E-17	1.101972E-18
6.067747E+03	2.587570E-17	1.116005E-18
6.077565E+03	2.627830E-17	1.131131E-18
6.087383E+03	2.669824E-17	1.146930E-18
6.097202E+03	2.713883E-17	1.163540E-18
6.107020E+03	2.759861E-17	1.180893E-18
6.116838E+03	2.807569E-17	1.198903E-18
6.126657E+03	2.856775E-17	1.217467E-18
6.136475E+03	2.907202E-17	1.236463E-18
6.146294E+03	2.958024E-17	1.255538E-18
6.156112E+03	3.009874E-17	1.274959E-18
6.165930E+03	3.061849E-17	1.294342E-18
6.175749E+03	3.113504E-17	1.313498E-18
6.185567E+03	3.164364E-17	1.332229E-18
6.195385E+03	3.213928E-17	1.350326E-18
6.205204E+03	3.261684E-17	1.367579E-18
6.215022E+03	3.307116E-17	1.383776E-18
6.224840E+03	3.349719E-17	1.398713E-18
6.234659E+03	3.389010E-17	1.412196E-18
6.244477E+03	3.424545E-17	1.424050E-18
6.254296E+03	3.455931E-17	1.434120E-18
6.264114E+03	3.482839E-17	1.442283E-18
6.273932E+03	3.505013E-17	1.448444E-18
6.283751E+03	3.522286E-17	1.452546E-18
6.293569E+03	3.534577E-17	1.454571E-18
6.303387E+03	3.541900E-17	1.454536E-18
6.313206E+03	3.544363E-17	1.452498E-18
6.323024E+03	3.541560E-17	1.448306E-18
6.332842E+03	3.534978E-17	1.442579E-18
6.342661E+03	3.524365E-17	1.435225E-18
6.352479E+03	3.510131E-17	1.426421E-18
6.362297E+03	3.492732E-17	1.416362E-18
6.372116E+03	3.472652E-17	1.405250E-18
6.381934E+03	3.450383E-17	1.393291E-18
6.391753E+03	3.426408E-17	1.380686E-18
6.401571E+03	3.401178E-17	1.367618E-18
6.411389E+03	3.374515E-17	1.354019E-18
6.421208E+03	3.347886E-17	1.340482E-18
6.431026E+03	3.320948E-17	1.326866E-18
6.440844E+03	3.293860E-17	1.313238E-18
6.450663E+03	3.266723E-17	1.299636E-18
6.460481E+03	3.239597E-17	1.286085E-18
6.470299E+03	3.212503E-17	1.272592E-18
6.480118E+03	3.184892E-17	1.258940E-18
6.489936E+03	3.157823E-17	1.245549E-18
6.499755E+03	3.130702E-17	1.232181E-18
6.509573E+03	3.103466E-17	1.218813E-18
6.519391E+03	3.076046E-17	1.205419E-18
6.529210E+03	3.048366E-17	1.191967E-18
6.539028E+03	3.019834E-17	1.178228E-18
6.548846E+03	2.991411E-17	1.164578E-18
6.558665E+03	2.962506E-17	1.150787E-18
6.568483E+03	2.933059E-17	1.136833E-18
6.578301E+03	2.903014E-17	1.122695E-18
6.588120E+03	2.871843E-17	1.108171E-18
6.597938E+03	2.840501E-17	1.093632E-18
6.607757E+03	2.808480E-17	1.078883E-18
6.617575E+03	2.775779E-17	1.063925E-18
6.627393E+03	2.742414E-17	1.048766E-18
6.637212E+03	2.707956E-17	1.033244E-18
6.647030E+03	2.673381E-17	1.017733E-18
6.656848E+03	2.638281E-17	1.002079E-18
6.666667E+03	2.602733E-17	9.863128E-19
6.676485E+03	2.566825E-17	9.704684E-19
6.686303E+03	2.530230E-17	9.544231E-19
6.696122E+03	2.493925E-17	9.385473E-19
6.705940E+03	2.457597E-17	9.227220E-19
6.715758E+03	2.421373E-17	9.069957E-19
6.725577E+03	2.384982E-17	8.912666E-19
6.735395E+03	2.349384E-17	8.758933E-19
6.745214E+03	2.314306E-17	8.607719E-19
6.755032E+03	2.279888E-17	8.459538E-19
6.764850E+03	2.245887E-17	8.313470E-19
6.774669E+03	2.213211E-17	8.172858E-19
6.784487E+03	2.181601E-17	8.036714E-19
6.794305E+03	2.150812E-17	7.904117E-19
6.804124E+03	2.121699E-17	7.778173E-19
6.813942E+03	2.093994E-17	7.657866E-19
6.823760E+03	2.067795E-17	7.543510E-19
6.833579E+03	2.042837E-17	7.434108E-19
6.843397E+03	2.019895E-17	7.332439E-19
6.853216E+03	1.998680E-17	7.237403E-19
6.863034E+03	1.978907E-17	7.147926E-19
6.872852E+03	1.961297E-17	7.066570E-19
6.882671E+03	1.945539E-17	6.992161E-19
6.892489E+03	1.931659E-17	6.924738E-19
6.902307E+03	1.919343E-17	6.863133E-19
6.912126E+03	1.909252E-17	6.809663E-19
6.921944E+03	1.901060E-17	6.763107E-19
6.931762E+03	1.894435E-17	6.722234E-19
6.941581E+03	1.890013E-17	6.689260E-19
6.951399E+03	1.887452E-17	6.662917E-19
6.961217E+03	1.886410E-17	6.641947E-19
6.971036E+03	1.887506E-17	6.628485E-19
6.980854E+03	1.890387E-17	6.621242E-19
6.990673E+03	1.894700E-17	6.618932E-19
7.000491E+03	1.901052E-17	6.623635E-19
7.010309E+03	1.909082E-17	6.634042E-19
7.020128E+03	1.918416E-17	6.648812E-19
7.029946E+03	1.929658E-17	6.670002E-19
7.039764E+03	1.942096E-17	6.695100E-19
7.049583E+03	1.956326E-17	6.726130E-19
7.059401E+03	1.971947E-17	6.761672E-19
7.069219E+03	1.988541E-17	6.800253E-19
7.079038E+03	2.006688E-17	6.843838E-19
7.088856E+03	2.025951E-17	6.890889E-19
7.098675E+03	2.045857E-17	6.939787E-19
7.108493E+03	2.066971E-17	6.992418E-19
7.118311E+03	2.088436E-17	7.045872E-19
7.128130E+03	2.110794E-17	7.101958E-19
7.137948E+03	2.133501E-17	7.158839E-19
7.147766E+03	2.155983E-17	7.214584E-19
7.157585E+03	2.178744E-17	7.270890E-19
7.167403E+03	2.200798E-17	7.324475E-19
7.177221E+03	2.222632E-17	7.376978E-19
7.187040E+03	2.243595E-17	7.426256E-19
7.196858E+03	2.263012E-17	7.470113E-19
7.206676E+03	2.281357E-17	7.510160E-19
7.216495E+03	2.297557E-17	7.542908E-19
7.226313E+03	2.312099E-17	7.570016E-19
7.236132E+03	2.324308E-17	7.589336E-19
7.245950E+03	2.333519E-17	7.598771E-19
7.255768E+03	2.340286E-17	7.600203E-19
7.265587E+03	2.343598E-17	7.590436E-19
7.275405E+03	2.344084E-17	7.571597E-19
7.285223E+03	2.340814E-17	7.540772E-19
7.295042E+03	2.334511E-17	7.500388E-19
7.304860E+03	2.324350E-17	7.447884E-19
7.314678E+03	2.311157E-17	7.386007E-19
7.324497E+03	2.294616E-17	7.313833E-19
7.334315E+03	2.274474E-17	7.230645E-19
7.344134E+03	2.251704E-17	7.139622E-19
7.353952E+03	2.225763E-17	7.039120E-19
7.363770E+03	2.197694E-17	6.932503E-19
7.373589E+03	2.167046E-17	6.818409E-19
7.383407E+03	2.134899E-17	6.700289E-19
7.393225E+03	2.100863E-17	6.576955E-19
7.403044E+03	2.066020E-17	6.451835E-19
7.412862E+03	2.030014E-17	6.323838E-19
7.422680E+03	1.993896E-17	6.196249E-19
7.432499E+03	1.957315E-17	6.067983E-19
7.442317E+03	1.921267E-17	5.942127E-19
7.452135E+03	1.885384E-17	5.817528E-19
7.461954E+03	1.850588E-17	5.697018E-19
7.471772E+03	1.816479E-17	5.579344E-19
7.481591E+03	1.783900E-17	5.467067E-19
7.491409E+03	1.752417E-17	5.358824E-19
7.501227E+03	1.722787E-17	5.256901E-19
7.511046E+03	1.694540E-17	5.159825E-19
7.520864E+03	1.668358E-17	5.069637E-19
7.530682E+03	1.643736E-17	4.984766E-19
7.540501E+03	1.621290E-17	4.907038E-19
7.550319E+03	1.600484E-17	4.834801E-19
7.560137E+03	1.581879E-17	4.769709E-19
7.569956E+03	1.564915E-17	4.710043E-19
7.579774E+03	1.549839E-17	4.656515E-19
7.589593E+03	1.536871E-17	4.609758E-19
7.599411E+03	1.525428E-17	4.567991E-19
7.609229E+03	1.515968E-17	4.532568E-19
7.619048E+03	1.507894E-17	4.501676E-19
