#wls	flux	fluxerr
1.570938E+03	1.532850E-18	1.258511E-19
1.610211E+03	1.563108E-18	1.280782E-19
1.649485E+03	1.591313E-18	1.301209E-19
1.688758E+03	1.617362E-18	1.319714E-19
1.728031E+03	1.641054E-18	1.336139E-19
1.767305E+03	1.661870E-18	1.350072E-19
1.806578E+03	1.678793E-18	1.360701E-19
1.845852E+03	1.690543E-18	1.367008E-19
1.885125E+03	1.695654E-18	1.367839E-19
1.924399E+03	1.693043E-18	1.362359E-19
1.963672E+03	1.681442E-18	1.349595E-19
2.002946E+03	1.662687E-18	1.331073E-19
2.042219E+03	1.640782E-18	1.310037E-19
2.081492E+03	1.625040E-18	1.293925E-19
2.120766E+03	1.626432E-18	1.291407E-19
2.160039E+03	1.654257E-18	1.309733E-19
2.199313E+03	1.712718E-18	1.352034E-19
2.238586E+03	1.798229E-18	1.415265E-19
2.277860E+03	1.903384E-18	1.493409E-19
2.317133E+03	2.020471E-18	1.580275E-19
2.356406E+03	2.143781E-18	1.671306E-19
2.395680E+03	2.270092E-18	1.763932E-19
2.434953E+03	2.398168E-18	1.857153E-19
2.474227E+03	2.528503E-18	1.951318E-19
2.513500E+03	2.660985E-18	2.046302E-19
2.552774E+03	2.797174E-18	2.143263E-19
2.592047E+03	2.938905E-18	2.243553E-19
2.631321E+03	3.086562E-18	2.347393E-19
2.670594E+03	3.242671E-18	2.456626E-19
2.709867E+03	3.408220E-18	2.571903E-19
2.749141E+03	3.584147E-18	2.693820E-19
2.788414E+03	3.773340E-18	2.824423E-19
2.827688E+03	3.976945E-18	2.964419E-19
2.866961E+03	4.196832E-18	3.115035E-19
2.906235E+03	4.435004E-18	3.277570E-19
2.945508E+03	4.693617E-18	3.453409E-19
2.955326E+03	4.761732E-18	3.499617E-19
2.965145E+03	4.831307E-18	3.546772E-19
2.974963E+03	4.902379E-18	3.594898E-19
2.984782E+03	4.974997E-18	3.644025E-19
2.994600E+03	5.049229E-18	3.694200E-19
3.004418E+03	5.125149E-18	3.745471E-19
3.014237E+03	5.202789E-18	3.797858E-19
3.024055E+03	5.282184E-18	3.851382E-19
3.033873E+03	5.363470E-18	3.906136E-19
3.043692E+03	5.446476E-18	3.961990E-19
3.053510E+03	5.531752E-18	4.019340E-19
3.063328E+03	5.619293E-18	4.078176E-19
3.073147E+03	5.709101E-18	4.138493E-19
3.082965E+03	5.801179E-18	4.200287E-19
3.092784E+03	5.895536E-18	4.263557E-19
3.102602E+03	5.992181E-18	4.328305E-19
3.112420E+03	6.091129E-18	4.394534E-19
3.122239E+03	6.192394E-18	4.462249E-19
3.132057E+03	6.295997E-18	4.531458E-19
3.141875E+03	6.401958E-18	4.602167E-19
3.151694E+03	6.510299E-18	4.674388E-19
3.161512E+03	6.621046E-18	4.748133E-19
3.171330E+03	6.734227E-18	4.823412E-19
3.181149E+03	6.851073E-18	4.901102E-19
3.190967E+03	6.969225E-18	4.979506E-19
3.200785E+03	7.089901E-18	5.059489E-19
3.210604E+03	7.213133E-18	5.141068E-19
3.220422E+03	7.338954E-18	5.224258E-19
3.230241E+03	7.467397E-18	5.309076E-19
3.240059E+03	7.598496E-18	5.395538E-19
3.249877E+03	7.732281E-18	5.483659E-19
3.259696E+03	7.868797E-18	5.573461E-19
3.269514E+03	8.008067E-18	5.664955E-19
3.279332E+03	8.150138E-18	5.758166E-19
3.289151E+03	8.295031E-18	5.853100E-19
3.298969E+03	8.442786E-18	5.949777E-19
3.308787E+03	8.593432E-18	6.048211E-19
3.318606E+03	8.748530E-18	6.149489E-19
3.328424E+03	8.905069E-18	6.251488E-19
3.338243E+03	9.064591E-18	6.355282E-19
3.348061E+03	9.227114E-18	6.460876E-19
3.357879E+03	9.392662E-18	6.568279E-19
3.367698E+03	9.561250E-18	6.677493E-19
3.377516E+03	9.732897E-18	6.788523E-19
3.387334E+03	9.907610E-18	6.901365E-19
3.397153E+03	1.008541E-17	7.016026E-19
3.406971E+03	1.026630E-17	7.132495E-19
3.416789E+03	1.045208E-17	7.252025E-19
3.426608E+03	1.063916E-17	7.372100E-19
3.436426E+03	1.082931E-17	7.493948E-19
3.446244E+03	1.102252E-17	7.617554E-19
3.456063E+03	1.121876E-17	7.742887E-19
3.465881E+03	1.141800E-17	7.869920E-19
3.475700E+03	1.162021E-17	7.998629E-19
3.485518E+03	1.182535E-17	8.128967E-19
3.495336E+03	1.203337E-17	8.260902E-19
3.505155E+03	1.224420E-17	8.394378E-19
3.514973E+03	1.245996E-17	8.530832E-19
3.524791E+03	1.267626E-17	8.667257E-19
3.534610E+03	1.289515E-17	8.805046E-19
3.544428E+03	1.311654E-17	8.944134E-19
3.554246E+03	1.334032E-17	9.084441E-19
3.564065E+03	1.356637E-17	9.225881E-19
3.573883E+03	1.379457E-17	9.368363E-19
3.583702E+03	1.402479E-17	9.511794E-19
3.593520E+03	1.425687E-17	9.656061E-19
3.603338E+03	1.449317E-17	9.802761E-19
3.613157E+03	1.472851E-17	9.948383E-19
3.622975E+03	1.496520E-17	1.009448E-18
3.632793E+03	1.520304E-17	1.024093E-18
3.642612E+03	1.544181E-17	1.038757E-18
3.652430E+03	1.568128E-17	1.053426E-18
3.662248E+03	1.592124E-17	1.068084E-18
3.672067E+03	1.616142E-17	1.082714E-18
3.681885E+03	1.640156E-17	1.097300E-18
3.691703E+03	1.664431E-17	1.112016E-18
3.701522E+03	1.688360E-17	1.126459E-18
3.711340E+03	1.712201E-17	1.140802E-18
3.721159E+03	1.735923E-17	1.155023E-18
3.730977E+03	1.759493E-17	1.169104E-18
3.740795E+03	1.782881E-17	1.183021E-18
3.750614E+03	1.806050E-17	1.196755E-18
3.760432E+03	1.828969E-17	1.210284E-18
3.770250E+03	1.851602E-17	1.223584E-18
3.780069E+03	1.873913E-17	1.236635E-18
3.789887E+03	1.896195E-17	1.249629E-18
3.799705E+03	1.917759E-17	1.262114E-18
3.809524E+03	1.938892E-17	1.274282E-18
3.819342E+03	1.959560E-17	1.286110E-18
3.829161E+03	1.979727E-17	1.297576E-18
3.838979E+03	1.999357E-17	1.308660E-18
3.848797E+03	2.018416E-17	1.319341E-18
3.858616E+03	2.036872E-17	1.329599E-18
3.868434E+03	2.054694E-17	1.339416E-18
3.878252E+03	2.071850E-17	1.348773E-18
3.888071E+03	2.088312E-17	1.357655E-18
3.897889E+03	2.104421E-17	1.366284E-18
3.907707E+03	2.119426E-17	1.374176E-18
3.917526E+03	2.133669E-17	1.381554E-18
3.927344E+03	2.147133E-17	1.388412E-18
3.937162E+03	2.159807E-17	1.394742E-18
3.946981E+03	2.171679E-17	1.400541E-18
3.956799E+03	2.182747E-17	1.405809E-18
3.966618E+03	2.193009E-17	1.410547E-18
3.976436E+03	2.202470E-17	1.414761E-18
3.986254E+03	2.211138E-17	1.418460E-18
3.996073E+03	2.219028E-17	1.421653E-18
4.005891E+03	2.226158E-17	1.424357E-18
4.015709E+03	2.232553E-17	1.426588E-18
4.025528E+03	2.238626E-17	1.428612E-18
4.035346E+03	2.243639E-17	1.429959E-18
4.045164E+03	2.248011E-17	1.430902E-18
4.054983E+03	2.251785E-17	1.431466E-18
4.064801E+03	2.255002E-17	1.431682E-18
4.074620E+03	2.257711E-17	1.431581E-18
4.084438E+03	2.259958E-17	1.431195E-18
4.094256E+03	2.261795E-17	1.430556E-18
4.104075E+03	2.263272E-17	1.429699E-18
4.113893E+03	2.264441E-17	1.428658E-18
4.123711E+03	2.265354E-17	1.427466E-18
4.133530E+03	2.266065E-17	1.426156E-18
4.143348E+03	2.266624E-17	1.424764E-18
4.153166E+03	2.267081E-17	1.423319E-18
4.162985E+03	2.267486E-17	1.421855E-18
4.172803E+03	2.267885E-17	1.420399E-18
4.182622E+03	2.268324E-17	1.418982E-18
4.192440E+03	2.268847E-17	1.417630E-18
4.202258E+03	2.269492E-17	1.416369E-18
4.212077E+03	2.270299E-17	1.415222E-18
4.221895E+03	2.271304E-17	1.414212E-18
4.231713E+03	2.272538E-17	1.413358E-18
4.241532E+03	2.274030E-17	1.412678E-18
4.251350E+03	2.275810E-17	1.412190E-18
4.261168E+03	2.277898E-17	1.411907E-18
4.270987E+03	2.280315E-17	1.411841E-18
4.280805E+03	2.283078E-17	1.412001E-18
4.290623E+03	2.286196E-17	1.412395E-18
4.300442E+03	2.289679E-17	1.413026E-18
4.310260E+03	2.293523E-17	1.413893E-18
4.320079E+03	2.297717E-17	1.414988E-18
4.329897E+03	2.302241E-17	1.416298E-18
4.339715E+03	2.307065E-17	1.417804E-18
4.349534E+03	2.312153E-17	1.419484E-18
4.359352E+03	2.317469E-17	1.421314E-18
4.369170E+03	2.322970E-17	1.423267E-18
4.378989E+03	2.328609E-17	1.425314E-18
4.388807E+03	2.334342E-17	1.427428E-18
4.398625E+03	2.340115E-17	1.429575E-18
4.408444E+03	2.345879E-17	1.431725E-18
4.418262E+03	2.351579E-17	1.433844E-18
4.428081E+03	2.356755E-17	1.435652E-18
4.437899E+03	2.362160E-17	1.437608E-18
4.447717E+03	2.367333E-17	1.439431E-18
4.457536E+03	2.372220E-17	1.441088E-18
4.467354E+03	2.376766E-17	1.442546E-18
4.477172E+03	2.380918E-17	1.443773E-18
4.486991E+03	2.384626E-17	1.444740E-18
4.496809E+03	2.387844E-17	1.445418E-18
4.506627E+03	2.390532E-17	1.445784E-18
4.516446E+03	2.392654E-17	1.445817E-18
4.526264E+03	2.393772E-17	1.445253E-18
4.536082E+03	2.394687E-17	1.444576E-18
4.545901E+03	2.394979E-17	1.443534E-18
4.555719E+03	2.394646E-17	1.442125E-18
4.565538E+03	2.393697E-17	1.440356E-18
4.575356E+03	2.392154E-17	1.438239E-18
4.585174E+03	2.390047E-17	1.435795E-18
4.594993E+03	2.387416E-17	1.433047E-18
4.604811E+03	2.383907E-17	1.429784E-18
4.614629E+03	2.380398E-17	1.426532E-18
4.624448E+03	2.376548E-17	1.423087E-18
4.634266E+03	2.372437E-17	1.419496E-18
4.644084E+03	2.368145E-17	1.415809E-18
4.653903E+03	2.363763E-17	1.412079E-18
4.663721E+03	2.358977E-17	1.408118E-18
4.673540E+03	2.354686E-17	1.404462E-18
4.683358E+03	2.350579E-17	1.400926E-18
4.693176E+03	2.346745E-17	1.397561E-18
4.702995E+03	2.343271E-17	1.394419E-18
4.712813E+03	2.339841E-17	1.391311E-18
4.722631E+03	2.337330E-17	1.388757E-18
4.732450E+03	2.335410E-17	1.386560E-18
4.742268E+03	2.334143E-17	1.384755E-18
4.752086E+03	2.333187E-17	1.383140E-18
4.761905E+03	2.333387E-17	1.382213E-18
4.771723E+03	2.334385E-17	1.381761E-18
4.781541E+03	2.336212E-17	1.381801E-18
4.791360E+03	2.338494E-17	1.382110E-18
4.801178E+03	2.342045E-17	1.383169E-18
4.810997E+03	2.346479E-17	1.384747E-18
4.820815E+03	2.351798E-17	1.386845E-18
4.830633E+03	2.357602E-17	1.389224E-18
4.840452E+03	2.364685E-17	1.392353E-18
4.850270E+03	2.372639E-17	1.395987E-18
4.860088E+03	2.381042E-17	1.399879E-18
4.869907E+03	2.390689E-17	1.404494E-18
4.879725E+03	2.401157E-17	1.409582E-18
4.889543E+03	2.412424E-17	1.415129E-18
4.899362E+03	2.424056E-17	1.420879E-18
4.909180E+03	2.436852E-17	1.427299E-18
4.918999E+03	2.450379E-17	1.434134E-18
4.928817E+03	2.464191E-17	1.441122E-18
4.938635E+03	2.479102E-17	1.448738E-18
4.948454E+03	2.494669E-17	1.456721E-18
4.958272E+03	2.510441E-17	1.464807E-18
4.968090E+03	2.527244E-17	1.473477E-18
4.977909E+03	2.544629E-17	1.482468E-18
4.987727E+03	2.562136E-17	1.491510E-18
4.997545E+03	2.580606E-17	1.501094E-18
5.007364E+03	2.599139E-17	1.510693E-18
5.017182E+03	2.618588E-17	1.520802E-18
5.027000E+03	2.638483E-17	1.531149E-18
5.036819E+03	2.658340E-17	1.541449E-18
5.046637E+03	2.679023E-17	1.552206E-18
5.056456E+03	2.699585E-17	1.562866E-18
5.066274E+03	2.720896E-17	1.573936E-18
5.076092E+03	2.742450E-17	1.585120E-18
5.085911E+03	2.763721E-17	1.596115E-18
5.095729E+03	2.785585E-17	1.607424E-18
5.105547E+03	2.807030E-17	1.618464E-18
5.115366E+03	2.828930E-17	1.629739E-18
5.125184E+03	2.850248E-17	1.640650E-18
5.135002E+03	2.871860E-17	1.651702E-18
5.144821E+03	2.893196E-17	1.662566E-18
5.154639E+03	2.913663E-17	1.672902E-18
5.164458E+03	2.934146E-17	1.683219E-18
5.174276E+03	2.953553E-17	1.692890E-18
5.184094E+03	2.972776E-17	1.702427E-18
5.193913E+03	2.990709E-17	1.711197E-18
5.203731E+03	3.008261E-17	1.719721E-18
5.213549E+03	3.024316E-17	1.727363E-18
5.223368E+03	3.039806E-17	1.734655E-18
5.233186E+03	3.053611E-17	1.740961E-18
5.243004E+03	3.066686E-17	1.746825E-18
5.252823E+03	3.077919E-17	1.751617E-18
5.262641E+03	3.088288E-17	1.755895E-18
5.272459E+03	3.096692E-17	1.759033E-18
5.282278E+03	3.103608E-17	1.761307E-18
5.292096E+03	3.109528E-17	1.762997E-18
5.301915E+03	3.113373E-17	1.763493E-18
5.311733E+03	3.116183E-17	1.763387E-18
5.321551E+03	3.116892E-17	1.762077E-18
5.331370E+03	3.116558E-17	1.760166E-18
5.341188E+03	3.114131E-17	1.757061E-18
5.351006E+03	3.110683E-17	1.753370E-18
5.360825E+03	3.105176E-17	1.748510E-18
5.370643E+03	3.098161E-17	1.742796E-18
5.380461E+03	3.090190E-17	1.736539E-18
5.390280E+03	3.080242E-17	1.729168E-18
5.400098E+03	3.069398E-17	1.721292E-18
5.409917E+03	3.056645E-17	1.712346E-18
5.419735E+03	3.042543E-17	1.702647E-18
5.429553E+03	3.027641E-17	1.692503E-18
5.439372E+03	3.010946E-17	1.681361E-18
5.449190E+03	2.993009E-17	1.669533E-18
5.459008E+03	2.974374E-17	1.657324E-18
5.468827E+03	2.954066E-17	1.644192E-18
5.478645E+03	2.932638E-17	1.630448E-18
5.488463E+03	2.910625E-17	1.616392E-18
5.498282E+03	2.887092E-17	1.601506E-18
5.508100E+03	2.862592E-17	1.586099E-18
5.517919E+03	2.837670E-17	1.570476E-18
5.527737E+03	2.811435E-17	1.554144E-18
5.537555E+03	2.784453E-17	1.537420E-18
5.547374E+03	2.757284E-17	1.520614E-18
5.557192E+03	2.729089E-17	1.503263E-18
5.567010E+03	2.700447E-17	1.485691E-18
5.576829E+03	2.671932E-17	1.468211E-18
5.586647E+03	2.642755E-17	1.450394E-18
5.596465E+03	2.613504E-17	1.432560E-18
5.606284E+03	2.584311E-17	1.414785E-18
5.616102E+03	2.555745E-17	1.397379E-18
5.625920E+03	2.527069E-17	1.379939E-18
5.635739E+03	2.498852E-17	1.362776E-18
5.645557E+03	2.471225E-17	1.345959E-18
5.655376E+03	2.444725E-17	1.329782E-18
5.665194E+03	2.418633E-17	1.313851E-18
5.675012E+03	2.393475E-17	1.298451E-18
5.684831E+03	2.369346E-17	1.283632E-18
5.694649E+03	2.346335E-17	1.269440E-18
5.704467E+03	2.324906E-17	1.256123E-18
5.714286E+03	2.304331E-17	1.243287E-18
5.724104E+03	2.285059E-17	1.231170E-18
5.733922E+03	2.267128E-17	1.219790E-18
5.743741E+03	2.250564E-17	1.209160E-18
5.753559E+03	2.235762E-17	1.199488E-18
5.763378E+03	2.221970E-17	1.190368E-18
5.773196E+03	2.209568E-17	1.181999E-18
5.783014E+03	2.198547E-17	1.174376E-18
5.792833E+03	2.188892E-17	1.167486E-18
5.802651E+03	2.180954E-17	1.161513E-18
5.812469E+03	2.173974E-17	1.156050E-18
5.822288E+03	2.168298E-17	1.151279E-18
5.832106E+03	2.163907E-17	1.147185E-18
5.841924E+03	2.160783E-17	1.143757E-18
5.851743E+03	2.158911E-17	1.140984E-18
5.861561E+03	2.158286E-17	1.138860E-18
5.871379E+03	2.158906E-17	1.137381E-18
5.881198E+03	2.161147E-17	1.136740E-18
5.891016E+03	2.164295E-17	1.136561E-18
5.900835E+03	2.168745E-17	1.137046E-18
5.910653E+03	2.174537E-17	1.138214E-18
5.920471E+03	2.181723E-17	1.140089E-18
5.930290E+03	2.190364E-17	1.142698E-18
5.940108E+03	2.200534E-17	1.146076E-18
5.949926E+03	2.212317E-17	1.150262E-18
5.959745E+03	2.225803E-17	1.155300E-18
5.969563E+03	2.241091E-17	1.161235E-18
5.979381E+03	2.258285E-17	1.168116E-18
5.989200E+03	2.277493E-17	1.175994E-18
5.999018E+03	2.299210E-17	1.185118E-18
6.008837E+03	2.322767E-17	1.195137E-18
6.018655E+03	2.348648E-17	1.206294E-18
6.028473E+03	2.376944E-17	1.218629E-18
6.038292E+03	2.407733E-17	1.232174E-18
6.048110E+03	2.441073E-17	1.246953E-18
6.057928E+03	2.477006E-17	1.262978E-18
6.067747E+03	2.515543E-17	1.280248E-18
6.077565E+03	2.556667E-17	1.298746E-18
6.087383E+03	2.600326E-17	1.318438E-18
6.097202E+03	2.646427E-17	1.339268E-18
6.107020E+03	2.694834E-17	1.361161E-18
6.116838E+03	2.745358E-17	1.384014E-18
6.126657E+03	2.797762E-17	1.407702E-18
6.136475E+03	2.851755E-17	1.432070E-18
6.146294E+03	2.906985E-17	1.456938E-18
6.156112E+03	2.963047E-17	1.482100E-18
6.165930E+03	3.019481E-17	1.507322E-18
6.175749E+03	3.075779E-17	1.532348E-18
6.185567E+03	3.131386E-17	1.556905E-18
6.195385E+03	3.185714E-17	1.580700E-18
6.205204E+03	3.238153E-17	1.603435E-18
6.215022E+03	3.287528E-17	1.624535E-18
6.224840E+03	3.334328E-17	1.644250E-18
6.234659E+03	3.377418E-17	1.662029E-18
6.244477E+03	3.416253E-17	1.677614E-18
6.254296E+03	3.450344E-17	1.690780E-18
6.264114E+03	3.479288E-17	1.701343E-18
6.273932E+03	3.502769E-17	1.709167E-18
6.283751E+03	3.520582E-17	1.714167E-18
6.293569E+03	3.532633E-17	1.716316E-18
6.303387E+03	3.538952E-17	1.715647E-18
6.313206E+03	3.539687E-17	1.712250E-18
6.323024E+03	3.535101E-17	1.706269E-18
6.332842E+03	3.524968E-17	1.697613E-18
6.342661E+03	3.510943E-17	1.687097E-18
6.352479E+03	3.492966E-17	1.674702E-18
6.362297E+03	3.471625E-17	1.660725E-18
6.372116E+03	3.447544E-17	1.645473E-18
6.381934E+03	3.421356E-17	1.629257E-18
6.391753E+03	3.393678E-17	1.612377E-18
6.401571E+03	3.365085E-17	1.595110E-18
6.411389E+03	3.335506E-17	1.577426E-18
6.421208E+03	3.306449E-17	1.560039E-18
6.431026E+03	3.277583E-17	1.542793E-18
6.440844E+03	3.249050E-17	1.525753E-18
6.450663E+03	3.220924E-17	1.508952E-18
6.460481E+03	3.193224E-17	1.492398E-18
6.470299E+03	3.165931E-17	1.476082E-18
6.480118E+03	3.138458E-17	1.459729E-18
6.489936E+03	3.111799E-17	1.443800E-18
6.499755E+03	3.085318E-17	1.427999E-18
6.509573E+03	3.058909E-17	1.412277E-18
6.519391E+03	3.032455E-17	1.396579E-18
6.529210E+03	3.005331E-17	1.380619E-18
6.539028E+03	2.978440E-17	1.364813E-18
6.548846E+03	2.951158E-17	1.348875E-18
6.558665E+03	2.923383E-17	1.332759E-18
6.568483E+03	2.895021E-17	1.316427E-18
6.578301E+03	2.865507E-17	1.299624E-18
6.588120E+03	2.835755E-17	1.282766E-18
6.597938E+03	2.805226E-17	1.265613E-18
6.607757E+03	2.773891E-17	1.248155E-18
6.617575E+03	2.741272E-17	1.230180E-18
6.627393E+03	2.708313E-17	1.212116E-18
6.637212E+03	2.674569E-17	1.193765E-18
6.647030E+03	2.640083E-17	1.175152E-18
6.656848E+03	2.604478E-17	1.156110E-18
6.666667E+03	2.568720E-17	1.137073E-18
6.676485E+03	2.532459E-17	1.117887E-18
6.686303E+03	2.495805E-17	1.098603E-18
6.696122E+03	2.458463E-17	1.079094E-18
6.705940E+03	2.421410E-17	1.059790E-18
6.715758E+03	2.384367E-17	1.040569E-18
6.725577E+03	2.347488E-17	1.021499E-18
6.735395E+03	2.310538E-17	1.002478E-18
6.745214E+03	2.274468E-17	9.839179E-19
6.755032E+03	2.239039E-17	9.657136E-19
6.764850E+03	2.204415E-17	9.479328E-19
6.774669E+03	2.170380E-17	9.304815E-19
6.784487E+03	2.137826E-17	9.137383E-19
6.794305E+03	2.106520E-17	8.975995E-19
6.804124E+03	2.076241E-17	8.819664E-19
6.813942E+03	2.047818E-17	8.671872E-19
6.823760E+03	2.021003E-17	8.531499E-19
6.833579E+03	1.995551E-17	8.397458E-19
6.843397E+03	1.972228E-17	8.272911E-19
6.853216E+03	1.950758E-17	8.156627E-19
6.863034E+03	1.930871E-17	8.047408E-19
6.872852E+03	1.913272E-17	7.948120E-19
6.882671E+03	1.897660E-17	7.857435E-19
6.892489E+03	1.883741E-17	7.774057E-19
6.902307E+03	1.872168E-17	7.700607E-19
6.912126E+03	1.862623E-17	7.635692E-19
6.921944E+03	1.854790E-17	7.577939E-19
6.931762E+03	1.849292E-17	7.529811E-19
6.941581E+03	1.845797E-17	7.489874E-19
6.951399E+03	1.843975E-17	7.456707E-19
6.961217E+03	1.844428E-17	7.432674E-19
6.971036E+03	1.846506E-17	7.415063E-19
6.980854E+03	1.850807E-17	7.406208E-19
6.990673E+03	1.856988E-17	7.404643E-19
7.000491E+03	1.864700E-17	7.408910E-19
7.010309E+03	1.874537E-17	7.421296E-19
7.020128E+03	1.886148E-17	7.440322E-19
7.029946E+03	1.899168E-17	7.464480E-19
7.039764E+03	1.914189E-17	7.496037E-19
7.049583E+03	1.930510E-17	7.532168E-19
7.059401E+03	1.948722E-17	7.575116E-19
7.069219E+03	1.968428E-17	7.623266E-19
7.079038E+03	1.989206E-17	7.674927E-19
7.088856E+03	2.011630E-17	7.732263E-19
7.098675E+03	2.034910E-17	7.792175E-19
7.108493E+03	2.059599E-17	7.856743E-19
7.118311E+03	2.084851E-17	7.922696E-19
7.128130E+03	2.111198E-17	7.992021E-19
7.137948E+03	2.138090E-17	8.062607E-19
7.147766E+03	2.164939E-17	8.132221E-19
7.157585E+03	2.192227E-17	8.202680E-19
7.167403E+03	2.218941E-17	8.270190E-19
7.177221E+03	2.245532E-17	8.336460E-19
7.187040E+03	2.270923E-17	8.397518E-19
7.196858E+03	2.295541E-17	8.454998E-19
7.206676E+03	2.318258E-17	8.504807E-19
7.216495E+03	2.339497E-17	8.548581E-19
7.226313E+03	2.358104E-17	8.582193E-19
7.236132E+03	2.374522E-17	8.607375E-19
7.245950E+03	2.388016E-17	8.621577E-19
7.255768E+03	2.397863E-17	8.622342E-19
7.265587E+03	2.404599E-17	8.611760E-19
7.275405E+03	2.407179E-17	8.586245E-19
7.285223E+03	2.406242E-17	8.548261E-19
7.295042E+03	2.400853E-17	8.494663E-19
7.304860E+03	2.391781E-17	8.428363E-19
7.314678E+03	2.378230E-17	8.346734E-19
7.324497E+03	2.361104E-17	8.253139E-19
7.334315E+03	2.339755E-17	8.145482E-19
7.344134E+03	2.315208E-17	8.027507E-19
7.353952E+03	2.286957E-17	7.897603E-19
7.363770E+03	2.256118E-17	7.759778E-19
7.373589E+03	2.222294E-17	7.612778E-19
7.383407E+03	2.186282E-17	7.459455E-19
7.393225E+03	2.148874E-17	7.302588E-19
7.403044E+03	2.109767E-17	7.141216E-19
7.412862E+03	2.070121E-17	6.979315E-19
7.422680E+03	2.029645E-17	6.815931E-19
7.432499E+03	1.989443E-17	6.654793E-19
7.442317E+03	1.949209E-17	6.494863E-19
7.452135E+03	1.909963E-17	6.339528E-19
7.461954E+03	1.871362E-17	6.187611E-19
7.471772E+03	1.834327E-17	6.042122E-19
7.481591E+03	1.798469E-17	5.901716E-19
7.491409E+03	1.764308E-17	5.768049E-19
7.501227E+03	1.732308E-17	5.642563E-19
7.511046E+03	1.702003E-17	5.523667E-19
7.520864E+03	1.674078E-17	5.413514E-19
7.530682E+03	1.648028E-17	5.310388E-19
7.540501E+03	1.624461E-17	5.216175E-19
7.550319E+03	1.602836E-17	5.129061E-19
7.560137E+03	1.583429E-17	5.049859E-19
7.569956E+03	1.566484E-17	4.979275E-19
7.579774E+03	1.551422E-17	4.915395E-19
7.589593E+03	1.538717E-17	4.859666E-19
7.599411E+03	1.527773E-17	4.810141E-19
7.609229E+03	1.518773E-17	4.767352E-19
7.619048E+03	1.511883E-17	4.731767E-19
