#wls	flux	fluxerr
1.594499E+03	1.228409E-04	6.126311E-06
1.634361E+03	1.226968E-04	6.089035E-06
1.674224E+03	1.222272E-04	6.034992E-06
1.714086E+03	1.214550E-04	5.965558E-06
1.753949E+03	1.203771E-04	5.880810E-06
1.793811E+03	1.189253E-04	5.777685E-06
1.833674E+03	1.170404E-04	5.653643E-06
1.873536E+03	1.146516E-04	5.505668E-06
1.913399E+03	1.116938E-04	5.331112E-06
1.953261E+03	1.081113E-04	5.127885E-06
1.993124E+03	1.040421E-04	4.903109E-06
2.032986E+03	9.981473E-05	4.672686E-06
2.072849E+03	9.603872E-05	4.465183E-06
2.112711E+03	9.355771E-05	4.319187E-06
2.152574E+03	9.304849E-05	4.264489E-06
2.192436E+03	9.478507E-05	4.311570E-06
2.232299E+03	9.846872E-05	4.444584E-06
2.272161E+03	1.035547E-04	4.636988E-06
2.312024E+03	1.094642E-04	4.861440E-06
2.351886E+03	1.157510E-04	5.097213E-06
2.391748E+03	1.221913E-04	5.333958E-06
2.431611E+03	1.286810E-04	5.566811E-06
2.471473E+03	1.352165E-04	5.795389E-06
2.511336E+03	1.418130E-04	6.020094E-06
2.551198E+03	1.485316E-04	6.243234E-06
2.591061E+03	1.554537E-04	6.467858E-06
2.630923E+03	1.626606E-04	6.696851E-06
2.670786E+03	1.702022E-04	6.931672E-06
2.710648E+03	1.781688E-04	7.175286E-06
2.750511E+03	1.866487E-04	7.430412E-06
2.790373E+03	1.957307E-04	7.699576E-06
2.830236E+03	2.055194E-04	7.985733E-06
2.870098E+03	2.161088E-04	8.291194E-06
2.909961E+03	2.276431E-04	8.619934E-06
2.949823E+03	2.402458E-04	8.974826E-06
2.989686E+03	2.540675E-04	9.359430E-06
2.999651E+03	2.577309E-04	9.460603E-06
3.009617E+03	2.614902E-04	9.564170E-06
3.019582E+03	2.653328E-04	9.669625E-06
3.029548E+03	2.692777E-04	9.777625E-06
3.039514E+03	2.733244E-04	9.888101E-06
3.049479E+03	2.775166E-04	1.000258E-05
3.059445E+03	2.818241E-04	1.011991E-05
3.069411E+03	2.862604E-04	1.024053E-05
3.079376E+03	2.908394E-04	1.036486E-05
3.089342E+03	2.955317E-04	1.049180E-05
3.099307E+03	3.003520E-04	1.062182E-05
3.109273E+03	3.053150E-04	1.075536E-05
3.119239E+03	3.103924E-04	1.089138E-05
3.129204E+03	3.156140E-04	1.103086E-05
3.139170E+03	3.209664E-04	1.117326E-05
3.149135E+03	3.264659E-04	1.131908E-05
3.159101E+03	3.320848E-04	1.146730E-05
3.169067E+03	3.378545E-04	1.161893E-05
3.179032E+03	3.437774E-04	1.177400E-05
3.188998E+03	3.498264E-04	1.193149E-05
3.198964E+03	3.560341E-04	1.209245E-05
3.208929E+03	3.624037E-04	1.225691E-05
3.218895E+03	3.689236E-04	1.242441E-05
3.228860E+03	3.755977E-04	1.259499E-05
3.238826E+03	3.824301E-04	1.276873E-05
3.248792E+03	3.894397E-04	1.294615E-05
3.258757E+03	3.966312E-04	1.312735E-05
3.268723E+03	4.039947E-04	1.331188E-05
3.278689E+03	4.115353E-04	1.349985E-05
3.288654E+03	4.192735E-04	1.369182E-05
3.298620E+03	4.271999E-04	1.388740E-05
3.308585E+03	4.353360E-04	1.408719E-05
3.318551E+03	4.436728E-04	1.429078E-05
3.328517E+03	4.522172E-04	1.449829E-05
3.338482E+03	4.609911E-04	1.471034E-05
3.348448E+03	4.700024E-04	1.492703E-05
3.358413E+03	4.792432E-04	1.514802E-05
3.368379E+03	4.887368E-04	1.537391E-05
3.378345E+03	4.984763E-04	1.560436E-05
3.388310E+03	5.084701E-04	1.583951E-05
3.398276E+03	5.187428E-04	1.607998E-05
3.408242E+03	5.293038E-04	1.632593E-05
3.418207E+03	5.401471E-04	1.657703E-05
3.428173E+03	5.512983E-04	1.683392E-05
3.438138E+03	5.627678E-04	1.709674E-05
3.448104E+03	5.745504E-04	1.736519E-05
3.458070E+03	5.866729E-04	1.763991E-05
3.468035E+03	5.991468E-04	1.792107E-05
3.478001E+03	6.119672E-04	1.820835E-05
3.487967E+03	6.251790E-04	1.850289E-05
3.497932E+03	6.387613E-04	1.880388E-05
3.507898E+03	6.527433E-04	1.911198E-05
3.517863E+03	6.671376E-04	1.942737E-05
3.527829E+03	6.819743E-04	1.975069E-05
3.537795E+03	6.972329E-04	2.008113E-05
3.547760E+03	7.129435E-04	2.041934E-05
3.557726E+03	7.291371E-04	2.076597E-05
3.567691E+03	7.457928E-04	2.112018E-05
3.577657E+03	7.629591E-04	2.148309E-05
3.587623E+03	7.806322E-04	2.185434E-05
3.597588E+03	7.988079E-04	2.223355E-05
3.607554E+03	8.175351E-04	2.262181E-05
3.617520E+03	8.367907E-04	2.301821E-05
3.627485E+03	8.566049E-04	2.342330E-05
3.637451E+03	8.769711E-04	2.383661E-05
3.647416E+03	8.978994E-04	2.425814E-05
3.657382E+03	9.193992E-04	2.468784E-05
3.667348E+03	9.414975E-04	2.512615E-05
3.677313E+03	9.641625E-04	2.557190E-05
3.687279E+03	9.874174E-04	2.602543E-05
3.697245E+03	1.011244E-03	2.648597E-05
3.707210E+03	1.035642E-03	2.695318E-05
3.717176E+03	1.060606E-03	2.742667E-05
3.727141E+03	1.086130E-03	2.790594E-05
3.737107E+03	1.112200E-03	2.839042E-05
3.747073E+03	1.138780E-03	2.887890E-05
3.757038E+03	1.165871E-03	2.937110E-05
3.767004E+03	1.193404E-03	2.986508E-05
3.776969E+03	1.221367E-03	3.036031E-05
3.786935E+03	1.249721E-03	3.085564E-05
3.796901E+03	1.278378E-03	3.134867E-05
3.806866E+03	1.307349E-03	3.183953E-05
3.816832E+03	1.336484E-03	3.232448E-05
3.826798E+03	1.365778E-03	3.280330E-05
3.836763E+03	1.395108E-03	3.327298E-05
3.846729E+03	1.424380E-03	3.373134E-05
3.856694E+03	1.453498E-03	3.417610E-05
3.866660E+03	1.482351E-03	3.460485E-05
3.876626E+03	1.510796E-03	3.501436E-05
3.886591E+03	1.538730E-03	3.540254E-05
3.896557E+03	1.565974E-03	3.576557E-05
3.906522E+03	1.592409E-03	3.610113E-05
3.916488E+03	1.617895E-03	3.640655E-05
3.926454E+03	1.642267E-03	3.667862E-05
3.936419E+03	1.665384E-03	3.691486E-05
3.946385E+03	1.687114E-03	3.711303E-05
3.956351E+03	1.707311E-03	3.727066E-05
3.966316E+03	1.725864E-03	3.738620E-05
3.976282E+03	1.742679E-03	3.745852E-05
3.986247E+03	1.757681E-03	3.748693E-05
3.996213E+03	1.770794E-03	3.747079E-05
4.006179E+03	1.782008E-03	3.741088E-05
4.016144E+03	1.791269E-03	3.730712E-05
4.026110E+03	1.798616E-03	3.716131E-05
4.036076E+03	1.804091E-03	3.697537E-05
4.046041E+03	1.807707E-03	3.675052E-05
4.056007E+03	1.809595E-03	3.649040E-05
4.065972E+03	1.809793E-03	3.619669E-05
4.075938E+03	1.808490E-03	3.587401E-05
4.085904E+03	1.805756E-03	3.552457E-05
4.095869E+03	1.801769E-03	3.515256E-05
4.105835E+03	1.796672E-03	3.476144E-05
4.115800E+03	1.790661E-03	3.435557E-05
4.125766E+03	1.783896E-03	3.393850E-05
4.135732E+03	1.776546E-03	3.351381E-05
4.145697E+03	1.768819E-03	3.308574E-05
4.155663E+03	1.760887E-03	3.265771E-05
4.165629E+03	1.752933E-03	3.223325E-05
4.175594E+03	1.745141E-03	3.181577E-05
4.185560E+03	1.737662E-03	3.140800E-05
4.195525E+03	1.730682E-03	3.101313E-05
4.205491E+03	1.724309E-03	3.063296E-05
4.215457E+03	1.718720E-03	3.027035E-05
4.225422E+03	1.713991E-03	2.992635E-05
4.235388E+03	1.710222E-03	2.960237E-05
4.245354E+03	1.707514E-03	2.929975E-05
4.255319E+03	1.705900E-03	2.901870E-05
4.265285E+03	1.705421E-03	2.875947E-05
4.275250E+03	1.706090E-03	2.852188E-05
4.285216E+03	1.707904E-03	2.830547E-05
4.295182E+03	1.710843E-03	2.810950E-05
4.305147E+03	1.714867E-03	2.793298E-05
4.315113E+03	1.719930E-03	2.777480E-05
4.325078E+03	1.725993E-03	2.763403E-05
4.335044E+03	1.732976E-03	2.750912E-05
4.345010E+03	1.740815E-03	2.739882E-05
4.354975E+03	1.749484E-03	2.730252E-05
4.364941E+03	1.758917E-03	2.721904E-05
4.374907E+03	1.769107E-03	2.714813E-05
4.384872E+03	1.780067E-03	2.708985E-05
4.394838E+03	1.791946E-03	2.704634E-05
4.404803E+03	1.804900E-03	2.701979E-05
4.414769E+03	1.818995E-03	2.701096E-05
4.424735E+03	1.834402E-03	2.702215E-05
4.434700E+03	1.851206E-03	2.705425E-05
4.444666E+03	1.869473E-03	2.710786E-05
4.454632E+03	1.889302E-03	2.718406E-05
4.464597E+03	1.910699E-03	2.728252E-05
4.474563E+03	1.933658E-03	2.740285E-05
4.484528E+03	1.958108E-03	2.754371E-05
4.494494E+03	1.983917E-03	2.770296E-05
4.504460E+03	2.010908E-03	2.787794E-05
4.514425E+03	2.038845E-03	2.806525E-05
4.524391E+03	2.067395E-03	2.826027E-05
4.534356E+03	2.096218E-03	2.845843E-05
4.544322E+03	2.124931E-03	2.865474E-05
4.554288E+03	2.153139E-03	2.884412E-05
4.564253E+03	2.180437E-03	2.902160E-05
4.574219E+03	2.206401E-03	2.918198E-05
4.584185E+03	2.230698E-03	2.932146E-05
4.594150E+03	2.253033E-03	2.943679E-05
4.604116E+03	2.273172E-03	2.952560E-05
4.614081E+03	2.290972E-03	2.958672E-05
4.624047E+03	2.306373E-03	2.962006E-05
4.634013E+03	2.319394E-03	2.962654E-05
4.643978E+03	2.330210E-03	2.960900E-05
4.653944E+03	2.339047E-03	2.957087E-05
4.663910E+03	2.346207E-03	2.951642E-05
4.673875E+03	2.352085E-03	2.945100E-05
4.683841E+03	2.357116E-03	2.938034E-05
4.693806E+03	2.361768E-03	2.931048E-05
4.703772E+03	2.366489E-03	2.924710E-05
4.713738E+03	2.371756E-03	2.919610E-05
4.723703E+03	2.377992E-03	2.916269E-05
4.733669E+03	2.385520E-03	2.915079E-05
4.743634E+03	2.394631E-03	2.916383E-05
4.753600E+03	2.405559E-03	2.920458E-05
4.763566E+03	2.418418E-03	2.927433E-05
4.773531E+03	2.433207E-03	2.937300E-05
4.783497E+03	2.449779E-03	2.949879E-05
4.793463E+03	2.467851E-03	2.964829E-05
4.803428E+03	2.487102E-03	2.981770E-05
4.813394E+03	2.507175E-03	3.000278E-05
4.823359E+03	2.527658E-03	3.019853E-05
4.833325E+03	2.548089E-03	3.039939E-05
4.843291E+03	2.568041E-03	3.060024E-05
4.853256E+03	2.587090E-03	3.079602E-05
4.863222E+03	2.604787E-03	3.098136E-05
4.873188E+03	2.620740E-03	3.115158E-05
4.883153E+03	2.634655E-03	3.130312E-05
4.893119E+03	2.646225E-03	3.143229E-05
4.903084E+03	2.655243E-03	3.153650E-05
4.913050E+03	2.661621E-03	3.161461E-05
4.923016E+03	2.665283E-03	3.166553E-05
4.932981E+03	2.666274E-03	3.168962E-05
4.942947E+03	2.664680E-03	3.168770E-05
4.952912E+03	2.660661E-03	3.166142E-05
4.962878E+03	2.654404E-03	3.161274E-05
4.972844E+03	2.646121E-03	3.154395E-05
4.982809E+03	2.636057E-03	3.145768E-05
4.992775E+03	2.624525E-03	3.135740E-05
5.002741E+03	2.611809E-03	3.124624E-05
5.012706E+03	2.598213E-03	3.112759E-05
5.022672E+03	2.584032E-03	3.100473E-05
5.032637E+03	2.569666E-03	3.088226E-05
5.042603E+03	2.555424E-03	3.076371E-05
5.052569E+03	2.541656E-03	3.065311E-05
5.062534E+03	2.528669E-03	3.055406E-05
5.072500E+03	2.516742E-03	3.046982E-05
5.082465E+03	2.506133E-03	3.040346E-05
5.092431E+03	2.497032E-03	3.035724E-05
5.102397E+03	2.489587E-03	3.033298E-05
5.112362E+03	2.483863E-03	3.033148E-05
5.122328E+03	2.479866E-03	3.035286E-05
5.132294E+03	2.477564E-03	3.039678E-05
5.142259E+03	2.476852E-03	3.046203E-05
5.152225E+03	2.477608E-03	3.054716E-05
5.162190E+03	2.479633E-03	3.064982E-05
5.172156E+03	2.482784E-03	3.076825E-05
5.182122E+03	2.486833E-03	3.089972E-05
5.192087E+03	2.491597E-03	3.104198E-05
5.202053E+03	2.496876E-03	3.119258E-05
5.212019E+03	2.502470E-03	3.134902E-05
5.221984E+03	2.508201E-03	3.150909E-05
5.231950E+03	2.513871E-03	3.167030E-05
5.241915E+03	2.519275E-03	3.183001E-05
5.251881E+03	2.524228E-03	3.198586E-05
5.261847E+03	2.528521E-03	3.213513E-05
5.271812E+03	2.531945E-03	3.227507E-05
5.281778E+03	2.534300E-03	3.240303E-05
5.291743E+03	2.535402E-03	3.251653E-05
5.301709E+03	2.535122E-03	3.261375E-05
5.311675E+03	2.533346E-03	3.269306E-05
5.321640E+03	2.530000E-03	3.275334E-05
5.331606E+03	2.525060E-03	3.279408E-05
5.341572E+03	2.518557E-03	3.281548E-05
5.351537E+03	2.510590E-03	3.281865E-05
5.361503E+03	2.501283E-03	3.280504E-05
5.371468E+03	2.490772E-03	3.277626E-05
5.381434E+03	2.479278E-03	3.273508E-05
5.391400E+03	2.467022E-03	3.268430E-05
5.401365E+03	2.454244E-03	3.262701E-05
5.411331E+03	2.441193E-03	3.256642E-05
5.421297E+03	2.428098E-03	3.250550E-05
5.431262E+03	2.415055E-03	3.244549E-05
5.441228E+03	2.402182E-03	3.238794E-05
5.451193E+03	2.389558E-03	3.233384E-05
5.461159E+03	2.377230E-03	3.228374E-05
5.471125E+03	2.365249E-03	3.223824E-05
5.481090E+03	2.353670E-03	3.219805E-05
5.491056E+03	2.342461E-03	3.216265E-05
5.501021E+03	2.331600E-03	3.213168E-05
5.510987E+03	2.321041E-03	3.210448E-05
5.520953E+03	2.310766E-03	3.208071E-05
5.530918E+03	2.300759E-03	3.206012E-05
5.540884E+03	2.291033E-03	3.204281E-05
5.550850E+03	2.281519E-03	3.202778E-05
5.560815E+03	2.272263E-03	3.201563E-05
5.570781E+03	2.263251E-03	3.200610E-05
5.580746E+03	2.254488E-03	3.199921E-05
5.590712E+03	2.245978E-03	3.199502E-05
5.600678E+03	2.237685E-03	3.199294E-05
5.610643E+03	2.229630E-03	3.199326E-05
5.620609E+03	2.221817E-03	3.199598E-05
5.630575E+03	2.214244E-03	3.200108E-05
5.640540E+03	2.206867E-03	3.200787E-05
5.650506E+03	2.199736E-03	3.201707E-05
5.660471E+03	2.192811E-03	3.202807E-05
5.670437E+03	2.186103E-03	3.204100E-05
5.680403E+03	2.179625E-03	3.205606E-05
5.690368E+03	2.173373E-03	3.207317E-05
5.700334E+03	2.167390E-03	3.209296E-05
5.710299E+03	2.161679E-03	3.211546E-05
5.720265E+03	2.156263E-03	3.214104E-05
5.730231E+03	2.151147E-03	3.216976E-05
5.740196E+03	2.146357E-03	3.220203E-05
5.750162E+03	2.141922E-03	3.223831E-05
5.760128E+03	2.137866E-03	3.227896E-05
5.770093E+03	2.134189E-03	3.232405E-05
5.780059E+03	2.130933E-03	3.237422E-05
5.790024E+03	2.128049E-03	3.242876E-05
5.799990E+03	2.125608E-03	3.248878E-05
5.809956E+03	2.123543E-03	3.255331E-05
5.819921E+03	2.121888E-03	3.262290E-05
5.829887E+03	2.120582E-03	3.269666E-05
5.839853E+03	2.119597E-03	3.277416E-05
5.849818E+03	2.118923E-03	3.285530E-05
5.859784E+03	2.118478E-03	3.293882E-05
5.869749E+03	2.118246E-03	3.302450E-05
5.879715E+03	2.118188E-03	3.311175E-05
5.889681E+03	2.118220E-03	3.319925E-05
5.899646E+03	2.118326E-03	3.328678E-05
5.909612E+03	2.118472E-03	3.337381E-05
5.919577E+03	2.118624E-03	3.345978E-05
5.929543E+03	2.118705E-03	3.354351E-05
5.939509E+03	2.118731E-03	3.362523E-05
5.949474E+03	2.118630E-03	3.370380E-05
5.959440E+03	2.118399E-03	3.377914E-05
5.969406E+03	2.117987E-03	3.385046E-05
5.979371E+03	2.117368E-03	3.391734E-05
5.989337E+03	2.116516E-03	3.397932E-05
5.999302E+03	2.115373E-03	3.403550E-05
6.009268E+03	2.113925E-03	3.408560E-05
6.019234E+03	2.112107E-03	3.412860E-05
6.029199E+03	2.109870E-03	3.416365E-05
6.039165E+03	2.107154E-03	3.418977E-05
6.049130E+03	2.103894E-03	3.420591E-05
6.059096E+03	2.099971E-03	3.421009E-05
6.069062E+03	2.095351E-03	3.420170E-05
6.079027E+03	2.089923E-03	3.417892E-05
6.088993E+03	2.083576E-03	3.413989E-05
6.098959E+03	2.076222E-03	3.408310E-05
6.108924E+03	2.067773E-03	3.400705E-05
6.118890E+03	2.058145E-03	3.391033E-05
6.128855E+03	2.047251E-03	3.379141E-05
6.138821E+03	2.035031E-03	3.364925E-05
6.148787E+03	2.021429E-03	3.348285E-05
6.158752E+03	2.006433E-03	3.329194E-05
6.168718E+03	1.990033E-03	3.307628E-05
6.178684E+03	1.972253E-03	3.283621E-05
6.188649E+03	1.953171E-03	3.257297E-05
6.198615E+03	1.932924E-03	3.228878E-05
6.208580E+03	1.911684E-03	3.198649E-05
6.218546E+03	1.889647E-03	3.166935E-05
6.228512E+03	1.867144E-03	3.134290E-05
6.238477E+03	1.844485E-03	3.101233E-05
6.248443E+03	1.822036E-03	3.068386E-05
6.258408E+03	1.800206E-03	3.036441E-05
6.268374E+03	1.779408E-03	3.006107E-05
6.278340E+03	1.760052E-03	2.978088E-05
6.288305E+03	1.742616E-03	2.953208E-05
6.298271E+03	1.727504E-03	2.932172E-05
6.308237E+03	1.715180E-03	2.915793E-05
6.318202E+03	1.706068E-03	2.904814E-05
6.328168E+03	1.700620E-03	2.900037E-05
6.338133E+03	1.699228E-03	2.902163E-05
6.348099E+03	1.702288E-03	2.911905E-05
6.358065E+03	1.710140E-03	2.929884E-05
6.368030E+03	1.723124E-03	2.956724E-05
6.377996E+03	1.741467E-03	2.992861E-05
6.387962E+03	1.765399E-03	3.038738E-05
6.397927E+03	1.795031E-03	3.094597E-05
6.407893E+03	1.830415E-03	3.160576E-05
6.417858E+03	1.871438E-03	3.236533E-05
6.427824E+03	1.917968E-03	3.322293E-05
6.437790E+03	1.969711E-03	3.417398E-05
6.447755E+03	2.026251E-03	3.521175E-05
6.457721E+03	2.087034E-03	3.632706E-05
6.467686E+03	2.151375E-03	3.750847E-05
6.477652E+03	2.218462E-03	3.874207E-05
6.487618E+03	2.287400E-03	4.001245E-05
6.497583E+03	2.357143E-03	4.130145E-05
6.507549E+03	2.426570E-03	4.258944E-05
6.517515E+03	2.494469E-03	4.385508E-05
6.527480E+03	2.559148E-03	4.506841E-05
6.537446E+03	2.619051E-03	4.620166E-05
6.547411E+03	2.672734E-03	4.722884E-05
6.557377E+03	2.718809E-03	4.812478E-05
6.567343E+03	2.756238E-03	4.887035E-05
6.577308E+03	2.784267E-03	4.945131E-05
6.587274E+03	2.802345E-03	4.985695E-05
6.597240E+03	2.810361E-03	5.008435E-05
6.607205E+03	2.808485E-03	5.013554E-05
6.617171E+03	2.797139E-03	5.001713E-05
6.627136E+03	2.777106E-03	4.974225E-05
6.637102E+03	2.749178E-03	4.932427E-05
6.647068E+03	2.714476E-03	4.878257E-05
6.657033E+03	2.674092E-03	4.813617E-05
6.666999E+03	2.629223E-03	4.740612E-05
6.676964E+03	2.580941E-03	4.661133E-05
6.686930E+03	2.530411E-03	4.577258E-05
6.696896E+03	2.478568E-03	4.490659E-05
6.706861E+03	2.426357E-03	4.403038E-05
6.716827E+03	2.374570E-03	4.315832E-05
6.726793E+03	2.323881E-03	4.230270E-05
6.736758E+03	2.274815E-03	4.147320E-05
6.746724E+03	2.227821E-03	4.067815E-05
6.756689E+03	2.183272E-03	3.992457E-05
6.766655E+03	2.141355E-03	3.921606E-05
6.776621E+03	2.102300E-03	3.855710E-05
6.786586E+03	2.066170E-03	3.794908E-05
6.796552E+03	2.033005E-03	3.739297E-05
6.806518E+03	2.002756E-03	3.688812E-05
6.816483E+03	1.975399E-03	3.643431E-05
6.826449E+03	1.950848E-03	3.603017E-05
6.836414E+03	1.928928E-03	3.567274E-05
6.846380E+03	1.909595E-03	3.536134E-05
6.856346E+03	1.892614E-03	3.509184E-05
6.866311E+03	1.877890E-03	3.486265E-05
6.876277E+03	1.865200E-03	3.466979E-05
6.886242E+03	1.854441E-03	3.451146E-05
6.896208E+03	1.845395E-03	3.438374E-05
6.906174E+03	1.837927E-03	3.428425E-05
6.916139E+03	1.831856E-03	3.420970E-05
6.926105E+03	1.827062E-03	3.415791E-05
6.936071E+03	1.823375E-03	3.412582E-05
6.946036E+03	1.820689E-03	3.411146E-05
6.956002E+03	1.818825E-03	3.411156E-05
6.965967E+03	1.817725E-03	3.412509E-05
6.975933E+03	1.817256E-03	3.414954E-05
6.985899E+03	1.817322E-03	3.418320E-05
6.995864E+03	1.817811E-03	3.422396E-05
7.005830E+03	1.818676E-03	3.427093E-05
7.015796E+03	1.819852E-03	3.432294E-05
7.025761E+03	1.821250E-03	3.437831E-05
7.035727E+03	1.822851E-03	3.443671E-05
7.045692E+03	1.824587E-03	3.449682E-05
7.055658E+03	1.826419E-03	3.455797E-05
7.065624E+03	1.828353E-03	3.462025E-05
7.075589E+03	1.830304E-03	3.468204E-05
7.085555E+03	1.832314E-03	3.474418E-05
7.095520E+03	1.834311E-03	3.480527E-05
7.105486E+03	1.836311E-03	3.486567E-05
7.115452E+03	1.838309E-03	3.492526E-05
7.125417E+03	1.840298E-03	3.498393E-05
7.135383E+03	1.842245E-03	3.504107E-05
7.145349E+03	1.844145E-03	3.509656E-05
7.155314E+03	1.846027E-03	3.515101E-05
7.165280E+03	1.847860E-03	3.520380E-05
7.175245E+03	1.849669E-03	3.525546E-05
7.185211E+03	1.851427E-03	3.530546E-05
7.195177E+03	1.853127E-03	3.535369E-05
7.205142E+03	1.854769E-03	3.540018E-05
7.215108E+03	1.856315E-03	3.544422E-05
7.225073E+03	1.857828E-03	3.548702E-05
7.235039E+03	1.859270E-03	3.552788E-05
7.245005E+03	1.860605E-03	3.556613E-05
7.254970E+03	1.861859E-03	3.560231E-05
7.264936E+03	1.862993E-03	3.563566E-05
7.274902E+03	1.864064E-03	3.566733E-05
7.284867E+03	1.864970E-03	3.569538E-05
7.294833E+03	1.865763E-03	3.572082E-05
7.304798E+03	1.866437E-03	3.574357E-05
7.314764E+03	1.866915E-03	3.576218E-05
7.324730E+03	1.867247E-03	3.577766E-05
7.334695E+03	1.867391E-03	3.578919E-05
7.344661E+03	1.867362E-03	3.579714E-05
7.354627E+03	1.867079E-03	3.579993E-05
7.364592E+03	1.866556E-03	3.579792E-05
7.374558E+03	1.865812E-03	3.579145E-05
7.384523E+03	1.864758E-03	3.577891E-05
7.394489E+03	1.863448E-03	3.576129E-05
7.404455E+03	1.861793E-03	3.573697E-05
7.414420E+03	1.859813E-03	3.570636E-05
7.424386E+03	1.857495E-03	3.566923E-05
7.434351E+03	1.854828E-03	3.562542E-05
7.444317E+03	1.851771E-03	3.557416E-05
7.454283E+03	1.848359E-03	3.551616E-05
7.464248E+03	1.844595E-03	3.545150E-05
7.474214E+03	1.840520E-03	3.538104E-05
7.484180E+03	1.836085E-03	3.530384E-05
7.494145E+03	1.831344E-03	3.522098E-05
7.504111E+03	1.826328E-03	3.513309E-05
7.514076E+03	1.821107E-03	3.504155E-05
7.524042E+03	1.815690E-03	3.494655E-05
7.534008E+03	1.810157E-03	3.484972E-05
7.543973E+03	1.804532E-03	3.475148E-05
7.553939E+03	1.798872E-03	3.465297E-05
7.563905E+03	1.793306E-03	3.455665E-05
7.573870E+03	1.787831E-03	3.446239E-05
7.583836E+03	1.782547E-03	3.437209E-05
7.593801E+03	1.777515E-03	3.428691E-05
7.603767E+03	1.772818E-03	3.420840E-05
7.613733E+03	1.768429E-03	3.413601E-05
7.623698E+03	1.764453E-03	3.407175E-05
7.633664E+03	1.760888E-03	3.401554E-05
7.643629E+03	1.757793E-03	3.396849E-05
7.653595E+03	1.755185E-03	3.393094E-05
7.663561E+03	1.753039E-03	3.390234E-05
7.673526E+03	1.751389E-03	3.388333E-05
7.683492E+03	1.750224E-03	3.387372E-05
7.693458E+03	1.749526E-03	3.387309E-05
7.703423E+03	1.749266E-03	3.388089E-05
7.713389E+03	1.749444E-03	3.389707E-05
7.723354E+03	1.749945E-03	3.391941E-05
7.733320E+03	1.750790E-03	3.394830E-05
