#wls	flux	fluxerr
1.594499E+03	2.928585E-05	1.416059E-06
1.634361E+03	2.968824E-05	1.430026E-06
1.674224E+03	3.002913E-05	1.440733E-06
1.714086E+03	3.033035E-05	1.449251E-06
1.753949E+03	3.055809E-05	1.453984E-06
1.793811E+03	3.073009E-05	1.455810E-06
1.833674E+03	3.077921E-05	1.451589E-06
1.873536E+03	3.069862E-05	1.441075E-06
1.913399E+03	3.046748E-05	1.423377E-06
1.953261E+03	3.003893E-05	1.396418E-06
1.993124E+03	2.943981E-05	1.361579E-06
2.032986E+03	2.876457E-05	1.323336E-06
2.072849E+03	2.817726E-05	1.289259E-06
2.112711E+03	2.793456E-05	1.270969E-06
2.152574E+03	2.825186E-05	1.277943E-06
2.192436E+03	2.925227E-05	1.315263E-06
2.232299E+03	3.086854E-05	1.379341E-06
2.272161E+03	3.295249E-05	1.463047E-06
2.312024E+03	3.530480E-05	1.557136E-06
2.351886E+03	3.782463E-05	1.656897E-06
2.391748E+03	4.040547E-05	1.757483E-06
2.431611E+03	4.302211E-05	1.857683E-06
2.471473E+03	4.565175E-05	1.956418E-06
2.511336E+03	4.831514E-05	2.054487E-06
2.551198E+03	5.104258E-05	2.153062E-06
2.591061E+03	5.385362E-05	2.252822E-06
2.630923E+03	5.676856E-05	2.354440E-06
2.670786E+03	5.982356E-05	2.459209E-06
2.710648E+03	6.303926E-05	2.567729E-06
2.750511E+03	6.646929E-05	2.681890E-06
2.790373E+03	7.011859E-05	2.801540E-06
2.830236E+03	7.402559E-05	2.927832E-06
2.870098E+03	7.824810E-05	3.062603E-06
2.909961E+03	8.279315E-05	3.205609E-06
2.949823E+03	8.774086E-05	3.359372E-06
2.989686E+03	9.312047E-05	3.524330E-06
2.999651E+03	9.454525E-05	3.567701E-06
3.009617E+03	9.600305E-05	3.611938E-06
3.019582E+03	9.747538E-05	3.656334E-06
3.029548E+03	9.900203E-05	3.702369E-06
3.039514E+03	1.005498E-04	3.748785E-06
3.049479E+03	1.021625E-04	3.797198E-06
3.059445E+03	1.038204E-04	3.846853E-06
3.069411E+03	1.055035E-04	3.896989E-06
3.079376E+03	1.072502E-04	3.949017E-06
3.089342E+03	1.090410E-04	4.002185E-06
3.099307E+03	1.108755E-04	4.056465E-06
3.109273E+03	1.127735E-04	4.112561E-06
3.119239E+03	1.146949E-04	4.168990E-06
3.129204E+03	1.166800E-04	4.227194E-06
3.139170E+03	1.187289E-04	4.287156E-06
3.149135E+03	1.208011E-04	4.347391E-06
3.159101E+03	1.229376E-04	4.409352E-06
3.169067E+03	1.251388E-04	4.473031E-06
3.179032E+03	1.273844E-04	4.537675E-06
3.188998E+03	1.296746E-04	4.603272E-06
3.198964E+03	1.320306E-04	4.670552E-06
3.208929E+03	1.344532E-04	4.739514E-06
3.218895E+03	1.369218E-04	4.809401E-06
3.228860E+03	1.394796E-04	4.881703E-06
3.238826E+03	1.420844E-04	4.954918E-06
3.248792E+03	1.447367E-04	5.029033E-06
3.258757E+03	1.474807E-04	5.105560E-06
3.268723E+03	1.502954E-04	5.183729E-06
3.278689E+03	1.531817E-04	5.263544E-06
3.288654E+03	1.561405E-04	5.344999E-06
3.298620E+03	1.591725E-04	5.428088E-06
3.308585E+03	1.622788E-04	5.512808E-06
3.318551E+03	1.654827E-04	5.599922E-06
3.328517E+03	1.687627E-04	5.688651E-06
3.338482E+03	1.721427E-04	5.779772E-06
3.348448E+03	1.756009E-04	5.872500E-06
3.358413E+03	1.791612E-04	5.967597E-06
3.368379E+03	1.828251E-04	6.065069E-06
3.378345E+03	1.865700E-04	6.164119E-06
3.388310E+03	1.904444E-04	6.266299E-06
3.398276E+03	1.944019E-04	6.370037E-06
3.408242E+03	1.984916E-04	6.476886E-06
3.418207E+03	2.026905E-04	6.586044E-06
3.428173E+03	2.070241E-04	6.698279E-06
3.438138E+03	2.114695E-04	6.812795E-06
3.448104E+03	2.160280E-04	6.929574E-06
3.458070E+03	2.207494E-04	7.050153E-06
3.468035E+03	2.255859E-04	7.172939E-06
3.478001E+03	2.305884E-04	7.299481E-06
3.487967E+03	2.357082E-04	7.428173E-06
3.497932E+03	2.409965E-04	7.560555E-06
3.507898E+03	2.464291E-04	7.695795E-06
3.517863E+03	2.520324E-04	7.834645E-06
3.527829E+03	2.578078E-04	7.977060E-06
3.537795E+03	2.637303E-04	8.122191E-06
3.547760E+03	2.698523E-04	8.271568E-06
3.557726E+03	2.761230E-04	8.423545E-06
3.567691E+03	2.826208E-04	8.580430E-06
3.577657E+03	2.892684E-04	8.739773E-06
3.587623E+03	2.961445E-04	8.903870E-06
3.597588E+03	3.031971E-04	9.071052E-06
3.607554E+03	3.104525E-04	9.242008E-06
3.617520E+03	3.179107E-04	9.416642E-06
3.627485E+03	3.255981E-04	9.595629E-06
3.637451E+03	3.334878E-04	9.778063E-06
3.647416E+03	3.416058E-04	9.964606E-06
3.657382E+03	3.499239E-04	1.015432E-05
3.667348E+03	3.584680E-04	1.034785E-05
3.677313E+03	3.672639E-04	1.054584E-05
3.687279E+03	3.762551E-04	1.074652E-05
3.697245E+03	3.854939E-04	1.095129E-05
3.707210E+03	3.949778E-04	1.115995E-05
3.717176E+03	4.046760E-04	1.137152E-05
3.727141E+03	4.146127E-04	1.158655E-05
3.737107E+03	4.247838E-04	1.180481E-05
3.747073E+03	4.351845E-04	1.202605E-05
3.757038E+03	4.458381E-04	1.225078E-05
3.767004E+03	4.567102E-04	1.247794E-05
3.776969E+03	4.678228E-04	1.270801E-05
3.786935E+03	4.791686E-04	1.294067E-05
3.796901E+03	4.907110E-04	1.317481E-05
3.806866E+03	5.024981E-04	1.341161E-05
3.816832E+03	5.144916E-04	1.364993E-05
3.826798E+03	5.267090E-04	1.389013E-05
3.836763E+03	5.391093E-04	1.413100E-05
3.846729E+03	5.517366E-04	1.437360E-05
3.856694E+03	5.645181E-04	1.461593E-05
3.866660E+03	5.774659E-04	1.485821E-05
3.876626E+03	5.905903E-04	1.510062E-05
3.886591E+03	6.038418E-04	1.534182E-05
3.896557E+03	6.172267E-04	1.558187E-05
3.906522E+03	6.306906E-04	1.581936E-05
3.916488E+03	6.442356E-04	1.605429E-05
3.926454E+03	6.578608E-04	1.628659E-05
3.936419E+03	6.714764E-04	1.651401E-05
3.946385E+03	6.851065E-04	1.673714E-05
3.956351E+03	6.986866E-04	1.695440E-05
3.966316E+03	7.121795E-04	1.716493E-05
3.976282E+03	7.256049E-04	1.736923E-05
3.986247E+03	7.388379E-04	1.756437E-05
3.996213E+03	7.519263E-04	1.775158E-05
4.006179E+03	7.648033E-04	1.792937E-05
4.012656E+03	7.258601E-04	1.693848E-05
4.014495E+03	7.094002E-04	1.653275E-05
4.020011E+03	6.978724E-04	1.620023E-05
4.021850E+03	7.038592E-04	1.631773E-05
4.023688E+03	7.057071E-04	1.633904E-05
4.025527E+03	7.113277E-04	1.644745E-05
4.027366E+03	7.055872E-04	1.629318E-05
4.029204E+03	6.978864E-04	1.609405E-05
4.031043E+03	6.954007E-04	1.601549E-05
4.032882E+03	7.012586E-04	1.612898E-05
4.034720E+03	7.124832E-04	1.636538E-05
4.036559E+03	7.233883E-04	1.659376E-05
4.038398E+03	7.423732E-04	1.700657E-05
4.042075E+03	7.602073E-04	1.736865E-05
4.043913E+03	7.756721E-04	1.769827E-05
4.045752E+03	7.989024E-04	1.820388E-05
4.047591E+03	8.220538E-04	1.870627E-05
4.049429E+03	8.403110E-04	1.909603E-05
4.051268E+03	8.631161E-04	1.958787E-05
4.053107E+03	8.898651E-04	2.016770E-05
4.054945E+03	9.154611E-04	2.071980E-05
4.056784E+03	9.433203E-04	2.132148E-05
4.058623E+03	9.729296E-04	2.196095E-05
4.060461E+03	1.003775E-03	2.262648E-05
4.062300E+03	1.035437E-03	2.330850E-05
4.064139E+03	1.067354E-03	2.399429E-05
4.065977E+03	1.099149E-03	2.467542E-05
4.067816E+03	1.130356E-03	2.534138E-05
4.069655E+03	1.160503E-03	2.598172E-05
4.071493E+03	1.189214E-03	2.658810E-05
4.073332E+03	1.216019E-03	2.715017E-05
4.075171E+03	1.240494E-03	2.765862E-05
4.077009E+03	1.263058E-03	2.812303E-05
4.078848E+03	1.275627E-03	2.836384E-05
4.080687E+03	1.289991E-03	2.864371E-05
4.082525E+03	1.295008E-03	2.871544E-05
4.084364E+03	1.311034E-03	2.903063E-05
4.086203E+03	1.310603E-03	2.898094E-05
4.088041E+03	1.305654E-03	2.883151E-05
4.089880E+03	1.298207E-03	2.862729E-05
4.091719E+03	1.287035E-03	2.834150E-05
4.093557E+03	1.276044E-03	2.806038E-05
4.095396E+03	1.268675E-03	2.785946E-05
4.097235E+03	1.265308E-03	2.774675E-05
4.099073E+03	1.261939E-03	2.763420E-05
4.100912E+03	1.239653E-03	2.710821E-05
4.102751E+03	1.222921E-03	2.670485E-05
4.104589E+03	1.210379E-03	2.639388E-05
4.106428E+03	1.189378E-03	2.589948E-05
4.108266E+03	1.158068E-03	2.518220E-05
4.110105E+03	1.141761E-03	2.479263E-05
4.111944E+03	1.130879E-03	2.452167E-05
4.113782E+03	1.085338E-03	2.350093E-05
4.115621E+03	1.067148E-03	2.307437E-05
4.117460E+03	1.066591E-03	2.302964E-05
4.119298E+03	1.060308E-03	2.286149E-05
4.121137E+03	1.049477E-03	2.259581E-05
4.122976E+03	1.035656E-03	2.226651E-05
4.124814E+03	1.021115E-03	2.192261E-05
4.126653E+03	1.016089E-03	2.178358E-05
4.128492E+03	1.010159E-03	2.162551E-05
4.130330E+03	1.001807E-03	2.141603E-05
4.132169E+03	9.828742E-04	2.098119E-05
4.134008E+03	9.639767E-04	2.054827E-05
4.135846E+03	9.566935E-04	2.036373E-05
4.137685E+03	9.416205E-04	2.001406E-05
4.139524E+03	9.326161E-04	1.979412E-05
4.141362E+03	9.108756E-04	1.930481E-05
4.143201E+03	8.793804E-04	1.861040E-05
4.145040E+03	8.579415E-04	1.813043E-05
4.146878E+03	8.435732E-04	1.780097E-05
4.148717E+03	8.254384E-04	1.739304E-05
4.150556E+03	8.038187E-04	1.691289E-05
4.152394E+03	7.682404E-04	1.614080E-05
4.154233E+03	7.458743E-04	1.564807E-05
4.156072E+03	7.054443E-04	1.477829E-05
4.157910E+03	6.748020E-04	1.411573E-05
4.159749E+03	6.449977E-04	1.347256E-05
4.161588E+03	6.316676E-04	1.317481E-05
4.163426E+03	6.163263E-04	1.283599E-05
4.165265E+03	5.925320E-04	1.232233E-05
4.167103E+03	5.783133E-04	1.200897E-05
4.168942E+03	5.713882E-04	1.184771E-05
4.170781E+03	5.685647E-04	1.177180E-05
4.172619E+03	5.567126E-04	1.150941E-05
4.174458E+03	5.515414E-04	1.138566E-05
4.176297E+03	5.433560E-04	1.120009E-05
4.178135E+03	5.522329E-04	1.136622E-05
4.179974E+03	5.671412E-04	1.165576E-05
4.181813E+03	5.877999E-04	1.206240E-05
4.183651E+03	6.058878E-04	1.241510E-05
4.185490E+03	6.277212E-04	1.284334E-05
4.187329E+03	6.532081E-04	1.334490E-05
4.189167E+03	6.755020E-04	1.377976E-05
4.191006E+03	6.999188E-04	1.425652E-05
4.192845E+03	7.322600E-04	1.489296E-05
4.194683E+03	7.594440E-04	1.542271E-05
4.196523E+03	7.853986E-04	1.592586E-05
4.198362E+03	8.137206E-04	1.647539E-05
4.200199E+03	8.435489E-04	1.705366E-05
4.202038E+03	8.734445E-04	1.763147E-05
4.203878E+03	9.059049E-04	1.825915E-05
4.205715E+03	9.415088E-04	1.894815E-05
4.207554E+03	9.654100E-04	1.939982E-05
4.209394E+03	9.858175E-04	1.977993E-05
4.211232E+03	1.010662E-03	2.024772E-05
4.213070E+03	1.029606E-03	2.059599E-05
4.214909E+03	1.045049E-03	2.087318E-05
4.216748E+03	1.059252E-03	2.112468E-05
4.218587E+03	1.071055E-03	2.132758E-05
4.220425E+03	1.076749E-03	2.140832E-05
4.222264E+03	1.076039E-03	2.136155E-05
4.224103E+03	1.073352E-03	2.127567E-05
4.225941E+03	1.065022E-03	2.107830E-05
4.227779E+03	1.063728E-03	2.102047E-05
4.229619E+03	1.057078E-03	2.085704E-05
4.231457E+03	1.053705E-03	2.075860E-05
4.233296E+03	1.028799E-03	2.023681E-05
4.235135E+03	1.016626E-03	1.996661E-05
4.236973E+03	9.995660E-04	1.960132E-05
4.238812E+03	9.765508E-04	1.912049E-05
4.240651E+03	9.515388E-04	1.860202E-05
4.242489E+03	9.075557E-04	1.771477E-05
4.244328E+03	8.736531E-04	1.702665E-05
4.246167E+03	8.408897E-04	1.636275E-05
4.248005E+03	7.983278E-04	1.551047E-05
4.249844E+03	7.651312E-04	1.484244E-05
4.251683E+03	7.256165E-04	1.405405E-05
4.253521E+03	6.853494E-04	1.325350E-05
4.255360E+03	6.562028E-04	1.267010E-05
4.257199E+03	6.224802E-04	1.200025E-05
4.259037E+03	5.949430E-04	1.145149E-05
4.260876E+03	5.583646E-04	1.073065E-05
4.262715E+03	5.348162E-04	1.026203E-05
4.264553E+03	5.069323E-04	9.711769E-06
4.266392E+03	4.741693E-04	9.069867E-06
4.268231E+03	4.417591E-04	8.436677E-06
4.270069E+03	4.198524E-04	8.005716E-06
4.271908E+03	4.080122E-04	7.767723E-06
4.273747E+03	4.094088E-04	7.782048E-06
4.275585E+03	4.078006E-04	7.739273E-06
4.277424E+03	4.103898E-04	7.776135E-06
4.279263E+03	4.158912E-04	7.867941E-06
4.281101E+03	4.398039E-04	8.307186E-06
4.282940E+03	4.657092E-04	8.782587E-06
4.284779E+03	4.933998E-04	9.290063E-06
4.286617E+03	5.125653E-04	9.635635E-06
4.288456E+03	5.352044E-04	1.004527E-05
4.290294E+03	5.585896E-04	1.046754E-05
4.292133E+03	5.834533E-04	1.091610E-05
4.293972E+03	6.044293E-04	1.129056E-05
4.295810E+03	6.286892E-04	1.172504E-05
4.297649E+03	6.535018E-04	1.216837E-05
4.299488E+03	6.768652E-04	1.258330E-05
4.301326E+03	7.000971E-04	1.299442E-05
4.303165E+03	7.172345E-04	1.329123E-05
4.305004E+03	7.330629E-04	1.356282E-05
4.306842E+03	7.424458E-04	1.371443E-05
4.308681E+03	7.514432E-04	1.385839E-05
4.310520E+03	7.518823E-04	1.384425E-05
4.312358E+03	7.586365E-04	1.394619E-05
4.314197E+03	7.598125E-04	1.394537E-05
4.316036E+03	7.598133E-04	1.392296E-05
4.317874E+03	7.634402E-04	1.396691E-05
4.319713E+03	7.706966E-04	1.407695E-05
4.321552E+03	7.732503E-04	1.410082E-05
4.323390E+03	7.747265E-04	1.410495E-05
4.325229E+03	7.718857E-04	1.403053E-05
4.327068E+03	7.637424E-04	1.386008E-05
4.328906E+03	7.498001E-04	1.358505E-05
4.330745E+03	7.404164E-04	1.339332E-05
4.332584E+03	7.381499E-04	1.333068E-05
4.334422E+03	7.287067E-04	1.313881E-05
4.336261E+03	7.251074E-04	1.305270E-05
4.338100E+03	7.246529E-04	1.302333E-05
4.339938E+03	7.225253E-04	1.296399E-05
4.341777E+03	7.229058E-04	1.294972E-05
4.343616E+03	7.195947E-04	1.286943E-05
4.345454E+03	7.125392E-04	1.272249E-05
4.347293E+03	7.114881E-04	1.268301E-05
4.349131E+03	7.113230E-04	1.265939E-05
4.350970E+03	7.084469E-04	1.258762E-05
4.352809E+03	7.022163E-04	1.245653E-05
4.354647E+03	6.921840E-04	1.225850E-05
4.356486E+03	6.931958E-04	1.225634E-05
4.358325E+03	6.974160E-04	1.231077E-05
4.360163E+03	6.965048E-04	1.227454E-05
4.362002E+03	6.936668E-04	1.220449E-05
4.363841E+03	6.972486E-04	1.224739E-05
4.365679E+03	6.987572E-04	1.225374E-05
4.367518E+03	6.992286E-04	1.224187E-05
4.369357E+03	7.020734E-04	1.227148E-05
4.371195E+03	7.069972E-04	1.233722E-05
4.373034E+03	7.143485E-04	1.244499E-05
4.374873E+03	7.244265E-04	1.259979E-05
4.376711E+03	7.286686E-04	1.265270E-05
4.378550E+03	7.242962E-04	1.255604E-05
4.380389E+03	7.220014E-04	1.249562E-05
4.382227E+03	7.269401E-04	1.256034E-05
4.384066E+03	7.209265E-04	1.243587E-05
4.385905E+03	7.166939E-04	1.234244E-05
4.387743E+03	7.150379E-04	1.229357E-05
4.389582E+03	7.127355E-04	1.223372E-05
4.391421E+03	7.226420E-04	1.238324E-05
4.393259E+03	7.339446E-04	1.255611E-05
4.395098E+03	7.455524E-04	1.273357E-05
4.396937E+03	7.591548E-04	1.294441E-05
4.398775E+03	7.689387E-04	1.308951E-05
4.400614E+03	7.837499E-04	1.331951E-05
4.402453E+03	7.990179E-04	1.355646E-05
4.404291E+03	8.091716E-04	1.370595E-05
4.406130E+03	8.160472E-04	1.379947E-05
4.407969E+03	8.174016E-04	1.379941E-05
4.409807E+03	8.229891E-04	1.387066E-05
4.411646E+03	8.295263E-04	1.395760E-05
4.413484E+03	8.378612E-04	1.407440E-05
4.415323E+03	8.449552E-04	1.416996E-05
4.417162E+03	8.554935E-04	1.432282E-05
4.419000E+03	8.676342E-04	1.450191E-05
4.420839E+03	8.723989E-04	1.455727E-05
4.422678E+03	8.825060E-04	1.470140E-05
4.424516E+03	8.969623E-04	1.491733E-05
4.426355E+03	9.112279E-04	1.512933E-05
4.428194E+03	9.281496E-04	1.538461E-05
4.430032E+03	9.356880E-04	1.548371E-05
4.431871E+03	9.459299E-04	1.562709E-05
4.433710E+03	9.579279E-04	1.579891E-05
4.435548E+03	9.725839E-04	1.601387E-05
4.437387E+03	9.807952E-04	1.612213E-05
4.439226E+03	9.874097E-04	1.620378E-05
4.441064E+03	9.953297E-04	1.630649E-05
4.442903E+03	1.008162E-03	1.648915E-05
4.444742E+03	1.017095E-03	1.660749E-05
4.446580E+03	1.021072E-03	1.664460E-05
4.448419E+03	1.024751E-03	1.667668E-05
4.450258E+03	1.023568E-03	1.662961E-05
4.452096E+03	1.024692E-03	1.662007E-05
4.453935E+03	1.023106E-03	1.656664E-05
4.455774E+03	1.023677E-03	1.654820E-05
4.457612E+03	1.019379E-03	1.645120E-05
4.459451E+03	1.011763E-03	1.630102E-05
4.461290E+03	1.008412E-03	1.621989E-05
4.463128E+03	1.004003E-03	1.612201E-05
4.464967E+03	9.964748E-04	1.597441E-05
4.466806E+03	9.829076E-04	1.573060E-05
4.468644E+03	9.661128E-04	1.543600E-05
4.470483E+03	9.484517E-04	1.512852E-05
4.472321E+03	9.247400E-04	1.472567E-05
4.474160E+03	8.997042E-04	1.430309E-05
4.475999E+03	8.702713E-04	1.381209E-05
4.477837E+03	8.460085E-04	1.340460E-05
4.479676E+03	8.234940E-04	1.302610E-05
4.481515E+03	8.012678E-04	1.265339E-05
4.483353E+03	7.877506E-04	1.241918E-05
4.485192E+03	7.662052E-04	1.205936E-05
4.487031E+03	7.442425E-04	1.169416E-05
4.488869E+03	7.256474E-04	1.138298E-05
4.490708E+03	7.018910E-04	1.099198E-05
4.492547E+03	6.808469E-04	1.064465E-05
4.494385E+03	6.607997E-04	1.031403E-05
4.496224E+03	6.433678E-04	1.002522E-05
4.498063E+03	6.228415E-04	9.689225E-06
4.499901E+03	6.004314E-04	9.325065E-06
4.501740E+03	5.871116E-04	9.103038E-06
4.503579E+03	5.712536E-04	8.842441E-06
4.505417E+03	5.541204E-04	8.562985E-06
4.507256E+03	5.387990E-04	8.312391E-06
4.509095E+03	5.203283E-04	8.014106E-06
4.510933E+03	5.090393E-04	7.827224E-06
4.512772E+03	4.968869E-04	7.627692E-06
4.514611E+03	4.932066E-04	7.558646E-06
4.516449E+03	4.935295E-04	7.551064E-06
4.518288E+03	4.990102E-04	7.622279E-06
4.520127E+03	5.153461E-04	7.858780E-06
4.521965E+03	5.302705E-04	8.072996E-06
4.523804E+03	5.452041E-04	8.286629E-06
4.525643E+03	5.690834E-04	8.635286E-06
4.527481E+03	6.039995E-04	9.149973E-06
4.529320E+03	6.442716E-04	9.743950E-06
4.531159E+03	6.881763E-04	1.039080E-05
4.532997E+03	7.449700E-04	1.122980E-05
4.534836E+03	8.043406E-04	1.210480E-05
4.536674E+03	8.680705E-04	1.304239E-05
4.538513E+03	9.324492E-04	1.398662E-05
4.540352E+03	9.966115E-04	1.492448E-05
4.542190E+03	1.063358E-03	1.589788E-05
4.544029E+03	1.130297E-03	1.687092E-05
4.545868E+03	1.195441E-03	1.781402E-05
4.547706E+03	1.254457E-03	1.866282E-05
4.549545E+03	1.311366E-03	1.947754E-05
4.551384E+03	1.371419E-03	2.033618E-05
4.553222E+03	1.428447E-03	2.114720E-05
4.555061E+03	1.484182E-03	2.193643E-05
4.556900E+03	1.542347E-03	2.275892E-05
4.558738E+03	1.596717E-03	2.352280E-05
4.560577E+03	1.648616E-03	2.424781E-05
4.562416E+03	1.702690E-03	2.500238E-05
4.564254E+03	1.758073E-03	2.577364E-05
4.566093E+03	1.811136E-03	2.650842E-05
4.567932E+03	1.860548E-03	2.718743E-05
4.569770E+03	1.912441E-03	2.790042E-05
4.571609E+03	1.963138E-03	2.859362E-05
4.573448E+03	2.009615E-03	2.922321E-05
4.575286E+03	2.051408E-03	2.978273E-05
4.577125E+03	2.087234E-03	3.025391E-05
4.578964E+03	2.116779E-03	3.063265E-05
4.580802E+03	2.143828E-03	3.097409E-05
4.582641E+03	2.166384E-03	3.124959E-05
4.584480E+03	2.180388E-03	3.140101E-05
4.586318E+03	2.189836E-03	3.148641E-05
4.588157E+03	2.193389E-03	3.148690E-05
4.589997E+03	2.191197E-03	3.140499E-05
4.591834E+03	2.185973E-03	3.127998E-05
4.593673E+03	2.176946E-03	3.110100E-05
4.595512E+03	2.164625E-03	3.087556E-05
4.597351E+03	2.146595E-03	3.056954E-05
4.599189E+03	2.129013E-03	3.027088E-05
4.601027E+03	2.110702E-03	2.996277E-05
4.602867E+03	2.095154E-03	2.969477E-05
4.604706E+03	2.078466E-03	2.941150E-05
4.606543E+03	2.066755E-03	2.919944E-05
4.608383E+03	2.059718E-03	2.905394E-05
4.610222E+03	2.053294E-03	2.891753E-05
4.612059E+03	2.045524E-03	2.876265E-05
4.613898E+03	2.039448E-03	2.863201E-05
4.615738E+03	2.037695E-03	2.856234E-05
4.617576E+03	2.036969E-03	2.850728E-05
4.619414E+03	2.035364E-03	2.844014E-05
4.621254E+03	2.038035E-03	2.843280E-05
4.623092E+03	2.045450E-03	2.849160E-05
4.624930E+03	2.059108E-03	2.863706E-05
4.626769E+03	2.084587E-03	2.894617E-05
4.628608E+03	2.114982E-03	2.932246E-05
4.630447E+03	2.148075E-03	2.973495E-05
4.632286E+03	2.180821E-03	3.014138E-05
4.634124E+03	2.224636E-03	3.069929E-05
4.635963E+03	2.268680E-03	3.125863E-05
4.637802E+03	2.309178E-03	3.176747E-05
4.639640E+03	2.346387E-03	3.222959E-05
4.641479E+03	2.381183E-03	3.265718E-05
4.643318E+03	2.412995E-03	3.304261E-05
4.645156E+03	2.439442E-03	3.335353E-05
4.646995E+03	2.462070E-03	3.361137E-05
4.648834E+03	2.480722E-03	3.381424E-05
4.650672E+03	2.493737E-03	3.393979E-05
4.652511E+03	2.503339E-03	3.401860E-05
4.654349E+03	2.506882E-03	3.401498E-05
4.656188E+03	2.506641E-03	3.396013E-05
4.658027E+03	2.507590E-03	3.392155E-05
4.659865E+03	2.511854E-03	3.392790E-05
4.661704E+03	2.519331E-03	3.397759E-05
4.663543E+03	2.525410E-03	3.400833E-05
4.665381E+03	2.531696E-03	3.404180E-05
4.667220E+03	2.538396E-03	3.408076E-05
4.669059E+03	2.541256E-03	3.406815E-05
4.670897E+03	2.544321E-03	3.405837E-05
4.672736E+03	2.551022E-03	3.409724E-05
4.674575E+03	2.558759E-03	3.414988E-05
4.676413E+03	2.568264E-03	3.422594E-05
4.678252E+03	2.580005E-03	3.433159E-05
4.680091E+03	2.587643E-03	3.438244E-05
4.681929E+03	2.587949E-03	3.433592E-05
4.683768E+03	2.584039E-03	3.423372E-05
4.685607E+03	2.574507E-03	3.405750E-05
4.687445E+03	2.562625E-03	3.385081E-05
4.689284E+03	2.547091E-03	3.359660E-05
4.691123E+03	2.523322E-03	3.323472E-05
4.692961E+03	2.494906E-03	3.281282E-05
4.694800E+03	2.464596E-03	3.236733E-05
4.696639E+03	2.436353E-03	3.195029E-05
4.698477E+03	2.411950E-03	3.158478E-05
4.700316E+03	2.383520E-03	3.116773E-05
4.702155E+03	2.357315E-03	3.078098E-05
4.703993E+03	2.336620E-03	3.046724E-05
