#wls	flux	fluxerr
1.594499E+03	2.931149E-05	1.034966E-06
1.634361E+03	2.970555E-05	1.044534E-06
1.674224E+03	3.006457E-05	1.052650E-06
1.714086E+03	3.035800E-05	1.058257E-06
1.753949E+03	3.060453E-05	1.062030E-06
1.793811E+03	3.076937E-05	1.062783E-06
1.833674E+03	3.083756E-05	1.060038E-06
1.873536E+03	3.076285E-05	1.052258E-06
1.913399E+03	3.051221E-05	1.038390E-06
1.953261E+03	3.008960E-05	1.018661E-06
1.993124E+03	2.949604E-05	9.931981E-07
2.032986E+03	2.881463E-05	9.648848E-07
2.072849E+03	2.822186E-05	9.396521E-07
2.112711E+03	2.797479E-05	9.259646E-07
2.152574E+03	2.829948E-05	9.310576E-07
2.192436E+03	2.929791E-05	9.579163E-07
2.232299E+03	3.091309E-05	1.004260E-06
2.272161E+03	3.298482E-05	1.064506E-06
2.312024E+03	3.534819E-05	1.133044E-06
2.351886E+03	3.786731E-05	1.205318E-06
2.391748E+03	4.043356E-05	1.277752E-06
2.431611E+03	4.304776E-05	1.350298E-06
2.471473E+03	4.567398E-05	1.421760E-06
2.511336E+03	4.833279E-05	1.492720E-06
2.551198E+03	5.103912E-05	1.563568E-06
2.591061E+03	5.382642E-05	1.635239E-06
2.630923E+03	5.673031E-05	1.708693E-06
2.670786E+03	5.973890E-05	1.783435E-06
2.710648E+03	6.291947E-05	1.861318E-06
2.750511E+03	6.627535E-05	1.942244E-06
2.790373E+03	6.985954E-05	2.027546E-06
2.830236E+03	7.367504E-05	2.117052E-06
2.870098E+03	7.777694E-05	2.212060E-06
2.909961E+03	8.218693E-05	2.312855E-06
2.949823E+03	8.694561E-05	2.420211E-06
2.989686E+03	9.209545E-05	2.534891E-06
2.999651E+03	9.345406E-05	2.564928E-06
3.009617E+03	9.482494E-05	2.595052E-06
3.019582E+03	9.624640E-05	2.626303E-06
3.029548E+03	9.768213E-05	2.657682E-06
3.039514E+03	9.915595E-05	2.689828E-06
3.049479E+03	1.006730E-04	2.722871E-06
3.059445E+03	1.022327E-04	2.756781E-06
3.069411E+03	1.038540E-04	2.792056E-06
3.079376E+03	1.054974E-04	2.827621E-06
3.089342E+03	1.071819E-04	2.863976E-06
3.099307E+03	1.089071E-04	2.901100E-06
3.109273E+03	1.106727E-04	2.938973E-06
3.119239E+03	1.124786E-04	2.977577E-06
3.129204E+03	1.143445E-04	3.017425E-06
3.139170E+03	1.162304E-04	3.057440E-06
3.149135E+03	1.181763E-04	3.098673E-06
3.159101E+03	1.201622E-04	3.140577E-06
3.169067E+03	1.222086E-04	3.183678E-06
3.179032E+03	1.242951E-04	3.227428E-06
3.188998E+03	1.264220E-04	3.271817E-06
3.198964E+03	1.285891E-04	3.316836E-06
3.208929E+03	1.308177E-04	3.363012E-06
3.218895E+03	1.331083E-04	3.410345E-06
3.228860E+03	1.354402E-04	3.458283E-06
3.238826E+03	1.378349E-04	3.507363E-06
3.248792E+03	1.402714E-04	3.557035E-06
3.258757E+03	1.427933E-04	3.608384E-06
3.268723E+03	1.453580E-04	3.660312E-06
3.278689E+03	1.479875E-04	3.713359E-06
3.288654E+03	1.506826E-04	3.767522E-06
3.298620E+03	1.534439E-04	3.822799E-06
3.308585E+03	1.562717E-04	3.879178E-06
3.318551E+03	1.591670E-04	3.936656E-06
3.328517E+03	1.621303E-04	3.995230E-06
3.338482E+03	1.651845E-04	4.055440E-06
3.348448E+03	1.683311E-04	4.117291E-06
3.358413E+03	1.715249E-04	4.179658E-06
3.368379E+03	1.748352E-04	4.244205E-06
3.378345E+03	1.782171E-04	4.309808E-06
3.388310E+03	1.816941E-04	4.377016E-06
3.398276E+03	1.852674E-04	4.445821E-06
3.408242E+03	1.889142E-04	4.515654E-06
3.418207E+03	1.926819E-04	4.587614E-06
3.428173E+03	1.965482E-04	4.661137E-06
3.438138E+03	2.005374E-04	4.736766E-06
3.448104E+03	2.046265E-04	4.813923E-06
3.458070E+03	2.088165E-04	4.892592E-06
3.468035E+03	2.131316E-04	4.973312E-06
3.478001E+03	2.175730E-04	5.056069E-06
3.487967E+03	2.221410E-04	5.140830E-06
3.497932E+03	2.268367E-04	5.227577E-06
3.507898E+03	2.316604E-04	5.316280E-06
3.517863E+03	2.366375E-04	5.407474E-06
3.527829E+03	2.417436E-04	5.500557E-06
3.537795E+03	2.470041E-04	5.596061E-06
3.547760E+03	2.524195E-04	5.693948E-06
3.557726E+03	2.579901E-04	5.794174E-06
3.567691E+03	2.637159E-04	5.896691E-06
3.577657E+03	2.695971E-04	6.001450E-06
3.587623E+03	2.756336E-04	6.108398E-06
3.597588E+03	2.818764E-04	6.218610E-06
3.607554E+03	2.882482E-04	6.330323E-06
3.617520E+03	2.948256E-04	6.445166E-06
3.627485E+03	3.015827E-04	6.562507E-06
3.637451E+03	3.085182E-04	6.682261E-06
3.647416E+03	3.156313E-04	6.804354E-06
3.657382E+03	3.229470E-04	6.929258E-06
3.667348E+03	3.304637E-04	7.056876E-06
3.677313E+03	3.381537E-04	7.186550E-06
3.687279E+03	3.460412E-04	7.318736E-06
3.697245E+03	3.541240E-04	7.453322E-06
3.707210E+03	3.624263E-04	7.590747E-06
3.717176E+03	3.708919E-04	7.729771E-06
3.727141E+03	3.795978E-04	7.871932E-06
3.737107E+03	3.884871E-04	8.015977E-06
3.747073E+03	3.975828E-04	8.162319E-06
3.757038E+03	4.068806E-04	8.310797E-06
3.767004E+03	4.163761E-04	8.461256E-06
3.776969E+03	4.260913E-04	8.614072E-06
3.786935E+03	4.359935E-04	8.768517E-06
3.796901E+03	4.461042E-04	8.924957E-06
3.806866E+03	4.564167E-04	9.083189E-06
3.816832E+03	4.668970E-04	9.242471E-06
3.826798E+03	4.775921E-04	9.403672E-06
3.836763E+03	4.884662E-04	9.566019E-06
3.846729E+03	4.995376E-04	9.729809E-06
3.856694E+03	5.107964E-04	9.894784E-06
3.866660E+03	5.222035E-04	1.006013E-05
3.876626E+03	5.337735E-04	1.022607E-05
3.886591E+03	5.454912E-04	1.039227E-05
3.896557E+03	5.573666E-04	1.055887E-05
3.906522E+03	5.693513E-04	1.072489E-05
3.916488E+03	5.814212E-04	1.088987E-05
3.926454E+03	5.936031E-04	1.105425E-05
3.936419E+03	6.058100E-04	1.121641E-05
3.946385E+03	6.180338E-04	1.137618E-05
3.956351E+03	6.302356E-04	1.153285E-05
3.966316E+03	6.423740E-04	1.168567E-05
3.976282E+03	6.544337E-04	1.183439E-05
3.986247E+03	6.663440E-04	1.197776E-05
3.996213E+03	6.780614E-04	1.211506E-05
4.006179E+03	6.895698E-04	1.224608E-05
4.016144E+03	7.008270E-04	1.237014E-05
4.026110E+03	7.117651E-04	1.248613E-05
4.036076E+03	7.223717E-04	1.259395E-05
4.046041E+03	7.326097E-04	1.269308E-05
4.056007E+03	7.424460E-04	1.278306E-05
4.065972E+03	7.518518E-04	1.286355E-05
4.075938E+03	7.607798E-04	1.293390E-05
4.085904E+03	7.692666E-04	1.299487E-05
4.095869E+03	7.772560E-04	1.304569E-05
4.105835E+03	7.847783E-04	1.308704E-05
4.115800E+03	7.918236E-04	1.311890E-05
4.125766E+03	7.984651E-04	1.314266E-05
4.135732E+03	8.046879E-04	1.315822E-05
4.145697E+03	8.105339E-04	1.316640E-05
4.155663E+03	8.160732E-04	1.316847E-05
4.165629E+03	8.213113E-04	1.316463E-05
4.175594E+03	8.263479E-04	1.315658E-05
4.185560E+03	8.312151E-04	1.314491E-05
4.195525E+03	8.359470E-04	1.313023E-05
4.205491E+03	8.405993E-04	1.311346E-05
4.215457E+03	8.452481E-04	1.309583E-05
4.225422E+03	8.499047E-04	1.307753E-05
4.235388E+03	8.546424E-04	1.305970E-05
4.245354E+03	8.594917E-04	1.304279E-05
4.255319E+03	8.645006E-04	1.302751E-05
4.265285E+03	8.696941E-04	1.301420E-05
4.275250E+03	8.751318E-04	1.300372E-05
4.285216E+03	8.807893E-04	1.299565E-05
4.295182E+03	8.867310E-04	1.299088E-05
4.305147E+03	8.929539E-04	1.298932E-05
4.315113E+03	8.994455E-04	1.299072E-05
4.325078E+03	9.062019E-04	1.299497E-05
4.335044E+03	9.131733E-04	1.300131E-05
4.345010E+03	9.203761E-04	1.300993E-05
4.354975E+03	9.277313E-04	1.301969E-05
4.364941E+03	9.352300E-04	1.303045E-05
4.374907E+03	9.428323E-04	1.304165E-05
4.384872E+03	9.505716E-04	1.305376E-05
4.394838E+03	9.585892E-04	1.306869E-05
4.404803E+03	9.669680E-04	1.308753E-05
4.414769E+03	9.758843E-04	1.311258E-05
4.424735E+03	9.854521E-04	1.314524E-05
4.434700E+03	9.958246E-04	1.318741E-05
4.444666E+03	1.007141E-03	1.324073E-05
4.454632E+03	1.019575E-03	1.330726E-05
4.464597E+03	1.033265E-03	1.338851E-05
4.474563E+03	1.048339E-03	1.348585E-05
4.484528E+03	1.064949E-03	1.360090E-05
4.494494E+03	1.083174E-03	1.373433E-05
4.504460E+03	1.103104E-03	1.388688E-05
4.514425E+03	1.124799E-03	1.405894E-05
4.524391E+03	1.148254E-03	1.425006E-05
4.534356E+03	1.173463E-03	1.445983E-05
4.544322E+03	1.200392E-03	1.468745E-05
4.554288E+03	1.228938E-03	1.493134E-05
4.564253E+03	1.259027E-03	1.519028E-05
4.574219E+03	1.290505E-03	1.546218E-05
4.584185E+03	1.323235E-03	1.574516E-05
4.594150E+03	1.357061E-03	1.603723E-05
4.604116E+03	1.391798E-03	1.633607E-05
4.614081E+03	1.427273E-03	1.663958E-05
4.624047E+03	1.463308E-03	1.694571E-05
4.634013E+03	1.499697E-03	1.725209E-05
4.643978E+03	1.536300E-03	1.755720E-05
4.653944E+03	1.572947E-03	1.785924E-05
4.663910E+03	1.609561E-03	1.815748E-05
4.673875E+03	1.646084E-03	1.845147E-05
4.683841E+03	1.682486E-03	1.874107E-05
4.693806E+03	1.718809E-03	1.902694E-05
4.703772E+03	1.755236E-03	1.931130E-05
4.713738E+03	1.791918E-03	1.959596E-05
4.723703E+03	1.829130E-03	1.988405E-05
4.733669E+03	1.867195E-03	2.017916E-05
4.743634E+03	1.906478E-03	2.048524E-05
4.753600E+03	1.947397E-03	2.080676E-05
4.763566E+03	1.990343E-03	2.114779E-05
4.773531E+03	2.035622E-03	2.151144E-05
4.783497E+03	2.083107E-03	2.189622E-05
4.793463E+03	2.132582E-03	2.229978E-05
4.803428E+03	2.183750E-03	2.271897E-05
4.813394E+03	2.236283E-03	2.315042E-05
4.823359E+03	2.289669E-03	2.358894E-05
4.833325E+03	2.343435E-03	2.402988E-05
4.843291E+03	2.396952E-03	2.446705E-05
4.853256E+03	2.449510E-03	2.489362E-05
4.863222E+03	2.500356E-03	2.530240E-05
4.873188E+03	2.548658E-03	2.568554E-05
4.883153E+03	2.593564E-03	2.603511E-05
4.893119E+03	2.634223E-03	2.634329E-05
4.903084E+03	2.669775E-03	2.660223E-05
4.913050E+03	2.699432E-03	2.680477E-05
4.923016E+03	2.722529E-03	2.694500E-05
4.932981E+03	2.738603E-03	2.701903E-05
4.942947E+03	2.747378E-03	2.702477E-05
4.952912E+03	2.748810E-03	2.696239E-05
4.962878E+03	2.743114E-03	2.683450E-05
4.972844E+03	2.730672E-03	2.664528E-05
4.982809E+03	2.712027E-03	2.640033E-05
4.992775E+03	2.687857E-03	2.610653E-05
5.002741E+03	2.658867E-03	2.577084E-05
5.012706E+03	2.625857E-03	2.540108E-05
5.022672E+03	2.589625E-03	2.500495E-05
5.032637E+03	2.551025E-03	2.459062E-05
5.042603E+03	2.510789E-03	2.416500E-05
5.052569E+03	2.469706E-03	2.373552E-05
5.062534E+03	2.428527E-03	2.330916E-05
5.072500E+03	2.387918E-03	2.289208E-05
5.082465E+03	2.348515E-03	2.249016E-05
5.092431E+03	2.310830E-03	2.210800E-05
5.102397E+03	2.275343E-03	2.174997E-05
5.112362E+03	2.242456E-03	2.141966E-05
5.122328E+03	2.212441E-03	2.111943E-05
5.132294E+03	2.185555E-03	2.085152E-05
5.142259E+03	2.161936E-03	2.061707E-05
5.152225E+03	2.141634E-03	2.041637E-05
5.162190E+03	2.124698E-03	2.024973E-05
5.172156E+03	2.111083E-03	2.011660E-05
5.182122E+03	2.100706E-03	2.001607E-05
5.192087E+03	2.093489E-03	1.994732E-05
5.202053E+03	2.089247E-03	1.990849E-05
5.212019E+03	2.087859E-03	1.989840E-05
5.221984E+03	2.089151E-03	1.991534E-05
5.231950E+03	2.092937E-03	1.995748E-05
5.241915E+03	2.099041E-03	2.002315E-05
5.251881E+03	2.107278E-03	2.011058E-05
5.261847E+03	2.117417E-03	2.021753E-05
5.271812E+03	2.129278E-03	2.034230E-05
5.281778E+03	2.142610E-03	2.048251E-05
5.291743E+03	2.157197E-03	2.063609E-05
5.301709E+03	2.172795E-03	2.080071E-05
5.311675E+03	2.189183E-03	2.097428E-05
5.321640E+03	2.206134E-03	2.115461E-05
5.331606E+03	2.223384E-03	2.133919E-05
5.341572E+03	2.240724E-03	2.152600E-05
5.351537E+03	2.257934E-03	2.171293E-05
5.361503E+03	2.274840E-03	2.189830E-05
5.371468E+03	2.291271E-03	2.208044E-05
5.381434E+03	2.307080E-03	2.225792E-05
5.391400E+03	2.322200E-03	2.243006E-05
5.401365E+03	2.336510E-03	2.259569E-05
5.411331E+03	2.349992E-03	2.275457E-05
5.421297E+03	2.362674E-03	2.290696E-05
5.431262E+03	2.374607E-03	2.305332E-05
5.441228E+03	2.385883E-03	2.319451E-05
5.451193E+03	2.396643E-03	2.333188E-05
5.461159E+03	2.407063E-03	2.346711E-05
5.471125E+03	2.417389E-03	2.360261E-05
5.481090E+03	2.427718E-03	2.373929E-05
5.491056E+03	2.437901E-03	2.387562E-05
5.501021E+03	2.447735E-03	2.400954E-05
5.510987E+03	2.457039E-03	2.413920E-05
5.520953E+03	2.465563E-03	2.426204E-05
5.530918E+03	2.473130E-03	2.437621E-05
5.540884E+03	2.479643E-03	2.448064E-05
5.550850E+03	2.484954E-03	2.457376E-05
5.560815E+03	2.489046E-03	2.465527E-05
5.570781E+03	2.491909E-03	2.472495E-05
5.580746E+03	2.493611E-03	2.478334E-05
5.590712E+03	2.494260E-03	2.483141E-05
5.600678E+03	2.493982E-03	2.487030E-05
5.610643E+03	2.492891E-03	2.490105E-05
5.620609E+03	2.491138E-03	2.492505E-05
5.630575E+03	2.488804E-03	2.494306E-05
5.640540E+03	2.485959E-03	2.495567E-05
5.650506E+03	2.482702E-03	2.496382E-05
5.660471E+03	2.479082E-03	2.496794E-05
5.670437E+03	2.475179E-03	2.496875E-05
5.680403E+03	2.471069E-03	2.496700E-05
5.690368E+03	2.466891E-03	2.496400E-05
5.700334E+03	2.462818E-03	2.496151E-05
5.710299E+03	2.459068E-03	2.496167E-05
5.720265E+03	2.455840E-03	2.496651E-05
5.730231E+03	2.453451E-03	2.497925E-05
5.740196E+03	2.452098E-03	2.500190E-05
5.750162E+03	2.452083E-03	2.503757E-05
5.760128E+03	2.453553E-03	2.508777E-05
5.770093E+03	2.456718E-03	2.515472E-05
5.780059E+03	2.461651E-03	2.523919E-05
5.790024E+03	2.468325E-03	2.534096E-05
5.799990E+03	2.476715E-03	2.545982E-05
5.809956E+03	2.486622E-03	2.559377E-05
5.819921E+03	2.497785E-03	2.574014E-05
5.829887E+03	2.509940E-03	2.589622E-05
5.839853E+03	2.522636E-03	2.605740E-05
5.849818E+03	2.535473E-03	2.621952E-05
5.859784E+03	2.547971E-03	2.637759E-05
5.869749E+03	2.559657E-03	2.652668E-05
5.879715E+03	2.570049E-03	2.666176E-05
5.889681E+03	2.578706E-03	2.677819E-05
5.899646E+03	2.585302E-03	2.687251E-05
5.909612E+03	2.589585E-03	2.694205E-05
5.919577E+03	2.591349E-03	2.698458E-05
5.929543E+03	2.590638E-03	2.700049E-05
5.939509E+03	2.587523E-03	2.699049E-05
5.949474E+03	2.582258E-03	2.695715E-05
5.959440E+03	2.575101E-03	2.690313E-05
5.969406E+03	2.566426E-03	2.683234E-05
5.979371E+03	2.556577E-03	2.674835E-05
5.989337E+03	2.545877E-03	2.665454E-05
5.999302E+03	2.534676E-03	2.655458E-05
6.009268E+03	2.523227E-03	2.645116E-05
6.019234E+03	2.511734E-03	2.634645E-05
6.029199E+03	2.500377E-03	2.624234E-05
6.039165E+03	2.489278E-03	2.614018E-05
6.049130E+03	2.478513E-03	2.604078E-05
6.059096E+03	2.468090E-03	2.594429E-05
6.069062E+03	2.457992E-03	2.585055E-05
6.079027E+03	2.448164E-03	2.575906E-05
6.088993E+03	2.438489E-03	2.566859E-05
6.098959E+03	2.428862E-03	2.557810E-05
6.108924E+03	2.419079E-03	2.548547E-05
6.118890E+03	2.409015E-03	2.538944E-05
6.128855E+03	2.398461E-03	2.528783E-05
6.138821E+03	2.387242E-03	2.517882E-05
6.148787E+03	2.375196E-03	2.506075E-05
6.158752E+03	2.362165E-03	2.493201E-05
6.168718E+03	2.348104E-03	2.479212E-05
6.178684E+03	2.332956E-03	2.464054E-05
6.188649E+03	2.316687E-03	2.447692E-05
6.198615E+03	2.299333E-03	2.430170E-05
6.208580E+03	2.280940E-03	2.411539E-05
6.218546E+03	2.261599E-03	2.391897E-05
6.228512E+03	2.241413E-03	2.371356E-05
6.238477E+03	2.220486E-03	2.350027E-05
6.248443E+03	2.198947E-03	2.328049E-05
6.258408E+03	2.177026E-03	2.305667E-05
6.268374E+03	2.154877E-03	2.283047E-05
6.278340E+03	2.132782E-03	2.260489E-05
6.288305E+03	2.111033E-03	2.238306E-05
6.298271E+03	2.089962E-03	2.216854E-05
6.308237E+03	2.069907E-03	2.196494E-05
6.318202E+03	2.051256E-03	2.177641E-05
6.328168E+03	2.034394E-03	2.160709E-05
6.338133E+03	2.019784E-03	2.146195E-05
6.348099E+03	2.007795E-03	2.134496E-05
6.358065E+03	1.998897E-03	2.126120E-05
6.368030E+03	1.993473E-03	2.121482E-05
6.377996E+03	1.991931E-03	2.121026E-05
6.387962E+03	1.994631E-03	2.125145E-05
6.397927E+03	2.001952E-03	2.134253E-05
6.407893E+03	2.014184E-03	2.148678E-05
6.417858E+03	2.031583E-03	2.168702E-05
6.427824E+03	2.054347E-03	2.194557E-05
6.437790E+03	2.082672E-03	2.226470E-05
6.447755E+03	2.116646E-03	2.264555E-05
6.457721E+03	2.156289E-03	2.308856E-05
6.467686E+03	2.201538E-03	2.359328E-05
6.477652E+03	2.252229E-03	2.415821E-05
6.487618E+03	2.308131E-03	2.478110E-05
6.497583E+03	2.368767E-03	2.545699E-05
6.507549E+03	2.433590E-03	2.618017E-05
6.517515E+03	2.501429E-03	2.693820E-05
6.527480E+03	2.570304E-03	2.770985E-05
6.537446E+03	2.637983E-03	2.847109E-05
6.547411E+03	2.702109E-03	2.919643E-05
6.557377E+03	2.760368E-03	2.986069E-05
6.567343E+03	2.810600E-03	3.044027E-05
6.577308E+03	2.850956E-03	3.091476E-05
6.587274E+03	2.880172E-03	3.127005E-05
6.597240E+03	2.897490E-03	3.149738E-05
6.607205E+03	2.902810E-03	3.159516E-05
6.617171E+03	2.896677E-03	3.156877E-05
6.627136E+03	2.880085E-03	3.142851E-05
6.637102E+03	2.854451E-03	3.118938E-05
6.647068E+03	2.821435E-03	3.086905E-05
6.657033E+03	2.782821E-03	3.048673E-05
6.666999E+03	2.740306E-03	3.006069E-05
6.676964E+03	2.695533E-03	2.960877E-05
6.686930E+03	2.649894E-03	2.914614E-05
6.696896E+03	2.604602E-03	2.868604E-05
6.706861E+03	2.560643E-03	2.823934E-05
6.716827E+03	2.518818E-03	2.781488E-05
6.726793E+03	2.479661E-03	2.741864E-05
6.736758E+03	2.443561E-03	2.705499E-05
6.746724E+03	2.410723E-03	2.672632E-05
6.756689E+03	2.381309E-03	2.643454E-05
6.766655E+03	2.355292E-03	2.617946E-05
6.776621E+03	2.332567E-03	2.596003E-05
6.786586E+03	2.313020E-03	2.577511E-05
6.796552E+03	2.296473E-03	2.562282E-05
6.806518E+03	2.282692E-03	2.550065E-05
6.816483E+03	2.271487E-03	2.540657E-05
6.826449E+03	2.262606E-03	2.533785E-05
6.836414E+03	2.255834E-03	2.529215E-05
6.846380E+03	2.250958E-03	2.526713E-05
6.856346E+03	2.247805E-03	2.526093E-05
6.866311E+03	2.246125E-03	2.527077E-05
6.876277E+03	2.245761E-03	2.529492E-05
6.886242E+03	2.246537E-03	2.533143E-05
6.896208E+03	2.248252E-03	2.537807E-05
6.906174E+03	2.250767E-03	2.543328E-05
6.916139E+03	2.253897E-03	2.549497E-05
6.926105E+03	2.257493E-03	2.556146E-05
6.936071E+03	2.261443E-03	2.563151E-05
6.946036E+03	2.265559E-03	2.570295E-05
6.956002E+03	2.269772E-03	2.577503E-05
6.965967E+03	2.273912E-03	2.584578E-05
6.975933E+03	2.277905E-03	2.591436E-05
6.985899E+03	2.281666E-03	2.597979E-05
6.995864E+03	2.285092E-03	2.604088E-05
7.005830E+03	2.288143E-03	2.609716E-05
7.015796E+03	2.290825E-03	2.614870E-05
7.025761E+03	2.293090E-03	2.619492E-05
7.035727E+03	2.295031E-03	2.623688E-05
7.045692E+03	2.296651E-03	2.627461E-05
7.055658E+03	2.298059E-03	2.630936E-05
7.065624E+03	2.299354E-03	2.634225E-05
7.075589E+03	2.300646E-03	2.637456E-05
7.085555E+03	2.301992E-03	2.640693E-05
7.095520E+03	2.303575E-03	2.644150E-05
7.105486E+03	2.305486E-03	2.647931E-05
7.115452E+03	2.307871E-03	2.652206E-05
7.125417E+03	2.310776E-03	2.657030E-05
7.135383E+03	2.314321E-03	2.662544E-05
7.145349E+03	2.318546E-03	2.668797E-05
7.155314E+03	2.323553E-03	2.675908E-05
7.165280E+03	2.329257E-03	2.683784E-05
7.175245E+03	2.335701E-03	2.692474E-05
7.185211E+03	2.342832E-03	2.701923E-05
7.195177E+03	2.350510E-03	2.711971E-05
7.205142E+03	2.358700E-03	2.722582E-05
7.215108E+03	2.367227E-03	2.733555E-05
7.225073E+03	2.375995E-03	2.744783E-05
7.235039E+03	2.384866E-03	2.756110E-05
7.245005E+03	2.393685E-03	2.767357E-05
7.254970E+03	2.402255E-03	2.778301E-05
7.264936E+03	2.410423E-03	2.788767E-05
7.274902E+03	2.417937E-03	2.798466E-05
7.284867E+03	2.424710E-03	2.807300E-05
7.294833E+03	2.430474E-03	2.814960E-05
7.304798E+03	2.435136E-03	2.821341E-05
7.314764E+03	2.438647E-03	2.826390E-05
7.324730E+03	2.440921E-03	2.830008E-05
7.334695E+03	2.442074E-03	2.832333E-05
7.344661E+03	2.442138E-03	2.833404E-05
7.354627E+03	2.441285E-03	2.833425E-05
7.364592E+03	2.439681E-03	2.832588E-05
7.374558E+03	2.437481E-03	2.831081E-05
7.384523E+03	2.434780E-03	2.829015E-05
7.394489E+03	2.431702E-03	2.826539E-05
7.404455E+03	2.428276E-03	2.823689E-05
7.414420E+03	2.424473E-03	2.820437E-05
7.424386E+03	2.420175E-03	2.816647E-05
7.434351E+03	2.415300E-03	2.812231E-05
7.444317E+03	2.409672E-03	2.806984E-05
7.454283E+03	2.403193E-03	2.800796E-05
7.464248E+03	2.395685E-03	2.793462E-05
7.474214E+03	2.387183E-03	2.785026E-05
7.484180E+03	2.377612E-03	2.775402E-05
7.494145E+03	2.367052E-03	2.764685E-05
7.504111E+03	2.355649E-03	2.753048E-05
7.514076E+03	2.343490E-03	2.740594E-05
7.524042E+03	2.330850E-03	2.727646E-05
7.534008E+03	2.317933E-03	2.714444E-05
7.543973E+03	2.305030E-03	2.701335E-05
7.553939E+03	2.292378E-03	2.688596E-05
7.563905E+03	2.280321E-03	2.676627E-05
7.573870E+03	2.269048E-03	2.665649E-05
7.583836E+03	2.258841E-03	2.655989E-05
7.593801E+03	2.249901E-03	2.647880E-05
7.603767E+03	2.242333E-03	2.641447E-05
7.613733E+03	2.236225E-03	2.636791E-05
7.623698E+03	2.231582E-03	2.633922E-05
7.633664E+03	2.228331E-03	2.632749E-05
7.643629E+03	2.226428E-03	2.633226E-05
7.653595E+03	2.225756E-03	2.635212E-05
7.663561E+03	2.226139E-03	2.638499E-05
7.673526E+03	2.227515E-03	2.643016E-05
7.683492E+03	2.229608E-03	2.648431E-05
7.693458E+03	2.232311E-03	2.654621E-05
7.703423E+03	2.235421E-03	2.661338E-05
7.713389E+03	2.238804E-03	2.668424E-05
7.723354E+03	2.242302E-03	2.675688E-05
7.733320E+03	2.245761E-03	2.682940E-05
