#wls	flux	fluxerr
1.594499E+03	3.917524E-05	1.841339E-06
1.634361E+03	4.042130E-05	1.892804E-06
1.674224E+03	4.161170E-05	1.941051E-06
1.714086E+03	4.272195E-05	1.984953E-06
1.753949E+03	4.376149E-05	2.024971E-06
1.793811E+03	4.466659E-05	2.058191E-06
1.833674E+03	4.541511E-05	2.083660E-06
1.873536E+03	4.592263E-05	2.097598E-06
1.913399E+03	4.615534E-05	2.098606E-06
1.953261E+03	4.605657E-05	2.084282E-06
1.993124E+03	4.563805E-05	2.055363E-06
2.032986E+03	4.502227E-05	2.017552E-06
2.072849E+03	4.448506E-05	1.983284E-06
2.112711E+03	4.442289E-05	1.970092E-06
2.152574E+03	4.521017E-05	1.994154E-06
2.192436E+03	4.703642E-05	2.063153E-06
2.232299E+03	4.979619E-05	2.171691E-06
2.272161E+03	5.325487E-05	2.308840E-06
2.312024E+03	5.709386E-05	2.460268E-06
2.351886E+03	6.110387E-05	2.616639E-06
2.391748E+03	6.510835E-05	2.770227E-06
2.431611E+03	6.904274E-05	2.918229E-06
2.471473E+03	7.287626E-05	3.059335E-06
2.511336E+03	7.658826E-05	3.192694E-06
2.551198E+03	8.020151E-05	3.319277E-06
2.591061E+03	8.372803E-05	3.439595E-06
2.630923E+03	8.716293E-05	3.553451E-06
2.670786E+03	9.051570E-05	3.661244E-06
2.710648E+03	9.379356E-05	3.763268E-06
2.750511E+03	9.701916E-05	3.860428E-06
2.790373E+03	1.001590E-04	3.951383E-06
2.830236E+03	1.032309E-04	4.036847E-06
2.870098E+03	1.062142E-04	4.116025E-06
2.909961E+03	1.091235E-04	4.189503E-06
2.949823E+03	1.119537E-04	4.257100E-06
2.989686E+03	1.146790E-04	4.317878E-06
2.999651E+03	1.153478E-04	4.332158E-06
3.009617E+03	1.160095E-04	4.345993E-06
3.019582E+03	1.166638E-04	4.359378E-06
3.029548E+03	1.173313E-04	4.373077E-06
3.039514E+03	1.179788E-04	4.385852E-06
3.049479E+03	1.186497E-04	4.399318E-06
3.059445E+03	1.193422E-04	4.413405E-06
3.069411E+03	1.200163E-04	4.426624E-06
3.079376E+03	1.207089E-04	4.440337E-06
3.089342E+03	1.214185E-04	4.454485E-06
3.099307E+03	1.221245E-04	4.468310E-06
3.109273E+03	1.228257E-04	4.481767E-06
3.119239E+03	1.235403E-04	4.495517E-06
3.129204E+03	1.242479E-04	4.508816E-06
3.139170E+03	1.249669E-04	4.522331E-06
3.149135E+03	1.256964E-04	4.536026E-06
3.159101E+03	1.264163E-04	4.549172E-06
3.169067E+03	1.271451E-04	4.562439E-06
3.179032E+03	1.278823E-04	4.575799E-06
3.188998E+03	1.286272E-04	4.589225E-06
3.198964E+03	1.293791E-04	4.602695E-06
3.208929E+03	1.301182E-04	4.615497E-06
3.218895E+03	1.308634E-04	4.628304E-06
3.228860E+03	1.316336E-04	4.641782E-06
3.238826E+03	1.323895E-04	4.654540E-06
3.248792E+03	1.331697E-04	4.667930E-06
3.258757E+03	1.339542E-04	4.681251E-06
3.268723E+03	1.347428E-04	4.694489E-06
3.278689E+03	1.355351E-04	4.707629E-06
3.288654E+03	1.363307E-04	4.720659E-06
3.298620E+03	1.371488E-04	4.734235E-06
3.308585E+03	1.379890E-04	4.748336E-06
3.318551E+03	1.388316E-04	4.762280E-06
3.328517E+03	1.396765E-04	4.776057E-06
3.338482E+03	1.405424E-04	4.790312E-06
3.348448E+03	1.414293E-04	4.805029E-06
3.358413E+03	1.423366E-04	4.820183E-06
3.368379E+03	1.432450E-04	4.835112E-06
3.378345E+03	1.441732E-04	4.850449E-06
3.388310E+03	1.451400E-04	4.866813E-06
3.398276E+03	1.461070E-04	4.882909E-06
3.408242E+03	1.471117E-04	4.899984E-06
3.418207E+03	1.481159E-04	4.916756E-06
3.428173E+03	1.491573E-04	4.934468E-06
3.438138E+03	1.502350E-04	4.953084E-06
3.448104E+03	1.513300E-04	4.971964E-06
3.458070E+03	1.524417E-04	4.991076E-06
3.468035E+03	1.535886E-04	5.011025E-06
3.478001E+03	1.547699E-04	5.031765E-06
3.487967E+03	1.559852E-04	5.053276E-06
3.497932E+03	1.572341E-04	5.075527E-06
3.507898E+03	1.584970E-04	5.097878E-06
3.517863E+03	1.598106E-04	5.121500E-06
3.527829E+03	1.611559E-04	5.145762E-06
3.537795E+03	1.625503E-04	5.171214E-06
3.547760E+03	1.639566E-04	5.196650E-06
3.557726E+03	1.654289E-04	5.223779E-06
3.567691E+03	1.669117E-04	5.250828E-06
3.577657E+03	1.684588E-04	5.279479E-06
3.587623E+03	1.700330E-04	5.308544E-06
3.597588E+03	1.716516E-04	5.338554E-06
3.607554E+03	1.733138E-04	5.369463E-06
3.617520E+03	1.750364E-04	5.401780E-06
3.627485E+03	1.767827E-04	5.434344E-06
3.637451E+03	1.785698E-04	5.467677E-06
3.647416E+03	1.804144E-04	5.502268E-06
3.657382E+03	1.823153E-04	5.538058E-06
3.667348E+03	1.842363E-04	5.573932E-06
3.677313E+03	1.862290E-04	5.611439E-06
3.687279E+03	1.882572E-04	5.649461E-06
3.697245E+03	1.903375E-04	5.688480E-06
3.707210E+03	1.924685E-04	5.728437E-06
3.717176E+03	1.946492E-04	5.769278E-06
3.727141E+03	1.968783E-04	5.810951E-06
3.737107E+03	1.991717E-04	5.853900E-06
3.747073E+03	2.015110E-04	5.897563E-06
3.757038E+03	2.038951E-04	5.941890E-06
3.767004E+03	2.063398E-04	5.987318E-06
3.776969E+03	2.088432E-04	6.033777E-06
3.786935E+03	2.114044E-04	6.081211E-06
3.796901E+03	2.140053E-04	6.129080E-06
3.806866E+03	2.166774E-04	6.178268E-06
3.816832E+03	2.194029E-04	6.228243E-06
3.826798E+03	2.221964E-04	6.279395E-06
3.836763E+03	2.250401E-04	6.331198E-06
3.846729E+03	2.279482E-04	6.384028E-06
3.856694E+03	2.309030E-04	6.437369E-06
3.866660E+03	2.339342E-04	6.492024E-06
3.876626E+03	2.370072E-04	6.547011E-06
3.886591E+03	2.401511E-04	6.603115E-06
3.896557E+03	2.433622E-04	6.660202E-06
3.906522E+03	2.466206E-04	6.717709E-06
3.916488E+03	2.499371E-04	6.775911E-06
3.926454E+03	2.532909E-04	6.834220E-06
3.936419E+03	2.567061E-04	6.893274E-06
3.946385E+03	2.601606E-04	6.952457E-06
3.956351E+03	2.636469E-04	7.011558E-06
3.966316E+03	2.671726E-04	7.070763E-06
3.976282E+03	2.707307E-04	7.129876E-06
3.986247E+03	2.743146E-04	7.188710E-06
3.996213E+03	2.779042E-04	7.246736E-06
4.006179E+03	2.815249E-04	7.304612E-06
4.016144E+03	2.851592E-04	7.361874E-06
4.026110E+03	2.888200E-04	7.418852E-06
4.036076E+03	2.924925E-04	7.475160E-06
4.046041E+03	2.962063E-04	7.531547E-06
4.056007E+03	2.999350E-04	7.587331E-06
4.065972E+03	3.037098E-04	7.643300E-06
4.075938E+03	3.075215E-04	7.699204E-06
4.085904E+03	3.113904E-04	7.755541E-06
4.095869E+03	3.153109E-04	7.812150E-06
4.105835E+03	3.193200E-04	7.869931E-06
4.115800E+03	3.234026E-04	7.928483E-06
4.125766E+03	3.275995E-04	7.988775E-06
4.135732E+03	3.319131E-04	8.050829E-06
4.145697E+03	3.363609E-04	8.115025E-06
4.155663E+03	3.409748E-04	8.182083E-06
4.165629E+03	3.457744E-04	8.252410E-06
4.175594E+03	3.507797E-04	8.326421E-06
4.185560E+03	3.560111E-04	8.404518E-06
4.195525E+03	3.614881E-04	8.487087E-06
4.205491E+03	3.672300E-04	8.574484E-06
4.215457E+03	3.732675E-04	8.667332E-06
4.225422E+03	3.796048E-04	8.765624E-06
4.235388E+03	3.862704E-04	8.869909E-06
4.245354E+03	3.932540E-04	8.979833E-06
4.255319E+03	4.006054E-04	9.096421E-06
4.265285E+03	4.083112E-04	9.219239E-06
4.275250E+03	4.163925E-04	9.348641E-06
4.285216E+03	4.248431E-04	9.484360E-06
4.295182E+03	4.336789E-04	9.626623E-06
4.305147E+03	4.428886E-04	9.775053E-06
4.315113E+03	4.524703E-04	9.929484E-06
4.325078E+03	4.624327E-04	1.008999E-05
4.335044E+03	4.727584E-04	1.025606E-05
4.345010E+03	4.834300E-04	1.042721E-05
4.354975E+03	4.944685E-04	1.060379E-05
4.364941E+03	5.058476E-04	1.078513E-05
4.374907E+03	5.175703E-04	1.097119E-05
4.384872E+03	5.296447E-04	1.116204E-05
4.394838E+03	5.420851E-04	1.135788E-05
4.404803E+03	5.548987E-04	1.155876E-05
4.414769E+03	5.681116E-04	1.176513E-05
4.424735E+03	5.817409E-04	1.197722E-05
4.434700E+03	5.958332E-04	1.219588E-05
4.444666E+03	6.103991E-04	1.242120E-05
4.454632E+03	6.254890E-04	1.265407E-05
4.464597E+03	6.411145E-04	1.289459E-05
4.474563E+03	6.573126E-04	1.314336E-05
4.484528E+03	6.741174E-04	1.340091E-05
4.494494E+03	6.915470E-04	1.366743E-05
4.504460E+03	7.096268E-04	1.394328E-05
4.514425E+03	7.283628E-04	1.422841E-05
4.524391E+03	7.477523E-04	1.452260E-05
4.534356E+03	7.677971E-04	1.482575E-05
4.544322E+03	7.884757E-04	1.513730E-05
4.554288E+03	8.097703E-04	1.545677E-05
4.564253E+03	8.316258E-04	1.578299E-05
4.574219E+03	8.540198E-04	1.611546E-05
4.584185E+03	8.768788E-04	1.645268E-05
4.594150E+03	9.001499E-04	1.679361E-05
4.604116E+03	9.237589E-04	1.713679E-05
4.614081E+03	9.476254E-04	1.748072E-05
4.624047E+03	9.716641E-04	1.782384E-05
4.634013E+03	9.958011E-04	1.816481E-05
4.643978E+03	1.019945E-03	1.850203E-05
4.653944E+03	1.044002E-03	1.883390E-05
4.663910E+03	1.067881E-03	1.915887E-05
4.673875E+03	1.091508E-03	1.947576E-05
4.683841E+03	1.114798E-03	1.978320E-05
4.693806E+03	1.137670E-03	2.007997E-05
4.703772E+03	1.160052E-03	2.036499E-05
4.713738E+03	1.181895E-03	2.063763E-05
4.723703E+03	1.203127E-03	2.089687E-05
4.733669E+03	1.223732E-03	2.114266E-05
4.743634E+03	1.243633E-03	2.137393E-05
4.753600E+03	1.262838E-03	2.159112E-05
4.763566E+03	1.281275E-03	2.179321E-05
4.773531E+03	1.298932E-03	2.198031E-05
4.783497E+03	1.315744E-03	2.215157E-05
4.793463E+03	1.331672E-03	2.230664E-05
4.803428E+03	1.346655E-03	2.244480E-05
4.813394E+03	1.360645E-03	2.256554E-05
4.823359E+03	1.373592E-03	2.266835E-05
4.833325E+03	1.385410E-03	2.275212E-05
4.843291E+03	1.396048E-03	2.281636E-05
4.853256E+03	1.405475E-03	2.286089E-05
4.863222E+03	1.413614E-03	2.288478E-05
4.873188E+03	1.420425E-03	2.288774E-05
4.883153E+03	1.425892E-03	2.286985E-05
4.893119E+03	1.429974E-03	2.283079E-05
4.903084E+03	1.432637E-03	2.277036E-05
4.913050E+03	1.433910E-03	2.268933E-05
4.923016E+03	1.433751E-03	2.258735E-05
4.932981E+03	1.432231E-03	2.246580E-05
4.942947E+03	1.429356E-03	2.232500E-05
4.952912E+03	1.425211E-03	2.216652E-05
4.962878E+03	1.419832E-03	2.199114E-05
4.972844E+03	1.413320E-03	2.180059E-05
4.982809E+03	1.405773E-03	2.159655E-05
4.992775E+03	1.397316E-03	2.138107E-05
5.002741E+03	1.388051E-03	2.115583E-05
5.012706E+03	1.378135E-03	2.092329E-05
5.022672E+03	1.367681E-03	2.068524E-05
5.032637E+03	1.356840E-03	2.044397E-05
5.042603E+03	1.345745E-03	2.020151E-05
5.052569E+03	1.334547E-03	1.996010E-05
5.062534E+03	1.323382E-03	1.972173E-05
5.072500E+03	1.312383E-03	1.948830E-05
5.082465E+03	1.301705E-03	1.926205E-05
5.092431E+03	1.291471E-03	1.904470E-05
5.102397E+03	1.281798E-03	1.883783E-05
5.112362E+03	1.272792E-03	1.864290E-05
5.122328E+03	1.264593E-03	1.846178E-05
5.132294E+03	1.257260E-03	1.829521E-05
5.142259E+03	1.250909E-03	1.814471E-05
5.152225E+03	1.245590E-03	1.801082E-05
5.162190E+03	1.241366E-03	1.789431E-05
5.172156E+03	1.238287E-03	1.779570E-05
5.182122E+03	1.236389E-03	1.771537E-05
5.192087E+03	1.235682E-03	1.765329E-05
5.202053E+03	1.236177E-03	1.760945E-05
5.212019E+03	1.237874E-03	1.758371E-05
5.221984E+03	1.240751E-03	1.757562E-05
5.231950E+03	1.244804E-03	1.758495E-05
5.241915E+03	1.249980E-03	1.761087E-05
5.251881E+03	1.256260E-03	1.765299E-05
5.261847E+03	1.263608E-03	1.771067E-05
5.271812E+03	1.271964E-03	1.778302E-05
5.281778E+03	1.281282E-03	1.786928E-05
5.291743E+03	1.291494E-03	1.796845E-05
5.301709E+03	1.302557E-03	1.807985E-05
5.311675E+03	1.314394E-03	1.820240E-05
5.321640E+03	1.326942E-03	1.833518E-05
5.331606E+03	1.340134E-03	1.847722E-05
5.341572E+03	1.353887E-03	1.862740E-05
5.351537E+03	1.368132E-03	1.878473E-05
5.361503E+03	1.382798E-03	1.894828E-05
5.371468E+03	1.397819E-03	1.911714E-05
5.381434E+03	1.413113E-03	1.929022E-05
5.391400E+03	1.428602E-03	1.946649E-05
5.401365E+03	1.444255E-03	1.964559E-05
5.411331E+03	1.459975E-03	1.982622E-05
5.421297E+03	1.475741E-03	2.000817E-05
5.431262E+03	1.491480E-03	2.019052E-05
5.441228E+03	1.507172E-03	2.037304E-05
5.451193E+03	1.522769E-03	2.055516E-05
5.461159E+03	1.538213E-03	2.073618E-05
5.471125E+03	1.553508E-03	2.091621E-05
5.481090E+03	1.568593E-03	2.109453E-05
5.491056E+03	1.583421E-03	2.127055E-05
5.501021E+03	1.597953E-03	2.144384E-05
5.510987E+03	1.612113E-03	2.161347E-05
5.520953E+03	1.625871E-03	2.177904E-05
5.530918E+03	1.639147E-03	2.193948E-05
5.540884E+03	1.651898E-03	2.209419E-05
5.550850E+03	1.664047E-03	2.224216E-05
5.560815E+03	1.675547E-03	2.238270E-05
5.570781E+03	1.686371E-03	2.251546E-05
5.580746E+03	1.696473E-03	2.263980E-05
5.590712E+03	1.705834E-03	2.275542E-05
5.600678E+03	1.714425E-03	2.286192E-05
5.610643E+03	1.722264E-03	2.295949E-05
5.620609E+03	1.729323E-03	2.304774E-05
5.630575E+03	1.735636E-03	2.312706E-05
5.640540E+03	1.741202E-03	2.319741E-05
5.650506E+03	1.746052E-03	2.325914E-05
5.660471E+03	1.750201E-03	2.331241E-05
5.670437E+03	1.753676E-03	2.335753E-05
5.680403E+03	1.756544E-03	2.339534E-05
5.690368E+03	1.758837E-03	2.342622E-05
5.700334E+03	1.760635E-03	2.345117E-05
5.710299E+03	1.762029E-03	2.347137E-05
5.720265E+03	1.763091E-03	2.348772E-05
5.730231E+03	1.763951E-03	2.350190E-05
5.740196E+03	1.764697E-03	2.351503E-05
5.750162E+03	1.765446E-03	2.352864E-05
5.760128E+03	1.766316E-03	2.354426E-05
5.770093E+03	1.767366E-03	2.356263E-05
5.780059E+03	1.768722E-03	2.358538E-05
5.790024E+03	1.770415E-03	2.361290E-05
5.799990E+03	1.772519E-03	2.364615E-05
5.809956E+03	1.775041E-03	2.368520E-05
5.819921E+03	1.777982E-03	2.373002E-05
5.829887E+03	1.781334E-03	2.378049E-05
5.839853E+03	1.785058E-03	2.383605E-05
5.849818E+03	1.789093E-03	2.389589E-05
5.859784E+03	1.793348E-03	2.395876E-05
5.869749E+03	1.797767E-03	2.402389E-05
5.879715E+03	1.802236E-03	2.408975E-05
5.889681E+03	1.806659E-03	2.415504E-05
5.899646E+03	1.810920E-03	2.421818E-05
5.909612E+03	1.814957E-03	2.427835E-05
5.919577E+03	1.818671E-03	2.433420E-05
5.929543E+03	1.821999E-03	2.438486E-05
5.939509E+03	1.824887E-03	2.442963E-05
5.949474E+03	1.827302E-03	2.446805E-05
5.959440E+03	1.829227E-03	2.449987E-05
5.969406E+03	1.830644E-03	2.452486E-05
5.979371E+03	1.831563E-03	2.454315E-05
5.989337E+03	1.832034E-03	2.455540E-05
5.999302E+03	1.832033E-03	2.456131E-05
6.009268E+03	1.831618E-03	2.456167E-05
6.019234E+03	1.830808E-03	2.455671E-05
6.029199E+03	1.829630E-03	2.454684E-05
6.039165E+03	1.828097E-03	2.453222E-05
6.049130E+03	1.826263E-03	2.451361E-05
6.059096E+03	1.824129E-03	2.449103E-05
6.069062E+03	1.821695E-03	2.446450E-05
6.079027E+03	1.818979E-03	2.443429E-05
6.088993E+03	1.815981E-03	2.440042E-05
6.098959E+03	1.812697E-03	2.436287E-05
6.108924E+03	1.809102E-03	2.432131E-05
6.118890E+03	1.805225E-03	2.427618E-05
6.128855E+03	1.801004E-03	2.422668E-05
6.138821E+03	1.796466E-03	2.417317E-05
6.148787E+03	1.791579E-03	2.411530E-05
6.158752E+03	1.786345E-03	2.405308E-05
6.168718E+03	1.780766E-03	2.398660E-05
6.178684E+03	1.774851E-03	2.391601E-05
6.188649E+03	1.768613E-03	2.384153E-05
6.198615E+03	1.762058E-03	2.376325E-05
6.208580E+03	1.755231E-03	2.368184E-05
6.218546E+03	1.748159E-03	2.359767E-05
6.228512E+03	1.740860E-03	2.351104E-05
6.238477E+03	1.733406E-03	2.342294E-05
6.248443E+03	1.725804E-03	2.333350E-05
6.258408E+03	1.718109E-03	2.324350E-05
6.268374E+03	1.710381E-03	2.315378E-05
6.278340E+03	1.702651E-03	2.306481E-05
6.288305E+03	1.695003E-03	2.297773E-05
6.298271E+03	1.687504E-03	2.289354E-05
6.308237E+03	1.680203E-03	2.281292E-05
6.318202E+03	1.673190E-03	2.273713E-05
6.328168E+03	1.666534E-03	2.266717E-05
6.338133E+03	1.660312E-03	2.260414E-05
6.348099E+03	1.654607E-03	2.254923E-05
6.358065E+03	1.649495E-03	2.250352E-05
6.368030E+03	1.645035E-03	2.246790E-05
6.377996E+03	1.641280E-03	2.244317E-05
6.387962E+03	1.638319E-03	2.243062E-05
6.397927E+03	1.636177E-03	2.243067E-05
6.407893E+03	1.634883E-03	2.244382E-05
6.417858E+03	1.634488E-03	2.247086E-05
6.427824E+03	1.634981E-03	2.251178E-05
6.437790E+03	1.636379E-03	2.256687E-05
6.447755E+03	1.638675E-03	2.263619E-05
6.457721E+03	1.641825E-03	2.271922E-05
6.467686E+03	1.645783E-03	2.281547E-05
6.477652E+03	1.650468E-03	2.292393E-05
6.487618E+03	1.655835E-03	2.304400E-05
6.497583E+03	1.661739E-03	2.317370E-05
6.507549E+03	1.668088E-03	2.331174E-05
6.517515E+03	1.674726E-03	2.345590E-05
6.527480E+03	1.681534E-03	2.360453E-05
6.537446E+03	1.688335E-03	2.375510E-05
6.547411E+03	1.694967E-03	2.390529E-05
6.557377E+03	1.701287E-03	2.405298E-05
6.567343E+03	1.707134E-03	2.419584E-05
6.577308E+03	1.712366E-03	2.433174E-05
6.587274E+03	1.716869E-03	2.445893E-05
6.597240E+03	1.720495E-03	2.457518E-05
6.607205E+03	1.723173E-03	2.467930E-05
6.617171E+03	1.724849E-03	2.477036E-05
6.627136E+03	1.725470E-03	2.484739E-05
6.637102E+03	1.725038E-03	2.491027E-05
6.647068E+03	1.723548E-03	2.495871E-05
6.657033E+03	1.721025E-03	2.499290E-05
6.666999E+03	1.717569E-03	2.501408E-05
6.676964E+03	1.713263E-03	2.502331E-05
6.686930E+03	1.708179E-03	2.502146E-05
6.696896E+03	1.702451E-03	2.501032E-05
6.706861E+03	1.696198E-03	2.499152E-05
6.716827E+03	1.689533E-03	2.496659E-05
6.726793E+03	1.682612E-03	2.493772E-05
6.736758E+03	1.675502E-03	2.490584E-05
6.746724E+03	1.668345E-03	2.487297E-05
6.756689E+03	1.661234E-03	2.484045E-05
6.766655E+03	1.654215E-03	2.480891E-05
6.776621E+03	1.647372E-03	2.477957E-05
6.786586E+03	1.640755E-03	2.475318E-05
6.796552E+03	1.634402E-03	2.473028E-05
6.806518E+03	1.628323E-03	2.471102E-05
6.816483E+03	1.622554E-03	2.469594E-05
6.826449E+03	1.617088E-03	2.468495E-05
6.836414E+03	1.611933E-03	2.467816E-05
6.846380E+03	1.607091E-03	2.467560E-05
6.856346E+03	1.602546E-03	2.467703E-05
6.866311E+03	1.598330E-03	2.468296E-05
6.876277E+03	1.594387E-03	2.469255E-05
6.886242E+03	1.590767E-03	2.470653E-05
6.896208E+03	1.587412E-03	2.472406E-05
6.906174E+03	1.584337E-03	2.474534E-05
6.916139E+03	1.581554E-03	2.477060E-05
6.926105E+03	1.579027E-03	2.479928E-05
6.936071E+03	1.576774E-03	2.483166E-05
6.946036E+03	1.574779E-03	2.486751E-05
6.956002E+03	1.573063E-03	2.490716E-05
6.965967E+03	1.571614E-03	2.495045E-05
6.975933E+03	1.570439E-03	2.499748E-05
6.985899E+03	1.569545E-03	2.504839E-05
6.995864E+03	1.568941E-03	2.510336E-05
7.005830E+03	1.568622E-03	2.516230E-05
7.015796E+03	1.568620E-03	2.522573E-05
7.025761E+03	1.568949E-03	2.529395E-05
7.035727E+03	1.569614E-03	2.536702E-05
7.045692E+03	1.570637E-03	2.544534E-05
7.055658E+03	1.572046E-03	2.552938E-05
7.065624E+03	1.573871E-03	2.561966E-05
7.075589E+03	1.576142E-03	2.571673E-05
7.085555E+03	1.578894E-03	2.582116E-05
7.095520E+03	1.582140E-03	2.593325E-05
7.105486E+03	1.585932E-03	2.605386E-05
7.115452E+03	1.590278E-03	2.618318E-05
7.125417E+03	1.595202E-03	2.632167E-05
7.135383E+03	1.600721E-03	2.646964E-05
7.145349E+03	1.606863E-03	2.662762E-05
7.155314E+03	1.613588E-03	2.679500E-05
7.165280E+03	1.620901E-03	2.697190E-05
7.175245E+03	1.628755E-03	2.715760E-05
7.185211E+03	1.637127E-03	2.735176E-05
7.195177E+03	1.645941E-03	2.755314E-05
7.205142E+03	1.655146E-03	2.776092E-05
7.215108E+03	1.664621E-03	2.797309E-05
7.225073E+03	1.674313E-03	2.818878E-05
7.235039E+03	1.684083E-03	2.840565E-05
7.245005E+03	1.693845E-03	2.862226E-05
7.254970E+03	1.703490E-03	2.883676E-05
7.264936E+03	1.712887E-03	2.904690E-05
7.274902E+03	1.721923E-03	2.925075E-05
7.284867E+03	1.730510E-03	2.944675E-05
7.294833E+03	1.738498E-03	2.963232E-05
7.304798E+03	1.745810E-03	2.980610E-05
7.314764E+03	1.752361E-03	2.996658E-05
7.324730E+03	1.758056E-03	3.011207E-05
7.334695E+03	1.762863E-03	3.024196E-05
7.344661E+03	1.766726E-03	3.035523E-05
7.354627E+03	1.769629E-03	3.045152E-05
7.364592E+03	1.771551E-03	3.053043E-05
7.374558E+03	1.772555E-03	3.059297E-05
7.384523E+03	1.772629E-03	3.063889E-05
7.394489E+03	1.771838E-03	3.066924E-05
7.404455E+03	1.770204E-03	3.068440E-05
7.414420E+03	1.767779E-03	3.068519E-05
7.424386E+03	1.764618E-03	3.067256E-05
7.434351E+03	1.760772E-03	3.064734E-05
7.444317E+03	1.756314E-03	3.061079E-05
7.454283E+03	1.751274E-03	3.056343E-05
7.464248E+03	1.745680E-03	3.050572E-05
7.474214E+03	1.739630E-03	3.043939E-05
7.484180E+03	1.733179E-03	3.036537E-05
7.494145E+03	1.726362E-03	3.028426E-05
7.504111E+03	1.719237E-03	3.019714E-05
7.514076E+03	1.711913E-03	3.010588E-05
7.524042E+03	1.704411E-03	3.001090E-05
7.534008E+03	1.696844E-03	2.991420E-05
7.543973E+03	1.689263E-03	2.981668E-05
7.553939E+03	1.681761E-03	2.972005E-05
7.563905E+03	1.674410E-03	2.962560E-05
7.573870E+03	1.667255E-03	2.953417E-05
7.583836E+03	1.660403E-03	2.944764E-05
7.593801E+03	1.653904E-03	2.936690E-05
7.603767E+03	1.647778E-03	2.929232E-05
7.613733E+03	1.642076E-03	2.922481E-05
7.623698E+03	1.636791E-03	2.916428E-05
7.633664E+03	1.631974E-03	2.911162E-05
7.643629E+03	1.627619E-03	2.906675E-05
7.653595E+03	1.623668E-03	2.902863E-05
7.663561E+03	1.620163E-03	2.899806E-05
7.673526E+03	1.617031E-03	2.897373E-05
7.683492E+03	1.614263E-03	2.895547E-05
7.693458E+03	1.611799E-03	2.894222E-05
7.703423E+03	1.609667E-03	2.893452E-05
7.713389E+03	1.607765E-03	2.893049E-05
7.723354E+03	1.606098E-03	2.893027E-05
7.733320E+03	1.604609E-03	2.893280E-05
