#wls	flux	fluxerr
1.600000E+03	4.084666E-17	1.963332E-18
1.640000E+03	3.973318E-17	1.905834E-18
1.680000E+03	3.868335E-17	1.851506E-18
1.720000E+03	3.771651E-17	1.801258E-18
1.760000E+03	3.683713E-17	1.755283E-18
1.800000E+03	3.607141E-17	1.714803E-18
1.840000E+03	3.542387E-17	1.679999E-18
1.880000E+03	3.491313E-17	1.651715E-18
1.920000E+03	3.455082E-17	1.630455E-18
1.960000E+03	3.435537E-17	1.617033E-18
2.000000E+03	3.433208E-17	1.611638E-18
2.040000E+03	3.449982E-17	1.615086E-18
2.080000E+03	3.487103E-17	1.627882E-18
2.120000E+03	3.546502E-17	1.650837E-18
2.160000E+03	3.629450E-17	1.684444E-18
2.200000E+03	3.736468E-17	1.728836E-18
2.240000E+03	3.870027E-17	1.785039E-18
2.280000E+03	4.029555E-17	1.852658E-18
2.320000E+03	4.216980E-17	1.932443E-18
2.360000E+03	4.432308E-17	2.024246E-18
2.400000E+03	4.673166E-17	2.126833E-18
2.440000E+03	4.940358E-17	2.240418E-18
2.480000E+03	5.229601E-17	2.362904E-18
2.520000E+03	5.537210E-17	2.492487E-18
2.560000E+03	5.859657E-17	2.627453E-18
2.600000E+03	6.193086E-17	2.765962E-18
2.640000E+03	6.530563E-17	2.904829E-18
2.680000E+03	6.868643E-17	3.042460E-18
2.720000E+03	7.204943E-17	3.177756E-18
2.760000E+03	7.537231E-17	3.309702E-18
2.800000E+03	7.863358E-17	3.437336E-18
2.840000E+03	8.187196E-17	3.562334E-18
2.880000E+03	8.510289E-17	3.685333E-18
2.920000E+03	8.835120E-17	3.807360E-18
2.960000E+03	9.168806E-17	3.931409E-18
3.000000E+03	9.516753E-17	4.059681E-18
3.010000E+03	9.606141E-17	4.092465E-18
3.020000E+03	9.698336E-17	4.126317E-18
3.030000E+03	9.790832E-17	4.160165E-18
3.040000E+03	9.886300E-17	4.195143E-18
3.050000E+03	9.983544E-17	4.230737E-18
3.060000E+03	1.008265E-16	4.266979E-18
3.070000E+03	1.018369E-16	4.303899E-18
3.080000E+03	1.028810E-16	4.342093E-18
3.090000E+03	1.039332E-16	4.380478E-18
3.100000E+03	1.050343E-16	4.420772E-18
3.110000E+03	1.061455E-16	4.461327E-18
3.120000E+03	1.072943E-16	4.503303E-18
3.130000E+03	1.084820E-16	4.546741E-18
3.140000E+03	1.096961E-16	4.591114E-18
3.150000E+03	1.109513E-16	4.637026E-18
3.160000E+03	1.122487E-16	4.684517E-18
3.170000E+03	1.135758E-16	4.733054E-18
3.180000E+03	1.149610E-16	4.783820E-18
3.190000E+03	1.163784E-16	4.835716E-18
3.200000E+03	1.178424E-16	4.889343E-18
3.210000E+03	1.193684E-16	4.945324E-18
3.220000E+03	1.209438E-16	5.003125E-18
3.230000E+03	1.225558E-16	5.062208E-18
3.240000E+03	1.242475E-16	5.124341E-18
3.250000E+03	1.259924E-16	5.188413E-18
3.260000E+03	1.277915E-16	5.254463E-18
3.270000E+03	1.296603E-16	5.323103E-18
3.280000E+03	1.316001E-16	5.394380E-18
3.290000E+03	1.335978E-16	5.467745E-18
3.300000E+03	1.356689E-16	5.543810E-18
3.310000E+03	1.378291E-16	5.623204E-18
3.320000E+03	1.400652E-16	5.705369E-18
3.330000E+03	1.423637E-16	5.789738E-18
3.340000E+03	1.447693E-16	5.878115E-18
3.350000E+03	1.472539E-16	5.969334E-18
3.360000E+03	1.498180E-16	6.063400E-18
3.370000E+03	1.524771E-16	6.160922E-18
3.380000E+03	1.552319E-16	6.261904E-18
3.390000E+03	1.580825E-16	6.366333E-18
3.400000E+03	1.610290E-16	6.474185E-18
3.410000E+03	1.640710E-16	6.585423E-18
3.420000E+03	1.672231E-16	6.700616E-18
3.430000E+03	1.704687E-16	6.819066E-18
3.440000E+03	1.738216E-16	6.941310E-18
3.450000E+03	1.772637E-16	7.066597E-18
3.460000E+03	1.808231E-16	7.196024E-18
3.470000E+03	1.844803E-16	7.328788E-18
3.480000E+03	1.882136E-16	7.464009E-18
3.490000E+03	1.920620E-16	7.603207E-18
3.500000E+03	1.959829E-16	7.744671E-18
3.510000E+03	1.999631E-16	7.887864E-18
3.520000E+03	2.040041E-16	8.032826E-18
3.530000E+03	2.081051E-16	8.179514E-18
3.540000E+03	2.122144E-16	8.325877E-18
3.550000E+03	2.163426E-16	8.472328E-18
3.560000E+03	2.204488E-16	8.617263E-18
3.570000E+03	2.245226E-16	8.760271E-18
3.580000E+03	2.285339E-16	8.900187E-18
3.590000E+03	2.324343E-16	9.035137E-18
3.600000E+03	2.362222E-16	9.165081E-18
3.610000E+03	2.398449E-16	9.288001E-18
3.620000E+03	2.432822E-16	9.403144E-18
3.630000E+03	2.464808E-16	9.508499E-18
3.640000E+03	2.494228E-16	9.603423E-18
3.650000E+03	2.520621E-16	9.686194E-18
3.660000E+03	2.544075E-16	9.757227E-18
3.670000E+03	2.564308E-16	9.815495E-18
3.680000E+03	2.581488E-16	9.861717E-18
3.690000E+03	2.595649E-16	9.896090E-18
3.700000E+03	2.607339E-16	9.920766E-18
3.710000E+03	2.617034E-16	9.937605E-18
3.720000E+03	2.625897E-16	9.951064E-18
3.730000E+03	2.634883E-16	9.964769E-18
3.740000E+03	2.645322E-16	9.983743E-18
3.750000E+03	2.658749E-16	1.001372E-17
3.760000E+03	2.676993E-16	1.006151E-17
3.770000E+03	2.701866E-16	1.013380E-17
3.780000E+03	2.735116E-16	1.023698E-17
3.790000E+03	2.778932E-16	1.037900E-17
3.800000E+03	2.834938E-16	1.056567E-17
3.810000E+03	2.905232E-16	1.080451E-17
3.820000E+03	2.991387E-16	1.110099E-17
3.830000E+03	3.095061E-16	1.146088E-17
3.840000E+03	3.217384E-16	1.188790E-17
3.850000E+03	3.359266E-16	1.238497E-17
3.860000E+03	3.521314E-16	1.295382E-17
3.870000E+03	3.703429E-16	1.359358E-17
3.880000E+03	3.904823E-16	1.430087E-17
3.890000E+03	4.123744E-16	1.506877E-17
3.900000E+03	4.357864E-16	1.588837E-17
3.910000E+03	4.603938E-16	1.674746E-17
3.920000E+03	4.857276E-16	1.762869E-17
3.930000E+03	5.112860E-16	1.851370E-17
3.940000E+03	5.365021E-16	1.938192E-17
3.950000E+03	5.607094E-16	2.020940E-17
3.960000E+03	5.832864E-16	2.097402E-17
3.970000E+03	6.036170E-16	2.165407E-17
3.980000E+03	6.211659E-16	2.223095E-17
3.990000E+03	6.354306E-16	2.268740E-17
4.000000E+03	6.460711E-16	2.301214E-17
4.010000E+03	6.529291E-16	2.320047E-17
4.020000E+03	6.559145E-16	2.325017E-17
4.030000E+03	6.551266E-16	2.316573E-17
4.040000E+03	6.508201E-16	2.295712E-17
4.050000E+03	6.433461E-16	2.263762E-17
4.060000E+03	6.331116E-16	2.222233E-17
4.070000E+03	6.206427E-16	2.173042E-17
4.080000E+03	6.064815E-16	2.118142E-17
4.090000E+03	5.911611E-16	2.059434E-17
4.100000E+03	5.752154E-16	1.998807E-17
4.110000E+03	5.591563E-16	1.938052E-17
4.120000E+03	5.434014E-16	1.878619E-17
4.130000E+03	5.283390E-16	1.821838E-17
4.140000E+03	5.142917E-16	1.768803E-17
4.150000E+03	5.015275E-16	1.720407E-17
4.160000E+03	4.902030E-16	1.677152E-17
4.170000E+03	4.804645E-16	1.639499E-17
4.180000E+03	4.723917E-16	1.607679E-17
4.190000E+03	4.660072E-16	1.581722E-17
4.200000E+03	4.613047E-16	1.561563E-17
4.210000E+03	4.582254E-16	1.546957E-17
4.220000E+03	4.567138E-16	1.537673E-17
4.230000E+03	4.566836E-16	1.533380E-17
4.240000E+03	4.580149E-16	1.533633E-17
4.250000E+03	4.605868E-16	1.537993E-17
4.260000E+03	4.642900E-16	1.546061E-17
4.270000E+03	4.689936E-16	1.557371E-17
4.280000E+03	4.745666E-16	1.571460E-17
4.290000E+03	4.808798E-16	1.587878E-17
4.300000E+03	4.878091E-16	1.606194E-17
4.310000E+03	4.952543E-16	1.626062E-17
4.320000E+03	5.030978E-16	1.647083E-17
4.330000E+03	5.112409E-16	1.668921E-17
4.340000E+03	5.195961E-16	1.691285E-17
4.350000E+03	5.281045E-16	1.713975E-17
4.360000E+03	5.366807E-16	1.736711E-17
4.370000E+03	5.453587E-16	1.759599E-17
4.380000E+03	5.544536E-16	1.783651E-17
4.390000E+03	5.643197E-16	1.809990E-17
4.400000E+03	5.753647E-16	1.839898E-17
4.410000E+03	5.879498E-16	1.874491E-17
4.420000E+03	6.024433E-16	1.914895E-17
4.430000E+03	6.192117E-16	1.962215E-17
4.440000E+03	6.385712E-16	2.017384E-17
4.450000E+03	6.607942E-16	2.081183E-17
4.460000E+03	6.861057E-16	2.154234E-17
4.470000E+03	7.146476E-16	2.236890E-17
4.480000E+03	7.464707E-16	2.329212E-17
4.490000E+03	7.815494E-16	2.431024E-17
4.500000E+03	8.196988E-16	2.541652E-17
4.510000E+03	8.605863E-16	2.659977E-17
4.520000E+03	9.037427E-16	2.784470E-17
4.530000E+03	9.485190E-16	2.913067E-17
4.540000E+03	9.940998E-16	3.043221E-17
4.550000E+03	1.039518E-15	3.171954E-17
4.560000E+03	1.083684E-15	3.295952E-17
4.570000E+03	1.125444E-15	3.411757E-17
4.580000E+03	1.163601E-15	3.515816E-17
4.590000E+03	1.197055E-15	3.604923E-17
4.600000E+03	1.224792E-15	3.676173E-17
4.610000E+03	1.245995E-15	3.727289E-17
4.620000E+03	1.260174E-15	3.757012E-17
4.630000E+03	1.267059E-15	3.764748E-17
4.640000E+03	1.266748E-15	3.751007E-17
4.650000E+03	1.259627E-15	3.717146E-17
4.660000E+03	1.246351E-15	3.665302E-17
4.670000E+03	1.227807E-15	3.598258E-17
4.680000E+03	1.204994E-15	3.519098E-17
4.690000E+03	1.178999E-15	3.431114E-17
4.700000E+03	1.150934E-15	3.337635E-17
4.710000E+03	1.121831E-15	3.241706E-17
4.720000E+03	1.092660E-15	3.146152E-17
4.730000E+03	1.064240E-15	3.053332E-17
4.740000E+03	1.037264E-15	2.965201E-17
4.750000E+03	1.012324E-15	2.883405E-17
4.760000E+03	9.898358E-16	2.809062E-17
4.770000E+03	9.701321E-16	2.743037E-17
4.780000E+03	9.534269E-16	2.685848E-17
4.790000E+03	9.398419E-16	2.637743E-17
4.800000E+03	9.294276E-16	2.598768E-17
4.810000E+03	9.221395E-16	2.568699E-17
4.820000E+03	9.178993E-16	2.547220E-17
4.830000E+03	9.165551E-16	2.533817E-17
4.840000E+03	9.178729E-16	2.527752E-17
4.850000E+03	9.215895E-16	2.528221E-17
4.860000E+03	9.273679E-16	2.534225E-17
4.870000E+03	9.347845E-16	2.544546E-17
4.880000E+03	9.433710E-16	2.557861E-17
4.890000E+03	9.525964E-16	2.572699E-17
4.900000E+03	9.618625E-16	2.587429E-17
4.910000E+03	9.705497E-16	2.600390E-17
4.920000E+03	9.780162E-16	2.609888E-17
4.930000E+03	9.836619E-16	2.614366E-17
4.940000E+03	9.869282E-16	2.612406E-17
4.950000E+03	9.874396E-16	2.603094E-17
4.960000E+03	9.849433E-16	2.585856E-17
4.970000E+03	9.794042E-16	2.560698E-17
4.980000E+03	9.710147E-16	2.528222E-17
4.990000E+03	9.601703E-16	2.489545E-17
5.000000E+03	9.474391E-16	2.446217E-17
5.010000E+03	9.335580E-16	2.400195E-17
5.020000E+03	9.193104E-16	2.353522E-17
5.030000E+03	9.055091E-16	2.308284E-17
5.040000E+03	8.929408E-16	2.266464E-17
5.050000E+03	8.822914E-16	2.229756E-17
5.060000E+03	8.741652E-16	2.199619E-17
5.070000E+03	8.689906E-16	2.177043E-17
5.080000E+03	8.671209E-16	2.162813E-17
5.090000E+03	8.687433E-16	2.157286E-17
5.100000E+03	8.739286E-16	2.160520E-17
5.110000E+03	8.826742E-16	2.172394E-17
5.120000E+03	8.948562E-16	2.192485E-17
5.130000E+03	9.103239E-16	2.220312E-17
5.140000E+03	9.288505E-16	2.255216E-17
5.150000E+03	9.501889E-16	2.296498E-17
5.160000E+03	9.740753E-16	2.343430E-17
5.170000E+03	1.000238E-15	2.395278E-17
5.180000E+03	1.028409E-15	2.451326E-17
5.190000E+03	1.058325E-15	2.510885E-17
5.200000E+03	1.089701E-15	2.573223E-17
5.210000E+03	1.122252E-15	2.637623E-17
5.220000E+03	1.155673E-15	2.703333E-17
5.230000E+03	1.189630E-15	2.769549E-17
5.240000E+03	1.223759E-15	2.835406E-17
5.250000E+03	1.257657E-15	2.899976E-17
5.260000E+03	1.290899E-15	2.962291E-17
5.270000E+03	1.322993E-15	3.021250E-17
5.280000E+03	1.353489E-15	3.075870E-17
5.290000E+03	1.381887E-15	3.125078E-17
5.300000E+03	1.407769E-15	3.168005E-17
5.310000E+03	1.430774E-15	3.203924E-17
5.320000E+03	1.450647E-15	3.232372E-17
5.330000E+03	1.467288E-15	3.253228E-17
5.340000E+03	1.480776E-15	3.266779E-17
5.350000E+03	1.491387E-15	3.273737E-17
5.360000E+03	1.499635E-15	3.275322E-17
5.370000E+03	1.506287E-15	3.273281E-17
5.380000E+03	1.512233E-15	3.269595E-17
5.390000E+03	1.518608E-15	3.266728E-17
5.400000E+03	1.526629E-15	3.267279E-17
5.410000E+03	1.537562E-15	3.273886E-17
5.420000E+03	1.552691E-15	3.289182E-17
5.430000E+03	1.573254E-15	3.315642E-17
5.440000E+03	1.600128E-15	3.354927E-17
5.450000E+03	1.632864E-15	3.405905E-17
5.460000E+03	1.670457E-15	3.466305E-17
5.470000E+03	1.711621E-15	3.533320E-17
5.480000E+03	1.754794E-15	3.603636E-17
5.490000E+03	1.798283E-15	3.673734E-17
5.500000E+03	1.840220E-15	3.739816E-17
5.510000E+03	1.878598E-15	3.797880E-17
5.520000E+03	1.911621E-15	3.844433E-17
5.530000E+03	1.937971E-15	3.877012E-17
5.540000E+03	1.956913E-15	3.894370E-17
5.550000E+03	1.968236E-15	3.896329E-17
5.560000E+03	1.972271E-15	3.883784E-17
5.570000E+03	1.969577E-15	3.858057E-17
5.580000E+03	1.960970E-15	3.820948E-17
5.590000E+03	1.947153E-15	3.774009E-17
5.600000E+03	1.928709E-15	3.718521E-17
5.610000E+03	1.906045E-15	3.655406E-17
5.620000E+03	1.879348E-15	3.585151E-17
5.630000E+03	1.848793E-15	3.508206E-17
5.640000E+03	1.814588E-15	3.425082E-17
5.650000E+03	1.777054E-15	3.336485E-17
5.660000E+03	1.736824E-15	3.243695E-17
5.670000E+03	1.694746E-15	3.148364E-17
5.680000E+03	1.651994E-15	3.052711E-17
5.690000E+03	1.609879E-15	2.959164E-17
5.700000E+03	1.569873E-15	2.870385E-17
5.710000E+03	1.533441E-15	2.788979E-17
5.720000E+03	1.501969E-15	2.717342E-17
5.730000E+03	1.476725E-15	2.657610E-17
5.740000E+03	1.458823E-15	2.611600E-17
5.750000E+03	1.449164E-15	2.580706E-17
5.760000E+03	1.448491E-15	2.566011E-17
5.770000E+03	1.457308E-15	2.568158E-17
5.780000E+03	1.475956E-15	2.587485E-17
5.790000E+03	1.504537E-15	2.623907E-17
5.800000E+03	1.542886E-15	2.676876E-17
5.810000E+03	1.590507E-15	2.745286E-17
5.820000E+03	1.646568E-15	2.827475E-17
5.830000E+03	1.709783E-15	2.921038E-17
5.840000E+03	1.778501E-15	3.023004E-17
5.850000E+03	1.850625E-15	3.129703E-17
5.860000E+03	1.923724E-15	3.236985E-17
5.870000E+03	1.995200E-15	3.340499E-17
5.880000E+03	2.062378E-15	3.435857E-17
5.890000E+03	2.122772E-15	3.519068E-17
5.900000E+03	2.174183E-15	3.586700E-17
5.910000E+03	2.214890E-15	3.636165E-17
5.920000E+03	2.243808E-15	3.665970E-17
5.930000E+03	2.260385E-15	3.675511E-17
5.940000E+03	2.264725E-15	3.665255E-17
5.950000E+03	2.257419E-15	3.636443E-17
5.960000E+03	2.239518E-15	3.591032E-17
5.970000E+03	2.212431E-15	3.531505E-17
5.980000E+03	2.177732E-15	3.460558E-17
5.990000E+03	2.137209E-15	3.381180E-17
6.000000E+03	2.092615E-15	3.296245E-17
6.010000E+03	2.045757E-15	3.208660E-17
6.020000E+03	1.998266E-15	3.121003E-17
6.030000E+03	1.951666E-15	3.035648E-17
6.040000E+03	1.907332E-15	2.954692E-17
6.050000E+03	1.866344E-15	2.879744E-17
6.060000E+03	1.829595E-15	2.812104E-17
6.070000E+03	1.797714E-15	2.752648E-17
6.080000E+03	1.771092E-15	2.701879E-17
6.090000E+03	1.749876E-15	2.659923E-17
6.100000E+03	1.734059E-15	2.626679E-17
6.110000E+03	1.723396E-15	2.601687E-17
6.120000E+03	1.717562E-15	2.584379E-17
6.130000E+03	1.716051E-15	2.573930E-17
6.140000E+03	1.718299E-15	2.569437E-17
6.150000E+03	1.723691E-15	2.569942E-17
6.160000E+03	1.731515E-15	2.574354E-17
6.170000E+03	1.741039E-15	2.581565E-17
6.180000E+03	1.751539E-15	2.590498E-17
6.190000E+03	1.762358E-15	2.600186E-17
6.200000E+03	1.772892E-15	2.609747E-17
6.210000E+03	1.782679E-15	2.618517E-17
6.220000E+03	1.791412E-15	2.626068E-17
6.230000E+03	1.798933E-15	2.632186E-17
6.240000E+03	1.805337E-15	2.637027E-17
6.250000E+03	1.810540E-15	2.640475E-17
6.260000E+03	1.813980E-15	2.641714E-17
6.270000E+03	1.815272E-15	2.640188E-17
6.280000E+03	1.814314E-15	2.635756E-17
6.290000E+03	1.811237E-15	2.628609E-17
6.300000E+03	1.806315E-15	2.619144E-17
6.310000E+03	1.800043E-15	2.608075E-17
6.320000E+03	1.792994E-15	2.596221E-17
6.330000E+03	1.785769E-15	2.584444E-17
6.340000E+03	1.779037E-15	2.573700E-17
6.350000E+03	1.773355E-15	2.564781E-17
6.360000E+03	1.769286E-15	2.558488E-17
6.370000E+03	1.767257E-15	2.555426E-17
6.380000E+03	1.767558E-15	2.556007E-17
6.390000E+03	1.770409E-15	2.560539E-17
6.400000E+03	1.775836E-15	2.569055E-17
6.410000E+03	1.783766E-15	2.581446E-17
6.420000E+03	1.793961E-15	2.597366E-17
6.430000E+03	1.806081E-15	2.616322E-17
6.440000E+03	1.819726E-15	2.637735E-17
6.450000E+03	1.834327E-15	2.660782E-17
6.460000E+03	1.849354E-15	2.684692E-17
6.470000E+03	1.864232E-15	2.708626E-17
6.480000E+03	1.878437E-15	2.731821E-17
6.490000E+03	1.891489E-15	2.753569E-17
6.500000E+03	1.902990E-15	2.773284E-17
6.510000E+03	1.912699E-15	2.790600E-17
6.520000E+03	1.920453E-15	2.805264E-17
6.530000E+03	1.926194E-15	2.817177E-17
6.540000E+03	1.929874E-15	2.826251E-17
6.550000E+03	1.931554E-15	2.832556E-17
6.560000E+03	1.931305E-15	2.836180E-17
6.570000E+03	1.929195E-15	2.837200E-17
6.580000E+03	1.925298E-15	2.835707E-17
6.590000E+03	1.919710E-15	2.831825E-17
6.600000E+03	1.912509E-15	2.825648E-17
6.610000E+03	1.903798E-15	2.817312E-17
6.620000E+03	1.893630E-15	2.806874E-17
6.630000E+03	1.882148E-15	2.794530E-17
6.640000E+03	1.869451E-15	2.780411E-17
6.650000E+03	1.855694E-15	2.764729E-17
6.660000E+03	1.841027E-15	2.747696E-17
6.670000E+03	1.825610E-15	2.729535E-17
6.680000E+03	1.809592E-15	2.710457E-17
6.690000E+03	1.793180E-15	2.690761E-17
6.700000E+03	1.776507E-15	2.670641E-17
6.710000E+03	1.759691E-15	2.650264E-17
6.720000E+03	1.742870E-15	2.629833E-17
6.730000E+03	1.726081E-15	2.609398E-17
6.740000E+03	1.709352E-15	2.588999E-17
6.750000E+03	1.692622E-15	2.568537E-17
6.760000E+03	1.675803E-15	2.547879E-17
6.770000E+03	1.658804E-15	2.526878E-17
6.780000E+03	1.641484E-15	2.505315E-17
6.790000E+03	1.623764E-15	2.483063E-17
6.800000E+03	1.605574E-15	2.460010E-17
6.810000E+03	1.586958E-15	2.436215E-17
6.820000E+03	1.568010E-15	2.411817E-17
6.830000E+03	1.548977E-15	2.387193E-17
6.840000E+03	1.530107E-15	2.362720E-17
6.850000E+03	1.511823E-15	2.339056E-17
6.860000E+03	1.494500E-15	2.316784E-17
6.870000E+03	1.478569E-15	2.296581E-17
6.880000E+03	1.464408E-15	2.279050E-17
6.890000E+03	1.452325E-15	2.264683E-17
6.900000E+03	1.442509E-15	2.253795E-17
6.910000E+03	1.435059E-15	2.246563E-17
6.920000E+03	1.429931E-15	2.242937E-17
6.930000E+03	1.426928E-15	2.242631E-17
6.940000E+03	1.425775E-15	2.245232E-17
6.950000E+03	1.426067E-15	2.250117E-17
6.960000E+03	1.427391E-15	2.256649E-17
6.970000E+03	1.429227E-15	2.264012E-17
6.980000E+03	1.431150E-15	2.271539E-17
6.990000E+03	1.432760E-15	2.278597E-17
7.000000E+03	1.433721E-15	2.284648E-17
7.010000E+03	1.433820E-15	2.289346E-17
7.020000E+03	1.432980E-15	2.292562E-17
7.030000E+03	1.431206E-15	2.294295E-17
7.040000E+03	1.428625E-15	2.294743E-17
7.050000E+03	1.425449E-15	2.294243E-17
7.060000E+03	1.421953E-15	2.293232E-17
7.070000E+03	1.418427E-15	2.292177E-17
7.080000E+03	1.415219E-15	2.291644E-17
7.090000E+03	1.412591E-15	2.292064E-17
7.100000E+03	1.410826E-15	2.293905E-17
7.110000E+03	1.410123E-15	2.297501E-17
7.120000E+03	1.410650E-15	2.303140E-17
7.130000E+03	1.412533E-15	2.311045E-17
7.140000E+03	1.415816E-15	2.321304E-17
7.150000E+03	1.420512E-15	2.333955E-17
7.160000E+03	1.426594E-15	2.348973E-17
7.170000E+03	1.433984E-15	2.366247E-17
7.180000E+03	1.442611E-15	2.385679E-17
7.190000E+03	1.452364E-15	2.407102E-17
7.200000E+03	1.463091E-15	2.430280E-17
7.210000E+03	1.474637E-15	2.454972E-17
7.220000E+03	1.486828E-15	2.480902E-17
7.230000E+03	1.499487E-15	2.507787E-17
7.240000E+03	1.512364E-15	2.535219E-17
7.250000E+03	1.525252E-15	2.562858E-17
7.260000E+03	1.537900E-15	2.590292E-17
7.270000E+03	1.550120E-15	2.617201E-17
7.280000E+03	1.561638E-15	2.643130E-17
7.290000E+03	1.572306E-15	2.667820E-17
7.300000E+03	1.581948E-15	2.690970E-17
7.310000E+03	1.590465E-15	2.712406E-17
7.320000E+03	1.597737E-15	2.731912E-17
7.330000E+03	1.603753E-15	2.749461E-17
7.340000E+03	1.608447E-15	2.764930E-17
7.350000E+03	1.611845E-15	2.778348E-17
7.360000E+03	1.613887E-15	2.789603E-17
7.370000E+03	1.614579E-15	2.798690E-17
7.380000E+03	1.613819E-15	2.805415E-17
7.390000E+03	1.611553E-15	2.809670E-17
7.400000E+03	1.607628E-15	2.811168E-17
7.410000E+03	1.601867E-15	2.809577E-17
7.420000E+03	1.594134E-15	2.804630E-17
7.430000E+03	1.584251E-15	2.795986E-17
7.440000E+03	1.572022E-15	2.783261E-17
7.450000E+03	1.557355E-15	2.766256E-17
7.460000E+03	1.540208E-15	2.744851E-17
7.470000E+03	1.520648E-15	2.719121E-17
7.480000E+03	1.498788E-15	2.689223E-17
7.490000E+03	1.474916E-15	2.655632E-17
7.500000E+03	1.449392E-15	2.618950E-17
7.510000E+03	1.422735E-15	2.580086E-17
7.520000E+03	1.395476E-15	2.539976E-17
7.530000E+03	1.368247E-15	2.499753E-17
7.540000E+03	1.341737E-15	2.460674E-17
7.550000E+03	1.316610E-15	2.423967E-17
7.560000E+03	1.293537E-15	2.390893E-17
7.570000E+03	1.273152E-15	2.362655E-17
7.580000E+03	1.256042E-15	2.340399E-17
7.590000E+03	1.242679E-15	2.325068E-17
7.600000E+03	1.233452E-15	2.317471E-17
7.610000E+03	1.228560E-15	2.318076E-17
7.620000E+03	1.228231E-15	2.327414E-17
7.630000E+03	1.233093E-15	2.346782E-17
7.640000E+03	1.243770E-15	2.377507E-17
7.650000E+03	1.260628E-15	2.420434E-17
7.660000E+03	1.283802E-15	2.475986E-17
7.670000E+03	1.313200E-15	2.544150E-17
7.680000E+03	1.348434E-15	2.624343E-17
7.690000E+03	1.388896E-15	2.715541E-17
7.700000E+03	1.433695E-15	2.816142E-17
7.710000E+03	1.481750E-15	2.924143E-17
7.720000E+03	1.531772E-15	3.037090E-17
7.730000E+03	1.582422E-15	3.152379E-17
7.740000E+03	1.632250E-15	3.267142E-17
7.750000E+03	1.679908E-15	3.378651E-17
7.760000E+03	1.724237E-15	3.484513E-17
