#wls	flux	fluxerr
1.600000E+03	3.906769E-17	1.645591E-21
1.640000E+03	3.870478E-17	1.630304E-21
1.680000E+03	3.839329E-17	1.617184E-21
1.720000E+03	3.813052E-17	1.606116E-21
1.760000E+03	3.793573E-17	1.597911E-21
1.800000E+03	3.780613E-17	1.592452E-21
1.840000E+03	3.774620E-17	1.589928E-21
1.880000E+03	3.776025E-17	1.590519E-21
1.920000E+03	3.786665E-17	1.595001E-21
1.960000E+03	3.805489E-17	1.602930E-21
2.000000E+03	3.834269E-17	1.615053E-21
2.040000E+03	3.871870E-17	1.630891E-21
2.080000E+03	3.920693E-17	1.651456E-21
2.120000E+03	3.979475E-17	1.676215E-21
2.160000E+03	4.049774E-17	1.705827E-21
2.200000E+03	4.130874E-17	1.739987E-21
2.240000E+03	4.222664E-17	1.778650E-21
2.280000E+03	4.326448E-17	1.822366E-21
2.320000E+03	4.441140E-17	1.870676E-21
2.360000E+03	4.566258E-17	1.923377E-21
2.400000E+03	4.702791E-17	1.980887E-21
2.440000E+03	4.850057E-17	2.042918E-21
2.480000E+03	5.006414E-17	2.108778E-21
2.520000E+03	5.172620E-17	2.178786E-21
2.560000E+03	5.348612E-17	2.252917E-21
2.600000E+03	5.532595E-17	2.330413E-21
2.640000E+03	5.725410E-17	2.411630E-21
2.680000E+03	5.926246E-17	2.496225E-21
2.720000E+03	6.136227E-17	2.584673E-21
2.760000E+03	6.354839E-17	2.676755E-21
2.800000E+03	6.583603E-17	2.773114E-21
2.840000E+03	6.823352E-17	2.874100E-21
2.880000E+03	7.076097E-17	2.980560E-21
2.920000E+03	7.344107E-17	3.093450E-21
2.960000E+03	7.628921E-17	3.213418E-21
3.000000E+03	7.933271E-17	3.341614E-21
3.010000E+03	8.013074E-17	3.375229E-21
3.020000E+03	8.093810E-17	3.409236E-21
3.030000E+03	8.176478E-17	3.444057E-21
3.040000E+03	8.261102E-17	3.479702E-21
3.050000E+03	8.347702E-17	3.516179E-21
3.060000E+03	8.435310E-17	3.553081E-21
3.070000E+03	8.524938E-17	3.590834E-21
3.080000E+03	8.616608E-17	3.629447E-21
3.090000E+03	8.710347E-17	3.668931E-21
3.100000E+03	8.806177E-17	3.709296E-21
3.110000E+03	8.904124E-17	3.750553E-21
3.120000E+03	9.004217E-17	3.792713E-21
3.130000E+03	9.106481E-17	3.835788E-21
3.140000E+03	9.211943E-17	3.880211E-21
3.150000E+03	9.319635E-17	3.925572E-21
3.160000E+03	9.429587E-17	3.971886E-21
3.170000E+03	9.541826E-17	4.019162E-21
3.180000E+03	9.657390E-17	4.067840E-21
3.190000E+03	9.775303E-17	4.117507E-21
3.200000E+03	9.896608E-17	4.168602E-21
3.210000E+03	1.002033E-16	4.220715E-21
3.220000E+03	1.014852E-16	4.274712E-21
3.230000E+03	1.027919E-16	4.329753E-21
3.240000E+03	1.041340E-16	4.386284E-21
3.250000E+03	1.055016E-16	4.443887E-21
3.260000E+03	1.069153E-16	4.503437E-21
3.270000E+03	1.083654E-16	4.564516E-21
3.280000E+03	1.098523E-16	4.627148E-21
3.290000E+03	1.113864E-16	4.691765E-21
3.300000E+03	1.129478E-16	4.757534E-21
3.310000E+03	1.145571E-16	4.825321E-21
3.320000E+03	1.162148E-16	4.895143E-21
3.330000E+03	1.179107E-16	4.966577E-21
3.340000E+03	1.196554E-16	5.040067E-21
3.350000E+03	1.214491E-16	5.115622E-21
3.360000E+03	1.232921E-16	5.193249E-21
3.370000E+03	1.251843E-16	5.272953E-21
3.380000E+03	1.271155E-16	5.354299E-21
3.390000E+03	1.291062E-16	5.438149E-21
3.400000E+03	1.311561E-16	5.524495E-21
3.410000E+03	1.332547E-16	5.612892E-21
3.420000E+03	1.354013E-16	5.703308E-21
3.430000E+03	1.376055E-16	5.796152E-21
3.440000E+03	1.398662E-16	5.891379E-21
3.450000E+03	1.421719E-16	5.988498E-21
3.460000E+03	1.445419E-16	6.088323E-21
3.470000E+03	1.469529E-16	6.189881E-21
3.480000E+03	1.494237E-16	6.293952E-21
3.490000E+03	1.519511E-16	6.400413E-21
3.500000E+03	1.545212E-16	6.508667E-21
3.510000E+03	1.571294E-16	6.618528E-21
3.520000E+03	1.597917E-16	6.730668E-21
3.530000E+03	1.624807E-16	6.843933E-21
3.540000E+03	1.651998E-16	6.958468E-21
3.550000E+03	1.679408E-16	7.073923E-21
3.560000E+03	1.707048E-16	7.190346E-21
3.570000E+03	1.734709E-16	7.306856E-21
3.580000E+03	1.762383E-16	7.423425E-21
3.590000E+03	1.789951E-16	7.539545E-21
3.600000E+03	1.817187E-16	7.654267E-21
3.610000E+03	1.844181E-16	7.767971E-21
3.620000E+03	1.870617E-16	7.879321E-21
3.630000E+03	1.896615E-16	7.988829E-21
3.640000E+03	1.922116E-16	8.096243E-21
3.650000E+03	1.946998E-16	8.201052E-21
3.660000E+03	1.971404E-16	8.303854E-21
3.670000E+03	1.995445E-16	8.405116E-21
3.680000E+03	2.019311E-16	8.505644E-21
3.690000E+03	2.043293E-16	8.606658E-21
3.700000E+03	2.067892E-16	8.710272E-21
3.710000E+03	2.093525E-16	8.818245E-21
3.720000E+03	2.120942E-16	8.933730E-21
3.730000E+03	2.150826E-16	9.059604E-21
3.740000E+03	2.184291E-16	9.200565E-21
3.750000E+03	2.222198E-16	9.360234E-21
3.760000E+03	2.265940E-16	9.544484E-21
3.770000E+03	2.316851E-16	9.758929E-21
3.780000E+03	2.376300E-16	1.000934E-20
3.790000E+03	2.445882E-16	1.030242E-20
3.800000E+03	2.527411E-16	1.064584E-20
3.810000E+03	2.622700E-16	1.104721E-20
3.820000E+03	2.733732E-16	1.151489E-20
3.830000E+03	2.862176E-16	1.205592E-20
3.840000E+03	3.009921E-16	1.267824E-20
3.850000E+03	3.178660E-16	1.338900E-20
3.860000E+03	3.369462E-16	1.419268E-20
3.868765E+03	3.023007E-16	1.273336E-20
3.870241E+03	3.138416E-16	1.321948E-20
3.871707E+03	3.242508E-16	1.365793E-20
3.873173E+03	3.345330E-16	1.409103E-20
3.874650E+03	3.480895E-16	1.466206E-20
3.876116E+03	3.627598E-16	1.527999E-20
3.877582E+03	3.748889E-16	1.579088E-20
3.879059E+03	3.859791E-16	1.625802E-20
3.880525E+03	3.952797E-16	1.664978E-20
3.882001E+03	4.043940E-16	1.703369E-20
3.883467E+03	4.133477E-16	1.741083E-20
3.884934E+03	4.285714E-16	1.805208E-20
3.886410E+03	4.418450E-16	1.861118E-20
3.887876E+03	4.511602E-16	1.900355E-20
3.889343E+03	4.593441E-16	1.934826E-20
3.890819E+03	4.703630E-16	1.981240E-20
3.892285E+03	4.793815E-16	2.019227E-20
3.893751E+03	4.843915E-16	2.040330E-20
3.895228E+03	4.941855E-16	2.081584E-20
3.896694E+03	5.074303E-16	2.137373E-20
3.898170E+03	5.122283E-16	2.157583E-20
3.899637E+03	5.194646E-16	2.188063E-20
3.901103E+03	5.230556E-16	2.203189E-20
3.902579E+03	5.247735E-16	2.210425E-20
3.904046E+03	5.317897E-16	2.239978E-20
3.905512E+03	5.364601E-16	2.259651E-20
3.906988E+03	5.410713E-16	2.279074E-20
3.908454E+03	5.439107E-16	2.291034E-20
3.909931E+03	5.473236E-16	2.305409E-20
3.911397E+03	5.513943E-16	2.322556E-20
3.912863E+03	5.535332E-16	2.331565E-20
3.914340E+03	5.598054E-16	2.357985E-20
3.915806E+03	5.604593E-16	2.360739E-20
3.917272E+03	5.653392E-16	2.381294E-20
3.918749E+03	5.737617E-16	2.416771E-20
3.920215E+03	5.761950E-16	2.427020E-20
3.921681E+03	5.811588E-16	2.447928E-20
3.923157E+03	5.849329E-16	2.463826E-20
3.924624E+03	5.937423E-16	2.500932E-20
3.926090E+03	5.963016E-16	2.511712E-20
3.927566E+03	5.954534E-16	2.508139E-20
3.929032E+03	5.977006E-16	2.517605E-20
3.930509E+03	6.015836E-16	2.533961E-20
3.931975E+03	6.005246E-16	2.529500E-20
3.933441E+03	6.054196E-16	2.550118E-20
3.934918E+03	6.108287E-16	2.572902E-20
3.936384E+03	6.123248E-16	2.579204E-20
3.937850E+03	6.132305E-16	2.583019E-20
3.939327E+03	6.173911E-16	2.600544E-20
3.940793E+03	6.280444E-16	2.645418E-20
3.942259E+03	6.343801E-16	2.672104E-20
3.943735E+03	6.351335E-16	2.675278E-20
3.945202E+03	6.388802E-16	2.691060E-20
3.946678E+03	6.402237E-16	2.696719E-20
3.948144E+03	6.424694E-16	2.706178E-20
3.949611E+03	6.502628E-16	2.739005E-20
3.951087E+03	6.533765E-16	2.752120E-20
3.952553E+03	6.567347E-16	2.766265E-20
3.954019E+03	6.650585E-16	2.801326E-20
3.955496E+03	6.703636E-16	2.823673E-20
3.956962E+03	6.766297E-16	2.850066E-20
3.958428E+03	6.815720E-16	2.870884E-20
3.959905E+03	6.859662E-16	2.889393E-20
3.961371E+03	6.892980E-16	2.903427E-20
3.962847E+03	6.917530E-16	2.913768E-20
3.964314E+03	6.973438E-16	2.937317E-20
3.965780E+03	7.028753E-16	2.960616E-20
3.967256E+03	7.120983E-16	2.999465E-20
3.968722E+03	7.144095E-16	3.009200E-20
3.970189E+03	7.172853E-16	3.021313E-20
3.971665E+03	7.205739E-16	3.035166E-20
3.973131E+03	7.155607E-16	3.014049E-20
3.974598E+03	7.149976E-16	3.011678E-20
3.976074E+03	7.197105E-16	3.031529E-20
3.977540E+03	7.227629E-16	3.044386E-20
3.979017E+03	7.275261E-16	3.064449E-20
3.980483E+03	7.352470E-16	3.096971E-20
3.981949E+03	7.356276E-16	3.098574E-20
3.983425E+03	7.355278E-16	3.098153E-20
3.984892E+03	7.421274E-16	3.125952E-20
3.986358E+03	7.453982E-16	3.139729E-20
3.987834E+03	7.450202E-16	3.138137E-20
3.989300E+03	7.442716E-16	3.134984E-20
3.990767E+03	7.479129E-16	3.150322E-20
3.992243E+03	7.507452E-16	3.162252E-20
3.993709E+03	7.426240E-16	3.128044E-20
3.995186E+03	7.389096E-16	3.112398E-20
3.996652E+03	7.412281E-16	3.122164E-20
3.998118E+03	7.350033E-16	3.095944E-20
3.999595E+03	7.248610E-16	3.053223E-20
4.001061E+03	7.198417E-16	3.032081E-20
4.002527E+03	7.155807E-16	3.014133E-20
4.004003E+03	7.130807E-16	3.003603E-20
4.005470E+03	7.088454E-16	2.985763E-20
4.006936E+03	7.035067E-16	2.963276E-20
4.008412E+03	6.988673E-16	2.943734E-20
4.009879E+03	6.922571E-16	2.915891E-20
4.011355E+03	6.892020E-16	2.903022E-20
4.012821E+03	6.878654E-16	2.897392E-20
4.014287E+03	6.854845E-16	2.887363E-20
4.015764E+03	6.835667E-16	2.879286E-20
4.017230E+03	6.805627E-16	2.866632E-20
4.018696E+03	6.806078E-16	2.866822E-20
4.020173E+03	6.772669E-16	2.852750E-20
4.021639E+03	6.775733E-16	2.854041E-20
4.023105E+03	6.770375E-16	2.851784E-20
4.024582E+03	6.793230E-16	2.861410E-20
4.026048E+03	6.772375E-16	2.852626E-20
4.027524E+03	6.731983E-16	2.835612E-20
4.028990E+03	6.719299E-16	2.830269E-20
4.030457E+03	6.750745E-16	2.843515E-20
4.031933E+03	6.774694E-16	2.853603E-20
4.033399E+03	6.810602E-16	2.868728E-20
4.034866E+03	6.848697E-16	2.884774E-20
4.036342E+03	6.825824E-16	2.875139E-20
4.037808E+03	6.770954E-16	2.852027E-20
4.039274E+03	6.720634E-16	2.830832E-20
4.040751E+03	6.728584E-16	2.834180E-20
4.042217E+03	6.723061E-16	2.831854E-20
4.043693E+03	6.710888E-16	2.826726E-20
4.045160E+03	6.739215E-16	2.838658E-20
4.046626E+03	6.756596E-16	2.845979E-20
4.048102E+03	6.687422E-16	2.816842E-20
4.049569E+03	6.675504E-16	2.811822E-20
4.051035E+03	6.657946E-16	2.804427E-20
4.052511E+03	6.654364E-16	2.802918E-20
4.053977E+03	6.660886E-16	2.805665E-20
4.055444E+03	6.625145E-16	2.790610E-20
4.056920E+03	6.580987E-16	2.772010E-20
4.058386E+03	6.588773E-16	2.775290E-20
4.059863E+03	6.585950E-16	2.774101E-20
4.061329E+03	6.570587E-16	2.767630E-20
4.062795E+03	6.524416E-16	2.748182E-20
4.064271E+03	6.495248E-16	2.735896E-20
4.065738E+03	6.461958E-16	2.721874E-20
4.067204E+03	6.484983E-16	2.731572E-20
4.068680E+03	6.456576E-16	2.719607E-20
4.070147E+03	6.387434E-16	2.690483E-20
4.071613E+03	6.407428E-16	2.698905E-20
4.073089E+03	6.382224E-16	2.688288E-20
4.074556E+03	6.350710E-16	2.675014E-20
4.076032E+03	6.265246E-16	2.639015E-20
4.077498E+03	6.223215E-16	2.621311E-20
4.078964E+03	6.214009E-16	2.617433E-20
4.080441E+03	6.151866E-16	2.591258E-20
4.081907E+03	6.095617E-16	2.567565E-20
4.083373E+03	6.097692E-16	2.568439E-20
4.084850E+03	6.066861E-16	2.555452E-20
4.086316E+03	6.026185E-16	2.538319E-20
4.087782E+03	6.042314E-16	2.545113E-20
4.089258E+03	6.049860E-16	2.548291E-20
4.090725E+03	6.030814E-16	2.540269E-20
4.092201E+03	5.963300E-16	2.511831E-20
4.093667E+03	5.899577E-16	2.484990E-20
4.095134E+03	5.853105E-16	2.465415E-20
4.096610E+03	5.802344E-16	2.444034E-20
4.098076E+03	5.766646E-16	2.428997E-20
4.099543E+03	5.706718E-16	2.403755E-20
4.101019E+03	5.646876E-16	2.378548E-20
4.102485E+03	5.611268E-16	2.363550E-20
4.103951E+03	5.586010E-16	2.352911E-20
4.105428E+03	5.512964E-16	2.322143E-20
4.106894E+03	5.460451E-16	2.300024E-20
4.108370E+03	5.423839E-16	2.284602E-20
4.109837E+03	5.363506E-16	2.259189E-20
4.111303E+03	5.319916E-16	2.240828E-20
4.112779E+03	5.273131E-16	2.221121E-20
4.114245E+03	5.236107E-16	2.205526E-20
4.115712E+03	5.216665E-16	2.197337E-20
4.117188E+03	5.207318E-16	2.193400E-20
4.118654E+03	5.140940E-16	2.165441E-20
4.120121E+03	5.042179E-16	2.123841E-20
4.121597E+03	4.968404E-16	2.092766E-20
4.123063E+03	4.909016E-16	2.067751E-20
4.124540E+03	4.871835E-16	2.052090E-20
4.126006E+03	4.845087E-16	2.040823E-20
4.127472E+03	4.793105E-16	2.018927E-20
4.128949E+03	4.741631E-16	1.997246E-20
4.130415E+03	4.701850E-16	1.980489E-20
4.131881E+03	4.670733E-16	1.967382E-20
4.133357E+03	4.621366E-16	1.946588E-20
4.134824E+03	4.577638E-16	1.928169E-20
4.136290E+03	4.543582E-16	1.913824E-20
4.137766E+03	4.488081E-16	1.890447E-20
4.139233E+03	4.408952E-16	1.857116E-20
4.140709E+03	4.361613E-16	1.837176E-20
4.142175E+03	4.301242E-16	1.811747E-20
4.143641E+03	4.237510E-16	1.784902E-20
4.145118E+03	4.205566E-16	1.771447E-20
4.146584E+03	4.153862E-16	1.749669E-20
4.148050E+03	4.093668E-16	1.724314E-20
4.149527E+03	4.054834E-16	1.707957E-20
4.150993E+03	4.027354E-16	1.696382E-20
4.152459E+03	3.981712E-16	1.677157E-20
4.153935E+03	3.949441E-16	1.663563E-20
4.155402E+03	3.920872E-16	1.651530E-20
4.156878E+03	3.868255E-16	1.629366E-20
4.158344E+03	3.822115E-16	1.609932E-20
4.159811E+03	3.801957E-16	1.601441E-20
4.161287E+03	3.794916E-16	1.598475E-20
4.162753E+03	3.769799E-16	1.587895E-20
4.164220E+03	3.735266E-16	1.573350E-20
4.165696E+03	3.697204E-16	1.557318E-20
4.167162E+03	3.663935E-16	1.543304E-20
4.168628E+03	3.663119E-16	1.542960E-20
4.170105E+03	3.651290E-16	1.537978E-20
4.171571E+03	3.655099E-16	1.539582E-20
4.173047E+03	3.630745E-16	1.529324E-20
4.174514E+03	3.623541E-16	1.526289E-20
4.175980E+03	3.597591E-16	1.515359E-20
4.177456E+03	3.598206E-16	1.515618E-20
4.178922E+03	3.615382E-16	1.522852E-20
4.180389E+03	3.613643E-16	1.522120E-20
4.181865E+03	3.574751E-16	1.505738E-20
4.183331E+03	3.560321E-16	1.499660E-20
4.184798E+03	3.540932E-16	1.491493E-20
4.186274E+03	3.532807E-16	1.488071E-20
4.187740E+03	3.511487E-16	1.479090E-20
4.189207E+03	3.511181E-16	1.478961E-20
4.190683E+03	3.540291E-16	1.491223E-20
4.192149E+03	3.549482E-16	1.495094E-20
4.193625E+03	3.554302E-16	1.497125E-20
4.195092E+03	3.586353E-16	1.510625E-20
4.196558E+03	3.610923E-16	1.520975E-20
4.198034E+03	3.604398E-16	1.518226E-20
4.199501E+03	3.620731E-16	1.525106E-20
4.200967E+03	3.634122E-16	1.530746E-20
4.202443E+03	3.650203E-16	1.537520E-20
4.203909E+03	3.684856E-16	1.552116E-20
4.205386E+03	3.709172E-16	1.562358E-20
4.206852E+03	3.739622E-16	1.575184E-20
4.208318E+03	3.761752E-16	1.584506E-20
4.209795E+03	3.743796E-16	1.576943E-20
4.211261E+03	3.736935E-16	1.574052E-20
4.212727E+03	3.750493E-16	1.579763E-20
4.214203E+03	3.776571E-16	1.590748E-20
4.215670E+03	3.799540E-16	1.600423E-20
4.217136E+03	3.828474E-16	1.612610E-20
4.218612E+03	3.844132E-16	1.619205E-20
4.220079E+03	3.864327E-16	1.627712E-20
4.221555E+03	3.884436E-16	1.636182E-20
4.223021E+03	3.868333E-16	1.629399E-20
4.224488E+03	3.865756E-16	1.628314E-20
4.225964E+03	3.873010E-16	1.631369E-20
4.227430E+03	3.893961E-16	1.640194E-20
4.228896E+03	3.910205E-16	1.647036E-20
4.230373E+03	3.924769E-16	1.653171E-20
4.231839E+03	3.959497E-16	1.667799E-20
4.233305E+03	3.979773E-16	1.676339E-20
4.234782E+03	3.989799E-16	1.680562E-20
4.236248E+03	4.018812E-16	1.692783E-20
4.237724E+03	4.044212E-16	1.703482E-20
4.239190E+03	4.038780E-16	1.701194E-20
4.240657E+03	4.040573E-16	1.701949E-20
4.242133E+03	4.036317E-16	1.700156E-20
4.243599E+03	4.032819E-16	1.698683E-20
4.245066E+03	4.036125E-16	1.700075E-20
4.246542E+03	4.045059E-16	1.703839E-20
4.248008E+03	4.051556E-16	1.706575E-20
4.249475E+03	4.046547E-16	1.704465E-20
4.250951E+03	4.062621E-16	1.711236E-20
4.252417E+03	4.079199E-16	1.718219E-20
4.253893E+03	4.087125E-16	1.721558E-20
4.255360E+03	4.096731E-16	1.725604E-20
4.256826E+03	4.116249E-16	1.733825E-20
4.258302E+03	4.127115E-16	1.738402E-20
4.259769E+03	4.132942E-16	1.740856E-20
4.261235E+03	4.150191E-16	1.748122E-20
4.262711E+03	4.152741E-16	1.749196E-20
4.264177E+03	4.154032E-16	1.749740E-20
4.265644E+03	4.157171E-16	1.751062E-20
4.267120E+03	4.153927E-16	1.749695E-20
4.268586E+03	4.148919E-16	1.747586E-20
4.270053E+03	4.143996E-16	1.745512E-20
4.271529E+03	4.157131E-16	1.751045E-20
4.272995E+03	4.167577E-16	1.755445E-20
4.274471E+03	4.161731E-16	1.752982E-20
4.275938E+03	4.160336E-16	1.752395E-20
4.277404E+03	4.158606E-16	1.751666E-20
4.278880E+03	4.161327E-16	1.752812E-20
4.280347E+03	4.183280E-16	1.762059E-20
4.281813E+03	4.201872E-16	1.769890E-20
4.283289E+03	4.215006E-16	1.775423E-20
4.284756E+03	4.224193E-16	1.779293E-20
4.286232E+03	4.234473E-16	1.783622E-20
4.287698E+03	4.236102E-16	1.784309E-20
4.289164E+03	4.236053E-16	1.784288E-20
4.290641E+03	4.239782E-16	1.785859E-20
4.292107E+03	4.237802E-16	1.785025E-20
4.293573E+03	4.229944E-16	1.781715E-20
4.295050E+03	4.228888E-16	1.781270E-20
4.296516E+03	4.233122E-16	1.783053E-20
4.297982E+03	4.229632E-16	1.781583E-20
4.299458E+03	4.221356E-16	1.778097E-20
4.300925E+03	4.209637E-16	1.773161E-20
4.302391E+03	4.195652E-16	1.767270E-20
4.303867E+03	4.185865E-16	1.763148E-20
4.305334E+03	4.174736E-16	1.758460E-20
4.306810E+03	4.163775E-16	1.753843E-20
4.308276E+03	4.154914E-16	1.750111E-20
4.309743E+03	4.153358E-16	1.749455E-20
4.311219E+03	4.147268E-16	1.746890E-20
4.312685E+03	4.144285E-16	1.745634E-20
4.314151E+03	4.142563E-16	1.744908E-20
4.315628E+03	4.145289E-16	1.746057E-20
4.317094E+03	4.153390E-16	1.749469E-20
4.318560E+03	4.163254E-16	1.753624E-20
4.320037E+03	4.174544E-16	1.758379E-20
4.321503E+03	4.180798E-16	1.761013E-20
4.322979E+03	4.186128E-16	1.763259E-20
4.324445E+03	4.185247E-16	1.762887E-20
4.325912E+03	4.191333E-16	1.765451E-20
4.327388E+03	4.204051E-16	1.770808E-20
4.328854E+03	4.211817E-16	1.774079E-20
4.330321E+03	4.206487E-16	1.771834E-20
4.331797E+03	4.223151E-16	1.778853E-20
4.333263E+03	4.236206E-16	1.784352E-20
4.334740E+03	4.242796E-16	1.787128E-20
4.336206E+03	4.255012E-16	1.792273E-20
4.337672E+03	4.261855E-16	1.795156E-20
4.339148E+03	4.273902E-16	1.800230E-20
4.340615E+03	4.289811E-16	1.806931E-20
4.342081E+03	4.299425E-16	1.810981E-20
4.343557E+03	4.313571E-16	1.816939E-20
4.345024E+03	4.331579E-16	1.824524E-20
4.346490E+03	4.342117E-16	1.828963E-20
4.347966E+03	4.357522E-16	1.835452E-20
4.349432E+03	4.383252E-16	1.846290E-20
4.350899E+03	4.406799E-16	1.856208E-20
4.352375E+03	4.432277E-16	1.866940E-20
4.353841E+03	4.445165E-16	1.872368E-20
4.355318E+03	4.455618E-16	1.876771E-20
4.356784E+03	4.458685E-16	1.878064E-20
4.358250E+03	4.462257E-16	1.879568E-20
4.359727E+03	4.475732E-16	1.885244E-20
4.361193E+03	4.496426E-16	1.893960E-20
4.362659E+03	4.522744E-16	1.905046E-20
4.364135E+03	4.544780E-16	1.914328E-20
4.365602E+03	4.561025E-16	1.921171E-20
4.367078E+03	4.574670E-16	1.926918E-20
4.368544E+03	4.579249E-16	1.928847E-20
4.370011E+03	4.571407E-16	1.925544E-20
4.371487E+03	4.561552E-16	1.921392E-20
4.372953E+03	4.558831E-16	1.920246E-20
4.374419E+03	4.546962E-16	1.915247E-20
4.375896E+03	4.529722E-16	1.907985E-20
4.377362E+03	4.519198E-16	1.903552E-20
4.378828E+03	4.499107E-16	1.895089E-20
4.380305E+03	4.489254E-16	1.890939E-20
4.381771E+03	4.475038E-16	1.884951E-20
4.383237E+03	4.451256E-16	1.874934E-20
4.384713E+03	4.427641E-16	1.864987E-20
4.386180E+03	4.416198E-16	1.860167E-20
4.387656E+03	4.398375E-16	1.852660E-20
4.389122E+03	4.374511E-16	1.842608E-20
4.390589E+03	4.349221E-16	1.831955E-20
4.392065E+03	4.321079E-16	1.820101E-20
4.393531E+03	4.297133E-16	1.810015E-20
4.394998E+03	4.275455E-16	1.800884E-20
4.396474E+03	4.252265E-16	1.791116E-20
4.397940E+03	4.225468E-16	1.779829E-20
4.399407E+03	4.205973E-16	1.771617E-20
4.400883E+03	4.191764E-16	1.765632E-20
4.402349E+03	4.170004E-16	1.756467E-20
4.403825E+03	4.152440E-16	1.749068E-20
4.405292E+03	4.132864E-16	1.740822E-20
4.406758E+03	4.110098E-16	1.731233E-20
4.408234E+03	4.089598E-16	1.722598E-20
4.409700E+03	4.071115E-16	1.714813E-20
4.411167E+03	4.050701E-16	1.706214E-20
4.412643E+03	4.032049E-16	1.698358E-20
4.414109E+03	4.010293E-16	1.689194E-20
4.415576E+03	3.990805E-16	1.680985E-20
4.417052E+03	3.976266E-16	1.674861E-20
4.418518E+03	3.959295E-16	1.667713E-20
4.419995E+03	3.948953E-16	1.663356E-20
4.421461E+03	3.940206E-16	1.659672E-20
4.422927E+03	3.927097E-16	1.654150E-20
4.424404E+03	3.919106E-16	1.650784E-20
4.425870E+03	3.926890E-16	1.654063E-20
4.427336E+03	3.942981E-16	1.660841E-20
4.428812E+03	3.956639E-16	1.666594E-20
4.430279E+03	3.977262E-16	1.675280E-20
4.431745E+03	4.001661E-16	1.685558E-20
4.433221E+03	4.018676E-16	1.692725E-20
4.434688E+03	4.028894E-16	1.697029E-20
4.436164E+03	4.040204E-16	1.701792E-20
4.437630E+03	4.055877E-16	1.708394E-20
4.439096E+03	4.079942E-16	1.718531E-20
4.440573E+03	4.101572E-16	1.727642E-20
