#wls	flux	fluxerr
1.600000E+03	3.468381E-17	1.777966E-18
1.640000E+03	3.463316E-17	1.769851E-18
1.680000E+03	3.461654E-17	1.763343E-18
1.720000E+03	3.463608E-17	1.758531E-18
1.760000E+03	3.469390E-17	1.755503E-18
1.800000E+03	3.479842E-17	1.754657E-18
1.840000E+03	3.494522E-17	1.755744E-18
1.880000E+03	3.514250E-17	1.759144E-18
1.920000E+03	3.539195E-17	1.764909E-18
1.960000E+03	3.569507E-17	1.773075E-18
2.000000E+03	3.605313E-17	1.783668E-18
2.040000E+03	3.647360E-17	1.797013E-18
2.080000E+03	3.695728E-17	1.813100E-18
2.120000E+03	3.750464E-17	1.831904E-18
2.160000E+03	3.812238E-17	1.853695E-18
2.200000E+03	3.880371E-17	1.878085E-18
2.240000E+03	3.956133E-17	1.905628E-18
2.280000E+03	4.038767E-17	1.935892E-18
2.320000E+03	4.128815E-17	1.969068E-18
2.360000E+03	4.226806E-17	2.005334E-18
2.400000E+03	4.332561E-17	2.044524E-18
2.440000E+03	4.445868E-17	2.086457E-18
2.480000E+03	4.567203E-17	2.131271E-18
2.520000E+03	4.697050E-17	2.179100E-18
2.560000E+03	4.835190E-17	2.229743E-18
2.600000E+03	4.982879E-17	2.283676E-18
2.640000E+03	5.139965E-17	2.340713E-18
2.680000E+03	5.307075E-17	2.401021E-18
2.720000E+03	5.484909E-17	2.464785E-18
2.760000E+03	5.675023E-17	2.532558E-18
2.800000E+03	5.878331E-17	2.604588E-18
2.840000E+03	6.095086E-17	2.680810E-18
2.880000E+03	6.328011E-17	2.762228E-18
2.920000E+03	6.579241E-17	2.849550E-18
2.960000E+03	6.851116E-17	2.943532E-18
3.000000E+03	7.145409E-17	3.044648E-18
3.010000E+03	7.222622E-17	3.071064E-18
3.020000E+03	7.301732E-17	3.098111E-18
3.030000E+03	7.382767E-17	3.125795E-18
3.040000E+03	7.465752E-17	3.154120E-18
3.050000E+03	7.549903E-17	3.182749E-18
3.060000E+03	7.636868E-17	3.212371E-18
3.070000E+03	7.725054E-17	3.242308E-18
3.080000E+03	7.815301E-17	3.272907E-18
3.090000E+03	7.908460E-17	3.304515E-18
3.100000E+03	8.002932E-17	3.336458E-18
3.110000E+03	8.100388E-17	3.369425E-18
3.120000E+03	8.200048E-17	3.403081E-18
3.130000E+03	8.301952E-17	3.437437E-18
3.140000E+03	8.406140E-17	3.472499E-18
3.150000E+03	8.513481E-17	3.508619E-18
3.160000E+03	8.623199E-17	3.545467E-18
3.170000E+03	8.735340E-17	3.583051E-18
3.180000E+03	8.850786E-17	3.621725E-18
3.190000E+03	8.969594E-17	3.661500E-18
3.200000E+03	9.090990E-17	3.702049E-18
3.210000E+03	9.215869E-17	3.743727E-18
3.220000E+03	9.344298E-17	3.786547E-18
3.230000E+03	9.476349E-17	3.830526E-18
3.240000E+03	9.611245E-17	3.875338E-18
3.250000E+03	9.749911E-17	3.921344E-18
3.260000E+03	9.893279E-17	3.968904E-18
3.270000E+03	1.003973E-16	4.017352E-18
3.280000E+03	1.019106E-16	4.067397E-18
3.290000E+03	1.034651E-16	4.118718E-18
3.300000E+03	1.050706E-16	4.171684E-18
3.310000E+03	1.067109E-16	4.225639E-18
3.320000E+03	1.084130E-16	4.281638E-18
3.330000E+03	1.101522E-16	4.338680E-18
3.340000E+03	1.119558E-16	4.397830E-18
3.350000E+03	1.138081E-16	4.458442E-18
3.360000E+03	1.157191E-16	4.520893E-18
3.370000E+03	1.176906E-16	4.585229E-18
3.380000E+03	1.197243E-16	4.651493E-18
3.390000E+03	1.218222E-16	4.719739E-18
3.400000E+03	1.239952E-16	4.790366E-18
3.410000E+03	1.262277E-16	4.862741E-18
3.420000E+03	1.285399E-16	4.937621E-18
3.430000E+03	1.309345E-16	5.015080E-18
3.440000E+03	1.334054E-16	5.094846E-18
3.450000E+03	1.359646E-16	5.177352E-18
3.460000E+03	1.386063E-16	5.262346E-18
3.470000E+03	1.413527E-16	5.350628E-18
3.480000E+03	1.441890E-16	5.441609E-18
3.490000E+03	1.471383E-16	5.536116E-18
3.500000E+03	1.501960E-16	5.633937E-18
3.510000E+03	1.533673E-16	5.735221E-18
3.520000E+03	1.566671E-16	5.840481E-18
3.530000E+03	1.601017E-16	5.949903E-18
3.540000E+03	1.636686E-16	6.063335E-18
3.550000E+03	1.673845E-16	6.181346E-18
3.560000E+03	1.712574E-16	6.304173E-18
3.570000E+03	1.752963E-16	6.432081E-18
3.580000E+03	1.795106E-16	6.565350E-18
3.590000E+03	1.839206E-16	6.704652E-18
3.600000E+03	1.885278E-16	6.849959E-18
3.610000E+03	1.933442E-16	7.001631E-18
3.620000E+03	1.984031E-16	7.160788E-18
3.630000E+03	2.036986E-16	7.327114E-18
3.640000E+03	2.092557E-16	7.501420E-18
3.650000E+03	2.151012E-16	7.684547E-18
3.660000E+03	2.212309E-16	7.876240E-18
3.670000E+03	2.276842E-16	8.077772E-18
3.680000E+03	2.344795E-16	8.289673E-18
3.690000E+03	2.416256E-16	8.512105E-18
3.700000E+03	2.491645E-16	8.746403E-18
3.710000E+03	2.570938E-16	8.992320E-18
3.720000E+03	2.654446E-16	9.250781E-18
3.730000E+03	2.742359E-16	9.522275E-18
3.740000E+03	2.834982E-16	9.807667E-18
3.750000E+03	2.932360E-16	1.010693E-17
3.760000E+03	3.034757E-16	1.042075E-17
3.770000E+03	3.142281E-16	1.074930E-17
3.780000E+03	3.254872E-16	1.109216E-17
3.790000E+03	3.372790E-16	1.144999E-17
3.800000E+03	3.495847E-16	1.182193E-17
3.810000E+03	3.623889E-16	1.220724E-17
3.820000E+03	3.756663E-16	1.260485E-17
3.830000E+03	3.893927E-16	1.301375E-17
3.840000E+03	4.035025E-16	1.343154E-17
3.850000E+03	4.179419E-16	1.385627E-17
3.860000E+03	4.326403E-16	1.428545E-17
3.870000E+03	4.474638E-16	1.471456E-17
3.880000E+03	4.623031E-16	1.513992E-17
3.890000E+03	4.770144E-16	1.555684E-17
3.900000E+03	4.914358E-16	1.596007E-17
3.910000E+03	5.054058E-16	1.634449E-17
3.920000E+03	5.187189E-16	1.670364E-17
3.930000E+03	5.311790E-16	1.703149E-17
3.940000E+03	5.426054E-16	1.732260E-17
3.950000E+03	5.527919E-16	1.757083E-17
3.960000E+03	5.615787E-16	1.777163E-17
3.970000E+03	5.688122E-16	1.792073E-17
3.980000E+03	5.743521E-16	1.801436E-17
3.990000E+03	5.781258E-16	1.805098E-17
4.000000E+03	5.800701E-16	1.802936E-17
4.010000E+03	5.801980E-16	1.795068E-17
4.020000E+03	5.785513E-16	1.781700E-17
4.030000E+03	5.752027E-16	1.763132E-17
4.040000E+03	5.702955E-16	1.739875E-17
4.050000E+03	5.639672E-16	1.712414E-17
4.060000E+03	5.564544E-16	1.681527E-17
4.070000E+03	5.479328E-16	1.647796E-17
4.080000E+03	5.386585E-16	1.612032E-17
4.090000E+03	5.288400E-16	1.574891E-17
4.100000E+03	5.187323E-16	1.537154E-17
4.110000E+03	5.085310E-16	1.499413E-17
4.120000E+03	4.984407E-16	1.462273E-17
4.130000E+03	4.886555E-16	1.426297E-17
4.140000E+03	4.793140E-16	1.391877E-17
4.150000E+03	4.705715E-16	1.359442E-17
4.160000E+03	4.625174E-16	1.329224E-17
4.170000E+03	4.552268E-16	1.301408E-17
4.180000E+03	4.487786E-16	1.276184E-17
4.190000E+03	4.431922E-16	1.253571E-17
4.200000E+03	4.384845E-16	1.233579E-17
4.210000E+03	4.346545E-16	1.216164E-17
4.220000E+03	4.316763E-16	1.201215E-17
4.230000E+03	4.295196E-16	1.188610E-17
4.240000E+03	4.281353E-16	1.178177E-17
4.250000E+03	4.274676E-16	1.169726E-17
4.260000E+03	4.274638E-16	1.163083E-17
4.270000E+03	4.280699E-16	1.158069E-17
4.280000E+03	4.292189E-16	1.154476E-17
4.290000E+03	4.308642E-16	1.152155E-17
4.300000E+03	4.329665E-16	1.150977E-17
4.310000E+03	4.354764E-16	1.150790E-17
4.320000E+03	4.383863E-16	1.151556E-17
4.330000E+03	4.416834E-16	1.153220E-17
4.340000E+03	4.453867E-16	1.155814E-17
4.350000E+03	4.495222E-16	1.159386E-17
4.360000E+03	4.541441E-16	1.164053E-17
4.370000E+03	4.593230E-16	1.169971E-17
4.380000E+03	4.651721E-16	1.177400E-17
4.390000E+03	4.717900E-16	1.186555E-17
4.400000E+03	4.793183E-16	1.197752E-17
4.410000E+03	4.878950E-16	1.211289E-17
4.420000E+03	4.976685E-16	1.227480E-17
4.430000E+03	5.087691E-16	1.246586E-17
4.440000E+03	5.213356E-16	1.268878E-17
4.450000E+03	5.354716E-16	1.294533E-17
4.460000E+03	5.512636E-16	1.323682E-17
4.470000E+03	5.687583E-16	1.356352E-17
4.480000E+03	5.879518E-16	1.392450E-17
4.490000E+03	6.087877E-16	1.431755E-17
4.500000E+03	6.311251E-16	1.473857E-17
4.510000E+03	6.547700E-16	1.518228E-17
4.520000E+03	6.794231E-16	1.564113E-17
4.530000E+03	7.047191E-16	1.610624E-17
4.540000E+03	7.302060E-16	1.656702E-17
4.550000E+03	7.553636E-16	1.701163E-17
4.560000E+03	7.796295E-16	1.742765E-17
4.570000E+03	8.024039E-16	1.780219E-17
4.580000E+03	8.230869E-16	1.812279E-17
4.590000E+03	8.411210E-16	1.837831E-17
4.600000E+03	8.560053E-16	1.855920E-17
4.610000E+03	8.673263E-16	1.865816E-17
4.620000E+03	8.748267E-16	1.867151E-17
4.630000E+03	8.783728E-16	1.859835E-17
4.640000E+03	8.779838E-16	1.844109E-17
4.650000E+03	8.738288E-16	1.820529E-17
4.660000E+03	8.662230E-16	1.789937E-17
4.670000E+03	8.555936E-16	1.753388E-17
4.680000E+03	8.424304E-16	1.712032E-17
4.690000E+03	8.273020E-16	1.667147E-17
4.700000E+03	8.107831E-16	1.619984E-17
4.710000E+03	7.934093E-16	1.571678E-17
4.720000E+03	7.757363E-16	1.523365E-17
4.730000E+03	7.582140E-16	1.475938E-17
4.740000E+03	7.412590E-16	1.430195E-17
4.750000E+03	7.252234E-16	1.386783E-17
4.760000E+03	7.103796E-16	1.346171E-17
4.770000E+03	6.969486E-16	1.308715E-17
4.780000E+03	6.850821E-16	1.274624E-17
4.790000E+03	6.749051E-16	1.244051E-17
4.800000E+03	6.664984E-16	1.217056E-17
4.810000E+03	6.599023E-16	1.193622E-17
4.820000E+03	6.551145E-16	1.173652E-17
4.830000E+03	6.521070E-16	1.157004E-17
4.840000E+03	6.508080E-16	1.143461E-17
4.850000E+03	6.511232E-16	1.132771E-17
4.860000E+03	6.529288E-16	1.124639E-17
4.870000E+03	6.560621E-16	1.118712E-17
4.880000E+03	6.603398E-16	1.114611E-17
4.890000E+03	6.655262E-16	1.111887E-17
4.900000E+03	6.713595E-16	1.110060E-17
4.910000E+03	6.775240E-16	1.108583E-17
4.920000E+03	6.836770E-16	1.106884E-17
4.930000E+03	6.894614E-16	1.104395E-17
4.940000E+03	6.945032E-16	1.100543E-17
4.950000E+03	6.984673E-16	1.094845E-17
4.960000E+03	7.010660E-16	1.086910E-17
4.970000E+03	7.020965E-16	1.076501E-17
4.980000E+03	7.014676E-16	1.063561E-17
4.990000E+03	6.992220E-16	1.048242E-17
5.000000E+03	6.955250E-16	1.030873E-17
5.010000E+03	6.906591E-16	1.011944E-17
5.020000E+03	6.850073E-16	9.920700E-18
5.030000E+03	6.789910E-16	9.718960E-18
5.040000E+03	6.730892E-16	9.521196E-18
5.050000E+03	6.677400E-16	9.333485E-18
5.060000E+03	6.633448E-16	9.161112E-18
5.070000E+03	6.602471E-16	9.008299E-18
5.080000E+03	6.586973E-16	8.877794E-18
5.090000E+03	6.588756E-16	8.771245E-18
5.100000E+03	6.608727E-16	8.689020E-18
5.110000E+03	6.647117E-16	8.630549E-18
5.120000E+03	6.703385E-16	8.594273E-18
5.130000E+03	6.776638E-16	8.578229E-18
5.140000E+03	6.865493E-16	8.579915E-18
5.150000E+03	6.968513E-16	8.596859E-18
5.160000E+03	7.084115E-16	8.626517E-18
5.170000E+03	7.210749E-16	8.666494E-18
5.180000E+03	7.347015E-16	8.714687E-18
5.190000E+03	7.491401E-16	8.768956E-18
5.200000E+03	7.642772E-16	8.827703E-18
5.210000E+03	7.799716E-16	8.889096E-18
5.220000E+03	7.961100E-16	8.951711E-18
5.230000E+03	8.125532E-16	9.013918E-18
5.240000E+03	8.291292E-16	9.073816E-18
5.250000E+03	8.456800E-16	9.129772E-18
5.260000E+03	8.620029E-16	9.179771E-18
5.270000E+03	8.778872E-16	9.221839E-18
5.280000E+03	8.931193E-16	9.254099E-18
5.290000E+03	9.074576E-16	9.274507E-18
5.300000E+03	9.206955E-16	9.281508E-18
5.310000E+03	9.326512E-16	9.273901E-18
5.320000E+03	9.431455E-16	9.250604E-18
5.330000E+03	9.521149E-16	9.211736E-18
5.340000E+03	9.595268E-16	9.157733E-18
5.350000E+03	9.654733E-16	9.090205E-18
5.360000E+03	9.701460E-16	9.011621E-18
5.370000E+03	9.738313E-16	8.925207E-18
5.380000E+03	9.769647E-16	8.835381E-18
5.390000E+03	9.800559E-16	8.747004E-18
5.400000E+03	9.836592E-16	8.665085E-18
5.410000E+03	9.883998E-16	8.594999E-18
5.420000E+03	9.948242E-16	8.541180E-18
5.430000E+03	1.003417E-15	8.507327E-18
5.440000E+03	1.014513E-15	8.495704E-18
5.450000E+03	1.028240E-15	8.506780E-18
5.460000E+03	1.044482E-15	8.538998E-18
5.470000E+03	1.062854E-15	8.588682E-18
5.480000E+03	1.082722E-15	8.650356E-18
5.490000E+03	1.103173E-15	8.716582E-18
5.500000E+03	1.123116E-15	8.778879E-18
5.510000E+03	1.141296E-15	8.827866E-18
5.520000E+03	1.156527E-15	8.855066E-18
5.530000E+03	1.167707E-15	8.852947E-18
5.540000E+03	1.174054E-15	8.816628E-18
5.550000E+03	1.175132E-15	8.743857E-18
5.560000E+03	1.170841E-15	8.634828E-18
5.570000E+03	1.161443E-15	8.492327E-18
5.580000E+03	1.147429E-15	8.320640E-18
5.590000E+03	1.129413E-15	8.124751E-18
5.600000E+03	1.108023E-15	7.909540E-18
5.610000E+03	1.083893E-15	7.679756E-18
5.620000E+03	1.057562E-15	7.439307E-18
5.630000E+03	1.029529E-15	7.191709E-18
5.640000E+03	1.000249E-15	6.940054E-18
5.650000E+03	9.702060E-16	6.687563E-18
5.660000E+03	9.399061E-16	6.437525E-18
5.670000E+03	9.099272E-16	6.193642E-18
5.680000E+03	8.808726E-16	5.959709E-18
5.690000E+03	8.533919E-16	5.739761E-18
5.700000E+03	8.280879E-16	5.537440E-18
5.710000E+03	8.055559E-16	5.356275E-18
5.720000E+03	7.862938E-16	5.199089E-18
5.730000E+03	7.707541E-16	5.068365E-18
5.740000E+03	7.592838E-16	4.965852E-18
5.750000E+03	7.521653E-16	4.892858E-18
5.760000E+03	7.495897E-16	4.850081E-18
5.770000E+03	7.516817E-16	4.837780E-18
5.780000E+03	7.584964E-16	4.855771E-18
5.790000E+03	7.699899E-16	4.903237E-18
5.800000E+03	7.860351E-16	4.978854E-18
5.810000E+03	8.063823E-16	5.080544E-18
5.820000E+03	8.306407E-16	5.205382E-18
5.830000E+03	8.582874E-16	5.349675E-18
5.840000E+03	8.886390E-16	5.508806E-18
5.850000E+03	9.208581E-16	5.677304E-18
5.860000E+03	9.539946E-16	5.849121E-18
5.870000E+03	9.870383E-16	6.017974E-18
5.880000E+03	1.018916E-15	6.177348E-18
5.890000E+03	1.048612E-15	6.321214E-18
5.900000E+03	1.075218E-15	6.444367E-18
5.910000E+03	1.097964E-15	6.542532E-18
5.920000E+03	1.116297E-15	6.612858E-18
5.930000E+03	1.129845E-15	6.653651E-18
5.940000E+03	1.138507E-15	6.664861E-18
5.950000E+03	1.142350E-15	6.647449E-18
5.960000E+03	1.141635E-15	6.603497E-18
5.970000E+03	1.136760E-15	6.535846E-18
5.980000E+03	1.128253E-15	6.448033E-18
5.990000E+03	1.116702E-15	6.343863E-18
6.000000E+03	1.102763E-15	6.227446E-18
6.010000E+03	1.087083E-15	6.102753E-18
6.020000E+03	1.070344E-15	5.973861E-18
6.030000E+03	1.053190E-15	5.844543E-18
6.040000E+03	1.036248E-15	5.718397E-18
6.050000E+03	1.020089E-15	5.598638E-18
6.060000E+03	1.005253E-15	5.488237E-18
6.070000E+03	9.921940E-16	5.389653E-18
6.080000E+03	9.813009E-16	5.304949E-18
6.090000E+03	9.729038E-16	5.235849E-18
6.100000E+03	9.672569E-16	5.183662E-18
6.110000E+03	9.645634E-16	5.149434E-18
6.120000E+03	9.649701E-16	5.133925E-18
6.130000E+03	9.685516E-16	5.137551E-18
6.140000E+03	9.753589E-16	5.160643E-18
6.150000E+03	9.853769E-16	5.203235E-18
6.160000E+03	9.985048E-16	5.264974E-18
6.170000E+03	1.014596E-15	5.345326E-18
6.180000E+03	1.033404E-15	5.443310E-18
6.190000E+03	1.054581E-15	5.557460E-18
6.200000E+03	1.077711E-15	5.686019E-18
6.210000E+03	1.102269E-15	5.826698E-18
6.220000E+03	1.127655E-15	5.976824E-18
6.230000E+03	1.153209E-15	6.133400E-18
6.240000E+03	1.178240E-15	6.293176E-18
6.250000E+03	1.202028E-15	6.452440E-18
6.260000E+03	1.223878E-15	6.607411E-18
6.270000E+03	1.243162E-15	6.754537E-18
6.280000E+03	1.259394E-15	6.890864E-18
6.290000E+03	1.272251E-15	7.014184E-18
6.300000E+03	1.281571E-15	7.123038E-18
6.310000E+03	1.287400E-15	7.217033E-18
6.320000E+03	1.289921E-15	7.296478E-18
6.330000E+03	1.289491E-15	7.362663E-18
6.340000E+03	1.286526E-15	7.417239E-18
6.350000E+03	1.281519E-15	7.462375E-18
6.360000E+03	1.274985E-15	7.500442E-18
6.370000E+03	1.267444E-15	7.533970E-18
6.380000E+03	1.259340E-15	7.565159E-18
6.390000E+03	1.251106E-15	7.596254E-18
6.400000E+03	1.243058E-15	7.628907E-18
6.410000E+03	1.235440E-15	7.664410E-18
6.420000E+03	1.228395E-15	7.703525E-18
6.430000E+03	1.221972E-15	7.746444E-18
6.440000E+03	1.216146E-15	7.792932E-18
6.450000E+03	1.210826E-15	7.842333E-18
6.460000E+03	1.205875E-15	7.893665E-18
6.470000E+03	1.201123E-15	7.945711E-18
6.480000E+03	1.196380E-15	7.997076E-18
6.490000E+03	1.191466E-15	8.046399E-18
6.500000E+03	1.186208E-15	8.092313E-18
6.510000E+03	1.180484E-15	8.133787E-18
6.520000E+03	1.174171E-15	8.169732E-18
6.530000E+03	1.167133E-15	8.198967E-18
6.540000E+03	1.159309E-15	8.220806E-18
6.550000E+03	1.150597E-15	8.234268E-18
6.560000E+03	1.140940E-15	8.238693E-18
6.570000E+03	1.130256E-15	8.233220E-18
6.580000E+03	1.118501E-15	8.217275E-18
6.590000E+03	1.105655E-15	8.190453E-18
6.600000E+03	1.091714E-15	8.152505E-18
6.610000E+03	1.076723E-15	8.103536E-18
6.620000E+03	1.060749E-15	8.043864E-18
6.630000E+03	1.043907E-15	7.974191E-18
6.640000E+03	1.026328E-15	7.895405E-18
6.650000E+03	1.008183E-15	7.808724E-18
6.660000E+03	9.896322E-16	7.715344E-18
6.670000E+03	9.708799E-16	7.616844E-18
6.680000E+03	9.520973E-16	7.514598E-18
6.690000E+03	9.334724E-16	7.410146E-18
6.700000E+03	9.151811E-16	7.304977E-18
6.710000E+03	8.973529E-16	7.200235E-18
6.720000E+03	8.801485E-16	7.097342E-18
6.730000E+03	8.636540E-16	6.997137E-18
6.740000E+03	8.479598E-16	6.900505E-18
6.750000E+03	8.331280E-16	6.808106E-18
6.760000E+03	8.191733E-16	6.720214E-18
6.770000E+03	8.060944E-16	6.636966E-18
6.780000E+03	7.938778E-16	6.558390E-18
6.790000E+03	7.824950E-16	6.484380E-18
6.800000E+03	7.718833E-16	6.414535E-18
6.810000E+03	7.620109E-16	6.348697E-18
6.820000E+03	7.528579E-16	6.286798E-18
6.830000E+03	7.444066E-16	6.228779E-18
6.840000E+03	7.366725E-16	6.174852E-18
6.850000E+03	7.297048E-16	6.125502E-18
6.860000E+03	7.235565E-16	6.081244E-18
6.870000E+03	7.183205E-16	6.042917E-18
6.880000E+03	7.140501E-16	6.011025E-18
6.890000E+03	7.108424E-16	5.986424E-18
6.900000E+03	7.087402E-16	5.969508E-18
6.910000E+03	7.077566E-16	5.960403E-18
6.920000E+03	7.078847E-16	5.959054E-18
6.930000E+03	7.090670E-16	5.964967E-18
6.940000E+03	7.112134E-16	5.977362E-18
6.950000E+03	7.141698E-16	5.994912E-18
6.960000E+03	7.177777E-16	6.016252E-18
6.970000E+03	7.218516E-16	6.039786E-18
6.980000E+03	7.261999E-16	6.063879E-18
6.990000E+03	7.306406E-16	6.086981E-18
7.000000E+03	7.350062E-16	6.107680E-18
7.010000E+03	7.391926E-16	6.125103E-18
7.020000E+03	7.431137E-16	6.138544E-18
7.030000E+03	7.467335E-16	6.147718E-18
7.040000E+03	7.500843E-16	6.152915E-18
7.050000E+03	7.532353E-16	6.154726E-18
7.060000E+03	7.562937E-16	6.154051E-18
7.070000E+03	7.593940E-16	6.151997E-18
7.080000E+03	7.626780E-16	6.149717E-18
7.090000E+03	7.663015E-16	6.148456E-18
7.100000E+03	7.704250E-16	6.149470E-18
7.110000E+03	7.751846E-16	6.153796E-18
7.120000E+03	7.806755E-16	6.162120E-18
7.130000E+03	7.870046E-16	6.175201E-18
7.140000E+03	7.942184E-16	6.193306E-18
7.150000E+03	8.023403E-16	6.216508E-18
7.160000E+03	8.113597E-16	6.244614E-18
7.170000E+03	8.212325E-16	6.277176E-18
7.180000E+03	8.318815E-16	6.313503E-18
7.190000E+03	8.431861E-16	6.352600E-18
7.200000E+03	8.550029E-16	6.393330E-18
7.210000E+03	8.671672E-16	6.434438E-18
7.220000E+03	8.794707E-16	6.474395E-18
7.230000E+03	8.916506E-16	6.511336E-18
7.240000E+03	9.034488E-16	6.543503E-18
7.250000E+03	9.145739E-16	6.568977E-18
7.260000E+03	9.247215E-16	6.585833E-18
7.270000E+03	9.335744E-16	6.592148E-18
7.280000E+03	9.408431E-16	6.586283E-18
7.290000E+03	9.462824E-16	6.566995E-18
7.300000E+03	9.496607E-16	6.533206E-18
7.310000E+03	9.508463E-16	6.484586E-18
7.320000E+03	9.497709E-16	6.421268E-18
7.330000E+03	9.464203E-16	6.343767E-18
7.340000E+03	9.409076E-16	6.253442E-18
7.350000E+03	9.333670E-16	6.151757E-18
7.360000E+03	9.240154E-16	6.040672E-18
7.370000E+03	9.131002E-16	5.922280E-18
7.380000E+03	9.009176E-16	5.798921E-18
7.390000E+03	8.877378E-16	5.672683E-18
7.400000E+03	8.738374E-16	5.545626E-18
7.410000E+03	8.594988E-16	5.419772E-18
7.420000E+03	8.449449E-16	5.296705E-18
7.430000E+03	8.303809E-16	5.177844E-18
7.440000E+03	8.159912E-16	5.064438E-18
7.450000E+03	8.019396E-16	4.957571E-18
7.460000E+03	7.883611E-16	4.858120E-18
7.470000E+03	7.753556E-16	4.766731E-18
7.480000E+03	7.630120E-16	4.683971E-18
7.490000E+03	7.513922E-16	4.610233E-18
7.500000E+03	7.405546E-16	4.545892E-18
7.510000E+03	7.305276E-16	4.491141E-18
7.520000E+03	7.213604E-16	4.446309E-18
7.530000E+03	7.130671E-16	4.411520E-18
7.540000E+03	7.056756E-16	4.386994E-18
7.550000E+03	6.992000E-16	4.372871E-18
7.560000E+03	6.936591E-16	4.369224E-18
7.570000E+03	6.890402E-16	4.375889E-18
7.580000E+03	6.853626E-16	4.392931E-18
7.590000E+03	6.826126E-16	4.420234E-18
7.600000E+03	6.807886E-16	4.457784E-18
7.610000E+03	6.798723E-16	4.505486E-18
7.620000E+03	6.798371E-16	4.563211E-18
7.630000E+03	6.806379E-16	4.630723E-18
7.640000E+03	6.822470E-16	4.707915E-18
7.650000E+03	6.846013E-16	4.794447E-18
7.660000E+03	6.876475E-16	4.890041E-18
7.670000E+03	6.912972E-16	4.994169E-18
7.680000E+03	6.954923E-16	5.106496E-18
7.690000E+03	7.001505E-16	5.226499E-18
7.700000E+03	7.051752E-16	5.353516E-18
7.710000E+03	7.104846E-16	5.486961E-18
7.720000E+03	7.159754E-16	5.626044E-18
7.730000E+03	7.215619E-16	5.770064E-18
7.740000E+03	7.271391E-16	5.918122E-18
7.750000E+03	7.326224E-16	6.069429E-18
7.760000E+03	7.379204E-16	6.223085E-18
