#wls	flux	fluxerr
1.588988E+03	2.468435E-17	1.488156E-18
1.628713E+03	2.538161E-17	1.518529E-18
1.668438E+03	2.605007E-17	1.546390E-18
1.708162E+03	2.671946E-17	1.573520E-18
1.747887E+03	2.736335E-17	1.598364E-18
1.787612E+03	2.796747E-17	1.620127E-18
1.827337E+03	2.853417E-17	1.638993E-18
1.867061E+03	2.901432E-17	1.652216E-18
1.906786E+03	2.940165E-17	1.659568E-18
1.946511E+03	2.964650E-17	1.658409E-18
1.986235E+03	2.976470E-17	1.649835E-18
2.025960E+03	2.978341E-17	1.635539E-18
2.065685E+03	2.983088E-17	1.622654E-18
2.105410E+03	3.010213E-17	1.621651E-18
2.145134E+03	3.087020E-17	1.646748E-18
2.184859E+03	3.230983E-17	1.706386E-18
2.224584E+03	3.451511E-17	1.804411E-18
2.264308E+03	3.742876E-17	1.936619E-18
2.304033E+03	4.096464E-17	2.097444E-18
2.343758E+03	4.497522E-17	2.278383E-18
2.383482E+03	4.937663E-17	2.474423E-18
2.423207E+03	5.409689E-17	2.681311E-18
2.462932E+03	5.907590E-17	2.895514E-18
2.502657E+03	6.425325E-17	3.113603E-18
2.542381E+03	6.955947E-17	3.331837E-18
2.582106E+03	7.491314E-17	3.546055E-18
2.621831E+03	8.024736E-17	3.752949E-18
2.661555E+03	8.546170E-17	3.947809E-18
2.701280E+03	9.051375E-17	4.128799E-18
2.741005E+03	9.534793E-17	4.293591E-18
2.780730E+03	9.991612E-17	4.440319E-18
2.820454E+03	1.041785E-16	4.567600E-18
2.860179E+03	1.081288E-16	4.675613E-18
2.899904E+03	1.117450E-16	4.763885E-18
2.939628E+03	1.150131E-16	4.832343E-18
2.979353E+03	1.179764E-16	4.883350E-18
2.989284E+03	1.186819E-16	4.893938E-18
2.999215E+03	1.193558E-16	4.902955E-18
3.009147E+03	1.200230E-16	4.911434E-18
3.019078E+03	1.206589E-16	4.918371E-18
3.029009E+03	1.212635E-16	4.923781E-18
3.038940E+03	1.218876E-16	4.929730E-18
3.048871E+03	1.224850E-16	4.934352E-18
3.058802E+03	1.230619E-16	4.937896E-18
3.068734E+03	1.236413E-16	4.941296E-18
3.078665E+03	1.242220E-16	4.944501E-18
3.088596E+03	1.248029E-16	4.947458E-18
3.098527E+03	1.253588E-16	4.949178E-18
3.108458E+03	1.259130E-16	4.950582E-18
3.118390E+03	1.264648E-16	4.951644E-18
3.128321E+03	1.270132E-16	4.952326E-18
3.138252E+03	1.275341E-16	4.951685E-18
3.148183E+03	1.280743E-16	4.951546E-18
3.158114E+03	1.285860E-16	4.950060E-18
3.168045E+03	1.290926E-16	4.948130E-18
3.177977E+03	1.296168E-16	4.946628E-18
3.187908E+03	1.301118E-16	4.943764E-18
3.197839E+03	1.306007E-16	4.940424E-18
3.207770E+03	1.311063E-16	4.937463E-18
3.217701E+03	1.315826E-16	4.933153E-18
3.227633E+03	1.320750E-16	4.929199E-18
3.237564E+03	1.325607E-16	4.924745E-18
3.247495E+03	1.330400E-16	4.919798E-18
3.257426E+03	1.335348E-16	4.915175E-18
3.267357E+03	1.340231E-16	4.910051E-18
3.277288E+03	1.345051E-16	4.904436E-18
3.287220E+03	1.350026E-16	4.899129E-18
3.297151E+03	1.355157E-16	4.894117E-18
3.307082E+03	1.360228E-16	4.888617E-18
3.317013E+03	1.365245E-16	4.882651E-18
3.326944E+03	1.370634E-16	4.877734E-18
3.336875E+03	1.375973E-16	4.872353E-18
3.346807E+03	1.381685E-16	4.867999E-18
3.356738E+03	1.387355E-16	4.863196E-18
3.366669E+03	1.393198E-16	4.858690E-18
3.376600E+03	1.399218E-16	4.854486E-18
3.386531E+03	1.405421E-16	4.850593E-18
3.396463E+03	1.412016E-16	4.847714E-18
3.406394E+03	1.418806E-16	4.845162E-18
3.416325E+03	1.425806E-16	4.842965E-18
3.426256E+03	1.433223E-16	4.841812E-18
3.436187E+03	1.441070E-16	4.841722E-18
3.446118E+03	1.449174E-16	4.842091E-18
3.456050E+03	1.457563E-16	4.842996E-18
3.465981E+03	1.466653E-16	4.845793E-18
3.475912E+03	1.476290E-16	4.849935E-18
3.485843E+03	1.486335E-16	4.854930E-18
3.495774E+03	1.497213E-16	4.862137E-18
3.505705E+03	1.508790E-16	4.871073E-18
3.515637E+03	1.521126E-16	4.881886E-18
3.525568E+03	1.534468E-16	4.895317E-18
3.535499E+03	1.548878E-16	4.911503E-18
3.545430E+03	1.564248E-16	4.930033E-18
3.555361E+03	1.580652E-16	4.951083E-18
3.565293E+03	1.598529E-16	4.975956E-18
3.575224E+03	1.617782E-16	5.004260E-18
3.585155E+03	1.638503E-16	5.036190E-18
3.595086E+03	1.660788E-16	5.071946E-18
3.605017E+03	1.684739E-16	5.111743E-18
3.614948E+03	1.710642E-16	5.156337E-18
3.624880E+03	1.738439E-16	5.205429E-18
3.634811E+03	1.768429E-16	5.259791E-18
3.644742E+03	1.800746E-16	5.319679E-18
3.654673E+03	1.835531E-16	5.385355E-18
3.664604E+03	1.872933E-16	5.457099E-18
3.674535E+03	1.913111E-16	5.535199E-18
3.684467E+03	1.956411E-16	5.620474E-18
3.694398E+03	2.002655E-16	5.712207E-18
3.704329E+03	2.052569E-16	5.812269E-18
3.714260E+03	2.105994E-16	5.919972E-18
3.724191E+03	2.163322E-16	6.036176E-18
3.734123E+03	2.224778E-16	6.161251E-18
3.744054E+03	2.290782E-16	6.296079E-18
3.753985E+03	2.361206E-16	6.440007E-18
3.763916E+03	2.436680E-16	6.594445E-18
3.773847E+03	2.517466E-16	6.759764E-18
3.783778E+03	2.603637E-16	6.935798E-18
3.793710E+03	2.695647E-16	7.123388E-18
3.803641E+03	2.793960E-16	7.323355E-18
3.813572E+03	2.898413E-16	7.534851E-18
3.823503E+03	3.009634E-16	7.759073E-18
3.833434E+03	3.127807E-16	7.996031E-18
3.843365E+03	3.252836E-16	8.245008E-18
3.853297E+03	3.384964E-16	8.506144E-18
3.863228E+03	3.524108E-16	8.778738E-18
3.873159E+03	3.670276E-16	9.062324E-18
3.883090E+03	3.822629E-16	9.354357E-18
3.893021E+03	3.981319E-16	9.654773E-18
3.902953E+03	4.145142E-16	9.960227E-18
3.912884E+03	4.313164E-16	1.026812E-17
3.922815E+03	4.484774E-16	1.057672E-17
3.932746E+03	4.658444E-16	1.088218E-17
3.942677E+03	4.833011E-16	1.118163E-17
3.952608E+03	5.006677E-16	1.147089E-17
3.962540E+03	5.177834E-16	1.174633E-17
3.972471E+03	5.345394E-16	1.200567E-17
3.982402E+03	5.507206E-16	1.224433E-17
3.992333E+03	5.662290E-16	1.246055E-17
4.002264E+03	5.808957E-16	1.265107E-17
4.012195E+03	5.946228E-16	1.281437E-17
4.022127E+03	6.072746E-16	1.294818E-17
4.032058E+03	6.187899E-16	1.305194E-17
4.041989E+03	6.290986E-16	1.312496E-17
4.051920E+03	6.381502E-16	1.316705E-17
4.061851E+03	6.459141E-16	1.317844E-17
4.071783E+03	6.524073E-16	1.316039E-17
4.081714E+03	6.576137E-16	1.311345E-17
4.091645E+03	6.615675E-16	1.303921E-17
4.101576E+03	6.643781E-16	1.294069E-17
4.111507E+03	6.660757E-16	1.281928E-17
4.121438E+03	6.667944E-16	1.267833E-17
4.131370E+03	6.666431E-16	1.252058E-17
4.141301E+03	6.658260E-16	1.235046E-17
4.151232E+03	6.644921E-16	1.217118E-17
4.161163E+03	6.628499E-16	1.198690E-17
4.171094E+03	6.610476E-16	1.180051E-17
4.181025E+03	6.593259E-16	1.161639E-17
4.190957E+03	6.578564E-16	1.143750E-17
4.200888E+03	6.568270E-16	1.126692E-17
4.210819E+03	6.564164E-16	1.110739E-17
4.220750E+03	6.568104E-16	1.096162E-17
4.230681E+03	6.581406E-16	1.083125E-17
4.240613E+03	6.605428E-16	1.071787E-17
4.250544E+03	6.641552E-16	1.062299E-17
4.260475E+03	6.690442E-16	1.054686E-17
4.270406E+03	6.753191E-16	1.049035E-17
4.280337E+03	6.830760E-16	1.045401E-17
4.290268E+03	6.923468E-16	1.043739E-17
4.300200E+03	7.031911E-16	1.044038E-17
4.310131E+03	7.156959E-16	1.046327E-17
4.320062E+03	7.298540E-16	1.050490E-17
4.329993E+03	7.457453E-16	1.056539E-17
4.339924E+03	7.633983E-16	1.064407E-17
4.349856E+03	7.828686E-16	1.074064E-17
4.359787E+03	8.042113E-16	1.085477E-17
4.369718E+03	8.275403E-16	1.098689E-17
4.379649E+03	8.529411E-16	1.113699E-17
4.389580E+03	8.805935E-16	1.130621E-17
4.399511E+03	9.106034E-16	1.149465E-17
4.409443E+03	9.431720E-16	1.170355E-17
4.419374E+03	9.784425E-16	1.193329E-17
4.429305E+03	1.016533E-15	1.218392E-17
4.439236E+03	1.057526E-15	1.245499E-17
4.449167E+03	1.101464E-15	1.274562E-17
4.459098E+03	1.148311E-15	1.305404E-17
4.469030E+03	1.197860E-15	1.337671E-17
4.478961E+03	1.249858E-15	1.370982E-17
4.488892E+03	1.303836E-15	1.404750E-17
4.498823E+03	1.359210E-15	1.438313E-17
4.508754E+03	1.415200E-15	1.470856E-17
4.518686E+03	1.470961E-15	1.501565E-17
4.528617E+03	1.525515E-15	1.529555E-17
4.538548E+03	1.577786E-15	1.553908E-17
4.548479E+03	1.626693E-15	1.573777E-17
4.558410E+03	1.671185E-15	1.588412E-17
4.568341E+03	1.710247E-15	1.597165E-17
4.578273E+03	1.743095E-15	1.599658E-17
4.588204E+03	1.769105E-15	1.595692E-17
4.598135E+03	1.787883E-15	1.585302E-17
4.608066E+03	1.799385E-15	1.568831E-17
4.617997E+03	1.803880E-15	1.546881E-17
4.627928E+03	1.801903E-15	1.520238E-17
4.637860E+03	1.794335E-15	1.489931E-17
4.647791E+03	1.782251E-15	1.457083E-17
4.657722E+03	1.766954E-15	1.422929E-17
4.667653E+03	1.749821E-15	1.388687E-17
4.677584E+03	1.732229E-15	1.355505E-17
4.687516E+03	1.715462E-15	1.324390E-17
4.697447E+03	1.700662E-15	1.296189E-17
4.707378E+03	1.688739E-15	1.271534E-17
4.717309E+03	1.680392E-15	1.250874E-17
4.727240E+03	1.676223E-15	1.234577E-17
4.737171E+03	1.676639E-15	1.222859E-17
4.747103E+03	1.681970E-15	1.215889E-17
4.757034E+03	1.692404E-15	1.213746E-17
4.766965E+03	1.708010E-15	1.216436E-17
4.776896E+03	1.728683E-15	1.223862E-17
4.786827E+03	1.754070E-15	1.235777E-17
4.796758E+03	1.783661E-15	1.251840E-17
4.806690E+03	1.816703E-15	1.271524E-17
4.816621E+03	1.852176E-15	1.294100E-17
4.826552E+03	1.889008E-15	1.318816E-17
4.836483E+03	1.925957E-15	1.344796E-17
4.846414E+03	1.961779E-15	1.371161E-17
4.856346E+03	1.995313E-15	1.397073E-17
4.866277E+03	2.025390E-15	1.421674E-17
4.876208E+03	2.051009E-15	1.444199E-17
4.886139E+03	2.071240E-15	1.463909E-17
4.896070E+03	2.085340E-15	1.480173E-17
4.906001E+03	2.092663E-15	1.492408E-17
4.915933E+03	2.092812E-15	1.500184E-17
4.925864E+03	2.085658E-15	1.503251E-17
4.935795E+03	2.071224E-15	1.501459E-17
4.945726E+03	2.049813E-15	1.494856E-17
4.955657E+03	2.021984E-15	1.483682E-17
4.965588E+03	1.988397E-15	1.468262E-17
4.975520E+03	1.949950E-15	1.449111E-17
4.985451E+03	1.907689E-15	1.426880E-17
4.995382E+03	1.862744E-15	1.402305E-17
5.005313E+03	1.816361E-15	1.376242E-17
5.015244E+03	1.769794E-15	1.349582E-17
5.025176E+03	1.724285E-15	1.323241E-17
5.035107E+03	1.680971E-15	1.298082E-17
5.045038E+03	1.640860E-15	1.274898E-17
5.054969E+03	1.604836E-15	1.254405E-17
5.064900E+03	1.573560E-15	1.237165E-17
5.074831E+03	1.547555E-15	1.223646E-17
5.084763E+03	1.527174E-15	1.214189E-17
5.094694E+03	1.512599E-15	1.209004E-17
5.104625E+03	1.503808E-15	1.208138E-17
5.114556E+03	1.500664E-15	1.211544E-17
5.124487E+03	1.502866E-15	1.219035E-17
5.134418E+03	1.510034E-15	1.230354E-17
5.144350E+03	1.521707E-15	1.245166E-17
5.154281E+03	1.537423E-15	1.263128E-17
5.164212E+03	1.556661E-15	1.283838E-17
5.174143E+03	1.578948E-15	1.306928E-17
5.184074E+03	1.603820E-15	1.332025E-17
5.194006E+03	1.630800E-15	1.358742E-17
5.203937E+03	1.659498E-15	1.386758E-17
5.213868E+03	1.689539E-15	1.415759E-17
5.223799E+03	1.720563E-15	1.445445E-17
5.233730E+03	1.752255E-15	1.475545E-17
5.243661E+03	1.784301E-15	1.505793E-17
5.253593E+03	1.816425E-15	1.535950E-17
5.263524E+03	1.848379E-15	1.565803E-17
5.273455E+03	1.879869E-15	1.595103E-17
5.283386E+03	1.910648E-15	1.623637E-17
5.293317E+03	1.940499E-15	1.651220E-17
5.303248E+03	1.969162E-15	1.677635E-17
5.313180E+03	1.996442E-15	1.702720E-17
5.323111E+03	2.022172E-15	1.726342E-17
5.333042E+03	2.046232E-15	1.748405E-17
5.342973E+03	2.068500E-15	1.768821E-17
5.352904E+03	2.088991E-15	1.787615E-17
5.362836E+03	2.107679E-15	1.804785E-17
5.372767E+03	2.124598E-15	1.820379E-17
5.382698E+03	2.139848E-15	1.834507E-17
5.392629E+03	2.153478E-15	1.847234E-17
5.402560E+03	2.165598E-15	1.858681E-17
5.412491E+03	2.176261E-15	1.868920E-17
5.422423E+03	2.185505E-15	1.878013E-17
5.432354E+03	2.193381E-15	1.886028E-17
5.442285E+03	2.199906E-15	1.893012E-17
5.452216E+03	2.205135E-15	1.899035E-17
5.462147E+03	2.209058E-15	1.904119E-17
5.472078E+03	2.211711E-15	1.908320E-17
5.482010E+03	2.213077E-15	1.911649E-17
5.491941E+03	2.213254E-15	1.914206E-17
5.501872E+03	2.212290E-15	1.916008E-17
5.511803E+03	2.210391E-15	1.917203E-17
5.521734E+03	2.207722E-15	1.917904E-17
5.531666E+03	2.204455E-15	1.918227E-17
5.541597E+03	2.200703E-15	1.918238E-17
5.551528E+03	2.196476E-15	1.917918E-17
5.561459E+03	2.191662E-15	1.917136E-17
5.571390E+03	2.186030E-15	1.915661E-17
5.581321E+03	2.179255E-15	1.913173E-17
5.591253E+03	2.170936E-15	1.909290E-17
5.601184E+03	2.160686E-15	1.903638E-17
5.611115E+03	2.148147E-15	1.895867E-17
5.621046E+03	2.133099E-15	1.885749E-17
5.630977E+03	2.115419E-15	1.873144E-17
5.640909E+03	2.095176E-15	1.858080E-17
5.650840E+03	2.072611E-15	1.840746E-17
5.660771E+03	2.048183E-15	1.821525E-17
5.670702E+03	2.022519E-15	1.800958E-17
5.680633E+03	1.996428E-15	1.779751E-17
5.690564E+03	1.970833E-15	1.758718E-17
5.700496E+03	1.946669E-15	1.738689E-17
5.710427E+03	1.924927E-15	1.720548E-17
5.720358E+03	1.906504E-15	1.705100E-17
5.730289E+03	1.892199E-15	1.693059E-17
5.740220E+03	1.882690E-15	1.685033E-17
5.750151E+03	1.878458E-15	1.681452E-17
5.760083E+03	1.879801E-15	1.682578E-17
5.770014E+03	1.886775E-15	1.688454E-17
5.779945E+03	1.899217E-15	1.698923E-17
5.789876E+03	1.916786E-15	1.713663E-17
5.799807E+03	1.938940E-15	1.732172E-17
5.809739E+03	1.964987E-15	1.753811E-17
5.819670E+03	1.994131E-15	1.777846E-17
5.829601E+03	2.025480E-15	1.803461E-17
5.839532E+03	2.058022E-15	1.829738E-17
5.849463E+03	2.090820E-15	1.855827E-17
5.859394E+03	2.122851E-15	1.880811E-17
5.869326E+03	2.153214E-15	1.903892E-17
5.879257E+03	2.181143E-15	1.924396E-17
5.889188E+03	2.205944E-15	1.941725E-17
5.899119E+03	2.227158E-15	1.955498E-17
5.909050E+03	2.244503E-15	1.965498E-17
5.918981E+03	2.257910E-15	1.971700E-17
5.928913E+03	2.267479E-15	1.974236E-17
5.938844E+03	2.273481E-15	1.973387E-17
5.948775E+03	2.276339E-15	1.969568E-17
5.958706E+03	2.276619E-15	1.963317E-17
5.968637E+03	2.274944E-15	1.955218E-17
5.978569E+03	2.271986E-15	1.945892E-17
5.988500E+03	2.268435E-15	1.935971E-17
5.998431E+03	2.264908E-15	1.926018E-17
6.008362E+03	2.262014E-15	1.916583E-17
6.018293E+03	2.260232E-15	1.908103E-17
6.028224E+03	2.259912E-15	1.900899E-17
6.038156E+03	2.261331E-15	1.895231E-17
6.048087E+03	2.264656E-15	1.891265E-17
6.058018E+03	2.269864E-15	1.889012E-17
6.067949E+03	2.276831E-15	1.888398E-17
6.077880E+03	2.285279E-15	1.889231E-17
6.087811E+03	2.294748E-15	1.891174E-17
6.097743E+03	2.304632E-15	1.893777E-17
6.107674E+03	2.314164E-15	1.896467E-17
6.117605E+03	2.322447E-15	1.898576E-17
6.127536E+03	2.328524E-15	1.899392E-17
6.137467E+03	2.331405E-15	1.898184E-17
6.147399E+03	2.330254E-15	1.894347E-17
6.157330E+03	2.324534E-15	1.887518E-17
6.167261E+03	2.313975E-15	1.877544E-17
6.177192E+03	2.298582E-15	1.864486E-17
6.187123E+03	2.278584E-15	1.848573E-17
6.197054E+03	2.254364E-15	1.830146E-17
6.206986E+03	2.226415E-15	1.809623E-17
6.216917E+03	2.195388E-15	1.787536E-17
6.226848E+03	2.162075E-15	1.764523E-17
6.236779E+03	2.127391E-15	1.741319E-17
6.246710E+03	2.092413E-15	1.718779E-17
6.256641E+03	2.058355E-15	1.697833E-17
6.266573E+03	2.026500E-15	1.679460E-17
6.276504E+03	1.998179E-15	1.664707E-17
6.286435E+03	1.974795E-15	1.654713E-17
6.296366E+03	1.957723E-15	1.650630E-17
6.306297E+03	1.948392E-15	1.653704E-17
6.316229E+03	1.948166E-15	1.665173E-17
6.326160E+03	1.958365E-15	1.686288E-17
6.336091E+03	1.980300E-15	1.718349E-17
6.346022E+03	2.015300E-15	1.762723E-17
6.355953E+03	2.064676E-15	1.820820E-17
6.365884E+03	2.129799E-15	1.894158E-17
6.375816E+03	2.212101E-15	1.984372E-17
6.385747E+03	2.313008E-15	2.093151E-17
6.395678E+03	2.434032E-15	2.222320E-17
6.405609E+03	2.576428E-15	2.373530E-17
6.415540E+03	2.741206E-15	2.548256E-17
6.425471E+03	2.928774E-15	2.747447E-17
6.435403E+03	3.138831E-15	2.971395E-17
6.445334E+03	3.370090E-15	3.219444E-17
6.455265E+03	3.620102E-15	3.489764E-17
6.465196E+03	3.885111E-15	3.779160E-17
6.475127E+03	4.160010E-15	4.082970E-17
6.485059E+03	4.438407E-15	4.395063E-17
6.494990E+03	4.712784E-15	4.707947E-17
6.504921E+03	4.975000E-15	5.013225E-17
6.514852E+03	5.216591E-15	5.301876E-17
6.524783E+03	5.429370E-15	5.564864E-17
6.534714E+03	5.606262E-15	5.794022E-17
6.544646E+03	5.741431E-15	5.982238E-17
6.554577E+03	5.831160E-15	6.124446E-17
6.564508E+03	5.873640E-15	6.217499E-17
6.574439E+03	5.869238E-15	6.260541E-17
6.584370E+03	5.820336E-15	6.254932E-17
6.594301E+03	5.730765E-15	6.203714E-17
6.604233E+03	5.605783E-15	6.111648E-17
6.614164E+03	5.451318E-15	5.984427E-17
6.624095E+03	5.273768E-15	5.828488E-17
6.634026E+03	5.079379E-15	5.650314E-17
6.643957E+03	4.874108E-15	5.456276E-17
6.653889E+03	4.663332E-15	5.252278E-17
6.663820E+03	4.451654E-15	5.043515E-17
6.673751E+03	4.242997E-15	4.834534E-17
6.683682E+03	4.040385E-15	4.628962E-17
6.693613E+03	3.846146E-15	4.429698E-17
6.703544E+03	3.661929E-15	4.238909E-17
6.713476E+03	3.488795E-15	4.058108E-17
6.723407E+03	3.327281E-15	3.888210E-17
6.733338E+03	3.177618E-15	3.729771E-17
6.743269E+03	3.039639E-15	3.582868E-17
6.753200E+03	2.913118E-15	3.447497E-17
6.763131E+03	2.797589E-15	3.323347E-17
6.773063E+03	2.692521E-15	3.210008E-17
6.782994E+03	2.597383E-15	3.107048E-17
6.792925E+03	2.511677E-15	3.014055E-17
6.802856E+03	2.434862E-15	2.930545E-17
6.812787E+03	2.366454E-15	2.856080E-17
6.822719E+03	2.305993E-15	2.790239E-17
6.832650E+03	2.253039E-15	2.732605E-17
6.842581E+03	2.207162E-15	2.682760E-17
6.852512E+03	2.167905E-15	2.640238E-17
6.862443E+03	2.134829E-15	2.604582E-17
6.872374E+03	2.107478E-15	2.575303E-17
6.882306E+03	2.085396E-15	2.551901E-17
6.892237E+03	2.068032E-15	2.533748E-17
6.902168E+03	2.054912E-15	2.520304E-17
6.912099E+03	2.045442E-15	2.510873E-17
6.922030E+03	2.039070E-15	2.504803E-17
6.931962E+03	2.035271E-15	2.501472E-17
6.941893E+03	2.033507E-15	2.500236E-17
6.951824E+03	2.033219E-15	2.500424E-17
6.961755E+03	2.033992E-15	2.501539E-17
6.971686E+03	2.035368E-15	2.503033E-17
6.981617E+03	2.037034E-15	2.504533E-17
6.991549E+03	2.038726E-15	2.505731E-17
7.001480E+03	2.040265E-15	2.506424E-17
7.011411E+03	2.041520E-15	2.506468E-17
7.021342E+03	2.042458E-15	2.505842E-17
7.031273E+03	2.043107E-15	2.504602E-17
7.041204E+03	2.043567E-15	2.502892E-17
7.051136E+03	2.043891E-15	2.500803E-17
7.061067E+03	2.044228E-15	2.498539E-17
7.070998E+03	2.044704E-15	2.496280E-17
7.080929E+03	2.045408E-15	2.494161E-17
7.090860E+03	2.046466E-15	2.492362E-17
7.100792E+03	2.047928E-15	2.490972E-17
7.110723E+03	2.049872E-15	2.490117E-17
7.120654E+03	2.052272E-15	2.489791E-17
7.130585E+03	2.055158E-15	2.490066E-17
7.140516E+03	2.058515E-15	2.490954E-17
7.150447E+03	2.062311E-15	2.492451E-17
7.160379E+03	2.066468E-15	2.494502E-17
7.170310E+03	2.070948E-15	2.497098E-17
7.180241E+03	2.075642E-15	2.500148E-17
7.190172E+03	2.080450E-15	2.503577E-17
7.200103E+03	2.085286E-15	2.507325E-17
7.210034E+03	2.089965E-15	2.511217E-17
7.219966E+03	2.094372E-15	2.515164E-17
7.229897E+03	2.098359E-15	2.519039E-17
7.239828E+03	2.101782E-15	2.522719E-17
7.249759E+03	2.104505E-15	2.526097E-17
7.259690E+03	2.106385E-15	2.529049E-17
7.269622E+03	2.107357E-15	2.531552E-17
7.279553E+03	2.107327E-15	2.533541E-17
7.289484E+03	2.106252E-15	2.535015E-17
7.299415E+03	2.104136E-15	2.536025E-17
7.309346E+03	2.100944E-15	2.536573E-17
7.319277E+03	2.096672E-15	2.536695E-17
7.329209E+03	2.091346E-15	2.536459E-17
7.339140E+03	2.084928E-15	2.535854E-17
7.349071E+03	2.077402E-15	2.534889E-17
7.359002E+03	2.068768E-15	2.533588E-17
7.368933E+03	2.058959E-15	2.531888E-17
7.378864E+03	2.047933E-15	2.529746E-17
7.388796E+03	2.035672E-15	2.527145E-17
7.398727E+03	2.022111E-15	2.524002E-17
7.408658E+03	2.007231E-15	2.520279E-17
7.418589E+03	1.991060E-15	2.515993E-17
7.428520E+03	1.973603E-15	2.511100E-17
7.438452E+03	1.954933E-15	2.505609E-17
7.448383E+03	1.935191E-15	2.499613E-17
7.458314E+03	1.914545E-15	2.493236E-17
7.468245E+03	1.893220E-15	2.486683E-17
7.478176E+03	1.871466E-15	2.480199E-17
7.488107E+03	1.849655E-15	2.474202E-17
7.498039E+03	1.828103E-15	2.469050E-17
7.507970E+03	1.807159E-15	2.465169E-17
7.517901E+03	1.787169E-15	2.462995E-17
7.527832E+03	1.768493E-15	2.463010E-17
7.537763E+03	1.751422E-15	2.465626E-17
7.547694E+03	1.736276E-15	2.471317E-17
7.557626E+03	1.723300E-15	2.480475E-17
7.567557E+03	1.712789E-15	2.493588E-17
7.577488E+03	1.704928E-15	2.511008E-17
7.587419E+03	1.699858E-15	2.533046E-17
7.597350E+03	1.697771E-15	2.560100E-17
7.607282E+03	1.698638E-15	2.592258E-17
7.617213E+03	1.702507E-15	2.629730E-17
7.627144E+03	1.709208E-15	2.672395E-17
7.637075E+03	1.718583E-15	2.720147E-17
7.647006E+03	1.730282E-15	2.772565E-17
7.656937E+03	1.743978E-15	2.829241E-17
7.666869E+03	1.759234E-15	2.889567E-17
7.676800E+03	1.775545E-15	2.952788E-17
7.686731E+03	1.792450E-15	3.018183E-17
7.696662E+03	1.809467E-15	3.084961E-17
7.706593E+03	1.826180E-15	3.152401E-17
