#wls	flux	fluxerr
1.588988E+03	2.328005E-17	2.381588E-18
1.628713E+03	2.400154E-17	2.442880E-18
1.668438E+03	2.470937E-17	2.501859E-18
1.708162E+03	2.539235E-17	2.557408E-18
1.747887E+03	2.606374E-17	2.610884E-18
1.787612E+03	2.669443E-17	2.659398E-18
1.827337E+03	2.727458E-17	2.702032E-18
1.867061E+03	2.778126E-17	2.736608E-18
1.906786E+03	2.819719E-17	2.761555E-18
1.946511E+03	2.848286E-17	2.773178E-18
1.986235E+03	2.864276E-17	2.772139E-18
2.025960E+03	2.871722E-17	2.762543E-18
2.065685E+03	2.882125E-17	2.755543E-18
2.105410E+03	2.916036E-17	2.770621E-18
2.145134E+03	2.995066E-17	2.827764E-18
2.184859E+03	3.137430E-17	2.943251E-18
2.224584E+03	3.346796E-17	3.119349E-18
2.264308E+03	3.617397E-17	3.349491E-18
2.304033E+03	3.934247E-17	3.618761E-18
2.343758E+03	4.285431E-17	3.915403E-18
2.383482E+03	4.660371E-17	4.229153E-18
2.423207E+03	5.053922E-17	4.554896E-18
2.462932E+03	5.460918E-17	4.887622E-18
2.502657E+03	5.879685E-17	5.225550E-18
2.542381E+03	6.306344E-17	5.564993E-18
2.582106E+03	6.738097E-17	5.903308E-18
2.621831E+03	7.171783E-17	6.237607E-18
2.661555E+03	7.603521E-17	6.564463E-18
2.701280E+03	8.028802E-17	6.880011E-18
2.741005E+03	8.442813E-17	7.180249E-18
2.780730E+03	8.838925E-17	7.459773E-18
2.820454E+03	9.214080E-17	7.716349E-18
2.860179E+03	9.562022E-17	7.945172E-18
2.899904E+03	9.880591E-17	8.144991E-18
2.939628E+03	1.016831E-16	8.315172E-18
2.979353E+03	1.042068E-16	8.452633E-18
2.989284E+03	1.047770E-16	8.481527E-18
2.999215E+03	1.053416E-16	8.509755E-18
3.009147E+03	1.058813E-16	8.535770E-18
3.019078E+03	1.063959E-16	8.559574E-18
3.029009E+03	1.069043E-16	8.582691E-18
3.038940E+03	1.073695E-16	8.602159E-18
3.048871E+03	1.078323E-16	8.621259E-18
3.058802E+03	1.082977E-16	8.640395E-18
3.068734E+03	1.087454E-16	8.657947E-18
3.078665E+03	1.091742E-16	8.673828E-18
3.088596E+03	1.096021E-16	8.689475E-18
3.098527E+03	1.100092E-16	8.703313E-18
3.108458E+03	1.103946E-16	8.715290E-18
3.118390E+03	1.107768E-16	8.726859E-18
3.128321E+03	1.111551E-16	8.737969E-18
3.138252E+03	1.115288E-16	8.748582E-18
3.148183E+03	1.118788E-16	8.757188E-18
3.158114E+03	1.122048E-16	8.763786E-18
3.168045E+03	1.125442E-16	8.771294E-18
3.177977E+03	1.128592E-16	8.776771E-18
3.187908E+03	1.131685E-16	8.781681E-18
3.197839E+03	1.134720E-16	8.786023E-18
3.207770E+03	1.137698E-16	8.789798E-18
3.217701E+03	1.140620E-16	8.793021E-18
3.227633E+03	1.143488E-16	8.795710E-18
3.237564E+03	1.146303E-16	8.797877E-18
3.247495E+03	1.149068E-16	8.799552E-18
3.257426E+03	1.151789E-16	8.800771E-18
3.267357E+03	1.154467E-16	8.801558E-18
3.277288E+03	1.157288E-16	8.803324E-18
3.287220E+03	1.160076E-16	8.804725E-18
3.297151E+03	1.162837E-16	8.805813E-18
3.307082E+03	1.165755E-16	8.807976E-18
3.317013E+03	1.168658E-16	8.809909E-18
3.326944E+03	1.171730E-16	8.812998E-18
3.336875E+03	1.174801E-16	8.815963E-18
3.346807E+03	1.178228E-16	8.821475E-18
3.356738E+03	1.181671E-16	8.826973E-18
3.366669E+03	1.185139E-16	8.832528E-18
3.376600E+03	1.188985E-16	8.840766E-18
3.386531E+03	1.193046E-16	8.850456E-18
3.396463E+03	1.197163E-16	8.860410E-18
3.406394E+03	1.201687E-16	8.873215E-18
3.416325E+03	1.206458E-16	8.887677E-18
3.426256E+03	1.211655E-16	8.905100E-18
3.436187E+03	1.217125E-16	8.924339E-18
3.446118E+03	1.222881E-16	8.945476E-18
3.456050E+03	1.229104E-16	8.969815E-18
3.465981E+03	1.235647E-16	8.996266E-18
3.475912E+03	1.242853E-16	9.027311E-18
3.485843E+03	1.250417E-16	9.060700E-18
3.495774E+03	1.258522E-16	9.097734E-18
3.505705E+03	1.267191E-16	9.138552E-18
3.515637E+03	1.276602E-16	9.184419E-18
3.525568E+03	1.286623E-16	9.234327E-18
3.535499E+03	1.297119E-16	9.287296E-18
3.545430E+03	1.308591E-16	9.346867E-18
3.555361E+03	1.320751E-16	9.410937E-18
3.565293E+03	1.333627E-16	9.479680E-18
3.575224E+03	1.347561E-16	9.555473E-18
3.585155E+03	1.362272E-16	9.636276E-18
3.595086E+03	1.377948E-16	9.723375E-18
3.605017E+03	1.394466E-16	9.815858E-18
3.614948E+03	1.412170E-16	9.916096E-18
3.624880E+03	1.430941E-16	1.002319E-17
3.634811E+03	1.450967E-16	1.013839E-17
3.644742E+03	1.471979E-16	1.025977E-17
3.654673E+03	1.494321E-16	1.038966E-17
3.664604E+03	1.518029E-16	1.052826E-17
3.674535E+03	1.542989E-16	1.067468E-17
3.684467E+03	1.569390E-16	1.083019E-17
3.694398E+03	1.597269E-16	1.099495E-17
3.704329E+03	1.626661E-16	1.116913E-17
3.714260E+03	1.657599E-16	1.135288E-17
3.724191E+03	1.690116E-16	1.154634E-17
3.734123E+03	1.724237E-16	1.174960E-17
3.744054E+03	1.759987E-16	1.196276E-17
3.753985E+03	1.797540E-16	1.218689E-17
3.763916E+03	1.836908E-16	1.242201E-17
3.773847E+03	1.878101E-16	1.266807E-17
3.783778E+03	1.920957E-16	1.292390E-17
3.793710E+03	1.965622E-16	1.319039E-17
3.803641E+03	2.012234E-16	1.346838E-17
3.813572E+03	2.060442E-16	1.375541E-17
3.823503E+03	2.110519E-16	1.405324E-17
3.833434E+03	2.162407E-16	1.436137E-17
3.843365E+03	2.215871E-16	1.467817E-17
3.853297E+03	2.270982E-16	1.500402E-17
3.863228E+03	2.327636E-16	1.533816E-17
3.873159E+03	2.385710E-16	1.567971E-17
3.883090E+03	2.445067E-16	1.602769E-17
3.893021E+03	2.505552E-16	1.638104E-17
3.902953E+03	2.567163E-16	1.673969E-17
3.912884E+03	2.629718E-16	1.710239E-17
3.922815E+03	2.692851E-16	1.746676E-17
3.932746E+03	2.756696E-16	1.783362E-17
3.942677E+03	2.820698E-16	1.819936E-17
3.952608E+03	2.884979E-16	1.856478E-17
3.962540E+03	2.949145E-16	1.892734E-17
3.972471E+03	3.013149E-16	1.928675E-17
3.982402E+03	3.076601E-16	1.964056E-17
3.992333E+03	3.139467E-16	1.998857E-17
4.002264E+03	3.201551E-16	2.032961E-17
4.012195E+03	3.262847E-16	2.066366E-17
4.022127E+03	3.323021E-16	2.098869E-17
4.032058E+03	3.381938E-16	2.130390E-17
4.041989E+03	3.439656E-16	2.160976E-17
4.051920E+03	3.496090E-16	2.190581E-17
4.061851E+03	3.551020E-16	2.219074E-17
4.071783E+03	3.604760E-16	2.246661E-17
4.081714E+03	3.657315E-16	2.273353E-17
4.091645E+03	3.708400E-16	2.298982E-17
4.101576E+03	3.758585E-16	2.323909E-17
4.111507E+03	3.807648E-16	2.348003E-17
4.121438E+03	3.855893E-16	2.371460E-17
4.131370E+03	3.903486E-16	2.394387E-17
4.141301E+03	3.950780E-16	2.417007E-17
4.151232E+03	3.997833E-16	2.439358E-17
4.161163E+03	4.044889E-16	2.461592E-17
4.171094E+03	4.092361E-16	2.483964E-17
4.181025E+03	4.140672E-16	2.506730E-17
4.190957E+03	4.189801E-16	2.529875E-17
4.200888E+03	4.240192E-16	2.553668E-17
4.210819E+03	4.292293E-16	2.578374E-17
4.220750E+03	4.346250E-16	2.604076E-17
4.230681E+03	4.402507E-16	2.631035E-17
4.240613E+03	4.461209E-16	2.659329E-17
4.250544E+03	4.522926E-16	2.689292E-17
4.260475E+03	4.587642E-16	2.720904E-17
4.270406E+03	4.655898E-16	2.754477E-17
4.280337E+03	4.727794E-16	2.790057E-17
4.290268E+03	4.803551E-16	2.827766E-17
4.300200E+03	4.883511E-16	2.867792E-17
4.310131E+03	4.967849E-16	2.910225E-17
4.320062E+03	5.056574E-16	2.955059E-17
4.329993E+03	5.149949E-16	3.002434E-17
4.339924E+03	5.248060E-16	3.052389E-17
4.349856E+03	5.350961E-16	3.104943E-17
4.359787E+03	5.458666E-16	3.160094E-17
4.369718E+03	5.571150E-16	3.217814E-17
4.379649E+03	5.688478E-16	3.278134E-17
4.389580E+03	5.810254E-16	3.340815E-17
4.399511E+03	5.936578E-16	3.405908E-17
4.409443E+03	6.066942E-16	3.473116E-17
4.419374E+03	6.201329E-16	3.542427E-17
4.429305E+03	6.339246E-16	3.613555E-17
4.439236E+03	6.480136E-16	3.686186E-17
4.449167E+03	6.623795E-16	3.760205E-17
4.459098E+03	6.769262E-16	3.835074E-17
4.469030E+03	6.916218E-16	3.910619E-17
4.478961E+03	7.063733E-16	3.986326E-17
4.488892E+03	7.211117E-16	4.061821E-17
4.498823E+03	7.357796E-16	4.136798E-17
4.508754E+03	7.502630E-16	4.210634E-17
4.518686E+03	7.645157E-16	4.283094E-17
4.528617E+03	7.784271E-16	4.353582E-17
4.538548E+03	7.919452E-16	4.421834E-17
4.548479E+03	8.050090E-16	4.487541E-17
4.558410E+03	8.175413E-16	4.550300E-17
4.568341E+03	8.295294E-16	4.610072E-17
4.578273E+03	8.409015E-16	4.666489E-17
4.588204E+03	8.516446E-16	4.719510E-17
4.598135E+03	8.617703E-16	4.769231E-17
4.608066E+03	8.712400E-16	4.815468E-17
4.617997E+03	8.801101E-16	4.858562E-17
4.627928E+03	8.883717E-16	4.898491E-17
4.637860E+03	8.961110E-16	4.935756E-17
4.647791E+03	9.033454E-16	4.970478E-17
4.657722E+03	9.101447E-16	5.003062E-17
4.667653E+03	9.166000E-16	5.034030E-17
4.677584E+03	9.227678E-16	5.063710E-17
4.687516E+03	9.287383E-16	5.092615E-17
4.697447E+03	9.345900E-16	5.121190E-17
4.707378E+03	9.403479E-16	5.149587E-17
4.717309E+03	9.460935E-16	5.178266E-17
4.727240E+03	9.518389E-16	5.207307E-17
4.737171E+03	9.576410E-16	5.237034E-17
4.747103E+03	9.634977E-16	5.267449E-17
4.757034E+03	9.694598E-16	5.298844E-17
4.766965E+03	9.755182E-16	5.331182E-17
4.776896E+03	9.816673E-16	5.364447E-17
4.786827E+03	9.879022E-16	5.398625E-17
4.796758E+03	9.942180E-16	5.433705E-17
4.806690E+03	1.000578E-15	5.469502E-17
4.816621E+03	1.006948E-15	5.505839E-17
4.826552E+03	1.013286E-15	5.542487E-17
4.836483E+03	1.019542E-15	5.579185E-17
4.846414E+03	1.025662E-15	5.615636E-17
4.856346E+03	1.031590E-15	5.651524E-17
4.866277E+03	1.037266E-15	5.686535E-17
4.876208E+03	1.042657E-15	5.720473E-17
4.886139E+03	1.047706E-15	5.753027E-17
4.896070E+03	1.052364E-15	5.783921E-17
4.906001E+03	1.056608E-15	5.813024E-17
4.915933E+03	1.060426E-15	5.840260E-17
4.925864E+03	1.063780E-15	5.865404E-17
4.935795E+03	1.066686E-15	5.888542E-17
4.945726E+03	1.069150E-15	5.909687E-17
4.955657E+03	1.071179E-15	5.928868E-17
4.965588E+03	1.072834E-15	5.946404E-17
4.975520E+03	1.074131E-15	5.962373E-17
4.985451E+03	1.075153E-15	5.977223E-17
4.995382E+03	1.075946E-15	5.991191E-17
5.005313E+03	1.076586E-15	6.004690E-17
5.015244E+03	1.077143E-15	6.018101E-17
5.025176E+03	1.077723E-15	6.032012E-17
5.035107E+03	1.078380E-15	6.046711E-17
5.045038E+03	1.079223E-15	6.062811E-17
5.054969E+03	1.080326E-15	6.080727E-17
5.064900E+03	1.081758E-15	6.100850E-17
5.074831E+03	1.083618E-15	6.123740E-17
5.084763E+03	1.085953E-15	6.149682E-17
5.094694E+03	1.088826E-15	6.179037E-17
5.104625E+03	1.092301E-15	6.212183E-17
5.114556E+03	1.096423E-15	6.249399E-17
5.124487E+03	1.101215E-15	6.290837E-17
5.134418E+03	1.106704E-15	6.336668E-17
5.144350E+03	1.112916E-15	6.387067E-17
5.154281E+03	1.119858E-15	6.442100E-17
5.164212E+03	1.127513E-15	6.501706E-17
5.174143E+03	1.135872E-15	6.565844E-17
5.184074E+03	1.144923E-15	6.634486E-17
5.194006E+03	1.154626E-15	6.707425E-17
5.203937E+03	1.164958E-15	6.784550E-17
5.213868E+03	1.175862E-15	6.865563E-17
5.223799E+03	1.187291E-15	6.950204E-17
5.233730E+03	1.199212E-15	7.038315E-17
5.243661E+03	1.211532E-15	7.129358E-17
5.253593E+03	1.224211E-15	7.223123E-17
5.263524E+03	1.237183E-15	7.319234E-17
5.273455E+03	1.250366E-15	7.417221E-17
5.283386E+03	1.263701E-15	7.516742E-17
5.293317E+03	1.277093E-15	7.617235E-17
5.303248E+03	1.290507E-15	7.718494E-17
5.313180E+03	1.303833E-15	7.819857E-17
5.323111E+03	1.317025E-15	7.921044E-17
5.333042E+03	1.330002E-15	8.021563E-17
5.342973E+03	1.342696E-15	8.120989E-17
5.352904E+03	1.355044E-15	8.218919E-17
5.362836E+03	1.366972E-15	8.314887E-17
5.372767E+03	1.378451E-15	8.408690E-17
5.382698E+03	1.389401E-15	8.499814E-17
5.392629E+03	1.399789E-15	8.588028E-17
5.402560E+03	1.409546E-15	8.672869E-17
5.412491E+03	1.418676E-15	8.754333E-17
5.422423E+03	1.427093E-15	8.831845E-17
5.432354E+03	1.434816E-15	8.905477E-17
5.442285E+03	1.441780E-15	8.974800E-17
5.452216E+03	1.447978E-15	9.039703E-17
5.462147E+03	1.453400E-15	9.100100E-17
5.472078E+03	1.458022E-15	9.155772E-17
5.482010E+03	1.461847E-15	9.206705E-17
5.491941E+03	1.464878E-15	9.252862E-17
5.501872E+03	1.467149E-15	9.294410E-17
5.511803E+03	1.468658E-15	9.331295E-17
5.521734E+03	1.469438E-15	9.363675E-17
5.531666E+03	1.469516E-15	9.391671E-17
5.541597E+03	1.468907E-15	9.415349E-17
5.551528E+03	1.467651E-15	9.434910E-17
5.561459E+03	1.465776E-15	9.450502E-17
5.571390E+03	1.463346E-15	9.462489E-17
5.581321E+03	1.460402E-15	9.471108E-17
5.591253E+03	1.457002E-15	9.476708E-17
5.601184E+03	1.453187E-15	9.479511E-17
5.611115E+03	1.449024E-15	9.479938E-17
5.621046E+03	1.444602E-15	9.478547E-17
5.630977E+03	1.439955E-15	9.475546E-17
5.640909E+03	1.435193E-15	9.471635E-17
5.650840E+03	1.430354E-15	9.467057E-17
5.660771E+03	1.425534E-15	9.462449E-17
5.670702E+03	1.420801E-15	9.458254E-17
5.680633E+03	1.416221E-15	9.454915E-17
5.690564E+03	1.411855E-15	9.452851E-17
5.700496E+03	1.407776E-15	9.452554E-17
5.710427E+03	1.404022E-15	9.454304E-17
5.720358E+03	1.400666E-15	9.458595E-17
5.730289E+03	1.397743E-15	9.465692E-17
5.740220E+03	1.395268E-15	9.475723E-17
5.750151E+03	1.393271E-15	9.488913E-17
5.760083E+03	1.391761E-15	9.505343E-17
5.770014E+03	1.390732E-15	9.525008E-17
5.779945E+03	1.390172E-15	9.547839E-17
5.789876E+03	1.390070E-15	9.573791E-17
5.799807E+03	1.390378E-15	9.602564E-17
5.809739E+03	1.391056E-15	9.633891E-17
5.819670E+03	1.392081E-15	9.667629E-17
5.829601E+03	1.393372E-15	9.703244E-17
5.839532E+03	1.394871E-15	9.740343E-17
5.849463E+03	1.396545E-15	9.778696E-17
5.859394E+03	1.398295E-15	9.817620E-17
5.869326E+03	1.400100E-15	9.856975E-17
5.879257E+03	1.401881E-15	9.896199E-17
5.889188E+03	1.403600E-15	9.935024E-17
5.899119E+03	1.405201E-15	9.973049E-17
5.909050E+03	1.406662E-15	1.001010E-16
5.918981E+03	1.407943E-15	1.004589E-16
5.928913E+03	1.409038E-15	1.008036E-16
5.938844E+03	1.409914E-15	1.011326E-16
5.948775E+03	1.410595E-15	1.014476E-16
5.958706E+03	1.411067E-15	1.017474E-16
5.968637E+03	1.411369E-15	1.020347E-16
5.978569E+03	1.411503E-15	1.023096E-16
5.988500E+03	1.411511E-15	1.025748E-16
5.998431E+03	1.411425E-15	1.028329E-16
6.008362E+03	1.411263E-15	1.030849E-16
6.018293E+03	1.411101E-15	1.033365E-16
6.028224E+03	1.410946E-15	1.035880E-16
6.038156E+03	1.410866E-15	1.038446E-16
6.048087E+03	1.410892E-15	1.041085E-16
6.058018E+03	1.411068E-15	1.043831E-16
6.067949E+03	1.411434E-15	1.046714E-16
6.077880E+03	1.412046E-15	1.049776E-16
6.087811E+03	1.412932E-15	1.053040E-16
6.097743E+03	1.414131E-15	1.056537E-16
6.107674E+03	1.415696E-15	1.060307E-16
6.117605E+03	1.417666E-15	1.064383E-16
6.127536E+03	1.420086E-15	1.068799E-16
6.137467E+03	1.423012E-15	1.073602E-16
6.147399E+03	1.426491E-15	1.078828E-16
6.157330E+03	1.430589E-15	1.084533E-16
6.167261E+03	1.435385E-15	1.090777E-16
6.177192E+03	1.440975E-15	1.097639E-16
6.187123E+03	1.447423E-15	1.105171E-16
6.197054E+03	1.454844E-15	1.113468E-16
6.206986E+03	1.463362E-15	1.122626E-16
6.216917E+03	1.473063E-15	1.132722E-16
6.226848E+03	1.484092E-15	1.143870E-16
6.236779E+03	1.496578E-15	1.156179E-16
6.246710E+03	1.510660E-15	1.169764E-16
6.256641E+03	1.526458E-15	1.184725E-16
6.266573E+03	1.544121E-15	1.201188E-16
6.276504E+03	1.563782E-15	1.219266E-16
6.286435E+03	1.585569E-15	1.239070E-16
6.296366E+03	1.609615E-15	1.260715E-16
6.306297E+03	1.636020E-15	1.284289E-16
6.316229E+03	1.664910E-15	1.309907E-16
6.326160E+03	1.696340E-15	1.337622E-16
6.336091E+03	1.730402E-15	1.367520E-16
6.346022E+03	1.767118E-15	1.399634E-16
6.355953E+03	1.806515E-15	1.433997E-16
6.365884E+03	1.848552E-15	1.470590E-16
6.375816E+03	1.893183E-15	1.509389E-16
6.385747E+03	1.940269E-15	1.550297E-16
6.395678E+03	1.989690E-15	1.593230E-16
6.405609E+03	2.041204E-15	1.638005E-16
6.415540E+03	2.094532E-15	1.684406E-16
6.425471E+03	2.149372E-15	1.732201E-16
6.435403E+03	2.205331E-15	1.781077E-16
6.445334E+03	2.261913E-15	1.830638E-16
6.455265E+03	2.318627E-15	1.880490E-16
6.465196E+03	2.374898E-15	1.930164E-16
6.475127E+03	2.430079E-15	1.979130E-16
6.485059E+03	2.483545E-15	2.026871E-16
6.494990E+03	2.534603E-15	2.072812E-16
6.504921E+03	2.582610E-15	2.116412E-16
6.514852E+03	2.626865E-15	2.157080E-16
6.524783E+03	2.666776E-15	2.194309E-16
6.534714E+03	2.701781E-15	2.227614E-16
6.544646E+03	2.731360E-15	2.256539E-16
6.554577E+03	2.755078E-15	2.280696E-16
6.564508E+03	2.772651E-15	2.299822E-16
6.574439E+03	2.783849E-15	2.313694E-16
6.584370E+03	2.788553E-15	2.322181E-16
6.594301E+03	2.786813E-15	2.325292E-16
6.604233E+03	2.778734E-15	2.323085E-16
6.614164E+03	2.764582E-15	2.315750E-16
6.624095E+03	2.744600E-15	2.303463E-16
6.634026E+03	2.719286E-15	2.286614E-16
6.643957E+03	2.689031E-15	2.265507E-16
6.653889E+03	2.654390E-15	2.240586E-16
6.663820E+03	2.615923E-15	2.212307E-16
6.673751E+03	2.574210E-15	2.181140E-16
6.683682E+03	2.529806E-15	2.147543E-16
6.693613E+03	2.483282E-15	2.111990E-16
6.703544E+03	2.435192E-15	2.074942E-16
6.713476E+03	2.386033E-15	2.036818E-16
6.723407E+03	2.336313E-15	1.998048E-16
6.733338E+03	2.286476E-15	1.959010E-16
6.743269E+03	2.236894E-15	1.920023E-16
6.753200E+03	2.187916E-15	1.881390E-16
6.763131E+03	2.139847E-15	1.843377E-16
6.773063E+03	2.092919E-15	1.806190E-16
6.782994E+03	2.047394E-15	1.770060E-16
6.792925E+03	2.003396E-15	1.735104E-16
6.802856E+03	1.961062E-15	1.701445E-16
6.812787E+03	1.920491E-15	1.669180E-16
6.822719E+03	1.881771E-15	1.638394E-16
6.832650E+03	1.844923E-15	1.609114E-16
6.842581E+03	1.809942E-15	1.581344E-16
6.852512E+03	1.776845E-15	1.555109E-16
6.862443E+03	1.745610E-15	1.530399E-16
6.872374E+03	1.716178E-15	1.507170E-16
6.882306E+03	1.688520E-15	1.485406E-16
6.892237E+03	1.662558E-15	1.465046E-16
6.902168E+03	1.638223E-15	1.446037E-16
6.912099E+03	1.615444E-15	1.428324E-16
6.922030E+03	1.594142E-15	1.411845E-16
6.931962E+03	1.574239E-15	1.396537E-16
6.941893E+03	1.555635E-15	1.382318E-16
6.951824E+03	1.538269E-15	1.369139E-16
6.961755E+03	1.522041E-15	1.356919E-16
6.971686E+03	1.506896E-15	1.345610E-16
6.981617E+03	1.492738E-15	1.335134E-16
6.991549E+03	1.479516E-15	1.325450E-16
7.001480E+03	1.467127E-15	1.316469E-16
7.011411E+03	1.455526E-15	1.308154E-16
7.021342E+03	1.444653E-15	1.300456E-16
7.031273E+03	1.434456E-15	1.293330E-16
7.041204E+03	1.424865E-15	1.286717E-16
7.051136E+03	1.415853E-15	1.280594E-16
7.061067E+03	1.407378E-15	1.274926E-16
7.070998E+03	1.399381E-15	1.269664E-16
7.080929E+03	1.391829E-15	1.264778E-16
7.090860E+03	1.384689E-15	1.260240E-16
7.100792E+03	1.377930E-15	1.256024E-16
7.110723E+03	1.371539E-15	1.252120E-16
7.120654E+03	1.365456E-15	1.248476E-16
7.130585E+03	1.359672E-15	1.245084E-16
7.140516E+03	1.354163E-15	1.241923E-16
7.150447E+03	1.348902E-15	1.238970E-16
7.160379E+03	1.343852E-15	1.236191E-16
7.170310E+03	1.339003E-15	1.233581E-16
7.180241E+03	1.334316E-15	1.231101E-16
7.190172E+03	1.329783E-15	1.228748E-16
7.200103E+03	1.325367E-15	1.226486E-16
7.210034E+03	1.321043E-15	1.224293E-16
7.219966E+03	1.316805E-15	1.222164E-16
7.229897E+03	1.312613E-15	1.220063E-16
7.239828E+03	1.308446E-15	1.217970E-16
7.249759E+03	1.304267E-15	1.215851E-16
7.259690E+03	1.300088E-15	1.213717E-16
7.269622E+03	1.295873E-15	1.211535E-16
7.279553E+03	1.291605E-15	1.209289E-16
7.289484E+03	1.287269E-15	1.206964E-16
7.299415E+03	1.282850E-15	1.204547E-16
7.309346E+03	1.278337E-15	1.202026E-16
7.319277E+03	1.273720E-15	1.199392E-16
7.329209E+03	1.268976E-15	1.196624E-16
7.339140E+03	1.264135E-15	1.193748E-16
7.349071E+03	1.259178E-15	1.190747E-16
7.359002E+03	1.254108E-15	1.187624E-16
7.368933E+03	1.248946E-15	1.184398E-16
7.378864E+03	1.243684E-15	1.181060E-16
7.388796E+03	1.238347E-15	1.177635E-16
7.398727E+03	1.232935E-15	1.174123E-16
7.408658E+03	1.227496E-15	1.170568E-16
7.418589E+03	1.222018E-15	1.166959E-16
7.428520E+03	1.216551E-15	1.163344E-16
7.438452E+03	1.211105E-15	1.159732E-16
7.448383E+03	1.205702E-15	1.156145E-16
7.458314E+03	1.200369E-15	1.152609E-16
7.468245E+03	1.195117E-15	1.149134E-16
7.478176E+03	1.189973E-15	1.145747E-16
7.488107E+03	1.184982E-15	1.142490E-16
7.498039E+03	1.180151E-15	1.139374E-16
7.507970E+03	1.175510E-15	1.136426E-16
7.517901E+03	1.171095E-15	1.133681E-16
7.527832E+03	1.166897E-15	1.131134E-16
7.537763E+03	1.162965E-15	1.128830E-16
7.547694E+03	1.159299E-15	1.126773E-16
7.557626E+03	1.155927E-15	1.124989E-16
7.567557E+03	1.152823E-15	1.123455E-16
7.577488E+03	1.150039E-15	1.122223E-16
7.587419E+03	1.147543E-15	1.121262E-16
7.597350E+03	1.145329E-15	1.120567E-16
7.607282E+03	1.143403E-15	1.120147E-16
7.617213E+03	1.141751E-15	1.119987E-16
7.627144E+03	1.140354E-15	1.120070E-16
7.637075E+03	1.139173E-15	1.120359E-16
7.647006E+03	1.138214E-15	1.120861E-16
7.656937E+03	1.137431E-15	1.121530E-16
7.666869E+03	1.136807E-15	1.122352E-16
7.676800E+03	1.136289E-15	1.123274E-16
7.686731E+03	1.135842E-15	1.124261E-16
7.696662E+03	1.135440E-15	1.125288E-16
7.706593E+03	1.135044E-15	1.126318E-16
