#wls	flux	fluxerr
1.588988E+03	2.282955E-17	2.468646E-18
1.628713E+03	2.356322E-17	2.535591E-18
1.668438E+03	2.427673E-17	2.599430E-18
1.708162E+03	2.497503E-17	2.660710E-18
1.747887E+03	2.565474E-17	2.719087E-18
1.787612E+03	2.630373E-17	2.773303E-18
1.827337E+03	2.690383E-17	2.821496E-18
1.867061E+03	2.743212E-17	2.861352E-18
1.906786E+03	2.786266E-17	2.890297E-18
1.946511E+03	2.817265E-17	2.906149E-18
1.986235E+03	2.835725E-17	2.908620E-18
2.025960E+03	2.845545E-17	2.901913E-18
2.065685E+03	2.858024E-17	2.897643E-18
2.105410E+03	2.892657E-17	2.915418E-18
2.145134E+03	2.972432E-17	2.977877E-18
2.184859E+03	3.114559E-17	3.101341E-18
2.224584E+03	3.323428E-17	3.289010E-18
2.264308E+03	3.591413E-17	3.532155E-18
2.304033E+03	3.905249E-17	3.816712E-18
2.343758E+03	4.251124E-17	4.128405E-18
2.383482E+03	4.620460E-17	4.458328E-18
2.423207E+03	5.006031E-17	4.799085E-18
2.462932E+03	5.405060E-17	5.147693E-18
2.502657E+03	5.814926E-17	5.501385E-18
2.542381E+03	6.230696E-17	5.855286E-18
2.582106E+03	6.652487E-17	6.209360E-18
2.621831E+03	7.076134E-17	6.559598E-18
2.661555E+03	7.499655E-17	6.904116E-18
2.701280E+03	7.914371E-17	7.234955E-18
2.741005E+03	8.320439E-17	7.552409E-18
2.780730E+03	8.710126E-17	7.849666E-18
2.820454E+03	9.080590E-17	8.124494E-18
2.860179E+03	9.425915E-17	8.372016E-18
2.899904E+03	9.742246E-17	8.589336E-18
2.939628E+03	1.002809E-16	8.775716E-18
2.979353E+03	1.027904E-16	8.927922E-18
2.989284E+03	1.033746E-16	8.961690E-18
2.999215E+03	1.039355E-16	8.993244E-18
3.009147E+03	1.044730E-16	9.022586E-18
3.019078E+03	1.049870E-16	9.049711E-18
3.029009E+03	1.054773E-16	9.074625E-18
3.038940E+03	1.059631E-16	9.098976E-18
3.048871E+03	1.064288E-16	9.121446E-18
3.058802E+03	1.068796E-16	9.142466E-18
3.068734E+03	1.073322E-16	9.163495E-18
3.078665E+03	1.077674E-16	9.182878E-18
3.088596E+03	1.082024E-16	9.202085E-18
3.098527E+03	1.085997E-16	9.217951E-18
3.108458E+03	1.090133E-16	9.235051E-18
3.118390E+03	1.094060E-16	9.250245E-18
3.128321E+03	1.097774E-16	9.263500E-18
3.138252E+03	1.101450E-16	9.276309E-18
3.148183E+03	1.105084E-16	9.288633E-18
3.158114E+03	1.108673E-16	9.300453E-18
3.168045E+03	1.112034E-16	9.310238E-18
3.177977E+03	1.115347E-16	9.319499E-18
3.187908E+03	1.118430E-16	9.326735E-18
3.197839E+03	1.121641E-16	9.334928E-18
3.207770E+03	1.124802E-16	9.342593E-18
3.217701E+03	1.127737E-16	9.348273E-18
3.227633E+03	1.130801E-16	9.354922E-18
3.237564E+03	1.133644E-16	9.359635E-18
3.247495E+03	1.136620E-16	9.365350E-18
3.257426E+03	1.139556E-16	9.370637E-18
3.267357E+03	1.142457E-16	9.375537E-18
3.277288E+03	1.145326E-16	9.380080E-18
3.287220E+03	1.148342E-16	9.385733E-18
3.297151E+03	1.151337E-16	9.391104E-18
3.307082E+03	1.154316E-16	9.396255E-18
3.317013E+03	1.157456E-16	9.402618E-18
3.326944E+03	1.160764E-16	9.410235E-18
3.336875E+03	1.164075E-16	9.417776E-18
3.346807E+03	1.167567E-16	9.426666E-18
3.356738E+03	1.171077E-16	9.435603E-18
3.366669E+03	1.174951E-16	9.447344E-18
3.376600E+03	1.178860E-16	9.459253E-18
3.386531E+03	1.183146E-16	9.474060E-18
3.396463E+03	1.187488E-16	9.489183E-18
3.406394E+03	1.192224E-16	9.507314E-18
3.416325E+03	1.197201E-16	9.527216E-18
3.426256E+03	1.202428E-16	9.548962E-18
3.436187E+03	1.208081E-16	9.573919E-18
3.446118E+03	1.214009E-16	9.600883E-18
3.456050E+03	1.220387E-16	9.631219E-18
3.465981E+03	1.227227E-16	9.665003E-18
3.475912E+03	1.234387E-16	9.701093E-18
3.485843E+03	1.242041E-16	9.740849E-18
3.495774E+03	1.250362E-16	9.785597E-18
3.505705E+03	1.259210E-16	9.834210E-18
3.515637E+03	1.268605E-16	9.886816E-18
3.525568E+03	1.278565E-16	9.943536E-18
3.535499E+03	1.289266E-16	1.000570E-17
3.545430E+03	1.300574E-16	1.007224E-17
3.555361E+03	1.312664E-16	1.014447E-17
3.565293E+03	1.325557E-16	1.022252E-17
3.575224E+03	1.339276E-16	1.030654E-17
3.585155E+03	1.353694E-16	1.039549E-17
3.595086E+03	1.368986E-16	1.049069E-17
3.605017E+03	1.385328E-16	1.059344E-17
3.614948E+03	1.402593E-16	1.070273E-17
3.624880E+03	1.420657E-16	1.081758E-17
3.634811E+03	1.439996E-16	1.094153E-17
3.644742E+03	1.460186E-16	1.107134E-17
3.654673E+03	1.481551E-16	1.120942E-17
3.664604E+03	1.504117E-16	1.135589E-17
3.674535E+03	1.527908E-16	1.151088E-17
3.684467E+03	1.552797E-16	1.167339E-17
3.694398E+03	1.578956E-16	1.184465E-17
3.704329E+03	1.606405E-16	1.202475E-17
3.714260E+03	1.635162E-16	1.221377E-17
3.724191E+03	1.665392E-16	1.241286E-17
3.734123E+03	1.696957E-16	1.262096E-17
3.744054E+03	1.729866E-16	1.283804E-17
3.753985E+03	1.764271E-16	1.306518E-17
3.763916E+03	1.800174E-16	1.330232E-17
3.773847E+03	1.837414E-16	1.354822E-17
3.783778E+03	1.876282E-16	1.380494E-17
3.793710E+03	1.916454E-16	1.407004E-17
3.803641E+03	1.958204E-16	1.434547E-17
3.813572E+03	2.001345E-16	1.462978E-17
3.823503E+03	2.045983E-16	1.492370E-17
3.833434E+03	2.091911E-16	1.522564E-17
3.843365E+03	2.139215E-16	1.553618E-17
3.853297E+03	2.187821E-16	1.585472E-17
3.863228E+03	2.237643E-16	1.618059E-17
3.873159E+03	2.288585E-16	1.651303E-17
3.883090E+03	2.340696E-16	1.685237E-17
3.893021E+03	2.393703E-16	1.719658E-17
3.902953E+03	2.447638E-16	1.754587E-17
3.912884E+03	2.502367E-16	1.789925E-17
3.922815E+03	2.557749E-16	1.825568E-17
3.932746E+03	2.613637E-16	1.861409E-17
3.942677E+03	2.669881E-16	1.897340E-17
3.952608E+03	2.726485E-16	1.933365E-17
3.962540E+03	2.783137E-16	1.969260E-17
3.972471E+03	2.840002E-16	2.005145E-17
3.982402E+03	2.896613E-16	2.040689E-17
3.992333E+03	2.953146E-16	2.076021E-17
4.002264E+03	3.009306E-16	2.110934E-17
4.012195E+03	3.064971E-16	2.145346E-17
4.022127E+03	3.120187E-16	2.179294E-17
4.032058E+03	3.174859E-16	2.212714E-17
4.041989E+03	3.229061E-16	2.245663E-17
4.051920E+03	3.282419E-16	2.277884E-17
4.061851E+03	3.335202E-16	2.309570E-17
4.071783E+03	3.387387E-16	2.340709E-17
4.081714E+03	3.438818E-16	2.371198E-17
4.091645E+03	3.489822E-16	2.401268E-17
4.101576E+03	3.540284E-16	2.430843E-17
4.111507E+03	3.590268E-16	2.459972E-17
4.121438E+03	3.640007E-16	2.488819E-17
4.131370E+03	3.689452E-16	2.517352E-17
4.141301E+03	3.739018E-16	2.545860E-17
4.151232E+03	3.788547E-16	2.574236E-17
4.161163E+03	3.838481E-16	2.602782E-17
4.171094E+03	3.888982E-16	2.631610E-17
4.181025E+03	3.940079E-16	2.660740E-17
4.190957E+03	3.992098E-16	2.690391E-17
4.200888E+03	4.045227E-16	2.720689E-17
4.210819E+03	4.099657E-16	2.751761E-17
4.220750E+03	4.155722E-16	2.783829E-17
4.230681E+03	4.213474E-16	2.816925E-17
4.240613E+03	4.273242E-16	2.851266E-17
4.250544E+03	4.335208E-16	2.886967E-17
4.260475E+03	4.399416E-16	2.924054E-17
4.270406E+03	4.466298E-16	2.962810E-17
4.280337E+03	4.535876E-16	3.003243E-17
4.290268E+03	4.608422E-16	3.045528E-17
4.300200E+03	4.683927E-16	3.089652E-17
4.310131E+03	4.762498E-16	3.135682E-17
4.320062E+03	4.844479E-16	3.183836E-17
4.329993E+03	4.929544E-16	3.233896E-17
4.339924E+03	5.018117E-16	3.286134E-17
4.349856E+03	5.109951E-16	3.340383E-17
4.359787E+03	5.205028E-16	3.396628E-17
4.369718E+03	5.303427E-16	3.454916E-17
4.379649E+03	5.405066E-16	3.515191E-17
4.389580E+03	5.509574E-16	3.577210E-17
4.399511E+03	5.617055E-16	3.641039E-17
4.409443E+03	5.727066E-16	3.706392E-17
4.419374E+03	5.839509E-16	3.773207E-17
4.429305E+03	5.953869E-16	3.841154E-17
4.439236E+03	6.069977E-16	3.910129E-17
4.449167E+03	6.187250E-16	3.979762E-17
4.459098E+03	6.305328E-16	4.049831E-17
4.469030E+03	6.423701E-16	4.120017E-17
4.478961E+03	6.541838E-16	4.189991E-17
4.488892E+03	6.659071E-16	4.259339E-17
4.498823E+03	6.774981E-16	4.327808E-17
4.508754E+03	6.888900E-16	4.394987E-17
4.518686E+03	7.000305E-16	4.460560E-17
4.528617E+03	7.108829E-16	4.524313E-17
4.538548E+03	7.214133E-16	4.586049E-17
4.548479E+03	7.315794E-16	4.645519E-17
4.558410E+03	7.413724E-16	4.702688E-17
4.568341E+03	7.507490E-16	4.757302E-17
4.578273E+03	7.597134E-16	4.809408E-17
4.588204E+03	7.682631E-16	4.859010E-17
4.598135E+03	7.763689E-16	4.905943E-17
4.608066E+03	7.840701E-16	4.950476E-17
4.617997E+03	7.913657E-16	4.992618E-17
4.627928E+03	7.982870E-16	5.032586E-17
4.637860E+03	8.048487E-16	5.070488E-17
4.647791E+03	8.110957E-16	5.106625E-17
4.657722E+03	8.170666E-16	5.141251E-17
4.667653E+03	8.227914E-16	5.174572E-17
4.677584E+03	8.283248E-16	5.206942E-17
4.687516E+03	8.336990E-16	5.238578E-17
4.697447E+03	8.389533E-16	5.269738E-17
4.707378E+03	8.441135E-16	5.300594E-17
4.717309E+03	8.492217E-16	5.331423E-17
4.727240E+03	8.542925E-16	5.362326E-17
4.737171E+03	8.593376E-16	5.393389E-17
4.747103E+03	8.643839E-16	5.424790E-17
4.757034E+03	8.694328E-16	5.456549E-17
4.766965E+03	8.744797E-16	5.488647E-17
4.776896E+03	8.795273E-16	5.521113E-17
4.786827E+03	8.845819E-16	5.553996E-17
4.796758E+03	8.896028E-16	5.587052E-17
4.806690E+03	8.945990E-16	5.620349E-17
4.816621E+03	8.995522E-16	5.653775E-17
4.826552E+03	9.044409E-16	5.687197E-17
4.836483E+03	9.092515E-16	5.720529E-17
4.846414E+03	9.139573E-16	5.753604E-17
4.856346E+03	9.185392E-16	5.786301E-17
4.866277E+03	9.229791E-16	5.818504E-17
4.876208E+03	9.272489E-16	5.850035E-17
4.886139E+03	9.313413E-16	5.880843E-17
4.896070E+03	9.352207E-16	5.910700E-17
4.906001E+03	9.388859E-16	5.939595E-17
4.915933E+03	9.423294E-16	5.967474E-17
4.925864E+03	9.455477E-16	5.994308E-17
4.935795E+03	9.485413E-16	6.020095E-17
4.945726E+03	9.513173E-16	6.044871E-17
4.955657E+03	9.538880E-16	6.068708E-17
4.965588E+03	9.562904E-16	6.091832E-17
4.975520E+03	9.585266E-16	6.114250E-17
4.985451E+03	9.606444E-16	6.136260E-17
4.995382E+03	9.626843E-16	6.158113E-17
5.005313E+03	9.646722E-16	6.179970E-17
5.015244E+03	9.666549E-16	6.202124E-17
5.025176E+03	9.686715E-16	6.224824E-17
5.035107E+03	9.707941E-16	6.248530E-17
5.045038E+03	9.730413E-16	6.273361E-17
5.054969E+03	9.754850E-16	6.299783E-17
5.064900E+03	9.781511E-16	6.327965E-17
5.074831E+03	9.810977E-16	6.358287E-17
5.084763E+03	9.843547E-16	6.390951E-17
5.094694E+03	9.879620E-16	6.426222E-17
5.104625E+03	9.919536E-16	6.464333E-17
5.114556E+03	9.963575E-16	6.505477E-17
5.124487E+03	1.001199E-15	6.549832E-17
5.134418E+03	1.006485E-15	6.597458E-17
5.144350E+03	1.012238E-15	6.648522E-17
5.154281E+03	1.018455E-15	6.703017E-17
5.164212E+03	1.025147E-15	6.761031E-17
5.174143E+03	1.032288E-15	6.822417E-17
5.184074E+03	1.039901E-15	6.887335E-17
5.194006E+03	1.047936E-15	6.955483E-17
5.203937E+03	1.056386E-15	7.026817E-17
5.213868E+03	1.065234E-15	7.101260E-17
5.223799E+03	1.074431E-15	7.178484E-17
5.233730E+03	1.083952E-15	7.258351E-17
5.243661E+03	1.093772E-15	7.340700E-17
5.253593E+03	1.103830E-15	7.425129E-17
5.263524E+03	1.114081E-15	7.511356E-17
5.273455E+03	1.124493E-15	7.599162E-17
5.283386E+03	1.135019E-15	7.688247E-17
5.293317E+03	1.145611E-15	7.778280E-17
5.303248E+03	1.156197E-15	7.868785E-17
5.313180E+03	1.166753E-15	7.959582E-17
5.323111E+03	1.177218E-15	8.050264E-17
5.333042E+03	1.187544E-15	8.140497E-17
5.342973E+03	1.197687E-15	8.229962E-17
5.352904E+03	1.207601E-15	8.318336E-17
5.362836E+03	1.217232E-15	8.405231E-17
5.372767E+03	1.226541E-15	8.490359E-17
5.382698E+03	1.235501E-15	8.573527E-17
5.392629E+03	1.244069E-15	8.654401E-17
5.402560E+03	1.252201E-15	8.732659E-17
5.412491E+03	1.259885E-15	8.808186E-17
5.422423E+03	1.267084E-15	8.880709E-17
5.432354E+03	1.273783E-15	8.950082E-17
5.442285E+03	1.279954E-15	9.016086E-17
5.452216E+03	1.285616E-15	9.078822E-17
5.462147E+03	1.290740E-15	9.138046E-17
5.472078E+03	1.295364E-15	9.194013E-17
5.482010E+03	1.299471E-15	9.246556E-17
5.491941E+03	1.303083E-15	9.295808E-17
5.501872E+03	1.306164E-15	9.341483E-17
5.511803E+03	1.308722E-15	9.383601E-17
5.521734E+03	1.310769E-15	9.422219E-17
5.531666E+03	1.312322E-15	9.457423E-17
5.541597E+03	1.313389E-15	9.489251E-17
5.551528E+03	1.314010E-15	9.517946E-17
5.561459E+03	1.314188E-15	9.543518E-17
5.571390E+03	1.313972E-15	9.566278E-17
5.581321E+03	1.313399E-15	9.586485E-17
5.591253E+03	1.312485E-15	9.604227E-17
5.601184E+03	1.311274E-15	9.619810E-17
5.611115E+03	1.309816E-15	9.633568E-17
5.621046E+03	1.308147E-15	9.645759E-17
5.630977E+03	1.306318E-15	9.656744E-17
5.640909E+03	1.304357E-15	9.666723E-17
5.650840E+03	1.302345E-15	9.676272E-17
5.660771E+03	1.300282E-15	9.685401E-17
5.670702E+03	1.298260E-15	9.694786E-17
5.680633E+03	1.296282E-15	9.704441E-17
5.690564E+03	1.294408E-15	9.714828E-17
5.700496E+03	1.292685E-15	9.726294E-17
5.710427E+03	1.291130E-15	9.738983E-17
5.720358E+03	1.289773E-15	9.753115E-17
5.730289E+03	1.288657E-15	9.769042E-17
5.740220E+03	1.287777E-15	9.786718E-17
5.750151E+03	1.287168E-15	9.806439E-17
5.760083E+03	1.286837E-15	9.828260E-17
5.770014E+03	1.286772E-15	9.852108E-17
5.779945E+03	1.286993E-15	9.878146E-17
5.789876E+03	1.287466E-15	9.906128E-17
5.799807E+03	1.288190E-15	9.936055E-17
5.809739E+03	1.289156E-15	9.967879E-17
5.819670E+03	1.290330E-15	1.000135E-16
5.829601E+03	1.291689E-15	1.003628E-16
5.839532E+03	1.293205E-15	1.007247E-16
5.849463E+03	1.294859E-15	1.010979E-16
5.859394E+03	1.296626E-15	1.014804E-16
5.869326E+03	1.298453E-15	1.018681E-16
5.879257E+03	1.300338E-15	1.022608E-16
5.889188E+03	1.302245E-15	1.026558E-16
5.899119E+03	1.304164E-15	1.030522E-16
5.909050E+03	1.306057E-15	1.034471E-16
5.918981E+03	1.307922E-15	1.038402E-16
5.928913E+03	1.309750E-15	1.042308E-16
5.938844E+03	1.311538E-15	1.046186E-16
5.948775E+03	1.313278E-15	1.050030E-16
5.958706E+03	1.314984E-15	1.053851E-16
5.968637E+03	1.316658E-15	1.057649E-16
5.978569E+03	1.318304E-15	1.061427E-16
5.988500E+03	1.319951E-15	1.065209E-16
5.998431E+03	1.321621E-15	1.069013E-16
6.008362E+03	1.323329E-15	1.072851E-16
6.018293E+03	1.325114E-15	1.076753E-16
6.028224E+03	1.326984E-15	1.080728E-16
6.038156E+03	1.328980E-15	1.084809E-16
6.048087E+03	1.331125E-15	1.089016E-16
6.058018E+03	1.333451E-15	1.093376E-16
6.067949E+03	1.335994E-15	1.097918E-16
6.077880E+03	1.338797E-15	1.102680E-16
6.087811E+03	1.341866E-15	1.107668E-16
6.097743E+03	1.345266E-15	1.112937E-16
6.107674E+03	1.349003E-15	1.118494E-16
6.117605E+03	1.353134E-15	1.124388E-16
6.127536E+03	1.357687E-15	1.130644E-16
6.137467E+03	1.362714E-15	1.137309E-16
6.147399E+03	1.368235E-15	1.144399E-16
6.157330E+03	1.374327E-15	1.151985E-16
6.167261E+03	1.381015E-15	1.160090E-16
6.177192E+03	1.388362E-15	1.168769E-16
6.187123E+03	1.396440E-15	1.178086E-16
6.197054E+03	1.405312E-15	1.188100E-16
6.206986E+03	1.415055E-15	1.198879E-16
6.216917E+03	1.425745E-15	1.210492E-16
6.226848E+03	1.437489E-15	1.223037E-16
6.236779E+03	1.450377E-15	1.236593E-16
6.246710E+03	1.464491E-15	1.251239E-16
6.256641E+03	1.479924E-15	1.267059E-16
6.266573E+03	1.496757E-15	1.284130E-16
6.276504E+03	1.515086E-15	1.302541E-16
6.286435E+03	1.534965E-15	1.322347E-16
6.296366E+03	1.556478E-15	1.343628E-16
6.306297E+03	1.579659E-15	1.366422E-16
6.316229E+03	1.604560E-15	1.390782E-16
6.326160E+03	1.631215E-15	1.416747E-16
6.336091E+03	1.659616E-15	1.444318E-16
6.346022E+03	1.689764E-15	1.473506E-16
6.355953E+03	1.721610E-15	1.504275E-16
6.365884E+03	1.755111E-15	1.536596E-16
6.375816E+03	1.790168E-15	1.570391E-16
6.385747E+03	1.826666E-15	1.605568E-16
6.395678E+03	1.864449E-15	1.641993E-16
6.405609E+03	1.903342E-15	1.679521E-16
6.415540E+03	1.943106E-15	1.717943E-16
6.425471E+03	1.983503E-15	1.757054E-16
6.435403E+03	2.024209E-15	1.796568E-16
6.445334E+03	2.064944E-15	1.836238E-16
6.455265E+03	2.105349E-15	1.875743E-16
6.465196E+03	2.145040E-15	1.914737E-16
6.475127E+03	2.183637E-15	1.952878E-16
6.485059E+03	2.220731E-15	1.989792E-16
6.494990E+03	2.255952E-15	2.025139E-16
6.504921E+03	2.288873E-15	2.058524E-16
6.514852E+03	2.319107E-15	2.089588E-16
6.524783E+03	2.346307E-15	2.118003E-16
6.534714E+03	2.370121E-15	2.143434E-16
6.544646E+03	2.390281E-15	2.165623E-16
6.554577E+03	2.406520E-15	2.184308E-16
6.564508E+03	2.418653E-15	2.199300E-16
6.574439E+03	2.426527E-15	2.210441E-16
6.584370E+03	2.430127E-15	2.217696E-16
6.594301E+03	2.429378E-15	2.220974E-16
6.604233E+03	2.424388E-15	2.220354E-16
6.614164E+03	2.415257E-15	2.215906E-16
6.624095E+03	2.402133E-15	2.207747E-16
6.634026E+03	2.385242E-15	2.196065E-16
6.643957E+03	2.364876E-15	2.181112E-16
6.653889E+03	2.341288E-15	2.163106E-16
6.663820E+03	2.314830E-15	2.142356E-16
6.673751E+03	2.285802E-15	2.119126E-16
6.683682E+03	2.254608E-15	2.093783E-16
6.693613E+03	2.221584E-15	2.066626E-16
6.703544E+03	2.187062E-15	2.037959E-16
6.713476E+03	2.151386E-15	2.008094E-16
6.723407E+03	2.114887E-15	1.977338E-16
6.733338E+03	2.077876E-15	1.945977E-16
6.743269E+03	2.040618E-15	1.914259E-16
6.753200E+03	2.003398E-15	1.882451E-16
6.763131E+03	1.966431E-15	1.850756E-16
6.773063E+03	1.929928E-15	1.819374E-16
6.782994E+03	1.894073E-15	1.788481E-16
6.792925E+03	1.859000E-15	1.758210E-16
6.802856E+03	1.824864E-15	1.728710E-16
6.812787E+03	1.791754E-15	1.700070E-16
6.822719E+03	1.759736E-15	1.672358E-16
6.832650E+03	1.728915E-15	1.645681E-16
6.842581E+03	1.699320E-15	1.620070E-16
6.852512E+03	1.670961E-15	1.595544E-16
6.862443E+03	1.643857E-15	1.572124E-16
6.872374E+03	1.618030E-15	1.549837E-16
6.882306E+03	1.593451E-15	1.528664E-16
6.892237E+03	1.570105E-15	1.508595E-16
6.902168E+03	1.547966E-15	1.489611E-16
6.912099E+03	1.526984E-15	1.471670E-16
6.922030E+03	1.507141E-15	1.454758E-16
6.931962E+03	1.488393E-15	1.438841E-16
6.941893E+03	1.470682E-15	1.423866E-16
6.951824E+03	1.453960E-15	1.409791E-16
6.961755E+03	1.438180E-15	1.396575E-16
6.971686E+03	1.423296E-15	1.384179E-16
6.981617E+03	1.409242E-15	1.372542E-16
6.991549E+03	1.396004E-15	1.361654E-16
7.001480E+03	1.383505E-15	1.351444E-16
7.011411E+03	1.371716E-15	1.341887E-16
7.021342E+03	1.360563E-15	1.332913E-16
7.031273E+03	1.350054E-15	1.324533E-16
7.041204E+03	1.340101E-15	1.316664E-16
7.051136E+03	1.330700E-15	1.309304E-16
7.061067E+03	1.321784E-15	1.302391E-16
7.070998E+03	1.313337E-15	1.295909E-16
7.080929E+03	1.305328E-15	1.289832E-16
7.090860E+03	1.297726E-15	1.284129E-16
7.100792E+03	1.290490E-15	1.278763E-16
7.110723E+03	1.283608E-15	1.273723E-16
7.120654E+03	1.277041E-15	1.268971E-16
7.130585E+03	1.270763E-15	1.264484E-16
7.140516E+03	1.264752E-15	1.260241E-16
7.150447E+03	1.259001E-15	1.256236E-16
7.160379E+03	1.253457E-15	1.252418E-16
7.170310E+03	1.248133E-15	1.248799E-16
7.180241E+03	1.242974E-15	1.245328E-16
7.190172E+03	1.237979E-15	1.242001E-16
7.200103E+03	1.233127E-15	1.238802E-16
7.210034E+03	1.228386E-15	1.235695E-16
7.219966E+03	1.223752E-15	1.232680E-16
7.229897E+03	1.219193E-15	1.229724E-16
7.239828E+03	1.214709E-15	1.226827E-16
7.249759E+03	1.210253E-15	1.223943E-16
7.259690E+03	1.205841E-15	1.221087E-16
7.269622E+03	1.201444E-15	1.218231E-16
7.279553E+03	1.197066E-15	1.215379E-16
7.289484E+03	1.192666E-15	1.212489E-16
7.299415E+03	1.188249E-15	1.209567E-16
7.309346E+03	1.183807E-15	1.206604E-16
7.319277E+03	1.179320E-15	1.203580E-16
7.329209E+03	1.174813E-15	1.200520E-16
7.339140E+03	1.170239E-15	1.197377E-16
7.349071E+03	1.165642E-15	1.194194E-16
7.359002E+03	1.160978E-15	1.190929E-16
7.368933E+03	1.156280E-15	1.187612E-16
7.378864E+03	1.151539E-15	1.184237E-16
7.388796E+03	1.146760E-15	1.180808E-16
7.398727E+03	1.141953E-15	1.177334E-16
7.408658E+03	1.137113E-15	1.173811E-16
7.418589E+03	1.132266E-15	1.170265E-16
7.428520E+03	1.127425E-15	1.166710E-16
7.438452E+03	1.122588E-15	1.163143E-16
7.448383E+03	1.117785E-15	1.159597E-16
7.458314E+03	1.113017E-15	1.156072E-16
7.468245E+03	1.108328E-15	1.152613E-16
7.478176E+03	1.103719E-15	1.149223E-16
7.488107E+03	1.099220E-15	1.145933E-16
7.498039E+03	1.094832E-15	1.142744E-16
7.507970E+03	1.090583E-15	1.139686E-16
7.517901E+03	1.086485E-15	1.136773E-16
7.527832E+03	1.082550E-15	1.134016E-16
7.537763E+03	1.078786E-15	1.131426E-16
7.547694E+03	1.075214E-15	1.129025E-16
7.557626E+03	1.071826E-15	1.126805E-16
7.567557E+03	1.068623E-15	1.124769E-16
7.577488E+03	1.065635E-15	1.122947E-16
7.587419E+03	1.062828E-15	1.121306E-16
7.597350E+03	1.060212E-15	1.119856E-16
7.607282E+03	1.057779E-15	1.118590E-16
7.617213E+03	1.055516E-15	1.117495E-16
7.627144E+03	1.053426E-15	1.116575E-16
7.637075E+03	1.051462E-15	1.115779E-16
7.647006E+03	1.049650E-15	1.115136E-16
7.656937E+03	1.047940E-15	1.114595E-16
7.666869E+03	1.046323E-15	1.114145E-16
7.676800E+03	1.044777E-15	1.113764E-16
7.686731E+03	1.043260E-15	1.113406E-16
7.696662E+03	1.041776E-15	1.113076E-16
7.706593E+03	1.040298E-15	1.112745E-16
