#wls	flux	fluxerr
1.588988E+03	1.053744E-17	6.014707E-19
1.628713E+03	1.105012E-17	6.279396E-19
1.668438E+03	1.156768E-17	6.543579E-19
1.708162E+03	1.208752E-17	6.805640E-19
1.747887E+03	1.260200E-17	7.061181E-19
1.787612E+03	1.310688E-17	7.307779E-19
1.827337E+03	1.359008E-17	7.538696E-19
1.867061E+03	1.403605E-17	7.745435E-19
1.906786E+03	1.442192E-17	7.915665E-19
1.946511E+03	1.473939E-17	8.045299E-19
1.986235E+03	1.497501E-17	8.127579E-19
2.025960E+03	1.513848E-17	8.168436E-19
2.065685E+03	1.528943E-17	8.200489E-19
2.105410E+03	1.553302E-17	8.279865E-19
2.145134E+03	1.598002E-17	8.464259E-19
2.184859E+03	1.672767E-17	8.802664E-19
2.224584E+03	1.778114E-17	9.294502E-19
2.264308E+03	1.909777E-17	9.914149E-19
2.304033E+03	2.058967E-17	1.061315E-18
2.343758E+03	2.217955E-17	1.134967E-18
2.383482E+03	2.381213E-17	1.209415E-18
2.423207E+03	2.546130E-17	1.283254E-18
2.462932E+03	2.709656E-17	1.354897E-18
2.502657E+03	2.872483E-17	1.424663E-18
2.542381E+03	3.034477E-17	1.492454E-18
2.582106E+03	3.194887E-17	1.557871E-18
2.621831E+03	3.353761E-17	1.620917E-18
2.661555E+03	3.512029E-17	1.682013E-18
2.701280E+03	3.668886E-17	1.740744E-18
2.741005E+03	3.825244E-17	1.797517E-18
2.780730E+03	3.980162E-17	1.851857E-18
2.820454E+03	4.134525E-17	1.904151E-18
2.860179E+03	4.288282E-17	1.954342E-18
2.899904E+03	4.440346E-17	2.001906E-18
2.939628E+03	4.592647E-17	2.047689E-18
2.979353E+03	4.743053E-17	2.090706E-18
2.989284E+03	4.780178E-17	2.100948E-18
2.999215E+03	4.817108E-17	2.110982E-18
3.009147E+03	4.854901E-17	2.121273E-18
3.019078E+03	4.891436E-17	2.130890E-18
3.029009E+03	4.928837E-17	2.140763E-18
3.038940E+03	4.966087E-17	2.150445E-18
3.048871E+03	5.003320E-17	2.159996E-18
3.058802E+03	5.040768E-17	2.169514E-18
3.068734E+03	5.078373E-17	2.178973E-18
3.078665E+03	5.117171E-17	2.188814E-18
3.088596E+03	5.154940E-17	2.198086E-18
3.098527E+03	5.193813E-17	2.207698E-18
3.108458E+03	5.232662E-17	2.217168E-18
3.118390E+03	5.270349E-17	2.226013E-18
3.128321E+03	5.309035E-17	2.235149E-18
3.138252E+03	5.347595E-17	2.244097E-18
3.148183E+03	5.387108E-17	2.253311E-18
3.158114E+03	5.425331E-17	2.261849E-18
3.168045E+03	5.463348E-17	2.270167E-18
3.177977E+03	5.502259E-17	2.278721E-18
3.187908E+03	5.540932E-17	2.287040E-18
3.197839E+03	5.578223E-17	2.294652E-18
3.207770E+03	5.616367E-17	2.302481E-18
3.217701E+03	5.654231E-17	2.310059E-18
3.227633E+03	5.692937E-17	2.317843E-18
3.237564E+03	5.730210E-17	2.324905E-18
3.247495E+03	5.768316E-17	2.332169E-18
3.257426E+03	5.804969E-17	2.338709E-18
3.267357E+03	5.842450E-17	2.345445E-18
3.277288E+03	5.879614E-17	2.351918E-18
3.287220E+03	5.916459E-17	2.358125E-18
3.297151E+03	5.952986E-17	2.364069E-18
3.307082E+03	5.989193E-17	2.369750E-18
3.317013E+03	6.025081E-17	2.375169E-18
3.326944E+03	6.061812E-17	2.380784E-18
3.336875E+03	6.098234E-17	2.386139E-18
3.346807E+03	6.133188E-17	2.390784E-18
3.356738E+03	6.168999E-17	2.395628E-18
3.366669E+03	6.204513E-17	2.400220E-18
3.376600E+03	6.240901E-17	2.405012E-18
3.386531E+03	6.275835E-17	2.409108E-18
3.396463E+03	6.310488E-17	2.412960E-18
3.406394E+03	6.346035E-17	2.417018E-18
3.416325E+03	6.381316E-17	2.420837E-18
3.426256E+03	6.416335E-17	2.424420E-18
3.436187E+03	6.451098E-17	2.427770E-18
3.446118E+03	6.485609E-17	2.430890E-18
3.456050E+03	6.519873E-17	2.433781E-18
3.465981E+03	6.553895E-17	2.436447E-18
3.475912E+03	6.588859E-17	2.439328E-18
3.485843E+03	6.623594E-17	2.441986E-18
3.495774E+03	6.656919E-17	2.443989E-18
3.505705E+03	6.691192E-17	2.446206E-18
3.515637E+03	6.725245E-17	2.448206E-18
3.525568E+03	6.760261E-17	2.450419E-18
3.535499E+03	6.793874E-17	2.451988E-18
3.545430E+03	6.828448E-17	2.453766E-18
3.555361E+03	6.861628E-17	2.454909E-18
3.565293E+03	6.895768E-17	2.456259E-18
3.575224E+03	6.929703E-17	2.457400E-18
3.585155E+03	6.963417E-17	2.458327E-18
3.595086E+03	6.996922E-17	2.459045E-18
3.605017E+03	7.031406E-17	2.459971E-18
3.614948E+03	7.064482E-17	2.460268E-18
3.624880E+03	7.098540E-17	2.460772E-18
3.634811E+03	7.131190E-17	2.460654E-18
3.644742E+03	7.164826E-17	2.460742E-18
3.654673E+03	7.198241E-17	2.460620E-18
3.664604E+03	7.232633E-17	2.460695E-18
3.674535E+03	7.265624E-17	2.460159E-18
3.684467E+03	7.298398E-17	2.459417E-18
3.694398E+03	7.332142E-17	2.458869E-18
3.704329E+03	7.365670E-17	2.458114E-18
3.714260E+03	7.397792E-17	2.456759E-18
3.724191E+03	7.430883E-17	2.455594E-18
3.734123E+03	7.464940E-17	2.454616E-18
3.744054E+03	7.497585E-17	2.453041E-18
3.753985E+03	7.530006E-17	2.451263E-18
3.763916E+03	7.563383E-17	2.449667E-18
3.773847E+03	7.595351E-17	2.447486E-18
3.783778E+03	7.628273E-17	2.445484E-18
3.793710E+03	7.660960E-17	2.443279E-18
3.803641E+03	7.693414E-17	2.440873E-18
3.813572E+03	7.725629E-17	2.438265E-18
3.823503E+03	7.758794E-17	2.435831E-18
3.833434E+03	7.790534E-17	2.432824E-18
3.843365E+03	7.823214E-17	2.429989E-18
3.853297E+03	7.855646E-17	2.426953E-18
3.863228E+03	7.886644E-17	2.423353E-18
3.873159E+03	7.918580E-17	2.419924E-18
3.883090E+03	7.951449E-17	2.416659E-18
3.893021E+03	7.982876E-17	2.412838E-18
3.902953E+03	8.014048E-17	2.408824E-18
3.912884E+03	8.046149E-17	2.404975E-18
3.922815E+03	8.076797E-17	2.400578E-18
3.932746E+03	8.108375E-17	2.396347E-18
3.942677E+03	8.139683E-17	2.391925E-18
3.952608E+03	8.170720E-17	2.387315E-18
3.962540E+03	8.201493E-17	2.382521E-18
3.972471E+03	8.231999E-17	2.377545E-18
3.982402E+03	8.263410E-17	2.372726E-18
3.992333E+03	8.293367E-17	2.367389E-18
4.002264E+03	8.324227E-17	2.362211E-18
4.012195E+03	8.354811E-17	2.356855E-18
4.022127E+03	8.383946E-17	2.350998E-18
4.032058E+03	8.413975E-17	2.345300E-18
4.041989E+03	8.443728E-17	2.339434E-18
4.051920E+03	8.474369E-17	2.333725E-18
4.061851E+03	8.503565E-17	2.327531E-18
4.071783E+03	8.532478E-17	2.321179E-18
4.081714E+03	8.562282E-17	2.314988E-18
4.091645E+03	8.590637E-17	2.308329E-18
4.101576E+03	8.619881E-17	2.301834E-18
4.111507E+03	8.648841E-17	2.295190E-18
4.121438E+03	8.677522E-17	2.288403E-18
4.131370E+03	8.705928E-17	2.281477E-18
4.141301E+03	8.734057E-17	2.274417E-18
4.151232E+03	8.761911E-17	2.267226E-18
4.161163E+03	8.790647E-17	2.260206E-18
4.171094E+03	8.817954E-17	2.252766E-18
4.181025E+03	8.846146E-17	2.245503E-18
4.190957E+03	8.872915E-17	2.237833E-18
4.200888E+03	8.900571E-17	2.230345E-18
4.210819E+03	8.927959E-17	2.222752E-18
4.220750E+03	8.955090E-17	2.215059E-18
4.230681E+03	8.981961E-17	2.207272E-18
4.240613E+03	9.008575E-17	2.199396E-18
4.250544E+03	9.034937E-17	2.191437E-18
4.260475E+03	9.062185E-17	2.183674E-18
4.270406E+03	9.088055E-17	2.175565E-18
4.280337E+03	9.113676E-17	2.167390E-18
4.290268E+03	9.140199E-17	2.159424E-18
4.300200E+03	9.165345E-17	2.151134E-18
4.310131E+03	9.191402E-17	2.143064E-18
4.320062E+03	9.217222E-17	2.134947E-18
4.329993E+03	9.242809E-17	2.126792E-18
4.339924E+03	9.268181E-17	2.118607E-18
4.349856E+03	9.292197E-17	2.110139E-18
4.359787E+03	9.318254E-17	2.102166E-18
4.369718E+03	9.342956E-17	2.093923E-18
4.379649E+03	9.367446E-17	2.085675E-18
4.389580E+03	9.391713E-17	2.077426E-18
4.399511E+03	9.415769E-17	2.069185E-18
4.409443E+03	9.440713E-17	2.061198E-18
4.419374E+03	9.464319E-17	2.052983E-18
4.429305E+03	9.487699E-17	2.044793E-18
4.439236E+03	9.511969E-17	2.036871E-18
4.449167E+03	9.534905E-17	2.028748E-18
4.459098E+03	9.558721E-17	2.020902E-18
4.469030E+03	9.582310E-17	2.013103E-18
4.478961E+03	9.604561E-17	2.005126E-18
4.488892E+03	9.627688E-17	1.997443E-18
4.498823E+03	9.650587E-17	1.989828E-18
4.508754E+03	9.672159E-17	1.982063E-18
4.518686E+03	9.694602E-17	1.974608E-18
4.528617E+03	9.716819E-17	1.967242E-18
4.538548E+03	9.738812E-17	1.959976E-18
4.548479E+03	9.760587E-17	1.952816E-18
4.558410E+03	9.782141E-17	1.945771E-18
4.568341E+03	9.803480E-17	1.938848E-18
4.578273E+03	9.823525E-17	1.931843E-18
4.588204E+03	9.844460E-17	1.925194E-18
4.598135E+03	9.865194E-17	1.918693E-18
4.608066E+03	9.885739E-17	1.912351E-18
4.617997E+03	9.906106E-17	1.906176E-18
4.627928E+03	9.926302E-17	1.900177E-18
4.637860E+03	9.946344E-17	1.894365E-18
4.647791E+03	9.966231E-17	1.888747E-18
4.657722E+03	9.985989E-17	1.883336E-18
4.667653E+03	1.000563E-16	1.878141E-18
4.677584E+03	1.002517E-16	1.873172E-18
4.687516E+03	1.004464E-16	1.868440E-18
4.697447E+03	1.006404E-16	1.863957E-18
4.707378E+03	1.008342E-16	1.859732E-18
4.717309E+03	1.010279E-16	1.855779E-18
4.727240E+03	1.012221E-16	1.852108E-18
4.737171E+03	1.014169E-16	1.848722E-18
4.747103E+03	1.016128E-16	1.845625E-18
4.757034E+03	1.018102E-16	1.842819E-18
4.766965E+03	1.020095E-16	1.840306E-18
4.776896E+03	1.022008E-16	1.837904E-18
4.786827E+03	1.024053E-16	1.835989E-18
4.796758E+03	1.026132E-16	1.834376E-18
4.806690E+03	1.028248E-16	1.833067E-18
4.816621E+03	1.030302E-16	1.831881E-18
4.826552E+03	1.032508E-16	1.831192E-18
4.836483E+03	1.034662E-16	1.830632E-18
4.846414E+03	1.036978E-16	1.830570E-18
4.856346E+03	1.039253E-16	1.830646E-18
4.866277E+03	1.041699E-16	1.831225E-18
4.876208E+03	1.044114E-16	1.831947E-18
4.886139E+03	1.046609E-16	1.832997E-18
4.896070E+03	1.049290E-16	1.834556E-18
4.906001E+03	1.051958E-16	1.836270E-18
4.915933E+03	1.054721E-16	1.838320E-18
4.925864E+03	1.057584E-16	1.840710E-18
4.935795E+03	1.060553E-16	1.843442E-18
4.945726E+03	1.063634E-16	1.846521E-18
4.955657E+03	1.066731E-16	1.849772E-18
4.965588E+03	1.070053E-16	1.853553E-18
4.975520E+03	1.073505E-16	1.857694E-18
4.985451E+03	1.076989E-16	1.862017E-18
4.995382E+03	1.080717E-16	1.866883E-18
5.005313E+03	1.084490E-16	1.871943E-18
5.015244E+03	1.088417E-16	1.877377E-18
5.025176E+03	1.092503E-16	1.883190E-18
5.035107E+03	1.096755E-16	1.889388E-18
5.045038E+03	1.101179E-16	1.895974E-18
5.054969E+03	1.105781E-16	1.902954E-18
5.064900E+03	1.110569E-16	1.910336E-18
5.074831E+03	1.115445E-16	1.917947E-18
5.084763E+03	1.120622E-16	1.926146E-18
5.094694E+03	1.125901E-16	1.934586E-18
5.104625E+03	1.131495E-16	1.943629E-18
5.114556E+03	1.137204E-16	1.952927E-18
5.124487E+03	1.143138E-16	1.962664E-18
5.134418E+03	1.149305E-16	1.972847E-18
5.144350E+03	1.155607E-16	1.983305E-18
5.154281E+03	1.162260E-16	1.994405E-18
5.164212E+03	1.169167E-16	2.005975E-18
5.174143E+03	1.176231E-16	2.017845E-18
5.184074E+03	1.183565E-16	2.030201E-18
5.194006E+03	1.191175E-16	2.043055E-18
5.203937E+03	1.199069E-16	2.056415E-18
5.213868E+03	1.207257E-16	2.070293E-18
5.223799E+03	1.215745E-16	2.084696E-18
5.233730E+03	1.224436E-16	2.099455E-18
5.243661E+03	1.233552E-16	2.114945E-18
5.253593E+03	1.242885E-16	2.130810E-18
5.263524E+03	1.252553E-16	2.147244E-18
5.273455E+03	1.262565E-16	2.164263E-18
5.283386E+03	1.272818E-16	2.181687E-18
5.293317E+03	1.283542E-16	2.199907E-18
5.303248E+03	1.294527E-16	2.218557E-18
5.313180E+03	1.305891E-16	2.237842E-18
5.323111E+03	1.317757E-16	2.257967E-18
5.333042E+03	1.329796E-16	2.278364E-18
5.342973E+03	1.342357E-16	2.299633E-18
5.352904E+03	1.355338E-16	2.321592E-18
5.362836E+03	1.368632E-16	2.344059E-18
5.372767E+03	1.382365E-16	2.367246E-18
5.382698E+03	1.396546E-16	2.391167E-18
5.392629E+03	1.411188E-16	2.415842E-18
5.402560E+03	1.426179E-16	2.441079E-18
5.412491E+03	1.441773E-16	2.467306E-18
5.422423E+03	1.457736E-16	2.494127E-18
5.432354E+03	1.474200E-16	2.521763E-18
5.442285E+03	1.491178E-16	2.550234E-18
5.452216E+03	1.508552E-16	2.579341E-18
5.462147E+03	1.526583E-16	2.609526E-18
5.472078E+03	1.545030E-16	2.640376E-18
5.482010E+03	1.564028E-16	2.672123E-18
5.491941E+03	1.583585E-16	2.704779E-18
5.501872E+03	1.603713E-16	2.738363E-18
5.511803E+03	1.624285E-16	2.772660E-18
5.521734E+03	1.645443E-16	2.807909E-18
5.531666E+03	1.667194E-16	2.844126E-18
5.541597E+03	1.689547E-16	2.881326E-18
5.551528E+03	1.712371E-16	2.919285E-18
5.561459E+03	1.735951E-16	2.958490E-18
5.571390E+03	1.760016E-16	2.998481E-18
5.581321E+03	1.784711E-16	3.039506E-18
5.591253E+03	1.809899E-16	3.081336E-18
5.601184E+03	1.835877E-16	3.124474E-18
5.611115E+03	1.862355E-16	3.168431E-18
5.621046E+03	1.889484E-16	3.213460E-18
5.630977E+03	1.917264E-16	3.259561E-18
5.640909E+03	1.945543E-16	3.306469E-18
5.650840E+03	1.974473E-16	3.354444E-18
5.660771E+03	2.004057E-16	3.403484E-18
5.670702E+03	2.034291E-16	3.453586E-18
5.680633E+03	2.065178E-16	3.504746E-18
5.690564E+03	2.096547E-16	3.556678E-18
5.700496E+03	2.128559E-16	3.609651E-18
5.710427E+03	2.161212E-16	3.663658E-18
5.720358E+03	2.194325E-16	3.718396E-18
5.730289E+03	2.228241E-16	3.774439E-18
5.740220E+03	2.262602E-16	3.831184E-18
5.750151E+03	2.297575E-16	3.888912E-18
5.760083E+03	2.332968E-16	3.947299E-18
5.770014E+03	2.369137E-16	4.006946E-18
5.779945E+03	2.405701E-16	4.067209E-18
5.789876E+03	2.442831E-16	4.128379E-18
5.799807E+03	2.480323E-16	4.190111E-18
5.809739E+03	2.518543E-16	4.253028E-18
5.819670E+03	2.557087E-16	4.316449E-18
5.829601E+03	2.596133E-16	4.380676E-18
5.839532E+03	2.635456E-16	4.445334E-18
5.849463E+03	2.675442E-16	4.511079E-18
5.859394E+03	2.715661E-16	4.577187E-18
5.869326E+03	2.756077E-16	4.643608E-18
5.879257E+03	2.797091E-16	4.711018E-18
5.889188E+03	2.838249E-16	4.778662E-18
5.899119E+03	2.879734E-16	4.846856E-18
5.909050E+03	2.921519E-16	4.915561E-18
5.918981E+03	2.963572E-16	4.984733E-18
5.928913E+03	3.005631E-16	5.053941E-18
5.938844E+03	3.047886E-16	5.123515E-18
5.948775E+03	3.090303E-16	5.193407E-18
5.958706E+03	3.132605E-16	5.263168E-18
5.968637E+03	3.174987E-16	5.333135E-18
5.978569E+03	3.217409E-16	5.403255E-18
5.988500E+03	3.259831E-16	5.473477E-18
5.998431E+03	3.301958E-16	5.543321E-18
6.008362E+03	3.343992E-16	5.613141E-18
6.018293E+03	3.385887E-16	5.682880E-18
6.028224E+03	3.427597E-16	5.752477E-18
6.038156E+03	3.468813E-16	5.821431E-18
6.048087E+03	3.509743E-16	5.890112E-18
6.058018E+03	3.550337E-16	5.958457E-18
6.067949E+03	3.590275E-16	6.025950E-18
6.077880E+03	3.629771E-16	6.092971E-18
6.087811E+03	3.668774E-16	6.159458E-18
6.097743E+03	3.707233E-16	6.225345E-18
6.107674E+03	3.745097E-16	6.290574E-18
6.117605E+03	3.782032E-16	6.354604E-18
6.127536E+03	3.818264E-16	6.417841E-18
6.137467E+03	3.853457E-16	6.479743E-18
6.147399E+03	3.888137E-16	6.541220E-18
6.157330E+03	3.921678E-16	6.601243E-18
6.167261E+03	3.954029E-16	6.659750E-18
6.177192E+03	3.985739E-16	6.717689E-18
6.187123E+03	4.016171E-16	6.774013E-18
6.197054E+03	4.045585E-16	6.829181E-18
6.206986E+03	4.073945E-16	6.883156E-18
6.216917E+03	4.100908E-16	6.935383E-18
6.226848E+03	4.126746E-16	6.986337E-18
6.236779E+03	4.151436E-16	7.035975E-18
6.246710E+03	4.174957E-16	7.084245E-18
6.256641E+03	4.196976E-16	7.130575E-18
6.266573E+03	4.217786E-16	7.175441E-18
6.276504E+03	4.237370E-16	7.218803E-18
6.286435E+03	4.255714E-16	7.260616E-18
6.296366E+03	4.272489E-16	7.300303E-18
6.306297E+03	4.287998E-16	7.338360E-18
6.316229E+03	4.302235E-16	7.374754E-18
6.326160E+03	4.314870E-16	7.408901E-18
6.336091E+03	4.326539E-16	7.441867E-18
6.346022E+03	4.336596E-16	7.472522E-18
6.355953E+03	4.345039E-16	7.500834E-18
6.365884E+03	4.352509E-16	7.527886E-18
6.375816E+03	4.358365E-16	7.552546E-18
6.385747E+03	4.362933E-16	7.575349E-18
6.395678E+03	4.365894E-16	7.595718E-18
6.405609E+03	4.367899E-16	7.614758E-18
6.415540E+03	4.368312E-16	7.631334E-18
6.425471E+03	4.367464E-16	7.646000E-18
6.435403E+03	4.365045E-16	7.658182E-18
6.445334E+03	4.361390E-16	7.668443E-18
6.455265E+03	4.356835E-16	7.677346E-18
6.465196E+03	4.350429E-16	7.683193E-18
6.475127E+03	4.343154E-16	7.687689E-18
6.485059E+03	4.334387E-16	7.689703E-18
6.494990E+03	4.324467E-16	7.689816E-18
6.504921E+03	4.313415E-16	7.688036E-18
6.514852E+03	4.300936E-16	7.683813E-18
6.524783E+03	4.287685E-16	7.678296E-18
6.534714E+03	4.273054E-16	7.670369E-18
6.544646E+03	4.257069E-16	7.660059E-18
6.554577E+03	4.240385E-16	7.648516E-18
6.564508E+03	4.222400E-16	7.634638E-18
6.574439E+03	4.203454E-16	7.619019E-18
6.584370E+03	4.183577E-16	7.601689E-18
6.594301E+03	4.162487E-16	7.582117E-18
6.604233E+03	4.140828E-16	7.561459E-18
6.614164E+03	4.118018E-16	7.538633E-18
6.624095E+03	4.094088E-16	7.513679E-18
6.634026E+03	4.069676E-16	7.487748E-18
6.643957E+03	4.044208E-16	7.459772E-18
6.653889E+03	4.018016E-16	7.430346E-18
6.663820E+03	3.991131E-16	7.399513E-18
6.673751E+03	3.963582E-16	7.367317E-18
6.683682E+03	3.935109E-16	7.333258E-18
6.693613E+03	3.906038E-16	7.297932E-18
6.703544E+03	3.876398E-16	7.261383E-18
6.713476E+03	3.845934E-16	7.223124E-18
6.723407E+03	3.815250E-16	7.184275E-18
6.733338E+03	3.783805E-16	7.143816E-18
6.743269E+03	3.751917E-16	7.102333E-18
6.753200E+03	3.719337E-16	7.059348E-18
6.763131E+03	3.686650E-16	7.015964E-18
6.773063E+03	3.653332E-16	6.971182E-18
6.782994E+03	3.619691E-16	6.925579E-18
6.792925E+03	3.585752E-16	6.879201E-18
6.802856E+03	3.551280E-16	6.831592E-18
6.812787E+03	3.516570E-16	6.783314E-18
6.822719E+03	3.481907E-16	6.734915E-18
6.832650E+03	3.446540E-16	6.684941E-18
6.842581E+03	3.411273E-16	6.634945E-18
6.852512E+03	3.375618E-16	6.583979E-18
6.862443E+03	3.340106E-16	6.533077E-18
6.872374E+03	3.304260E-16	6.481306E-18
6.882306E+03	3.268109E-16	6.428722E-18
6.892237E+03	3.232167E-16	6.376333E-18
6.902168E+03	3.195970E-16	6.323226E-18
6.912099E+03	3.159782E-16	6.269922E-18
6.922030E+03	3.123624E-16	6.216465E-18
6.931962E+03	3.087516E-16	6.162895E-18
6.941893E+03	3.051248E-16	6.108795E-18
6.951824E+03	3.015297E-16	6.055120E-18
6.961755E+03	2.979227E-16	6.000998E-18
6.971686E+03	2.943061E-16	5.946476E-18
6.981617E+03	2.907261E-16	5.892486E-18
6.991549E+03	2.871617E-16	5.838611E-18
7.001480E+03	2.835932E-16	5.784448E-18
7.011411E+03	2.800439E-16	5.730475E-18
7.021342E+03	2.765149E-16	5.676718E-18
7.031273E+03	2.729870E-16	5.622785E-18
7.041204E+03	2.695029E-16	5.569555E-18
7.051136E+03	2.660227E-16	5.516210E-18
7.061067E+03	2.625681E-16	5.463201E-18
7.070998E+03	2.591400E-16	5.410550E-18
7.080929E+03	2.557395E-16	5.358281E-18
7.090860E+03	2.523483E-16	5.306015E-18
7.100792E+03	2.490056E-16	5.254578E-18
7.110723E+03	2.456742E-16	5.203190E-18
7.120654E+03	2.423741E-16	5.152271E-18
7.130585E+03	2.390875E-16	5.101450E-18
7.140516E+03	2.358518E-16	5.051525E-18
7.150447E+03	2.326313E-16	5.001732E-18
7.160379E+03	2.294622E-16	4.952857E-18
7.170310E+03	2.263096E-16	4.904148E-18
7.180241E+03	2.231747E-16	4.855630E-18
7.190172E+03	2.200921E-16	4.808058E-18
7.200103E+03	2.170449E-16	4.761066E-18
7.210034E+03	2.140169E-16	4.714302E-18
7.219966E+03	2.110251E-16	4.668141E-18
7.229897E+03	2.080697E-16	4.622588E-18
7.239828E+03	2.051509E-16	4.577650E-18
7.249759E+03	2.022687E-16	4.533332E-18
7.259690E+03	1.994079E-16	4.489290E-18
7.269622E+03	1.965842E-16	4.445881E-18
7.279553E+03	1.938127E-16	4.403444E-18
7.289484E+03	1.910630E-16	4.361283E-18
7.299415E+03	1.883356E-16	4.319392E-18
7.309346E+03	1.856597E-16	4.278431E-18
7.319277E+03	1.830060E-16	4.237720E-18
7.329209E+03	1.804030E-16	4.197907E-18
7.339140E+03	1.778221E-16	4.158320E-18
7.349071E+03	1.752772E-16	4.119278E-18
7.359002E+03	1.727682E-16	4.080768E-18
7.368933E+03	1.702948E-16	4.042779E-18
7.378864E+03	1.678434E-16	4.004983E-18
7.388796E+03	1.654403E-16	3.968000E-18
7.398727E+03	1.630590E-16	3.931192E-18
7.408658E+03	1.607123E-16	3.894865E-18
7.418589E+03	1.584001E-16	3.859007E-18
7.428520E+03	1.561219E-16	3.823609E-18
7.438452E+03	1.538774E-16	3.788660E-18
7.448383E+03	1.516543E-16	3.753854E-18
7.458314E+03	1.494647E-16	3.719485E-18
7.468245E+03	1.473198E-16	3.685838E-18
7.478176E+03	1.451959E-16	3.652319E-18
7.488107E+03	1.431045E-16	3.619212E-18
7.498039E+03	1.410452E-16	3.586514E-18
7.507970E+03	1.390067E-16	3.553934E-18
7.517901E+03	1.370109E-16	3.522032E-18
7.527832E+03	1.350355E-16	3.490241E-18
7.537763E+03	1.331021E-16	3.459116E-18
7.547694E+03	1.311886E-16	3.428092E-18
7.557626E+03	1.293057E-16	3.397447E-18
7.567557E+03	1.274530E-16	3.367175E-18
7.577488E+03	1.256301E-16	3.337270E-18
7.587419E+03	1.238268E-16	3.307461E-18
7.597350E+03	1.220627E-16	3.278280E-18
7.607282E+03	1.203178E-16	3.249190E-18
7.617213E+03	1.186114E-16	3.220718E-18
7.627144E+03	1.169235E-16	3.192332E-18
7.637075E+03	1.152637E-16	3.164291E-18
7.647006E+03	1.136315E-16	3.136592E-18
7.656937E+03	1.120268E-16	3.109235E-18
7.666869E+03	1.104398E-16	3.081957E-18
7.676800E+03	1.088887E-16	3.055265E-18
7.686731E+03	1.073549E-16	3.028649E-18
7.696662E+03	1.058561E-16	3.002610E-18
7.706593E+03	1.043740E-16	2.976643E-18
