#wls	flux	fluxerr
1.592832E+03	2.083728E-03	9.108459E-05
1.632653E+03	2.101521E-03	9.165869E-05
1.672474E+03	2.110053E-03	9.182120E-05
1.712295E+03	2.108903E-03	9.155658E-05
1.752115E+03	2.097365E-03	9.083707E-05
1.791936E+03	2.075759E-03	8.967969E-05
1.831757E+03	2.044526E-03	8.810683E-05
1.871578E+03	2.004990E-03	8.617868E-05
1.911399E+03	1.958675E-03	8.396358E-05
1.951220E+03	1.907126E-03	8.153019E-05
1.991040E+03	1.850991E-03	7.890835E-05
2.030861E+03	1.790068E-03	7.609143E-05
2.070682E+03	1.724029E-03	7.306784E-05
2.110503E+03	1.656429E-03	6.999013E-05
2.150324E+03	1.596859E-03	6.726344E-05
2.190144E+03	1.555185E-03	6.529930E-05
2.229965E+03	1.536839E-03	6.431822E-05
2.269786E+03	1.544149E-03	6.440769E-05
2.309607E+03	1.580065E-03	6.567956E-05
2.349428E+03	1.649275E-03	6.831526E-05
2.389248E+03	1.755367E-03	7.244758E-05
2.429069E+03	1.900811E-03	7.816057E-05
2.468890E+03	2.087875E-03	8.552771E-05
2.508711E+03	2.317943E-03	9.458416E-05
2.548532E+03	2.590206E-03	1.052744E-04
2.588352E+03	2.901053E-03	1.174290E-04
2.628173E+03	3.244864E-03	1.307994E-04
2.667994E+03	3.618526E-03	1.452403E-04
2.707815E+03	4.022300E-03	1.607435E-04
2.747636E+03	4.457810E-03	1.773534E-04
2.787456E+03	4.923390E-03	1.949831E-04
2.827277E+03	5.413424E-03	2.133900E-04
2.867098E+03	5.918547E-03	2.321886E-04
2.906919E+03	6.426646E-03	2.508924E-04
2.946740E+03	6.923949E-03	2.689600E-04
2.986560E+03	7.395880E-03	2.858295E-04
2.996516E+03	7.508103E-03	2.897917E-04
3.006471E+03	7.617665E-03	2.936385E-04
3.016426E+03	7.724140E-03	2.973539E-04
3.026381E+03	7.827616E-03	3.009418E-04
3.036336E+03	7.927675E-03	3.043864E-04
3.046292E+03	8.024090E-03	3.076796E-04
3.056247E+03	8.116640E-03	3.108133E-04
3.066202E+03	8.205465E-03	3.137935E-04
3.076157E+03	8.290057E-03	3.166012E-04
3.086112E+03	8.370611E-03	3.192447E-04
3.096068E+03	8.446863E-03	3.217142E-04
3.106023E+03	8.518946E-03	3.240156E-04
3.115978E+03	8.586876E-03	3.261501E-04
3.125933E+03	8.650760E-03	3.281224E-04
3.135889E+03	8.710794E-03	3.299404E-04
3.145844E+03	8.767426E-03	3.316217E-04
3.155799E+03	8.820865E-03	3.331748E-04
3.165754E+03	8.871727E-03	3.346233E-04
3.175709E+03	8.920525E-03	3.359869E-04
3.185665E+03	8.967796E-03	3.372862E-04
3.195620E+03	9.014229E-03	3.385472E-04
3.205575E+03	9.060014E-03	3.397773E-04
3.215530E+03	9.106047E-03	3.410100E-04
3.225485E+03	9.152204E-03	3.422407E-04
3.235441E+03	9.199158E-03	3.434943E-04
3.245396E+03	9.246686E-03	3.447626E-04
3.255351E+03	9.294888E-03	3.460491E-04
3.265306E+03	9.343556E-03	3.473459E-04
3.275261E+03	9.392202E-03	3.486348E-04
3.285217E+03	9.440647E-03	3.499092E-04
3.295172E+03	9.488025E-03	3.511371E-04
3.305127E+03	9.533690E-03	3.522947E-04
3.315082E+03	9.577238E-03	3.533674E-04
3.325037E+03	9.617696E-03	3.543197E-04
3.334993E+03	9.654428E-03	3.551288E-04
3.344948E+03	9.686883E-03	3.557750E-04
3.354903E+03	9.714774E-03	3.562485E-04
3.364858E+03	9.737558E-03	3.565302E-04
3.374813E+03	9.755127E-03	3.566171E-04
3.384769E+03	9.767677E-03	3.565171E-04
3.394724E+03	9.775270E-03	3.562335E-04
3.404679E+03	9.778218E-03	3.557784E-04
3.414634E+03	9.776632E-03	3.551567E-04
3.424589E+03	9.771024E-03	3.543877E-04
3.434545E+03	9.761713E-03	3.534838E-04
3.444500E+03	9.748677E-03	3.524447E-04
3.454455E+03	9.732006E-03	3.512745E-04
3.464410E+03	9.711501E-03	3.499666E-04
3.474365E+03	9.687030E-03	3.485170E-04
3.484321E+03	9.657871E-03	3.469004E-04
3.494276E+03	9.623657E-03	3.451045E-04
3.504231E+03	9.583630E-03	3.431032E-04
3.514186E+03	9.537168E-03	3.408753E-04
3.524141E+03	9.483722E-03	3.384024E-04
3.534097E+03	9.422770E-03	3.356671E-04
3.544052E+03	9.354187E-03	3.326664E-04
3.554007E+03	9.277775E-03	3.293946E-04
3.563962E+03	9.193833E-03	3.258639E-04
3.573917E+03	9.103081E-03	3.221012E-04
3.583873E+03	9.006413E-03	3.181392E-04
3.593828E+03	8.905201E-03	3.140275E-04
3.603783E+03	8.801121E-03	3.098260E-04
3.613738E+03	8.696229E-03	3.056074E-04
3.623693E+03	8.592991E-03	3.014586E-04
3.633649E+03	8.493953E-03	2.974684E-04
3.643604E+03	8.402042E-03	2.937385E-04
3.653559E+03	8.319950E-03	2.903616E-04
3.663514E+03	8.250416E-03	2.874312E-04
3.673469E+03	8.196000E-03	2.850343E-04
3.683425E+03	8.158668E-03	2.832363E-04
3.693380E+03	8.140083E-03	2.820918E-04
3.703335E+03	8.141557E-03	2.816427E-04
3.713290E+03	8.163605E-03	2.819031E-04
3.723245E+03	8.206247E-03	2.828700E-04
3.733201E+03	8.269063E-03	2.845251E-04
3.743156E+03	8.350833E-03	2.868227E-04
3.753111E+03	8.449906E-03	2.897028E-04
3.763066E+03	8.564171E-03	2.930899E-04
3.773021E+03	8.690851E-03	2.968864E-04
3.782977E+03	8.826803E-03	3.009827E-04
3.792932E+03	8.968527E-03	3.052580E-04
3.802887E+03	9.112266E-03	3.095835E-04
3.812842E+03	9.254240E-03	3.138308E-04
3.822797E+03	9.390552E-03	3.178683E-04
3.832753E+03	9.517668E-03	3.215776E-04
3.842708E+03	9.632421E-03	3.248536E-04
3.852663E+03	9.731997E-03	3.276040E-04
3.862618E+03	9.814284E-03	3.297606E-04
3.872573E+03	9.878060E-03	3.312858E-04
3.882529E+03	9.922690E-03	3.321618E-04
3.892484E+03	9.948239E-03	3.323944E-04
3.902439E+03	9.955749E-03	3.320219E-04
3.912394E+03	9.946829E-03	3.311015E-04
3.922349E+03	9.923396E-03	3.296997E-04
3.932305E+03	9.888092E-03	3.279072E-04
3.942260E+03	9.843718E-03	3.258188E-04
3.952215E+03	9.793065E-03	3.235285E-04
3.962170E+03	9.738762E-03	3.211242E-04
3.972125E+03	9.683501E-03	3.186953E-04
3.982081E+03	9.629291E-03	3.163079E-04
3.992036E+03	9.577738E-03	3.140145E-04
4.001991E+03	9.530056E-03	3.118545E-04
4.011946E+03	9.486649E-03	3.098403E-04
4.021901E+03	9.447587E-03	3.079735E-04
4.031857E+03	9.412091E-03	3.062279E-04
4.041812E+03	9.379319E-03	3.045755E-04
4.051767E+03	9.347743E-03	3.029664E-04
4.061722E+03	9.315656E-03	3.013452E-04
4.071677E+03	9.281330E-03	2.996563E-04
4.081633E+03	9.242691E-03	2.978331E-04
4.091588E+03	9.198089E-03	2.958236E-04
4.101543E+03	9.145648E-03	2.935686E-04
4.111498E+03	9.083963E-03	2.910247E-04
4.121453E+03	9.011941E-03	2.881587E-04
4.131409E+03	8.928739E-03	2.849455E-04
4.141364E+03	8.834081E-03	2.813785E-04
4.151319E+03	8.728081E-03	2.774636E-04
4.161274E+03	8.611268E-03	2.732195E-04
4.171229E+03	8.484859E-03	2.686869E-04
4.181185E+03	8.350269E-03	2.639122E-04
4.191140E+03	8.209622E-03	2.589639E-04
4.201095E+03	8.065147E-03	2.539133E-04
4.211050E+03	7.919563E-03	2.488466E-04
4.221005E+03	7.775675E-03	2.438519E-04
4.230961E+03	7.636170E-03	2.390131E-04
4.240916E+03	7.503834E-03	2.344162E-04
4.250871E+03	7.380959E-03	2.301314E-04
4.260826E+03	7.269410E-03	2.262152E-04
4.270781E+03	7.170560E-03	2.227080E-04
4.280737E+03	7.085384E-03	2.196377E-04
4.290692E+03	7.014323E-03	2.170156E-04
4.300647E+03	6.957270E-03	2.148359E-04
4.310602E+03	6.914148E-03	2.130936E-04
4.320557E+03	6.884496E-03	2.117721E-04
4.330513E+03	6.868167E-03	2.108645E-04
4.340468E+03	6.864920E-03	2.103611E-04
4.350423E+03	6.874847E-03	2.102623E-04
4.360378E+03	6.898082E-03	2.105699E-04
4.370333E+03	6.934375E-03	2.112739E-04
4.380289E+03	6.982387E-03	2.123314E-04
4.390244E+03	7.039668E-03	2.136660E-04
4.400199E+03	7.103241E-03	2.151857E-04
4.410154E+03	7.169893E-03	2.167926E-04
4.420110E+03	7.236458E-03	2.183904E-04
4.430065E+03	7.299717E-03	2.198824E-04
4.440020E+03	7.356768E-03	2.211816E-04
4.449975E+03	7.404760E-03	2.222039E-04
4.459930E+03	7.441233E-03	2.228769E-04
4.469886E+03	7.464158E-03	2.231421E-04
4.479841E+03	7.472056E-03	2.229574E-04
4.489796E+03	7.464054E-03	2.222996E-04
4.499751E+03	7.439934E-03	2.211648E-04
4.509706E+03	7.400011E-03	2.195649E-04
4.519662E+03	7.345430E-03	2.175366E-04
4.529617E+03	7.277600E-03	2.151238E-04
4.539572E+03	7.198431E-03	2.123852E-04
4.549527E+03	7.110004E-03	2.093838E-04
4.559482E+03	7.014642E-03	2.061893E-04
4.569438E+03	6.914533E-03	2.028672E-04
4.579393E+03	6.811703E-03	1.994773E-04
4.589348E+03	6.708283E-03	1.960825E-04
4.599303E+03	6.605976E-03	1.927324E-04
4.609258E+03	6.506375E-03	1.894733E-04
4.619214E+03	6.411014E-03	1.863491E-04
4.629169E+03	6.321200E-03	1.833971E-04
4.639124E+03	6.237915E-03	1.806448E-04
4.649079E+03	6.162271E-03	1.781232E-04
4.659034E+03	6.095041E-03	1.758534E-04
4.668990E+03	6.036832E-03	1.738515E-04
4.678945E+03	5.988124E-03	1.721297E-04
4.688900E+03	5.949148E-03	1.706932E-04
4.698855E+03	5.920001E-03	1.695432E-04
4.708810E+03	5.900398E-03	1.686700E-04
4.718766E+03	5.890007E-03	1.680625E-04
4.728721E+03	5.888256E-03	1.677031E-04
4.738676E+03	5.894093E-03	1.675604E-04
4.748631E+03	5.906479E-03	1.676038E-04
4.758586E+03	5.923935E-03	1.677904E-04
4.768542E+03	5.944763E-03	1.680713E-04
4.778497E+03	5.967274E-03	1.683985E-04
4.788452E+03	5.989455E-03	1.687149E-04
4.798407E+03	6.009750E-03	1.689769E-04
4.808362E+03	6.026535E-03	1.691392E-04
4.818318E+03	6.038901E-03	1.691770E-04
4.828273E+03	6.046265E-03	1.690745E-04
4.838228E+03	6.048891E-03	1.688399E-04
4.848183E+03	6.047423E-03	1.684920E-04
4.858138E+03	6.043211E-03	1.680688E-04
4.868094E+03	6.037942E-03	1.676178E-04
4.878049E+03	6.033487E-03	1.671908E-04
4.888004E+03	6.031818E-03	1.668423E-04
4.897959E+03	6.034797E-03	1.666233E-04
4.907914E+03	6.044098E-03	1.665793E-04
4.917870E+03	6.060858E-03	1.667406E-04
4.927825E+03	6.086064E-03	1.671333E-04
4.937780E+03	6.120052E-03	1.677653E-04
4.947735E+03	6.162957E-03	1.686390E-04
4.957690E+03	6.214470E-03	1.697449E-04
4.967646E+03	6.274072E-03	1.710674E-04
4.977601E+03	6.341048E-03	1.725860E-04
4.987556E+03	6.414588E-03	1.742778E-04
4.997511E+03	6.493596E-03	1.761120E-04
5.007466E+03	6.577070E-03	1.780608E-04
5.017422E+03	6.663806E-03	1.800912E-04
5.027377E+03	6.752665E-03	1.821720E-04
5.037332E+03	6.842309E-03	1.842671E-04
5.047287E+03	6.931351E-03	1.863389E-04
5.057242E+03	7.018509E-03	1.883534E-04
5.067198E+03	7.102444E-03	1.902750E-04
5.077153E+03	7.181805E-03	1.920681E-04
5.087108E+03	7.255358E-03	1.937006E-04
5.097063E+03	7.322251E-03	1.951506E-04
5.107018E+03	7.381592E-03	1.963953E-04
5.116974E+03	7.432901E-03	1.974232E-04
5.126929E+03	7.476033E-03	1.982315E-04
5.136884E+03	7.511178E-03	1.988265E-04
5.146839E+03	7.538792E-03	1.992214E-04
5.156794E+03	7.559817E-03	1.994421E-04
5.166750E+03	7.575247E-03	1.995157E-04
5.176705E+03	7.586536E-03	1.994813E-04
5.186660E+03	7.595066E-03	1.993757E-04
5.196615E+03	7.602576E-03	1.992449E-04
5.206570E+03	7.610457E-03	1.991255E-04
5.216526E+03	7.620185E-03	1.990561E-04
5.226481E+03	7.632757E-03	1.990625E-04
5.236436E+03	7.649076E-03	1.991679E-04
5.246391E+03	7.669585E-03	1.993835E-04
5.256346E+03	7.694170E-03	1.997057E-04
5.266302E+03	7.722469E-03	2.001249E-04
5.276257E+03	7.753860E-03	2.006246E-04
5.286212E+03	7.787290E-03	2.011772E-04
5.296167E+03	7.821552E-03	2.017515E-04
5.306122E+03	7.855465E-03	2.023171E-04
5.316078E+03	7.887921E-03	2.028456E-04
5.326033E+03	7.917972E-03	2.033130E-04
5.335988E+03	7.944803E-03	2.036987E-04
5.345943E+03	7.967997E-03	2.039925E-04
5.355898E+03	7.987176E-03	2.041853E-04
5.365854E+03	8.002234E-03	2.042749E-04
5.375809E+03	8.012900E-03	2.042549E-04
5.385764E+03	8.018999E-03	2.041215E-04
5.395719E+03	8.019977E-03	2.038611E-04
5.405674E+03	8.014722E-03	2.034461E-04
5.415630E+03	8.001941E-03	2.028445E-04
5.425585E+03	7.979602E-03	2.020056E-04
5.435540E+03	7.944938E-03	2.008606E-04
5.445495E+03	7.895551E-03	1.993501E-04
5.455450E+03	7.828904E-03	1.974116E-04
5.465406E+03	7.743545E-03	1.950102E-04
5.475361E+03	7.640723E-03	1.921791E-04
5.485316E+03	7.525072E-03	1.890361E-04
5.495271E+03	7.403135E-03	1.857464E-04
5.505226E+03	7.282015E-03	1.824883E-04
5.515182E+03	7.168362E-03	1.794280E-04
5.525137E+03	7.068318E-03	1.767180E-04
5.535092E+03	6.986991E-03	1.744847E-04
5.545047E+03	6.928313E-03	1.728244E-04
5.555002E+03	6.895175E-03	1.718069E-04
5.564958E+03	6.889171E-03	1.714699E-04
5.574913E+03	6.910668E-03	1.718201E-04
5.584868E+03	6.958951E-03	1.728376E-04
5.594823E+03	7.032132E-03	1.744735E-04
5.604778E+03	7.127382E-03	1.766557E-04
5.614734E+03	7.241130E-03	1.792943E-04
5.624689E+03	7.369142E-03	1.822833E-04
5.634644E+03	7.506847E-03	1.855087E-04
5.644599E+03	7.649408E-03	1.888506E-04
5.654555E+03	7.792014E-03	1.921901E-04
5.664510E+03	7.930134E-03	1.954157E-04
5.674465E+03	8.059566E-03	1.984244E-04
5.684420E+03	8.176631E-03	2.011264E-04
5.694375E+03	8.278426E-03	2.034513E-04
5.704331E+03	8.362726E-03	2.053455E-04
5.714286E+03	8.428218E-03	2.067779E-04
5.724241E+03	8.474240E-03	2.077337E-04
5.734196E+03	8.501181E-03	2.082235E-04
5.744151E+03	8.509865E-03	2.082686E-04
5.754107E+03	8.501779E-03	2.079065E-04
5.764062E+03	8.479018E-03	2.071892E-04
5.774017E+03	8.443601E-03	2.061669E-04
5.783972E+03	8.398049E-03	2.049017E-04
5.793927E+03	8.344707E-03	2.034512E-04
5.803883E+03	8.285816E-03	2.018705E-04
5.813838E+03	8.223332E-03	2.002072E-04
5.823793E+03	8.159197E-03	1.985088E-04
5.833748E+03	8.094752E-03	1.968079E-04
5.843703E+03	8.031123E-03	1.951316E-04
5.853659E+03	7.968934E-03	1.934952E-04
5.863614E+03	7.908303E-03	1.919012E-04
5.873569E+03	7.849128E-03	1.903471E-04
5.883524E+03	7.790958E-03	1.888218E-04
5.893479E+03	7.732831E-03	1.873018E-04
5.903435E+03	7.673900E-03	1.857666E-04
5.913390E+03	7.613226E-03	1.841935E-04
5.923345E+03	7.550084E-03	1.825649E-04
5.933300E+03	7.483741E-03	1.808631E-04
5.943255E+03	7.414151E-03	1.790870E-04
5.953211E+03	7.341356E-03	1.772378E-04
5.963166E+03	7.266084E-03	1.753330E-04
5.973121E+03	7.189412E-03	1.733987E-04
5.983076E+03	7.112698E-03	1.714674E-04
5.993031E+03	7.037766E-03	1.695832E-04
6.002987E+03	6.966368E-03	1.677881E-04
6.012942E+03	6.900636E-03	1.661331E-04
6.022897E+03	6.842221E-03	1.646579E-04
6.032852E+03	6.792974E-03	1.634066E-04
6.042807E+03	6.754103E-03	1.624080E-04
6.052763E+03	6.726638E-03	1.616865E-04
6.062718E+03	6.710888E-03	1.612493E-04
6.072673E+03	6.706815E-03	1.610950E-04
6.082628E+03	6.713770E-03	1.612079E-04
6.092583E+03	6.730689E-03	1.615620E-04
6.102539E+03	6.755904E-03	1.621173E-04
6.112494E+03	6.787422E-03	1.628257E-04
6.122449E+03	6.823020E-03	1.636338E-04
6.132404E+03	6.860162E-03	1.644808E-04
6.142359E+03	6.895973E-03	1.652978E-04
6.152315E+03	6.927786E-03	1.660210E-04
6.162270E+03	6.952873E-03	1.665850E-04
6.172225E+03	6.968740E-03	1.669304E-04
6.182180E+03	6.973254E-03	1.670062E-04
6.192135E+03	6.964664E-03	1.667706E-04
6.202091E+03	6.941816E-03	1.661963E-04
6.212046E+03	6.904368E-03	1.652751E-04
6.222001E+03	6.852411E-03	1.640095E-04
6.231956E+03	6.786697E-03	1.624174E-04
6.241911E+03	6.709067E-03	1.605430E-04
6.251867E+03	6.621775E-03	1.584403E-04
6.261822E+03	6.527438E-03	1.561719E-04
6.271777E+03	6.429485E-03	1.538197E-04
6.281732E+03	6.330983E-03	1.514571E-04
6.291687E+03	6.235361E-03	1.491659E-04
6.301643E+03	6.145393E-03	1.470125E-04
6.311598E+03	6.063519E-03	1.450551E-04
6.321553E+03	5.991408E-03	1.433335E-04
6.331508E+03	5.929921E-03	1.418685E-04
6.341463E+03	5.879093E-03	1.406606E-04
6.351419E+03	5.838051E-03	1.396888E-04
6.361374E+03	5.805220E-03	1.389155E-04
6.371329E+03	5.778649E-03	1.382939E-04
6.381284E+03	5.755806E-03	1.377632E-04
6.391239E+03	5.734318E-03	1.372668E-04
6.401195E+03	5.711789E-03	1.367470E-04
6.411150E+03	5.686216E-03	1.361558E-04
6.421105E+03	5.656160E-03	1.354587E-04
6.431060E+03	5.620807E-03	1.346360E-04
6.441015E+03	5.579760E-03	1.336780E-04
6.450971E+03	5.533253E-03	1.325902E-04
6.460926E+03	5.482030E-03	1.313901E-04
6.470881E+03	5.427088E-03	1.301016E-04
6.480836E+03	5.369954E-03	1.287611E-04
6.490791E+03	5.312042E-03	1.274023E-04
6.500747E+03	5.254365E-03	1.260495E-04
6.510702E+03	5.197602E-03	1.247188E-04
6.520657E+03	5.141629E-03	1.234073E-04
6.530612E+03	5.085919E-03	1.221021E-04
6.540567E+03	5.030134E-03	1.207951E-04
6.550523E+03	4.973849E-03	1.194760E-04
6.560478E+03	4.916925E-03	1.181414E-04
6.570433E+03	4.859499E-03	1.167945E-04
6.580388E+03	4.801648E-03	1.154371E-04
6.590343E+03	4.743739E-03	1.140778E-04
6.600299E+03	4.686382E-03	1.127313E-04
6.610254E+03	4.629940E-03	1.114064E-04
6.620209E+03	4.574949E-03	1.101158E-04
6.630164E+03	4.522031E-03	1.088745E-04
6.640119E+03	4.471630E-03	1.076932E-04
6.650075E+03	4.424228E-03	1.065836E-04
6.660030E+03	4.380325E-03	1.055576E-04
6.669985E+03	4.340125E-03	1.046203E-04
6.679940E+03	4.303883E-03	1.037778E-04
6.689895E+03	4.271904E-03	1.030375E-04
6.699851E+03	4.244079E-03	1.023969E-04
6.709806E+03	4.220332E-03	1.018542E-04
6.719761E+03	4.200541E-03	1.014064E-04
6.729716E+03	4.184345E-03	1.010450E-04
6.739671E+03	4.171365E-03	1.007608E-04
6.749627E+03	4.161159E-03	1.005432E-04
6.759582E+03	4.153250E-03	1.003807E-04
6.769537E+03	4.147064E-03	1.002593E-04
6.779492E+03	4.142171E-03	1.001688E-04
6.789447E+03	4.138085E-03	1.000973E-04
6.799403E+03	4.134267E-03	1.000319E-04
6.809358E+03	4.130363E-03	9.996384E-05
6.819313E+03	4.125911E-03	9.988201E-05
6.829268E+03	4.120585E-03	9.977846E-05
6.839223E+03	4.114121E-03	9.964676E-05
6.849179E+03	4.106252E-03	9.948038E-05
6.859134E+03	4.097023E-03	9.928037E-05
6.869089E+03	4.086327E-03	9.904410E-05
6.879044E+03	4.074141E-03	9.877099E-05
6.889000E+03	4.060674E-03	9.846603E-05
6.898955E+03	4.046035E-03	9.813185E-05
6.908910E+03	4.030456E-03	9.777404E-05
6.918865E+03	4.014280E-03	9.740091E-05
6.928820E+03	3.997692E-03	9.701692E-05
6.938776E+03	3.980958E-03	9.662852E-05
6.948731E+03	3.964305E-03	9.624120E-05
6.958686E+03	3.947942E-03	9.586005E-05
6.968641E+03	3.931950E-03	9.548701E-05
6.978596E+03	3.916585E-03	9.512832E-05
6.988552E+03	3.901759E-03	9.478183E-05
6.998507E+03	3.887467E-03	9.444744E-05
7.008462E+03	3.873743E-03	9.412597E-05
7.018417E+03	3.860409E-03	9.381309E-05
7.028372E+03	3.847327E-03	9.350545E-05
7.038328E+03	3.834324E-03	9.319885E-05
7.048283E+03	3.821199E-03	9.288840E-05
7.058238E+03	3.807825E-03	9.257104E-05
7.068193E+03	3.793843E-03	9.223800E-05
7.078148E+03	3.779059E-03	9.188460E-05
7.088104E+03	3.763389E-03	9.150878E-05
7.098059E+03	3.746689E-03	9.110707E-05
7.108014E+03	3.728797E-03	9.067548E-05
7.117969E+03	3.709725E-03	9.021435E-05
7.127924E+03	3.689309E-03	8.971969E-05
7.137880E+03	3.667729E-03	8.919586E-05
7.147835E+03	3.644971E-03	8.864261E-05
7.157790E+03	3.621131E-03	8.806221E-05
7.167745E+03	3.596253E-03	8.745580E-05
7.177700E+03	3.570633E-03	8.683057E-05
7.187656E+03	3.544286E-03	8.618691E-05
7.197611E+03	3.517460E-03	8.553088E-05
7.207566E+03	3.490259E-03	8.486503E-05
7.217521E+03	3.462948E-03	8.419585E-05
7.227476E+03	3.435637E-03	8.352602E-05
7.237432E+03	3.408513E-03	8.286008E-05
7.247387E+03	3.381828E-03	8.220421E-05
7.257342E+03	3.355681E-03	8.156085E-05
7.267297E+03	3.330313E-03	8.093587E-05
7.277252E+03	3.305742E-03	8.032970E-05
7.287208E+03	3.282189E-03	7.974775E-05
7.297163E+03	3.259866E-03	7.919519E-05
7.307118E+03	3.238769E-03	7.867193E-05
7.317073E+03	3.219089E-03	7.818261E-05
7.327028E+03	3.200873E-03	7.772839E-05
7.336984E+03	3.184296E-03	7.731354E-05
7.346939E+03	3.169384E-03	7.693869E-05
7.356894E+03	3.156225E-03	7.660595E-05
7.366849E+03	3.144890E-03	7.631706E-05
7.376804E+03	3.135372E-03	7.607185E-05
7.386760E+03	3.127702E-03	7.587108E-05
7.396715E+03	3.121902E-03	7.571524E-05
7.406670E+03	3.117963E-03	7.560415E-05
7.416625E+03	3.115921E-03	7.553864E-05
7.426580E+03	3.115641E-03	7.551546E-05
7.436536E+03	3.117183E-03	7.553603E-05
7.446491E+03	3.120428E-03	7.559747E-05
7.456446E+03	3.125247E-03	7.569665E-05
7.466401E+03	3.131483E-03	7.582974E-05
7.476356E+03	3.138965E-03	7.599261E-05
7.486312E+03	3.147650E-03	7.618422E-05
7.496267E+03	3.157198E-03	7.639635E-05
7.506222E+03	3.167470E-03	7.662564E-05
7.516177E+03	3.178248E-03	7.686682E-05
7.526132E+03	3.189387E-03	7.711639E-05
7.536088E+03	3.200517E-03	7.736545E-05
7.546043E+03	3.211494E-03	7.761053E-05
7.555998E+03	3.222118E-03	7.784683E-05
7.565953E+03	3.232266E-03	7.807141E-05
7.575908E+03	3.241621E-03	7.827665E-05
7.585864E+03	3.250189E-03	7.846276E-05
7.595819E+03	3.257772E-03	7.862499E-05
7.605774E+03	3.264195E-03	7.875917E-05
7.615729E+03	3.269546E-03	7.886750E-05
7.625684E+03	3.273699E-03	7.894698E-05
7.635640E+03	3.276638E-03	7.899725E-05
7.645595E+03	3.278361E-03	7.901838E-05
7.655550E+03	3.278895E-03	7.901104E-05
7.665505E+03	3.278292E-03	7.897653E-05
7.675460E+03	3.276708E-03	7.891871E-05
7.685416E+03	3.274079E-03	7.883605E-05
7.695371E+03	3.270678E-03	7.873522E-05
7.705326E+03	3.266559E-03	7.861752E-05
7.715281E+03	3.261848E-03	7.848607E-05
7.725236E+03	3.256671E-03	7.834395E-05
