#wls	flux	fluxerr
1.600000E+03	4.037953E-17	2.686252E-17
1.640000E+03	4.133037E-17	2.658904E-17
1.680000E+03	4.234909E-17	2.631375E-17
1.720000E+03	4.347723E-17	2.606493E-17
1.760000E+03	4.472549E-17	2.585109E-17
1.800000E+03	4.608786E-17	2.567228E-17
1.840000E+03	4.759435E-17	2.555009E-17
1.880000E+03	4.925817E-17	2.549645E-17
1.920000E+03	5.109167E-17	2.552306E-17
1.960000E+03	5.312469E-17	2.564975E-17
2.000000E+03	5.534326E-17	2.587397E-17
2.040000E+03	5.776578E-17	2.620806E-17
2.080000E+03	6.035865E-17	2.663926E-17
2.120000E+03	6.314008E-17	2.717720E-17
2.160000E+03	6.604939E-17	2.779584E-17
2.200000E+03	6.905702E-17	2.848226E-17
2.240000E+03	7.207568E-17	2.919845E-17
2.280000E+03	7.505851E-17	2.992173E-17
2.320000E+03	7.793292E-17	3.061705E-17
2.360000E+03	8.065336E-17	3.125949E-17
2.400000E+03	8.310192E-17	3.179838E-17
2.440000E+03	8.529417E-17	3.224080E-17
2.480000E+03	8.712415E-17	3.255651E-17
2.520000E+03	8.859752E-17	3.276756E-17
2.560000E+03	8.968103E-17	3.288768E-17
2.600000E+03	9.035964E-17	3.293658E-17
2.640000E+03	9.068918E-17	3.294977E-17
2.680000E+03	9.069945E-17	3.293561E-17
2.720000E+03	9.044342E-17	3.289065E-17
2.760000E+03	9.003452E-17	3.281589E-17
2.800000E+03	8.956938E-17	3.269548E-17
2.840000E+03	8.914502E-17	3.251004E-17
2.880000E+03	8.883586E-17	3.223385E-17
2.920000E+03	8.878575E-17	3.187086E-17
2.960000E+03	8.903908E-17	3.139341E-17
3.000000E+03	8.972723E-17	3.080746E-17
3.010000E+03	8.998052E-17	3.064385E-17
3.020000E+03	9.026173E-17	3.047053E-17
3.030000E+03	9.057207E-17	3.028729E-17
3.040000E+03	9.092882E-17	3.009921E-17
3.050000E+03	9.131699E-17	2.990057E-17
3.060000E+03	9.175372E-17	2.969626E-17
3.070000E+03	9.222441E-17	2.948073E-17
3.080000E+03	9.274611E-17	2.925867E-17
3.090000E+03	9.332006E-17	2.902951E-17
3.100000E+03	9.393221E-17	2.878799E-17
3.110000E+03	9.459958E-17	2.853843E-17
3.120000E+03	9.532370E-17	2.828024E-17
3.130000E+03	9.609109E-17	2.800839E-17
3.140000E+03	9.693392E-17	2.773118E-17
3.150000E+03	9.782384E-17	2.743922E-17
3.160000E+03	9.877806E-17	2.713624E-17
3.170000E+03	9.981368E-17	2.682555E-17
3.180000E+03	1.009032E-16	2.649832E-17
3.190000E+03	1.020788E-16	2.616170E-17
3.200000E+03	1.033284E-16	2.581093E-17
3.210000E+03	1.046549E-16	2.544521E-17
3.220000E+03	1.060761E-16	2.506724E-17
3.230000E+03	1.075805E-16	2.467251E-17
3.240000E+03	1.091717E-16	2.426020E-17
3.250000E+03	1.108681E-16	2.383270E-17
3.260000E+03	1.126592E-16	2.338584E-17
3.270000E+03	1.145640E-16	2.292185E-17
3.280000E+03	1.165873E-16	2.243974E-17
3.290000E+03	1.187342E-16	2.193862E-17
3.300000E+03	1.209952E-16	2.141510E-17
3.310000E+03	1.233912E-16	2.087147E-17
3.320000E+03	1.259437E-16	2.030992E-17
3.330000E+03	1.286294E-16	1.972552E-17
3.340000E+03	1.314862E-16	1.912363E-17
3.350000E+03	1.345073E-16	1.850303E-17
3.360000E+03	1.377013E-16	1.786584E-17
3.370000E+03	1.410937E-16	1.721721E-17
3.380000E+03	1.446952E-16	1.656159E-17
3.390000E+03	1.485018E-16	1.590370E-17
3.400000E+03	1.525258E-16	1.525281E-17
3.410000E+03	1.568131E-16	1.462440E-17
3.420000E+03	1.613624E-16	1.403283E-17
3.430000E+03	1.661730E-16	1.349730E-17
3.440000E+03	1.712941E-16	1.304578E-17
3.450000E+03	1.767256E-16	1.270596E-17
3.460000E+03	1.824829E-16	1.250863E-17
3.470000E+03	1.885959E-16	1.248292E-17
3.480000E+03	1.950709E-16	1.264726E-17
3.490000E+03	2.018854E-16	1.300392E-17
3.500000E+03	2.090613E-16	1.354377E-17
3.510000E+03	2.165392E-16	1.424220E-17
3.520000E+03	2.243077E-16	1.507207E-17
3.530000E+03	2.323505E-16	1.600418E-17
3.540000E+03	2.406068E-16	1.700704E-17
3.550000E+03	2.490493E-16	1.805358E-17
3.560000E+03	2.576063E-16	1.911628E-17
3.570000E+03	2.662418E-16	2.017301E-17
3.580000E+03	2.749180E-16	2.120431E-17
3.590000E+03	2.835315E-16	2.218813E-17
3.600000E+03	2.920622E-16	2.311110E-17
3.610000E+03	3.004269E-16	2.395691E-17
3.620000E+03	3.085650E-16	2.471289E-17
3.630000E+03	3.164639E-16	2.537175E-17
3.640000E+03	3.240272E-16	2.592099E-17
3.650000E+03	3.312309E-16	2.635506E-17
3.660000E+03	3.380577E-16	2.667009E-17
3.670000E+03	3.444539E-16	2.686014E-17
3.680000E+03	3.503963E-16	2.692257E-17
3.690000E+03	3.558928E-16	2.685782E-17
3.700000E+03	3.609377E-16	2.666596E-17
3.710000E+03	3.655130E-16	2.634685E-17
3.720000E+03	3.696755E-16	2.590666E-17
3.730000E+03	3.734255E-16	2.534839E-17
3.740000E+03	3.768165E-16	2.467998E-17
3.750000E+03	3.798690E-16	2.390873E-17
3.760000E+03	3.826357E-16	2.304618E-17
3.770000E+03	3.852212E-16	2.210949E-17
3.780000E+03	3.876794E-16	2.111572E-17
3.790000E+03	3.900775E-16	2.008666E-17
3.800000E+03	3.925545E-16	1.905173E-17
3.810000E+03	3.952180E-16	1.804132E-17
3.820000E+03	3.981574E-16	1.708458E-17
3.830000E+03	4.014962E-16	1.620863E-17
3.840000E+03	4.053237E-16	1.543581E-17
3.850000E+03	4.098015E-16	1.478528E-17
3.860000E+03	4.150608E-16	1.426520E-17
3.870000E+03	4.212830E-16	1.387792E-17
3.880000E+03	4.287106E-16	1.361927E-17
3.890000E+03	4.376021E-16	1.347484E-17
3.900000E+03	4.482728E-16	1.342827E-17
3.910000E+03	4.610781E-16	1.346589E-17
3.920000E+03	4.762731E-16	1.357320E-17
3.930000E+03	4.941241E-16	1.374247E-17
3.940000E+03	5.147809E-16	1.396867E-17
3.950000E+03	5.382189E-16	1.424531E-17
3.960000E+03	5.642336E-16	1.457258E-17
3.970000E+03	5.924482E-16	1.496318E-17
3.980000E+03	6.221934E-16	1.543762E-17
3.990000E+03	6.526848E-16	1.602664E-17
4.000000E+03	6.830204E-16	1.674762E-17
4.010000E+03	7.122926E-16	1.757761E-17
4.020000E+03	7.397523E-16	1.846775E-17
4.030000E+03	7.647175E-16	1.935802E-17
4.040000E+03	7.866428E-16	2.018283E-17
4.050000E+03	8.052564E-16	2.088991E-17
4.060000E+03	8.204053E-16	2.144538E-17
4.070000E+03	8.320620E-16	2.183018E-17
4.080000E+03	8.403957E-16	2.204365E-17
4.090000E+03	8.456008E-16	2.208988E-17
4.100000E+03	8.478956E-16	2.196501E-17
4.110000E+03	8.474045E-16	2.166489E-17
4.120000E+03	8.443814E-16	2.119926E-17
4.130000E+03	8.389354E-16	2.058373E-17
4.140000E+03	8.312977E-16	1.985465E-17
4.150000E+03	8.216773E-16	1.906308E-17
4.160000E+03	8.103319E-16	1.826487E-17
4.170000E+03	7.975690E-16	1.751479E-17
4.180000E+03	7.835880E-16	1.683625E-17
4.190000E+03	7.684893E-16	1.620207E-17
4.200000E+03	7.522995E-16	1.557056E-17
4.210000E+03	7.350898E-16	1.491856E-17
4.220000E+03	7.169992E-16	1.424538E-17
4.230000E+03	6.982435E-16	1.357621E-17
4.240000E+03	6.791957E-16	1.294288E-17
4.250000E+03	6.604507E-16	1.236252E-17
4.260000E+03	6.426984E-16	1.184991E-17
4.270000E+03	6.267250E-16	1.141525E-17
4.280000E+03	6.134258E-16	1.105161E-17
4.290000E+03	6.036690E-16	1.075631E-17
4.300000E+03	5.981781E-16	1.053701E-17
4.310000E+03	5.974272E-16	1.039827E-17
4.320000E+03	6.016780E-16	1.035089E-17
4.330000E+03	6.107574E-16	1.039466E-17
4.340000E+03	6.238954E-16	1.049061E-17
4.350000E+03	6.398488E-16	1.059053E-17
4.360000E+03	6.571127E-16	1.067488E-17
4.370000E+03	6.740300E-16	1.076053E-17
4.380000E+03	6.890068E-16	1.089952E-17
4.390000E+03	7.007347E-16	1.114635E-17
4.400000E+03	7.084034E-16	1.150837E-17
4.410000E+03	7.118322E-16	1.193925E-17
4.420000E+03	7.112761E-16	1.236145E-17
4.430000E+03	7.071646E-16	1.269477E-17
4.440000E+03	7.000737E-16	1.289236E-17
4.450000E+03	6.906164E-16	1.294106E-17
4.460000E+03	6.794670E-16	1.284616E-17
4.470000E+03	6.672935E-16	1.263574E-17
4.480000E+03	6.548010E-16	1.235462E-17
4.490000E+03	6.427967E-16	1.204916E-17
4.500000E+03	6.321136E-16	1.176761E-17
4.510000E+03	6.236426E-16	1.154356E-17
4.520000E+03	6.183610E-16	1.137839E-17
4.530000E+03	6.172710E-16	1.126690E-17
4.540000E+03	6.212339E-16	1.121083E-17
4.550000E+03	6.309221E-16	1.121381E-17
4.560000E+03	6.468042E-16	1.129190E-17
4.570000E+03	6.690728E-16	1.146412E-17
4.580000E+03	6.974199E-16	1.173209E-17
4.590000E+03	7.310914E-16	1.210132E-17
4.600000E+03	7.689471E-16	1.257847E-17
4.610000E+03	8.094541E-16	1.314673E-17
4.620000E+03	8.507637E-16	1.379106E-17
4.630000E+03	8.910432E-16	1.449174E-17
4.640000E+03	9.288093E-16	1.518443E-17
4.650000E+03	9.629398E-16	1.579835E-17
4.660000E+03	9.925062E-16	1.628391E-17
4.670000E+03	1.016816E-15	1.660026E-17
4.680000E+03	1.035352E-15	1.674261E-17
4.690000E+03	1.047714E-15	1.673727E-17
4.700000E+03	1.053629E-15	1.660933E-17
4.710000E+03	1.052973E-15	1.640810E-17
4.720000E+03	1.045917E-15	1.618244E-17
4.730000E+03	1.032958E-15	1.593374E-17
4.740000E+03	1.014847E-15	1.567559E-17
4.750000E+03	9.925115E-16	1.544443E-17
4.760000E+03	9.669964E-16	1.525761E-17
4.770000E+03	9.394344E-16	1.515103E-17
4.780000E+03	9.110553E-16	1.516272E-17
4.790000E+03	8.832351E-16	1.527447E-17
4.800000E+03	8.573429E-16	1.545048E-17
4.810000E+03	8.346815E-16	1.566527E-17
4.820000E+03	8.164057E-16	1.588391E-17
4.830000E+03	8.035246E-16	1.608043E-17
4.840000E+03	7.966591E-16	1.624437E-17
4.850000E+03	7.960534E-16	1.637006E-17
4.860000E+03	8.016005E-16	1.646373E-17
4.870000E+03	8.129151E-16	1.654671E-17
4.880000E+03	8.292597E-16	1.664691E-17
4.890000E+03	8.496122E-16	1.680163E-17
4.900000E+03	8.727349E-16	1.703320E-17
4.910000E+03	8.972307E-16	1.731736E-17
4.920000E+03	9.215393E-16	1.760310E-17
4.930000E+03	9.440501E-16	1.782636E-17
4.940000E+03	9.632088E-16	1.790589E-17
4.950000E+03	9.776521E-16	1.778322E-17
4.960000E+03	9.865326E-16	1.745613E-17
4.970000E+03	9.897983E-16	1.698114E-17
4.980000E+03	9.881833E-16	1.647020E-17
4.990000E+03	9.833601E-16	1.603582E-17
5.000000E+03	9.779295E-16	1.573766E-17
5.010000E+03	9.746399E-16	1.561511E-17
5.020000E+03	9.752532E-16	1.566960E-17
5.030000E+03	9.797517E-16	1.581535E-17
5.040000E+03	9.867792E-16	1.594904E-17
5.050000E+03	9.941374E-16	1.600644E-17
5.060000E+03	9.989096E-16	1.595830E-17
5.070000E+03	9.980322E-16	1.582665E-17
5.080000E+03	9.890950E-16	1.564251E-17
5.090000E+03	9.709583E-16	1.538834E-17
5.100000E+03	9.438650E-16	1.504676E-17
5.110000E+03	9.094705E-16	1.461738E-17
5.120000E+03	8.708125E-16	1.409074E-17
5.130000E+03	8.314792E-16	1.348450E-17
5.140000E+03	7.948876E-16	1.285204E-17
5.150000E+03	7.640006E-16	1.225421E-17
5.160000E+03	7.410738E-16	1.176082E-17
5.170000E+03	7.273162E-16	1.142043E-17
5.180000E+03	7.227649E-16	1.122992E-17
5.190000E+03	7.266508E-16	1.117591E-17
5.200000E+03	7.377077E-16	1.124458E-17
5.210000E+03	7.540680E-16	1.139798E-17
5.220000E+03	7.734857E-16	1.160971E-17
5.230000E+03	7.937656E-16	1.186489E-17
5.240000E+03	8.131615E-16	1.212874E-17
5.250000E+03	8.303815E-16	1.238620E-17
5.260000E+03	8.446952E-16	1.264529E-17
5.270000E+03	8.560266E-16	1.289565E-17
5.280000E+03	8.648752E-16	1.314480E-17
5.290000E+03	8.719733E-16	1.341307E-17
5.300000E+03	8.782079E-16	1.368422E-17
5.310000E+03	8.844632E-16	1.393735E-17
5.320000E+03	8.914541E-16	1.415878E-17
5.330000E+03	8.995634E-16	1.431068E-17
5.340000E+03	9.088957E-16	1.436347E-17
5.350000E+03	9.193234E-16	1.431441E-17
5.360000E+03	9.304756E-16	1.417281E-17
5.370000E+03	9.418304E-16	1.397840E-17
5.380000E+03	9.527641E-16	1.377185E-17
5.390000E+03	9.626818E-16	1.355177E-17
5.400000E+03	9.710087E-16	1.332198E-17
5.410000E+03	9.771811E-16	1.308504E-17
5.420000E+03	9.807010E-16	1.279226E-17
5.430000E+03	9.811929E-16	1.240681E-17
5.440000E+03	9.784915E-16	1.191875E-17
5.450000E+03	9.727366E-16	1.130129E-17
5.460000E+03	9.643673E-16	1.057941E-17
5.470000E+03	9.542096E-16	9.857706E-18
5.480000E+03	9.434909E-16	9.267294E-18
5.490000E+03	9.335691E-16	8.968217E-18
5.500000E+03	9.256104E-16	9.052967E-18
5.510000E+03	9.204943E-16	9.443713E-18
5.520000E+03	9.187580E-16	1.002029E-17
5.530000E+03	9.203882E-16	1.068661E-17
5.540000E+03	9.247563E-16	1.133966E-17
5.550000E+03	9.307784E-16	1.192910E-17
5.560000E+03	9.370746E-16	1.244070E-17
5.570000E+03	9.420419E-16	1.282776E-17
5.580000E+03	9.440624E-16	1.306056E-17
5.590000E+03	9.419329E-16	1.314372E-17
5.600000E+03	9.350984E-16	1.308237E-17
5.610000E+03	9.237108E-16	1.292019E-17
5.620000E+03	9.087479E-16	1.271810E-17
5.630000E+03	8.919723E-16	1.250284E-17
5.640000E+03	8.755565E-16	1.232051E-17
5.650000E+03	8.614274E-16	1.221919E-17
5.660000E+03	8.510001E-16	1.218916E-17
5.670000E+03	8.451827E-16	1.222190E-17
5.680000E+03	8.442175E-16	1.232238E-17
5.690000E+03	8.475604E-16	1.246234E-17
5.700000E+03	8.541009E-16	1.261895E-17
5.710000E+03	8.624821E-16	1.278239E-17
5.720000E+03	8.712308E-16	1.291825E-17
5.730000E+03	8.788411E-16	1.300476E-17
5.740000E+03	8.839102E-16	1.303603E-17
5.750000E+03	8.853440E-16	1.298849E-17
5.760000E+03	8.822969E-16	1.285990E-17
5.770000E+03	8.742065E-16	1.266600E-17
5.780000E+03	8.608631E-16	1.240238E-17
5.790000E+03	8.424352E-16	1.208981E-17
5.800000E+03	8.197316E-16	1.176599E-17
5.810000E+03	7.942348E-16	1.143792E-17
5.820000E+03	7.678277E-16	1.112911E-17
5.830000E+03	7.426133E-16	1.087334E-17
5.840000E+03	7.207294E-16	1.066384E-17
5.850000E+03	7.041351E-16	1.049713E-17
5.860000E+03	6.942073E-16	1.038553E-17
5.870000E+03	6.916072E-16	1.032804E-17
5.880000E+03	6.964524E-16	1.033441E-17
5.890000E+03	7.083184E-16	1.041928E-17
5.900000E+03	7.261223E-16	1.057317E-17
5.910000E+03	7.482492E-16	1.079523E-17
5.920000E+03	7.729132E-16	1.108394E-17
5.930000E+03	7.983387E-16	1.139414E-17
5.940000E+03	8.228645E-16	1.168858E-17
5.950000E+03	8.450498E-16	1.195318E-17
5.960000E+03	8.638990E-16	1.216280E-17
5.970000E+03	8.788142E-16	1.232507E-17
5.980000E+03	8.895368E-16	1.246729E-17
5.990000E+03	8.961204E-16	1.257631E-17
6.000000E+03	8.988302E-16	1.265399E-17
6.010000E+03	8.980341E-16	1.271780E-17
6.020000E+03	8.941340E-16	1.273866E-17
6.030000E+03	8.875274E-16	1.269476E-17
6.040000E+03	8.786930E-16	1.259077E-17
6.050000E+03	8.681272E-16	1.241546E-17
6.060000E+03	8.563661E-16	1.217983E-17
6.070000E+03	8.439672E-16	1.191165E-17
6.080000E+03	8.315311E-16	1.161436E-17
6.090000E+03	8.196493E-16	1.130977E-17
6.100000E+03	8.088944E-16	1.102756E-17
6.110000E+03	7.998130E-16	1.076170E-17
6.120000E+03	7.928297E-16	1.052437E-17
6.130000E+03	7.881847E-16	1.033542E-17
6.140000E+03	7.857785E-16	1.016575E-17
6.150000E+03	7.852991E-16	1.000018E-17
6.160000E+03	7.862479E-16	9.840206E-18
6.170000E+03	7.880443E-16	9.646758E-18
6.180000E+03	7.900428E-16	9.399157E-18
6.190000E+03	7.917034E-16	9.108534E-18
6.200000E+03	7.927146E-16	8.768129E-18
6.210000E+03	7.929033E-16	8.417097E-18
6.220000E+03	7.921242E-16	8.140406E-18
6.230000E+03	7.902516E-16	7.980345E-18
6.240000E+03	7.873035E-16	7.971207E-18
6.250000E+03	7.835355E-16	8.126559E-18
6.260000E+03	7.793398E-16	8.378059E-18
6.270000E+03	7.752020E-16	8.661417E-18
6.280000E+03	7.715405E-16	8.944352E-18
6.290000E+03	7.685596E-16	9.188362E-18
6.300000E+03	7.662348E-16	9.397823E-18
6.310000E+03	7.643881E-16	9.595997E-18
6.320000E+03	7.627025E-16	9.763505E-18
6.330000E+03	7.608122E-16	9.898198E-18
6.340000E+03	7.584243E-16	1.001620E-17
6.350000E+03	7.554224E-16	1.009980E-17
6.360000E+03	7.518051E-16	1.014876E-17
6.370000E+03	7.476206E-16	1.018184E-17
6.380000E+03	7.429494E-16	1.018858E-17
6.390000E+03	7.378457E-16	1.017432E-17
6.400000E+03	7.323458E-16	1.015875E-17
6.410000E+03	7.264220E-16	1.012883E-17
6.420000E+03	7.200248E-16	1.008558E-17
6.430000E+03	7.130898E-16	1.004690E-17
6.440000E+03	7.055960E-16	1.000599E-17
6.450000E+03	6.976213E-16	9.973702E-18
6.460000E+03	6.894805E-16	9.977953E-18
6.470000E+03	6.818623E-16	1.001869E-17
6.480000E+03	6.757468E-16	1.010323E-17
6.490000E+03	6.724384E-16	1.025065E-17
6.500000E+03	6.735768E-16	1.045204E-17
6.510000E+03	6.809968E-16	1.070028E-17
6.520000E+03	6.963663E-16	1.100600E-17
6.530000E+03	7.210439E-16	1.137975E-17
6.540000E+03	7.560596E-16	1.184735E-17
6.550000E+03	8.018832E-16	1.244014E-17
6.560000E+03	8.579488E-16	1.316433E-17
6.570000E+03	9.226772E-16	1.403340E-17
6.580000E+03	9.936342E-16	1.505984E-17
6.590000E+03	1.067775E-15	1.620701E-17
6.600000E+03	1.141517E-15	1.743637E-17
6.610000E+03	1.211065E-15	1.871901E-17
6.620000E+03	1.272965E-15	1.997728E-17
6.630000E+03	1.324223E-15	2.113081E-17
6.640000E+03	1.362324E-15	2.211734E-17
6.650000E+03	1.385212E-15	2.284188E-17
6.660000E+03	1.391645E-15	2.322804E-17
6.670000E+03	1.381561E-15	2.324705E-17
6.680000E+03	1.356144E-15	2.288659E-17
6.690000E+03	1.317772E-15	2.218697E-17
6.700000E+03	1.269588E-15	2.123308E-17
6.710000E+03	1.215287E-15	2.011283E-17
6.720000E+03	1.158459E-15	1.893235E-17
6.730000E+03	1.102107E-15	1.778980E-17
6.740000E+03	1.048351E-15	1.673447E-17
6.750000E+03	9.985688E-16	1.580958E-17
6.760000E+03	9.534850E-16	1.504041E-17
6.770000E+03	9.132816E-16	1.440058E-17
6.780000E+03	8.777635E-16	1.386681E-17
6.790000E+03	8.465584E-16	1.342929E-17
6.800000E+03	8.191757E-16	1.306039E-17
6.810000E+03	7.950560E-16	1.274612E-17
6.820000E+03	7.737294E-16	1.248561E-17
6.830000E+03	7.548028E-16	1.225941E-17
6.840000E+03	7.380072E-16	1.205751E-17
6.850000E+03	7.231322E-16	1.187975E-17
6.860000E+03	7.101414E-16	1.171291E-17
6.870000E+03	6.989753E-16	1.155148E-17
6.880000E+03	6.895229E-16	1.139938E-17
6.890000E+03	6.815191E-16	1.124744E-17
6.900000E+03	6.745762E-16	1.109441E-17
6.910000E+03	6.683207E-16	1.094755E-17
6.920000E+03	6.624009E-16	1.080173E-17
6.930000E+03	6.565369E-16	1.066073E-17
6.940000E+03	6.505790E-16	1.053407E-17
6.950000E+03	6.446204E-16	1.041589E-17
6.960000E+03	6.388336E-16	1.030647E-17
6.970000E+03	6.334798E-16	1.021351E-17
6.980000E+03	6.287947E-16	1.012940E-17
6.990000E+03	6.249866E-16	1.005396E-17
7.000000E+03	6.222159E-16	9.994821E-18
7.010000E+03	6.204995E-16	9.945267E-18
7.020000E+03	6.197907E-16	9.906587E-18
7.030000E+03	6.199570E-16	9.885891E-18
7.040000E+03	6.207770E-16	9.874188E-18
7.050000E+03	6.219921E-16	9.869552E-18
7.060000E+03	6.233608E-16	9.876468E-18
7.070000E+03	6.246660E-16	9.882996E-18
7.080000E+03	6.257437E-16	9.885440E-18
7.090000E+03	6.264326E-16	9.888088E-18
7.100000E+03	6.266305E-16	9.881305E-18
7.110000E+03	6.262570E-16	9.864962E-18
7.120000E+03	6.252633E-16	9.848100E-18
7.130000E+03	6.236394E-16	9.825024E-18
7.140000E+03	6.214190E-16	9.798749E-18
7.150000E+03	6.187356E-16	9.779750E-18
7.160000E+03	6.158063E-16	9.760112E-18
7.170000E+03	6.129247E-16	9.738278E-18
7.180000E+03	6.103590E-16	9.719947E-18
7.190000E+03	6.083456E-16	9.695778E-18
7.200000E+03	6.070411E-16	9.663375E-18
7.210000E+03	6.065137E-16	9.629229E-18
7.220000E+03	6.067009E-16	9.587868E-18
7.230000E+03	6.074483E-16	9.542858E-18
7.240000E+03	6.085579E-16	9.504023E-18
7.250000E+03	6.098090E-16	9.464847E-18
7.260000E+03	6.109890E-16	9.427035E-18
7.270000E+03	6.119461E-16	9.399092E-18
7.280000E+03	6.126251E-16	9.372464E-18
7.290000E+03	6.130355E-16	9.347925E-18
7.300000E+03	6.132020E-16	9.333495E-18
7.310000E+03	6.131303E-16	9.317795E-18
7.320000E+03	6.128268E-16	9.298530E-18
7.330000E+03	6.122593E-16	9.281657E-18
7.340000E+03	6.113608E-16	9.254554E-18
7.350000E+03	6.100631E-16	9.214044E-18
7.360000E+03	6.083560E-16	9.166138E-18
7.370000E+03	6.063133E-16	9.098998E-18
7.380000E+03	6.040980E-16	9.011932E-18
7.390000E+03	6.018458E-16	8.915293E-18
7.400000E+03	5.997088E-16	8.806431E-18
7.410000E+03	5.977789E-16	8.695380E-18
7.420000E+03	5.961518E-16	8.598022E-18
7.430000E+03	5.948422E-16	8.504705E-18
7.440000E+03	5.938602E-16	8.417078E-18
7.450000E+03	5.931857E-16	8.345948E-18
7.460000E+03	5.927766E-16	8.279859E-18
7.470000E+03	5.925520E-16	8.224025E-18
7.480000E+03	5.923878E-16	8.198961E-18
7.490000E+03	5.920910E-16	8.202463E-18
7.500000E+03	5.914431E-16	8.249219E-18
7.510000E+03	5.902274E-16	8.366440E-18
7.520000E+03	5.883134E-16	8.538329E-18
7.530000E+03	5.856158E-16	8.733476E-18
7.540000E+03	5.821654E-16	8.925062E-18
7.550000E+03	5.781302E-16	9.065201E-18
7.560000E+03	5.737915E-16	9.107131E-18
7.570000E+03	5.694808E-16	9.027625E-18
7.580000E+03	5.656281E-16	8.823634E-18
7.590000E+03	5.626265E-16	8.520301E-18
7.600000E+03	5.607183E-16	8.170340E-18
7.610000E+03	5.599205E-16	7.834391E-18
7.620000E+03	5.599947E-16	7.565712E-18
7.630000E+03	5.603467E-16	7.389518E-18
7.640000E+03	5.600156E-16	7.300857E-18
7.650000E+03	5.579066E-16	7.293839E-18
7.660000E+03	5.531296E-16	7.348455E-18
7.670000E+03	5.453814E-16	7.417703E-18
7.680000E+03	5.347976E-16	7.476692E-18
7.690000E+03	5.219746E-16	7.522301E-18
7.700000E+03	5.079094E-16	7.538322E-18
7.710000E+03	4.937553E-16	7.522814E-18
7.720000E+03	4.805840E-16	7.491593E-18
7.730000E+03	4.692210E-16	7.452042E-18
7.740000E+03	4.602872E-16	7.417630E-18
7.750000E+03	4.541720E-16	7.406005E-18
7.760000E+03	4.510187E-16	7.420651E-18
