#wls	flux	fluxerr
1.570167E+03	4.208370E-16	2.148305E-18
1.609421E+03	4.508729E-16	2.297983E-18
1.648675E+03	4.812087E-16	2.448592E-18
1.687929E+03	5.114967E-16	2.598336E-18
1.727184E+03	5.412751E-16	2.744850E-18
1.766438E+03	5.697924E-16	2.884317E-18
1.805692E+03	5.960335E-16	3.011621E-18
1.844946E+03	6.187483E-16	3.120496E-18
1.884200E+03	6.365229E-16	3.203904E-18
1.923454E+03	6.480164E-16	3.255239E-18
1.962709E+03	6.524792E-16	3.270917E-18
2.001963E+03	6.505483E-16	3.254337E-18
2.041217E+03	6.449796E-16	3.219454E-18
2.080471E+03	6.404192E-16	3.189527E-18
2.119725E+03	6.415131E-16	3.187609E-18
2.158979E+03	6.503077E-16	3.223644E-18
2.198234E+03	6.651259E-16	3.289052E-18
2.237488E+03	6.818556E-16	3.363314E-18
2.276742E+03	6.963369E-16	3.425871E-18
2.315996E+03	7.058888E-16	3.463636E-18
2.355250E+03	7.095617E-16	3.472139E-18
2.394504E+03	7.077176E-16	3.453376E-18
2.433759E+03	7.014647E-16	3.412962E-18
2.473013E+03	6.921788E-16	3.357760E-18
2.512267E+03	6.811348E-16	3.294072E-18
2.551521E+03	6.692368E-16	3.226343E-18
2.590775E+03	6.570799E-16	3.157479E-18
2.630029E+03	6.450726E-16	3.089457E-18
2.669284E+03	6.334866E-16	3.023578E-18
2.708538E+03	6.225043E-16	2.960696E-18
2.747792E+03	6.122406E-16	2.901333E-18
2.787046E+03	6.027702E-16	2.845815E-18
2.826300E+03	5.941396E-16	2.794324E-18
2.865554E+03	5.863724E-16	2.746932E-18
2.904809E+03	5.794781E-16	2.703641E-18
2.944063E+03	5.734500E-16	2.664375E-18
2.953876E+03	5.720763E-16	2.655173E-18
2.963690E+03	5.707560E-16	2.646215E-18
2.973503E+03	5.694874E-16	2.637493E-18
2.983317E+03	5.682765E-16	2.629034E-18
2.993131E+03	5.671391E-16	2.620910E-18
3.002944E+03	5.660932E-16	2.613203E-18
3.012758E+03	5.651307E-16	2.605874E-18
3.022571E+03	5.642462E-16	2.598897E-18
3.032385E+03	5.634377E-16	2.592263E-18
3.042198E+03	5.626880E-16	2.585890E-18
3.052012E+03	5.620137E-16	2.579853E-18
3.061825E+03	5.614078E-16	2.574120E-18
3.071639E+03	5.608655E-16	2.568668E-18
3.081452E+03	5.603787E-16	2.563459E-18
3.091266E+03	5.599443E-16	2.558477E-18
3.101079E+03	5.595556E-16	2.553690E-18
3.110893E+03	5.592093E-16	2.549084E-18
3.120707E+03	5.589006E-16	2.544635E-18
3.130520E+03	5.586254E-16	2.540325E-18
3.140334E+03	5.583802E-16	2.536136E-18
3.150147E+03	5.581606E-16	2.532048E-18
3.159961E+03	5.579644E-16	2.528051E-18
3.169774E+03	5.577892E-16	2.524134E-18
3.179588E+03	5.576314E-16	2.520279E-18
3.189401E+03	5.574865E-16	2.516467E-18
3.199215E+03	5.573533E-16	2.512691E-18
3.209028E+03	5.572300E-16	2.508943E-18
3.218842E+03	5.571122E-16	2.505203E-18
3.228656E+03	5.569979E-16	2.501463E-18
3.238469E+03	5.568860E-16	2.497716E-18
3.248283E+03	5.567712E-16	2.493939E-18
3.258096E+03	5.566535E-16	2.490132E-18
3.267910E+03	5.565282E-16	2.486275E-18
3.277723E+03	5.563940E-16	2.482360E-18
3.287537E+03	5.562475E-16	2.478374E-18
3.297350E+03	5.560877E-16	2.474312E-18
3.307164E+03	5.559103E-16	2.470155E-18
3.316977E+03	5.557136E-16	2.465896E-18
3.326791E+03	5.554947E-16	2.461522E-18
3.336605E+03	5.552514E-16	2.457025E-18
3.346418E+03	5.549800E-16	2.452387E-18
3.356232E+03	5.546802E-16	2.447608E-18
3.366045E+03	5.543493E-16	2.442677E-18
3.375859E+03	5.539850E-16	2.437584E-18
3.385672E+03	5.535862E-16	2.432325E-18
3.395486E+03	5.531530E-16	2.426901E-18
3.405299E+03	5.526827E-16	2.421301E-18
3.415113E+03	5.521776E-16	2.415536E-18
3.424926E+03	5.516359E-16	2.409598E-18
3.434740E+03	5.510568E-16	2.403485E-18
3.444553E+03	5.504416E-16	2.397202E-18
3.454367E+03	5.497894E-16	2.390748E-18
3.464181E+03	5.491025E-16	2.384131E-18
3.473994E+03	5.483804E-16	2.377352E-18
3.483808E+03	5.476243E-16	2.370417E-18
3.493621E+03	5.468359E-16	2.363332E-18
3.503435E+03	5.460163E-16	2.356103E-18
3.513248E+03	5.451675E-16	2.348740E-18
3.523062E+03	5.442922E-16	2.341255E-18
3.532875E+03	5.433903E-16	2.333649E-18
3.542689E+03	5.424680E-16	2.325947E-18
3.552502E+03	5.415252E-16	2.318151E-18
3.562316E+03	5.405644E-16	2.310272E-18
3.572130E+03	5.395901E-16	2.302329E-18
3.581943E+03	5.386069E-16	2.294342E-18
3.591757E+03	5.376155E-16	2.286314E-18
3.601570E+03	5.366206E-16	2.278265E-18
3.611384E+03	5.356264E-16	2.270215E-18
3.621197E+03	5.346350E-16	2.262170E-18
3.631011E+03	5.336521E-16	2.254156E-18
3.640824E+03	5.326822E-16	2.246191E-18
3.650638E+03	5.317257E-16	2.238277E-18
3.660451E+03	5.307878E-16	2.230435E-18
3.670265E+03	5.298720E-16	2.222680E-18
3.680079E+03	5.289815E-16	2.215025E-18
3.689892E+03	5.281207E-16	2.207487E-18
3.699706E+03	5.272908E-16	2.200072E-18
3.709519E+03	5.264942E-16	2.192787E-18
3.719333E+03	5.257341E-16	2.185647E-18
3.729146E+03	5.250117E-16	2.178654E-18
3.738960E+03	5.243299E-16	2.171821E-18
3.748773E+03	5.236893E-16	2.165149E-18
3.758587E+03	5.230906E-16	2.158640E-18
3.768400E+03	5.225325E-16	2.152287E-18
3.778214E+03	5.220192E-16	2.146108E-18
3.788027E+03	5.215452E-16	2.140078E-18
3.797841E+03	5.211123E-16	2.134203E-18
3.807655E+03	5.207201E-16	2.128482E-18
3.817468E+03	5.203650E-16	2.122899E-18
3.827282E+03	5.200452E-16	2.117445E-18
3.837095E+03	5.197586E-16	2.112111E-18
3.846909E+03	5.195013E-16	2.106881E-18
3.856722E+03	5.192702E-16	2.101741E-18
3.866536E+03	5.190623E-16	2.096678E-18
3.876349E+03	5.188735E-16	2.091675E-18
3.886163E+03	5.187006E-16	2.086720E-18
3.895976E+03	5.185371E-16	2.081785E-18
3.905790E+03	5.183801E-16	2.076859E-18
3.915604E+03	5.182232E-16	2.071916E-18
3.925417E+03	5.180629E-16	2.066942E-18
3.935231E+03	5.178965E-16	2.061926E-18
3.945044E+03	5.177149E-16	2.056833E-18
3.954858E+03	5.175175E-16	2.051660E-18
3.964671E+03	5.172975E-16	2.046381E-18
3.974485E+03	5.170526E-16	2.040987E-18
3.984298E+03	5.167764E-16	2.035455E-18
3.994112E+03	5.164649E-16	2.029768E-18
4.003925E+03	5.161167E-16	2.023923E-18
4.013739E+03	5.157283E-16	2.017906E-18
4.023553E+03	5.152924E-16	2.011691E-18
4.033366E+03	5.148106E-16	2.005285E-18
4.043180E+03	5.142783E-16	1.998671E-18
4.052993E+03	5.136935E-16	1.991843E-18
4.062807E+03	5.130522E-16	1.984787E-18
4.072620E+03	5.123530E-16	1.977499E-18
4.082434E+03	5.115947E-16	1.969976E-18
4.092247E+03	5.107741E-16	1.962208E-18
4.102061E+03	5.098883E-16	1.954185E-18
4.111874E+03	5.089390E-16	1.945916E-18
4.121688E+03	5.079236E-16	1.937392E-18
4.131501E+03	5.068397E-16	1.928607E-18
4.141315E+03	5.056825E-16	1.919544E-18
4.151129E+03	5.044543E-16	1.910214E-18
4.160942E+03	5.031528E-16	1.900611E-18
4.170756E+03	5.017783E-16	1.890738E-18
4.180569E+03	5.003259E-16	1.880578E-18
4.190383E+03	4.987958E-16	1.870136E-18
4.200196E+03	4.971883E-16	1.859414E-18
4.210010E+03	4.955058E-16	1.848424E-18
4.219823E+03	4.937463E-16	1.837161E-18
4.229637E+03	4.919148E-16	1.825645E-18
4.239450E+03	4.900116E-16	1.813881E-18
4.249264E+03	4.880421E-16	1.801890E-18
4.259078E+03	4.859989E-16	1.789648E-18
4.268891E+03	4.838850E-16	1.777167E-18
4.278705E+03	4.817033E-16	1.764462E-18
4.288518E+03	4.794542E-16	1.751534E-18
4.298332E+03	4.771381E-16	1.738390E-18
4.308145E+03	4.747662E-16	1.725071E-18
4.317959E+03	4.723390E-16	1.711581E-18
4.327772E+03	4.698627E-16	1.697944E-18
4.337586E+03	4.673408E-16	1.684175E-18
4.347399E+03	4.647797E-16	1.670299E-18
4.357213E+03	4.621858E-16	1.656341E-18
4.367026E+03	4.595631E-16	1.642315E-18
4.376840E+03	4.569183E-16	1.628247E-18
4.386654E+03	4.542501E-16	1.614133E-18
4.396467E+03	4.515709E-16	1.600019E-18
4.406281E+03	4.488767E-16	1.585890E-18
4.416094E+03	4.461773E-16	1.571783E-18
4.425908E+03	4.434717E-16	1.557695E-18
4.435721E+03	4.407669E-16	1.543649E-18
4.445535E+03	4.380646E-16	1.529654E-18
4.455348E+03	4.353665E-16	1.515715E-18
4.465162E+03	4.326770E-16	1.501847E-18
4.474975E+03	4.299952E-16	1.488047E-18
4.484789E+03	4.273280E-16	1.474341E-18
4.494603E+03	4.246744E-16	1.460723E-18
4.504416E+03	4.220387E-16	1.447209E-18
4.514230E+03	4.194198E-16	1.433794E-18
4.524043E+03	4.168275E-16	1.420512E-18
4.533857E+03	4.142576E-16	1.407349E-18
4.543670E+03	4.117145E-16	1.394319E-18
4.553484E+03	4.091993E-16	1.381425E-18
4.563297E+03	4.067105E-16	1.368661E-18
4.573111E+03	4.042407E-16	1.356002E-18
4.582924E+03	4.017936E-16	1.343461E-18
4.592738E+03	3.993671E-16	1.331030E-18
4.602552E+03	3.969618E-16	1.318710E-18
4.612365E+03	3.945724E-16	1.306485E-18
4.622179E+03	3.921991E-16	1.294353E-18
4.631992E+03	3.898446E-16	1.282325E-18
4.641806E+03	3.875030E-16	1.270380E-18
4.651619E+03	3.851737E-16	1.258517E-18
4.661433E+03	3.828588E-16	1.246742E-18
4.671246E+03	3.805546E-16	1.235043E-18
4.681060E+03	3.782568E-16	1.223407E-18
4.690873E+03	3.759670E-16	1.211838E-18
4.700687E+03	3.736779E-16	1.200314E-18
4.710500E+03	3.713906E-16	1.188837E-18
4.720314E+03	3.691004E-16	1.177394E-18
4.730128E+03	3.668054E-16	1.165979E-18
4.739941E+03	3.645007E-16	1.154577E-18
4.749755E+03	3.621873E-16	1.143191E-18
4.759568E+03	3.598577E-16	1.131799E-18
4.769382E+03	3.575131E-16	1.120406E-18
4.779195E+03	3.551461E-16	1.108989E-18
4.789009E+03	3.527614E-16	1.097564E-18
4.798822E+03	3.503493E-16	1.086102E-18
4.808636E+03	3.479121E-16	1.074612E-18
4.818449E+03	3.454496E-16	1.063093E-18
4.828263E+03	3.429563E-16	1.051531E-18
4.838077E+03	3.404385E-16	1.039946E-18
4.847890E+03	3.378888E-16	1.028316E-18
4.857704E+03	3.353144E-16	1.016665E-18
4.867517E+03	3.327117E-16	1.004984E-18
4.877331E+03	3.300833E-16	9.932812E-19
4.887144E+03	3.274321E-16	9.815668E-19
4.896958E+03	3.247586E-16	9.698435E-19
4.906771E+03	3.220665E-16	9.581236E-19
4.916585E+03	3.193601E-16	9.464203E-19
4.926398E+03	3.166434E-16	9.347470E-19
4.936212E+03	3.139158E-16	9.231020E-19
4.946026E+03	3.111847E-16	9.115081E-19
4.955839E+03	3.084549E-16	8.999796E-19
4.965653E+03	3.057261E-16	8.885159E-19
4.975466E+03	3.030059E-16	8.771395E-19
4.985280E+03	3.002965E-16	8.658568E-19
4.995093E+03	2.976056E-16	8.546896E-19
5.004907E+03	2.949298E-16	8.436281E-19
5.014720E+03	2.922817E-16	8.327079E-19
5.024534E+03	2.896577E-16	8.219181E-19
5.034347E+03	2.870645E-16	8.112772E-19
5.044161E+03	2.845034E-16	8.007883E-19
5.053974E+03	2.819780E-16	7.904604E-19
5.063788E+03	2.794917E-16	7.803021E-19
5.073602E+03	2.770449E-16	7.703135E-19
5.083415E+03	2.746428E-16	7.605080E-19
5.093229E+03	2.722828E-16	7.508773E-19
5.103042E+03	2.699697E-16	7.414332E-19
5.112856E+03	2.677003E-16	7.321658E-19
5.122669E+03	2.654814E-16	7.230923E-19
5.132483E+03	2.633095E-16	7.142017E-19
5.142296E+03	2.611882E-16	7.055027E-19
5.152110E+03	2.591138E-16	6.969836E-19
5.161923E+03	2.570921E-16	6.886586E-19
5.171737E+03	2.551165E-16	6.805088E-19
5.181551E+03	2.531902E-16	6.725414E-19
5.191364E+03	2.513162E-16	6.647628E-19
5.201178E+03	2.494879E-16	6.571541E-19
5.210991E+03	2.477105E-16	6.497277E-19
5.220805E+03	2.459797E-16	6.424713E-19
5.230618E+03	2.442984E-16	6.353907E-19
5.240432E+03	2.426624E-16	6.284738E-19
5.250245E+03	2.410746E-16	6.217270E-19
5.260059E+03	2.395333E-16	6.151443E-19
5.269872E+03	2.380344E-16	6.087142E-19
5.279686E+03	2.365812E-16	6.024440E-19
5.289500E+03	2.351723E-16	5.963286E-19
5.299313E+03	2.338062E-16	5.903637E-19
5.309127E+03	2.324914E-16	5.845690E-19
5.318940E+03	2.312314E-16	5.789521E-19
5.328754E+03	2.300347E-16	5.735328E-19
5.338567E+03	2.288914E-16	5.682846E-19
5.348381E+03	2.277896E-16	5.631769E-19
5.358194E+03	2.267292E-16	5.582077E-19
5.368008E+03	2.257128E-16	5.533823E-19
5.377821E+03	2.247384E-16	5.486946E-19
5.387635E+03	2.238159E-16	5.441671E-19
5.397448E+03	2.229437E-16	5.397948E-19
5.407262E+03	2.221213E-16	5.355745E-19
5.417076E+03	2.213441E-16	5.314942E-19
5.426889E+03	2.206128E-16	5.275540E-19
5.436703E+03	2.199193E-16	5.237335E-19
5.446516E+03	2.192672E-16	5.200402E-19
5.456330E+03	2.186489E-16	5.164550E-19
5.466143E+03	2.180687E-16	5.129871E-19
5.475957E+03	2.175172E-16	5.096136E-19
5.485770E+03	2.170015E-16	5.063503E-19
5.495584E+03	2.165124E-16	5.031753E-19
5.505397E+03	2.160551E-16	5.000998E-19
5.515211E+03	2.156255E-16	4.971139E-19
5.525025E+03	2.152244E-16	4.942185E-19
5.534838E+03	2.148478E-16	4.914042E-19
5.544652E+03	2.144989E-16	4.886780E-19
5.554465E+03	2.141766E-16	4.860363E-19
5.564279E+03	2.138768E-16	4.834701E-19
5.574092E+03	2.136056E-16	4.809925E-19
5.583906E+03	2.133544E-16	4.785839E-19
5.593719E+03	2.131293E-16	4.762575E-19
5.603533E+03	2.129266E-16	4.740049E-19
5.613346E+03	2.127474E-16	4.718282E-19
5.623160E+03	2.125880E-16	4.697192E-19
5.632974E+03	2.124521E-16	4.676858E-19
5.642787E+03	2.123358E-16	4.657192E-19
5.652601E+03	2.122403E-16	4.638222E-19
5.662414E+03	2.121643E-16	4.619917E-19
5.672228E+03	2.121062E-16	4.602244E-19
5.682041E+03	2.120671E-16	4.585226E-19
5.691855E+03	2.120432E-16	4.568779E-19
5.701668E+03	2.120377E-16	4.552978E-19
5.711482E+03	2.120466E-16	4.537738E-19
5.721295E+03	2.120684E-16	4.523024E-19
5.731109E+03	2.121038E-16	4.508859E-19
5.740922E+03	2.121512E-16	4.495208E-19
5.750736E+03	2.122115E-16	4.482097E-19
5.760550E+03	2.122777E-16	4.469378E-19
5.770363E+03	2.123533E-16	4.457130E-19
5.780177E+03	2.124366E-16	4.445325E-19
5.789990E+03	2.125259E-16	4.433929E-19
5.799804E+03	2.126194E-16	4.422910E-19
5.809617E+03	2.127155E-16	4.412240E-19
5.819431E+03	2.128153E-16	4.401951E-19
5.829244E+03	2.129172E-16	4.392013E-19
5.839058E+03	2.130169E-16	4.382345E-19
5.848871E+03	2.131187E-16	4.373040E-19
5.858685E+03	2.132182E-16	4.364018E-19
5.868499E+03	2.133143E-16	4.355263E-19
5.878312E+03	2.134058E-16	4.346755E-19
5.888126E+03	2.134974E-16	4.338601E-19
5.897939E+03	2.135853E-16	4.330728E-19
5.907753E+03	2.136655E-16	4.323064E-19
5.917566E+03	2.137464E-16	4.315786E-19
5.927380E+03	2.138213E-16	4.308766E-19
5.937193E+03	2.138926E-16	4.302061E-19
5.947007E+03	2.139601E-16	4.295672E-19
5.956820E+03	2.140263E-16	4.289659E-19
5.966634E+03	2.140944E-16	4.284091E-19
5.976447E+03	2.141610E-16	4.278909E-19
5.986261E+03	2.142294E-16	4.274183E-19
5.996075E+03	2.143029E-16	4.269987E-19
6.005888E+03	2.143817E-16	4.266331E-19
6.015702E+03	2.144724E-16	4.263354E-19
6.025515E+03	2.145726E-16	4.261012E-19
6.035329E+03	2.146795E-16	4.259257E-19
6.045142E+03	2.147840E-16	4.257915E-19
6.054956E+03	2.148835E-16	4.256939E-19
6.064769E+03	2.149753E-16	4.256285E-19
6.074583E+03	2.150567E-16	4.255906E-19
6.084396E+03	2.151252E-16	4.255758E-19
6.094210E+03	2.151783E-16	4.255798E-19
6.104024E+03	2.152173E-16	4.256053E-19
6.113837E+03	2.152400E-16	4.256481E-19
6.123651E+03	2.152484E-16	4.257112E-19
6.133464E+03	2.152387E-16	4.257861E-19
6.143278E+03	2.152188E-16	4.258880E-19
6.153091E+03	2.151937E-16	4.260257E-19
6.162905E+03	2.151651E-16	4.262019E-19
6.172718E+03	2.151345E-16	4.264187E-19
6.182532E+03	2.151066E-16	4.266848E-19
6.192345E+03	2.150894E-16	4.270151E-19
6.202159E+03	2.150834E-16	4.274098E-19
6.211973E+03	2.150888E-16	4.278683E-19
6.221786E+03	2.151081E-16	4.283953E-19
6.231600E+03	2.151470E-16	4.290013E-19
6.241413E+03	2.152002E-16	4.296750E-19
6.251227E+03	2.152717E-16	4.304234E-19
6.261040E+03	2.153612E-16	4.312458E-19
6.270854E+03	2.154678E-16	4.321396E-19
6.280667E+03	2.155897E-16	4.331003E-19
6.290481E+03	2.157277E-16	4.341290E-19
6.300294E+03	2.158816E-16	4.352250E-19
6.310108E+03	2.160436E-16	4.363717E-19
6.319921E+03	2.162156E-16	4.375722E-19
6.329735E+03	2.163915E-16	4.388138E-19
6.339549E+03	2.165646E-16	4.400818E-19
6.349362E+03	2.167273E-16	4.413603E-19
6.359176E+03	2.168751E-16	4.426393E-19
6.368989E+03	2.169996E-16	4.439004E-19
6.378803E+03	2.170917E-16	4.451240E-19
6.388616E+03	2.171421E-16	4.462898E-19
6.398430E+03	2.171489E-16	4.473926E-19
6.408243E+03	2.170951E-16	4.483958E-19
6.418057E+03	2.169753E-16	4.492863E-19
6.427870E+03	2.167803E-16	4.500436E-19
6.437684E+03	2.165056E-16	4.506561E-19
6.447498E+03	2.161393E-16	4.510969E-19
6.457311E+03	2.156782E-16	4.513570E-19
6.467125E+03	2.151120E-16	4.514124E-19
6.476938E+03	2.144393E-16	4.512573E-19
6.486752E+03	2.136559E-16	4.508803E-19
6.496565E+03	2.127586E-16	4.502718E-19
6.506379E+03	2.117417E-16	4.494168E-19
6.516192E+03	2.106125E-16	4.483275E-19
6.526006E+03	2.093635E-16	4.469852E-19
6.535819E+03	2.080005E-16	4.453993E-19
6.545633E+03	2.065305E-16	4.435816E-19
6.555447E+03	2.049497E-16	4.415208E-19
6.565260E+03	2.032670E-16	4.392335E-19
6.575074E+03	2.014884E-16	4.367296E-19
6.584887E+03	1.996207E-16	4.340211E-19
6.594701E+03	1.976714E-16	4.311221E-19
6.604514E+03	1.956447E-16	4.280389E-19
6.614328E+03	1.935567E-16	4.248046E-19
6.624141E+03	1.914124E-16	4.214281E-19
6.633955E+03	1.892168E-16	4.179185E-19
6.643768E+03	1.869828E-16	4.143026E-19
6.653582E+03	1.847192E-16	4.105987E-19
6.663395E+03	1.824312E-16	4.068169E-19
6.673209E+03	1.801311E-16	4.029834E-19
6.683023E+03	1.778271E-16	3.991157E-19
6.692836E+03	1.755234E-16	3.952229E-19
6.702650E+03	1.732312E-16	3.913293E-19
6.712463E+03	1.709574E-16	3.874507E-19
6.722277E+03	1.687016E-16	3.835856E-19
6.732090E+03	1.664803E-16	3.797718E-19
6.741904E+03	1.642885E-16	3.759980E-19
6.751717E+03	1.621380E-16	3.722918E-19
6.761531E+03	1.600300E-16	3.686562E-19
6.771344E+03	1.579718E-16	3.651087E-19
6.781158E+03	1.559599E-16	3.616421E-19
6.790972E+03	1.540043E-16	3.582801E-19
6.800785E+03	1.521007E-16	3.550138E-19
6.810599E+03	1.502579E-16	3.518645E-19
6.820412E+03	1.484743E-16	3.488296E-19
6.830226E+03	1.467478E-16	3.459057E-19
6.840039E+03	1.450830E-16	3.431041E-19
6.849853E+03	1.434804E-16	3.404274E-19
6.859666E+03	1.419403E-16	3.378778E-19
6.869480E+03	1.404630E-16	3.354569E-19
6.879293E+03	1.390454E-16	3.331587E-19
6.889107E+03	1.376902E-16	3.309911E-19
6.898921E+03	1.363939E-16	3.289468E-19
6.908734E+03	1.351592E-16	3.270333E-19
6.918548E+03	1.339822E-16	3.252429E-19
6.928361E+03	1.328622E-16	3.235750E-19
6.938175E+03	1.318013E-16	3.220362E-19
6.947988E+03	1.307957E-16	3.206179E-19
6.957802E+03	1.298474E-16	3.193267E-19
6.967615E+03	1.289495E-16	3.181466E-19
6.977429E+03	1.281069E-16	3.170911E-19
6.987242E+03	1.273129E-16	3.161446E-19
6.997056E+03	1.265722E-16	3.153202E-19
7.006869E+03	1.258810E-16	3.146094E-19
7.016683E+03	1.252357E-16	3.140043E-19
7.026497E+03	1.246410E-16	3.135180E-19
7.036310E+03	1.240904E-16	3.131353E-19
7.046124E+03	1.235861E-16	3.128624E-19
7.055937E+03	1.231273E-16	3.126988E-19
7.065751E+03	1.227134E-16	3.126439E-19
7.075564E+03	1.223409E-16	3.126899E-19
7.085378E+03	1.220123E-16	3.128439E-19
7.095191E+03	1.217239E-16	3.130982E-19
7.105005E+03	1.214785E-16	3.134602E-19
7.114818E+03	1.212755E-16	3.139300E-19
7.124632E+03	1.211116E-16	3.144999E-19
7.134446E+03	1.209867E-16	3.151703E-19
7.144259E+03	1.209061E-16	3.159568E-19
7.154073E+03	1.208608E-16	3.168363E-19
7.163886E+03	1.208565E-16	3.178248E-19
7.173700E+03	1.208899E-16	3.189147E-19
7.183513E+03	1.209636E-16	3.201140E-19
7.193327E+03	1.210743E-16	3.214151E-19
7.203140E+03	1.212248E-16	3.228259E-19
7.212954E+03	1.214114E-16	3.243383E-19
7.222767E+03	1.216368E-16	3.259600E-19
7.232581E+03	1.218975E-16	3.276825E-19
7.242395E+03	1.221956E-16	3.295131E-19
7.252208E+03	1.225274E-16	3.314425E-19
7.262022E+03	1.228952E-16	3.334776E-19
7.271835E+03	1.232979E-16	3.356167E-19
7.281649E+03	1.237375E-16	3.378663E-19
7.291462E+03	1.242065E-16	3.402067E-19
7.301276E+03	1.247097E-16	3.426523E-19
7.311089E+03	1.252391E-16	3.451814E-19
7.320903E+03	1.258025E-16	3.478171E-19
7.330716E+03	1.263883E-16	3.505278E-19
7.340530E+03	1.270008E-16	3.533263E-19
7.350343E+03	1.276378E-16	3.562071E-19
7.360157E+03	1.282933E-16	3.591546E-19
7.369971E+03	1.289645E-16	3.621615E-19
7.379784E+03	1.296487E-16	3.652202E-19
7.389598E+03	1.303427E-16	3.683227E-19
7.399411E+03	1.310467E-16	3.714700E-19
7.409225E+03	1.317467E-16	3.746224E-19
7.419038E+03	1.324496E-16	3.777998E-19
7.428852E+03	1.331443E-16	3.809708E-19
7.438665E+03	1.338300E-16	3.841331E-19
7.448479E+03	1.344982E-16	3.872617E-19
7.458292E+03	1.351429E-16	3.903386E-19
7.468106E+03	1.357608E-16	3.933541E-19
7.477920E+03	1.363465E-16	3.962911E-19
7.487733E+03	1.368920E-16	3.991257E-19
7.497547E+03	1.374065E-16	4.018836E-19
7.507360E+03	1.378871E-16	4.045552E-19
7.517174E+03	1.383341E-16	4.071402E-19
7.526987E+03	1.387469E-16	4.096362E-19
7.536801E+03	1.391292E-16	4.120527E-19
7.546614E+03	1.394765E-16	4.143756E-19
7.556428E+03	1.397882E-16	4.166020E-19
7.566241E+03	1.400598E-16	4.187173E-19
7.576055E+03	1.402991E-16	4.207436E-19
7.585868E+03	1.405017E-16	4.226668E-19
7.595682E+03	1.406675E-16	4.244853E-19
7.605496E+03	1.407965E-16	4.261980E-19
7.615309E+03	1.408888E-16	4.278040E-19
