#wls	flux	fluxerr
1.570167E+03	7.633109E-17	3.334340E-19
1.609421E+03	7.756275E-17	3.388115E-19
1.648675E+03	7.852743E-17	3.430228E-19
1.687929E+03	7.921458E-17	3.460217E-19
1.727184E+03	7.961480E-17	3.477673E-19
1.766438E+03	7.968902E-17	3.480889E-19
1.805692E+03	7.938982E-17	3.467794E-19
1.844946E+03	7.865975E-17	3.435879E-19
1.884200E+03	7.745082E-17	3.383048E-19
1.923454E+03	7.573856E-17	3.308232E-19
1.962709E+03	7.358326E-17	3.214066E-19
2.001963E+03	7.118543E-17	3.109309E-19
2.041217E+03	6.893997E-17	3.011208E-19
2.080471E+03	6.739791E-17	2.943833E-19
2.119725E+03	6.708082E-17	2.929962E-19
2.158979E+03	6.826865E-17	2.981824E-19
2.198234E+03	7.089999E-17	3.096735E-19
2.237488E+03	7.466659E-17	3.261229E-19
2.276742E+03	7.918807E-17	3.458692E-19
2.315996E+03	8.414400E-17	3.675128E-19
2.355250E+03	8.932820E-17	3.901531E-19
2.394504E+03	9.463788E-17	4.133413E-19
2.433759E+03	1.000424E-16	4.369434E-19
2.473013E+03	1.055529E-16	4.610081E-19
2.512267E+03	1.112076E-16	4.857024E-19
2.551521E+03	1.170533E-16	5.112304E-19
2.590775E+03	1.231435E-16	5.378264E-19
2.630029E+03	1.295435E-16	5.657751E-19
2.669284E+03	1.363222E-16	5.953768E-19
2.708538E+03	1.435664E-16	6.270120E-19
2.747792E+03	1.513808E-16	6.611369E-19
2.787046E+03	1.598755E-16	6.982324E-19
2.826300E+03	1.691693E-16	7.388179E-19
2.865554E+03	1.793900E-16	7.834509E-19
2.904809E+03	1.906699E-16	8.327088E-19
2.944063E+03	2.031443E-16	8.871837E-19
2.953876E+03	2.064663E-16	9.016905E-19
2.963690E+03	2.098736E-16	9.165698E-19
2.973503E+03	2.133705E-16	9.318404E-19
2.983317E+03	2.169591E-16	9.475114E-19
2.993131E+03	2.206487E-16	9.636234E-19
3.002944E+03	2.244513E-16	9.802292E-19
3.012758E+03	2.283656E-16	9.973226E-19
3.022571E+03	2.323946E-16	1.014917E-18
3.032385E+03	2.365372E-16	1.033007E-18
3.042198E+03	2.407932E-16	1.051593E-18
3.052012E+03	2.451698E-16	1.070705E-18
3.061825E+03	2.496700E-16	1.090356E-18
3.071639E+03	2.542924E-16	1.110542E-18
3.081452E+03	2.590384E-16	1.131268E-18
3.091266E+03	2.639094E-16	1.152538E-18
3.101079E+03	2.689067E-16	1.174361E-18
3.110893E+03	2.740274E-16	1.196723E-18
3.120707E+03	2.792755E-16	1.219641E-18
3.130520E+03	2.846507E-16	1.243113E-18
3.140334E+03	2.901547E-16	1.267149E-18
3.150147E+03	2.957850E-16	1.291735E-18
3.159961E+03	3.015459E-16	1.316893E-18
3.169774E+03	3.074348E-16	1.342609E-18
3.179588E+03	3.134538E-16	1.368893E-18
3.189401E+03	3.196000E-16	1.395733E-18
3.199215E+03	3.258781E-16	1.423148E-18
3.209028E+03	3.322849E-16	1.451126E-18
3.218842E+03	3.388195E-16	1.479661E-18
3.228656E+03	3.454782E-16	1.508738E-18
3.238469E+03	3.522616E-16	1.538360E-18
3.248283E+03	3.591647E-16	1.568505E-18
3.258096E+03	3.661838E-16	1.599156E-18
3.267910E+03	3.733115E-16	1.630282E-18
3.277723E+03	3.805415E-16	1.661854E-18
3.287537E+03	3.878632E-16	1.693826E-18
3.297350E+03	3.952636E-16	1.726142E-18
3.307164E+03	4.027280E-16	1.758738E-18
3.316977E+03	4.102395E-16	1.791539E-18
3.326791E+03	4.177821E-16	1.824476E-18
3.336605E+03	4.253325E-16	1.857447E-18
3.346418E+03	4.328650E-16	1.890340E-18
3.356232E+03	4.403591E-16	1.923065E-18
3.366045E+03	4.477867E-16	1.955499E-18
3.375859E+03	4.551224E-16	1.987532E-18
3.385672E+03	4.623366E-16	2.019035E-18
3.395486E+03	4.693994E-16	2.049876E-18
3.405299E+03	4.762905E-16	2.079967E-18
3.415113E+03	4.829734E-16	2.109149E-18
3.424926E+03	4.894280E-16	2.137334E-18
3.434740E+03	4.956281E-16	2.164408E-18
3.444553E+03	5.015514E-16	2.190273E-18
3.454367E+03	5.071796E-16	2.214849E-18
3.464181E+03	5.124952E-16	2.238059E-18
3.473994E+03	5.174782E-16	2.259818E-18
3.483808E+03	5.221199E-16	2.280086E-18
3.493621E+03	5.264089E-16	2.298813E-18
3.503435E+03	5.303316E-16	2.315941E-18
3.513248E+03	5.338755E-16	2.331415E-18
3.523062E+03	5.370388E-16	2.345226E-18
3.532875E+03	5.398101E-16	2.357326E-18
3.542689E+03	5.422035E-16	2.367776E-18
3.552502E+03	5.442447E-16	2.376687E-18
3.562316E+03	5.459560E-16	2.384158E-18
3.572130E+03	5.473590E-16	2.390282E-18
3.581943E+03	5.484954E-16	2.395243E-18
3.591757E+03	5.493955E-16	2.399171E-18
3.601570E+03	5.500907E-16	2.402205E-18
3.611384E+03	5.506093E-16	2.404467E-18
3.621197E+03	5.509729E-16	2.406052E-18
3.631011E+03	5.512064E-16	2.407070E-18
3.640824E+03	5.513246E-16	2.407584E-18
3.650638E+03	5.513429E-16	2.407661E-18
3.660451E+03	5.512710E-16	2.407345E-18
3.670265E+03	5.511213E-16	2.406689E-18
3.680079E+03	5.509064E-16	2.405748E-18
3.689892E+03	5.506411E-16	2.404587E-18
3.699706E+03	5.503402E-16	2.403271E-18
3.709519E+03	5.500267E-16	2.401900E-18
3.719333E+03	5.497263E-16	2.400586E-18
3.729146E+03	5.494748E-16	2.399485E-18
3.738960E+03	5.493109E-16	2.398768E-18
3.748773E+03	5.492857E-16	2.398655E-18
3.758587E+03	5.494449E-16	2.399348E-18
3.768400E+03	5.498429E-16	2.401084E-18
3.778214E+03	5.505312E-16	2.404088E-18
3.788027E+03	5.515620E-16	2.408587E-18
3.797841E+03	5.529790E-16	2.414773E-18
3.807655E+03	5.548242E-16	2.422828E-18
3.817468E+03	5.571157E-16	2.432833E-18
3.827282E+03	5.598749E-16	2.444879E-18
3.837095E+03	5.630911E-16	2.458922E-18
3.846909E+03	5.667504E-16	2.474899E-18
3.856722E+03	5.708143E-16	2.492644E-18
3.866536E+03	5.752267E-16	2.511910E-18
3.876349E+03	5.799149E-16	2.532380E-18
3.886163E+03	5.847988E-16	2.553705E-18
3.895976E+03	5.897763E-16	2.575439E-18
3.905790E+03	5.947448E-16	2.597133E-18
3.915604E+03	5.995954E-16	2.618312E-18
3.925417E+03	6.042207E-16	2.638508E-18
3.935231E+03	6.085236E-16	2.657296E-18
3.945044E+03	6.124126E-16	2.674276E-18
3.954858E+03	6.158093E-16	2.689107E-18
3.964671E+03	6.186531E-16	2.701523E-18
3.974485E+03	6.208948E-16	2.711310E-18
3.984298E+03	6.225039E-16	2.718334E-18
3.994112E+03	6.234517E-16	2.722471E-18
4.003925E+03	6.237414E-16	2.723734E-18
4.013739E+03	6.233671E-16	2.722097E-18
4.023553E+03	6.223466E-16	2.717639E-18
4.033366E+03	6.206944E-16	2.710422E-18
4.043180E+03	6.184353E-16	2.700555E-18
4.052993E+03	6.156056E-16	2.688196E-18
4.062807E+03	6.122457E-16	2.673522E-18
4.072620E+03	6.084007E-16	2.656730E-18
4.082434E+03	6.041375E-16	2.638112E-18
4.092247E+03	5.995175E-16	2.617936E-18
4.102061E+03	5.946241E-16	2.596565E-18
4.111874E+03	5.895453E-16	2.574386E-18
4.121688E+03	6.797911E-16	2.968463E-18
4.122669E+03	6.795441E-16	2.967384E-18
4.123651E+03	6.787014E-16	2.963704E-18
4.124632E+03	6.776555E-16	2.959137E-18
4.125613E+03	6.780713E-16	2.960952E-18
4.126595E+03	6.790833E-16	2.965371E-18
4.127576E+03	6.796300E-16	2.967758E-18
4.128557E+03	6.791815E-16	2.965799E-18
4.130520E+03	6.788885E-16	2.964520E-18
4.131501E+03	6.790008E-16	2.965010E-18
4.132483E+03	6.790762E-16	2.965339E-18
4.133464E+03	6.788623E-16	2.964405E-18
4.134446E+03	6.792216E-16	2.965973E-18
4.135427E+03	6.804090E-16	2.971158E-18
4.136408E+03	6.819598E-16	2.977930E-18
4.137390E+03	6.815866E-16	2.976300E-18
4.138371E+03	6.796033E-16	2.967639E-18
4.139352E+03	6.776863E-16	2.959268E-18
4.140334E+03	6.759292E-16	2.951595E-18
4.141315E+03	6.761314E-16	2.952478E-18
4.142296E+03	6.763122E-16	2.953267E-18
4.143278E+03	6.753839E-16	2.949213E-18
4.144259E+03	6.737455E-16	2.942059E-18
4.145240E+03	6.717383E-16	2.933294E-18
4.146222E+03	6.698840E-16	2.925196E-18
4.147203E+03	6.687192E-16	2.920109E-18
4.148184E+03	6.687067E-16	2.920055E-18
4.149166E+03	6.691589E-16	2.922029E-18
4.150147E+03	6.693799E-16	2.922994E-18
4.151129E+03	6.690353E-16	2.921489E-18
4.152110E+03	6.686334E-16	2.919734E-18
4.153091E+03	6.681378E-16	2.917570E-18
4.154073E+03	6.674986E-16	2.914778E-18
4.155054E+03	6.667868E-16	2.911670E-18
4.156035E+03	6.665824E-16	2.910777E-18
4.157017E+03	6.669577E-16	2.912416E-18
4.157998E+03	6.676517E-16	2.915446E-18
4.158979E+03	6.681725E-16	2.917720E-18
4.159961E+03	6.677809E-16	2.916010E-18
4.160942E+03	6.654947E-16	2.906026E-18
4.161923E+03	6.618044E-16	2.889912E-18
4.162905E+03	6.580948E-16	2.873712E-18
4.163886E+03	6.538426E-16	2.855144E-18
4.164868E+03	6.492019E-16	2.834879E-18
4.165849E+03	6.449311E-16	2.816230E-18
4.166830E+03	6.421735E-16	2.804188E-18
4.167812E+03	6.412390E-16	2.800107E-18
4.168793E+03	6.400811E-16	2.795051E-18
4.169774E+03	6.372751E-16	2.782798E-18
4.170756E+03	6.328942E-16	2.763667E-18
4.171737E+03	6.291652E-16	2.747384E-18
4.172718E+03	6.261457E-16	2.734198E-18
4.173700E+03	6.232718E-16	2.721648E-18
4.174681E+03	6.199291E-16	2.707052E-18
4.175662E+03	6.168549E-16	2.693627E-18
4.176644E+03	6.140996E-16	2.681596E-18
4.177625E+03	6.115042E-16	2.670262E-18
4.178606E+03	6.091337E-16	2.659910E-18
4.179588E+03	6.065473E-16	2.648616E-18
4.180569E+03	6.037885E-16	2.636569E-18
4.181551E+03	6.014857E-16	2.626513E-18
4.182532E+03	5.999636E-16	2.619867E-18
4.183513E+03	5.980451E-16	2.611489E-18
4.184495E+03	5.952033E-16	2.599079E-18
4.185476E+03	5.911784E-16	2.581504E-18
4.186457E+03	5.868082E-16	2.562420E-18
4.187439E+03	5.830384E-16	2.545958E-18
4.188420E+03	5.794140E-16	2.530131E-18
4.189401E+03	5.763175E-16	2.516610E-18
4.190383E+03	5.740808E-16	2.506842E-18
4.191364E+03	5.727322E-16	2.500954E-18
4.192345E+03	5.710814E-16	2.493745E-18
4.193327E+03	5.695684E-16	2.487138E-18
4.194308E+03	5.680272E-16	2.480408E-18
4.195289E+03	5.666022E-16	2.474185E-18
4.196271E+03	5.657404E-16	2.470422E-18
4.197252E+03	5.635523E-16	2.460866E-18
4.198234E+03	5.609035E-16	2.449300E-18
4.199215E+03	5.587819E-16	2.440035E-18
4.200196E+03	5.559473E-16	2.427657E-18
4.201178E+03	5.534886E-16	2.416921E-18
4.202159E+03	5.514704E-16	2.408108E-18
4.203140E+03	5.512623E-16	2.407199E-18
4.204122E+03	5.514945E-16	2.408212E-18
4.205103E+03	5.505810E-16	2.404224E-18
4.206084E+03	5.503169E-16	2.403070E-18
4.207066E+03	5.506874E-16	2.404688E-18
4.208047E+03	5.504171E-16	2.403507E-18
4.209028E+03	5.508677E-16	2.405475E-18
4.210010E+03	5.515926E-16	2.408640E-18
4.210991E+03	5.518136E-16	2.409605E-18
4.211973E+03	5.520999E-16	2.410855E-18
4.212954E+03	5.515152E-16	2.408301E-18
4.213935E+03	5.515649E-16	2.408518E-18
4.214917E+03	5.519607E-16	2.410247E-18
4.215898E+03	5.519178E-16	2.410059E-18
4.216879E+03	5.520986E-16	2.410849E-18
4.217861E+03	5.520711E-16	2.410728E-18
4.218842E+03	5.528651E-16	2.414195E-18
4.219823E+03	5.537027E-16	2.417852E-18
4.220805E+03	5.548574E-16	2.422895E-18
4.221786E+03	5.571717E-16	2.433000E-18
4.222767E+03	5.589176E-16	2.440624E-18
4.223749E+03	5.583748E-16	2.438253E-18
4.224730E+03	5.598552E-16	2.444718E-18
4.225711E+03	5.620126E-16	2.454138E-18
4.226693E+03	5.634939E-16	2.460607E-18
4.227674E+03	5.643062E-16	2.464154E-18
4.228656E+03	5.649537E-16	2.466981E-18
4.229637E+03	5.645006E-16	2.465002E-18
4.230618E+03	5.630049E-16	2.458471E-18
4.231600E+03	5.620855E-16	2.454456E-18
4.232581E+03	5.612964E-16	2.451010E-18
4.233562E+03	5.609899E-16	2.449671E-18
4.234544E+03	5.613820E-16	2.451383E-18
4.235525E+03	5.620697E-16	2.454386E-18
4.236506E+03	5.629306E-16	2.458145E-18
4.237488E+03	5.644970E-16	2.464985E-18
4.238469E+03	5.674593E-16	2.477920E-18
4.239450E+03	5.719182E-16	2.497391E-18
4.240432E+03	5.764709E-16	2.517271E-18
4.241413E+03	5.799523E-16	2.532473E-18
4.242395E+03	5.822619E-16	2.542558E-18
4.243376E+03	5.849603E-16	2.554341E-18
4.244357E+03	5.878391E-16	2.566912E-18
4.245339E+03	5.906106E-16	2.579014E-18
4.246320E+03	5.928864E-16	2.588951E-18
4.247301E+03	5.948320E-16	2.597447E-18
4.248283E+03	5.973032E-16	2.608238E-18
4.249264E+03	6.004725E-16	2.622077E-18
4.250245E+03	6.044764E-16	2.639560E-18
4.251227E+03	6.085097E-16	2.657172E-18
4.252208E+03	6.121697E-16	2.673154E-18
4.253189E+03	6.153845E-16	2.687192E-18
4.254171E+03	6.181544E-16	2.699287E-18
4.255152E+03	6.218882E-16	2.715592E-18
4.256133E+03	6.257163E-16	2.732307E-18
4.257115E+03	6.284666E-16	2.744317E-18
4.258096E+03	6.298446E-16	2.750334E-18
4.259078E+03	6.322874E-16	2.761001E-18
4.260059E+03	6.351336E-16	2.773429E-18
4.261040E+03	6.364710E-16	2.779269E-18
4.262022E+03	6.366662E-16	2.780121E-18
4.263003E+03	6.363878E-16	2.778905E-18
4.263984E+03	6.363548E-16	2.778761E-18
4.264966E+03	6.361502E-16	2.777867E-18
4.265947E+03	6.366724E-16	2.780148E-18
4.266928E+03	6.382166E-16	2.786890E-18
4.267910E+03	6.399986E-16	2.794672E-18
4.268891E+03	6.424070E-16	2.805188E-18
4.269872E+03	6.457441E-16	2.819760E-18
4.270854E+03	6.478597E-16	2.828998E-18
4.271835E+03	6.489124E-16	2.833595E-18
4.272816E+03	6.503545E-16	2.839892E-18
4.273798E+03	6.517040E-16	2.845784E-18
4.274779E+03	6.518974E-16	2.846629E-18
4.275761E+03	6.513937E-16	2.844429E-18
4.276742E+03	6.512366E-16	2.843743E-18
4.277723E+03	6.514403E-16	2.844632E-18
4.278705E+03	6.511125E-16	2.843200E-18
4.279686E+03	6.498942E-16	2.837880E-18
4.280667E+03	6.480589E-16	2.829866E-18
4.281649E+03	6.477046E-16	2.828319E-18
4.282630E+03	6.490562E-16	2.834220E-18
4.283611E+03	6.509478E-16	2.842480E-18
4.284593E+03	6.531135E-16	2.851937E-18
4.285574E+03	6.533675E-16	2.853046E-18
4.286555E+03	6.532487E-16	2.852527E-18
4.287537E+03	6.539506E-16	2.855592E-18
4.288518E+03	6.552361E-16	2.861205E-18
4.289500E+03	6.569105E-16	2.868517E-18
4.290481E+03	6.586653E-16	2.876179E-18
4.291462E+03	6.602552E-16	2.883122E-18
4.292444E+03	6.608400E-16	2.885675E-18
4.293425E+03	6.610869E-16	2.886753E-18
4.294406E+03	6.620260E-16	2.890853E-18
4.295388E+03	6.645407E-16	2.901834E-18
4.296369E+03	6.671785E-16	2.913352E-18
4.297350E+03	6.695732E-16	2.923809E-18
4.298332E+03	6.717967E-16	2.933518E-18
4.299313E+03	6.740993E-16	2.943573E-18
4.300294E+03	6.757922E-16	2.950965E-18
4.301276E+03	6.762130E-16	2.952802E-18
4.302257E+03	6.749501E-16	2.947287E-18
4.303238E+03	6.730264E-16	2.938887E-18
4.304220E+03	6.706791E-16	2.928637E-18
4.305201E+03	6.689577E-16	2.921120E-18
4.306183E+03	6.679356E-16	2.916656E-18
4.307164E+03	6.673601E-16	2.914143E-18
4.308145E+03	6.677929E-16	2.916033E-18
4.309127E+03	6.691115E-16	2.921791E-18
4.310108E+03	6.705825E-16	2.928214E-18
4.311089E+03	6.716514E-16	2.932881E-18
4.312071E+03	6.708494E-16	2.929379E-18
4.313052E+03	6.693572E-16	2.922863E-18
4.314033E+03	6.688945E-16	2.920842E-18
4.315015E+03	6.707154E-16	2.928793E-18
4.315996E+03	6.724071E-16	2.936180E-18
4.316977E+03	6.736899E-16	2.941782E-18
4.317959E+03	6.750166E-16	2.947575E-18
4.318940E+03	6.764665E-16	2.953906E-18
4.319921E+03	6.771537E-16	2.956906E-18
4.320903E+03	6.767040E-16	2.954942E-18
4.321884E+03	6.757789E-16	2.950903E-18
4.322866E+03	6.746600E-16	2.946017E-18
4.323847E+03	6.735562E-16	2.941197E-18
4.324828E+03	6.720857E-16	2.934775E-18
4.325810E+03	6.699090E-16	2.925270E-18
4.326791E+03	6.660756E-16	2.908531E-18
4.327772E+03	6.616289E-16	2.889113E-18
4.328754E+03	6.576223E-16	2.871618E-18
4.329735E+03	6.553096E-16	2.861519E-18
4.330716E+03	6.538263E-16	2.855041E-18
4.331698E+03	6.520621E-16	2.847338E-18
4.332679E+03	6.505141E-16	2.840578E-18
4.333660E+03	6.491758E-16	2.834733E-18
4.334642E+03	6.473695E-16	2.826846E-18
4.335623E+03	6.444231E-16	2.813980E-18
4.336605E+03	6.409225E-16	2.798694E-18
4.337586E+03	6.367721E-16	2.780570E-18
4.338567E+03	6.329463E-16	2.763864E-18
4.339549E+03	6.297912E-16	2.750086E-18
4.340530E+03	6.268381E-16	2.737191E-18
4.341511E+03	6.238272E-16	2.724044E-18
4.342493E+03	6.204700E-16	2.709384E-18
4.343474E+03	6.168240E-16	2.693463E-18
4.344455E+03	6.124706E-16	2.674452E-18
4.345437E+03	6.081817E-16	2.655724E-18
4.346418E+03	6.044195E-16	2.639296E-18
4.347399E+03	6.010975E-16	2.624790E-18
4.348381E+03	5.976309E-16	2.609652E-18
4.349362E+03	5.954637E-16	2.600188E-18
4.350343E+03	5.944953E-16	2.595960E-18
4.351325E+03	5.936861E-16	2.592426E-18
4.352306E+03	5.918370E-16	2.584351E-18
4.353288E+03	5.895835E-16	2.574511E-18
4.354269E+03	5.874311E-16	2.565112E-18
4.355250E+03	5.855388E-16	2.556849E-18
4.356232E+03	5.838271E-16	2.549374E-18
4.357213E+03	5.817759E-16	2.540417E-18
4.358194E+03	5.790814E-16	2.528651E-18
4.359176E+03	5.757218E-16	2.513981E-18
4.360157E+03	5.723981E-16	2.499467E-18
4.361138E+03	5.690957E-16	2.485047E-18
4.362120E+03	5.659738E-16	2.471414E-18
4.363101E+03	5.631407E-16	2.459043E-18
4.364082E+03	5.612620E-16	2.450839E-18
4.365064E+03	5.594773E-16	2.443046E-18
4.366045E+03	5.571645E-16	2.432946E-18
4.367026E+03	5.534989E-16	2.416939E-18
4.368008E+03	5.501510E-16	2.402321E-18
4.368989E+03	5.464338E-16	2.386089E-18
4.369971E+03	5.427884E-16	2.370170E-18
4.370952E+03	5.391716E-16	2.354377E-18
4.371933E+03	5.353443E-16	2.337664E-18
4.372915E+03	5.316540E-16	2.321550E-18
4.373896E+03	5.290056E-16	2.309985E-18
4.374877E+03	5.278484E-16	2.304932E-18
4.375859E+03	5.273212E-16	2.302629E-18
4.376840E+03	5.270620E-16	2.301497E-18
4.377821E+03	5.268538E-16	2.300588E-18
4.378803E+03	5.263995E-16	2.298604E-18
4.379784E+03	5.261193E-16	2.297380E-18
4.380765E+03	5.260203E-16	2.296948E-18
4.381747E+03	5.254651E-16	2.294524E-18
4.382728E+03	5.245695E-16	2.290613E-18
4.383710E+03	5.232752E-16	2.284961E-18
4.384691E+03	5.220751E-16	2.279720E-18
4.385672E+03	5.215564E-16	2.277455E-18
4.386654E+03	5.216686E-16	2.277945E-18
4.387635E+03	5.219768E-16	2.279291E-18
4.388616E+03	5.225754E-16	2.281905E-18
4.389598E+03	5.234863E-16	2.285882E-18
4.390579E+03	5.244048E-16	2.289892E-18
4.391560E+03	5.249175E-16	2.292131E-18
4.392542E+03	5.257497E-16	2.295765E-18
4.393523E+03	5.267638E-16	2.300193E-18
4.394504E+03	5.271833E-16	2.302025E-18
4.395486E+03	5.269498E-16	2.301005E-18
4.396467E+03	5.267891E-16	2.300303E-18
4.397448E+03	5.273545E-16	2.302772E-18
4.398430E+03	5.288569E-16	2.309332E-18
4.399411E+03	5.298661E-16	2.313739E-18
4.400393E+03	5.295684E-16	2.312439E-18
4.401374E+03	5.285518E-16	2.308000E-18
4.402355E+03	5.281090E-16	2.306066E-18
4.403337E+03	5.279787E-16	2.305497E-18
4.404318E+03	5.273834E-16	2.302897E-18
4.405299E+03	5.272243E-16	2.302202E-18
4.406281E+03	5.276466E-16	2.304046E-18
4.407262E+03	5.285781E-16	2.308114E-18
4.408243E+03	5.303314E-16	2.315770E-18
4.409225E+03	5.323835E-16	2.324730E-18
4.410206E+03	5.333018E-16	2.328740E-18
4.411187E+03	5.334133E-16	2.329227E-18
4.412169E+03	5.339832E-16	2.331715E-18
4.413150E+03	5.344370E-16	2.333696E-18
4.414132E+03	5.342071E-16	2.332693E-18
4.415113E+03	5.334972E-16	2.329593E-18
4.416094E+03	5.323069E-16	2.324395E-18
4.417076E+03	5.305487E-16	2.316717E-18
4.418057E+03	5.298967E-16	2.313870E-18
4.419038E+03	5.307588E-16	2.317634E-18
4.420020E+03	5.322401E-16	2.324103E-18
4.421001E+03	5.330812E-16	2.327775E-18
4.421982E+03	5.334783E-16	2.329509E-18
4.422964E+03	5.337518E-16	2.330703E-18
4.423945E+03	5.341348E-16	2.332376E-18
4.424926E+03	5.343067E-16	2.333126E-18
4.425908E+03	5.342674E-16	2.332954E-18
4.426889E+03	5.337619E-16	2.330747E-18
4.427870E+03	5.331543E-16	2.328093E-18
4.428852E+03	5.327434E-16	2.326299E-18
4.429833E+03	5.323471E-16	2.324569E-18
4.430815E+03	5.314477E-16	2.320641E-18
4.431796E+03	5.302054E-16	2.315216E-18
4.432777E+03	5.292619E-16	2.311096E-18
4.433759E+03	5.291716E-16	2.310702E-18
4.434740E+03	5.299860E-16	2.314258E-18
4.435721E+03	5.313115E-16	2.320045E-18
4.436703E+03	5.329292E-16	2.327109E-18
4.437684E+03	5.342483E-16	2.332869E-18
4.438665E+03	5.347648E-16	2.335124E-18
4.439647E+03	5.340771E-16	2.332121E-18
4.440628E+03	5.333673E-16	2.329022E-18
4.441609E+03	5.333657E-16	2.329015E-18
4.442591E+03	5.342843E-16	2.333026E-18
4.443572E+03	5.347797E-16	2.335189E-18
4.444553E+03	5.341648E-16	2.332504E-18
4.445535E+03	5.327461E-16	2.326309E-18
4.446516E+03	5.321602E-16	2.323750E-18
4.447498E+03	5.319249E-16	2.322723E-18
4.448479E+03	5.321135E-16	2.323546E-18
4.449460E+03	5.324192E-16	2.324881E-18
4.450442E+03	5.330832E-16	2.327780E-18
4.451423E+03	5.338644E-16	2.331191E-18
4.452404E+03	5.351651E-16	2.336871E-18
4.453386E+03	5.372561E-16	2.346001E-18
4.454367E+03	5.400207E-16	2.358073E-18
4.455348E+03	5.420690E-16	2.367017E-18
4.456330E+03	5.435473E-16	2.373472E-18
4.457311E+03	5.451357E-16	2.380408E-18
4.458292E+03	5.472076E-16	2.389455E-18
4.459274E+03	5.488995E-16	2.396843E-18
4.460255E+03	5.502111E-16	2.402570E-18
4.461237E+03	5.505640E-16	2.404111E-18
4.462218E+03	5.502506E-16	2.402742E-18
4.463199E+03	5.501788E-16	2.402429E-18
4.464181E+03	5.507003E-16	2.404706E-18
4.465162E+03	5.513172E-16	2.407399E-18
4.466143E+03	5.515826E-16	2.408558E-18
4.467125E+03	5.514157E-16	2.407829E-18
4.468106E+03	5.514247E-16	2.407868E-18
4.469087E+03	5.520787E-16	2.410724E-18
4.470069E+03	5.527181E-16	2.413516E-18
4.471050E+03	5.534751E-16	2.416821E-18
4.472031E+03	5.543349E-16	2.420575E-18
