#wls	flux	fluxerr
1.570167E+03	1.502036E-17	9.426875E-20
1.609421E+03	1.497867E-17	9.400708E-20
1.648675E+03	1.490121E-17	9.352094E-20
1.687929E+03	1.478952E-17	9.281994E-20
1.727184E+03	1.464517E-17	9.191402E-20
1.766438E+03	1.446333E-17	9.077277E-20
1.805692E+03	1.423750E-17	8.935545E-20
1.844946E+03	1.395967E-17	8.761177E-20
1.884200E+03	1.362327E-17	8.550048E-20
1.923454E+03	1.322340E-17	8.299088E-20
1.962709E+03	1.276899E-17	8.013897E-20
2.001963E+03	1.229284E-17	7.715058E-20
2.041217E+03	1.186242E-17	7.444926E-20
2.080471E+03	1.156588E-17	7.258817E-20
2.119725E+03	1.149251E-17	7.212768E-20
2.158979E+03	1.168475E-17	7.333422E-20
2.198234E+03	1.213309E-17	7.614802E-20
2.237488E+03	1.278679E-17	8.025065E-20
2.276742E+03	1.358374E-17	8.525235E-20
2.315996E+03	1.447288E-17	9.083264E-20
2.355250E+03	1.542594E-17	9.681408E-20
2.394504E+03	1.643034E-17	1.031178E-19
2.433759E+03	1.748593E-17	1.097427E-19
2.473013E+03	1.860133E-17	1.167430E-19
2.512267E+03	1.978917E-17	1.241979E-19
2.551521E+03	2.106578E-17	1.322100E-19
2.590775E+03	2.244569E-17	1.408704E-19
2.630029E+03	2.395070E-17	1.503159E-19
2.669284E+03	2.559908E-17	1.606613E-19
2.708538E+03	2.741884E-17	1.720822E-19
2.747792E+03	2.943345E-17	1.847260E-19
2.787046E+03	3.167574E-17	1.987987E-19
2.826300E+03	3.418021E-17	2.145169E-19
2.865554E+03	3.698725E-17	2.321341E-19
2.904809E+03	4.014222E-17	2.519348E-19
2.944063E+03	4.369643E-17	2.742412E-19
2.953876E+03	4.465445E-17	2.802538E-19
2.963690E+03	4.564256E-17	2.864552E-19
2.973503E+03	4.665952E-17	2.928377E-19
2.983317E+03	4.771068E-17	2.994349E-19
2.993131E+03	4.879434E-17	3.062360E-19
3.002944E+03	4.991517E-17	3.132704E-19
3.012758E+03	5.107377E-17	3.205418E-19
3.022571E+03	5.227292E-17	3.280677E-19
3.032385E+03	5.351174E-17	3.358426E-19
3.042198E+03	5.478754E-17	3.438496E-19
3.052012E+03	5.610992E-17	3.521489E-19
3.061825E+03	5.747311E-17	3.607044E-19
3.071639E+03	5.888228E-17	3.695484E-19
3.081452E+03	6.033388E-17	3.786587E-19
3.091266E+03	6.183330E-17	3.880692E-19
3.101079E+03	6.338147E-17	3.977856E-19
3.110893E+03	6.497498E-17	4.077865E-19
3.120707E+03	6.661937E-17	4.181068E-19
3.130520E+03	6.831127E-17	4.287252E-19
3.140334E+03	7.005637E-17	4.396776E-19
3.150147E+03	7.185364E-17	4.509574E-19
3.159961E+03	7.370438E-17	4.625727E-19
3.169774E+03	7.560976E-17	4.745310E-19
3.179588E+03	7.757124E-17	4.868413E-19
3.189401E+03	7.959002E-17	4.995113E-19
3.199215E+03	8.166751E-17	5.125497E-19
3.209028E+03	8.380507E-17	5.259652E-19
3.218842E+03	8.600132E-17	5.397490E-19
3.228656E+03	8.826005E-17	5.539248E-19
3.238469E+03	9.058234E-17	5.684996E-19
3.248283E+03	9.296653E-17	5.834629E-19
3.258096E+03	9.541584E-17	5.988350E-19
3.267910E+03	9.792821E-17	6.146027E-19
3.277723E+03	1.005063E-16	6.307831E-19
3.287537E+03	1.031474E-16	6.473585E-19
3.297350E+03	1.058506E-16	6.643240E-19
3.307164E+03	1.086149E-16	6.816731E-19
3.316977E+03	1.114416E-16	6.994136E-19
3.326791E+03	1.143259E-16	7.175154E-19
3.336605E+03	1.172652E-16	7.359626E-19
3.346418E+03	1.202536E-16	7.547182E-19
3.356232E+03	1.232937E-16	7.737980E-19
3.366045E+03	1.263788E-16	7.931602E-19
3.375859E+03	1.295017E-16	8.127595E-19
3.385672E+03	1.326640E-16	8.326065E-19
3.395486E+03	1.358580E-16	8.526522E-19
3.405299E+03	1.390756E-16	8.728460E-19
3.415113E+03	1.423148E-16	8.931756E-19
3.424926E+03	1.455703E-16	9.136069E-19
3.434740E+03	1.488367E-16	9.341069E-19
3.444553E+03	1.521117E-16	9.546612E-19
3.454367E+03	1.553835E-16	9.751951E-19
3.464181E+03	1.586499E-16	9.956955E-19
3.473994E+03	1.619059E-16	1.016130E-18
3.483808E+03	1.651464E-16	1.036467E-18
3.493621E+03	1.683669E-16	1.056679E-18
3.503435E+03	1.715635E-16	1.076742E-18
3.513248E+03	1.747332E-16	1.096635E-18
3.523062E+03	1.778740E-16	1.116347E-18
3.532875E+03	1.809820E-16	1.135852E-18
3.542689E+03	1.840618E-16	1.155182E-18
3.552502E+03	1.871166E-16	1.174354E-18
3.562316E+03	1.901437E-16	1.193352E-18
3.572130E+03	1.931518E-16	1.212231E-18
3.581943E+03	1.961472E-16	1.231030E-18
3.591757E+03	1.991327E-16	1.249768E-18
3.601570E+03	2.021186E-16	1.268507E-18
3.611384E+03	2.051042E-16	1.287245E-18
3.621197E+03	2.080992E-16	1.306041E-18
3.631011E+03	2.111057E-16	1.324910E-18
3.640824E+03	2.141289E-16	1.343884E-18
3.650638E+03	2.171732E-16	1.362990E-18
3.660451E+03	2.202429E-16	1.382256E-18
3.670265E+03	2.233384E-16	1.401683E-18
3.680079E+03	2.264636E-16	1.421298E-18
3.689892E+03	2.296236E-16	1.441130E-18
3.699706E+03	2.328243E-16	1.461218E-18
3.709519E+03	2.360701E-16	1.481588E-18
3.719333E+03	2.393714E-16	1.502308E-18
3.729146E+03	2.427415E-16	1.523458E-18
3.738960E+03	2.461932E-16	1.545121E-18
3.748773E+03	2.497457E-16	1.567417E-18
3.758587E+03	2.534247E-16	1.590507E-18
3.768400E+03	2.572468E-16	1.614495E-18
3.778214E+03	2.612408E-16	1.639561E-18
3.788027E+03	2.654318E-16	1.665864E-18
3.797841E+03	2.698365E-16	1.693508E-18
3.807655E+03	2.744797E-16	1.722649E-18
3.817468E+03	2.793745E-16	1.753369E-18
3.827282E+03	2.845361E-16	1.785763E-18
3.837095E+03	2.899647E-16	1.819834E-18
3.846909E+03	2.956561E-16	1.855553E-18
3.856722E+03	3.015963E-16	1.892834E-18
3.860756E+03	1.367382E-16	8.581762E-19
3.862198E+03	1.390094E-16	8.724304E-19
3.863641E+03	1.409160E-16	8.843959E-19
3.865083E+03	1.447445E-16	9.084240E-19
3.866526E+03	1.499654E-16	9.411905E-19
3.867969E+03	1.548459E-16	9.718207E-19
3.869411E+03	1.599991E-16	1.004163E-18
3.870854E+03	1.675129E-16	1.051320E-18
3.872296E+03	1.733183E-16	1.087755E-18
3.873739E+03	1.785593E-16	1.120647E-18
3.875182E+03	1.852296E-16	1.162511E-18
3.876624E+03	1.904857E-16	1.195498E-18
3.878067E+03	1.962510E-16	1.231681E-18
3.879509E+03	2.024783E-16	1.270764E-18
3.880952E+03	2.088730E-16	1.310898E-18
3.882395E+03	2.166393E-16	1.359640E-18
3.883837E+03	2.239002E-16	1.405209E-18
3.885280E+03	2.314822E-16	1.452794E-18
3.886722E+03	2.380504E-16	1.494017E-18
3.888165E+03	2.445380E-16	1.534733E-18
3.889607E+03	2.491839E-16	1.563891E-18
3.891050E+03	2.531338E-16	1.588681E-18
3.892493E+03	2.605250E-16	1.635069E-18
3.893935E+03	2.675874E-16	1.679393E-18
3.895378E+03	2.742972E-16	1.721503E-18
3.896820E+03	2.794124E-16	1.753607E-18
3.898263E+03	2.839377E-16	1.782008E-18
3.899706E+03	2.910434E-16	1.826604E-18
3.901148E+03	2.975598E-16	1.867501E-18
3.902591E+03	3.046697E-16	1.912123E-18
3.904033E+03	3.117937E-16	1.956834E-18
3.905476E+03	3.191448E-16	2.002970E-18
3.906919E+03	3.263916E-16	2.048451E-18
3.908361E+03	3.342563E-16	2.097810E-18
3.909804E+03	3.401694E-16	2.134921E-18
3.911246E+03	3.464869E-16	2.174570E-18
3.912689E+03	3.540385E-16	2.221964E-18
3.914132E+03	3.608103E-16	2.264464E-18
3.915574E+03	3.668969E-16	2.302664E-18
3.917017E+03	3.716342E-16	2.332396E-18
3.918459E+03	3.749624E-16	2.353283E-18
3.919902E+03	3.789200E-16	2.378121E-18
3.921344E+03	3.839934E-16	2.409962E-18
3.922787E+03	3.903135E-16	2.449628E-18
3.924230E+03	3.963865E-16	2.487742E-18
3.925672E+03	4.016666E-16	2.520880E-18
3.927115E+03	4.071381E-16	2.555220E-18
3.928557E+03	4.102499E-16	2.574750E-18
3.930000E+03	4.119147E-16	2.585198E-18
3.931443E+03	4.150757E-16	2.605036E-18
3.932885E+03	4.182138E-16	2.624732E-18
3.934328E+03	4.213649E-16	2.644508E-18
3.935770E+03	4.256213E-16	2.671221E-18
3.937213E+03	4.284656E-16	2.689072E-18
3.938656E+03	4.315840E-16	2.708644E-18
3.940098E+03	4.354045E-16	2.732621E-18
3.941541E+03	4.382160E-16	2.750266E-18
3.942983E+03	4.421693E-16	2.775077E-18
3.944426E+03	4.443646E-16	2.788855E-18
3.945868E+03	4.449795E-16	2.792714E-18
3.947311E+03	4.475565E-16	2.808888E-18
3.948754E+03	4.494802E-16	2.820961E-18
3.950196E+03	4.520824E-16	2.837293E-18
3.951639E+03	4.562557E-16	2.863484E-18
3.953081E+03	4.577295E-16	2.872734E-18
3.954524E+03	4.594180E-16	2.883331E-18
3.955967E+03	4.620710E-16	2.899981E-18
3.957409E+03	4.647367E-16	2.916712E-18
3.958852E+03	4.652247E-16	2.919774E-18
3.960294E+03	4.660105E-16	2.924706E-18
3.961737E+03	4.656058E-16	2.922166E-18
3.963180E+03	4.651890E-16	2.919550E-18
3.964622E+03	4.651770E-16	2.919475E-18
3.966065E+03	4.643669E-16	2.914391E-18
3.967507E+03	4.624245E-16	2.902200E-18
3.968950E+03	4.623406E-16	2.901674E-18
3.970393E+03	4.609456E-16	2.892919E-18
3.971835E+03	4.596098E-16	2.884535E-18
3.973278E+03	4.590963E-16	2.881312E-18
3.974720E+03	4.575689E-16	2.871726E-18
3.976163E+03	4.543237E-16	2.851359E-18
3.977605E+03	4.528310E-16	2.841991E-18
3.979048E+03	4.501090E-16	2.824907E-18
3.980491E+03	4.479231E-16	2.811189E-18
3.981933E+03	4.447579E-16	2.791324E-18
3.983376E+03	4.414009E-16	2.770255E-18
3.984818E+03	4.382695E-16	2.750602E-18
3.986261E+03	4.358058E-16	2.735140E-18
3.987704E+03	4.321712E-16	2.712328E-18
3.989146E+03	4.264214E-16	2.676243E-18
3.990589E+03	4.206698E-16	2.640145E-18
3.992031E+03	4.176643E-16	2.621282E-18
3.993474E+03	4.145981E-16	2.602039E-18
3.994917E+03	4.110529E-16	2.579789E-18
3.996359E+03	4.041121E-16	2.536229E-18
3.997802E+03	3.995720E-16	2.507735E-18
3.999244E+03	3.955327E-16	2.482383E-18
4.000687E+03	3.908463E-16	2.452972E-18
4.002130E+03	3.853333E-16	2.418372E-18
4.003572E+03	3.791009E-16	2.379257E-18
4.005015E+03	3.752593E-16	2.355147E-18
4.006457E+03	3.717515E-16	2.333132E-18
4.007900E+03	3.668065E-16	2.302097E-18
4.009342E+03	3.642300E-16	2.285926E-18
4.010785E+03	3.630172E-16	2.278315E-18
4.012228E+03	3.613012E-16	2.267545E-18
4.013670E+03	3.602074E-16	2.260680E-18
4.015113E+03	3.579994E-16	2.246822E-18
4.016555E+03	3.559345E-16	2.233863E-18
4.017998E+03	3.554502E-16	2.230824E-18
4.019441E+03	3.531326E-16	2.216279E-18
4.020883E+03	3.520007E-16	2.209174E-18
4.022326E+03	3.507246E-16	2.201165E-18
4.023768E+03	3.489086E-16	2.189768E-18
4.025211E+03	3.484109E-16	2.186644E-18
4.026654E+03	3.475293E-16	2.181112E-18
4.028096E+03	3.463716E-16	2.173846E-18
4.029539E+03	3.466649E-16	2.175687E-18
4.030981E+03	3.457706E-16	2.170074E-18
4.032424E+03	3.445160E-16	2.162200E-18
4.033867E+03	3.434531E-16	2.155529E-18
4.035309E+03	3.431219E-16	2.153451E-18
4.036752E+03	3.428507E-16	2.151749E-18
4.038194E+03	3.427834E-16	2.151326E-18
4.039637E+03	3.444573E-16	2.161832E-18
4.041079E+03	3.446064E-16	2.162768E-18
4.042522E+03	3.443352E-16	2.161066E-18
4.043965E+03	3.453493E-16	2.167430E-18
4.045407E+03	3.473369E-16	2.179904E-18
4.046850E+03	3.490367E-16	2.190572E-18
4.048292E+03	3.513140E-16	2.204865E-18
4.049735E+03	3.538563E-16	2.220821E-18
4.051178E+03	3.557262E-16	2.232556E-18
4.052620E+03	3.572960E-16	2.242408E-18
4.054063E+03	3.598885E-16	2.258679E-18
4.055505E+03	3.621089E-16	2.272614E-18
4.056948E+03	3.629706E-16	2.278022E-18
4.058391E+03	3.655050E-16	2.293928E-18
4.059833E+03	3.682687E-16	2.311273E-18
4.061276E+03	3.701668E-16	2.323186E-18
4.062718E+03	3.721737E-16	2.335781E-18
4.064161E+03	3.736274E-16	2.344904E-18
4.065604E+03	3.745999E-16	2.351008E-18
4.067046E+03	3.774393E-16	2.368828E-18
4.068489E+03	3.816045E-16	2.394969E-18
4.069931E+03	3.832532E-16	2.405317E-18
4.071374E+03	3.839626E-16	2.409769E-18
4.072816E+03	3.867086E-16	2.427003E-18
4.074259E+03	3.887927E-16	2.440083E-18
4.075702E+03	3.899492E-16	2.447341E-18
4.077144E+03	3.919861E-16	2.460125E-18
4.078587E+03	3.929624E-16	2.466252E-18
4.080029E+03	3.948797E-16	2.478285E-18
4.081472E+03	3.970871E-16	2.492139E-18
4.082915E+03	3.980284E-16	2.498047E-18
4.084357E+03	3.995130E-16	2.507364E-18
4.085800E+03	4.013840E-16	2.519107E-18
4.087242E+03	4.030988E-16	2.529869E-18
4.088685E+03	4.052847E-16	2.543588E-18
4.090128E+03	4.086424E-16	2.564661E-18
4.091570E+03	4.086565E-16	2.564749E-18
4.093013E+03	4.093588E-16	2.569157E-18
4.094455E+03	4.114866E-16	2.582511E-18
4.095898E+03	4.122016E-16	2.586998E-18
4.097341E+03	4.125543E-16	2.589212E-18
4.098783E+03	4.135234E-16	2.595294E-18
4.100226E+03	4.130424E-16	2.592276E-18
4.101668E+03	4.129361E-16	2.591608E-18
4.103111E+03	4.123218E-16	2.587753E-18
4.104553E+03	4.113205E-16	2.581468E-18
4.105996E+03	4.106332E-16	2.577155E-18
4.107439E+03	4.100303E-16	2.573371E-18
4.108881E+03	4.092579E-16	2.568523E-18
4.110324E+03	4.092352E-16	2.568381E-18
4.111766E+03	4.067441E-16	2.552747E-18
4.113209E+03	4.035503E-16	2.532703E-18
4.114652E+03	4.011423E-16	2.517589E-18
4.116094E+03	3.983097E-16	2.499812E-18
4.117537E+03	3.944714E-16	2.475722E-18
4.118979E+03	3.942646E-16	2.474425E-18
4.120422E+03	3.934158E-16	2.469097E-18
4.121865E+03	3.908588E-16	2.453050E-18
4.123307E+03	3.873197E-16	2.430838E-18
4.124750E+03	3.855363E-16	2.419646E-18
4.126192E+03	3.843947E-16	2.412481E-18
4.127635E+03	3.817619E-16	2.395957E-18
4.129078E+03	3.791162E-16	2.379352E-18
4.130520E+03	3.759361E-16	2.359394E-18
4.131963E+03	3.714212E-16	2.331058E-18
4.133405E+03	3.675113E-16	2.306520E-18
4.134848E+03	3.634304E-16	2.280908E-18
4.136290E+03	3.596272E-16	2.257038E-18
4.137733E+03	3.564658E-16	2.237198E-18
4.139176E+03	3.552330E-16	2.229460E-18
4.140618E+03	3.522398E-16	2.210675E-18
4.142061E+03	3.475585E-16	2.181295E-18
4.143503E+03	3.437742E-16	2.157544E-18
4.144946E+03	3.415306E-16	2.143464E-18
4.146389E+03	3.364812E-16	2.111774E-18
4.147831E+03	3.336407E-16	2.093946E-18
4.149274E+03	3.305928E-16	2.074817E-18
4.150716E+03	3.266207E-16	2.049888E-18
4.152159E+03	3.225622E-16	2.024417E-18
4.153602E+03	3.196083E-16	2.005878E-18
4.155044E+03	3.179420E-16	1.995420E-18
4.156487E+03	3.163967E-16	1.985722E-18
4.157929E+03	3.153372E-16	1.979072E-18
4.159372E+03	3.128181E-16	1.963263E-18
4.160815E+03	3.101280E-16	1.946379E-18
4.162257E+03	3.082034E-16	1.934300E-18
4.163700E+03	3.061565E-16	1.921454E-18
4.165142E+03	3.050336E-16	1.914407E-18
4.166585E+03	3.029247E-16	1.901171E-18
4.168027E+03	3.003891E-16	1.885257E-18
4.169470E+03	2.975484E-16	1.867429E-18
4.170913E+03	2.947312E-16	1.849748E-18
4.172355E+03	2.914869E-16	1.829387E-18
4.173798E+03	2.897030E-16	1.818191E-18
4.175240E+03	2.879185E-16	1.806991E-18
4.176683E+03	2.853173E-16	1.790666E-18
4.178126E+03	2.836169E-16	1.779994E-18
4.179568E+03	2.809532E-16	1.763277E-18
4.181011E+03	2.790444E-16	1.751297E-18
4.182453E+03	2.771106E-16	1.739160E-18
4.183896E+03	2.744935E-16	1.722735E-18
4.185339E+03	2.716439E-16	1.704851E-18
4.186781E+03	2.685008E-16	1.685125E-18
4.188224E+03	2.654542E-16	1.666004E-18
4.189666E+03	2.623458E-16	1.646496E-18
4.191109E+03	2.598342E-16	1.630733E-18
4.192552E+03	2.569924E-16	1.612897E-18
4.193994E+03	2.550161E-16	1.600494E-18
4.195437E+03	2.540767E-16	1.594598E-18
4.196879E+03	2.516964E-16	1.579660E-18
4.198322E+03	2.495231E-16	1.566020E-18
4.199764E+03	2.483992E-16	1.558966E-18
4.201207E+03	2.470184E-16	1.550300E-18
4.202650E+03	2.455271E-16	1.540941E-18
4.204092E+03	2.434981E-16	1.528206E-18
4.205535E+03	2.415783E-16	1.516158E-18
4.206977E+03	2.406598E-16	1.510393E-18
4.208420E+03	2.387268E-16	1.498262E-18
4.209863E+03	2.371843E-16	1.488581E-18
4.211305E+03	2.356779E-16	1.479127E-18
4.212748E+03	2.333887E-16	1.464759E-18
4.214190E+03	2.327371E-16	1.460670E-18
4.215633E+03	2.321465E-16	1.456963E-18
4.217076E+03	2.303694E-16	1.445810E-18
4.218518E+03	2.302675E-16	1.445171E-18
4.219961E+03	2.303368E-16	1.445606E-18
4.221403E+03	2.290112E-16	1.437286E-18
4.222846E+03	2.290681E-16	1.437643E-18
4.224289E+03	2.292106E-16	1.438537E-18
4.225731E+03	2.296835E-16	1.441506E-18
4.227174E+03	2.317360E-16	1.454387E-18
4.228616E+03	2.337400E-16	1.466964E-18
4.230059E+03	2.348995E-16	1.474241E-18
4.231501E+03	2.361327E-16	1.481981E-18
4.232944E+03	2.372928E-16	1.489262E-18
4.234387E+03	2.395067E-16	1.503157E-18
4.235829E+03	2.411086E-16	1.513210E-18
4.237272E+03	2.416447E-16	1.516574E-18
4.238714E+03	2.426834E-16	1.523093E-18
4.240157E+03	2.455243E-16	1.540923E-18
4.241600E+03	2.472503E-16	1.551755E-18
4.243042E+03	2.488051E-16	1.561513E-18
4.244485E+03	2.511328E-16	1.576122E-18
4.245927E+03	2.533262E-16	1.589888E-18
4.247370E+03	2.551031E-16	1.601040E-18
4.248813E+03	2.571870E-16	1.614119E-18
4.250255E+03	2.594556E-16	1.628357E-18
4.251698E+03	2.621052E-16	1.644986E-18
4.253140E+03	2.651728E-16	1.664238E-18
4.254583E+03	2.683025E-16	1.683880E-18
4.256026E+03	2.708928E-16	1.700137E-18
4.257468E+03	2.724278E-16	1.709771E-18
4.258911E+03	2.737421E-16	1.718019E-18
4.260353E+03	2.766410E-16	1.736213E-18
4.261796E+03	2.803760E-16	1.759654E-18
4.263238E+03	2.834977E-16	1.779246E-18
4.264681E+03	2.869765E-16	1.801079E-18
4.266124E+03	2.914023E-16	1.828856E-18
4.267566E+03	2.938505E-16	1.844221E-18
4.269009E+03	2.958815E-16	1.856967E-18
4.270451E+03	2.986505E-16	1.874345E-18
4.271894E+03	3.021332E-16	1.896204E-18
4.273337E+03	3.048422E-16	1.913205E-18
4.274779E+03	3.064941E-16	1.923573E-18
4.276222E+03	3.088229E-16	1.938188E-18
4.277664E+03	3.104633E-16	1.948483E-18
4.279107E+03	3.127807E-16	1.963028E-18
4.280550E+03	3.169568E-16	1.989237E-18
4.281992E+03	3.201618E-16	2.009352E-18
4.283435E+03	3.222596E-16	2.022518E-18
4.284877E+03	3.246288E-16	2.037387E-18
4.286320E+03	3.281066E-16	2.059214E-18
4.287763E+03	3.290363E-16	2.065049E-18
4.289205E+03	3.304219E-16	2.073745E-18
4.290648E+03	3.333227E-16	2.091950E-18
4.292090E+03	3.354727E-16	2.105444E-18
4.293533E+03	3.371550E-16	2.116002E-18
4.294975E+03	3.395401E-16	2.130971E-18
4.296418E+03	3.419133E-16	2.145865E-18
4.297861E+03	3.436955E-16	2.157050E-18
4.299303E+03	3.466860E-16	2.175819E-18
4.300746E+03	3.495292E-16	2.193663E-18
4.302188E+03	3.516580E-16	2.207024E-18
4.303631E+03	3.525665E-16	2.212725E-18
4.305074E+03	3.537587E-16	2.220208E-18
4.306516E+03	3.554322E-16	2.230711E-18
4.307959E+03	3.568840E-16	2.239822E-18
4.309401E+03	3.586074E-16	2.250638E-18
4.310844E+03	3.598007E-16	2.258127E-18
4.312287E+03	3.605745E-16	2.262984E-18
4.313729E+03	3.603982E-16	2.261877E-18
4.315172E+03	3.603204E-16	2.261389E-18
4.316614E+03	3.614893E-16	2.268725E-18
4.318057E+03	3.625597E-16	2.275443E-18
4.319500E+03	3.634697E-16	2.281154E-18
4.320942E+03	3.662200E-16	2.298415E-18
4.322385E+03	3.687608E-16	2.314362E-18
4.323827E+03	3.695110E-16	2.319070E-18
4.325270E+03	3.708543E-16	2.327500E-18
4.326712E+03	3.708881E-16	2.327712E-18
4.328155E+03	3.701556E-16	2.323116E-18
4.329598E+03	3.694723E-16	2.318827E-18
4.331040E+03	3.688875E-16	2.315157E-18
4.332483E+03	3.681666E-16	2.310632E-18
4.333925E+03	3.670621E-16	2.303700E-18
4.335368E+03	3.660561E-16	2.297386E-18
4.336811E+03	3.664471E-16	2.299841E-18
4.338253E+03	3.663805E-16	2.299423E-18
4.339696E+03	3.660541E-16	2.297374E-18
4.341138E+03	3.656408E-16	2.294780E-18
4.342581E+03	3.650047E-16	2.290788E-18
4.344024E+03	3.642816E-16	2.286250E-18
4.345466E+03	3.647958E-16	2.289477E-18
4.346909E+03	3.657803E-16	2.295656E-18
4.348351E+03	3.648216E-16	2.289639E-18
4.349794E+03	3.632558E-16	2.279812E-18
4.351237E+03	3.620982E-16	2.272547E-18
4.352679E+03	3.606429E-16	2.263413E-18
4.354122E+03	3.600789E-16	2.259874E-18
4.355564E+03	3.588087E-16	2.251902E-18
4.357007E+03	3.578229E-16	2.245715E-18
4.358449E+03	3.565023E-16	2.237426E-18
4.359892E+03	3.553175E-16	2.229991E-18
4.361335E+03	3.549254E-16	2.227530E-18
4.362777E+03	3.533434E-16	2.217601E-18
4.364220E+03	3.515998E-16	2.206658E-18
4.365662E+03	3.507233E-16	2.201157E-18
4.367105E+03	3.496110E-16	2.194176E-18
4.368548E+03	3.478659E-16	2.183224E-18
4.369990E+03	3.482036E-16	2.185343E-18
4.371433E+03	3.469911E-16	2.177734E-18
4.372875E+03	3.462246E-16	2.172923E-18
4.374318E+03	3.464502E-16	2.174339E-18
4.375761E+03	3.457950E-16	2.170227E-18
4.377203E+03	3.432411E-16	2.154199E-18
4.378646E+03	3.413442E-16	2.142294E-18
4.380088E+03	3.401914E-16	2.135059E-18
4.381531E+03	3.392120E-16	2.128912E-18
4.382974E+03	3.374502E-16	2.117855E-18
4.384416E+03	3.366687E-16	2.112950E-18
4.385859E+03	3.361104E-16	2.109446E-18
4.387301E+03	3.349682E-16	2.102277E-18
4.388744E+03	3.339871E-16	2.096120E-18
4.390186E+03	3.322852E-16	2.085439E-18
4.391629E+03	3.301731E-16	2.072183E-18
4.393072E+03	3.287435E-16	2.063211E-18
4.394514E+03	3.264936E-16	2.049091E-18
4.395957E+03	3.245040E-16	2.036604E-18
4.397399E+03	3.225885E-16	2.024582E-18
4.398842E+03	3.206475E-16	2.012400E-18
4.400285E+03	3.190540E-16	2.002399E-18
4.401727E+03	3.168262E-16	1.988417E-18
4.403170E+03	3.141874E-16	1.971856E-18
4.404612E+03	3.125054E-16	1.961300E-18
4.406055E+03	3.102882E-16	1.947384E-18
4.407498E+03	3.085928E-16	1.936744E-18
4.408940E+03	3.067725E-16	1.925320E-18
4.410383E+03	3.031357E-16	1.902495E-18
4.411825E+03	3.010405E-16	1.889346E-18
