#wls	flux	fluxerr
1.584158E+03	8.779055E-06	0.000000E+00
1.623762E+03	9.253156E-06	0.000000E+00
1.663366E+03	9.637985E-06	0.000000E+00
1.702970E+03	9.912345E-06	0.000000E+00
1.742574E+03	1.006228E-05	0.000000E+00
1.782178E+03	1.004789E-05	0.000000E+00
1.821782E+03	9.833136E-06	0.000000E+00
1.861386E+03	9.382753E-06	0.000000E+00
1.900990E+03	8.683736E-06	0.000000E+00
1.940594E+03	7.764745E-06	0.000000E+00
1.980198E+03	6.716833E-06	0.000000E+00
2.019802E+03	5.689314E-06	0.000000E+00
2.059406E+03	4.858970E-06	0.000000E+00
2.099010E+03	4.367821E-06	0.000000E+00
2.138614E+03	4.303000E-06	0.000000E+00
2.178218E+03	4.708012E-06	0.000000E+00
2.217822E+03	5.612713E-06	0.000000E+00
2.257426E+03	7.023790E-06	0.000000E+00
2.297030E+03	8.916756E-06	0.000000E+00
2.336634E+03	1.123238E-05	0.000000E+00
2.376238E+03	1.389574E-05	0.000000E+00
2.415842E+03	1.683302E-05	0.000000E+00
2.455446E+03	1.998205E-05	0.000000E+00
2.495050E+03	2.330406E-05	0.000000E+00
2.534653E+03	2.677868E-05	0.000000E+00
2.574257E+03	3.039575E-05	0.000000E+00
2.613861E+03	3.415371E-05	0.000000E+00
2.653465E+03	3.806119E-05	0.000000E+00
2.693069E+03	4.211974E-05	0.000000E+00
2.732673E+03	4.634776E-05	0.000000E+00
2.772277E+03	5.074655E-05	0.000000E+00
2.811881E+03	5.532748E-05	0.000000E+00
2.851485E+03	6.010074E-05	0.000000E+00
2.891089E+03	6.505893E-05	0.000000E+00
2.930693E+03	7.021397E-05	0.000000E+00
2.970297E+03	7.555940E-05	0.000000E+00
2.980198E+03	7.692601E-05	0.000000E+00
2.990099E+03	7.829802E-05	0.000000E+00
3.000000E+03	7.968417E-05	0.000000E+00
3.009901E+03	8.108916E-05	0.000000E+00
3.019802E+03	8.252100E-05	0.000000E+00
3.029703E+03	8.401711E-05	0.000000E+00
3.039604E+03	8.554444E-05	0.000000E+00
3.049505E+03	8.712736E-05	0.000000E+00
3.059406E+03	8.874244E-05	0.000000E+00
3.069307E+03	9.039550E-05	0.000000E+00
3.079208E+03	9.208292E-05	0.000000E+00
3.089109E+03	9.380125E-05	0.000000E+00
3.099010E+03	9.553680E-05	0.000000E+00
3.108911E+03	9.729657E-05	0.000000E+00
3.118812E+03	9.906697E-05	0.000000E+00
3.128713E+03	1.008663E-04	0.000000E+00
3.138614E+03	1.026706E-04	0.000000E+00
3.148515E+03	1.044878E-04	0.000000E+00
3.158416E+03	1.063157E-04	0.000000E+00
3.168317E+03	1.081519E-04	0.000000E+00
3.178218E+03	1.099831E-04	0.000000E+00
3.188119E+03	1.118299E-04	0.000000E+00
3.198020E+03	1.136676E-04	0.000000E+00
3.207921E+03	1.155060E-04	0.000000E+00
3.217822E+03	1.173435E-04	0.000000E+00
3.227723E+03	1.191788E-04	0.000000E+00
3.237624E+03	1.209985E-04	0.000000E+00
3.247525E+03	1.228255E-04	0.000000E+00
3.257426E+03	1.246346E-04	0.000000E+00
3.267327E+03	1.264371E-04	0.000000E+00
3.277228E+03	1.282322E-04	0.000000E+00
3.287129E+03	1.300317E-04	0.000000E+00
3.297030E+03	1.318104E-04	0.000000E+00
3.306931E+03	1.335801E-04	0.000000E+00
3.316832E+03	1.353279E-04	0.000000E+00
3.326733E+03	1.370791E-04	0.000000E+00
3.336634E+03	1.388210E-04	0.000000E+00
3.346535E+03	1.405536E-04	0.000000E+00
3.356436E+03	1.422770E-04	0.000000E+00
3.366337E+03	1.439784E-04	0.000000E+00
3.376238E+03	1.456842E-04	0.000000E+00
3.386139E+03	1.473819E-04	0.000000E+00
3.396040E+03	1.490586E-04	0.000000E+00
3.405941E+03	1.507414E-04	0.000000E+00
3.415842E+03	1.524178E-04	0.000000E+00
3.425743E+03	1.540885E-04	0.000000E+00
3.435644E+03	1.557542E-04	0.000000E+00
3.445545E+03	1.574023E-04	0.000000E+00
3.455446E+03	1.590606E-04	0.000000E+00
3.465347E+03	1.607167E-04	0.000000E+00
3.475248E+03	1.623715E-04	0.000000E+00
3.485149E+03	1.640261E-04	0.000000E+00
3.495050E+03	1.656954E-04	0.000000E+00
3.504950E+03	1.673530E-04	0.000000E+00
3.514851E+03	1.690140E-04	0.000000E+00
3.524752E+03	1.706931E-04	0.000000E+00
3.534653E+03	1.723642E-04	0.000000E+00
3.544554E+03	1.740562E-04	0.000000E+00
3.554455E+03	1.757427E-04	0.000000E+00
3.564356E+03	1.774526E-04	0.000000E+00
3.574257E+03	1.791737E-04	0.000000E+00
3.584158E+03	1.809072E-04	0.000000E+00
3.594059E+03	1.826545E-04	0.000000E+00
3.603960E+03	1.844311E-04	0.000000E+00
3.613861E+03	1.862104E-04	0.000000E+00
3.623762E+03	1.880218E-04	0.000000E+00
3.633663E+03	1.898388E-04	0.000000E+00
3.643564E+03	1.916909E-04	0.000000E+00
3.653465E+03	1.935657E-04	0.000000E+00
3.663366E+03	1.954643E-04	0.000000E+00
3.673267E+03	1.973886E-04	0.000000E+00
3.683168E+03	1.993539E-04	0.000000E+00
3.693069E+03	2.013337E-04	0.000000E+00
3.702970E+03	2.033432E-04	0.000000E+00
3.712871E+03	2.053987E-04	0.000000E+00
3.722772E+03	2.074868E-04	0.000000E+00
3.732673E+03	2.096096E-04	0.000000E+00
3.742574E+03	2.117683E-04	0.000000E+00
3.752475E+03	2.139643E-04	0.000000E+00
3.762376E+03	2.161990E-04	0.000000E+00
3.772277E+03	2.184741E-04	0.000000E+00
3.782178E+03	2.208054E-04	0.000000E+00
3.792079E+03	2.231651E-04	0.000000E+00
3.801980E+03	2.255841E-04	0.000000E+00
3.811881E+03	2.280343E-04	0.000000E+00
3.821782E+03	2.305466E-04	0.000000E+00
3.831683E+03	2.330928E-04	0.000000E+00
3.841584E+03	2.357036E-04	0.000000E+00
3.851485E+03	2.383661E-04	0.000000E+00
3.861386E+03	2.410661E-04	0.000000E+00
3.871287E+03	2.438351E-04	0.000000E+00
3.881188E+03	2.466595E-04	0.000000E+00
3.891089E+03	2.495251E-04	0.000000E+00
3.900990E+03	2.524637E-04	0.000000E+00
3.910891E+03	2.554461E-04	0.000000E+00
3.920792E+03	2.585038E-04	0.000000E+00
3.930693E+03	2.616076E-04	0.000000E+00
3.940594E+03	2.647737E-04	0.000000E+00
3.950495E+03	2.680035E-04	0.000000E+00
3.960396E+03	2.712979E-04	0.000000E+00
3.970297E+03	2.746581E-04	0.000000E+00
3.980198E+03	2.780697E-04	0.000000E+00
3.990099E+03	2.815489E-04	0.000000E+00
4.000000E+03	2.850970E-04	0.000000E+00
4.009901E+03	2.887149E-04	0.000000E+00
4.019802E+03	2.923880E-04	0.000000E+00
4.029703E+03	2.961327E-04	0.000000E+00
4.039604E+03	2.999501E-04	0.000000E+00
4.049505E+03	3.038252E-04	0.000000E+00
4.059406E+03	3.077747E-04	0.000000E+00
4.069307E+03	3.117997E-04	0.000000E+00
4.079208E+03	3.158845E-04	0.000000E+00
4.089109E+03	3.200304E-04	0.000000E+00
4.099010E+03	3.242539E-04	0.000000E+00
4.108911E+03	3.285563E-04	0.000000E+00
4.118812E+03	3.329052E-04	0.000000E+00
4.128713E+03	3.373510E-04	0.000000E+00
4.138614E+03	3.418448E-04	0.000000E+00
4.148515E+03	3.464203E-04	0.000000E+00
4.158416E+03	3.510615E-04	0.000000E+00
4.168317E+03	3.557861E-04	0.000000E+00
4.178218E+03	3.605610E-04	0.000000E+00
4.188119E+03	3.654211E-04	0.000000E+00
4.198020E+03	3.703495E-04	0.000000E+00
4.207921E+03	3.753470E-04	0.000000E+00
4.217822E+03	3.804143E-04	0.000000E+00
4.227723E+03	3.855524E-04	0.000000E+00
4.237624E+03	3.907613E-04	0.000000E+00
4.247525E+03	3.960421E-04	0.000000E+00
4.257426E+03	4.013958E-04	0.000000E+00
4.267327E+03	4.068041E-04	0.000000E+00
4.277228E+03	4.123048E-04	0.000000E+00
4.287129E+03	4.178617E-04	0.000000E+00
4.297030E+03	4.235124E-04	0.000000E+00
4.306931E+03	4.292022E-04	0.000000E+00
4.316832E+03	4.349875E-04	0.000000E+00
4.326733E+03	4.408318E-04	0.000000E+00
4.336634E+03	4.467544E-04	0.000000E+00
4.346535E+03	4.527372E-04	0.000000E+00
4.356436E+03	4.588004E-04	0.000000E+00
4.366337E+03	4.649446E-04	0.000000E+00
4.376238E+03	4.711518E-04	0.000000E+00
4.386139E+03	4.774222E-04	0.000000E+00
4.396040E+03	4.837765E-04	0.000000E+00
4.405941E+03	4.901965E-04	0.000000E+00
4.415842E+03	4.966827E-04	0.000000E+00
4.425743E+03	5.032563E-04	0.000000E+00
4.435644E+03	5.098983E-04	0.000000E+00
4.445545E+03	5.166101E-04	0.000000E+00
4.455446E+03	5.233927E-04	0.000000E+00
4.465347E+03	5.302473E-04	0.000000E+00
4.475248E+03	5.371965E-04	0.000000E+00
4.485149E+03	5.442207E-04	0.000000E+00
4.495050E+03	5.513003E-04	0.000000E+00
4.504950E+03	5.584792E-04	0.000000E+00
4.514851E+03	5.657378E-04	0.000000E+00
4.524752E+03	5.730563E-04	0.000000E+00
4.534653E+03	5.804802E-04	0.000000E+00
4.544554E+03	5.879674E-04	0.000000E+00
4.554455E+03	5.955639E-04	0.000000E+00
4.564356E+03	6.032274E-04	0.000000E+00
4.574257E+03	6.109824E-04	0.000000E+00
4.584158E+03	6.188312E-04	0.000000E+00
4.594059E+03	6.267763E-04	0.000000E+00
4.603960E+03	6.347961E-04	0.000000E+00
4.613861E+03	6.429168E-04	0.000000E+00
4.623762E+03	6.511407E-04	0.000000E+00
4.633663E+03	6.594698E-04	0.000000E+00
4.643564E+03	6.678832E-04	0.000000E+00
4.653465E+03	6.764071E-04	0.000000E+00
4.663366E+03	6.850441E-04	0.000000E+00
4.673267E+03	6.937718E-04	0.000000E+00
4.683168E+03	7.026177E-04	0.000000E+00
4.693069E+03	7.115837E-04	0.000000E+00
4.702970E+03	7.206471E-04	0.000000E+00
4.712871E+03	7.298098E-04	0.000000E+00
4.722772E+03	7.391251E-04	0.000000E+00
4.732673E+03	7.485438E-04	0.000000E+00
4.742574E+03	7.580672E-04	0.000000E+00
4.752475E+03	7.677231E-04	0.000000E+00
4.762376E+03	7.775137E-04	0.000000E+00
4.772277E+03	7.874131E-04	0.000000E+00
4.782178E+03	7.974225E-04	0.000000E+00
4.792079E+03	8.075692E-04	0.000000E+00
4.801980E+03	8.178550E-04	0.000000E+00
4.811881E+03	8.282519E-04	0.000000E+00
4.821782E+03	8.387881E-04	0.000000E+00
4.831683E+03	8.494353E-04	0.000000E+00
4.841584E+03	8.602214E-04	0.000000E+00
4.851485E+03	8.711162E-04	0.000000E+00
4.861386E+03	8.821479E-04	0.000000E+00
4.871287E+03	8.932858E-04	0.000000E+00
4.881188E+03	9.045565E-04	0.000000E+00
4.891089E+03	9.159287E-04	0.000000E+00
4.900990E+03	9.274287E-04	0.000000E+00
4.910891E+03	9.390233E-04	0.000000E+00
4.920792E+03	9.507391E-04	0.000000E+00
4.930693E+03	9.625413E-04	0.000000E+00
4.940594E+03	9.744556E-04	0.000000E+00
4.950495E+03	9.864456E-04	0.000000E+00
4.960396E+03	9.985377E-04	0.000000E+00
4.970297E+03	1.010726E-03	0.000000E+00
4.980198E+03	1.022970E-03	0.000000E+00
4.990099E+03	1.035264E-03	0.000000E+00
5.000000E+03	1.047632E-03	0.000000E+00
5.009901E+03	1.060066E-03	0.000000E+00
5.019802E+03	1.072525E-03	0.000000E+00
5.029703E+03	1.085031E-03	0.000000E+00
5.039604E+03	1.097542E-03	0.000000E+00
5.049505E+03	1.110082E-03	0.000000E+00
5.059406E+03	1.122639E-03	0.000000E+00
5.069307E+03	1.135168E-03	0.000000E+00
5.079208E+03	1.147657E-03	0.000000E+00
5.089109E+03	1.160164E-03	0.000000E+00
5.099010E+03	1.172605E-03	0.000000E+00
5.108911E+03	1.184967E-03	0.000000E+00
5.118812E+03	1.197272E-03	0.000000E+00
5.128713E+03	1.209508E-03	0.000000E+00
5.138614E+03	1.221660E-03	0.000000E+00
5.148515E+03	1.233674E-03	0.000000E+00
5.158416E+03	1.245575E-03	0.000000E+00
5.168317E+03	1.257308E-03	0.000000E+00
5.178218E+03	1.268895E-03	0.000000E+00
5.188119E+03	1.280321E-03	0.000000E+00
5.198020E+03	1.291529E-03	0.000000E+00
5.207921E+03	1.302582E-03	0.000000E+00
5.217822E+03	1.313384E-03	0.000000E+00
5.227723E+03	1.323915E-03	0.000000E+00
5.237624E+03	1.334199E-03	0.000000E+00
5.247525E+03	1.344260E-03	0.000000E+00
5.257426E+03	1.353953E-03	0.000000E+00
5.267327E+03	1.363386E-03	0.000000E+00
5.277228E+03	1.372455E-03	0.000000E+00
5.287129E+03	1.381183E-03	0.000000E+00
5.297030E+03	1.389551E-03	0.000000E+00
5.306931E+03	1.397538E-03	0.000000E+00
5.316832E+03	1.405081E-03	0.000000E+00
5.326733E+03	1.412247E-03	0.000000E+00
5.336634E+03	1.418927E-03	0.000000E+00
5.346535E+03	1.425144E-03	0.000000E+00
5.356436E+03	1.430833E-03	0.000000E+00
5.366337E+03	1.436061E-03	0.000000E+00
5.376238E+03	1.440719E-03	0.000000E+00
5.386139E+03	1.444875E-03	0.000000E+00
5.396040E+03	1.448422E-03	0.000000E+00
5.405941E+03	1.451384E-03	0.000000E+00
5.415842E+03	1.453746E-03	0.000000E+00
5.425743E+03	1.455491E-03	0.000000E+00
5.435644E+03	1.456607E-03	0.000000E+00
5.445545E+03	1.457047E-03	0.000000E+00
5.455446E+03	1.456917E-03	0.000000E+00
5.465347E+03	1.456197E-03	0.000000E+00
5.475248E+03	1.454871E-03	0.000000E+00
5.485149E+03	1.453054E-03	0.000000E+00
5.495050E+03	1.450687E-03	0.000000E+00
5.504950E+03	1.447888E-03	0.000000E+00
5.514851E+03	1.444599E-03	0.000000E+00
5.524752E+03	1.440936E-03	0.000000E+00
5.534653E+03	1.436885E-03	0.000000E+00
5.544554E+03	1.432431E-03	0.000000E+00
5.554455E+03	1.427687E-03	0.000000E+00
5.564356E+03	1.422637E-03	0.000000E+00
5.574257E+03	1.417304E-03	0.000000E+00
5.584158E+03	1.411713E-03	0.000000E+00
5.594059E+03	1.405886E-03	0.000000E+00
5.603960E+03	1.399845E-03	0.000000E+00
5.613861E+03	1.393609E-03	0.000000E+00
5.623762E+03	1.387239E-03	0.000000E+00
5.633663E+03	1.380668E-03	0.000000E+00
5.643564E+03	1.373998E-03	0.000000E+00
5.653465E+03	1.367201E-03	0.000000E+00
5.663366E+03	1.360290E-03	0.000000E+00
5.673267E+03	1.353321E-03	0.000000E+00
5.683168E+03	1.346224E-03	0.000000E+00
5.693069E+03	1.339091E-03	0.000000E+00
5.702970E+03	1.331892E-03	0.000000E+00
5.712871E+03	1.324677E-03	0.000000E+00
5.722772E+03	1.317374E-03	0.000000E+00
5.732673E+03	1.310071E-03	0.000000E+00
5.742574E+03	1.302775E-03	0.000000E+00
5.752475E+03	1.295415E-03	0.000000E+00
5.762376E+03	1.288075E-03	0.000000E+00
5.772277E+03	1.280723E-03	0.000000E+00
5.782178E+03	1.273402E-03	0.000000E+00
5.792079E+03	1.266079E-03	0.000000E+00
5.801980E+03	1.258759E-03	0.000000E+00
5.811881E+03	1.251485E-03	0.000000E+00
5.821782E+03	1.244222E-03	0.000000E+00
5.831683E+03	1.236976E-03	0.000000E+00
5.841584E+03	1.229788E-03	0.000000E+00
5.851485E+03	1.222624E-03	0.000000E+00
5.861386E+03	1.215525E-03	0.000000E+00
5.871287E+03	1.208458E-03	0.000000E+00
5.881188E+03	1.201464E-03	0.000000E+00
5.891089E+03	1.194508E-03	0.000000E+00
5.900990E+03	1.187595E-03	0.000000E+00
5.910891E+03	1.180764E-03	0.000000E+00
5.920792E+03	1.174019E-03	0.000000E+00
5.930693E+03	1.167325E-03	0.000000E+00
5.940594E+03	1.160688E-03	0.000000E+00
5.950495E+03	1.154146E-03	0.000000E+00
5.960396E+03	1.147700E-03	0.000000E+00
5.970297E+03	1.141319E-03	0.000000E+00
5.980198E+03	1.135040E-03	0.000000E+00
5.990099E+03	1.128832E-03	0.000000E+00
6.000000E+03	1.122730E-03	0.000000E+00
6.009901E+03	1.116703E-03	0.000000E+00
6.019802E+03	1.110787E-03	0.000000E+00
6.029703E+03	1.104984E-03	0.000000E+00
6.039604E+03	1.099261E-03	0.000000E+00
6.049505E+03	1.093652E-03	0.000000E+00
6.059406E+03	1.088126E-03	0.000000E+00
6.069307E+03	1.082750E-03	0.000000E+00
6.079208E+03	1.077424E-03	0.000000E+00
6.089109E+03	1.072248E-03	0.000000E+00
6.099010E+03	1.067155E-03	0.000000E+00
6.108911E+03	1.062144E-03	0.000000E+00
6.118812E+03	1.057282E-03	0.000000E+00
6.128713E+03	1.052499E-03	0.000000E+00
6.138614E+03	1.047796E-03	0.000000E+00
6.148515E+03	1.043235E-03	0.000000E+00
6.158416E+03	1.038748E-03	0.000000E+00
6.168317E+03	1.034366E-03	0.000000E+00
6.178218E+03	1.030086E-03	0.000000E+00
6.188119E+03	1.025871E-03	0.000000E+00
6.198020E+03	1.021752E-03	0.000000E+00
6.207921E+03	1.017724E-03	0.000000E+00
6.217822E+03	1.013750E-03	0.000000E+00
6.227723E+03	1.009891E-03	0.000000E+00
6.237624E+03	1.006078E-03	0.000000E+00
6.247525E+03	1.002340E-03	0.000000E+00
6.257426E+03	9.986691E-04	0.000000E+00
6.267327E+03	9.950315E-04	0.000000E+00
6.277228E+03	9.914832E-04	0.000000E+00
6.287129E+03	9.879572E-04	0.000000E+00
6.297030E+03	9.844796E-04	0.000000E+00
6.306931E+03	9.810449E-04	0.000000E+00
6.316832E+03	9.776479E-04	0.000000E+00
6.326733E+03	9.742528E-04	0.000000E+00
6.336634E+03	9.709150E-04	0.000000E+00
6.346535E+03	9.675688E-04	0.000000E+00
6.356436E+03	9.642711E-04	0.000000E+00
6.366337E+03	9.609542E-04	0.000000E+00
6.376238E+03	9.576445E-04	0.000000E+00
6.386139E+03	9.543377E-04	0.000000E+00
6.396040E+03	9.510287E-04	0.000000E+00
6.405941E+03	9.477143E-04	0.000000E+00
6.415842E+03	9.443893E-04	0.000000E+00
6.425743E+03	9.410504E-04	0.000000E+00
6.435644E+03	9.376934E-04	0.000000E+00
6.445545E+03	9.342858E-04	0.000000E+00
6.455446E+03	9.308835E-04	0.000000E+00
6.465347E+03	9.274544E-04	0.000000E+00
6.475248E+03	9.239950E-04	0.000000E+00
6.485149E+03	9.205034E-04	0.000000E+00
6.495050E+03	9.169771E-04	0.000000E+00
6.504950E+03	9.134149E-04	0.000000E+00
6.514851E+03	9.098142E-04	0.000000E+00
6.524752E+03	9.061743E-04	0.000000E+00
6.534653E+03	9.024933E-04	0.000000E+00
6.544554E+03	8.987703E-04	0.000000E+00
6.554455E+03	8.950347E-04	0.000000E+00
6.564356E+03	8.912263E-04	0.000000E+00
6.574257E+03	8.873749E-04	0.000000E+00
6.584158E+03	8.835086E-04	0.000000E+00
6.594059E+03	8.795990E-04	0.000000E+00
6.603960E+03	8.756453E-04	0.000000E+00
6.613861E+03	8.716485E-04	0.000000E+00
6.623762E+03	8.676090E-04	0.000000E+00
6.633663E+03	8.635272E-04	0.000000E+00
6.643564E+03	8.594324E-04	0.000000E+00
6.653465E+03	8.552680E-04	0.000000E+00
6.663366E+03	8.510922E-04	0.000000E+00
6.673267E+03	8.468772E-04	0.000000E+00
6.683168E+03	8.426240E-04	0.000000E+00
6.693069E+03	8.383616E-04	0.000000E+00
6.702970E+03	8.340359E-04	0.000000E+00
6.712871E+03	8.297028E-04	0.000000E+00
6.722772E+03	8.253365E-04	0.000000E+00
6.732673E+03	8.209376E-04	0.000000E+00
6.742574E+03	8.165073E-04	0.000000E+00
6.752475E+03	8.120748E-04	0.000000E+00
6.762376E+03	8.076139E-04	0.000000E+00
6.772277E+03	8.031249E-04	0.000000E+00
6.782178E+03	7.986104E-04	0.000000E+00
6.792079E+03	7.940709E-04	0.000000E+00
6.801980E+03	7.895350E-04	0.000000E+00
6.811881E+03	7.849771E-04	0.000000E+00
6.821782E+03	7.803978E-04	0.000000E+00
6.831683E+03	7.757991E-04	0.000000E+00
6.841584E+03	7.711828E-04	0.000000E+00
6.851485E+03	7.665759E-04	0.000000E+00
6.861386E+03	7.619539E-04	0.000000E+00
6.871287E+03	7.573176E-04	0.000000E+00
6.881188E+03	7.526687E-04	0.000000E+00
6.891089E+03	7.480347E-04	0.000000E+00
6.900990E+03	7.433909E-04	0.000000E+00
6.910891E+03	7.387138E-04	0.000000E+00
6.920792E+03	7.340557E-04	0.000000E+00
6.930693E+03	7.294180E-04	0.000000E+00
6.940594E+03	7.247516E-04	0.000000E+00
6.950495E+03	7.201091E-04	0.000000E+00
6.960396E+03	7.154664E-04	0.000000E+00
6.970297E+03	7.108016E-04	0.000000E+00
6.980198E+03	7.061897E-04	0.000000E+00
6.990099E+03	7.015592E-04	0.000000E+00
7.000000E+03	6.969367E-04	0.000000E+00
7.009901E+03	6.923486E-04	0.000000E+00
7.019802E+03	6.877487E-04	0.000000E+00
7.029703E+03	6.831869E-04	0.000000E+00
7.039604E+03	6.786412E-04	0.000000E+00
7.049505E+03	6.741147E-04	0.000000E+00
7.059406E+03	6.696093E-04	0.000000E+00
7.069307E+03	6.651275E-04	0.000000E+00
7.079208E+03	6.606720E-04	0.000000E+00
7.089109E+03	6.562451E-04	0.000000E+00
7.099010E+03	6.518721E-04	0.000000E+00
7.108911E+03	6.475101E-04	0.000000E+00
7.118812E+03	6.431845E-04	0.000000E+00
7.128713E+03	6.389203E-04	0.000000E+00
7.138614E+03	6.346754E-04	0.000000E+00
7.148515E+03	6.304968E-04	0.000000E+00
7.158416E+03	6.263432E-04	0.000000E+00
7.168317E+03	6.222391E-04	0.000000E+00
7.178218E+03	6.182090E-04	0.000000E+00
7.188119E+03	6.142118E-04	0.000000E+00
7.198020E+03	6.102721E-04	0.000000E+00
7.207921E+03	6.063922E-04	0.000000E+00
7.217822E+03	6.025746E-04	0.000000E+00
7.227723E+03	5.988217E-04	0.000000E+00
7.237624E+03	5.951357E-04	0.000000E+00
7.247525E+03	5.915189E-04	0.000000E+00
7.257426E+03	5.879527E-04	0.000000E+00
7.267327E+03	5.844806E-04	0.000000E+00
7.277228E+03	5.810632E-04	0.000000E+00
7.287129E+03	5.777231E-04	0.000000E+00
7.297030E+03	5.744620E-04	0.000000E+00
7.306931E+03	5.712610E-04	0.000000E+00
7.316832E+03	5.681624E-04	0.000000E+00
7.326733E+03	5.651270E-04	0.000000E+00
7.336634E+03	5.621761E-04	0.000000E+00
7.346535E+03	5.593108E-04	0.000000E+00
7.356436E+03	5.565321E-04	0.000000E+00
7.366337E+03	5.538206E-04	0.000000E+00
7.376238E+03	5.511972E-04	0.000000E+00
7.386139E+03	5.486621E-04	0.000000E+00
7.396040E+03	5.461961E-04	0.000000E+00
7.405941E+03	5.438191E-04	0.000000E+00
7.415842E+03	5.415309E-04	0.000000E+00
7.425743E+03	5.393122E-04	0.000000E+00
7.435644E+03	5.371821E-04	0.000000E+00
7.445545E+03	5.351403E-04	0.000000E+00
7.455446E+03	5.331862E-04	0.000000E+00
7.465347E+03	5.313000E-04	0.000000E+00
7.475248E+03	5.294811E-04	0.000000E+00
7.485149E+03	5.277669E-04	0.000000E+00
7.495050E+03	5.261183E-04	0.000000E+00
7.504950E+03	5.245343E-04	0.000000E+00
7.514851E+03	5.230330E-04	0.000000E+00
7.524752E+03	5.216130E-04	0.000000E+00
7.534653E+03	5.202543E-04	0.000000E+00
7.544554E+03	5.189745E-04	0.000000E+00
7.554455E+03	5.177535E-04	0.000000E+00
7.564356E+03	5.166087E-04	0.000000E+00
7.574257E+03	5.155200E-04	0.000000E+00
7.584158E+03	5.145048E-04	0.000000E+00
7.594059E+03	5.135618E-04	0.000000E+00
7.603960E+03	5.126708E-04	0.000000E+00
7.613861E+03	5.118304E-04	0.000000E+00
7.623762E+03	5.110581E-04	0.000000E+00
7.633663E+03	5.103340E-04	0.000000E+00
7.643564E+03	5.096755E-04	0.000000E+00
7.653465E+03	5.090816E-04	0.000000E+00
7.663366E+03	5.085322E-04	0.000000E+00
7.673267E+03	5.080264E-04	0.000000E+00
7.683168E+03	5.075820E-04	0.000000E+00
