#wls	flux	fluxerr
1.584158E+03	2.025574E-06	0.000000E+00
1.623762E+03	2.116766E-06	0.000000E+00
1.663366E+03	2.184098E-06	0.000000E+00
1.702970E+03	2.224750E-06	0.000000E+00
1.742574E+03	2.234747E-06	0.000000E+00
1.782178E+03	2.206915E-06	0.000000E+00
1.821782E+03	2.133928E-06	0.000000E+00
1.861386E+03	2.010307E-06	0.000000E+00
1.900990E+03	1.835789E-06	0.000000E+00
1.940594E+03	1.618117E-06	0.000000E+00
1.980198E+03	1.378715E-06	0.000000E+00
2.019802E+03	1.149552E-06	0.000000E+00
2.059406E+03	9.651799E-07	0.000000E+00
2.099010E+03	8.524265E-07	0.000000E+00
2.138614E+03	8.241599E-07	0.000000E+00
2.178218E+03	8.842819E-07	0.000000E+00
2.217822E+03	1.032717E-06	0.000000E+00
2.257426E+03	1.264886E-06	0.000000E+00
2.297030E+03	1.570075E-06	0.000000E+00
2.336634E+03	1.931968E-06	0.000000E+00
2.376238E+03	2.332586E-06	0.000000E+00
2.415842E+03	2.754459E-06	0.000000E+00
2.455446E+03	3.185996E-06	0.000000E+00
2.495050E+03	3.616818E-06	0.000000E+00
2.534653E+03	4.042622E-06	0.000000E+00
2.574257E+03	4.459183E-06	0.000000E+00
2.613861E+03	4.867620E-06	0.000000E+00
2.653465E+03	5.265550E-06	0.000000E+00
2.693069E+03	5.655247E-06	0.000000E+00
2.732673E+03	6.036756E-06	0.000000E+00
2.772277E+03	6.411110E-06	0.000000E+00
2.811881E+03	6.780543E-06	0.000000E+00
2.851485E+03	7.143884E-06	0.000000E+00
2.891089E+03	7.504524E-06	0.000000E+00
2.930693E+03	7.863623E-06	0.000000E+00
2.970297E+03	8.219529E-06	0.000000E+00
2.980198E+03	8.309359E-06	0.000000E+00
2.990099E+03	8.397750E-06	0.000000E+00
3.000000E+03	8.486097E-06	0.000000E+00
3.009901E+03	8.576363E-06	0.000000E+00
3.019802E+03	8.667529E-06	0.000000E+00
3.029703E+03	8.764425E-06	0.000000E+00
3.039604E+03	8.863607E-06	0.000000E+00
3.049505E+03	8.967554E-06	0.000000E+00
3.059406E+03	9.072839E-06	0.000000E+00
3.069307E+03	9.182072E-06	0.000000E+00
3.079208E+03	9.293378E-06	0.000000E+00
3.089109E+03	9.404843E-06	0.000000E+00
3.099010E+03	9.519269E-06	0.000000E+00
3.108911E+03	9.633206E-06	0.000000E+00
3.118812E+03	9.749582E-06	0.000000E+00
3.128713E+03	9.866562E-06	0.000000E+00
3.138614E+03	9.982263E-06	0.000000E+00
3.148515E+03	1.009979E-05	0.000000E+00
3.158416E+03	1.021562E-05	0.000000E+00
3.168317E+03	1.033297E-05	0.000000E+00
3.178218E+03	1.045002E-05	0.000000E+00
3.188119E+03	1.056664E-05	0.000000E+00
3.198020E+03	1.068095E-05	0.000000E+00
3.207921E+03	1.079638E-05	0.000000E+00
3.217822E+03	1.091110E-05	0.000000E+00
3.227723E+03	1.102322E-05	0.000000E+00
3.237624E+03	1.113634E-05	0.000000E+00
3.247525E+03	1.124859E-05	0.000000E+00
3.257426E+03	1.135996E-05	0.000000E+00
3.267327E+03	1.147044E-05	0.000000E+00
3.277228E+03	1.157811E-05	0.000000E+00
3.287129E+03	1.168678E-05	0.000000E+00
3.297030E+03	1.179458E-05	0.000000E+00
3.306931E+03	1.190154E-05	0.000000E+00
3.316832E+03	1.200768E-05	0.000000E+00
3.326733E+03	1.211306E-05	0.000000E+00
3.336634E+03	1.221571E-05	0.000000E+00
3.346535E+03	1.231968E-05	0.000000E+00
3.356436E+03	1.242305E-05	0.000000E+00
3.366337E+03	1.252588E-05	0.000000E+00
3.376238E+03	1.262824E-05	0.000000E+00
3.386139E+03	1.273021E-05	0.000000E+00
3.396040E+03	1.283187E-05	0.000000E+00
3.405941E+03	1.293329E-05	0.000000E+00
3.415842E+03	1.303458E-05	0.000000E+00
3.425743E+03	1.313581E-05	0.000000E+00
3.435644E+03	1.323707E-05	0.000000E+00
3.445545E+03	1.333629E-05	0.000000E+00
3.455446E+03	1.343789E-05	0.000000E+00
3.465347E+03	1.353981E-05	0.000000E+00
3.475248E+03	1.364215E-05	0.000000E+00
3.485149E+03	1.374501E-05	0.000000E+00
3.495050E+03	1.384849E-05	0.000000E+00
3.504950E+03	1.395269E-05	0.000000E+00
3.514851E+03	1.405770E-05	0.000000E+00
3.524752E+03	1.416364E-05	0.000000E+00
3.534653E+03	1.427060E-05	0.000000E+00
3.544554E+03	1.437869E-05	0.000000E+00
3.554455E+03	1.448801E-05	0.000000E+00
3.564356E+03	1.460103E-05	0.000000E+00
3.574257E+03	1.471314E-05	0.000000E+00
3.584158E+03	1.482679E-05	0.000000E+00
3.594059E+03	1.494209E-05	0.000000E+00
3.603960E+03	1.505913E-05	0.000000E+00
3.613861E+03	1.517803E-05	0.000000E+00
3.623762E+03	1.529888E-05	0.000000E+00
3.633663E+03	1.542179E-05	0.000000E+00
3.643564E+03	1.554687E-05	0.000000E+00
3.653465E+03	1.567422E-05	0.000000E+00
3.663366E+03	1.580395E-05	0.000000E+00
3.673267E+03	1.593615E-05	0.000000E+00
3.683168E+03	1.607094E-05	0.000000E+00
3.693069E+03	1.620843E-05	0.000000E+00
3.702970E+03	1.634871E-05	0.000000E+00
3.712871E+03	1.649190E-05	0.000000E+00
3.722772E+03	1.664077E-05	0.000000E+00
3.732673E+03	1.679012E-05	0.000000E+00
3.742574E+03	1.694271E-05	0.000000E+00
3.752475E+03	1.709865E-05	0.000000E+00
3.762376E+03	1.725804E-05	0.000000E+00
3.772277E+03	1.742101E-05	0.000000E+00
3.782178E+03	1.758766E-05	0.000000E+00
3.792079E+03	1.775812E-05	0.000000E+00
3.801980E+03	1.793250E-05	0.000000E+00
3.811881E+03	1.811093E-05	0.000000E+00
3.821782E+03	1.829353E-05	0.000000E+00
3.831683E+03	1.848041E-05	0.000000E+00
3.841584E+03	1.867468E-05	0.000000E+00
3.851485E+03	1.887056E-05	0.000000E+00
3.861386E+03	1.907111E-05	0.000000E+00
3.871287E+03	1.927648E-05	0.000000E+00
3.881188E+03	1.948680E-05	0.000000E+00
3.891089E+03	1.970220E-05	0.000000E+00
3.900990E+03	1.992284E-05	0.000000E+00
3.910891E+03	2.014886E-05	0.000000E+00
3.920792E+03	2.038040E-05	0.000000E+00
3.930693E+03	2.061763E-05	0.000000E+00
3.940594E+03	2.086070E-05	0.000000E+00
3.950495E+03	2.110977E-05	0.000000E+00
3.960396E+03	2.136501E-05	0.000000E+00
3.970297E+03	2.162659E-05	0.000000E+00
3.980198E+03	2.189468E-05	0.000000E+00
3.990099E+03	2.216946E-05	0.000000E+00
4.000000E+03	2.245112E-05	0.000000E+00
4.009901E+03	2.273986E-05	0.000000E+00
4.019802E+03	2.303586E-05	0.000000E+00
4.029703E+03	2.333932E-05	0.000000E+00
4.039604E+03	2.365047E-05	0.000000E+00
4.049505E+03	2.396950E-05	0.000000E+00
4.059406E+03	2.429664E-05	0.000000E+00
4.069307E+03	2.463211E-05	0.000000E+00
4.079208E+03	2.497616E-05	0.000000E+00
4.089109E+03	2.532903E-05	0.000000E+00
4.099010E+03	2.569096E-05	0.000000E+00
4.108911E+03	2.606221E-05	0.000000E+00
4.118812E+03	2.644305E-05	0.000000E+00
4.128713E+03	2.683376E-05	0.000000E+00
4.138614E+03	2.723461E-05	0.000000E+00
4.148515E+03	2.764590E-05	0.000000E+00
4.158416E+03	2.806356E-05	0.000000E+00
4.168317E+03	2.849659E-05	0.000000E+00
4.178218E+03	2.894099E-05	0.000000E+00
4.188119E+03	2.939711E-05	0.000000E+00
4.198020E+03	2.986527E-05	0.000000E+00
4.207921E+03	3.034586E-05	0.000000E+00
4.217822E+03	3.083922E-05	0.000000E+00
4.227723E+03	3.134089E-05	0.000000E+00
4.237624E+03	3.186089E-05	0.000000E+00
4.247525E+03	3.239487E-05	0.000000E+00
4.257426E+03	3.294323E-05	0.000000E+00
4.267327E+03	3.350122E-05	0.000000E+00
4.277228E+03	3.407960E-05	0.000000E+00
4.287129E+03	3.467369E-05	0.000000E+00
4.297030E+03	3.528399E-05	0.000000E+00
4.306931E+03	3.590547E-05	0.000000E+00
4.316832E+03	3.654964E-05	0.000000E+00
4.326733E+03	3.721155E-05	0.000000E+00
4.336634E+03	3.788594E-05	0.000000E+00
4.346535E+03	3.858493E-05	0.000000E+00
4.356436E+03	3.930343E-05	0.000000E+00
4.366337E+03	4.003581E-05	0.000000E+00
4.376238E+03	4.079493E-05	0.000000E+00
4.386139E+03	4.156901E-05	0.000000E+00
4.396040E+03	4.237142E-05	0.000000E+00
4.405941E+03	4.318986E-05	0.000000E+00
4.415842E+03	4.403827E-05	0.000000E+00
4.425743E+03	4.490396E-05	0.000000E+00
4.435644E+03	4.580134E-05	0.000000E+00
4.445545E+03	4.671728E-05	0.000000E+00
4.455446E+03	4.766677E-05	0.000000E+00
4.465347E+03	4.863621E-05	0.000000E+00
4.475248E+03	4.964120E-05	0.000000E+00
4.485149E+03	5.066758E-05	0.000000E+00
4.495050E+03	5.173163E-05	0.000000E+00
4.504950E+03	5.281861E-05	0.000000E+00
4.514851E+03	5.393728E-05	0.000000E+00
4.524752E+03	5.509703E-05	0.000000E+00
4.534653E+03	5.628228E-05	0.000000E+00
4.544554E+03	5.750230E-05	0.000000E+00
4.554455E+03	5.876715E-05	0.000000E+00
4.564356E+03	6.006023E-05	0.000000E+00
4.574257E+03	6.139146E-05	0.000000E+00
4.584158E+03	6.276208E-05	0.000000E+00
4.594059E+03	6.418304E-05	0.000000E+00
4.603960E+03	6.563631E-05	0.000000E+00
4.613861E+03	6.713268E-05	0.000000E+00
4.623762E+03	6.867358E-05	0.000000E+00
4.633663E+03	7.026025E-05	0.000000E+00
4.643564E+03	7.189419E-05	0.000000E+00
4.653465E+03	7.357676E-05	0.000000E+00
4.663366E+03	7.530942E-05	0.000000E+00
4.673267E+03	7.709370E-05	0.000000E+00
4.683168E+03	7.893107E-05	0.000000E+00
4.693069E+03	8.083539E-05	0.000000E+00
4.702970E+03	8.277147E-05	0.000000E+00
4.712871E+03	8.477765E-05	0.000000E+00
4.722772E+03	8.684333E-05	0.000000E+00
4.732673E+03	8.897017E-05	0.000000E+00
4.742574E+03	9.115990E-05	0.000000E+00
4.752475E+03	9.341413E-05	0.000000E+00
4.762376E+03	9.573461E-05	0.000000E+00
4.772277E+03	9.812313E-05	0.000000E+00
4.782178E+03	1.005814E-04	0.000000E+00
4.792079E+03	1.030956E-04	0.000000E+00
4.801980E+03	1.056982E-04	0.000000E+00
4.811881E+03	1.083758E-04	0.000000E+00
4.821782E+03	1.111301E-04	0.000000E+00
4.831683E+03	1.139457E-04	0.000000E+00
4.841584E+03	1.168582E-04	0.000000E+00
4.851485E+03	1.198525E-04	0.000000E+00
4.861386E+03	1.229117E-04	0.000000E+00
4.871287E+03	1.260740E-04	0.000000E+00
4.881188E+03	1.293035E-04	0.000000E+00
4.891089E+03	1.326399E-04	0.000000E+00
4.900990E+03	1.360658E-04	0.000000E+00
4.910891E+03	1.395615E-04	0.000000E+00
4.920792E+03	1.431695E-04	0.000000E+00
4.930693E+03	1.468485E-04	0.000000E+00
4.940594E+03	1.506203E-04	0.000000E+00
4.950495E+03	1.545090E-04	0.000000E+00
4.960396E+03	1.584693E-04	0.000000E+00
4.970297E+03	1.625487E-04	0.000000E+00
4.980198E+03	1.666992E-04	0.000000E+00
4.990099E+03	1.709448E-04	0.000000E+00
5.000000E+03	1.753113E-04	0.000000E+00
5.009901E+03	1.797465E-04	0.000000E+00
5.019802E+03	1.842751E-04	0.000000E+00
5.029703E+03	1.888963E-04	0.000000E+00
5.039604E+03	1.936373E-04	0.000000E+00
5.049505E+03	1.984394E-04	0.000000E+00
5.059406E+03	2.033286E-04	0.000000E+00
5.069307E+03	2.083023E-04	0.000000E+00
5.079208E+03	2.133576E-04	0.000000E+00
5.089109E+03	2.184908E-04	0.000000E+00
5.099010E+03	2.236983E-04	0.000000E+00
5.108911E+03	2.289753E-04	0.000000E+00
5.118812E+03	2.343169E-04	0.000000E+00
5.128713E+03	2.397174E-04	0.000000E+00
5.138614E+03	2.451706E-04	0.000000E+00
5.148515E+03	2.506697E-04	0.000000E+00
5.158416E+03	2.562071E-04	0.000000E+00
5.168317E+03	2.617746E-04	0.000000E+00
5.178218E+03	2.673634E-04	0.000000E+00
5.188119E+03	2.729638E-04	0.000000E+00
5.198020E+03	2.785654E-04	0.000000E+00
5.207921E+03	2.841150E-04	0.000000E+00
5.217822E+03	2.896844E-04	0.000000E+00
5.227723E+03	2.952196E-04	0.000000E+00
5.237624E+03	3.007073E-04	0.000000E+00
5.247525E+03	3.060880E-04	0.000000E+00
5.257426E+03	3.114371E-04	0.000000E+00
5.267327E+03	3.166944E-04	0.000000E+00
5.277228E+03	3.217963E-04	0.000000E+00
5.287129E+03	3.268209E-04	0.000000E+00
5.297030E+03	3.317041E-04	0.000000E+00
5.306931E+03	3.363783E-04	0.000000E+00
5.316832E+03	3.409248E-04	0.000000E+00
5.326733E+03	3.452251E-04	0.000000E+00
5.336634E+03	3.493626E-04	0.000000E+00
5.346535E+03	3.532162E-04	0.000000E+00
5.356436E+03	3.568722E-04	0.000000E+00
5.366337E+03	3.602078E-04	0.000000E+00
5.376238E+03	3.632584E-04	0.000000E+00
5.386139E+03	3.660623E-04	0.000000E+00
5.396040E+03	3.684966E-04	0.000000E+00
5.405941E+03	3.706565E-04	0.000000E+00
5.415842E+03	3.724211E-04	0.000000E+00
5.425743E+03	3.738354E-04	0.000000E+00
5.435644E+03	3.748928E-04	0.000000E+00
5.445545E+03	3.756451E-04	0.000000E+00
5.455446E+03	3.759807E-04	0.000000E+00
5.465347E+03	3.759574E-04	0.000000E+00
5.475248E+03	3.755803E-04	0.000000E+00
5.485149E+03	3.748571E-04	0.000000E+00
5.495050E+03	3.737969E-04	0.000000E+00
5.504950E+03	3.724659E-04	0.000000E+00
5.514851E+03	3.707664E-04	0.000000E+00
5.524752E+03	3.687669E-04	0.000000E+00
5.534653E+03	3.664820E-04	0.000000E+00
5.544554E+03	3.639268E-04	0.000000E+00
5.554455E+03	3.611169E-04	0.000000E+00
5.564356E+03	3.580684E-04	0.000000E+00
5.574257E+03	3.547972E-04	0.000000E+00
5.584158E+03	3.513198E-04	0.000000E+00
5.594059E+03	3.476523E-04	0.000000E+00
5.603960E+03	3.437598E-04	0.000000E+00
5.613861E+03	3.397603E-04	0.000000E+00
5.623762E+03	3.356177E-04	0.000000E+00
5.633663E+03	3.313472E-04	0.000000E+00
5.643564E+03	3.269632E-04	0.000000E+00
5.653465E+03	3.224800E-04	0.000000E+00
5.663366E+03	3.178640E-04	0.000000E+00
5.673267E+03	3.132226E-04	0.000000E+00
5.683168E+03	3.085208E-04	0.000000E+00
5.693069E+03	3.037255E-04	0.000000E+00
5.702970E+03	2.989381E-04	0.000000E+00
5.712871E+03	2.941238E-04	0.000000E+00
5.722772E+03	2.892497E-04	0.000000E+00
5.732673E+03	2.844113E-04	0.000000E+00
5.742574E+03	2.795739E-04	0.000000E+00
5.752475E+03	2.747052E-04	0.000000E+00
5.762376E+03	2.698943E-04	0.000000E+00
5.772277E+03	2.650681E-04	0.000000E+00
5.782178E+03	2.603117E-04	0.000000E+00
5.792079E+03	2.555538E-04	0.000000E+00
5.801980E+03	2.508755E-04	0.000000E+00
5.811881E+03	2.462074E-04	0.000000E+00
5.821782E+03	2.416270E-04	0.000000E+00
5.831683E+03	2.370666E-04	0.000000E+00
5.841584E+03	2.325658E-04	0.000000E+00
5.851485E+03	2.281614E-04	0.000000E+00
5.861386E+03	2.237886E-04	0.000000E+00
5.871287E+03	2.195160E-04	0.000000E+00
5.881188E+03	2.152807E-04	0.000000E+00
5.891089E+03	2.111175E-04	0.000000E+00
5.900990E+03	2.070276E-04	0.000000E+00
5.910891E+03	2.030423E-04	0.000000E+00
5.920792E+03	1.991020E-04	0.000000E+00
5.930693E+03	1.952382E-04	0.000000E+00
5.940594E+03	1.914511E-04	0.000000E+00
5.950495E+03	1.877687E-04	0.000000E+00
5.960396E+03	1.841354E-04	0.000000E+00
5.970297E+03	1.805793E-04	0.000000E+00
5.980198E+03	1.771002E-04	0.000000E+00
5.990099E+03	1.736975E-04	0.000000E+00
6.000000E+03	1.703710E-04	0.000000E+00
6.009901E+03	1.671201E-04	0.000000E+00
6.019802E+03	1.639439E-04	0.000000E+00
6.029703E+03	1.608654E-04	0.000000E+00
6.039604E+03	1.578359E-04	0.000000E+00
6.049505E+03	1.548786E-04	0.000000E+00
6.059406E+03	1.519923E-04	0.000000E+00
6.069307E+03	1.491763E-04	0.000000E+00
6.079208E+03	1.464292E-04	0.000000E+00
6.089109E+03	1.437498E-04	0.000000E+00
6.099010E+03	1.411164E-04	0.000000E+00
6.108911E+03	1.385693E-04	0.000000E+00
6.118812E+03	1.360865E-04	0.000000E+00
6.128713E+03	1.336665E-04	0.000000E+00
6.138614E+03	1.313080E-04	0.000000E+00
6.148515E+03	1.290097E-04	0.000000E+00
6.158416E+03	1.267705E-04	0.000000E+00
6.168317E+03	1.245889E-04	0.000000E+00
6.178218E+03	1.224458E-04	0.000000E+00
6.188119E+03	1.203760E-04	0.000000E+00
6.198020E+03	1.183600E-04	0.000000E+00
6.207921E+03	1.163965E-04	0.000000E+00
6.217822E+03	1.144675E-04	0.000000E+00
6.227723E+03	1.126055E-04	0.000000E+00
6.237624E+03	1.107924E-04	0.000000E+00
6.247525E+03	1.090268E-04	0.000000E+00
6.257426E+03	1.072917E-04	0.000000E+00
6.267327E+03	1.056179E-04	0.000000E+00
6.277228E+03	1.039880E-04	0.000000E+00
6.287129E+03	1.023859E-04	0.000000E+00
6.297030E+03	1.008409E-04	0.000000E+00
6.306931E+03	9.933658E-05	0.000000E+00
6.316832E+03	9.785736E-05	0.000000E+00
6.326733E+03	9.643124E-05	0.000000E+00
6.336634E+03	9.502864E-05	0.000000E+00
6.346535E+03	9.367669E-05	0.000000E+00
6.356436E+03	9.234659E-05	0.000000E+00
6.366337E+03	9.106479E-05	0.000000E+00
6.376238E+03	8.980336E-05	0.000000E+00
6.386139E+03	8.858800E-05	0.000000E+00
6.396040E+03	8.739156E-05	0.000000E+00
6.405941E+03	8.623901E-05	0.000000E+00
6.415842E+03	8.510393E-05	0.000000E+00
6.425743E+03	8.401080E-05	0.000000E+00
6.435644E+03	8.293381E-05	0.000000E+00
6.445545E+03	8.189685E-05	0.000000E+00
6.455446E+03	8.087488E-05	0.000000E+00
6.465347E+03	7.989103E-05	0.000000E+00
6.475248E+03	7.892092E-05	0.000000E+00
6.485149E+03	7.797577E-05	0.000000E+00
6.495050E+03	7.706632E-05	0.000000E+00
6.504950E+03	7.616893E-05	0.000000E+00
6.514851E+03	7.529451E-05	0.000000E+00
6.524752E+03	7.445344E-05	0.000000E+00
6.534653E+03	7.362288E-05	0.000000E+00
6.544554E+03	7.281347E-05	0.000000E+00
6.554455E+03	7.202464E-05	0.000000E+00
6.564356E+03	7.126624E-05	0.000000E+00
6.574257E+03	7.051666E-05	0.000000E+00
6.584158E+03	6.978595E-05	0.000000E+00
6.594059E+03	6.907363E-05	0.000000E+00
6.603960E+03	6.838928E-05	0.000000E+00
6.613861E+03	6.771214E-05	0.000000E+00
6.623762E+03	6.705191E-05	0.000000E+00
6.633663E+03	6.640816E-05	0.000000E+00
6.643564E+03	6.578045E-05	0.000000E+00
6.653465E+03	6.517795E-05	0.000000E+00
6.663366E+03	6.458092E-05	0.000000E+00
6.673267E+03	6.399868E-05	0.000000E+00
6.683168E+03	6.343084E-05	0.000000E+00
6.693069E+03	6.287701E-05	0.000000E+00
6.702970E+03	6.233681E-05	0.000000E+00
6.712871E+03	6.180992E-05	0.000000E+00
6.722772E+03	6.129597E-05	0.000000E+00
6.732673E+03	6.079463E-05	0.000000E+00
6.742574E+03	6.030558E-05	0.000000E+00
6.752475E+03	5.983735E-05	0.000000E+00
6.762376E+03	5.937187E-05	0.000000E+00
6.772277E+03	5.891777E-05	0.000000E+00
6.782178E+03	5.847476E-05	0.000000E+00
6.792079E+03	5.804257E-05	0.000000E+00
6.801980E+03	5.762091E-05	0.000000E+00
6.811881E+03	5.720108E-05	0.000000E+00
6.821782E+03	5.679979E-05	0.000000E+00
6.831683E+03	5.640830E-05	0.000000E+00
6.841584E+03	5.602636E-05	0.000000E+00
6.851485E+03	5.565374E-05	0.000000E+00
6.861386E+03	5.529021E-05	0.000000E+00
6.871287E+03	5.493557E-05	0.000000E+00
6.881188E+03	5.458961E-05	0.000000E+00
6.891089E+03	5.425211E-05	0.000000E+00
6.900990E+03	5.392290E-05	0.000000E+00
6.910891E+03	5.360177E-05	0.000000E+00
6.920792E+03	5.328064E-05	0.000000E+00
6.930693E+03	5.297519E-05	0.000000E+00
6.940594E+03	5.267729E-05	0.000000E+00
6.950495E+03	5.238677E-05	0.000000E+00
6.960396E+03	5.210348E-05	0.000000E+00
6.970297E+03	5.181957E-05	0.000000E+00
6.980198E+03	5.155029E-05	0.000000E+00
6.990099E+03	5.128779E-05	0.000000E+00
7.000000E+03	5.103191E-05	0.000000E+00
7.009901E+03	5.077498E-05	0.000000E+00
7.019802E+03	5.053197E-05	0.000000E+00
7.029703E+03	5.029519E-05	0.000000E+00
7.039604E+03	5.006450E-05	0.000000E+00
7.049505E+03	4.983238E-05	0.000000E+00
7.059406E+03	4.961355E-05	0.000000E+00
7.069307E+03	4.940046E-05	0.000000E+00
7.079208E+03	4.918570E-05	0.000000E+00
7.089109E+03	4.898379E-05	0.000000E+00
7.099010E+03	4.878005E-05	0.000000E+00
7.108911E+03	4.858891E-05	0.000000E+00
7.118812E+03	4.840299E-05	0.000000E+00
7.128713E+03	4.821502E-05	0.000000E+00
7.138614E+03	4.803928E-05	0.000000E+00
7.148515E+03	4.786135E-05	0.000000E+00
7.158416E+03	4.769543E-05	0.000000E+00
7.168317E+03	4.753428E-05	0.000000E+00
7.178218E+03	4.737076E-05	0.000000E+00
7.188119E+03	4.721893E-05	0.000000E+00
7.198020E+03	4.706463E-05	0.000000E+00
7.207921E+03	4.692181E-05	0.000000E+00
7.217822E+03	4.677641E-05	0.000000E+00
7.227723E+03	4.664231E-05	0.000000E+00
7.237624E+03	4.650553E-05	0.000000E+00
7.247525E+03	4.637989E-05	0.000000E+00
7.257426E+03	4.625147E-05	0.000000E+00
7.267327E+03	4.612712E-05	0.000000E+00
7.277228E+03	4.601368E-05	0.000000E+00
7.287129E+03	4.589732E-05	0.000000E+00
7.297030E+03	4.579171E-05	0.000000E+00
7.306931E+03	4.568309E-05	0.000000E+00
7.316832E+03	4.557826E-05	0.000000E+00
7.326733E+03	4.548398E-05	0.000000E+00
7.336634E+03	4.538657E-05	0.000000E+00
7.346535E+03	4.529958E-05	0.000000E+00
7.356436E+03	4.520939E-05	0.000000E+00
7.366337E+03	4.512274E-05	0.000000E+00
7.376238E+03	4.504632E-05	0.000000E+00
7.386139E+03	4.496660E-05	0.000000E+00
7.396040E+03	4.489027E-05	0.000000E+00
7.405941E+03	4.481731E-05	0.000000E+00
7.415842E+03	4.475438E-05	0.000000E+00
7.425743E+03	4.468799E-05	0.000000E+00
7.435644E+03	4.462483E-05	0.000000E+00
7.445545E+03	4.456488E-05	0.000000E+00
7.455446E+03	4.451476E-05	0.000000E+00
7.465347E+03	4.446106E-05	0.000000E+00
7.475248E+03	4.441044E-05	0.000000E+00
7.485149E+03	4.436287E-05	0.000000E+00
7.495050E+03	4.431830E-05	0.000000E+00
7.504950E+03	4.427670E-05	0.000000E+00
7.514851E+03	4.424468E-05	0.000000E+00
7.524752E+03	4.420892E-05	0.000000E+00
7.534653E+03	4.417603E-05	0.000000E+00
7.544554E+03	4.414596E-05	0.000000E+00
7.554455E+03	4.411871E-05	0.000000E+00
7.564356E+03	4.409424E-05	0.000000E+00
7.574257E+03	4.407250E-05	0.000000E+00
7.584158E+03	4.405348E-05	0.000000E+00
7.594059E+03	4.403714E-05	0.000000E+00
7.603960E+03	4.402345E-05	0.000000E+00
7.613861E+03	4.401240E-05	0.000000E+00
7.623762E+03	4.400392E-05	0.000000E+00
7.633663E+03	4.399803E-05	0.000000E+00
7.643564E+03	4.399467E-05	0.000000E+00
7.653465E+03	4.399382E-05	0.000000E+00
7.663366E+03	4.399546E-05	0.000000E+00
7.673267E+03	4.399956E-05	0.000000E+00
7.683168E+03	4.400608E-05	0.000000E+00
