#wls	flux	fluxerr
1.567552E+03	7.734283E-02	1.186181E-03
1.606740E+03	7.795942E-02	1.192074E-03
1.645929E+03	7.840907E-02	1.195286E-03
1.685118E+03	7.868397E-02	1.195722E-03
1.724307E+03	7.877081E-02	1.193202E-03
1.763496E+03	7.863150E-02	1.187178E-03
1.802684E+03	7.821818E-02	1.176963E-03
1.841873E+03	7.747692E-02	1.161791E-03
1.881062E+03	7.635488E-02	1.140925E-03
1.920251E+03	7.482439E-02	1.114016E-03
1.959440E+03	7.292132E-02	1.081667E-03
1.998628E+03	7.080436E-02	1.046290E-03
2.037817E+03	6.879235E-02	1.012621E-03
2.077006E+03	6.731391E-02	9.869329E-04
2.116195E+03	6.673495E-02	9.744794E-04
2.155384E+03	6.716853E-02	9.767462E-04
2.194572E+03	6.843186E-02	9.909013E-04
2.233761E+03	7.017950E-02	1.011807E-03
2.272950E+03	7.207361E-02	1.034517E-03
2.312139E+03	7.387708E-02	1.055609E-03
2.351328E+03	7.546019E-02	1.073251E-03
2.390516E+03	7.677170E-02	1.086756E-03
2.429705E+03	7.780559E-02	1.096091E-03
2.468894E+03	7.857731E-02	1.101526E-03
2.508083E+03	7.911095E-02	1.103450E-03
2.547271E+03	7.943045E-02	1.102245E-03
2.586460E+03	7.955895E-02	1.098278E-03
2.625649E+03	7.951640E-02	1.091863E-03
2.664838E+03	7.932025E-02	1.083280E-03
2.704027E+03	7.898556E-02	1.072770E-03
2.743215E+03	7.852610E-02	1.060553E-03
2.782404E+03	7.795383E-02	1.046822E-03
2.821593E+03	7.728117E-02	1.031773E-03
2.860782E+03	7.651938E-02	1.015583E-03
2.899971E+03	7.568117E-02	9.984473E-04
2.939159E+03	7.477870E-02	9.805482E-04
2.948957E+03	7.454478E-02	9.759793E-04
2.958754E+03	7.430793E-02	9.713786E-04
2.968551E+03	7.406831E-02	9.667482E-04
2.978348E+03	7.382685E-02	9.621007E-04
2.988145E+03	7.358627E-02	9.574716E-04
2.997943E+03	7.334897E-02	9.528921E-04
3.007740E+03	7.311444E-02	9.483556E-04
3.017537E+03	7.288167E-02	9.438488E-04
3.027334E+03	7.265101E-02	9.393763E-04
3.037131E+03	7.242124E-02	9.349222E-04
3.046929E+03	7.219264E-02	9.304904E-04
3.056726E+03	7.196498E-02	9.260777E-04
3.066523E+03	7.173748E-02	9.216742E-04
3.076320E+03	7.151093E-02	9.172902E-04
3.086117E+03	7.128461E-02	9.129165E-04
3.095915E+03	7.105865E-02	9.085547E-04
3.105712E+03	7.083321E-02	9.042070E-04
3.115509E+03	7.060839E-02	8.998749E-04
3.125306E+03	7.038406E-02	8.955565E-04
3.135103E+03	7.016058E-02	8.912568E-04
3.144901E+03	6.993810E-02	8.869775E-04
3.154698E+03	6.971651E-02	8.827172E-04
3.164495E+03	6.949630E-02	8.784823E-04
3.174292E+03	6.927763E-02	8.742748E-04
3.184089E+03	6.906043E-02	8.700939E-04
3.193887E+03	6.884551E-02	8.659495E-04
3.203684E+03	6.863248E-02	8.618371E-04
3.213481E+03	6.842185E-02	8.577626E-04
3.223278E+03	6.821381E-02	8.537287E-04
3.233075E+03	6.800861E-02	8.497382E-04
3.242873E+03	6.780634E-02	8.457924E-04
3.252670E+03	6.760693E-02	8.418902E-04
3.262467E+03	6.741112E-02	8.380407E-04
3.272264E+03	6.721865E-02	8.342406E-04
3.282061E+03	6.702966E-02	8.304916E-04
3.291859E+03	6.684424E-02	8.267946E-04
3.301656E+03	6.666232E-02	8.231486E-04
3.311453E+03	6.648399E-02	8.195546E-04
3.321250E+03	6.630910E-02	8.160108E-04
3.331047E+03	6.613782E-02	8.125189E-04
3.340845E+03	6.596978E-02	8.090744E-04
3.350642E+03	6.580473E-02	8.056743E-04
3.360439E+03	6.564249E-02	8.023160E-04
3.370236E+03	6.548303E-02	7.989993E-04
3.380033E+03	6.532577E-02	7.957169E-04
3.389831E+03	6.517038E-02	7.924649E-04
3.399628E+03	6.501685E-02	7.892431E-04
3.409425E+03	6.486440E-02	7.860421E-04
3.419222E+03	6.471306E-02	7.828622E-04
3.429019E+03	6.456222E-02	7.796962E-04
3.438816E+03	6.441190E-02	7.765444E-04
3.448614E+03	6.426194E-02	7.734048E-04
3.458411E+03	6.411195E-02	7.702731E-04
3.468208E+03	6.396206E-02	7.671506E-04
3.478005E+03	6.381299E-02	7.640464E-04
3.487802E+03	6.366442E-02	7.609564E-04
3.497600E+03	6.351696E-02	7.578883E-04
3.507397E+03	6.337078E-02	7.548439E-04
3.517194E+03	6.322695E-02	7.518360E-04
3.526991E+03	6.308552E-02	7.488653E-04
3.536788E+03	6.294750E-02	7.459436E-04
3.546586E+03	6.281401E-02	7.430840E-04
3.556383E+03	6.268527E-02	7.402888E-04
3.566180E+03	6.256252E-02	7.375724E-04
3.575977E+03	6.244653E-02	7.349436E-04
3.585774E+03	6.233809E-02	7.324112E-04
3.595572E+03	6.223809E-02	7.299854E-04
3.605369E+03	6.214721E-02	7.276734E-04
3.615166E+03	6.206632E-02	7.254853E-04
3.624963E+03	6.199576E-02	7.234242E-04
3.634760E+03	6.193603E-02	7.214953E-04
3.644558E+03	6.188739E-02	7.197013E-04
3.654355E+03	6.185010E-02	7.180445E-04
3.664152E+03	6.182449E-02	7.165282E-04
3.673949E+03	6.181036E-02	7.151494E-04
3.683746E+03	6.180691E-02	7.138981E-04
3.693544E+03	6.181387E-02	7.127709E-04
3.703341E+03	6.183041E-02	7.117577E-04
3.713138E+03	6.185475E-02	7.108374E-04
3.722935E+03	6.188543E-02	7.099929E-04
3.732732E+03	6.192005E-02	7.091966E-04
3.742530E+03	6.195613E-02	7.084199E-04
3.752327E+03	6.199069E-02	7.076288E-04
3.762124E+03	6.201990E-02	7.067799E-04
3.771921E+03	6.204005E-02	7.058313E-04
3.781718E+03	6.204692E-02	7.047358E-04
3.791516E+03	6.203643E-02	7.034479E-04
3.801313E+03	6.200446E-02	7.019221E-04
3.811110E+03	6.194858E-02	7.001322E-04
3.820907E+03	6.186745E-02	6.980646E-04
3.830704E+03	6.176041E-02	6.957132E-04
3.840502E+03	6.162895E-02	6.930965E-04
3.850299E+03	6.147590E-02	6.902474E-04
3.860096E+03	6.130356E-02	6.871933E-04
3.869893E+03	6.111571E-02	6.839773E-04
3.879690E+03	6.091471E-02	6.806270E-04
3.889488E+03	6.070389E-02	6.771801E-04
3.899285E+03	6.048513E-02	6.736580E-04
3.909082E+03	6.026081E-02	6.700881E-04
3.918879E+03	6.003226E-02	6.664851E-04
3.928676E+03	5.980112E-02	6.628677E-04
3.938474E+03	5.956872E-02	6.592507E-04
3.948271E+03	5.933678E-02	6.556533E-04
3.958068E+03	5.910610E-02	6.520843E-04
3.967865E+03	5.887824E-02	6.485608E-04
3.977662E+03	5.865413E-02	6.450930E-04
3.987460E+03	5.843538E-02	6.416986E-04
3.997257E+03	5.822293E-02	6.383875E-04
4.007054E+03	5.801861E-02	6.351796E-04
4.016851E+03	5.782227E-02	6.320729E-04
4.026648E+03	5.763480E-02	6.290766E-04
4.036446E+03	5.745417E-02	6.261685E-04
4.046243E+03	5.727757E-02	6.233176E-04
4.056040E+03	5.710015E-02	6.204711E-04
4.065837E+03	5.691551E-02	6.175596E-04
4.075634E+03	5.671599E-02	6.145008E-04
4.085432E+03	5.649490E-02	6.112227E-04
4.095229E+03	5.624535E-02	6.076522E-04
4.105026E+03	5.596386E-02	6.037530E-04
4.114823E+03	5.564873E-02	5.995083E-04
4.124620E+03	5.530140E-02	5.949352E-04
4.134418E+03	5.492735E-02	5.900940E-04
4.144215E+03	5.453398E-02	5.850651E-04
4.154012E+03	5.413119E-02	5.799557E-04
4.163809E+03	5.373081E-02	5.748925E-04
4.173606E+03	5.334457E-02	5.700007E-04
4.183404E+03	5.298551E-02	5.654189E-04
4.193201E+03	5.266555E-02	5.612731E-04
4.202998E+03	5.239491E-02	5.576701E-04
4.212795E+03	5.218346E-02	5.547130E-04
4.222592E+03	5.203850E-02	5.524770E-04
4.232390E+03	5.196472E-02	5.510091E-04
4.242187E+03	5.196470E-02	5.503339E-04
4.251984E+03	5.203737E-02	5.504375E-04
4.261781E+03	5.217859E-02	5.512733E-04
4.271578E+03	5.238111E-02	5.527624E-04
4.281376E+03	5.263255E-02	5.547720E-04
4.291173E+03	5.291706E-02	5.571337E-04
4.300970E+03	5.321536E-02	5.596436E-04
4.310767E+03	5.350299E-02	5.620445E-04
4.320564E+03	5.375419E-02	5.640667E-04
4.330362E+03	5.394360E-02	5.654456E-04
4.340159E+03	5.404924E-02	5.659536E-04
4.349956E+03	5.405656E-02	5.654409E-04
4.359753E+03	5.395833E-02	5.638357E-04
4.369550E+03	5.375636E-02	5.611598E-04
4.379348E+03	5.346128E-02	5.575275E-04
4.389145E+03	5.308797E-02	5.530965E-04
4.398942E+03	5.265565E-02	5.480690E-04
4.408739E+03	5.218338E-02	5.426447E-04
4.418536E+03	5.168970E-02	5.370172E-04
4.428333E+03	5.119111E-02	5.313581E-04
4.438131E+03	5.070136E-02	5.258099E-04
4.447928E+03	5.023152E-02	5.204868E-04
4.457725E+03	4.978852E-02	5.154597E-04
4.467522E+03	4.937793E-02	5.107854E-04
4.477319E+03	4.900065E-02	5.064719E-04
4.487117E+03	4.865678E-02	5.025196E-04
4.496914E+03	4.834355E-02	4.988985E-04
4.506711E+03	4.805741E-02	4.955713E-04
4.516508E+03	4.779358E-02	4.924881E-04
4.526305E+03	4.754628E-02	4.895884E-04
4.536103E+03	4.731133E-02	4.868292E-04
4.545900E+03	4.708344E-02	4.841552E-04
4.555697E+03	4.685862E-02	4.815256E-04
4.565494E+03	4.663442E-02	4.789147E-04
4.575291E+03	4.640809E-02	4.762945E-04
4.585089E+03	4.617855E-02	4.736536E-04
4.594886E+03	4.594634E-02	4.709975E-04
4.604683E+03	4.571164E-02	4.683282E-04
4.614480E+03	4.547649E-02	4.656660E-04
4.624277E+03	4.524327E-02	4.630353E-04
4.634075E+03	4.501493E-02	4.604659E-04
4.643872E+03	4.479442E-02	4.579877E-04
4.653669E+03	4.458565E-02	4.556403E-04
4.663466E+03	4.439149E-02	4.534526E-04
4.673263E+03	4.421476E-02	4.514531E-04
4.683061E+03	4.406000E-02	4.496876E-04
4.692858E+03	4.393288E-02	4.482135E-04
4.702655E+03	4.384356E-02	4.471340E-04
4.712452E+03	4.380295E-02	4.465597E-04
4.722249E+03	4.382215E-02	4.466032E-04
4.732047E+03	4.391116E-02	4.473656E-04
4.741844E+03	4.407821E-02	4.489299E-04
4.751641E+03	4.432918E-02	4.513554E-04
4.761438E+03	4.466711E-02	4.546722E-04
4.771235E+03	4.509031E-02	4.588627E-04
4.781033E+03	4.559231E-02	4.638604E-04
4.790830E+03	4.616073E-02	4.695389E-04
4.800627E+03	4.677502E-02	4.756892E-04
4.810424E+03	4.740858E-02	4.820406E-04
4.820221E+03	4.802746E-02	4.882480E-04
4.830019E+03	4.859266E-02	4.939157E-04
4.839816E+03	4.906437E-02	4.986391E-04
4.849613E+03	4.940662E-02	5.020535E-04
4.859410E+03	4.959127E-02	5.038736E-04
4.869207E+03	4.960291E-02	5.039433E-04
4.879005E+03	4.944005E-02	5.022479E-04
4.888802E+03	4.911318E-02	4.988943E-04
4.898599E+03	4.864225E-02	4.940853E-04
4.908396E+03	4.805460E-02	4.880985E-04
4.918193E+03	4.738003E-02	4.812363E-04
4.927991E+03	4.664904E-02	4.738085E-04
4.937788E+03	4.589117E-02	4.661143E-04
4.947585E+03	4.513072E-02	4.584004E-04
4.957382E+03	4.439003E-02	4.508935E-04
4.967179E+03	4.368475E-02	4.437519E-04
4.976977E+03	4.302652E-02	4.370938E-04
4.986774E+03	4.242144E-02	4.309807E-04
4.996571E+03	4.187219E-02	4.254400E-04
5.006368E+03	4.137810E-02	4.204645E-04
5.016165E+03	4.093613E-02	4.160233E-04
5.025963E+03	4.054289E-02	4.120821E-04
5.035760E+03	4.019446E-02	4.086008E-04
5.045557E+03	3.988716E-02	4.055422E-04
5.055354E+03	3.961754E-02	4.028711E-04
5.065151E+03	3.938343E-02	4.005658E-04
5.074949E+03	3.918279E-02	3.986053E-04
5.084746E+03	3.901339E-02	3.969671E-04
5.094543E+03	3.887359E-02	3.956347E-04
5.104340E+03	3.876140E-02	3.945880E-04
5.114137E+03	3.867291E-02	3.937873E-04
5.123935E+03	3.860578E-02	3.932088E-04
5.133732E+03	3.855537E-02	3.928054E-04
5.143529E+03	3.851804E-02	3.925402E-04
5.153326E+03	3.848841E-02	3.923584E-04
5.163123E+03	3.846209E-02	3.922154E-04
5.172921E+03	3.843409E-02	3.920601E-04
5.182718E+03	3.840086E-02	3.918564E-04
5.192515E+03	3.835805E-02	3.915597E-04
5.202312E+03	3.830313E-02	3.911442E-04
5.212109E+03	3.823409E-02	3.905891E-04
5.221907E+03	3.814975E-02	3.898821E-04
5.231704E+03	3.804958E-02	3.890177E-04
5.241501E+03	3.793319E-02	3.879915E-04
5.251298E+03	3.780153E-02	3.868128E-04
5.261095E+03	3.765430E-02	3.854784E-04
5.270893E+03	3.749253E-02	3.839983E-04
5.280690E+03	3.731702E-02	3.823803E-04
5.290487E+03	3.712860E-02	3.806327E-04
5.300284E+03	3.692756E-02	3.787582E-04
5.310081E+03	3.671505E-02	3.767680E-04
5.319879E+03	3.649047E-02	3.746557E-04
5.329676E+03	3.625415E-02	3.724245E-04
5.339473E+03	3.600593E-02	3.700722E-04
5.349270E+03	3.574564E-02	3.675968E-04
5.359067E+03	3.547314E-02	3.649965E-04
5.368865E+03	3.518798E-02	3.622662E-04
5.378662E+03	3.489135E-02	3.594179E-04
5.388459E+03	3.458447E-02	3.564638E-04
5.398256E+03	3.427159E-02	3.534473E-04
5.408053E+03	3.395733E-02	3.504159E-04
5.417850E+03	3.364558E-02	3.474095E-04
5.427648E+03	3.334055E-02	3.444717E-04
5.437445E+03	3.304438E-02	3.416244E-04
5.447242E+03	3.275975E-02	3.388953E-04
5.457039E+03	3.248858E-02	3.363047E-04
5.466836E+03	3.223212E-02	3.338653E-04
5.476634E+03	3.199230E-02	3.315976E-04
5.486431E+03	3.176920E-02	3.295026E-04
5.496228E+03	3.156342E-02	3.275865E-04
5.506025E+03	3.137418E-02	3.258417E-04
5.515822E+03	3.120073E-02	3.242608E-04
5.525620E+03	3.104142E-02	3.228265E-04
5.535417E+03	3.089418E-02	3.215179E-04
5.545214E+03	3.075679E-02	3.203117E-04
5.555011E+03	3.062673E-02	3.191820E-04
5.564808E+03	3.050241E-02	3.181123E-04
5.574606E+03	3.038193E-02	3.170828E-04
5.584403E+03	3.026456E-02	3.160858E-04
5.594200E+03	3.014962E-02	3.151145E-04
5.603997E+03	3.003687E-02	3.141661E-04
5.613794E+03	2.992588E-02	3.132362E-04
5.623592E+03	2.981670E-02	3.123252E-04
5.633389E+03	2.971001E-02	3.114406E-04
5.643186E+03	2.960507E-02	3.105741E-04
5.652983E+03	2.950178E-02	3.097251E-04
5.662780E+03	2.940052E-02	3.088974E-04
5.672578E+03	2.930150E-02	3.080932E-04
5.682375E+03	2.920484E-02	3.073139E-04
5.692172E+03	2.911179E-02	3.065725E-04
5.701969E+03	2.902311E-02	3.058773E-04
5.711766E+03	2.894045E-02	3.052455E-04
5.721564E+03	2.886478E-02	3.046876E-04
5.731361E+03	2.879764E-02	3.042202E-04
5.741158E+03	2.873972E-02	3.038505E-04
5.750955E+03	2.869220E-02	3.035913E-04
5.760752E+03	2.865528E-02	3.034449E-04
5.770550E+03	2.862961E-02	3.034186E-04
5.780347E+03	2.861481E-02	3.035085E-04
5.790144E+03	2.861078E-02	3.037140E-04
5.799941E+03	2.861576E-02	3.040165E-04
5.809738E+03	2.862916E-02	3.044098E-04
5.819536E+03	2.864786E-02	3.048613E-04
5.829333E+03	2.866897E-02	3.053402E-04
5.839130E+03	2.868923E-02	3.058117E-04
5.848927E+03	2.870574E-02	3.062450E-04
5.858724E+03	2.871512E-02	3.066039E-04
5.868522E+03	2.871540E-02	3.068669E-04
5.878319E+03	2.870415E-02	3.070082E-04
5.888116E+03	2.868131E-02	3.070265E-04
5.897913E+03	2.864679E-02	3.069207E-04
5.907710E+03	2.860076E-02	3.066922E-04
5.917508E+03	2.854387E-02	3.063477E-04
5.927305E+03	2.847870E-02	3.059144E-04
5.937102E+03	2.840563E-02	3.053966E-04
5.946899E+03	2.832711E-02	3.048201E-04
5.956696E+03	2.824432E-02	3.041976E-04
5.966494E+03	2.815873E-02	3.035446E-04
5.976291E+03	2.807164E-02	3.028754E-04
5.986088E+03	2.798417E-02	3.022018E-04
5.995885E+03	2.789764E-02	3.015381E-04
6.005682E+03	2.781237E-02	3.008878E-04
6.015480E+03	2.772839E-02	3.002513E-04
6.025277E+03	2.764660E-02	2.996384E-04
6.035074E+03	2.756657E-02	2.990444E-04
6.044871E+03	2.748648E-02	2.984498E-04
6.054668E+03	2.740527E-02	2.978428E-04
6.064466E+03	2.732112E-02	2.972037E-04
6.074263E+03	2.723246E-02	2.965156E-04
6.084060E+03	2.713660E-02	2.957484E-04
6.093857E+03	2.703269E-02	2.948931E-04
6.103654E+03	2.691923E-02	2.939327E-04
6.113452E+03	2.679580E-02	2.928624E-04
6.123249E+03	2.666511E-02	2.917114E-04
6.133046E+03	2.653014E-02	2.905120E-04
6.142843E+03	2.639615E-02	2.893218E-04
6.152640E+03	2.626642E-02	2.881765E-04
6.162438E+03	2.614489E-02	2.871198E-04
6.172235E+03	2.603285E-02	2.861658E-04
6.182032E+03	2.593225E-02	2.853363E-04
6.191829E+03	2.584252E-02	2.846254E-04
6.201626E+03	2.576362E-02	2.840328E-04
6.211424E+03	2.569457E-02	2.835482E-04
6.221221E+03	2.563405E-02	2.831571E-04
6.231018E+03	2.558053E-02	2.828429E-04
6.240815E+03	2.553252E-02	2.825893E-04
6.250612E+03	2.548829E-02	2.823773E-04
6.260410E+03	2.544763E-02	2.822046E-04
6.270207E+03	2.540908E-02	2.820551E-04
6.280004E+03	2.537281E-02	2.819307E-04
6.289801E+03	2.533902E-02	2.818337E-04
6.299598E+03	2.530828E-02	2.817705E-04
6.309396E+03	2.528109E-02	2.817468E-04
6.319193E+03	2.525905E-02	2.817804E-04
6.328990E+03	2.524349E-02	2.818864E-04
6.338787E+03	2.523581E-02	2.820806E-04
6.348584E+03	2.523696E-02	2.823737E-04
6.358382E+03	2.524861E-02	2.827850E-04
6.368179E+03	2.527183E-02	2.833266E-04
6.377976E+03	2.530748E-02	2.840086E-04
6.387773E+03	2.535572E-02	2.848331E-04
6.397570E+03	2.541725E-02	2.858086E-04
6.407367E+03	2.549196E-02	2.869339E-04
6.417165E+03	2.557875E-02	2.881974E-04
6.426962E+03	2.567687E-02	2.895910E-04
6.436759E+03	2.578413E-02	2.910901E-04
6.446556E+03	2.589918E-02	2.926799E-04
6.456353E+03	2.601793E-02	2.943143E-04
6.466151E+03	2.613861E-02	2.959735E-04
6.475948E+03	2.625669E-02	2.976061E-04
6.485745E+03	2.636815E-02	2.991664E-04
6.495542E+03	2.646959E-02	3.006155E-04
6.505339E+03	2.655490E-02	3.018838E-04
6.515137E+03	2.662087E-02	3.029341E-04
6.524934E+03	2.666146E-02	3.036968E-04
6.534731E+03	2.667404E-02	3.041412E-04
6.544528E+03	2.665418E-02	3.042157E-04
6.554325E+03	2.659938E-02	3.038907E-04
6.564123E+03	2.650863E-02	3.031534E-04
6.573920E+03	2.638106E-02	3.019927E-04
6.583717E+03	2.621789E-02	3.004211E-04
6.593514E+03	2.602084E-02	2.984575E-04
6.603311E+03	2.579152E-02	2.961188E-04
6.613109E+03	2.553470E-02	2.934590E-04
6.622906E+03	2.525268E-02	2.905037E-04
6.632703E+03	2.495052E-02	2.873100E-04
6.642500E+03	2.463246E-02	2.839263E-04
6.652297E+03	2.430225E-02	2.803952E-04
6.662095E+03	2.396407E-02	2.767647E-04
6.671892E+03	2.362237E-02	2.730858E-04
6.681689E+03	2.328036E-02	2.693957E-04
6.691486E+03	2.294189E-02	2.657389E-04
6.701283E+03	2.260955E-02	2.621455E-04
6.711081E+03	2.228612E-02	2.586482E-04
6.720878E+03	2.197458E-02	2.552816E-04
6.730675E+03	2.167631E-02	2.520624E-04
6.740472E+03	2.139469E-02	2.490303E-04
6.750269E+03	2.113016E-02	2.461909E-04
6.760067E+03	2.088507E-02	2.435725E-04
6.769864E+03	2.066054E-02	2.411885E-04
6.779661E+03	2.045644E-02	2.390383E-04
6.789458E+03	2.027391E-02	2.371357E-04
6.799255E+03	2.011235E-02	2.354748E-04
6.809053E+03	1.997112E-02	2.340485E-04
6.818850E+03	1.984951E-02	2.328493E-04
6.828647E+03	1.974546E-02	2.318536E-04
6.838444E+03	1.965692E-02	2.310380E-04
6.848241E+03	1.958159E-02	2.303761E-04
6.858039E+03	1.951760E-02	2.298461E-04
6.867836E+03	1.946239E-02	2.294183E-04
6.877633E+03	1.941411E-02	2.290712E-04
6.887430E+03	1.937122E-02	2.287868E-04
6.897227E+03	1.933247E-02	2.285508E-04
6.907025E+03	1.929737E-02	2.283572E-04
6.916822E+03	1.926432E-02	2.281873E-04
6.926619E+03	1.923362E-02	2.280449E-04
6.936416E+03	1.920441E-02	2.279196E-04
6.946213E+03	1.917669E-02	2.278118E-04
6.956011E+03	1.914920E-02	2.277064E-04
6.965808E+03	1.912240E-02	2.276088E-04
6.975605E+03	1.909496E-02	2.275034E-04
6.985402E+03	1.906737E-02	2.273958E-04
6.995199E+03	1.903882E-02	2.272767E-04
7.004997E+03	1.900913E-02	2.271436E-04
7.014794E+03	1.897827E-02	2.269963E-04
7.024591E+03	1.894642E-02	2.268368E-04
7.034388E+03	1.891436E-02	2.266745E-04
7.044185E+03	1.888165E-02	2.265043E-04
7.053983E+03	1.884922E-02	2.263370E-04
7.063780E+03	1.881794E-02	2.261835E-04
7.073577E+03	1.878729E-02	2.260372E-04
7.083374E+03	1.875840E-02	2.259120E-04
7.093171E+03	1.873108E-02	2.258056E-04
7.102969E+03	1.870509E-02	2.257153E-04
7.112766E+03	1.868156E-02	2.256546E-04
7.122563E+03	1.866023E-02	2.256207E-04
7.132360E+03	1.864084E-02	2.256104E-04
7.142157E+03	1.862440E-02	2.256361E-04
7.151955E+03	1.861046E-02	2.256924E-04
7.161752E+03	1.859849E-02	2.257731E-04
7.171549E+03	1.858924E-02	2.258873E-04
7.181346E+03	1.858206E-02	2.260273E-04
7.191143E+03	1.857623E-02	2.261843E-04
7.200941E+03	1.857234E-02	2.263658E-04
7.210738E+03	1.856949E-02	2.265607E-04
7.220535E+03	1.856659E-02	2.267557E-04
7.230332E+03	1.856373E-02	2.269523E-04
7.240129E+03	1.855902E-02	2.271269E-04
7.249927E+03	1.855177E-02	2.272714E-04
7.259724E+03	1.854124E-02	2.273764E-04
7.269521E+03	1.852531E-02	2.274161E-04
7.279318E+03	1.850338E-02	2.273825E-04
7.289115E+03	1.847451E-02	2.272642E-04
7.298913E+03	1.843796E-02	2.270516E-04
7.308710E+03	1.839318E-02	2.267379E-04
7.318507E+03	1.833939E-02	2.263129E-04
7.328304E+03	1.827751E-02	2.257878E-04
7.338101E+03	1.820684E-02	2.251536E-04
7.347899E+03	1.812886E-02	2.244283E-04
7.357696E+03	1.804343E-02	2.236099E-04
7.367493E+03	1.795208E-02	2.227171E-04
7.377290E+03	1.785602E-02	2.217647E-04
7.387087E+03	1.775663E-02	2.207696E-04
7.396884E+03	1.765490E-02	2.197440E-04
7.406682E+03	1.755330E-02	2.187187E-04
7.416479E+03	1.745246E-02	2.177015E-04
7.426276E+03	1.735448E-02	2.167186E-04
7.436073E+03	1.726100E-02	2.157907E-04
7.445870E+03	1.717310E-02	2.149315E-04
7.455668E+03	1.709311E-02	2.141704E-04
7.465465E+03	1.702114E-02	2.135090E-04
7.475262E+03	1.695825E-02	2.129608E-04
7.485059E+03	1.690456E-02	2.125279E-04
7.494856E+03	1.685989E-02	2.122083E-04
7.504654E+03	1.682332E-02	2.119908E-04
7.514451E+03	1.679515E-02	2.118792E-04
7.524248E+03	1.677356E-02	2.118513E-04
7.534045E+03	1.675761E-02	2.118951E-04
7.543842E+03	1.674727E-02	2.120106E-04
7.553640E+03	1.674065E-02	2.121740E-04
7.563437E+03	1.673736E-02	2.123806E-04
7.573234E+03	1.673666E-02	2.126210E-04
7.583031E+03	1.673792E-02	2.128873E-04
7.592828E+03	1.674019E-02	2.131675E-04
7.602626E+03	1.674359E-02	2.134633E-04
