#wls	flux	fluxerr
1.567552E+03	7.825575E-02	1.668586E-03
1.606740E+03	7.906540E-02	1.679646E-03
1.645929E+03	7.971544E-02	1.687064E-03
1.685118E+03	8.019751E-02	1.690698E-03
1.724307E+03	8.049647E-02	1.690266E-03
1.763496E+03	8.057273E-02	1.684983E-03
1.802684E+03	8.037549E-02	1.673847E-03
1.841873E+03	7.984623E-02	1.655715E-03
1.881062E+03	7.892805E-02	1.629503E-03
1.920251E+03	7.758830E-02	1.594650E-03
1.959440E+03	7.586045E-02	1.551964E-03
1.998628E+03	7.390571E-02	1.504847E-03
2.037817E+03	7.205489E-02	1.460078E-03
2.077006E+03	7.075928E-02	1.426735E-03
2.116195E+03	7.041112E-02	1.412526E-03
2.155384E+03	7.113983E-02	1.419748E-03
2.194572E+03	7.276362E-02	1.444449E-03
2.233761E+03	7.492474E-02	1.479274E-03
2.272950E+03	7.726858E-02	1.517074E-03
2.312139E+03	7.954165E-02	1.552828E-03
2.351328E+03	8.160293E-02	1.583809E-03
2.390516E+03	8.339391E-02	1.608950E-03
2.429705E+03	8.490383E-02	1.628130E-03
2.468894E+03	8.614481E-02	1.641670E-03
2.508083E+03	8.713832E-02	1.650070E-03
2.547271E+03	8.790582E-02	1.653818E-03
2.586460E+03	8.846750E-02	1.653375E-03
2.625649E+03	8.884012E-02	1.649127E-03
2.664838E+03	8.903753E-02	1.641404E-03
2.704027E+03	8.907007E-02	1.630464E-03
2.743215E+03	8.894629E-02	1.616532E-03
2.782404E+03	8.867358E-02	1.599807E-03
2.821593E+03	8.825764E-02	1.580458E-03
2.860782E+03	8.770364E-02	1.558642E-03
2.899971E+03	8.701695E-02	1.534518E-03
2.939159E+03	8.620300E-02	1.508247E-03
2.948957E+03	8.598070E-02	1.501369E-03
2.958754E+03	8.575068E-02	1.494367E-03
2.968551E+03	8.551369E-02	1.487253E-03
2.978348E+03	8.526999E-02	1.480033E-03
2.988145E+03	8.502266E-02	1.472762E-03
2.997943E+03	8.477484E-02	1.465494E-03
3.007740E+03	8.452500E-02	1.458203E-03
3.017537E+03	8.427302E-02	1.450887E-03
3.027334E+03	8.401762E-02	1.443526E-03
3.037131E+03	8.375889E-02	1.436120E-03
3.046929E+03	8.349602E-02	1.428657E-03
3.056726E+03	8.322859E-02	1.421130E-03
3.066523E+03	8.295633E-02	1.413535E-03
3.076320E+03	8.267926E-02	1.405873E-03
3.086117E+03	8.239663E-02	1.398133E-03
3.095915E+03	8.210896E-02	1.390324E-03
3.105712E+03	8.181581E-02	1.382438E-03
3.115509E+03	8.151724E-02	1.374479E-03
3.125306E+03	8.121362E-02	1.366453E-03
3.135103E+03	8.090442E-02	1.358351E-03
3.144901E+03	8.059069E-02	1.350192E-03
3.154698E+03	8.027167E-02	1.341965E-03
3.164495E+03	7.994825E-02	1.333685E-03
3.174292E+03	7.962035E-02	1.325351E-03
3.184089E+03	7.928822E-02	1.316967E-03
3.193887E+03	7.895256E-02	1.308547E-03
3.203684E+03	7.861365E-02	1.300096E-03
3.213481E+03	7.827126E-02	1.291610E-03
3.223278E+03	7.792663E-02	1.283110E-03
3.233075E+03	7.757936E-02	1.274591E-03
3.242873E+03	7.723065E-02	1.266072E-03
3.252670E+03	7.688008E-02	1.257546E-03
3.262467E+03	7.652905E-02	1.249038E-03
3.272264E+03	7.617730E-02	1.240543E-03
3.282061E+03	7.582527E-02	1.232069E-03
3.291859E+03	7.547375E-02	1.223628E-03
3.301656E+03	7.512319E-02	1.215228E-03
3.311453E+03	7.477405E-02	1.206877E-03
3.321250E+03	7.442636E-02	1.198575E-03
3.331047E+03	7.408100E-02	1.190337E-03
3.340845E+03	7.373835E-02	1.182168E-03
3.350642E+03	7.339858E-02	1.174071E-03
3.360439E+03	7.306233E-02	1.166056E-03
3.370236E+03	7.273022E-02	1.158132E-03
3.380033E+03	7.240258E-02	1.150306E-03
3.389831E+03	7.207994E-02	1.142585E-03
3.399628E+03	7.176284E-02	1.134977E-03
3.409425E+03	7.145187E-02	1.127491E-03
3.419222E+03	7.114723E-02	1.120129E-03
3.429019E+03	7.085030E-02	1.112914E-03
3.438816E+03	7.056118E-02	1.105846E-03
3.448614E+03	7.028130E-02	1.098946E-03
3.458411E+03	7.001121E-02	1.092222E-03
3.468208E+03	6.975171E-02	1.085687E-03
3.478005E+03	6.950352E-02	1.079350E-03
3.487802E+03	6.926684E-02	1.073214E-03
3.497600E+03	6.904148E-02	1.067274E-03
3.507397E+03	6.882710E-02	1.061524E-03
3.517194E+03	6.862256E-02	1.055945E-03
3.526991E+03	6.842721E-02	1.050528E-03
3.536788E+03	6.824038E-02	1.045261E-03
3.546586E+03	6.806169E-02	1.040136E-03
3.556383E+03	6.789046E-02	1.035143E-03
3.566180E+03	6.772656E-02	1.030280E-03
3.575977E+03	6.756927E-02	1.025534E-03
3.585774E+03	6.741828E-02	1.020901E-03
3.595572E+03	6.727377E-02	1.016381E-03
3.605369E+03	6.713512E-02	1.011966E-03
3.615166E+03	6.700255E-02	1.007659E-03
3.624963E+03	6.687591E-02	1.003455E-03
3.634760E+03	6.675477E-02	9.993497E-04
3.644558E+03	6.663940E-02	9.953449E-04
3.654355E+03	6.652970E-02	9.914393E-04
3.664152E+03	6.642548E-02	9.876293E-04
3.673949E+03	6.632704E-02	9.839192E-04
3.683746E+03	6.623448E-02	9.803097E-04
3.693544E+03	6.614799E-02	9.768033E-04
3.703341E+03	6.606790E-02	9.734043E-04
3.713138E+03	6.599410E-02	9.701107E-04
3.722935E+03	6.592739E-02	9.669336E-04
3.732732E+03	6.586832E-02	9.638805E-04
3.742530E+03	6.581601E-02	9.609381E-04
3.752327E+03	6.576973E-02	9.580949E-04
3.762124E+03	6.572698E-02	9.553144E-04
3.771921E+03	6.568575E-02	9.525673E-04
3.781718E+03	6.564236E-02	9.498003E-04
3.791516E+03	6.559418E-02	9.469757E-04
3.801313E+03	6.553774E-02	9.440442E-04
3.811110E+03	6.546889E-02	9.409474E-04
3.820907E+03	6.538512E-02	9.376501E-04
3.830704E+03	6.528385E-02	9.341175E-04
3.840502E+03	6.516319E-02	9.303244E-04
3.850299E+03	6.502231E-02	9.262608E-04
3.860096E+03	6.486020E-02	9.219143E-04
3.869893E+03	6.467643E-02	9.172813E-04
3.879690E+03	6.446998E-02	9.123493E-04
3.889488E+03	6.424043E-02	9.071146E-04
3.899285E+03	6.398643E-02	9.015607E-04
3.909082E+03	6.370776E-02	8.956864E-04
3.918879E+03	6.340443E-02	8.894947E-04
3.928676E+03	6.307898E-02	8.830231E-04
3.938474E+03	6.273344E-02	8.763022E-04
3.948271E+03	6.237136E-02	8.693833E-04
3.958068E+03	6.199715E-02	8.623294E-04
3.967865E+03	6.161493E-02	8.551987E-04
3.977662E+03	6.122921E-02	8.480543E-04
3.987460E+03	6.084607E-02	8.409807E-04
3.997257E+03	6.047178E-02	8.340640E-04
4.007054E+03	6.011330E-02	8.273995E-04
4.016851E+03	5.977644E-02	8.210657E-04
4.026648E+03	5.946665E-02	8.151352E-04
4.036446E+03	5.918613E-02	8.096361E-04
4.046243E+03	5.893172E-02	8.045228E-04
4.056040E+03	5.869606E-02	7.996931E-04
4.065837E+03	5.846939E-02	7.950127E-04
4.075634E+03	5.823696E-02	7.902809E-04
4.085432E+03	5.798470E-02	7.853077E-04
4.095229E+03	5.769950E-02	7.799176E-04
4.105026E+03	5.737241E-02	7.739924E-04
4.114823E+03	5.699939E-02	7.674812E-04
4.124620E+03	5.658125E-02	7.603985E-04
4.134418E+03	5.612378E-02	7.528252E-04
4.144215E+03	5.563751E-02	7.449053E-04
4.154012E+03	5.513658E-02	7.368298E-04
4.163809E+03	5.463713E-02	7.288148E-04
4.173606E+03	5.415629E-02	7.210884E-04
4.183404E+03	5.371204E-02	7.138879E-04
4.193201E+03	5.332139E-02	7.074364E-04
4.202998E+03	5.300016E-02	7.019393E-04
4.212795E+03	5.276209E-02	6.975736E-04
4.222592E+03	5.261788E-02	6.944746E-04
4.232390E+03	5.257608E-02	6.927490E-04
4.242187E+03	5.264224E-02	6.924631E-04
4.251984E+03	5.281716E-02	6.936203E-04
4.261781E+03	5.309838E-02	6.961816E-04
4.271578E+03	5.347585E-02	7.000089E-04
4.281376E+03	5.393237E-02	7.048717E-04
4.291173E+03	5.444159E-02	7.104217E-04
4.300970E+03	5.497059E-02	7.162271E-04
4.310767E+03	5.547821E-02	7.217521E-04
4.320564E+03	5.591869E-02	7.264040E-04
4.330362E+03	5.624927E-02	7.296323E-04
4.340159E+03	5.643319E-02	7.309675E-04
4.349956E+03	5.644419E-02	7.300785E-04
4.359753E+03	5.627372E-02	7.268642E-04
4.369550E+03	5.593157E-02	7.214606E-04
4.379348E+03	5.544214E-02	7.141906E-04
4.389145E+03	5.483886E-02	7.054915E-04
4.398942E+03	5.415817E-02	6.958366E-04
4.408739E+03	5.343578E-02	6.856876E-04
4.418536E+03	5.270424E-02	6.754627E-04
4.428333E+03	5.198948E-02	6.654936E-04
4.438131E+03	5.131253E-02	6.560477E-04
4.447928E+03	5.068748E-02	6.473026E-04
4.457725E+03	5.012368E-02	6.393745E-04
4.467522E+03	4.962518E-02	6.323120E-04
4.477319E+03	4.919179E-02	6.261093E-04
4.487117E+03	4.881771E-02	6.206895E-04
4.496914E+03	4.849483E-02	6.159470E-04
4.506711E+03	4.821313E-02	6.117521E-04
4.516508E+03	4.796032E-02	6.079475E-04
4.526305E+03	4.772513E-02	6.043889E-04
4.536103E+03	4.749604E-02	6.009300E-04
4.545900E+03	4.726327E-02	5.974465E-04
4.555697E+03	4.701918E-02	5.938419E-04
4.565494E+03	4.675804E-02	5.900441E-04
4.575291E+03	4.647766E-02	5.860259E-04
4.585089E+03	4.617771E-02	5.817834E-04
4.594886E+03	4.586194E-02	5.773640E-04
4.604683E+03	4.553476E-02	5.728232E-04
4.614480E+03	4.520256E-02	5.682412E-04
4.624277E+03	4.487012E-02	5.636776E-04
4.634075E+03	4.454054E-02	5.591707E-04
4.643872E+03	4.421527E-02	5.547383E-04
4.653669E+03	4.389744E-02	5.504188E-04
4.663466E+03	4.359053E-02	5.462553E-04
4.673263E+03	4.330096E-02	5.423274E-04
4.683061E+03	4.303677E-02	5.387349E-04
4.692858E+03	4.280918E-02	5.356174E-04
4.702655E+03	4.263039E-02	5.331263E-04
4.712452E+03	4.251369E-02	5.314264E-04
4.722249E+03	4.247362E-02	5.306983E-04
4.732047E+03	4.252384E-02	5.311111E-04
4.741844E+03	4.267925E-02	5.328493E-04
4.751641E+03	4.295324E-02	5.360783E-04
4.761438E+03	4.335844E-02	5.409546E-04
4.771235E+03	4.390539E-02	5.476079E-04
4.781033E+03	4.460036E-02	5.561152E-04
4.790830E+03	4.544204E-02	5.664589E-04
4.800627E+03	4.641486E-02	5.784442E-04
4.810424E+03	4.748171E-02	5.916079E-04
4.820221E+03	4.858625E-02	6.052484E-04
4.830019E+03	4.965698E-02	6.184754E-04
4.839816E+03	5.061045E-02	6.302507E-04
4.849613E+03	5.136420E-02	6.395490E-04
4.859410E+03	5.185300E-02	6.455594E-04
4.869207E+03	5.204587E-02	6.478979E-04
4.879005E+03	5.194102E-02	6.465432E-04
4.888802E+03	5.156435E-02	6.418182E-04
4.898599E+03	5.095869E-02	6.342565E-04
4.908396E+03	5.018028E-02	6.245574E-04
4.918193E+03	4.928516E-02	6.134180E-04
4.927991E+03	4.832616E-02	6.014951E-04
4.937788E+03	4.735000E-02	5.893693E-04
4.947585E+03	4.639499E-02	5.775168E-04
4.957382E+03	4.549005E-02	5.662968E-04
4.967179E+03	4.465601E-02	5.559681E-04
4.976977E+03	4.390416E-02	5.466708E-04
4.986774E+03	4.323671E-02	5.384322E-04
4.996571E+03	4.264909E-02	5.311954E-04
5.006368E+03	4.213426E-02	5.248726E-04
5.016165E+03	4.168347E-02	5.193549E-04
5.025963E+03	4.128766E-02	5.145294E-04
5.035760E+03	4.093961E-02	5.103062E-04
5.045557E+03	4.063393E-02	5.066182E-04
5.055354E+03	4.036618E-02	5.034103E-04
5.065151E+03	4.013467E-02	5.006615E-04
5.074949E+03	3.994018E-02	4.983817E-04
5.084746E+03	3.978301E-02	4.965750E-04
5.094543E+03	3.966208E-02	4.952279E-04
5.104340E+03	3.957430E-02	4.943026E-04
5.114137E+03	3.951455E-02	4.937351E-04
5.123935E+03	3.947573E-02	4.934370E-04
5.133732E+03	3.945141E-02	4.933284E-04
5.143529E+03	3.943468E-02	4.933229E-04
5.153326E+03	3.941859E-02	4.933337E-04
5.163123E+03	3.939644E-02	4.932766E-04
5.172921E+03	3.936192E-02	4.930729E-04
5.182718E+03	3.930973E-02	4.926555E-04
5.192515E+03	3.923589E-02	4.919744E-04
5.202312E+03	3.913778E-02	4.909962E-04
5.212109E+03	3.901608E-02	4.897289E-04
5.221907E+03	3.887273E-02	4.881964E-04
5.231704E+03	3.871134E-02	4.864433E-04
5.241501E+03	3.853504E-02	4.845088E-04
5.251298E+03	3.834553E-02	4.824132E-04
5.261095E+03	3.814343E-02	4.801640E-04
5.270893E+03	3.792878E-02	4.777610E-04
5.280690E+03	3.770281E-02	4.752190E-04
5.290487E+03	3.746583E-02	4.725416E-04
5.300284E+03	3.721858E-02	4.697374E-04
5.310081E+03	3.696183E-02	4.668156E-04
5.319879E+03	3.669641E-02	4.637862E-04
5.329676E+03	3.642333E-02	4.606613E-04
5.339473E+03	3.614388E-02	4.574568E-04
5.349270E+03	3.585989E-02	4.541955E-04
5.359067E+03	3.557392E-02	4.509095E-04
5.368865E+03	3.528966E-02	4.476450E-04
5.378662E+03	3.500994E-02	4.444379E-04
5.388459E+03	3.473830E-02	4.413330E-04
5.398256E+03	3.447702E-02	4.383594E-04
5.408053E+03	3.422749E-02	4.355347E-04
5.417850E+03	3.399021E-02	4.328656E-04
5.427648E+03	3.376491E-02	4.303486E-04
5.437445E+03	3.355095E-02	4.279759E-04
5.447242E+03	3.334797E-02	4.257429E-04
5.457039E+03	3.315618E-02	4.236526E-04
5.466836E+03	3.297630E-02	4.217143E-04
5.476634E+03	3.280939E-02	4.199419E-04
5.486431E+03	3.265644E-02	4.183484E-04
5.496228E+03	3.251932E-02	4.169578E-04
5.506025E+03	3.239811E-02	4.157718E-04
5.515822E+03	3.229191E-02	4.147791E-04
5.525620E+03	3.219953E-02	4.139651E-04
5.535417E+03	3.211874E-02	4.133011E-04
5.545214E+03	3.204535E-02	4.127337E-04
5.555011E+03	3.197564E-02	4.122150E-04
5.564808E+03	3.190741E-02	4.117166E-04
5.574606E+03	3.183873E-02	4.112138E-04
5.584403E+03	3.176886E-02	4.106966E-04
5.594200E+03	3.169835E-02	4.101722E-04
5.603997E+03	3.162767E-02	4.096466E-04
5.613794E+03	3.155712E-02	4.091235E-04
5.623592E+03	3.148633E-02	4.085982E-04
5.633389E+03	3.141363E-02	4.080486E-04
5.643186E+03	3.133760E-02	4.074565E-04
5.652983E+03	3.125703E-02	4.068058E-04
5.662780E+03	3.117155E-02	4.060914E-04
5.672578E+03	3.108266E-02	4.053327E-04
5.682375E+03	3.099243E-02	4.045564E-04
5.692172E+03	3.090373E-02	4.038000E-04
5.701969E+03	3.081937E-02	4.031005E-04
5.711766E+03	3.074252E-02	4.024991E-04
5.721564E+03	3.067471E-02	4.020163E-04
5.731361E+03	3.061748E-02	4.016727E-04
5.741158E+03	3.057167E-02	4.014796E-04
5.750955E+03	3.053757E-02	4.014415E-04
5.760752E+03	3.051601E-02	4.015695E-04
5.770550E+03	3.050665E-02	4.018596E-04
5.780347E+03	3.050936E-02	4.023107E-04
5.790144E+03	3.052284E-02	4.029062E-04
5.799941E+03	3.054434E-02	4.036100E-04
5.809738E+03	3.057028E-02	4.043753E-04
5.819536E+03	3.059648E-02	4.051468E-04
5.829333E+03	3.061793E-02	4.058581E-04
5.839130E+03	3.062894E-02	4.064336E-04
5.848927E+03	3.062629E-02	4.068302E-04
5.858724E+03	3.060572E-02	4.069903E-04
5.868522E+03	3.056515E-02	4.068859E-04
5.878319E+03	3.050424E-02	4.065114E-04
5.888116E+03	3.042277E-02	4.058632E-04
5.897913E+03	3.032177E-02	4.049537E-04
5.907710E+03	3.020308E-02	4.038072E-04
5.917508E+03	3.006790E-02	4.024387E-04
5.927305E+03	2.991773E-02	4.008677E-04
5.937102E+03	2.975450E-02	3.991192E-04
5.946899E+03	2.957964E-02	3.972121E-04
5.956696E+03	2.939560E-02	3.951788E-04
5.966494E+03	2.920566E-02	3.930628E-04
5.976291E+03	2.901263E-02	3.909018E-04
5.986088E+03	2.882005E-02	3.887434E-04
5.995885E+03	2.863175E-02	3.866394E-04
6.005682E+03	2.844958E-02	3.846149E-04
6.015480E+03	2.827586E-02	3.827017E-04
6.025277E+03	2.811064E-02	3.809008E-04
6.035074E+03	2.795357E-02	3.792078E-04
6.044871E+03	2.780405E-02	3.776151E-04
6.054668E+03	2.765988E-02	3.760928E-04
6.064466E+03	2.752043E-02	3.746330E-04
6.074263E+03	2.738417E-02	3.732149E-04
6.084060E+03	2.725037E-02	3.718284E-04
6.093857E+03	2.711871E-02	3.704693E-04
6.103654E+03	2.698934E-02	3.691397E-04
6.113452E+03	2.686292E-02	3.678486E-04
6.123249E+03	2.674078E-02	3.666141E-04
6.133046E+03	2.662485E-02	3.654628E-04
6.142843E+03	2.651784E-02	3.644324E-04
6.152640E+03	2.642147E-02	3.635468E-04
6.162438E+03	2.633886E-02	3.628492E-04
6.172235E+03	2.627275E-02	3.623782E-04
6.182032E+03	2.622382E-02	3.621439E-04
6.191829E+03	2.619278E-02	3.621569E-04
6.201626E+03	2.617877E-02	3.624060E-04
6.211424E+03	2.617955E-02	3.628612E-04
6.221221E+03	2.619196E-02	3.634791E-04
6.231018E+03	2.621066E-02	3.641861E-04
6.240815E+03	2.623104E-02	3.649184E-04
6.250612E+03	2.624974E-02	3.656292E-04
6.260410E+03	2.626283E-02	3.662634E-04
6.270207E+03	2.626743E-02	3.667806E-04
6.280004E+03	2.626341E-02	3.671784E-04
6.289801E+03	2.624990E-02	3.674443E-04
6.299598E+03	2.622781E-02	3.675901E-04
6.309396E+03	2.619785E-02	3.676256E-04
6.319193E+03	2.616107E-02	3.675651E-04
6.328990E+03	2.611876E-02	3.674262E-04
6.338787E+03	2.607411E-02	3.672536E-04
6.348584E+03	2.603066E-02	3.670968E-04
6.358382E+03	2.599250E-02	3.670138E-04
6.368179E+03	2.596429E-02	3.670708E-04
6.377976E+03	2.595040E-02	3.673298E-04
6.387773E+03	2.595545E-02	3.678573E-04
6.397570E+03	2.598234E-02	3.686953E-04
6.407367E+03	2.603424E-02	3.698900E-04
6.417165E+03	2.611126E-02	3.714440E-04
6.426962E+03	2.621290E-02	3.733519E-04
6.436759E+03	2.633835E-02	3.756030E-04
6.446556E+03	2.648392E-02	3.781462E-04
6.456353E+03	2.664588E-02	3.809290E-04
6.466151E+03	2.682062E-02	3.839007E-04
6.475948E+03	2.700191E-02	3.869726E-04
6.485745E+03	2.718373E-02	3.900585E-04
6.495542E+03	2.735987E-02	3.930695E-04
6.505339E+03	2.752306E-02	3.959005E-04
6.515137E+03	2.766515E-02	3.984334E-04
6.524934E+03	2.777896E-02	4.005637E-04
6.534731E+03	2.785692E-02	4.021805E-04
6.544528E+03	2.789360E-02	4.032032E-04
6.554325E+03	2.788445E-02	4.035641E-04
6.564123E+03	2.782611E-02	4.032120E-04
6.573920E+03	2.771759E-02	4.021297E-04
6.583717E+03	2.756025E-02	4.003344E-04
6.593514E+03	2.735605E-02	3.978521E-04
6.603311E+03	2.710954E-02	3.947464E-04
6.613109E+03	2.682585E-02	3.910899E-04
6.622906E+03	2.650977E-02	3.869507E-04
6.632703E+03	2.616899E-02	3.824393E-04
6.642500E+03	2.580827E-02	3.776240E-04
6.652297E+03	2.543534E-02	3.726172E-04
6.662095E+03	2.505477E-02	3.674851E-04
6.671892E+03	2.467313E-02	3.623238E-04
6.681689E+03	2.429481E-02	3.571979E-04
6.691486E+03	2.392426E-02	3.521730E-04
6.701283E+03	2.356433E-02	3.472917E-04
6.711081E+03	2.321858E-02	3.426069E-04
6.720878E+03	2.288960E-02	3.381575E-04
6.730675E+03	2.258030E-02	3.339879E-04
6.740472E+03	2.229335E-02	3.301383E-04
6.750269E+03	2.203143E-02	3.266497E-04
6.760067E+03	2.179567E-02	3.235404E-04
6.769864E+03	2.158712E-02	3.208273E-04
6.779661E+03	2.140472E-02	3.184962E-04
6.789458E+03	2.124678E-02	3.165231E-04
6.799255E+03	2.111076E-02	3.148716E-04
6.809053E+03	2.099389E-02	3.135015E-04
6.818850E+03	2.089214E-02	3.123536E-04
6.828647E+03	2.080215E-02	3.113784E-04
6.838444E+03	2.072134E-02	3.105379E-04
6.848241E+03	2.064816E-02	3.098093E-04
6.858039E+03	2.058048E-02	3.091611E-04
6.867836E+03	2.051705E-02	3.085750E-04
6.877633E+03	2.045688E-02	3.080360E-04
6.887430E+03	2.039940E-02	3.075360E-04
6.897227E+03	2.034280E-02	3.070477E-04
6.907025E+03	2.028701E-02	3.065702E-04
6.916822E+03	2.023093E-02	3.060868E-04
6.926619E+03	2.017473E-02	3.056002E-04
6.936416E+03	2.011758E-02	3.050979E-04
6.946213E+03	2.006067E-02	3.045979E-04
6.956011E+03	2.000377E-02	3.040967E-04
6.965808E+03	1.994840E-02	3.036176E-04
6.975605E+03	1.989446E-02	3.031589E-04
6.985402E+03	1.984181E-02	3.027189E-04
6.995199E+03	1.978995E-02	3.022898E-04
7.004997E+03	1.973866E-02	3.018686E-04
7.014794E+03	1.968631E-02	3.014304E-04
7.024591E+03	1.963320E-02	3.009794E-04
7.034388E+03	1.957806E-02	3.004965E-04
7.044185E+03	1.952180E-02	2.999954E-04
7.053983E+03	1.946422E-02	2.994731E-04
7.063780E+03	1.940576E-02	2.989363E-04
7.073577E+03	1.934702E-02	2.983942E-04
7.083374E+03	1.928868E-02	2.978574E-04
7.093171E+03	1.923152E-02	2.973380E-04
7.102969E+03	1.917641E-02	2.968496E-04
7.112766E+03	1.912425E-02	2.964064E-04
7.122563E+03	1.907589E-02	2.960214E-04
7.132360E+03	1.903197E-02	2.957054E-04
7.142157E+03	1.899296E-02	2.954654E-04
7.151955E+03	1.895896E-02	2.953037E-04
7.161752E+03	1.892974E-02	2.952170E-04
7.171549E+03	1.890481E-02	2.951979E-04
7.181346E+03	1.888358E-02	2.952374E-04
7.191143E+03	1.886543E-02	2.953261E-04
7.200941E+03	1.884976E-02	2.954550E-04
7.210738E+03	1.883603E-02	2.956157E-04
7.220535E+03	1.882378E-02	2.958010E-04
7.230332E+03	1.881244E-02	2.960024E-04
7.240129E+03	1.880075E-02	2.961998E-04
7.249927E+03	1.878848E-02	2.963899E-04
7.259724E+03	1.877371E-02	2.965422E-04
7.269521E+03	1.875428E-02	2.966225E-04
7.279318E+03	1.872920E-02	2.966150E-04
7.289115E+03	1.869563E-02	2.964742E-04
7.298913E+03	1.865239E-02	2.961809E-04
7.308710E+03	1.859829E-02	2.957156E-04
7.318507E+03	1.853261E-02	2.950663E-04
7.328304E+03	1.845516E-02	2.942294E-04
7.338101E+03	1.836635E-02	2.932102E-04
7.347899E+03	1.826705E-02	2.920224E-04
7.357696E+03	1.815807E-02	2.906781E-04
7.367493E+03	1.804203E-02	2.892186E-04
7.377290E+03	1.791987E-02	2.876587E-04
7.387087E+03	1.779409E-02	2.860379E-04
7.396884E+03	1.766679E-02	2.843901E-04
7.406682E+03	1.754009E-02	2.827492E-04
7.416479E+03	1.741561E-02	2.811414E-04
7.426276E+03	1.729636E-02	2.796155E-04
7.436073E+03	1.718343E-02	2.781893E-04
7.445870E+03	1.707922E-02	2.769026E-04
7.455668E+03	1.698564E-02	2.757864E-04
7.465465E+03	1.690384E-02	2.748601E-04
7.475262E+03	1.683565E-02	2.741546E-04
7.485059E+03	1.678032E-02	2.736581E-04
7.494856E+03	1.673763E-02	2.733683E-04
7.504654E+03	1.670622E-02	2.732634E-04
7.514451E+03	1.668367E-02	2.733048E-04
7.524248E+03	1.666868E-02	2.734715E-04
7.534045E+03	1.665829E-02	2.737156E-04
7.543842E+03	1.665104E-02	2.740134E-04
7.553640E+03	1.664687E-02	2.743638E-04
7.563437E+03	1.664404E-02	2.747385E-04
7.573234E+03	1.664279E-02	2.751413E-04
7.583031E+03	1.664111E-02	2.755392E-04
7.592828E+03	1.663993E-02	2.759474E-04
7.602626E+03	1.663794E-02	2.763442E-04
