#wls	flux	fluxerr
1.600000E+03	1.649307E-17	8.217260E-19
1.640000E+03	1.571081E-17	7.776585E-19
1.680000E+03	1.493842E-17	7.344782E-19
1.720000E+03	1.418414E-17	6.925931E-19
1.760000E+03	1.345317E-17	6.522511E-19
1.800000E+03	1.275074E-17	6.136948E-19
1.840000E+03	1.208426E-17	5.772623E-19
1.880000E+03	1.145357E-17	5.429211E-19
1.920000E+03	1.086945E-17	5.111515E-19
1.960000E+03	1.033247E-17	4.819404E-19
2.000000E+03	9.844602E-18	4.553366E-19
2.040000E+03	9.406781E-18	4.313358E-19
2.080000E+03	9.020628E-18	4.099615E-19
2.120000E+03	8.684965E-18	3.911062E-19
2.160000E+03	8.398105E-18	3.746393E-19
2.200000E+03	8.158280E-18	3.604275E-19
2.240000E+03	7.965593E-18	3.484198E-19
2.280000E+03	7.817956E-18	3.384681E-19
2.320000E+03	7.718960E-18	3.306694E-19
2.360000E+03	7.668036E-18	3.249352E-19
2.400000E+03	7.672135E-18	3.214913E-19
2.440000E+03	7.735985E-18	3.204555E-19
2.480000E+03	7.870506E-18	3.221873E-19
2.520000E+03	8.083194E-18	3.268832E-19
2.560000E+03	8.389116E-18	3.350236E-19
2.600000E+03	8.802643E-18	3.470269E-19
2.640000E+03	9.340160E-18	3.633555E-19
2.680000E+03	1.002169E-17	3.845720E-19
2.720000E+03	1.086807E-17	4.112210E-19
2.760000E+03	1.190632E-17	4.440264E-19
2.800000E+03	1.316359E-17	4.836499E-19
2.840000E+03	1.467314E-17	5.309056E-19
2.880000E+03	1.647631E-17	5.868120E-19
2.920000E+03	1.861760E-17	6.523929E-19
2.960000E+03	2.115883E-17	7.291561E-19
3.000000E+03	2.417007E-17	8.187329E-19
3.010000E+03	2.500925E-17	8.434622E-19
3.020000E+03	2.588426E-17	8.691368E-19
3.030000E+03	2.679663E-17	8.957905E-19
3.040000E+03	2.774793E-17	9.234581E-19
3.050000E+03	2.874351E-17	9.522988E-19
3.060000E+03	2.978159E-17	9.822327E-19
3.070000E+03	3.086791E-17	1.013428E-18
3.080000E+03	3.200060E-17	1.045802E-18
3.090000E+03	3.318581E-17	1.079531E-18
3.100000E+03	3.442589E-17	1.114668E-18
3.110000E+03	3.571892E-17	1.151125E-18
3.120000E+03	3.707156E-17	1.189089E-18
3.130000E+03	3.848643E-17	1.228617E-18
3.140000E+03	3.996138E-17	1.269610E-18
3.150000E+03	4.150858E-17	1.312425E-18
3.160000E+03	4.312607E-17	1.356966E-18
3.170000E+03	4.481131E-17	1.403120E-18
3.180000E+03	4.657735E-17	1.451261E-18
3.190000E+03	4.842165E-17	1.501272E-18
3.200000E+03	5.035245E-17	1.553370E-18
3.210000E+03	5.236079E-17	1.607238E-18
3.220000E+03	5.446035E-17	1.663258E-18
3.230000E+03	5.665343E-17	1.721455E-18
3.240000E+03	5.893552E-17	1.781649E-18
3.250000E+03	6.131409E-17	1.844022E-18
3.260000E+03	6.378318E-17	1.908350E-18
3.270000E+03	6.634930E-17	1.974782E-18
3.280000E+03	6.901883E-17	2.043461E-18
3.290000E+03	7.177576E-17	2.113867E-18
3.300000E+03	7.462402E-17	2.186073E-18
3.310000E+03	7.755913E-17	2.259903E-18
3.320000E+03	8.058300E-17	2.335374E-18
3.330000E+03	8.368012E-17	2.411994E-18
3.340000E+03	8.684897E-17	2.489685E-18
3.350000E+03	9.006937E-17	2.567838E-18
3.360000E+03	9.332674E-17	2.646014E-18
3.370000E+03	9.662202E-17	2.724223E-18
3.380000E+03	9.991818E-17	2.801408E-18
3.390000E+03	1.032116E-16	2.877468E-18
3.400000E+03	1.064591E-16	2.951208E-18
3.410000E+03	1.096526E-16	3.022430E-18
3.420000E+03	1.127535E-16	3.090100E-18
3.430000E+03	1.157408E-16	3.153689E-18
3.440000E+03	1.185726E-16	3.212118E-18
3.450000E+03	1.212263E-16	3.264854E-18
3.460000E+03	1.236697E-16	3.311123E-18
3.470000E+03	1.258722E-16	3.350210E-18
3.480000E+03	1.278056E-16	3.381484E-18
3.490000E+03	1.294554E-16	3.404694E-18
3.500000E+03	1.307814E-16	3.418927E-18
3.510000E+03	1.318002E-16	3.424767E-18
3.520000E+03	1.324842E-16	3.421649E-18
3.530000E+03	1.328426E-16	3.409973E-18
3.540000E+03	1.328821E-16	3.390063E-18
3.550000E+03	1.326142E-16	3.362364E-18
3.560000E+03	1.320543E-16	3.327411E-18
3.570000E+03	1.312289E-16	3.286009E-18
3.580000E+03	1.301573E-16	3.238760E-18
3.590000E+03	1.288529E-16	3.186115E-18
3.600000E+03	1.273585E-16	3.129231E-18
3.610000E+03	1.256837E-16	3.068432E-18
3.620000E+03	1.238720E-16	3.004855E-18
3.630000E+03	1.219405E-16	2.938975E-18
3.640000E+03	1.199181E-16	2.871540E-18
3.650000E+03	1.178211E-16	2.802980E-18
3.660000E+03	1.156602E-16	2.733577E-18
3.670000E+03	1.134341E-16	2.663336E-18
3.680000E+03	1.111639E-16	2.592773E-18
3.690000E+03	1.088293E-16	2.521440E-18
3.700000E+03	1.064502E-16	2.449822E-18
3.710000E+03	1.040207E-16	2.377806E-18
3.720000E+03	1.015620E-16	2.305894E-18
3.730000E+03	9.910574E-17	2.234812E-18
3.740000E+03	9.668542E-17	2.165309E-18
3.750000E+03	9.435266E-17	2.098515E-18
3.760000E+03	9.217869E-17	2.035963E-18
3.770000E+03	9.022408E-17	1.978907E-18
3.780000E+03	8.856822E-17	1.928973E-18
3.790000E+03	8.728791E-17	1.887685E-18
3.800000E+03	8.646371E-17	1.856599E-18
3.810000E+03	8.617066E-17	1.837105E-18
3.820000E+03	8.647834E-17	1.830433E-18
3.830000E+03	8.746238E-17	1.837897E-18
3.840000E+03	8.919323E-17	1.860657E-18
3.850000E+03	9.173993E-17	1.899803E-18
3.860000E+03	9.516914E-17	1.956336E-18
3.870000E+03	9.954654E-17	2.031196E-18
3.880000E+03	1.049254E-16	2.125034E-18
3.890000E+03	1.113396E-16	2.238080E-18
3.900000E+03	1.188083E-16	2.370254E-18
3.910000E+03	1.273194E-16	2.520844E-18
3.920000E+03	1.368058E-16	2.688071E-18
3.930000E+03	1.471655E-16	2.869517E-18
3.940000E+03	1.582408E-16	3.061748E-18
3.950000E+03	1.698298E-16	3.260580E-18
3.960000E+03	1.816796E-16	3.460981E-18
3.970000E+03	1.935159E-16	3.657669E-18
3.980000E+03	2.050639E-16	3.845510E-18
3.990000E+03	2.160473E-16	4.019517E-18
4.000000E+03	2.262245E-16	4.175494E-18
4.010000E+03	2.353999E-16	4.310241E-18
4.020000E+03	2.434099E-16	4.421247E-18
4.030000E+03	2.501434E-16	4.507039E-18
4.040000E+03	2.555393E-16	4.567104E-18
4.050000E+03	2.595549E-16	4.601285E-18
4.060000E+03	2.622132E-16	4.610599E-18
4.070000E+03	2.635447E-16	4.596181E-18
4.080000E+03	2.636377E-16	4.560140E-18
4.090000E+03	2.626030E-16	4.504916E-18
4.100000E+03	2.605986E-16	4.433684E-18
4.110000E+03	2.577917E-16	4.349685E-18
4.120000E+03	2.543883E-16	4.256702E-18
4.130000E+03	2.505895E-16	4.158328E-18
4.140000E+03	2.465988E-16	4.058078E-18
4.150000E+03	2.426041E-16	3.959092E-18
4.160000E+03	2.387586E-16	3.863853E-18
4.170000E+03	2.352026E-16	3.774550E-18
4.180000E+03	2.320307E-16	3.692569E-18
4.190000E+03	2.293237E-16	3.619035E-18
4.200000E+03	2.271286E-16	3.554499E-18
4.210000E+03	2.254743E-16	3.499209E-18
4.220000E+03	2.243736E-16	3.453156E-18
4.230000E+03	2.238462E-16	3.416436E-18
4.240000E+03	2.238994E-16	3.388948E-18
4.250000E+03	2.245354E-16	3.370517E-18
4.260000E+03	2.257582E-16	3.361001E-18
4.270000E+03	2.275719E-16	3.360260E-18
4.280000E+03	2.299629E-16	3.367901E-18
4.290000E+03	2.329073E-16	3.383394E-18
4.300000E+03	2.363582E-16	3.405896E-18
4.310000E+03	2.402367E-16	3.434130E-18
4.320000E+03	2.444193E-16	3.466238E-18
4.330000E+03	2.487199E-16	3.499532E-18
4.340000E+03	2.529039E-16	3.530741E-18
4.350000E+03	2.566749E-16	3.555837E-18
4.360000E+03	2.597171E-16	3.570648E-18
4.370000E+03	2.617527E-16	3.571653E-18
4.380000E+03	2.626005E-16	3.556737E-18
4.390000E+03	2.622480E-16	3.526111E-18
4.400000E+03	2.608293E-16	3.481937E-18
4.410000E+03	2.586162E-16	3.428129E-18
4.420000E+03	2.559788E-16	3.369783E-18
4.430000E+03	2.533448E-16	3.312602E-18
4.440000E+03	2.511019E-16	3.261617E-18
4.450000E+03	2.495707E-16	3.220859E-18
4.460000E+03	2.489831E-16	3.193125E-18
4.470000E+03	2.495055E-16	3.180317E-18
4.480000E+03	2.512404E-16	3.183484E-18
4.490000E+03	2.542492E-16	3.203132E-18
4.500000E+03	2.585750E-16	3.239522E-18
4.510000E+03	2.642328E-16	3.292573E-18
4.520000E+03	2.712200E-16	3.362000E-18
4.530000E+03	2.795215E-16	3.447380E-18
4.540000E+03	2.890894E-16	3.547905E-18
4.550000E+03	2.998480E-16	3.662455E-18
4.560000E+03	3.116750E-16	3.789369E-18
4.570000E+03	3.243811E-16	3.926214E-18
4.580000E+03	3.377209E-16	4.069926E-18
4.590000E+03	3.513749E-16	4.216603E-18
4.600000E+03	3.649554E-16	4.361598E-18
4.610000E+03	3.780356E-16	4.499862E-18
4.620000E+03	3.901762E-16	4.626277E-18
4.630000E+03	4.009653E-16	4.736115E-18
4.640000E+03	4.100640E-16	4.825566E-18
4.650000E+03	4.172239E-16	4.891931E-18
4.660000E+03	4.223270E-16	4.934058E-18
4.670000E+03	4.253638E-16	4.952066E-18
4.680000E+03	4.264359E-16	4.947354E-18
4.690000E+03	4.257084E-16	4.922027E-18
4.700000E+03	4.233795E-16	4.878541E-18
4.710000E+03	4.196527E-16	4.819376E-18
4.720000E+03	4.147035E-16	4.746658E-18
4.730000E+03	4.086690E-16	4.662051E-18
4.740000E+03	4.016689E-16	4.566997E-18
4.750000E+03	3.937851E-16	4.462496E-18
4.760000E+03	3.850995E-16	4.349539E-18
4.770000E+03	3.756898E-16	4.229059E-18
4.780000E+03	3.656544E-16	4.102215E-18
4.790000E+03	3.551067E-16	3.970326E-18
4.800000E+03	3.441993E-16	3.835130E-18
4.810000E+03	3.330889E-16	3.698397E-18
4.820000E+03	3.219778E-16	3.562376E-18
4.830000E+03	3.110625E-16	3.429231E-18
4.840000E+03	3.005690E-16	3.301418E-18
4.850000E+03	2.907294E-16	3.181427E-18
4.860000E+03	2.817806E-16	3.071762E-18
4.870000E+03	2.739557E-16	2.974846E-18
4.880000E+03	2.674866E-16	2.893051E-18
4.890000E+03	2.625841E-16	2.828471E-18
4.900000E+03	2.594393E-16	2.782954E-18
4.910000E+03	2.582161E-16	2.758009E-18
4.920000E+03	2.590299E-16	2.754594E-18
4.930000E+03	2.619551E-16	2.773200E-18
4.940000E+03	2.670014E-16	2.813612E-18
4.950000E+03	2.741027E-16	2.874801E-18
4.960000E+03	2.830979E-16	2.954751E-18
4.970000E+03	2.937284E-16	3.050452E-18
4.980000E+03	3.056201E-16	3.157746E-18
4.990000E+03	3.182872E-16	3.271395E-18
5.000000E+03	3.311624E-16	3.385427E-18
5.010000E+03	3.436217E-16	3.493418E-18
5.020000E+03	3.550526E-16	3.589204E-18
5.030000E+03	3.649238E-16	3.667585E-18
5.040000E+03	3.728460E-16	3.724911E-18
5.050000E+03	3.786216E-16	3.759549E-18
5.060000E+03	3.822941E-16	3.772303E-18
5.070000E+03	3.841134E-16	3.766009E-18
5.080000E+03	3.844913E-16	3.745029E-18
5.090000E+03	3.839601E-16	3.714801E-18
5.100000E+03	3.830735E-16	3.680833E-18
5.110000E+03	3.823388E-16	3.648051E-18
5.120000E+03	3.821951E-16	3.620600E-18
5.130000E+03	3.829369E-16	3.601144E-18
5.140000E+03	3.847489E-16	3.591239E-18
5.150000E+03	3.876785E-16	3.591111E-18
5.160000E+03	3.916725E-16	3.600050E-18
5.170000E+03	3.965875E-16	3.616530E-18
5.180000E+03	4.022364E-16	3.638675E-18
5.190000E+03	4.084057E-16	3.664425E-18
5.200000E+03	4.149002E-16	3.691948E-18
5.210000E+03	4.215706E-16	3.719876E-18
5.220000E+03	4.283170E-16	3.747324E-18
5.230000E+03	4.351123E-16	3.774071E-18
5.240000E+03	4.419754E-16	3.800304E-18
5.250000E+03	4.489645E-16	3.826548E-18
5.260000E+03	4.561507E-16	3.853419E-18
5.270000E+03	4.635798E-16	3.881311E-18
5.280000E+03	4.712424E-16	3.910150E-18
5.290000E+03	4.790873E-16	3.939528E-18
5.300000E+03	4.869803E-16	3.968386E-18
5.310000E+03	4.947340E-16	3.995277E-18
5.320000E+03	5.021006E-16	4.018339E-18
5.330000E+03	5.088068E-16	4.035582E-18
5.340000E+03	5.145721E-16	4.045042E-18
5.350000E+03	5.191309E-16	4.044954E-18
5.360000E+03	5.222521E-16	4.033887E-18
5.370000E+03	5.237538E-16	4.010845E-18
5.380000E+03	5.235148E-16	3.975331E-18
5.390000E+03	5.214803E-16	3.927364E-18
5.400000E+03	5.176955E-16	3.867702E-18
5.410000E+03	5.122851E-16	3.797660E-18
5.420000E+03	5.055029E-16	3.719448E-18
5.430000E+03	4.977447E-16	3.636230E-18
5.440000E+03	4.895418E-16	3.552051E-18
5.450000E+03	4.815658E-16	3.471840E-18
5.460000E+03	4.745825E-16	3.401073E-18
5.470000E+03	4.693437E-16	3.345003E-18
5.480000E+03	4.664591E-16	3.307781E-18
5.490000E+03	4.662498E-16	3.291477E-18
5.500000E+03	4.686513E-16	3.295466E-18
5.510000E+03	4.732025E-16	3.316414E-18
5.520000E+03	4.790018E-16	3.348005E-18
5.530000E+03	4.848096E-16	3.381677E-18
5.540000E+03	4.891992E-16	3.407614E-18
5.550000E+03	4.907856E-16	3.416219E-18
5.560000E+03	4.884395E-16	3.399607E-18
5.570000E+03	4.814474E-16	3.352695E-18
5.580000E+03	4.696083E-16	3.273848E-18
5.590000E+03	4.532400E-16	3.164938E-18
5.600000E+03	4.330894E-16	3.030758E-18
5.610000E+03	4.101999E-16	2.878151E-18
5.620000E+03	3.857072E-16	2.714641E-18
5.630000E+03	3.607153E-16	2.547609E-18
5.640000E+03	3.361770E-16	2.383480E-18
5.650000E+03	3.128355E-16	2.227313E-18
5.660000E+03	2.912422E-16	2.082917E-18
5.670000E+03	2.717695E-16	1.952934E-18
5.680000E+03	2.546559E-16	1.839126E-18
5.690000E+03	2.400457E-16	1.742652E-18
5.700000E+03	2.280250E-16	1.664304E-18
5.710000E+03	2.186388E-16	1.604621E-18
5.720000E+03	2.119234E-16	1.564115E-18
5.730000E+03	2.079109E-16	1.543296E-18
5.740000E+03	2.066416E-16	1.542761E-18
5.750000E+03	2.081739E-16	1.563265E-18
5.760000E+03	2.125909E-16	1.605768E-18
5.770000E+03	2.200024E-16	1.671457E-18
5.780000E+03	2.305543E-16	1.761813E-18
5.790000E+03	2.444170E-16	1.878529E-18
5.800000E+03	2.617763E-16	2.023442E-18
5.810000E+03	2.828222E-16	2.198442E-18
5.820000E+03	3.077109E-16	2.405176E-18
5.830000E+03	3.365365E-16	2.644806E-18
5.840000E+03	3.692816E-16	2.917611E-18
5.850000E+03	4.057702E-16	3.222579E-18
5.860000E+03	4.456203E-16	3.556997E-18
5.870000E+03	4.882098E-16	3.916135E-18
5.880000E+03	5.326569E-16	4.293045E-18
5.890000E+03	5.778483E-16	4.678747E-18
5.900000E+03	6.224627E-16	5.062384E-18
5.910000E+03	6.650907E-16	5.432187E-18
5.920000E+03	7.042973E-16	5.775983E-18
5.930000E+03	7.387870E-16	6.082571E-18
5.940000E+03	7.674901E-16	6.342484E-18
5.950000E+03	7.896762E-16	6.548981E-18
5.960000E+03	8.050019E-16	6.698510E-18
5.970000E+03	8.135081E-16	6.790744E-18
5.980000E+03	8.155931E-16	6.828425E-18
5.990000E+03	8.119368E-16	6.816755E-18
6.000000E+03	8.033670E-16	6.762304E-18
6.010000E+03	7.908360E-16	6.672820E-18
6.020000E+03	7.752802E-16	6.556035E-18
6.030000E+03	7.575946E-16	6.419437E-18
6.040000E+03	7.385778E-16	6.269781E-18
6.050000E+03	7.189508E-16	6.113233E-18
6.060000E+03	6.993242E-16	5.955065E-18
6.070000E+03	6.801996E-16	5.799658E-18
6.080000E+03	6.619806E-16	5.650577E-18
6.090000E+03	6.449894E-16	5.510698E-18
6.100000E+03	6.294452E-16	5.382020E-18
6.110000E+03	6.154886E-16	5.265865E-18
6.120000E+03	6.031823E-16	5.162877E-18
6.130000E+03	5.925197E-16	5.073096E-18
6.140000E+03	5.834305E-16	4.996002E-18
6.150000E+03	5.758152E-16	4.930817E-18
6.160000E+03	5.695287E-16	4.876361E-18
6.170000E+03	5.643982E-16	4.831207E-18
6.180000E+03	5.602470E-16	4.793893E-18
6.190000E+03	5.568877E-16	4.762859E-18
6.200000E+03	5.541073E-16	4.736329E-18
6.210000E+03	5.517046E-16	4.712628E-18
6.220000E+03	5.494589E-16	4.689922E-18
6.230000E+03	5.471403E-16	4.666301E-18
6.240000E+03	5.445528E-16	4.640155E-18
6.250000E+03	5.415355E-16	4.610180E-18
6.260000E+03	5.379863E-16	4.575580E-18
6.270000E+03	5.338820E-16	4.536232E-18
6.280000E+03	5.292788E-16	4.492691E-18
6.290000E+03	5.243231E-16	4.446277E-18
6.300000E+03	5.192846E-16	4.399346E-18
6.310000E+03	5.144995E-16	4.354811E-18
6.320000E+03	5.103913E-16	4.316310E-18
6.330000E+03	5.073876E-16	4.287505E-18
6.340000E+03	5.058987E-16	4.271906E-18
6.350000E+03	5.062120E-16	4.271980E-18
6.360000E+03	5.084890E-16	4.289137E-18
6.370000E+03	5.127033E-16	4.323216E-18
6.380000E+03	5.186505E-16	4.372569E-18
6.390000E+03	5.259523E-16	4.434106E-18
6.400000E+03	5.341310E-16	4.503914E-18
6.410000E+03	5.426286E-16	4.577413E-18
6.420000E+03	5.508743E-16	4.649923E-18
6.430000E+03	5.583580E-16	4.717265E-18
6.440000E+03	5.646435E-16	4.775868E-18
6.450000E+03	5.693881E-16	4.822924E-18
6.460000E+03	5.723651E-16	4.856574E-18
6.470000E+03	5.734602E-16	4.875877E-18
6.480000E+03	5.727005E-16	4.881057E-18
6.490000E+03	5.702424E-16	4.873412E-18
6.500000E+03	5.663845E-16	4.855436E-18
6.510000E+03	5.615402E-16	4.830611E-18
6.520000E+03	5.561827E-16	4.802928E-18
6.530000E+03	5.507786E-16	4.776280E-18
6.540000E+03	5.457708E-16	4.754406E-18
6.550000E+03	5.415536E-16	4.740688E-18
6.560000E+03	5.384808E-16	4.738234E-18
6.570000E+03	5.368486E-16	4.749724E-18
6.580000E+03	5.369407E-16	4.777803E-18
6.590000E+03	5.389898E-16	4.824743E-18
6.600000E+03	5.431446E-16	4.892136E-18
6.610000E+03	5.494455E-16	4.980653E-18
6.620000E+03	5.577943E-16	5.089730E-18
6.630000E+03	5.679378E-16	5.217382E-18
6.640000E+03	5.794995E-16	5.360435E-18
6.650000E+03	5.919631E-16	5.514327E-18
6.660000E+03	6.047305E-16	5.673602E-18
6.670000E+03	6.171498E-16	5.832131E-18
6.680000E+03	6.285900E-16	5.983802E-18
6.690000E+03	6.384380E-16	6.122489E-18
6.700000E+03	6.461964E-16	6.242995E-18
6.710000E+03	6.514585E-16	6.340856E-18
6.720000E+03	6.539874E-16	6.413134E-18
6.730000E+03	6.536744E-16	6.458086E-18
6.740000E+03	6.505727E-16	6.475534E-18
6.750000E+03	6.448520E-16	6.466483E-18
6.760000E+03	6.367949E-16	6.433124E-18
6.770000E+03	6.267598E-16	6.378507E-18
6.780000E+03	6.151179E-16	6.305925E-18
6.790000E+03	6.022400E-16	6.218785E-18
6.800000E+03	5.884416E-16	6.120032E-18
6.810000E+03	5.739672E-16	6.011978E-18
6.820000E+03	5.589806E-16	5.896157E-18
6.830000E+03	5.435962E-16	5.773639E-18
6.840000E+03	5.278860E-16	5.645082E-18
6.850000E+03	5.119273E-16	5.511230E-18
6.860000E+03	4.958152E-16	5.373050E-18
6.870000E+03	4.797282E-16	5.232454E-18
6.880000E+03	4.639197E-16	5.092233E-18
6.890000E+03	4.487250E-16	4.956155E-18
6.900000E+03	4.345449E-16	4.828816E-18
6.910000E+03	4.218249E-16	4.715415E-18
6.920000E+03	4.110069E-16	4.621227E-18
6.930000E+03	4.025100E-16	4.551374E-18
6.940000E+03	3.967186E-16	4.510678E-18
6.950000E+03	3.939360E-16	4.503112E-18
6.960000E+03	3.943981E-16	4.531928E-18
6.970000E+03	3.982422E-16	4.599267E-18
6.980000E+03	4.055340E-16	4.706444E-18
6.990000E+03	4.162218E-16	4.853386E-18
7.000000E+03	4.301656E-16	5.038941E-18
7.010000E+03	4.470971E-16	5.260384E-18
7.020000E+03	4.666096E-16	5.513264E-18
7.030000E+03	4.881871E-16	5.791724E-18
7.040000E+03	5.111669E-16	6.088033E-18
7.050000E+03	5.348049E-16	6.393342E-18
7.060000E+03	5.582665E-16	6.697572E-18
7.070000E+03	5.806964E-16	6.990250E-18
7.080000E+03	6.012674E-16	7.261108E-18
7.090000E+03	6.192469E-16	7.500916E-18
7.100000E+03	6.340223E-16	7.701816E-18
7.110000E+03	6.451980E-16	7.858551E-18
7.120000E+03	6.525633E-16	7.968105E-18
7.130000E+03	6.561626E-16	8.030612E-18
7.140000E+03	6.562264E-16	8.048539E-18
7.150000E+03	6.531711E-16	8.026709E-18
7.160000E+03	6.475451E-16	7.971656E-18
7.170000E+03	6.399753E-16	7.890965E-18
7.180000E+03	6.311140E-16	7.792613E-18
7.190000E+03	6.215905E-16	7.684363E-18
7.200000E+03	6.119816E-16	7.573376E-18
7.210000E+03	6.027545E-16	7.465491E-18
7.220000E+03	5.943072E-16	7.365708E-18
7.230000E+03	5.869026E-16	7.277357E-18
7.240000E+03	5.807321E-16	7.202876E-18
7.250000E+03	5.758696E-16	7.143231E-18
7.260000E+03	5.723082E-16	7.098369E-18
7.270000E+03	5.699595E-16	7.067212E-18
7.280000E+03	5.686676E-16	7.047828E-18
7.290000E+03	5.681859E-16	7.037148E-18
7.300000E+03	5.682369E-16	7.031724E-18
7.310000E+03	5.684746E-16	7.027256E-18
7.320000E+03	5.685318E-16	7.019204E-18
7.330000E+03	5.680454E-16	7.003100E-18
7.340000E+03	5.666634E-16	6.974645E-18
7.350000E+03	5.640971E-16	6.930359E-18
7.360000E+03	5.601402E-16	6.867813E-18
7.370000E+03	5.546929E-16	6.785924E-18
7.380000E+03	5.477383E-16	6.684649E-18
7.390000E+03	5.393841E-16	6.565489E-18
7.400000E+03	5.298000E-16	6.430702E-18
7.410000E+03	5.191925E-16	6.282989E-18
7.420000E+03	5.078117E-16	6.125560E-18
7.430000E+03	4.958988E-16	5.961491E-18
7.440000E+03	4.836809E-16	5.793660E-18
7.450000E+03	4.713345E-16	5.624305E-18
7.460000E+03	4.590199E-16	5.455444E-18
7.470000E+03	4.468562E-16	5.288574E-18
7.480000E+03	4.349316E-16	5.124804E-18
7.490000E+03	4.233092E-16	4.964928E-18
7.500000E+03	4.120321E-16	4.809488E-18
7.510000E+03	4.011282E-16	4.658834E-18
7.520000E+03	3.906129E-16	4.513163E-18
7.530000E+03	3.804868E-16	4.372490E-18
7.540000E+03	3.707574E-16	4.236904E-18
7.550000E+03	3.614056E-16	4.106188E-18
7.560000E+03	3.524233E-16	3.980245E-18
7.570000E+03	3.437978E-16	3.858925E-18
7.580000E+03	3.355173E-16	3.742088E-18
7.590000E+03	3.275867E-16	3.629781E-18
7.600000E+03	3.200371E-16	3.522327E-18
7.610000E+03	3.129048E-16	3.420096E-18
7.620000E+03	3.062585E-16	3.323797E-18
7.630000E+03	3.001895E-16	3.234353E-18
7.640000E+03	2.948114E-16	3.152893E-18
7.650000E+03	2.902441E-16	3.080571E-18
7.660000E+03	2.866027E-16	3.018450E-18
7.670000E+03	2.840122E-16	2.967645E-18
7.680000E+03	2.825722E-16	2.928973E-18
7.690000E+03	2.823665E-16	2.903039E-18
7.700000E+03	2.834576E-16	2.890208E-18
7.710000E+03	2.858710E-16	2.890444E-18
7.720000E+03	2.896032E-16	2.903413E-18
7.730000E+03	2.946140E-16	2.928419E-18
7.740000E+03	3.008272E-16	2.964429E-18
7.750000E+03	3.081139E-16	3.009928E-18
7.760000E+03	3.163016E-16	3.063033E-18
