#wls	flux	fluxerr
1.600000E+03	8.590473E-18	1.652447E-19
1.640000E+03	8.324697E-18	1.596088E-19
1.680000E+03	8.066931E-18	1.541473E-19
1.720000E+03	7.817348E-18	1.488629E-19
1.760000E+03	7.580403E-18	1.438395E-19
1.800000E+03	7.357525E-18	1.391024E-19
1.840000E+03	7.148849E-18	1.346521E-19
1.880000E+03	6.957108E-18	1.305377E-19
1.920000E+03	6.783638E-18	1.267814E-19
1.960000E+03	6.629746E-18	1.234039E-19
2.000000E+03	6.497853E-18	1.204465E-19
2.040000E+03	6.388085E-18	1.179068E-19
2.080000E+03	6.302886E-18	1.158249E-19
2.120000E+03	6.244727E-18	1.142404E-19
2.160000E+03	6.214127E-18	1.131561E-19
2.200000E+03	6.214001E-18	1.126180E-19
2.240000E+03	6.246566E-18	1.126580E-19
2.280000E+03	6.315545E-18	1.133340E-19
2.320000E+03	6.424234E-18	1.146944E-19
2.360000E+03	6.577716E-18	1.168178E-19
2.400000E+03	6.779902E-18	1.197597E-19
2.440000E+03	7.039988E-18	1.236664E-19
2.480000E+03	7.363187E-18	1.286103E-19
2.520000E+03	7.760493E-18	1.347613E-19
2.560000E+03	8.243705E-18	1.422982E-19
2.600000E+03	8.825520E-18	1.514089E-19
2.640000E+03	9.523506E-18	1.623581E-19
2.680000E+03	1.035408E-17	1.753820E-19
2.720000E+03	1.134204E-17	1.908491E-19
2.760000E+03	1.251144E-17	2.091023E-19
2.800000E+03	1.389102E-17	2.305496E-19
2.840000E+03	1.551471E-17	2.556685E-19
2.880000E+03	1.741773E-17	2.849386E-19
2.920000E+03	1.963937E-17	3.188856E-19
2.960000E+03	2.221958E-17	3.580231E-19
3.000000E+03	2.519618E-17	4.028061E-19
3.010000E+03	2.600339E-17	4.148824E-19
3.020000E+03	2.684153E-17	4.273963E-19
3.030000E+03	2.770522E-17	4.402591E-19
3.040000E+03	2.859751E-17	4.535165E-19
3.050000E+03	2.951553E-17	4.671196E-19
3.060000E+03	3.046540E-17	4.811627E-19
3.070000E+03	3.144092E-17	4.955442E-19
3.080000E+03	3.244505E-17	5.103080E-19
3.090000E+03	3.347756E-17	5.254474E-19
3.100000E+03	3.453811E-17	5.409537E-19
3.110000E+03	3.562623E-17	5.568165E-19
3.120000E+03	3.674130E-17	5.730230E-19
3.130000E+03	3.788255E-17	5.895581E-19
3.140000E+03	3.904908E-17	6.064048E-19
3.150000E+03	4.024360E-17	6.236020E-19
3.160000E+03	4.146120E-17	6.410708E-19
3.170000E+03	4.269649E-17	6.587251E-19
3.180000E+03	4.395970E-17	6.767201E-19
3.190000E+03	4.523715E-17	6.948426E-19
3.200000E+03	4.653917E-17	7.132487E-19
3.210000E+03	4.785121E-17	7.317134E-19
3.220000E+03	4.917935E-17	7.503275E-19
3.230000E+03	5.052119E-17	7.690526E-19
3.240000E+03	5.186972E-17	7.877804E-19
3.250000E+03	5.323105E-17	8.066022E-19
3.260000E+03	5.459329E-17	8.253365E-19
3.270000E+03	5.595320E-17	8.439338E-19
3.280000E+03	5.731677E-17	8.624843E-19
3.290000E+03	5.867612E-17	8.808685E-19
3.300000E+03	6.002298E-17	8.989629E-19
3.310000E+03	6.136342E-17	9.168590E-19
3.320000E+03	6.268913E-17	9.344330E-19
3.330000E+03	6.399655E-17	9.516333E-19
3.340000E+03	6.528712E-17	9.684829E-19
3.350000E+03	6.655243E-17	9.848586E-19
3.360000E+03	6.778908E-17	1.000713E-18
3.370000E+03	6.899887E-17	1.016074E-18
3.380000E+03	7.017878E-17	1.030902E-18
3.390000E+03	7.132085E-17	1.045082E-18
3.400000E+03	7.242757E-17	1.058653E-18
3.410000E+03	7.349658E-17	1.071587E-18
3.420000E+03	7.452072E-17	1.083781E-18
3.430000E+03	7.550858E-17	1.095366E-18
3.440000E+03	7.645368E-17	1.106252E-18
3.450000E+03	7.735506E-17	1.116429E-18
3.460000E+03	7.821730E-17	1.125967E-18
3.470000E+03	7.903005E-17	1.134723E-18
3.480000E+03	7.980382E-17	1.142852E-18
3.490000E+03	8.053929E-17	1.150369E-18
3.500000E+03	8.123760E-17	1.157293E-18
3.510000E+03	8.189529E-17	1.163579E-18
3.520000E+03	8.251949E-17	1.169333E-18
3.530000E+03	8.311277E-17	1.174596E-18
3.540000E+03	8.367812E-17	1.179412E-18
3.550000E+03	8.421876E-17	1.183830E-18
3.560000E+03	8.473728E-17	1.187889E-18
3.570000E+03	8.524009E-17	1.191681E-18
3.580000E+03	8.572340E-17	1.195156E-18
3.590000E+03	8.619300E-17	1.198395E-18
3.600000E+03	8.664554E-17	1.201354E-18
3.610000E+03	8.709195E-17	1.204186E-18
3.620000E+03	8.752488E-17	1.206791E-18
3.630000E+03	8.795109E-17	1.209262E-18
3.640000E+03	8.837283E-17	1.211631E-18
3.650000E+03	8.879697E-17	1.213993E-18
3.660000E+03	8.922153E-17	1.216320E-18
3.670000E+03	8.964914E-17	1.218648E-18
3.680000E+03	9.008674E-17	1.221071E-18
3.690000E+03	9.053265E-17	1.223565E-18
3.700000E+03	9.099791E-17	1.226277E-18
3.710000E+03	9.147650E-17	1.229124E-18
3.720000E+03	9.197907E-17	1.232247E-18
3.730000E+03	9.249948E-17	1.235562E-18
3.740000E+03	9.304776E-17	1.239200E-18
3.750000E+03	9.362137E-17	1.243123E-18
3.760000E+03	9.422545E-17	1.247397E-18
3.770000E+03	9.485673E-17	1.251975E-18
3.780000E+03	9.551934E-17	1.256908E-18
3.790000E+03	9.621286E-17	1.262187E-18
3.800000E+03	9.693627E-17	1.267794E-18
3.810000E+03	9.768784E-17	1.273703E-18
3.820000E+03	9.846886E-17	1.279928E-18
3.830000E+03	9.926861E-17	1.286327E-18
3.840000E+03	1.000905E-16	1.292940E-18
3.850000E+03	1.009259E-16	1.299654E-18
3.860000E+03	1.017730E-16	1.306444E-18
3.870000E+03	1.026250E-16	1.313221E-18
3.880000E+03	1.034748E-16	1.319896E-18
3.890000E+03	1.043113E-16	1.326327E-18
3.900000E+03	1.051299E-16	1.332456E-18
3.910000E+03	1.059260E-16	1.338228E-18
3.920000E+03	1.066846E-16	1.343457E-18
3.930000E+03	1.074055E-16	1.348146E-18
3.940000E+03	1.080795E-16	1.352182E-18
3.950000E+03	1.087023E-16	1.355521E-18
3.960000E+03	1.092751E-16	1.358180E-18
3.970000E+03	1.097901E-16	1.360073E-18
3.980000E+03	1.102570E-16	1.361324E-18
3.990000E+03	1.106704E-16	1.361873E-18
4.000000E+03	1.110321E-16	1.361750E-18
4.010000E+03	1.113464E-16	1.361013E-18
4.020000E+03	1.116114E-16	1.359647E-18
4.030000E+03	1.118273E-16	1.357657E-18
4.040000E+03	1.119941E-16	1.355053E-18
4.050000E+03	1.121083E-16	1.351797E-18
4.060000E+03	1.121602E-16	1.347779E-18
4.070000E+03	1.121526E-16	1.343043E-18
4.080000E+03	1.120830E-16	1.337565E-18
4.090000E+03	1.119590E-16	1.331443E-18
4.100000E+03	1.117943E-16	1.324846E-18
4.110000E+03	1.116189E-16	1.318137E-18
4.120000E+03	1.114597E-16	1.311631E-18
4.130000E+03	1.113543E-16	1.305767E-18
4.140000E+03	1.113462E-16	1.301049E-18
4.150000E+03	1.114720E-16	1.297890E-18
4.160000E+03	1.117734E-16	1.296758E-18
4.170000E+03	1.122861E-16	1.298043E-18
4.180000E+03	1.130348E-16	1.302005E-18
4.190000E+03	1.140442E-16	1.308898E-18
4.200000E+03	1.153304E-16	1.318874E-18
4.210000E+03	1.169003E-16	1.331977E-18
4.220000E+03	1.187643E-16	1.348292E-18
4.230000E+03	1.209281E-16	1.367845E-18
4.240000E+03	1.234001E-16	1.390696E-18
4.250000E+03	1.261971E-16	1.416994E-18
4.260000E+03	1.293405E-16	1.446941E-18
4.270000E+03	1.328514E-16	1.480728E-18
4.280000E+03	1.367493E-16	1.518528E-18
4.290000E+03	1.410453E-16	1.560417E-18
4.300000E+03	1.457351E-16	1.606298E-18
4.310000E+03	1.507817E-16	1.655719E-18
4.320000E+03	1.561135E-16	1.707854E-18
4.330000E+03	1.616074E-16	1.761326E-18
4.340000E+03	1.670916E-16	1.814254E-18
4.350000E+03	1.723407E-16	1.864200E-18
4.360000E+03	1.770908E-16	1.908353E-18
4.370000E+03	1.810536E-16	1.943679E-18
4.380000E+03	1.839917E-16	1.967739E-18
4.390000E+03	1.857613E-16	1.979126E-18
4.400000E+03	1.863956E-16	1.978338E-18
4.410000E+03	1.860970E-16	1.967650E-18
4.420000E+03	1.851761E-16	1.950452E-18
4.430000E+03	1.839717E-16	1.930371E-18
4.440000E+03	1.828091E-16	1.910844E-18
4.450000E+03	1.819795E-16	1.894898E-18
4.460000E+03	1.817236E-16	1.884991E-18
4.470000E+03	1.822335E-16	1.883040E-18
4.480000E+03	1.836749E-16	1.890659E-18
4.490000E+03	1.861923E-16	1.909222E-18
4.500000E+03	1.899023E-16	1.939795E-18
4.510000E+03	1.949114E-16	1.983323E-18
4.520000E+03	2.012858E-16	2.040325E-18
4.530000E+03	2.090699E-16	2.111094E-18
4.540000E+03	2.182491E-16	2.195321E-18
4.550000E+03	2.287313E-16	2.291925E-18
4.560000E+03	2.403418E-16	2.399015E-18
4.570000E+03	2.528167E-16	2.513839E-18
4.580000E+03	2.658031E-16	2.632808E-18
4.590000E+03	2.788612E-16	2.751529E-18
4.600000E+03	2.914819E-16	2.864994E-18
4.610000E+03	3.031489E-16	2.968201E-18
4.620000E+03	3.133409E-16	3.056178E-18
4.630000E+03	3.216092E-16	3.124737E-18
4.640000E+03	3.276273E-16	3.170937E-18
4.650000E+03	3.312139E-16	3.193284E-18
4.660000E+03	3.323603E-16	3.191967E-18
4.670000E+03	3.312327E-16	3.168850E-18
4.680000E+03	3.281456E-16	3.127182E-18
4.690000E+03	3.234953E-16	3.070940E-18
4.700000E+03	3.177116E-16	3.004361E-18
4.710000E+03	3.112118E-16	2.931496E-18
4.720000E+03	3.043306E-16	2.855565E-18
4.730000E+03	2.972960E-16	2.778736E-18
4.740000E+03	2.902381E-16	2.702235E-18
4.750000E+03	2.832207E-16	2.626654E-18
4.760000E+03	2.762504E-16	2.552047E-18
4.770000E+03	2.692879E-16	2.478045E-18
4.780000E+03	2.622894E-16	2.404243E-18
4.790000E+03	2.551996E-16	2.330138E-18
4.800000E+03	2.479666E-16	2.255265E-18
4.810000E+03	2.405653E-16	2.179410E-18
4.820000E+03	2.329887E-16	2.102526E-18
4.830000E+03	2.252763E-16	2.024983E-18
4.840000E+03	2.175222E-16	1.947635E-18
4.850000E+03	2.098849E-16	1.871898E-18
4.860000E+03	2.025673E-16	1.799562E-18
4.870000E+03	1.958076E-16	1.732696E-18
4.880000E+03	1.898622E-16	1.673502E-18
4.890000E+03	1.849937E-16	1.624197E-18
4.900000E+03	1.814536E-16	1.586869E-18
4.910000E+03	1.794803E-16	1.563455E-18
4.920000E+03	1.792948E-16	1.555712E-18
4.930000E+03	1.810828E-16	1.565062E-18
4.940000E+03	1.849887E-16	1.592547E-18
4.950000E+03	1.910984E-16	1.638691E-18
4.960000E+03	1.994176E-16	1.703323E-18
4.970000E+03	2.098271E-16	1.785209E-18
4.980000E+03	2.220435E-16	1.881743E-18
4.990000E+03	2.355736E-16	1.988587E-18
5.000000E+03	2.496858E-16	2.099465E-18
5.010000E+03	2.634254E-16	2.206332E-18
5.020000E+03	2.757196E-16	2.300282E-18
5.030000E+03	2.855180E-16	2.372733E-18
5.040000E+03	2.919634E-16	2.416842E-18
5.050000E+03	2.945828E-16	2.429037E-18
5.060000E+03	2.934187E-16	2.410040E-18
5.070000E+03	2.890054E-16	2.364588E-18
5.080000E+03	2.822519E-16	2.300398E-18
5.090000E+03	2.742947E-16	2.226917E-18
5.100000E+03	2.663057E-16	2.153733E-18
5.110000E+03	2.592887E-16	2.088933E-18
5.120000E+03	2.540047E-16	2.038531E-18
5.130000E+03	2.509633E-16	2.006438E-18
5.140000E+03	2.504040E-16	1.994357E-18
5.150000E+03	2.523008E-16	2.001856E-18
5.160000E+03	2.564107E-16	2.026794E-18
5.170000E+03	2.623069E-16	2.065618E-18
5.180000E+03	2.693967E-16	2.113524E-18
5.190000E+03	2.769846E-16	2.164979E-18
5.200000E+03	2.844093E-16	2.214797E-18
5.210000E+03	2.911491E-16	2.258953E-18
5.220000E+03	2.968804E-16	2.295012E-18
5.230000E+03	3.014891E-16	2.322188E-18
5.240000E+03	3.050767E-16	2.341362E-18
5.250000E+03	3.079126E-16	2.354684E-18
5.260000E+03	3.103461E-16	2.364884E-18
5.270000E+03	3.127252E-16	2.374641E-18
5.280000E+03	3.153548E-16	2.386271E-18
5.290000E+03	3.184615E-16	2.401471E-18
5.300000E+03	3.221317E-16	2.420857E-18
5.310000E+03	3.263413E-16	2.444214E-18
5.320000E+03	3.309349E-16	2.470347E-18
5.330000E+03	3.356404E-16	2.497212E-18
5.340000E+03	3.401084E-16	2.522218E-18
5.350000E+03	3.439471E-16	2.542495E-18
5.360000E+03	3.467909E-16	2.555402E-18
5.370000E+03	3.483127E-16	2.558612E-18
5.380000E+03	3.482563E-16	2.550347E-18
5.390000E+03	3.464650E-16	2.529572E-18
5.400000E+03	3.428852E-16	2.496014E-18
5.410000E+03	3.375793E-16	2.450240E-18
5.420000E+03	3.307252E-16	2.393643E-18
5.430000E+03	3.226319E-16	2.328544E-18
5.440000E+03	3.137526E-16	2.258270E-18
5.450000E+03	3.046713E-16	2.187051E-18
5.460000E+03	2.960950E-16	2.119948E-18
5.470000E+03	2.887868E-16	2.062374E-18
5.480000E+03	2.835307E-16	2.019835E-18
5.490000E+03	2.809426E-16	1.996595E-18
5.500000E+03	2.812994E-16	1.994477E-18
5.510000E+03	2.844703E-16	2.012414E-18
5.520000E+03	2.899608E-16	2.046784E-18
5.530000E+03	2.969353E-16	2.091600E-18
5.540000E+03	3.042944E-16	2.139074E-18
5.550000E+03	3.107338E-16	2.180048E-18
5.560000E+03	3.148953E-16	2.205055E-18
5.570000E+03	3.155299E-16	2.205459E-18
5.580000E+03	3.116918E-16	2.174794E-18
5.590000E+03	3.029510E-16	2.110220E-18
5.600000E+03	2.895217E-16	2.013384E-18
5.610000E+03	2.721960E-16	1.889925E-18
5.620000E+03	2.522217E-16	1.748595E-18
5.630000E+03	2.310601E-16	1.599563E-18
5.640000E+03	2.100672E-16	1.452211E-18
5.650000E+03	1.902442E-16	1.313416E-18
5.660000E+03	1.721705E-16	1.187116E-18
5.670000E+03	1.561192E-16	1.075121E-18
5.680000E+03	1.421536E-16	9.777969E-19
5.690000E+03	1.302292E-16	8.947681E-19
5.700000E+03	1.202497E-16	8.253139E-19
5.710000E+03	1.121213E-16	7.687351E-19
5.720000E+03	1.057786E-16	7.245365E-19
5.730000E+03	1.011813E-16	6.923978E-19
5.740000E+03	9.830182E-17	6.720925E-19
5.750000E+03	9.713696E-17	6.635631E-19
5.760000E+03	9.771210E-17	6.669509E-19
5.770000E+03	1.000993E-16	6.827184E-19
5.780000E+03	1.044232E-16	7.116864E-19
5.790000E+03	1.108632E-16	7.550505E-19
5.800000E+03	1.196660E-16	8.144639E-19
5.810000E+03	1.311351E-16	8.919637E-19
5.820000E+03	1.456142E-16	9.898585E-19
5.830000E+03	1.634540E-16	1.110504E-18
5.840000E+03	1.849344E-16	1.255770E-18
5.850000E+03	2.101978E-16	1.426596E-18
5.860000E+03	2.391462E-16	1.622292E-18
5.870000E+03	2.713308E-16	1.839793E-18
5.880000E+03	3.058821E-16	2.073192E-18
5.890000E+03	3.414990E-16	2.313669E-18
5.900000E+03	3.765371E-16	2.550093E-18
5.910000E+03	4.091493E-16	2.769980E-18
5.920000E+03	4.375076E-16	2.960987E-18
5.930000E+03	4.600684E-16	3.112709E-18
5.940000E+03	4.757779E-16	3.218063E-18
5.950000E+03	4.842062E-16	3.274185E-18
5.960000E+03	4.855982E-16	3.282771E-18
5.970000E+03	4.807460E-16	3.249211E-18
5.980000E+03	4.708070E-16	3.181349E-18
5.990000E+03	4.570671E-16	3.087891E-18
6.000000E+03	4.407941E-16	2.977408E-18
6.010000E+03	4.230869E-16	2.857326E-18
6.020000E+03	4.048083E-16	2.733468E-18
6.030000E+03	3.866136E-16	2.610253E-18
6.040000E+03	3.690031E-16	2.491051E-18
6.050000E+03	3.523459E-16	2.378347E-18
6.060000E+03	3.369266E-16	2.274055E-18
6.070000E+03	3.229561E-16	2.179590E-18
6.080000E+03	3.105836E-16	2.095953E-18
6.090000E+03	2.998984E-16	2.023739E-18
6.100000E+03	2.909152E-16	1.963045E-18
6.110000E+03	2.835916E-16	1.913579E-18
6.120000E+03	2.778272E-16	1.874661E-18
6.130000E+03	2.734747E-16	1.845296E-18
6.140000E+03	2.703575E-16	1.824291E-18
6.150000E+03	2.683000E-16	1.810461E-18
6.160000E+03	2.671709E-16	1.802921E-18
6.170000E+03	2.669146E-16	1.801295E-18
6.180000E+03	2.675644E-16	1.805810E-18
6.190000E+03	2.692663E-16	1.817453E-18
6.200000E+03	2.722720E-16	1.837927E-18
6.210000E+03	2.769170E-16	1.869502E-18
6.220000E+03	2.835694E-16	1.914668E-18
6.230000E+03	2.925778E-16	1.975788E-18
6.240000E+03	3.042354E-16	2.054853E-18
6.250000E+03	3.187200E-16	2.153080E-18
6.260000E+03	3.360185E-16	2.270395E-18
6.270000E+03	3.558575E-16	2.404971E-18
6.280000E+03	3.776777E-16	2.553048E-18
6.290000E+03	4.005664E-16	2.708473E-18
6.300000E+03	4.233303E-16	2.863194E-18
6.310000E+03	4.446147E-16	3.008055E-18
6.320000E+03	4.631472E-16	3.134448E-18
6.330000E+03	4.778753E-16	3.235241E-18
6.340000E+03	4.881050E-16	3.305717E-18
6.350000E+03	4.936012E-16	3.344255E-18
6.360000E+03	4.945559E-16	3.352127E-18
6.370000E+03	4.914420E-16	3.332503E-18
6.380000E+03	4.848967E-16	3.289671E-18
6.390000E+03	4.756438E-16	3.228510E-18
6.400000E+03	4.644130E-16	3.153947E-18
6.410000E+03	4.518812E-16	3.070555E-18
6.420000E+03	4.386921E-16	2.982692E-18
6.430000E+03	4.254455E-16	2.894425E-18
6.440000E+03	4.126790E-16	2.809408E-18
6.450000E+03	4.008497E-16	2.730754E-18
6.460000E+03	3.902319E-16	2.660342E-18
6.470000E+03	3.809319E-16	2.598910E-18
6.480000E+03	3.729575E-16	2.546527E-18
6.490000E+03	3.663702E-16	2.503633E-18
6.500000E+03	3.612886E-16	2.471058E-18
6.510000E+03	3.578916E-16	2.450054E-18
6.520000E+03	3.563499E-16	2.441822E-18
6.530000E+03	3.566389E-16	2.446227E-18
6.540000E+03	3.582091E-16	2.459534E-18
6.550000E+03	3.600274E-16	2.474662E-18
6.560000E+03	3.610286E-16	2.484288E-18
6.570000E+03	3.604071E-16	2.482838E-18
6.580000E+03	3.577904E-16	2.467700E-18
6.590000E+03	3.533334E-16	2.439890E-18
6.600000E+03	3.476115E-16	2.403335E-18
6.610000E+03	3.413711E-16	2.363160E-18
6.620000E+03	3.353698E-16	2.324597E-18
6.630000E+03	3.302588E-16	2.292163E-18
6.640000E+03	3.264812E-16	2.268958E-18
6.650000E+03	3.242276E-16	2.256339E-18
6.660000E+03	3.234284E-16	2.253858E-18
6.670000E+03	3.237992E-16	2.259570E-18
6.680000E+03	3.248299E-16	2.269940E-18
6.690000E+03	3.258726E-16	2.280451E-18
6.700000E+03	3.262653E-16	2.286461E-18
6.710000E+03	3.254145E-16	2.283781E-18
6.720000E+03	3.228685E-16	2.269197E-18
6.730000E+03	3.183523E-16	2.240717E-18
6.740000E+03	3.118016E-16	2.197823E-18
6.750000E+03	3.033483E-16	2.141380E-18
6.760000E+03	2.932742E-16	2.073317E-18
6.770000E+03	2.819856E-16	1.996455E-18
6.780000E+03	2.699183E-16	1.913844E-18
6.790000E+03	2.574974E-16	1.828474E-18
6.800000E+03	2.450738E-16	1.742826E-18
6.810000E+03	2.329309E-16	1.658918E-18
6.820000E+03	2.212922E-16	1.578349E-18
6.830000E+03	2.103104E-16	1.502226E-18
6.840000E+03	2.001133E-16	1.431481E-18
6.850000E+03	1.907908E-16	1.366783E-18
6.860000E+03	1.824200E-16	1.308713E-18
6.870000E+03	1.750658E-16	1.257764E-18
6.880000E+03	1.687813E-16	1.214351E-18
6.890000E+03	1.636100E-16	1.178820E-18
6.900000E+03	1.595944E-16	1.151513E-18
6.910000E+03	1.567723E-16	1.132736E-18
6.920000E+03	1.551888E-16	1.122854E-18
6.930000E+03	1.549020E-16	1.122322E-18
6.940000E+03	1.560043E-16	1.131850E-18
6.950000E+03	1.586304E-16	1.152456E-18
6.960000E+03	1.629494E-16	1.185414E-18
6.970000E+03	1.691646E-16	1.232252E-18
6.980000E+03	1.774930E-16	1.294605E-18
6.990000E+03	1.881556E-16	1.374144E-18
7.000000E+03	2.013453E-16	1.472340E-18
7.010000E+03	2.171734E-16	1.590076E-18
7.020000E+03	2.356216E-16	1.727282E-18
7.030000E+03	2.565068E-16	1.882678E-18
7.040000E+03	2.793984E-16	2.053158E-18
7.050000E+03	3.035966E-16	2.233616E-18
7.060000E+03	3.281534E-16	2.417096E-18
7.070000E+03	3.519167E-16	2.595099E-18
7.080000E+03	3.736444E-16	2.758427E-18
7.090000E+03	3.921321E-16	2.898118E-18
7.100000E+03	4.063875E-16	3.006743E-18
7.110000E+03	4.157494E-16	3.079297E-18
7.120000E+03	4.199901E-16	3.113972E-18
7.130000E+03	4.193310E-16	3.112289E-18
7.140000E+03	4.144065E-16	3.078850E-18
7.150000E+03	4.061554E-16	3.020543E-18
7.160000E+03	3.956932E-16	2.945601E-18
7.170000E+03	3.841913E-16	2.862709E-18
7.180000E+03	3.727071E-16	2.779735E-18
7.190000E+03	3.621637E-16	2.703578E-18
7.200000E+03	3.532867E-16	2.639682E-18
7.210000E+03	3.466219E-16	2.592166E-18
7.220000E+03	3.425408E-16	2.563859E-18
7.230000E+03	3.412906E-16	2.556663E-18
7.240000E+03	3.430188E-16	2.571741E-18
7.250000E+03	3.477779E-16	2.609541E-18
7.260000E+03	3.555402E-16	2.669912E-18
7.270000E+03	3.661566E-16	2.751783E-18
7.280000E+03	3.793249E-16	2.852931E-18
7.290000E+03	3.945754E-16	2.969863E-18
7.300000E+03	4.112235E-16	3.097453E-18
7.310000E+03	4.283856E-16	3.229060E-18
7.320000E+03	4.449830E-16	3.356555E-18
7.330000E+03	4.598424E-16	3.471069E-18
7.340000E+03	4.718006E-16	3.563787E-18
7.350000E+03	4.798497E-16	3.627045E-18
7.360000E+03	4.832813E-16	3.655425E-18
7.370000E+03	4.817952E-16	3.646588E-18
7.380000E+03	4.755247E-16	3.601473E-18
7.390000E+03	4.649785E-16	3.523868E-18
7.400000E+03	4.509410E-16	3.419665E-18
7.410000E+03	4.343374E-16	3.295837E-18
7.420000E+03	4.160828E-16	3.159301E-18
7.430000E+03	3.969608E-16	3.015992E-18
7.440000E+03	3.776123E-16	2.870774E-18
7.450000E+03	3.584806E-16	2.727020E-18
7.460000E+03	3.398400E-16	2.586824E-18
7.470000E+03	3.218461E-16	2.451382E-18
7.480000E+03	3.045526E-16	2.321112E-18
7.490000E+03	2.879534E-16	2.195982E-18
7.500000E+03	2.720227E-16	2.075803E-18
7.510000E+03	2.567418E-16	1.960446E-18
7.520000E+03	2.420970E-16	1.849814E-18
7.530000E+03	2.281049E-16	1.744044E-18
7.540000E+03	2.148035E-16	1.643435E-18
7.550000E+03	2.022661E-16	1.548558E-18
7.560000E+03	1.905753E-16	1.460057E-18
7.570000E+03	1.798306E-16	1.378705E-18
7.580000E+03	1.701333E-16	1.305296E-18
7.590000E+03	1.615783E-16	1.240572E-18
7.600000E+03	1.542459E-16	1.185166E-18
7.610000E+03	1.481947E-16	1.139552E-18
7.620000E+03	1.434786E-16	1.104165E-18
7.630000E+03	1.401390E-16	1.079347E-18
7.640000E+03	1.382231E-16	1.065489E-18
7.650000E+03	1.377645E-16	1.062878E-18
7.660000E+03	1.387706E-16	1.071602E-18
7.670000E+03	1.411997E-16	1.091372E-18
7.680000E+03	1.449854E-16	1.121707E-18
7.690000E+03	1.500453E-16	1.162006E-18
7.700000E+03	1.563056E-16	1.211732E-18
7.710000E+03	1.636865E-16	1.270301E-18
7.720000E+03	1.721198E-16	1.337220E-18
7.730000E+03	1.815290E-16	1.411933E-18
7.740000E+03	1.918239E-16	1.493772E-18
7.750000E+03	2.028747E-16	1.581766E-18
7.760000E+03	2.144756E-16	1.674343E-18
