#wls	flux	fluxerr
1.600000E+03	8.300213E-18	1.747392E-19
1.640000E+03	8.076719E-18	1.694797E-19
1.680000E+03	7.861028E-18	1.644011E-19
1.720000E+03	7.654508E-18	1.595312E-19
1.760000E+03	7.459860E-18	1.549249E-19
1.800000E+03	7.277085E-18	1.505804E-19
1.840000E+03	7.107582E-18	1.465246E-19
1.880000E+03	6.953945E-18	1.428083E-19
1.920000E+03	6.818639E-18	1.394789E-19
1.960000E+03	6.700604E-18	1.365109E-19
2.000000E+03	6.603517E-18	1.339751E-19
2.040000E+03	6.527627E-18	1.318715E-19
2.080000E+03	6.476623E-18	1.302691E-19
2.120000E+03	6.449958E-18	1.291505E-19
2.160000E+03	6.451634E-18	1.285889E-19
2.200000E+03	6.483767E-18	1.286182E-19
2.240000E+03	6.548865E-18	1.292789E-19
2.280000E+03	6.649907E-18	1.306194E-19
2.320000E+03	6.791503E-18	1.327186E-19
2.360000E+03	6.979000E-18	1.356670E-19
2.400000E+03	7.216461E-18	1.395277E-19
2.440000E+03	7.512217E-18	1.444436E-19
2.480000E+03	7.872502E-18	1.505131E-19
2.520000E+03	8.308335E-18	1.579221E-19
2.560000E+03	8.828858E-18	1.668150E-19
2.600000E+03	9.449964E-18	1.774580E-19
2.640000E+03	1.018470E-17	1.900553E-19
2.680000E+03	1.105087E-17	2.048919E-19
2.720000E+03	1.207042E-17	2.223186E-19
2.760000E+03	1.326326E-17	2.426364E-19
2.800000E+03	1.465825E-17	2.662967E-19
2.840000E+03	1.628161E-17	2.936857E-19
2.880000E+03	1.816482E-17	3.252676E-19
2.920000E+03	2.033568E-17	3.614216E-19
2.960000E+03	2.282725E-17	4.026003E-19
3.000000E+03	2.566437E-17	4.490908E-19
3.010000E+03	2.642871E-17	4.615432E-19
3.020000E+03	2.721764E-17	4.743669E-19
3.030000E+03	2.803128E-17	4.875613E-19
3.040000E+03	2.886374E-17	5.010209E-19
3.050000E+03	2.972389E-17	5.148974E-19
3.060000E+03	3.060560E-17	5.290812E-19
3.070000E+03	3.150855E-17	5.435644E-19
3.080000E+03	3.243888E-17	5.584496E-19
3.090000E+03	3.338980E-17	5.736174E-19
3.100000E+03	3.436071E-17	5.890546E-19
3.110000E+03	3.535437E-17	6.048059E-19
3.120000E+03	3.637370E-17	6.209182E-19
3.130000E+03	3.740736E-17	6.371952E-19
3.140000E+03	3.846507E-17	6.538001E-19
3.150000E+03	3.954234E-17	6.706537E-19
3.160000E+03	4.063423E-17	6.876697E-19
3.170000E+03	4.174703E-17	7.049526E-19
3.180000E+03	4.287170E-17	7.223469E-19
3.190000E+03	4.401451E-17	7.399566E-19
3.200000E+03	4.516587E-17	7.576181E-19
3.210000E+03	4.633205E-17	7.754351E-19
3.220000E+03	4.750713E-17	7.933065E-19
3.230000E+03	4.868904E-17	8.111965E-19
3.240000E+03	4.987562E-17	8.290678E-19
3.250000E+03	5.106890E-17	8.469534E-19
3.260000E+03	5.225783E-17	8.646688E-19
3.270000E+03	5.345315E-17	8.823919E-19
3.280000E+03	5.463901E-17	8.998599E-19
3.290000E+03	5.582631E-17	9.172530E-19
3.300000E+03	5.699871E-17	9.343028E-19
3.310000E+03	5.816734E-17	9.511924E-19
3.320000E+03	5.932021E-17	9.677262E-19
3.330000E+03	6.045451E-17	9.838602E-19
3.340000E+03	6.157223E-17	9.996283E-19
3.350000E+03	6.267554E-17	1.015067E-18
3.360000E+03	6.374737E-17	1.029903E-18
3.370000E+03	6.479961E-17	1.044329E-18
3.380000E+03	6.582499E-17	1.058233E-18
3.390000E+03	6.682119E-17	1.071579E-18
3.400000E+03	6.778596E-17	1.084334E-18
3.410000E+03	6.871728E-17	1.096470E-18
3.420000E+03	6.961325E-17	1.107960E-18
3.430000E+03	7.047222E-17	1.118783E-18
3.440000E+03	7.129765E-17	1.128996E-18
3.450000E+03	7.208338E-17	1.138508E-18
3.460000E+03	7.283335E-17	1.147383E-18
3.470000E+03	7.354191E-17	1.155539E-18
3.480000E+03	7.420863E-17	1.162973E-18
3.490000E+03	7.483820E-17	1.169763E-18
3.500000E+03	7.543069E-17	1.175915E-18
3.510000E+03	7.598641E-17	1.181438E-18
3.520000E+03	7.650108E-17	1.186271E-18
3.530000E+03	7.698507E-17	1.190578E-18
3.540000E+03	7.742965E-17	1.194229E-18
3.550000E+03	7.784058E-17	1.197317E-18
3.560000E+03	7.822341E-17	1.199932E-18
3.570000E+03	7.856980E-17	1.201950E-18
3.580000E+03	7.888991E-17	1.203530E-18
3.590000E+03	7.918004E-17	1.204619E-18
3.600000E+03	7.944567E-17	1.205304E-18
3.610000E+03	7.968325E-17	1.205535E-18
3.620000E+03	7.989833E-17	1.205398E-18
3.630000E+03	8.008762E-17	1.204847E-18
3.640000E+03	8.025242E-17	1.203905E-18
3.650000E+03	8.040259E-17	1.202722E-18
3.660000E+03	8.053086E-17	1.201192E-18
3.670000E+03	8.064690E-17	1.199462E-18
3.680000E+03	8.074364E-17	1.197428E-18
3.690000E+03	8.082651E-17	1.195172E-18
3.700000E+03	8.090062E-17	1.192773E-18
3.710000E+03	8.095905E-17	1.190130E-18
3.720000E+03	8.101068E-17	1.187375E-18
3.730000E+03	8.105238E-17	1.184462E-18
3.740000E+03	8.108865E-17	1.181460E-18
3.750000E+03	8.111616E-17	1.178320E-18
3.760000E+03	8.113534E-17	1.175050E-18
3.770000E+03	8.115005E-17	1.171706E-18
3.780000E+03	8.116022E-17	1.168289E-18
3.790000E+03	8.116211E-17	1.164746E-18
3.800000E+03	8.116246E-17	1.161173E-18
3.810000E+03	8.115382E-17	1.157466E-18
3.820000E+03	8.113913E-17	1.153666E-18
3.830000E+03	8.111780E-17	1.149767E-18
3.840000E+03	8.108920E-17	1.145761E-18
3.850000E+03	8.105282E-17	1.141642E-18
3.860000E+03	8.100821E-17	1.137404E-18
3.870000E+03	8.095515E-17	1.133046E-18
3.880000E+03	8.089370E-17	1.128570E-18
3.890000E+03	8.082728E-17	1.124024E-18
3.900000E+03	8.075066E-17	1.119337E-18
3.910000E+03	8.067118E-17	1.114612E-18
3.920000E+03	8.059063E-17	1.109874E-18
3.930000E+03	8.050566E-17	1.105077E-18
3.940000E+03	8.042512E-17	1.100344E-18
3.950000E+03	8.034973E-17	1.095682E-18
3.960000E+03	8.028631E-17	1.091186E-18
3.970000E+03	8.023389E-17	1.086840E-18
3.980000E+03	8.020518E-17	1.082814E-18
3.990000E+03	8.019706E-17	1.079064E-18
4.000000E+03	8.021701E-17	1.075686E-18
4.010000E+03	8.027232E-17	1.072775E-18
4.020000E+03	8.036502E-17	1.070354E-18
4.030000E+03	8.049963E-17	1.068477E-18
4.040000E+03	8.068068E-17	1.067198E-18
4.050000E+03	8.091285E-17	1.066574E-18
4.060000E+03	8.119889E-17	1.066632E-18
4.070000E+03	8.154936E-17	1.067506E-18
4.080000E+03	8.196639E-17	1.069213E-18
4.090000E+03	8.246043E-17	1.071880E-18
4.100000E+03	8.303872E-17	1.075591E-18
4.110000E+03	8.371240E-17	1.080478E-18
4.120000E+03	8.449634E-17	1.086720E-18
4.130000E+03	8.540002E-17	1.094422E-18
4.140000E+03	8.644081E-17	1.103792E-18
4.150000E+03	8.763466E-17	1.115012E-18
4.160000E+03	8.899801E-17	1.128270E-18
4.170000E+03	9.054294E-17	1.143697E-18
4.180000E+03	9.229040E-17	1.161530E-18
4.190000E+03	9.425193E-17	1.181887E-18
4.200000E+03	9.644523E-17	1.204961E-18
4.210000E+03	9.888267E-17	1.230872E-18
4.220000E+03	1.015779E-16	1.259758E-18
4.230000E+03	1.045433E-16	1.291736E-18
4.240000E+03	1.077897E-16	1.326904E-18
4.250000E+03	1.113204E-16	1.365262E-18
4.260000E+03	1.151425E-16	1.406860E-18
4.270000E+03	1.192559E-16	1.451658E-18
4.280000E+03	1.236510E-16	1.499498E-18
4.290000E+03	1.283092E-16	1.550121E-18
4.300000E+03	1.332089E-16	1.603230E-18
4.310000E+03	1.383012E-16	1.658207E-18
4.320000E+03	1.435330E-16	1.714393E-18
4.330000E+03	1.488295E-16	1.770880E-18
4.340000E+03	1.541068E-16	1.826666E-18
4.350000E+03	1.592594E-16	1.880511E-18
4.360000E+03	1.641856E-16	1.931237E-18
4.370000E+03	1.687788E-16	1.977627E-18
4.380000E+03	1.729609E-16	2.018816E-18
4.390000E+03	1.766809E-16	2.054269E-18
4.400000E+03	1.799400E-16	2.084066E-18
4.410000E+03	1.827737E-16	2.108678E-18
4.420000E+03	1.852758E-16	2.129243E-18
4.430000E+03	1.875596E-16	2.147105E-18
4.440000E+03	1.897532E-16	2.163755E-18
4.450000E+03	1.919959E-16	2.180788E-18
4.460000E+03	1.944115E-16	2.199602E-18
4.470000E+03	1.971230E-16	2.221561E-18
4.480000E+03	2.002314E-16	2.247762E-18
4.490000E+03	2.038261E-16	2.279154E-18
4.500000E+03	2.079647E-16	2.316319E-18
4.510000E+03	2.126925E-16	2.359687E-18
4.520000E+03	2.180212E-16	2.409318E-18
4.530000E+03	2.239380E-16	2.464993E-18
4.540000E+03	2.303995E-16	2.526165E-18
4.550000E+03	2.373294E-16	2.591933E-18
4.560000E+03	2.446150E-16	2.661013E-18
4.570000E+03	2.521194E-16	2.731880E-18
4.580000E+03	2.596696E-16	2.802640E-18
4.590000E+03	2.670747E-16	2.871239E-18
4.600000E+03	2.741312E-16	2.935519E-18
4.610000E+03	2.806341E-16	2.993339E-18
4.620000E+03	2.863903E-16	3.042722E-18
4.630000E+03	2.912262E-16	3.081923E-18
4.640000E+03	2.950179E-16	3.109757E-18
4.650000E+03	2.976687E-16	3.125338E-18
4.660000E+03	2.991398E-16	3.128405E-18
4.670000E+03	2.994511E-16	3.119310E-18
4.680000E+03	2.986488E-16	3.098676E-18
4.690000E+03	2.968241E-16	3.067582E-18
4.700000E+03	2.940975E-16	3.027393E-18
4.710000E+03	2.905985E-16	2.979547E-18
4.720000E+03	2.864548E-16	2.925440E-18
4.730000E+03	2.818009E-16	2.866516E-18
4.740000E+03	2.767425E-16	2.803906E-18
4.750000E+03	2.713828E-16	2.738699E-18
4.760000E+03	2.658059E-16	2.671774E-18
4.770000E+03	2.600826E-16	2.603863E-18
4.780000E+03	2.542772E-16	2.535624E-18
4.790000E+03	2.484373E-16	2.467535E-18
4.800000E+03	2.426262E-16	2.400227E-18
4.810000E+03	2.368919E-16	2.334165E-18
4.820000E+03	2.312946E-16	2.269929E-18
4.830000E+03	2.259082E-16	2.208225E-18
4.840000E+03	2.208047E-16	2.149724E-18
4.850000E+03	2.160672E-16	2.095200E-18
4.860000E+03	2.117842E-16	2.045461E-18
4.870000E+03	2.080534E-16	2.001395E-18
4.880000E+03	2.049600E-16	1.963751E-18
4.890000E+03	2.025932E-16	1.933306E-18
4.900000E+03	2.010299E-16	1.910708E-18
4.910000E+03	2.003365E-16	1.896491E-18
4.920000E+03	2.005573E-16	1.890977E-18
4.930000E+03	2.017109E-16	1.894233E-18
4.940000E+03	2.037945E-16	1.906132E-18
4.950000E+03	2.067604E-16	1.926122E-18
4.960000E+03	2.105321E-16	1.953400E-18
4.970000E+03	2.149858E-16	1.986732E-18
4.980000E+03	2.199540E-16	2.024503E-18
4.990000E+03	2.252268E-16	2.064735E-18
5.000000E+03	2.305727E-16	2.105285E-18
5.010000E+03	2.357368E-16	2.143828E-18
5.020000E+03	2.404756E-16	2.178185E-18
5.030000E+03	2.445698E-16	2.206425E-18
5.040000E+03	2.478609E-16	2.227199E-18
5.050000E+03	2.502603E-16	2.239802E-18
5.060000E+03	2.517643E-16	2.244300E-18
5.070000E+03	2.524528E-16	2.241499E-18
5.080000E+03	2.524786E-16	2.232842E-18
5.090000E+03	2.520503E-16	2.220235E-18
5.100000E+03	2.514002E-16	2.205766E-18
5.110000E+03	2.507578E-16	2.191465E-18
5.120000E+03	2.503341E-16	2.179168E-18
5.130000E+03	2.503023E-16	2.170358E-18
5.140000E+03	2.507816E-16	2.166023E-18
5.150000E+03	2.518344E-16	2.166653E-18
5.160000E+03	2.534684E-16	2.172257E-18
5.170000E+03	2.556393E-16	2.182402E-18
5.180000E+03	2.582707E-16	2.196389E-18
5.190000E+03	2.612574E-16	2.213286E-18
5.200000E+03	2.644796E-16	2.232050E-18
5.210000E+03	2.678294E-16	2.251758E-18
5.220000E+03	2.711988E-16	2.271498E-18
5.230000E+03	2.745081E-16	2.290608E-18
5.240000E+03	2.777046E-16	2.308661E-18
5.250000E+03	2.807553E-16	2.325400E-18
5.260000E+03	2.836407E-16	2.340683E-18
5.270000E+03	2.863540E-16	2.354474E-18
5.280000E+03	2.888887E-16	2.366742E-18
5.290000E+03	2.912344E-16	2.377424E-18
5.300000E+03	2.933551E-16	2.386248E-18
5.310000E+03	2.952080E-16	2.392891E-18
5.320000E+03	2.967284E-16	2.396860E-18
5.330000E+03	2.978364E-16	2.397545E-18
5.340000E+03	2.984392E-16	2.394240E-18
5.350000E+03	2.984473E-16	2.386274E-18
5.360000E+03	2.977834E-16	2.373083E-18
5.370000E+03	2.963788E-16	2.354176E-18
5.380000E+03	2.942081E-16	2.329411E-18
5.390000E+03	2.912716E-16	2.298851E-18
5.400000E+03	2.876124E-16	2.262889E-18
5.410000E+03	2.833259E-16	2.222327E-18
5.420000E+03	2.785457E-16	2.178250E-18
5.430000E+03	2.734538E-16	2.132110E-18
5.440000E+03	2.682592E-16	2.085547E-18
5.450000E+03	2.632009E-16	2.040414E-18
5.460000E+03	2.585188E-16	1.998555E-18
5.470000E+03	2.544460E-16	1.961735E-18
5.480000E+03	2.511637E-16	1.931307E-18
5.490000E+03	2.487849E-16	1.908084E-18
5.500000E+03	2.472943E-16	1.891896E-18
5.510000E+03	2.465352E-16	1.881492E-18
5.520000E+03	2.462399E-16	1.874788E-18
5.530000E+03	2.460745E-16	1.869221E-18
5.540000E+03	2.456575E-16	1.861889E-18
5.550000E+03	2.446290E-16	1.850077E-18
5.560000E+03	2.426538E-16	1.831282E-18
5.570000E+03	2.394669E-16	1.803547E-18
5.580000E+03	2.349098E-16	1.765729E-18
5.590000E+03	2.289341E-16	1.717516E-18
5.600000E+03	2.216102E-16	1.659485E-18
5.610000E+03	2.131222E-16	1.593054E-18
5.620000E+03	2.037461E-16	1.520316E-18
5.630000E+03	1.938005E-16	1.443665E-18
5.640000E+03	1.836317E-16	1.365681E-18
5.650000E+03	1.735658E-16	1.288780E-18
5.660000E+03	1.638895E-16	1.215069E-18
5.670000E+03	1.548436E-16	1.146302E-18
5.680000E+03	1.466127E-16	1.083813E-18
5.690000E+03	1.393320E-16	1.028564E-18
5.700000E+03	1.330973E-16	9.812207E-19
5.710000E+03	1.279705E-16	9.421997E-19
5.720000E+03	1.239963E-16	9.117922E-19
5.730000E+03	1.212065E-16	8.901945E-19
5.740000E+03	1.196284E-16	8.775708E-19
5.750000E+03	1.192963E-16	8.741386E-19
5.760000E+03	1.202477E-16	8.801393E-19
5.770000E+03	1.225311E-16	8.958962E-19
5.780000E+03	1.262072E-16	9.218216E-19
5.790000E+03	1.313429E-16	9.583737E-19
5.800000E+03	1.380111E-16	1.006055E-18
5.810000E+03	1.462841E-16	1.065362E-18
5.820000E+03	1.562193E-16	1.136684E-18
5.830000E+03	1.678465E-16	1.220210E-18
5.840000E+03	1.811481E-16	1.315785E-18
5.850000E+03	1.960494E-16	1.422842E-18
5.860000E+03	2.123842E-16	1.540154E-18
5.870000E+03	2.298941E-16	1.665830E-18
5.880000E+03	2.482238E-16	1.797287E-18
5.890000E+03	2.669086E-16	1.931155E-18
5.900000E+03	2.854136E-16	2.063568E-18
5.910000E+03	3.031541E-16	2.190312E-18
5.920000E+03	3.195386E-16	2.307134E-18
5.930000E+03	3.340334E-16	2.410206E-18
5.940000E+03	3.461768E-16	2.496232E-18
5.950000E+03	3.556587E-16	2.563013E-18
5.960000E+03	3.623137E-16	2.609394E-18
5.970000E+03	3.661282E-16	2.635316E-18
5.980000E+03	3.672374E-16	2.641788E-18
5.990000E+03	3.658999E-16	2.630699E-18
6.000000E+03	3.624441E-16	2.604441E-18
6.010000E+03	3.572673E-16	2.565888E-18
6.020000E+03	3.507698E-16	2.517930E-18
6.030000E+03	3.433432E-16	2.463389E-18
6.040000E+03	3.353610E-16	2.404950E-18
6.050000E+03	3.271521E-16	2.344975E-18
6.060000E+03	3.190000E-16	2.285494E-18
6.070000E+03	3.111368E-16	2.228166E-18
6.080000E+03	3.037531E-16	2.174351E-18
6.090000E+03	2.970014E-16	2.125132E-18
6.100000E+03	2.909890E-16	2.081270E-18
6.110000E+03	2.857966E-16	2.043334E-18
6.120000E+03	2.814800E-16	2.011715E-18
6.130000E+03	2.780780E-16	1.986681E-18
6.140000E+03	2.756185E-16	1.968425E-18
6.150000E+03	2.741250E-16	1.957108E-18
6.160000E+03	2.736220E-16	1.952897E-18
6.170000E+03	2.741353E-16	1.955970E-18
6.180000E+03	2.757041E-16	1.966603E-18
6.190000E+03	2.783698E-16	1.985084E-18
6.200000E+03	2.821723E-16	2.011694E-18
6.210000E+03	2.871541E-16	2.046734E-18
6.220000E+03	2.933371E-16	2.090355E-18
6.230000E+03	3.007262E-16	2.142593E-18
6.240000E+03	3.092819E-16	2.203164E-18
6.250000E+03	3.189228E-16	2.271491E-18
6.260000E+03	3.294997E-16	2.346512E-18
6.270000E+03	3.408042E-16	2.426749E-18
6.280000E+03	3.525503E-16	2.510172E-18
6.290000E+03	3.643996E-16	2.594379E-18
6.300000E+03	3.759571E-16	2.676566E-18
6.310000E+03	3.868152E-16	2.753840E-18
6.320000E+03	3.965631E-16	2.823286E-18
6.330000E+03	4.048392E-16	2.882339E-18
6.340000E+03	4.113409E-16	2.928850E-18
6.350000E+03	4.158674E-16	2.961393E-18
6.360000E+03	4.183175E-16	2.979250E-18
6.370000E+03	4.186954E-16	2.982451E-18
6.380000E+03	4.170974E-16	2.971678E-18
6.390000E+03	4.137130E-16	2.948273E-18
6.400000E+03	4.087916E-16	2.914009E-18
6.410000E+03	4.026048E-16	2.870811E-18
6.420000E+03	3.954583E-16	2.820850E-18
6.430000E+03	3.876571E-16	2.766293E-18
6.440000E+03	3.794808E-16	2.709127E-18
6.450000E+03	3.711910E-16	2.651214E-18
6.460000E+03	3.630262E-16	2.594253E-18
6.470000E+03	3.551863E-16	2.539668E-18
6.480000E+03	3.478538E-16	2.488767E-18
6.490000E+03	3.411786E-16	2.442625E-18
6.500000E+03	3.352732E-16	2.402054E-18
6.510000E+03	3.302188E-16	2.367643E-18
6.520000E+03	3.260162E-16	2.339411E-18
6.530000E+03	3.225993E-16	2.316891E-18
6.540000E+03	3.198448E-16	2.299205E-18
6.550000E+03	3.175941E-16	2.285216E-18
6.560000E+03	3.156479E-16	2.273492E-18
6.570000E+03	3.138165E-16	2.262667E-18
6.580000E+03	3.119230E-16	2.251461E-18
6.590000E+03	3.098602E-16	2.239089E-18
6.600000E+03	3.075773E-16	2.225177E-18
6.610000E+03	3.050800E-16	2.209751E-18
6.620000E+03	3.023990E-16	2.193025E-18
6.630000E+03	2.995860E-16	2.175362E-18
6.640000E+03	2.966814E-16	2.157047E-18
6.650000E+03	2.936983E-16	2.138165E-18
6.660000E+03	2.906275E-16	2.118644E-18
6.670000E+03	2.874274E-16	2.098169E-18
6.680000E+03	2.840195E-16	2.076159E-18
6.690000E+03	2.803120E-16	2.051932E-18
6.700000E+03	2.762124E-16	2.024791E-18
6.710000E+03	2.716323E-16	1.994074E-18
6.720000E+03	2.665023E-16	1.959247E-18
6.730000E+03	2.607960E-16	1.920096E-18
6.740000E+03	2.545093E-16	1.876567E-18
6.750000E+03	2.476924E-16	1.829006E-18
6.760000E+03	2.404193E-16	1.777940E-18
6.770000E+03	2.327965E-16	1.724136E-18
6.780000E+03	2.249534E-16	1.668542E-18
6.790000E+03	2.170230E-16	1.612133E-18
6.800000E+03	2.091465E-16	1.555954E-18
6.810000E+03	2.014560E-16	1.500988E-18
6.820000E+03	1.940733E-16	1.448149E-18
6.830000E+03	1.871042E-16	1.398235E-18
6.840000E+03	1.806464E-16	1.351989E-18
6.850000E+03	1.747828E-16	1.310049E-18
6.860000E+03	1.695765E-16	1.272908E-18
6.870000E+03	1.650904E-16	1.241058E-18
6.880000E+03	1.613713E-16	1.214875E-18
6.890000E+03	1.584623E-16	1.194710E-18
6.900000E+03	1.564032E-16	1.180889E-18
6.910000E+03	1.552323E-16	1.173727E-18
6.920000E+03	1.549900E-16	1.173559E-18
6.930000E+03	1.557136E-16	1.180696E-18
6.940000E+03	1.574442E-16	1.195481E-18
6.950000E+03	1.602259E-16	1.218278E-18
6.960000E+03	1.640969E-16	1.249411E-18
6.970000E+03	1.690924E-16	1.289179E-18
6.980000E+03	1.752366E-16	1.337799E-18
6.990000E+03	1.825386E-16	1.395372E-18
7.000000E+03	1.909721E-16	1.461728E-18
7.010000E+03	2.004855E-16	1.536502E-18
7.020000E+03	2.109729E-16	1.618907E-18
7.030000E+03	2.222778E-16	1.707765E-18
7.040000E+03	2.341865E-16	1.801450E-18
7.050000E+03	2.464303E-16	1.897902E-18
7.060000E+03	2.586938E-16	1.994695E-18
7.070000E+03	2.706323E-16	2.089160E-18
7.080000E+03	2.818898E-16	2.178533E-18
7.090000E+03	2.921412E-16	2.260273E-18
7.100000E+03	3.011032E-16	2.332157E-18
7.110000E+03	3.085786E-16	2.392617E-18
7.120000E+03	3.144567E-16	2.440754E-18
7.130000E+03	3.187407E-16	2.476550E-18
7.140000E+03	3.215205E-16	2.500665E-18
7.150000E+03	3.229956E-16	2.514615E-18
7.160000E+03	3.234138E-16	2.520300E-18
7.170000E+03	3.230870E-16	2.520130E-18
7.180000E+03	3.223203E-16	2.516469E-18
7.190000E+03	3.214385E-16	2.511850E-18
7.200000E+03	3.207327E-16	2.508545E-18
7.210000E+03	3.204496E-16	2.508491E-18
7.220000E+03	3.207928E-16	2.513292E-18
7.230000E+03	3.219050E-16	2.524082E-18
7.240000E+03	3.238865E-16	2.541661E-18
7.250000E+03	3.267553E-16	2.566187E-18
7.260000E+03	3.304829E-16	2.597455E-18
7.270000E+03	3.349676E-16	2.634678E-18
7.280000E+03	3.400511E-16	2.676624E-18
7.290000E+03	3.455163E-16	2.721592E-18
7.300000E+03	3.510949E-16	2.767474E-18
7.310000E+03	3.564778E-16	2.811835E-18
7.320000E+03	3.613264E-16	2.851997E-18
7.330000E+03	3.653095E-16	2.885337E-18
7.340000E+03	3.681054E-16	2.909301E-18
7.350000E+03	3.694485E-16	2.921771E-18
7.360000E+03	3.691217E-16	2.921010E-18
7.370000E+03	3.670136E-16	2.906112E-18
7.380000E+03	3.630790E-16	2.876698E-18
7.390000E+03	3.573834E-16	2.833265E-18
7.400000E+03	3.500470E-16	2.776745E-18
7.410000E+03	3.412678E-16	2.708689E-18
7.420000E+03	3.312731E-16	2.630887E-18
7.430000E+03	3.203208E-16	2.545376E-18
7.440000E+03	3.086650E-16	2.454166E-18
7.450000E+03	2.965418E-16	2.359130E-18
7.460000E+03	2.841708E-16	2.262014E-18
7.470000E+03	2.717488E-16	2.164381E-18
7.480000E+03	2.594398E-16	2.067542E-18
7.490000E+03	2.473730E-16	1.972530E-18
7.500000E+03	2.356751E-16	1.880361E-18
7.510000E+03	2.244296E-16	1.791708E-18
7.520000E+03	2.137243E-16	1.707278E-18
7.530000E+03	2.036266E-16	1.627619E-18
7.540000E+03	1.941916E-16	1.553180E-18
7.550000E+03	1.854705E-16	1.484380E-18
7.560000E+03	1.775105E-16	1.421608E-18
7.570000E+03	1.703505E-16	1.365187E-18
7.580000E+03	1.640231E-16	1.315392E-18
7.590000E+03	1.585540E-16	1.272439E-18
7.600000E+03	1.539663E-16	1.236532E-18
7.610000E+03	1.502834E-16	1.207872E-18
7.620000E+03	1.475142E-16	1.186546E-18
7.630000E+03	1.456726E-16	1.172687E-18
7.640000E+03	1.447587E-16	1.166313E-18
7.650000E+03	1.447750E-16	1.167465E-18
7.660000E+03	1.457156E-16	1.176117E-18
7.670000E+03	1.475686E-16	1.192197E-18
7.680000E+03	1.503145E-16	1.215572E-18
7.690000E+03	1.539245E-16	1.246035E-18
7.700000E+03	1.583588E-16	1.283292E-18
7.710000E+03	1.635644E-16	1.326941E-18
7.720000E+03	1.694719E-16	1.376447E-18
7.730000E+03	1.759921E-16	1.431114E-18
7.740000E+03	1.830135E-16	1.490064E-18
7.750000E+03	1.904020E-16	1.552230E-18
7.760000E+03	1.979882E-16	1.616255E-18
