#wls	flux	fluxerr
1.600000E+03	2.610906E-18	1.038818E-19
1.640000E+03	2.620925E-18	1.040322E-19
1.680000E+03	2.633048E-18	1.042579E-19
1.720000E+03	2.647488E-18	1.045663E-19
1.760000E+03	2.664946E-18	1.049842E-19
1.800000E+03	2.684726E-18	1.054831E-19
1.840000E+03	2.708043E-18	1.061095E-19
1.880000E+03	2.734717E-18	1.068550E-19
1.920000E+03	2.764572E-18	1.077113E-19
1.960000E+03	2.799418E-18	1.087473E-19
2.000000E+03	2.838158E-18	1.099183E-19
2.040000E+03	2.881689E-18	1.112571E-19
2.080000E+03	2.930970E-18	1.127986E-19
2.120000E+03	2.985990E-18	1.145394E-19
2.160000E+03	3.047284E-18	1.164974E-19
2.200000E+03	3.115442E-18	1.186918E-19
2.240000E+03	3.191113E-18	1.211439E-19
2.280000E+03	3.275590E-18	1.238986E-19
2.320000E+03	3.368527E-18	1.269385E-19
2.360000E+03	3.471972E-18	1.303358E-19
2.400000E+03	3.586322E-18	1.340997E-19
2.440000E+03	3.712663E-18	1.382645E-19
2.480000E+03	3.852865E-18	1.428928E-19
2.520000E+03	4.006941E-18	1.479772E-19
2.560000E+03	4.177749E-18	1.536146E-19
2.600000E+03	4.366269E-18	1.598310E-19
2.640000E+03	4.574337E-18	1.666823E-19
2.680000E+03	4.803989E-18	1.742306E-19
2.720000E+03	5.058362E-18	1.825754E-19
2.760000E+03	5.338256E-18	1.917298E-19
2.800000E+03	5.648248E-18	2.018407E-19
2.840000E+03	5.990536E-18	2.129666E-19
2.880000E+03	6.368511E-18	2.252057E-19
2.920000E+03	6.785891E-18	2.386645E-19
2.960000E+03	7.247997E-18	2.535021E-19
3.000000E+03	7.758203E-18	2.698044E-19
3.010000E+03	7.893156E-18	2.741010E-19
3.020000E+03	8.031473E-18	2.784988E-19
3.030000E+03	8.174632E-18	2.830485E-19
3.040000E+03	8.319945E-18	2.876563E-19
3.050000E+03	8.470316E-18	2.924221E-19
3.060000E+03	8.622961E-18	2.972489E-19
3.070000E+03	8.780889E-18	3.022399E-19
3.080000E+03	8.941215E-18	3.072951E-19
3.090000E+03	9.107056E-18	3.125209E-19
3.100000E+03	9.275424E-18	3.178139E-19
3.110000E+03	9.449548E-18	3.232842E-19
3.120000E+03	9.626334E-18	3.288250E-19
3.130000E+03	9.809115E-18	3.345494E-19
3.140000E+03	9.994703E-18	3.403479E-19
3.150000E+03	1.018655E-17	3.463371E-19
3.160000E+03	1.038132E-17	3.524030E-19
3.170000E+03	1.058263E-17	3.586671E-19
3.180000E+03	1.078884E-17	3.650732E-19
3.190000E+03	1.099819E-17	3.715606E-19
3.200000E+03	1.121449E-17	3.782570E-19
3.210000E+03	1.143407E-17	3.850381E-19
3.220000E+03	1.166089E-17	3.920357E-19
3.230000E+03	1.189315E-17	3.991887E-19
3.240000E+03	1.212890E-17	4.064305E-19
3.250000E+03	1.237234E-17	4.139005E-19
3.260000E+03	1.261942E-17	4.214622E-19
3.270000E+03	1.287448E-17	4.292599E-19
3.280000E+03	1.313555E-17	4.372262E-19
3.290000E+03	1.340048E-17	4.452883E-19
3.300000E+03	1.367386E-17	4.535982E-19
3.310000E+03	1.395358E-17	4.620839E-19
3.320000E+03	1.423738E-17	4.706696E-19
3.330000E+03	1.453011E-17	4.795146E-19
3.340000E+03	1.482953E-17	4.885434E-19
3.350000E+03	1.513321E-17	4.976745E-19
3.360000E+03	1.544632E-17	5.070771E-19
3.370000E+03	1.576646E-17	5.166705E-19
3.380000E+03	1.609376E-17	5.264573E-19
3.390000E+03	1.642555E-17	5.363492E-19
3.400000E+03	1.676742E-17	5.465273E-19
3.410000E+03	1.711677E-17	5.569052E-19
3.420000E+03	1.747075E-17	5.673889E-19
3.430000E+03	1.783531E-17	5.781696E-19
3.440000E+03	1.820765E-17	5.891553E-19
3.450000E+03	1.858786E-17	6.003472E-19
3.460000E+03	1.897287E-17	6.116443E-19
3.470000E+03	1.936905E-17	6.232508E-19
3.480000E+03	1.977336E-17	6.350670E-19
3.490000E+03	2.018589E-17	6.470939E-19
3.500000E+03	2.060325E-17	6.592213E-19
3.510000E+03	2.103233E-17	6.716681E-19
3.520000E+03	2.146981E-17	6.843262E-19
3.530000E+03	2.191574E-17	6.971953E-19
3.540000E+03	2.237013E-17	7.102743E-19
3.550000E+03	2.282921E-17	7.234414E-19
3.560000E+03	2.330053E-17	7.369347E-19
3.570000E+03	2.378035E-17	7.506337E-19
3.580000E+03	2.426867E-17	7.645359E-19
3.590000E+03	2.476129E-17	7.785085E-19
3.600000E+03	2.526636E-17	7.928053E-19
3.610000E+03	2.577975E-17	8.072948E-19
3.620000E+03	2.630136E-17	8.219721E-19
3.630000E+03	2.683108E-17	8.368316E-19
3.640000E+03	2.736876E-17	8.518675E-19
3.650000E+03	2.790960E-17	8.669281E-19
3.660000E+03	2.846256E-17	8.822912E-19
3.670000E+03	2.902288E-17	8.978066E-19
3.680000E+03	2.959027E-17	9.134636E-19
3.690000E+03	3.016443E-17	9.292517E-19
3.700000E+03	3.073990E-17	9.450013E-19
3.710000E+03	3.132641E-17	9.610102E-19
3.720000E+03	3.191849E-17	9.771091E-19
3.730000E+03	3.251565E-17	9.932814E-19
3.740000E+03	3.311736E-17	1.009510E-18
3.750000E+03	3.372298E-17	1.025774E-18
3.760000E+03	3.432618E-17	1.041880E-18
3.770000E+03	3.493747E-17	1.058148E-18
3.780000E+03	3.555047E-17	1.074382E-18
3.790000E+03	3.616429E-17	1.090555E-18
3.800000E+03	3.677797E-17	1.106639E-18
3.810000E+03	3.738427E-17	1.122414E-18
3.820000E+03	3.799430E-17	1.138216E-18
3.830000E+03	3.860074E-17	1.153826E-18
3.840000E+03	3.920224E-17	1.169202E-18
3.850000E+03	3.979734E-17	1.184303E-18
3.860000E+03	4.037781E-17	1.198885E-18
3.870000E+03	4.095515E-17	1.213293E-18
3.880000E+03	4.152098E-17	1.227278E-18
3.890000E+03	4.207331E-17	1.240784E-18
3.900000E+03	4.261005E-17	1.253753E-18
3.910000E+03	4.312890E-17	1.266120E-18
3.920000E+03	4.362033E-17	1.277610E-18
3.930000E+03	4.409606E-17	1.288570E-18
3.940000E+03	4.454635E-17	1.298719E-18
3.950000E+03	4.496849E-17	1.307986E-18
3.960000E+03	4.535974E-17	1.316294E-18
3.970000E+03	4.570986E-17	1.323354E-18
3.980000E+03	4.603117E-17	1.329531E-18
3.990000E+03	4.631384E-17	1.334547E-18
4.000000E+03	4.655580E-17	1.338351E-18
4.010000E+03	4.674775E-17	1.340684E-18
4.020000E+03	4.690394E-17	1.341964E-18
4.030000E+03	4.701641E-17	1.341972E-18
4.040000E+03	4.708567E-17	1.340732E-18
4.050000E+03	4.710540E-17	1.338072E-18
4.060000E+03	4.709333E-17	1.334506E-18
4.070000E+03	4.704503E-17	1.329915E-18
4.080000E+03	4.696470E-17	1.324425E-18
4.090000E+03	4.684967E-17	1.317968E-18
4.100000E+03	4.672089E-17	1.311139E-18
4.110000E+03	4.657688E-17	1.303900E-18
4.120000E+03	4.642414E-17	1.296436E-18
4.130000E+03	4.626182E-17	1.288725E-18
4.140000E+03	4.611168E-17	1.281373E-18
4.150000E+03	4.597259E-17	1.274347E-18
4.160000E+03	4.584326E-17	1.267611E-18
4.170000E+03	4.574431E-17	1.261729E-18
4.180000E+03	4.567339E-17	1.256632E-18
4.190000E+03	4.562762E-17	1.252236E-18
4.200000E+03	4.562570E-17	1.249046E-18
4.210000E+03	4.566339E-17	1.246939E-18
4.220000E+03	4.573574E-17	1.245771E-18
4.230000E+03	4.585935E-17	1.245988E-18
4.240000E+03	4.602795E-17	1.247408E-18
4.250000E+03	4.623450E-17	1.249833E-18
4.260000E+03	4.649380E-17	1.253653E-18
4.270000E+03	4.679008E-17	1.258434E-18
4.280000E+03	4.713713E-17	1.264539E-18
4.290000E+03	4.752569E-17	1.271709E-18
4.300000E+03	4.794581E-17	1.279672E-18
4.310000E+03	4.841037E-17	1.288763E-18
4.320000E+03	4.890100E-17	1.298487E-18
4.330000E+03	4.943050E-17	1.309177E-18
4.340000E+03	4.998006E-17	1.320329E-18
4.350000E+03	5.056293E-17	1.332288E-18
4.360000E+03	5.116869E-17	1.344774E-18
4.370000E+03	5.178703E-17	1.357513E-18
4.380000E+03	5.243317E-17	1.370901E-18
4.390000E+03	5.308956E-17	1.384474E-18
4.400000E+03	5.377302E-17	1.398668E-18
4.410000E+03	5.446659E-17	1.413040E-18
4.420000E+03	5.517943E-17	1.427824E-18
4.430000E+03	5.592125E-17	1.443267E-18
4.440000E+03	5.667471E-17	1.458919E-18
4.450000E+03	5.745788E-17	1.475240E-18
4.460000E+03	5.825153E-17	1.491732E-18
4.470000E+03	5.907204E-17	1.508812E-18
4.480000E+03	5.989696E-17	1.525903E-18
4.490000E+03	6.073026E-17	1.543104E-18
4.500000E+03	6.157460E-17	1.560482E-18
4.510000E+03	6.240137E-17	1.577311E-18
4.520000E+03	6.321967E-17	1.593824E-18
4.530000E+03	6.399711E-17	1.609209E-18
4.540000E+03	6.473026E-17	1.623387E-18
4.550000E+03	6.541551E-17	1.636278E-18
4.560000E+03	6.601783E-17	1.647016E-18
4.570000E+03	6.653395E-17	1.655537E-18
4.580000E+03	6.695151E-17	1.661551E-18
4.590000E+03	6.727079E-17	1.665084E-18
4.600000E+03	6.746239E-17	1.665430E-18
4.610000E+03	6.753201E-17	1.662753E-18
4.620000E+03	6.747796E-17	1.657036E-18
4.630000E+03	6.731261E-17	1.648605E-18
4.640000E+03	6.701934E-17	1.637077E-18
4.650000E+03	6.661675E-17	1.622929E-18
4.660000E+03	6.611514E-17	1.606432E-18
4.670000E+03	6.552679E-17	1.587903E-18
4.680000E+03	6.487562E-17	1.567937E-18
4.690000E+03	6.415514E-17	1.546389E-18
4.700000E+03	6.339028E-17	1.523871E-18
4.710000E+03	6.259515E-17	1.500730E-18
4.720000E+03	6.178314E-17	1.477293E-18
4.730000E+03	6.096660E-17	1.453856E-18
4.740000E+03	6.015665E-17	1.430684E-18
4.750000E+03	5.936306E-17	1.408008E-18
4.760000E+03	5.859420E-17	1.386023E-18
4.770000E+03	5.785714E-17	1.364890E-18
4.780000E+03	5.715763E-17	1.344739E-18
4.790000E+03	5.650027E-17	1.325669E-18
4.800000E+03	5.588857E-17	1.307755E-18
4.810000E+03	5.532510E-17	1.291048E-18
4.820000E+03	5.481156E-17	1.275578E-18
4.830000E+03	5.434890E-17	1.261358E-18
4.840000E+03	5.393746E-17	1.248385E-18
4.850000E+03	5.357696E-17	1.236644E-18
4.860000E+03	5.326670E-17	1.226109E-18
4.870000E+03	5.300553E-17	1.216743E-18
4.880000E+03	5.279201E-17	1.208505E-18
4.890000E+03	5.262446E-17	1.201346E-18
4.900000E+03	5.249273E-17	1.195028E-18
4.910000E+03	5.241149E-17	1.189876E-18
4.920000E+03	5.237043E-17	1.185648E-18
4.930000E+03	5.236763E-17	1.182293E-18
4.940000E+03	5.240123E-17	1.179761E-18
4.950000E+03	5.246126E-17	1.177823E-18
4.960000E+03	5.256274E-17	1.176809E-18
4.970000E+03	5.269611E-17	1.176499E-18
4.980000E+03	5.286034E-17	1.176863E-18
4.990000E+03	5.304626E-17	1.177693E-18
5.000000E+03	5.327013E-17	1.179345E-18
5.010000E+03	5.352345E-17	1.181624E-18
5.020000E+03	5.379790E-17	1.184342E-18
5.030000E+03	5.411086E-17	1.187876E-18
5.040000E+03	5.445468E-17	1.192052E-18
5.050000E+03	5.482178E-17	1.196700E-18
5.060000E+03	5.523056E-17	1.202216E-18
5.070000E+03	5.566502E-17	1.208245E-18
5.080000E+03	5.614383E-17	1.215187E-18
5.090000E+03	5.665034E-17	1.222674E-18
5.100000E+03	5.720280E-17	1.231096E-18
5.110000E+03	5.778307E-17	1.240054E-18
5.120000E+03	5.840796E-17	1.249904E-18
5.130000E+03	5.905677E-17	1.260196E-18
5.140000E+03	5.974409E-17	1.271237E-18
5.150000E+03	6.044577E-17	1.282509E-18
5.160000E+03	6.117360E-17	1.294259E-18
5.170000E+03	6.189978E-17	1.305895E-18
5.180000E+03	6.263344E-17	1.317612E-18
5.190000E+03	6.334361E-17	1.328759E-18
5.200000E+03	6.402770E-17	1.339287E-18
5.210000E+03	6.468302E-17	1.349145E-18
5.220000E+03	6.527657E-17	1.357653E-18
5.230000E+03	6.580605E-17	1.364774E-18
5.240000E+03	6.627052E-17	1.370502E-18
5.250000E+03	6.663934E-17	1.374216E-18
5.260000E+03	6.691481E-17	1.375983E-18
5.270000E+03	6.710160E-17	1.375914E-18
5.280000E+03	6.717525E-17	1.373525E-18
5.290000E+03	6.714526E-17	1.369031E-18
5.300000E+03	6.701310E-17	1.362479E-18
5.310000E+03	6.678248E-17	1.353964E-18
5.320000E+03	6.646952E-17	1.343828E-18
5.330000E+03	6.606058E-17	1.331810E-18
5.340000E+03	6.557455E-17	1.318308E-18
5.350000E+03	6.502048E-17	1.303515E-18
5.360000E+03	6.440761E-17	1.287628E-18
5.370000E+03	6.374489E-17	1.270834E-18
5.380000E+03	6.304068E-17	1.253310E-18
5.390000E+03	6.230236E-17	1.235207E-18
5.400000E+03	6.153620E-17	1.216655E-18
5.410000E+03	6.074720E-17	1.197758E-18
5.420000E+03	5.993906E-17	1.178590E-18
5.430000E+03	5.911421E-17	1.159203E-18
5.440000E+03	5.827396E-17	1.139625E-18
5.450000E+03	5.741862E-17	1.119864E-18
5.460000E+03	5.654781E-17	1.099913E-18
5.470000E+03	5.566075E-17	1.079761E-18
5.480000E+03	5.475683E-17	1.059398E-18
5.490000E+03	5.383604E-17	1.038824E-18
5.500000E+03	5.289959E-17	1.018065E-18
5.510000E+03	5.195017E-17	9.971723E-19
5.520000E+03	5.099165E-17	9.762213E-19
5.530000E+03	5.002864E-17	9.552996E-19
5.540000E+03	4.906616E-17	9.345020E-19
5.550000E+03	4.810195E-17	9.137841E-19
5.560000E+03	4.715661E-17	8.935355E-19
5.570000E+03	4.622808E-17	8.737124E-19
5.580000E+03	4.532208E-17	8.544198E-19
5.590000E+03	4.443763E-17	8.356342E-19
5.600000E+03	4.359481E-17	8.177280E-19
5.610000E+03	4.279277E-17	8.006787E-19
5.620000E+03	4.203781E-17	7.845967E-19
5.630000E+03	4.132982E-17	7.694728E-19
5.640000E+03	4.068807E-17	7.556571E-19
5.650000E+03	4.011216E-17	7.431322E-19
5.660000E+03	3.960188E-17	7.318849E-19
5.670000E+03	3.917535E-17	7.222395E-19
5.680000E+03	3.883171E-17	7.141680E-19
5.690000E+03	3.856994E-17	7.076405E-19
5.700000E+03	3.840664E-17	7.029493E-19
5.710000E+03	3.833386E-17	6.999358E-19
5.720000E+03	3.836693E-17	6.988674E-19
5.730000E+03	3.850261E-17	6.996711E-19
5.740000E+03	3.873675E-17	7.022582E-19
5.750000E+03	3.908219E-17	7.068484E-19
5.760000E+03	3.952643E-17	7.132019E-19
5.770000E+03	4.007989E-17	7.214940E-19
5.780000E+03	4.072664E-17	7.314250E-19
5.790000E+03	4.147378E-17	7.431108E-19
5.800000E+03	4.230079E-17	7.561726E-19
5.810000E+03	4.320388E-17	7.705329E-19
5.820000E+03	4.417714E-17	7.860781E-19
5.830000E+03	4.519155E-17	8.022851E-19
5.840000E+03	4.624304E-17	8.190770E-19
5.850000E+03	4.729703E-17	8.358395E-19
5.860000E+03	4.833834E-17	8.523048E-19
5.870000E+03	4.935117E-17	8.681976E-19
5.880000E+03	5.029650E-17	8.828368E-19
5.890000E+03	5.116656E-17	8.960954E-19
5.900000E+03	5.192413E-17	9.073322E-19
5.910000E+03	5.255844E-17	9.163734E-19
5.920000E+03	5.305485E-17	9.229791E-19
5.930000E+03	5.341183E-17	9.271392E-19
5.940000E+03	5.360837E-17	9.285062E-19
5.950000E+03	5.365398E-17	9.272629E-19
5.960000E+03	5.355552E-17	9.235453E-19
5.970000E+03	5.333337E-17	9.177200E-19
5.980000E+03	5.298755E-17	9.098014E-19
5.990000E+03	5.254670E-17	9.002939E-19
6.000000E+03	5.203388E-17	8.896021E-19
6.010000E+03	5.147384E-17	8.781558E-19
6.020000E+03	5.090009E-17	8.665305E-19
6.030000E+03	5.032233E-17	8.548923E-19
6.040000E+03	4.977362E-17	8.438016E-19
6.050000E+03	4.927795E-17	8.336613E-19
6.060000E+03	4.885807E-17	8.248493E-19
6.070000E+03	4.853534E-17	8.177177E-19
6.080000E+03	4.832979E-17	8.125932E-19
6.090000E+03	4.826029E-17	8.097803E-19
6.100000E+03	4.835222E-17	8.096905E-19
6.110000E+03	4.860779E-17	8.123446E-19
6.120000E+03	4.905123E-17	8.181311E-19
6.130000E+03	4.969902E-17	8.273064E-19
6.140000E+03	5.056753E-17	8.401234E-19
6.150000E+03	5.167310E-17	8.568329E-19
6.160000E+03	5.303185E-17	8.776804E-19
6.170000E+03	5.465938E-17	9.029014E-19
6.180000E+03	5.657013E-17	9.327112E-19
6.190000E+03	5.877654E-17	9.672905E-19
6.200000E+03	6.128770E-17	1.006765E-18
6.210000E+03	6.409774E-17	1.051014E-18
6.220000E+03	6.722314E-17	1.100285E-18
6.230000E+03	7.064194E-17	1.154195E-18
6.240000E+03	7.432958E-17	1.212324E-18
6.250000E+03	7.824688E-17	1.274017E-18
6.260000E+03	8.233773E-17	1.338348E-18
6.270000E+03	8.652775E-17	1.404102E-18
6.280000E+03	9.072423E-17	1.469776E-18
6.290000E+03	9.481787E-17	1.533610E-18
6.300000E+03	9.867137E-17	1.593400E-18
6.310000E+03	1.021864E-16	1.647587E-18
6.320000E+03	1.052214E-16	1.693925E-18
6.330000E+03	1.076605E-16	1.730593E-18
6.340000E+03	1.094084E-16	1.756108E-18
6.350000E+03	1.103814E-16	1.769182E-18
6.360000E+03	1.105818E-16	1.769912E-18
6.370000E+03	1.099985E-16	1.758170E-18
6.380000E+03	1.086732E-16	1.734675E-18
6.390000E+03	1.066630E-16	1.700385E-18
6.400000E+03	1.040995E-16	1.657433E-18
6.410000E+03	1.010795E-16	1.607391E-18
6.420000E+03	9.772322E-17	1.552188E-18
6.430000E+03	9.413436E-17	1.493483E-18
6.440000E+03	9.045252E-17	1.433496E-18
6.450000E+03	8.675887E-17	1.373510E-18
6.460000E+03	8.312075E-17	1.314584E-18
6.470000E+03	7.962777E-17	1.258125E-18
6.480000E+03	7.631306E-17	1.204642E-18
6.490000E+03	7.319668E-17	1.154439E-18
6.500000E+03	7.032009E-17	1.108151E-18
6.510000E+03	6.767853E-17	1.065688E-18
6.520000E+03	6.525979E-17	1.026842E-18
6.530000E+03	6.307514E-17	9.917746E-19
6.540000E+03	6.108962E-17	9.599241E-19
6.550000E+03	5.930366E-17	9.312858E-19
6.560000E+03	5.767732E-17	9.052225E-19
6.570000E+03	5.620675E-17	8.816652E-19
6.580000E+03	5.486092E-17	8.601197E-19
6.590000E+03	5.361065E-17	8.401223E-19
6.600000E+03	5.245350E-17	8.216298E-19
6.610000E+03	5.135542E-17	8.041040E-19
6.620000E+03	5.031704E-17	7.875509E-19
6.630000E+03	4.930898E-17	7.715073E-19
6.640000E+03	4.833534E-17	7.560346E-19
6.650000E+03	4.737156E-17	7.407458E-19
6.660000E+03	4.642518E-17	7.257566E-19
6.670000E+03	4.547616E-17	7.107515E-19
6.680000E+03	4.453521E-17	6.958959E-19
6.690000E+03	4.358637E-17	6.809385E-19
6.700000E+03	4.263630E-17	6.659817E-19
6.710000E+03	4.169243E-17	6.511399E-19
6.720000E+03	4.074371E-17	6.362387E-19
6.730000E+03	3.980601E-17	6.215244E-19
6.740000E+03	3.887061E-17	6.068594E-19
6.750000E+03	3.795417E-17	5.925023E-19
6.760000E+03	3.704953E-17	5.783400E-19
6.770000E+03	3.616777E-17	5.645444E-19
6.780000E+03	3.531954E-17	5.512803E-19
6.790000E+03	3.449872E-17	5.384512E-19
6.800000E+03	3.371585E-17	5.262205E-19
6.810000E+03	3.298063E-17	5.147386E-19
6.820000E+03	3.228687E-17	5.039084E-19
6.830000E+03	3.164360E-17	4.938699E-19
6.840000E+03	3.105899E-17	4.847499E-19
6.850000E+03	3.052608E-17	4.764392E-19
6.860000E+03	3.005215E-17	4.690510E-19
6.870000E+03	2.964369E-17	4.626862E-19
6.880000E+03	2.929284E-17	4.572217E-19
6.890000E+03	2.900528E-17	4.527458E-19
6.900000E+03	2.878167E-17	4.492687E-19
6.910000E+03	2.862678E-17	4.468642E-19
6.920000E+03	2.853164E-17	4.453925E-19
6.930000E+03	2.850052E-17	4.449197E-19
6.940000E+03	2.853289E-17	4.454375E-19
6.950000E+03	2.863257E-17	4.470054E-19
6.960000E+03	2.878980E-17	4.494708E-19
6.970000E+03	2.900811E-17	4.528886E-19
6.980000E+03	2.928647E-17	4.572424E-19
6.990000E+03	2.962391E-17	4.625169E-19
7.000000E+03	3.002411E-17	4.687695E-19
7.010000E+03	3.047697E-17	4.758421E-19
7.020000E+03	3.098652E-17	4.837971E-19
7.030000E+03	3.155243E-17	4.926296E-19
7.040000E+03	3.217485E-17	5.023411E-19
7.050000E+03	3.285440E-17	5.129411E-19
7.060000E+03	3.359234E-17	5.244489E-19
7.070000E+03	3.439600E-17	5.369785E-19
7.080000E+03	3.525748E-17	5.504061E-19
7.090000E+03	3.618558E-17	5.648687E-19
7.100000E+03	3.718470E-17	5.804342E-19
7.110000E+03	3.826005E-17	5.971836E-19
7.120000E+03	3.941759E-17	6.152090E-19
7.130000E+03	4.066391E-17	6.346127E-19
7.140000E+03	4.200604E-17	6.555038E-19
7.150000E+03	4.345124E-17	6.779946E-19
7.160000E+03	4.500663E-17	7.021952E-19
7.170000E+03	4.667877E-17	7.282071E-19
7.180000E+03	4.847321E-17	7.561158E-19
7.190000E+03	5.039380E-17	7.859801E-19
7.200000E+03	5.244203E-17	8.178221E-19
7.210000E+03	5.461611E-17	8.516128E-19
7.220000E+03	5.691015E-17	8.872592E-19
7.230000E+03	5.931311E-17	9.245877E-19
7.240000E+03	6.180786E-17	9.633303E-19
7.250000E+03	6.437023E-17	1.003110E-18
7.260000E+03	6.696841E-17	1.043429E-18
7.270000E+03	6.956251E-17	1.083667E-18
7.280000E+03	7.210475E-17	1.123079E-18
7.290000E+03	7.454021E-17	1.160810E-18
7.300000E+03	7.680834E-17	1.195920E-18
7.310000E+03	7.884529E-17	1.227414E-18
7.320000E+03	8.058695E-17	1.254300E-18
7.330000E+03	8.197254E-17	1.275632E-18
7.340000E+03	8.294850E-17	1.290583E-18
7.350000E+03	8.345916E-17	1.298291E-18
7.360000E+03	8.350245E-17	1.298727E-18
7.370000E+03	8.305354E-17	1.291512E-18
7.380000E+03	8.211824E-17	1.276740E-18
7.390000E+03	8.071963E-17	1.254776E-18
7.400000E+03	7.889644E-17	1.226226E-18
7.410000E+03	7.670025E-17	1.191896E-18
7.420000E+03	7.418032E-17	1.152555E-18
7.430000E+03	7.142683E-17	1.109605E-18
7.440000E+03	6.849575E-17	1.063919E-18
7.450000E+03	6.545338E-17	1.016528E-18
7.460000E+03	6.236149E-17	9.683896E-19
7.470000E+03	5.926593E-17	9.202175E-19
7.480000E+03	5.623326E-17	8.730435E-19
7.490000E+03	5.329274E-17	8.273212E-19
7.500000E+03	5.047512E-17	7.835261E-19
7.510000E+03	4.779585E-17	7.418971E-19
7.520000E+03	4.528633E-17	7.029199E-19
7.530000E+03	4.294853E-17	6.666235E-19
7.540000E+03	4.078726E-17	6.330813E-19
7.550000E+03	3.879721E-17	6.022096E-19
7.560000E+03	3.698853E-17	5.741652E-19
7.570000E+03	3.535011E-17	5.487746E-19
7.580000E+03	3.387022E-17	5.258554E-19
7.590000E+03	3.255234E-17	5.054611E-19
7.600000E+03	3.138278E-17	4.873794E-19
7.610000E+03	3.034832E-17	4.714052E-19
7.620000E+03	2.945023E-17	4.575584E-19
7.630000E+03	2.867516E-17	4.456327E-19
7.640000E+03	2.801056E-17	4.354336E-19
7.650000E+03	2.745753E-17	4.269795E-19
7.660000E+03	2.700405E-17	4.200851E-19
7.670000E+03	2.663881E-17	4.145757E-19
7.680000E+03	2.636352E-17	4.104799E-19
7.690000E+03	2.616340E-17	4.075694E-19
7.700000E+03	2.604075E-17	4.058824E-19
7.710000E+03	2.598574E-17	4.052677E-19
7.720000E+03	2.598896E-17	4.055811E-19
7.730000E+03	2.605361E-17	4.068754E-19
7.740000E+03	2.616681E-17	4.089517E-19
7.750000E+03	2.633246E-17	4.118744E-19
7.760000E+03	2.653819E-17	4.154526E-19
