#wls	flux	fluxerr
1.586515E+03	1.560599E-03	1.191168E-06
1.626177E+03	1.593708E-03	1.216439E-06
1.665840E+03	1.628060E-03	1.242660E-06
1.705503E+03	1.663835E-03	1.269966E-06
1.745166E+03	1.701002E-03	1.298334E-06
1.784829E+03	1.739519E-03	1.327733E-06
1.824492E+03	1.779336E-03	1.358125E-06
1.864155E+03	1.820596E-03	1.389618E-06
1.903818E+03	1.863222E-03	1.422153E-06
1.943480E+03	1.907329E-03	1.455818E-06
1.983143E+03	1.952809E-03	1.490532E-06
2.022806E+03	1.999531E-03	1.526194E-06
2.062469E+03	2.047551E-03	1.562847E-06
2.102132E+03	2.096696E-03	1.600357E-06
2.141795E+03	2.146757E-03	1.638568E-06
2.181458E+03	2.197926E-03	1.677624E-06
2.221120E+03	2.249939E-03	1.717324E-06
2.260783E+03	2.302708E-03	1.757601E-06
2.300446E+03	2.355693E-03	1.798043E-06
2.340109E+03	2.408947E-03	1.838691E-06
2.379772E+03	2.462075E-03	1.879242E-06
2.419435E+03	2.515065E-03	1.919688E-06
2.459098E+03	2.567458E-03	1.959678E-06
2.498761E+03	2.618776E-03	1.998848E-06
2.538423E+03	2.668941E-03	2.037137E-06
2.578086E+03	2.717461E-03	2.074171E-06
2.617749E+03	2.764260E-03	2.109892E-06
2.657412E+03	2.809080E-03	2.144101E-06
2.697075E+03	2.851513E-03	2.176490E-06
2.736738E+03	2.891807E-03	2.207245E-06
2.776401E+03	2.929518E-03	2.236029E-06
2.816063E+03	2.964900E-03	2.263035E-06
2.855726E+03	2.998334E-03	2.288554E-06
2.895389E+03	3.030355E-03	2.312995E-06
2.935052E+03	3.061160E-03	2.336507E-06
2.974715E+03	3.092051E-03	2.360085E-06
2.984631E+03	3.099825E-03	2.366019E-06
2.994546E+03	3.107850E-03	2.372144E-06
3.004462E+03	3.115812E-03	2.378221E-06
3.014378E+03	3.123898E-03	2.384393E-06
3.024294E+03	3.132289E-03	2.390798E-06
3.034209E+03	3.140685E-03	2.397206E-06
3.044125E+03	3.149431E-03	2.403882E-06
3.054041E+03	3.158393E-03	2.410722E-06
3.063956E+03	3.167600E-03	2.417750E-06
3.073872E+03	3.177079E-03	2.424985E-06
3.083788E+03	3.187023E-03	2.432575E-06
3.093704E+03	3.197305E-03	2.440423E-06
3.103619E+03	3.207963E-03	2.448558E-06
3.113535E+03	3.219039E-03	2.457011E-06
3.123451E+03	3.230727E-03	2.465933E-06
3.133366E+03	3.242918E-03	2.475238E-06
3.143282E+03	3.255816E-03	2.485082E-06
3.153198E+03	3.269315E-03	2.495386E-06
3.163114E+03	3.283627E-03	2.506309E-06
3.173029E+03	3.298655E-03	2.517780E-06
3.182945E+03	3.314617E-03	2.529963E-06
3.192861E+03	3.331428E-03	2.542795E-06
3.202776E+03	3.349310E-03	2.556444E-06
3.212692E+03	3.368192E-03	2.570856E-06
3.222608E+03	3.388303E-03	2.586206E-06
3.232524E+03	3.409730E-03	2.602561E-06
3.242439E+03	3.432420E-03	2.619879E-06
3.252355E+03	3.456764E-03	2.638460E-06
3.262271E+03	3.482577E-03	2.658162E-06
3.272186E+03	3.510113E-03	2.679181E-06
3.282102E+03	3.539494E-03	2.701606E-06
3.292018E+03	3.570699E-03	2.725424E-06
3.301934E+03	3.604153E-03	2.750958E-06
3.311849E+03	3.639708E-03	2.778096E-06
3.321765E+03	3.677802E-03	2.807173E-06
3.331681E+03	3.718451E-03	2.838199E-06
3.341596E+03	3.761679E-03	2.871194E-06
3.351512E+03	3.807950E-03	2.906511E-06
3.361428E+03	3.857310E-03	2.944187E-06
3.371344E+03	3.909956E-03	2.984370E-06
3.381259E+03	3.966096E-03	3.027220E-06
3.391175E+03	4.025949E-03	3.072904E-06
3.401091E+03	4.089895E-03	3.121713E-06
3.411006E+03	4.158026E-03	3.173715E-06
3.420922E+03	4.230591E-03	3.229102E-06
3.430838E+03	4.307998E-03	3.288185E-06
3.440754E+03	4.390359E-03	3.351049E-06
3.450669E+03	4.477935E-03	3.417893E-06
3.460585E+03	4.571140E-03	3.489034E-06
3.461548E+03	5.283626E-03	4.032857E-06
3.464477E+03	5.431215E-03	4.145507E-06
3.467406E+03	5.330336E-03	4.068509E-06
3.470335E+03	5.578635E-03	4.258029E-06
3.473264E+03	5.633144E-03	4.299635E-06
3.476194E+03	5.644250E-03	4.308111E-06
3.479123E+03	5.757336E-03	4.394427E-06
3.482053E+03	6.130166E-03	4.678998E-06
3.484982E+03	6.132795E-03	4.681005E-06
3.487911E+03	6.110669E-03	4.664117E-06
3.490840E+03	6.136863E-03	4.684110E-06
3.493769E+03	6.118722E-03	4.670264E-06
3.496699E+03	6.158989E-03	4.700998E-06
3.499628E+03	6.309460E-03	4.815849E-06
3.502557E+03	6.342013E-03	4.840696E-06
3.505486E+03	6.229265E-03	4.754639E-06
3.508415E+03	6.176113E-03	4.714069E-06
3.511345E+03	6.170857E-03	4.710057E-06
3.514275E+03	5.973167E-03	4.559165E-06
3.517204E+03	5.950279E-03	4.541695E-06
3.520133E+03	5.928407E-03	4.525001E-06
3.523062E+03	5.836853E-03	4.455120E-06
3.525991E+03	5.785481E-03	4.415909E-06
3.528920E+03	5.869406E-03	4.479967E-06
3.531849E+03	5.962316E-03	4.550883E-06
3.534779E+03	5.989105E-03	4.571330E-06
3.537708E+03	5.980966E-03	4.565117E-06
3.540638E+03	5.963927E-03	4.552112E-06
3.543567E+03	5.891361E-03	4.496725E-06
3.546496E+03	5.840583E-03	4.457967E-06
3.549425E+03	5.955111E-03	4.545383E-06
3.552355E+03	6.007076E-03	4.585047E-06
3.555284E+03	6.124148E-03	4.674405E-06
3.558213E+03	6.274280E-03	4.788996E-06
3.561142E+03	6.318276E-03	4.822578E-06
3.564071E+03	6.395674E-03	4.881654E-06
3.567000E+03	6.490196E-03	4.953799E-06
3.569930E+03	6.436534E-03	4.912841E-06
3.572860E+03	6.497909E-03	4.959687E-06
3.575789E+03	6.621339E-03	5.053898E-06
3.578718E+03	6.585988E-03	5.026915E-06
3.581647E+03	6.539958E-03	4.991781E-06
3.584576E+03	6.498418E-03	4.960075E-06
3.587505E+03	6.400930E-03	4.885665E-06
3.590435E+03	6.386010E-03	4.874277E-06
3.593364E+03	6.325736E-03	4.828271E-06
3.596294E+03	6.292251E-03	4.802713E-06
3.599223E+03	6.242998E-03	4.765120E-06
3.602152E+03	6.229774E-03	4.755026E-06
3.605081E+03	6.233249E-03	4.757678E-06
3.608010E+03	6.189592E-03	4.724356E-06
3.610940E+03	6.163397E-03	4.704362E-06
3.613869E+03	6.243676E-03	4.765637E-06
3.616798E+03	6.346252E-03	4.843931E-06
3.619727E+03	6.451878E-03	4.924553E-06
3.622656E+03	6.588871E-03	5.029115E-06
3.625586E+03	6.777235E-03	5.172889E-06
3.631445E+03	6.923977E-03	5.284893E-06
3.634374E+03	6.987812E-03	5.333616E-06
3.637303E+03	7.118361E-03	5.433261E-06
3.640232E+03	7.346653E-03	5.607511E-06
3.643161E+03	7.494666E-03	5.720486E-06
3.646090E+03	7.628947E-03	5.822978E-06
3.649020E+03	7.784844E-03	5.941971E-06
3.651949E+03	7.959645E-03	6.075391E-06
3.654879E+03	8.112744E-03	6.192248E-06
3.657808E+03	8.344173E-03	6.368892E-06
3.660737E+03	8.505241E-03	6.491831E-06
3.663666E+03	8.616293E-03	6.576594E-06
3.666596E+03	8.713782E-03	6.651005E-06
3.669525E+03	8.866373E-03	6.767474E-06
3.672454E+03	9.075761E-03	6.927294E-06
3.675383E+03	9.268195E-03	7.074174E-06
3.678312E+03	9.407223E-03	7.180291E-06
3.681241E+03	9.525057E-03	7.270230E-06
3.684171E+03	9.581855E-03	7.313582E-06
3.687101E+03	9.694602E-03	7.399639E-06
3.690030E+03	9.798872E-03	7.479226E-06
3.692959E+03	9.871778E-03	7.534873E-06
3.695888E+03	9.948921E-03	7.593754E-06
3.698817E+03	9.972656E-03	7.611871E-06
3.701746E+03	1.001589E-02	7.644870E-06
3.704676E+03	1.006591E-02	7.683046E-06
3.707605E+03	1.009388E-02	7.704399E-06
3.710534E+03	1.011253E-02	7.718634E-06
3.713464E+03	1.012355E-02	7.727045E-06
3.716393E+03	1.013881E-02	7.738691E-06
3.719322E+03	1.018798E-02	7.776220E-06
3.722251E+03	1.023206E-02	7.809867E-06
3.725181E+03	1.027445E-02	7.842219E-06
3.728110E+03	1.025325E-02	7.826043E-06
3.731039E+03	1.024647E-02	7.820867E-06
3.733968E+03	1.023969E-02	7.815690E-06
3.736897E+03	1.022867E-02	7.807279E-06
3.739826E+03	1.024393E-02	7.818926E-06
3.742757E+03	1.029564E-02	7.858396E-06
3.745686E+03	1.033379E-02	7.887513E-06
3.748615E+03	1.031259E-02	7.871336E-06
3.751544E+03	1.032362E-02	7.879748E-06
3.754473E+03	1.035837E-02	7.906276E-06
3.757402E+03	1.035413E-02	7.903041E-06
3.760331E+03	1.036007E-02	7.907571E-06
3.763261E+03	1.039991E-02	7.937982E-06
3.766190E+03	1.047705E-02	7.996864E-06
3.769119E+03	1.059743E-02	8.088744E-06
3.772049E+03	1.066695E-02	8.141802E-06
3.774978E+03	1.072629E-02	8.187096E-06
3.777907E+03	1.076528E-02	8.216859E-06
3.780837E+03	1.082716E-02	8.264094E-06
3.783766E+03	1.089414E-02	8.315211E-06
3.786695E+03	1.096280E-02	8.367621E-06
3.789624E+03	1.103571E-02	8.423267E-06
3.792553E+03	1.108911E-02	8.464032E-06
3.795482E+03	1.118575E-02	8.537795E-06
3.798412E+03	1.123407E-02	8.574677E-06
3.801342E+03	1.130359E-02	8.627735E-06
3.804271E+03	1.134767E-02	8.661381E-06
3.807200E+03	1.140447E-02	8.704733E-06
3.810129E+03	1.144770E-02	8.737732E-06
3.813058E+03	1.148161E-02	8.763614E-06
3.815987E+03	1.154858E-02	8.814731E-06
3.818917E+03	1.163844E-02	8.883318E-06
3.821846E+03	1.171389E-02	8.940906E-06
3.824775E+03	1.177492E-02	8.987493E-06
3.827705E+03	1.187156E-02	9.061256E-06
3.830634E+03	1.195040E-02	9.121431E-06
3.833563E+03	1.207417E-02	9.215901E-06
3.836493E+03	1.220133E-02	9.312958E-06
3.839422E+03	1.232849E-02	9.410015E-06
3.842351E+03	1.246921E-02	9.517424E-06
3.845280E+03	1.259552E-02	9.613835E-06
3.848209E+03	1.278202E-02	9.756185E-06
3.851138E+03	1.295835E-02	9.890771E-06
3.854067E+03	1.313383E-02	1.002471E-05
3.856998E+03	1.330168E-02	1.015283E-05
3.859927E+03	1.344325E-02	1.026088E-05
3.862856E+03	1.356786E-02	1.035599E-05
3.865785E+03	1.372300E-02	1.047441E-05
3.868714E+03	1.386711E-02	1.058441E-05
3.871643E+03	1.397054E-02	1.066335E-05
3.874573E+03	1.405954E-02	1.073128E-05
3.877502E+03	1.414008E-02	1.079275E-05
3.880431E+03	1.420196E-02	1.083999E-05
3.883360E+03	1.430454E-02	1.091828E-05
3.886290E+03	1.442153E-02	1.100758E-05
3.889219E+03	1.450969E-02	1.107487E-05
3.892148E+03	1.455038E-02	1.110593E-05
3.895078E+03	1.459277E-02	1.113828E-05
3.898007E+03	1.465380E-02	1.118486E-05
3.900936E+03	1.470043E-02	1.122045E-05
3.903865E+03	1.471908E-02	1.123469E-05
3.906794E+03	1.477078E-02	1.127415E-05
3.909723E+03	1.484878E-02	1.133369E-05
3.912653E+03	1.494203E-02	1.140486E-05
3.915583E+03	1.500307E-02	1.145145E-05
3.918512E+03	1.506579E-02	1.149933E-05
3.921441E+03	1.511243E-02	1.153492E-05
3.924370E+03	1.511751E-02	1.153880E-05
3.927299E+03	1.513616E-02	1.155304E-05
3.930228E+03	1.517685E-02	1.158409E-05
3.933158E+03	1.521076E-02	1.160998E-05
3.936087E+03	1.521670E-02	1.161451E-05
3.939016E+03	1.520398E-02	1.160480E-05
3.941945E+03	1.528960E-02	1.167016E-05
3.944875E+03	1.530910E-02	1.168504E-05
3.947804E+03	1.535063E-02	1.171673E-05
3.950734E+03	1.536250E-02	1.172579E-05
3.953663E+03	1.540150E-02	1.175556E-05
3.956592E+03	1.540913E-02	1.176139E-05
3.959521E+03	1.540997E-02	1.176203E-05
3.962450E+03	1.535149E-02	1.171739E-05
3.965379E+03	1.535741E-02	1.172191E-05
3.968308E+03	1.536420E-02	1.172709E-05
3.971238E+03	1.530317E-02	1.168051E-05
3.974168E+03	1.524975E-02	1.163974E-05
3.977097E+03	1.518363E-02	1.158927E-05
3.980026E+03	1.514717E-02	1.156144E-05
3.982955E+03	1.511412E-02	1.153621E-05
3.985885E+03	1.508615E-02	1.151486E-05
3.988814E+03	1.505477E-02	1.149091E-05
3.991743E+03	1.500476E-02	1.145274E-05
3.994672E+03	1.499289E-02	1.144368E-05
3.997601E+03	1.497085E-02	1.142686E-05
4.000530E+03	1.494458E-02	1.140681E-05
4.003460E+03	1.489117E-02	1.136604E-05
4.006389E+03	1.486997E-02	1.134986E-05
4.009319E+03	1.487083E-02	1.135051E-05
4.012248E+03	1.488692E-02	1.136280E-05
4.015177E+03	1.487930E-02	1.135698E-05
4.018106E+03	1.483606E-02	1.132398E-05
4.021035E+03	1.481911E-02	1.131104E-05
4.023965E+03	1.483437E-02	1.132269E-05
4.026894E+03	1.485980E-02	1.134210E-05
4.029824E+03	1.489455E-02	1.136862E-05
4.032753E+03	1.490219E-02	1.137445E-05
4.035682E+03	1.486997E-02	1.134986E-05
4.038611E+03	1.482673E-02	1.131686E-05
4.041540E+03	1.480301E-02	1.129875E-05
4.044469E+03	1.478774E-02	1.128710E-05
4.047399E+03	1.475553E-02	1.126251E-05
4.050328E+03	1.471399E-02	1.123080E-05
4.053257E+03	1.470043E-02	1.122045E-05
4.056186E+03	1.470552E-02	1.122434E-05
4.059116E+03	1.468517E-02	1.120881E-05
4.062046E+03	1.464872E-02	1.118098E-05
4.064975E+03	1.462752E-02	1.116480E-05
4.067904E+03	1.456903E-02	1.112016E-05
4.070833E+03	1.447070E-02	1.104510E-05
4.073762E+03	1.439355E-02	1.098622E-05
4.076691E+03	1.433675E-02	1.094287E-05
4.079620E+03	1.425282E-02	1.087881E-05
4.082550E+03	1.415788E-02	1.080634E-05
4.085479E+03	1.409176E-02	1.075587E-05
4.088409E+03	1.407650E-02	1.074423E-05
4.091338E+03	1.400529E-02	1.068987E-05
4.094267E+03	1.395018E-02	1.064781E-05
4.097196E+03	1.391289E-02	1.061934E-05
4.100125E+03	1.387050E-02	1.058699E-05
4.103055E+03	1.379760E-02	1.053135E-05
4.105984E+03	1.375522E-02	1.049899E-05
4.108913E+03	1.367977E-02	1.044141E-05
4.111842E+03	1.366366E-02	1.042911E-05
4.114771E+03	1.360771E-02	1.038641E-05
4.117701E+03	1.352718E-02	1.032494E-05
4.120631E+03	1.348903E-02	1.029582E-05
4.123560E+03	1.344749E-02	1.026412E-05
4.126489E+03	1.341527E-02	1.023953E-05
4.129418E+03	1.342884E-02	1.024988E-05
4.132347E+03	1.342799E-02	1.024923E-05
4.135276E+03	1.340934E-02	1.023500E-05
4.138206E+03	1.337797E-02	1.021106E-05
4.141135E+03	1.336695E-02	1.020264E-05
4.144064E+03	1.330168E-02	1.015282E-05
4.146994E+03	1.325760E-02	1.011918E-05
4.149923E+03	1.324488E-02	1.010947E-05
4.152852E+03	1.324912E-02	1.011270E-05
4.155781E+03	1.320673E-02	1.008035E-05
4.158711E+03	1.316096E-02	1.004541E-05
4.161640E+03	1.313976E-02	1.002924E-05
4.164569E+03	1.313383E-02	1.002471E-05
4.167498E+03	1.313722E-02	1.002729E-05
4.170427E+03	1.315926E-02	1.004412E-05
4.173356E+03	1.317028E-02	1.005253E-05
4.176286E+03	1.320589E-02	1.007970E-05
4.179216E+03	1.322623E-02	1.009523E-05
4.182145E+03	1.322369E-02	1.009329E-05
4.185074E+03	1.323471E-02	1.010170E-05
4.188003E+03	1.327540E-02	1.013276E-05
4.190932E+03	1.328133E-02	1.013729E-05
4.193861E+03	1.328642E-02	1.014117E-05
4.196791E+03	1.330846E-02	1.015800E-05
4.199720E+03	1.333644E-02	1.017935E-05
4.202649E+03	1.335254E-02	1.019164E-05
4.205579E+03	1.330931E-02	1.015864E-05
4.208508E+03	1.330846E-02	1.015800E-05
4.211437E+03	1.332542E-02	1.017094E-05
4.214367E+03	1.330931E-02	1.015864E-05
4.217296E+03	1.327794E-02	1.013470E-05
4.220225E+03	1.325844E-02	1.011982E-05
4.223154E+03	1.322284E-02	1.009265E-05
4.226083E+03	1.320080E-02	1.007582E-05
4.229012E+03	1.317282E-02	1.005447E-05
4.231941E+03	1.314485E-02	1.003312E-05
4.234872E+03	1.312196E-02	1.001565E-05
4.237801E+03	1.307534E-02	9.980060E-06
4.240730E+03	1.306008E-02	9.968413E-06
4.243659E+03	1.305753E-02	9.966472E-06
4.246588E+03	1.302532E-02	9.941884E-06
4.249517E+03	1.299989E-02	9.922472E-06
4.252446E+03	1.301006E-02	9.930237E-06
4.255376E+03	1.295835E-02	9.890767E-06
4.258305E+03	1.295072E-02	9.884944E-06
4.261235E+03	1.293207E-02	9.870708E-06
4.264164E+03	1.293885E-02	9.875884E-06
4.267093E+03	1.294733E-02	9.882355E-06
4.270022E+03	1.294733E-02	9.882355E-06
4.272952E+03	1.295072E-02	9.884944E-06
4.275881E+03	1.296852E-02	9.898532E-06
4.278810E+03	1.298717E-02	9.912766E-06
4.281739E+03	1.301769E-02	9.936060E-06
4.284668E+03	1.304990E-02	9.960647E-06
4.287597E+03	1.305414E-02	9.963883E-06
4.290528E+03	1.305753E-02	9.966471E-06
4.293457E+03	1.308805E-02	9.989764E-06
4.296386E+03	1.310331E-02	1.000141E-05
4.299315E+03	1.310077E-02	9.999471E-06
4.302244E+03	1.310925E-02	1.000594E-05
4.305173E+03	1.313807E-02	1.002794E-05
4.308102E+03	1.315333E-02	1.003959E-05
4.311032E+03	1.316943E-02	1.005188E-05
4.313961E+03	1.319232E-02	1.006935E-05
4.316890E+03	1.321521E-02	1.008682E-05
4.319820E+03	1.326862E-02	1.012759E-05
4.322749E+03	1.334576E-02	1.018647E-05
4.325678E+03	1.338730E-02	1.021817E-05
4.328607E+03	1.341273E-02	1.023758E-05
4.331537E+03	1.346190E-02	1.027511E-05
4.334466E+03	1.353734E-02	1.033269E-05
4.337395E+03	1.359330E-02	1.037541E-05
4.340324E+03	1.368485E-02	1.044528E-05
4.343253E+03	1.376624E-02	1.050741E-05
4.346183E+03	1.385778E-02	1.057728E-05
4.349113E+03	1.390017E-02	1.060963E-05
4.352042E+03	1.395019E-02	1.064781E-05
4.354971E+03	1.403665E-02	1.071381E-05
4.357900E+03	1.410363E-02	1.076492E-05
4.360829E+03	1.415110E-02	1.080116E-05
4.363758E+03	1.419434E-02	1.083416E-05
4.366688E+03	1.424435E-02	1.087234E-05
4.369617E+03	1.427063E-02	1.089239E-05
4.372546E+03	1.432235E-02	1.093187E-05
4.375475E+03	1.437745E-02	1.097393E-05
4.378405E+03	1.442407E-02	1.100951E-05
4.381334E+03	1.445205E-02	1.103087E-05
4.384263E+03	1.447832E-02	1.105092E-05
4.387193E+03	1.453936E-02	1.109751E-05
4.390122E+03	1.459022E-02	1.113633E-05
4.393051E+03	1.462668E-02	1.116415E-05
4.395980E+03	1.469958E-02	1.121980E-05
4.398909E+03	1.476909E-02	1.127286E-05
4.401838E+03	1.482504E-02	1.131556E-05
4.404768E+03	1.492507E-02	1.139191E-05
4.407698E+03	1.502511E-02	1.146827E-05
4.410627E+03	1.510734E-02	1.153103E-05
4.413556E+03	1.519211E-02	1.159574E-05
4.416485E+03	1.525823E-02	1.164620E-05
4.419414E+03	1.534300E-02	1.171091E-05
4.422344E+03	1.541337E-02	1.176462E-05
4.425273E+03	1.551849E-02	1.184485E-05
4.428202E+03	1.562784E-02	1.192831E-05
4.431131E+03	1.574059E-02	1.201438E-05
4.434060E+03	1.585418E-02	1.210108E-05
4.436990E+03	1.597541E-02	1.219361E-05
4.439919E+03	1.609578E-02	1.228549E-05
4.442849E+03	1.619921E-02	1.236443E-05
4.445778E+03	1.632213E-02	1.245825E-05
4.448707E+03	1.644081E-02	1.254884E-05
4.451636E+03	1.652812E-02	1.261548E-05
4.454565E+03	1.663324E-02	1.269571E-05
4.457494E+03	1.675278E-02	1.278695E-05
4.460423E+03	1.685450E-02	1.286459E-05
4.463353E+03	1.695962E-02	1.294483E-05
4.466283E+03	1.708169E-02	1.303800E-05
4.469212E+03	1.719275E-02	1.312277E-05
4.472141E+03	1.727668E-02	1.318683E-05
4.475070E+03	1.735975E-02	1.325024E-05
4.477999E+03	1.745469E-02	1.332270E-05
4.480929E+03	1.756829E-02	1.340941E-05
4.483858E+03	1.768019E-02	1.349482E-05
4.486787E+03	1.778531E-02	1.357505E-05
4.489716E+03	1.786584E-02	1.363652E-05
4.492646E+03	1.796673E-02	1.371353E-05
4.495575E+03	1.803962E-02	1.376916E-05
4.498505E+03	1.813880E-02	1.384487E-05
4.501434E+03	1.820493E-02	1.389534E-05
4.504363E+03	1.826597E-02	1.394193E-05
4.507292E+03	1.830158E-02	1.396911E-05
4.510221E+03	1.833379E-02	1.399369E-05
4.513150E+03	1.837109E-02	1.402216E-05
4.516079E+03	1.841094E-02	1.405258E-05
4.519009E+03	1.843466E-02	1.407069E-05
4.521939E+03	1.845586E-02	1.408687E-05
4.524868E+03	1.845077E-02	1.408299E-05
4.527797E+03	1.843297E-02	1.406940E-05
4.530726E+03	1.843382E-02	1.407004E-05
4.533655E+03	1.841686E-02	1.405710E-05
4.536584E+03	1.839567E-02	1.404093E-05
4.539514E+03	1.837024E-02	1.402152E-05
4.542443E+03	1.831089E-02	1.397622E-05
4.545372E+03	1.825919E-02	1.393675E-05
4.548301E+03	1.820578E-02	1.389599E-05
4.551231E+03	1.815407E-02	1.385652E-05
4.554160E+03	1.809812E-02	1.381382E-05
4.557090E+03	1.801165E-02	1.374782E-05
4.560019E+03	1.796164E-02	1.370964E-05
4.562948E+03	1.786330E-02	1.363459E-05
4.565877E+03	1.778022E-02	1.357117E-05
4.568806E+03	1.768528E-02	1.349870E-05
4.571735E+03	1.762000E-02	1.344888E-05
4.574665E+03	1.756320E-02	1.340553E-05
4.577594E+03	1.751234E-02	1.336671E-05
4.580524E+03	1.747080E-02	1.333500E-05
4.583453E+03	1.743181E-02	1.330524E-05
4.586382E+03	1.738433E-02	1.326900E-05
4.589311E+03	1.733685E-02	1.323276E-05
4.592241E+03	1.729193E-02	1.319847E-05
4.595170E+03	1.723513E-02	1.315512E-05
4.598099E+03	1.717834E-02	1.311177E-05
4.601028E+03	1.714273E-02	1.308459E-05
4.603957E+03	1.709103E-02	1.304513E-05
4.606886E+03	1.702744E-02	1.299659E-05
4.609816E+03	1.696895E-02	1.295195E-05
4.612745E+03	1.689858E-02	1.289824E-05
4.615675E+03	1.681042E-02	1.283095E-05
4.618604E+03	1.671293E-02	1.275654E-05
4.621533E+03	1.661884E-02	1.268472E-05
4.624462E+03	1.653237E-02	1.261872E-05
4.627391E+03	1.645014E-02	1.255596E-05
4.630320E+03	1.635434E-02	1.248284E-05
4.633250E+03	1.625770E-02	1.240907E-05
4.636179E+03	1.617547E-02	1.234631E-05
4.639109E+03	1.611868E-02	1.230296E-05
4.642038E+03	1.605849E-02	1.225702E-05
4.644967E+03	1.594743E-02	1.217225E-05
4.647896E+03	1.581519E-02	1.207132E-05
4.650826E+03	1.567701E-02	1.196584E-05
4.653755E+03	1.551594E-02	1.184291E-05
4.656684E+03	1.537777E-02	1.173744E-05
4.659613E+03	1.526247E-02	1.164944E-05
4.662542E+03	1.515142E-02	1.156468E-05
4.665471E+03	1.503528E-02	1.147603E-05
4.668402E+03	1.495475E-02	1.141456E-05
4.671331E+03	1.489541E-02	1.136927E-05
4.674260E+03	1.483267E-02	1.132138E-05
4.677189E+03	1.479114E-02	1.128969E-05
4.680118E+03	1.476571E-02	1.127028E-05
4.683047E+03	1.475384E-02	1.126122E-05
4.685976E+03	1.472162E-02	1.123662E-05
4.688906E+03	1.468518E-02	1.120881E-05
4.691835E+03	1.468432E-02	1.120815E-05
4.694765E+03	1.465042E-02	1.118227E-05
4.697694E+03	1.462583E-02	1.116351E-05
4.700623E+03	1.456819E-02	1.111951E-05
4.703552E+03	1.450800E-02	1.107357E-05
4.706481E+03	1.444781E-02	1.102763E-05
4.709411E+03	1.437321E-02	1.097069E-05
4.712340E+03	1.429861E-02	1.091375E-05
