#wls	flux	fluxerr
1.587302E+03	4.906566E-04	2.768613E-05
1.626984E+03	5.048624E-04	2.845493E-05
1.666667E+03	5.196752E-04	2.925516E-05
1.706349E+03	5.351834E-04	3.009157E-05
1.746032E+03	5.512992E-04	3.095897E-05
1.785714E+03	5.680065E-04	3.185622E-05
1.825397E+03	5.851359E-04	3.277360E-05
1.865079E+03	6.025630E-04	3.370393E-05
1.904762E+03	6.200715E-04	3.463494E-05
1.944444E+03	6.374605E-04	3.555527E-05
1.984127E+03	6.545913E-04	3.645710E-05
2.023810E+03	6.718306E-04	3.736076E-05
2.063492E+03	6.901776E-04	3.832155E-05
2.103175E+03	7.111752E-04	3.942459E-05
2.142857E+03	7.364616E-04	4.075967E-05
2.182540E+03	7.667004E-04	4.236210E-05
2.222222E+03	8.012167E-04	4.419303E-05
2.261905E+03	8.386287E-04	4.617490E-05
2.301587E+03	8.775057E-04	4.822794E-05
2.341270E+03	9.171970E-04	5.031569E-05
2.380952E+03	9.574276E-04	5.242255E-05
2.420635E+03	9.981891E-04	5.454754E-05
2.460317E+03	1.039738E-03	5.670415E-05
2.500000E+03	1.082272E-03	5.890250E-05
2.539683E+03	1.125911E-03	6.114846E-05
2.579365E+03	1.170895E-03	6.345425E-05
2.619048E+03	1.217206E-03	6.581808E-05
2.658730E+03	1.264880E-03	6.824091E-05
2.698413E+03	1.313735E-03	7.071210E-05
2.738095E+03	1.363681E-03	7.322593E-05
2.777778E+03	1.414419E-03	7.576550E-05
2.817460E+03	1.465699E-03	7.831668E-05
2.857143E+03	1.517280E-03	8.086594E-05
2.896825E+03	1.568973E-03	8.340268E-05
2.936508E+03	1.620688E-03	8.592155E-05
2.976190E+03	1.672452E-03	8.842356E-05
2.986111E+03	1.685400E-03	8.904635E-05
2.996032E+03	1.698379E-03	8.966951E-05
3.005952E+03	1.711347E-03	9.029080E-05
3.015873E+03	1.724384E-03	9.091444E-05
3.025794E+03	1.737469E-03	9.153940E-05
3.035714E+03	1.750624E-03	9.216666E-05
3.045635E+03	1.763842E-03	9.279599E-05
3.055556E+03	1.777196E-03	9.343113E-05
3.065476E+03	1.790612E-03	9.406822E-05
3.075397E+03	1.804167E-03	9.471123E-05
3.085317E+03	1.817832E-03	9.535861E-05
3.095238E+03	1.831654E-03	9.601287E-05
3.105159E+03	1.845652E-03	9.667498E-05
3.115079E+03	1.859849E-03	9.734603E-05
3.125000E+03	1.874279E-03	9.802781E-05
3.134921E+03	1.889017E-03	9.872424E-05
3.144841E+03	1.904080E-03	9.943612E-05
3.154762E+03	1.919570E-03	1.001688E-04
3.164683E+03	1.935570E-03	1.009264E-04
3.174603E+03	1.952183E-03	1.017143E-04
3.184524E+03	1.969565E-03	1.025407E-04
3.194444E+03	1.987804E-03	1.034097E-04
3.204365E+03	2.007189E-03	1.043366E-04
3.214286E+03	2.027842E-03	1.053274E-04
3.224206E+03	2.050139E-03	1.064014E-04
3.234127E+03	2.074335E-03	1.075717E-04
3.244048E+03	2.100848E-03	1.088596E-04
3.253968E+03	2.130123E-03	1.102881E-04
3.263889E+03	2.162642E-03	1.118815E-04
3.273810E+03	2.199049E-03	1.136728E-04
3.283730E+03	2.239907E-03	1.156905E-04
3.293651E+03	2.285868E-03	1.179676E-04
3.303571E+03	2.337621E-03	1.205393E-04
3.313492E+03	2.395615E-03	1.234275E-04
3.323413E+03	2.460148E-03	1.266471E-04
3.333333E+03	2.531188E-03	1.301953E-04
3.343254E+03	2.608265E-03	1.340472E-04
3.353175E+03	2.690232E-03	1.381431E-04
3.363095E+03	2.775436E-03	1.423975E-04
3.373016E+03	2.861764E-03	1.467015E-04
3.382937E+03	2.946650E-03	1.509237E-04
3.392857E+03	3.027328E-03	1.549225E-04
3.402778E+03	3.100884E-03	1.585495E-04
3.412698E+03	3.164652E-03	1.616694E-04
3.422619E+03	3.216236E-03	1.641611E-04
3.432540E+03	3.253618E-03	1.659235E-04
3.442460E+03	3.275437E-03	1.668889E-04
3.452381E+03	3.280905E-03	1.670195E-04
3.462302E+03	3.269904E-03	1.663113E-04
3.472222E+03	3.242684E-03	1.647794E-04
3.482143E+03	3.200081E-03	1.624685E-04
3.492063E+03	3.143165E-03	1.594348E-04
3.501984E+03	3.073315E-03	1.557504E-04
3.511905E+03	2.992110E-03	1.514969E-04
3.521825E+03	2.901262E-03	1.467627E-04
3.531746E+03	2.802645E-03	1.416437E-04
3.541667E+03	2.698037E-03	1.362310E-04
3.551587E+03	2.589160E-03	1.306123E-04
3.561508E+03	2.477515E-03	1.248638E-04
3.571429E+03	2.364211E-03	1.190419E-04
3.581349E+03	2.250006E-03	1.131850E-04
3.591270E+03	2.135328E-03	1.073148E-04
3.601190E+03	2.020487E-03	1.014469E-04
3.611111E+03	1.905917E-03	9.560335E-05
3.621032E+03	1.792331E-03	8.981976E-05
3.630952E+03	1.680995E-03	8.415937E-05
3.640873E+03	1.573671E-03	7.871019E-05
3.650794E+03	1.472647E-03	7.358591E-05
3.660714E+03	1.380522E-03	6.891545E-05
3.670635E+03	1.299913E-03	6.482808E-05
3.680556E+03	1.233290E-03	6.144519E-05
3.690476E+03	1.182819E-03	5.887252E-05
3.700397E+03	1.150251E-03	5.719492E-05
3.710317E+03	1.137072E-03	5.648344E-05
3.720238E+03	1.144700E-03	5.680567E-05
3.730159E+03	1.174654E-03	5.823376E-05
3.740079E+03	1.228800E-03	6.085686E-05
3.750000E+03	1.309525E-03	6.478935E-05
3.759921E+03	1.419811E-03	7.017467E-05
3.769841E+03	1.563262E-03	7.718619E-05
3.779762E+03	1.743888E-03	8.601673E-05
3.789683E+03	1.965649E-03	9.685569E-05
3.799603E+03	2.231733E-03	1.098537E-04
3.809524E+03	2.543512E-03	1.250713E-04
3.819444E+03	2.899438E-03	1.424254E-04
3.829365E+03	3.293902E-03	1.616339E-04
3.839286E+03	3.716512E-03	1.821814E-04
3.849206E+03	4.152346E-03	2.033325E-04
3.859127E+03	4.583273E-03	2.241983E-04
3.869048E+03	4.990043E-03	2.438387E-04
3.878968E+03	5.354981E-03	2.613945E-04
3.888889E+03	5.664564E-03	2.762127E-04
3.898810E+03	5.910585E-03	2.879019E-04
3.908730E+03	6.089947E-03	2.963214E-04
3.918651E+03	6.204023E-03	3.015483E-04
3.928571E+03	6.257266E-03	3.038089E-04
3.938492E+03	6.256072E-03	3.034231E-04
3.948413E+03	6.207813E-03	3.007564E-04
3.958333E+03	6.120499E-03	2.962041E-04
3.968254E+03	6.002006E-03	2.901531E-04
3.978175E+03	5.860067E-03	2.829818E-04
3.988095E+03	5.702253E-03	2.750591E-04
3.998016E+03	5.535652E-03	2.667292E-04
4.007937E+03	5.366927E-03	2.583142E-04
4.017857E+03	5.201811E-03	2.500903E-04
4.027778E+03	5.045273E-03	2.422953E-04
4.037698E+03	4.900982E-03	2.351042E-04
4.047619E+03	4.771527E-03	2.286389E-04
4.057540E+03	4.658497E-03	2.229733E-04
4.067460E+03	4.562319E-03	2.181252E-04
4.077381E+03	4.482812E-03	2.140831E-04
4.087302E+03	4.418981E-03	2.107970E-04
4.097222E+03	4.369344E-03	2.081939E-04
4.107143E+03	4.331789E-03	2.061709E-04
4.117063E+03	4.303466E-03	2.045905E-04
4.126984E+03	4.281027E-03	2.032923E-04
4.136905E+03	4.260954E-03	2.021085E-04
4.146825E+03	4.240144E-03	2.008918E-04
4.156746E+03	4.216533E-03	1.995445E-04
4.166667E+03	4.189165E-03	1.980220E-04
4.176587E+03	4.158508E-03	1.963470E-04
4.186508E+03	4.125913E-03	1.945838E-04
4.196429E+03	4.093220E-03	1.928193E-04
4.206349E+03	4.061830E-03	1.911196E-04
4.216270E+03	4.031933E-03	1.894933E-04
4.226190E+03	4.002251E-03	1.878802E-04
4.236111E+03	3.969718E-03	1.861366E-04
4.246032E+03	3.929974E-03	1.840588E-04
4.255952E+03	3.878369E-03	1.814304E-04
4.265873E+03	3.811406E-03	1.780899E-04
4.275794E+03	3.727881E-03	1.739838E-04
4.285714E+03	3.629499E-03	1.691942E-04
4.295635E+03	3.521127E-03	1.639501E-04
4.305556E+03	3.409803E-03	1.585806E-04
4.315476E+03	3.303770E-03	1.534691E-04
4.325397E+03	3.210904E-03	1.489801E-04
4.335317E+03	3.138008E-03	1.454268E-04
4.345238E+03	3.090298E-03	1.430473E-04
4.355159E+03	3.071729E-03	1.420204E-04
4.365079E+03	3.086582E-03	1.425390E-04
4.375000E+03	3.139389E-03	1.448068E-04
4.384921E+03	3.233211E-03	1.489586E-04
4.394841E+03	3.368919E-03	1.550277E-04
4.404762E+03	3.545009E-03	1.629383E-04
4.414683E+03	3.757490E-03	1.725006E-04
4.424603E+03	4.000115E-03	1.834222E-04
4.434524E+03	4.264466E-03	1.953126E-04
4.444444E+03	4.540729E-03	2.077197E-04
4.454365E+03	4.818610E-03	2.201709E-04
4.464286E+03	5.088184E-03	2.322132E-04
4.474206E+03	5.340621E-03	2.434455E-04
4.484127E+03	5.568721E-03	2.535428E-04
4.494048E+03	5.766985E-03	2.622591E-04
4.503968E+03	5.931823E-03	2.694361E-04
4.513889E+03	6.060990E-03	2.749775E-04
4.523810E+03	6.153672E-03	2.788521E-04
4.533730E+03	6.210224E-03	2.810819E-04
4.543651E+03	6.232246E-03	2.817451E-04
4.553571E+03	6.222171E-03	2.809573E-04
4.563492E+03	6.183090E-03	2.788628E-04
4.573413E+03	6.118757E-03	2.756354E-04
4.583333E+03	6.032732E-03	2.714395E-04
4.593254E+03	5.928218E-03	2.664224E-04
4.603175E+03	5.807794E-03	2.607028E-04
4.613095E+03	5.673071E-03	2.543554E-04
4.623016E+03	5.524629E-03	2.474085E-04
4.632937E+03	5.362705E-03	2.398749E-04
4.642857E+03	5.187252E-03	2.317544E-04
4.652778E+03	4.998760E-03	2.230712E-04
4.662698E+03	4.798927E-03	2.139027E-04
4.672619E+03	4.590956E-03	2.043935E-04
4.682540E+03	4.379746E-03	1.947625E-04
4.692460E+03	4.171401E-03	1.852813E-04
4.702381E+03	3.972698E-03	1.762501E-04
4.712302E+03	3.789977E-03	1.679482E-04
4.722222E+03	3.628196E-03	1.605926E-04
4.732143E+03	3.490700E-03	1.543279E-04
4.742063E+03	3.378684E-03	1.492029E-04
4.751984E+03	3.291504E-03	1.451856E-04
4.761905E+03	3.227497E-03	1.421986E-04
4.771825E+03	3.184601E-03	1.401477E-04
4.781746E+03	3.161379E-03	1.389666E-04
4.791667E+03	3.156975E-03	1.386147E-04
4.801587E+03	3.171456E-03	1.390921E-04
4.811508E+03	3.205173E-03	1.404114E-04
4.821429E+03	3.258274E-03	1.425763E-04
4.831349E+03	3.329494E-03	1.455285E-04
4.841270E+03	3.415559E-03	1.491227E-04
4.851190E+03	3.510738E-03	1.531067E-04
4.861111E+03	3.607104E-03	1.571340E-04
4.871032E+03	3.695414E-03	1.608022E-04
4.880952E+03	3.766459E-03	1.637124E-04
4.890873E+03	3.812957E-03	1.655510E-04
4.900794E+03	3.831081E-03	1.661556E-04
4.910714E+03	3.821561E-03	1.655619E-04
4.920635E+03	3.789248E-03	1.639837E-04
4.930556E+03	3.742449E-03	1.617835E-04
4.940476E+03	3.691114E-03	1.593928E-04
4.950397E+03	3.645132E-03	1.572389E-04
4.960317E+03	3.612850E-03	1.556807E-04
4.970238E+03	3.600190E-03	1.549713E-04
4.980159E+03	3.610001E-03	1.552304E-04
4.990079E+03	3.642181E-03	1.564507E-04
5.000000E+03	3.693959E-03	1.585103E-04
5.009921E+03	3.760866E-03	1.612152E-04
5.019841E+03	3.837533E-03	1.643334E-04
5.029762E+03	3.918765E-03	1.676417E-04
5.039683E+03	4.000647E-03	1.709721E-04
5.049603E+03	4.081164E-03	1.742388E-04
5.059524E+03	4.160284E-03	1.774406E-04
5.069444E+03	4.239531E-03	1.806428E-04
5.079365E+03	4.321476E-03	1.839550E-04
5.089286E+03	4.408807E-03	1.874913E-04
5.099206E+03	4.503957E-03	1.913545E-04
5.109127E+03	4.608499E-03	1.956106E-04
5.119048E+03	4.722826E-03	2.002753E-04
5.128968E+03	4.845951E-03	2.053058E-04
5.138889E+03	4.975631E-03	2.106064E-04
5.148810E+03	5.108332E-03	2.160270E-04
5.158730E+03	5.239933E-03	2.213935E-04
5.168651E+03	5.365925E-03	2.265159E-04
5.178571E+03	5.482270E-03	2.312246E-04
5.188492E+03	5.585406E-03	2.353710E-04
5.198413E+03	5.672924E-03	2.388553E-04
5.208333E+03	5.743257E-03	2.416133E-04
5.218254E+03	5.795858E-03	2.436241E-04
5.228175E+03	5.830823E-03	2.448937E-04
5.238095E+03	5.848743E-03	2.454489E-04
5.248016E+03	5.850970E-03	2.453482E-04
5.257937E+03	5.839587E-03	2.446804E-04
5.267857E+03	5.817182E-03	2.435553E-04
5.277778E+03	5.786821E-03	2.421023E-04
5.287698E+03	5.751851E-03	2.404620E-04
5.297619E+03	5.715358E-03	2.387638E-04
5.307540E+03	5.679631E-03	2.371033E-04
5.317460E+03	5.645707E-03	2.355237E-04
5.327381E+03	5.613395E-03	2.340170E-04
5.337302E+03	5.581132E-03	2.325178E-04
5.347222E+03	5.546437E-03	2.309229E-04
5.357143E+03	5.506035E-03	2.290961E-04
5.367063E+03	5.456621E-03	2.269005E-04
5.376984E+03	5.395104E-03	2.242083E-04
5.386905E+03	5.318879E-03	2.209120E-04
5.396825E+03	5.226533E-03	2.169540E-04
5.406746E+03	5.117964E-03	2.123311E-04
5.416667E+03	4.994812E-03	2.071121E-04
5.426587E+03	4.861485E-03	2.014806E-04
5.436508E+03	4.724669E-03	1.957138E-04
5.446429E+03	4.592490E-03	1.901481E-04
5.456349E+03	4.469460E-03	1.849697E-04
5.466270E+03	4.351945E-03	1.800273E-04
5.476190E+03	4.235641E-03	1.751425E-04
5.486111E+03	4.118917E-03	1.702475E-04
5.496032E+03	4.002518E-03	1.653727E-04
5.505952E+03	3.888914E-03	1.606200E-04
5.515873E+03	3.781246E-03	1.561186E-04
5.525794E+03	3.682756E-03	1.520018E-04
5.535714E+03	3.596561E-03	1.483977E-04
5.545635E+03	3.525308E-03	1.454146E-04
5.555556E+03	3.471082E-03	1.431379E-04
5.565476E+03	3.435367E-03	1.416281E-04
5.575397E+03	3.418823E-03	1.409116E-04
5.585317E+03	3.421139E-03	1.409750E-04
5.595238E+03	3.441073E-03	1.417667E-04
5.605159E+03	3.476462E-03	1.431970E-04
5.615079E+03	3.524417E-03	1.451467E-04
5.625000E+03	3.581583E-03	1.474774E-04
5.634921E+03	3.644716E-03	1.500556E-04
5.644841E+03	3.711214E-03	1.527741E-04
5.654762E+03	3.779292E-03	1.555596E-04
5.664683E+03	3.848135E-03	1.583785E-04
5.674603E+03	3.917912E-03	1.612379E-04
5.684524E+03	3.989414E-03	1.641706E-04
5.694444E+03	4.063732E-03	1.672215E-04
5.704365E+03	4.141790E-03	1.704287E-04
5.714286E+03	4.224383E-03	1.738252E-04
5.724206E+03	4.311827E-03	1.774240E-04
5.734127E+03	4.404062E-03	1.812229E-04
5.744048E+03	4.500644E-03	1.852038E-04
5.753968E+03	4.600364E-03	1.893170E-04
5.763889E+03	4.701520E-03	1.934928E-04
5.773810E+03	4.801581E-03	1.976271E-04
5.783730E+03	4.897311E-03	2.015870E-04
5.793651E+03	4.984958E-03	2.052181E-04
5.803571E+03	5.061031E-03	2.083766E-04
5.813492E+03	5.122728E-03	2.109473E-04
5.823413E+03	5.168731E-03	2.128755E-04
5.833333E+03	5.199049E-03	2.141615E-04
5.843254E+03	5.214686E-03	2.148463E-04
5.853175E+03	5.217423E-03	2.150031E-04
5.863095E+03	5.209372E-03	2.147184E-04
5.873016E+03	5.192577E-03	2.140763E-04
5.882937E+03	5.169272E-03	2.131686E-04
5.892857E+03	5.141660E-03	2.120859E-04
5.902778E+03	5.112013E-03	2.109218E-04
5.912698E+03	5.082289E-03	2.097569E-04
5.922619E+03	5.054166E-03	2.086605E-04
5.932540E+03	5.028118E-03	2.076520E-04
5.942460E+03	5.003564E-03	2.067076E-04
5.952381E+03	4.978865E-03	2.057595E-04
5.962302E+03	4.951828E-03	2.047170E-04
5.972222E+03	4.920335E-03	2.034924E-04
5.982143E+03	4.882445E-03	2.020050E-04
5.992063E+03	4.837020E-03	2.002073E-04
6.001984E+03	4.783220E-03	1.980642E-04
6.011905E+03	4.720747E-03	1.955628E-04
6.021825E+03	4.648927E-03	1.926744E-04
6.031746E+03	4.566967E-03	1.893657E-04
6.041667E+03	4.473925E-03	1.855967E-04
6.051587E+03	4.369547E-03	1.813560E-04
6.061508E+03	4.254688E-03	1.766785E-04
6.071429E+03	4.131855E-03	1.716672E-04
6.081349E+03	4.005193E-03	1.664937E-04
6.091270E+03	3.880276E-03	1.613896E-04
6.101190E+03	3.763173E-03	1.566071E-04
6.111111E+03	3.659245E-03	1.523699E-04
6.121032E+03	3.572328E-03	1.488385E-04
6.130952E+03	3.504617E-03	1.461056E-04
6.140873E+03	3.456415E-03	1.441851E-04
6.150794E+03	3.426347E-03	1.430211E-04
6.160714E+03	3.411802E-03	1.425058E-04
6.170635E+03	3.409475E-03	1.425025E-04
6.180556E+03	3.415903E-03	1.428672E-04
6.190476E+03	3.427874E-03	1.434663E-04
6.200397E+03	3.442524E-03	1.441802E-04
6.210317E+03	3.457632E-03	1.449163E-04
6.220238E+03	3.471780E-03	1.456151E-04
6.230159E+03	3.483782E-03	1.462267E-04
6.240079E+03	3.492515E-03	1.467038E-04
6.250000E+03	3.497132E-03	1.470105E-04
6.259921E+03	3.496570E-03	1.471017E-04
6.269841E+03	3.490165E-03	1.469489E-04
6.279762E+03	3.477386E-03	1.465292E-04
6.289683E+03	3.458287E-03	1.458441E-04
6.299603E+03	3.433504E-03	1.449199E-04
6.309524E+03	3.404348E-03	1.438112E-04
6.319444E+03	3.372694E-03	1.425969E-04
6.329365E+03	3.340714E-03	1.413684E-04
6.339286E+03	3.310632E-03	1.402200E-04
6.349206E+03	3.284447E-03	1.392364E-04
6.359127E+03	3.263328E-03	1.384677E-04
6.369048E+03	3.247662E-03	1.379309E-04
6.378968E+03	3.236809E-03	1.375992E-04
6.388889E+03	3.229393E-03	1.374147E-04
6.398810E+03	3.223689E-03	1.373043E-04
6.408730E+03	3.218158E-03	1.372025E-04
6.418651E+03	3.211773E-03	1.370655E-04
6.428571E+03	3.204276E-03	1.368822E-04
6.438492E+03	3.196035E-03	1.366679E-04
6.448413E+03	3.187797E-03	1.364547E-04
6.458333E+03	3.180765E-03	1.362940E-04
6.468254E+03	3.176247E-03	1.362420E-04
6.478175E+03	3.175524E-03	1.363540E-04
6.488095E+03	3.179096E-03	1.366520E-04
6.498016E+03	3.186030E-03	1.370964E-04
6.507937E+03	3.195255E-03	1.376415E-04
6.517857E+03	3.205848E-03	1.382479E-04
6.527778E+03	3.216663E-03	1.388661E-04
6.537698E+03	3.226519E-03	1.394453E-04
6.547619E+03	3.234285E-03	1.399362E-04
6.557540E+03	3.238809E-03	1.402888E-04
6.567460E+03	3.239329E-03	1.404693E-04
6.577381E+03	3.235546E-03	1.404643E-04
6.587302E+03	3.227291E-03	1.402657E-04
6.597222E+03	3.214748E-03	1.398809E-04
6.607143E+03	3.198283E-03	1.393250E-04
6.617063E+03	3.178207E-03	1.386111E-04
6.626984E+03	3.154932E-03	1.377564E-04
6.636905E+03	3.129014E-03	1.367849E-04
6.646825E+03	3.101040E-03	1.357217E-04
6.656746E+03	3.071943E-03	1.346073E-04
6.666667E+03	3.042916E-03	1.334938E-04
6.676587E+03	3.014953E-03	1.324249E-04
6.686508E+03	2.989023E-03	1.314433E-04
6.696429E+03	2.965899E-03	1.305832E-04
6.706349E+03	2.945935E-03	1.298608E-04
6.716270E+03	2.929232E-03	1.292810E-04
6.726190E+03	2.915638E-03	1.288374E-04
6.736111E+03	2.904807E-03	1.285152E-04
6.746032E+03	2.896218E-03	1.282919E-04
6.755952E+03	2.889406E-03	1.281471E-04
6.765873E+03	2.883900E-03	1.280601E-04
6.775794E+03	2.879278E-03	1.280124E-04
6.785714E+03	2.875395E-03	1.279976E-04
6.795635E+03	2.872209E-03	1.280141E-04
6.805556E+03	2.869943E-03	1.280717E-04
6.815476E+03	2.868912E-03	1.281848E-04
6.825397E+03	2.869325E-03	1.283629E-04
6.835317E+03	2.871410E-03	1.286163E-04
6.845238E+03	2.875056E-03	1.289404E-04
6.855159E+03	2.880016E-03	1.293243E-04
6.865079E+03	2.886044E-03	1.297572E-04
6.875000E+03	2.892716E-03	1.302202E-04
6.884921E+03	2.899642E-03	1.306957E-04
6.894841E+03	2.906497E-03	1.311691E-04
6.904762E+03	2.912850E-03	1.316210E-04
6.914683E+03	2.918340E-03	1.320348E-04
6.924603E+03	2.922669E-03	1.323970E-04
6.934524E+03	2.925655E-03	1.326990E-04
6.944444E+03	2.927203E-03	1.329363E-04
6.954365E+03	2.927556E-03	1.331197E-04
6.964286E+03	2.926857E-03	1.332554E-04
6.974206E+03	2.925404E-03	1.333569E-04
6.984127E+03	2.923535E-03	1.334394E-04
6.994048E+03	2.921411E-03	1.335102E-04
7.003968E+03	2.919166E-03	1.335754E-04
7.013889E+03	2.916853E-03	1.336374E-04
7.023810E+03	2.914429E-03	1.336941E-04
7.033730E+03	2.911819E-03	1.337421E-04
7.043651E+03	2.908714E-03	1.337671E-04
7.053571E+03	2.904909E-03	1.337597E-04
7.063492E+03	2.900339E-03	1.337165E-04
7.073413E+03	2.895038E-03	1.336392E-04
7.083333E+03	2.889190E-03	1.335360E-04
7.093254E+03	2.883310E-03	1.334306E-04
7.103175E+03	2.877886E-03	1.333457E-04
7.113095E+03	2.873623E-03	1.333140E-04
7.123016E+03	2.870806E-03	1.333490E-04
7.132937E+03	2.869420E-03	1.334502E-04
7.142857E+03	2.869080E-03	1.335998E-04
7.152778E+03	2.869422E-03	1.337812E-04
7.162698E+03	2.869833E-03	1.339658E-04
7.172619E+03	2.870022E-03	1.341399E-04
7.182540E+03	2.869801E-03	1.342948E-04
7.192460E+03	2.869345E-03	1.344385E-04
7.202381E+03	2.868861E-03	1.345807E-04
7.212302E+03	2.868626E-03	1.347345E-04
7.222222E+03	2.868878E-03	1.349110E-04
7.232143E+03	2.869569E-03	1.351080E-04
7.242063E+03	2.870600E-03	1.353210E-04
7.251984E+03	2.871526E-03	1.355290E-04
7.261905E+03	2.871963E-03	1.357138E-04
7.271825E+03	2.871476E-03	1.358547E-04
7.281746E+03	2.869429E-03	1.359214E-04
7.291667E+03	2.865400E-03	1.358937E-04
7.301587E+03	2.858907E-03	1.357484E-04
7.311508E+03	2.849684E-03	1.354722E-04
7.321429E+03	2.837450E-03	1.350515E-04
7.331349E+03	2.822116E-03	1.344814E-04
7.341270E+03	2.803730E-03	1.337637E-04
7.351190E+03	2.782415E-03	1.329038E-04
7.361111E+03	2.758465E-03	1.319152E-04
7.371032E+03	2.732234E-03	1.308144E-04
7.380952E+03	2.704056E-03	1.296171E-04
7.390873E+03	2.674202E-03	1.283358E-04
7.400794E+03	2.642636E-03	1.269687E-04
7.410714E+03	2.609336E-03	1.255144E-04
7.420635E+03	2.574062E-03	1.239610E-04
7.430556E+03	2.536596E-03	1.222976E-04
7.440476E+03	2.496909E-03	1.205226E-04
7.450397E+03	2.455308E-03	1.186505E-04
7.460317E+03	2.412635E-03	1.167215E-04
7.470238E+03	2.369917E-03	1.147854E-04
7.480159E+03	2.328654E-03	1.129148E-04
7.490079E+03	2.290412E-03	1.111860E-04
7.500000E+03	2.256735E-03	1.096746E-04
7.509921E+03	2.228744E-03	1.084359E-04
7.519841E+03	2.207335E-03	1.075144E-04
7.529762E+03	2.192921E-03	1.069313E-04
7.539683E+03	2.185557E-03	1.066905E-04
7.549603E+03	2.184782E-03	1.067706E-04
7.559524E+03	2.190010E-03	1.071441E-04
7.569444E+03	2.200217E-03	1.077615E-04
7.579365E+03	2.214151E-03	1.085626E-04
7.589286E+03	2.230604E-03	1.094884E-04
7.599206E+03	2.248213E-03	1.104724E-04
7.609127E+03	2.265766E-03	1.114552E-04
7.619048E+03	2.282221E-03	1.123855E-04
7.628968E+03	2.296762E-03	1.132227E-04
7.638889E+03	2.308820E-03	1.139387E-04
7.648810E+03	2.318143E-03	1.145203E-04
7.658730E+03	2.324558E-03	1.149588E-04
7.668651E+03	2.328369E-03	1.152687E-04
7.678571E+03	2.329909E-03	1.154660E-04
7.688492E+03	2.329677E-03	1.155752E-04
7.698413E+03	2.328165E-03	1.156203E-04
