#wls	flux	fluxerr
1.587302E+03	6.051259E-04	3.880000E-05
1.626984E+03	6.096161E-04	3.894495E-05
1.666667E+03	6.140419E-04	3.908033E-05
1.706349E+03	6.185262E-04	3.921384E-05
1.746032E+03	6.231756E-04	3.935206E-05
1.785714E+03	6.276768E-04	3.947502E-05
1.825397E+03	6.322593E-04	3.959708E-05
1.865079E+03	6.365406E-04	3.969419E-05
1.904762E+03	6.403568E-04	3.975629E-05
1.944444E+03	6.438263E-04	3.979096E-05
1.984127E+03	6.470156E-04	3.980248E-05
2.023810E+03	6.501621E-04	3.980552E-05
2.063492E+03	6.547090E-04	3.988792E-05
2.103175E+03	6.621940E-04	4.014152E-05
2.142857E+03	6.742586E-04	4.066243E-05
2.182540E+03	6.918384E-04	4.150221E-05
2.222222E+03	7.146198E-04	4.263650E-05
2.261905E+03	7.416070E-04	4.400065E-05
2.301587E+03	7.719264E-04	4.553837E-05
2.341270E+03	8.050945E-04	4.721728E-05
2.380952E+03	8.407881E-04	4.901489E-05
2.420635E+03	8.794078E-04	5.095100E-05
2.460317E+03	9.211448E-04	5.303265E-05
2.500000E+03	9.667414E-04	5.529801E-05
2.539683E+03	1.016736E-03	5.777245E-05
2.579365E+03	1.072040E-03	6.050130E-05
2.619048E+03	1.133145E-03	6.350484E-05
2.658730E+03	1.201069E-03	6.683171E-05
2.698413E+03	1.276724E-03	7.052267E-05
2.738095E+03	1.361051E-03	7.461842E-05
2.777778E+03	1.455192E-03	7.916868E-05
2.817460E+03	1.559877E-03	8.419857E-05
2.857143E+03	1.676327E-03	8.975805E-05
2.896825E+03	1.805190E-03	9.586399E-05
2.936508E+03	1.947236E-03	1.025382E-04
2.976190E+03	2.102320E-03	1.097528E-04
2.986111E+03	2.143016E-03	1.116327E-04
2.996032E+03	2.184560E-03	1.135465E-04
3.005952E+03	2.226925E-03	1.154925E-04
3.015873E+03	2.270086E-03	1.174690E-04
3.025794E+03	2.313782E-03	1.194624E-04
3.035714E+03	2.358252E-03	1.214845E-04
3.045635E+03	2.403703E-03	1.235459E-04
3.055556E+03	2.449562E-03	1.256167E-04
3.065476E+03	2.496289E-03	1.277202E-04
3.075397E+03	2.543292E-03	1.298258E-04
3.085317E+03	2.591030E-03	1.319570E-04
3.095238E+03	2.638890E-03	1.340820E-04
3.105159E+03	2.687330E-03	1.362241E-04
3.115079E+03	2.736267E-03	1.383789E-04
3.125000E+03	2.785339E-03	1.405278E-04
3.134921E+03	2.834446E-03	1.426657E-04
3.144841E+03	2.883485E-03	1.447874E-04
3.154762E+03	2.932629E-03	1.469016E-04
3.164683E+03	2.981773E-03	1.490027E-04
3.174603E+03	3.030799E-03	1.510852E-04
3.184524E+03	3.079306E-03	1.531288E-04
3.194444E+03	3.127452E-03	1.551417E-04
3.204365E+03	3.175113E-03	1.571178E-04
3.214286E+03	3.221868E-03	1.590364E-04
3.224206E+03	3.268157E-03	1.609195E-04
3.234127E+03	3.313556E-03	1.627464E-04
3.244048E+03	3.357918E-03	1.645102E-04
3.253968E+03	3.401094E-03	1.662041E-04
3.263889E+03	3.443225E-03	1.678352E-04
3.273810E+03	3.483859E-03	1.693819E-04
3.283730E+03	3.522832E-03	1.708369E-04
3.293651E+03	3.560261E-03	1.722063E-04
3.303571E+03	3.595966E-03	1.734822E-04
3.313492E+03	3.629467E-03	1.746419E-04
3.323413E+03	3.660858E-03	1.756909E-04
3.333333E+03	3.689932E-03	1.766199E-04
3.343254E+03	3.716761E-03	1.774335E-04
3.353175E+03	3.740556E-03	1.780947E-04
3.363095E+03	3.761378E-03	1.786076E-04
3.373016E+03	3.779271E-03	1.789755E-04
3.382937E+03	3.793720E-03	1.791751E-04
3.392857E+03	3.804772E-03	1.792101E-04
3.402778E+03	3.811963E-03	1.790599E-04
3.412698E+03	3.815446E-03	1.787332E-04
3.422619E+03	3.815237E-03	1.782321E-04
3.432540E+03	3.811551E-03	1.775682E-04
3.442460E+03	3.804608E-03	1.767530E-04
3.452381E+03	3.795674E-03	1.758465E-04
3.462302E+03	3.785532E-03	1.748856E-04
3.472222E+03	3.775696E-03	1.739407E-04
3.482143E+03	3.767351E-03	1.730659E-04
3.492063E+03	3.762211E-03	1.723393E-04
3.501984E+03	3.761690E-03	1.718243E-04
3.511905E+03	3.766811E-03	1.715657E-04
3.521825E+03	3.779002E-03	1.716261E-04
3.531746E+03	3.798444E-03	1.720108E-04
3.541667E+03	3.825779E-03	1.727463E-04
3.551587E+03	3.860535E-03	1.738079E-04
3.561508E+03	3.902210E-03	1.751704E-04
3.571429E+03	3.949646E-03	1.767790E-04
3.581349E+03	4.001073E-03	1.785526E-04
3.591270E+03	4.054899E-03	1.804188E-04
3.601190E+03	4.109365E-03	1.822986E-04
3.611111E+03	4.161991E-03	1.840819E-04
3.621032E+03	4.211109E-03	1.856961E-04
3.630952E+03	4.254633E-03	1.870507E-04
3.640873E+03	4.290305E-03	1.880490E-04
3.650794E+03	4.316192E-03	1.886096E-04
3.660714E+03	4.331015E-03	1.886807E-04
3.670635E+03	4.333341E-03	1.882045E-04
3.680556E+03	4.322661E-03	1.871640E-04
3.690476E+03	4.299447E-03	1.855846E-04
3.700397E+03	4.265507E-03	1.835494E-04
3.710317E+03	4.223442E-03	1.811741E-04
3.720238E+03	4.177244E-03	1.786327E-04
3.730159E+03	4.131453E-03	1.761205E-04
3.740079E+03	4.091020E-03	1.738476E-04
3.750000E+03	4.060853E-03	1.720200E-04
3.759921E+03	4.046405E-03	1.708637E-04
3.769841E+03	4.051943E-03	1.705519E-04
3.779762E+03	4.082264E-03	1.712779E-04
3.789683E+03	4.141423E-03	1.732013E-04
3.799603E+03	4.233481E-03	1.764795E-04
3.809524E+03	4.361974E-03	1.812463E-04
3.819444E+03	4.529734E-03	1.876040E-04
3.829365E+03	4.739243E-03	1.956392E-04
3.839286E+03	4.991160E-03	2.053619E-04
3.849206E+03	5.285162E-03	2.167414E-04
3.859127E+03	5.618137E-03	2.296335E-04
3.869048E+03	5.985177E-03	2.438221E-04
3.878968E+03	6.378163E-03	2.589636E-04
3.888889E+03	6.786661E-03	2.746251E-04
3.898810E+03	7.198591E-03	2.903129E-04
3.908730E+03	7.600646E-03	3.054907E-04
3.918651E+03	7.980213E-03	3.196572E-04
3.928571E+03	8.326414E-03	3.323872E-04
3.938492E+03	8.631239E-03	3.433756E-04
3.948413E+03	8.889134E-03	3.524192E-04
3.958333E+03	9.097415E-03	3.594311E-04
3.968254E+03	9.255247E-03	3.643988E-04
3.978175E+03	9.362690E-03	3.673455E-04
3.988095E+03	9.419900E-03	3.682979E-04
3.998016E+03	9.426686E-03	3.672692E-04
4.007937E+03	9.382571E-03	3.642618E-04
4.017857E+03	9.287051E-03	3.592772E-04
4.027778E+03	9.140827E-03	3.523637E-04
4.037698E+03	8.946519E-03	3.436428E-04
4.047619E+03	8.708314E-03	3.332948E-04
4.057540E+03	8.433388E-03	3.216115E-04
4.067460E+03	8.130747E-03	3.089504E-04
4.077381E+03	7.810663E-03	2.957119E-04
4.087302E+03	7.484237E-03	2.823221E-04
4.097222E+03	7.162208E-03	2.691872E-04
4.107143E+03	6.854701E-03	2.566848E-04
4.117063E+03	6.570065E-03	2.451203E-04
4.126984E+03	6.314949E-03	2.347314E-04
4.136905E+03	6.094475E-03	2.256957E-04
4.146825E+03	5.911717E-03	2.181124E-04
4.156746E+03	5.768679E-03	2.120395E-04
4.166667E+03	5.665833E-03	2.074778E-04
4.176587E+03	5.603046E-03	2.044061E-04
4.186508E+03	5.579204E-03	2.027672E-04
4.196429E+03	5.592570E-03	2.024821E-04
4.206349E+03	5.640964E-03	2.034570E-04
4.216270E+03	5.721658E-03	2.055794E-04
4.226190E+03	5.831694E-03	2.087301E-04
4.236111E+03	5.967835E-03	2.127816E-04
4.246032E+03	6.126899E-03	2.176102E-04
4.255952E+03	6.305528E-03	2.230877E-04
4.265873E+03	6.500618E-03	2.290969E-04
4.275794E+03	6.708402E-03	2.354987E-04
4.285714E+03	6.924418E-03	2.421320E-04
4.295635E+03	7.142589E-03	2.487819E-04
4.305556E+03	7.354170E-03	2.551443E-04
4.315476E+03	7.548276E-03	2.608459E-04
4.325397E+03	7.711107E-03	2.654189E-04
4.335317E+03	7.828447E-03	2.683890E-04
4.345238E+03	7.887549E-03	2.693396E-04
4.355159E+03	7.880655E-03	2.680309E-04
4.365079E+03	7.811571E-03	2.646187E-04
4.375000E+03	7.695635E-03	2.596461E-04
4.384921E+03	7.552755E-03	2.538010E-04
4.394841E+03	7.405205E-03	2.478400E-04
4.404762E+03	7.273970E-03	2.424643E-04
4.414683E+03	7.177681E-03	2.382859E-04
4.424603E+03	7.131526E-03	2.357927E-04
4.434524E+03	7.147422E-03	2.353566E-04
4.444444E+03	7.233684E-03	2.372252E-04
4.454365E+03	7.395678E-03	2.415455E-04
4.464286E+03	7.635583E-03	2.483578E-04
4.474206E+03	7.952546E-03	2.576032E-04
4.484127E+03	8.342042E-03	2.691048E-04
4.494048E+03	8.795842E-03	2.825693E-04
4.503968E+03	9.302206E-03	2.975955E-04
4.513889E+03	9.845710E-03	3.136710E-04
4.523810E+03	1.040829E-02	3.302079E-04
4.533730E+03	1.096949E-02	3.465523E-04
4.543651E+03	1.150824E-02	3.620424E-04
4.553571E+03	1.200333E-02	3.760223E-04
4.563492E+03	1.243502E-02	3.878941E-04
4.573413E+03	1.278580E-02	3.971385E-04
4.583333E+03	1.304150E-02	4.033501E-04
4.593254E+03	1.319302E-02	4.062861E-04
4.603175E+03	1.323686E-02	4.058805E-04
4.613095E+03	1.317559E-02	4.022547E-04
4.623016E+03	1.301834E-02	3.957279E-04
4.632937E+03	1.277941E-02	3.867709E-04
4.642857E+03	1.247646E-02	3.759482E-04
4.652778E+03	1.212901E-02	3.638707E-04
4.662698E+03	1.175623E-02	3.511289E-04
4.672619E+03	1.137473E-02	3.382263E-04
4.682540E+03	1.099812E-02	3.255696E-04
4.692460E+03	1.063654E-02	3.134555E-04
4.702381E+03	1.029673E-02	3.020755E-04
4.712302E+03	9.982466E-03	2.915315E-04
4.722222E+03	9.694803E-03	2.818438E-04
4.732143E+03	9.433414E-03	2.729924E-04
4.742063E+03	9.197477E-03	2.649432E-04
4.751984E+03	8.987090E-03	2.576888E-04
4.761905E+03	8.803101E-03	2.512432E-04
4.771825E+03	8.647815E-03	2.456614E-04
4.781746E+03	8.524283E-03	2.410182E-04
4.791667E+03	8.435847E-03	2.373948E-04
4.801587E+03	8.385711E-03	2.348671E-04
4.811508E+03	8.375768E-03	2.334725E-04
4.821429E+03	8.407086E-03	2.332244E-04
4.831349E+03	8.479831E-03	2.341110E-04
4.841270E+03	8.593637E-03	2.361057E-04
4.851190E+03	8.748324E-03	2.391868E-04
4.861111E+03	8.944249E-03	2.433479E-04
4.871032E+03	9.181900E-03	2.485853E-04
4.880952E+03	9.461345E-03	2.548843E-04
4.890873E+03	9.780824E-03	2.621807E-04
4.900794E+03	1.013411E-02	2.702923E-04
4.910714E+03	1.050922E-02	2.788875E-04
4.920635E+03	1.088628E-02	2.874325E-04
4.930556E+03	1.123768E-02	2.952012E-04
4.940476E+03	1.153049E-02	3.013436E-04
4.950397E+03	1.173101E-02	3.050068E-04
4.960317E+03	1.181157E-02	3.055124E-04
4.970238E+03	1.175734E-02	3.025273E-04
4.980159E+03	1.157061E-02	2.961644E-04
4.990079E+03	1.127157E-02	2.869918E-04
5.000000E+03	1.089423E-02	2.759162E-04
5.009921E+03	1.048031E-02	2.640200E-04
5.019841E+03	1.007165E-02	2.523671E-04
5.029762E+03	9.704730E-03	2.418645E-04
5.039683E+03	9.407009E-03	2.331759E-04
5.049603E+03	9.196322E-03	2.267132E-04
5.059524E+03	9.081296E-03	2.226528E-04
5.069444E+03	9.062494E-03	2.209698E-04
5.079365E+03	9.134143E-03	2.214854E-04
5.089286E+03	9.285491E-03	2.239039E-04
5.099206E+03	9.501931E-03	2.278429E-04
5.109127E+03	9.766485E-03	2.328716E-04
5.119048E+03	1.006125E-02	2.385462E-04
5.128968E+03	1.036949E-02	2.444602E-04
5.138889E+03	1.067679E-02	2.502705E-04
5.148810E+03	1.097229E-02	2.557245E-04
5.158730E+03	1.125010E-02	2.606914E-04
5.168651E+03	1.150810E-02	2.651291E-04
5.178571E+03	1.174843E-02	2.690956E-04
5.188492E+03	1.197517E-02	2.726905E-04
5.198413E+03	1.219375E-02	2.760432E-04
5.208333E+03	1.240992E-02	2.792867E-04
5.218254E+03	1.262804E-02	2.825195E-04
5.228175E+03	1.285135E-02	2.858139E-04
5.238095E+03	1.308055E-02	2.891837E-04
5.248016E+03	1.331430E-02	2.925973E-04
5.257937E+03	1.354804E-02	2.959543E-04
5.267857E+03	1.377427E-02	2.990924E-04
5.277778E+03	1.398263E-02	3.017915E-04
5.287698E+03	1.415996E-02	3.037768E-04
5.297619E+03	1.429179E-02	3.047529E-04
5.307540E+03	1.436375E-02	3.044330E-04
5.317460E+03	1.436340E-02	3.025793E-04
5.327381E+03	1.428377E-02	2.990736E-04
5.337302E+03	1.412498E-02	2.939496E-04
5.347222E+03	1.389639E-02	2.874313E-04
5.357143E+03	1.361655E-02	2.799263E-04
5.367063E+03	1.331262E-02	2.720091E-04
5.376984E+03	1.301732E-02	2.643527E-04
5.386905E+03	1.276568E-02	2.576609E-04
5.396825E+03	1.259149E-02	2.525951E-04
5.406746E+03	1.252415E-02	2.497131E-04
5.416667E+03	1.258691E-02	2.494365E-04
5.426587E+03	1.279454E-02	2.520096E-04
5.436508E+03	1.315068E-02	2.574522E-04
5.446429E+03	1.364550E-02	2.655212E-04
5.456349E+03	1.425110E-02	2.756298E-04
5.466270E+03	1.491768E-02	2.867839E-04
5.476190E+03	1.558224E-02	2.977610E-04
5.486111E+03	1.617852E-02	3.073054E-04
5.496032E+03	1.665121E-02	3.143981E-04
5.505952E+03	1.696735E-02	3.184633E-04
5.515873E+03	1.712195E-02	3.194610E-04
5.525794E+03	1.713554E-02	3.178256E-04
5.535714E+03	1.704478E-02	3.142793E-04
5.545635E+03	1.689145E-02	3.096214E-04
5.555556E+03	1.671080E-02	3.045133E-04
5.565476E+03	1.652384E-02	2.993437E-04
5.575397E+03	1.633482E-02	2.941901E-04
5.585317E+03	1.613097E-02	2.888236E-04
5.595238E+03	1.588640E-02	2.827867E-04
5.605159E+03	1.556907E-02	2.755246E-04
5.615079E+03	1.514929E-02	2.665362E-04
5.625000E+03	1.460906E-02	2.555371E-04
5.634921E+03	1.394852E-02	2.425650E-04
5.644841E+03	1.318814E-02	2.280092E-04
5.654762E+03	1.236656E-02	2.125624E-04
5.664683E+03	1.153232E-02	1.970706E-04
5.674603E+03	1.073549E-02	1.823869E-04
5.684524E+03	1.002016E-02	1.692433E-04
5.694444E+03	9.419965E-03	1.581790E-04
5.704365E+03	8.957479E-03	1.495360E-04
5.714286E+03	8.645412E-03	1.434837E-04
5.724206E+03	8.489253E-03	1.400684E-04
5.734127E+03	8.489556E-03	1.392534E-04
5.744048E+03	8.643630E-03	1.409494E-04
5.753968E+03	8.945996E-03	1.450233E-04
5.763889E+03	9.387649E-03	1.512876E-04
5.773810E+03	9.955374E-03	1.594914E-04
5.783730E+03	1.063038E-02	1.693000E-04
5.793651E+03	1.138813E-02	1.802951E-04
5.803571E+03	1.219887E-02	1.919863E-04
5.813492E+03	1.302897E-02	2.038333E-04
5.823413E+03	1.384448E-02	2.153036E-04
5.833333E+03	1.461359E-02	2.259109E-04
5.843254E+03	1.530996E-02	2.352643E-04
5.853175E+03	1.591434E-02	2.430907E-04
5.863095E+03	1.641552E-02	2.492466E-04
5.873016E+03	1.680845E-02	2.536847E-04
5.882937E+03	1.709265E-02	2.564283E-04
5.892857E+03	1.727054E-02	2.575437E-04
5.902778E+03	1.734540E-02	2.571090E-04
5.912698E+03	1.732085E-02	2.552058E-04
5.922619E+03	1.720182E-02	2.519330E-04
5.932540E+03	1.699511E-02	2.474152E-04
5.942460E+03	1.671039E-02	2.418156E-04
5.952381E+03	1.636101E-02	2.353465E-04
5.962302E+03	1.596268E-02	2.282495E-04
5.972222E+03	1.553307E-02	2.207881E-04
5.982143E+03	1.508968E-02	2.132170E-04
5.992063E+03	1.464848E-02	2.057640E-04
6.001984E+03	1.422346E-02	1.986233E-04
6.011905E+03	1.382627E-02	1.919523E-04
6.021825E+03	1.346544E-02	1.858616E-04
6.031746E+03	1.314832E-02	1.804430E-04
6.041667E+03	1.288001E-02	1.757554E-04
6.051587E+03	1.266474E-02	1.718448E-04
6.061508E+03	1.250609E-02	1.687474E-04
6.071429E+03	1.240691E-02	1.664887E-04
6.081349E+03	1.236958E-02	1.650878E-04
6.091270E+03	1.239593E-02	1.645564E-04
6.101190E+03	1.248589E-02	1.648810E-04
6.111111E+03	1.263717E-02	1.660197E-04
6.121032E+03	1.284377E-02	1.678833E-04
6.130952E+03	1.309554E-02	1.703312E-04
6.140873E+03	1.337788E-02	1.731682E-04
6.150794E+03	1.368033E-02	1.762565E-04
6.160714E+03	1.400307E-02	1.795978E-04
6.170635E+03	1.434746E-02	1.832092E-04
6.180556E+03	1.471586E-02	1.871204E-04
6.190476E+03	1.511195E-02	1.913772E-04
6.200397E+03	1.552840E-02	1.958867E-04
6.210317E+03	1.593840E-02	2.003125E-04
6.220238E+03	1.631462E-02	2.043171E-04
6.230159E+03	1.663296E-02	2.076077E-04
6.240079E+03	1.687511E-02	2.099672E-04
6.250000E+03	1.702894E-02	2.112567E-04
6.259921E+03	1.708916E-02	2.114226E-04
6.269841E+03	1.705707E-02	2.104918E-04
6.279762E+03	1.693952E-02	2.085580E-04
6.289683E+03	1.674962E-02	2.057894E-04
6.299603E+03	1.650453E-02	2.024012E-04
6.309524E+03	1.622456E-02	1.986448E-04
6.319444E+03	1.593017E-02	1.947704E-04
6.329365E+03	1.564078E-02	1.910142E-04
6.339286E+03	1.537149E-02	1.875582E-04
6.349206E+03	1.513313E-02	1.845322E-04
6.359127E+03	1.493102E-02	1.819986E-04
6.369048E+03	1.476558E-02	1.799607E-04
6.378968E+03	1.463443E-02	1.783882E-04
6.388889E+03	1.453245E-02	1.772184E-04
6.398810E+03	1.445427E-02	1.763854E-04
6.408730E+03	1.439429E-02	1.758204E-04
6.418651E+03	1.434827E-02	1.754702E-04
6.428571E+03	1.431410E-02	1.753071E-04
6.438492E+03	1.429239E-02	1.753368E-04
6.448413E+03	1.428719E-02	1.756080E-04
6.458333E+03	1.430518E-02	1.762018E-04
6.468254E+03	1.435487E-02	1.772235E-04
6.478175E+03	1.444406E-02	1.787705E-04
6.488095E+03	1.457248E-02	1.808417E-04
6.498016E+03	1.472720E-02	1.832790E-04
6.507937E+03	1.489125E-02	1.858721E-04
6.517857E+03	1.504603E-02	1.883880E-04
6.527778E+03	1.517296E-02	1.905912E-04
6.537698E+03	1.525641E-02	1.922797E-04
6.547619E+03	1.528463E-02	1.932979E-04
6.557540E+03	1.525156E-02	1.935597E-04
6.567460E+03	1.515719E-02	1.930547E-04
6.577381E+03	1.500585E-02	1.918279E-04
6.587302E+03	1.480523E-02	1.899675E-04
6.597222E+03	1.456455E-02	1.875830E-04
6.607143E+03	1.429269E-02	1.847812E-04
6.617063E+03	1.399758E-02	1.816582E-04
6.626984E+03	1.368608E-02	1.782981E-04
6.636905E+03	1.336458E-02	1.747802E-04
6.646825E+03	1.303993E-02	1.711910E-04
6.656746E+03	1.271897E-02	1.676190E-04
6.666667E+03	1.240946E-02	1.641659E-04
6.676587E+03	1.211886E-02	1.609314E-04
6.686508E+03	1.185371E-02	1.580046E-04
6.696429E+03	1.161835E-02	1.554464E-04
6.706349E+03	1.141488E-02	1.532887E-04
6.716270E+03	1.124198E-02	1.515178E-04
6.726190E+03	1.109586E-02	1.500861E-04
6.736111E+03	1.097093E-02	1.489213E-04
6.746032E+03	1.085952E-02	1.479211E-04
6.755952E+03	1.075420E-02	1.469855E-04
6.765873E+03	1.064779E-02	1.460164E-04
6.775794E+03	1.053482E-02	1.449378E-04
6.785714E+03	1.041179E-02	1.437004E-04
6.795635E+03	1.027760E-02	1.422872E-04
6.805556E+03	1.013407E-02	1.407219E-04
6.815476E+03	9.984908E-03	1.390551E-04
6.825397E+03	9.836284E-03	1.373720E-04
6.835317E+03	9.695362E-03	1.357731E-04
6.845238E+03	9.570101E-03	1.343713E-04
6.855159E+03	9.468382E-03	1.332791E-04
6.865079E+03	9.397379E-03	1.326003E-04
6.875000E+03	9.362532E-03	1.324149E-04
6.884921E+03	9.367277E-03	1.327750E-04
6.894841E+03	9.412585E-03	1.336978E-04
6.904762E+03	9.496325E-03	1.351559E-04
6.914683E+03	9.613645E-03	1.370829E-04
6.924603E+03	9.756718E-03	1.393688E-04
6.934524E+03	9.915725E-03	1.418741E-04
6.944444E+03	1.007920E-02	1.444346E-04
6.954365E+03	1.023549E-02	1.468824E-04
6.964286E+03	1.037334E-02	1.490544E-04
6.974206E+03	1.048333E-02	1.508130E-04
6.984127E+03	1.055814E-02	1.520509E-04
6.994048E+03	1.059345E-02	1.527034E-04
7.003968E+03	1.058817E-02	1.527531E-04
7.013889E+03	1.054403E-02	1.522232E-04
7.023810E+03	1.046568E-02	1.511801E-04
7.033730E+03	1.036014E-02	1.497245E-04
7.043651E+03	1.023622E-02	1.479840E-04
7.053571E+03	1.010325E-02	1.460935E-04
7.063492E+03	9.970982E-03	1.441948E-04
7.073413E+03	9.848350E-03	1.424179E-04
7.083333E+03	9.743035E-03	1.408744E-04
7.093254E+03	9.661195E-03	1.396538E-04
7.103175E+03	9.607361E-03	1.388219E-04
7.113095E+03	9.584959E-03	1.384279E-04
7.123016E+03	9.596701E-03	1.385106E-04
7.132937E+03	9.644701E-03	1.390995E-04
7.142857E+03	9.730500E-03	1.402156E-04
7.152778E+03	9.855671E-03	1.418798E-04
7.162698E+03	1.002036E-02	1.440920E-04
7.172619E+03	1.022338E-02	1.468329E-04
7.182540E+03	1.046087E-02	1.500439E-04
7.192460E+03	1.072555E-02	1.536181E-04
7.202381E+03	1.100623E-02	1.573929E-04
7.212302E+03	1.128840E-02	1.611587E-04
7.222222E+03	1.155469E-02	1.646672E-04
7.232143E+03	1.178711E-02	1.676625E-04
7.242063E+03	1.196951E-02	1.699177E-04
7.251984E+03	1.208963E-02	1.712627E-04
7.261905E+03	1.214166E-02	1.716211E-04
7.271825E+03	1.212650E-02	1.710121E-04
7.281746E+03	1.205182E-02	1.695507E-04
7.291667E+03	1.192970E-02	1.674131E-04
7.301587E+03	1.177480E-02	1.648107E-04
7.311508E+03	1.160120E-02	1.619447E-04
7.321429E+03	1.142061E-02	1.589813E-04
7.331349E+03	1.124142E-02	1.560391E-04
7.341270E+03	1.106820E-02	1.531820E-04
7.351190E+03	1.090258E-02	1.504331E-04
7.361111E+03	1.074373E-02	1.477812E-04
7.371032E+03	1.058985E-02	1.452016E-04
7.380952E+03	1.043914E-02	1.426703E-04
7.390873E+03	1.029114E-02	1.401815E-04
7.400794E+03	1.014647E-02	1.377441E-04
7.410714E+03	1.000787E-02	1.353959E-04
7.420635E+03	9.879196E-03	1.331889E-04
7.430556E+03	9.765292E-03	1.311874E-04
7.440476E+03	9.670066E-03	1.294425E-04
7.450397E+03	9.596089E-03	1.279864E-04
7.460317E+03	9.542683E-03	1.268077E-04
7.470238E+03	9.506355E-03	1.258577E-04
7.480159E+03	9.480105E-03	1.250418E-04
7.490079E+03	9.455181E-03	1.242438E-04
7.500000E+03	9.419949E-03	1.233115E-04
7.509921E+03	9.361905E-03	1.220837E-04
7.519841E+03	9.268129E-03	1.203962E-04
7.529762E+03	9.127757E-03	1.181142E-04
7.539683E+03	8.935238E-03	1.151736E-04
7.549603E+03	8.692767E-03	1.116108E-04
7.559524E+03	8.414261E-03	1.076117E-04
7.569444E+03	8.133277E-03	1.036097E-04
7.579365E+03	7.886448E-03	1.000702E-04
7.589286E+03	7.704024E-03	9.737076E-05
7.599206E+03	7.607267E-03	9.576982E-05
7.609127E+03	7.607794E-03	9.540064E-05
7.619048E+03	7.709076E-03	9.629268E-05
7.628968E+03	7.907250E-03	9.838373E-05
7.638889E+03	8.192258E-03	1.015359E-04
7.648810E+03	8.548872E-03	1.055497E-04
7.658730E+03	8.957395E-03	1.101740E-04
7.668651E+03	9.395411E-03	1.151286E-04
7.678571E+03	9.839664E-03	1.201274E-04
7.688492E+03	1.026778E-02	1.248994E-04
7.698413E+03	1.066079E-02	1.292191E-04
