#wls	flux	fluxerr
1.587302E+03	5.347727E-04	4.310401E-06
1.626984E+03	5.405155E-04	4.356689E-06
1.666667E+03	5.462407E-04	4.402836E-06
1.706349E+03	5.521481E-04	4.450450E-06
1.746032E+03	5.581317E-04	4.498680E-06
1.785714E+03	5.641152E-04	4.546908E-06
1.825397E+03	5.700863E-04	4.595037E-06
1.865079E+03	5.758050E-04	4.641131E-06
1.904762E+03	5.813140E-04	4.685535E-06
1.944444E+03	5.863987E-04	4.726519E-06
1.984127E+03	5.911074E-04	4.764472E-06
2.023810E+03	5.959589E-04	4.803576E-06
2.063492E+03	6.018467E-04	4.851034E-06
2.103175E+03	6.104927E-04	4.920723E-06
2.142857E+03	6.233198E-04	5.024112E-06
2.182540E+03	6.411979E-04	5.168214E-06
2.222222E+03	6.638435E-04	5.350743E-06
2.261905E+03	6.903222E-04	5.564167E-06
2.301587E+03	7.198952E-04	5.802534E-06
2.341270E+03	7.517178E-04	6.059032E-06
2.380952E+03	7.857660E-04	6.333469E-06
2.420635E+03	8.220729E-04	6.626111E-06
2.460317E+03	8.609598E-04	6.939549E-06
2.500000E+03	9.028458E-04	7.277160E-06
2.539683E+03	9.479317E-04	7.640564E-06
2.579365E+03	9.966865E-04	8.033540E-06
2.619048E+03	1.049727E-03	8.461056E-06
2.658730E+03	1.107535E-03	8.927010E-06
2.698413E+03	1.170270E-03	9.432664E-06
2.738095E+03	1.238324E-03	9.981198E-06
2.777778E+03	1.312356E-03	1.057791E-05
2.817460E+03	1.392469E-03	1.122364E-05
2.857143E+03	1.478795E-03	1.191945E-05
2.896825E+03	1.571295E-03	1.266502E-05
2.936508E+03	1.670096E-03	1.346138E-05
2.976190E+03	1.774546E-03	1.430328E-05
2.986111E+03	1.801413E-03	1.451983E-05
2.996032E+03	1.828703E-03	1.473980E-05
3.005952E+03	1.856205E-03	1.496147E-05
3.015873E+03	1.883902E-03	1.518472E-05
3.025794E+03	1.912193E-03	1.541275E-05
3.035714E+03	1.940486E-03	1.564080E-05
3.045635E+03	1.969150E-03	1.587183E-05
3.055556E+03	1.998155E-03	1.610562E-05
3.065476E+03	2.027273E-03	1.634032E-05
3.075397E+03	2.056879E-03	1.657895E-05
3.085317E+03	2.086331E-03	1.681634E-05
3.095238E+03	2.116213E-03	1.705720E-05
3.105159E+03	2.146082E-03	1.729795E-05
3.115079E+03	2.176115E-03	1.754003E-05
3.125000E+03	2.206072E-03	1.778149E-05
3.134921E+03	2.236342E-03	1.802547E-05
3.144841E+03	2.266685E-03	1.827004E-05
3.154762E+03	2.296862E-03	1.851327E-05
3.164683E+03	2.327054E-03	1.875663E-05
3.174603E+03	2.357446E-03	1.900160E-05
3.184524E+03	2.387588E-03	1.924455E-05
3.194444E+03	2.417880E-03	1.948871E-05
3.204365E+03	2.447872E-03	1.973045E-05
3.214286E+03	2.477969E-03	1.997304E-05
3.224206E+03	2.507939E-03	2.021460E-05
3.234127E+03	2.537763E-03	2.045500E-05
3.244048E+03	2.567642E-03	2.069582E-05
3.253968E+03	2.597347E-03	2.093526E-05
3.263889E+03	2.626865E-03	2.117318E-05
3.273810E+03	2.656404E-03	2.141127E-05
3.283730E+03	2.685736E-03	2.164770E-05
3.293651E+03	2.714855E-03	2.188240E-05
3.303571E+03	2.744185E-03	2.211881E-05
3.313492E+03	2.773280E-03	2.235332E-05
3.323413E+03	2.802124E-03	2.258581E-05
3.333333E+03	2.830913E-03	2.281786E-05
3.343254E+03	2.859618E-03	2.304923E-05
3.353175E+03	2.888200E-03	2.327960E-05
3.363095E+03	2.916609E-03	2.350859E-05
3.373016E+03	2.944787E-03	2.373571E-05
3.382937E+03	2.972453E-03	2.395871E-05
3.392857E+03	2.999975E-03	2.418054E-05
3.402778E+03	3.027086E-03	2.439906E-05
3.412698E+03	3.053772E-03	2.461415E-05
3.422619E+03	3.080070E-03	2.482612E-05
3.432540E+03	3.106092E-03	2.503587E-05
3.442460E+03	3.132262E-03	2.524681E-05
3.452381E+03	3.158687E-03	2.545980E-05
3.462302E+03	3.186012E-03	2.568004E-05
3.472222E+03	3.214564E-03	2.591018E-05
3.482143E+03	3.244966E-03	2.615522E-05
3.492063E+03	3.278290E-03	2.642383E-05
3.501984E+03	3.314782E-03	2.671796E-05
3.511905E+03	3.355034E-03	2.704240E-05
3.521825E+03	3.399932E-03	2.740429E-05
3.531746E+03	3.449348E-03	2.780259E-05
3.541667E+03	3.503743E-03	2.824104E-05
3.551587E+03	3.562485E-03	2.871451E-05
3.561508E+03	3.625505E-03	2.922246E-05
3.571429E+03	3.691614E-03	2.975532E-05
3.581349E+03	3.760101E-03	3.030734E-05
3.591270E+03	3.829339E-03	3.086542E-05
3.601190E+03	3.897930E-03	3.141827E-05
3.611111E+03	3.963976E-03	3.195063E-05
3.621032E+03	4.025838E-03	3.244925E-05
3.630952E+03	4.082140E-03	3.290306E-05
3.640873E+03	4.131392E-03	3.330004E-05
3.650794E+03	4.172091E-03	3.362808E-05
3.660714E+03	4.203407E-03	3.388050E-05
3.670635E+03	4.224577E-03	3.405113E-05
3.680556E+03	4.235012E-03	3.413524E-05
3.689792E+03	4.784418E-03	3.856359E-05
3.691250E+03	4.862056E-03	3.918937E-05
3.692708E+03	4.926976E-03	3.971264E-05
3.694167E+03	4.991698E-03	4.023432E-05
3.695625E+03	5.058892E-03	4.077592E-05
3.697083E+03	5.106588E-03	4.116036E-05
3.698542E+03	5.096183E-03	4.107649E-05
3.700000E+03	5.085982E-03	4.099427E-05
3.701458E+03	5.113976E-03	4.121991E-05
3.702917E+03	5.129857E-03	4.134791E-05
3.704375E+03	5.087211E-03	4.100418E-05
3.705833E+03	5.043944E-03	4.065544E-05
3.707292E+03	5.032716E-03	4.056493E-05
3.708750E+03	5.003410E-03	4.032872E-05
3.710208E+03	4.953766E-03	3.992858E-05
3.711667E+03	4.962459E-03	3.999864E-05
3.713125E+03	5.003200E-03	4.032703E-05
3.714583E+03	5.037167E-03	4.060081E-05
3.716042E+03	5.067852E-03	4.084814E-05
3.717500E+03	5.072035E-03	4.088185E-05
3.718958E+03	5.051972E-03	4.072014E-05
3.720417E+03	5.061087E-03	4.079361E-05
3.721875E+03	5.057257E-03	4.076274E-05
3.723333E+03	5.020545E-03	4.046683E-05
3.724792E+03	5.003355E-03	4.032827E-05
3.726250E+03	4.985341E-03	4.018307E-05
3.727708E+03	4.937727E-03	3.979929E-05
3.729167E+03	4.860301E-03	3.917522E-05
3.730625E+03	4.793557E-03	3.863725E-05
3.732083E+03	4.728656E-03	3.811414E-05
3.733542E+03	4.623658E-03	3.726782E-05
3.735000E+03	4.494798E-03	3.622918E-05
3.736458E+03	4.389570E-03	3.538102E-05
3.737917E+03	4.311680E-03	3.475320E-05
3.739375E+03	4.246120E-03	3.422477E-05
3.740833E+03	4.219627E-03	3.401123E-05
3.742292E+03	4.181820E-03	3.370650E-05
3.743750E+03	4.098143E-03	3.303204E-05
3.745208E+03	4.047573E-03	3.262443E-05
3.746667E+03	4.021271E-03	3.241243E-05
3.748125E+03	3.966577E-03	3.197159E-05
3.749583E+03	3.930393E-03	3.167993E-05
3.751042E+03	3.934941E-03	3.171660E-05
3.752500E+03	3.909245E-03	3.150948E-05
3.753958E+03	3.829432E-03	3.086617E-05
3.755417E+03	3.727386E-03	3.004365E-05
3.756875E+03	3.664016E-03	2.953287E-05
3.758333E+03	3.665466E-03	2.954456E-05
3.759792E+03	3.697994E-03	2.980674E-05
3.761250E+03	3.722292E-03	3.000259E-05
3.762708E+03	3.724981E-03	3.002427E-05
3.764167E+03	3.723143E-03	3.000945E-05
3.765625E+03	3.705660E-03	2.986853E-05
3.767083E+03	3.693116E-03	2.976742E-05
3.768542E+03	3.746247E-03	3.019568E-05
3.770000E+03	3.801445E-03	3.064059E-05
3.771458E+03	3.803319E-03	3.065569E-05
3.772917E+03	3.833200E-03	3.089653E-05
3.774375E+03	3.851346E-03	3.104280E-05
3.775833E+03	3.838191E-03	3.093676E-05
3.777292E+03	3.863548E-03	3.114115E-05
3.778750E+03	3.908476E-03	3.150328E-05
3.780208E+03	3.934048E-03	3.170940E-05
3.781667E+03	3.940467E-03	3.176113E-05
3.783125E+03	3.966869E-03	3.197394E-05
3.784583E+03	4.034272E-03	3.251723E-05
3.786042E+03	4.112193E-03	3.314529E-05
3.787500E+03	4.164161E-03	3.356416E-05
3.788958E+03	4.235711E-03	3.414087E-05
3.790417E+03	4.323962E-03	3.485220E-05
3.791875E+03	4.372245E-03	3.524137E-05
3.793333E+03	4.399513E-03	3.546115E-05
3.794792E+03	4.410914E-03	3.555305E-05
3.796250E+03	4.442928E-03	3.581110E-05
3.797708E+03	4.476597E-03	3.608247E-05
3.799167E+03	4.457085E-03	3.592520E-05
3.800625E+03	4.447260E-03	3.584601E-05
3.802083E+03	4.459082E-03	3.594130E-05
3.803542E+03	4.486989E-03	3.616624E-05
3.805000E+03	4.482527E-03	3.613027E-05
3.806458E+03	4.467548E-03	3.600954E-05
3.807917E+03	4.464940E-03	3.598852E-05
3.809375E+03	4.476358E-03	3.608055E-05
3.810833E+03	4.477464E-03	3.608946E-05
3.812292E+03	4.464339E-03	3.598367E-05
3.813750E+03	4.449563E-03	3.586458E-05
3.815208E+03	4.429009E-03	3.569891E-05
3.816667E+03	4.394632E-03	3.542182E-05
3.818125E+03	4.352203E-03	3.507983E-05
3.819583E+03	4.333498E-03	3.492906E-05
3.821042E+03	4.323044E-03	3.484480E-05
3.822500E+03	4.276478E-03	3.446946E-05
3.823958E+03	4.220413E-03	3.401757E-05
3.825417E+03	4.221509E-03	3.402640E-05
3.826875E+03	4.212699E-03	3.395539E-05
3.828333E+03	4.183660E-03	3.372133E-05
3.829792E+03	4.182071E-03	3.370853E-05
3.831250E+03	4.175116E-03	3.365246E-05
3.832708E+03	4.151438E-03	3.346161E-05
3.834167E+03	4.177927E-03	3.367512E-05
3.835625E+03	4.222176E-03	3.403178E-05
3.837083E+03	4.206138E-03	3.390251E-05
3.838542E+03	4.164286E-03	3.356517E-05
3.840000E+03	4.134199E-03	3.332266E-05
3.841458E+03	4.129099E-03	3.328156E-05
3.842917E+03	4.101073E-03	3.305566E-05
3.844375E+03	4.027189E-03	3.246014E-05
3.845833E+03	3.987585E-03	3.214092E-05
3.847292E+03	3.988466E-03	3.214802E-05
3.848750E+03	3.988316E-03	3.214681E-05
3.850208E+03	3.983620E-03	3.210896E-05
3.851667E+03	3.970246E-03	3.200116E-05
3.853125E+03	3.965757E-03	3.196498E-05
3.854583E+03	3.987097E-03	3.213698E-05
3.856042E+03	4.036547E-03	3.253557E-05
3.857500E+03	4.088485E-03	3.295420E-05
3.858958E+03	4.144357E-03	3.340454E-05
3.860417E+03	4.190315E-03	3.377497E-05
3.861875E+03	4.206718E-03	3.390719E-05
3.863333E+03	4.235115E-03	3.413607E-05
3.864792E+03	4.282951E-03	3.452164E-05
3.866250E+03	4.351055E-03	3.507057E-05
3.867708E+03	4.449152E-03	3.586126E-05
3.869167E+03	4.531752E-03	3.652704E-05
3.870625E+03	4.535573E-03	3.655783E-05
3.872083E+03	4.535673E-03	3.655864E-05
3.873542E+03	4.587687E-03	3.697789E-05
3.875000E+03	4.655841E-03	3.752723E-05
3.876458E+03	4.718215E-03	3.802997E-05
3.877917E+03	4.759496E-03	3.836271E-05
3.879375E+03	4.817747E-03	3.883223E-05
3.880833E+03	4.885318E-03	3.937687E-05
3.882292E+03	4.955588E-03	3.994326E-05
3.883750E+03	5.030007E-03	4.054310E-05
3.885208E+03	5.095124E-03	4.106796E-05
3.886667E+03	5.155490E-03	4.155452E-05
3.888125E+03	5.223731E-03	4.210456E-05
3.889583E+03	5.300261E-03	4.272141E-05
3.891042E+03	5.351132E-03	4.313145E-05
3.892500E+03	5.398287E-03	4.351152E-05
3.893958E+03	5.509833E-03	4.441061E-05
3.895417E+03	5.636096E-03	4.542832E-05
3.896875E+03	5.700881E-03	4.595050E-05
3.898333E+03	5.752008E-03	4.636260E-05
3.899792E+03	5.818468E-03	4.689828E-05
3.901250E+03	5.870233E-03	4.731553E-05
3.902708E+03	5.930497E-03	4.780127E-05
3.904167E+03	6.016869E-03	4.849744E-05
3.905625E+03	6.104082E-03	4.920040E-05
3.907083E+03	6.169350E-03	4.972648E-05
3.908542E+03	6.203964E-03	5.000548E-05
3.910000E+03	6.237964E-03	5.027952E-05
3.911458E+03	6.302634E-03	5.080078E-05
3.912917E+03	6.370215E-03	5.134550E-05
3.914375E+03	6.417705E-03	5.172828E-05
3.915833E+03	6.444478E-03	5.194408E-05
3.917292E+03	6.476851E-03	5.220501E-05
3.918750E+03	6.543222E-03	5.273999E-05
3.920208E+03	6.623492E-03	5.338698E-05
3.921667E+03	6.687811E-03	5.390540E-05
3.923125E+03	6.709640E-03	5.408135E-05
3.924583E+03	6.750961E-03	5.441441E-05
3.926042E+03	6.819867E-03	5.496980E-05
3.927500E+03	6.877584E-03	5.543502E-05
3.928958E+03	6.939874E-03	5.593709E-05
3.930417E+03	6.985997E-03	5.630886E-05
3.931875E+03	7.033785E-03	5.669404E-05
3.933333E+03	7.107302E-03	5.728661E-05
3.934792E+03	7.209249E-03	5.810832E-05
3.936250E+03	7.260800E-03	5.852384E-05
3.937708E+03	7.242651E-03	5.837755E-05
3.939167E+03	7.235288E-03	5.831821E-05
3.940625E+03	7.251373E-03	5.844786E-05
3.942083E+03	7.299002E-03	5.883175E-05
3.943542E+03	7.343733E-03	5.919230E-05
3.945000E+03	7.385774E-03	5.953116E-05
3.946458E+03	7.408518E-03	5.971448E-05
3.947917E+03	7.410302E-03	5.972886E-05
3.949375E+03	7.443639E-03	5.999757E-05
3.950833E+03	7.466188E-03	6.017931E-05
3.952292E+03	7.460919E-03	6.013684E-05
3.953750E+03	7.475790E-03	6.025671E-05
3.955208E+03	7.503953E-03	6.048371E-05
3.956667E+03	7.552473E-03	6.087480E-05
3.958125E+03	7.591655E-03	6.119061E-05
3.959583E+03	7.577258E-03	6.107456E-05
3.961042E+03	7.546659E-03	6.082793E-05
3.962500E+03	7.527480E-03	6.067335E-05
3.963958E+03	7.530736E-03	6.069959E-05
3.965417E+03	7.524227E-03	6.064713E-05
3.966875E+03	7.535380E-03	6.073702E-05
3.968333E+03	7.580818E-03	6.110326E-05
3.969792E+03	7.595719E-03	6.122336E-05
3.971250E+03	7.599191E-03	6.125135E-05
3.972708E+03	7.647764E-03	6.164286E-05
3.974167E+03	7.704243E-03	6.209809E-05
3.975625E+03	7.749923E-03	6.246628E-05
3.977083E+03	7.796233E-03	6.283956E-05
3.978542E+03	7.824256E-03	6.306543E-05
3.980000E+03	7.854571E-03	6.330978E-05
3.981458E+03	7.889050E-03	6.358769E-05
3.982917E+03	7.906069E-03	6.372486E-05
3.984375E+03	7.901046E-03	6.368438E-05
3.985833E+03	7.871068E-03	6.344275E-05
3.987292E+03	7.873115E-03	6.345925E-05
3.988750E+03	7.883691E-03	6.354449E-05
3.990208E+03	7.881789E-03	6.352916E-05
3.991667E+03	7.894242E-03	6.362954E-05
3.993125E+03	7.930207E-03	6.391942E-05
3.994583E+03	7.971587E-03	6.425295E-05
3.996042E+03	7.998409E-03	6.446914E-05
3.997500E+03	8.020032E-03	6.464344E-05
3.998958E+03	8.050817E-03	6.489157E-05
4.000417E+03	8.087435E-03	6.518672E-05
4.001875E+03	8.103661E-03	6.531751E-05
4.003333E+03	8.127800E-03	6.551207E-05
4.004792E+03	8.192330E-03	6.603219E-05
4.006250E+03	8.232719E-03	6.635774E-05
4.007708E+03	8.251046E-03	6.650547E-05
4.009167E+03	8.270418E-03	6.666160E-05
4.010625E+03	8.293333E-03	6.684631E-05
4.012083E+03	8.321667E-03	6.707468E-05
4.013542E+03	8.352088E-03	6.731989E-05
4.015000E+03	8.395638E-03	6.767091E-05
4.016458E+03	8.411699E-03	6.780036E-05
4.017917E+03	8.399847E-03	6.770484E-05
4.019375E+03	8.409245E-03	6.778059E-05
4.020833E+03	8.469483E-03	6.826612E-05
4.022292E+03	8.543692E-03	6.886426E-05
4.023750E+03	8.603951E-03	6.934996E-05
4.025208E+03	8.609827E-03	6.939733E-05
4.026667E+03	8.614872E-03	6.943799E-05
4.028125E+03	8.656394E-03	6.977267E-05
4.029583E+03	8.685416E-03	7.000659E-05
4.031042E+03	8.703603E-03	7.015318E-05
4.032500E+03	8.716374E-03	7.025612E-05
4.033958E+03	8.717680E-03	7.026665E-05
4.035417E+03	8.723573E-03	7.031415E-05
4.036875E+03	8.741146E-03	7.045579E-05
4.038333E+03	8.748296E-03	7.051342E-05
4.039792E+03	8.759827E-03	7.060636E-05
4.041250E+03	8.776991E-03	7.074471E-05
4.042708E+03	8.792700E-03	7.087133E-05
4.044167E+03	8.793183E-03	7.087522E-05
4.045625E+03	8.744639E-03	7.048394E-05
4.047083E+03	8.703808E-03	7.015484E-05
4.048542E+03	8.693436E-03	7.007123E-05
4.050000E+03	8.672212E-03	6.990016E-05
4.051458E+03	8.619264E-03	6.947339E-05
4.052917E+03	8.566307E-03	6.904655E-05
4.054375E+03	8.520440E-03	6.867685E-05
4.055833E+03	8.476655E-03	6.832393E-05
4.057292E+03	8.431609E-03	6.796085E-05
4.058750E+03	8.377998E-03	6.752873E-05
4.060208E+03	8.318532E-03	6.704942E-05
4.061667E+03	8.265741E-03	6.662391E-05
4.063125E+03	8.229229E-03	6.632961E-05
4.064583E+03	8.189162E-03	6.600666E-05
4.066042E+03	8.131545E-03	6.554225E-05
4.067500E+03	8.068279E-03	6.503232E-05
4.068958E+03	8.011272E-03	6.457282E-05
4.070417E+03	7.965954E-03	6.420755E-05
4.071875E+03	7.931077E-03	6.392643E-05
4.073333E+03	7.922939E-03	6.386084E-05
4.074792E+03	7.919189E-03	6.383061E-05
4.076250E+03	7.879286E-03	6.350898E-05
4.077708E+03	7.821821E-03	6.304580E-05
4.079167E+03	7.767482E-03	6.260782E-05
4.080625E+03	7.729022E-03	6.229782E-05
4.082083E+03	7.701218E-03	6.207371E-05
4.083542E+03	7.669020E-03	6.181419E-05
4.085000E+03	7.589355E-03	6.117207E-05
4.086458E+03	7.521388E-03	6.062424E-05
4.087917E+03	7.519490E-03	6.060894E-05
4.089375E+03	7.522821E-03	6.063579E-05
4.090833E+03	7.476794E-03	6.026480E-05
4.092292E+03	7.407961E-03	5.970999E-05
4.093750E+03	7.347694E-03	5.922423E-05
4.095208E+03	7.292649E-03	5.878054E-05
4.096667E+03	7.258307E-03	5.850374E-05
4.098125E+03	7.218937E-03	5.818641E-05
4.099583E+03	7.160313E-03	5.771388E-05
4.101042E+03	7.116535E-03	5.736102E-05
4.102500E+03	7.079449E-03	5.706210E-05
4.103958E+03	7.026241E-03	5.663323E-05
4.105417E+03	6.970514E-03	5.618406E-05
4.106875E+03	6.885889E-03	5.550196E-05
4.108333E+03	6.779897E-03	5.464764E-05
4.109792E+03	6.701733E-03	5.401762E-05
4.111250E+03	6.664808E-03	5.371999E-05
4.112708E+03	6.627876E-03	5.342231E-05
4.114167E+03	6.555127E-03	5.283594E-05
4.115625E+03	6.505824E-03	5.243855E-05
4.117083E+03	6.468035E-03	5.213395E-05
4.118542E+03	6.410129E-03	5.166722E-05
4.120000E+03	6.370859E-03	5.135070E-05
4.121458E+03	6.351906E-03	5.119793E-05
4.122917E+03	6.314931E-03	5.089990E-05
4.124375E+03	6.278998E-03	5.061027E-05
4.125833E+03	6.252489E-03	5.039660E-05
4.127292E+03	6.205438E-03	5.001735E-05
4.128750E+03	6.168860E-03	4.972253E-05
4.130208E+03	6.132905E-03	4.943272E-05
4.131667E+03	6.075771E-03	4.897221E-05
4.133125E+03	6.036657E-03	4.865694E-05
4.134583E+03	6.002151E-03	4.837882E-05
4.136042E+03	5.966800E-03	4.809388E-05
4.137500E+03	5.927250E-03	4.777509E-05
4.138958E+03	5.884968E-03	4.743429E-05
4.140417E+03	5.833870E-03	4.702243E-05
4.141875E+03	5.771227E-03	4.651751E-05
4.143333E+03	5.712979E-03	4.604802E-05
4.144792E+03	5.666680E-03	4.567484E-05
4.146250E+03	5.641355E-03	4.547071E-05
4.147708E+03	5.600918E-03	4.514478E-05
4.149167E+03	5.562153E-03	4.483232E-05
4.150625E+03	5.534715E-03	4.461117E-05
4.152083E+03	5.527212E-03	4.455069E-05
4.153542E+03	5.518237E-03	4.447835E-05
4.155000E+03	5.480085E-03	4.417084E-05
4.156458E+03	5.474465E-03	4.412554E-05
4.157917E+03	5.478083E-03	4.415470E-05
4.159375E+03	5.456086E-03	4.397739E-05
4.160833E+03	5.445845E-03	4.389485E-05
4.162292E+03	5.437913E-03	4.383091E-05
4.163750E+03	5.406666E-03	4.357906E-05
4.165208E+03	5.362183E-03	4.322051E-05
4.166667E+03	5.348781E-03	4.311249E-05
4.168125E+03	5.359116E-03	4.319579E-05
4.169583E+03	5.354326E-03	4.315719E-05
4.171042E+03	5.334619E-03	4.299834E-05
4.172500E+03	5.319321E-03	4.287503E-05
4.173958E+03	5.307592E-03	4.278050E-05
4.175417E+03	5.327179E-03	4.293837E-05
4.176875E+03	5.336680E-03	4.301495E-05
4.178333E+03	5.339036E-03	4.303394E-05
4.179792E+03	5.347278E-03	4.310038E-05
4.181250E+03	5.342278E-03	4.306008E-05
4.182708E+03	5.340221E-03	4.304350E-05
4.184167E+03	5.356457E-03	4.317437E-05
4.185625E+03	5.377746E-03	4.334596E-05
4.187083E+03	5.380741E-03	4.337009E-05
4.188542E+03	5.372167E-03	4.330099E-05
4.190000E+03	5.363383E-03	4.323018E-05
4.191458E+03	5.347445E-03	4.310172E-05
4.192917E+03	5.330032E-03	4.296137E-05
4.194375E+03	5.309460E-03	4.279555E-05
4.195833E+03	5.302773E-03	4.274166E-05
4.197292E+03	5.296717E-03	4.269284E-05
4.198750E+03	5.272560E-03	4.249813E-05
4.200208E+03	5.225036E-03	4.211508E-05
4.201667E+03	5.183820E-03	4.178286E-05
4.203125E+03	5.171015E-03	4.167966E-05
4.204583E+03	5.153578E-03	4.153911E-05
4.206042E+03	5.129191E-03	4.134254E-05
4.207500E+03	5.116590E-03	4.124098E-05
4.208958E+03	5.113465E-03	4.121579E-05
4.210417E+03	5.112868E-03	4.121097E-05
4.211875E+03	5.106163E-03	4.115693E-05
4.213333E+03	5.092505E-03	4.104684E-05
4.214792E+03	5.073578E-03	4.089429E-05
4.216250E+03	5.063498E-03	4.081304E-05
4.217708E+03	5.080809E-03	4.095257E-05
4.219167E+03	5.102548E-03	4.112779E-05
4.220625E+03	5.111435E-03	4.119942E-05
4.222083E+03	5.137398E-03	4.140869E-05
4.223542E+03	5.151982E-03	4.152624E-05
4.225000E+03	5.127783E-03	4.133120E-05
4.226458E+03	5.134148E-03	4.138250E-05
4.227917E+03	5.166238E-03	4.164115E-05
4.229375E+03	5.168181E-03	4.165681E-05
4.230833E+03	5.193955E-03	4.186455E-05
4.232292E+03	5.237659E-03	4.221682E-05
4.233750E+03	5.263867E-03	4.242806E-05
4.235208E+03	5.305688E-03	4.276515E-05
4.236667E+03	5.339923E-03	4.304110E-05
4.238125E+03	5.353491E-03	4.315045E-05
4.239583E+03	5.348914E-03	4.311356E-05
4.241042E+03	5.376202E-03	4.333351E-05
4.242500E+03	5.420165E-03	4.368787E-05
4.243958E+03	5.477856E-03	4.415287E-05
4.245417E+03	5.527749E-03	4.455502E-05
4.246875E+03	5.558019E-03	4.479900E-05
4.248333E+03	5.586818E-03	4.503113E-05
4.249792E+03	5.613089E-03	4.524288E-05
4.251250E+03	5.635353E-03	4.542234E-05
4.252708E+03	5.667337E-03	4.568013E-05
4.254167E+03	5.700594E-03	4.594819E-05
4.255625E+03	5.718016E-03	4.608862E-05
4.257083E+03	5.750864E-03	4.635338E-05
4.258542E+03	5.799560E-03	4.674588E-05
4.260000E+03	5.852069E-03	4.716911E-05
4.261458E+03	5.869726E-03	4.731143E-05
4.262917E+03	5.883794E-03	4.742483E-05
4.264375E+03	5.932101E-03	4.781419E-05
4.265833E+03	5.974288E-03	4.815423E-05
4.267292E+03	5.987104E-03	4.825753E-05
4.268750E+03	6.004785E-03	4.840004E-05
4.270208E+03	6.034097E-03	4.863631E-05
4.271667E+03	6.038679E-03	4.867324E-05
4.273125E+03	6.051932E-03	4.878006E-05
4.274583E+03	6.072165E-03	4.894315E-05
4.276042E+03	6.099594E-03	4.916423E-05
4.277500E+03	6.130623E-03	4.941433E-05
4.278958E+03	6.142835E-03	4.951276E-05
