#wls	flux	fluxerr
1.587302E+03	2.462416E-04	1.507850E-06
1.626984E+03	2.487294E-04	1.523082E-06
1.666667E+03	2.511617E-04	1.537975E-06
1.706349E+03	2.535372E-04	1.552520E-06
1.746032E+03	2.558907E-04	1.566930E-06
1.785714E+03	2.581823E-04	1.580961E-06
1.825397E+03	2.603112E-04	1.593996E-06
1.865079E+03	2.622517E-04	1.605877E-06
1.904762E+03	2.638818E-04	1.615857E-06
1.944444E+03	2.651889E-04	1.623860E-06
1.984127E+03	2.661900E-04	1.629989E-06
2.023810E+03	2.670675E-04	1.635360E-06
2.063492E+03	2.682103E-04	1.642357E-06
2.103175E+03	2.702752E-04	1.655000E-06
2.142857E+03	2.739897E-04	1.677744E-06
2.182540E+03	2.795411E-04	1.711736E-06
2.222222E+03	2.867788E-04	1.756054E-06
2.261905E+03	2.952222E-04	1.807755E-06
2.301587E+03	3.043880E-04	1.863879E-06
2.341270E+03	3.138909E-04	1.922067E-06
2.380952E+03	3.236116E-04	1.981589E-06
2.420635E+03	3.334991E-04	2.042132E-06
2.460317E+03	3.435685E-04	2.103789E-06
2.500000E+03	3.538672E-04	2.166850E-06
2.539683E+03	3.644552E-04	2.231682E-06
2.579365E+03	3.753358E-04	2.298306E-06
2.619048E+03	3.866945E-04	2.367858E-06
2.658730E+03	3.984748E-04	2.439991E-06
2.698413E+03	4.108737E-04	2.515911E-06
2.738095E+03	4.238387E-04	2.595298E-06
2.777778E+03	4.375920E-04	2.679512E-06
2.817460E+03	4.521023E-04	2.768361E-06
2.857143E+03	4.675659E-04	2.863048E-06
2.896825E+03	4.842188E-04	2.965016E-06
2.936508E+03	5.021142E-04	3.074593E-06
2.976190E+03	5.215814E-04	3.193795E-06
2.986111E+03	5.266973E-04	3.225120E-06
2.996032E+03	5.320132E-04	3.257671E-06
3.005952E+03	5.374549E-04	3.290991E-06
3.015873E+03	5.429477E-04	3.324624E-06
3.025794E+03	5.486704E-04	3.359666E-06
3.035714E+03	5.545545E-04	3.395695E-06
3.045635E+03	5.605208E-04	3.432228E-06
3.055556E+03	5.667458E-04	3.470345E-06
3.065476E+03	5.731519E-04	3.509571E-06
3.075397E+03	5.797472E-04	3.549955E-06
3.085317E+03	5.865402E-04	3.591550E-06
3.095238E+03	5.935401E-04	3.634412E-06
3.105159E+03	6.008478E-04	3.679158E-06
3.115079E+03	6.082935E-04	3.724750E-06
3.125000E+03	6.159787E-04	3.771808E-06
3.134921E+03	6.239157E-04	3.820408E-06
3.144841E+03	6.322129E-04	3.871213E-06
3.154762E+03	6.406957E-04	3.923155E-06
3.164683E+03	6.495705E-04	3.977497E-06
3.174603E+03	6.586599E-04	4.033154E-06
3.184524E+03	6.681772E-04	4.091430E-06
3.194444E+03	6.780435E-04	4.151843E-06
3.204365E+03	6.881761E-04	4.213887E-06
3.214286E+03	6.987988E-04	4.278932E-06
3.224206E+03	7.098327E-04	4.346495E-06
3.234127E+03	7.213012E-04	4.416719E-06
3.244048E+03	7.332288E-04	4.489754E-06
3.253968E+03	7.456416E-04	4.565761E-06
3.263889E+03	7.585670E-04	4.644905E-06
3.273810E+03	7.720340E-04	4.727367E-06
3.283730E+03	7.860732E-04	4.813331E-06
3.293651E+03	8.008339E-04	4.903714E-06
3.303571E+03	8.161172E-04	4.997297E-06
3.313492E+03	8.320739E-04	5.095004E-06
3.323413E+03	8.488649E-04	5.197818E-06
3.333333E+03	8.662838E-04	5.304478E-06
3.343254E+03	8.844927E-04	5.415975E-06
3.353175E+03	9.036649E-04	5.533370E-06
3.363095E+03	9.237185E-04	5.656163E-06
3.373016E+03	9.445629E-04	5.783798E-06
3.382937E+03	9.665159E-04	5.918220E-06
3.392857E+03	9.894927E-04	6.058912E-06
3.402778E+03	1.013398E-03	6.205287E-06
3.412698E+03	1.038570E-03	6.359424E-06
3.422619E+03	1.064921E-03	6.520778E-06
3.432540E+03	1.092502E-03	6.689661E-06
3.442460E+03	1.121368E-03	6.866412E-06
3.452381E+03	1.151570E-03	7.051347E-06
3.462302E+03	1.183162E-03	7.244793E-06
3.472222E+03	1.216196E-03	7.447066E-06
3.482143E+03	1.250719E-03	7.658455E-06
3.492063E+03	1.286778E-03	7.879253E-06
3.501984E+03	1.324604E-03	8.110869E-06
3.511905E+03	1.363864E-03	8.351267E-06
3.521825E+03	1.404773E-03	8.601764E-06
3.531746E+03	1.447355E-03	8.862499E-06
3.541667E+03	1.491833E-03	9.134847E-06
3.551587E+03	1.537798E-03	9.416303E-06
3.561508E+03	1.585666E-03	9.709406E-06
3.571429E+03	1.634957E-03	1.001123E-05
3.581349E+03	1.686030E-03	1.032396E-05
3.591270E+03	1.738282E-03	1.064390E-05
3.601190E+03	1.792022E-03	1.097297E-05
3.611111E+03	1.846560E-03	1.130691E-05
3.621032E+03	1.902179E-03	1.164748E-05
3.630952E+03	1.958384E-03	1.199164E-05
3.640873E+03	2.014623E-03	1.233600E-05
3.650794E+03	2.071152E-03	1.268213E-05
3.660714E+03	2.127387E-03	1.302647E-05
3.670635E+03	2.182996E-03	1.336698E-05
3.680556E+03	2.927198E-03	1.792390E-05
3.682540E+03	3.000101E-03	1.837030E-05
3.684524E+03	3.037650E-03	1.860022E-05
3.686508E+03	3.105306E-03	1.901449E-05
3.688492E+03	3.160118E-03	1.935011E-05
3.690476E+03	3.152009E-03	1.930046E-05
3.692460E+03	3.177653E-03	1.945749E-05
3.694444E+03	3.197432E-03	1.957860E-05
3.696429E+03	3.212930E-03	1.967349E-05
3.698413E+03	3.216860E-03	1.969755E-05
3.700397E+03	3.227758E-03	1.976429E-05
3.702381E+03	3.258142E-03	1.995033E-05
3.704365E+03	3.232921E-03	1.979590E-05
3.706349E+03	3.272645E-03	2.003914E-05
3.708333E+03	3.255978E-03	1.993708E-05
3.710317E+03	3.270514E-03	2.002609E-05
3.712302E+03	3.291223E-03	2.015290E-05
3.714286E+03	3.284851E-03	2.011388E-05
3.716270E+03	3.240158E-03	1.984021E-05
3.718254E+03	3.241230E-03	1.984678E-05
3.720238E+03	3.209687E-03	1.965363E-05
3.722222E+03	3.219310E-03	1.971255E-05
3.724206E+03	3.206293E-03	1.963285E-05
3.726190E+03	3.167632E-03	1.939612E-05
3.728175E+03	3.105074E-03	1.901306E-05
3.730159E+03	3.082410E-03	1.887428E-05
3.732143E+03	3.003087E-03	1.838857E-05
3.734127E+03	2.987553E-03	1.829345E-05
3.736111E+03	2.970597E-03	1.818962E-05
3.738095E+03	2.920886E-03	1.788523E-05
3.740079E+03	2.886846E-03	1.767679E-05
3.742063E+03	2.820373E-03	1.726977E-05
3.744048E+03	2.761345E-03	1.690833E-05
3.746032E+03	2.748994E-03	1.683270E-05
3.748016E+03	2.691085E-03	1.647811E-05
3.750000E+03	2.705473E-03	1.656621E-05
3.751984E+03	2.699455E-03	1.652936E-05
3.753968E+03	2.705299E-03	1.656514E-05
3.755952E+03	2.675557E-03	1.638302E-05
3.757937E+03	2.648823E-03	1.621933E-05
3.759921E+03	2.684558E-03	1.643814E-05
3.761905E+03	2.653874E-03	1.625025E-05
3.763889E+03	2.608962E-03	1.597524E-05
3.765873E+03	2.616548E-03	1.602170E-05
3.767857E+03	2.660812E-03	1.629273E-05
3.769841E+03	2.671555E-03	1.635852E-05
3.771825E+03	2.662852E-03	1.630523E-05
3.773810E+03	2.682446E-03	1.642520E-05
3.775794E+03	2.729381E-03	1.671259E-05
3.777778E+03	2.695862E-03	1.650735E-05
3.779762E+03	2.727301E-03	1.669986E-05
3.781746E+03	2.720494E-03	1.665818E-05
3.783730E+03	2.702467E-03	1.654779E-05
3.785714E+03	2.682705E-03	1.642678E-05
3.787698E+03	2.652990E-03	1.624483E-05
3.789683E+03	2.650296E-03	1.622834E-05
3.791667E+03	2.622482E-03	1.605803E-05
3.793651E+03	2.653754E-03	1.624951E-05
3.795635E+03	2.662116E-03	1.630072E-05
3.797619E+03	2.633675E-03	1.612656E-05
3.799603E+03	2.655936E-03	1.626287E-05
3.801587E+03	2.625129E-03	1.607423E-05
3.803571E+03	2.643598E-03	1.618733E-05
3.805556E+03	2.618323E-03	1.603256E-05
3.807540E+03	2.570154E-03	1.573761E-05
3.809524E+03	2.484730E-03	1.521454E-05
3.811508E+03	2.446838E-03	1.498252E-05
3.813492E+03	2.398690E-03	1.468770E-05
3.815476E+03	2.374542E-03	1.453983E-05
3.817460E+03	2.329403E-03	1.426343E-05
3.819444E+03	2.337777E-03	1.431471E-05
3.821429E+03	2.321844E-03	1.421715E-05
3.823413E+03	2.316172E-03	1.418242E-05
3.825397E+03	2.322021E-03	1.421823E-05
3.827381E+03	2.321240E-03	1.421345E-05
3.829365E+03	2.303261E-03	1.410336E-05
3.831349E+03	2.299326E-03	1.407926E-05
3.833333E+03	2.331047E-03	1.427350E-05
3.835317E+03	2.328372E-03	1.425712E-05
3.837302E+03	2.312132E-03	1.415768E-05
3.839286E+03	2.350785E-03	1.439436E-05
3.841270E+03	2.370507E-03	1.451512E-05
3.843254E+03	2.379344E-03	1.456923E-05
3.845238E+03	2.393856E-03	1.465809E-05
3.847222E+03	2.383451E-03	1.459438E-05
3.849206E+03	2.392283E-03	1.464846E-05
3.851190E+03	2.415464E-03	1.479040E-05
3.853175E+03	2.441637E-03	1.495066E-05
3.855159E+03	2.409158E-03	1.475179E-05
3.857143E+03	2.426973E-03	1.486087E-05
3.859127E+03	2.443050E-03	1.495931E-05
3.861111E+03	2.454870E-03	1.503169E-05
3.863095E+03	2.472203E-03	1.513782E-05
3.865079E+03	2.534768E-03	1.552092E-05
3.867063E+03	2.561393E-03	1.568395E-05
3.869048E+03	2.616221E-03	1.601968E-05
3.871032E+03	2.677031E-03	1.639202E-05
3.873016E+03	2.713724E-03	1.661670E-05
3.875000E+03	2.761756E-03	1.691081E-05
3.876984E+03	2.826954E-03	1.731003E-05
3.878968E+03	2.893876E-03	1.771981E-05
3.880952E+03	2.955275E-03	1.809577E-05
3.882937E+03	3.017611E-03	1.847747E-05
3.884921E+03	3.052690E-03	1.869226E-05
3.886905E+03	3.142414E-03	1.924166E-05
3.888889E+03	3.192914E-03	1.955088E-05
3.890873E+03	3.246871E-03	1.988127E-05
3.892857E+03	3.324124E-03	2.035431E-05
3.894841E+03	3.361060E-03	2.058047E-05
3.896825E+03	3.408696E-03	2.087216E-05
3.898810E+03	3.439638E-03	2.106162E-05
3.900794E+03	3.527404E-03	2.159903E-05
3.902778E+03	3.599101E-03	2.203805E-05
3.904762E+03	3.654577E-03	2.237774E-05
3.906746E+03	3.716814E-03	2.275883E-05
3.908730E+03	3.755120E-03	2.299338E-05
3.910714E+03	3.836066E-03	2.348903E-05
3.912698E+03	3.931163E-03	2.407133E-05
3.914683E+03	4.017436E-03	2.459960E-05
3.916667E+03	4.111563E-03	2.517595E-05
3.918651E+03	4.167133E-03	2.551622E-05
3.920635E+03	4.269888E-03	2.614541E-05
3.922619E+03	4.355326E-03	2.666856E-05
3.924603E+03	4.435877E-03	2.716179E-05
3.926587E+03	4.509967E-03	2.761546E-05
3.928571E+03	4.540011E-03	2.779943E-05
3.930556E+03	4.574455E-03	2.801033E-05
3.932540E+03	4.619900E-03	2.828860E-05
3.934524E+03	4.660307E-03	2.853602E-05
3.936508E+03	4.672095E-03	2.860820E-05
3.938492E+03	4.695041E-03	2.874871E-05
3.940476E+03	4.739049E-03	2.901817E-05
3.942460E+03	4.735893E-03	2.899885E-05
3.944444E+03	4.751284E-03	2.909309E-05
3.946429E+03	4.765730E-03	2.918155E-05
3.948413E+03	4.753613E-03	2.910735E-05
3.950397E+03	4.771514E-03	2.921696E-05
3.952381E+03	4.768197E-03	2.919664E-05
3.954365E+03	4.761581E-03	2.915613E-05
3.956349E+03	4.776489E-03	2.924742E-05
3.958333E+03	4.772386E-03	2.922229E-05
3.960317E+03	4.773938E-03	2.923180E-05
3.962302E+03	4.759468E-03	2.914319E-05
3.964286E+03	4.732432E-03	2.897765E-05
3.966270E+03	4.760214E-03	2.914776E-05
3.968254E+03	4.755954E-03	2.912168E-05
3.970238E+03	4.734106E-03	2.898790E-05
3.972222E+03	4.760153E-03	2.914739E-05
3.974206E+03	4.763430E-03	2.916745E-05
3.976190E+03	4.782563E-03	2.928460E-05
3.978175E+03	4.807029E-03	2.943442E-05
3.980159E+03	4.841226E-03	2.964381E-05
3.982143E+03	4.867568E-03	2.980511E-05
3.984127E+03	4.922945E-03	3.014419E-05
3.986111E+03	4.957751E-03	3.035731E-05
3.988095E+03	5.005892E-03	3.065209E-05
3.990079E+03	5.014167E-03	3.070276E-05
3.992063E+03	5.029658E-03	3.079761E-05
3.994048E+03	5.024121E-03	3.076370E-05
3.996032E+03	5.065809E-03	3.101897E-05
3.998016E+03	5.066074E-03	3.102059E-05
4.000000E+03	5.080769E-03	3.111057E-05
4.001984E+03	5.039934E-03	3.086053E-05
4.003968E+03	5.075803E-03	3.108016E-05
4.005952E+03	5.082181E-03	3.111922E-05
4.007937E+03	5.122275E-03	3.136472E-05
4.009921E+03	5.143388E-03	3.149400E-05
4.011905E+03	5.184098E-03	3.174327E-05
4.013889E+03	5.204262E-03	3.186674E-05
4.015873E+03	5.238846E-03	3.207850E-05
4.017857E+03	5.227648E-03	3.200994E-05
4.019841E+03	5.191996E-03	3.179163E-05
4.021825E+03	5.186445E-03	3.175764E-05
4.023810E+03	5.213964E-03	3.192614E-05
4.025794E+03	5.226903E-03	3.200537E-05
4.027778E+03	5.231222E-03	3.203181E-05
4.029762E+03	5.202945E-03	3.185867E-05
4.031746E+03	5.206478E-03	3.188030E-05
4.033730E+03	5.204371E-03	3.186740E-05
4.035714E+03	5.169677E-03	3.165496E-05
4.037698E+03	5.144230E-03	3.149914E-05
4.039683E+03	5.072733E-03	3.106135E-05
4.041667E+03	5.013307E-03	3.069747E-05
4.043651E+03	4.974876E-03	3.046215E-05
4.045635E+03	4.944437E-03	3.027576E-05
4.047619E+03	4.906641E-03	3.004433E-05
4.049603E+03	4.843797E-03	2.965953E-05
4.051587E+03	4.760138E-03	2.914726E-05
4.053571E+03	4.688702E-03	2.870985E-05
4.055556E+03	4.606319E-03	2.820540E-05
4.057540E+03	4.584056E-03	2.806908E-05
4.059524E+03	4.539414E-03	2.779573E-05
4.061508E+03	4.532342E-03	2.775242E-05
4.063492E+03	4.534973E-03	2.776853E-05
4.065476E+03	4.498481E-03	2.754508E-05
4.067460E+03	4.514569E-03	2.764359E-05
4.069444E+03	4.446320E-03	2.722569E-05
4.071429E+03	4.389658E-03	2.687874E-05
4.073413E+03	4.344424E-03	2.660176E-05
4.075397E+03	4.279173E-03	2.620221E-05
4.077381E+03	4.232703E-03	2.591767E-05
4.079365E+03	4.199376E-03	2.571360E-05
4.081349E+03	4.177002E-03	2.557660E-05
4.083333E+03	4.122103E-03	2.524044E-05
4.085317E+03	4.097704E-03	2.509104E-05
4.087302E+03	4.060956E-03	2.486603E-05
4.089286E+03	4.032031E-03	2.468891E-05
4.091270E+03	3.972156E-03	2.432228E-05
4.093254E+03	3.952150E-03	2.419979E-05
4.095238E+03	3.948717E-03	2.417876E-05
4.097222E+03	3.916838E-03	2.398356E-05
4.099206E+03	3.938099E-03	2.411374E-05
4.101190E+03	3.915288E-03	2.397407E-05
4.103175E+03	3.889823E-03	2.381814E-05
4.105159E+03	3.844362E-03	2.353977E-05
4.107143E+03	3.798751E-03	2.326049E-05
4.109127E+03	3.757990E-03	2.301090E-05
4.111111E+03	3.761443E-03	2.303204E-05
4.113095E+03	3.741933E-03	2.291258E-05
4.115079E+03	3.696342E-03	2.263341E-05
4.117063E+03	3.650133E-03	2.235047E-05
4.119048E+03	3.634070E-03	2.225211E-05
4.121032E+03	3.602707E-03	2.206007E-05
4.123016E+03	3.572128E-03	2.187283E-05
4.125000E+03	3.568408E-03	2.185005E-05
4.126984E+03	3.547828E-03	2.172403E-05
4.128968E+03	3.514606E-03	2.152061E-05
4.130952E+03	3.517289E-03	2.153704E-05
4.132937E+03	3.504988E-03	2.146171E-05
4.134921E+03	3.505329E-03	2.146380E-05
4.136905E+03	3.485384E-03	2.134167E-05
4.138889E+03	3.485258E-03	2.134090E-05
4.140873E+03	3.472181E-03	2.126083E-05
4.142857E+03	3.476267E-03	2.128584E-05
4.144841E+03	3.451335E-03	2.113318E-05
4.146825E+03	3.453549E-03	2.114674E-05
4.148810E+03	3.446248E-03	2.110203E-05
4.150794E+03	3.460002E-03	2.118625E-05
4.152778E+03	3.458938E-03	2.117973E-05
4.154762E+03	3.495142E-03	2.140142E-05
4.156746E+03	3.493919E-03	2.139393E-05
4.158730E+03	3.504232E-03	2.145708E-05
4.160714E+03	3.491626E-03	2.137989E-05
4.162698E+03	3.495389E-03	2.140293E-05
4.164683E+03	3.457533E-03	2.117113E-05
4.166667E+03	3.469714E-03	2.124572E-05
4.168651E+03	3.474412E-03	2.127448E-05
4.170635E+03	3.504976E-03	2.146163E-05
4.172619E+03	3.477882E-03	2.129573E-05
4.174603E+03	3.518722E-03	2.154580E-05
4.176587E+03	3.518737E-03	2.154589E-05
4.178571E+03	3.544300E-03	2.170242E-05
4.180556E+03	3.567210E-03	2.184270E-05
4.182540E+03	3.556161E-03	2.177504E-05
4.184524E+03	3.550876E-03	2.174268E-05
4.186508E+03	3.537648E-03	2.166168E-05
4.188492E+03	3.550116E-03	2.173803E-05
4.190476E+03	3.564916E-03	2.182865E-05
4.192460E+03	3.520707E-03	2.155795E-05
4.194444E+03	3.497987E-03	2.141883E-05
4.196429E+03	3.477607E-03	2.129404E-05
4.198413E+03	3.438085E-03	2.105204E-05
4.200397E+03	3.424092E-03	2.096636E-05
4.202381E+03	3.377266E-03	2.067963E-05
4.204365E+03	3.390044E-03	2.075787E-05
4.206349E+03	3.407488E-03	2.086469E-05
4.208333E+03	3.415904E-03	2.091622E-05
4.210317E+03	3.408294E-03	2.086962E-05
4.212302E+03	3.398663E-03	2.081065E-05
4.214286E+03	3.377835E-03	2.068311E-05
4.216270E+03	3.344878E-03	2.048131E-05
4.218254E+03	3.364645E-03	2.060235E-05
4.220238E+03	3.373833E-03	2.065861E-05
4.222222E+03	3.379288E-03	2.069201E-05
4.224206E+03	3.384741E-03	2.072540E-05
4.226190E+03	3.396878E-03	2.079971E-05
4.228175E+03	3.380565E-03	2.069983E-05
4.230159E+03	3.366586E-03	2.061423E-05
4.232143E+03	3.371104E-03	2.064189E-05
4.234127E+03	3.370026E-03	2.063529E-05
4.236111E+03	3.379046E-03	2.069052E-05
4.238095E+03	3.397232E-03	2.080188E-05
4.240079E+03	3.476780E-03	2.128897E-05
4.242063E+03	3.537673E-03	2.166182E-05
4.244048E+03	3.547294E-03	2.172073E-05
4.246032E+03	3.594810E-03	2.201168E-05
4.248016E+03	3.593551E-03	2.200397E-05
4.250000E+03	3.620865E-03	2.217122E-05
4.251984E+03	3.657025E-03	2.239264E-05
4.253968E+03	3.682152E-03	2.254649E-05
4.255952E+03	3.746243E-03	2.293893E-05
4.257937E+03	3.760179E-03	2.302426E-05
4.259921E+03	3.759368E-03	2.301930E-05
4.261905E+03	3.760728E-03	2.302762E-05
4.263889E+03	3.751224E-03	2.296943E-05
4.265873E+03	3.779274E-03	2.314118E-05
4.267857E+03	3.799558E-03	2.326539E-05
4.269841E+03	3.821235E-03	2.339812E-05
4.271825E+03	3.855317E-03	2.360681E-05
4.273810E+03	3.841462E-03	2.352197E-05
4.275794E+03	3.836604E-03	2.349222E-05
4.277778E+03	3.840740E-03	2.351755E-05
4.279762E+03	3.836347E-03	2.349065E-05
4.281746E+03	3.860174E-03	2.363655E-05
4.283730E+03	3.851747E-03	2.358494E-05
4.285714E+03	3.874016E-03	2.372130E-05
4.287698E+03	3.862487E-03	2.365071E-05
4.289683E+03	3.832514E-03	2.346717E-05
4.291667E+03	3.811999E-03	2.334156E-05
4.293651E+03	3.820778E-03	2.339531E-05
4.295635E+03	3.787716E-03	2.319287E-05
4.297619E+03	3.758688E-03	2.301513E-05
4.299603E+03	3.769325E-03	2.308026E-05
4.301587E+03	3.776553E-03	2.312451E-05
4.303571E+03	3.767048E-03	2.306632E-05
4.305556E+03	3.773497E-03	2.310580E-05
4.307540E+03	3.760121E-03	2.302390E-05
4.309524E+03	3.772453E-03	2.309941E-05
4.311508E+03	3.754897E-03	2.299191E-05
4.313492E+03	3.729295E-03	2.283514E-05
4.315476E+03	3.716544E-03	2.275706E-05
4.317460E+03	3.745279E-03	2.293301E-05
4.319444E+03	3.759613E-03	2.302078E-05
4.321429E+03	3.782610E-03	2.316160E-05
4.323413E+03	3.798484E-03	2.325880E-05
4.325397E+03	3.825338E-03	2.342323E-05
4.327381E+03	3.870289E-03	2.369847E-05
4.329365E+03	3.876709E-03	2.373778E-05
4.331349E+03	3.900453E-03	2.388317E-05
4.333333E+03	3.936407E-03	2.410332E-05
4.335317E+03	3.970808E-03	2.431397E-05
4.337302E+03	4.006130E-03	2.453024E-05
4.339286E+03	4.010982E-03	2.455996E-05
4.341270E+03	4.049691E-03	2.479698E-05
4.343254E+03	4.070304E-03	2.492320E-05
4.345238E+03	4.062781E-03	2.487713E-05
4.347222E+03	4.060976E-03	2.486607E-05
4.349206E+03	4.060716E-03	2.486448E-05
4.351190E+03	4.094913E-03	2.507388E-05
4.353175E+03	4.069463E-03	2.491804E-05
4.355159E+03	4.068118E-03	2.490981E-05
4.357143E+03	4.074805E-03	2.495075E-05
4.359127E+03	4.075928E-03	2.495763E-05
4.361111E+03	4.076587E-03	2.496166E-05
4.363095E+03	4.093151E-03	2.506308E-05
4.365079E+03	4.078983E-03	2.497633E-05
4.367063E+03	4.032238E-03	2.469010E-05
4.369048E+03	4.019311E-03	2.461095E-05
4.371032E+03	3.986165E-03	2.440799E-05
4.373016E+03	3.946850E-03	2.416725E-05
4.375000E+03	3.934397E-03	2.409100E-05
4.376984E+03	3.924105E-03	2.402798E-05
4.378968E+03	3.916284E-03	2.398009E-05
4.380952E+03	3.863103E-03	2.365446E-05
4.382937E+03	3.850968E-03	2.358015E-05
4.384921E+03	3.846239E-03	2.355119E-05
4.386905E+03	3.863720E-03	2.365823E-05
4.388889E+03	3.840019E-03	2.351311E-05
4.390873E+03	3.786716E-03	2.318672E-05
4.392857E+03	3.760868E-03	2.302845E-05
4.394841E+03	3.742271E-03	2.291458E-05
4.396825E+03	3.749574E-03	2.295929E-05
4.398810E+03	3.752559E-03	2.297757E-05
4.400794E+03	3.760628E-03	2.302698E-05
4.402778E+03	3.766229E-03	2.306127E-05
4.404762E+03	3.721596E-03	2.278798E-05
4.406746E+03	3.715027E-03	2.274775E-05
4.408730E+03	3.696904E-03	2.263678E-05
4.410714E+03	3.682635E-03	2.254941E-05
4.412698E+03	3.695013E-03	2.262520E-05
4.414683E+03	3.689677E-03	2.259253E-05
4.416667E+03	3.687267E-03	2.257777E-05
4.418651E+03	3.657451E-03	2.239521E-05
4.420635E+03	3.613631E-03	2.212688E-05
4.422619E+03	3.613382E-03	2.212536E-05
4.424603E+03	3.585736E-03	2.195608E-05
4.426587E+03	3.585952E-03	2.195740E-05
4.428571E+03	3.583703E-03	2.194363E-05
4.430556E+03	3.560374E-03	2.180078E-05
4.432540E+03	3.536127E-03	2.165231E-05
4.434524E+03	3.488965E-03	2.136353E-05
4.436508E+03	3.448271E-03	2.111436E-05
4.438492E+03	3.451726E-03	2.113551E-05
4.440476E+03	3.435033E-03	2.103330E-05
4.442460E+03	3.416192E-03	2.091792E-05
4.444444E+03	3.406730E-03	2.085999E-05
4.446429E+03	3.429553E-03	2.099974E-05
4.448413E+03	3.419629E-03	2.093897E-05
4.450397E+03	3.395569E-03	2.079165E-05
4.452381E+03	3.397944E-03	2.080619E-05
4.454365E+03	3.372045E-03	2.064761E-05
4.456349E+03	3.363205E-03	2.059348E-05
4.458333E+03	3.337008E-03	2.043307E-05
4.460317E+03	3.322490E-03	2.034417E-05
4.462302E+03	3.346215E-03	2.048944E-05
4.464286E+03	3.341217E-03	2.045884E-05
4.466270E+03	3.347736E-03	2.049875E-05
4.468254E+03	3.369145E-03	2.062984E-05
4.470238E+03	3.407587E-03	2.086523E-05
4.472222E+03	3.418544E-03	2.093232E-05
4.474206E+03	3.472930E-03	2.126534E-05
4.476190E+03	3.516100E-03	2.152967E-05
4.478175E+03	3.571841E-03	2.187098E-05
4.480159E+03	3.630943E-03	2.223287E-05
4.482143E+03	3.684967E-03	2.256368E-05
4.484127E+03	3.714745E-03	2.274601E-05
