#wls	flux	fluxerr
1.587302E+03	1.181294E-04	7.461148E-06
1.626984E+03	1.190503E-04	7.486846E-06
1.666667E+03	1.199451E-04	7.509688E-06
1.706349E+03	1.208355E-04	7.531024E-06
1.746032E+03	1.216749E-04	7.547936E-06
1.785714E+03	1.224664E-04	7.560642E-06
1.825397E+03	1.231846E-04	7.567601E-06
1.865079E+03	1.238200E-04	7.568270E-06
1.904762E+03	1.242940E-04	7.557937E-06
1.944444E+03	1.246262E-04	7.537925E-06
1.984127E+03	1.248052E-04	7.507666E-06
2.023810E+03	1.248972E-04	7.471262E-06
2.063492E+03	1.251524E-04	7.443679E-06
2.103175E+03	1.258562E-04	7.441611E-06
2.142857E+03	1.273042E-04	7.481946E-06
2.182540E+03	1.296255E-04	7.571401E-06
2.222222E+03	1.327284E-04	7.703654E-06
2.261905E+03	1.363928E-04	7.865080E-06
2.301587E+03	1.403997E-04	8.042432E-06
2.341270E+03	1.446289E-04	8.228391E-06
2.380952E+03	1.489618E-04	8.415922E-06
2.420635E+03	1.534390E-04	8.607097E-06
2.460317E+03	1.580280E-04	8.799837E-06
2.500000E+03	1.628219E-04	8.999078E-06
2.539683E+03	1.678099E-04	9.203886E-06
2.579365E+03	1.731014E-04	9.419878E-06
2.619048E+03	1.787214E-04	9.647925E-06
2.658730E+03	1.847271E-04	9.890575E-06
2.698413E+03	1.911803E-04	1.015050E-05
2.738095E+03	1.981487E-04	1.043059E-05
2.777778E+03	2.057073E-04	1.073394E-05
2.817460E+03	2.139401E-04	1.106399E-05
2.857143E+03	2.229424E-04	1.142458E-05
2.896825E+03	2.328228E-04	1.182003E-05
2.936508E+03	2.437482E-04	1.225739E-05
2.976190E+03	2.557775E-04	1.273796E-05
2.986111E+03	2.589824E-04	1.286591E-05
2.996032E+03	2.622717E-04	1.299718E-05
3.005952E+03	2.656950E-04	1.313419E-05
3.015873E+03	2.691634E-04	1.327251E-05
3.025794E+03	2.727292E-04	1.341469E-05
3.035714E+03	2.763992E-04	1.356103E-05
3.045635E+03	2.801755E-04	1.371160E-05
3.055556E+03	2.840610E-04	1.386649E-05
3.065476E+03	2.880583E-04	1.402578E-05
3.075397E+03	2.921704E-04	1.418959E-05
3.085317E+03	2.964526E-04	1.436054E-05
3.095238E+03	3.008046E-04	1.453372E-05
3.105159E+03	3.052814E-04	1.471176E-05
3.115079E+03	3.098866E-04	1.489477E-05
3.125000E+03	3.146240E-04	1.508290E-05
3.134921E+03	3.194976E-04	1.527628E-05
3.144841E+03	3.245115E-04	1.547506E-05
3.154762E+03	3.297279E-04	1.568214E-05
3.164683E+03	3.350365E-04	1.589221E-05
3.174603E+03	3.404991E-04	1.610816E-05
3.184524E+03	3.461204E-04	1.633014E-05
3.194444E+03	3.519052E-04	1.655834E-05
3.204365E+03	3.578590E-04	1.679292E-05
3.214286E+03	3.640506E-04	1.703707E-05
3.224206E+03	3.703593E-04	1.728504E-05
3.234127E+03	3.768532E-04	1.753997E-05
3.244048E+03	3.835382E-04	1.780206E-05
3.253968E+03	3.904202E-04	1.807149E-05
3.263889E+03	3.975053E-04	1.834850E-05
3.273810E+03	4.048704E-04	1.863652E-05
3.283730E+03	4.123816E-04	1.892932E-05
3.293651E+03	4.201148E-04	1.923031E-05
3.303571E+03	4.280768E-04	1.953971E-05
3.313492E+03	4.362741E-04	1.985774E-05
3.323413E+03	4.447912E-04	2.018813E-05
3.333333E+03	4.534810E-04	2.052411E-05
3.343254E+03	4.624266E-04	2.086937E-05
3.353175E+03	4.716351E-04	2.122412E-05
3.363095E+03	4.811134E-04	2.158859E-05
3.373016E+03	4.909542E-04	2.196681E-05
3.382937E+03	5.009949E-04	2.235139E-05
3.392857E+03	5.113264E-04	2.274630E-05
3.402778E+03	5.219558E-04	2.315174E-05
3.412698E+03	5.328898E-04	2.356792E-05
3.422619E+03	5.442300E-04	2.399918E-05
3.432540E+03	5.557955E-04	2.443742E-05
3.442460E+03	5.676854E-04	2.488691E-05
3.452381E+03	5.799061E-04	2.534782E-05
3.462302E+03	5.925669E-04	2.582476E-05
3.472222E+03	6.054692E-04	2.630896E-05
3.482143E+03	6.187194E-04	2.680495E-05
3.492063E+03	6.323228E-04	2.731281E-05
3.501984E+03	6.462839E-04	2.783263E-05
3.511905E+03	6.607218E-04	2.836938E-05
3.521825E+03	6.754129E-04	2.891331E-05
3.531746E+03	6.904729E-04	2.946929E-05
3.541667E+03	7.059045E-04	3.003729E-05
3.551587E+03	7.218353E-04	3.062260E-05
3.561508E+03	7.380193E-04	3.121463E-05
3.571429E+03	7.545807E-04	3.181854E-05
3.581349E+03	7.715215E-04	3.243428E-05
3.591270E+03	7.888443E-04	3.306184E-05
3.601190E+03	8.066913E-04	3.370701E-05
3.611111E+03	8.247869E-04	3.435815E-05
3.621032E+03	8.432696E-04	3.502093E-05
3.630952E+03	8.621403E-04	3.569526E-05
3.640873E+03	8.815524E-04	3.638734E-05
3.650794E+03	9.012031E-04	3.708453E-05
3.660714E+03	9.212413E-04	3.779287E-05
3.670635E+03	9.416655E-04	3.851217E-05
3.680556E+03	9.626406E-04	3.924902E-05
3.690476E+03	9.838328E-04	3.998966E-05
3.700397E+03	1.005403E-03	4.074051E-05
3.710317E+03	1.027345E-03	4.150123E-05
3.720238E+03	1.049654E-03	4.227146E-05
3.730159E+03	1.072510E-03	4.305825E-05
3.740079E+03	1.095535E-03	4.384639E-05
3.750000E+03	1.118904E-03	4.464273E-05
3.759921E+03	1.142605E-03	4.544667E-05
3.769841E+03	1.166830E-03	4.626569E-05
3.779762E+03	1.191163E-03	4.708322E-05
3.789683E+03	1.215788E-03	4.790640E-05
3.799603E+03	1.240687E-03	4.873447E-05
3.809524E+03	1.265840E-03	4.956656E-05
3.819444E+03	1.291449E-03	5.041043E-05
3.829365E+03	1.317049E-03	5.124780E-05
3.839286E+03	1.342834E-03	5.208623E-05
3.849206E+03	1.368774E-03	5.292453E-05
3.859127E+03	1.395082E-03	5.377078E-05
3.869048E+03	1.421250E-03	5.460539E-05
3.878968E+03	1.447480E-03	5.543611E-05
3.888889E+03	1.473740E-03	5.626170E-05
3.898810E+03	1.499992E-03	5.708072E-05
3.908730E+03	1.526465E-03	5.790185E-05
3.918651E+03	1.552599E-03	5.870383E-05
3.928571E+03	1.578619E-03	5.949523E-05
3.938492E+03	1.604486E-03	6.027473E-05
3.948413E+03	1.630166E-03	6.104099E-05
3.958333E+03	1.655911E-03	6.180357E-05
3.968254E+03	1.681123E-03	6.254012E-05
3.978175E+03	1.706051E-03	6.326012E-05
3.988095E+03	1.730670E-03	6.396273E-05
3.998016E+03	1.754953E-03	6.464709E-05
4.007937E+03	1.779186E-03	6.532378E-05
4.017857E+03	1.802742E-03	6.596986E-05
4.027778E+03	1.825908E-03	6.659608E-05
4.037698E+03	1.848673E-03	6.720217E-05
4.047619E+03	1.871026E-03	6.778789E-05
4.057540E+03	1.893292E-03	6.836507E-05
4.067460E+03	1.914818E-03	6.891028E-05
4.077381E+03	1.935927E-03	6.943533E-05
4.087302E+03	1.956622E-03	6.994056E-05
4.097222E+03	1.976910E-03	7.042625E-05
4.107143E+03	1.996794E-03	7.089275E-05
4.117063E+03	2.016629E-03	7.135274E-05
4.126984E+03	2.035736E-03	7.178223E-05
4.136905E+03	2.054463E-03	7.219381E-05
4.146825E+03	2.072819E-03	7.258787E-05
4.156746E+03	2.090813E-03	7.296484E-05
4.166667E+03	2.108451E-03	7.332509E-05
4.176587E+03	2.125736E-03	7.366889E-05
4.186508E+03	2.143043E-03	7.400925E-05
4.196429E+03	2.159639E-03	7.432099E-05
4.206349E+03	2.175892E-03	7.461694E-05
4.216270E+03	2.191803E-03	7.489728E-05
4.226190E+03	2.207371E-03	7.516210E-05
4.236111E+03	2.222593E-03	7.541147E-05
4.246032E+03	2.237472E-03	7.564554E-05
4.255952E+03	2.252392E-03	7.587742E-05
4.265873E+03	2.266587E-03	7.608139E-05
4.275794E+03	2.280445E-03	7.627069E-05
4.285714E+03	2.293973E-03	7.644568E-05
4.295635E+03	2.307184E-03	7.660687E-05
4.305556E+03	2.320093E-03	7.675496E-05
4.315476E+03	2.332719E-03	7.689065E-05
4.325397E+03	2.345086E-03	7.701480E-05
4.335317E+03	2.357217E-03	7.712834E-05
4.345238E+03	2.369135E-03	7.723206E-05
4.355159E+03	2.381265E-03	7.733988E-05
4.365079E+03	2.392776E-03	7.742481E-05
4.375000E+03	2.404024E-03	7.749858E-05
4.384921E+03	2.414950E-03	7.755940E-05
4.394841E+03	2.425496E-03	7.760555E-05
4.404762E+03	2.435602E-03	7.763524E-05
4.414683E+03	2.445211E-03	7.764681E-05
4.424603E+03	2.454276E-03	7.763888E-05
4.434524E+03	2.462746E-03	7.761002E-05
4.444444E+03	2.470580E-03	7.755914E-05
4.454365E+03	2.477743E-03	7.748532E-05
4.464286E+03	2.484200E-03	7.738768E-05
4.474206E+03	2.489925E-03	7.726564E-05
4.484127E+03	2.494893E-03	7.711867E-05
4.494048E+03	2.499085E-03	7.694641E-05
4.503968E+03	2.502487E-03	7.674870E-05
4.513889E+03	2.505088E-03	7.652542E-05
4.523810E+03	2.506879E-03	7.627663E-05
4.533730E+03	2.507861E-03	7.600254E-05
4.543651E+03	2.508034E-03	7.570346E-05
4.553571E+03	2.507405E-03	7.537988E-05
4.563492E+03	2.505987E-03	7.503245E-05
4.573413E+03	2.503795E-03	7.466188E-05
4.583333E+03	2.500852E-03	7.426908E-05
4.593254E+03	2.497186E-03	7.385516E-05
4.603175E+03	2.492828E-03	7.342131E-05
4.613095E+03	2.487816E-03	7.296882E-05
4.623016E+03	2.482193E-03	7.249922E-05
4.632937E+03	2.476005E-03	7.201404E-05
4.642857E+03	2.469304E-03	7.151497E-05
4.652778E+03	2.462145E-03	7.100377E-05
4.662698E+03	2.454585E-03	7.048227E-05
4.672619E+03	2.446683E-03	6.995230E-05
4.682540E+03	2.438504E-03	6.941579E-05
4.692460E+03	2.429697E-03	6.886290E-05
4.702381E+03	2.421152E-03	6.831901E-05
4.712302E+03	2.412517E-03	6.777409E-05
4.722222E+03	2.403854E-03	6.722996E-05
4.732143E+03	2.395222E-03	6.668824E-05
4.742063E+03	2.386678E-03	6.615048E-05
4.751984E+03	2.378274E-03	6.561813E-05
4.761905E+03	2.370061E-03	6.509251E-05
4.771825E+03	2.362083E-03	6.457479E-05
4.781746E+03	2.353982E-03	6.405510E-05
4.791667E+03	2.346593E-03	6.355616E-05
4.801587E+03	2.339547E-03	6.306774E-05
4.811508E+03	2.332868E-03	6.259038E-05
4.821429E+03	2.326579E-03	6.212454E-05
4.831349E+03	2.320694E-03	6.167048E-05
4.841270E+03	2.314833E-03	6.121800E-05
4.851190E+03	2.309788E-03	6.078794E-05
4.861111E+03	2.305170E-03	6.036983E-05
4.871032E+03	2.300976E-03	5.996346E-05
4.880952E+03	2.297203E-03	5.956858E-05
4.890873E+03	2.293457E-03	5.917489E-05
4.900794E+03	2.290507E-03	5.880215E-05
4.910714E+03	2.287951E-03	5.843983E-05
4.920635E+03	2.285781E-03	5.808754E-05
4.930556E+03	2.283982E-03	5.774482E-05
4.940476E+03	2.282155E-03	5.740151E-05
4.950397E+03	2.281060E-03	5.707667E-05
4.960317E+03	2.280298E-03	5.676009E-05
4.970238E+03	2.279855E-03	5.645137E-05
4.980159E+03	2.279335E-03	5.614060E-05
4.990079E+03	2.279495E-03	5.584648E-05
5.000000E+03	2.279940E-03	5.555909E-05
5.009921E+03	2.280659E-03	5.527808E-05
5.019841E+03	2.281253E-03	5.499383E-05
5.029762E+03	2.282486E-03	5.472471E-05
5.039683E+03	2.283960E-03	5.446104E-05
5.049603E+03	2.285278E-03	5.419333E-05
5.059524E+03	2.287200E-03	5.393963E-05
5.069444E+03	2.289327E-03	5.369043E-05
5.079365E+03	2.291259E-03	5.343633E-05
5.089286E+03	2.293755E-03	5.319508E-05
5.099206E+03	2.296410E-03	5.295720E-05
5.109127E+03	2.298819E-03	5.271337E-05
5.119048E+03	2.301737E-03	5.248098E-05
5.128968E+03	2.304755E-03	5.225063E-05
5.138889E+03	2.307462E-03	5.201307E-05
5.148810E+03	2.310610E-03	5.178537E-05
5.158730E+03	2.313784E-03	5.155818E-05
5.168651E+03	2.316569E-03	5.132234E-05
5.178571E+03	2.319718E-03	5.109472E-05
5.188492E+03	2.322420E-03	5.085747E-05
5.198413E+03	2.325432E-03	5.062733E-05
5.208333E+03	2.328338E-03	5.039524E-05
5.218254E+03	2.330714E-03	5.015226E-05
5.228175E+03	2.333326E-03	4.991502E-05
5.238095E+03	2.335362E-03	4.966627E-05
5.248016E+03	2.337587E-03	4.942252E-05
5.257937E+03	2.339195E-03	4.916682E-05
5.267857E+03	2.340958E-03	4.891564E-05
5.277778E+03	2.342071E-03	4.865229E-05
5.287698E+03	2.343313E-03	4.839323E-05
5.297619E+03	2.344279E-03	4.813017E-05
5.307540E+03	2.344568E-03	4.785514E-05
5.317460E+03	2.344966E-03	4.758445E-05
5.327381E+03	2.344682E-03	4.730220E-05
5.337302E+03	2.344510E-03	4.702464E-05
5.347222E+03	2.343661E-03	4.673613E-05
5.357143E+03	2.342934E-03	4.645285E-05
5.367063E+03	2.341548E-03	4.615947E-05
5.376984E+03	2.340307E-03	4.587205E-05
5.386905E+03	2.338431E-03	4.557547E-05
5.396825E+03	2.336333E-03	4.527806E-05
5.406746E+03	2.334421E-03	4.498783E-05
5.416667E+03	2.331922E-03	4.469003E-05
5.426587E+03	2.329635E-03	4.440015E-05
5.436508E+03	2.326781E-03	4.410349E-05
5.446429E+03	2.324143E-03	4.381508E-05
5.456349E+03	2.320934E-03	4.352016E-05
5.466270E+03	2.317927E-03	4.323343E-05
5.476190E+03	2.314333E-03	4.294005E-05
5.486111E+03	2.310525E-03	4.264700E-05
5.496032E+03	2.306873E-03	4.236100E-05
5.505952E+03	2.302585E-03	4.206741E-05
5.515873E+03	2.298427E-03	4.178022E-05
5.525794E+03	2.293619E-03	4.148513E-05
5.535714E+03	2.288551E-03	4.118923E-05
5.545635E+03	2.283621E-03	4.089957E-05
5.555556E+03	2.278075E-03	4.060259E-05
5.565476E+03	2.272328E-03	4.030566E-05
5.575397E+03	2.266800E-03	4.001613E-05
5.585317E+03	2.260771E-03	3.972115E-05
5.595238E+03	2.254673E-03	3.942832E-05
5.605159E+03	2.248947E-03	3.914517E-05
5.615079E+03	2.242896E-03	3.885946E-05
5.625000E+03	2.236971E-03	3.857893E-05
5.634921E+03	2.231622E-03	3.831113E-05
5.644841E+03	2.226169E-03	3.804425E-05
5.654762E+03	2.221068E-03	3.778594E-05
5.664683E+03	2.216769E-03	3.754366E-05
5.674603E+03	2.212602E-03	3.730581E-05
5.684524E+03	2.209013E-03	3.707982E-05
5.694444E+03	2.206075E-03	3.686663E-05
5.704365E+03	2.204223E-03	3.667332E-05
5.714286E+03	2.202781E-03	3.648833E-05
5.724206E+03	2.202172E-03	3.631851E-05
5.734127E+03	2.202448E-03	3.616448E-05
5.744048E+03	2.204024E-03	3.603274E-05
5.753968E+03	2.206192E-03	3.591149E-05
5.763889E+03	2.209352E-03	3.580702E-05
5.773810E+03	2.213528E-03	3.571946E-05
5.783730E+03	2.219109E-03	3.565483E-05
5.793651E+03	2.225355E-03	3.560097E-05
5.803571E+03	2.232644E-03	3.556375E-05
5.813492E+03	2.240973E-03	3.554288E-05
5.823413E+03	2.250337E-03	3.553806E-05
5.833333E+03	2.261102E-03	3.555485E-05
5.843254E+03	2.272500E-03	3.558093E-05
5.853175E+03	2.284893E-03	3.562184E-05
5.863095E+03	2.298264E-03	3.567714E-05
5.873016E+03	2.312600E-03	3.574644E-05
5.882937E+03	2.327885E-03	3.582937E-05
5.892857E+03	2.344499E-03	3.593158E-05
5.902778E+03	2.361647E-03	3.604074E-05
5.912698E+03	2.379711E-03	3.616260E-05
5.922619E+03	2.398687E-03	3.629700E-05
5.932540E+03	2.418572E-03	3.644380E-05
5.942460E+03	2.439366E-03	3.660292E-05
5.952381E+03	2.461075E-03	3.677435E-05
5.962302E+03	2.484122E-03	3.696435E-05
5.972222E+03	2.507682E-03	3.716057E-05
5.982143E+03	2.532177E-03	3.736926E-05
5.992063E+03	2.557613E-03	3.759048E-05
6.001984E+03	2.583997E-03	3.782433E-05
6.011905E+03	2.611327E-03	3.807080E-05
6.021825E+03	2.639599E-03	3.832983E-05
6.031746E+03	2.668800E-03	3.860130E-05
6.041667E+03	2.698909E-03	3.888494E-05
6.051587E+03	2.729891E-03	3.918036E-05
6.061508E+03	2.761700E-03	3.948701E-05
6.071429E+03	2.794274E-03	3.980412E-05
6.081349E+03	2.827535E-03	4.013076E-05
6.091270E+03	2.861382E-03	4.046573E-05
6.101190E+03	2.896186E-03	4.081448E-05
6.111111E+03	2.930840E-03	4.116168E-05
6.121032E+03	2.965668E-03	4.151224E-05
6.130952E+03	3.000484E-03	4.186394E-05
6.140873E+03	3.035088E-03	4.221440E-05
6.150794E+03	3.069254E-03	4.256094E-05
6.160714E+03	3.102744E-03	4.290074E-05
6.170635E+03	3.135296E-03	4.323073E-05
6.180556E+03	3.166639E-03	4.354777E-05
6.190476E+03	3.196489E-03	4.384853E-05
6.200397E+03	3.224558E-03	4.412973E-05
6.210317E+03	3.250553E-03	4.438801E-05
6.220238E+03	3.273638E-03	4.461262E-05
6.230159E+03	3.294626E-03	4.481535E-05
6.240079E+03	3.312707E-03	4.498581E-05
6.250000E+03	3.327631E-03	4.512126E-05
6.259921E+03	3.339172E-03	4.521926E-05
6.269841E+03	3.347135E-03	4.527774E-05
6.279762E+03	3.351355E-03	4.529503E-05
6.289683E+03	3.351703E-03	4.526983E-05
6.299603E+03	3.348088E-03	4.520133E-05
6.309524E+03	3.340461E-03	4.508921E-05
6.319444E+03	3.328814E-03	4.493357E-05
6.329365E+03	3.313177E-03	4.473502E-05
6.339286E+03	3.293623E-03	4.449456E-05
6.349206E+03	3.270261E-03	4.421367E-05
6.359127E+03	3.243238E-03	4.389419E-05
6.369048E+03	3.212191E-03	4.353073E-05
6.378968E+03	3.178415E-03	4.314002E-05
6.388889E+03	3.141597E-03	4.271687E-05
6.398810E+03	3.101982E-03	4.226368E-05
6.408730E+03	3.059832E-03	4.178306E-05
6.418651E+03	3.015418E-03	4.127769E-05
6.428571E+03	2.969012E-03	4.075032E-05
6.438492E+03	2.920881E-03	4.020364E-05
6.448413E+03	2.870806E-03	3.963369E-05
6.458333E+03	2.820015E-03	3.905645E-05
6.468254E+03	2.768255E-03	3.846761E-05
6.478175E+03	2.715751E-03	3.786945E-05
6.488095E+03	2.662728E-03	3.726432E-05
6.498016E+03	2.609420E-03	3.665480E-05
6.507937E+03	2.555612E-03	3.603716E-05
6.517857E+03	2.502368E-03	3.542577E-05
6.527778E+03	2.449422E-03	3.481640E-05
6.537698E+03	2.396932E-03	3.421080E-05
6.547619E+03	2.345038E-03	3.361055E-05
6.557540E+03	2.293478E-03	3.301153E-05
6.567460E+03	2.243148E-03	3.242629E-05
6.577381E+03	2.193753E-03	3.185037E-05
6.587302E+03	2.145384E-03	3.128490E-05
6.597222E+03	2.098121E-03	3.073090E-05
6.607143E+03	2.051689E-03	3.018421E-05
6.617063E+03	2.006852E-03	2.965598E-05
6.626984E+03	1.963312E-03	2.914183E-05
6.636905E+03	1.921118E-03	2.864253E-05
6.646825E+03	1.879995E-03	2.815399E-05
6.656746E+03	1.840619E-03	2.768639E-05
6.666667E+03	1.802698E-03	2.723548E-05
6.676587E+03	1.766256E-03	2.680177E-05
6.686508E+03	1.731022E-03	2.638129E-05
6.696429E+03	1.697602E-03	2.598342E-05
6.706349E+03	1.665707E-03	2.560395E-05
6.716270E+03	1.635347E-03	2.524325E-05
6.726190E+03	1.606253E-03	2.489737E-05
6.736111E+03	1.578974E-03	2.457501E-05
6.746032E+03	1.553226E-03	2.427203E-05
6.755952E+03	1.529008E-03	2.398864E-05
6.765873E+03	1.506057E-03	2.372091E-05
6.775794E+03	1.484867E-03	2.347689E-05
6.785714E+03	1.465172E-03	2.325260E-05
6.795635E+03	1.446711E-03	2.304413E-05
6.805556E+03	1.429951E-03	2.285914E-05
6.815476E+03	1.414631E-03	2.269369E-05
6.825397E+03	1.400486E-03	2.254375E-05
6.835317E+03	1.387970E-03	2.241680E-05
6.845238E+03	1.376817E-03	2.230879E-05
6.855159E+03	1.366769E-03	2.221569E-05
6.865079E+03	1.358257E-03	2.214471E-05
6.875000E+03	1.351019E-03	2.209174E-05
6.884921E+03	1.344796E-03	2.205268E-05
6.894841E+03	1.340007E-03	2.203455E-05
6.904762E+03	1.336388E-03	2.203316E-05
6.914683E+03	1.333677E-03	2.204430E-05
6.924603E+03	1.332284E-03	2.207483E-05
6.934524E+03	1.331944E-03	2.212046E-05
6.944444E+03	1.332388E-03	2.217681E-05
6.954365E+03	1.334022E-03	2.225067E-05
6.964286E+03	1.336348E-03	2.233381E-05
6.974206E+03	1.339767E-03	2.243298E-05
6.984127E+03	1.344006E-03	2.254359E-05
6.994048E+03	1.348782E-03	2.266096E-05
7.003968E+03	1.354495E-03	2.279177E-05
7.013889E+03	1.360860E-03	2.293124E-05
7.023810E+03	1.367588E-03	2.307446E-05
7.033730E+03	1.375075E-03	2.322809E-05
7.043651E+03	1.382793E-03	2.338317E-05
7.053571E+03	1.391140E-03	2.354640E-05
7.063492E+03	1.399579E-03	2.370861E-05
7.073413E+03	1.408506E-03	2.387646E-05
7.083333E+03	1.417611E-03	2.404462E-05
7.093254E+03	1.426577E-03	2.420766E-05
7.103175E+03	1.435803E-03	2.437230E-05
7.113095E+03	1.444725E-03	2.452886E-05
7.123016E+03	1.453746E-03	2.468415E-05
7.132937E+03	1.462294E-03	2.482836E-05
7.142857E+03	1.470774E-03	2.496834E-05
7.152778E+03	1.478859E-03	2.509846E-05
7.162698E+03	1.486214E-03	2.521299E-05
7.172619E+03	1.493260E-03	2.531905E-05
7.182540E+03	1.499413E-03	2.540672E-05
7.192460E+03	1.505108E-03	2.548333E-05
7.202381E+03	1.509766E-03	2.553910E-05
7.212302E+03	1.513833E-03	2.558160E-05
7.222222E+03	1.516744E-03	2.560129E-05
7.232143E+03	1.518962E-03	2.560606E-05
7.242063E+03	1.519940E-03	2.558674E-05
7.251984E+03	1.520159E-03	2.555151E-05
7.261905E+03	1.519093E-03	2.549165E-05
7.271825E+03	1.517250E-03	2.541578E-05
7.281746E+03	1.514124E-03	2.531555E-05
7.291667E+03	1.510248E-03	2.520004E-05
7.301587E+03	1.505144E-03	2.506141E-05
7.311508E+03	1.499364E-03	2.490905E-05
7.321429E+03	1.492461E-03	2.473567E-05
7.331349E+03	1.485007E-03	2.455095E-05
7.341270E+03	1.476576E-03	2.434804E-05
7.351190E+03	1.467755E-03	2.413680E-05
7.361111E+03	1.458141E-03	2.391076E-05
7.371032E+03	1.448087E-03	2.367593E-05
7.380952E+03	1.437940E-03	2.343813E-05
7.390873E+03	1.427324E-03	2.319137E-05
7.400794E+03	1.416833E-03	2.294546E-05
7.410714E+03	1.406099E-03	2.269457E-05
7.420635E+03	1.395712E-03	2.244834E-05
7.430556E+03	1.385306E-03	2.220098E-05
7.440476E+03	1.375460E-03	2.196184E-05
7.450397E+03	1.365807E-03	2.172511E-05
7.460317E+03	1.356677E-03	2.149612E-05
7.470238E+03	1.348392E-03	2.127995E-05
7.480159E+03	1.340576E-03	2.107070E-05
7.490079E+03	1.333762E-03	2.087669E-05
7.500000E+03	1.327567E-03	2.069192E-05
7.509921E+03	1.322278E-03	2.052082E-05
7.519841E+03	1.318172E-03	2.036765E-05
7.529762E+03	1.314847E-03	2.022606E-05
7.539683E+03	1.312786E-03	2.010343E-05
7.549603E+03	1.311572E-03	1.999328E-05
7.559524E+03	1.311446E-03	1.989923E-05
7.569444E+03	1.312643E-03	1.982472E-05
7.579365E+03	1.314722E-03	1.976298E-05
7.589286E+03	1.317898E-03	1.971720E-05
7.599206E+03	1.322380E-03	1.969042E-05
7.609127E+03	1.327702E-03	1.967560E-05
7.619048E+03	1.334282E-03	1.967891E-05
7.628968E+03	1.341630E-03	1.969307E-05
7.638889E+03	1.349924E-03	1.972071E-05
7.648810E+03	1.359341E-03	1.976443E-05
7.658730E+03	1.369358E-03	1.981664E-05
7.668651E+03	1.380137E-03	1.987978E-05
7.678571E+03	1.391836E-03	1.995622E-05
7.688492E+03	1.403901E-03	2.003814E-05
7.698413E+03	1.416473E-03	2.012777E-05
