#wls	flux	fluxerr
1.596313E+03	2.991683E-02	3.901772E-04
1.636220E+03	3.172964E-02	4.124451E-04
1.676128E+03	3.360915E-02	4.353853E-04
1.716036E+03	3.554872E-02	4.588969E-04
1.755944E+03	3.753919E-02	4.828468E-04
1.795852E+03	3.956887E-02	5.070713E-04
1.835759E+03	4.162302E-02	5.313693E-04
1.875667E+03	4.368303E-02	5.554928E-04
1.915575E+03	4.572618E-02	5.791457E-04
1.955483E+03	4.772463E-02	6.019715E-04
1.995391E+03	4.964416E-02	6.235397E-04
2.035298E+03	5.144358E-02	6.433403E-04
2.075206E+03	5.307417E-02	6.607789E-04
2.115114E+03	5.448126E-02	6.751994E-04
2.155022E+03	5.559639E-02	6.857897E-04
2.194930E+03	5.633677E-02	6.915793E-04
2.234838E+03	5.661557E-02	6.915706E-04
2.274745E+03	5.639366E-02	6.853703E-04
2.314653E+03	5.572549E-02	6.737297E-04
2.354561E+03	5.471235E-02	6.579533E-04
2.394469E+03	5.345711E-02	6.393418E-04
2.434377E+03	5.205353E-02	6.190620E-04
2.474284E+03	5.058286E-02	5.981099E-04
2.514192E+03	4.911271E-02	5.772993E-04
2.554100E+03	4.769308E-02	5.572199E-04
2.594008E+03	4.635148E-02	5.381859E-04
2.633916E+03	4.509005E-02	5.202101E-04
2.673823E+03	4.389761E-02	5.031517E-04
2.713731E+03	4.276152E-02	4.868559E-04
2.753639E+03	4.167025E-02	4.711842E-04
2.793547E+03	4.061416E-02	4.560223E-04
2.833455E+03	3.958504E-02	4.412748E-04
2.873363E+03	3.857588E-02	4.268621E-04
2.913270E+03	3.758119E-02	4.127233E-04
2.953178E+03	3.659648E-02	3.988104E-04
2.993086E+03	3.561913E-02	3.850968E-04
3.003063E+03	3.537575E-02	3.816977E-04
3.013040E+03	3.513264E-02	3.783093E-04
3.023017E+03	3.488993E-02	3.749330E-04
3.032994E+03	3.464758E-02	3.715683E-04
3.042971E+03	3.440549E-02	3.682143E-04
3.052948E+03	3.416370E-02	3.648715E-04
3.062925E+03	3.392235E-02	3.615413E-04
3.072902E+03	3.368149E-02	3.582245E-04
3.082879E+03	3.344131E-02	3.549228E-04
3.092856E+03	3.320216E-02	3.516402E-04
3.102832E+03	3.296445E-02	3.483810E-04
3.112809E+03	3.272872E-02	3.451509E-04
3.122786E+03	3.249565E-02	3.419568E-04
3.132763E+03	3.226584E-02	3.388051E-04
3.142740E+03	3.203984E-02	3.357013E-04
3.152717E+03	3.181801E-02	3.326490E-04
3.162694E+03	3.160020E-02	3.296464E-04
3.172671E+03	3.138607E-02	3.266898E-04
3.182648E+03	3.117494E-02	3.237719E-04
3.192625E+03	3.096595E-02	3.208836E-04
3.202602E+03	3.075801E-02	3.180136E-04
3.212579E+03	3.055062E-02	3.151568E-04
3.222556E+03	3.034329E-02	3.123080E-04
3.232533E+03	3.013669E-02	3.094743E-04
3.242510E+03	2.993190E-02	3.066668E-04
3.252487E+03	2.973109E-02	3.039074E-04
3.262464E+03	2.953687E-02	3.012227E-04
3.272441E+03	2.935240E-02	2.986444E-04
3.282418E+03	2.918067E-02	2.962022E-04
3.292395E+03	2.902435E-02	2.939222E-04
3.302372E+03	2.888528E-02	2.918221E-04
3.312348E+03	2.876447E-02	2.899107E-04
3.322325E+03	2.866155E-02	2.881833E-04
3.332302E+03	2.857507E-02	2.866237E-04
3.342279E+03	2.850250E-02	2.852059E-04
3.352256E+03	2.844066E-02	2.838967E-04
3.362233E+03	2.838556E-02	2.826560E-04
3.372210E+03	2.833335E-02	2.814450E-04
3.382187E+03	2.828013E-02	2.802247E-04
3.392164E+03	2.822332E-02	2.789700E-04
3.402141E+03	2.816255E-02	2.776773E-04
3.412118E+03	2.809804E-02	2.763492E-04
3.422095E+03	2.803059E-02	2.749939E-04
3.432072E+03	2.796130E-02	2.736223E-04
3.442049E+03	2.789114E-02	2.722441E-04
3.452026E+03	2.781954E-02	2.708541E-04
3.462003E+03	2.774478E-02	2.694353E-04
3.471980E+03	2.766382E-02	2.679588E-04
3.481957E+03	2.757257E-02	2.663857E-04
3.491934E+03	2.746584E-02	2.646665E-04
3.501911E+03	2.733738E-02	2.627425E-04
3.511888E+03	2.718150E-02	2.605609E-04
3.521864E+03	2.699398E-02	2.580834E-04
3.531841E+03	2.677168E-02	2.552825E-04
3.541818E+03	2.651443E-02	2.521594E-04
3.551795E+03	2.622749E-02	2.487665E-04
3.561772E+03	2.591858E-02	2.451793E-04
3.571749E+03	2.559722E-02	2.414893E-04
3.581726E+03	2.527565E-02	2.378128E-04
3.591703E+03	2.496365E-02	2.342415E-04
3.601680E+03	2.466587E-02	2.308183E-04
3.611657E+03	2.438546E-02	2.275716E-04
3.621634E+03	2.412395E-02	2.245144E-04
3.631611E+03	2.388234E-02	2.216545E-04
3.641588E+03	2.366310E-02	2.190134E-04
3.651565E+03	2.346824E-02	2.166079E-04
3.661542E+03	2.329762E-02	2.144350E-04
3.671519E+03	2.314870E-02	2.124694E-04
3.681496E+03	2.301570E-02	2.106566E-04
3.691473E+03	2.289023E-02	2.089191E-04
3.701450E+03	2.276203E-02	2.071627E-04
3.711427E+03	2.262032E-02	2.052899E-04
3.721404E+03	2.245616E-02	2.032210E-04
3.731381E+03	2.226509E-02	2.009175E-04
3.741357E+03	2.204599E-02	1.983712E-04
3.751334E+03	2.180204E-02	1.956132E-04
3.761311E+03	2.154110E-02	1.927157E-04
3.771288E+03	2.127287E-02	1.897664E-04
3.781265E+03	2.100593E-02	1.868425E-04
3.791242E+03	2.074694E-02	1.840028E-04
3.801219E+03	2.049922E-02	1.812762E-04
3.811196E+03	2.026230E-02	1.786577E-04
3.821173E+03	2.003339E-02	1.761219E-04
3.831150E+03	1.980794E-02	1.736286E-04
3.841127E+03	1.958233E-02	1.711456E-04
3.851104E+03	1.935577E-02	1.686662E-04
3.861081E+03	1.913032E-02	1.662084E-04
3.871058E+03	1.891031E-02	1.638097E-04
3.881035E+03	1.870306E-02	1.615329E-04
3.891012E+03	1.851629E-02	1.594435E-04
3.900989E+03	1.835586E-02	1.575904E-04
3.910966E+03	1.822416E-02	1.559918E-04
3.920943E+03	1.812040E-02	1.546391E-04
3.930920E+03	1.803963E-02	1.534877E-04
3.940897E+03	1.797122E-02	1.524460E-04
3.950873E+03	1.790129E-02	1.513956E-04
3.960850E+03	1.781576E-02	1.502180E-04
3.970827E+03	1.770231E-02	1.488108E-04
3.980804E+03	1.754945E-02	1.470798E-04
3.990781E+03	1.734979E-02	1.449664E-04
4.000758E+03	1.710427E-02	1.424820E-04
4.010735E+03	1.681814E-02	1.396736E-04
4.020712E+03	1.650132E-02	1.366266E-04
4.030689E+03	1.617280E-02	1.334999E-04
4.040666E+03	1.585440E-02	1.304740E-04
4.050643E+03	1.556514E-02	1.277041E-04
4.060620E+03	1.532045E-02	1.253144E-04
4.070597E+03	1.513298E-02	1.234045E-04
4.080574E+03	1.500950E-02	1.220254E-04
4.090551E+03	1.494756E-02	1.211522E-04
4.100528E+03	1.494038E-02	1.207259E-04
4.110505E+03	1.497847E-02	1.206658E-04
4.120482E+03	1.504735E-02	1.208525E-04
4.130459E+03	1.513054E-02	1.211517E-04
4.140436E+03	1.521225E-02	1.214365E-04
4.150413E+03	1.527827E-02	1.215939E-04
4.160390E+03	1.531616E-02	1.215266E-04
4.170366E+03	1.531739E-02	1.211689E-04
4.180343E+03	1.527940E-02	1.205036E-04
4.190320E+03	1.520272E-02	1.195374E-04
4.200297E+03	1.508917E-02	1.182877E-04
4.210274E+03	1.494187E-02	1.167813E-04
4.220251E+03	1.476384E-02	1.150443E-04
4.230228E+03	1.456005E-02	1.131172E-04
4.240205E+03	1.433987E-02	1.110745E-04
4.250182E+03	1.411371E-02	1.089976E-04
4.260159E+03	1.388974E-02	1.069500E-04
4.270136E+03	1.367437E-02	1.049805E-04
4.280113E+03	1.347287E-02	1.031288E-04
4.290090E+03	1.328829E-02	1.014174E-04
4.300067E+03	1.312103E-02	9.984812E-05
4.310044E+03	1.297153E-02	9.842293E-05
4.320021E+03	1.283981E-02	9.714071E-05
4.329998E+03	1.272336E-02	9.598146E-05
4.339975E+03	1.261972E-02	9.492535E-05
4.349952E+03	1.252663E-02	9.395467E-05
4.359929E+03	1.243960E-02	9.303508E-05
4.369906E+03	1.235746E-02	9.215740E-05
4.379882E+03	1.228777E-02	9.137745E-05
4.389859E+03	1.222490E-02	9.065263E-05
4.399836E+03	1.214978E-02	8.984151E-05
4.409813E+03	1.205481E-02	8.888865E-05
4.419790E+03	1.194594E-02	8.783913E-05
4.429767E+03	1.183697E-02	8.679476E-05
4.439744E+03	1.174369E-02	8.587111E-05
4.449721E+03	1.168078E-02	8.517413E-05
4.459698E+03	1.166182E-02	8.480067E-05
4.469675E+03	1.169534E-02	8.480998E-05
4.479652E+03	1.177853E-02	8.517843E-05
4.489629E+03	1.190241E-02	8.583841E-05
4.499606E+03	1.205467E-02	8.669895E-05
4.509583E+03	1.221792E-02	8.763369E-05
4.519560E+03	1.237172E-02	8.849576E-05
4.529537E+03	1.249803E-02	8.915711E-05
4.539514E+03	1.258465E-02	8.953261E-05
4.549491E+03	1.262304E-02	8.956380E-05
4.559468E+03	1.260928E-02	8.922589E-05
4.569445E+03	1.254670E-02	8.854526E-05
4.579422E+03	1.244205E-02	8.757220E-05
4.589398E+03	1.230309E-02	8.636347E-05
4.599375E+03	1.213840E-02	8.498102E-05
4.609352E+03	1.195629E-02	8.348433E-05
4.619329E+03	1.176385E-02	8.192355E-05
4.629306E+03	1.156752E-02	8.034401E-05
4.639283E+03	1.137257E-02	7.878236E-05
4.649260E+03	1.118293E-02	7.726556E-05
4.659237E+03	1.100031E-02	7.580509E-05
4.669214E+03	1.082609E-02	7.440997E-05
4.679191E+03	1.066117E-02	7.308587E-05
4.689168E+03	1.050542E-02	7.183137E-05
4.699145E+03	1.035847E-02	7.064343E-05
4.709122E+03	1.022052E-02	6.952283E-05
4.719099E+03	1.009178E-02	6.847048E-05
4.729076E+03	9.972028E-03	6.748447E-05
4.739053E+03	9.860210E-03	6.655707E-05
4.749030E+03	9.755899E-03	6.568501E-05
4.759007E+03	9.657799E-03	6.485916E-05
4.768984E+03	9.563840E-03	6.406531E-05
4.778961E+03	9.472376E-03	6.329223E-05
4.788938E+03	9.382237E-03	6.253198E-05
4.798915E+03	9.292152E-03	6.177601E-05
4.808891E+03	9.201380E-03	6.101939E-05
4.818868E+03	9.110337E-03	6.026490E-05
4.828845E+03	9.020531E-03	5.952247E-05
4.838822E+03	8.933364E-03	5.880125E-05
4.848799E+03	8.851016E-03	5.811541E-05
4.858776E+03	8.776276E-03	5.748297E-05
4.868753E+03	8.710599E-03	5.691306E-05
4.878730E+03	8.655213E-03	5.641323E-05
4.888707E+03	8.610561E-03	5.598587E-05
4.898684E+03	8.575496E-03	5.562304E-05
4.908661E+03	8.548184E-03	5.531241E-05
4.918638E+03	8.526914E-03	5.504257E-05
4.928615E+03	8.509355E-03	5.479826E-05
4.938592E+03	8.493372E-03	5.456559E-05
4.948569E+03	8.477223E-03	5.433333E-05
4.958546E+03	8.459887E-03	5.409499E-05
4.968523E+03	8.440484E-03	5.384501E-05
4.978500E+03	8.418553E-03	5.358056E-05
4.988477E+03	8.394127E-03	5.330199E-05
4.998454E+03	8.367411E-03	5.301070E-05
5.008431E+03	8.338640E-03	5.270831E-05
5.018407E+03	8.307866E-03	5.239523E-05
5.028384E+03	8.275178E-03	5.207212E-05
5.038361E+03	8.240302E-03	5.173737E-05
5.048338E+03	8.202699E-03	5.138769E-05
5.058315E+03	8.161695E-03	5.101900E-05
5.068292E+03	8.116914E-03	5.062909E-05
5.078269E+03	8.068293E-03	5.021775E-05
5.088246E+03	8.016051E-03	4.978648E-05
5.098223E+03	7.960848E-03	4.933954E-05
5.108200E+03	7.904329E-03	4.888720E-05
5.118177E+03	7.848609E-03	4.844258E-05
5.128154E+03	7.796644E-03	4.802386E-05
5.138131E+03	7.752070E-03	4.765326E-05
5.148108E+03	7.719215E-03	4.735706E-05
5.158085E+03	7.702074E-03	4.715930E-05
5.168062E+03	7.703046E-03	4.707410E-05
5.178039E+03	7.723961E-03	4.711202E-05
5.188016E+03	7.764953E-03	4.727322E-05
5.197993E+03	7.823081E-03	4.753921E-05
5.207970E+03	7.893604E-03	4.788072E-05
5.217947E+03	7.970870E-03	4.826320E-05
5.227923E+03	8.047483E-03	4.864181E-05
5.237900E+03	8.115496E-03	4.896872E-05
5.247877E+03	8.168283E-03	4.920436E-05
5.257854E+03	8.201364E-03	4.932234E-05
5.267831E+03	8.212440E-03	4.930949E-05
5.277808E+03	8.200622E-03	4.916118E-05
5.287785E+03	8.168294E-03	4.889237E-05
5.297762E+03	8.119215E-03	4.852610E-05
5.307739E+03	8.057254E-03	4.808590E-05
5.317716E+03	7.986745E-03	4.759796E-05
5.327693E+03	7.911191E-03	4.708331E-05
5.337670E+03	7.833397E-03	4.655873E-05
5.347647E+03	7.754227E-03	4.602938E-05
5.357624E+03	7.673834E-03	4.549617E-05
5.367601E+03	7.593036E-03	4.496395E-05
5.377578E+03	7.514304E-03	4.444731E-05
5.387555E+03	7.440406E-03	4.396254E-05
5.397532E+03	7.373034E-03	4.351950E-05
5.407509E+03	7.311532E-03	4.311419E-05
5.417486E+03	7.254045E-03	4.273555E-05
5.427463E+03	7.197873E-03	4.236762E-05
5.437440E+03	7.140660E-03	4.199649E-05
5.447416E+03	7.080317E-03	4.160989E-05
5.457393E+03	7.017873E-03	4.121383E-05
5.467370E+03	6.960033E-03	4.084760E-05
5.477347E+03	6.920049E-03	4.058878E-05
5.487324E+03	6.906813E-03	4.048923E-05
5.497301E+03	6.903518E-03	4.045018E-05
5.507278E+03	6.896573E-03	4.039191E-05
5.517255E+03	6.879318E-03	4.027541E-05
5.527232E+03	6.850793E-03	4.009507E-05
5.537209E+03	6.813289E-03	3.986432E-05
5.547186E+03	6.770129E-03	3.960257E-05
5.557163E+03	6.725000E-03	3.933133E-05
5.567140E+03	6.681860E-03	3.907369E-05
5.577117E+03	6.645781E-03	3.885922E-05
5.587094E+03	6.623141E-03	3.872515E-05
5.597071E+03	6.621379E-03	3.871492E-05
5.607048E+03	6.646349E-03	3.886270E-05
5.617025E+03	6.701018E-03	3.918588E-05
5.627002E+03	6.786609E-03	3.969166E-05
5.636979E+03	6.902289E-03	4.037527E-05
5.646956E+03	7.043224E-03	4.120857E-05
5.656932E+03	7.201810E-03	4.214721E-05
5.666909E+03	7.370034E-03	4.314447E-05
5.676886E+03	7.539022E-03	4.414850E-05
5.686863E+03	7.699532E-03	4.510525E-05
5.696840E+03	7.844005E-03	4.597044E-05
5.706817E+03	7.968576E-03	4.672134E-05
5.716794E+03	8.071268E-03	4.734626E-05
5.726771E+03	8.150504E-03	4.783579E-05
5.736748E+03	8.205924E-03	4.818761E-05
5.746725E+03	8.236355E-03	4.839461E-05
5.756702E+03	8.239849E-03	4.844504E-05
5.766679E+03	8.214228E-03	4.832580E-05
5.776656E+03	8.157024E-03	4.802197E-05
5.786633E+03	8.066716E-03	4.752414E-05
5.796610E+03	7.944936E-03	4.684144E-05
5.806587E+03	7.795519E-03	4.599600E-05
5.816564E+03	7.624222E-03	4.502134E-05
5.826541E+03	7.439206E-03	4.396525E-05
5.836518E+03	7.250041E-03	4.288402E-05
5.846495E+03	7.065476E-03	4.182928E-05
5.856472E+03	6.892410E-03	4.084187E-05
5.866449E+03	6.736123E-03	3.995318E-05
5.876425E+03	6.598674E-03	3.917563E-05
5.886402E+03	6.476574E-03	3.848873E-05
5.896379E+03	6.364836E-03	3.786300E-05
5.906356E+03	6.260374E-03	3.728020E-05
5.916333E+03	6.163445E-03	3.674191E-05
5.926310E+03	6.076376E-03	3.626214E-05
5.936287E+03	6.001186E-03	3.585307E-05
5.946264E+03	5.938456E-03	3.551838E-05
5.956241E+03	5.888057E-03	3.525750E-05
5.966218E+03	5.849846E-03	3.506980E-05
5.976195E+03	5.823472E-03	3.495341E-05
5.986172E+03	5.808911E-03	3.490841E-05
5.996149E+03	5.806035E-03	3.493429E-05
6.006126E+03	5.814033E-03	3.502642E-05
6.016103E+03	5.831611E-03	3.517722E-05
6.026080E+03	5.855915E-03	3.536968E-05
6.036057E+03	5.880494E-03	3.556496E-05
6.046034E+03	5.898298E-03	3.572035E-05
6.056011E+03	5.905033E-03	3.580967E-05
6.065988E+03	5.901587E-03	3.583804E-05
6.075965E+03	5.891973E-03	3.582960E-05
6.085941E+03	5.879336E-03	3.580332E-05
6.095918E+03	5.863979E-03	3.576099E-05
6.105895E+03	5.844467E-03	3.569375E-05
6.115872E+03	5.819966E-03	3.559640E-05
6.125849E+03	5.790551E-03	3.546923E-05
6.135826E+03	5.757218E-03	3.531823E-05
6.145803E+03	5.721232E-03	3.515103E-05
6.155780E+03	5.683908E-03	3.497564E-05
6.165757E+03	5.646637E-03	3.480059E-05
6.175734E+03	5.610498E-03	3.463253E-05
6.185711E+03	5.575691E-03	3.447271E-05
6.195688E+03	5.542357E-03	3.432203E-05
6.205665E+03	5.511129E-03	3.418447E-05
6.215642E+03	5.482964E-03	3.406601E-05
6.225619E+03	5.459502E-03	3.397696E-05
6.235596E+03	5.442288E-03	3.392708E-05
6.245573E+03	5.432186E-03	3.392197E-05
6.255550E+03	5.429764E-03	3.396540E-05
6.265527E+03	5.434568E-03	3.405480E-05
6.275504E+03	5.444351E-03	3.417628E-05
6.285481E+03	5.455611E-03	3.430801E-05
6.295457E+03	5.464839E-03	3.442794E-05
6.305434E+03	5.468194E-03	3.451178E-05
6.315411E+03	5.462487E-03	3.453915E-05
6.325388E+03	5.446705E-03	3.450334E-05
6.335365E+03	5.422992E-03	3.441760E-05
6.345342E+03	5.395502E-03	3.430803E-05
6.355319E+03	5.368804E-03	3.420359E-05
6.365296E+03	5.347662E-03	3.413466E-05
6.375273E+03	5.335578E-03	3.412383E-05
6.385250E+03	5.334831E-03	3.418598E-05
6.395227E+03	5.345158E-03	3.431985E-05
6.405204E+03	5.364427E-03	3.451211E-05
6.415181E+03	5.389028E-03	3.473981E-05
6.425158E+03	5.413122E-03	3.496543E-05
6.435135E+03	5.430455E-03	3.514844E-05
6.445112E+03	5.435929E-03	3.525551E-05
6.455089E+03	5.425600E-03	3.526050E-05
6.465066E+03	5.398172E-03	3.515432E-05
6.475043E+03	5.354958E-03	3.494483E-05
6.485020E+03	5.299428E-03	3.465404E-05
6.494997E+03	5.236122E-03	3.431118E-05
6.504974E+03	5.167855E-03	3.393437E-05
6.514950E+03	5.095398E-03	3.352844E-05
6.524927E+03	5.020460E-03	3.310446E-05
6.534904E+03	4.946022E-03	3.268200E-05
6.544881E+03	4.874599E-03	3.227770E-05
6.554858E+03	4.806913E-03	3.189643E-05
6.564835E+03	4.743286E-03	3.154048E-05
6.574812E+03	4.683328E-03	3.120738E-05
6.584789E+03	4.627406E-03	3.089971E-05
6.594766E+03	4.575943E-03	3.062047E-05
6.604743E+03	4.528519E-03	3.036699E-05
6.614720E+03	4.484994E-03	3.013849E-05
6.624697E+03	4.445554E-03	2.993636E-05
6.634674E+03	4.410470E-03	2.976260E-05
6.644651E+03	4.379922E-03	2.961859E-05
6.654628E+03	4.354266E-03	2.950691E-05
6.664605E+03	4.333287E-03	2.942630E-05
6.674582E+03	4.316631E-03	2.937454E-05
6.684559E+03	4.304089E-03	2.935039E-05
6.694536E+03	4.295032E-03	2.934968E-05
6.704513E+03	4.288896E-03	2.936872E-05
6.714490E+03	4.285166E-03	2.940407E-05
6.724466E+03	4.283155E-03	2.945110E-05
6.734443E+03	4.282132E-03	2.950484E-05
6.744420E+03	4.281002E-03	2.955775E-05
6.754397E+03	4.278273E-03	2.959951E-05
6.764374E+03	4.272256E-03	2.961832E-05
6.774351E+03	4.261549E-03	2.960430E-05
6.784328E+03	4.244985E-03	2.954912E-05
6.794305E+03	4.221905E-03	2.944791E-05
6.804282E+03	4.192676E-03	2.930298E-05
6.814259E+03	4.158359E-03	2.912147E-05
6.824236E+03	4.120962E-03	2.891727E-05
6.834213E+03	4.082439E-03	2.870398E-05
6.844190E+03	4.045090E-03	2.849775E-05
6.854167E+03	4.010833E-03	2.831216E-05
6.864144E+03	3.981241E-03	2.815848E-05
6.874121E+03	3.957176E-03	2.804299E-05
6.884098E+03	3.938581E-03	2.796552E-05
6.894075E+03	3.925078E-03	2.792362E-05
6.904052E+03	3.915267E-03	2.790748E-05
6.914029E+03	3.907644E-03	2.790655E-05
6.924006E+03	3.900332E-03	2.790745E-05
6.933983E+03	3.891846E-03	2.789957E-05
6.943959E+03	3.881000E-03	2.787433E-05
6.953936E+03	3.866999E-03	2.782592E-05
6.963913E+03	3.849240E-03	2.774985E-05
6.973890E+03	3.827650E-03	2.764545E-05
6.983867E+03	3.802102E-03	2.751164E-05
6.993844E+03	3.772637E-03	2.734858E-05
7.003821E+03	3.739242E-03	2.715600E-05
7.013798E+03	3.702069E-03	2.693486E-05
7.023775E+03	3.661492E-03	2.668774E-05
7.033752E+03	3.618174E-03	2.641936E-05
7.043729E+03	3.573032E-03	2.613632E-05
7.053706E+03	3.527061E-03	2.584584E-05
7.063683E+03	3.481465E-03	2.555674E-05
7.073660E+03	3.437104E-03	2.527537E-05
7.083637E+03	3.394823E-03	2.500801E-05
7.093614E+03	3.355269E-03	2.475950E-05
7.103591E+03	3.318593E-03	2.453110E-05
7.113568E+03	3.284884E-03	2.432355E-05
7.123545E+03	3.253766E-03	2.413421E-05
7.133522E+03	3.225083E-03	2.396201E-05
7.143499E+03	3.198605E-03	2.380533E-05
7.153475E+03	3.174315E-03	2.366415E-05
7.163452E+03	3.152222E-03	2.353862E-05
7.173429E+03	3.132348E-03	2.342898E-05
7.183406E+03	3.114847E-03	2.333647E-05
7.193383E+03	3.099956E-03	2.326298E-05
7.203360E+03	3.087741E-03	2.320909E-05
7.213337E+03	3.078248E-03	2.317525E-05
7.223314E+03	3.071459E-03	2.316144E-05
7.233291E+03	3.066995E-03	2.316490E-05
7.243268E+03	3.064446E-03	2.318259E-05
7.253245E+03	3.063211E-03	2.321006E-05
7.263222E+03	3.062716E-03	2.324299E-05
7.273199E+03	3.062211E-03	2.327571E-05
7.283176E+03	3.060713E-03	2.330074E-05
7.293153E+03	3.057431E-03	2.331203E-05
7.303130E+03	3.051362E-03	2.330184E-05
7.313107E+03	3.041685E-03	2.326382E-05
7.323084E+03	3.028146E-03	2.319589E-05
7.333061E+03	3.010568E-03	2.309656E-05
7.343038E+03	2.988978E-03	2.296591E-05
7.353015E+03	2.963671E-03	2.280607E-05
7.362991E+03	2.935183E-03	2.262105E-05
7.372968E+03	2.904056E-03	2.241492E-05
7.382945E+03	2.871043E-03	2.219344E-05
7.392922E+03	2.836908E-03	2.196244E-05
7.402899E+03	2.802474E-03	2.172828E-05
7.412876E+03	2.768264E-03	2.149503E-05
7.422853E+03	2.734822E-03	2.126691E-05
7.432830E+03	2.702597E-03	2.104747E-05
7.442807E+03	2.671802E-03	2.083842E-05
7.452784E+03	2.642567E-03	2.064082E-05
7.462761E+03	2.614747E-03	2.045361E-05
7.472738E+03	2.587931E-03	2.027362E-05
7.482715E+03	2.561195E-03	2.009363E-05
7.492692E+03	2.533693E-03	1.990701E-05
7.502669E+03	2.504641E-03	1.970758E-05
7.512646E+03	2.473125E-03	1.948809E-05
7.522623E+03	2.438680E-03	1.924477E-05
7.532600E+03	2.401174E-03	1.897650E-05
7.542577E+03	2.360945E-03	1.868586E-05
7.552554E+03	2.318938E-03	1.838023E-05
7.562531E+03	2.276237E-03	1.806816E-05
7.572508E+03	2.234589E-03	1.776353E-05
7.582484E+03	2.195613E-03	1.747926E-05
7.592461E+03	2.161144E-03	1.723008E-05
7.602438E+03	2.132618E-03	1.702761E-05
7.612415E+03	2.111365E-03	1.688270E-05
7.622392E+03	2.098082E-03	1.680120E-05
7.632369E+03	2.092955E-03	1.678487E-05
7.642346E+03	2.095605E-03	1.683099E-05
7.652323E+03	2.104949E-03	1.693110E-05
7.662300E+03	2.119486E-03	1.707338E-05
7.672277E+03	2.137497E-03	1.724414E-05
7.682254E+03	2.157127E-03	1.742853E-05
7.692231E+03	2.176907E-03	1.761475E-05
7.702208E+03	2.195495E-03	1.779192E-05
7.712185E+03	2.212414E-03	1.795615E-05
7.722162E+03	2.227408E-03	1.810530E-05
7.732139E+03	2.240827E-03	1.824216E-05
7.742116E+03	2.253255E-03	1.837145E-05
