#wls	flux	fluxerr
1.596313E+03	5.215279E-04	2.472889E-05
1.636220E+03	5.185354E-04	2.444704E-05
1.676128E+03	5.156925E-04	2.417079E-05
1.716036E+03	5.131201E-04	2.390565E-05
1.755944E+03	5.108801E-04	2.365428E-05
1.795852E+03	5.089754E-04	2.341652E-05
1.835759E+03	5.075288E-04	2.319771E-05
1.875667E+03	5.066643E-04	2.300305E-05
1.915575E+03	5.065075E-04	2.283767E-05
1.955483E+03	5.070048E-04	2.269847E-05
1.995391E+03	5.084051E-04	2.259587E-05
2.035298E+03	5.107790E-04	2.253204E-05
2.075206E+03	5.141376E-04	2.250645E-05
2.115114E+03	5.187378E-04	2.252917E-05
2.155022E+03	5.245955E-04	2.259951E-05
2.194930E+03	5.319746E-04	2.272730E-05
2.234838E+03	5.408346E-04	2.290904E-05
2.274745E+03	5.514466E-04	2.315433E-05
2.314653E+03	5.639624E-04	2.346735E-05
2.354561E+03	5.784117E-04	2.384693E-05
2.394469E+03	5.950155E-04	2.429962E-05
2.434377E+03	6.138721E-04	2.482658E-05
2.474284E+03	6.351462E-04	2.543141E-05
2.514192E+03	6.588773E-04	2.611240E-05
2.554100E+03	6.852332E-04	2.687274E-05
2.594008E+03	7.144515E-04	2.771797E-05
2.633916E+03	7.467721E-04	2.865323E-05
2.673823E+03	7.823055E-04	2.967830E-05
2.713731E+03	8.213630E-04	3.080018E-05
2.753639E+03	8.642577E-04	3.202534E-05
2.793547E+03	9.113070E-04	3.335979E-05
2.833455E+03	9.628963E-04	3.481134E-05
2.873363E+03	1.019345E-03	3.638471E-05
2.913270E+03	1.081179E-03	3.809121E-05
2.953178E+03	1.148781E-03	3.993626E-05
2.993086E+03	1.222596E-03	4.192660E-05
3.003063E+03	1.242064E-03	4.244728E-05
3.013040E+03	1.261986E-03	4.297859E-05
3.023017E+03	1.282293E-03	4.351795E-05
3.032994E+03	1.303053E-03	4.406759E-05
3.042971E+03	1.324198E-03	4.462498E-05
3.052948E+03	1.345865E-03	4.519464E-05
3.062925E+03	1.367914E-03	4.577167E-05
3.072902E+03	1.390413E-03	4.635824E-05
3.082879E+03	1.413431E-03	4.695639E-05
3.092856E+03	1.436824E-03	4.756128E-05
3.102832E+03	1.460661E-03	4.817495E-05
3.112809E+03	1.485007E-03	4.879945E-05
3.122786E+03	1.509718E-03	4.942982E-05
3.132763E+03	1.534928E-03	5.007036E-05
3.142740E+03	1.560560E-03	5.071839E-05
3.152717E+03	1.586678E-03	5.137580E-05
3.162694E+03	1.613130E-03	5.203753E-05
3.172671E+03	1.640049E-03	5.270773E-05
3.182648E+03	1.667424E-03	5.338591E-05
3.192625E+03	1.695101E-03	5.406698E-05
3.202602E+03	1.723209E-03	5.475496E-05
3.212579E+03	1.751735E-03	5.544930E-05
3.222556E+03	1.780595E-03	5.614717E-05
3.232533E+03	1.809773E-03	5.684802E-05
3.242510E+03	1.839256E-03	5.755130E-05
3.252487E+03	1.869102E-03	5.825872E-05
3.262464E+03	1.899295E-03	5.896972E-05
3.272441E+03	1.929750E-03	5.968155E-05
3.282418E+03	1.960454E-03	6.039369E-05
3.292395E+03	1.991461E-03	6.110779E-05
3.302372E+03	2.022679E-03	6.182090E-05
3.312348E+03	2.054148E-03	6.253424E-05
3.322325E+03	2.085747E-03	6.324409E-05
3.332302E+03	2.117403E-03	6.394818E-05
3.342279E+03	2.149077E-03	6.464536E-05
3.352256E+03	2.180611E-03	6.533097E-05
3.362233E+03	2.211730E-03	6.599685E-05
3.372210E+03	2.242243E-03	6.663754E-05
3.382187E+03	2.271764E-03	6.724187E-05
3.392164E+03	2.299931E-03	6.779954E-05
3.402141E+03	2.326408E-03	6.830127E-05
3.412118E+03	2.350762E-03	6.873504E-05
3.422095E+03	2.372479E-03	6.908665E-05
3.432072E+03	2.391195E-03	6.934659E-05
3.442049E+03	2.406523E-03	6.950479E-05
3.452026E+03	2.418091E-03	6.955179E-05
3.462003E+03	2.425795E-03	6.948600E-05
3.471980E+03	2.429635E-03	6.930885E-05
3.481957E+03	2.429753E-03	6.902580E-05
3.491934E+03	2.426712E-03	6.865408E-05
3.501911E+03	2.421028E-03	6.820944E-05
3.511888E+03	2.413611E-03	6.771831E-05
3.521864E+03	2.405459E-03	6.720927E-05
3.531841E+03	2.397764E-03	6.671576E-05
3.541818E+03	2.391659E-03	6.626903E-05
3.551795E+03	2.388597E-03	6.590868E-05
3.561772E+03	2.390222E-03	6.567884E-05
3.571749E+03	2.398290E-03	6.562599E-05
3.581726E+03	2.415169E-03	6.581255E-05
3.591703E+03	2.443251E-03	6.630042E-05
3.601680E+03	2.483515E-03	6.711237E-05
3.611657E+03	2.536795E-03	6.826682E-05
3.621634E+03	2.604071E-03	6.978574E-05
3.631611E+03	2.686731E-03	7.170167E-05
3.641588E+03	2.786094E-03	7.404467E-05
3.651565E+03	2.903313E-03	7.683999E-05
3.661542E+03	3.038979E-03	8.009753E-05
3.671519E+03	3.192739E-03	8.380230E-05
3.681496E+03	3.362552E-03	8.789536E-05
3.691473E+03	3.544588E-03	9.227215E-05
3.701450E+03	3.732532E-03	9.676540E-05
3.711427E+03	3.917722E-03	1.011499E-04
3.721404E+03	4.089644E-03	1.051567E-04
3.731381E+03	4.237049E-03	1.085022E-04
3.741357E+03	4.349371E-03	1.109250E-04
3.751334E+03	4.418656E-03	1.122344E-04
3.761311E+03	4.441701E-03	1.123627E-04
3.771288E+03	4.420174E-03	1.113664E-04
3.781265E+03	4.360803E-03	1.094281E-04
3.791242E+03	4.274303E-03	1.068268E-04
3.801219E+03	4.173793E-03	1.038972E-04
3.811196E+03	4.073826E-03	1.010042E-04
3.821173E+03	3.988491E-03	9.849521E-05
3.831150E+03	3.931514E-03	9.670354E-05
3.841127E+03	3.915020E-03	9.591777E-05
3.851104E+03	3.950028E-03	9.639497E-05
3.861081E+03	4.046320E-03	9.835822E-05
3.871058E+03	4.212095E-03	1.019887E-04
3.881035E+03	4.453050E-03	1.074044E-04
3.891012E+03	4.771079E-03	1.146305E-04
3.900989E+03	5.161420E-03	1.235320E-04
3.910966E+03	5.609996E-03	1.337543E-04
3.920943E+03	6.091260E-03	1.446760E-04
3.930920E+03	6.569564E-03	1.554457E-04
3.940897E+03	7.004231E-03	1.651068E-04
3.950873E+03	7.356989E-03	1.727732E-04
3.960850E+03	7.602760E-03	1.778810E-04
3.970827E+03	7.738686E-03	1.803923E-04
3.980804E+03	7.782281E-03	1.807427E-04
3.990781E+03	7.763298E-03	1.796447E-04
4.000758E+03	7.715678E-03	1.778968E-04
4.010735E+03	7.670932E-03	1.762300E-04
4.020712E+03	7.652378E-03	1.751775E-04
4.030689E+03	7.673458E-03	1.750394E-04
4.040666E+03	7.737827E-03	1.758895E-04
4.050643E+03	7.840685E-03	1.776088E-04
4.060620E+03	7.970587E-03	1.799305E-04
4.070597E+03	8.110156E-03	1.824576E-04
4.080574E+03	8.239772E-03	1.847486E-04
4.090551E+03	8.339036E-03	1.863505E-04
4.100528E+03	8.389698E-03	1.868641E-04
4.110505E+03	8.377340E-03	1.859803E-04
4.120482E+03	8.293794E-03	1.835322E-04
4.130459E+03	8.136448E-03	1.794773E-04
4.140436E+03	7.907422E-03	1.738775E-04
4.150413E+03	7.613461E-03	1.668948E-04
4.160390E+03	7.265654E-03	1.587840E-04
4.170366E+03	6.879986E-03	1.499031E-04
4.180343E+03	6.476649E-03	1.406970E-04
4.190320E+03	6.077960E-03	1.316510E-04
4.200297E+03	5.706478E-03	1.232502E-04
4.210274E+03	5.382860E-03	1.159332E-04
4.220251E+03	5.124528E-03	1.100643E-04
4.230228E+03	4.944171E-03	1.059026E-04
4.240205E+03	4.850264E-03	1.036151E-04
4.250182E+03	4.847331E-03	1.032830E-04
4.260159E+03	4.935150E-03	1.048866E-04
4.270136E+03	5.107895E-03	1.082881E-04
4.280113E+03	5.354064E-03	1.132315E-04
4.290090E+03	5.656938E-03	1.193540E-04
4.300067E+03	5.994989E-03	1.261952E-04
4.310044E+03	6.343143E-03	1.332250E-04
4.320021E+03	6.675778E-03	1.399067E-04
4.329998E+03	6.970557E-03	1.457768E-04
4.339975E+03	7.210491E-03	1.504873E-04
4.349952E+03	7.384539E-03	1.538165E-04
4.359929E+03	7.486697E-03	1.556485E-04
4.369906E+03	7.513050E-03	1.559113E-04
4.379882E+03	7.459310E-03	1.545249E-04
4.389859E+03	7.333638E-03	1.516669E-04
4.399836E+03	7.156153E-03	1.477594E-04
4.409813E+03	6.944744E-03	1.431759E-04
4.419790E+03	6.715587E-03	1.382515E-04
4.429767E+03	6.486076E-03	1.333444E-04
4.439744E+03	6.275847E-03	1.288567E-04
4.449721E+03	6.106718E-03	1.252330E-04
4.459698E+03	5.999980E-03	1.229053E-04
4.469675E+03	5.971935E-03	1.222022E-04
4.479652E+03	6.031907E-03	1.233087E-04
4.489629E+03	6.182899E-03	1.262811E-04
4.499606E+03	6.421955E-03	1.310543E-04
4.509583E+03	6.739048E-03	1.374203E-04
4.519560E+03	7.117076E-03	1.450279E-04
4.529537E+03	7.533170E-03	1.534102E-04
4.539514E+03	7.961065E-03	1.620324E-04
4.549491E+03	8.374331E-03	1.703581E-04
4.559468E+03	8.750957E-03	1.779412E-04
4.569445E+03	9.077275E-03	1.845060E-04
4.579422E+03	9.348654E-03	1.899605E-04
4.589398E+03	9.567560E-03	1.943564E-04
4.599375E+03	9.739595E-03	1.978087E-04
4.609352E+03	9.869974E-03	2.004241E-04
4.619329E+03	9.959329E-03	2.022160E-04
4.629306E+03	1.000077E-02	2.030447E-04
4.639283E+03	9.980966E-03	2.026394E-04
4.649260E+03	9.883644E-03	2.006693E-04
4.659237E+03	9.693286E-03	1.968188E-04
4.669214E+03	9.401642E-03	1.909189E-04
4.679191E+03	9.014249E-03	1.830804E-04
4.689168E+03	8.552923E-03	1.737443E-04
4.699145E+03	8.053400E-03	1.636345E-04
4.709122E+03	7.560591E-03	1.536619E-04
4.719099E+03	7.122106E-03	1.447932E-04
4.729076E+03	6.779163E-03	1.378665E-04
4.739053E+03	6.559974E-03	1.334568E-04
4.749030E+03	6.479722E-03	1.318753E-04
4.759007E+03	6.545473E-03	1.332687E-04
4.768984E+03	6.759677E-03	1.376905E-04
4.778961E+03	7.120383E-03	1.451052E-04
4.788938E+03	7.619841E-03	1.553591E-04
4.798915E+03	8.241228E-03	1.681136E-04
4.808891E+03	8.955011E-03	1.827703E-04
4.818868E+03	9.717328E-03	1.984370E-04
4.828845E+03	1.047275E-02	2.139834E-04
4.838822E+03	1.116133E-02	2.281842E-04
4.848799E+03	1.172799E-02	2.399107E-04
4.858776E+03	1.213240E-02	2.483330E-04
4.868753E+03	1.235677E-02	2.530808E-04
4.878730E+03	1.240771E-02	2.542830E-04
4.888707E+03	1.231224E-02	2.524862E-04
4.898684E+03	1.211013E-02	2.485008E-04
4.908661E+03	1.184645E-02	2.432477E-04
4.918638E+03	1.156407E-02	2.376045E-04
4.928615E+03	1.129786E-02	2.322875E-04
4.938592E+03	1.107251E-02	2.278049E-04
4.948569E+03	1.090035E-02	2.244117E-04
4.958546E+03	1.078083E-02	2.220987E-04
4.968523E+03	1.070244E-02	2.206306E-04
4.978500E+03	1.064509E-02	2.195942E-04
4.988477E+03	1.058247E-02	2.184475E-04
4.998454E+03	1.048745E-02	2.166293E-04
5.008431E+03	1.033850E-02	2.136933E-04
5.018407E+03	1.012508E-02	2.094190E-04
5.028384E+03	9.849372E-03	2.038490E-04
5.038361E+03	9.526574E-03	1.972954E-04
5.048338E+03	9.181569E-03	1.902718E-04
5.058315E+03	8.843773E-03	1.833875E-04
5.068292E+03	8.540862E-03	1.772169E-04
5.078269E+03	8.295279E-03	1.722274E-04
5.088246E+03	8.122878E-03	1.687506E-04
5.098223E+03	8.031888E-03	1.669603E-04
5.108200E+03	8.022913E-03	1.668721E-04
5.118177E+03	8.090009E-03	1.683651E-04
5.128154E+03	8.221649E-03	1.712020E-04
5.138131E+03	8.401215E-03	1.750388E-04
5.148108E+03	8.608546E-03	1.794564E-04
5.158085E+03	8.822920E-03	1.840235E-04
5.168062E+03	9.025540E-03	1.883478E-04
5.178039E+03	9.202096E-03	1.921300E-04
5.188016E+03	9.344037E-03	1.951903E-04
5.197993E+03	9.449875E-03	1.974964E-04
5.207970E+03	9.523844E-03	1.991356E-04
5.217947E+03	9.573619E-03	2.002674E-04
5.227923E+03	9.608118E-03	2.010776E-04
5.237900E+03	9.635695E-03	2.017408E-04
5.247877E+03	9.662885E-03	2.023933E-04
5.257854E+03	9.693661E-03	2.031186E-04
5.267831E+03	9.729467E-03	2.039468E-04
5.277808E+03	9.769925E-03	2.048701E-04
5.287785E+03	9.813313E-03	2.058524E-04
5.297762E+03	9.857061E-03	2.068397E-04
5.307739E+03	9.898177E-03	2.077693E-04
5.317716E+03	9.933235E-03	2.085691E-04
5.327693E+03	9.958677E-03	2.091642E-04
5.337670E+03	9.970975E-03	2.094803E-04
5.347647E+03	9.966827E-03	2.094477E-04
5.357624E+03	9.943746E-03	2.090140E-04
5.367601E+03	9.900542E-03	2.081537E-04
5.377578E+03	9.837949E-03	2.068822E-04
5.387555E+03	9.759433E-03	2.052722E-04
5.397532E+03	9.671239E-03	2.034548E-04
5.407509E+03	9.582182E-03	2.016157E-04
5.417486E+03	9.502120E-03	1.999622E-04
5.427463E+03	9.439798E-03	1.986788E-04
5.437440E+03	9.401061E-03	1.978886E-04
5.447416E+03	9.388366E-03	1.976436E-04
5.457393E+03	9.399991E-03	1.979079E-04
5.467370E+03	9.429928E-03	1.985551E-04
5.477347E+03	9.469362E-03	1.993996E-04
5.487324E+03	9.506861E-03	2.002007E-04
5.497301E+03	9.526574E-03	2.006244E-04
5.507278E+03	9.515774E-03	2.004025E-04
5.517255E+03	9.468502E-03	1.994095E-04
5.527232E+03	9.387333E-03	1.976996E-04
5.537209E+03	9.282090E-03	1.954795E-04
5.547186E+03	9.167188E-03	1.930530E-04
5.557163E+03	9.058388E-03	1.907521E-04
5.567140E+03	8.970937E-03	1.888978E-04
5.577117E+03	8.916084E-03	1.877270E-04
5.587094E+03	8.899712E-03	1.873633E-04
5.597071E+03	8.922279E-03	1.878162E-04
5.607048E+03	8.979078E-03	1.889861E-04
5.617025E+03	9.061132E-03	1.906839E-04
5.627002E+03	9.156281E-03	1.926532E-04
5.636979E+03	9.251384E-03	1.946174E-04
5.646956E+03	9.334033E-03	1.963154E-04
5.656932E+03	9.394549E-03	1.975437E-04
5.666909E+03	9.426602E-03	1.981694E-04
5.676886E+03	9.428570E-03	1.981588E-04
5.686863E+03	9.402710E-03	1.975600E-04
5.696840E+03	9.353795E-03	1.964736E-04
5.706817E+03	9.288266E-03	1.950353E-04
5.716794E+03	9.212790E-03	1.933856E-04
5.726771E+03	9.133641E-03	1.916564E-04
5.736748E+03	9.056019E-03	1.899569E-04
5.746725E+03	8.984141E-03	1.883756E-04
5.756702E+03	8.921316E-03	1.869819E-04
5.766679E+03	8.870065E-03	1.858284E-04
5.776656E+03	8.831996E-03	1.849486E-04
5.786633E+03	8.807980E-03	1.843604E-04
5.796610E+03	8.797584E-03	1.840544E-04
5.806587E+03	8.799966E-03	1.840125E-04
5.816564E+03	8.812821E-03	1.841864E-04
5.826541E+03	8.833466E-03	1.845196E-04
5.836518E+03	8.858203E-03	1.849347E-04
5.846495E+03	8.883084E-03	1.853492E-04
5.856472E+03	8.904154E-03	1.856807E-04
5.866449E+03	8.917635E-03	1.858505E-04
5.876425E+03	8.921153E-03	1.858097E-04
5.886402E+03	8.913874E-03	1.855412E-04
5.896379E+03	8.896442E-03	1.850589E-04
5.906356E+03	8.871283E-03	1.844139E-04
5.916333E+03	8.841935E-03	1.836799E-04
5.926310E+03	8.812417E-03	1.829408E-04
5.936287E+03	8.786121E-03	1.822670E-04
5.946264E+03	8.765681E-03	1.817131E-04
5.956241E+03	8.752043E-03	1.812985E-04
5.966218E+03	8.745037E-03	1.810195E-04
5.976195E+03	8.742990E-03	1.808412E-04
5.986172E+03	8.743501E-03	1.807141E-04
5.996149E+03	8.744125E-03	1.805874E-04
6.006126E+03	8.742875E-03	1.804204E-04
6.016103E+03	8.738722E-03	1.801920E-04
6.026080E+03	8.731389E-03	1.798967E-04
6.036057E+03	8.721621E-03	1.795503E-04
6.046034E+03	8.710579E-03	1.791767E-04
6.056011E+03	8.699091E-03	1.787933E-04
6.065988E+03	8.687039E-03	1.783978E-04
6.075965E+03	8.674002E-03	1.779816E-04
6.085941E+03	8.658885E-03	1.775226E-04
6.095918E+03	8.640517E-03	1.769969E-04
6.105895E+03	8.618291E-03	1.763926E-04
6.115872E+03	8.592698E-03	1.757199E-04
6.125849E+03	8.565550E-03	1.750162E-04
6.135826E+03	8.539414E-03	1.743341E-04
6.145803E+03	8.517083E-03	1.737308E-04
6.155780E+03	8.500677E-03	1.732493E-04
6.165757E+03	8.490882E-03	1.729036E-04
6.175734E+03	8.485720E-03	1.726531E-04
6.185711E+03	8.480403E-03	1.724004E-04
6.195688E+03	8.468911E-03	1.720235E-04
6.205665E+03	8.446394E-03	1.714244E-04
6.215642E+03	8.410888E-03	1.705639E-04
6.225619E+03	8.363830E-03	1.694721E-04
6.235596E+03	8.310680E-03	1.682600E-04
6.245573E+03	8.259514E-03	1.670916E-04
6.255550E+03	8.219086E-03	1.661439E-04
6.265527E+03	8.195726E-03	1.655443E-04
6.275504E+03	8.190723E-03	1.653182E-04
6.285481E+03	8.198512E-03	1.653528E-04
6.295457E+03	8.205474E-03	1.653730E-04
6.305434E+03	8.189316E-03	1.649303E-04
6.315411E+03	8.123394E-03	1.634895E-04
6.325388E+03	7.982435E-03	1.605444E-04
6.335365E+03	7.749753E-03	1.557628E-04
6.345342E+03	7.423398E-03	1.491091E-04
6.355319E+03	7.020884E-03	1.409380E-04
6.365296E+03	6.577428E-03	1.319585E-04
6.375273E+03	6.138014E-03	1.230735E-04
6.385250E+03	5.748428E-03	1.152000E-04
6.395227E+03	5.449689E-03	1.091575E-04
6.405204E+03	5.273071E-03	1.055688E-04
6.415181E+03	5.238040E-03	1.048199E-04
6.425158E+03	5.353375E-03	1.070825E-04
6.435135E+03	5.621404E-03	1.123995E-04
6.445112E+03	6.038786E-03	1.207008E-04
6.455089E+03	6.594016E-03	1.317540E-04
6.465066E+03	7.265115E-03	1.451178E-04
6.475043E+03	8.021211E-03	1.601746E-04
6.485020E+03	8.828854E-03	1.762561E-04
6.494997E+03	9.663671E-03	1.928758E-04
6.504974E+03	1.053063E-02	2.101336E-04
6.514950E+03	1.148723E-02	2.291767E-04
6.524927E+03	1.254085E-02	2.501525E-04
6.534904E+03	1.355951E-02	2.704285E-04
6.544881E+03	1.441833E-02	2.875155E-04
6.554858E+03	1.502735E-02	2.996221E-04
6.564835E+03	1.533906E-02	3.058027E-04
6.574812E+03	1.535149E-02	3.060205E-04
6.584789E+03	1.509995E-02	3.009803E-04
6.594766E+03	1.464251E-02	2.918405E-04
6.604743E+03	1.404745E-02	2.799622E-04
6.614720E+03	1.337994E-02	2.666441E-04
6.624697E+03	1.269307E-02	2.529436E-04
6.634674E+03	1.202503E-02	2.396215E-04
6.644651E+03	1.139892E-02	2.271371E-04
6.654628E+03	1.082727E-02	2.157398E-04
6.664605E+03	1.031388E-02	2.055049E-04
6.674582E+03	9.858031E-03	1.964174E-04
6.684559E+03	9.456812E-03	1.884192E-04
6.694536E+03	9.107771E-03	1.814610E-04
6.704513E+03	8.808008E-03	1.754849E-04
6.714490E+03	8.554729E-03	1.704350E-04
6.724466E+03	8.344390E-03	1.662403E-04
6.734443E+03	8.172543E-03	1.628123E-04
6.744420E+03	8.033277E-03	1.600328E-04
6.754397E+03	7.919239E-03	1.577554E-04
6.764374E+03	7.822096E-03	1.558138E-04
6.774351E+03	7.732854E-03	1.540287E-04
6.784328E+03	7.643517E-03	1.522409E-04
6.794305E+03	7.547525E-03	1.503195E-04
6.804282E+03	7.441795E-03	1.482031E-04
6.814259E+03	7.327346E-03	1.459120E-04
6.824236E+03	7.208824E-03	1.435387E-04
6.834213E+03	7.092717E-03	1.412125E-04
6.844190E+03	6.986086E-03	1.390738E-04
6.854167E+03	6.896269E-03	1.372685E-04
6.864144E+03	6.828699E-03	1.359048E-04
6.874121E+03	6.787316E-03	1.350608E-04
6.884098E+03	6.773109E-03	1.347559E-04
6.894075E+03	6.784259E-03	1.349535E-04
6.904052E+03	6.815015E-03	1.355391E-04
6.914029E+03	6.857510E-03	1.363558E-04
6.924006E+03	6.903026E-03	1.372300E-04
6.933983E+03	6.943805E-03	1.380075E-04
6.943959E+03	6.973470E-03	1.385615E-04
6.953936E+03	6.988173E-03	1.388157E-04
6.963913E+03	6.986460E-03	1.387414E-04
6.973890E+03	6.969669E-03	1.383653E-04
6.983867E+03	6.940433E-03	1.377401E-04
6.993844E+03	6.902440E-03	1.369391E-04
7.003821E+03	6.859496E-03	1.360381E-04
7.013798E+03	6.815132E-03	1.351070E-04
7.023775E+03	6.771791E-03	1.341945E-04
7.033752E+03	6.730828E-03	1.333273E-04
7.043729E+03	6.693007E-03	1.325207E-04
7.053706E+03	6.658227E-03	1.317724E-04
7.063683E+03	6.626027E-03	1.310735E-04
7.073660E+03	6.595804E-03	1.304118E-04
7.083637E+03	6.566612E-03	1.297688E-04
7.093614E+03	6.538130E-03	1.291380E-04
7.103591E+03	6.509986E-03	1.285123E-04
7.113568E+03	6.482577E-03	1.278994E-04
7.123545E+03	6.456527E-03	1.273117E-04
7.133522E+03	6.432487E-03	1.267620E-04
7.143499E+03	6.410765E-03	1.262565E-04
7.153475E+03	6.391437E-03	1.257965E-04
7.163452E+03	6.374260E-03	1.253772E-04
7.173429E+03	6.358291E-03	1.249802E-04
7.183406E+03	6.342465E-03	1.245846E-04
7.193383E+03	6.325418E-03	1.241635E-04
7.203360E+03	6.305997E-03	1.236946E-04
7.213337E+03	6.283394E-03	1.231621E-04
7.223314E+03	6.257308E-03	1.225605E-04
7.233291E+03	6.228463E-03	1.219041E-04
7.243268E+03	6.197758E-03	1.212108E-04
7.253245E+03	6.166213E-03	1.205006E-04
7.263222E+03	6.134904E-03	1.197948E-04
7.273199E+03	6.104467E-03	1.191058E-04
7.283176E+03	6.075565E-03	1.184467E-04
7.293153E+03	6.048045E-03	1.178145E-04
7.303130E+03	6.022128E-03	1.172135E-04
7.313107E+03	5.997800E-03	1.166436E-04
7.323084E+03	5.974850E-03	1.161007E-04
7.333061E+03	5.953477E-03	1.155888E-04
7.343038E+03	5.933435E-03	1.151030E-04
7.353015E+03	5.914429E-03	1.146378E-04
7.362991E+03	5.895686E-03	1.141783E-04
7.372968E+03	5.876705E-03	1.137149E-04
7.382945E+03	5.856987E-03	1.132381E-04
7.392922E+03	5.835734E-03	1.127327E-04
7.402899E+03	5.812580E-03	1.121919E-04
7.412876E+03	5.786757E-03	1.116010E-04
7.422853E+03	5.757867E-03	1.109528E-04
7.432830E+03	5.725490E-03	1.102393E-04
7.442807E+03	5.689356E-03	1.094558E-04
7.452784E+03	5.649397E-03	1.086012E-04
7.462761E+03	5.606111E-03	1.076854E-04
7.472738E+03	5.559887E-03	1.067163E-04
7.482715E+03	5.510050E-03	1.056810E-04
7.492692E+03	5.452652E-03	1.045043E-04
7.502669E+03	5.380661E-03	1.030518E-04
7.512646E+03	5.286437E-03	1.011782E-04
7.522623E+03	5.166047E-03	9.880895E-05
7.532600E+03	5.021110E-03	9.597616E-05
7.542577E+03	4.858326E-03	9.280863E-05
7.552554E+03	4.686952E-03	8.948364E-05
7.562531E+03	4.517209E-03	8.619634E-05
7.572508E+03	4.358971E-03	8.313490E-05
7.582484E+03	4.220377E-03	8.045394E-05
7.592461E+03	4.107983E-03	7.827779E-05
7.602438E+03	4.026356E-03	7.669266E-05
7.612415E+03	3.978195E-03	7.574928E-05
7.622392E+03	3.964010E-03	7.545673E-05
7.632369E+03	3.982683E-03	7.579329E-05
7.642346E+03	4.030783E-03	7.669348E-05
7.652323E+03	4.102977E-03	7.805578E-05
7.662300E+03	4.192618E-03	7.975400E-05
7.672277E+03	4.293099E-03	8.166283E-05
7.682254E+03	4.399118E-03	8.368193E-05
7.692231E+03	4.506547E-03	8.573340E-05
7.702208E+03	4.611983E-03	8.775305E-05
7.712185E+03	4.712223E-03	8.968054E-05
7.722162E+03	4.804190E-03	9.145784E-05
7.732139E+03	4.884594E-03	9.302276E-05
7.742116E+03	4.950783E-03	9.432512E-05
