#wls	flux	fluxerr
1.596313E+03	1.203803E-04	7.787359E-08
1.636220E+03	1.223773E-04	7.916544E-08
1.676128E+03	1.244600E-04	8.051279E-08
1.716036E+03	1.267251E-04	8.197803E-08
1.755944E+03	1.290830E-04	8.350338E-08
1.795852E+03	1.315378E-04	8.509133E-08
1.835759E+03	1.341874E-04	8.680541E-08
1.875667E+03	1.369424E-04	8.858759E-08
1.915575E+03	1.398546E-04	9.047149E-08
1.955483E+03	1.429292E-04	9.246042E-08
1.995391E+03	1.461713E-04	9.455773E-08
2.035298E+03	1.495863E-04	9.676686E-08
2.075206E+03	1.531796E-04	9.909134E-08
2.115114E+03	1.569565E-04	1.015347E-07
2.155022E+03	1.609225E-04	1.041002E-07
2.194930E+03	1.650825E-04	1.067913E-07
2.234838E+03	1.694407E-04	1.096106E-07
2.274745E+03	1.740010E-04	1.125607E-07
2.314653E+03	1.787663E-04	1.156433E-07
2.354561E+03	1.837377E-04	1.188593E-07
2.394469E+03	1.889148E-04	1.222083E-07
2.434377E+03	1.942422E-04	1.256547E-07
2.474284E+03	1.998185E-04	1.292619E-07
2.514192E+03	2.055821E-04	1.329904E-07
2.554100E+03	2.114647E-04	1.367958E-07
2.594008E+03	2.175534E-04	1.407345E-07
2.633916E+03	2.237135E-04	1.447195E-07
2.673823E+03	2.299639E-04	1.487629E-07
2.713731E+03	2.362608E-04	1.528363E-07
2.753639E+03	2.426059E-04	1.569409E-07
2.793547E+03	2.488787E-04	1.609987E-07
2.833455E+03	2.550020E-04	1.649599E-07
2.873363E+03	2.609999E-04	1.688399E-07
2.913270E+03	2.667172E-04	1.725383E-07
2.953178E+03	2.721021E-04	1.760218E-07
2.993086E+03	2.770974E-04	1.792531E-07
3.003063E+03	2.782842E-04	1.800209E-07
3.013040E+03	2.794763E-04	1.807920E-07
3.023017E+03	2.805600E-04	1.814931E-07
3.032994E+03	2.817014E-04	1.822314E-07
3.042971E+03	2.827314E-04	1.828977E-07
3.052948E+03	2.838155E-04	1.835989E-07
3.062925E+03	2.847855E-04	1.842264E-07
3.072902E+03	2.857512E-04	1.848511E-07
3.082879E+03	2.867110E-04	1.854720E-07
3.092856E+03	2.876635E-04	1.860881E-07
3.102832E+03	2.884980E-04	1.866279E-07
3.112809E+03	2.893781E-04	1.871972E-07
3.122786E+03	2.901936E-04	1.877247E-07
3.132763E+03	2.909981E-04	1.882452E-07
3.142740E+03	2.917915E-04	1.887583E-07
3.152717E+03	2.925192E-04	1.892290E-07
3.162694E+03	2.932890E-04	1.897270E-07
3.172671E+03	2.939936E-04	1.901827E-07
3.182648E+03	2.946870E-04	1.906313E-07
3.192625E+03	2.953173E-04	1.910390E-07
3.202602E+03	2.959910E-04	1.914747E-07
3.212579E+03	2.966563E-04	1.919051E-07
3.222556E+03	2.972631E-04	1.922975E-07
3.232533E+03	2.979173E-04	1.927206E-07
3.242510E+03	2.985690E-04	1.931422E-07
3.252487E+03	2.992211E-04	1.935639E-07
3.262464E+03	2.998767E-04	1.939879E-07
3.272441E+03	3.005898E-04	1.944492E-07
3.282418E+03	3.012633E-04	1.948848E-07
3.292395E+03	3.020022E-04	1.953627E-07
3.302372E+03	3.028106E-04	1.958856E-07
3.312348E+03	3.035946E-04	1.963926E-07
3.322325E+03	3.045077E-04	1.969832E-07
3.332302E+03	3.054085E-04	1.975659E-07
3.342279E+03	3.064497E-04	1.982393E-07
3.352256E+03	3.075406E-04	1.989449E-07
3.362233E+03	3.086886E-04	1.996874E-07
3.372210E+03	3.099967E-04	2.005335E-07
3.382187E+03	3.113767E-04	2.014261E-07
3.392164E+03	3.128838E-04	2.024009E-07
3.402141E+03	3.145256E-04	2.034628E-07
3.412118E+03	3.163561E-04	2.046468E-07
3.422095E+03	3.182892E-04	2.058972E-07
3.432072E+03	3.203785E-04	2.072486E-07
3.442049E+03	3.226764E-04	2.087349E-07
3.452026E+03	3.251418E-04	2.103296E-07
3.462003E+03	3.277792E-04	2.120355E-07
3.471980E+03	3.306367E-04	2.138838E-07
3.473137E+03	1.254554E-04	8.115519E-08
3.475442E+03	1.280385E-04	8.282611E-08
3.477736E+03	1.304210E-04	8.436731E-08
3.480031E+03	1.322628E-04	8.555875E-08
3.482336E+03	1.346241E-04	8.708623E-08
3.484631E+03	1.370197E-04	8.863589E-08
3.486925E+03	1.390397E-04	8.994257E-08
3.489230E+03	1.407060E-04	9.102044E-08
3.491525E+03	1.425876E-04	9.223762E-08
3.493819E+03	1.439743E-04	9.313460E-08
3.496114E+03	1.450133E-04	9.380668E-08
3.498419E+03	1.455283E-04	9.413985E-08
3.500713E+03	1.465815E-04	9.482112E-08
3.503008E+03	1.479723E-04	9.572080E-08
3.505313E+03	1.492861E-04	9.657064E-08
3.507607E+03	1.501466E-04	9.712727E-08
3.509902E+03	1.513434E-04	9.790145E-08
3.512207E+03	1.525181E-04	9.866134E-08
3.514502E+03	1.540067E-04	9.962426E-08
3.516796E+03	1.553218E-04	1.004749E-07
3.519101E+03	1.560183E-04	1.009255E-07
3.521396E+03	1.569783E-04	1.015465E-07
3.523690E+03	1.579373E-04	1.021668E-07
3.525995E+03	1.589627E-04	1.028301E-07
3.528290E+03	1.598725E-04	1.034186E-07
3.530584E+03	1.617732E-04	1.046481E-07
3.532889E+03	1.628333E-04	1.053338E-07
3.535184E+03	1.637749E-04	1.059429E-07
3.537478E+03	1.654963E-04	1.070564E-07
3.539773E+03	1.663734E-04	1.076238E-07
3.542078E+03	1.662644E-04	1.075533E-07
3.544372E+03	1.683768E-04	1.089198E-07
3.546667E+03	1.696553E-04	1.097468E-07
3.548972E+03	1.708236E-04	1.105025E-07
3.551267E+03	1.722157E-04	1.114030E-07
3.553561E+03	1.733993E-04	1.121686E-07
3.555866E+03	1.755235E-04	1.135427E-07
3.558161E+03	1.777787E-04	1.150015E-07
3.560455E+03	1.805475E-04	1.167925E-07
3.562760E+03	1.838543E-04	1.189316E-07
3.565055E+03	1.867778E-04	1.208228E-07
3.567349E+03	1.899415E-04	1.228693E-07
3.569654E+03	1.937171E-04	1.253116E-07
3.571949E+03	1.985951E-04	1.284670E-07
3.574243E+03	2.036351E-04	1.317273E-07
3.576548E+03	2.075402E-04	1.342534E-07
3.578843E+03	2.098410E-04	1.357418E-07
3.581138E+03	2.129962E-04	1.377827E-07
3.583442E+03	2.173373E-04	1.405909E-07
3.585737E+03	2.198522E-04	1.422177E-07
3.588032E+03	2.248044E-04	1.454211E-07
3.590326E+03	2.300994E-04	1.488463E-07
3.592631E+03	2.341681E-04	1.514783E-07
3.594926E+03	2.359790E-04	1.526497E-07
3.597220E+03	2.361807E-04	1.527801E-07
3.599525E+03	2.384905E-04	1.542742E-07
3.601820E+03	2.424867E-04	1.568592E-07
3.604114E+03	2.464077E-04	1.593956E-07
3.606419E+03	2.523132E-04	1.632157E-07
3.608714E+03	2.557527E-04	1.654407E-07
3.611009E+03	2.591393E-04	1.676313E-07
3.613313E+03	2.631799E-04	1.702450E-07
3.615608E+03	2.669834E-04	1.727054E-07
3.617903E+03	2.730298E-04	1.766167E-07
3.620207E+03	2.776497E-04	1.796051E-07
3.622502E+03	2.801165E-04	1.812008E-07
3.624797E+03	2.824750E-04	1.827265E-07
3.627101E+03	2.845584E-04	1.840741E-07
3.629396E+03	2.843444E-04	1.839357E-07
3.631691E+03	2.856484E-04	1.847792E-07
3.633995E+03	2.866988E-04	1.854586E-07
3.636290E+03	2.879660E-04	1.862783E-07
3.638585E+03	2.870552E-04	1.856891E-07
3.640880E+03	2.876708E-04	1.860873E-07
3.643184E+03	2.886144E-04	1.866976E-07
3.645479E+03	2.899533E-04	1.875637E-07
3.647774E+03	2.903803E-04	1.878399E-07
3.650078E+03	2.910488E-04	1.882723E-07
3.652373E+03	2.923828E-04	1.891352E-07
3.654668E+03	2.948055E-04	1.907024E-07
3.656972E+03	2.962524E-04	1.916383E-07
3.659267E+03	2.985491E-04	1.931240E-07
3.661562E+03	2.998495E-04	1.939652E-07
3.663866E+03	3.010163E-04	1.947199E-07
3.666161E+03	3.052345E-04	1.974485E-07
3.668456E+03	3.082587E-04	1.994048E-07
3.670761E+03	3.131517E-04	2.025699E-07
3.673055E+03	3.178281E-04	2.055949E-07
3.675350E+03	3.208531E-04	2.075517E-07
3.677655E+03	3.239085E-04	2.095282E-07
3.679949E+03	3.297895E-04	2.133324E-07
3.682244E+03	3.342382E-04	2.162101E-07
3.684539E+03	3.372486E-04	2.181575E-07
3.686843E+03	3.404506E-04	2.202287E-07
3.689138E+03	3.456203E-04	2.235728E-07
3.691433E+03	3.499736E-04	2.263889E-07
3.693737E+03	3.548131E-04	2.295194E-07
3.696032E+03	3.613835E-04	2.337696E-07
3.698327E+03	3.703418E-04	2.395645E-07
3.700632E+03	3.779642E-04	2.444952E-07
3.702926E+03	3.855083E-04	2.493752E-07
3.705221E+03	3.912191E-04	2.530694E-07
3.707526E+03	3.987716E-04	2.579548E-07
3.709820E+03	4.066634E-04	2.630599E-07
3.712115E+03	4.148970E-04	2.683859E-07
3.714420E+03	4.227740E-04	2.734813E-07
3.716714E+03	4.294792E-04	2.778188E-07
3.719009E+03	4.371620E-04	2.827885E-07
3.721314E+03	4.436905E-04	2.870116E-07
3.723608E+03	4.498032E-04	2.909657E-07
3.725903E+03	4.568931E-04	2.955520E-07
3.728208E+03	4.640195E-04	3.001618E-07
3.730503E+03	4.673786E-04	3.023347E-07
3.732797E+03	4.715614E-04	3.050405E-07
3.735092E+03	4.757135E-04	3.077263E-07
3.737397E+03	4.771825E-04	3.086766E-07
3.739691E+03	4.798503E-04	3.104023E-07
3.741986E+03	4.863768E-04	3.146241E-07
3.744291E+03	4.863066E-04	3.145787E-07
3.746585E+03	4.870340E-04	3.150492E-07
3.748880E+03	4.886423E-04	3.160895E-07
3.751185E+03	4.883117E-04	3.158757E-07
3.753479E+03	4.894480E-04	3.166107E-07
3.755774E+03	4.903404E-04	3.171879E-07
3.758079E+03	4.928735E-04	3.188265E-07
3.760374E+03	4.934708E-04	3.192129E-07
3.762668E+03	4.951821E-04	3.203199E-07
3.764973E+03	4.993163E-04	3.229942E-07
3.767268E+03	5.033032E-04	3.255731E-07
3.769562E+03	5.069566E-04	3.279364E-07
3.771867E+03	5.067868E-04	3.278265E-07
3.774162E+03	5.029296E-04	3.253315E-07
3.776456E+03	4.970527E-04	3.215298E-07
3.778761E+03	4.930754E-04	3.189570E-07
3.781056E+03	4.908171E-04	3.174962E-07
3.783350E+03	4.885992E-04	3.160615E-07
3.785645E+03	4.869145E-04	3.149716E-07
3.787950E+03	4.845303E-04	3.134293E-07
3.790245E+03	4.824675E-04	3.120949E-07
3.792539E+03	4.818075E-04	3.116680E-07
3.794844E+03	4.783435E-04	3.094272E-07
3.797139E+03	4.784243E-04	3.094794E-07
3.799433E+03	4.799687E-04	3.104785E-07
3.801738E+03	4.818949E-04	3.117245E-07
3.804033E+03	4.823579E-04	3.120239E-07
3.806327E+03	4.843798E-04	3.133318E-07
3.808632E+03	4.905673E-04	3.173343E-07
3.810927E+03	4.985694E-04	3.225106E-07
3.813221E+03	5.071263E-04	3.280458E-07
3.815526E+03	5.139285E-04	3.324460E-07
3.817821E+03	5.172927E-04	3.346221E-07
3.820116E+03	5.212664E-04	3.371925E-07
3.822420E+03	5.266353E-04	3.406655E-07
3.824715E+03	5.303960E-04	3.430982E-07
3.827010E+03	5.336662E-04	3.452136E-07
3.829304E+03	5.360034E-04	3.467254E-07
3.831609E+03	5.381265E-04	3.480987E-07
3.833904E+03	5.420148E-04	3.506139E-07
3.836198E+03	5.439841E-04	3.518878E-07
3.838503E+03	5.500950E-04	3.558407E-07
3.840798E+03	5.555216E-04	3.593510E-07
3.843092E+03	5.595141E-04	3.619336E-07
3.845397E+03	5.628147E-04	3.640686E-07
3.847692E+03	5.659035E-04	3.660666E-07
3.849987E+03	5.677753E-04	3.672774E-07
3.852291E+03	5.703200E-04	3.689235E-07
3.854586E+03	5.700980E-04	3.687798E-07
3.856881E+03	5.698201E-04	3.685999E-07
3.859185E+03	5.665900E-04	3.665105E-07
3.861480E+03	5.671361E-04	3.668637E-07
3.863775E+03	5.677401E-04	3.672544E-07
3.866079E+03	5.639210E-04	3.647838E-07
3.868374E+03	5.587505E-04	3.614391E-07
3.870669E+03	5.499971E-04	3.557767E-07
3.872973E+03	5.416016E-04	3.503459E-07
3.875268E+03	5.323076E-04	3.443338E-07
3.877563E+03	5.244512E-04	3.392517E-07
3.879858E+03	5.136175E-04	3.322437E-07
3.882162E+03	5.024918E-04	3.250467E-07
3.884457E+03	4.978526E-04	3.220457E-07
3.886752E+03	4.980187E-04	3.221531E-07
3.889056E+03	4.969404E-04	3.214555E-07
3.891351E+03	4.968442E-04	3.213932E-07
3.893646E+03	5.024330E-04	3.250084E-07
3.895950E+03	5.108592E-04	3.304589E-07
3.898245E+03	5.196837E-04	3.361672E-07
3.900540E+03	5.298775E-04	3.427612E-07
3.902844E+03	5.394148E-04	3.489304E-07
3.905139E+03	5.579320E-04	3.609086E-07
3.907434E+03	5.799585E-04	3.751567E-07
3.909739E+03	6.002881E-04	3.883072E-07
3.912033E+03	6.218845E-04	4.022771E-07
3.914328E+03	6.429281E-04	4.158894E-07
3.916633E+03	6.661944E-04	4.309396E-07
3.918927E+03	6.923533E-04	4.478608E-07
3.921222E+03	7.209013E-04	4.663275E-07
3.923517E+03	7.514220E-04	4.860701E-07
3.925821E+03	7.788626E-04	5.038205E-07
3.928116E+03	8.069563E-04	5.219932E-07
3.930411E+03	8.382227E-04	5.422183E-07
3.932715E+03	8.714035E-04	5.636816E-07
3.935010E+03	9.041337E-04	5.848535E-07
3.937305E+03	9.372271E-04	6.062603E-07
3.939610E+03	9.699527E-04	6.274293E-07
3.941904E+03	1.002244E-03	6.483169E-07
3.944199E+03	1.037264E-03	6.709700E-07
3.946504E+03	1.072511E-03	6.937698E-07
3.948798E+03	1.109091E-03	7.174323E-07
3.951093E+03	1.151390E-03	7.447934E-07
3.953398E+03	1.193864E-03	7.722680E-07
3.955692E+03	1.237686E-03	8.006148E-07
3.957987E+03	1.281151E-03	8.287305E-07
3.960292E+03	1.328243E-03	8.591925E-07
3.962586E+03	1.372915E-03	8.880890E-07
3.964881E+03	1.416154E-03	9.160583E-07
3.967186E+03	1.454063E-03	9.405798E-07
3.969481E+03	1.481960E-03	9.586248E-07
3.971775E+03	1.506817E-03	9.747036E-07
3.974070E+03	1.534465E-03	9.925875E-07
3.976375E+03	1.560716E-03	1.009568E-06
3.978669E+03	1.583574E-03	1.024353E-06
3.980964E+03	1.596937E-03	1.032997E-06
3.983269E+03	1.604713E-03	1.038026E-06
3.985563E+03	1.608720E-03	1.040618E-06
3.987858E+03	1.606921E-03	1.039454E-06
3.990163E+03	1.594764E-03	1.031590E-06
3.992457E+03	1.584222E-03	1.024770E-06
3.994752E+03	1.572144E-03	1.016956E-06
3.997057E+03	1.551414E-03	1.003547E-06
3.999351E+03	1.529898E-03	9.896283E-07
4.001646E+03	1.502054E-03	9.716170E-07
4.003951E+03	1.470511E-03	9.512129E-07
4.006246E+03	1.437371E-03	9.297755E-07
4.008540E+03	1.399012E-03	9.049616E-07
4.010845E+03	1.359926E-03	8.796783E-07
4.013140E+03	1.323784E-03	8.562991E-07
4.015434E+03	1.292094E-03	8.358001E-07
4.017739E+03	1.263111E-03	8.170515E-07
4.020034E+03	1.231301E-03	7.964747E-07
4.022328E+03	1.205592E-03	7.798444E-07
4.024623E+03	1.185462E-03	7.668221E-07
4.026928E+03	1.170017E-03	7.568313E-07
4.029222E+03	1.160367E-03	7.505888E-07
4.031517E+03	1.156095E-03	7.478246E-07
4.033822E+03	1.155801E-03	7.476341E-07
4.036117E+03	1.161862E-03	7.515542E-07
4.038411E+03	1.174831E-03	7.599430E-07
4.040716E+03	1.193145E-03	7.717887E-07
4.043011E+03	1.214955E-03	7.858965E-07
4.045305E+03	1.240047E-03	8.021267E-07
4.047610E+03	1.272056E-03	8.228309E-07
4.049905E+03	1.312903E-03	8.492525E-07
4.052199E+03	1.358617E-03	8.788218E-07
4.054504E+03	1.409099E-03	9.114755E-07
4.056799E+03	1.461907E-03	9.456340E-07
4.059093E+03	1.518060E-03	9.819555E-07
4.061398E+03	1.575130E-03	1.018870E-06
4.063693E+03	1.628331E-03	1.053283E-06
4.065988E+03	1.680612E-03	1.087100E-06
4.068282E+03	1.732126E-03	1.120421E-06
4.070587E+03	1.778762E-03	1.150586E-06
4.072882E+03	1.825889E-03	1.181069E-06
4.075176E+03	1.871141E-03	1.210339E-06
4.077481E+03	1.914987E-03	1.238700E-06
4.079776E+03	1.964644E-03	1.270819E-06
4.082070E+03	2.019406E-03	1.306241E-06
4.084375E+03	2.071813E-03	1.340139E-06
4.086670E+03	2.120537E-03	1.371655E-06
4.088964E+03	2.177296E-03	1.408368E-06
4.091269E+03	2.237816E-03	1.447514E-06
4.093564E+03	2.297087E-03	1.485851E-06
4.095859E+03	2.351989E-03	1.521363E-06
4.098163E+03	2.403988E-03	1.554996E-06
4.100458E+03	2.456033E-03	1.588660E-06
4.102753E+03	2.504083E-03	1.619739E-06
4.105057E+03	2.541761E-03	1.644109E-06
4.107352E+03	2.574034E-03	1.664983E-06
4.109647E+03	2.601254E-03	1.682589E-06
4.111951E+03	2.624357E-03	1.697530E-06
4.114246E+03	2.646170E-03	1.711638E-06
4.116541E+03	2.656276E-03	1.718173E-06
4.118835E+03	2.652497E-03	1.715727E-06
4.121140E+03	2.640415E-03	1.707911E-06
4.123435E+03	2.618639E-03	1.693823E-06
4.125730E+03	2.592001E-03	1.676592E-06
4.128034E+03	2.562148E-03	1.657280E-06
4.130329E+03	2.522160E-03	1.631413E-06
4.132624E+03	2.478804E-03	1.603367E-06
4.134928E+03	2.431770E-03	1.572942E-06
4.137223E+03	2.383606E-03	1.541787E-06
4.139518E+03	2.332622E-03	1.508807E-06
4.141822E+03	2.279841E-03	1.474665E-06
4.144117E+03	2.223774E-03	1.438398E-06
4.146412E+03	2.170849E-03	1.404163E-06
4.148716E+03	2.114790E-03	1.367901E-06
4.151011E+03	2.059687E-03	1.332257E-06
4.153306E+03	2.015170E-03	1.303461E-06
4.155611E+03	1.974140E-03	1.276920E-06
4.157905E+03	1.935443E-03	1.251889E-06
4.160200E+03	1.902806E-03	1.230777E-06
4.162505E+03	1.873225E-03	1.211642E-06
4.164799E+03	1.843501E-03	1.192414E-06
4.167094E+03	1.816688E-03	1.175070E-06
4.169389E+03	1.798203E-03	1.163112E-06
4.171693E+03	1.785915E-03	1.155162E-06
4.173988E+03	1.779195E-03	1.150814E-06
4.176283E+03	1.775941E-03	1.148708E-06
4.178587E+03	1.771807E-03	1.146033E-06
4.180882E+03	1.772467E-03	1.146458E-06
4.183177E+03	1.778714E-03	1.150497E-06
4.185482E+03	1.784148E-03	1.154011E-06
4.187776E+03	1.792004E-03	1.159090E-06
4.190071E+03	1.809426E-03	1.170357E-06
4.192376E+03	1.820691E-03	1.177642E-06
4.194670E+03	1.834052E-03	1.186282E-06
4.196965E+03	1.843917E-03	1.192662E-06
4.199270E+03	1.846634E-03	1.194417E-06
4.201564E+03	1.852802E-03	1.198405E-06
4.203859E+03	1.859503E-03	1.202738E-06
4.206164E+03	1.863222E-03	1.205142E-06
4.208458E+03	1.869302E-03	1.209072E-06
4.210753E+03	1.876010E-03	1.213409E-06
4.213048E+03	1.879531E-03	1.215685E-06
4.215353E+03	1.878105E-03	1.214761E-06
4.217647E+03	1.874210E-03	1.212239E-06
4.219942E+03	1.872507E-03	1.211137E-06
4.222247E+03	1.860943E-03	1.203655E-06
4.224541E+03	1.843616E-03	1.192446E-06
4.226836E+03	1.823368E-03	1.179348E-06
4.229141E+03	1.799724E-03	1.164053E-06
4.231435E+03	1.776624E-03	1.149110E-06
4.233730E+03	1.754108E-03	1.134545E-06
4.236035E+03	1.733552E-03	1.121248E-06
4.238329E+03	1.711802E-03	1.107179E-06
4.240624E+03	1.680061E-03	1.086647E-06
4.242929E+03	1.646661E-03	1.065042E-06
4.245224E+03	1.613767E-03	1.043765E-06
4.247518E+03	1.584240E-03	1.024665E-06
4.249823E+03	1.558093E-03	1.007752E-06
4.252118E+03	1.526734E-03	9.874682E-07
4.254412E+03	1.495401E-03	9.672006E-07
4.256717E+03	1.466442E-03	9.484688E-07
4.259012E+03	1.438204E-03	9.302038E-07
4.261306E+03	1.407934E-03	9.106241E-07
4.263601E+03	1.382854E-03	8.944013E-07
4.265906E+03	1.357079E-03	8.777287E-07
4.268200E+03	1.329658E-03	8.599918E-07
4.270495E+03	1.307457E-03	8.456316E-07
4.272800E+03	1.286403E-03	8.320127E-07
4.275095E+03	1.276224E-03	8.254275E-07
4.277389E+03	1.276797E-03	8.257969E-07
4.279694E+03	1.280581E-03	8.282424E-07
4.281989E+03	1.288493E-03	8.333584E-07
4.284283E+03	1.302140E-03	8.421832E-07
4.286588E+03	1.323509E-03	8.560026E-07
4.288883E+03	1.346987E-03	8.711857E-07
4.291177E+03	1.376723E-03	8.904164E-07
4.293482E+03	1.406900E-03	9.099319E-07
4.295777E+03	1.439731E-03	9.311642E-07
4.298071E+03	1.476994E-03	9.552624E-07
4.300376E+03	1.511742E-03	9.777340E-07
4.302671E+03	1.549193E-03	1.001954E-06
4.304966E+03	1.595118E-03	1.031655E-06
4.307270E+03	1.639245E-03	1.060192E-06
4.309565E+03	1.685404E-03	1.090043E-06
4.311860E+03	1.731975E-03	1.120161E-06
4.314154E+03	1.770309E-03	1.144951E-06
4.316459E+03	1.813282E-03	1.172742E-06
4.318754E+03	1.863589E-03	1.205276E-06
4.321048E+03	1.913350E-03	1.237456E-06
4.323353E+03	1.966661E-03	1.271932E-06
4.325648E+03	2.021808E-03	1.307596E-06
4.327942E+03	2.074508E-03	1.341677E-06
4.330247E+03	2.124103E-03	1.373749E-06
4.332542E+03	2.168799E-03	1.402653E-06
4.334837E+03	2.213216E-03	1.431376E-06
4.337141E+03	2.251339E-03	1.456029E-06
4.339436E+03	2.286718E-03	1.478907E-06
4.341731E+03	2.314841E-03	1.497092E-06
4.344035E+03	2.341708E-03	1.514465E-06
4.346330E+03	2.365116E-03	1.529600E-06
4.348625E+03	2.388942E-03	1.545006E-06
4.350929E+03	2.405494E-03	1.555708E-06
4.353224E+03	2.410126E-03	1.558700E-06
4.355519E+03	2.408546E-03	1.557675E-06
4.357813E+03	2.401500E-03	1.553115E-06
4.360118E+03	2.391305E-03	1.546518E-06
4.362413E+03	2.377651E-03	1.537684E-06
4.364708E+03	2.358130E-03	1.525056E-06
4.367012E+03	2.338298E-03	1.512228E-06
4.369307E+03	2.321157E-03	1.501139E-06
4.371602E+03	2.297737E-03	1.485989E-06
4.373906E+03	2.272016E-03	1.469352E-06
4.376201E+03	2.256482E-03	1.459303E-06
4.378496E+03	2.241511E-03	1.449618E-06
4.380800E+03	2.233332E-03	1.444326E-06
4.383095E+03	2.230717E-03	1.442631E-06
4.385390E+03	2.231858E-03	1.443366E-06
4.387694E+03	2.240464E-03	1.448929E-06
4.389989E+03	2.253590E-03	1.457414E-06
4.392284E+03	2.268215E-03	1.466869E-06
4.394589E+03	2.285207E-03	1.477855E-06
4.396883E+03	2.306857E-03	1.491853E-06
4.399178E+03	2.336448E-03	1.510986E-06
4.401483E+03	2.368381E-03	1.531634E-06
4.403777E+03	2.398477E-03	1.551094E-06
4.406072E+03	2.429757E-03	1.571319E-06
4.408367E+03	2.464881E-03	1.594031E-06
4.410671E+03	2.508316E-03	1.622117E-06
4.412966E+03	2.547825E-03	1.647664E-06
4.415261E+03	2.585044E-03	1.671729E-06
4.417565E+03	2.619857E-03	1.694240E-06
4.419860E+03	2.650544E-03	1.714081E-06
4.422155E+03	2.683954E-03	1.735683E-06
4.424459E+03	2.718171E-03	1.757808E-06
4.426754E+03	2.748529E-03	1.777436E-06
4.429049E+03	2.780204E-03	1.797917E-06
4.431354E+03	2.806315E-03	1.814798E-06
4.433648E+03	2.827009E-03	1.828177E-06
4.435943E+03	2.834329E-03	1.832908E-06
4.438248E+03	2.834372E-03	1.832932E-06
4.440542E+03	2.829213E-03	1.829592E-06
4.442837E+03	2.823471E-03	1.825875E-06
4.445142E+03	2.822623E-03	1.825324E-06
4.447436E+03	2.818923E-03	1.822927E-06
4.449731E+03	2.806903E-03	1.815151E-06
4.452026E+03	2.795846E-03	1.807997E-06
4.454330E+03	2.785848E-03	1.801528E-06
