#wls	flux	fluxerr
1.596313E+03	3.202506E-05	1.120844E-06
1.636220E+03	3.271632E-05	1.142902E-06
1.676128E+03	3.345173E-05	1.166354E-06
1.716036E+03	3.421318E-05	1.190559E-06
1.755944E+03	3.501197E-05	1.215898E-06
1.795852E+03	3.584979E-05	1.242416E-06
1.835759E+03	3.672844E-05	1.270163E-06
1.875667E+03	3.764988E-05	1.299190E-06
1.915575E+03	3.861618E-05	1.329555E-06
1.955483E+03	3.963980E-05	1.361668E-06
1.995391E+03	4.070279E-05	1.394892E-06
2.035298E+03	4.182820E-05	1.430001E-06
2.075206E+03	4.300856E-05	1.466716E-06
2.115114E+03	4.424675E-05	1.505113E-06
2.155022E+03	4.554583E-05	1.545272E-06
2.194930E+03	4.691974E-05	1.587640E-06
2.234838E+03	4.836131E-05	1.631945E-06
2.274745E+03	4.987405E-05	1.678276E-06
2.314653E+03	5.146158E-05	1.726724E-06
2.354561E+03	5.312761E-05	1.777380E-06
2.394469E+03	5.488726E-05	1.830713E-06
2.434377E+03	5.673327E-05	1.886441E-06
2.474284E+03	5.866944E-05	1.944650E-06
2.514192E+03	6.071130E-05	2.005809E-06
2.554100E+03	6.285095E-05	2.069611E-06
2.594008E+03	6.509183E-05	2.136120E-06
2.633916E+03	6.743706E-05	2.205388E-06
2.673823E+03	6.990195E-05	2.277860E-06
2.713731E+03	7.248943E-05	2.353572E-06
2.753639E+03	7.518906E-05	2.432124E-06
2.793547E+03	7.802837E-05	2.514342E-06
2.833455E+03	8.099594E-05	2.599786E-06
2.873363E+03	8.410583E-05	2.688836E-06
2.913270E+03	8.735855E-05	2.781431E-06
2.953178E+03	9.078142E-05	2.878358E-06
2.993086E+03	9.437436E-05	2.979520E-06
3.003063E+03	9.530710E-05	3.005712E-06
3.013040E+03	9.624489E-05	3.031985E-06
3.023017E+03	9.718781E-05	3.058340E-06
3.032994E+03	9.815008E-05	3.085224E-06
3.042971E+03	9.913189E-05	3.112640E-06
3.052948E+03	1.001185E-04	3.140124E-06
3.062925E+03	1.011246E-04	3.168132E-06
3.072902E+03	1.021352E-04	3.196199E-06
3.082879E+03	1.031652E-04	3.224784E-06
3.092856E+03	1.042145E-04	3.253882E-06
3.102832E+03	1.052681E-04	3.283026E-06
3.112809E+03	1.063407E-04	3.312671E-06
3.122786E+03	1.074323E-04	3.342813E-06
3.132763E+03	1.085429E-04	3.373452E-06
3.142740E+03	1.096570E-04	3.404103E-06
3.152717E+03	1.107898E-04	3.435236E-06
3.162694E+03	1.119410E-04	3.466839E-06
3.172671E+03	1.131103E-04	3.498904E-06
3.182648E+03	1.142976E-04	3.531421E-06
3.192625E+03	1.155027E-04	3.564383E-06
3.202602E+03	1.167253E-04	3.597775E-06
3.212579E+03	1.179650E-04	3.631590E-06
3.222556E+03	1.192059E-04	3.665328E-06
3.232533E+03	1.204944E-04	3.700420E-06
3.242510E+03	1.217833E-04	3.735407E-06
3.252487E+03	1.230876E-04	3.770753E-06
3.262464E+03	1.244227E-04	3.806925E-06
3.272441E+03	1.257724E-04	3.843422E-06
3.282418E+03	1.271360E-04	3.880221E-06
3.292395E+03	1.285289E-04	3.917790E-06
3.302372E+03	1.299345E-04	3.955619E-06
3.312348E+03	1.313520E-04	3.993686E-06
3.322325E+03	1.327971E-04	4.032458E-06
3.332302E+03	1.342528E-04	4.071422E-06
3.342279E+03	1.357507E-04	4.111530E-06
3.352256E+03	1.372417E-04	4.151294E-06
3.362233E+03	1.387738E-04	4.192162E-06
3.372210E+03	1.403141E-04	4.233135E-06
3.382187E+03	1.418781E-04	4.274681E-06
3.392164E+03	1.434493E-04	4.316298E-06
3.402141E+03	1.450600E-04	4.358960E-06
3.412118E+03	1.466941E-04	4.402170E-06
3.422095E+03	1.483354E-04	4.445446E-06
3.432072E+03	1.500172E-04	4.489781E-06
3.442049E+03	1.517243E-04	4.534715E-06
3.452026E+03	1.534581E-04	4.580284E-06
3.462003E+03	1.552207E-04	4.626552E-06
3.471980E+03	1.570316E-04	4.674091E-06
3.481957E+03	1.588615E-04	4.722023E-06
3.491934E+03	1.607646E-04	4.771958E-06
3.501911E+03	1.627138E-04	4.823079E-06
3.511888E+03	1.647161E-04	4.875587E-06
3.521864E+03	1.667965E-04	4.930218E-06
3.531841E+03	1.689484E-04	4.986761E-06
3.541818E+03	1.712164E-04	5.046522E-06
3.551795E+03	1.735788E-04	5.108852E-06
3.561772E+03	1.760654E-04	5.174608E-06
3.571749E+03	1.786879E-04	5.244118E-06
3.581726E+03	1.814576E-04	5.317698E-06
3.591703E+03	1.843861E-04	5.395667E-06
3.601680E+03	1.874866E-04	5.478388E-06
3.611657E+03	1.907907E-04	5.566759E-06
3.621634E+03	1.942770E-04	5.660131E-06
3.631611E+03	1.979920E-04	5.759832E-06
3.641588E+03	2.019470E-04	5.866160E-06
3.651565E+03	2.061355E-04	5.978890E-06
3.661542E+03	2.105860E-04	6.098821E-06
3.671519E+03	2.152919E-04	6.225725E-06
3.681496E+03	2.202824E-04	6.360408E-06
3.691473E+03	2.255686E-04	6.503154E-06
3.701450E+03	2.311613E-04	6.654230E-06
3.711427E+03	2.370704E-04	6.813880E-06
3.721404E+03	2.433044E-04	6.982305E-06
3.731381E+03	2.498700E-04	7.159650E-06
3.741357E+03	2.567911E-04	7.346552E-06
3.751334E+03	2.640303E-04	7.541892E-06
3.761311E+03	2.716241E-04	7.746669E-06
3.771288E+03	2.795669E-04	7.960671E-06
3.781265E+03	2.878267E-04	8.182941E-06
3.791242E+03	2.964069E-04	8.413527E-06
3.801219E+03	3.052632E-04	8.651126E-06
3.811196E+03	3.144077E-04	8.896045E-06
3.821173E+03	3.237613E-04	9.146003E-06
3.831150E+03	3.333243E-04	9.400979E-06
3.841127E+03	3.430036E-04	9.658319E-06
3.851104E+03	3.527894E-04	9.917728E-06
3.861081E+03	3.625781E-04	1.017628E-05
3.871058E+03	3.723769E-04	1.043417E-05
3.881035E+03	3.820529E-04	1.068768E-05
3.891012E+03	3.915886E-04	1.093634E-05
3.900989E+03	4.009210E-04	1.117840E-05
3.910966E+03	4.099894E-04	1.141220E-05
3.920943E+03	4.187120E-04	1.163550E-05
3.930920E+03	4.270618E-04	1.184760E-05
3.940897E+03	4.349968E-04	1.204738E-05
3.950873E+03	4.424887E-04	1.223411E-05
3.960850E+03	4.495274E-04	1.240759E-05
3.970827E+03	4.561243E-04	1.256818E-05
3.980804E+03	4.623367E-04	1.271751E-05
3.990781E+03	4.681675E-04	1.285574E-05
4.000758E+03	4.737525E-04	1.298662E-05
4.010735E+03	4.790840E-04	1.310998E-05
4.020712E+03	4.842640E-04	1.322864E-05
4.030689E+03	4.893226E-04	1.334345E-05
4.040666E+03	4.942569E-04	1.345434E-05
4.050643E+03	4.989999E-04	1.355951E-05
4.060620E+03	5.034892E-04	1.365728E-05
4.070597E+03	5.076004E-04	1.374434E-05
4.080574E+03	5.111584E-04	1.381599E-05
4.090551E+03	5.140422E-04	1.386906E-05
4.100528E+03	5.160434E-04	1.389804E-05
4.110505E+03	5.170661E-04	1.390045E-05
4.120482E+03	5.169648E-04	1.387256E-05
4.130459E+03	5.157349E-04	1.381440E-05
4.140436E+03	5.133692E-04	1.372595E-05
4.150413E+03	5.099277E-04	1.360896E-05
4.160390E+03	5.055902E-04	1.346840E-05
4.170366E+03	5.005252E-04	1.330887E-05
4.180343E+03	4.949776E-04	1.313699E-05
4.190320E+03	4.891539E-04	1.295830E-05
4.200297E+03	4.833161E-04	1.277977E-05
4.210274E+03	4.777100E-04	1.260789E-05
4.220251E+03	4.725067E-04	1.244714E-05
4.230228E+03	4.679167E-04	1.230299E-05
4.240205E+03	4.640690E-04	1.217874E-05
4.250182E+03	4.610640E-04	1.207691E-05
4.260159E+03	4.590217E-04	1.200052E-05
4.270136E+03	4.579759E-04	1.195030E-05
4.280113E+03	4.579762E-04	1.192739E-05
4.290090E+03	4.590208E-04	1.193160E-05
4.300067E+03	4.610532E-04	1.196129E-05
4.310044E+03	4.640044E-04	1.201455E-05
4.320021E+03	4.677350E-04	1.208762E-05
4.329998E+03	4.720958E-04	1.217653E-05
4.339975E+03	4.768813E-04	1.227592E-05
4.349952E+03	4.818879E-04	1.238047E-05
4.359929E+03	4.869068E-04	1.248481E-05
4.369906E+03	4.918069E-04	1.258557E-05
4.379882E+03	4.964723E-04	1.267981E-05
4.389859E+03	5.009075E-04	1.276770E-05
4.399836E+03	5.052338E-04	1.285233E-05
4.409813E+03	5.096461E-04	1.293869E-05
4.419790E+03	5.144253E-04	1.303388E-05
4.429767E+03	5.199403E-04	1.314716E-05
4.439744E+03	5.265849E-04	1.328837E-05
4.449721E+03	5.347615E-04	1.346747E-05
4.459698E+03	5.448942E-04	1.369487E-05
4.469675E+03	5.574020E-04	1.398081E-05
4.479652E+03	5.726824E-04	1.433484E-05
4.489629E+03	5.910690E-04	1.476490E-05
4.499606E+03	6.128900E-04	1.527869E-05
4.509583E+03	6.383308E-04	1.588028E-05
4.519560E+03	6.675142E-04	1.657219E-05
4.529537E+03	7.003390E-04	1.735132E-05
4.539514E+03	7.365736E-04	1.821139E-05
4.549491E+03	7.757618E-04	1.914061E-05
4.559468E+03	8.172145E-04	2.012158E-05
4.569445E+03	8.600673E-04	2.113270E-05
4.579422E+03	9.032189E-04	2.214674E-05
4.589398E+03	9.454849E-04	2.313468E-05
4.599375E+03	9.855754E-04	2.406517E-05
4.609352E+03	1.022199E-03	2.490706E-05
4.619329E+03	1.054201E-03	2.563280E-05
4.629306E+03	1.080477E-03	2.621632E-05
4.639283E+03	1.100217E-03	2.663887E-05
4.649260E+03	1.112770E-03	2.688574E-05
4.659237E+03	1.117734E-03	2.694833E-05
4.669214E+03	1.115155E-03	2.682894E-05
4.679191E+03	1.105519E-03	2.654037E-05
4.689168E+03	1.089882E-03	2.610902E-05
4.699145E+03	1.069756E-03	2.557194E-05
4.709122E+03	1.046912E-03	2.497210E-05
4.719099E+03	1.023251E-03	2.435514E-05
4.729076E+03	1.000636E-03	2.376542E-05
4.739053E+03	9.808127E-04	2.324420E-05
4.749030E+03	9.653371E-04	2.282782E-05
4.759007E+03	9.555166E-04	2.254645E-05
4.768984E+03	9.523180E-04	2.242199E-05
4.778961E+03	9.564426E-04	2.246990E-05
4.788938E+03	9.682680E-04	2.269790E-05
4.798915E+03	9.879366E-04	2.310813E-05
4.808891E+03	1.015374E-03	2.369765E-05
4.818868E+03	1.050182E-03	2.445597E-05
4.828845E+03	1.091598E-03	2.536425E-05
4.838822E+03	1.138400E-03	2.639316E-05
4.848799E+03	1.188956E-03	2.750407E-05
4.858776E+03	1.241476E-03	2.865511E-05
4.868753E+03	1.294179E-03	2.980496E-05
4.878730E+03	1.345490E-03	3.091740E-05
4.888707E+03	1.394080E-03	3.196218E-05
4.898684E+03	1.439037E-03	3.291886E-05
4.908661E+03	1.479744E-03	3.377395E-05
4.918638E+03	1.515777E-03	3.451840E-05
4.928615E+03	1.546621E-03	3.514127E-05
4.938592E+03	1.571711E-03	3.563055E-05
4.948569E+03	1.590523E-03	3.597527E-05
4.958546E+03	1.602549E-03	3.616497E-05
4.968523E+03	1.607299E-03	3.618962E-05
4.978500E+03	1.604357E-03	3.604104E-05
4.988477E+03	1.593367E-03	3.571241E-05
4.998454E+03	1.574108E-03	3.520005E-05
5.008431E+03	1.546592E-03	3.450549E-05
5.018407E+03	1.511122E-03	3.363674E-05
5.028384E+03	1.468429E-03	3.261129E-05
5.038361E+03	1.419597E-03	3.145422E-05
5.048338E+03	1.366155E-03	3.020030E-05
5.058315E+03	1.310147E-03	2.889532E-05
5.068292E+03	1.253995E-03	2.759294E-05
5.078269E+03	1.200557E-03	2.635594E-05
5.088246E+03	1.152575E-03	2.524393E-05
5.098223E+03	1.112268E-03	2.430458E-05
5.108200E+03	1.081152E-03	2.356977E-05
5.118177E+03	1.060146E-03	2.305809E-05
5.128154E+03	1.049539E-03	2.277426E-05
5.138131E+03	1.049085E-03	2.271136E-05
5.148108E+03	1.058053E-03	2.285211E-05
5.158085E+03	1.075345E-03	2.317139E-05
5.168062E+03	1.099468E-03	2.363587E-05
5.178039E+03	1.128548E-03	2.420435E-05
5.188016E+03	1.160590E-03	2.483341E-05
5.197993E+03	1.193505E-03	2.547800E-05
5.207970E+03	1.225388E-03	2.609743E-05
5.217947E+03	1.254704E-03	2.665928E-05
5.227923E+03	1.280547E-03	2.714473E-05
5.237900E+03	1.302584E-03	2.754729E-05
5.247877E+03	1.320900E-03	2.786932E-05
5.257854E+03	1.335945E-03	2.812084E-05
5.267831E+03	1.348280E-03	2.831414E-05
5.277808E+03	1.358482E-03	2.846175E-05
5.287785E+03	1.367045E-03	2.857428E-05
5.297762E+03	1.374259E-03	2.865804E-05
5.307739E+03	1.380357E-03	2.871808E-05
5.317716E+03	1.385423E-03	2.875634E-05
5.327693E+03	1.389502E-03	2.877392E-05
5.337670E+03	1.392522E-03	2.876944E-05
5.347647E+03	1.394433E-03	2.874206E-05
5.357624E+03	1.395194E-03	2.869109E-05
5.367601E+03	1.394791E-03	2.861645E-05
5.377578E+03	1.393347E-03	2.852079E-05
5.387555E+03	1.391036E-03	2.840785E-05
5.397532E+03	1.388051E-03	2.828167E-05
5.407509E+03	1.384605E-03	2.814670E-05
5.417486E+03	1.380917E-03	2.800746E-05
5.427463E+03	1.377312E-03	2.787054E-05
5.437440E+03	1.374246E-03	2.774515E-05
5.447416E+03	1.372238E-03	2.764169E-05
5.457393E+03	1.371825E-03	2.757078E-05
5.467370E+03	1.373395E-03	2.754005E-05
5.477347E+03	1.377151E-03	2.755324E-05
5.487324E+03	1.382932E-03	2.760689E-05
5.497301E+03	1.390174E-03	2.768950E-05
5.507278E+03	1.398024E-03	2.778394E-05
5.517255E+03	1.405500E-03	2.787068E-05
5.527232E+03	1.411643E-03	2.793078E-05
5.537209E+03	1.415747E-03	2.795049E-05
5.547186E+03	1.417472E-03	2.792339E-05
5.557163E+03	1.416932E-03	2.785200E-05
5.567140E+03	1.414755E-03	2.774896E-05
5.577117E+03	1.411847E-03	2.763218E-05
5.587094E+03	1.409393E-03	2.752488E-05
5.597071E+03	1.408604E-03	2.745064E-05
5.607048E+03	1.410500E-03	2.742904E-05
5.617025E+03	1.415683E-03	2.747144E-05
5.627002E+03	1.424306E-03	2.758041E-05
5.636979E+03	1.436070E-03	2.774974E-05
5.646956E+03	1.450105E-03	2.796228E-05
5.656932E+03	1.465064E-03	2.819185E-05
5.666909E+03	1.479229E-03	2.840533E-05
5.676886E+03	1.490638E-03	2.856524E-05
5.686863E+03	1.497289E-03	2.863365E-05
5.696840E+03	1.497563E-03	2.858019E-05
5.706817E+03	1.490495E-03	2.838727E-05
5.716794E+03	1.475939E-03	2.805294E-05
5.726771E+03	1.454565E-03	2.759076E-05
5.736748E+03	1.427937E-03	2.703112E-05
5.746725E+03	1.398422E-03	2.641932E-05
5.756702E+03	1.369147E-03	2.581462E-05
5.766679E+03	1.343906E-03	2.528835E-05
5.776656E+03	1.326705E-03	2.491528E-05
5.786633E+03	1.321390E-03	2.476660E-05
5.796610E+03	1.331384E-03	2.490499E-05
5.806587E+03	1.359739E-03	2.538576E-05
5.816564E+03	1.408866E-03	2.625184E-05
5.826541E+03	1.480218E-03	2.752804E-05
5.836518E+03	1.574045E-03	2.921664E-05
5.846495E+03	1.688938E-03	3.128919E-05
5.856472E+03	1.820954E-03	3.367064E-05
5.866449E+03	1.963135E-03	3.623081E-05
5.876425E+03	2.105301E-03	3.878126E-05
5.886402E+03	2.234764E-03	4.108879E-05
5.896379E+03	2.338161E-03	4.290960E-05
5.906356E+03	2.404675E-03	4.404827E-05
5.916333E+03	2.429098E-03	4.441343E-05
5.926310E+03	2.412286E-03	4.402499E-05
5.936287E+03	2.360173E-03	4.299520E-05
5.946264E+03	2.281834E-03	4.149257E-05
5.956241E+03	2.187444E-03	3.970435E-05
5.966218E+03	2.086302E-03	3.780051E-05
5.976195E+03	1.985857E-03	3.591638E-05
5.986172E+03	1.891379E-03	3.414697E-05
5.996149E+03	1.806125E-03	3.255030E-05
6.006126E+03	1.731603E-03	3.115260E-05
6.016103E+03	1.668108E-03	2.995809E-05
6.026080E+03	1.615136E-03	2.895663E-05
6.036057E+03	1.571619E-03	2.812811E-05
6.046034E+03	1.536433E-03	2.745152E-05
6.056011E+03	1.508733E-03	2.691103E-05
6.065988E+03	1.488162E-03	2.649958E-05
6.075965E+03	1.474614E-03	2.621460E-05
6.085941E+03	1.467751E-03	2.604952E-05
6.095918E+03	1.466899E-03	2.599176E-05
6.105895E+03	1.470941E-03	2.602105E-05
6.115872E+03	1.478512E-03	2.611288E-05
6.125849E+03	1.488074E-03	2.623985E-05
6.135826E+03	1.498110E-03	2.637507E-05
6.145803E+03	1.507354E-03	2.649628E-05
6.155780E+03	1.515106E-03	2.659127E-05
6.165757E+03	1.521124E-03	2.665594E-05
6.175734E+03	1.525708E-03	2.669568E-05
6.185711E+03	1.529619E-03	2.672394E-05
6.195688E+03	1.533853E-03	2.675815E-05
6.205665E+03	1.539364E-03	2.681489E-05
6.215642E+03	1.546889E-03	2.690693E-05
6.225619E+03	1.556661E-03	2.703814E-05
6.235596E+03	1.568322E-03	2.720220E-05
6.245573E+03	1.580722E-03	2.737905E-05
6.255550E+03	1.592106E-03	2.753833E-05
6.265527E+03	1.600419E-03	2.764460E-05
6.275504E+03	1.603468E-03	2.766029E-05
6.285481E+03	1.599259E-03	2.755143E-05
6.295457E+03	1.586111E-03	2.728957E-05
6.305434E+03	1.562958E-03	2.685700E-05
6.315411E+03	1.529382E-03	2.624720E-05
6.325388E+03	1.485825E-03	2.546836E-05
6.335365E+03	1.433525E-03	2.454227E-05
6.345342E+03	1.374555E-03	2.350487E-05
6.355319E+03	1.311645E-03	2.240312E-05
6.365296E+03	1.248026E-03	2.129232E-05
6.375273E+03	1.187226E-03	2.023254E-05
6.385250E+03	1.132862E-03	1.928513E-05
6.395227E+03	1.088487E-03	1.851009E-05
6.405204E+03	1.057406E-03	1.796297E-05
6.415181E+03	1.042615E-03	1.769386E-05
6.425158E+03	1.046961E-03	1.775020E-05
6.435135E+03	1.073547E-03	1.818361E-05
6.445112E+03	1.126177E-03	1.905742E-05
6.455089E+03	1.209787E-03	2.045390E-05
6.465066E+03	1.330872E-03	2.248150E-05
6.475043E+03	1.497974E-03	2.528286E-05
6.485020E+03	1.721609E-03	2.903358E-05
6.494997E+03	2.013582E-03	3.393051E-05
6.504974E+03	2.384610E-03	4.015168E-05
6.514950E+03	2.839114E-03	4.776884E-05
6.524927E+03	3.367583E-03	5.661943E-05
6.534904E+03	3.938455E-03	6.617105E-05
6.544881E+03	4.494914E-03	7.546886E-05
6.554858E+03	4.961767E-03	8.325223E-05
6.564835E+03	5.265453E-03	8.829114E-05
6.574812E+03	5.359719E-03	8.981598E-05
6.584789E+03	5.239583E-03	8.774991E-05
6.594766E+03	4.938341E-03	8.265652E-05
6.604743E+03	4.513775E-03	7.550741E-05
6.614720E+03	4.029502E-03	6.736926E-05
6.624697E+03	3.540299E-03	5.915863E-05
6.634674E+03	3.084766E-03	5.151986E-05
6.644651E+03	2.684604E-03	4.481397E-05
6.654628E+03	2.347829E-03	3.917297E-05
6.664605E+03	2.073299E-03	3.457598E-05
6.674582E+03	1.854813E-03	3.091795E-05
6.684559E+03	1.684226E-03	2.806173E-05
6.694536E+03	1.552965E-03	2.586330E-05
6.704513E+03	1.453172E-03	2.419093E-05
6.714490E+03	1.378214E-03	2.293346E-05
6.724466E+03	1.322686E-03	2.200044E-05
6.734443E+03	1.282267E-03	2.131959E-05
6.744420E+03	1.253501E-03	2.083312E-05
6.754397E+03	1.233671E-03	2.049565E-05
6.764374E+03	1.220556E-03	2.027011E-05
6.774351E+03	1.212348E-03	2.012634E-05
6.784328E+03	1.207537E-03	2.003916E-05
6.794305E+03	1.204868E-03	1.998770E-05
6.804282E+03	1.203343E-03	1.995536E-05
6.814259E+03	1.202151E-03	1.992864E-05
6.824236E+03	1.200726E-03	1.989817E-05
6.834213E+03	1.198691E-03	1.985769E-05
6.844190E+03	1.195888E-03	1.980458E-05
6.854167E+03	1.192345E-03	1.973932E-05
6.864144E+03	1.188242E-03	1.966487E-05
6.874121E+03	1.183884E-03	1.958629E-05
6.884098E+03	1.179677E-03	1.951031E-05
6.894075E+03	1.176025E-03	1.944356E-05
6.904052E+03	1.173331E-03	1.939272E-05
6.914029E+03	1.171949E-03	1.936357E-05
6.924006E+03	1.172093E-03	1.935968E-05
6.933983E+03	1.173814E-03	1.938181E-05
6.943959E+03	1.177022E-03	1.942846E-05
6.953936E+03	1.181495E-03	1.949593E-05
6.963913E+03	1.186840E-03	1.957773E-05
6.973890E+03	1.192600E-03	1.966629E-05
6.983867E+03	1.198240E-03	1.975278E-05
6.993844E+03	1.203326E-03	1.983004E-05
7.003821E+03	1.207395E-03	1.989045E-05
7.013798E+03	1.210127E-03	1.992877E-05
7.023775E+03	1.211317E-03	1.994160E-05
7.033752E+03	1.210791E-03	1.992615E-05
7.043729E+03	1.208365E-03	1.987938E-05
7.053706E+03	1.203840E-03	1.979806E-05
7.063683E+03	1.197001E-03	1.967869E-05
7.073660E+03	1.187786E-03	1.952031E-05
7.083637E+03	1.176402E-03	1.932631E-05
7.093614E+03	1.163299E-03	1.910418E-05
7.103591E+03	1.149207E-03	1.886588E-05
7.113568E+03	1.135126E-03	1.862786E-05
7.123545E+03	1.122234E-03	1.840946E-05
7.133522E+03	1.111833E-03	1.823201E-05
7.143499E+03	1.105265E-03	1.811745E-05
7.153475E+03	1.103748E-03	1.808566E-05
7.163452E+03	1.108269E-03	1.815274E-05
7.173429E+03	1.119421E-03	1.832826E-05
7.183406E+03	1.137419E-03	1.861561E-05
7.193383E+03	1.162097E-03	1.901198E-05
7.203360E+03	1.192885E-03	1.950787E-05
7.213337E+03	1.228725E-03	2.008587E-05
7.223314E+03	1.268147E-03	2.072187E-05
7.233291E+03	1.309255E-03	2.138484E-05
7.243268E+03	1.349755E-03	2.203727E-05
7.253245E+03	1.387207E-03	2.263935E-05
7.263222E+03	1.419161E-03	2.315119E-05
7.273199E+03	1.443464E-03	2.353777E-05
7.283176E+03	1.458366E-03	2.377075E-05
7.293153E+03	1.462849E-03	2.383375E-05
7.303130E+03	1.456699E-03	2.372347E-05
7.313107E+03	1.440490E-03	2.344953E-05
7.323084E+03	1.415529E-03	2.303337E-05
7.333061E+03	1.383720E-03	2.250616E-05
7.343038E+03	1.347261E-03	2.190381E-05
7.353015E+03	1.308490E-03	2.126440E-05
7.362991E+03	1.269631E-03	2.062411E-05
7.372968E+03	1.232618E-03	2.001437E-05
7.382945E+03	1.198950E-03	1.945944E-05
7.392922E+03	1.169606E-03	1.897519E-05
7.402899E+03	1.145103E-03	1.856988E-05
7.412876E+03	1.125372E-03	1.824231E-05
7.422853E+03	1.109932E-03	1.798461E-05
7.432830E+03	1.097870E-03	1.778190E-05
7.442807E+03	1.087894E-03	1.761320E-05
7.452784E+03	1.078474E-03	1.745371E-05
7.462761E+03	1.067818E-03	1.727447E-05
7.472738E+03	1.054152E-03	1.704680E-05
7.482715E+03	1.035863E-03	1.674466E-05
7.492692E+03	1.011898E-03	1.635119E-05
7.502669E+03	9.820522E-04	1.586313E-05
7.512646E+03	9.469009E-04	1.528989E-05
7.522623E+03	9.077900E-04	1.465329E-05
7.532600E+03	8.665733E-04	1.398329E-05
7.542577E+03	8.253907E-04	1.331443E-05
7.552554E+03	7.863873E-04	1.268130E-05
7.562531E+03	7.515306E-04	1.211556E-05
7.572508E+03	7.224293E-04	1.164308E-05
7.582484E+03	7.002845E-04	1.128311E-05
7.592461E+03	6.858834E-04	1.104823E-05
7.602438E+03	6.796503E-04	1.094519E-05
7.612415E+03	6.816484E-04	1.097490E-05
7.622392E+03	6.915441E-04	1.113193E-05
7.632369E+03	7.086066E-04	1.140444E-05
7.642346E+03	7.315810E-04	1.177220E-05
7.652323E+03	7.586700E-04	1.220630E-05
7.662300E+03	7.876944E-04	1.267167E-05
7.672277E+03	8.164132E-04	1.313229E-05
7.682254E+03	8.429821E-04	1.355856E-05
7.692231E+03	8.660999E-04	1.392960E-05
7.702208E+03	8.850938E-04	1.423463E-05
7.712185E+03	8.998675E-04	1.447216E-05
7.722162E+03	9.107707E-04	1.464784E-05
7.732139E+03	9.183991E-04	1.477128E-05
7.742116E+03	9.233536E-04	1.485216E-05
