#wls	flux	fluxerr
1.596313E+03	1.384018E-05	1.402005E-06
1.636220E+03	1.415048E-05	1.430040E-06
1.676128E+03	1.447623E-05	1.459411E-06
1.716036E+03	1.482226E-05	1.490589E-06
1.755944E+03	1.517683E-05	1.522375E-06
1.795852E+03	1.555326E-05	1.556088E-06
1.835759E+03	1.594827E-05	1.591375E-06
1.875667E+03	1.636279E-05	1.628311E-06
1.915575E+03	1.679789E-05	1.666977E-06
1.955483E+03	1.725030E-05	1.707026E-06
1.995391E+03	1.772993E-05	1.749410E-06
2.035298E+03	1.823375E-05	1.793804E-06
2.075206E+03	1.876767E-05	1.840754E-06
2.115114E+03	1.932427E-05	1.889501E-06
2.155022E+03	1.991425E-05	1.941055E-06
2.194930E+03	2.053488E-05	1.995113E-06
2.234838E+03	2.118810E-05	2.051823E-06
2.274745E+03	2.188072E-05	2.111798E-06
2.314653E+03	2.261514E-05	2.175221E-06
2.354561E+03	2.338913E-05	2.241824E-06
2.394469E+03	2.421023E-05	2.312274E-06
2.434377E+03	2.507649E-05	2.386326E-06
2.474284E+03	2.600116E-05	2.465173E-06
2.514192E+03	2.697771E-05	2.548125E-06
2.554100E+03	2.802032E-05	2.636443E-06
2.594008E+03	2.912817E-05	2.729964E-06
2.633916E+03	3.031143E-05	2.829548E-06
2.673823E+03	3.157559E-05	2.935605E-06
2.713731E+03	3.292680E-05	3.048594E-06
2.753639E+03	3.437772E-05	3.169563E-06
2.793547E+03	3.593062E-05	3.298586E-06
2.833455E+03	3.761251E-05	3.437989E-06
2.873363E+03	3.942258E-05	3.587525E-06
2.913270E+03	4.138598E-05	3.749294E-06
2.953178E+03	4.352485E-05	3.925084E-06
2.993086E+03	4.585826E-05	4.116363E-06
3.003063E+03	4.647626E-05	4.166953E-06
3.013040E+03	4.710484E-05	4.218348E-06
3.023017E+03	4.775118E-05	4.271187E-06
3.032994E+03	4.841580E-05	4.325509E-06
3.042971E+03	4.909229E-05	4.380737E-06
3.052948E+03	4.978804E-05	4.437525E-06
3.062925E+03	5.050364E-05	4.495919E-06
3.072902E+03	5.123262E-05	4.555337E-06
3.082879E+03	5.198260E-05	4.616452E-06
3.092856E+03	5.275427E-05	4.679316E-06
3.102832E+03	5.354107E-05	4.743341E-06
3.112809E+03	5.435823E-05	4.809870E-06
3.122786E+03	5.519194E-05	4.877673E-06
3.132763E+03	5.605030E-05	4.947458E-06
3.142740E+03	5.692670E-05	5.018633E-06
3.152717E+03	5.783698E-05	5.092589E-06
3.162694E+03	5.876706E-05	5.168074E-06
3.172671E+03	5.972548E-05	5.245831E-06
3.182648E+03	6.072110E-05	5.326629E-06
3.192625E+03	6.173958E-05	5.409199E-06
3.202602E+03	6.278987E-05	5.494315E-06
3.212579E+03	6.387323E-05	5.582076E-06
3.222556E+03	6.499106E-05	5.672594E-06
3.232533E+03	6.614480E-05	5.765981E-06
3.242510E+03	6.733595E-05	5.862358E-06
3.252487E+03	6.857449E-05	5.962577E-06
3.262464E+03	6.984554E-05	6.065331E-06
3.272441E+03	7.115918E-05	6.171482E-06
3.282418E+03	7.252588E-05	6.281923E-06
3.292395E+03	7.393927E-05	6.396085E-06
3.302372E+03	7.540146E-05	6.514132E-06
3.312348E+03	7.691466E-05	6.636241E-06
3.322325E+03	7.849020E-05	6.763368E-06
3.332302E+03	8.012169E-05	6.894943E-06
3.342279E+03	8.181167E-05	7.031165E-06
3.352256E+03	8.357203E-05	7.173033E-06
3.362233E+03	8.539628E-05	7.319967E-06
3.372210E+03	8.728706E-05	7.472171E-06
3.382187E+03	8.925671E-05	7.630678E-06
3.392164E+03	9.129831E-05	7.794868E-06
3.402141E+03	9.342426E-05	7.965774E-06
3.412118E+03	9.562701E-05	8.142724E-06
3.422095E+03	9.792893E-05	8.327594E-06
3.432072E+03	1.003009E-04	8.517880E-06
3.442049E+03	1.027750E-04	8.716270E-06
3.452026E+03	1.053304E-04	8.920967E-06
3.462003E+03	1.079656E-04	9.131825E-06
3.471980E+03	1.107001E-04	9.350450E-06
3.481957E+03	1.135074E-04	9.574583E-06
3.491934E+03	1.163922E-04	9.804588E-06
3.501911E+03	1.193449E-04	1.003963E-05
3.511888E+03	1.223531E-04	1.027865E-05
3.521864E+03	1.254001E-04	1.052022E-05
3.531841E+03	1.284650E-04	1.076258E-05
3.541818E+03	1.315221E-04	1.100358E-05
3.551795E+03	1.345405E-04	1.124063E-05
3.561772E+03	1.374851E-04	1.147082E-05
3.571749E+03	1.403180E-04	1.169101E-05
3.581726E+03	1.430165E-04	1.189936E-05
3.591703E+03	1.455318E-04	1.209186E-05
3.601680E+03	1.478869E-04	1.227048E-05
3.611657E+03	1.500849E-04	1.243553E-05
3.621634E+03	1.521637E-04	1.259021E-05
3.631611E+03	1.541383E-04	1.273579E-05
3.641588E+03	1.560362E-04	1.287459E-05
3.651565E+03	1.578967E-04	1.300986E-05
3.661542E+03	1.597294E-04	1.314242E-05
3.671519E+03	1.615680E-04	1.327503E-05
3.681496E+03	1.634158E-04	1.340796E-05
3.691473E+03	1.652999E-04	1.354344E-05
3.701450E+03	1.672304E-04	1.368227E-05
3.711427E+03	1.692014E-04	1.382395E-05
3.721404E+03	1.712429E-04	1.397092E-05
3.731381E+03	1.733297E-04	1.412110E-05
3.741357E+03	1.754596E-04	1.427428E-05
3.751334E+03	1.776534E-04	1.443215E-05
3.761311E+03	1.798899E-04	1.459295E-05
3.771288E+03	1.821443E-04	1.475468E-05
3.781265E+03	1.844284E-04	1.491825E-05
3.791242E+03	1.866976E-04	1.508008E-05
3.801219E+03	1.889563E-04	1.524050E-05
3.811196E+03	1.911643E-04	1.539630E-05
3.821173E+03	1.932897E-04	1.554490E-05
3.831150E+03	1.952978E-04	1.568356E-05
3.841127E+03	1.971544E-04	1.580958E-05
3.851104E+03	1.988423E-04	1.592162E-05
3.861081E+03	2.003221E-04	1.601660E-05
3.871058E+03	2.015714E-04	1.609279E-05
3.881035E+03	2.025854E-04	1.614988E-05
3.891012E+03	2.033373E-04	1.618585E-05
3.900989E+03	2.038306E-04	1.620104E-05
3.910966E+03	2.040489E-04	1.619425E-05
3.920943E+03	2.039936E-04	1.616569E-05
3.930920E+03	2.036963E-04	1.611794E-05
3.940897E+03	2.031352E-04	1.604939E-05
3.950873E+03	2.023683E-04	1.596468E-05
3.960850E+03	2.014031E-04	1.586449E-05
3.970827E+03	2.002807E-04	1.575211E-05
3.980804E+03	1.990615E-04	1.563236E-05
3.990781E+03	1.978118E-04	1.551045E-05
4.000758E+03	1.965579E-04	1.538848E-05
4.010735E+03	1.953889E-04	1.527339E-05
4.020712E+03	1.943291E-04	1.516705E-05
4.030689E+03	1.934176E-04	1.507246E-05
4.040666E+03	1.926630E-04	1.499026E-05
4.050643E+03	1.920528E-04	1.491940E-05
4.060620E+03	1.915428E-04	1.485641E-05
4.070597E+03	1.911001E-04	1.479869E-05
4.080574E+03	1.906433E-04	1.473994E-05
4.090551E+03	1.901168E-04	1.467586E-05
4.100528E+03	1.894582E-04	1.460167E-05
4.110505E+03	1.886176E-04	1.451359E-05
4.120482E+03	1.875639E-04	1.440926E-05
4.130459E+03	1.862850E-04	1.428788E-05
4.140436E+03	1.847887E-04	1.415010E-05
4.150413E+03	1.830923E-04	1.399734E-05
4.160390E+03	1.812434E-04	1.383330E-05
4.170366E+03	1.792961E-04	1.366216E-05
4.180343E+03	1.772842E-04	1.348653E-05
4.190320E+03	1.752592E-04	1.331036E-05
4.200297E+03	1.732879E-04	1.313871E-05
4.210274E+03	1.714083E-04	1.297444E-05
4.220251E+03	1.696864E-04	1.282249E-05
4.230228E+03	1.681520E-04	1.268507E-05
4.240205E+03	1.668725E-04	1.256718E-05
4.250182E+03	1.658769E-04	1.247090E-05
4.260159E+03	1.652057E-04	1.239915E-05
4.270136E+03	1.648811E-04	1.235349E-05
4.280113E+03	1.649076E-04	1.233410E-05
4.290090E+03	1.652817E-04	1.234061E-05
4.300067E+03	1.659903E-04	1.237187E-05
4.310044E+03	1.669995E-04	1.242525E-05
4.320021E+03	1.682561E-04	1.249669E-05
4.329998E+03	1.697022E-04	1.258177E-05
4.339975E+03	1.712726E-04	1.267560E-05
4.349952E+03	1.729068E-04	1.277366E-05
4.359929E+03	1.745341E-04	1.287070E-05
4.369906E+03	1.761222E-04	1.296436E-05
4.379882E+03	1.776388E-04	1.305227E-05
4.389859E+03	1.791034E-04	1.313589E-05
4.399836E+03	1.805439E-04	1.321727E-05
4.409813E+03	1.820315E-04	1.330163E-05
4.419790E+03	1.836512E-04	1.339515E-05
4.429767E+03	1.855025E-04	1.350502E-05
4.439744E+03	1.876880E-04	1.363859E-05
4.449721E+03	1.903516E-04	1.380616E-05
4.459698E+03	1.936130E-04	1.401620E-05
4.469675E+03	1.976263E-04	1.427959E-05
4.479652E+03	2.025282E-04	1.460588E-05
4.489629E+03	2.084545E-04	1.500446E-05
4.499606E+03	2.155185E-04	1.548305E-05
4.509583E+03	2.237893E-04	1.604611E-05
4.519560E+03	2.333036E-04	1.669576E-05
4.529537E+03	2.440028E-04	1.742727E-05
4.539514E+03	2.557488E-04	1.823028E-05
4.549491E+03	2.683145E-04	1.908819E-05
4.559468E+03	2.813714E-04	1.997730E-05
4.569445E+03	2.945222E-04	2.086923E-05
4.579422E+03	3.073258E-04	2.173274E-05
4.589398E+03	3.193116E-04	2.253473E-05
4.599375E+03	3.300745E-04	2.324701E-05
4.609352E+03	3.392728E-04	2.384606E-05
4.619329E+03	3.466472E-04	2.431436E-05
4.629306E+03	3.520670E-04	2.464354E-05
4.639283E+03	3.555012E-04	2.483227E-05
4.649260E+03	3.569925E-04	2.488439E-05
4.659237E+03	3.566975E-04	2.481164E-05
4.669214E+03	3.548151E-04	2.462860E-05
4.679191E+03	3.516522E-04	2.435723E-05
4.689168E+03	3.475471E-04	2.402149E-05
4.699145E+03	3.429139E-04	2.365035E-05
4.709122E+03	3.381406E-04	2.327077E-05
4.719099E+03	3.336441E-04	2.291144E-05
4.729076E+03	3.298044E-04	2.259827E-05
4.739053E+03	3.269647E-04	2.235445E-05
4.749030E+03	3.254367E-04	2.220079E-05
4.759007E+03	3.254767E-04	2.215414E-05
4.768984E+03	3.272975E-04	2.222824E-05
4.778961E+03	3.310116E-04	2.242990E-05
4.788938E+03	3.366530E-04	2.276053E-05
4.798915E+03	3.441939E-04	2.321737E-05
4.808891E+03	3.534757E-04	2.378885E-05
4.818868E+03	3.642713E-04	2.445891E-05
4.828845E+03	3.762268E-04	2.520310E-05
4.838822E+03	3.888617E-04	2.598876E-05
4.848799E+03	4.016079E-04	2.677766E-05
4.858776E+03	4.138539E-04	2.752907E-05
4.868753E+03	4.250091E-04	2.820399E-05
4.878730E+03	4.345804E-04	2.877027E-05
4.888707E+03	4.422270E-04	2.920616E-05
4.898684E+03	4.478740E-04	2.950762E-05
4.908661E+03	4.516509E-04	2.968411E-05
4.918638E+03	4.538142E-04	2.975334E-05
4.928615E+03	4.547153E-04	2.973906E-05
4.938592E+03	4.546761E-04	2.966289E-05
4.948569E+03	4.539634E-04	2.954265E-05
4.958546E+03	4.527192E-04	2.938789E-05
4.968523E+03	4.509283E-04	2.919787E-05
4.978500E+03	4.483913E-04	2.896000E-05
4.988477E+03	4.447417E-04	2.865104E-05
4.998454E+03	4.395006E-04	2.824078E-05
5.008431E+03	4.322230E-04	2.770148E-05
5.018407E+03	4.225939E-04	2.701406E-05
5.028384E+03	4.104941E-04	2.617207E-05
5.038361E+03	3.961222E-04	2.518944E-05
5.048338E+03	3.799899E-04	2.409976E-05
5.058315E+03	3.628996E-04	2.295471E-05
5.068292E+03	3.457836E-04	2.181361E-05
5.078269E+03	3.296828E-04	2.074200E-05
5.088246E+03	3.155540E-04	1.979942E-05
5.098223E+03	3.041731E-04	1.903344E-05
5.108200E+03	2.960975E-04	1.847745E-05
5.118177E+03	2.916697E-04	1.815109E-05
5.128154E+03	2.910237E-04	1.806081E-05
5.138131E+03	2.940500E-04	1.819787E-05
5.148108E+03	3.004603E-04	1.854259E-05
5.158085E+03	3.098255E-04	1.906678E-05
5.168062E+03	3.215532E-04	1.973256E-05
5.178039E+03	3.349220E-04	2.049452E-05
5.188016E+03	3.491505E-04	2.130411E-05
5.197993E+03	3.634641E-04	2.211374E-05
5.207970E+03	3.771421E-04	2.287963E-05
5.217947E+03	3.895870E-04	2.356595E-05
5.227923E+03	4.003975E-04	2.414914E-05
5.237900E+03	4.093452E-04	2.461632E-05
5.247877E+03	4.164371E-04	2.496889E-05
5.257854E+03	4.218292E-04	2.521716E-05
5.267831E+03	4.258073E-04	2.537908E-05
5.277808E+03	4.286567E-04	2.547235E-05
5.287785E+03	4.306254E-04	2.551227E-05
5.297762E+03	4.318839E-04	2.550939E-05
5.307739E+03	4.326068E-04	2.547437E-05
5.317716E+03	4.329685E-04	2.541775E-05
5.327693E+03	4.331430E-04	2.534990E-05
5.337670E+03	4.333211E-04	2.528208E-05
5.347647E+03	4.336644E-04	2.522368E-05
5.357624E+03	4.343191E-04	2.518309E-05
5.367601E+03	4.354253E-04	2.516825E-05
5.377578E+03	4.370684E-04	2.518383E-05
5.387555E+03	4.392975E-04	2.523238E-05
5.397532E+03	4.421394E-04	2.531512E-05
5.407509E+03	4.455539E-04	2.542940E-05
5.417486E+03	4.494730E-04	2.557107E-05
5.427463E+03	4.538129E-04	2.573510E-05
5.437440E+03	4.584878E-04	2.591641E-05
5.447416E+03	4.633843E-04	2.610843E-05
5.457393E+03	4.684017E-04	2.630540E-05
5.467370E+03	4.733882E-04	2.649875E-05
5.477347E+03	4.781301E-04	2.667660E-05
5.487324E+03	4.823086E-04	2.682134E-05
5.497301E+03	4.854986E-04	2.690974E-05
5.507278E+03	4.872344E-04	2.691663E-05
5.517255E+03	4.871075E-04	2.682031E-05
5.527232E+03	4.848877E-04	2.660920E-05
5.537209E+03	4.805855E-04	2.628502E-05
5.547186E+03	4.744447E-04	2.586222E-05
5.557163E+03	4.669461E-04	2.536791E-05
5.567140E+03	4.587495E-04	2.483859E-05
5.577117E+03	4.505531E-04	2.431232E-05
5.587094E+03	4.430281E-04	2.382517E-05
5.597071E+03	4.367333E-04	2.340675E-05
5.607048E+03	4.320881E-04	2.307878E-05
5.617025E+03	4.293147E-04	2.285218E-05
5.627002E+03	4.284320E-04	2.272693E-05
5.636979E+03	4.292861E-04	2.269386E-05
5.646956E+03	4.315399E-04	2.273428E-05
5.656932E+03	4.346722E-04	2.282005E-05
5.666909E+03	4.380583E-04	2.291802E-05
5.676886E+03	4.409851E-04	2.299088E-05
5.686863E+03	4.427271E-04	2.300119E-05
5.696840E+03	4.426693E-04	2.291777E-05
5.706817E+03	4.403810E-04	2.271938E-05
5.716794E+03	4.357030E-04	2.239906E-05
5.726771E+03	4.288061E-04	2.196686E-05
5.736748E+03	4.202231E-04	2.145119E-05
5.746725E+03	4.107829E-04	2.089512E-05
5.756702E+03	4.015693E-04	2.035405E-05
5.766679E+03	3.938403E-04	1.989140E-05
5.776656E+03	3.888723E-04	1.957060E-05
5.786633E+03	3.877888E-04	1.944650E-05
5.796610E+03	3.915105E-04	1.956303E-05
5.806587E+03	4.007898E-04	1.995507E-05
5.816564E+03	4.162428E-04	2.065024E-05
5.826541E+03	4.383217E-04	2.166760E-05
5.836518E+03	4.671836E-04	2.301140E-05
5.846495E+03	5.024667E-04	2.466031E-05
5.856472E+03	5.429350E-04	2.655053E-05
5.866449E+03	5.863288E-04	2.856929E-05
5.876425E+03	6.293240E-04	3.055373E-05
5.886402E+03	6.677895E-04	3.230430E-05
5.896379E+03	6.974409E-04	3.361695E-05
5.906356E+03	7.148359E-04	3.433104E-05
5.916333E+03	7.184022E-04	3.437777E-05
5.926310E+03	7.086202E-04	3.378728E-05
5.936287E+03	6.877107E-04	3.267198E-05
5.946264E+03	6.589898E-04	3.119458E-05
5.956241E+03	6.260969E-04	2.953069E-05
5.966218E+03	5.922239E-04	2.783241E-05
5.976195E+03	5.597638E-04	2.621225E-05
5.986172E+03	5.302957E-04	2.474309E-05
5.996149E+03	5.046980E-04	2.346423E-05
6.006126E+03	4.832646E-04	2.238727E-05
6.016103E+03	4.659593E-04	2.150842E-05
6.026080E+03	4.525827E-04	2.081643E-05
6.036057E+03	4.428841E-04	2.029785E-05
6.046034E+03	4.366201E-04	1.993974E-05
6.056011E+03	4.335829E-04	1.973097E-05
6.065988E+03	4.336184E-04	1.966299E-05
6.075965E+03	4.365559E-04	1.972663E-05
6.085941E+03	4.421151E-04	1.990790E-05
6.095918E+03	4.498268E-04	2.018454E-05
6.105895E+03	4.590624E-04	2.052749E-05
6.115872E+03	4.691048E-04	2.090412E-05
6.125849E+03	4.792041E-04	2.128082E-05
6.135826E+03	4.886542E-04	2.162638E-05
6.145803E+03	4.969295E-04	2.191797E-05
6.155780E+03	5.037725E-04	2.214486E-05
6.165757E+03	5.092441E-04	2.231042E-05
6.175734E+03	5.137024E-04	2.243093E-05
6.185711E+03	5.178025E-04	2.253539E-05
6.195688E+03	5.223317E-04	2.265815E-05
6.205665E+03	5.280266E-04	2.283093E-05
6.215642E+03	5.354005E-04	2.307541E-05
6.225619E+03	5.446825E-04	2.340081E-05
6.235596E+03	5.557683E-04	2.380194E-05
6.245573E+03	5.681347E-04	2.425585E-05
6.255550E+03	5.809443E-04	2.472646E-05
6.265527E+03	5.931511E-04	2.516932E-05
6.275504E+03	6.036786E-04	2.553924E-05
6.285481E+03	6.114891E-04	2.579318E-05
6.295457E+03	6.156612E-04	2.589349E-05
6.305434E+03	6.155400E-04	2.581411E-05
6.315411E+03	6.107836E-04	2.554233E-05
6.325388E+03	6.013975E-04	2.508001E-05
6.335365E+03	5.878281E-04	2.444732E-05
6.345342E+03	5.709124E-04	2.368031E-05
6.355319E+03	5.518668E-04	2.283034E-05
6.365296E+03	5.322701E-04	2.196313E-05
6.375273E+03	5.138223E-04	2.114871E-05
6.385250E+03	4.982472E-04	2.045738E-05
6.395227E+03	4.871960E-04	1.995580E-05
6.405204E+03	4.822036E-04	1.970532E-05
6.415181E+03	4.846930E-04	1.976218E-05
6.425158E+03	4.960056E-04	2.017894E-05
6.435135E+03	5.176012E-04	2.101262E-05
6.445112E+03	5.512440E-04	2.233222E-05
6.455089E+03	5.991120E-04	2.422311E-05
6.465066E+03	6.638979E-04	2.679098E-05
6.475043E+03	7.487879E-04	3.016087E-05
6.485020E+03	8.572035E-04	3.446671E-05
6.494997E+03	9.921903E-04	3.982680E-05
6.504974E+03	1.155208E-03	4.629559E-05
6.514950E+03	1.344116E-03	5.378358E-05
6.524927E+03	1.550666E-03	6.195822E-05
6.534904E+03	1.759021E-03	7.018643E-05
6.544881E+03	1.946658E-03	7.757218E-05
6.554858E+03	2.088187E-03	8.310981E-05
6.564835E+03	2.162200E-03	8.595624E-05
6.574812E+03	2.158350E-03	8.571032E-05
6.584789E+03	2.079823E-03	8.250838E-05
6.594766E+03	1.940986E-03	7.692796E-05
6.604743E+03	1.762722E-03	6.980158E-05
6.614720E+03	1.566809E-03	6.199343E-05
6.624697E+03	1.371799E-03	5.423706E-05
6.634674E+03	1.190946E-03	4.705452E-05
6.644651E+03	1.031954E-03	4.074737E-05
6.654628E+03	8.978257E-04	3.543129E-05
6.664605E+03	7.883418E-04	3.109500E-05
6.674582E+03	7.013815E-04	2.765258E-05
6.684559E+03	6.339051E-04	2.498244E-05
6.694536E+03	5.825144E-04	2.294931E-05
6.704513E+03	5.440182E-04	2.142649E-05
6.714490E+03	5.156276E-04	2.030345E-05
6.724466E+03	4.949672E-04	1.948621E-05
6.734443E+03	4.800641E-04	1.889676E-05
6.744420E+03	4.693205E-04	1.847203E-05
6.754397E+03	4.615239E-04	1.816414E-05
6.764374E+03	4.557243E-04	1.793562E-05
6.774351E+03	4.512065E-04	1.775828E-05
6.784328E+03	4.474375E-04	1.761106E-05
6.794305E+03	4.440503E-04	1.747951E-05
6.804282E+03	4.407927E-04	1.735364E-05
6.814259E+03	4.375366E-04	1.722838E-05
6.824236E+03	4.342280E-04	1.710157E-05
6.834213E+03	4.308860E-04	1.697391E-05
6.844190E+03	4.275437E-04	1.684667E-05
6.854167E+03	4.242814E-04	1.672298E-05
6.864144E+03	4.212011E-04	1.660684E-05
6.874121E+03	4.184242E-04	1.650300E-05
6.884098E+03	4.160803E-04	1.641656E-05
6.894075E+03	4.142842E-04	1.635205E-05
6.904052E+03	4.131495E-04	1.631394E-05
6.914029E+03	4.127611E-04	1.630561E-05
6.924006E+03	4.132105E-04	1.633068E-05
6.933983E+03	4.145937E-04	1.639297E-05
6.943959E+03	4.169928E-04	1.649578E-05
6.953936E+03	4.204471E-04	1.664069E-05
6.963913E+03	4.249029E-04	1.682564E-05
6.973890E+03	4.302586E-04	1.704664E-05
6.983867E+03	4.363296E-04	1.729643E-05
6.993844E+03	4.428810E-04	1.756572E-05
7.003821E+03	4.496157E-04	1.784276E-05
7.013798E+03	4.562445E-04	1.811606E-05
7.023775E+03	4.624614E-04	1.837343E-05
7.033752E+03	4.679691E-04	1.860304E-05
7.043729E+03	4.724754E-04	1.879319E-05
7.053706E+03	4.756817E-04	1.893193E-05
7.063683E+03	4.773439E-04	1.900942E-05
7.073660E+03	4.773401E-04	1.902069E-05
7.083637E+03	4.757042E-04	1.896695E-05
7.093614E+03	4.726572E-04	1.885689E-05
7.103591E+03	4.686166E-04	1.870706E-05
7.113568E+03	4.641801E-04	1.854126E-05
7.123545E+03	4.600998E-04	1.838949E-05
7.133522E+03	4.572415E-04	1.828642E-05
7.143499E+03	4.565384E-04	1.826945E-05
7.153475E+03	4.589497E-04	1.837714E-05
7.163452E+03	4.653722E-04	1.864566E-05
7.173429E+03	4.765891E-04	1.910667E-05
7.183406E+03	4.932011E-04	1.978463E-05
7.193383E+03	5.155120E-04	2.069211E-05
7.203360E+03	5.433201E-04	2.182141E-05
7.213337E+03	5.758787E-04	2.314290E-05
7.223314E+03	6.118688E-04	2.460389E-05
7.233291E+03	6.493646E-04	2.612711E-05
7.243268E+03	6.858608E-04	2.761180E-05
7.253245E+03	7.185445E-04	2.894455E-05
7.263222E+03	7.446580E-04	3.001395E-05
7.273199E+03	7.618266E-04	3.072374E-05
7.283176E+03	7.685041E-04	3.101089E-05
7.293153E+03	7.642856E-04	3.085834E-05
7.303130E+03	7.498739E-04	3.029370E-05
7.313107E+03	7.267890E-04	2.937774E-05
7.323084E+03	6.971687E-04	2.819633E-05
7.333061E+03	6.633735E-04	2.684456E-05
7.343038E+03	6.277004E-04	2.541515E-05
7.353015E+03	5.922442E-04	2.399288E-05
7.362991E+03	5.586951E-04	2.264627E-05
7.372968E+03	5.283105E-04	2.142646E-05
7.382945E+03	5.019115E-04	2.036701E-05
7.392922E+03	4.799457E-04	1.948635E-05
7.402899E+03	4.624926E-04	1.878802E-05
7.412876E+03	4.493513E-04	1.826418E-05
7.422853E+03	4.400570E-04	1.789621E-05
7.432830E+03	4.339302E-04	1.765672E-05
7.442807E+03	4.300672E-04	1.750915E-05
7.452784E+03	4.273594E-04	1.740850E-05
7.462761E+03	4.246087E-04	1.730603E-05
7.472738E+03	4.205491E-04	1.715011E-05
7.482715E+03	4.139888E-04	1.689204E-05
7.492692E+03	4.039766E-04	1.649281E-05
7.502669E+03	3.899877E-04	1.593076E-05
7.512646E+03	3.721015E-04	1.520886E-05
7.522623E+03	3.511313E-04	1.436009E-05
7.532600E+03	3.285891E-04	1.344610E-05
7.542577E+03	3.062223E-04	1.253831E-05
7.552554E+03	2.856190E-04	1.170179E-05
7.562531E+03	2.680207E-04	1.098754E-05
7.572508E+03	2.543048E-04	1.043178E-05
7.582484E+03	2.450317E-04	1.005780E-05
7.592461E+03	2.405177E-04	9.878938E-06
7.602438E+03	2.409524E-04	9.903360E-06
7.612415E+03	2.464385E-04	1.013572E-05
7.622392E+03	2.569247E-04	1.057434E-05
7.632369E+03	2.721780E-04	1.121008E-05
7.642346E+03	2.916521E-04	1.202090E-05
7.652323E+03	3.143559E-04	1.296635E-05
7.662300E+03	3.387698E-04	1.398409E-05
7.672277E+03	3.630531E-04	1.499830E-05
7.682254E+03	3.852941E-04	1.593001E-05
7.692231E+03	4.037802E-04	1.670824E-05
7.702208E+03	4.172670E-04	1.728115E-05
7.712185E+03	4.251836E-04	1.762459E-05
7.722162E+03	4.276875E-04	1.774455E-05
7.732139E+03	4.254782E-04	1.766949E-05
7.742116E+03	4.196751E-04	1.744540E-05
