#wls	flux	fluxerr
1.600000E+03	4.823915E-17	2.114096E-18
1.640000E+03	4.851851E-17	2.114181E-18
1.680000E+03	4.878296E-17	2.113197E-18
1.720000E+03	4.904207E-17	2.111560E-18
1.760000E+03	4.928950E-17	2.108992E-18
1.800000E+03	4.953659E-17	2.105976E-18
1.840000E+03	4.977889E-17	2.102314E-18
1.880000E+03	5.003807E-17	2.098912E-18
1.920000E+03	5.030319E-17	2.095288E-18
1.960000E+03	5.058934E-17	2.092052E-18
2.000000E+03	5.090405E-17	2.089484E-18
2.040000E+03	5.126383E-17	2.088219E-18
2.080000E+03	5.166047E-17	2.087872E-18
2.120000E+03	5.212810E-17	2.089762E-18
2.160000E+03	5.265041E-17	2.093159E-18
2.200000E+03	5.326158E-17	2.099339E-18
2.240000E+03	5.395327E-17	2.107868E-18
2.280000E+03	5.474202E-17	2.119286E-18
2.320000E+03	5.563539E-17	2.133756E-18
2.360000E+03	5.664017E-17	2.151400E-18
2.400000E+03	5.777120E-17	2.172629E-18
2.440000E+03	5.902519E-17	2.197147E-18
2.480000E+03	6.041569E-17	2.225282E-18
2.520000E+03	6.194695E-17	2.256994E-18
2.560000E+03	6.362276E-17	2.292215E-18
2.600000E+03	6.545593E-17	2.331184E-18
2.640000E+03	6.743096E-17	2.373117E-18
2.680000E+03	6.957979E-17	2.418898E-18
2.720000E+03	7.188682E-17	2.467719E-18
2.760000E+03	7.437586E-17	2.520127E-18
2.800000E+03	7.704157E-17	2.575644E-18
2.840000E+03	7.988881E-17	2.634132E-18
2.880000E+03	8.294465E-17	2.696158E-18
2.920000E+03	8.619428E-17	2.760893E-18
2.960000E+03	8.966697E-17	2.828915E-18
3.000000E+03	9.336002E-17	2.899750E-18
3.010000E+03	9.432531E-17	2.918088E-18
3.020000E+03	9.530078E-17	2.936457E-18
3.030000E+03	9.628649E-17	2.954855E-18
3.040000E+03	9.729441E-17	2.973644E-18
3.050000E+03	9.832484E-17	2.992823E-18
3.060000E+03	9.936606E-17	3.012026E-18
3.070000E+03	1.004182E-16	3.031253E-18
3.080000E+03	1.014813E-16	3.050501E-18
3.090000E+03	1.025801E-16	3.070501E-18
3.100000E+03	1.036780E-16	3.090154E-18
3.110000E+03	1.047999E-16	3.110190E-18
3.120000E+03	1.059460E-16	3.130611E-18
3.130000E+03	1.071042E-16	3.151047E-18
3.140000E+03	1.082872E-16	3.171868E-18
3.150000E+03	1.094827E-16	3.192703E-18
3.160000E+03	1.106911E-16	3.213552E-18
3.170000E+03	1.119250E-16	3.234781E-18
3.180000E+03	1.131720E-16	3.256020E-18
3.190000E+03	1.144454E-16	3.277640E-18
3.200000E+03	1.157454E-16	3.299639E-18
3.210000E+03	1.170594E-16	3.321646E-18
3.220000E+03	1.183875E-16	3.343657E-18
3.230000E+03	1.197431E-16	3.366046E-18
3.240000E+03	1.211266E-16	3.388805E-18
3.250000E+03	1.225248E-16	3.411562E-18
3.260000E+03	1.239379E-16	3.434309E-18
3.270000E+03	1.253795E-16	3.457417E-18
3.280000E+03	1.268498E-16	3.480881E-18
3.290000E+03	1.283353E-16	3.504316E-18
3.300000E+03	1.298497E-16	3.528089E-18
3.310000E+03	1.313791E-16	3.551812E-18
3.320000E+03	1.329374E-16	3.575851E-18
3.330000E+03	1.345101E-16	3.599806E-18
3.340000E+03	1.361112E-16	3.624043E-18
3.350000E+03	1.377260E-16	3.648158E-18
3.360000E+03	1.393680E-16	3.672505E-18
3.370000E+03	1.410223E-16	3.696676E-18
3.380000E+03	1.427022E-16	3.721017E-18
3.390000E+03	1.444068E-16	3.745492E-18
3.400000E+03	1.461202E-16	3.769678E-18
3.410000E+03	1.478556E-16	3.793911E-18
3.420000E+03	1.495963E-16	3.817755E-18
3.430000E+03	1.513553E-16	3.841539E-18
3.440000E+03	1.531154E-16	3.864820E-18
3.450000E+03	1.548894E-16	3.887920E-18
3.460000E+03	1.566598E-16	3.910392E-18
3.470000E+03	1.584551E-16	3.932949E-18
3.480000E+03	1.602286E-16	3.954425E-18
3.490000E+03	1.620116E-16	3.975603E-18
3.500000E+03	1.638071E-16	3.996547E-18
3.510000E+03	1.656182E-16	4.017330E-18
3.520000E+03	1.674324E-16	4.037642E-18
3.530000E+03	1.692530E-16	4.057565E-18
3.540000E+03	1.710992E-16	4.077554E-18
3.550000E+03	1.729747E-16	4.097683E-18
3.560000E+03	1.748665E-16	4.117639E-18
3.570000E+03	1.767941E-16	4.137870E-18
3.580000E+03	1.787446E-16	4.158058E-18
3.590000E+03	1.807372E-16	4.178643E-18
3.600000E+03	1.827751E-16	4.199681E-18
3.610000E+03	1.848451E-16	4.220847E-18
3.620000E+03	1.869663E-16	4.242569E-18
3.630000E+03	1.891250E-16	4.264515E-18
3.640000E+03	1.913409E-16	4.287111E-18
3.650000E+03	1.936168E-16	4.310396E-18
3.660000E+03	1.959383E-16	4.334030E-18
3.670000E+03	1.983079E-16	4.358050E-18
3.680000E+03	2.007456E-16	4.382872E-18
3.690000E+03	2.032538E-16	4.408526E-18
3.700000E+03	2.058178E-16	4.434663E-18
3.710000E+03	2.084577E-16	4.461695E-18
3.720000E+03	2.111582E-16	4.489266E-18
3.730000E+03	2.139395E-16	4.517782E-18
3.740000E+03	2.168042E-16	4.547266E-18
3.750000E+03	2.197369E-16	4.577365E-18
3.760000E+03	2.227398E-16	4.608100E-18
3.770000E+03	2.258335E-16	4.639871E-18
3.780000E+03	2.290206E-16	4.672695E-18
3.790000E+03	2.322850E-16	4.706214E-18
3.800000E+03	2.356288E-16	4.740441E-18
3.810000E+03	2.390923E-16	4.776156E-18
3.820000E+03	2.426209E-16	4.812230E-18
3.830000E+03	2.462549E-16	4.849440E-18
3.840000E+03	2.499969E-16	4.887797E-18
3.850000E+03	2.538297E-16	4.926932E-18
3.860000E+03	2.577555E-16	4.966856E-18
3.870000E+03	2.617960E-16	5.007961E-18
3.880000E+03	2.659538E-16	5.050253E-18
3.890000E+03	2.702111E-16	5.093362E-18
3.900000E+03	2.745695E-16	5.137287E-18
3.910000E+03	2.790516E-16	5.182421E-18
3.920000E+03	2.836389E-16	5.228384E-18
3.930000E+03	2.883540E-16	5.275563E-18
3.940000E+03	2.931777E-16	5.323572E-18
3.950000E+03	2.981117E-16	5.372413E-18
3.960000E+03	3.031789E-16	5.422471E-18
3.970000E+03	3.083593E-16	5.473357E-18
3.980000E+03	3.136765E-16	5.525459E-18
3.990000E+03	3.190869E-16	5.577982E-18
4.000000E+03	3.246592E-16	5.632107E-18
4.010000E+03	3.303261E-16	5.686635E-18
4.020000E+03	3.361344E-16	5.742353E-18
4.030000E+03	3.420615E-16	5.798853E-18
4.040000E+03	3.481315E-16	5.856520E-18
4.050000E+03	3.542965E-16	5.914537E-18
4.060000E+03	3.606046E-16	5.973691E-18
4.070000E+03	3.670310E-16	6.033561E-18
4.080000E+03	3.736001E-16	6.094534E-18
4.090000E+03	3.802860E-16	6.156178E-18
4.100000E+03	3.870613E-16	6.218053E-18
4.110000E+03	3.940015E-16	6.281371E-18
4.120000E+03	4.010267E-16	6.344857E-18
4.130000E+03	4.081598E-16	6.408887E-18
4.140000E+03	4.154244E-16	6.473844E-18
4.150000E+03	4.227628E-16	6.538840E-18
4.160000E+03	4.302245E-16	6.604669E-18
4.170000E+03	4.377775E-16	6.670858E-18
4.180000E+03	4.454154E-16	6.737345E-18
4.190000E+03	4.531314E-16	6.804061E-18
4.200000E+03	4.609177E-16	6.870934E-18
4.210000E+03	4.687654E-16	6.937880E-18
4.220000E+03	4.766941E-16	7.005241E-18
4.230000E+03	4.846339E-16	7.072048E-18
4.240000E+03	4.926016E-16	7.138621E-18
4.250000E+03	5.005835E-16	7.204834E-18
4.260000E+03	5.085641E-16	7.270550E-18
4.270000E+03	5.165266E-16	7.335614E-18
4.280000E+03	5.244523E-16	7.399858E-18
4.290000E+03	5.323203E-16	7.463094E-18
4.300000E+03	5.401085E-16	7.525118E-18
4.310000E+03	5.477591E-16	7.585251E-18
4.320000E+03	5.553094E-16	7.644137E-18
4.330000E+03	5.626641E-16	7.700592E-18
4.340000E+03	5.698215E-16	7.754741E-18
4.350000E+03	5.767424E-16	7.806197E-18
4.360000E+03	5.833815E-16	7.854501E-18
4.370000E+03	5.896518E-16	7.898645E-18
4.380000E+03	5.955296E-16	7.938486E-18
4.390000E+03	6.009689E-16	7.973583E-18
4.400000E+03	6.059580E-16	8.003952E-18
4.410000E+03	6.104854E-16	8.029609E-18
4.420000E+03	6.146218E-16	8.051637E-18
4.430000E+03	6.184025E-16	8.070641E-18
4.440000E+03	6.218233E-16	8.086689E-18
4.450000E+03	6.249446E-16	8.100685E-18
4.460000E+03	6.277893E-16	8.113028E-18
4.470000E+03	6.303438E-16	8.123640E-18
4.480000E+03	6.326621E-16	8.133290E-18
4.490000E+03	6.347284E-16	8.141798E-18
4.500000E+03	6.365946E-16	8.149832E-18
4.510000E+03	6.382430E-16	8.157158E-18
4.520000E+03	6.397238E-16	8.164406E-18
4.530000E+03	6.410517E-16	8.171743E-18
4.540000E+03	6.422069E-16	8.178888E-18
4.550000E+03	6.432027E-16	8.185983E-18
4.560000E+03	6.440858E-16	8.193583E-18
4.570000E+03	6.448677E-16	8.201795E-18
4.580000E+03	6.454922E-16	8.209862E-18
4.590000E+03	6.460708E-16	8.219154E-18
4.600000E+03	6.465126E-16	8.228467E-18
4.610000E+03	6.468938E-16	8.238718E-18
4.620000E+03	6.472228E-16	8.249963E-18
4.630000E+03	6.474745E-16	8.261828E-18
4.640000E+03	6.476567E-16	8.274355E-18
4.650000E+03	6.478093E-16	8.287999E-18
4.660000E+03	6.479062E-16	8.302371E-18
4.670000E+03	6.479539E-16	8.317495E-18
4.680000E+03	6.479906E-16	8.333808E-18
4.690000E+03	6.479571E-16	8.350489E-18
4.700000E+03	6.479554E-16	8.368799E-18
4.710000E+03	6.478937E-16	8.387497E-18
4.720000E+03	6.478408E-16	8.407419E-18
4.730000E+03	6.477689E-16	8.428151E-18
4.740000E+03	6.477137E-16	8.450106E-18
4.750000E+03	6.476155E-16	8.472454E-18
4.760000E+03	6.475411E-16	8.496015E-18
4.770000E+03	6.474623E-16	8.520374E-18
4.780000E+03	6.474132E-16	8.545931E-18
4.790000E+03	6.473653E-16	8.572266E-18
4.800000E+03	6.473214E-16	8.599370E-18
4.810000E+03	6.472840E-16	8.627231E-18
4.820000E+03	6.472553E-16	8.655838E-18
4.830000E+03	6.472683E-16	8.685589E-18
4.840000E+03	6.472635E-16	8.715649E-18
4.850000E+03	6.473347E-16	8.747242E-18
4.860000E+03	6.473918E-16	8.779118E-18
4.870000E+03	6.474669E-16	8.811673E-18
4.880000E+03	6.475919E-16	8.845309E-18
4.890000E+03	6.477378E-16	8.879599E-18
4.900000E+03	6.479058E-16	8.914529E-18
4.910000E+03	6.480970E-16	8.950086E-18
4.920000E+03	6.483127E-16	8.986254E-18
4.930000E+03	6.485838E-16	9.023439E-18
4.940000E+03	6.488812E-16	9.061213E-18
4.950000E+03	6.492057E-16	9.099561E-18
4.960000E+03	6.495583E-16	9.138472E-18
4.970000E+03	6.499396E-16	9.177934E-18
4.980000E+03	6.503801E-16	9.218357E-18
4.990000E+03	6.508506E-16	9.259309E-18
5.000000E+03	6.513516E-16	9.300779E-18
5.010000E+03	6.518840E-16	9.342759E-18
5.020000E+03	6.524481E-16	9.385239E-18
5.030000E+03	6.530739E-16	9.428635E-18
5.040000E+03	6.537029E-16	9.472086E-18
5.050000E+03	6.543945E-16	9.516439E-18
5.060000E+03	6.551195E-16	9.561258E-18
5.070000E+03	6.558784E-16	9.606538E-18
5.080000E+03	6.567007E-16	9.652701E-18
5.090000E+03	6.575281E-16	9.698879E-18
5.100000E+03	6.584197E-16	9.745931E-18
5.110000E+03	6.593459E-16	9.793414E-18
5.120000E+03	6.603071E-16	9.841325E-18
5.130000E+03	6.613327E-16	9.890094E-18
5.140000E+03	6.623641E-16	9.938838E-18
5.150000E+03	6.634599E-16	9.988429E-18
5.160000E+03	6.645904E-16	1.003842E-17
5.170000E+03	6.657555E-16	1.008879E-17
5.180000E+03	6.669842E-16	1.013999E-17
5.190000E+03	6.682173E-16	1.019111E-17
5.200000E+03	6.695126E-16	1.024303E-17
5.210000E+03	6.708403E-16	1.029528E-17
5.220000E+03	6.722284E-16	1.034830E-17
5.230000E+03	6.736170E-16	1.040116E-17
5.240000E+03	6.750632E-16	1.045473E-17
5.250000E+03	6.765358E-16	1.050855E-17
5.260000E+03	6.780327E-16	1.056256E-17
5.270000E+03	6.795807E-16	1.061719E-17
5.280000E+03	6.811474E-16	1.067193E-17
5.290000E+03	6.827291E-16	1.072671E-17
5.300000E+03	6.843217E-16	1.078148E-17
5.310000E+03	6.859504E-16	1.083663E-17
5.320000E+03	6.875503E-16	1.089113E-17
5.330000E+03	6.892044E-16	1.094629E-17
5.340000E+03	6.908167E-16	1.100059E-17
5.350000E+03	6.924386E-16	1.105484E-17
5.360000E+03	6.940314E-16	1.110843E-17
5.370000E+03	6.955849E-16	1.116117E-17
5.380000E+03	6.970881E-16	1.121290E-17
5.390000E+03	6.985581E-16	1.126388E-17
5.400000E+03	6.999810E-16	1.131389E-17
5.410000E+03	7.012814E-16	1.136169E-17
5.420000E+03	7.025024E-16	1.140797E-17
5.430000E+03	7.035956E-16	1.145195E-17
5.440000E+03	7.045716E-16	1.149378E-17
5.450000E+03	7.053491E-16	1.153211E-17
5.460000E+03	7.059975E-16	1.156808E-17
5.470000E+03	7.064048E-16	1.159984E-17
5.480000E+03	7.066119E-16	1.162802E-17
5.490000E+03	7.065740E-16	1.165189E-17
5.500000E+03	7.063162E-16	1.167182E-17
5.510000E+03	7.058150E-16	1.168739E-17
5.520000E+03	7.050856E-16	1.169883E-17
5.530000E+03	7.041774E-16	1.170694E-17
5.540000E+03	7.030805E-16	1.171152E-17
5.550000E+03	7.018455E-16	1.171339E-17
5.560000E+03	7.004617E-16	1.171237E-17
5.570000E+03	6.989476E-16	1.170875E-17
5.580000E+03	6.973498E-16	1.170329E-17
5.590000E+03	6.956540E-16	1.169574E-17
5.600000E+03	6.939037E-16	1.168683E-17
5.610000E+03	6.920816E-16	1.167626E-17
5.620000E+03	6.901991E-16	1.166422E-17
5.630000E+03	6.882949E-16	1.165135E-17
5.640000E+03	6.863776E-16	1.163781E-17
5.650000E+03	6.843961E-16	1.162272E-17
5.660000E+03	6.824439E-16	1.160767E-17
5.670000E+03	6.804681E-16	1.159176E-17
5.680000E+03	6.784732E-16	1.157508E-17
5.690000E+03	6.764920E-16	1.155817E-17
5.700000E+03	6.744985E-16	1.154061E-17
5.710000E+03	6.725238E-16	1.152292E-17
5.720000E+03	6.705411E-16	1.150466E-17
5.730000E+03	6.685802E-16	1.148633E-17
5.740000E+03	6.666420E-16	1.146796E-17
5.750000E+03	6.646704E-16	1.144859E-17
5.760000E+03	6.627506E-16	1.142968E-17
5.770000E+03	6.608260E-16	1.141027E-17
5.780000E+03	6.588964E-16	1.139037E-17
5.790000E+03	6.569896E-16	1.137045E-17
5.800000E+03	6.551047E-16	1.135051E-17
5.810000E+03	6.532134E-16	1.133007E-17
5.820000E+03	6.513427E-16	1.130959E-17
5.830000E+03	6.494916E-16	1.128908E-17
5.840000E+03	6.476318E-16	1.126804E-17
5.850000E+03	6.457626E-16	1.124648E-17
5.860000E+03	6.439107E-16	1.122485E-17
5.870000E+03	6.420752E-16	1.120316E-17
5.880000E+03	6.402282E-16	1.118092E-17
5.890000E+03	6.383965E-16	1.115862E-17
5.900000E+03	6.365794E-16	1.113624E-17
5.910000E+03	6.347494E-16	1.111332E-17
5.920000E+03	6.329334E-16	1.109034E-17
5.930000E+03	6.311312E-16	1.106730E-17
5.940000E+03	6.293159E-16	1.104374E-17
5.950000E+03	6.275146E-16	1.102014E-17
5.960000E+03	6.257274E-16	1.099651E-17
5.970000E+03	6.239282E-16	1.097242E-17
5.980000E+03	6.221442E-16	1.094834E-17
5.990000E+03	6.203497E-16	1.092383E-17
6.000000E+03	6.185986E-16	1.089985E-17
6.010000E+03	6.168390E-16	1.087550E-17
6.020000E+03	6.150721E-16	1.085082E-17
6.030000E+03	6.133520E-16	1.082676E-17
6.040000E+03	6.116276E-16	1.080244E-17
6.050000E+03	6.099269E-16	1.077836E-17
6.060000E+03	6.082251E-16	1.075409E-17
6.070000E+03	6.065505E-16	1.073015E-17
6.080000E+03	6.049049E-16	1.070659E-17
6.090000E+03	6.032903E-16	1.068344E-17
6.100000E+03	6.017087E-16	1.066076E-17
6.110000E+03	6.001363E-16	1.063814E-17
6.120000E+03	5.986012E-16	1.061609E-17
6.130000E+03	5.971056E-16	1.059466E-17
6.140000E+03	5.956258E-16	1.057344E-17
6.150000E+03	5.942157E-16	1.055340E-17
6.160000E+03	5.928257E-16	1.053369E-17
6.170000E+03	5.914836E-16	1.051479E-17
6.180000E+03	5.901916E-16	1.049677E-17
6.190000E+03	5.889258E-16	1.047922E-17
6.200000E+03	5.877137E-16	1.046264E-17
6.210000E+03	5.865823E-16	1.044751E-17
6.220000E+03	5.854565E-16	1.043253E-17
6.230000E+03	5.844143E-16	1.041909E-17
6.240000E+03	5.834309E-16	1.040677E-17
6.250000E+03	5.824818E-16	1.039514E-17
6.260000E+03	5.816183E-16	1.038514E-17
6.270000E+03	5.807897E-16	1.037587E-17
6.280000E+03	5.800214E-16	1.036780E-17
6.290000E+03	5.792873E-16	1.036049E-17
6.300000E+03	5.786373E-16	1.035483E-17
6.310000E+03	5.780445E-16	1.035036E-17
6.320000E+03	5.774820E-16	1.034662E-17
6.330000E+03	5.769726E-16	1.034404E-17
6.340000E+03	5.765134E-16	1.034256E-17
6.350000E+03	5.761012E-16	1.034216E-17
6.360000E+03	5.757316E-16	1.034277E-17
6.370000E+03	5.754005E-16	1.034433E-17
6.380000E+03	5.751024E-16	1.034675E-17
6.390000E+03	5.748316E-16	1.034996E-17
6.400000E+03	5.745564E-16	1.035339E-17
6.410000E+03	5.742947E-16	1.035738E-17
6.420000E+03	5.740644E-16	1.036226E-17
6.430000E+03	5.738063E-16	1.036700E-17
6.440000E+03	5.735369E-16	1.037188E-17
6.450000E+03	5.732463E-16	1.037676E-17
6.460000E+03	5.729498E-16	1.038191E-17
6.470000E+03	5.725857E-16	1.038620E-17
6.480000E+03	5.721426E-16	1.038943E-17
6.490000E+03	5.716594E-16	1.039228E-17
6.500000E+03	5.710991E-16	1.039405E-17
6.510000E+03	5.704503E-16	1.039453E-17
6.520000E+03	5.697037E-16	1.039352E-17
6.530000E+03	5.688526E-16	1.039088E-17
6.540000E+03	5.678701E-16	1.038611E-17
6.550000E+03	5.668100E-16	1.038016E-17
6.560000E+03	5.656539E-16	1.037269E-17
6.570000E+03	5.643851E-16	1.036335E-17
6.580000E+03	5.630635E-16	1.035323E-17
6.590000E+03	5.616484E-16	1.034157E-17
6.600000E+03	5.601991E-16	1.032944E-17
6.610000E+03	5.586993E-16	1.031652E-17
6.620000E+03	5.571319E-16	1.030247E-17
6.630000E+03	5.555548E-16	1.028836E-17
6.640000E+03	5.539246E-16	1.027336E-17
6.650000E+03	5.522978E-16	1.025851E-17
6.660000E+03	5.506554E-16	1.024344E-17
6.670000E+03	5.489774E-16	1.022777E-17
6.680000E+03	5.473186E-16	1.021250E-17
6.690000E+03	5.456579E-16	1.019723E-17
6.700000E+03	5.439746E-16	1.018156E-17
6.710000E+03	5.423209E-16	1.016646E-17
6.720000E+03	5.406751E-16	1.015150E-17
6.730000E+03	5.390391E-16	1.013673E-17
6.740000E+03	5.373905E-16	1.012170E-17
6.750000E+03	5.357794E-16	1.010735E-17
6.760000E+03	5.341827E-16	1.009325E-17
6.770000E+03	5.326008E-16	1.007938E-17
6.780000E+03	5.310344E-16	1.006575E-17
6.790000E+03	5.294836E-16	1.005236E-17
6.800000E+03	5.279483E-16	1.003921E-17
6.810000E+03	5.264284E-16	1.002627E-17
6.820000E+03	5.249236E-16	1.001355E-17
6.830000E+03	5.234330E-16	1.000101E-17
6.840000E+03	5.219562E-16	9.988643E-18
6.850000E+03	5.204922E-16	9.976428E-18
6.860000E+03	5.190403E-16	9.964344E-18
6.870000E+03	5.176234E-16	9.952824E-18
6.880000E+03	5.161928E-16	9.940931E-18
6.890000E+03	5.147714E-16	9.929097E-18
6.900000E+03	5.133818E-16	9.917755E-18
6.910000E+03	5.119758E-16	9.905972E-18
6.920000E+03	5.105759E-16	9.894176E-18
6.930000E+03	5.092050E-16	9.882807E-18
6.940000E+03	5.078147E-16	9.870925E-18
6.950000E+03	5.064516E-16	9.859429E-18
6.960000E+03	5.050674E-16	9.847379E-18
6.970000E+03	5.037087E-16	9.835677E-18
6.980000E+03	5.023510E-16	9.823845E-18
6.990000E+03	5.009705E-16	9.811416E-18
7.000000E+03	4.996134E-16	9.799287E-18
7.010000E+03	4.982557E-16	9.786989E-18
7.020000E+03	4.968740E-16	9.774061E-18
7.030000E+03	4.955142E-16	9.761400E-18
7.040000E+03	4.941531E-16	9.748551E-18
7.050000E+03	4.927673E-16	9.735050E-18
7.060000E+03	4.914028E-16	9.721806E-18
7.070000E+03	4.900368E-16	9.708366E-18
7.080000E+03	4.886693E-16	9.694730E-18
7.090000E+03	4.872775E-16	9.680444E-18
7.100000E+03	4.859077E-16	9.666428E-18
7.110000E+03	4.845371E-16	9.652230E-18
7.120000E+03	4.831436E-16	9.637409E-18
7.130000E+03	4.817731E-16	9.622882E-18
7.140000E+03	4.804033E-16	9.608205E-18
7.150000E+03	4.790124E-16	9.592944E-18
7.160000E+03	4.776464E-16	9.578020E-18
7.170000E+03	4.762609E-16	9.562544E-18
7.180000E+03	4.749019E-16	9.547441E-18
7.190000E+03	4.735250E-16	9.531825E-18
7.200000E+03	4.721764E-16	9.516625E-18
7.210000E+03	4.708121E-16	9.500958E-18
7.220000E+03	4.694557E-16	9.485304E-18
7.230000E+03	4.681305E-16	9.470136E-18
7.240000E+03	4.667931E-16	9.454584E-18
7.250000E+03	4.654670E-16	9.439120E-18
7.260000E+03	4.641534E-16	9.423778E-18
7.270000E+03	4.628535E-16	9.408586E-18
7.280000E+03	4.615685E-16	9.393575E-18
7.290000E+03	4.602998E-16	9.378775E-18
7.300000E+03	4.590266E-16	9.363768E-18
7.310000E+03	4.577943E-16	9.349486E-18
7.320000E+03	4.565604E-16	9.335067E-18
7.330000E+03	4.553697E-16	9.321434E-18
7.340000E+03	4.541800E-16	9.307729E-18
7.350000E+03	4.530144E-16	9.294430E-18
7.360000E+03	4.518744E-16	9.281574E-18
7.370000E+03	4.507612E-16	9.269196E-18
7.380000E+03	4.496541E-16	9.256878E-18
7.390000E+03	4.485982E-16	9.245550E-18
7.400000E+03	4.475513E-16	9.234354E-18
7.410000E+03	4.465361E-16	9.223765E-18
7.420000E+03	4.455756E-16	9.214268E-18
7.430000E+03	4.446062E-16	9.204554E-18
7.440000E+03	4.436937E-16	9.195994E-18
7.450000E+03	4.428177E-16	9.188174E-18
7.460000E+03	4.419578E-16	9.180680E-18
7.470000E+03	4.411365E-16	9.173991E-18
7.480000E+03	4.403550E-16	9.168135E-18
7.490000E+03	4.396141E-16	9.163142E-18
7.500000E+03	4.389147E-16	9.159042E-18
7.510000E+03	4.382363E-16	9.155417E-18
7.520000E+03	4.376013E-16	9.152741E-18
7.530000E+03	4.370104E-16	9.151042E-18
7.540000E+03	4.364642E-16	9.150346E-18
7.550000E+03	4.359637E-16	9.150679E-18
7.560000E+03	4.354878E-16	9.151615E-18
7.570000E+03	4.350587E-16	9.153627E-18
7.580000E+03	4.346767E-16	9.156736E-18
7.590000E+03	4.343209E-16	9.160512E-18
7.600000E+03	4.340347E-16	9.165880E-18
7.610000E+03	4.337753E-16	9.171954E-18
7.620000E+03	4.335644E-16	9.179201E-18
7.630000E+03	4.333805E-16	9.187182E-18
7.640000E+03	4.332669E-16	9.196824E-18
7.650000E+03	4.331803E-16	9.207222E-18
7.660000E+03	4.331206E-16	9.218389E-18
7.670000E+03	4.331305E-16	9.231246E-18
7.680000E+03	4.331666E-16	9.244880E-18
7.690000E+03	4.332497E-16	9.259752E-18
7.700000E+03	4.333795E-16	9.275867E-18
7.710000E+03	4.335331E-16	9.292751E-18
7.720000E+03	4.337312E-16	9.310862E-18
7.730000E+03	4.339728E-16	9.330193E-18
7.740000E+03	4.342566E-16	9.350729E-18
7.750000E+03	4.345588E-16	9.371976E-18
7.760000E+03	4.348998E-16	9.394385E-18
