#wls	flux	fluxerr
1.593911E+03	1.795586E-04	2.285640E-05
1.633759E+03	1.814444E-04	2.303511E-05
1.673607E+03	1.835288E-04	2.323621E-05
1.713455E+03	1.859532E-04	2.347725E-05
1.753302E+03	1.887295E-04	2.375929E-05
1.793150E+03	1.918709E-04	2.408349E-05
1.832998E+03	1.953912E-04	2.445105E-05
1.872846E+03	1.993049E-04	2.486324E-05
1.912694E+03	2.036993E-04	2.533030E-05
1.952541E+03	2.085214E-04	2.584493E-05
1.992389E+03	2.139362E-04	2.642682E-05
2.032237E+03	2.198194E-04	2.705972E-05
2.072085E+03	2.263433E-04	2.776396E-05
2.111932E+03	2.334589E-04	2.853248E-05
2.151780E+03	2.413509E-04	2.938670E-05
2.191628E+03	2.498943E-04	3.031012E-05
2.231476E+03	2.592017E-04	3.131512E-05
2.271324E+03	2.693924E-04	3.241459E-05
2.311171E+03	2.805104E-04	3.361212E-05
2.351019E+03	2.926017E-04	3.491140E-05
2.390867E+03	3.058047E-04	3.632690E-05
2.430715E+03	3.200864E-04	3.785246E-05
2.470562E+03	3.356880E-04	3.951418E-05
2.510410E+03	3.526810E-04	4.131766E-05
2.550258E+03	3.711419E-04	4.326879E-05
2.590106E+03	3.912503E-04	4.538514E-05
2.629954E+03	4.133015E-04	4.769710E-05
2.669801E+03	4.374092E-04	5.021330E-05
2.709649E+03	4.638000E-04	5.295487E-05
2.749497E+03	4.927186E-04	5.594421E-05
2.789345E+03	5.245404E-04	5.921763E-05
2.829192E+03	5.595590E-04	6.280106E-05
2.869040E+03	5.980924E-04	6.672210E-05
2.908888E+03	6.407208E-04	7.103622E-05
2.948736E+03	6.878317E-04	7.577575E-05
2.988584E+03	7.400927E-04	8.100215E-05
2.998546E+03	7.540332E-04	8.239097E-05
3.008508E+03	7.683857E-04	8.381897E-05
3.018469E+03	7.830297E-04	8.527274E-05
3.028431E+03	7.980975E-04	8.676651E-05
3.038393E+03	8.135962E-04	8.830072E-05
3.048355E+03	8.295327E-04	8.987586E-05
3.058317E+03	8.457837E-04	9.147829E-05
3.068279E+03	8.626159E-04	9.313660E-05
3.078241E+03	8.799073E-04	9.483726E-05
3.088203E+03	8.975316E-04	9.656635E-05
3.098165E+03	9.157613E-04	9.835291E-05
3.108127E+03	9.344717E-04	1.001832E-04
3.118089E+03	9.536696E-04	1.020575E-04
3.128051E+03	9.734987E-04	1.039910E-04
3.138013E+03	9.936940E-04	1.059549E-04
3.147975E+03	1.014675E-03	1.079936E-04
3.157937E+03	1.036036E-03	1.100634E-04
3.167899E+03	1.058061E-03	1.121943E-04
3.177861E+03	1.080761E-03	1.143868E-04
3.187823E+03	1.104143E-03	1.166414E-04
3.197784E+03	1.128074E-03	1.189435E-04
3.207746E+03	1.152560E-03	1.212932E-04
3.217708E+03	1.177896E-03	1.237212E-04
3.227670E+03	1.203946E-03	1.262127E-04
3.237632E+03	1.230572E-03	1.287527E-04
3.247594E+03	1.258073E-03	1.313719E-04
3.257556E+03	1.286310E-03	1.340552E-04
3.267518E+03	1.315287E-03	1.368026E-04
3.277480E+03	1.345010E-03	1.396141E-04
3.287442E+03	1.375633E-03	1.425051E-04
3.297404E+03	1.407010E-03	1.454599E-04
3.307366E+03	1.439296E-03	1.484938E-04
3.317328E+03	1.472493E-03	1.516065E-04
3.327290E+03	1.506448E-03	1.547814E-04
3.337252E+03	1.541158E-03	1.580178E-04
3.347214E+03	1.576932E-03	1.613467E-04
3.357176E+03	1.613613E-03	1.647511E-04
3.367138E+03	1.651193E-03	1.682296E-04
3.377099E+03	1.689665E-03	1.717807E-04
3.387061E+03	1.729018E-03	1.754028E-04
3.397023E+03	1.769400E-03	1.791100E-04
3.406985E+03	1.810636E-03	1.828838E-04
3.416947E+03	1.852707E-03	1.867217E-04
3.426909E+03	1.895920E-03	1.906538E-04
3.436871E+03	1.939923E-03	1.946440E-04
3.446833E+03	1.984855E-03	1.987054E-04
3.456795E+03	2.030686E-03	2.028343E-04
3.466757E+03	2.077383E-03	2.070267E-04
3.476719E+03	2.124908E-03	2.112780E-04
3.486681E+03	2.173391E-03	2.156005E-04
3.496643E+03	2.222450E-03	2.199554E-04
3.506605E+03	2.272546E-03	2.243879E-04
3.516567E+03	2.323291E-03	2.288587E-04
3.526529E+03	2.374801E-03	2.333786E-04
3.536491E+03	2.427020E-03	2.379416E-04
3.546453E+03	2.479716E-03	2.425242E-04
3.556414E+03	2.533173E-03	2.471536E-04
3.566376E+03	2.587155E-03	2.518062E-04
3.576338E+03	2.641598E-03	2.564751E-04
3.586300E+03	2.696605E-03	2.611701E-04
3.596262E+03	2.752118E-03	2.658845E-04
3.606224E+03	2.807888E-03	2.705943E-04
3.616186E+03	2.864035E-03	2.753103E-04
3.626148E+03	2.920489E-03	2.800255E-04
3.636110E+03	2.977202E-03	2.847348E-04
3.646072E+03	3.034122E-03	2.894331E-04
3.656034E+03	3.091384E-03	2.941327E-04
3.665996E+03	3.148951E-03	2.988297E-04
3.675958E+03	3.206636E-03	3.035060E-04
3.685920E+03	3.264433E-03	3.081608E-04
3.695882E+03	3.322699E-03	3.128274E-04
3.705844E+03	3.381290E-03	3.174917E-04
3.715806E+03	3.440252E-03	3.221577E-04
3.725768E+03	3.499824E-03	3.268472E-04
3.735730E+03	3.559751E-03	3.315358E-04
3.745691E+03	3.620659E-03	3.362811E-04
3.755653E+03	3.682334E-03	3.410624E-04
3.765615E+03	3.745091E-03	3.459081E-04
3.775577E+03	3.809088E-03	3.508317E-04
3.785539E+03	3.874506E-03	3.558484E-04
3.795501E+03	3.941517E-03	3.609730E-04
3.805463E+03	4.010480E-03	3.662366E-04
3.815425E+03	4.081398E-03	3.716378E-04
3.825387E+03	4.154445E-03	3.771906E-04
3.835349E+03	4.229939E-03	3.829219E-04
3.845311E+03	4.307998E-03	3.888402E-04
3.855273E+03	4.388550E-03	3.949367E-04
3.865235E+03	4.471807E-03	4.012281E-04
3.875197E+03	4.557927E-03	4.077262E-04
3.885159E+03	4.646495E-03	4.143915E-04
3.895121E+03	4.737516E-03	4.212219E-04
3.905083E+03	4.830728E-03	4.281921E-04
3.915045E+03	4.925926E-03	4.352820E-04
3.925006E+03	5.022436E-03	4.424300E-04
3.934968E+03	5.119441E-03	4.495634E-04
3.944930E+03	5.216630E-03	4.566539E-04
3.954892E+03	5.312501E-03	4.635702E-04
3.964854E+03	5.406213E-03	4.702399E-04
3.974816E+03	5.496087E-03	4.765190E-04
3.984778E+03	5.581141E-03	4.823256E-04
3.994740E+03	5.659323E-03	4.874866E-04
4.004702E+03	5.729221E-03	4.918866E-04
4.014664E+03	5.789479E-03	4.954162E-04
4.024626E+03	5.838544E-03	4.979512E-04
4.034588E+03	5.875092E-03	4.993883E-04
4.044550E+03	5.898556E-03	4.996901E-04
4.054512E+03	5.908086E-03	4.987963E-04
4.064474E+03	5.903671E-03	4.967178E-04
4.074436E+03	5.885520E-03	4.934843E-04
4.084398E+03	5.854052E-03	4.891428E-04
4.094360E+03	5.810150E-03	4.837785E-04
4.104321E+03	5.755093E-03	4.775088E-04
4.114283E+03	5.689959E-03	4.704326E-04
4.124245E+03	5.616513E-03	4.627045E-04
4.134207E+03	5.535992E-03	4.544335E-04
4.144169E+03	5.450461E-03	4.457952E-04
4.154131E+03	5.361291E-03	4.369059E-04
4.164093E+03	5.270461E-03	4.279299E-04
4.174055E+03	5.179470E-03	4.189903E-04
4.184017E+03	5.089994E-03	4.102226E-04
4.193979E+03	5.003615E-03	4.017526E-04
4.203941E+03	4.921872E-03	3.937010E-04
4.213903E+03	4.845766E-03	3.861434E-04
4.223865E+03	4.776606E-03	3.791792E-04
4.233827E+03	4.715231E-03	3.728683E-04
4.243789E+03	4.662306E-03	3.672563E-04
4.253751E+03	4.618412E-03	3.623812E-04
4.263713E+03	4.583976E-03	3.582681E-04
4.273675E+03	4.559208E-03	3.549249E-04
4.283637E+03	4.544302E-03	3.523577E-04
4.293598E+03	4.539297E-03	3.505605E-04
4.303560E+03	4.544179E-03	3.495229E-04
4.313522E+03	4.559068E-03	3.492450E-04
4.323484E+03	4.583841E-03	3.497080E-04
4.333446E+03	4.618556E-03	3.509071E-04
4.343408E+03	4.663305E-03	3.528398E-04
4.353370E+03	4.718100E-03	3.554974E-04
4.363332E+03	4.783185E-03	3.588885E-04
4.373294E+03	4.858841E-03	3.630246E-04
4.383256E+03	4.945479E-03	3.679258E-04
4.393218E+03	5.043658E-03	3.736230E-04
4.403180E+03	5.154084E-03	3.801569E-04
4.413142E+03	5.277681E-03	3.875837E-04
4.423104E+03	5.415428E-03	3.959619E-04
4.433066E+03	5.568392E-03	4.053554E-04
4.443028E+03	5.737664E-03	4.158283E-04
4.452990E+03	5.924530E-03	4.274573E-04
4.462952E+03	6.129791E-03	4.402826E-04
4.472913E+03	6.353930E-03	4.543205E-04
4.482875E+03	6.597316E-03	4.695786E-04
4.492837E+03	6.859258E-03	4.859886E-04
4.502799E+03	7.138558E-03	5.034476E-04
4.512761E+03	7.433162E-03	5.217939E-04
4.522723E+03	7.740040E-03	5.408004E-04
4.532685E+03	8.055399E-03	5.601907E-04
4.542647E+03	8.374801E-03	5.796488E-04
4.552609E+03	8.692921E-03	5.988035E-04
4.562571E+03	9.004272E-03	6.172796E-04
4.572533E+03	9.303257E-03	6.347014E-04
4.582495E+03	9.584334E-03	6.507045E-04
4.592457E+03	9.842638E-03	6.649780E-04
4.602419E+03	1.007381E-02	6.772506E-04
4.612381E+03	1.027443E-02	6.873218E-04
4.622343E+03	1.044242E-02	6.950816E-04
4.632305E+03	1.057687E-02	7.005037E-04
4.642267E+03	1.067854E-02	7.036714E-04
4.652228E+03	1.074931E-02	7.047411E-04
4.662190E+03	1.079231E-02	7.039479E-04
4.672152E+03	1.081179E-02	7.015950E-04
4.682114E+03	1.081279E-02	6.980326E-04
4.692076E+03	1.080049E-02	6.936113E-04
4.702038E+03	1.078006E-02	6.886755E-04
4.712000E+03	1.075675E-02	6.835673E-04
4.721962E+03	1.073504E-02	6.785731E-04
4.731924E+03	1.071875E-02	6.739311E-04
4.741886E+03	1.071112E-02	6.698399E-04
4.751848E+03	1.071452E-02	6.664369E-04
4.761810E+03	1.073048E-02	6.638072E-04
4.771772E+03	1.076004E-02	6.620015E-04
4.781734E+03	1.080281E-02	6.609830E-04
4.791696E+03	1.085808E-02	6.606948E-04
4.801658E+03	1.092426E-02	6.610289E-04
4.811620E+03	1.099943E-02	6.618582E-04
4.821582E+03	1.108099E-02	6.630190E-04
4.831544E+03	1.116602E-02	6.643311E-04
4.841505E+03	1.125124E-02	6.655971E-04
4.851467E+03	1.133311E-02	6.666096E-04
4.861429E+03	1.140790E-02	6.671534E-04
4.871391E+03	1.147225E-02	6.670415E-04
4.881353E+03	1.152267E-02	6.660829E-04
4.891315E+03	1.155632E-02	6.641290E-04
4.901277E+03	1.157098E-02	6.610695E-04
4.911239E+03	1.156495E-02	6.568283E-04
4.921201E+03	1.153762E-02	6.513927E-04
4.931163E+03	1.148917E-02	6.447937E-04
4.941125E+03	1.142022E-02	6.370876E-04
4.951087E+03	1.133188E-02	6.283584E-04
4.961049E+03	1.122532E-02	6.186889E-04
4.971011E+03	1.110220E-02	6.081889E-04
4.980973E+03	1.096414E-02	5.969643E-04
4.990935E+03	1.081313E-02	5.851374E-04
5.000897E+03	1.065164E-02	5.728540E-04
5.010859E+03	1.048298E-02	5.603024E-04
5.020820E+03	1.031081E-02	5.476836E-04
5.030782E+03	1.013960E-02	5.352369E-04
5.040744E+03	9.974239E-03	5.232190E-04
5.050706E+03	9.819689E-03	5.118819E-04
5.060668E+03	9.681070E-03	5.014806E-04
5.070630E+03	9.563120E-03	4.922433E-04
5.080592E+03	9.470234E-03	4.843748E-04
5.090554E+03	9.405665E-03	4.780159E-04
5.100516E+03	9.372110E-03	4.732757E-04
5.110478E+03	9.370927E-03	4.701926E-04
5.120440E+03	9.402627E-03	4.687611E-04
5.130402E+03	9.466309E-03	4.689057E-04
5.140364E+03	9.560200E-03	4.705092E-04
5.150326E+03	9.681525E-03	4.734079E-04
5.160288E+03	9.826773E-03	4.774063E-04
5.170250E+03	9.992107E-03	4.822978E-04
5.180212E+03	1.017303E-02	4.878491E-04
5.190174E+03	1.036539E-02	4.938496E-04
5.200135E+03	1.056495E-02	5.000891E-04
5.210097E+03	1.076813E-02	5.063950E-04
5.220059E+03	1.097158E-02	5.126089E-04
5.230021E+03	1.117264E-02	5.186089E-04
5.239983E+03	1.136934E-02	5.243086E-04
5.249945E+03	1.156025E-02	5.296485E-04
5.259907E+03	1.174415E-02	5.345796E-04
5.269869E+03	1.192032E-02	5.390784E-04
5.279831E+03	1.208798E-02	5.431186E-04
5.289793E+03	1.224681E-02	5.466950E-04
5.299755E+03	1.239626E-02	5.497935E-04
5.309717E+03	1.253565E-02	5.523944E-04
5.319679E+03	1.266466E-02	5.544938E-04
5.329641E+03	1.278257E-02	5.560711E-04
5.339603E+03	1.288876E-02	5.571117E-04
5.349565E+03	1.298284E-02	5.576096E-04
5.359527E+03	1.306440E-02	5.575594E-04
5.369489E+03	1.313328E-02	5.569665E-04
5.379450E+03	1.318963E-02	5.558490E-04
5.389412E+03	1.323411E-02	5.542462E-04
5.399374E+03	1.326761E-02	5.522055E-04
5.409336E+03	1.329112E-02	5.497785E-04
5.419298E+03	1.330616E-02	5.470364E-04
5.429260E+03	1.331374E-02	5.440281E-04
5.439222E+03	1.331475E-02	5.407965E-04
5.449184E+03	1.330980E-02	5.373722E-04
5.459146E+03	1.329880E-02	5.337566E-04
5.469108E+03	1.328155E-02	5.299475E-04
5.479070E+03	1.325710E-02	5.259121E-04
5.489032E+03	1.322390E-02	5.215948E-04
5.498994E+03	1.318039E-02	5.169398E-04
5.508956E+03	1.312604E-02	5.119317E-04
5.518918E+03	1.306104E-02	5.065833E-04
5.528880E+03	1.298677E-02	5.009531E-04
5.538842E+03	1.290563E-02	4.951370E-04
5.548804E+03	1.282064E-02	4.892527E-04
5.558766E+03	1.273546E-02	4.834396E-04
5.568727E+03	1.265352E-02	4.778251E-04
5.578689E+03	1.257754E-02	4.725078E-04
5.588651E+03	1.250940E-02	4.675529E-04
5.598613E+03	1.244977E-02	4.629792E-04
5.608575E+03	1.239792E-02	4.587527E-04
5.618537E+03	1.235224E-02	4.548084E-04
5.628499E+03	1.231008E-02	4.510453E-04
5.638461E+03	1.226848E-02	4.473513E-04
5.648423E+03	1.222476E-02	4.436276E-04
5.658385E+03	1.217656E-02	4.397891E-04
5.668347E+03	1.212216E-02	4.357748E-04
5.678309E+03	1.206076E-02	4.315580E-04
5.688271E+03	1.199275E-02	4.271546E-04
5.698233E+03	1.191917E-02	4.226034E-04
5.708195E+03	1.184191E-02	4.179722E-04
5.718157E+03	1.176334E-02	4.133451E-04
5.728119E+03	1.168600E-02	4.088102E-04
5.738081E+03	1.161260E-02	4.044593E-04
5.748042E+03	1.154568E-02	4.003784E-04
5.758004E+03	1.148744E-02	3.966390E-04
5.767966E+03	1.143987E-02	3.933046E-04
5.777928E+03	1.140450E-02	3.904221E-04
5.787890E+03	1.138286E-02	3.880370E-04
5.797852E+03	1.137551E-02	3.861617E-04
5.807814E+03	1.138299E-02	3.848083E-04
5.817776E+03	1.140515E-02	3.839640E-04
5.827738E+03	1.144132E-02	3.836006E-04
5.837700E+03	1.149039E-02	3.836742E-04
5.847662E+03	1.155014E-02	3.841061E-04
5.857624E+03	1.161844E-02	3.848205E-04
5.867586E+03	1.169239E-02	3.857183E-04
5.877548E+03	1.176886E-02	3.866945E-04
5.887510E+03	1.184479E-02	3.876482E-04
5.897472E+03	1.191743E-02	3.884891E-04
5.907434E+03	1.198384E-02	3.891238E-04
5.917396E+03	1.204230E-02	3.894986E-04
5.927357E+03	1.209094E-02	3.895561E-04
5.937319E+03	1.212893E-02	3.892737E-04
5.947281E+03	1.215586E-02	3.886423E-04
5.957243E+03	1.217164E-02	3.876626E-04
5.967205E+03	1.217647E-02	3.863457E-04
5.977167E+03	1.217117E-02	3.847210E-04
5.987129E+03	1.215624E-02	3.828085E-04
5.997091E+03	1.213260E-02	3.806396E-04
6.007053E+03	1.210125E-02	3.782493E-04
6.017015E+03	1.206330E-02	3.756750E-04
6.026977E+03	1.201997E-02	3.729563E-04
6.036939E+03	1.197235E-02	3.701295E-04
6.046901E+03	1.192154E-02	3.672299E-04
6.056863E+03	1.186892E-02	3.643008E-04
6.066825E+03	1.181528E-02	3.613674E-04
6.076787E+03	1.176149E-02	3.584566E-04
6.086749E+03	1.170827E-02	3.555907E-04
6.096711E+03	1.165624E-02	3.527883E-04
6.106673E+03	1.160567E-02	3.500581E-04
6.116634E+03	1.155731E-02	3.474221E-04
6.126596E+03	1.151145E-02	3.448885E-04
6.136558E+03	1.146856E-02	3.424717E-04
6.146520E+03	1.142910E-02	3.401845E-04
6.156482E+03	1.139310E-02	3.380274E-04
6.166444E+03	1.136072E-02	3.360048E-04
6.176406E+03	1.133125E-02	3.340955E-04
6.186368E+03	1.130399E-02	3.322785E-04
6.196330E+03	1.127745E-02	3.305105E-04
6.206292E+03	1.125007E-02	3.287466E-04
6.216254E+03	1.122015E-02	3.269380E-04
6.226216E+03	1.118591E-02	3.250343E-04
6.236178E+03	1.114601E-02	3.229984E-04
6.246140E+03	1.109920E-02	3.207968E-04
6.256102E+03	1.104488E-02	3.184141E-04
6.266064E+03	1.098278E-02	3.158446E-04
6.276026E+03	1.091306E-02	3.130956E-04
6.285988E+03	1.083627E-02	3.101845E-04
6.295949E+03	1.075383E-02	3.071539E-04
6.305911E+03	1.066715E-02	3.040452E-04
6.315873E+03	1.057898E-02	3.009381E-04
6.325835E+03	1.049208E-02	2.979110E-04
6.335797E+03	1.041043E-02	2.950768E-04
6.345759E+03	1.033815E-02	2.925517E-04
6.355721E+03	1.028019E-02	2.904746E-04
6.365683E+03	1.024158E-02	2.889862E-04
6.375645E+03	1.022761E-02	2.882335E-04
6.385607E+03	1.024339E-02	2.883590E-04
6.395569E+03	1.029398E-02	2.895035E-04
6.405531E+03	1.038400E-02	2.917955E-04
6.415493E+03	1.051793E-02	2.953598E-04
6.425455E+03	1.069937E-02	3.002982E-04
6.435417E+03	1.093156E-02	3.067027E-04
6.445379E+03	1.121682E-02	3.146409E-04
6.455341E+03	1.155654E-02	3.241548E-04
6.465303E+03	1.195042E-02	3.352396E-04
6.475264E+03	1.239658E-02	3.478458E-04
6.485226E+03	1.289134E-02	3.618744E-04
6.495188E+03	1.342888E-02	3.771674E-04
6.505150E+03	1.400155E-02	3.935150E-04
6.515112E+03	1.459621E-02	4.105538E-04
6.525074E+03	1.519299E-02	4.277289E-04
6.535036E+03	1.577041E-02	4.444382E-04
6.544998E+03	1.630716E-02	4.600812E-04
6.554960E+03	1.678320E-02	4.740891E-04
6.564922E+03	1.718178E-02	4.859833E-04
6.574884E+03	1.748939E-02	4.953715E-04
6.584846E+03	1.769699E-02	5.019861E-04
6.594808E+03	1.780115E-02	5.057149E-04
6.604770E+03	1.780244E-02	5.065584E-04
6.614732E+03	1.770677E-02	5.046673E-04
6.624694E+03	1.752285E-02	5.002733E-04
6.634656E+03	1.726276E-02	4.937053E-04
6.644618E+03	1.694023E-02	4.853411E-04
6.654580E+03	1.656898E-02	4.755614E-04
6.664541E+03	1.616295E-02	4.647552E-04
6.674503E+03	1.573557E-02	4.533004E-04
6.684465E+03	1.529805E-02	4.415145E-04
6.694427E+03	1.486058E-02	4.296868E-04
6.704389E+03	1.443112E-02	4.180459E-04
6.714351E+03	1.401624E-02	4.067809E-04
6.724313E+03	1.362061E-02	3.960282E-04
6.734275E+03	1.324704E-02	3.858709E-04
6.744237E+03	1.289772E-02	3.763753E-04
6.754199E+03	1.257346E-02	3.675670E-04
6.764161E+03	1.227393E-02	3.594398E-04
6.774123E+03	1.199880E-02	3.519864E-04
6.784085E+03	1.174728E-02	3.451868E-04
6.794047E+03	1.151855E-02	3.390199E-04
6.804009E+03	1.131194E-02	3.334678E-04
6.813971E+03	1.112692E-02	3.285182E-04
6.823933E+03	1.096293E-02	3.241566E-04
6.833895E+03	1.082028E-02	3.203947E-04
6.843856E+03	1.069864E-02	3.172249E-04
6.853818E+03	1.059795E-02	3.146471E-04
6.863780E+03	1.051798E-02	3.126568E-04
6.873742E+03	1.045829E-02	3.112422E-04
6.883704E+03	1.041808E-02	3.103813E-04
6.893666E+03	1.039619E-02	3.100402E-04
6.903628E+03	1.039100E-02	3.101720E-04
6.913590E+03	1.040048E-02	3.107160E-04
6.923552E+03	1.042184E-02	3.115896E-04
6.933514E+03	1.045267E-02	3.127197E-04
6.943476E+03	1.048952E-02	3.140029E-04
6.953438E+03	1.052905E-02	3.153386E-04
6.963400E+03	1.056787E-02	3.166241E-04
6.973362E+03	1.060268E-02	3.177590E-04
6.983324E+03	1.063035E-02	3.186491E-04
6.993286E+03	1.064812E-02	3.192103E-04
7.003248E+03	1.065365E-02	3.193714E-04
7.013210E+03	1.064496E-02	3.190727E-04
7.023171E+03	1.062099E-02	3.182820E-04
7.033133E+03	1.058115E-02	3.169817E-04
7.043095E+03	1.052538E-02	3.151702E-04
7.053057E+03	1.045440E-02	3.128698E-04
7.063019E+03	1.036952E-02	3.101210E-04
7.072981E+03	1.027272E-02	3.069841E-04
7.082943E+03	1.016610E-02	3.035230E-04
7.092905E+03	1.005220E-02	2.998158E-04
7.102867E+03	9.933651E-03	2.959416E-04
7.112829E+03	9.813559E-03	2.919949E-04
7.122791E+03	9.694426E-03	2.880509E-04
7.132753E+03	9.579033E-03	2.841933E-04
7.142715E+03	9.469763E-03	2.804933E-04
7.152677E+03	9.368536E-03	2.770076E-04
7.162639E+03	9.277183E-03	2.737901E-04
7.172601E+03	9.196905E-03	2.708756E-04
7.182563E+03	9.128870E-03	2.682970E-04
7.192525E+03	9.073712E-03	2.660716E-04
7.202487E+03	9.032133E-03	2.642178E-04
7.212448E+03	9.004236E-03	2.627364E-04
7.222410E+03	8.990612E-03	2.616417E-04
7.232372E+03	8.990764E-03	2.609165E-04
7.242334E+03	9.004513E-03	2.605522E-04
7.252296E+03	9.030810E-03	2.605153E-04
7.262258E+03	9.068352E-03	2.607647E-04
7.272220E+03	9.114872E-03	2.612323E-04
7.282182E+03	9.168161E-03	2.618523E-04
7.292144E+03	9.225200E-03	2.625363E-04
7.302106E+03	9.283055E-03	2.632000E-04
7.312068E+03	9.338491E-03	2.637514E-04
7.322030E+03	9.388596E-03	2.641092E-04
7.331992E+03	9.430929E-03	2.642070E-04
7.341954E+03	9.463194E-03	2.639835E-04
7.351916E+03	9.483745E-03	2.633967E-04
7.361878E+03	9.491579E-03	2.624237E-04
7.371840E+03	9.485891E-03	2.610478E-04
7.381802E+03	9.466634E-03	2.592736E-04
7.391763E+03	9.434062E-03	2.571144E-04
7.401725E+03	9.388683E-03	2.545904E-04
7.411687E+03	9.331687E-03	2.517401E-04
7.421649E+03	9.264282E-03	2.486024E-04
7.431611E+03	9.188242E-03	2.452305E-04
7.441573E+03	9.105503E-03	2.416810E-04
7.451535E+03	9.017631E-03	2.380001E-04
7.461497E+03	8.926729E-03	2.342468E-04
7.471459E+03	8.834180E-03	2.304605E-04
7.481421E+03	8.741719E-03	2.266886E-04
7.491383E+03	8.650263E-03	2.229566E-04
7.501345E+03	8.561056E-03	2.192977E-04
7.511307E+03	8.474607E-03	2.157256E-04
7.521269E+03	8.391873E-03	2.122650E-04
7.531231E+03	8.313213E-03	2.089250E-04
7.541193E+03	8.239390E-03	2.057246E-04
7.551155E+03	8.171055E-03	2.026793E-04
7.561117E+03	8.108719E-03	1.998010E-04
7.571078E+03	8.053292E-03	1.971108E-04
7.581040E+03	8.005072E-03	1.946146E-04
7.591002E+03	7.964686E-03	1.923258E-04
7.600964E+03	7.932483E-03	1.902511E-04
7.610926E+03	7.908651E-03	1.883931E-04
7.620888E+03	7.893006E-03	1.867454E-04
7.630850E+03	7.885356E-03	1.853021E-04
7.640812E+03	7.885076E-03	1.840469E-04
7.650774E+03	7.891276E-03	1.829584E-04
7.660736E+03	7.902864E-03	1.820111E-04
7.670698E+03	7.918624E-03	1.811776E-04
7.680660E+03	7.937298E-03	1.804304E-04
7.690622E+03	7.957489E-03	1.797399E-04
7.700584E+03	7.978256E-03	1.790876E-04
7.710546E+03	7.998280E-03	1.784473E-04
7.720508E+03	8.016399E-03	1.777973E-04
7.730470E+03	8.031628E-03	1.771201E-04
