#wls	flux	fluxerr
1.593911E+03	1.673542E-04	9.151820E-06
1.633759E+03	1.686335E-04	9.188023E-06
1.673607E+03	1.702230E-04	9.239754E-06
1.713455E+03	1.720559E-04	9.303182E-06
1.753302E+03	1.741388E-04	9.378466E-06
1.793150E+03	1.765532E-04	9.469779E-06
1.832998E+03	1.792338E-04	9.573359E-06
1.872846E+03	1.822645E-04	9.693447E-06
1.912694E+03	1.855810E-04	9.826334E-06
1.952541E+03	1.893468E-04	9.980372E-06
1.992389E+03	1.935004E-04	1.015195E-05
2.032237E+03	1.981348E-04	1.034556E-05
2.072085E+03	2.031126E-04	1.055362E-05
2.111932E+03	2.086876E-04	1.078889E-05
2.151780E+03	2.148059E-04	1.104804E-05
2.191628E+03	2.214126E-04	1.132771E-05
2.231476E+03	2.286977E-04	1.163705E-05
2.271324E+03	2.366962E-04	1.197715E-05
2.311171E+03	2.453637E-04	1.234502E-05
2.351019E+03	2.547406E-04	1.274195E-05
2.390867E+03	2.649583E-04	1.317369E-05
2.430715E+03	2.760714E-04	1.364200E-05
2.470562E+03	2.880513E-04	1.414446E-05
2.510410E+03	3.011436E-04	1.469203E-05
2.550258E+03	3.154285E-04	1.528734E-05
2.590106E+03	3.309035E-04	1.592885E-05
2.629954E+03	3.478562E-04	1.662890E-05
2.669801E+03	3.664065E-04	1.739140E-05
2.709649E+03	3.866890E-04	1.822077E-05
2.749497E+03	4.090590E-04	1.913152E-05
2.789345E+03	4.336998E-04	2.012959E-05
2.829192E+03	4.608161E-04	2.122160E-05
2.869040E+03	4.908575E-04	2.242499E-05
2.908888E+03	5.242090E-04	2.375354E-05
2.948736E+03	5.611811E-04	2.521701E-05
2.988584E+03	6.023552E-04	2.683668E-05
2.998546E+03	6.133887E-04	2.726909E-05
3.008508E+03	6.247316E-04	2.771289E-05
3.018469E+03	6.363910E-04	2.816830E-05
3.028431E+03	6.483737E-04	2.863553E-05
3.038393E+03	6.606870E-04	2.911479E-05
3.048355E+03	6.733380E-04	2.960628E-05
3.058317E+03	6.863345E-04	3.011024E-05
3.068279E+03	6.996835E-04	3.062686E-05
3.078241E+03	7.135224E-04	3.116203E-05
3.088203E+03	7.277314E-04	3.171037E-05
3.098165E+03	7.423182E-04	3.227209E-05
3.108127E+03	7.572902E-04	3.284739E-05
3.118089E+03	7.726556E-04	3.343651E-05
3.128051E+03	7.885574E-04	3.404547E-05
3.138013E+03	8.050066E-04	3.467460E-05
3.147975E+03	8.218770E-04	3.531827E-05
3.157937E+03	8.391764E-04	3.597669E-05
3.167899E+03	8.570524E-04	3.665603E-05
3.177861E+03	8.753746E-04	3.735053E-05
3.187823E+03	8.942933E-04	3.806645E-05
3.197784E+03	9.138194E-04	3.880404E-05
3.207746E+03	9.338181E-04	3.955741E-05
3.217708E+03	9.544428E-04	4.033288E-05
3.227670E+03	9.757037E-04	4.113066E-05
3.237632E+03	9.976108E-04	4.195096E-05
3.247594E+03	1.020174E-03	4.279398E-05
3.257556E+03	1.043400E-03	4.365984E-05
3.267518E+03	1.067300E-03	4.454871E-05
3.277480E+03	1.091881E-03	4.546065E-05
3.287442E+03	1.117149E-03	4.639574E-05
3.297404E+03	1.143269E-03	4.736055E-05
3.307366E+03	1.170090E-03	4.834858E-05
3.317328E+03	1.197617E-03	4.935979E-05
3.327290E+03	1.226016E-03	5.040072E-05
3.337252E+03	1.255126E-03	5.146458E-05
3.347214E+03	1.285282E-03	5.256471E-05
3.357176E+03	1.316154E-03	5.368740E-05
3.367138E+03	1.347739E-03	5.483224E-05
3.377099E+03	1.380373E-03	5.601261E-05
3.387061E+03	1.413885E-03	5.722123E-05
3.397023E+03	1.448268E-03	5.845758E-05
3.406985E+03	1.483514E-03	5.972099E-05
3.416947E+03	1.519789E-03	6.101782E-05
3.426909E+03	1.556903E-03	6.234017E-05
3.436871E+03	1.595018E-03	6.369419E-05
3.446833E+03	1.634116E-03	6.507885E-05
3.456795E+03	1.673993E-03	6.648568E-05
3.466757E+03	1.714987E-03	6.792780E-05
3.476719E+03	1.756699E-03	6.938910E-05
3.486681E+03	1.799464E-03	7.088249E-05
3.496643E+03	1.843056E-03	7.239877E-05
3.506605E+03	1.887618E-03	7.394323E-05
3.516567E+03	1.932911E-03	7.550624E-05
3.526529E+03	1.979261E-03	7.710023E-05
3.536491E+03	2.026227E-03	7.870772E-05
3.546453E+03	2.074131E-03	8.034093E-05
3.556414E+03	2.122519E-03	8.198203E-05
3.566376E+03	2.171910E-03	8.365083E-05
3.576338E+03	2.221849E-03	8.532956E-05
3.586300E+03	2.272278E-03	8.701576E-05
3.596262E+03	2.323545E-03	8.872256E-05
3.606224E+03	2.375413E-03	9.044066E-05
3.616186E+03	2.427851E-03	9.216868E-05
3.626148E+03	2.481035E-03	9.391305E-05
3.636110E+03	2.534742E-03	9.566516E-05
3.646072E+03	2.588952E-03	9.742408E-05
3.656034E+03	2.644051E-03	9.920405E-05
3.665996E+03	2.699819E-03	1.009966E-04
3.675958E+03	2.756039E-03	1.027934E-04
3.685920E+03	2.813294E-03	1.046160E-04
3.695882E+03	2.870966E-03	1.064411E-04
3.705844E+03	2.929632E-03	1.082898E-04
3.715806E+03	2.988873E-03	1.101463E-04
3.725768E+03	3.048860E-03	1.120167E-04
3.735730E+03	3.109569E-03	1.138999E-04
3.745691E+03	3.171168E-03	1.158015E-04
3.755653E+03	3.233423E-03	1.177128E-04
3.765615E+03	3.296489E-03	1.196392E-04
3.775577E+03	3.360122E-03	1.215714E-04
3.785539E+03	3.424669E-03	1.235219E-04
3.795501E+03	3.489864E-03	1.254805E-04
3.805463E+03	3.555637E-03	1.274446E-04
3.815425E+03	3.621898E-03	1.294106E-04
3.825387E+03	3.688951E-03	1.313893E-04
3.835349E+03	3.756281E-03	1.333618E-04
3.845311E+03	3.823755E-03	1.353235E-04
3.855273E+03	3.891816E-03	1.372898E-04
3.865235E+03	3.959691E-03	1.392332E-04
3.875197E+03	4.027576E-03	1.411606E-04
3.885159E+03	4.095049E-03	1.430572E-04
3.895121E+03	4.162048E-03	1.449209E-04
3.905083E+03	4.228285E-03	1.467418E-04
3.915045E+03	4.293450E-03	1.485093E-04
3.925006E+03	4.357205E-03	1.502121E-04
3.934968E+03	4.419365E-03	1.518443E-04
3.944930E+03	4.479169E-03	1.533803E-04
3.954892E+03	4.536594E-03	1.548199E-04
3.964854E+03	4.591220E-03	1.561497E-04
3.974816E+03	4.642638E-03	1.573568E-04
3.984778E+03	4.690270E-03	1.584226E-04
3.994740E+03	4.733922E-03	1.593420E-04
4.004702E+03	4.773254E-03	1.601047E-04
4.014664E+03	4.807988E-03	1.607030E-04
4.024626E+03	4.837893E-03	1.611307E-04
4.034588E+03	4.862829E-03	1.613850E-04
4.044550E+03	4.882898E-03	1.614707E-04
4.054512E+03	4.897811E-03	1.613802E-04
4.064474E+03	4.907868E-03	1.611251E-04
4.074436E+03	4.913464E-03	1.607200E-04
4.084398E+03	4.914633E-03	1.601675E-04
4.094360E+03	4.912117E-03	1.594934E-04
4.104321E+03	4.906149E-03	1.587065E-04
4.114283E+03	4.897489E-03	1.578325E-04
4.124245E+03	4.886822E-03	1.568945E-04
4.134207E+03	4.874877E-03	1.559163E-04
4.144169E+03	4.862301E-03	1.549191E-04
4.154131E+03	4.849900E-03	1.539287E-04
4.164093E+03	4.838491E-03	1.529710E-04
4.174055E+03	4.828889E-03	1.520710E-04
4.184017E+03	4.821766E-03	1.512494E-04
4.193979E+03	4.818010E-03	1.505328E-04
4.203941E+03	4.818228E-03	1.499390E-04
4.213903E+03	4.822977E-03	1.494836E-04
4.223865E+03	4.832987E-03	1.491875E-04
4.233827E+03	4.848580E-03	1.490586E-04
4.243789E+03	4.870331E-03	1.491123E-04
4.253751E+03	4.898519E-03	1.493549E-04
4.263713E+03	4.933436E-03	1.497926E-04
4.273675E+03	4.975066E-03	1.504224E-04
4.283637E+03	5.023611E-03	1.512477E-04
4.293598E+03	5.078943E-03	1.522619E-04
4.303560E+03	5.140835E-03	1.534557E-04
4.313522E+03	5.209036E-03	1.548188E-04
4.323484E+03	5.283089E-03	1.563354E-04
4.333446E+03	5.362434E-03	1.579865E-04
4.343408E+03	5.446553E-03	1.597547E-04
4.353370E+03	5.534702E-03	1.616163E-04
4.363332E+03	5.626414E-03	1.635562E-04
4.373294E+03	5.721304E-03	1.655616E-04
4.383256E+03	5.819342E-03	1.676303E-04
4.393218E+03	5.920488E-03	1.697598E-04
4.403180E+03	6.025425E-03	1.719682E-04
4.413142E+03	6.134356E-03	1.742597E-04
4.423104E+03	6.248033E-03	1.766538E-04
4.433066E+03	6.366966E-03	1.791628E-04
4.443028E+03	6.491475E-03	1.817934E-04
4.452990E+03	6.621951E-03	1.845543E-04
4.462952E+03	6.758515E-03	1.874461E-04
4.472913E+03	6.901103E-03	1.904644E-04
4.482875E+03	7.049332E-03	1.935963E-04
4.492837E+03	7.203019E-03	1.968341E-04
4.502799E+03	7.361335E-03	2.001531E-04
4.512761E+03	7.523438E-03	2.035283E-04
4.522723E+03	7.688280E-03	2.069297E-04
4.532685E+03	7.854511E-03	2.103200E-04
4.542647E+03	8.020842E-03	2.136640E-04
4.552609E+03	8.185543E-03	2.169157E-04
4.562571E+03	8.347268E-03	2.200402E-04
4.572533E+03	8.504228E-03	2.229914E-04
4.582495E+03	8.655052E-03	2.257357E-04
4.592457E+03	8.798286E-03	2.282377E-04
4.602419E+03	8.932810E-03	2.304715E-04
4.612381E+03	9.057791E-03	2.324194E-04
4.622343E+03	9.172858E-03	2.340758E-04
4.632305E+03	9.277774E-03	2.354389E-04
4.642267E+03	9.372705E-03	2.365171E-04
4.652228E+03	9.458561E-03	2.373375E-04
4.662190E+03	9.536258E-03	2.379267E-04
4.672152E+03	9.607142E-03	2.383215E-04
4.682114E+03	9.672927E-03	2.385674E-04
4.692076E+03	9.735257E-03	2.387067E-04
4.702038E+03	9.796073E-03	2.387882E-04
4.712000E+03	9.857070E-03	2.388538E-04
4.721962E+03	9.920068E-03	2.389472E-04
4.731924E+03	9.986686E-03	2.391063E-04
4.741886E+03	1.005804E-02	2.393563E-04
4.751848E+03	1.013504E-02	2.397166E-04
4.761810E+03	1.021832E-02	2.401998E-04
4.771772E+03	1.030811E-02	2.408084E-04
4.781734E+03	1.040382E-02	2.415261E-04
4.791696E+03	1.050487E-02	2.423370E-04
4.801658E+03	1.060986E-02	2.432068E-04
4.811620E+03	1.071706E-02	2.440943E-04
4.821582E+03	1.082420E-02	2.449473E-04
4.831544E+03	1.092886E-02	2.457117E-04
4.841505E+03	1.102813E-02	2.463235E-04
4.851467E+03	1.111902E-02	2.467192E-04
4.861429E+03	1.119864E-02	2.468387E-04
4.871391E+03	1.126382E-02	2.466179E-04
4.881353E+03	1.131215E-02	2.460110E-04
4.891315E+03	1.134112E-02	2.449714E-04
4.901277E+03	1.134915E-02	2.434737E-04
4.911239E+03	1.133526E-02	2.415071E-04
4.921201E+03	1.129884E-02	2.390681E-04
4.931163E+03	1.124044E-02	2.361788E-04
4.941125E+03	1.116095E-02	2.328677E-04
4.951087E+03	1.106200E-02	2.291779E-04
4.961049E+03	1.094584E-02	2.251648E-04
4.971011E+03	1.081494E-02	2.208865E-04
4.980973E+03	1.067231E-02	2.164107E-04
4.990935E+03	1.052110E-02	2.118065E-04
5.000897E+03	1.036466E-02	2.071443E-04
5.010859E+03	1.020642E-02	2.024953E-04
5.020820E+03	1.005001E-02	1.979314E-04
5.030782E+03	9.898808E-03	1.935184E-04
5.040744E+03	9.756421E-03	1.893240E-04
5.050706E+03	9.625971E-03	1.854048E-04
5.060668E+03	9.510425E-03	1.818124E-04
5.070630E+03	9.412532E-03	1.785929E-04
5.080592E+03	9.334534E-03	1.757810E-04
5.090554E+03	9.278329E-03	1.734040E-04
5.100516E+03	9.245124E-03	1.714752E-04
5.110478E+03	9.235906E-03	1.700035E-04
5.120440E+03	9.250838E-03	1.689819E-04
5.130402E+03	9.289644E-03	1.683958E-04
5.140364E+03	9.351719E-03	1.682249E-04
5.150326E+03	9.435751E-03	1.684367E-04
5.160288E+03	9.539882E-03	1.689898E-04
5.170250E+03	9.662030E-03	1.698401E-04
5.180212E+03	9.799792E-03	1.709393E-04
5.190174E+03	9.950437E-03	1.722347E-04
5.200135E+03	1.011111E-02	1.736731E-04
5.210097E+03	1.027906E-02	1.752046E-04
5.220059E+03	1.045151E-02	1.767806E-04
5.230021E+03	1.062598E-02	1.783589E-04
5.239983E+03	1.079998E-02	1.798986E-04
5.249945E+03	1.097162E-02	1.813700E-04
5.259907E+03	1.113892E-02	1.827429E-04
5.269869E+03	1.130034E-02	1.839951E-04
5.279831E+03	1.145437E-02	1.851061E-04
5.289793E+03	1.159974E-02	1.860595E-04
5.299755E+03	1.173517E-02	1.868395E-04
5.309717E+03	1.185941E-02	1.874315E-04
5.319679E+03	1.197145E-02	1.878249E-04
5.329641E+03	1.207016E-02	1.880078E-04
5.339603E+03	1.215508E-02	1.879790E-04
5.349565E+03	1.222533E-02	1.877308E-04
5.359527E+03	1.228109E-02	1.872722E-04
5.369489E+03	1.232254E-02	1.866117E-04
5.379450E+03	1.235046E-02	1.857666E-04
5.389412E+03	1.236628E-02	1.847635E-04
5.399374E+03	1.237195E-02	1.836360E-04
5.409336E+03	1.236948E-02	1.824175E-04
5.419298E+03	1.236171E-02	1.811530E-04
5.429260E+03	1.235142E-02	1.798851E-04
5.439222E+03	1.234151E-02	1.786571E-04
5.449184E+03	1.233423E-02	1.775022E-04
5.459146E+03	1.233177E-02	1.764518E-04
5.469108E+03	1.233521E-02	1.755207E-04
5.479070E+03	1.234454E-02	1.747082E-04
5.489032E+03	1.235858E-02	1.739971E-04
5.498994E+03	1.237588E-02	1.733664E-04
5.508956E+03	1.239443E-02	1.727867E-04
5.518918E+03	1.241313E-02	1.722419E-04
5.528880E+03	1.243111E-02	1.717193E-04
5.538842E+03	1.244871E-02	1.712228E-04
5.548804E+03	1.246682E-02	1.707641E-04
5.558766E+03	1.248665E-02	1.703588E-04
5.568727E+03	1.250974E-02	1.700269E-04
5.578689E+03	1.253699E-02	1.697790E-04
5.588651E+03	1.256909E-02	1.696233E-04
5.598613E+03	1.260548E-02	1.695509E-04
5.608575E+03	1.264454E-02	1.695387E-04
5.618537E+03	1.268375E-02	1.695518E-04
5.628499E+03	1.271982E-02	1.695460E-04
5.638461E+03	1.274860E-02	1.694653E-04
5.648423E+03	1.276615E-02	1.692577E-04
5.658385E+03	1.276872E-02	1.688739E-04
5.668347E+03	1.275353E-02	1.682777E-04
5.678309E+03	1.271909E-02	1.674500E-04
5.688271E+03	1.266533E-02	1.663906E-04
5.698233E+03	1.259389E-02	1.651215E-04
5.708195E+03	1.250794E-02	1.636842E-04
5.718157E+03	1.241170E-02	1.621339E-04
5.728119E+03	1.231036E-02	1.605374E-04
5.738081E+03	1.220934E-02	1.589648E-04
5.748042E+03	1.211430E-02	1.574883E-04
5.758004E+03	1.203028E-02	1.561717E-04
5.767966E+03	1.196153E-02	1.550688E-04
5.777928E+03	1.191193E-02	1.542278E-04
5.787890E+03	1.188401E-02	1.536800E-04
5.797852E+03	1.187914E-02	1.534409E-04
5.807814E+03	1.189799E-02	1.535179E-04
5.817776E+03	1.193958E-02	1.538964E-04
5.827738E+03	1.200234E-02	1.545551E-04
5.837700E+03	1.208322E-02	1.554533E-04
5.847662E+03	1.217846E-02	1.565418E-04
5.857624E+03	1.228351E-02	1.577614E-04
5.867586E+03	1.239321E-02	1.590450E-04
5.877548E+03	1.250223E-02	1.603241E-04
5.887510E+03	1.260536E-02	1.615315E-04
5.897472E+03	1.269752E-02	1.626021E-04
5.907434E+03	1.277473E-02	1.634850E-04
5.917396E+03	1.283361E-02	1.641370E-04
5.927357E+03	1.287232E-02	1.645351E-04
5.937319E+03	1.288970E-02	1.646643E-04
5.947281E+03	1.288574E-02	1.645249E-04
5.957243E+03	1.286161E-02	1.641320E-04
5.967205E+03	1.281893E-02	1.635064E-04
5.977167E+03	1.275982E-02	1.626755E-04
5.987129E+03	1.268696E-02	1.616733E-04
5.997091E+03	1.260277E-02	1.605310E-04
6.007053E+03	1.251005E-02	1.592840E-04
6.017015E+03	1.241121E-02	1.579633E-04
6.026977E+03	1.230849E-02	1.565974E-04
6.036939E+03	1.220398E-02	1.552128E-04
6.046901E+03	1.209958E-02	1.538337E-04
6.056863E+03	1.199642E-02	1.524745E-04
6.066825E+03	1.189586E-02	1.511524E-04
6.076787E+03	1.179849E-02	1.498750E-04
6.086749E+03	1.170501E-02	1.486513E-04
6.096711E+03	1.161559E-02	1.474836E-04
6.106673E+03	1.153079E-02	1.463789E-04
6.116634E+03	1.145068E-02	1.453384E-04
6.126596E+03	1.137550E-02	1.443651E-04
6.136558E+03	1.130586E-02	1.434671E-04
6.146520E+03	1.124206E-02	1.426484E-04
6.156482E+03	1.118434E-02	1.419122E-04
6.166444E+03	1.113296E-02	1.412622E-04
6.176406E+03	1.108770E-02	1.406957E-04
6.186368E+03	1.104811E-02	1.402074E-04
6.196330E+03	1.101317E-02	1.397847E-04
6.206292E+03	1.098143E-02	1.394097E-04
6.216254E+03	1.095087E-02	1.390570E-04
6.226216E+03	1.091925E-02	1.386986E-04
6.236178E+03	1.088386E-02	1.383004E-04
6.246140E+03	1.084192E-02	1.378275E-04
6.256102E+03	1.079081E-02	1.372468E-04
6.266064E+03	1.072803E-02	1.365264E-04
6.276026E+03	1.065147E-02	1.356401E-04
6.285988E+03	1.055971E-02	1.345692E-04
6.295949E+03	1.045216E-02	1.333062E-04
6.305911E+03	1.032943E-02	1.318586E-04
6.315873E+03	1.019316E-02	1.302469E-04
6.325835E+03	1.004665E-02	1.285127E-04
6.335797E+03	9.894204E-03	1.267108E-04
6.345759E+03	9.741408E-03	1.249124E-04
6.355721E+03	9.594896E-03	1.232026E-04
6.365683E+03	9.461766E-03	1.216729E-04
6.375645E+03	9.349297E-03	1.204177E-04
6.385607E+03	9.264562E-03	1.195294E-04
6.395569E+03	9.214200E-03	1.190957E-04
6.405531E+03	9.203846E-03	1.191922E-04
6.415493E+03	9.238361E-03	1.198853E-04
6.425455E+03	9.321290E-03	1.212244E-04
6.435417E+03	9.455046E-03	1.232448E-04
6.445379E+03	9.640713E-03	1.259649E-04
6.455341E+03	9.877755E-03	1.293829E-04
6.465303E+03	1.016375E-02	1.334720E-04
6.475264E+03	1.049471E-02	1.381850E-04
6.485226E+03	1.086441E-02	1.434449E-04
6.495188E+03	1.126403E-02	1.491394E-04
6.505150E+03	1.168270E-02	1.551281E-04
6.515112E+03	1.210643E-02	1.612270E-04
6.525074E+03	1.251972E-02	1.672300E-04
6.535036E+03	1.290587E-02	1.729121E-04
6.544998E+03	1.324827E-02	1.780468E-04
6.554960E+03	1.353216E-02	1.824294E-04
6.564922E+03	1.374578E-02	1.858929E-04
6.574884E+03	1.388116E-02	1.883199E-04
6.584846E+03	1.393521E-02	1.896571E-04
6.594808E+03	1.390885E-02	1.899059E-04
6.604770E+03	1.380773E-02	1.891319E-04
6.614732E+03	1.364004E-02	1.874372E-04
6.624694E+03	1.341667E-02	1.849618E-04
6.634656E+03	1.314920E-02	1.818576E-04
6.644618E+03	1.284957E-02	1.782836E-04
6.654580E+03	1.252879E-02	1.743879E-04
6.664541E+03	1.219623E-02	1.702978E-04
6.674503E+03	1.186022E-02	1.661279E-04
6.684465E+03	1.152695E-02	1.619643E-04
6.694427E+03	1.120114E-02	1.578733E-04
6.704389E+03	1.088609E-02	1.539023E-04
6.714351E+03	1.058393E-02	1.500827E-04
6.724313E+03	1.029577E-02	1.464317E-04
6.734275E+03	1.002245E-02	1.429628E-04
6.744237E+03	9.763833E-03	1.396760E-04
6.754199E+03	9.519906E-03	1.365729E-04
6.764161E+03	9.290271E-03	1.336494E-04
6.774123E+03	9.074730E-03	1.309046E-04
6.784085E+03	8.873023E-03	1.283363E-04
6.794047E+03	8.684884E-03	1.259423E-04
6.804009E+03	8.510316E-03	1.237244E-04
6.813971E+03	8.349597E-03	1.216881E-04
6.823933E+03	8.202970E-03	1.198386E-04
6.833895E+03	8.070945E-03	1.181849E-04
6.843856E+03	7.954164E-03	1.167381E-04
6.853818E+03	7.853449E-03	1.155117E-04
6.863780E+03	7.769320E-03	1.145151E-04
6.873742E+03	7.702554E-03	1.137613E-04
6.883704E+03	7.653676E-03	1.132596E-04
6.893666E+03	7.622996E-03	1.130159E-04
6.903628E+03	7.610524E-03	1.130320E-04
6.913590E+03	7.615827E-03	1.133025E-04
6.923552E+03	7.638270E-03	1.138192E-04
6.933514E+03	7.676600E-03	1.145643E-04
6.943476E+03	7.729258E-03	1.155152E-04
6.953438E+03	7.794417E-03	1.166452E-04
6.963400E+03	7.869748E-03	1.179195E-04
6.973362E+03	7.952811E-03	1.193018E-04
6.983324E+03	8.041165E-03	1.207553E-04
6.993286E+03	8.132062E-03	1.222383E-04
7.003248E+03	8.223180E-03	1.237156E-04
7.013210E+03	8.312294E-03	1.251530E-04
7.023171E+03	8.397353E-03	1.265192E-04
7.033133E+03	8.476981E-03	1.277928E-04
7.043095E+03	8.549625E-03	1.289496E-04
7.053057E+03	8.614683E-03	1.299802E-04
7.063019E+03	8.671729E-03	1.308774E-04
7.072981E+03	8.720583E-03	1.316382E-04
7.082943E+03	8.761512E-03	1.322662E-04
7.092905E+03	8.795060E-03	1.327693E-04
7.102867E+03	8.822003E-03	1.331591E-04
7.112829E+03	8.843260E-03	1.334493E-04
7.122791E+03	8.859737E-03	1.336535E-04
7.132753E+03	8.872740E-03	1.337914E-04
7.142715E+03	8.883075E-03	1.338750E-04
7.152677E+03	8.891858E-03	1.339213E-04
7.162639E+03	8.899863E-03	1.339419E-04
7.172601E+03	8.907875E-03	1.339486E-04
7.182563E+03	8.916531E-03	1.339509E-04
7.192525E+03	8.926437E-03	1.339580E-04
7.202487E+03	8.937783E-03	1.339727E-04
7.212448E+03	8.950711E-03	1.339969E-04
7.222410E+03	8.965052E-03	1.340282E-04
7.232372E+03	8.980837E-03	1.340669E-04
7.242334E+03	8.997286E-03	1.341013E-04
7.252296E+03	9.014214E-03	1.341287E-04
7.262258E+03	9.030645E-03	1.341347E-04
7.272220E+03	9.045714E-03	1.341065E-04
7.282182E+03	9.058590E-03	1.340320E-04
7.292144E+03	9.068100E-03	1.338942E-04
7.302106E+03	9.073035E-03	1.336758E-04
7.312068E+03	9.072583E-03	1.333656E-04
7.322030E+03	9.065583E-03	1.329471E-04
7.331992E+03	9.050962E-03	1.324057E-04
7.341954E+03	9.028033E-03	1.317326E-04
7.351916E+03	8.996149E-03	1.309195E-04
7.361878E+03	8.954708E-03	1.299592E-04
7.371840E+03	8.903460E-03	1.288497E-04
7.381802E+03	8.842500E-03	1.275940E-04
7.391763E+03	8.772031E-03	1.261970E-04
7.401725E+03	8.692216E-03	1.246626E-04
7.411687E+03	8.603953E-03	1.230058E-04
7.421649E+03	8.507820E-03	1.212364E-04
7.431611E+03	8.405077E-03	1.193742E-04
7.441573E+03	8.296750E-03	1.174353E-04
7.451535E+03	8.184105E-03	1.154392E-04
7.461497E+03	8.068490E-03	1.134061E-04
7.471459E+03	7.951308E-03	1.113569E-04
7.481421E+03	7.834107E-03	1.093141E-04
7.491383E+03	7.718306E-03	1.072982E-04
7.501345E+03	7.605189E-03	1.053275E-04
7.511307E+03	7.496220E-03	1.034224E-04
7.521269E+03	7.392676E-03	1.016006E-04
7.531231E+03	7.295744E-03	9.987797E-05
7.541193E+03	7.206489E-03	9.826878E-05
7.551155E+03	7.125834E-03	9.678493E-05
7.561117E+03	7.054760E-03	9.543894E-05
7.571078E+03	6.993620E-03	9.423465E-05
7.581040E+03	6.942898E-03	9.317759E-05
7.591002E+03	6.902644E-03	9.226739E-05
7.600964E+03	6.873129E-03	9.150661E-05
7.610926E+03	6.853756E-03	9.088632E-05
7.620888E+03	6.844262E-03	9.040213E-05
7.630850E+03	6.843876E-03	9.004307E-05
7.640812E+03	6.851983E-03	8.980046E-05
7.650774E+03	6.867392E-03	8.965827E-05
7.660736E+03	6.889134E-03	8.960367E-05
7.670698E+03	6.916045E-03	8.962156E-05
7.680660E+03	6.947024E-03	8.969796E-05
7.690622E+03	6.980738E-03	8.981619E-05
7.700584E+03	7.015983E-03	8.996150E-05
7.710546E+03	7.051825E-03	9.012288E-05
7.720508E+03	7.086960E-03	9.028484E-05
7.730470E+03	7.120416E-03	9.043630E-05
