#wls	flux	fluxerr
1.593911E+03	2.683891E-05	1.474621E-06
1.633759E+03	2.730156E-05	1.499122E-06
1.673607E+03	2.779704E-05	1.525367E-06
1.713455E+03	2.831019E-05	1.552518E-06
1.753302E+03	2.885943E-05	1.581581E-06
1.793150E+03	2.944670E-05	1.612655E-06
1.832998E+03	3.006561E-05	1.645385E-06
1.872846E+03	3.071834E-05	1.679883E-06
1.912694E+03	3.141590E-05	1.716743E-06
1.952541E+03	3.216108E-05	1.756109E-06
1.992389E+03	3.295692E-05	1.798138E-06
2.032237E+03	3.379798E-05	1.842523E-06
2.072085E+03	3.469661E-05	1.889927E-06
2.111932E+03	3.565686E-05	1.940558E-06
2.151780E+03	3.668316E-05	1.994643E-06
2.191628E+03	3.777117E-05	2.051933E-06
2.231476E+03	3.894459E-05	2.113699E-06
2.271324E+03	4.020967E-05	2.180261E-06
2.311171E+03	4.155412E-05	2.250932E-06
2.351019E+03	4.300415E-05	2.327113E-06
2.390867E+03	4.456808E-05	2.409227E-06
2.430715E+03	4.624503E-05	2.497200E-06
2.470562E+03	4.805489E-05	2.592075E-06
2.510410E+03	5.000878E-05	2.694420E-06
2.550258E+03	5.211893E-05	2.804856E-06
2.590106E+03	5.439893E-05	2.924071E-06
2.629954E+03	5.686358E-05	3.052816E-06
2.669801E+03	5.955243E-05	3.193162E-06
2.709649E+03	6.244954E-05	3.344194E-06
2.749497E+03	6.561041E-05	3.508821E-06
2.789345E+03	6.904608E-05	3.687559E-06
2.829192E+03	7.278132E-05	3.881649E-06
2.869040E+03	7.685641E-05	4.093148E-06
2.908888E+03	8.128800E-05	4.322840E-06
2.948736E+03	8.613623E-05	4.573808E-06
2.988584E+03	9.142278E-05	4.847074E-06
2.998546E+03	9.280915E-05	4.918659E-06
3.008508E+03	9.423618E-05	4.992330E-06
3.018469E+03	9.570474E-05	5.068129E-06
3.028431E+03	9.718466E-05	5.144457E-06
3.038393E+03	9.870739E-05	5.222975E-06
3.048355E+03	1.002738E-04	5.303726E-06
3.058317E+03	1.018688E-04	5.385913E-06
3.068279E+03	1.034930E-04	5.469559E-06
3.078241E+03	1.051467E-04	5.554684E-06
3.088203E+03	1.068470E-04	5.642183E-06
3.098165E+03	1.085948E-04	5.732102E-06
3.108127E+03	1.103574E-04	5.822713E-06
3.118089E+03	1.121857E-04	5.916701E-06
3.128051E+03	1.140298E-04	6.011420E-06
3.138013E+03	1.159242E-04	6.108696E-06
3.147975E+03	1.178698E-04	6.208571E-06
3.157937E+03	1.198322E-04	6.309229E-06
3.167899E+03	1.218650E-04	6.413483E-06
3.177861E+03	1.239152E-04	6.518549E-06
3.187823E+03	1.260193E-04	6.626338E-06
3.197784E+03	1.281782E-04	6.736891E-06
3.207746E+03	1.303739E-04	6.849268E-06
3.217708E+03	1.326257E-04	6.964468E-06
3.227670E+03	1.349153E-04	7.081527E-06
3.237632E+03	1.372427E-04	7.200448E-06
3.247594E+03	1.396277E-04	7.322258E-06
3.257556E+03	1.420511E-04	7.445950E-06
3.267518E+03	1.445328E-04	7.572566E-06
3.277480E+03	1.470533E-04	7.701073E-06
3.287442E+03	1.496327E-04	7.832525E-06
3.297404E+03	1.522716E-04	7.966939E-06
3.307366E+03	1.549285E-04	8.102149E-06
3.317328E+03	1.576654E-04	8.241391E-06
3.327290E+03	1.604407E-04	8.382479E-06
3.337252E+03	1.632536E-04	8.525374E-06
3.347214E+03	1.661251E-04	8.671165E-06
3.357176E+03	1.690329E-04	8.818687E-06
3.367138E+03	1.719982E-04	8.969034E-06
3.377099E+03	1.750204E-04	9.122173E-06
3.387061E+03	1.780760E-04	9.276878E-06
3.397023E+03	1.811864E-04	9.434252E-06
3.406985E+03	1.843272E-04	9.593026E-06
3.416947E+03	1.875198E-04	9.754303E-06
3.426909E+03	1.907389E-04	9.916769E-06
3.436871E+03	1.940058E-04	1.008153E-05
3.446833E+03	1.972944E-04	1.024721E-05
3.456795E+03	2.006257E-04	1.041491E-05
3.466757E+03	2.039971E-04	1.058449E-05
3.476719E+03	2.073807E-04	1.075449E-05
3.486681E+03	2.107975E-04	1.092600E-05
3.496643E+03	2.142184E-04	1.109751E-05
3.506605E+03	2.176641E-04	1.127009E-05
3.516567E+03	2.211303E-04	1.144350E-05
3.526529E+03	2.245859E-04	1.161616E-05
3.536491E+03	2.280515E-04	1.178911E-05
3.546453E+03	2.315217E-04	1.196207E-05
3.556414E+03	2.349642E-04	1.213338E-05
3.566376E+03	2.383999E-04	1.230411E-05
3.576338E+03	2.417968E-04	1.247261E-05
3.586300E+03	2.451770E-04	1.264003E-05
3.596262E+03	2.485372E-04	1.280619E-05
3.606224E+03	2.518475E-04	1.296955E-05
3.616186E+03	2.551334E-04	1.313143E-05
3.626148E+03	2.583937E-04	1.329177E-05
3.636110E+03	2.616274E-04	1.345052E-05
3.646072E+03	2.648057E-04	1.360620E-05
3.656034E+03	2.679277E-04	1.375876E-05
3.665996E+03	2.710487E-04	1.391105E-05
3.675958E+03	2.741116E-04	1.406014E-05
3.685920E+03	2.771438E-04	1.420743E-05
3.695882E+03	2.801159E-04	1.435142E-05
3.705844E+03	2.830840E-04	1.449499E-05
3.715806E+03	2.859899E-04	1.463515E-05
3.725768E+03	2.888324E-04	1.477186E-05
3.735730E+03	2.916680E-04	1.490799E-05
3.745691E+03	2.944378E-04	1.504055E-05
3.755653E+03	2.971405E-04	1.516947E-05
3.765615E+03	2.998328E-04	1.529765E-05
3.775577E+03	3.024556E-04	1.542208E-05
3.785539E+03	3.050365E-04	1.554416E-05
3.795501E+03	3.075744E-04	1.566384E-05
3.805463E+03	3.100390E-04	1.577959E-05
3.815425E+03	3.124580E-04	1.589281E-05
3.825387E+03	3.148303E-04	1.600346E-05
3.835349E+03	3.171549E-04	1.611149E-05
3.845311E+03	3.194015E-04	1.621536E-05
3.855273E+03	3.215981E-04	1.631650E-05
3.865235E+03	3.237440E-04	1.641488E-05
3.875197E+03	3.258382E-04	1.651044E-05
3.885159E+03	3.278510E-04	1.660170E-05
3.895121E+03	3.298107E-04	1.669009E-05
3.905083E+03	3.317169E-04	1.677559E-05
3.915045E+03	3.335692E-04	1.685819E-05
3.925006E+03	3.353384E-04	1.693642E-05
3.934968E+03	3.370535E-04	1.701174E-05
3.944930E+03	3.387143E-04	1.708416E-05
3.954892E+03	3.402927E-04	1.715226E-05
3.964854E+03	3.418461E-04	1.721894E-05
3.974816E+03	3.433182E-04	1.728137E-05
3.984778E+03	3.447384E-04	1.734103E-05
3.994740E+03	3.460797E-04	1.739657E-05
4.004702E+03	3.474000E-04	1.745090E-05
4.014664E+03	3.486449E-04	1.750131E-05
4.024626E+03	3.498451E-04	1.754933E-05
4.034588E+03	3.509759E-04	1.759373E-05
4.044550E+03	3.520685E-04	1.763608E-05
4.054512E+03	3.531270E-04	1.767659E-05
4.064474E+03	3.541560E-04	1.771549E-05
4.074436E+03	3.551608E-04	1.775305E-05
4.084398E+03	3.561204E-04	1.778822E-05
4.094360E+03	3.570688E-04	1.782270E-05
4.104321E+03	3.580137E-04	1.785689E-05
4.114283E+03	3.589372E-04	1.788988E-05
4.124245E+03	3.598756E-04	1.792348E-05
4.134207E+03	3.608393E-04	1.795822E-05
4.144169E+03	3.618394E-04	1.799463E-05
4.154131E+03	3.628610E-04	1.803199E-05
4.164093E+03	3.639422E-04	1.807216E-05
4.174055E+03	3.650945E-04	1.811572E-05
4.184017E+03	3.663039E-04	1.816197E-05
4.193979E+03	3.676076E-04	1.821274E-05
4.203941E+03	3.690160E-04	1.826853E-05
4.213903E+03	3.705148E-04	1.832862E-05
4.223865E+03	3.721386E-04	1.839471E-05
4.233827E+03	3.738971E-04	1.846728E-05
4.243789E+03	3.757985E-04	1.854669E-05
4.253751E+03	3.778252E-04	1.863208E-05
4.263713E+03	3.799838E-04	1.872375E-05
4.273675E+03	3.823303E-04	1.882444E-05
4.283637E+03	3.848194E-04	1.893189E-05
4.293598E+03	3.874550E-04	1.904628E-05
4.303560E+03	3.902646E-04	1.916896E-05
4.313522E+03	3.932515E-04	1.930004E-05
4.323484E+03	3.964172E-04	1.943959E-05
4.333446E+03	3.997379E-04	1.958642E-05
4.343408E+03	4.032159E-04	1.974061E-05
4.353370E+03	4.068768E-04	1.990340E-05
4.363332E+03	4.107230E-04	2.007489E-05
4.373294E+03	4.147301E-04	2.025385E-05
4.383256E+03	4.189248E-04	2.044158E-05
4.393218E+03	4.232828E-04	2.063684E-05
4.403180E+03	4.278297E-04	2.084089E-05
4.413142E+03	4.325402E-04	2.105245E-05
4.423104E+03	4.374397E-04	2.127274E-05
4.433066E+03	4.425286E-04	2.150176E-05
4.443028E+03	4.477552E-04	2.173696E-05
4.452990E+03	4.531965E-04	2.198206E-05
4.462952E+03	4.587737E-04	2.223321E-05
4.472913E+03	4.645641E-04	2.249415E-05
4.482875E+03	4.704864E-04	2.276090E-05
4.492837E+03	4.765881E-04	2.303573E-05
4.502799E+03	4.828625E-04	2.331832E-05
4.512761E+03	4.892454E-04	2.360551E-05
4.522723E+03	4.958037E-04	2.390054E-05
4.532685E+03	5.024372E-04	2.419854E-05
4.542647E+03	5.091782E-04	2.450105E-05
4.552609E+03	5.159736E-04	2.480552E-05
4.562571E+03	5.228225E-04	2.511188E-05
4.572533E+03	5.296683E-04	2.541740E-05
4.582495E+03	5.364816E-04	2.572068E-05
4.592457E+03	5.432631E-04	2.602175E-05
4.602419E+03	5.499330E-04	2.631680E-05
4.612381E+03	5.565273E-04	2.660755E-05
4.622343E+03	5.630305E-04	2.689328E-05
4.632305E+03	5.693744E-04	2.717073E-05
4.642267E+03	5.756100E-04	2.744237E-05
4.652228E+03	5.817066E-04	2.770673E-05
4.662190E+03	5.876679E-04	2.796401E-05
4.672152E+03	5.935018E-04	2.821461E-05
4.682114E+03	5.992516E-04	2.846059E-05
4.692076E+03	6.049050E-04	2.870139E-05
4.702038E+03	6.104549E-04	2.893667E-05
4.712000E+03	6.159860E-04	2.917047E-05
4.721962E+03	6.214959E-04	2.940265E-05
4.731924E+03	6.270144E-04	2.963465E-05
4.741886E+03	6.325708E-04	2.986783E-05
4.751848E+03	6.382243E-04	3.010499E-05
4.761810E+03	6.439410E-04	3.034450E-05
4.771772E+03	6.497747E-04	3.058890E-05
4.781734E+03	6.557750E-04	3.084050E-05
4.791696E+03	6.618967E-04	3.109714E-05
4.801658E+03	6.681792E-04	3.136066E-05
4.811620E+03	6.746251E-04	3.163115E-05
4.821582E+03	6.812614E-04	3.190986E-05
4.831544E+03	6.880166E-04	3.219341E-05
4.841505E+03	6.949050E-04	3.248245E-05
4.851467E+03	7.019065E-04	3.277603E-05
4.861429E+03	7.089969E-04	3.307299E-05
4.871391E+03	7.161511E-04	3.337214E-05
4.881353E+03	7.233111E-04	3.367079E-05
4.891315E+03	7.305134E-04	3.397062E-05
4.901277E+03	7.376699E-04	3.426753E-05
4.911239E+03	7.447873E-04	3.456185E-05
4.921201E+03	7.518437E-04	3.485255E-05
4.931163E+03	7.588192E-04	3.513873E-05
4.941125E+03	7.656976E-04	3.541965E-05
4.951087E+03	7.724340E-04	3.569324E-05
4.961049E+03	7.790510E-04	3.596057E-05
4.971011E+03	7.855426E-04	3.622138E-05
4.980973E+03	7.918730E-04	3.647404E-05
4.990935E+03	7.981072E-04	3.672156E-05
5.000897E+03	8.041840E-04	3.696115E-05
5.010859E+03	8.101122E-04	3.719322E-05
5.020820E+03	8.159732E-04	3.742154E-05
5.030782E+03	8.217251E-04	3.764420E-05
5.040744E+03	8.274015E-04	3.786275E-05
5.050706E+03	8.330784E-04	3.808067E-05
5.060668E+03	8.388076E-04	3.830034E-05
5.070630E+03	8.446507E-04	3.852455E-05
5.080592E+03	8.506428E-04	3.875488E-05
5.090554E+03	8.568569E-04	3.899465E-05
5.100516E+03	8.634014E-04	3.924873E-05
5.110478E+03	8.703501E-04	3.952043E-05
5.120440E+03	8.777393E-04	3.981134E-05
5.130402E+03	8.856633E-04	4.012566E-05
5.140364E+03	8.941362E-04	4.046395E-05
5.150326E+03	9.032258E-04	4.082920E-05
5.160288E+03	9.129140E-04	4.122048E-05
5.170250E+03	9.232329E-04	4.163916E-05
5.180212E+03	9.341291E-04	4.208274E-05
5.190174E+03	9.455692E-04	4.254961E-05
5.200135E+03	9.575422E-04	4.303921E-05
5.210097E+03	9.699963E-04	4.354913E-05
5.220059E+03	9.828389E-04	4.407515E-05
5.230021E+03	9.960116E-04	4.461458E-05
5.239983E+03	1.009493E-03	4.516643E-05
5.249945E+03	1.023192E-03	4.572658E-05
5.259907E+03	1.037057E-03	4.629263E-05
5.269869E+03	1.051073E-03	4.686402E-05
5.279831E+03	1.065159E-03	4.743698E-05
5.289793E+03	1.079269E-03	4.800958E-05
5.299755E+03	1.093404E-03	4.858174E-05
5.309717E+03	1.107486E-03	4.915011E-05
5.319679E+03	1.121482E-03	4.971318E-05
5.329641E+03	1.135400E-03	5.027132E-05
5.339603E+03	1.149168E-03	5.082138E-05
5.349565E+03	1.162753E-03	5.136190E-05
5.359527E+03	1.176114E-03	5.189116E-05
5.369489E+03	1.189247E-03	5.240891E-05
5.379450E+03	1.202049E-03	5.291080E-05
5.389412E+03	1.214448E-03	5.339361E-05
5.399374E+03	1.226355E-03	5.385357E-05
5.409336E+03	1.237709E-03	5.428806E-05
5.419298E+03	1.248314E-03	5.468856E-05
5.429260E+03	1.258134E-03	5.505362E-05
5.439222E+03	1.267005E-03	5.537623E-05
5.449184E+03	1.274809E-03	5.565142E-05
5.459146E+03	1.281483E-03	5.587651E-05
5.469108E+03	1.286843E-03	5.604375E-05
5.479070E+03	1.290894E-03	5.615356E-05
5.489032E+03	1.293531E-03	5.620155E-05
5.498994E+03	1.294712E-03	5.618615E-05
5.508956E+03	1.294417E-03	5.610673E-05
5.518918E+03	1.292657E-03	5.596397E-05
5.528880E+03	1.289471E-03	5.575982E-05
5.538842E+03	1.284937E-03	5.549785E-05
5.548804E+03	1.279208E-03	5.518483E-05
5.558766E+03	1.272345E-03	5.482363E-05
5.568727E+03	1.264600E-03	5.442526E-05
5.578689E+03	1.256079E-03	5.399435E-05
5.588651E+03	1.247053E-03	5.354276E-05
5.598613E+03	1.237671E-03	5.307683E-05
5.608575E+03	1.228065E-03	5.260237E-05
5.618537E+03	1.218467E-03	5.212931E-05
5.628499E+03	1.208969E-03	5.166153E-05
5.638461E+03	1.199639E-03	5.120197E-05
5.648423E+03	1.190642E-03	5.075757E-05
5.658385E+03	1.182009E-03	5.032972E-05
5.668347E+03	1.173809E-03	4.992115E-05
5.678309E+03	1.166069E-03	4.953304E-05
5.688271E+03	1.158937E-03	4.917160E-05
5.698233E+03	1.152431E-03	4.883745E-05
5.708195E+03	1.146730E-03	4.853808E-05
5.718157E+03	1.141925E-03	4.827720E-05
5.728119E+03	1.138121E-03	4.805919E-05
5.738081E+03	1.135547E-03	4.789346E-05
5.748042E+03	1.134294E-03	4.778372E-05
5.758004E+03	1.134562E-03	4.773816E-05
5.767966E+03	1.136507E-03	4.776311E-05
5.777928E+03	1.140302E-03	4.786556E-05
5.787890E+03	1.145983E-03	4.804682E-05
5.797852E+03	1.153654E-03	4.831086E-05
5.807814E+03	1.163290E-03	4.865644E-05
5.817776E+03	1.174913E-03	4.908409E-05
5.827738E+03	1.188364E-03	4.958693E-05
5.837700E+03	1.203410E-03	5.015503E-05
5.847662E+03	1.219854E-03	5.077987E-05
5.857624E+03	1.237285E-03	5.144418E-05
5.867586E+03	1.255345E-03	5.213299E-05
5.877548E+03	1.273603E-03	5.282832E-05
5.887510E+03	1.291611E-03	5.351155E-05
5.897472E+03	1.308927E-03	5.416444E-05
5.907434E+03	1.325138E-03	5.477005E-05
5.917396E+03	1.339842E-03	5.531192E-05
5.927357E+03	1.352814E-03	5.578109E-05
5.937319E+03	1.363745E-03	5.616497E-05
5.947281E+03	1.372515E-03	5.645900E-05
5.957243E+03	1.379036E-03	5.665989E-05
5.967205E+03	1.383288E-03	5.676712E-05
5.977167E+03	1.385272E-03	5.678108E-05
5.987129E+03	1.385169E-03	5.670952E-05
5.997091E+03	1.383048E-03	5.655554E-05
6.007053E+03	1.379142E-03	5.632901E-05
6.017015E+03	1.373681E-03	5.603954E-05
6.026977E+03	1.366918E-03	5.569767E-05
6.036939E+03	1.359123E-03	5.531455E-05
6.046901E+03	1.350528E-03	5.489981E-05
6.056863E+03	1.341480E-03	5.446762E-05
6.066825E+03	1.332150E-03	5.402500E-05
6.076787E+03	1.322803E-03	5.358269E-05
6.086749E+03	1.313628E-03	5.314841E-05
6.096711E+03	1.304740E-03	5.272673E-05
6.106673E+03	1.296326E-03	5.232516E-05
6.116634E+03	1.288380E-03	5.194342E-05
6.126596E+03	1.280977E-03	5.158444E-05
6.136558E+03	1.274164E-03	5.125003E-05
6.146520E+03	1.267824E-03	5.093541E-05
6.156482E+03	1.262053E-03	5.064442E-05
6.166444E+03	1.256805E-03	5.037505E-05
6.176406E+03	1.252034E-03	5.012546E-05
6.186368E+03	1.247812E-03	4.989841E-05
6.196330E+03	1.244063E-03	4.969084E-05
6.206292E+03	1.240819E-03	4.950393E-05
6.216254E+03	1.238069E-03	4.933720E-05
6.226216E+03	1.235762E-03	4.918852E-05
6.236178E+03	1.233949E-03	4.905990E-05
6.246140E+03	1.232576E-03	4.894913E-05
6.256102E+03	1.231599E-03	4.885435E-05
6.266064E+03	1.231056E-03	4.877710E-05
6.276026E+03	1.230973E-03	4.871827E-05
6.285988E+03	1.231397E-03	4.867973E-05
6.295949E+03	1.232402E-03	4.866434E-05
6.305911E+03	1.234095E-03	4.867616E-05
6.315873E+03	1.236606E-03	4.872035E-05
6.325835E+03	1.240066E-03	4.880185E-05
6.335797E+03	1.244737E-03	4.893090E-05
6.345759E+03	1.250764E-03	4.911308E-05
6.355721E+03	1.258460E-03	4.936040E-05
6.365683E+03	1.268004E-03	4.967976E-05
6.375645E+03	1.279694E-03	5.008253E-05
6.385607E+03	1.293826E-03	5.058004E-05
6.395569E+03	1.310573E-03	5.117875E-05
6.405531E+03	1.330196E-03	5.188853E-05
6.415493E+03	1.352884E-03	5.271639E-05
6.425455E+03	1.378776E-03	5.366736E-05
6.435417E+03	1.407947E-03	5.474402E-05
6.445379E+03	1.440392E-03	5.594576E-05
6.455341E+03	1.476009E-03	5.726825E-05
6.465303E+03	1.514584E-03	5.870284E-05
6.475264E+03	1.555781E-03	6.023619E-05
6.485226E+03	1.599132E-03	6.184993E-05
6.495188E+03	1.644040E-03	6.352076E-05
6.505150E+03	1.689780E-03	6.522054E-05
6.515112E+03	1.735560E-03	6.691865E-05
6.525074E+03	1.780338E-03	6.857499E-05
6.535036E+03	1.823149E-03	7.015255E-05
6.544998E+03	1.862948E-03	7.161144E-05
6.554960E+03	1.898763E-03	7.291469E-05
6.564922E+03	1.929525E-03	7.402180E-05
6.574884E+03	1.954503E-03	7.490530E-05
6.584846E+03	1.972899E-03	7.553540E-05
6.594808E+03	1.984334E-03	7.589826E-05
6.604770E+03	1.988462E-03	7.598151E-05
6.614732E+03	1.985207E-03	7.578305E-05
6.624694E+03	1.974700E-03	7.530870E-05
6.634656E+03	1.957263E-03	7.457153E-05
6.644618E+03	1.933446E-03	7.359319E-05
6.654580E+03	1.903768E-03	7.239414E-05
6.664541E+03	1.869078E-03	7.100721E-05
6.674503E+03	1.830121E-03	6.946122E-05
6.684465E+03	1.787728E-03	6.778810E-05
6.694427E+03	1.742725E-03	6.601954E-05
6.704389E+03	1.695964E-03	6.418792E-05
6.714351E+03	1.648095E-03	6.231808E-05
6.724313E+03	1.599907E-03	6.043987E-05
6.734275E+03	1.551969E-03	5.857475E-05
6.744237E+03	1.504864E-03	5.674469E-05
6.754199E+03	1.458960E-03	5.496338E-05
6.764161E+03	1.414717E-03	5.324805E-05
6.774123E+03	1.372428E-03	5.160946E-05
6.784085E+03	1.332232E-03	5.005268E-05
6.794047E+03	1.294367E-03	4.858632E-05
6.804009E+03	1.258892E-03	4.721240E-05
6.813971E+03	1.225863E-03	4.593270E-05
6.823933E+03	1.195333E-03	4.474898E-05
6.833895E+03	1.167256E-03	4.365925E-05
6.843856E+03	1.141602E-03	4.266214E-05
6.853818E+03	1.118327E-03	4.175574E-05
6.863780E+03	1.097409E-03	4.093895E-05
6.873742E+03	1.078781E-03	4.020908E-05
6.883704E+03	1.062308E-03	3.956085E-05
6.893666E+03	1.047976E-03	3.899355E-05
6.903628E+03	1.035703E-03	3.850389E-05
6.913590E+03	1.025372E-03	3.808729E-05
6.923552E+03	1.016892E-03	3.774023E-05
6.933514E+03	1.010169E-03	3.745906E-05
6.943476E+03	1.005168E-03	3.724225E-05
6.953438E+03	1.001698E-03	3.708263E-05
6.963400E+03	9.997185E-04	3.697853E-05
6.973362E+03	9.990983E-04	3.692496E-05
6.983324E+03	9.997670E-04	3.691920E-05
6.993286E+03	1.001599E-03	3.695650E-05
7.003248E+03	1.004533E-03	3.703453E-05
7.013210E+03	1.008458E-03	3.714904E-05
7.023171E+03	1.013300E-03	3.729728E-05
7.033133E+03	1.019026E-03	3.747792E-05
7.043095E+03	1.025582E-03	3.768891E-05
7.053057E+03	1.032892E-03	3.792741E-05
7.063019E+03	1.040951E-03	3.819316E-05
7.072981E+03	1.049700E-03	3.848396E-05
7.082943E+03	1.059117E-03	3.879894E-05
7.092905E+03	1.069218E-03	3.913863E-05
7.102867E+03	1.079990E-03	3.950249E-05
7.112829E+03	1.091383E-03	3.988870E-05
7.122791E+03	1.103411E-03	4.029767E-05
7.132753E+03	1.116008E-03	4.072701E-05
7.142715E+03	1.129165E-03	4.117630E-05
7.152677E+03	1.142781E-03	4.164190E-05
7.162639E+03	1.156807E-03	4.212191E-05
7.172601E+03	1.171128E-03	4.261219E-05
7.182563E+03	1.185564E-03	4.310618E-05
7.192525E+03	1.199977E-03	4.359885E-05
7.202487E+03	1.214123E-03	4.408139E-05
7.212448E+03	1.227810E-03	4.454682E-05
7.222410E+03	1.240745E-03	4.498463E-05
7.232372E+03	1.252738E-03	4.538798E-05
7.242334E+03	1.263395E-03	4.574271E-05
7.252296E+03	1.272558E-03	4.604317E-05
7.262258E+03	1.279878E-03	4.627693E-05
7.272220E+03	1.285108E-03	4.643518E-05
7.282182E+03	1.288071E-03	4.651172E-05
7.292144E+03	1.288597E-03	4.650054E-05
7.302106E+03	1.286567E-03	4.639756E-05
7.312068E+03	1.281884E-03	4.619946E-05
7.322030E+03	1.274599E-03	4.590824E-05
7.331992E+03	1.264742E-03	4.552519E-05
7.341954E+03	1.252526E-03	4.505815E-05
7.351916E+03	1.238011E-03	4.450942E-05
7.361878E+03	1.221539E-03	4.389143E-05
7.371840E+03	1.203282E-03	4.321044E-05
7.381802E+03	1.183548E-03	4.247763E-05
7.391763E+03	1.162614E-03	4.170303E-05
7.401725E+03	1.140722E-03	4.089538E-05
7.411687E+03	1.118184E-03	4.006583E-05
7.421649E+03	1.095226E-03	3.922260E-05
7.431611E+03	1.072172E-03	3.837721E-05
7.441573E+03	1.049187E-03	3.753558E-05
7.451535E+03	1.026529E-03	3.670688E-05
7.461497E+03	1.004371E-03	3.589730E-05
7.471459E+03	9.829403E-04	3.511493E-05
7.481421E+03	9.624174E-04	3.436611E-05
7.491383E+03	9.429671E-04	3.365668E-05
7.501345E+03	9.247421E-04	3.299202E-05
7.511307E+03	9.078513E-04	3.237593E-05
7.521269E+03	8.924535E-04	3.181401E-05
7.531231E+03	8.786341E-04	3.130922E-05
7.541193E+03	8.665539E-04	3.086721E-05
7.551155E+03	8.562446E-04	3.048903E-05
7.561117E+03	8.478110E-04	3.017833E-05
7.571078E+03	8.412859E-04	2.993621E-05
7.581040E+03	8.367702E-04	2.976620E-05
7.591002E+03	8.342313E-04	2.966705E-05
7.600964E+03	8.336971E-04	2.963972E-05
7.610926E+03	8.351094E-04	2.968208E-05
7.620888E+03	8.384588E-04	2.979374E-05
7.630850E+03	8.435793E-04	2.996879E-05
7.640812E+03	8.503461E-04	3.020276E-05
7.650774E+03	8.585594E-04	3.048855E-05
7.660736E+03	8.679494E-04	3.081657E-05
7.670698E+03	8.783032E-04	3.117926E-05
7.680660E+03	8.892669E-04	3.156409E-05
7.690622E+03	9.005685E-04	3.196143E-05
7.700584E+03	9.119129E-04	3.236083E-05
7.710546E+03	9.229896E-04	3.275131E-05
7.720508E+03	9.335794E-04	3.312513E-05
7.730470E+03	9.434987E-04	3.347581E-05
