#wls	flux	fluxerr
1.591248E+03	1.838777E-03	4.802904E-05
1.631029E+03	1.947186E-03	5.067605E-05
1.670811E+03	2.057892E-03	5.335786E-05
1.710592E+03	2.169261E-03	5.603089E-05
1.750373E+03	2.278696E-03	5.862740E-05
1.790154E+03	2.382583E-03	6.105461E-05
1.829935E+03	2.475883E-03	6.318492E-05
1.869717E+03	2.552689E-03	6.487096E-05
1.909498E+03	2.605629E-03	6.593096E-05
1.949279E+03	2.626313E-03	6.616096E-05
1.989060E+03	2.607044E-03	6.537865E-05
2.028841E+03	2.541685E-03	6.344452E-05
2.068623E+03	2.428400E-03	6.032945E-05
2.108404E+03	2.282050E-03	5.641855E-05
2.148185E+03	2.147320E-03	5.282402E-05
2.187966E+03	2.063427E-03	5.050229E-05
2.227747E+03	2.055453E-03	5.004554E-05
2.267529E+03	2.143139E-03	5.190294E-05
2.307310E+03	2.339919E-03	5.636027E-05
2.347091E+03	2.656694E-03	6.363427E-05
2.386872E+03	3.111508E-03	7.410424E-05
2.426653E+03	3.728407E-03	8.828017E-05
2.466435E+03	4.533855E-03	1.067135E-04
2.506216E+03	5.548506E-03	1.298027E-04
2.545997E+03	6.770351E-03	1.574047E-04
2.585778E+03	8.145197E-03	1.881696E-04
2.625559E+03	9.545868E-03	2.191024E-04
2.665341E+03	1.088533E-02	2.481982E-04
2.705122E+03	1.215329E-02	2.752441E-04
2.744903E+03	1.334214E-02	3.000946E-04
2.784684E+03	1.443530E-02	3.224096E-04
2.824465E+03	1.541425E-02	3.418181E-04
2.864247E+03	1.626448E-02	3.580507E-04
2.904028E+03	1.697776E-02	3.709864E-04
2.943809E+03	1.755474E-02	3.807033E-04
2.983590E+03	1.800256E-02	3.874209E-04
2.993536E+03	1.809539E-02	3.886618E-04
3.003481E+03	1.818092E-02	3.897368E-04
3.013426E+03	1.825964E-02	3.906572E-04
3.023371E+03	1.833169E-02	3.914269E-04
3.033317E+03	1.839748E-02	3.920553E-04
3.043262E+03	1.845782E-02	3.925607E-04
3.053207E+03	1.851226E-02	3.929342E-04
3.063153E+03	1.856156E-02	3.931925E-04
3.073098E+03	1.860528E-02	3.933271E-04
3.083043E+03	1.864380E-02	3.933467E-04
3.092989E+03	1.867708E-02	3.932511E-04
3.102934E+03	1.870548E-02	3.930487E-04
3.112879E+03	1.872897E-02	3.927395E-04
3.122824E+03	1.874754E-02	3.923239E-04
3.132770E+03	1.876152E-02	3.918094E-04
3.142715E+03	1.877054E-02	3.911889E-04
3.152660E+03	1.877528E-02	3.904772E-04
3.162606E+03	1.877534E-02	3.896668E-04
3.172551E+03	1.877102E-02	3.887645E-04
3.182496E+03	1.876228E-02	3.877697E-04
3.192442E+03	1.874904E-02	3.866820E-04
3.202387E+03	1.873156E-02	3.855068E-04
3.212332E+03	1.870972E-02	3.842425E-04
3.222277E+03	1.868309E-02	3.828809E-04
3.232223E+03	1.865246E-02	3.814387E-04
3.242168E+03	1.861670E-02	3.798938E-04
3.252113E+03	1.857653E-02	3.782609E-04
3.262059E+03	1.853106E-02	3.765232E-04
3.272004E+03	1.848029E-02	3.746811E-04
3.281949E+03	1.842413E-02	3.727334E-04
3.291895E+03	1.836157E-02	3.706608E-04
3.301840E+03	1.829266E-02	3.684652E-04
3.311785E+03	1.821681E-02	3.661353E-04
3.321730E+03	1.813311E-02	3.636540E-04
3.331676E+03	1.804088E-02	3.610088E-04
3.341621E+03	1.793948E-02	3.581882E-04
3.351566E+03	1.782863E-02	3.551876E-04
3.361512E+03	1.770746E-02	3.519912E-04
3.371457E+03	1.757630E-02	3.486071E-04
3.381402E+03	1.743476E-02	3.450287E-04
3.391348E+03	1.728316E-02	3.412640E-04
3.401293E+03	1.712233E-02	3.373305E-04
3.411238E+03	1.695248E-02	3.332338E-04
3.421183E+03	1.677511E-02	3.290044E-04
3.431129E+03	1.659099E-02	3.246585E-04
3.441074E+03	1.640019E-02	3.201984E-04
3.451019E+03	1.620349E-02	3.156401E-04
3.460965E+03	1.600302E-02	3.110257E-04
3.470910E+03	1.581011E-02	3.065755E-04
3.480855E+03	1.563831E-02	3.025506E-04
3.490801E+03	1.549857E-02	2.991596E-04
3.500746E+03	1.539451E-02	2.964680E-04
3.510691E+03	1.531550E-02	2.942665E-04
3.520636E+03	1.524519E-02	2.922387E-04
3.530582E+03	1.517054E-02	2.901338E-04
3.540527E+03	1.508507E-02	2.878287E-04
3.550472E+03	1.498849E-02	2.853195E-04
3.560418E+03	1.488847E-02	2.827533E-04
3.570363E+03	1.480449E-02	2.804996E-04
3.580308E+03	1.476109E-02	2.790199E-04
3.590254E+03	1.477705E-02	2.786632E-04
3.600199E+03	1.485790E-02	2.795257E-04
3.610144E+03	1.500023E-02	2.815345E-04
3.620090E+03	1.518604E-02	2.843443E-04
3.630035E+03	1.537151E-02	2.871308E-04
3.639980E+03	1.549957E-02	2.888304E-04
3.649925E+03	1.552462E-02	2.886035E-04
3.659871E+03	1.542825E-02	2.861219E-04
3.669816E+03	1.521156E-02	2.814226E-04
3.679761E+03	1.489030E-02	2.748123E-04
3.689707E+03	1.449623E-02	2.668901E-04
3.699652E+03	1.406670E-02	2.583515E-04
3.709597E+03	1.363711E-02	2.498499E-04
3.719543E+03	1.323676E-02	2.419208E-04
3.729488E+03	1.289036E-02	2.350109E-04
3.739433E+03	1.261968E-02	2.295090E-04
3.749378E+03	1.244515E-02	2.257755E-04
3.759324E+03	1.238598E-02	2.241449E-04
3.769269E+03	1.245596E-02	2.248507E-04
3.779214E+03	1.266104E-02	2.279824E-04
3.789160E+03	1.300199E-02	2.335359E-04
3.799105E+03	1.347005E-02	2.413358E-04
3.809050E+03	1.403610E-02	2.508444E-04
3.818996E+03	1.465610E-02	2.612633E-04
3.828941E+03	1.528114E-02	2.717155E-04
3.838886E+03	1.586562E-02	2.813916E-04
3.848831E+03	1.636660E-02	2.895374E-04
3.858777E+03	1.675154E-02	2.955900E-04
3.868722E+03	1.701099E-02	2.993988E-04
3.878667E+03	1.715023E-02	3.010737E-04
3.888613E+03	1.717921E-02	3.008052E-04
3.898558E+03	1.710844E-02	2.987916E-04
3.908503E+03	1.694946E-02	2.952478E-04
3.918449E+03	1.671729E-02	2.904465E-04
3.928394E+03	1.643295E-02	2.847621E-04
3.938339E+03	1.612058E-02	2.786189E-04
3.948284E+03	1.580607E-02	2.724671E-04
3.958230E+03	1.552002E-02	2.668328E-04
3.968175E+03	1.529169E-02	2.622145E-04
3.978120E+03	1.513987E-02	2.589252E-04
3.988066E+03	1.506578E-02	2.569757E-04
3.998011E+03	1.506035E-02	2.562010E-04
4.007956E+03	1.510630E-02	2.562986E-04
4.017902E+03	1.517281E-02	2.567401E-04
4.027847E+03	1.522378E-02	2.569136E-04
4.037792E+03	1.523256E-02	2.563727E-04
4.047737E+03	1.519339E-02	2.550264E-04
4.057683E+03	1.511310E-02	2.529955E-04
4.067628E+03	1.500425E-02	2.504956E-04
4.077573E+03	1.488631E-02	2.478545E-04
4.087519E+03	1.477947E-02	2.454091E-04
4.097464E+03	1.469528E-02	2.433486E-04
4.107409E+03	1.463090E-02	2.416236E-04
4.117355E+03	1.457480E-02	2.400414E-04
4.127300E+03	1.451331E-02	2.383764E-04
4.137245E+03	1.443228E-02	2.363976E-04
4.147190E+03	1.431895E-02	2.338991E-04
4.157136E+03	1.416939E-02	2.308216E-04
4.167081E+03	1.399438E-02	2.273449E-04
4.177026E+03	1.381183E-02	2.237624E-04
4.186972E+03	1.363588E-02	2.203040E-04
4.196917E+03	1.347358E-02	2.170822E-04
4.206862E+03	1.332660E-02	2.141220E-04
4.216808E+03	1.319027E-02	2.113467E-04
4.226753E+03	1.305011E-02	2.085235E-04
4.236698E+03	1.288938E-02	2.053861E-04
4.246643E+03	1.269970E-02	2.018041E-04
4.256589E+03	1.248880E-02	1.979040E-04
4.266534E+03	1.227305E-02	1.939471E-04
4.276479E+03	1.207184E-02	1.902397E-04
4.286425E+03	1.190775E-02	1.871346E-04
4.296370E+03	1.180260E-02	1.849689E-04
4.306315E+03	1.176856E-02	1.839254E-04
4.316261E+03	1.180131E-02	1.839274E-04
4.326206E+03	1.188842E-02	1.847728E-04
4.336151E+03	1.201621E-02	1.862430E-04
4.346096E+03	1.216964E-02	1.881000E-04
4.356042E+03	1.233196E-02	1.900826E-04
4.365987E+03	1.249184E-02	1.920155E-04
4.375932E+03	1.264752E-02	1.938723E-04
4.385878E+03	1.280267E-02	1.957094E-04
4.395823E+03	1.295926E-02	1.975574E-04
4.405768E+03	1.311297E-02	1.993502E-04
4.415714E+03	1.325551E-02	2.009627E-04
4.425659E+03	1.337870E-02	2.022727E-04
4.435604E+03	1.347597E-02	2.031835E-04
4.445549E+03	1.354224E-02	2.036224E-04
4.455495E+03	1.357632E-02	2.035751E-04
4.465440E+03	1.358414E-02	2.031344E-04
4.475385E+03	1.357477E-02	2.024389E-04
4.485331E+03	1.355404E-02	2.015776E-04
4.495276E+03	1.352189E-02	2.005508E-04
4.505221E+03	1.347458E-02	1.993047E-04
4.515167E+03	1.340688E-02	1.977638E-04
4.525112E+03	1.331376E-02	1.958570E-04
4.535057E+03	1.319041E-02	1.935165E-04
4.545002E+03	1.303382E-02	1.907020E-04
4.554948E+03	1.284489E-02	1.874306E-04
4.564893E+03	1.262725E-02	1.837585E-04
4.574838E+03	1.238641E-02	1.797696E-04
4.584784E+03	1.213084E-02	1.755886E-04
4.594729E+03	1.187047E-02	1.713609E-04
4.604674E+03	1.161490E-02	1.672248E-04
4.614620E+03	1.137303E-02	1.633077E-04
4.624565E+03	1.115242E-02	1.597161E-04
4.634510E+03	1.095615E-02	1.564915E-04
4.644455E+03	1.077952E-02	1.535642E-04
4.654401E+03	1.061491E-02	1.508236E-04
4.664346E+03	1.045733E-02	1.481975E-04
4.674291E+03	1.030700E-02	1.456884E-04
4.684237E+03	1.016678E-02	1.433355E-04
4.694182E+03	1.004062E-02	1.411934E-04
4.704127E+03	9.933622E-03	1.393320E-04
4.714073E+03	9.850005E-03	1.378084E-04
4.724018E+03	9.789458E-03	1.366156E-04
4.733963E+03	9.743590E-03	1.356345E-04
4.743909E+03	9.700285E-03	1.346954E-04
4.753854E+03	9.650223E-03	1.336688E-04
4.763799E+03	9.591101E-03	1.325238E-04
4.773744E+03	9.524824E-03	1.312875E-04
4.783690E+03	9.457012E-03	1.300380E-04
4.793635E+03	9.399070E-03	1.289319E-04
4.803580E+03	9.364150E-03	1.281482E-04
4.813526E+03	9.361904E-03	1.278165E-04
4.823471E+03	9.395037E-03	1.279707E-04
4.833416E+03	9.461378E-03	1.285780E-04
4.843362E+03	9.553146E-03	1.295300E-04
4.853307E+03	9.652718E-03	1.305861E-04
4.863252E+03	9.737644E-03	1.314428E-04
4.873197E+03	9.788426E-03	1.318391E-04
4.883143E+03	9.794177E-03	1.316319E-04
4.893088E+03	9.750959E-03	1.307724E-04
4.903033E+03	9.665414E-03	1.293538E-04
4.912979E+03	9.561531E-03	1.277000E-04
4.922924E+03	9.469415E-03	1.262138E-04
4.932869E+03	9.413563E-03	1.252201E-04
4.942815E+03	9.407482E-03	1.248952E-04
4.952760E+03	9.457223E-03	1.253158E-04
4.962705E+03	9.560452E-03	1.264468E-04
4.972650E+03	9.701953E-03	1.280838E-04
4.982596E+03	9.859203E-03	1.299276E-04
4.992541E+03	1.001096E-02	1.316981E-04
5.002486E+03	1.014355E-02	1.332163E-04
5.012432E+03	1.024826E-02	1.343700E-04
5.022377E+03	1.032001E-02	1.350947E-04
5.032322E+03	1.036107E-02	1.354225E-04
5.042268E+03	1.037685E-02	1.354260E-04
5.052213E+03	1.037226E-02	1.351710E-04
5.062158E+03	1.035162E-02	1.347151E-04
5.072103E+03	1.031785E-02	1.340970E-04
5.082049E+03	1.027436E-02	1.333619E-04
5.091994E+03	1.022609E-02	1.325745E-04
5.101939E+03	1.017780E-02	1.317965E-04
5.111885E+03	1.013297E-02	1.310732E-04
5.121830E+03	1.009299E-02	1.304222E-04
5.131775E+03	1.005706E-02	1.298333E-04
5.141721E+03	1.002116E-02	1.292544E-04
5.151666E+03	9.976164E-03	1.285680E-04
5.161611E+03	9.911273E-03	1.276354E-04
5.171556E+03	9.818383E-03	1.263530E-04
5.181502E+03	9.696010E-03	1.247022E-04
5.191447E+03	9.546655E-03	1.227157E-04
5.201392E+03	9.377295E-03	1.204834E-04
5.211338E+03	9.201329E-03	1.181775E-04
5.221283E+03	9.033998E-03	1.159934E-04
5.231228E+03	8.886550E-03	1.140749E-04
5.241174E+03	8.764167E-03	1.124882E-04
5.251119E+03	8.668326E-03	1.112517E-04
5.261064E+03	8.597027E-03	1.103397E-04
5.271009E+03	8.544193E-03	1.096740E-04
5.280955E+03	8.501875E-03	1.091526E-04
5.290900E+03	8.463523E-03	1.086915E-04
5.300845E+03	8.423031E-03	1.082123E-04
5.310791E+03	8.376250E-03	1.076616E-04
5.320736E+03	8.319692E-03	1.069944E-04
5.330681E+03	8.249281E-03	1.061580E-04
5.340627E+03	8.161948E-03	1.051124E-04
5.350572E+03	8.055756E-03	1.038319E-04
5.360517E+03	7.930653E-03	1.023149E-04
5.370462E+03	7.788613E-03	1.005860E-04
5.380408E+03	7.636172E-03	9.872844E-05
5.390353E+03	7.485730E-03	9.690167E-05
5.400298E+03	7.352803E-03	9.530622E-05
5.410244E+03	7.250616E-03	9.411401E-05
5.420189E+03	7.180698E-03	9.334613E-05
5.430134E+03	7.141760E-03	9.298729E-05
5.440080E+03	7.130724E-03	9.299900E-05
5.450025E+03	7.140447E-03	9.328960E-05
5.459970E+03	7.162138E-03	9.374536E-05
5.469915E+03	7.188245E-03	9.426803E-05
5.479861E+03	7.213274E-03	9.478570E-05
5.489806E+03	7.233608E-03	9.525063E-05
5.499751E+03	7.247256E-03	9.563607E-05
5.509697E+03	7.254058E-03	9.593923E-05
5.519642E+03	7.254489E-03	9.616572E-05
5.529587E+03	7.248657E-03	9.631622E-05
5.539533E+03	7.234795E-03	9.636647E-05
5.549478E+03	7.210735E-03	9.628654E-05
5.559423E+03	7.175401E-03	9.606083E-05
5.569368E+03	7.129351E-03	9.569540E-05
5.579314E+03	7.074808E-03	9.521880E-05
5.589259E+03	7.016238E-03	9.469007E-05
5.599204E+03	6.961627E-03	9.421659E-05
5.609150E+03	6.920205E-03	9.392378E-05
5.619095E+03	6.900202E-03	9.392498E-05
5.629040E+03	6.908022E-03	9.430997E-05
5.638986E+03	6.948021E-03	9.514165E-05
5.648931E+03	7.020413E-03	9.642690E-05
5.658876E+03	7.118332E-03	9.807523E-05
5.668821E+03	7.230520E-03	9.993436E-05
5.678767E+03	7.345107E-03	1.018417E-04
5.688712E+03	7.450969E-03	1.036429E-04
5.698657E+03	7.538053E-03	1.051967E-04
5.708603E+03	7.599901E-03	1.064100E-04
5.718548E+03	7.636745E-03	1.072827E-04
5.728493E+03	7.652610E-03	1.078678E-04
5.738439E+03	7.651816E-03	1.082235E-04
5.748384E+03	7.637200E-03	1.083874E-04
5.758329E+03	7.610861E-03	1.083873E-04
5.768274E+03	7.573919E-03	1.082372E-04
5.778220E+03	7.526658E-03	1.079396E-04
5.788165E+03	7.468935E-03	1.074905E-04
5.798110E+03	7.400354E-03	1.068825E-04
5.808056E+03	7.321271E-03	1.061188E-04
5.818001E+03	7.232457E-03	1.052088E-04
5.827946E+03	7.135736E-03	1.041774E-04
5.837892E+03	7.035316E-03	1.030847E-04
5.847837E+03	6.936145E-03	1.020026E-04
5.857782E+03	6.843248E-03	1.010054E-04
5.867727E+03	6.761205E-03	1.001617E-04
5.877673E+03	6.694062E-03	9.953307E-05
5.887618E+03	6.644414E-03	9.916070E-05
5.897563E+03	6.612364E-03	9.904880E-05
5.907509E+03	6.596633E-03	9.918095E-05
5.917454E+03	6.594220E-03	9.951450E-05
5.927399E+03	6.599879E-03	9.997211E-05
5.937345E+03	6.607080E-03	1.004558E-04
5.947290E+03	6.609658E-03	1.008717E-04
5.957235E+03	6.602579E-03	1.011418E-04
5.967181E+03	6.581675E-03	1.012002E-04
5.977126E+03	6.542904E-03	1.009821E-04
5.987071E+03	6.482251E-03	1.004222E-04
5.997016E+03	6.396315E-03	9.946346E-05
6.006962E+03	6.282862E-03	9.806664E-05
6.016907E+03	6.141798E-03	9.622524E-05
6.026852E+03	5.975196E-03	9.396683E-05
6.036798E+03	5.788390E-03	9.137096E-05
6.046743E+03	5.592265E-03	8.860637E-05
6.056688E+03	5.399528E-03	8.587331E-05
6.066634E+03	5.223318E-03	8.338198E-05
6.076579E+03	5.077254E-03	8.135342E-05
6.086524E+03	4.974012E-03	7.999680E-05
6.096469E+03	4.921532E-03	7.944789E-05
6.106415E+03	4.920047E-03	7.971951E-05
6.116360E+03	4.966229E-03	8.076671E-05
6.126305E+03	5.054326E-03	8.250417E-05
6.136251E+03	5.173756E-03	8.476605E-05
6.146196E+03	5.310837E-03	8.733306E-05
6.156141E+03	5.451474E-03	8.997575E-05
6.166087E+03	5.582958E-03	9.248419E-05
6.176032E+03	5.693260E-03	9.465673E-05
6.185977E+03	5.771636E-03	9.631020E-05
6.195922E+03	5.810421E-03	9.731037E-05
6.205868E+03	5.804346E-03	9.756144E-05
6.215813E+03	5.750424E-03	9.700479E-05
6.225758E+03	5.648820E-03	9.563444E-05
6.235704E+03	5.502712E-03	9.349566E-05
6.245649E+03	5.320928E-03	9.073080E-05
6.255594E+03	5.120081E-03	8.761758E-05
6.265540E+03	4.919616E-03	8.448647E-05
6.275485E+03	4.737707E-03	8.165069E-05
6.285430E+03	4.592031E-03	7.941935E-05
6.295375E+03	4.497896E-03	7.806471E-05
6.305321E+03	4.463609E-03	7.774085E-05
6.315266E+03	4.486347E-03	7.840929E-05
6.325211E+03	4.558155E-03	7.994092E-05
6.335157E+03	4.668928E-03	8.216676E-05
6.345102E+03	4.804644E-03	8.484627E-05
6.355047E+03	4.948756E-03	8.769071E-05
6.364993E+03	5.086245E-03	9.043450E-05
6.374938E+03	5.207253E-03	9.290056E-05
6.384883E+03	5.305835E-03	9.497938E-05
6.394828E+03	5.379243E-03	9.661755E-05
6.404774E+03	5.429502E-03	9.784692E-05
6.414719E+03	5.461584E-03	9.875322E-05
6.424664E+03	5.479856E-03	9.941234E-05
6.434610E+03	5.486793E-03	9.986681E-05
6.444555E+03	5.483484E-03	1.001345E-04
6.454500E+03	5.470065E-03	1.002160E-04
6.464446E+03	5.445507E-03	1.000905E-04
6.474391E+03	5.408458E-03	9.973123E-05
6.484336E+03	5.358992E-03	9.913720E-05
6.494281E+03	5.299827E-03	9.835668E-05
6.504227E+03	5.235050E-03	9.746405E-05
6.514172E+03	5.168434E-03	9.652875E-05
6.524117E+03	5.103065E-03	9.560829E-05
6.534063E+03	5.041648E-03	9.475377E-05
6.544008E+03	4.985383E-03	9.398849E-05
6.553953E+03	4.933813E-03	9.330472E-05
6.563899E+03	4.885498E-03	9.267600E-05
6.573844E+03	4.839032E-03	9.207611E-05
6.583789E+03	4.793332E-03	9.148475E-05
6.593734E+03	4.747526E-03	9.088534E-05
6.603680E+03	4.701299E-03	9.027184E-05
6.613625E+03	4.654738E-03	8.964585E-05
6.623570E+03	4.608396E-03	8.901801E-05
6.633516E+03	4.562600E-03	8.839470E-05
6.643461E+03	4.517488E-03	8.777869E-05
6.653406E+03	4.473143E-03	8.717177E-05
6.663352E+03	4.429437E-03	8.657154E-05
6.673297E+03	4.385875E-03	8.596844E-05
6.683242E+03	4.342188E-03	8.535721E-05
6.693187E+03	4.297902E-03	8.472851E-05
6.703133E+03	4.253007E-03	8.408205E-05
6.713078E+03	4.207473E-03	8.341713E-05
6.723023E+03	4.161801E-03	8.274364E-05
6.732969E+03	4.117596E-03	8.209357E-05
6.742914E+03	4.076539E-03	8.150079E-05
6.752859E+03	4.040230E-03	8.099791E-05
6.762805E+03	4.009530E-03	8.060305E-05
6.772750E+03	3.984880E-03	8.032602E-05
6.782695E+03	3.966184E-03	8.016590E-05
6.792640E+03	3.952731E-03	8.010923E-05
6.802586E+03	3.943222E-03	8.013050E-05
6.812531E+03	3.936128E-03	8.019920E-05
6.822476E+03	3.929199E-03	8.026975E-05
6.832422E+03	3.920004E-03	8.029238E-05
6.842367E+03	3.906443E-03	8.022360E-05
6.852312E+03	3.886812E-03	8.002763E-05
6.862258E+03	3.860179E-03	7.968426E-05
6.872203E+03	3.826266E-03	7.918663E-05
6.882148E+03	3.786342E-03	7.855994E-05
6.892093E+03	3.742513E-03	7.784708E-05
6.902039E+03	3.697604E-03	7.710635E-05
6.911984E+03	3.655485E-03	7.641849E-05
6.921929E+03	3.620561E-03	7.587632E-05
6.931875E+03	3.596864E-03	7.556566E-05
6.941820E+03	3.587897E-03	7.556203E-05
6.951765E+03	3.596524E-03	7.592816E-05
6.961711E+03	3.624385E-03	7.670151E-05
6.971656E+03	3.669732E-03	7.784788E-05
6.981601E+03	3.729454E-03	7.930375E-05
6.991546E+03	3.799317E-03	8.098106E-05
7.001492E+03	3.873936E-03	8.276622E-05
7.011437E+03	3.947236E-03	8.452981E-05
7.021382E+03	4.013750E-03	8.615423E-05
7.031328E+03	4.069747E-03	8.755818E-05
7.041273E+03	4.112848E-03	8.868872E-05
7.051218E+03	4.141445E-03	8.950916E-05
7.061164E+03	4.155038E-03	9.000654E-05
7.071109E+03	4.154068E-03	9.018819E-05
7.081054E+03	4.139287E-03	9.006835E-05
7.091000E+03	4.112060E-03	8.967478E-05
7.100945E+03	4.074114E-03	8.904345E-05
7.110890E+03	4.027735E-03	8.822288E-05
7.120835E+03	3.975661E-03	8.727199E-05
7.130781E+03	3.921043E-03	8.625937E-05
7.140726E+03	3.866948E-03	8.525224E-05
7.150671E+03	3.815662E-03	8.430124E-05
7.160617E+03	3.769233E-03	8.345216E-05
7.170562E+03	3.729132E-03	8.273833E-05
7.180507E+03	3.695670E-03	8.216757E-05
7.190453E+03	3.668734E-03	8.173831E-05
7.200398E+03	3.648187E-03	8.144845E-05
7.210343E+03	3.634012E-03	8.129847E-05
7.220288E+03	3.626274E-03	8.129072E-05
7.230234E+03	3.624474E-03	8.141486E-05
7.240179E+03	3.627778E-03	8.165297E-05
7.250124E+03	3.634694E-03	8.197204E-05
7.260070E+03	3.643353E-03	8.233036E-05
7.270015E+03	3.651263E-03	8.267172E-05
7.279960E+03	3.655366E-03	8.292664E-05
7.289906E+03	3.652689E-03	8.302703E-05
7.299851E+03	3.640245E-03	8.290399E-05
7.309796E+03	3.615273E-03	8.249319E-05
7.319741E+03	3.575319E-03	8.173698E-05
7.329687E+03	3.518722E-03	8.059532E-05
7.339632E+03	3.444410E-03	7.904150E-05
7.349577E+03	3.353092E-03	7.708961E-05
7.359523E+03	3.247479E-03	7.479995E-05
7.369468E+03	3.131548E-03	7.226253E-05
7.379413E+03	3.011261E-03	6.961392E-05
7.389359E+03	2.894819E-03	6.704361E-05
7.399304E+03	2.790817E-03	6.475159E-05
7.409249E+03	2.705962E-03	6.289533E-05
7.419194E+03	2.644898E-03	6.158542E-05
7.429140E+03	2.610691E-03	6.089639E-05
7.439085E+03	2.604858E-03	6.086701E-05
7.449030E+03	2.625464E-03	6.145550E-05
7.458976E+03	2.669340E-03	6.259073E-05
7.468921E+03	2.732866E-03	6.419052E-05
7.478866E+03	2.811938E-03	6.616062E-05
7.488812E+03	2.902173E-03	6.839959E-05
7.498757E+03	2.999222E-03	7.080598E-05
7.508702E+03	3.100268E-03	7.331398E-05
7.518647E+03	3.202895E-03	7.586675E-05
7.528593E+03	3.304992E-03	7.841435E-05
7.538538E+03	3.404852E-03	8.091606E-05
7.548483E+03	3.501132E-03	8.333962E-05
7.558429E+03	3.592282E-03	8.564759E-05
7.568374E+03	3.676806E-03	8.780360E-05
7.578319E+03	3.753261E-03	8.977231E-05
7.588265E+03	3.820174E-03	9.151749E-05
7.598210E+03	3.876723E-03	9.301830E-05
7.608155E+03	3.922073E-03	9.425345E-05
7.618100E+03	3.956005E-03	9.521637E-05
7.628046E+03	3.978402E-03	9.590298E-05
7.637991E+03	3.989616E-03	9.632047E-05
7.647936E+03	3.990157E-03	9.647991E-05
7.657882E+03	3.981245E-03	9.640968E-05
7.667827E+03	3.964412E-03	9.614594E-05
7.677772E+03	3.941487E-03	9.573222E-05
7.687718E+03	3.913865E-03	9.520185E-05
7.697663E+03	3.883513E-03	9.460222E-05
7.707608E+03	3.851633E-03	9.396239E-05
7.717553E+03	3.819332E-03	9.330928E-05
