#wls	flux	fluxerr
1.591248E+03	1.576354E-04	8.896208E-07
1.631029E+03	1.555320E-04	8.777501E-07
1.670811E+03	1.534307E-04	8.658906E-07
1.710592E+03	1.514553E-04	8.547424E-07
1.750373E+03	1.495718E-04	8.441127E-07
1.790154E+03	1.478357E-04	8.343143E-07
1.829935E+03	1.461725E-04	8.249283E-07
1.869717E+03	1.446395E-04	8.162763E-07
1.909498E+03	1.431455E-04	8.078447E-07
1.949279E+03	1.416983E-04	7.996769E-07
1.989060E+03	1.403343E-04	7.919791E-07
2.028841E+03	1.392165E-04	7.856703E-07
2.068623E+03	1.387238E-04	7.828899E-07
2.108404E+03	1.393731E-04	7.865541E-07
2.148185E+03	1.416635E-04	7.994797E-07
2.187966E+03	1.458270E-04	8.229761E-07
2.227747E+03	1.517615E-04	8.564676E-07
2.267529E+03	1.590812E-04	8.977759E-07
2.307310E+03	1.674294E-04	9.448886E-07
2.347091E+03	1.765441E-04	9.963275E-07
2.386872E+03	1.862081E-04	1.050866E-06
2.426653E+03	1.963063E-04	1.107855E-06
2.466435E+03	2.068324E-04	1.167259E-06
2.506216E+03	2.176915E-04	1.228542E-06
2.545997E+03	2.288602E-04	1.291572E-06
2.585778E+03	2.403170E-04	1.356228E-06
2.625559E+03	2.519612E-04	1.421942E-06
2.665341E+03	2.638176E-04	1.488853E-06
2.705122E+03	2.758409E-04	1.556706E-06
2.744903E+03	2.880432E-04	1.625569E-06
2.784684E+03	3.004570E-04	1.695626E-06
2.824465E+03	3.131366E-04	1.767183E-06
2.864247E+03	3.262059E-04	1.840938E-06
2.904028E+03	3.397179E-04	1.917193E-06
2.943809E+03	3.539377E-04	1.997442E-06
2.983590E+03	3.690104E-04	2.082504E-06
2.993536E+03	3.729019E-04	2.104466E-06
3.003481E+03	3.768956E-04	2.127004E-06
3.013426E+03	3.809940E-04	2.150133E-06
3.023371E+03	3.851517E-04	2.173597E-06
3.033317E+03	3.893782E-04	2.197449E-06
3.043262E+03	3.937329E-04	2.222024E-06
3.053207E+03	3.981664E-04	2.247045E-06
3.063153E+03	4.027292E-04	2.272795E-06
3.073098E+03	4.074224E-04	2.299280E-06
3.083043E+03	4.122471E-04	2.326509E-06
3.092989E+03	4.171544E-04	2.354203E-06
3.102934E+03	4.221962E-04	2.382655E-06
3.112879E+03	4.273743E-04	2.411878E-06
3.122824E+03	4.326909E-04	2.441882E-06
3.132770E+03	4.381482E-04	2.472680E-06
3.142715E+03	4.437488E-04	2.504287E-06
3.152660E+03	4.495468E-04	2.537008E-06
3.162606E+03	4.554425E-04	2.570280E-06
3.172551E+03	4.615415E-04	2.604699E-06
3.182496E+03	4.677963E-04	2.639998E-06
3.192442E+03	4.742101E-04	2.676194E-06
3.202387E+03	4.808393E-04	2.713606E-06
3.212332E+03	4.876875E-04	2.752253E-06
3.222277E+03	4.947078E-04	2.791872E-06
3.232223E+03	5.019563E-04	2.832778E-06
3.242168E+03	5.094391E-04	2.875007E-06
3.252113E+03	5.171079E-04	2.918286E-06
3.262059E+03	5.250752E-04	2.963249E-06
3.272004E+03	5.332394E-04	3.009323E-06
3.281949E+03	5.417146E-04	3.057152E-06
3.291895E+03	5.504534E-04	3.106469E-06
3.301840E+03	5.594632E-04	3.157316E-06
3.311785E+03	5.688049E-04	3.210036E-06
3.321730E+03	5.784331E-04	3.264372E-06
3.331676E+03	5.884091E-04	3.320671E-06
3.341621E+03	5.986879E-04	3.378679E-06
3.351566E+03	6.093883E-04	3.439066E-06
3.361512E+03	6.204094E-04	3.501263E-06
3.371457E+03	6.318728E-04	3.565957E-06
3.381402E+03	6.436767E-04	3.632571E-06
3.391348E+03	6.559443E-04	3.701803E-06
3.401293E+03	6.686317E-04	3.773404E-06
3.411238E+03	6.818070E-04	3.847758E-06
3.421183E+03	6.954837E-04	3.924942E-06
3.431129E+03	7.096181E-04	4.004709E-06
3.441074E+03	7.242815E-04	4.087461E-06
3.451019E+03	7.394889E-04	4.173283E-06
3.460965E+03	7.553142E-04	4.262593E-06
3.470910E+03	7.716574E-04	4.354825E-06
3.480855E+03	7.886526E-04	4.450737E-06
3.490801E+03	8.063188E-04	4.550435E-06
3.500746E+03	8.246745E-04	4.654025E-06
3.510691E+03	8.436788E-04	4.761274E-06
3.519924E+03	6.431630E-04	3.629670E-06
3.521852E+03	6.422587E-04	3.624566E-06
3.523779E+03	6.539975E-04	3.690814E-06
3.525718E+03	6.635672E-04	3.744820E-06
3.527645E+03	6.604115E-04	3.727011E-06
3.529572E+03	6.692855E-04	3.777092E-06
3.531501E+03	6.732902E-04	3.799691E-06
3.533428E+03	6.734484E-04	3.800585E-06
3.535356E+03	6.719288E-04	3.792009E-06
3.537283E+03	6.774881E-04	3.823382E-06
3.539221E+03	6.742498E-04	3.805107E-06
3.541149E+03	6.891783E-04	3.889355E-06
3.543076E+03	7.049244E-04	3.978218E-06
3.545004E+03	7.164153E-04	4.043067E-06
3.546932E+03	7.332246E-04	4.137929E-06
3.548859E+03	7.199207E-04	4.062849E-06
3.550798E+03	7.114037E-04	4.014784E-06
3.552725E+03	7.095972E-04	4.004588E-06
3.554652E+03	7.219459E-04	4.074278E-06
3.556581E+03	7.394494E-04	4.173058E-06
3.558508E+03	7.571979E-04	4.273221E-06
3.560436E+03	7.623455E-04	4.302272E-06
3.562373E+03	7.636877E-04	4.309846E-06
3.564301E+03	7.723534E-04	4.358751E-06
3.566229E+03	7.835136E-04	4.421733E-06
3.568156E+03	8.024469E-04	4.528583E-06
3.570085E+03	8.221164E-04	4.639586E-06
3.572012E+03	8.237437E-04	4.648770E-06
3.573949E+03	8.272942E-04	4.668808E-06
3.575878E+03	8.243402E-04	4.652136E-06
3.577805E+03	8.183178E-04	4.618149E-06
3.579732E+03	8.210496E-04	4.633566E-06
3.581661E+03	8.187093E-04	4.620359E-06
3.583588E+03	8.191091E-04	4.622615E-06
3.585516E+03	8.251135E-04	4.656500E-06
3.587453E+03	8.253907E-04	4.658065E-06
3.589381E+03	8.268539E-04	4.666322E-06
3.591309E+03	8.277036E-04	4.671117E-06
3.593236E+03	8.321531E-04	4.696228E-06
3.595165E+03	8.383200E-04	4.731031E-06
3.597092E+03	8.347112E-04	4.710664E-06
3.599029E+03	8.208765E-04	4.632589E-06
3.600958E+03	8.194761E-04	4.624686E-06
3.602885E+03	8.178310E-04	4.615401E-06
3.604813E+03	8.183121E-04	4.618117E-06
3.606740E+03	8.250105E-04	4.655918E-06
3.608668E+03	8.272915E-04	4.668791E-06
3.610606E+03	8.138662E-04	4.593026E-06
3.612534E+03	8.036731E-04	4.535502E-06
3.614461E+03	8.019050E-04	4.525524E-06
3.616389E+03	8.016909E-04	4.524315E-06
3.618316E+03	8.033995E-04	4.533957E-06
3.620245E+03	8.105469E-04	4.574294E-06
3.622172E+03	8.243196E-04	4.652019E-06
3.624109E+03	8.394827E-04	4.737592E-06
3.626038E+03	8.548494E-04	4.824313E-06
3.627965E+03	8.732017E-04	4.927884E-06
3.629893E+03	8.798162E-04	4.965212E-06
3.631821E+03	8.773519E-04	4.951305E-06
3.633748E+03	8.857250E-04	4.998558E-06
3.635686E+03	8.918894E-04	5.033347E-06
3.637613E+03	9.073775E-04	5.120754E-06
3.639542E+03	9.172628E-04	5.176541E-06
3.641469E+03	9.207275E-04	5.196094E-06
3.643396E+03	9.304901E-04	5.251188E-06
3.645325E+03	9.421740E-04	5.317126E-06
3.647262E+03	9.583963E-04	5.408676E-06
3.649189E+03	9.662767E-04	5.453149E-06
3.651118E+03	9.834802E-04	5.550236E-06
3.653045E+03	9.949585E-04	5.615013E-06
3.654973E+03	9.992401E-04	5.639176E-06
3.656901E+03	1.019264E-03	5.752178E-06
3.658838E+03	1.044275E-03	5.893329E-06
3.660766E+03	1.063194E-03	6.000096E-06
3.662693E+03	1.070091E-03	6.039023E-06
3.664622E+03	1.090072E-03	6.151784E-06
3.666549E+03	1.111852E-03	6.274698E-06
3.668476E+03	1.133467E-03	6.396683E-06
3.670405E+03	1.152834E-03	6.505977E-06
3.672342E+03	1.164432E-03	6.571432E-06
3.674270E+03	1.172923E-03	6.619348E-06
3.676197E+03	1.192820E-03	6.731636E-06
3.678125E+03	1.193992E-03	6.738251E-06
3.680053E+03	1.198149E-03	6.761708E-06
3.681980E+03	1.215633E-03	6.860380E-06
3.683918E+03	1.237859E-03	6.985812E-06
3.685846E+03	1.243936E-03	7.020109E-06
3.687773E+03	1.265017E-03	7.139079E-06
3.689702E+03	1.275959E-03	7.200828E-06
3.691629E+03	1.273493E-03	7.186909E-06
3.693556E+03	1.274541E-03	7.192829E-06
3.695495E+03	1.266229E-03	7.145919E-06
3.697422E+03	1.279624E-03	7.221509E-06
3.699350E+03	1.293182E-03	7.298023E-06
3.701278E+03	1.302406E-03	7.350081E-06
3.703205E+03	1.308074E-03	7.382069E-06
3.705133E+03	1.300907E-03	7.341623E-06
3.707070E+03	1.285728E-03	7.255961E-06
3.708999E+03	1.284039E-03	7.246428E-06
3.710926E+03	1.285702E-03	7.255810E-06
3.712853E+03	1.272404E-03	7.180768E-06
3.714782E+03	1.265279E-03	7.140558E-06
3.716709E+03	1.263631E-03	7.131257E-06
3.718636E+03	1.248454E-03	7.045607E-06
3.720575E+03	1.237120E-03	6.981643E-06
3.722502E+03	1.223620E-03	6.905454E-06
3.724430E+03	1.208117E-03	6.817965E-06
3.726357E+03	1.198746E-03	6.765078E-06
3.728285E+03	1.187454E-03	6.701351E-06
3.730213E+03	1.170971E-03	6.608333E-06
3.732150E+03	1.157432E-03	6.531925E-06
3.734079E+03	1.145323E-03	6.463590E-06
3.736006E+03	1.134727E-03	6.403791E-06
3.737933E+03	1.122129E-03	6.332692E-06
3.739862E+03	1.107120E-03	6.247990E-06
3.741789E+03	1.091743E-03	6.161210E-06
3.743727E+03	1.076939E-03	6.077662E-06
3.745655E+03	1.062135E-03	5.994118E-06
3.747582E+03	1.051990E-03	5.936869E-06
3.749510E+03	1.046301E-03	5.904758E-06
3.751437E+03	1.031988E-03	5.823985E-06
3.753365E+03	1.007950E-03	5.688326E-06
3.755293E+03	9.808056E-04	5.535140E-06
3.757230E+03	9.584844E-04	5.409170E-06
3.759159E+03	9.369811E-04	5.287817E-06
3.761086E+03	9.235288E-04	5.211900E-06
3.763013E+03	9.164109E-04	5.171730E-06
3.764942E+03	9.000170E-04	5.079212E-06
3.766869E+03	8.859115E-04	4.999608E-06
3.768807E+03	8.768737E-04	4.948603E-06
3.770735E+03	8.668147E-04	4.891836E-06
3.772662E+03	8.453138E-04	4.770496E-06
3.774590E+03	8.210350E-04	4.633479E-06
3.776517E+03	8.037028E-04	4.535666E-06
3.778446E+03	7.900488E-04	4.458610E-06
3.780383E+03	7.710014E-04	4.351117E-06
3.782310E+03	7.509736E-04	4.238091E-06
3.784239E+03	7.310275E-04	4.125526E-06
3.786166E+03	7.156588E-04	4.038793E-06
3.788093E+03	7.023741E-04	3.963821E-06
3.790022E+03	6.861477E-04	3.872248E-06
3.791959E+03	6.682052E-04	3.770990E-06
3.793887E+03	6.534502E-04	3.687721E-06
3.795814E+03	6.397990E-04	3.610681E-06
3.797742E+03	6.261479E-04	3.533641E-06
3.799670E+03	6.180947E-04	3.488194E-06
3.801597E+03	6.124116E-04	3.456121E-06
3.803526E+03	6.073419E-04	3.427510E-06
3.805463E+03	6.028442E-04	3.402128E-06
3.807390E+03	6.012474E-04	3.393116E-06
3.809319E+03	5.950338E-04	3.358050E-06
3.811246E+03	5.882074E-04	3.319526E-06
3.813174E+03	5.890218E-04	3.324121E-06
3.815101E+03	5.890595E-04	3.324334E-06
3.817039E+03	5.868099E-04	3.311639E-06
3.818967E+03	5.927318E-04	3.345059E-06
3.820895E+03	6.000429E-04	3.386319E-06
3.822822E+03	6.170778E-04	3.482454E-06
3.824750E+03	6.280662E-04	3.544467E-06
3.826677E+03	6.523332E-04	3.681417E-06
3.828616E+03	6.850577E-04	3.866096E-06
3.830543E+03	7.153302E-04	4.036938E-06
3.832470E+03	7.405367E-04	4.179189E-06
3.834399E+03	7.755080E-04	4.376549E-06
3.836326E+03	8.100701E-04	4.571599E-06
3.838254E+03	8.360935E-04	4.718460E-06
3.840192E+03	8.714319E-04	4.917891E-06
3.842119E+03	9.135523E-04	5.155596E-06
3.844047E+03	9.564491E-04	5.397683E-06
3.845974E+03	9.991414E-04	5.638615E-06
3.847903E+03	1.033744E-03	5.833893E-06
3.849830E+03	1.071901E-03	6.049232E-06
3.851757E+03	1.109078E-03	6.259039E-06
3.853696E+03	1.151607E-03	6.499046E-06
3.855623E+03	1.200836E-03	6.776869E-06
3.857550E+03	1.244018E-03	7.020565E-06
3.859479E+03	1.289121E-03	7.275101E-06
3.861406E+03	1.337655E-03	7.549003E-06
3.863334E+03	1.383371E-03	7.806996E-06
3.865271E+03	1.418423E-03	8.004814E-06
3.867199E+03	1.460462E-03	8.242057E-06
3.869127E+03	1.498701E-03	8.457857E-06
3.871054E+03	1.545683E-03	8.723002E-06
3.872983E+03	1.601531E-03	9.038177E-06
3.874910E+03	1.654152E-03	9.335141E-06
3.876847E+03	1.705547E-03	9.625188E-06
3.878776E+03	1.757392E-03	9.917772E-06
3.880703E+03	1.803885E-03	1.018015E-05
3.882631E+03	1.844495E-03	1.040933E-05
3.884559E+03	1.888292E-03	1.065650E-05
3.886486E+03	1.930251E-03	1.089329E-05
3.888424E+03	1.967022E-03	1.110081E-05
3.890352E+03	1.996520E-03	1.126728E-05
3.892279E+03	2.031126E-03	1.146258E-05
3.894207E+03	2.070593E-03	1.168531E-05
3.896134E+03	2.118151E-03	1.195370E-05
3.898063E+03	2.162400E-03	1.220341E-05
3.899990E+03	2.209550E-03	1.246950E-05
3.901927E+03	2.262951E-03	1.277087E-05
3.903856E+03	2.310183E-03	1.303742E-05
3.905783E+03	2.351859E-03	1.327262E-05
3.907711E+03	2.392760E-03	1.350344E-05
3.909639E+03	2.434397E-03	1.373842E-05
3.911566E+03	2.476524E-03	1.397616E-05
3.913504E+03	2.515833E-03	1.419800E-05
3.915431E+03	2.555428E-03	1.442145E-05
3.917360E+03	2.597638E-03	1.465966E-05
3.919287E+03	2.633435E-03	1.486168E-05
3.921214E+03	2.663880E-03	1.503350E-05
3.923143E+03	2.704540E-03	1.526296E-05
3.925080E+03	2.741237E-03	1.547006E-05
3.927007E+03	2.771439E-03	1.564050E-05
3.928936E+03	2.801151E-03	1.580818E-05
3.930863E+03	2.830250E-03	1.597240E-05
3.932791E+03	2.857880E-03	1.612832E-05
3.934719E+03	2.879340E-03	1.624944E-05
3.936656E+03	2.903375E-03	1.638508E-05
3.938584E+03	2.922263E-03	1.649167E-05
3.940511E+03	2.938045E-03	1.658074E-05
3.942440E+03	2.955218E-03	1.667765E-05
3.944367E+03	2.975210E-03	1.679047E-05
3.946294E+03	2.997818E-03	1.691806E-05
3.948223E+03	3.014748E-03	1.701360E-05
3.950160E+03	3.029716E-03	1.709807E-05
3.952088E+03	3.040109E-03	1.715673E-05
3.954016E+03	3.043311E-03	1.717480E-05
3.955943E+03	3.040180E-03	1.715713E-05
3.957871E+03	3.039624E-03	1.715399E-05
3.959798E+03	3.038047E-03	1.714509E-05
3.961736E+03	3.031772E-03	1.710967E-05
3.963664E+03	3.027989E-03	1.708833E-05
3.965591E+03	3.028578E-03	1.709165E-05
3.967520E+03	3.020751E-03	1.704748E-05
3.969447E+03	3.014436E-03	1.701184E-05
3.971374E+03	3.011349E-03	1.699442E-05
3.973313E+03	3.014310E-03	1.701113E-05
3.975240E+03	3.017231E-03	1.702761E-05
3.977168E+03	3.010345E-03	1.698875E-05
3.979096E+03	2.998311E-03	1.692084E-05
3.981023E+03	2.995594E-03	1.690551E-05
3.982951E+03	2.990915E-03	1.687910E-05
3.984888E+03	2.972753E-03	1.677660E-05
3.986817E+03	2.962517E-03	1.671884E-05
3.988744E+03	2.959147E-03	1.669982E-05
3.990671E+03	2.950343E-03	1.665013E-05
3.992600E+03	2.940272E-03	1.659330E-05
3.994527E+03	2.922682E-03	1.649403E-05
3.996455E+03	2.909138E-03	1.641760E-05
3.998393E+03	2.894777E-03	1.633655E-05
4.000320E+03	2.884625E-03	1.627926E-05
4.002248E+03	2.874841E-03	1.622404E-05
4.004175E+03	2.857497E-03	1.612616E-05
4.006103E+03	2.845793E-03	1.606011E-05
4.008031E+03	2.839606E-03	1.602519E-05
4.009968E+03	2.835789E-03	1.600365E-05
4.011897E+03	2.828132E-03	1.596044E-05
4.013824E+03	2.823131E-03	1.593222E-05
4.015751E+03	2.823442E-03	1.593397E-05
4.017680E+03	2.829763E-03	1.596964E-05
4.019607E+03	2.831628E-03	1.598017E-05
4.021545E+03	2.826629E-03	1.595196E-05
4.023473E+03	2.818074E-03	1.590368E-05
4.025400E+03	2.805595E-03	1.583325E-05
4.027328E+03	2.792013E-03	1.575660E-05
4.029255E+03	2.779003E-03	1.568318E-05
4.031183E+03	2.764195E-03	1.559961E-05
4.033121E+03	2.744564E-03	1.548883E-05
4.035048E+03	2.725342E-03	1.538035E-05
4.036977E+03	2.708817E-03	1.528709E-05
4.038904E+03	2.697442E-03	1.522290E-05
4.040831E+03	2.684841E-03	1.515178E-05
4.042760E+03	2.676818E-03	1.510651E-05
4.044687E+03	2.665607E-03	1.504324E-05
4.046625E+03	2.655337E-03	1.498527E-05
4.048553E+03	2.641183E-03	1.490540E-05
4.050480E+03	2.622737E-03	1.480130E-05
4.052408E+03	2.600898E-03	1.467805E-05
4.054336E+03	2.576361E-03	1.453958E-05
4.056264E+03	2.558079E-03	1.443640E-05
4.058201E+03	2.541922E-03	1.434522E-05
4.060128E+03	2.510517E-03	1.416799E-05
4.062057E+03	2.483240E-03	1.401405E-05
4.063984E+03	2.464180E-03	1.390649E-05
4.065911E+03	2.436452E-03	1.375001E-05
4.067840E+03	2.411382E-03	1.360853E-05
4.069777E+03	2.393016E-03	1.350488E-05
4.071705E+03	2.369172E-03	1.337032E-05
4.073633E+03	2.345327E-03	1.323575E-05
4.075560E+03	2.319111E-03	1.308780E-05
4.077488E+03	2.290809E-03	1.292808E-05
4.079415E+03	2.263079E-03	1.277158E-05
4.081354E+03	2.239111E-03	1.263632E-05
4.083281E+03	2.220824E-03	1.253312E-05
4.085208E+03	2.191171E-03	1.236578E-05
4.087137E+03	2.159269E-03	1.218574E-05
4.089064E+03	2.136157E-03	1.205531E-05
4.090992E+03	2.113044E-03	1.192487E-05
4.092920E+03	2.087601E-03	1.178128E-05
4.094857E+03	2.064365E-03	1.165015E-05
4.096785E+03	2.039657E-03	1.151071E-05
4.098713E+03	2.004603E-03	1.131289E-05
4.100640E+03	1.966072E-03	1.109544E-05
4.102568E+03	1.931017E-03	1.089761E-05
4.104495E+03	1.893221E-03	1.068431E-05
4.106434E+03	1.853993E-03	1.046293E-05
4.108361E+03	1.821675E-03	1.028054E-05
4.110288E+03	1.789315E-03	1.009792E-05
4.112217E+03	1.753764E-03	9.897289E-06
4.114144E+03	1.717395E-03	9.692040E-06
4.116072E+03	1.689163E-03	9.532714E-06
4.118010E+03	1.665306E-03	9.398080E-06
4.119937E+03	1.637482E-03	9.241053E-06
4.121865E+03	1.610597E-03	9.089331E-06
4.123793E+03	1.581463E-03	8.924912E-06
4.125721E+03	1.554454E-03	8.772490E-06
4.127648E+03	1.529817E-03	8.633451E-06
4.129585E+03	1.504075E-03	8.488179E-06
4.131514E+03	1.483731E-03	8.373367E-06
4.133441E+03	1.466290E-03	8.274942E-06
4.135368E+03	1.445455E-03	8.157357E-06
4.137297E+03	1.425559E-03	8.045078E-06
4.139224E+03	1.406563E-03	7.937873E-06
4.141152E+03	1.388630E-03	7.836669E-06
4.143090E+03	1.373150E-03	7.749311E-06
4.145017E+03	1.359675E-03	7.673265E-06
4.146945E+03	1.349390E-03	7.615219E-06
4.148872E+03	1.335668E-03	7.537783E-06
4.150801E+03	1.319288E-03	7.445339E-06
4.152728E+03	1.309534E-03	7.390292E-06
4.154665E+03	1.304729E-03	7.363179E-06
4.156594E+03	1.301193E-03	7.343221E-06
4.158521E+03	1.296552E-03	7.317032E-06
4.160449E+03	1.293956E-03	7.302383E-06
4.162377E+03	1.298030E-03	7.325372E-06
4.164304E+03	1.302471E-03	7.350436E-06
4.166242E+03	1.304950E-03	7.364423E-06
4.168170E+03	1.311315E-03	7.400346E-06
4.170097E+03	1.315430E-03	7.423569E-06
4.172025E+03	1.322573E-03	7.463881E-06
4.173952E+03	1.341705E-03	7.571850E-06
4.175881E+03	1.360592E-03	7.678438E-06
4.177818E+03	1.375389E-03	7.761941E-06
4.179745E+03	1.390104E-03	7.844984E-06
4.181674E+03	1.404247E-03	7.924800E-06
4.183601E+03	1.418390E-03	8.004618E-06
4.185529E+03	1.432780E-03	8.085826E-06
4.187457E+03	1.450239E-03	8.184358E-06
4.189384E+03	1.465367E-03	8.269730E-06
4.191322E+03	1.481969E-03	8.363422E-06
4.193249E+03	1.499104E-03	8.460120E-06
4.195178E+03	1.505558E-03	8.496544E-06
4.197105E+03	1.510089E-03	8.522114E-06
4.199032E+03	1.519245E-03	8.573786E-06
4.200961E+03	1.531430E-03	8.642551E-06
4.202898E+03	1.543656E-03	8.711552E-06
4.204825E+03	1.548925E-03	8.741287E-06
4.206754E+03	1.546542E-03	8.727835E-06
4.208681E+03	1.550788E-03	8.751798E-06
4.210609E+03	1.557941E-03	8.792166E-06
4.212537E+03	1.562393E-03	8.817292E-06
4.214474E+03	1.567296E-03	8.844960E-06
4.216402E+03	1.569743E-03	8.858767E-06
4.218329E+03	1.573745E-03	8.881355E-06
4.220258E+03	1.578280E-03	8.906950E-06
4.222185E+03	1.580646E-03	8.920300E-06
4.224112E+03	1.577895E-03	8.904773E-06
4.226041E+03	1.577027E-03	8.899877E-06
4.227978E+03	1.581563E-03	8.925475E-06
4.229906E+03	1.588924E-03	8.967019E-06
4.231834E+03	1.589572E-03	8.970672E-06
4.233761E+03	1.588828E-03	8.966472E-06
4.235689E+03	1.590990E-03	8.978674E-06
4.237616E+03	1.592170E-03	8.985334E-06
4.239554E+03	1.597527E-03	9.015565E-06
4.241482E+03	1.600304E-03	9.031239E-06
4.243409E+03	1.596695E-03	9.010869E-06
4.245338E+03	1.597589E-03	9.015915E-06
4.247265E+03	1.602987E-03	9.046381E-06
4.249192E+03	1.602940E-03	9.046116E-06
4.251131E+03	1.599658E-03	9.027594E-06
4.253058E+03	1.598055E-03	9.018549E-06
4.254986E+03	1.599401E-03	9.026143E-06
4.256914E+03	1.603654E-03	9.050144E-06
4.258841E+03	1.605901E-03	9.062824E-06
4.260769E+03	1.606182E-03	9.064411E-06
4.262706E+03	1.604253E-03	9.053522E-06
4.264635E+03	1.598227E-03	9.019517E-06
4.266562E+03	1.599901E-03	9.028964E-06
4.268489E+03	1.604401E-03	9.054359E-06
4.270418E+03	1.607673E-03	9.072825E-06
4.272345E+03	1.612338E-03	9.099149E-06
4.274273E+03	1.619706E-03	9.140733E-06
4.276211E+03	1.628263E-03	9.189022E-06
4.278138E+03	1.636083E-03	9.233153E-06
4.280066E+03	1.640749E-03	9.259488E-06
4.281994E+03	1.649430E-03	9.308479E-06
4.283921E+03	1.664543E-03	9.393767E-06
4.285849E+03	1.676257E-03	9.459873E-06
4.287786E+03	1.683956E-03	9.503326E-06
4.289715E+03	1.691411E-03	9.545396E-06
4.291642E+03	1.698292E-03	9.584228E-06
4.293569E+03	1.702224E-03	9.606416E-06
4.295498E+03	1.703370E-03	9.612886E-06
4.297425E+03	1.704844E-03	9.621206E-06
4.299363E+03	1.708368E-03	9.641089E-06
4.301291E+03	1.711973E-03	9.661435E-06
4.303218E+03	1.716562E-03	9.687332E-06
4.305146E+03	1.720659E-03	9.710455E-06
4.307074E+03	1.722995E-03	9.723637E-06
4.309001E+03	1.724839E-03	9.734046E-06
4.310929E+03	1.726848E-03	9.745381E-06
4.312866E+03	1.729512E-03	9.760418E-06
4.314795E+03	1.731153E-03	9.769674E-06
4.316722E+03	1.728531E-03	9.754879E-06
4.318649E+03	1.731442E-03	9.771306E-06
4.320578E+03	1.738615E-03	9.811787E-06
4.322505E+03	1.738043E-03	9.808560E-06
4.324443E+03	1.732553E-03	9.777577E-06
4.326371E+03	1.724521E-03	9.732250E-06
4.328298E+03	1.719399E-03	9.703345E-06
4.330226E+03	1.721491E-03	9.715152E-06
4.332153E+03	1.724650E-03	9.732974E-06
4.334082E+03	1.719200E-03	9.702219E-06
