#wls	flux	fluxerr
1.591248E+03	1.389449E-04	3.156180E-06
1.631029E+03	1.398426E-04	3.170659E-06
1.670811E+03	1.406370E-04	3.182556E-06
1.710592E+03	1.413722E-04	3.192873E-06
1.750373E+03	1.420119E-04	3.200793E-06
1.790154E+03	1.425172E-04	3.205448E-06
1.829935E+03	1.428363E-04	3.205686E-06
1.869717E+03	1.429064E-04	3.200123E-06
1.909498E+03	1.426854E-04	3.187853E-06
1.949279E+03	1.421256E-04	3.167851E-06
1.989060E+03	1.412440E-04	3.140547E-06
2.028841E+03	1.402175E-04	3.109917E-06
2.068623E+03	1.393534E-04	3.082779E-06
2.108404E+03	1.392155E-04	3.071550E-06
2.148185E+03	1.402883E-04	3.086753E-06
2.187966E+03	1.427665E-04	3.132432E-06
2.227747E+03	1.464723E-04	3.204418E-06
2.267529E+03	1.510093E-04	3.293805E-06
2.307310E+03	1.560274E-04	3.392790E-06
2.347091E+03	1.612257E-04	3.494722E-06
2.386872E+03	1.664566E-04	3.596336E-06
2.426653E+03	1.716908E-04	3.696963E-06
2.466435E+03	1.769289E-04	3.796577E-06
2.506216E+03	1.821971E-04	3.895701E-06
2.545997E+03	1.875841E-04	3.996177E-06
2.585778E+03	1.931033E-04	4.098222E-06
2.625559E+03	1.988466E-04	4.203706E-06
2.665341E+03	2.047970E-04	4.312171E-06
2.705122E+03	2.110717E-04	4.425973E-06
2.744903E+03	2.176784E-04	4.545141E-06
2.784684E+03	2.247083E-04	4.671426E-06
2.824465E+03	2.321982E-04	4.805418E-06
2.864247E+03	2.401864E-04	4.947712E-06
2.904028E+03	2.487422E-04	5.099523E-06
2.943809E+03	2.579688E-04	5.262712E-06
2.983590E+03	2.679153E-04	5.437993E-06
2.993536E+03	2.705224E-04	5.483829E-06
3.003481E+03	2.731824E-04	5.530556E-06
3.013426E+03	2.758962E-04	5.578188E-06
3.023371E+03	2.786662E-04	5.626765E-06
3.033317E+03	2.814985E-04	5.676407E-06
3.043262E+03	2.843996E-04	5.727235E-06
3.053207E+03	2.873688E-04	5.779231E-06
3.063153E+03	2.904058E-04	5.832379E-06
3.073098E+03	2.935103E-04	5.886668E-06
3.083043E+03	2.966821E-04	5.942087E-06
3.092989E+03	2.999213E-04	5.998627E-06
3.102934E+03	3.032278E-04	6.056282E-06
3.112879E+03	3.066331E-04	6.115672E-06
3.122824E+03	3.100750E-04	6.175548E-06
3.132770E+03	3.136166E-04	6.237159E-06
3.142715E+03	3.172270E-04	6.299881E-06
3.152660E+03	3.209067E-04	6.363716E-06
3.162606E+03	3.246562E-04	6.428667E-06
3.172551E+03	3.285083E-04	6.495372E-06
3.182496E+03	3.324317E-04	6.563205E-06
3.192442E+03	3.364273E-04	6.632172E-06
3.202387E+03	3.404958E-04	6.702282E-06
3.212332E+03	3.446708E-04	6.774180E-06
3.222277E+03	3.489205E-04	6.847239E-06
3.232223E+03	3.532461E-04	6.921465E-06
3.242168E+03	3.576814E-04	6.997515E-06
3.252113E+03	3.621947E-04	7.074754E-06
3.262059E+03	3.667869E-04	7.153191E-06
3.272004E+03	3.714924E-04	7.233487E-06
3.281949E+03	3.762790E-04	7.315003E-06
3.291895E+03	3.811816E-04	7.398403E-06
3.301840E+03	3.861675E-04	7.483042E-06
3.311785E+03	3.912719E-04	7.569589E-06
3.321730E+03	3.964618E-04	7.657394E-06
3.331676E+03	4.017727E-04	7.747128E-06
3.341621E+03	4.071712E-04	7.838136E-06
3.351566E+03	4.126930E-04	7.931089E-06
3.361512E+03	4.183394E-04	8.025999E-06
3.371457E+03	4.240764E-04	8.122200E-06
3.381402E+03	4.299401E-04	8.220367E-06
3.391348E+03	4.358962E-04	8.319830E-06
3.401293E+03	4.419806E-04	8.421263E-06
3.411238E+03	4.481945E-04	8.524669E-06
3.421183E+03	4.545386E-04	8.630045E-06
3.431129E+03	4.609776E-04	8.736708E-06
3.441074E+03	4.675481E-04	8.845333E-06
3.451019E+03	4.742503E-04	8.955906E-06
3.460965E+03	4.810849E-04	9.068426E-06
3.470910E+03	4.880152E-04	9.182184E-06
3.480855E+03	4.950776E-04	9.297846E-06
3.490801E+03	5.023097E-04	9.416103E-06
3.500746E+03	5.096369E-04	9.535533E-06
3.510691E+03	5.170959E-04	9.656808E-06
3.520636E+03	5.246860E-04	9.779898E-06
3.530582E+03	5.323686E-04	9.904065E-06
3.540527E+03	5.402181E-04	1.003067E-05
3.550472E+03	5.481958E-04	1.015899E-05
3.560418E+03	5.563006E-04	1.028897E-05
3.570363E+03	5.645305E-04	1.042055E-05
3.580308E+03	5.728839E-04	1.055369E-05
3.590254E+03	5.813586E-04	1.068834E-05
3.600199E+03	5.899519E-04	1.082441E-05
3.610144E+03	5.986615E-04	1.096186E-05
3.620090E+03	6.074847E-04	1.110061E-05
3.630035E+03	6.164178E-04	1.124058E-05
3.639980E+03	6.254984E-04	1.138243E-05
3.649925E+03	6.346418E-04	1.152460E-05
3.659871E+03	6.439253E-04	1.166848E-05
3.669816E+03	6.533042E-04	1.181324E-05
3.679761E+03	6.627746E-04	1.195879E-05
3.689707E+03	6.723721E-04	1.210576E-05
3.699652E+03	6.820106E-04	1.225257E-05
3.709597E+03	6.917675E-04	1.240061E-05
3.719543E+03	7.015960E-04	1.254901E-05
3.729488E+03	7.114905E-04	1.269767E-05
3.739433E+03	7.214462E-04	1.284647E-05
3.749378E+03	7.314989E-04	1.299605E-05
3.759324E+03	7.416008E-04	1.314554E-05
3.769269E+03	7.517464E-04	1.329483E-05
3.779214E+03	7.619719E-04	1.344454E-05
3.789160E+03	7.721866E-04	1.359306E-05
3.799105E+03	7.824696E-04	1.374177E-05
3.809050E+03	7.928146E-04	1.389056E-05
3.818996E+03	8.031309E-04	1.403781E-05
3.828941E+03	8.134980E-04	1.418491E-05
3.838886E+03	8.238675E-04	1.433101E-05
3.848831E+03	8.342338E-04	1.447600E-05
3.858777E+03	8.445912E-04	1.461978E-05
3.868722E+03	8.549778E-04	1.476300E-05
3.878667E+03	8.653024E-04	1.490407E-05
3.888613E+03	8.756472E-04	1.504441E-05
3.898558E+03	8.859642E-04	1.518320E-05
3.908503E+03	8.962924E-04	1.532108E-05
3.918449E+03	9.065422E-04	1.545652E-05
3.928394E+03	9.167535E-04	1.559021E-05
3.938339E+03	9.269670E-04	1.572284E-05
3.948284E+03	9.371364E-04	1.585361E-05
3.958230E+03	9.472177E-04	1.598178E-05
3.968175E+03	9.572947E-04	1.610877E-05
3.978120E+03	9.672804E-04	1.623310E-05
3.988066E+03	9.772607E-04	1.635623E-05
3.998011E+03	9.871491E-04	1.647670E-05
4.007956E+03	9.969897E-04	1.659525E-05
4.017902E+03	1.006783E-03	1.671189E-05
4.027847E+03	1.016531E-03	1.682665E-05
4.037792E+03	1.026234E-03	1.693954E-05
4.047737E+03	1.035853E-03	1.704992E-05
4.057683E+03	1.045390E-03	1.715782E-05
4.067628E+03	1.054933E-03	1.726470E-05
4.077573E+03	1.064402E-03	1.736922E-05
4.087519E+03	1.073799E-03	1.747143E-05
4.097464E+03	1.083172E-03	1.757212E-05
4.107409E+03	1.092481E-03	1.767064E-05
4.117355E+03	1.101733E-03	1.776710E-05
4.127300E+03	1.110975E-03	1.786224E-05
4.137245E+03	1.120126E-03	1.795480E-05
4.147190E+03	1.129277E-03	1.804621E-05
4.157136E+03	1.138392E-03	1.813587E-05
4.167081E+03	1.147432E-03	1.822322E-05
4.177026E+03	1.156489E-03	1.830967E-05
4.186972E+03	1.165483E-03	1.839398E-05
4.196917E+03	1.174463E-03	1.847690E-05
4.206862E+03	1.183434E-03	1.855850E-05
4.216808E+03	1.192359E-03	1.863823E-05
4.226753E+03	1.201286E-03	1.871682E-05
4.236698E+03	1.210178E-03	1.879369E-05
4.246643E+03	1.219040E-03	1.886892E-05
4.256589E+03	1.227878E-03	1.894260E-05
4.266534E+03	1.236737E-03	1.901542E-05
4.276479E+03	1.245582E-03	1.908683E-05
4.286425E+03	1.254375E-03	1.915625E-05
4.296370E+03	1.263203E-03	1.922501E-05
4.306315E+03	1.271988E-03	1.929190E-05
4.316261E+03	1.280774E-03	1.935761E-05
4.326206E+03	1.289524E-03	1.942157E-05
4.336151E+03	1.298284E-03	1.948445E-05
4.346096E+03	1.307054E-03	1.954628E-05
4.356042E+03	1.315758E-03	1.960589E-05
4.365987E+03	1.324480E-03	1.966454E-05
4.375932E+03	1.333182E-03	1.972166E-05
4.385878E+03	1.341865E-03	1.977728E-05
4.395823E+03	1.350533E-03	1.983144E-05
4.405768E+03	1.359189E-03	1.988417E-05
4.415714E+03	1.367833E-03	1.993550E-05
4.425659E+03	1.376468E-03	1.998545E-05
4.435604E+03	1.385057E-03	2.003348E-05
4.445549E+03	1.393601E-03	2.007961E-05
4.455495E+03	1.402142E-03	2.012446E-05
4.465440E+03	1.410684E-03	2.016805E-05
4.475385E+03	1.419187E-03	2.020985E-05
4.485331E+03	1.427656E-03	2.024989E-05
4.495276E+03	1.436091E-03	2.028820E-05
4.505221E+03	1.444495E-03	2.032482E-05
4.515167E+03	1.452913E-03	2.036037E-05
4.525112E+03	1.461266E-03	2.039376E-05
4.535057E+03	1.469599E-03	2.042561E-05
4.545002E+03	1.477914E-03	2.045596E-05
4.554948E+03	1.486218E-03	2.048487E-05
4.564893E+03	1.494512E-03	2.051241E-05
4.574838E+03	1.502764E-03	2.053808E-05
4.584784E+03	1.511017E-03	2.056252E-05
4.594729E+03	1.519237E-03	2.058525E-05
4.604674E+03	1.527471E-03	2.060689E-05
4.614620E+03	1.535724E-03	2.062753E-05
4.624565E+03	1.543965E-03	2.064672E-05
4.634510E+03	1.552199E-03	2.066456E-05
4.644455E+03	1.560476E-03	2.068168E-05
4.654401E+03	1.568763E-03	2.069765E-05
4.664346E+03	1.577068E-03	2.071258E-05
4.674291E+03	1.585442E-03	2.072712E-05
4.684237E+03	1.593853E-03	2.074084E-05
4.694182E+03	1.602312E-03	2.075387E-05
4.704127E+03	1.610829E-03	2.076633E-05
4.714073E+03	1.619454E-03	2.077887E-05
4.724018E+03	1.628159E-03	2.079109E-05
4.733963E+03	1.636955E-03	2.080312E-05
4.743909E+03	1.645854E-03	2.081509E-05
4.753854E+03	1.654907E-03	2.082764E-05
4.763799E+03	1.664047E-03	2.083989E-05
4.773744E+03	1.673367E-03	2.085297E-05
4.783690E+03	1.682840E-03	2.086653E-05
4.793635E+03	1.692477E-03	2.088068E-05
4.803580E+03	1.702334E-03	2.089605E-05
4.813526E+03	1.712341E-03	2.091178E-05
4.823471E+03	1.722593E-03	2.092898E-05
4.833416E+03	1.733064E-03	2.094729E-05
4.843362E+03	1.743767E-03	2.096682E-05
4.853307E+03	1.754756E-03	2.098818E-05
4.863252E+03	1.765963E-03	2.101051E-05
4.873197E+03	1.777484E-03	2.103491E-05
4.883143E+03	1.789333E-03	2.106148E-05
4.893088E+03	1.801440E-03	2.108934E-05
4.903033E+03	1.813902E-03	2.111958E-05
4.912979E+03	1.826691E-03	2.115180E-05
4.922924E+03	1.839863E-03	2.118659E-05
4.932869E+03	1.853389E-03	2.122355E-05
4.942815E+03	1.867282E-03	2.126277E-05
4.952760E+03	1.881597E-03	2.130480E-05
4.962705E+03	1.896349E-03	2.134972E-05
4.972650E+03	1.911464E-03	2.139664E-05
4.982596E+03	1.927084E-03	2.144706E-05
4.992541E+03	1.943091E-03	2.149960E-05
5.002486E+03	1.959630E-03	2.155577E-05
5.012432E+03	1.976579E-03	2.161415E-05
5.022377E+03	1.994084E-03	2.167625E-05
5.032322E+03	2.012067E-03	2.174113E-05
5.042268E+03	2.030584E-03	2.180930E-05
5.052213E+03	2.049600E-03	2.188030E-05
5.062158E+03	2.069172E-03	2.195465E-05
5.072103E+03	2.089264E-03	2.203186E-05
5.082049E+03	2.109976E-03	2.211289E-05
5.091994E+03	2.131226E-03	2.219679E-05
5.101939E+03	2.153069E-03	2.228403E-05
5.111885E+03	2.175466E-03	2.237409E-05
5.121830E+03	2.198469E-03	2.246745E-05
5.131775E+03	2.222135E-03	2.256455E-05
5.141721E+03	2.246325E-03	2.266389E-05
5.151666E+03	2.271189E-03	2.276688E-05
5.161611E+03	2.296682E-03	2.287298E-05
5.171556E+03	2.322759E-03	2.298162E-05
5.181502E+03	2.349471E-03	2.309322E-05
5.191447E+03	2.376820E-03	2.320771E-05
5.201392E+03	2.404805E-03	2.332497E-05
5.211338E+03	2.433427E-03	2.344492E-05
5.221283E+03	2.462684E-03	2.356744E-05
5.231228E+03	2.492520E-03	2.369191E-05
5.241174E+03	2.523036E-03	2.381920E-05
5.251119E+03	2.554175E-03	2.394869E-05
5.261064E+03	2.585875E-03	2.407972E-05
5.271009E+03	2.618183E-03	2.421263E-05
5.280955E+03	2.651146E-03	2.434782E-05
5.290900E+03	2.684645E-03	2.448408E-05
5.300845E+03	2.718723E-03	2.462177E-05
5.310791E+03	2.753373E-03	2.476075E-05
5.320736E+03	2.788640E-03	2.490139E-05
5.330681E+03	2.824401E-03	2.504251E-05
5.340627E+03	2.860702E-03	2.518449E-05
5.350572E+03	2.897596E-03	2.532777E-05
5.360517E+03	2.934955E-03	2.547115E-05
5.370462E+03	2.972827E-03	2.561507E-05
5.380408E+03	3.011263E-03	2.575992E-05
5.390353E+03	3.050111E-03	2.590438E-05
5.400298E+03	3.089455E-03	2.604916E-05
5.410244E+03	3.129161E-03	2.619312E-05
5.420189E+03	3.169061E-03	2.633491E-05
5.430134E+03	3.209157E-03	2.647458E-05
5.440080E+03	3.249239E-03	2.661046E-05
5.450025E+03	3.289216E-03	2.674194E-05
5.459970E+03	3.328797E-03	2.686675E-05
5.469915E+03	3.367963E-03	2.698490E-05
5.479861E+03	3.406500E-03	2.709482E-05
5.489806E+03	3.444269E-03	2.719559E-05
5.499751E+03	3.481147E-03	2.728645E-05
5.509697E+03	3.517097E-03	2.736735E-05
5.519642E+03	3.551950E-03	2.743721E-05
5.529587E+03	3.585625E-03	2.749567E-05
5.539533E+03	3.618129E-03	2.754306E-05
5.549478E+03	3.649334E-03	2.757868E-05
5.559423E+03	3.679194E-03	2.760247E-05
5.569368E+03	3.707756E-03	2.761505E-05
5.579314E+03	3.734920E-03	2.761599E-05
5.589259E+03	3.760749E-03	2.760603E-05
5.599204E+03	3.785160E-03	2.758486E-05
5.609150E+03	3.808232E-03	2.755334E-05
5.619095E+03	3.829975E-03	2.751184E-05
5.629040E+03	3.850322E-03	2.746015E-05
5.638986E+03	3.869291E-03	2.739870E-05
5.648931E+03	3.886987E-03	2.732850E-05
5.658876E+03	3.903436E-03	2.725003E-05
5.668821E+03	3.918671E-03	2.716375E-05
5.678767E+03	3.932641E-03	2.706960E-05
5.688712E+03	3.945466E-03	2.696866E-05
5.698657E+03	3.957183E-03	2.686142E-05
5.708603E+03	3.967831E-03	2.674840E-05
5.718548E+03	3.977366E-03	2.662954E-05
5.728493E+03	3.985911E-03	2.650590E-05
5.738439E+03	3.993592E-03	2.637856E-05
5.748384E+03	4.000281E-03	2.624686E-05
5.758329E+03	4.006101E-03	2.611186E-05
5.768274E+03	4.011092E-03	2.597400E-05
5.778220E+03	4.015291E-03	2.583375E-05
5.788165E+03	4.018735E-03	2.569155E-05
5.798110E+03	4.021461E-03	2.554781E-05
5.808056E+03	4.023501E-03	2.540294E-05
5.818001E+03	4.024888E-03	2.525734E-05
5.827946E+03	4.025652E-03	2.511139E-05
5.837892E+03	4.025824E-03	2.496544E-05
5.847837E+03	4.025428E-03	2.481985E-05
5.857782E+03	4.024577E-03	2.467546E-05
5.867727E+03	4.023208E-03	2.453206E-05
5.877673E+03	4.021257E-03	2.438945E-05
5.887618E+03	4.018914E-03	2.424893E-05
5.897563E+03	4.016198E-03	2.411079E-05
5.907509E+03	4.012954E-03	2.397424E-05
5.917454E+03	4.009367E-03	2.384056E-05
5.927399E+03	4.005278E-03	2.370896E-05
5.937345E+03	4.000955E-03	2.358119E-05
5.947290E+03	3.996153E-03	2.345593E-05
5.957235E+03	3.990964E-03	2.333389E-05
5.967181E+03	3.985481E-03	2.321575E-05
5.977126E+03	3.979711E-03	2.310169E-05
5.987071E+03	3.973486E-03	2.299087E-05
5.997016E+03	3.966982E-03	2.288444E-05
6.006962E+03	3.960117E-03	2.278206E-05
6.016907E+03	3.952893E-03	2.268386E-05
6.026852E+03	3.945399E-03	2.259047E-05
6.036798E+03	3.937550E-03	2.250152E-05
6.046743E+03	3.929349E-03	2.241711E-05
6.056688E+03	3.920883E-03	2.233786E-05
6.066634E+03	3.912072E-03	2.226339E-05
6.076579E+03	3.903004E-03	2.219429E-05
6.086524E+03	3.893517E-03	2.212969E-05
6.096469E+03	3.883873E-03	2.207118E-05
6.106415E+03	3.873830E-03	2.201741E-05
6.116360E+03	3.863574E-03	2.196950E-05
6.126305E+03	3.853125E-03	2.192760E-05
6.136251E+03	3.842342E-03	2.189093E-05
6.146196E+03	3.831428E-03	2.186066E-05
6.156141E+03	3.820423E-03	2.183704E-05
6.166087E+03	3.809294E-03	2.181988E-05
6.176032E+03	3.798179E-03	2.180992E-05
6.185977E+03	3.786965E-03	2.180632E-05
6.195922E+03	3.775948E-03	2.181059E-05
6.205868E+03	3.764988E-03	2.182174E-05
6.215813E+03	3.754083E-03	2.183954E-05
6.225758E+03	3.743286E-03	2.186409E-05
6.235704E+03	3.732458E-03	2.189439E-05
6.245649E+03	3.721619E-03	2.193033E-05
6.255594E+03	3.710620E-03	2.197081E-05
6.265540E+03	3.699484E-03	2.201574E-05
6.275485E+03	3.688160E-03	2.206459E-05
6.285430E+03	3.676524E-03	2.211638E-05
6.295375E+03	3.664625E-03	2.217117E-05
6.305321E+03	3.652358E-03	2.222805E-05
6.315266E+03	3.639785E-03	2.228718E-05
6.325211E+03	3.626815E-03	2.234772E-05
6.335157E+03	3.613521E-03	2.240989E-05
6.345102E+03	3.599902E-03	2.247341E-05
6.355047E+03	3.585959E-03	2.253807E-05
6.364993E+03	3.571616E-03	2.260312E-05
6.374938E+03	3.556960E-03	2.266887E-05
6.384883E+03	3.542003E-03	2.273516E-05
6.394828E+03	3.526754E-03	2.280181E-05
6.404774E+03	3.511148E-03	2.286817E-05
6.414719E+03	3.495361E-03	2.293515E-05
6.424664E+03	3.479248E-03	2.300160E-05
6.434610E+03	3.462907E-03	2.306794E-05
6.444555E+03	3.446358E-03	2.313409E-05
6.454500E+03	3.429620E-03	2.320000E-05
6.464446E+03	3.412634E-03	2.326507E-05
6.474391E+03	3.395581E-03	2.333034E-05
6.484336E+03	3.378402E-03	2.339524E-05
6.494281E+03	3.361121E-03	2.345978E-05
6.504227E+03	3.343760E-03	2.352395E-05
6.514172E+03	3.326342E-03	2.358778E-05
6.524117E+03	3.308890E-03	2.365127E-05
6.534063E+03	3.291429E-03	2.371449E-05
6.544008E+03	3.273980E-03	2.377746E-05
6.553953E+03	3.256645E-03	2.384082E-05
6.563899E+03	3.239369E-03	2.390406E-05
6.573844E+03	3.222176E-03	2.396728E-05
6.583789E+03	3.205089E-03	2.403055E-05
6.593734E+03	3.188204E-03	2.409454E-05
6.603680E+03	3.171470E-03	2.415878E-05
6.613625E+03	3.154908E-03	2.422337E-05
6.623570E+03	3.138612E-03	2.428901E-05
6.633516E+03	3.122530E-03	2.435524E-05
6.643461E+03	3.106754E-03	2.442276E-05
6.653406E+03	3.091157E-03	2.449054E-05
6.663352E+03	3.075977E-03	2.456044E-05
6.673297E+03	3.061086E-03	2.463145E-05
6.683242E+03	3.046500E-03	2.470369E-05
6.693187E+03	3.032309E-03	2.477789E-05
6.703133E+03	3.018454E-03	2.485359E-05
6.713078E+03	3.005023E-03	2.493151E-05
6.723023E+03	2.992029E-03	2.501181E-05
6.732969E+03	2.979413E-03	2.509401E-05
6.742914E+03	2.967257E-03	2.517885E-05
6.752859E+03	2.955500E-03	2.526585E-05
6.762805E+03	2.944296E-03	2.535635E-05
6.772750E+03	2.933438E-03	2.544864E-05
6.782695E+03	2.923147E-03	2.554468E-05
6.792640E+03	2.913289E-03	2.564336E-05
6.802586E+03	2.903869E-03	2.574477E-05
6.812531E+03	2.895033E-03	2.585027E-05
6.822476E+03	2.886642E-03	2.595869E-05
6.832422E+03	2.878770E-03	2.607077E-05
6.842367E+03	2.871349E-03	2.618594E-05
6.852312E+03	2.864448E-03	2.630491E-05
6.862258E+03	2.858066E-03	2.642775E-05
6.872203E+03	2.852203E-03	2.655453E-05
6.882148E+03	2.846786E-03	2.668464E-05
6.892093E+03	2.841881E-03	2.681877E-05
6.902039E+03	2.837483E-03	2.695695E-05
6.911984E+03	2.833587E-03	2.709922E-05
6.921929E+03	2.830117E-03	2.724491E-05
6.931875E+03	2.827135E-03	2.739470E-05
6.941820E+03	2.824563E-03	2.754790E-05
6.951765E+03	2.822461E-03	2.770516E-05
6.961711E+03	2.820820E-03	2.786646E-05
6.971656E+03	2.819627E-03	2.803176E-05
6.981601E+03	2.818802E-03	2.820033E-05
6.991546E+03	2.818402E-03	2.837278E-05
7.001492E+03	2.818343E-03	2.854835E-05
7.011437E+03	2.818681E-03	2.872766E-05
7.021382E+03	2.819401E-03	2.891060E-05
7.031328E+03	2.820417E-03	2.909637E-05
7.041273E+03	2.821713E-03	2.928484E-05
7.051218E+03	2.823341E-03	2.947659E-05
7.061164E+03	2.825285E-03	2.967151E-05
7.071109E+03	2.827455E-03	2.986869E-05
7.081054E+03	2.829902E-03	3.006873E-05
7.091000E+03	2.832538E-03	3.027070E-05
7.100945E+03	2.835341E-03	3.047443E-05
7.110890E+03	2.838363E-03	3.068047E-05
7.120835E+03	2.841511E-03	3.088785E-05
7.130781E+03	2.844764E-03	3.109638E-05
7.140726E+03	2.848172E-03	3.130660E-05
7.150671E+03	2.851642E-03	3.151751E-05
7.160617E+03	2.855152E-03	3.172887E-05
7.170562E+03	2.858678E-03	3.194043E-05
7.180507E+03	2.862272E-03	3.215275E-05
7.190453E+03	2.865837E-03	3.236477E-05
7.200398E+03	2.869353E-03	3.257622E-05
7.210343E+03	2.872722E-03	3.278600E-05
7.220288E+03	2.876068E-03	3.299549E-05
7.230234E+03	2.879296E-03	3.320358E-05
7.240179E+03	2.882456E-03	3.341083E-05
7.250124E+03	2.885379E-03	3.361527E-05
7.260070E+03	2.888044E-03	3.381660E-05
7.270015E+03	2.890575E-03	3.401623E-05
7.279960E+03	2.892876E-03	3.421301E-05
7.289906E+03	2.894926E-03	3.440664E-05
7.299851E+03	2.896630E-03	3.459595E-05
7.309796E+03	2.898042E-03	3.478152E-05
7.319741E+03	2.899140E-03	3.496303E-05
7.329687E+03	2.899906E-03	3.514022E-05
7.339632E+03	2.900318E-03	3.531277E-05
7.349577E+03	2.900285E-03	3.547948E-05
7.359523E+03	2.899861E-03	3.564097E-05
7.369468E+03	2.898956E-03	3.579605E-05
7.379413E+03	2.897625E-03	3.594533E-05
7.389359E+03	2.895854E-03	3.608855E-05
7.399304E+03	2.893552E-03	3.622451E-05
7.409249E+03	2.890781E-03	3.635390E-05
7.419194E+03	2.887453E-03	3.647554E-05
7.429140E+03	2.883630E-03	3.659012E-05
7.439085E+03	2.879306E-03	3.669748E-05
7.449030E+03	2.874322E-03	3.679552E-05
7.458976E+03	2.868823E-03	3.688599E-05
7.468921E+03	2.862807E-03	3.696878E-05
7.478866E+03	2.856201E-03	3.704287E-05
7.488812E+03	2.849084E-03	3.710921E-05
7.498757E+03	2.841318E-03	3.716588E-05
7.508702E+03	2.833065E-03	3.721492E-05
7.518647E+03	2.824343E-03	3.725651E-05
7.528593E+03	2.815104E-03	3.728989E-05
7.538538E+03	2.805375E-03	3.731537E-05
7.548483E+03	2.795189E-03	3.733328E-05
7.558429E+03	2.784647E-03	3.734492E-05
7.568374E+03	2.773629E-03	3.734860E-05
7.578319E+03	2.762367E-03	3.734740E-05
7.588265E+03	2.750647E-03	3.733835E-05
7.598210E+03	2.738533E-03	3.732228E-05
7.608155E+03	2.726086E-03	3.729991E-05
7.618100E+03	2.713219E-03	3.727005E-05
7.628046E+03	2.699921E-03	3.723246E-05
7.637991E+03	2.686259E-03	3.718799E-05
7.647936E+03	2.672087E-03	3.713456E-05
7.657882E+03	2.657552E-03	3.707415E-05
7.667827E+03	2.642520E-03	3.700483E-05
7.677772E+03	2.627143E-03	3.692865E-05
7.687718E+03	2.611367E-03	3.684480E-05
7.697663E+03	2.595208E-03	3.675344E-05
7.707608E+03	2.578686E-03	3.665482E-05
7.717553E+03	2.561822E-03	3.654917E-05
