#wls	flux	fluxerr
1.600000E+03	2.853745E-17	2.508076E-17
1.640000E+03	2.747553E-17	2.315212E-17
1.680000E+03	2.639475E-17	2.121477E-17
1.720000E+03	2.529167E-17	1.927943E-17
1.760000E+03	2.418335E-17	1.737508E-17
1.800000E+03	2.307514E-17	1.552324E-17
1.840000E+03	2.198712E-17	1.375770E-17
1.880000E+03	2.093287E-17	1.210958E-17
1.920000E+03	1.993186E-17	1.061635E-17
1.960000E+03	1.900124E-17	9.317031E-18
2.000000E+03	1.816145E-17	8.253605E-18
2.040000E+03	1.742652E-17	7.459361E-18
2.080000E+03	1.681201E-17	6.948958E-18
2.120000E+03	1.631344E-17	6.695091E-18
2.160000E+03	1.592116E-17	6.634922E-18
2.200000E+03	1.561101E-17	6.684033E-18
2.240000E+03	1.536393E-17	6.765870E-18
2.280000E+03	1.516526E-17	6.823118E-18
2.320000E+03	1.500068E-17	6.817608E-18
2.360000E+03	1.486976E-17	6.734179E-18
2.400000E+03	1.478154E-17	6.576215E-18
2.440000E+03	1.475495E-17	6.364238E-18
2.480000E+03	1.481715E-17	6.134951E-18
2.520000E+03	1.500548E-17	5.943117E-18
2.560000E+03	1.536978E-17	5.862573E-18
2.600000E+03	1.595916E-17	5.975899E-18
2.640000E+03	1.682234E-17	6.359964E-18
2.680000E+03	1.799302E-17	7.061695E-18
2.720000E+03	1.948556E-17	8.088699E-18
2.760000E+03	2.130594E-17	9.420816E-18
2.800000E+03	2.344191E-17	1.101630E-17
2.840000E+03	2.587832E-17	1.282310E-17
2.880000E+03	2.858531E-17	1.477367E-17
2.920000E+03	3.152625E-17	1.678765E-17
2.960000E+03	3.466962E-17	1.877889E-17
3.000000E+03	3.797518E-17	2.065039E-17
3.010000E+03	3.882385E-17	2.108875E-17
3.020000E+03	3.968240E-17	2.151336E-17
3.030000E+03	4.054641E-17	2.192061E-17
3.040000E+03	4.141536E-17	2.230902E-17
3.050000E+03	4.229708E-17	2.268159E-17
3.060000E+03	4.317886E-17	2.303033E-17
3.070000E+03	4.407299E-17	2.336063E-17
3.080000E+03	4.497085E-17	2.366677E-17
3.090000E+03	4.587662E-17	2.394984E-17
3.100000E+03	4.679037E-17	2.420874E-17
3.110000E+03	4.770774E-17	2.444017E-17
3.120000E+03	4.863796E-17	2.464781E-17
3.130000E+03	4.957239E-17	2.482621E-17
3.140000E+03	5.052073E-17	2.497925E-17
3.150000E+03	5.147446E-17	2.510169E-17
3.160000E+03	5.244384E-17	2.519760E-17
3.170000E+03	5.342534E-17	2.526425E-17
3.180000E+03	5.442515E-17	2.530359E-17
3.190000E+03	5.544010E-17	2.531312E-17
3.200000E+03	5.647702E-17	2.529496E-17
3.210000E+03	5.753318E-17	2.524686E-17
3.220000E+03	5.861616E-17	2.517109E-17
3.230000E+03	5.972893E-17	2.506777E-17
3.240000E+03	6.087485E-17	2.493709E-17
3.250000E+03	6.206298E-17	2.478140E-17
3.260000E+03	6.328702E-17	2.459676E-17
3.270000E+03	6.456224E-17	2.438764E-17
3.280000E+03	6.589395E-17	2.415426E-17
3.290000E+03	6.728795E-17	2.389676E-17
3.300000E+03	6.874496E-17	2.361333E-17
3.310000E+03	7.028288E-17	2.330782E-17
3.320000E+03	7.190342E-17	2.297808E-17
3.330000E+03	7.362003E-17	2.262552E-17
3.340000E+03	7.544086E-17	2.224930E-17
3.350000E+03	7.737423E-17	2.184828E-17
3.360000E+03	7.942841E-17	2.142087E-17
3.370000E+03	8.161752E-17	2.096656E-17
3.380000E+03	8.394907E-17	2.048255E-17
3.390000E+03	8.642935E-17	1.996535E-17
3.400000E+03	8.906932E-17	1.941218E-17
3.410000E+03	9.187101E-17	1.881792E-17
3.420000E+03	9.483274E-17	1.817671E-17
3.430000E+03	9.795477E-17	1.748328E-17
3.440000E+03	1.012243E-16	1.673052E-17
3.450000E+03	1.046205E-16	1.591129E-17
3.460000E+03	1.081195E-16	1.502014E-17
3.470000E+03	1.116863E-16	1.405310E-17
3.480000E+03	1.152565E-16	1.300763E-17
3.490000E+03	1.187728E-16	1.189021E-17
3.500000E+03	1.221376E-16	1.071528E-17
3.510000E+03	1.252589E-16	9.517496E-18
3.520000E+03	1.280049E-16	8.358677E-18
3.530000E+03	1.302395E-16	7.345511E-18
3.540000E+03	1.318420E-16	6.634157E-18
3.550000E+03	1.326896E-16	6.380886E-18
3.560000E+03	1.327311E-16	6.627960E-18
3.570000E+03	1.319738E-16	7.248887E-18
3.580000E+03	1.304982E-16	8.051049E-18
3.590000E+03	1.284043E-16	8.878728E-18
3.600000E+03	1.257923E-16	9.635818E-18
3.610000E+03	1.227732E-16	1.027305E-17
3.620000E+03	1.194427E-16	1.076985E-17
3.630000E+03	1.158742E-16	1.112214E-17
3.640000E+03	1.121548E-16	1.133836E-17
3.650000E+03	1.083481E-16	1.143154E-17
3.660000E+03	1.044977E-16	1.141634E-17
3.670000E+03	1.006604E-16	1.131059E-17
3.680000E+03	9.686633E-17	1.112972E-17
3.690000E+03	9.315582E-17	1.088999E-17
3.700000E+03	8.955761E-17	1.060557E-17
3.710000E+03	8.610779E-17	1.029046E-17
3.720000E+03	8.283465E-17	9.956633E-18
3.730000E+03	7.977159E-17	9.615487E-18
3.740000E+03	7.695329E-17	9.277456E-18
3.750000E+03	7.441573E-17	8.952026E-18
3.760000E+03	7.219305E-17	8.647422E-18
3.770000E+03	7.032351E-17	8.371356E-18
3.780000E+03	6.884597E-17	8.130663E-18
3.790000E+03	6.779758E-17	7.931067E-18
3.800000E+03	6.722197E-17	7.778196E-18
3.810000E+03	6.715973E-17	7.676507E-18
3.820000E+03	6.765702E-17	7.630349E-18
3.830000E+03	6.876404E-17	7.643812E-18
3.840000E+03	7.053117E-17	7.720364E-18
3.850000E+03	7.302366E-17	7.864513E-18
3.860000E+03	7.630238E-17	8.079752E-18
3.870000E+03	8.043947E-17	8.370326E-18
3.880000E+03	8.550109E-17	8.739489E-18
3.890000E+03	9.156132E-17	9.191082E-18
3.900000E+03	9.867260E-17	9.726665E-18
3.910000E+03	1.068858E-16	1.034776E-17
3.920000E+03	1.162157E-16	1.105270E-17
3.930000E+03	1.266489E-16	1.183771E-17
3.940000E+03	1.381292E-16	1.269581E-17
3.950000E+03	1.505491E-16	1.361640E-17
3.960000E+03	1.637412E-16	1.458474E-17
3.970000E+03	1.774848E-16	1.558280E-17
3.980000E+03	1.915012E-16	1.658900E-17
3.990000E+03	2.054730E-16	1.757981E-17
4.000000E+03	2.190542E-16	1.853045E-17
4.010000E+03	2.318837E-16	1.941573E-17
4.020000E+03	2.436177E-16	2.021235E-17
4.030000E+03	2.539415E-16	2.089936E-17
4.040000E+03	2.626085E-16	2.146102E-17
4.050000E+03	2.694284E-16	2.188536E-17
4.060000E+03	2.743170E-16	2.216798E-17
4.070000E+03	2.772709E-16	2.230985E-17
4.080000E+03	2.783856E-16	2.231873E-17
4.090000E+03	2.778334E-16	2.220759E-17
4.100000E+03	2.758614E-16	2.199463E-17
4.110000E+03	2.727652E-16	2.170155E-17
4.120000E+03	2.688619E-16	2.135161E-17
4.130000E+03	2.644866E-16	2.096959E-17
4.140000E+03	2.599508E-16	2.057862E-17
4.150000E+03	2.555416E-16	2.019999E-17
4.160000E+03	2.515271E-16	1.985356E-17
4.170000E+03	2.481116E-16	1.955393E-17
4.180000E+03	2.454863E-16	1.931424E-17
4.190000E+03	2.437877E-16	1.914251E-17
4.200000E+03	2.431413E-16	1.904468E-17
4.210000E+03	2.436333E-16	1.902193E-17
4.220000E+03	2.453305E-16	1.907172E-17
4.230000E+03	2.482980E-16	1.918850E-17
4.240000E+03	2.525686E-16	1.936078E-17
4.250000E+03	2.581798E-16	1.957326E-17
4.260000E+03	2.651333E-16	1.980322E-17
4.270000E+03	2.734251E-16	2.002230E-17
4.280000E+03	2.830079E-16	2.019345E-17
4.290000E+03	2.937804E-16	2.027058E-17
4.300000E+03	3.055849E-16	2.019982E-17
4.310000E+03	3.181729E-16	1.992043E-17
4.320000E+03	3.311973E-16	1.937068E-17
4.330000E+03	3.441895E-16	1.849757E-17
4.340000E+03	3.565647E-16	1.727557E-17
4.350000E+03	3.676457E-16	1.573704E-17
4.360000E+03	3.767292E-16	1.401923E-17
4.370000E+03	3.831496E-16	1.242181E-17
4.380000E+03	3.864357E-16	1.141811E-17
4.390000E+03	3.864255E-16	1.143668E-17
4.400000E+03	3.833841E-16	1.246112E-17
4.410000E+03	3.779359E-16	1.405722E-17
4.420000E+03	3.709259E-16	1.578325E-17
4.430000E+03	3.632699E-16	1.738082E-17
4.440000E+03	3.558056E-16	1.874772E-17
4.450000E+03	3.492447E-16	1.987489E-17
4.460000E+03	3.441222E-16	2.079826E-17
4.470000E+03	3.408400E-16	2.157241E-17
4.480000E+03	3.396568E-16	2.225321E-17
4.490000E+03	3.407140E-16	2.288992E-17
4.500000E+03	3.440821E-16	2.352364E-17
4.510000E+03	3.497522E-16	2.418490E-17
4.520000E+03	3.576643E-16	2.489545E-17
4.530000E+03	3.676854E-16	2.566733E-17
4.540000E+03	3.796389E-16	2.650579E-17
4.550000E+03	3.932760E-16	2.740832E-17
4.560000E+03	4.082903E-16	2.836622E-17
4.570000E+03	4.243093E-16	2.936437E-17
4.580000E+03	4.409108E-16	3.038216E-17
4.590000E+03	4.576533E-16	3.139501E-17
4.600000E+03	4.740817E-16	3.237392E-17
4.610000E+03	4.897788E-16	3.328825E-17
4.620000E+03	5.043895E-16	3.410671E-17
4.630000E+03	5.176651E-16	3.480014E-17
4.640000E+03	5.294773E-16	3.534249E-17
4.650000E+03	5.398226E-16	3.571121E-17
4.660000E+03	5.488012E-16	3.588611E-17
4.670000E+03	5.566066E-16	3.584896E-17
4.680000E+03	5.634548E-16	3.557946E-17
4.690000E+03	5.695550E-16	3.505501E-17
4.700000E+03	5.750529E-16	3.425048E-17
4.710000E+03	5.799888E-16	3.314202E-17
4.720000E+03	5.842611E-16	3.171571E-17
4.730000E+03	5.876379E-16	2.998509E-17
4.740000E+03	5.897443E-16	2.801394E-17
4.750000E+03	5.901290E-16	2.594772E-17
4.760000E+03	5.883301E-16	2.403657E-17
4.770000E+03	5.839925E-16	2.261719E-17
4.780000E+03	5.769641E-16	2.199773E-17
4.790000E+03	5.673425E-16	2.226743E-17
4.800000E+03	5.555073E-16	2.322439E-17
4.810000E+03	5.420664E-16	2.452372E-17
4.820000E+03	5.277593E-16	2.586285E-17
4.830000E+03	5.133434E-16	2.705593E-17
4.840000E+03	4.995394E-16	2.802595E-17
4.850000E+03	4.869694E-16	2.876921E-17
4.860000E+03	4.761545E-16	2.932396E-17
4.870000E+03	4.675141E-16	2.974733E-17
4.880000E+03	4.613672E-16	3.010053E-17
4.890000E+03	4.579620E-16	3.044174E-17
4.900000E+03	4.574810E-16	3.082180E-17
4.910000E+03	4.600254E-16	3.128082E-17
4.920000E+03	4.656253E-16	3.184823E-17
4.930000E+03	4.742073E-16	3.254080E-17
4.940000E+03	4.855836E-16	3.336256E-17
4.950000E+03	4.994081E-16	3.430284E-17
4.960000E+03	5.151934E-16	3.533847E-17
4.970000E+03	5.322889E-16	3.643332E-17
4.980000E+03	5.499140E-16	3.754153E-17
4.990000E+03	5.671886E-16	3.861026E-17
5.000000E+03	5.832251E-16	3.958637E-17
5.010000E+03	5.972206E-16	4.042269E-17
5.020000E+03	6.085311E-16	4.108272E-17
5.030000E+03	6.167741E-16	4.154691E-17
5.040000E+03	6.218514E-16	4.181338E-17
5.050000E+03	6.239561E-16	4.189772E-17
5.060000E+03	6.235245E-16	4.182933E-17
5.070000E+03	6.211900E-16	4.164851E-17
5.080000E+03	6.176486E-16	4.139793E-17
5.090000E+03	6.136269E-16	4.112133E-17
5.100000E+03	6.097696E-16	4.085686E-17
5.110000E+03	6.065914E-16	4.063466E-17
5.120000E+03	6.044960E-16	4.047856E-17
5.130000E+03	6.037000E-16	4.040135E-17
5.140000E+03	6.043231E-16	4.041066E-17
5.150000E+03	6.063420E-16	4.050566E-17
5.160000E+03	6.096801E-16	4.068272E-17
5.170000E+03	6.141922E-16	4.093392E-17
5.180000E+03	6.197440E-16	4.125210E-17
5.190000E+03	6.262235E-16	4.163132E-17
5.200000E+03	6.335508E-16	4.206746E-17
5.210000E+03	6.417097E-16	4.256021E-17
5.220000E+03	6.507424E-16	4.311258E-17
5.230000E+03	6.607390E-16	4.372992E-17
5.240000E+03	6.718245E-16	4.441878E-17
5.250000E+03	6.841178E-16	4.518384E-17
5.260000E+03	6.977002E-16	4.602571E-17
5.270000E+03	7.125980E-16	4.693982E-17
5.280000E+03	7.287546E-16	4.791498E-17
5.290000E+03	7.459858E-16	4.893093E-17
5.300000E+03	7.639966E-16	4.995992E-17
5.310000E+03	7.823579E-16	5.096515E-17
5.320000E+03	8.005189E-16	5.190104E-17
5.330000E+03	8.178582E-16	5.271519E-17
5.340000E+03	8.336928E-16	5.334694E-17
5.350000E+03	8.473609E-16	5.373063E-17
5.360000E+03	8.582438E-16	5.379508E-17
5.370000E+03	8.658536E-16	5.346845E-17
5.380000E+03	8.698471E-16	5.267952E-17
5.390000E+03	8.700981E-16	5.136431E-17
5.400000E+03	8.666886E-16	4.946911E-17
5.410000E+03	8.599554E-16	4.695826E-17
5.420000E+03	8.504539E-16	4.381835E-17
5.430000E+03	8.389742E-16	4.006729E-17
5.440000E+03	8.264728E-16	3.576280E-17
5.450000E+03	8.140438E-16	3.102350E-17
5.460000E+03	8.028428E-16	2.607477E-17
5.470000E+03	7.939581E-16	2.135816E-17
5.480000E+03	7.882980E-16	1.774237E-17
5.490000E+03	7.863584E-16	1.653820E-17
5.500000E+03	7.879836E-16	1.837898E-17
5.510000E+03	7.922927E-16	2.229573E-17
5.520000E+03	7.977880E-16	2.698500E-17
5.530000E+03	8.026401E-16	3.163279E-17
5.540000E+03	8.049520E-16	3.579376E-17
5.550000E+03	8.030016E-16	3.921401E-17
5.560000E+03	7.954597E-16	4.175389E-17
5.570000E+03	7.815548E-16	4.336117E-17
5.580000E+03	7.611500E-16	4.405877E-17
5.590000E+03	7.347493E-16	4.393370E-17
5.600000E+03	7.033647E-16	4.311850E-17
5.610000E+03	6.683446E-16	4.177058E-17
5.620000E+03	6.312073E-16	4.005369E-17
5.630000E+03	5.934261E-16	3.811924E-17
5.640000E+03	5.563249E-16	3.609752E-17
5.650000E+03	5.210231E-16	3.409465E-17
5.660000E+03	4.883816E-16	3.219093E-17
5.670000E+03	4.590430E-16	3.044563E-17
5.680000E+03	4.334624E-16	2.890110E-17
5.690000E+03	4.119572E-16	2.758753E-17
5.700000E+03	3.947379E-16	2.652599E-17
5.710000E+03	3.819637E-16	2.573278E-17
5.720000E+03	3.737586E-16	2.522084E-17
5.730000E+03	3.702489E-16	2.500246E-17
5.740000E+03	3.715817E-16	2.509060E-17
5.750000E+03	3.779308E-16	2.549937E-17
5.760000E+03	3.895012E-16	2.624443E-17
5.770000E+03	4.065377E-16	2.734369E-17
5.780000E+03	4.292962E-16	2.881554E-17
5.790000E+03	4.580362E-16	3.067848E-17
5.800000E+03	4.929691E-16	3.294792E-17
5.810000E+03	5.342308E-16	3.563449E-17
5.820000E+03	5.818146E-16	3.873981E-17
5.830000E+03	6.355119E-16	4.225266E-17
5.840000E+03	6.948685E-16	4.614609E-17
5.850000E+03	7.591433E-16	5.037451E-17
5.860000E+03	8.272648E-16	5.487033E-17
5.870000E+03	8.978658E-16	5.954556E-17
5.880000E+03	9.692855E-16	6.429095E-17
5.890000E+03	1.039709E-15	6.898445E-17
5.900000E+03	1.107215E-15	7.349403E-17
5.910000E+03	1.169933E-15	7.768842E-17
5.920000E+03	1.226213E-15	8.144969E-17
5.930000E+03	1.274653E-15	8.467702E-17
5.940000E+03	1.314323E-15	8.730311E-17
5.950000E+03	1.344661E-15	8.928880E-17
5.960000E+03	1.365613E-15	9.063250E-17
5.970000E+03	1.377492E-15	9.135979E-17
5.980000E+03	1.380946E-15	9.151955E-17
5.990000E+03	1.376892E-15	9.117823E-17
6.000000E+03	1.366375E-15	9.040883E-17
6.010000E+03	1.350528E-15	8.928760E-17
6.020000E+03	1.330481E-15	8.788798E-17
6.030000E+03	1.307356E-15	8.628052E-17
6.040000E+03	1.282172E-15	8.452704E-17
6.050000E+03	1.255911E-15	8.268468E-17
6.060000E+03	1.229438E-15	8.080064E-17
6.070000E+03	1.203518E-15	7.891252E-17
6.080000E+03	1.178823E-15	7.704729E-17
6.090000E+03	1.155903E-15	7.521842E-17
6.100000E+03	1.135154E-15	7.342233E-17
6.110000E+03	1.116852E-15	7.163955E-17
6.120000E+03	1.101122E-15	6.983183E-17
6.130000E+03	1.087906E-15	6.794054E-17
6.140000E+03	1.077014E-15	6.589152E-17
6.150000E+03	1.068062E-15	6.359563E-17
6.160000E+03	1.060493E-15	6.095843E-17
6.170000E+03	1.053585E-15	5.789508E-17
6.180000E+03	1.046459E-15	5.435325E-17
6.190000E+03	1.038088E-15	5.034630E-17
6.200000E+03	1.027360E-15	4.600021E-17
6.210000E+03	1.013219E-15	4.160858E-17
6.220000E+03	9.947863E-16	3.766312E-17
6.230000E+03	9.715896E-16	3.478822E-17
6.240000E+03	9.436788E-16	3.346898E-17
6.250000E+03	9.116730E-16	3.369051E-17
6.260000E+03	8.766758E-16	3.492250E-17
6.270000E+03	8.401521E-16	3.650603E-17
6.280000E+03	8.037420E-16	3.797106E-17
6.290000E+03	7.690061E-16	3.909668E-17
6.300000E+03	7.373279E-16	3.984855E-17
6.310000E+03	7.097995E-16	4.029597E-17
6.320000E+03	6.872232E-16	4.055161E-17
6.330000E+03	6.701414E-16	4.073411E-17
6.340000E+03	6.588300E-16	4.094463E-17
6.350000E+03	6.533549E-16	4.125835E-17
6.360000E+03	6.536005E-16	4.172093E-17
6.370000E+03	6.592639E-16	4.234643E-17
6.380000E+03	6.698517E-16	4.311702E-17
6.390000E+03	6.847398E-16	4.398737E-17
6.400000E+03	7.031584E-16	4.488432E-17
6.410000E+03	7.242219E-16	4.570972E-17
6.420000E+03	7.469806E-16	4.634519E-17
6.430000E+03	7.704756E-16	4.665838E-17
6.440000E+03	7.938096E-16	4.651219E-17
6.450000E+03	8.161895E-16	4.577524E-17
6.460000E+03	8.369851E-16	4.433726E-17
6.470000E+03	8.557560E-16	4.212870E-17
6.480000E+03	8.722813E-16	3.914997E-17
6.490000E+03	8.865977E-16	3.551789E-17
6.500000E+03	8.989525E-16	3.153899E-17
6.510000E+03	9.098266E-16	2.782714E-17
6.520000E+03	9.198870E-16	2.538189E-17
6.530000E+03	9.299284E-16	2.527263E-17
6.540000E+03	9.406651E-16	2.775900E-17
6.550000E+03	9.527400E-16	3.207364E-17
6.560000E+03	9.667017E-16	3.724875E-17
6.570000E+03	9.830350E-16	4.263498E-17
6.580000E+03	1.002168E-15	4.789644E-17
6.590000E+03	1.024352E-15	5.288562E-17
6.600000E+03	1.049665E-15	5.755462E-17
6.610000E+03	1.077978E-15	6.190193E-17
6.620000E+03	1.108948E-15	6.594335E-17
6.630000E+03	1.142040E-15	6.969762E-17
6.640000E+03	1.176522E-15	7.317750E-17
6.650000E+03	1.211487E-15	7.638647E-17
6.660000E+03	1.245936E-15	7.932053E-17
6.670000E+03	1.278782E-15	8.196604E-17
6.680000E+03	1.308906E-15	8.430170E-17
6.690000E+03	1.335232E-15	8.630142E-17
6.700000E+03	1.356729E-15	8.793376E-17
6.710000E+03	1.372527E-15	8.916912E-17
6.720000E+03	1.381901E-15	8.997914E-17
6.730000E+03	1.384389E-15	9.034577E-17
6.740000E+03	1.379706E-15	9.025702E-17
6.750000E+03	1.367878E-15	8.971825E-17
6.760000E+03	1.349127E-15	8.874563E-17
6.770000E+03	1.323909E-15	8.737004E-17
6.780000E+03	1.292887E-15	8.563475E-17
6.790000E+03	1.256856E-15	8.358991E-17
6.800000E+03	1.216711E-15	8.128876E-17
6.810000E+03	1.173470E-15	7.878856E-17
6.820000E+03	1.128149E-15	7.614153E-17
6.830000E+03	1.081829E-15	7.340163E-17
6.840000E+03	1.035592E-15	7.062239E-17
6.850000E+03	9.904679E-16	6.785670E-17
6.860000E+03	9.474447E-16	6.516068E-17
6.870000E+03	9.074310E-16	6.259271E-17
6.880000E+03	8.712429E-16	6.021282E-17
6.890000E+03	8.395534E-16	5.807788E-17
6.900000E+03	8.129297E-16	5.624187E-17
6.910000E+03	7.917898E-16	5.475020E-17
6.920000E+03	7.764512E-16	5.364063E-17
6.930000E+03	7.670989E-16	5.293939E-17
6.940000E+03	7.638343E-16	5.266358E-17
6.950000E+03	7.666492E-16	5.281915E-17
6.960000E+03	7.754235E-16	5.340101E-17
6.970000E+03	7.899345E-16	5.439428E-17
6.980000E+03	8.098529E-16	5.577461E-17
6.990000E+03	8.346516E-16	5.750262E-17
7.000000E+03	8.637045E-16	5.953140E-17
7.010000E+03	8.961476E-16	6.179765E-17
7.020000E+03	9.310038E-16	6.423102E-17
7.030000E+03	9.671245E-16	6.675094E-17
7.040000E+03	1.003237E-15	6.927052E-17
7.050000E+03	1.038028E-15	7.170269E-17
7.060000E+03	1.070202E-15	7.396438E-17
7.070000E+03	1.098565E-15	7.598158E-17
7.080000E+03	1.122120E-15	7.769493E-17
7.090000E+03	1.140083E-15	7.905905E-17
7.100000E+03	1.152021E-15	8.005080E-17
7.110000E+03	1.157831E-15	8.066563E-17
7.120000E+03	1.157736E-15	8.091653E-17
7.130000E+03	1.152304E-15	8.083496E-17
7.140000E+03	1.142336E-15	8.046338E-17
7.150000E+03	1.128835E-15	7.985483E-17
7.160000E+03	1.112916E-15	7.906804E-17
7.170000E+03	1.095703E-15	7.816291E-17
7.180000E+03	1.078321E-15	7.720151E-17
7.190000E+03	1.061720E-15	7.623729E-17
7.200000E+03	1.046770E-15	7.532253E-17
7.210000E+03	1.034180E-15	7.450279E-17
7.220000E+03	1.024436E-15	7.381211E-17
7.230000E+03	1.017930E-15	7.328145E-17
7.240000E+03	1.014855E-15	7.293020E-17
7.250000E+03	1.015248E-15	7.276880E-17
7.260000E+03	1.019030E-15	7.280034E-17
7.270000E+03	1.025932E-15	7.301529E-17
7.280000E+03	1.035574E-15	7.339642E-17
7.290000E+03	1.047452E-15	7.391814E-17
7.300000E+03	1.060901E-15	7.454347E-17
7.310000E+03	1.075191E-15	7.523065E-17
7.320000E+03	1.089524E-15	7.593256E-17
7.330000E+03	1.103130E-15	7.660301E-17
7.340000E+03	1.115258E-15	7.719522E-17
7.350000E+03	1.125291E-15	7.766975E-17
7.360000E+03	1.132814E-15	7.799888E-17
7.370000E+03	1.137586E-15	7.816454E-17
7.380000E+03	1.139573E-15	7.816108E-17
7.390000E+03	1.138946E-15	7.799514E-17
7.400000E+03	1.135985E-15	7.767980E-17
7.410000E+03	1.131108E-15	7.723611E-17
7.420000E+03	1.124742E-15	7.668448E-17
7.430000E+03	1.117244E-15	7.603836E-17
7.440000E+03	1.108977E-15	7.530879E-17
7.450000E+03	1.100172E-15	7.449395E-17
7.460000E+03	1.090954E-15	7.357893E-17
7.470000E+03	1.081335E-15	7.253425E-17
7.480000E+03	1.071240E-15	7.131631E-17
7.490000E+03	1.060500E-15	6.986610E-17
7.500000E+03	1.048903E-15	6.811363E-17
7.510000E+03	1.036206E-15	6.598156E-17
7.520000E+03	1.022165E-15	6.339276E-17
7.530000E+03	1.006520E-15	6.027858E-17
7.540000E+03	9.891571E-16	5.660115E-17
7.550000E+03	9.699444E-16	5.236046E-17
7.560000E+03	9.489425E-16	4.762781E-17
7.570000E+03	9.262946E-16	4.256737E-17
7.580000E+03	9.022695E-16	3.747508E-17
7.590000E+03	8.773217E-16	3.282029E-17
7.600000E+03	8.520120E-16	2.924019E-17
7.610000E+03	8.270622E-16	2.737026E-17
7.620000E+03	8.032250E-16	2.743242E-17
7.630000E+03	7.812642E-16	2.901137E-17
7.640000E+03	7.619002E-16	3.140178E-17
7.650000E+03	7.457405E-16	3.403581E-17
7.660000E+03	7.332452E-16	3.659675E-17
7.670000E+03	7.246991E-16	3.895522E-17
7.680000E+03	7.202070E-16	4.108715E-17
7.690000E+03	7.197185E-16	4.301792E-17
7.700000E+03	7.230276E-16	4.478843E-17
7.710000E+03	7.297951E-16	4.643786E-17
7.720000E+03	7.395890E-16	4.799699E-17
7.730000E+03	7.519014E-16	4.948527E-17
7.740000E+03	7.661310E-16	5.090847E-17
7.750000E+03	7.816434E-16	5.226285E-17
7.760000E+03	7.977463E-16	5.353450E-17
