#wls	flux	fluxerr
1.600000E+03	5.104714E-18	6.096392E-18
1.640000E+03	5.076865E-18	6.053765E-18
1.680000E+03	5.054624E-18	6.017668E-18
1.720000E+03	5.036835E-18	5.986697E-18
1.760000E+03	5.025017E-18	5.962618E-18
1.800000E+03	5.019851E-18	5.946189E-18
1.840000E+03	5.022928E-18	5.939217E-18
1.880000E+03	5.033327E-18	5.940515E-18
1.920000E+03	5.053615E-18	5.952991E-18
1.960000E+03	5.083867E-18	5.976580E-18
2.000000E+03	5.125955E-18	6.013291E-18
2.040000E+03	5.179275E-18	6.062184E-18
2.080000E+03	5.246769E-18	6.126422E-18
2.120000E+03	5.329804E-18	6.207255E-18
2.160000E+03	5.429013E-18	6.304998E-18
2.200000E+03	5.546053E-18	6.421077E-18
2.240000E+03	5.684615E-18	6.559147E-18
2.280000E+03	5.844990E-18	6.718791E-18
2.320000E+03	6.029493E-18	6.901768E-18
2.360000E+03	6.242696E-18	7.112204E-18
2.400000E+03	6.485623E-18	7.349900E-18
2.440000E+03	6.763643E-18	7.619287E-18
2.480000E+03	7.078414E-18	7.920187E-18
2.520000E+03	7.436285E-18	8.257216E-18
2.560000E+03	7.839652E-18	8.629959E-18
2.600000E+03	8.296024E-18	9.042933E-18
2.640000E+03	8.809933E-18	9.496443E-18
2.680000E+03	9.389001E-18	9.993033E-18
2.720000E+03	1.003873E-17	1.053161E-17
2.760000E+03	1.076795E-17	1.111297E-17
2.800000E+03	1.158296E-17	1.173330E-17
2.840000E+03	1.249176E-17	1.238828E-17
2.880000E+03	1.350637E-17	1.307473E-17
2.920000E+03	1.463148E-17	1.377907E-17
2.960000E+03	1.587473E-17	1.448709E-17
3.000000E+03	1.724759E-17	1.518388E-17
3.010000E+03	1.761092E-17	1.535281E-17
3.020000E+03	1.798466E-17	1.552068E-17
3.030000E+03	1.836393E-17	1.568276E-17
3.040000E+03	1.875377E-17	1.584282E-17
3.050000E+03	1.915171E-17	1.599819E-17
3.060000E+03	1.955776E-17	1.614831E-17
3.070000E+03	1.997191E-17	1.629257E-17
3.080000E+03	2.039413E-17	1.643034E-17
3.090000E+03	2.082718E-17	1.656322E-17
3.100000E+03	2.126831E-17	1.668829E-17
3.110000E+03	2.171745E-17	1.680484E-17
3.120000E+03	2.217449E-17	1.691212E-17
3.130000E+03	2.263932E-17	1.700936E-17
3.140000E+03	2.311489E-17	1.709802E-17
3.150000E+03	2.359493E-17	1.717272E-17
3.160000E+03	2.408548E-17	1.723715E-17
3.170000E+03	2.458324E-17	1.728813E-17
3.180000E+03	2.509129E-17	1.732702E-17
3.190000E+03	2.560282E-17	1.734833E-17
3.200000E+03	2.612420E-17	1.735562E-17
3.210000E+03	2.665179E-17	1.734562E-17
3.220000E+03	2.718527E-17	1.731732E-17
3.230000E+03	2.772422E-17	1.726969E-17
3.240000E+03	2.826824E-17	1.720169E-17
3.250000E+03	2.882056E-17	1.711447E-17
3.260000E+03	2.937711E-17	1.700472E-17
3.270000E+03	2.993735E-17	1.687140E-17
3.280000E+03	3.050072E-17	1.671343E-17
3.290000E+03	3.106660E-17	1.652978E-17
3.300000E+03	3.163833E-17	1.632147E-17
3.310000E+03	3.221135E-17	1.608536E-17
3.320000E+03	3.278492E-17	1.582049E-17
3.330000E+03	3.335827E-17	1.552589E-17
3.340000E+03	3.393058E-17	1.520070E-17
3.350000E+03	3.450530E-17	1.484593E-17
3.360000E+03	3.507300E-17	1.445708E-17
3.370000E+03	3.564139E-17	1.403715E-17
3.380000E+03	3.620522E-17	1.358372E-17
3.390000E+03	3.676799E-17	1.309799E-17
3.400000E+03	3.731973E-17	1.257643E-17
3.410000E+03	3.786844E-17	1.202209E-17
3.420000E+03	3.840387E-17	1.143217E-17
3.430000E+03	3.893893E-17	1.081130E-17
3.440000E+03	3.945852E-17	1.015618E-17
3.450000E+03	3.996619E-17	9.469591E-18
3.460000E+03	4.046569E-17	8.754674E-18
3.470000E+03	4.094629E-17	8.012373E-18
3.480000E+03	4.141663E-17	7.249362E-18
3.490000E+03	4.187084E-17	6.471703E-18
3.500000E+03	4.231293E-17	5.691254E-18
3.510000E+03	4.273199E-17	4.924908E-18
3.520000E+03	4.313720E-17	4.205186E-18
3.530000E+03	4.352279E-17	3.585637E-18
3.540000E+03	4.388810E-17	3.154286E-18
3.550000E+03	4.423260E-17	3.019737E-18
3.560000E+03	4.455598E-17	3.236334E-18
3.570000E+03	4.486350E-17	3.743615E-18
3.580000E+03	4.514513E-17	4.436407E-18
3.590000E+03	4.541169E-17	5.234548E-18
3.600000E+03	4.565858E-17	6.087861E-18
3.610000E+03	4.588655E-17	6.967176E-18
3.620000E+03	4.610163E-17	7.855788E-18
3.630000E+03	4.629432E-17	8.740872E-18
3.640000E+03	4.647611E-17	9.616893E-18
3.650000E+03	4.663763E-17	1.047665E-17
3.660000E+03	4.679051E-17	1.131873E-17
3.670000E+03	4.693075E-17	1.213938E-17
3.680000E+03	4.706484E-17	1.293810E-17
3.690000E+03	4.718366E-17	1.371066E-17
3.700000E+03	4.729898E-17	1.445901E-17
3.710000E+03	4.740178E-17	1.517937E-17
3.720000E+03	4.750385E-17	1.587459E-17
3.730000E+03	4.760140E-17	1.654289E-17
3.740000E+03	4.769586E-17	1.718429E-17
3.750000E+03	4.778866E-17	1.779895E-17
3.760000E+03	4.788641E-17	1.838916E-17
3.770000E+03	4.798022E-17	1.895144E-17
3.780000E+03	4.808183E-17	1.949030E-17
3.790000E+03	4.818753E-17	2.000437E-17
3.800000E+03	4.829362E-17	2.049213E-17
3.810000E+03	4.841178E-17	2.095859E-17
3.820000E+03	4.854341E-17	2.140463E-17
3.830000E+03	4.867969E-17	2.182654E-17
3.840000E+03	4.882714E-17	2.222733E-17
3.850000E+03	4.898715E-17	2.260780E-17
3.860000E+03	4.916620E-17	2.297111E-17
3.870000E+03	4.936056E-17	2.331570E-17
3.880000E+03	4.956648E-17	2.363986E-17
3.890000E+03	4.979556E-17	2.394916E-17
3.900000E+03	5.004401E-17	2.424183E-17
3.910000E+03	5.031318E-17	2.451848E-17
3.920000E+03	5.060441E-17	2.477965E-17
3.930000E+03	5.091900E-17	2.502581E-17
3.940000E+03	5.125828E-17	2.525737E-17
3.950000E+03	5.162354E-17	2.547462E-17
3.960000E+03	5.202128E-17	2.568037E-17
3.970000E+03	5.244237E-17	2.586958E-17
3.980000E+03	5.289854E-17	2.604741E-17
3.990000E+03	5.338051E-17	2.620857E-17
4.000000E+03	5.390009E-17	2.635801E-17
4.010000E+03	5.444785E-17	2.649015E-17
4.020000E+03	5.503565E-17	2.660966E-17
4.030000E+03	5.565933E-17	2.671329E-17
4.040000E+03	5.631451E-17	2.679756E-17
4.050000E+03	5.701317E-17	2.686670E-17
4.060000E+03	5.775090E-17	2.691692E-17
4.070000E+03	5.852301E-17	2.694424E-17
4.080000E+03	5.934163E-17	2.695230E-17
4.090000E+03	6.020196E-17	2.693673E-17
4.100000E+03	6.110475E-17	2.689557E-17
4.110000E+03	6.205061E-17	2.682661E-17
4.120000E+03	6.304006E-17	2.672746E-17
4.130000E+03	6.406741E-17	2.659297E-17
4.140000E+03	6.514494E-17	2.642533E-17
4.150000E+03	6.626674E-17	2.621893E-17
4.160000E+03	6.743274E-17	2.597048E-17
4.170000E+03	6.864263E-17	2.567643E-17
4.180000E+03	6.988942E-17	2.533071E-17
4.190000E+03	7.118529E-17	2.493413E-17
4.200000E+03	7.252287E-17	2.448017E-17
4.210000E+03	7.389413E-17	2.396234E-17
4.220000E+03	7.531105E-17	2.338069E-17
4.230000E+03	7.675813E-17	2.272634E-17
4.240000E+03	7.824717E-17	2.199891E-17
4.250000E+03	7.976159E-17	2.118970E-17
4.260000E+03	8.131303E-17	2.029806E-17
4.270000E+03	8.288378E-17	1.931577E-17
4.280000E+03	8.447766E-17	1.824054E-17
4.290000E+03	8.609092E-17	1.706850E-17
4.300000E+03	8.771949E-17	1.579634E-17
4.310000E+03	8.935897E-17	1.442160E-17
4.320000E+03	9.100470E-17	1.294322E-17
4.330000E+03	9.265177E-17	1.136244E-17
4.340000E+03	9.428671E-17	9.683956E-18
4.350000E+03	9.592076E-17	7.924429E-18
4.360000E+03	9.753174E-17	6.120492E-18
4.370000E+03	9.913123E-17	4.385124E-18
4.380000E+03	1.006966E-16	3.101285E-18
4.390000E+03	1.022312E-16	3.188560E-18
4.400000E+03	1.037303E-16	4.673819E-18
4.410000E+03	1.051902E-16	6.706896E-18
4.420000E+03	1.066070E-16	8.929492E-18
4.430000E+03	1.079683E-16	1.122955E-17
4.440000E+03	1.092897E-16	1.356506E-17
4.450000E+03	1.105497E-16	1.591160E-17
4.460000E+03	1.117555E-16	1.825616E-17
4.470000E+03	1.129049E-16	2.058856E-17
4.480000E+03	1.139964E-16	2.290069E-17
4.490000E+03	1.150187E-16	2.518351E-17
4.500000E+03	1.159903E-16	2.743504E-17
4.510000E+03	1.168906E-16	2.964541E-17
4.520000E+03	1.177291E-16	3.181183E-17
4.530000E+03	1.185054E-16	3.392986E-17
4.540000E+03	1.192195E-16	3.599548E-17
4.550000E+03	1.198718E-16	3.800508E-17
4.560000E+03	1.204528E-16	3.995212E-17
4.570000E+03	1.209732E-16	4.183680E-17
4.580000E+03	1.214341E-16	4.365668E-17
4.590000E+03	1.218369E-16	4.540971E-17
4.600000E+03	1.221729E-16	4.709035E-17
4.610000E+03	1.224639E-16	4.870491E-17
4.620000E+03	1.226919E-16	5.024458E-17
4.630000E+03	1.228689E-16	5.171266E-17
4.640000E+03	1.229972E-16	5.310890E-17
4.650000E+03	1.230693E-16	5.442896E-17
4.660000E+03	1.230978E-16	5.567745E-17
4.670000E+03	1.230954E-16	5.685965E-17
4.680000E+03	1.230350E-16	5.796274E-17
4.690000E+03	1.229495E-16	5.900170E-17
4.700000E+03	1.228219E-16	5.996857E-17
4.710000E+03	1.226654E-16	6.086966E-17
4.720000E+03	1.224830E-16	6.170681E-17
4.730000E+03	1.222779E-16	6.248199E-17
4.740000E+03	1.220434E-16	6.319231E-17
4.750000E+03	1.217927E-16	6.384493E-17
4.760000E+03	1.215287E-16	6.444217E-17
4.770000E+03	1.212546E-16	6.498641E-17
4.780000E+03	1.209638E-16	6.547491E-17
4.790000E+03	1.206785E-16	6.592039E-17
4.800000E+03	1.203730E-16	6.630971E-17
4.810000E+03	1.200786E-16	6.666085E-17
4.820000E+03	1.197791E-16	6.696571E-17
4.830000E+03	1.194865E-16	6.723180E-17
4.840000E+03	1.192034E-16	6.746131E-17
4.850000E+03	1.189319E-16	6.765636E-17
4.860000E+03	1.186650E-16	6.781366E-17
4.870000E+03	1.184140E-16	6.794033E-17
4.880000E+03	1.181809E-16	6.803810E-17
4.890000E+03	1.179581E-16	6.810329E-17
4.900000E+03	1.177656E-16	6.814783E-17
4.910000E+03	1.175864E-16	6.816247E-17
4.920000E+03	1.174220E-16	6.814834E-17
4.930000E+03	1.172915E-16	6.811681E-17
4.940000E+03	1.171777E-16	6.805816E-17
4.950000E+03	1.170815E-16	6.797301E-17
4.960000E+03	1.170214E-16	6.787212E-17
4.970000E+03	1.169800E-16	6.774531E-17
4.980000E+03	1.169665E-16	6.759781E-17
4.990000E+03	1.169810E-16	6.742943E-17
5.000000E+03	1.170146E-16	6.723474E-17
5.010000E+03	1.170762E-16	6.701836E-17
5.020000E+03	1.171653E-16	6.677960E-17
5.030000E+03	1.172816E-16	6.651760E-17
5.040000E+03	1.174156E-16	6.622634E-17
5.050000E+03	1.175754E-16	6.590970E-17
5.060000E+03	1.177603E-16	6.556635E-17
5.070000E+03	1.179604E-16	6.518991E-17
5.080000E+03	1.181835E-16	6.478373E-17
5.090000E+03	1.184282E-16	6.434607E-17
5.100000E+03	1.186934E-16	6.387506E-17
5.110000E+03	1.189685E-16	6.336400E-17
5.120000E+03	1.192610E-16	6.281562E-17
5.130000E+03	1.195690E-16	6.222774E-17
5.140000E+03	1.198820E-16	6.159354E-17
5.150000E+03	1.202156E-16	6.091990E-17
5.160000E+03	1.205412E-16	6.019090E-17
5.170000E+03	1.208834E-16	5.941770E-17
5.180000E+03	1.212220E-16	5.858899E-17
5.190000E+03	1.215636E-16	5.770683E-17
5.200000E+03	1.219058E-16	5.676880E-17
5.210000E+03	1.222461E-16	5.577251E-17
5.220000E+03	1.225729E-16	5.471159E-17
5.230000E+03	1.228924E-16	5.358800E-17
5.240000E+03	1.231930E-16	5.239571E-17
5.250000E+03	1.234899E-16	5.114050E-17
5.260000E+03	1.237622E-16	4.981287E-17
5.270000E+03	1.240162E-16	4.841494E-17
5.280000E+03	1.242397E-16	4.694176E-17
5.290000E+03	1.244483E-16	4.539900E-17
5.300000E+03	1.246208E-16	4.377882E-17
5.310000E+03	1.247543E-16	4.208080E-17
5.320000E+03	1.248644E-16	4.031069E-17
5.330000E+03	1.249300E-16	3.846231E-17
5.340000E+03	1.249578E-16	3.653886E-17
5.350000E+03	1.249451E-16	3.454086E-17
5.360000E+03	1.248806E-16	3.246684E-17
5.370000E+03	1.247711E-16	3.032079E-17
5.380000E+03	1.246147E-16	2.810447E-17
5.390000E+03	1.244095E-16	2.582011E-17
5.400000E+03	1.241451E-16	2.346877E-17
5.410000E+03	1.238291E-16	2.105591E-17
5.420000E+03	1.234608E-16	1.858565E-17
5.430000E+03	1.230395E-16	1.606321E-17
5.440000E+03	1.225561E-16	1.349452E-17
5.450000E+03	1.220199E-16	1.089121E-17
5.460000E+03	1.214314E-16	8.271986E-18
5.470000E+03	1.207918E-16	5.682936E-18
5.480000E+03	1.200941E-16	3.302152E-18
5.490000E+03	1.193493E-16	2.190740E-18
5.500000E+03	1.185602E-16	3.733117E-18
5.510000E+03	1.177308E-16	6.081445E-18
5.520000E+03	1.168571E-16	8.505031E-18
5.530000E+03	1.159610E-16	1.088250E-17
5.540000E+03	1.150309E-16	1.318023E-17
5.550000E+03	1.140721E-16	1.538647E-17
5.560000E+03	1.131066E-16	1.749908E-17
5.570000E+03	1.121234E-16	1.951462E-17
5.580000E+03	1.111363E-16	2.143482E-17
5.590000E+03	1.101504E-16	2.326139E-17
5.600000E+03	1.091709E-16	2.499674E-17
5.610000E+03	1.081950E-16	2.664198E-17
5.620000E+03	1.072354E-16	2.820222E-17
5.630000E+03	1.062966E-16	2.968119E-17
5.640000E+03	1.053827E-16	3.108291E-17
5.650000E+03	1.044978E-16	3.241151E-17
5.660000E+03	1.036381E-16	3.366883E-17
5.670000E+03	1.028144E-16	3.486142E-17
5.680000E+03	1.020297E-16	3.599359E-17
5.690000E+03	1.012868E-16	3.706959E-17
5.700000E+03	1.005810E-16	3.809087E-17
5.710000E+03	9.992865E-17	3.906691E-17
5.720000E+03	9.931739E-17	3.999610E-17
5.730000E+03	9.875593E-17	4.088495E-17
5.740000E+03	9.824558E-17	4.173704E-17
5.750000E+03	9.778036E-17	4.255273E-17
5.760000E+03	9.736816E-17	4.333813E-17
5.770000E+03	9.701650E-17	4.409936E-17
5.780000E+03	9.671185E-17	4.483292E-17
5.790000E+03	9.646136E-17	4.554441E-17
5.800000E+03	9.625817E-17	4.623281E-17
5.810000E+03	9.611592E-17	4.690675E-17
5.820000E+03	9.602055E-17	4.756139E-17
5.830000E+03	9.597853E-17	4.820164E-17
5.840000E+03	9.598932E-17	4.882891E-17
5.850000E+03	9.605230E-17	4.944437E-17
5.860000E+03	9.615985E-17	5.004541E-17
5.870000E+03	9.632493E-17	5.063993E-17
5.880000E+03	9.653292E-17	5.122131E-17
5.890000E+03	9.678979E-17	5.179357E-17
5.900000E+03	9.709458E-17	5.235692E-17
5.910000E+03	9.744632E-17	5.291146E-17
5.920000E+03	9.784403E-17	5.345711E-17
5.930000E+03	9.827966E-17	5.398978E-17
5.940000E+03	9.876625E-17	5.451680E-17
5.950000E+03	9.928868E-17	5.502991E-17
5.960000E+03	9.985297E-17	5.553234E-17
5.970000E+03	1.004581E-16	5.602335E-17
5.980000E+03	1.011032E-16	5.650207E-17
5.990000E+03	1.017798E-16	5.696342E-17
6.000000E+03	1.025015E-16	5.741444E-17
6.010000E+03	1.032528E-16	5.784569E-17
6.020000E+03	1.040474E-16	5.826410E-17
6.030000E+03	1.048694E-16	5.865987E-17
6.040000E+03	1.057252E-16	5.903556E-17
6.050000E+03	1.066136E-16	5.938946E-17
6.060000E+03	1.075260E-16	5.971542E-17
6.070000E+03	1.084764E-16	6.002001E-17
6.080000E+03	1.094482E-16	6.029250E-17
6.090000E+03	1.104555E-16	6.053926E-17
6.100000E+03	1.114812E-16	6.074917E-17
6.110000E+03	1.125316E-16	6.092398E-17
6.120000E+03	1.136048E-16	6.106097E-17
6.130000E+03	1.146991E-16	6.115723E-17
6.140000E+03	1.158123E-16	6.120970E-17
6.150000E+03	1.169423E-16	6.121517E-17
6.160000E+03	1.180780E-16	6.116588E-17
6.170000E+03	1.192337E-16	6.106714E-17
6.180000E+03	1.203894E-16	6.090651E-17
6.190000E+03	1.215592E-16	6.068903E-17
6.200000E+03	1.227223E-16	6.040209E-17
6.210000E+03	1.238837E-16	6.004615E-17
6.220000E+03	1.250394E-16	5.961723E-17
6.230000E+03	1.261854E-16	5.911134E-17
6.240000E+03	1.273171E-16	5.852447E-17
6.250000E+03	1.284300E-16	5.785267E-17
6.260000E+03	1.295098E-16	5.708794E-17
6.270000E+03	1.305701E-16	5.623485E-17
6.280000E+03	1.315867E-16	5.528166E-17
6.290000E+03	1.325731E-16	5.423306E-17
6.300000E+03	1.335047E-16	5.307808E-17
6.310000E+03	1.343853E-16	5.181798E-17
6.320000E+03	1.352188E-16	5.045405E-17
6.330000E+03	1.359799E-16	4.897695E-17
6.340000E+03	1.366725E-16	4.738898E-17
6.350000E+03	1.372909E-16	4.568923E-17
6.360000E+03	1.378294E-16	4.387739E-17
6.370000E+03	1.382723E-16	4.195070E-17
6.380000E+03	1.386345E-16	3.991637E-17
6.390000E+03	1.389009E-16	3.777292E-17
6.400000E+03	1.390666E-16	3.552278E-17
6.410000E+03	1.391172E-16	3.316674E-17
6.420000E+03	1.390690E-16	3.071380E-17
6.430000E+03	1.388983E-16	2.816414E-17
6.440000E+03	1.386123E-16	2.552586E-17
6.450000E+03	1.382186E-16	2.280710E-17
6.460000E+03	1.376956E-16	2.001176E-17
6.470000E+03	1.370524E-16	1.715007E-17
6.480000E+03	1.362888E-16	1.423173E-17
6.490000E+03	1.354055E-16	1.126875E-17
6.500000E+03	1.344139E-16	8.279506E-18
6.510000E+03	1.332968E-16	5.301562E-18
6.520000E+03	1.320674E-16	2.519081E-18
6.530000E+03	1.307206E-16	1.907651E-18
6.540000E+03	1.292816E-16	4.375018E-18
6.550000E+03	1.277483E-16	7.108893E-18
6.560000E+03	1.261290E-16	9.766053E-18
6.570000E+03	1.244327E-16	1.229965E-17
6.580000E+03	1.226594E-16	1.469581E-17
6.590000E+03	1.208367E-16	1.695226E-17
6.600000E+03	1.189564E-16	1.906581E-17
6.610000E+03	1.170455E-16	2.104008E-17
6.620000E+03	1.151043E-16	2.287604E-17
6.630000E+03	1.131335E-16	2.457512E-17
6.640000E+03	1.111504E-16	2.614290E-17
6.650000E+03	1.091713E-16	2.758613E-17
6.660000E+03	1.071878E-16	2.890611E-17
6.670000E+03	1.052231E-16	3.011265E-17
6.680000E+03	1.032684E-16	3.120742E-17
6.690000E+03	1.013379E-16	3.219877E-17
6.700000E+03	9.943721E-17	3.309311E-17
6.710000E+03	9.757166E-17	3.389690E-17
6.720000E+03	9.575299E-17	3.461917E-17
6.730000E+03	9.397108E-17	3.526127E-17
6.740000E+03	9.223684E-17	3.583204E-17
6.750000E+03	9.055348E-17	3.633763E-17
6.760000E+03	8.892375E-17	3.678406E-17
6.770000E+03	8.735002E-17	3.717709E-17
6.780000E+03	8.583421E-17	3.752227E-17
6.790000E+03	8.437791E-17	3.782490E-17
6.800000E+03	8.297618E-17	3.808716E-17
6.810000E+03	8.164236E-17	3.831942E-17
6.820000E+03	8.037081E-17	3.852335E-17
6.830000E+03	7.916187E-17	3.870312E-17
6.840000E+03	7.801567E-17	3.886260E-17
6.850000E+03	7.692637E-17	3.900249E-17
6.860000E+03	7.590517E-17	3.913191E-17
6.870000E+03	7.494578E-17	3.925103E-17
6.880000E+03	7.404202E-17	3.935967E-17
6.890000E+03	7.320419E-17	3.946625E-17
6.900000E+03	7.242576E-17	3.957010E-17
6.910000E+03	7.170032E-17	3.967031E-17
6.920000E+03	7.103746E-17	3.977461E-17
6.930000E+03	7.042525E-17	3.987865E-17
6.940000E+03	6.986769E-17	3.998679E-17
6.950000E+03	6.936853E-17	4.010321E-17
6.960000E+03	6.891584E-17	4.022293E-17
6.970000E+03	6.851329E-17	4.034975E-17
6.980000E+03	6.816435E-17	4.048737E-17
6.990000E+03	6.785710E-17	4.063022E-17
7.000000E+03	6.759495E-17	4.078166E-17
7.010000E+03	6.737612E-17	4.094189E-17
7.020000E+03	6.720387E-17	4.111407E-17
7.030000E+03	6.706621E-17	4.129196E-17
7.040000E+03	6.696634E-17	4.147847E-17
7.050000E+03	6.690235E-17	4.167329E-17
7.060000E+03	6.687231E-17	4.187604E-17
7.070000E+03	6.687425E-17	4.208623E-17
7.080000E+03	6.690621E-17	4.230327E-17
7.090000E+03	6.696114E-17	4.252328E-17
7.100000E+03	6.704714E-17	4.275195E-17
7.110000E+03	6.715718E-17	4.298528E-17
7.120000E+03	6.728924E-17	4.322241E-17
7.130000E+03	6.743621E-17	4.345913E-17
7.140000E+03	6.760632E-17	4.370107E-17
7.150000E+03	6.779250E-17	4.394394E-17
7.160000E+03	6.798765E-17	4.418338E-17
7.170000E+03	6.820017E-17	4.442506E-17
7.180000E+03	6.841783E-17	4.466117E-17
7.190000E+03	6.864921E-17	4.489745E-17
7.200000E+03	6.888211E-17	4.512604E-17
7.210000E+03	6.912003E-17	4.534930E-17
7.220000E+03	6.936135E-17	4.556622E-17
7.230000E+03	6.960986E-17	4.577932E-17
7.240000E+03	6.985348E-17	4.598069E-17
7.250000E+03	7.009618E-17	4.617292E-17
7.260000E+03	7.033672E-17	4.635516E-17
7.270000E+03	7.057400E-17	4.652663E-17
7.280000E+03	7.080703E-17	4.668664E-17
7.290000E+03	7.103497E-17	4.683453E-17
7.300000E+03	7.125165E-17	4.696615E-17
7.310000E+03	7.146743E-17	4.708824E-17
7.320000E+03	7.167647E-17	4.719680E-17
7.330000E+03	7.187300E-17	4.728790E-17
7.340000E+03	7.206797E-17	4.736861E-17
7.350000E+03	7.225039E-17	4.743152E-17
7.360000E+03	7.243162E-17	4.748392E-17
7.370000E+03	7.260090E-17	4.751855E-17
7.380000E+03	7.276435E-17	4.753922E-17
7.390000E+03	7.292267E-17	4.754615E-17
7.400000E+03	7.307672E-17	4.753965E-17
7.410000E+03	7.322747E-17	4.752007E-17
7.420000E+03	7.337603E-17	4.748784E-17
7.430000E+03	7.352362E-17	4.744343E-17
7.440000E+03	7.367156E-17	4.738734E-17
7.450000E+03	7.382126E-17	4.732010E-17
7.460000E+03	7.396845E-17	4.723857E-17
7.470000E+03	7.412618E-17	4.715066E-17
7.480000E+03	7.428450E-17	4.704954E-17
7.490000E+03	7.445078E-17	4.693940E-17
7.500000E+03	7.463249E-17	4.682434E-17
7.510000E+03	7.481960E-17	4.669747E-17
7.520000E+03	7.501951E-17	4.656276E-17
7.530000E+03	7.523381E-17	4.642049E-17
7.540000E+03	7.546398E-17	4.627081E-17
7.550000E+03	7.571146E-17	4.611377E-17
7.560000E+03	7.597162E-17	4.594570E-17
7.570000E+03	7.625762E-17	4.577361E-17
7.580000E+03	7.656463E-17	4.559356E-17
7.590000E+03	7.688758E-17	4.540145E-17
7.600000E+03	7.723331E-17	4.520025E-17
7.610000E+03	7.760860E-17	4.499267E-17
7.620000E+03	7.800175E-17	4.477059E-17
7.630000E+03	7.841914E-17	4.453642E-17
7.640000E+03	7.886089E-17	4.428877E-17
7.650000E+03	7.932689E-17	4.402611E-17
7.660000E+03	7.981050E-17	4.374324E-17
7.670000E+03	8.032377E-17	4.344520E-17
7.680000E+03	8.085321E-17	4.312299E-17
7.690000E+03	8.141060E-17	4.278122E-17
7.700000E+03	8.198172E-17	4.241064E-17
7.710000E+03	8.257149E-17	4.201211E-17
7.720000E+03	8.317810E-17	4.158292E-17
7.730000E+03	8.379951E-17	4.112025E-17
7.740000E+03	8.443342E-17	4.062116E-17
7.750000E+03	8.507727E-17	4.008266E-17
7.760000E+03	8.572829E-17	3.950168E-17
