#wls	flux	fluxerr
1.600000E+03	2.558442E-18	3.116063E-18
1.640000E+03	2.569907E-18	3.128708E-18
1.680000E+03	2.583407E-18	3.143689E-18
1.720000E+03	2.599607E-18	3.161793E-18
1.760000E+03	2.618267E-18	3.182699E-18
1.800000E+03	2.588164E-18	3.144148E-18
1.840000E+03	2.611998E-18	3.170909E-18
1.880000E+03	2.690983E-18	3.264284E-18
1.920000E+03	2.722521E-18	3.299707E-18
1.960000E+03	2.757432E-18	3.338813E-18
2.000000E+03	2.796549E-18	3.382540E-18
2.040000E+03	2.840762E-18	3.431877E-18
2.080000E+03	2.890008E-18	3.486645E-18
2.120000E+03	2.944752E-18	3.547286E-18
2.160000E+03	3.005505E-18	3.614273E-18
2.200000E+03	3.072828E-18	3.688115E-18
2.240000E+03	3.147340E-18	3.769357E-18
2.280000E+03	3.229725E-18	3.858582E-18
2.320000E+03	3.321320E-18	3.957113E-18
2.360000E+03	3.422409E-18	4.064955E-18
2.400000E+03	3.463230E-18	4.099151E-18
2.440000E+03	3.656888E-18	4.311475E-18
2.480000E+03	3.792453E-18	4.451717E-18
2.520000E+03	3.941887E-18	4.604394E-18
2.560000E+03	4.107323E-18	4.771228E-18
2.600000E+03	4.288924E-18	4.951500E-18
2.640000E+03	4.489914E-18	5.147866E-18
2.680000E+03	4.711528E-18	5.360464E-18
2.720000E+03	4.955939E-18	5.590276E-18
2.760000E+03	5.225562E-18	5.838271E-18
2.800000E+03	5.523076E-18	6.105386E-18
2.840000E+03	5.852473E-18	6.393608E-18
2.880000E+03	6.215074E-18	6.701560E-18
2.920000E+03	6.616627E-18	7.032188E-18
2.960000E+03	6.914277E-18	7.232311E-18
3.000000E+03	7.548795E-18	7.758665E-18
3.010000E+03	7.679074E-18	7.855939E-18
3.020000E+03	7.812637E-18	7.954616E-18
3.030000E+03	7.949566E-18	8.054694E-18
3.040000E+03	8.089945E-18	8.156169E-18
3.050000E+03	8.233861E-18	8.259035E-18
3.060000E+03	8.381401E-18	8.363286E-18
3.070000E+03	8.532656E-18	8.468914E-18
3.080000E+03	8.689213E-18	8.577387E-18
3.090000E+03	8.848201E-18	8.685758E-18
3.100000E+03	9.011185E-18	8.795474E-18
3.110000E+03	9.178262E-18	8.906521E-18
3.120000E+03	9.349533E-18	9.018885E-18
3.130000E+03	9.525098E-18	9.132548E-18
3.140000E+03	9.705062E-18	9.247491E-18
3.150000E+03	9.889529E-18	9.363696E-18
3.160000E+03	1.007861E-17	9.481139E-18
3.170000E+03	1.027241E-17	9.599798E-18
3.180000E+03	1.047104E-17	9.719647E-18
3.190000E+03	1.045061E-17	9.634161E-18
3.200000E+03	1.088511E-17	9.964510E-18
3.210000E+03	1.109896E-17	1.008778E-17
3.220000E+03	1.131810E-17	1.021211E-17
3.230000E+03	1.154266E-17	1.033748E-17
3.240000E+03	1.152577E-17	1.024431E-17
3.250000E+03	1.200852E-17	1.059115E-17
3.260000E+03	1.225008E-17	1.071937E-17
3.270000E+03	1.249968E-17	1.085031E-17
3.280000E+03	1.275324E-17	1.098024E-17
3.290000E+03	1.301298E-17	1.111092E-17
3.300000E+03	1.327902E-17	1.124230E-17
3.310000E+03	1.355150E-17	1.137433E-17
3.320000E+03	1.383056E-17	1.150694E-17
3.330000E+03	1.411874E-17	1.164205E-17
3.340000E+03	1.441141E-17	1.177562E-17
3.350000E+03	1.471106E-17	1.190956E-17
3.360000E+03	1.501783E-17	1.204376E-17
3.370000E+03	1.533186E-17	1.217814E-17
3.380000E+03	1.565595E-17	1.231469E-17
3.390000E+03	1.598496E-17	1.244914E-17
3.400000E+03	1.632164E-17	1.258344E-17
3.410000E+03	1.666612E-17	1.271746E-17
3.420000E+03	1.701853E-17	1.285108E-17
3.430000E+03	1.738198E-17	1.298635E-17
3.440000E+03	1.775072E-17	1.311871E-17
3.450000E+03	1.812780E-17	1.325019E-17
3.460000E+03	1.851333E-17	1.338059E-17
3.470000E+03	1.891064E-17	1.351200E-17
3.480000E+03	1.931349E-17	1.363964E-17
3.490000E+03	1.972514E-17	1.376556E-17
3.500000E+03	2.014569E-17	1.388948E-17
3.510000E+03	2.057874E-17	1.401352E-17
3.520000E+03	2.101746E-17	1.413266E-17
3.530000E+03	2.146535E-17	1.424892E-17
3.540000E+03	2.192249E-17	1.436199E-17
3.550000E+03	2.239273E-17	1.447394E-17
3.560000E+03	2.286861E-17	1.457952E-17
3.570000E+03	2.335388E-17	1.468076E-17
3.580000E+03	2.385259E-17	1.477972E-17
3.590000E+03	2.435676E-17	1.487097E-17
3.600000E+03	2.487034E-17	1.495652E-17
3.610000E+03	2.539327E-17	1.503588E-17
3.620000E+03	2.592989E-17	1.511108E-17
3.630000E+03	2.647144E-17	1.517650E-17
3.640000E+03	2.702210E-17	1.523412E-17
3.650000E+03	2.758174E-17	1.528338E-17
3.660000E+03	2.815492E-17	1.532628E-17
3.670000E+03	2.873206E-17	1.535709E-17
3.680000E+03	2.931756E-17	1.537778E-17
3.690000E+03	2.991618E-17	1.539039E-17
3.700000E+03	3.051762E-17	1.538914E-17
3.710000E+03	3.112645E-17	1.537608E-17
3.720000E+03	3.174225E-17	1.535067E-17
3.730000E+03	3.236998E-17	1.531501E-17
3.740000E+03	3.299834E-17	1.526348E-17
3.750000E+03	3.363207E-17	1.519827E-17
3.760000E+03	3.427627E-17	1.512162E-17
3.770000E+03	3.491882E-17	1.502819E-17
3.780000E+03	3.556456E-17	1.492040E-17
3.790000E+03	3.621261E-17	1.479825E-17
3.800000E+03	3.686819E-17	1.466430E-17
3.810000E+03	3.751800E-17	1.451390E-17
3.820000E+03	3.816696E-17	1.434998E-17
3.830000E+03	3.882033E-17	1.417553E-17
3.840000E+03	3.946385E-17	1.398662E-17
3.850000E+03	4.010245E-17	1.378671E-17
3.860000E+03	4.073452E-17	1.357708E-17
3.870000E+03	4.136525E-17	1.336149E-17
3.880000E+03	4.197900E-17	1.313717E-17
3.890000E+03	4.258053E-17	1.290830E-17
3.900000E+03	4.317478E-17	1.267913E-17
3.910000E+03	4.374495E-17	1.244758E-17
3.920000E+03	4.429541E-17	1.221806E-17
3.930000E+03	4.482314E-17	1.199276E-17
3.940000E+03	4.533237E-17	1.177567E-17
3.950000E+03	4.580438E-17	1.156455E-17
3.960000E+03	4.624261E-17	1.136269E-17
3.970000E+03	4.664274E-17	1.117090E-17
3.980000E+03	4.700799E-17	1.099119E-17
3.990000E+03	4.731807E-17	1.081945E-17
4.000000E+03	4.757613E-17	1.065652E-17
4.010000E+03	4.777793E-17	1.050089E-17
4.020000E+03	4.792784E-17	1.035241E-17
4.030000E+03	4.800739E-17	1.020553E-17
4.040000E+03	4.802334E-17	1.005992E-17
4.050000E+03	4.797615E-17	9.913662E-18
4.060000E+03	4.787611E-17	9.766752E-18
4.070000E+03	4.771155E-17	9.614712E-18
4.080000E+03	4.749655E-17	9.458431E-18
4.090000E+03	4.723885E-17	9.297612E-18
4.100000E+03	4.694752E-17	9.132372E-18
4.110000E+03	4.664025E-17	8.964652E-18
4.120000E+03	4.631201E-17	8.792145E-18
4.130000E+03	4.598115E-17	8.617186E-18
4.140000E+03	4.565800E-17	8.440604E-18
4.150000E+03	4.535232E-17	8.263129E-18
4.160000E+03	4.508055E-17	8.086631E-18
4.170000E+03	4.483577E-17	7.908655E-18
4.180000E+03	4.463241E-17	7.730466E-18
4.190000E+03	4.447630E-17	7.551568E-18
4.200000E+03	4.437210E-17	7.371047E-18
4.210000E+03	4.432336E-17	7.187569E-18
4.220000E+03	4.433254E-17	6.999401E-18
4.230000E+03	4.440845E-17	6.805572E-18
4.240000E+03	4.453700E-17	6.601404E-18
4.250000E+03	4.472519E-17	6.385423E-18
4.260000E+03	4.497192E-17	6.154850E-18
4.270000E+03	4.527533E-17	5.906861E-18
4.280000E+03	4.563281E-17	5.638714E-18
4.290000E+03	4.604105E-17	5.347914E-18
4.300000E+03	4.649604E-17	5.032439E-18
4.310000E+03	4.699314E-17	4.691087E-18
4.320000E+03	4.753491E-17	4.324735E-18
4.330000E+03	4.810012E-17	3.934349E-18
4.340000E+03	4.869057E-17	3.527057E-18
4.350000E+03	4.930038E-17	3.116043E-18
4.360000E+03	4.992412E-17	2.726583E-18
4.370000E+03	5.055732E-17	2.404132E-18
4.380000E+03	5.119689E-17	2.219498E-18
4.390000E+03	5.184166E-17	2.247477E-18
4.400000E+03	5.249357E-17	2.493522E-18
4.410000E+03	5.315757E-17	2.892653E-18
4.420000E+03	5.384015E-17	3.379650E-18
4.430000E+03	5.454860E-17	3.911226E-18
4.440000E+03	5.529019E-17	4.462429E-18
4.450000E+03	5.607127E-17	5.019442E-18
4.460000E+03	5.689650E-17	5.574655E-18
4.470000E+03	5.776816E-17	6.123806E-18
4.480000E+03	5.868554E-17	6.664328E-18
4.490000E+03	5.964451E-17	7.194383E-18
4.500000E+03	6.062730E-17	7.711012E-18
4.510000E+03	6.164176E-17	8.214762E-18
4.520000E+03	6.266246E-17	8.702190E-18
4.530000E+03	6.367003E-17	9.170592E-18
4.540000E+03	6.464193E-17	9.616857E-18
4.550000E+03	6.555323E-17	1.003756E-17
4.560000E+03	6.637773E-17	1.042910E-17
4.570000E+03	6.708933E-17	1.078795E-17
4.580000E+03	6.766364E-17	1.111083E-17
4.590000E+03	6.806856E-17	1.139314E-17
4.600000E+03	6.831020E-17	1.163657E-17
4.610000E+03	6.836769E-17	1.183824E-17
4.620000E+03	6.823813E-17	1.199810E-17
4.630000E+03	6.792571E-17	1.211719E-17
4.640000E+03	6.743024E-17	1.219548E-17
4.650000E+03	6.679016E-17	1.223976E-17
4.660000E+03	6.601500E-17	1.225145E-17
4.670000E+03	6.512802E-17	1.223435E-17
4.680000E+03	6.414330E-17	1.219047E-17
4.690000E+03	6.310630E-17	1.212778E-17
4.700000E+03	6.202971E-17	1.204820E-17
4.710000E+03	6.093491E-17	1.195543E-17
4.720000E+03	5.983112E-17	1.185099E-17
4.730000E+03	5.875416E-17	1.174189E-17
4.740000E+03	5.770753E-17	1.162902E-17
4.750000E+03	5.669274E-17	1.151302E-17
4.760000E+03	5.573658E-17	1.139983E-17
4.770000E+03	5.483584E-17	1.128947E-17
4.780000E+03	5.398612E-17	1.118177E-17
4.790000E+03	5.320802E-17	1.108178E-17
4.800000E+03	5.249447E-17	1.098884E-17
4.810000E+03	5.183796E-17	1.090216E-17
4.820000E+03	5.125548E-17	1.082601E-17
4.830000E+03	5.072969E-17	1.075738E-17
4.840000E+03	5.027582E-17	1.069999E-17
4.850000E+03	4.988373E-17	1.065208E-17
4.860000E+03	4.954302E-17	1.061166E-17
4.870000E+03	4.926696E-17	1.058163E-17
4.880000E+03	4.787347E-17	1.030746E-17
4.890000E+03	4.886390E-17	1.054287E-17
4.900000E+03	4.873006E-17	1.053228E-17
4.910000E+03	4.748591E-17	1.027715E-17
4.920000E+03	4.859594E-17	1.052702E-17
4.930000E+03	4.858888E-17	1.053037E-17
4.940000E+03	4.860720E-17	1.053426E-17
4.950000E+03	4.865604E-17	1.053964E-17
4.960000E+03	4.874092E-17	1.054762E-17
4.970000E+03	4.884417E-17	1.055435E-17
4.980000E+03	4.897996E-17	1.056296E-17
4.990000E+03	4.913136E-17	1.056992E-17
5.000000E+03	4.930544E-17	1.057697E-17
5.010000E+03	4.950981E-17	1.058603E-17
5.020000E+03	4.972865E-17	1.059403E-17
5.030000E+03	4.997058E-17	1.060318E-17
5.040000E+03	5.024508E-17	1.061582E-17
5.050000E+03	5.053818E-17	1.062927E-17
5.060000E+03	5.086097E-17	1.064606E-17
5.070000E+03	5.122562E-17	1.066876E-17
5.080000E+03	5.162025E-17	1.069473E-17
5.090000E+03	5.205803E-17	1.072637E-17
5.100000E+03	5.254384E-17	1.076412E-17
5.110000E+03	5.309044E-17	1.080982E-17
5.120000E+03	5.368375E-17	1.085964E-17
5.130000E+03	5.433310E-17	1.091443E-17
5.140000E+03	5.503675E-17	1.097270E-17
5.150000E+03	5.579879E-17	1.103410E-17
5.160000E+03	5.659312E-17	1.109237E-17
5.170000E+03	5.741687E-17	1.114599E-17
5.180000E+03	5.825511E-17	1.119123E-17
5.190000E+03	5.909022E-17	1.122404E-17
5.200000E+03	5.990259E-17	1.124020E-17
5.210000E+03	6.067155E-17	1.123554E-17
5.220000E+03	6.137632E-17	1.120609E-17
5.230000E+03	6.200694E-17	1.115009E-17
5.240000E+03	6.252552E-17	1.106101E-17
5.250000E+03	6.292653E-17	1.093844E-17
5.260000E+03	6.319795E-17	1.078104E-17
5.270000E+03	6.333173E-17	1.058840E-17
5.280000E+03	6.332413E-17	1.036104E-17
5.290000E+03	6.317590E-17	1.010033E-17
5.300000E+03	6.289217E-17	9.808364E-18
5.310000E+03	6.248217E-17	9.487760E-18
5.320000E+03	6.195852E-17	9.141406E-18
5.330000E+03	6.133644E-17	8.772198E-18
5.340000E+03	6.063265E-17	8.382778E-18
5.350000E+03	5.986433E-17	7.975327E-18
5.360000E+03	5.904809E-17	7.551418E-18
5.370000E+03	5.818974E-17	7.110830E-18
5.380000E+03	5.732117E-17	6.656224E-18
5.390000E+03	5.644349E-17	6.186232E-18
5.400000E+03	5.556465E-17	5.700472E-18
5.410000E+03	5.468986E-17	5.198665E-18
5.420000E+03	5.382172E-17	4.681114E-18
5.430000E+03	5.296041E-17	4.149390E-18
5.440000E+03	5.209561E-17	3.606868E-18
5.450000E+03	5.124037E-17	3.063163E-18
5.460000E+03	5.038109E-17	2.534542E-18
5.470000E+03	4.951182E-17	2.055445E-18
5.480000E+03	4.862639E-17	1.694196E-18
5.490000E+03	4.771129E-17	1.556824E-18
5.500000E+03	4.677895E-17	1.693848E-18
5.510000E+03	4.582558E-17	2.006536E-18
5.520000E+03	4.485642E-17	2.386232E-18
5.530000E+03	4.386971E-17	2.772720E-18
5.540000E+03	4.288473E-17	3.139301E-18
5.550000E+03	4.189926E-17	3.473574E-18
5.560000E+03	4.091165E-17	3.770342E-18
5.570000E+03	3.994016E-17	4.029978E-18
5.580000E+03	3.898340E-17	4.253245E-18
5.590000E+03	3.804109E-17	4.441983E-18
5.600000E+03	3.713185E-17	4.600873E-18
5.610000E+03	3.625048E-17	4.732199E-18
5.620000E+03	3.541593E-17	4.841405E-18
5.630000E+03	3.462976E-17	4.931792E-18
5.640000E+03	3.389414E-17	5.006586E-18
5.650000E+03	3.322754E-17	5.071318E-18
5.660000E+03	3.262655E-17	5.128194E-18
5.670000E+03	3.210876E-17	5.182496E-18
5.680000E+03	3.167058E-17	5.236051E-18
5.690000E+03	3.132859E-17	5.293809E-18
5.700000E+03	3.107882E-17	5.357183E-18
5.710000E+03	3.093694E-17	5.430769E-18
5.720000E+03	3.089835E-17	5.515542E-18
5.730000E+03	3.097779E-17	5.615728E-18
5.740000E+03	3.116962E-17	5.731790E-18
5.750000E+03	3.148725E-17	5.867493E-18
5.760000E+03	3.192312E-17	6.022599E-18
5.770000E+03	3.248844E-17	6.200187E-18
5.780000E+03	3.317225E-17	6.398957E-18
5.790000E+03	3.397664E-17	6.619856E-18
5.800000E+03	3.490135E-17	6.863186E-18
5.810000E+03	3.592617E-17	7.125096E-18
5.820000E+03	3.704924E-17	7.405117E-18
5.830000E+03	3.824136E-17	7.697160E-18
5.840000E+03	3.948602E-17	7.997517E-18
5.850000E+03	4.076283E-17	8.301658E-18
5.860000E+03	4.202786E-17	8.600273E-18
5.870000E+03	4.325283E-17	8.887308E-18
5.880000E+03	4.440820E-17	9.156605E-18
5.890000E+03	4.544305E-17	9.397788E-18
5.900000E+03	4.632926E-17	9.605351E-18
5.910000E+03	4.703609E-17	9.773405E-18
5.920000E+03	4.754690E-17	9.899087E-18
5.930000E+03	4.783072E-17	9.976575E-18
5.940000E+03	4.788882E-17	1.000669E-17
5.950000E+03	4.772498E-17	9.990637E-18
5.960000E+03	4.736005E-17	9.933037E-18
5.970000E+03	4.680051E-17	9.835274E-18
5.980000E+03	4.608219E-17	9.704692E-18
5.990000E+03	4.523784E-17	9.547825E-18
6.000000E+03	4.430263E-17	9.371597E-18
6.010000E+03	4.331229E-17	9.182981E-18
6.020000E+03	4.127491E-17	8.770570E-18
6.030000E+03	4.130962E-17	8.796526E-18
6.040000E+03	4.035299E-17	8.609310E-18
6.050000E+03	3.850729E-17	8.228955E-18
6.060000E+03	3.866934E-17	8.273960E-18
6.070000E+03	3.798647E-17	8.134199E-18
6.080000E+03	3.743464E-17	8.017706E-18
6.090000E+03	3.703010E-17	7.927418E-18
6.100000E+03	3.678784E-17	7.865961E-18
6.110000E+03	3.672225E-17	7.835770E-18
6.120000E+03	3.685365E-17	7.840458E-18
6.130000E+03	3.718546E-17	7.879936E-18
6.140000E+03	3.773999E-17	7.957981E-18
6.150000E+03	3.853548E-17	8.077312E-18
6.160000E+03	3.959236E-17	8.240864E-18
6.170000E+03	4.093349E-17	8.451764E-18
6.180000E+03	4.258405E-17	8.713250E-18
6.190000E+03	4.457111E-17	9.028494E-18
6.200000E+03	4.692259E-17	9.400334E-18
6.210000E+03	4.966553E-17	9.830863E-18
6.220000E+03	5.282335E-17	1.032087E-17
6.230000E+03	5.640305E-17	1.086740E-17
6.240000E+03	6.042542E-17	1.146969E-17
6.250000E+03	6.486676E-17	1.211811E-17
6.260000E+03	6.968605E-17	1.279986E-17
6.270000E+03	7.480965E-17	1.349651E-17
6.280000E+03	8.012573E-17	1.418361E-17
6.290000E+03	8.548193E-17	1.483102E-17
6.300000E+03	9.068799E-17	1.540412E-17
6.310000E+03	9.552498E-17	1.586612E-17
6.320000E+03	9.976156E-17	1.618139E-17
6.330000E+03	1.031595E-16	1.631669E-17
6.340000E+03	1.055639E-16	1.625552E-17
6.350000E+03	1.068288E-16	1.598553E-17
6.360000E+03	1.068979E-16	1.551045E-17
6.370000E+03	1.057956E-16	1.484708E-17
6.380000E+03	1.036215E-16	1.402312E-17
6.390000E+03	1.005201E-16	1.307147E-17
6.400000E+03	9.672437E-17	1.203461E-17
6.410000E+03	9.243431E-17	1.094759E-17
6.420000E+03	8.786178E-17	9.843663E-18
6.430000E+03	8.318414E-17	8.748553E-18
6.440000E+03	7.858758E-17	7.685326E-18
6.450000E+03	7.418070E-17	6.665614E-18
6.460000E+03	7.004987E-17	5.696626E-18
6.470000E+03	6.623815E-17	4.780301E-18
6.480000E+03	6.279337E-17	3.918499E-18
6.490000E+03	5.970911E-17	3.110915E-18
6.500000E+03	5.697469E-17	2.364016E-18
6.510000E+03	5.456066E-17	1.704078E-18
6.520000E+03	5.245841E-17	1.221424E-18
6.530000E+03	5.063031E-17	1.118541E-18
6.540000E+03	4.903547E-17	1.413047E-18
6.550000E+03	4.765231E-17	1.855114E-18
6.560000E+03	4.643857E-17	2.313833E-18
6.570000E+03	4.535654E-17	2.748857E-18
6.580000E+03	4.439375E-17	3.149535E-18
6.590000E+03	4.351874E-17	3.512872E-18
6.600000E+03	4.270337E-17	3.838618E-18
6.610000E+03	4.194258E-17	4.129362E-18
6.620000E+03	4.120644E-17	4.385599E-18
6.630000E+03	4.049418E-17	4.610538E-18
6.640000E+03	3.978739E-17	4.805368E-18
6.650000E+03	3.907047E-17	4.971123E-18
6.660000E+03	3.834890E-17	5.111177E-18
6.670000E+03	3.760549E-17	5.225730E-18
6.680000E+03	3.684956E-17	5.318231E-18
6.690000E+03	3.606835E-17	5.388797E-18
6.700000E+03	3.527430E-17	5.440932E-18
6.710000E+03	3.446376E-17	5.475573E-18
6.720000E+03	3.363480E-17	5.493617E-18
6.730000E+03	3.280270E-17	5.498584E-18
6.740000E+03	3.196203E-17	5.490471E-18
6.750000E+03	3.112889E-17	5.472769E-18
6.760000E+03	3.029937E-17	5.445442E-18
6.770000E+03	2.948968E-17	5.411922E-18
6.780000E+03	2.869674E-17	5.372129E-18
6.790000E+03	2.793622E-17	5.329393E-18
6.800000E+03	2.720517E-17	5.283551E-18
6.810000E+03	2.651813E-17	5.237772E-18
6.820000E+03	2.587167E-17	5.191766E-18
6.830000E+03	2.527467E-17	5.147675E-18
6.840000E+03	2.473498E-17	5.107520E-18
6.850000E+03	2.424781E-17	5.070768E-18
6.860000E+03	2.382359E-17	5.040059E-18
6.870000E+03	2.345661E-17	5.014697E-18
6.880000E+03	2.315587E-17	4.997123E-18
6.890000E+03	2.291486E-17	4.986487E-18
6.900000E+03	2.273783E-17	4.984261E-18
6.910000E+03	2.262854E-17	4.991840E-18
6.920000E+03	2.257951E-17	5.008156E-18
6.930000E+03	2.259748E-17	5.035269E-18
6.940000E+03	2.267442E-17	5.071968E-18
6.950000E+03	2.281288E-17	5.119389E-18
6.960000E+03	2.301521E-17	5.178634E-18
6.970000E+03	2.327252E-17	5.248275E-18
6.980000E+03	2.358666E-17	5.329289E-18
6.990000E+03	2.395951E-17	5.422647E-18
7.000000E+03	2.438136E-17	5.526674E-18
7.010000E+03	2.485386E-17	5.642215E-18
7.020000E+03	2.537906E-17	5.770146E-18
7.030000E+03	2.594718E-17	5.908573E-18
7.040000E+03	2.656091E-17	6.058345E-18
7.050000E+03	2.722399E-17	6.220464E-18
7.060000E+03	2.792808E-17	6.393082E-18
7.070000E+03	2.867881E-17	6.577465E-18
7.080000E+03	2.947880E-17	6.774148E-18
7.090000E+03	3.033701E-17	6.985088E-18
7.100000E+03	3.124950E-17	7.209274E-18
7.110000E+03	3.222830E-17	7.449374E-18
7.120000E+03	3.328233E-17	7.707378E-18
7.130000E+03	3.442765E-17	7.986959E-18
7.140000E+03	3.566546E-17	8.288371E-18
7.150000E+03	3.701440E-17	8.615936E-18
7.160000E+03	3.848885E-17	8.972981E-18
7.170000E+03	4.010386E-17	9.362974E-18
7.180000E+03	4.188141E-17	9.790953E-18
7.190000E+03	4.382318E-17	1.025716E-17
7.200000E+03	4.594919E-17	1.076602E-17
7.210000E+03	4.827068E-17	1.131984E-17
7.220000E+03	5.079515E-17	1.191994E-17
7.230000E+03	5.353329E-17	1.256833E-17
7.240000E+03	5.646296E-17	1.325927E-17
7.250000E+03	5.957711E-17	1.399057E-17
7.260000E+03	6.284830E-17	1.475526E-17
7.270000E+03	6.623453E-17	1.554310E-17
7.280000E+03	6.967747E-17	1.634018E-17
7.290000E+03	7.310166E-17	1.712876E-17
7.300000E+03	7.641524E-17	1.788755E-17
7.310000E+03	7.952559E-17	1.859534E-17
7.320000E+03	8.229365E-17	1.922031E-17
7.330000E+03	8.461658E-17	1.973932E-17
7.340000E+03	8.638707E-17	2.012833E-17
7.350000E+03	8.751517E-17	2.036740E-17
7.360000E+03	8.793715E-17	2.044267E-17
7.370000E+03	8.762208E-17	2.034773E-17
7.380000E+03	8.657505E-17	2.008442E-17
7.390000E+03	8.483646E-17	1.966252E-17
7.400000E+03	8.247761E-17	1.909881E-17
7.410000E+03	7.959340E-17	1.841533E-17
7.420000E+03	7.629347E-17	1.763746E-17
7.430000E+03	7.269311E-17	1.679179E-17
7.440000E+03	6.890514E-17	1.590430E-17
7.450000E+03	6.503353E-17	1.499895E-17
7.460000E+03	6.116907E-17	1.409663E-17
7.470000E+03	5.738700E-17	1.321464E-17
7.480000E+03	5.374645E-17	1.236653E-17
7.490000E+03	5.029108E-17	1.156225E-17
7.500000E+03	4.705066E-17	1.080851E-17
7.510000E+03	4.404310E-17	1.010920E-17
7.520000E+03	4.127664E-17	9.465929E-18
7.530000E+03	3.875199E-17	8.878537E-18
7.540000E+03	3.646437E-17	8.345542E-18
7.550000E+03	3.440508E-17	7.864554E-18
7.560000E+03	3.256299E-17	7.432617E-18
7.570000E+03	3.092557E-17	7.046471E-18
7.580000E+03	2.947970E-17	6.702758E-18
7.590000E+03	2.821225E-17	6.398156E-18
7.600000E+03	2.711043E-17	6.129469E-18
7.610000E+03	2.616204E-17	5.893677E-18
7.620000E+03	2.535144E-17	5.687031E-18
7.630000E+03	2.467611E-17	5.508758E-18
7.640000E+03	2.412169E-17	5.355449E-18
7.650000E+03	2.367869E-17	5.224805E-18
7.660000E+03	2.333823E-17	5.114668E-18
7.670000E+03	2.254436E-17	4.903893E-18
7.680000E+03	2.293198E-17	4.947901E-18
7.690000E+03	2.285091E-17	4.887529E-18
7.700000E+03	2.283803E-17	4.839379E-18
7.710000E+03	2.289412E-17	4.803379E-18
7.720000E+03	2.300928E-17	4.777177E-18
7.730000E+03	2.317772E-17	4.759290E-18
7.740000E+03	2.339405E-17	4.748311E-18
7.750000E+03	2.364948E-17	4.742136E-18
7.760000E+03	2.394712E-17	4.741025E-18
