#wls	flux	fluxerr
1.600000E+03	1.456644E-18	1.779431E-18
1.640000E+03	1.465268E-18	1.789585E-18
1.680000E+03	1.474851E-18	1.800859E-18
1.720000E+03	1.485472E-18	1.813344E-18
1.760000E+03	1.497222E-18	1.827139E-18
1.800000E+03	1.510195E-18	1.842350E-18
1.840000E+03	1.524494E-18	1.859089E-18
1.880000E+03	1.540230E-18	1.877478E-18
1.920000E+03	1.557522E-18	1.897647E-18
1.960000E+03	1.576503E-18	1.919738E-18
2.000000E+03	1.597313E-18	1.943900E-18
2.040000E+03	1.620107E-18	1.970297E-18
2.080000E+03	1.645053E-18	1.999103E-18
2.120000E+03	1.672334E-18	2.030507E-18
2.160000E+03	1.702151E-18	2.064715E-18
2.200000E+03	1.734724E-18	2.101946E-18
2.240000E+03	1.770294E-18	2.142441E-18
2.280000E+03	1.809127E-18	2.186458E-18
2.320000E+03	1.851848E-18	2.234682E-18
2.360000E+03	1.898120E-18	2.286622E-18
2.400000E+03	1.948625E-18	2.343005E-18
2.440000E+03	2.003758E-18	2.404191E-18
2.480000E+03	2.064326E-18	2.471015E-18
2.520000E+03	2.130084E-18	2.543030E-18
2.560000E+03	2.201930E-18	2.621132E-18
2.600000E+03	2.280875E-18	2.706310E-18
2.640000E+03	2.366783E-18	2.798158E-18
2.680000E+03	2.460796E-18	2.897739E-18
2.720000E+03	2.564209E-18	3.006239E-18
2.760000E+03	2.677054E-18	3.123296E-18
2.800000E+03	2.801319E-18	3.250765E-18
2.840000E+03	2.937193E-18	3.388312E-18
2.880000E+03	3.087019E-18	3.537995E-18
2.920000E+03	3.251187E-18	3.699495E-18
2.960000E+03	3.432485E-18	3.875079E-18
3.000000E+03	3.631560E-18	4.064404E-18
3.010000E+03	3.684928E-18	4.114660E-18
3.020000E+03	3.738951E-18	4.165165E-18
3.030000E+03	3.794994E-18	4.217418E-18
3.040000E+03	3.851744E-18	4.269936E-18
3.050000E+03	3.909909E-18	4.323480E-18
3.060000E+03	3.970236E-18	4.378850E-18
3.070000E+03	4.031355E-18	4.434504E-18
3.080000E+03	4.094006E-18	4.491234E-18
3.090000E+03	4.158975E-18	4.549867E-18
3.100000E+03	4.224828E-18	4.608804E-18
3.110000E+03	4.293110E-18	4.669697E-18
3.120000E+03	4.362341E-18	4.730902E-18
3.130000E+03	4.433324E-18	4.793259E-18
3.140000E+03	4.506913E-18	4.857650E-18
3.150000E+03	4.581555E-18	4.922363E-18
3.160000E+03	4.658929E-18	4.989162E-18
3.170000E+03	4.737431E-18	5.056285E-18
3.180000E+03	4.817935E-18	5.124627E-18
3.190000E+03	4.901369E-18	5.195127E-18
3.200000E+03	4.986051E-18	5.265949E-18
3.210000E+03	5.073805E-18	5.338976E-18
3.220000E+03	5.162890E-18	5.412319E-18
3.230000E+03	5.255196E-18	5.487909E-18
3.240000E+03	5.348920E-18	5.563803E-18
3.250000E+03	5.445047E-18	5.640974E-18
3.260000E+03	5.544629E-18	5.720449E-18
3.270000E+03	5.645766E-18	5.800198E-18
3.280000E+03	5.750524E-18	5.882282E-18
3.290000E+03	5.856933E-18	5.964613E-18
3.300000E+03	5.966067E-18	6.048222E-18
3.310000E+03	6.079082E-18	6.134203E-18
3.320000E+03	6.193894E-18	6.220370E-18
3.330000E+03	6.312768E-18	6.308922E-18
3.340000E+03	6.433541E-18	6.397609E-18
3.350000E+03	6.557390E-18	6.487529E-18
3.360000E+03	6.685582E-18	6.579838E-18
3.370000E+03	6.815826E-18	6.672183E-18
3.380000E+03	6.950608E-18	6.766909E-18
3.390000E+03	7.087544E-18	6.861589E-18
3.400000E+03	7.229216E-18	6.958628E-18
3.410000E+03	7.373143E-18	7.055526E-18
3.420000E+03	7.520664E-18	7.153470E-18
3.430000E+03	7.673225E-18	7.253717E-18
3.440000E+03	7.828185E-18	7.353648E-18
3.450000E+03	7.988387E-18	7.455825E-18
3.460000E+03	8.151081E-18	7.557550E-18
3.470000E+03	8.317733E-18	7.660081E-18
3.480000E+03	8.489930E-18	7.764741E-18
3.490000E+03	8.664738E-18	7.868712E-18
3.500000E+03	8.845287E-18	7.974715E-18
3.510000E+03	9.028514E-18	8.079846E-18
3.520000E+03	9.217671E-18	8.186891E-18
3.530000E+03	9.409559E-18	8.292863E-18
3.540000E+03	9.605842E-18	8.399116E-18
3.550000E+03	9.808317E-18	8.507073E-18
3.560000E+03	1.001357E-17	8.613619E-18
3.570000E+03	1.022516E-17	8.721706E-18
3.580000E+03	1.043953E-17	8.828134E-18
3.590000E+03	1.065848E-17	8.934328E-18
3.600000E+03	1.088397E-17	9.041784E-18
3.610000E+03	1.111217E-17	9.147177E-18
3.620000E+03	1.134700E-17	9.253626E-18
3.630000E+03	1.158445E-17	9.357723E-18
3.640000E+03	1.182860E-17	9.462656E-18
3.650000E+03	1.207523E-17	9.564936E-18
3.660000E+03	1.232638E-17	9.666096E-18
3.670000E+03	1.258422E-17	9.767739E-18
3.680000E+03	1.284425E-17	9.866261E-18
3.690000E+03	1.311092E-17	9.965018E-18
3.700000E+03	1.337950E-17	1.006033E-17
3.710000E+03	1.365217E-17	1.015382E-17
3.720000E+03	1.393127E-17	1.024717E-17
3.730000E+03	1.421173E-17	1.033659E-17
3.740000E+03	1.449840E-17	1.042560E-17
3.750000E+03	1.478596E-17	1.051037E-17
3.760000E+03	1.507943E-17	1.059447E-17
3.770000E+03	1.537324E-17	1.067400E-17
3.780000E+03	1.566977E-17	1.075068E-17
3.790000E+03	1.597159E-17	1.082629E-17
3.800000E+03	1.627276E-17	1.089685E-17
3.810000E+03	1.657869E-17	1.096606E-17
3.820000E+03	1.688319E-17	1.102988E-17
3.830000E+03	1.718879E-17	1.109009E-17
3.840000E+03	1.749820E-17	1.114851E-17
3.850000E+03	1.780486E-17	1.120101E-17
3.860000E+03	1.811462E-17	1.125141E-17
3.870000E+03	1.842064E-17	1.129550E-17
3.880000E+03	1.872898E-17	1.133713E-17
3.890000E+03	1.903257E-17	1.137205E-17
3.900000E+03	1.933423E-17	1.140207E-17
3.910000E+03	1.963699E-17	1.142901E-17
3.920000E+03	1.993347E-17	1.144856E-17
3.930000E+03	2.023027E-17	1.146455E-17
3.940000E+03	2.051982E-17	1.147267E-17
3.950000E+03	2.080529E-17	1.147469E-17
3.960000E+03	2.109006E-17	1.147239E-17
3.970000E+03	2.136639E-17	1.146141E-17
3.980000E+03	2.164155E-17	1.144556E-17
3.990000E+03	2.190769E-17	1.142050E-17
4.000000E+03	2.216849E-17	1.138800E-17
4.010000E+03	2.242786E-17	1.134979E-17
4.020000E+03	2.267788E-17	1.130158E-17
4.030000E+03	2.292666E-17	1.124714E-17
4.040000E+03	2.316629E-17	1.118220E-17
4.050000E+03	2.340104E-17	1.110853E-17
4.060000E+03	2.363547E-17	1.102785E-17
4.070000E+03	2.386164E-17	1.093599E-17
4.080000E+03	2.408851E-17	1.083662E-17
4.090000E+03	2.430812E-17	1.072564E-17
4.100000E+03	2.452535E-17	1.060475E-17
4.110000E+03	2.474529E-17	1.047554E-17
4.120000E+03	2.495991E-17	1.033402E-17
4.130000E+03	2.517879E-17	1.018358E-17
4.140000E+03	2.539379E-17	1.002026E-17
4.150000E+03	2.561012E-17	9.845545E-18
4.160000E+03	2.583309E-17	9.660767E-18
4.170000E+03	2.605430E-17	9.462041E-18
4.180000E+03	2.628362E-17	9.252301E-18
4.190000E+03	2.651236E-17	9.027731E-18
4.200000E+03	2.674567E-17	8.789491E-18
4.210000E+03	2.698877E-17	8.538554E-18
4.220000E+03	2.723245E-17	8.271295E-18
4.230000E+03	2.748656E-17	7.990158E-18
4.240000E+03	2.774147E-17	7.691765E-18
4.250000E+03	2.800196E-17	7.377174E-18
4.260000E+03	2.827287E-17	7.047362E-18
4.270000E+03	2.854385E-17	6.699709E-18
4.280000E+03	2.881936E-17	6.335781E-18
4.290000E+03	2.910387E-17	5.957371E-18
4.300000E+03	2.938626E-17	5.563736E-18
4.310000E+03	2.967581E-17	5.159409E-18
4.320000E+03	2.996080E-17	4.746575E-18
4.330000E+03	3.024492E-17	4.332749E-18
4.340000E+03	3.053186E-17	3.928909E-18
4.350000E+03	3.080884E-17	3.549548E-18
4.360000E+03	3.107896E-17	3.219408E-18
4.370000E+03	3.134531E-17	2.972222E-18
4.380000E+03	3.159432E-17	2.845168E-18
4.390000E+03	3.183502E-17	2.868364E-18
4.400000E+03	3.205493E-17	3.043451E-18
4.410000E+03	3.225931E-17	3.346523E-18
4.420000E+03	3.245404E-17	3.743093E-18
4.430000E+03	3.262783E-17	4.200150E-18
4.440000E+03	3.278649E-17	4.694471E-18
4.450000E+03	3.293577E-17	5.210346E-18
4.460000E+03	3.306381E-17	5.734552E-18
4.470000E+03	3.317606E-17	6.259901E-18
4.480000E+03	3.327794E-17	6.781832E-18
4.490000E+03	3.335713E-17	7.293761E-18
4.500000E+03	3.341889E-17	7.793532E-18
4.510000E+03	3.346853E-17	8.280042E-18
4.520000E+03	3.349356E-17	8.748376E-18
4.530000E+03	3.350523E-17	9.199854E-18
4.540000E+03	3.349113E-17	9.629900E-18
4.550000E+03	3.345674E-17	1.003891E-17
4.560000E+03	3.340765E-17	1.042781E-17
4.570000E+03	3.333181E-17	1.079222E-17
4.580000E+03	3.323513E-17	1.113337E-17
4.590000E+03	3.312364E-17	1.145291E-17
4.600000E+03	3.298594E-17	1.174664E-17
4.610000E+03	3.282848E-17	1.201651E-17
4.620000E+03	3.265783E-17	1.226483E-17
4.630000E+03	3.246335E-17	1.248763E-17
4.640000E+03	3.225205E-17	1.268751E-17
4.650000E+03	3.203094E-17	1.286739E-17
4.660000E+03	3.179017E-17	1.302351E-17
4.670000E+03	3.153709E-17	1.315903E-17
4.680000E+03	3.127900E-17	1.327732E-17
4.690000E+03	3.100662E-17	1.337480E-17
4.700000E+03	3.072744E-17	1.345502E-17
4.710000E+03	3.044337E-17	1.351921E-17
4.720000E+03	3.016165E-17	1.357107E-17
4.730000E+03	2.987343E-17	1.360711E-17
4.740000E+03	2.958591E-17	1.363103E-17
4.750000E+03	2.930603E-17	1.364655E-17
4.760000E+03	2.902500E-17	1.365010E-17
4.770000E+03	2.874960E-17	1.364531E-17
4.780000E+03	2.848628E-17	1.363576E-17
4.790000E+03	2.822620E-17	1.361771E-17
4.800000E+03	2.797561E-17	1.359461E-17
4.810000E+03	2.774045E-17	1.356980E-17
4.820000E+03	2.751176E-17	1.353934E-17
4.830000E+03	2.729526E-17	1.350642E-17
4.840000E+03	2.709161E-17	1.347173E-17
4.850000E+03	2.690610E-17	1.343827E-17
4.860000E+03	2.672961E-17	1.340182E-17
4.870000E+03	2.656728E-17	1.336520E-17
4.880000E+03	2.642401E-17	1.333116E-17
4.890000E+03	2.629059E-17	1.329529E-17
4.900000E+03	2.617182E-17	1.326018E-17
4.910000E+03	2.606772E-17	1.322602E-17
4.920000E+03	2.598284E-17	1.319524E-17
4.930000E+03	2.590790E-17	1.316325E-17
4.940000E+03	2.584738E-17	1.313239E-17
4.950000E+03	2.580568E-17	1.310493E-17
4.960000E+03	2.577345E-17	1.307615E-17
4.970000E+03	2.575503E-17	1.304822E-17
4.980000E+03	2.575014E-17	1.302099E-17
4.990000E+03	2.576305E-17	1.299652E-17
5.000000E+03	2.578432E-17	1.296995E-17
5.010000E+03	2.581813E-17	1.294327E-17
5.020000E+03	2.586409E-17	1.291615E-17
5.030000E+03	2.592633E-17	1.289046E-17
5.040000E+03	2.599524E-17	1.286121E-17
5.050000E+03	2.607484E-17	1.283019E-17
5.060000E+03	2.616455E-17	1.279687E-17
5.070000E+03	2.626836E-17	1.276292E-17
5.080000E+03	2.637630E-17	1.272317E-17
5.090000E+03	2.649220E-17	1.267922E-17
5.100000E+03	2.661520E-17	1.263030E-17
5.110000E+03	2.674906E-17	1.257787E-17
5.120000E+03	2.688335E-17	1.251663E-17
5.130000E+03	2.702165E-17	1.244792E-17
5.140000E+03	2.716276E-17	1.237085E-17
5.150000E+03	2.731024E-17	1.228663E-17
5.160000E+03	2.745312E-17	1.218994E-17
5.170000E+03	2.759482E-17	1.208201E-17
5.180000E+03	2.773388E-17	1.196186E-17
5.190000E+03	2.786883E-17	1.182854E-17
5.200000E+03	2.800313E-17	1.168320E-17
5.210000E+03	2.812542E-17	1.152080E-17
5.220000E+03	2.823918E-17	1.134262E-17
5.230000E+03	2.834298E-17	1.114791E-17
5.240000E+03	2.844050E-17	1.093796E-17
5.250000E+03	2.852046E-17	1.070830E-17
5.260000E+03	2.858671E-17	1.046047E-17
5.270000E+03	2.863820E-17	1.019413E-17
5.280000E+03	2.867402E-17	9.909092E-18
5.290000E+03	2.869847E-17	9.606983E-18
5.300000E+03	2.870080E-17	9.284429E-18
5.310000E+03	2.868557E-17	8.943393E-18
5.320000E+03	2.865247E-17	8.584229E-18
5.330000E+03	2.860130E-17	8.207441E-18
5.340000E+03	2.853702E-17	7.815060E-18
5.350000E+03	2.844962E-17	7.405068E-18
5.360000E+03	2.834431E-17	6.979900E-18
5.370000E+03	2.822135E-17	6.540733E-18
5.380000E+03	2.808111E-17	6.088980E-18
5.390000E+03	2.792892E-17	5.627335E-18
5.400000E+03	2.775539E-17	5.155824E-18
5.410000E+03	2.756597E-17	4.678169E-18
5.420000E+03	2.736120E-17	4.197856E-18
5.430000E+03	2.714162E-17	3.719699E-18
5.440000E+03	2.690778E-17	3.250723E-18
5.450000E+03	2.666488E-17	2.802259E-18
5.460000E+03	2.640395E-17	2.390715E-18
5.470000E+03	2.613021E-17	2.044969E-18
5.480000E+03	2.584418E-17	1.806709E-18
5.490000E+03	2.554663E-17	1.719967E-18
5.500000E+03	2.523889E-17	1.798442E-18
5.510000E+03	2.492739E-17	2.009184E-18
5.520000E+03	2.460573E-17	2.299963E-18
5.530000E+03	2.428084E-17	2.630166E-18
5.540000E+03	2.395516E-17	2.974471E-18
5.550000E+03	2.363095E-17	3.318483E-18
5.560000E+03	2.331031E-17	3.654226E-18
5.570000E+03	2.299519E-17	3.977383E-18
5.580000E+03	2.269142E-17	4.286523E-18
5.590000E+03	2.239263E-17	4.579280E-18
5.600000E+03	2.210441E-17	4.856247E-18
5.610000E+03	2.182819E-17	5.117830E-18
5.620000E+03	2.156526E-17	5.364762E-18
5.630000E+03	2.131680E-17	5.597990E-18
5.640000E+03	2.108382E-17	5.818594E-18
5.650000E+03	2.086722E-17	6.027725E-18
5.660000E+03	2.067141E-17	6.227659E-18
5.670000E+03	2.048968E-17	6.417409E-18
5.680000E+03	2.032616E-17	6.599179E-18
5.690000E+03	2.018118E-17	6.774053E-18
5.700000E+03	2.005490E-17	6.943046E-18
5.710000E+03	1.994732E-17	7.107081E-18
5.720000E+03	1.985829E-17	7.266980E-18
5.730000E+03	1.978752E-17	7.423458E-18
5.740000E+03	1.973452E-17	7.577108E-18
5.750000E+03	1.970214E-17	7.729764E-18
5.760000E+03	1.968266E-17	7.879071E-18
5.770000E+03	1.967864E-17	8.026580E-18
5.780000E+03	1.968899E-17	8.172382E-18
5.790000E+03	1.971252E-17	8.316441E-18
5.800000E+03	1.974793E-17	8.458607E-18
5.810000E+03	1.979378E-17	8.598621E-18
5.820000E+03	1.984860E-17	8.736130E-18
5.830000E+03	1.991084E-17	8.870699E-18
5.840000E+03	1.997894E-17	9.001828E-18
5.850000E+03	2.005488E-17	9.130585E-18
5.860000E+03	2.013010E-17	9.253207E-18
5.870000E+03	2.020670E-17	9.370714E-18
5.880000E+03	2.028337E-17	9.482565E-18
5.890000E+03	2.035896E-17	9.588265E-18
5.900000E+03	2.043251E-17	9.687387E-18
5.910000E+03	2.050328E-17	9.779596E-18
5.920000E+03	2.057080E-17	9.864664E-18
5.930000E+03	2.063483E-17	9.942486E-18
5.940000E+03	2.069545E-17	1.001309E-17
5.950000E+03	2.075302E-17	1.007664E-17
5.960000E+03	2.080819E-17	1.013345E-17
5.970000E+03	2.086188E-17	1.018395E-17
5.980000E+03	2.091529E-17	1.022871E-17
5.990000E+03	2.096988E-17	1.026843E-17
6.000000E+03	2.103099E-17	1.030569E-17
6.010000E+03	2.109307E-17	1.033773E-17
6.020000E+03	2.116182E-17	1.036728E-17
6.030000E+03	2.123932E-17	1.039529E-17
6.040000E+03	2.132774E-17	1.042270E-17
6.050000E+03	2.142929E-17	1.045045E-17
6.060000E+03	2.154614E-17	1.047943E-17
6.070000E+03	2.168044E-17	1.051046E-17
6.080000E+03	2.183420E-17	1.054425E-17
6.090000E+03	2.200934E-17	1.058141E-17
6.100000E+03	2.220759E-17	1.062238E-17
6.110000E+03	2.243045E-17	1.066746E-17
6.120000E+03	2.267919E-17	1.071672E-17
6.130000E+03	2.295476E-17	1.077005E-17
6.140000E+03	2.325777E-17	1.082710E-17
6.150000E+03	2.358844E-17	1.088724E-17
6.160000E+03	2.394654E-17	1.094961E-17
6.170000E+03	2.433138E-17	1.101304E-17
6.180000E+03	2.474172E-17	1.107608E-17
6.190000E+03	2.517577E-17	1.113697E-17
6.200000E+03	2.563111E-17	1.119368E-17
6.210000E+03	2.610471E-17	1.124387E-17
6.220000E+03	2.659290E-17	1.128497E-17
6.230000E+03	2.709136E-17	1.131415E-17
6.240000E+03	2.759520E-17	1.132842E-17
6.250000E+03	2.809893E-17	1.132466E-17
6.260000E+03	2.859660E-17	1.129969E-17
6.270000E+03	2.908189E-17	1.125038E-17
6.280000E+03	2.954823E-17	1.117369E-17
6.290000E+03	2.998896E-17	1.106680E-17
6.300000E+03	3.039751E-17	1.092722E-17
6.310000E+03	3.076757E-17	1.075284E-17
6.320000E+03	3.109332E-17	1.054207E-17
6.330000E+03	3.136956E-17	1.029384E-17
6.340000E+03	3.159191E-17	1.000772E-17
6.350000E+03	3.175694E-17	9.683921E-18
6.360000E+03	3.186231E-17	9.323274E-18
6.370000E+03	3.190675E-17	8.927251E-18
6.380000E+03	3.189018E-17	8.497895E-18
6.390000E+03	3.181358E-17	8.037769E-18
6.400000E+03	3.167898E-17	7.549873E-18
6.410000E+03	3.148931E-17	7.037570E-18
6.420000E+03	3.124826E-17	6.504506E-18
6.430000E+03	3.096009E-17	5.954561E-18
6.440000E+03	3.062945E-17	5.391822E-18
6.450000E+03	3.026118E-17	4.820644E-18
6.460000E+03	2.986009E-17	4.245822E-18
6.470000E+03	2.943082E-17	3.672999E-18
6.480000E+03	2.897763E-17	3.109564E-18
6.490000E+03	2.850430E-17	2.566593E-18
6.500000E+03	2.801402E-17	2.063205E-18
6.510000E+03	2.750940E-17	1.635944E-18
6.520000E+03	2.699265E-17	1.352328E-18
6.530000E+03	2.646146E-17	1.293699E-18
6.540000E+03	2.592843E-17	1.463340E-18
6.550000E+03	2.539280E-17	1.770619E-18
6.560000E+03	2.485865E-17	2.133094E-18
6.570000E+03	2.432957E-17	2.507363E-18
6.580000E+03	2.380838E-17	2.873511E-18
6.590000E+03	2.329723E-17	3.222550E-18
6.600000E+03	2.279763E-17	3.550545E-18
6.610000E+03	2.231061E-17	3.856023E-18
6.620000E+03	2.183681E-17	4.138766E-18
6.630000E+03	2.137658E-17	4.399226E-18
6.640000E+03	2.093008E-17	4.638215E-18
6.650000E+03	2.049730E-17	4.856740E-18
6.660000E+03	2.007820E-17	5.055913E-18
6.670000E+03	1.967264E-17	5.236892E-18
6.680000E+03	1.928053E-17	5.400855E-18
6.690000E+03	1.889842E-17	5.548006E-18
6.700000E+03	1.853299E-17	5.681450E-18
6.710000E+03	1.818081E-17	5.801397E-18
6.720000E+03	1.784192E-17	5.908990E-18
6.730000E+03	1.751639E-17	6.005360E-18
6.740000E+03	1.720436E-17	6.091616E-18
6.750000E+03	1.690599E-17	6.168848E-18
6.760000E+03	1.662150E-17	6.238127E-18
6.770000E+03	1.635113E-17	6.300499E-18
6.780000E+03	1.609516E-17	6.356986E-18
6.790000E+03	1.585388E-17	6.408581E-18
6.800000E+03	1.562482E-17	6.455114E-18
6.810000E+03	1.541384E-17	6.499785E-18
6.820000E+03	1.521844E-17	6.542364E-18
6.830000E+03	1.503893E-17	6.583716E-18
6.840000E+03	1.487557E-17	6.624668E-18
6.850000E+03	1.472864E-17	6.666008E-18
6.860000E+03	1.459839E-17	6.708487E-18
6.870000E+03	1.448504E-17	6.752813E-18
6.880000E+03	1.438882E-17	6.799657E-18
6.890000E+03	1.430990E-17	6.849649E-18
6.900000E+03	1.424596E-17	6.902165E-18
6.910000E+03	1.420216E-17	6.960183E-18
6.920000E+03	1.417613E-17	7.023012E-18
6.930000E+03	1.416798E-17	7.091137E-18
6.940000E+03	1.417782E-17	7.165007E-18
6.950000E+03	1.420574E-17	7.245041E-18
6.960000E+03	1.425183E-17	7.331626E-18
6.970000E+03	1.431617E-17	7.425123E-18
6.980000E+03	1.439628E-17	7.524539E-18
6.990000E+03	1.449729E-17	7.632815E-18
7.000000E+03	1.461673E-17	7.748926E-18
7.010000E+03	1.475466E-17	7.873131E-18
7.020000E+03	1.491111E-17	8.005661E-18
7.030000E+03	1.508613E-17	8.146726E-18
7.040000E+03	1.527971E-17	8.296505E-18
7.050000E+03	1.549187E-17	8.455148E-18
7.060000E+03	1.571979E-17	8.621249E-18
7.070000E+03	1.596889E-17	8.797893E-18
7.080000E+03	1.623632E-17	8.983616E-18
7.090000E+03	1.652188E-17	9.178390E-18
7.100000E+03	1.682529E-17	9.382123E-18
7.110000E+03	1.714615E-17	9.594646E-18
7.120000E+03	1.748394E-17	9.815698E-18
7.130000E+03	1.783486E-17	1.004314E-17
7.140000E+03	1.820426E-17	1.028000E-17
7.150000E+03	1.858801E-17	1.052392E-17
7.160000E+03	1.898480E-17	1.077413E-17
7.170000E+03	1.939306E-17	1.102969E-17
7.180000E+03	1.981093E-17	1.128948E-17
7.190000E+03	2.023266E-17	1.155014E-17
7.200000E+03	2.066281E-17	1.181417E-17
7.210000E+03	2.109503E-17	1.207785E-17
7.220000E+03	2.152613E-17	1.233925E-17
7.230000E+03	2.195259E-17	1.259621E-17
7.240000E+03	2.237058E-17	1.284643E-17
7.250000E+03	2.277198E-17	1.308510E-17
7.260000E+03	2.316046E-17	1.331422E-17
7.270000E+03	2.352761E-17	1.352881E-17
7.280000E+03	2.386892E-17	1.372619E-17
7.290000E+03	2.417993E-17	1.390368E-17
7.300000E+03	2.445632E-17	1.405870E-17
7.310000E+03	2.468968E-17	1.418636E-17
7.320000E+03	2.488502E-17	1.428949E-17
7.330000E+03	2.503486E-17	1.436377E-17
7.340000E+03	2.513665E-17	1.440774E-17
7.350000E+03	2.518851E-17	1.442037E-17
7.360000E+03	2.518491E-17	1.439855E-17
7.370000E+03	2.513447E-17	1.434730E-17
7.380000E+03	2.503329E-17	1.426452E-17
7.390000E+03	2.488277E-17	1.415113E-17
7.400000E+03	2.468506E-17	1.400855E-17
7.410000E+03	2.444307E-17	1.383860E-17
7.420000E+03	2.415608E-17	1.364108E-17
7.430000E+03	2.383676E-17	1.342336E-17
7.440000E+03	2.348529E-17	1.318575E-17
7.450000E+03	2.310648E-17	1.293116E-17
7.460000E+03	2.270531E-17	1.266258E-17
7.470000E+03	2.228288E-17	1.238083E-17
7.480000E+03	2.185212E-17	1.209329E-17
7.490000E+03	2.141387E-17	1.180054E-17
7.500000E+03	2.097271E-17	1.150526E-17
7.510000E+03	2.053297E-17	1.120992E-17
7.520000E+03	2.009503E-17	1.091482E-17
7.530000E+03	1.966965E-17	1.062586E-17
7.540000E+03	1.925637E-17	1.034277E-17
7.550000E+03	1.885796E-17	1.006701E-17
7.560000E+03	1.847352E-17	9.798059E-18
7.570000E+03	1.811162E-17	9.540371E-18
7.580000E+03	1.777054E-17	9.292887E-18
7.590000E+03	1.745156E-17	9.056108E-18
7.600000E+03	1.715565E-17	8.830336E-18
7.610000E+03	1.688051E-17	8.614169E-18
7.620000E+03	1.663262E-17	8.410644E-18
7.630000E+03	1.640915E-17	8.218018E-18
7.640000E+03	1.621015E-17	8.035978E-18
7.650000E+03	1.603266E-17	7.862712E-18
7.660000E+03	1.588212E-17	7.700507E-18
7.670000E+03	1.575527E-17	7.547337E-18
7.680000E+03	1.565165E-17	7.402523E-18
7.690000E+03	1.557067E-17	7.265321E-18
7.700000E+03	1.550897E-17	7.133668E-18
7.710000E+03	1.547131E-17	7.009254E-18
7.720000E+03	1.545420E-17	6.889897E-18
7.730000E+03	1.545681E-17	6.774657E-18
7.740000E+03	1.547555E-17	6.661379E-18
7.750000E+03	1.551497E-17	6.551426E-18
7.760000E+03	1.557139E-17	6.442556E-18
