#wls	flux	fluxerr
1.587349E+03	3.323996E-05	1.914156E-06
1.627033E+03	3.227802E-05	1.852108E-06
1.666716E+03	3.128116E-05	1.788302E-06
1.706400E+03	3.025133E-05	1.722882E-06
1.746084E+03	2.919088E-05	1.656016E-06
1.785767E+03	2.810253E-05	1.587891E-06
1.825451E+03	2.698945E-05	1.518721E-06
1.865135E+03	2.585524E-05	1.448738E-06
1.904819E+03	2.470381E-05	1.378193E-06
1.944502E+03	2.353953E-05	1.307358E-06
1.984186E+03	2.237105E-05	1.236739E-06
2.023870E+03	2.119510E-05	1.166178E-06
2.063553E+03	2.002464E-05	1.096409E-06
2.103237E+03	1.885763E-05	1.027335E-06
2.142921E+03	1.770644E-05	9.596454E-07
2.182605E+03	1.656993E-05	8.932852E-07
2.222288E+03	1.545956E-05	8.288763E-07
2.261972E+03	1.437731E-05	7.665213E-07
2.301656E+03	1.332565E-05	7.063476E-07
2.341340E+03	1.231405E-05	6.488448E-07
2.381023E+03	1.134397E-05	5.940731E-07
2.420707E+03	1.041898E-05	5.421965E-07
2.460391E+03	9.542037E-06	4.933430E-07
2.500074E+03	8.715486E-06	4.476030E-07
2.539758E+03	7.942446E-06	4.051012E-07
2.579442E+03	7.221012E-06	3.657016E-07
2.619126E+03	6.553147E-06	3.294632E-07
2.658809E+03	5.939705E-06	2.963848E-07
2.698493E+03	5.377720E-06	2.662721E-07
2.738177E+03	4.867091E-06	2.390742E-07
2.777860E+03	4.406916E-06	2.146989E-07
2.817544E+03	3.994242E-06	1.929538E-07
2.857228E+03	3.626175E-06	1.736523E-07
2.896912E+03	3.301652E-06	1.566970E-07
2.936595E+03	3.017498E-06	1.418909E-07
2.976279E+03	2.770793E-06	1.290525E-07
2.986200E+03	2.714901E-06	1.261422E-07
2.996121E+03	2.661201E-06	1.233446E-07
3.006042E+03	2.609659E-06	1.206574E-07
3.015963E+03	2.560244E-06	1.180786E-07
3.025884E+03	2.512924E-06	1.156059E-07
3.035805E+03	2.467669E-06	1.132376E-07
3.045726E+03	2.424449E-06	1.109715E-07
3.055646E+03	2.383240E-06	1.088058E-07
3.065567E+03	2.344014E-06	1.067387E-07
3.075488E+03	2.306748E-06	1.047685E-07
3.085409E+03	2.271422E-06	1.028936E-07
3.095330E+03	2.238013E-06	1.011124E-07
3.105251E+03	2.206503E-06	9.942339E-08
3.115172E+03	2.176876E-06	9.782528E-08
3.125093E+03	2.149118E-06	9.631679E-08
3.135014E+03	2.123217E-06	9.489673E-08
3.144935E+03	2.099163E-06	9.356406E-08
3.154856E+03	2.076951E-06	9.231784E-08
3.164777E+03	2.056574E-06	9.115723E-08
3.174698E+03	2.038033E-06	9.008154E-08
3.184619E+03	2.021330E-06	8.909018E-08
3.194540E+03	2.006468E-06	8.818271E-08
3.204460E+03	1.993456E-06	8.735882E-08
3.214381E+03	1.982307E-06	8.661836E-08
3.224302E+03	1.973036E-06	8.596132E-08
3.234223E+03	1.965663E-06	8.538786E-08
3.244144E+03	1.960211E-06	8.489829E-08
3.254065E+03	1.956710E-06	8.449311E-08
3.263986E+03	1.955193E-06	8.417301E-08
3.273907E+03	1.955699E-06	8.393886E-08
3.283828E+03	1.958271E-06	8.379177E-08
3.293749E+03	1.962959E-06	8.373302E-08
3.303670E+03	1.969820E-06	8.376417E-08
3.313591E+03	1.978917E-06	8.388698E-08
3.323512E+03	1.990319E-06	8.410351E-08
3.333433E+03	2.004103E-06	8.441605E-08
3.343353E+03	2.020357E-06	8.482724E-08
3.353274E+03	2.039173E-06	8.533997E-08
3.363195E+03	2.060657E-06	8.595751E-08
3.373116E+03	2.084922E-06	8.668346E-08
3.383037E+03	2.112094E-06	8.752181E-08
3.392958E+03	2.142308E-06	8.847693E-08
3.402879E+03	2.175715E-06	8.955367E-08
3.412800E+03	2.212866E-06	9.077323E-08
3.422721E+03	2.253167E-06	9.210969E-08
3.432642E+03	2.297196E-06	9.358521E-08
3.442563E+03	2.345165E-06	9.520666E-08
3.452484E+03	2.397299E-06	9.698144E-08
3.462405E+03	2.453847E-06	9.891769E-08
3.472326E+03	2.515083E-06	1.010244E-07
3.482246E+03	2.581301E-06	1.033111E-07
3.492167E+03	2.652818E-06	1.057883E-07
3.502088E+03	2.729981E-06	1.084672E-07
3.512009E+03	2.813168E-06	1.113601E-07
3.521930E+03	2.902787E-06	1.144805E-07
3.531851E+03	2.999279E-06	1.178425E-07
3.541772E+03	3.103124E-06	1.214617E-07
3.551693E+03	3.214847E-06	1.253551E-07
3.561614E+03	3.335012E-06	1.295408E-07
3.571535E+03	3.464230E-06	1.340385E-07
3.581456E+03	3.603168E-06	1.388695E-07
3.591377E+03	3.752546E-06	1.440567E-07
3.601298E+03	3.913145E-06	1.496250E-07
3.611219E+03	4.086524E-06	1.556282E-07
3.621140E+03	4.272209E-06	1.620422E-07
3.631060E+03	4.471874E-06	1.689242E-07
3.640981E+03	4.686601E-06	1.763078E-07
3.650902E+03	4.917551E-06	1.842293E-07
3.660823E+03	5.165988E-06	1.927277E-07
3.670744E+03	5.433282E-06	2.018451E-07
3.680665E+03	5.720912E-06	2.116269E-07
3.690586E+03	6.030477E-06	2.221217E-07
3.700507E+03	6.363707E-06	2.333818E-07
3.710428E+03	6.722474E-06	2.454638E-07
3.720349E+03	7.108801E-06	2.584281E-07
3.730270E+03	7.524868E-06	2.723395E-07
3.740191E+03	7.973030E-06	2.872678E-07
3.750112E+03	8.455834E-06	3.032877E-07
3.760033E+03	8.976015E-06	3.204789E-07
3.769953E+03	9.536528E-06	3.389273E-07
3.779874E+03	1.014055E-05	3.587240E-07
3.789795E+03	1.079150E-05	3.799670E-07
3.799716E+03	1.149505E-05	4.028302E-07
3.809637E+03	1.225127E-05	4.272889E-07
3.819558E+03	1.306628E-05	4.535272E-07
3.829479E+03	1.394462E-05	4.816708E-07
3.839400E+03	1.489114E-05	5.118529E-07
3.849321E+03	1.591103E-05	5.442147E-07
3.859242E+03	1.700984E-05	5.789054E-07
3.869163E+03	1.819347E-05	6.160830E-07
3.879084E+03	1.946823E-05	6.559138E-07
3.889005E+03	2.084082E-05	6.985732E-07
3.898926E+03	2.231830E-05	7.442438E-07
3.908846E+03	2.390828E-05	7.931203E-07
3.918767E+03	2.561866E-05	8.454019E-07
3.928688E+03	2.745790E-05	9.013003E-07
3.938609E+03	2.943485E-05	9.610335E-07
3.948530E+03	3.155884E-05	1.024828E-06
3.958451E+03	3.383964E-05	1.092918E-06
3.968372E+03	3.628750E-05	1.165545E-06
3.978293E+03	3.891313E-05	1.242957E-06
3.988214E+03	4.172761E-05	1.325408E-06
3.998135E+03	4.474253E-05	1.413157E-06
4.008056E+03	4.796985E-05	1.506465E-06
4.017977E+03	5.142189E-05	1.605597E-06
4.027898E+03	5.511134E-05	1.710820E-06
4.037819E+03	5.905120E-05	1.822397E-06
4.047740E+03	6.325467E-05	1.940592E-06
4.057660E+03	6.773523E-05	2.065664E-06
4.067581E+03	7.250647E-05	2.197863E-06
4.077502E+03	7.758204E-05	2.337434E-06
4.087423E+03	8.297559E-05	2.484608E-06
4.097344E+03	8.870068E-05	2.639603E-06
4.107265E+03	9.477069E-05	2.802621E-06
4.117186E+03	1.011987E-04	2.973843E-06
4.127107E+03	1.079974E-04	3.153429E-06
4.137028E+03	1.151789E-04	3.341512E-06
4.146949E+03	1.227548E-04	3.538197E-06
4.156870E+03	1.307358E-04	3.743557E-06
4.166791E+03	1.391318E-04	3.957630E-06
4.176712E+03	1.479515E-04	4.180417E-06
4.186633E+03	1.572026E-04	4.411875E-06
4.196553E+03	1.668914E-04	4.651920E-06
4.206474E+03	1.770226E-04	4.900420E-06
4.216395E+03	1.875996E-04	5.157196E-06
4.226316E+03	1.986237E-04	5.422014E-06
4.236237E+03	2.100949E-04	5.694597E-06
4.246158E+03	2.220103E-04	5.974597E-06
4.256079E+03	2.343659E-04	6.261632E-06
4.266000E+03	2.471545E-04	6.555239E-06
4.275921E+03	2.603678E-04	6.854931E-06
4.285842E+03	2.739940E-04	7.160133E-06
4.295763E+03	2.880198E-04	7.470244E-06
4.305684E+03	3.024286E-04	7.784586E-06
4.315605E+03	3.172021E-04	8.102450E-06
4.325526E+03	3.323191E-04	8.423068E-06
4.335446E+03	3.477560E-04	8.745630E-06
4.345367E+03	3.634243E-04	9.067722E-06
4.355288E+03	3.794183E-04	9.391529E-06
4.365209E+03	3.956474E-04	9.714618E-06
4.375130E+03	4.120789E-04	1.003604E-05
4.385051E+03	4.286781E-04	1.035483E-05
4.394972E+03	4.454085E-04	1.066999E-05
4.404893E+03	4.622316E-04	1.098054E-05
4.414814E+03	4.791081E-04	1.128546E-05
4.424735E+03	4.959961E-04	1.158376E-05
4.434656E+03	5.128537E-04	1.187445E-05
4.444577E+03	5.296379E-04	1.215654E-05
4.454498E+03	5.462102E-04	1.242695E-05
4.464419E+03	5.627122E-04	1.268898E-05
4.474340E+03	5.790077E-04	1.293964E-05
4.484260E+03	5.950525E-04	1.317808E-05
4.494181E+03	6.108028E-04	1.340349E-05
4.504102E+03	6.262153E-04	1.361511E-05
4.514023E+03	6.412472E-04	1.381225E-05
4.523944E+03	6.558579E-04	1.399426E-05
4.533865E+03	6.698925E-04	1.415816E-05
4.543786E+03	6.835413E-04	1.430829E-05
4.553707E+03	6.966564E-04	1.444184E-05
4.563628E+03	7.092050E-04	1.455847E-05
4.573549E+03	7.211576E-04	1.465795E-05
4.583470E+03	7.324878E-04	1.474014E-05
4.593391E+03	7.430458E-04	1.480245E-05
4.603312E+03	7.530669E-04	1.485003E-05
4.613233E+03	7.624117E-04	1.488051E-05
4.623153E+03	7.710713E-04	1.489416E-05
4.633074E+03	7.790423E-04	1.489136E-05
4.642995E+03	7.861901E-04	1.487001E-05
4.652916E+03	7.927886E-04	1.483579E-05
4.662837E+03	7.987118E-04	1.478672E-05
4.672758E+03	8.039690E-04	1.472342E-05
4.682679E+03	8.085691E-04	1.464649E-05
4.692600E+03	8.123805E-04	1.455402E-05
4.702521E+03	8.156871E-04	1.445155E-05
4.712442E+03	8.183547E-04	1.433707E-05
4.722363E+03	8.203874E-04	1.421109E-05
4.732284E+03	8.217899E-04	1.407410E-05
4.742205E+03	8.224285E-04	1.392426E-05
4.752126E+03	8.225946E-04	1.376695E-05
4.762046E+03	8.221606E-04	1.360039E-05
4.771967E+03	8.211423E-04	1.342522E-05
4.781888E+03	8.194184E-04	1.323988E-05
4.791809E+03	8.172913E-04	1.304966E-05
4.801730E+03	8.146437E-04	1.285298E-05
4.811651E+03	8.113620E-04	1.264841E-05
4.821572E+03	8.077506E-04	1.244107E-05
4.831493E+03	8.036975E-04	1.222947E-05
4.841414E+03	7.992301E-04	1.201432E-05
4.851335E+03	7.942402E-04	1.179429E-05
4.861256E+03	7.890286E-04	1.157411E-05
4.871177E+03	7.834866E-04	1.135232E-05
4.881098E+03	7.775092E-04	1.112762E-05
4.891019E+03	7.713919E-04	1.090442E-05
4.900940E+03	7.650279E-04	1.068132E-05
4.910860E+03	7.583148E-04	1.045705E-05
4.920781E+03	7.515401E-04	1.023570E-05
4.930702E+03	7.445992E-04	1.001594E-05
4.940623E+03	7.373908E-04	9.796490E-06
4.950544E+03	7.301921E-04	9.581151E-06
4.960465E+03	7.228979E-04	9.368566E-06
4.970386E+03	7.154071E-04	9.157501E-06
4.980307E+03	7.079848E-04	8.951420E-06
4.990228E+03	7.005262E-04	8.748997E-06
5.000149E+03	6.929298E-04	8.549013E-06
5.010070E+03	6.854498E-04	8.354650E-06
5.019991E+03	6.778652E-04	8.163210E-06
5.029912E+03	6.704226E-04	7.977693E-06
5.039833E+03	6.630174E-04	7.796829E-06
5.049753E+03	6.555493E-04	7.619455E-06
5.059674E+03	6.482536E-04	7.448320E-06
5.069595E+03	6.409174E-04	7.280957E-06
5.079516E+03	6.337694E-04	7.119971E-06
5.089437E+03	6.267067E-04	6.964167E-06
5.099358E+03	6.196307E-04	6.812449E-06
5.109279E+03	6.127602E-04	6.667221E-06
5.119200E+03	6.058905E-04	6.526226E-06
5.129121E+03	5.992345E-04	6.391750E-06
5.139042E+03	5.925908E-04	6.261613E-06
5.148963E+03	5.861668E-04	6.137993E-06
5.158884E+03	5.797644E-04	6.018785E-06
5.168805E+03	5.735854E-04	5.906065E-06
5.178726E+03	5.675322E-04	5.798784E-06
5.188646E+03	5.615111E-04	5.695965E-06
5.198567E+03	5.557162E-04	5.599553E-06
5.208488E+03	5.499586E-04	5.507601E-06
5.218409E+03	5.444275E-04	5.421975E-06
5.228330E+03	5.389372E-04	5.340781E-06
5.238251E+03	5.336731E-04	5.265817E-06
5.248172E+03	5.284528E-04	5.195233E-06
5.258093E+03	5.234575E-04	5.130764E-06
5.268014E+03	5.185083E-04	5.070600E-06
5.277935E+03	5.136951E-04	5.015567E-06
5.287856E+03	5.091049E-04	4.966444E-06
5.297777E+03	5.045630E-04	4.921386E-06
5.307698E+03	5.002407E-04	4.881887E-06
5.317619E+03	4.959647E-04	4.846077E-06
5.327540E+03	4.919015E-04	4.815405E-06
5.337460E+03	4.878799E-04	4.788026E-06
5.347381E+03	4.840646E-04	4.765384E-06
5.357302E+03	4.802884E-04	4.745667E-06
5.367223E+03	4.766334E-04	4.729521E-06
5.377144E+03	4.731804E-04	4.717593E-06
5.387065E+03	4.697683E-04	4.708130E-06
5.396986E+03	4.665597E-04	4.702614E-06
5.406907E+03	4.633972E-04	4.699325E-06
5.416828E+03	4.603636E-04	4.698962E-06
5.426749E+03	4.575381E-04	4.702218E-06
5.436670E+03	4.547645E-04	4.707375E-06
5.446591E+03	4.521956E-04	4.715905E-06
5.456512E+03	4.496741E-04	4.726070E-06
5.466433E+03	4.472740E-04	4.738542E-06
5.476353E+03	4.450662E-04	4.753990E-06
5.486274E+03	4.428923E-04	4.770647E-06
5.496195E+03	4.408205E-04	4.789155E-06
5.506116E+03	4.389172E-04	4.810171E-06
5.516037E+03	4.370248E-04	4.831904E-06
5.525958E+03	4.352113E-04	4.855025E-06
5.535879E+03	4.335444E-04	4.880235E-06
5.545800E+03	4.318714E-04	4.905764E-06
5.555721E+03	4.302619E-04	4.932333E-06
5.565642E+03	4.287854E-04	4.960695E-06
5.575563E+03	4.272930E-04	4.989087E-06
5.585484E+03	4.258555E-04	5.018276E-06
5.595405E+03	4.245430E-04	5.049056E-06
5.605326E+03	4.232092E-04	5.079656E-06
5.615246E+03	4.219250E-04	5.110880E-06
5.625167E+03	4.206890E-04	5.142677E-06
5.635088E+03	4.195713E-04	5.175887E-06
5.645009E+03	4.184278E-04	5.208714E-06
5.654930E+03	4.173288E-04	5.241997E-06
5.664851E+03	4.163441E-04	5.276598E-06
5.674772E+03	4.153310E-04	5.310700E-06
5.684693E+03	4.143589E-04	5.345161E-06
5.694614E+03	4.134270E-04	5.379956E-06
5.704535E+03	4.125340E-04	5.415060E-06
5.714456E+03	4.117487E-04	5.451371E-06
5.724377E+03	4.109296E-04	5.487018E-06
5.734298E+03	4.101456E-04	5.522902E-06
5.744219E+03	4.093954E-04	5.558996E-06
5.754140E+03	4.087469E-04	5.596230E-06
5.764060E+03	4.080595E-04	5.632685E-06
5.773981E+03	4.074015E-04	5.669286E-06
5.783902E+03	4.067709E-04	5.706006E-06
5.793823E+03	4.061661E-04	5.742823E-06
5.803744E+03	4.056543E-04	5.780697E-06
5.813665E+03	4.050957E-04	5.817647E-06
5.823586E+03	4.045572E-04	5.854620E-06
5.833507E+03	4.040369E-04	5.891593E-06
5.843428E+03	4.035327E-04	5.928539E-06
5.853349E+03	4.030423E-04	5.965428E-06
5.863270E+03	4.026319E-04	6.003254E-06
5.873191E+03	4.021623E-04	6.039952E-06
5.883112E+03	4.016995E-04	6.076504E-06
5.893033E+03	4.012411E-04	6.112879E-06
5.902953E+03	4.007845E-04	6.149042E-06
5.912874E+03	4.003271E-04	6.184959E-06
5.922795E+03	3.998662E-04	6.220594E-06
5.932716E+03	3.993993E-04	6.255911E-06
5.942637E+03	3.989913E-04	6.291939E-06
5.952558E+03	3.985038E-04	6.326510E-06
5.962479E+03	3.980020E-04	6.360648E-06
5.972400E+03	3.974833E-04	6.394313E-06
5.982321E+03	3.969451E-04	6.427468E-06
5.992242E+03	3.963846E-04	6.460075E-06
6.002163E+03	3.957998E-04	6.492100E-06
6.012084E+03	3.951884E-04	6.523510E-06
6.022005E+03	3.945485E-04	6.554276E-06
6.031926E+03	3.938785E-04	6.584375E-06
6.041846E+03	3.931774E-04	6.613791E-06
6.051767E+03	3.924446E-04	6.642519E-06
6.061688E+03	3.916803E-04	6.670563E-06
6.071609E+03	3.909517E-04	6.699079E-06
6.081530E+03	3.901277E-04	6.725829E-06
6.091451E+03	3.892777E-04	6.752001E-06
6.101372E+03	3.884050E-04	6.777658E-06
6.111293E+03	3.875140E-04	6.802882E-06
6.121214E+03	3.866087E-04	6.827753E-06
6.131135E+03	3.856932E-04	6.852353E-06
6.141056E+03	3.847699E-04	6.876733E-06
6.150977E+03	3.838397E-04	6.900920E-06
6.160898E+03	3.829012E-04	6.924898E-06
6.170819E+03	3.819521E-04	6.948612E-06
6.180740E+03	3.809891E-04	6.971989E-06
6.190660E+03	3.800087E-04	6.994949E-06
6.200581E+03	3.790082E-04	7.017426E-06
6.210502E+03	3.779855E-04	7.039366E-06
6.220423E+03	3.769396E-04	7.060729E-06
6.230344E+03	3.758703E-04	7.081496E-06
6.240265E+03	3.747780E-04	7.101660E-06
6.250186E+03	3.736642E-04	7.121228E-06
6.260107E+03	3.725304E-04	7.140217E-06
6.270028E+03	3.713793E-04	7.158659E-06
6.279949E+03	3.701501E-04	7.175365E-06
6.289870E+03	3.689718E-04	7.192814E-06
6.299791E+03	3.677843E-04	7.209837E-06
6.309712E+03	3.665906E-04	7.226481E-06
6.319633E+03	3.653939E-04	7.242802E-06
6.329553E+03	3.641973E-04	7.258853E-06
6.339474E+03	3.630040E-04	7.274689E-06
6.349395E+03	3.618171E-04	7.290369E-06
6.359316E+03	3.606396E-04	7.305950E-06
6.369237E+03	3.594746E-04	7.321490E-06
6.379158E+03	3.583250E-04	7.337049E-06
6.389079E+03	3.571937E-04	7.352685E-06
6.399000E+03	3.560834E-04	7.368452E-06
6.408921E+03	3.549364E-04	7.383156E-06
6.418842E+03	3.538760E-04	7.399358E-06
6.428763E+03	3.528445E-04	7.415864E-06
6.438684E+03	3.518441E-04	7.432730E-06
6.448605E+03	3.508769E-04	7.450009E-06
6.458526E+03	3.499453E-04	7.467752E-06
6.468446E+03	3.490514E-04	7.486016E-06
6.478367E+03	3.481971E-04	7.504852E-06
6.488288E+03	3.473254E-04	7.523031E-06
6.498209E+03	3.465560E-04	7.543155E-06
6.508130E+03	3.458317E-04	7.563998E-06
6.518051E+03	3.451540E-04	7.585607E-06
6.527972E+03	3.445246E-04	7.608032E-06
6.537893E+03	3.439447E-04	7.631313E-06
6.547814E+03	3.433577E-04	7.654199E-06
6.557735E+03	3.428812E-04	7.679324E-06
6.567656E+03	3.424583E-04	7.705439E-06
6.577577E+03	3.420901E-04	7.732583E-06
6.587498E+03	3.417775E-04	7.760792E-06
6.597419E+03	3.415217E-04	7.790109E-06
6.607340E+03	3.412654E-04	7.819242E-06
6.617260E+03	3.411258E-04	7.850879E-06
6.627181E+03	3.410454E-04	7.883734E-06
6.637102E+03	3.410249E-04	7.917836E-06
6.647023E+03	3.410650E-04	7.953221E-06
6.656944E+03	3.411084E-04	7.988563E-06
6.666865E+03	3.412714E-04	8.026599E-06
6.676786E+03	3.414967E-04	8.066011E-06
6.686707E+03	3.417846E-04	8.106823E-06
6.696628E+03	3.421352E-04	8.149061E-06
6.706549E+03	3.424909E-04	8.191362E-06
6.716470E+03	3.429681E-04	8.236523E-06
6.726391E+03	3.435087E-04	8.283182E-06
6.736312E+03	3.441130E-04	8.331361E-06
6.746233E+03	3.447221E-04	8.379654E-06
6.756153E+03	3.454534E-04	8.430921E-06
6.766074E+03	3.462478E-04	8.483756E-06
6.775995E+03	3.471055E-04	8.538179E-06
6.785916E+03	3.479668E-04	8.592736E-06
6.795837E+03	3.489495E-04	8.650353E-06
6.805758E+03	3.499942E-04	8.709583E-06
6.815679E+03	3.511004E-04	8.770436E-06
6.825600E+03	3.522076E-04	8.831411E-06
6.835521E+03	3.534346E-04	8.895501E-06
6.845442E+03	3.547208E-04	8.961214E-06
6.855363E+03	3.560048E-04	9.027009E-06
6.865284E+03	3.574064E-04	9.095936E-06
6.875205E+03	3.588642E-04	9.166464E-06
6.885126E+03	3.603771E-04	9.238579E-06
6.895046E+03	3.618819E-04	9.310677E-06
6.904967E+03	3.634999E-04	9.385891E-06
6.914888E+03	3.651685E-04	9.462631E-06
6.924809E+03	3.668232E-04	9.539236E-06
6.934730E+03	3.685869E-04	9.618915E-06
6.944651E+03	3.703951E-04	9.700013E-06
6.954572E+03	3.721824E-04	9.780826E-06
6.964493E+03	3.740729E-04	9.864624E-06
6.974414E+03	3.760008E-04	9.949700E-06
6.984335E+03	3.778991E-04	1.003429E-05
6.994256E+03	3.798933E-04	1.012173E-05
7.004177E+03	3.819162E-04	1.021027E-05
7.014098E+03	3.838991E-04	1.029806E-05
7.024019E+03	3.859690E-04	1.038852E-05
7.033940E+03	3.880571E-04	1.047983E-05
7.043860E+03	3.900932E-04	1.057009E-05
7.053781E+03	3.922054E-04	1.066277E-05
7.063702E+03	3.943236E-04	1.075600E-05
7.073623E+03	3.963753E-04	1.084779E-05
7.083544E+03	3.984909E-04	1.094172E-05
7.093465E+03	4.005295E-04	1.103393E-05
7.103386E+03	4.026222E-04	1.112803E-05
7.113307E+03	4.046955E-04	1.122201E-05
7.123228E+03	4.066744E-04	1.131377E-05
7.133149E+03	4.086912E-04	1.140700E-05
7.143070E+03	4.106709E-04	1.149962E-05
7.152991E+03	4.125367E-04	1.158946E-05
7.162912E+03	4.144222E-04	1.168028E-05
7.172833E+03	4.161799E-04	1.176791E-05
7.182753E+03	4.179440E-04	1.185613E-05
7.192674E+03	4.196369E-04	1.194276E-05
7.202595E+03	4.211795E-04	1.202551E-05
7.212516E+03	4.227074E-04	1.210825E-05
7.222437E+03	4.240695E-04	1.218664E-05
7.232358E+03	4.254022E-04	1.226457E-05
7.242279E+03	4.265530E-04	1.233764E-05
7.252200E+03	4.276594E-04	1.240979E-05
7.262121E+03	4.286413E-04	1.247870E-05
7.272042E+03	4.294176E-04	1.254196E-05
7.281963E+03	4.301270E-04	1.260361E-05
7.291884E+03	4.306157E-04	1.265909E-05
7.301805E+03	4.310233E-04	1.271249E-05
7.311726E+03	4.311963E-04	1.275924E-05
7.321646E+03	4.312753E-04	1.280346E-05
7.331567E+03	4.311076E-04	1.284059E-05
7.341488E+03	4.308351E-04	1.287480E-05
7.351409E+03	4.303800E-04	1.290374E-05
7.361330E+03	4.296658E-04	1.292506E-05
7.371251E+03	4.288368E-04	1.294305E-05
7.381172E+03	4.277455E-04	1.295322E-05
7.391093E+03	4.265389E-04	1.295995E-05
7.401014E+03	4.250726E-04	1.295883E-05
7.410935E+03	4.234956E-04	1.295433E-05
7.420856E+03	4.216679E-04	1.294213E-05
7.430777E+03	4.197393E-04	1.292677E-05
7.440698E+03	4.175725E-04	1.290398E-05
7.450619E+03	4.153157E-04	1.287828E-05
7.460540E+03	4.128296E-04	1.284532E-05
7.470460E+03	4.102560E-04	1.280944E-05
7.480381E+03	4.074534E-04	1.276616E-05
7.490302E+03	4.045610E-04	1.271978E-05
7.500223E+03	4.014402E-04	1.266588E-05
7.510144E+03	3.982308E-04	1.260878E-05
7.520065E+03	3.947990E-04	1.254421E-05
7.529986E+03	3.912850E-04	1.247654E-05
7.539907E+03	3.875601E-04	1.240161E-05
7.549828E+03	3.837641E-04	1.232382E-05
7.559749E+03	3.797728E-04	1.223913E-05
7.569670E+03	3.756603E-04	1.214987E-05
7.579591E+03	3.714993E-04	1.205832E-05
7.589512E+03	3.671709E-04	1.196058E-05
7.599433E+03	3.628106E-04	1.186102E-05
7.609353E+03	3.583028E-04	1.175581E-05
7.619274E+03	3.537803E-04	1.164927E-05
7.629195E+03	3.491305E-04	1.153764E-05
7.639116E+03	3.444827E-04	1.142516E-05
7.649037E+03	3.397271E-04	1.130817E-05
7.658958E+03	3.349321E-04	1.118889E-05
7.668879E+03	3.301626E-04	1.106948E-05
7.678800E+03	3.253129E-04	1.094636E-05
7.688721E+03	3.205028E-04	1.082356E-05
7.698642E+03	3.156292E-04	1.069758E-05
