#wls	flux	fluxerr
1.600000E+03	2.732601E-16	3.226443E-16
1.640000E+03	2.827794E-16	3.333998E-16
1.680000E+03	2.930807E-16	3.449754E-16
1.720000E+03	3.042756E-16	3.574815E-16
1.760000E+03	3.163606E-16	3.708893E-16
1.800000E+03	3.295125E-16	3.853763E-16
1.840000E+03	3.437324E-16	4.009084E-16
1.880000E+03	3.591741E-16	4.176228E-16
1.920000E+03	3.759347E-16	4.355819E-16
1.960000E+03	3.940523E-16	4.547697E-16
2.000000E+03	4.136901E-16	4.753038E-16
2.040000E+03	4.349210E-16	4.971833E-16
2.080000E+03	4.578178E-16	5.203923E-16
2.120000E+03	4.824524E-16	5.448966E-16
2.160000E+03	5.088298E-16	5.705664E-16
2.200000E+03	5.368171E-16	5.970992E-16
2.240000E+03	5.661687E-16	6.240505E-16
2.280000E+03	5.967186E-16	6.510503E-16
2.320000E+03	6.285512E-16	6.779823E-16
2.360000E+03	6.621137E-16	7.050869E-16
2.400000E+03	6.977497E-16	7.324407E-16
2.440000E+03	7.357941E-16	7.600542E-16
2.480000E+03	7.763929E-16	7.876821E-16
2.520000E+03	8.197367E-16	8.150652E-16
2.560000E+03	8.658797E-16	8.417444E-16
2.600000E+03	9.149085E-16	8.672299E-16
2.640000E+03	9.667589E-16	8.908247E-16
2.680000E+03	1.021317E-15	9.117324E-16
2.720000E+03	1.078420E-15	9.290631E-16
2.760000E+03	1.137747E-15	9.417565E-16
2.800000E+03	1.198940E-15	9.487068E-16
2.840000E+03	1.261582E-15	9.487663E-16
2.880000E+03	1.325337E-15	9.408666E-16
2.920000E+03	1.390054E-15	9.240906E-16
2.960000E+03	1.455806E-15	8.976747E-16
3.000000E+03	1.523016E-15	8.610429E-16
3.010000E+03	1.540124E-15	8.502319E-16
3.020000E+03	1.557352E-15	8.387303E-16
3.030000E+03	1.574773E-15	8.265638E-16
3.040000E+03	1.592321E-15	8.136832E-16
3.050000E+03	1.610074E-15	8.001141E-16
3.060000E+03	1.628039E-15	7.858450E-16
3.070000E+03	1.646257E-15	7.708818E-16
3.080000E+03	1.664671E-15	7.551823E-16
3.090000E+03	1.683394E-15	7.387857E-16
3.100000E+03	1.702371E-15	7.216530E-16
3.110000E+03	1.721685E-15	7.038075E-16
3.120000E+03	1.741351E-15	6.852428E-16
3.130000E+03	1.761352E-15	6.659418E-16
3.140000E+03	1.781776E-15	6.459289E-16
3.150000E+03	1.802610E-15	6.251916E-16
3.160000E+03	1.823911E-15	6.037454E-16
3.170000E+03	1.845703E-15	5.815968E-16
3.180000E+03	1.868014E-15	5.587569E-16
3.190000E+03	1.890905E-15	5.352523E-16
3.200000E+03	1.914409E-15	5.111051E-16
3.210000E+03	1.938524E-15	4.863377E-16
3.220000E+03	1.963354E-15	4.610087E-16
3.230000E+03	1.988904E-15	4.351639E-16
3.240000E+03	2.015247E-15	4.088812E-16
3.250000E+03	2.042427E-15	3.822518E-16
3.260000E+03	2.070457E-15	3.553891E-16
3.270000E+03	2.099452E-15	3.284601E-16
3.280000E+03	2.129398E-15	3.016571E-16
3.290000E+03	2.160416E-15	2.752572E-16
3.300000E+03	2.192562E-15	2.496107E-16
3.310000E+03	2.225830E-15	2.251729E-16
3.320000E+03	2.260349E-15	2.025522E-16
3.326000E+03	2.233783E-15	2.572189E-16
3.328000E+03	2.228466E-15	2.569932E-16
3.330000E+03	2.242357E-15	2.571744E-16
3.332000E+03	2.246547E-15	2.571496E-16
3.334000E+03	2.248360E-15	2.570746E-16
3.336000E+03	2.251164E-15	2.570204E-16
3.338000E+03	2.265856E-15	2.572141E-16
3.340000E+03	2.289070E-15	2.575851E-16
3.342000E+03	2.314271E-15	2.579973E-16
3.344000E+03	2.332739E-15	2.582671E-16
3.346000E+03	2.347643E-15	2.584607E-16
3.348000E+03	2.378407E-15	2.589880E-16
3.350000E+03	2.397878E-15	2.592760E-16
3.352000E+03	2.412792E-15	2.601770E-16
3.354000E+03	2.424339E-15	2.557193E-16
3.356000E+03	2.434897E-15	2.609945E-16
3.358000E+03	2.449820E-15	2.591744E-16
3.360000E+03	2.467721E-15	2.596361E-16
3.362000E+03	2.482254E-15	2.840780E-16
3.364000E+03	2.493813E-15	2.838419E-16
3.366000E+03	2.501209E-15	2.830548E-16
3.368000E+03	2.513368E-15	2.705007E-16
3.370000E+03	2.515012E-15	2.687452E-16
3.372000E+03	2.507130E-15	2.677806E-16
3.374000E+03	2.506789E-15	2.783399E-16
3.376000E+03	2.515777E-15	2.772038E-16
3.378000E+03	2.527547E-15	2.896419E-16
3.380000E+03	2.527604E-15	2.880576E-16
3.382000E+03	2.522102E-15	2.779438E-16
3.384000E+03	2.521961E-15	2.900808E-16
3.386000E+03	2.521025E-15	2.969761E-16
3.388000E+03	2.521479E-15	3.009358E-16
3.390000E+03	2.517166E-15	2.852176E-16
3.392000E+03	2.514639E-15	2.863394E-16
3.394000E+03	2.506748E-15	2.858542E-16
3.396000E+03	2.502829E-15	2.892102E-16
3.398000E+03	2.504274E-15	3.046502E-16
3.400000E+03	2.497969E-15	3.051557E-16
3.402000E+03	2.481924E-15	3.040259E-16
3.404000E+03	2.455339E-15	3.020453E-16
3.406000E+03	2.448033E-15	2.969262E-16
3.408000E+03	2.457029E-15	2.966082E-16
3.410000E+03	2.466026E-15	2.960490E-16
3.412000E+03	2.484769E-15	2.731522E-16
3.414000E+03	2.501925E-15	2.725774E-16
3.416000E+03	2.517095E-15	2.710032E-16
3.418000E+03	2.516156E-15	2.754557E-16
3.420000E+03	2.524368E-15	2.759465E-16
3.422000E+03	2.539942E-15	2.958480E-16
3.424000E+03	2.554326E-15	2.877186E-16
3.426000E+03	2.581250E-15	2.833404E-16
3.428000E+03	2.610568E-15	2.871133E-16
3.430000E+03	2.647454E-15	2.785600E-16
3.432000E+03	2.667030E-15	2.803653E-16
3.434000E+03	2.695569E-15	2.721771E-16
3.436000E+03	2.739643E-15	2.489717E-16
3.438000E+03	2.778548E-15	2.466200E-16
3.440000E+03	2.801331E-15	2.473442E-16
3.442000E+03	2.831288E-15	2.496287E-16
3.444000E+03	2.865036E-15	2.496722E-16
3.446000E+03	2.897196E-15	2.474889E-16
3.448000E+03	2.926773E-15	2.508688E-16
3.450000E+03	2.953168E-15	2.549210E-16
3.452000E+03	2.977377E-15	2.589012E-16
3.454000E+03	3.011155E-15	2.739544E-16
3.456000E+03	3.045140E-15	2.818301E-16
3.458000E+03	3.074945E-15	2.826509E-16
3.460000E+03	3.106750E-15	2.817224E-16
3.462000E+03	3.116233E-15	2.876410E-16
3.464000E+03	3.130901E-15	2.899596E-16
3.466000E+03	3.137795E-15	2.900250E-16
3.468000E+03	3.147682E-15	2.901066E-16
3.470000E+03	3.158369E-15	2.926097E-16
3.472000E+03	3.165667E-15	2.696088E-16
3.474000E+03	3.153616E-15	2.626285E-16
3.476000E+03	3.132785E-15	2.628111E-16
3.478000E+03	3.131901E-15	2.536183E-16
3.480000E+03	3.110864E-15	2.530673E-16
3.482000E+03	3.102394E-15	2.484890E-16
3.484000E+03	3.098513E-15	2.483197E-16
3.486000E+03	3.097626E-15	2.481048E-16
3.488000E+03	3.088354E-15	2.448924E-16
3.490000E+03	3.076883E-15	2.440419E-16
3.492000E+03	3.058822E-15	2.396762E-16
3.494000E+03	3.041755E-15	2.391219E-16
3.496000E+03	3.026682E-15	2.344550E-16
3.498000E+03	3.009009E-15	2.077667E-16
3.500000E+03	2.998923E-15	1.971315E-16
3.502000E+03	2.989234E-15	1.946918E-16
3.504000E+03	2.979743E-15	1.774189E-16
3.506000E+03	2.972048E-15	1.603640E-16
3.508000E+03	2.968747E-15	1.583217E-16
3.510000E+03	2.955454E-15	1.578878E-16
3.512000E+03	2.936761E-15	1.423799E-16
3.514000E+03	2.915467E-15	1.337057E-16
3.516000E+03	2.902763E-15	1.366787E-16
3.518000E+03	2.888258E-15	1.300754E-16
3.520000E+03	2.890145E-15	1.280554E-16
3.522000E+03	2.901430E-15	1.347963E-16
3.524000E+03	2.913717E-15	1.290548E-16
3.526000E+03	2.923007E-15	1.379692E-16
3.528000E+03	2.928297E-15	1.382087E-16
3.530000E+03	2.939190E-15	1.395985E-16
3.532000E+03	2.955287E-15	1.424754E-16
3.534000E+03	2.966985E-15	1.443323E-16
3.536000E+03	2.979885E-15	1.444944E-16
3.538000E+03	2.989386E-15	1.482045E-16
3.540000E+03	3.004893E-15	1.486014E-16
3.542000E+03	3.019402E-15	1.487935E-16
3.544000E+03	3.039519E-15	1.563519E-16
3.546000E+03	3.055836E-15	1.849437E-16
3.548000E+03	3.062345E-15	1.859515E-16
3.550000E+03	3.070857E-15	1.938281E-16
3.552000E+03	3.089785E-15	2.005926E-16
3.554000E+03	3.117128E-15	2.014422E-16
3.556000E+03	3.145878E-15	2.020481E-16
3.558000E+03	3.162815E-15	2.156377E-16
3.560000E+03	3.180357E-15	2.191448E-16
3.562000E+03	3.178066E-15	2.194902E-16
3.564000E+03	3.177979E-15	2.284627E-16
3.566000E+03	3.187310E-15	2.306934E-16
3.568000E+03	3.200250E-15	2.317878E-16
3.570000E+03	3.206980E-15	2.332766E-16
3.572000E+03	3.211305E-15	2.294694E-16
3.574000E+03	3.218637E-15	2.292029E-16
3.576000E+03	3.226773E-15	2.245025E-16
3.578000E+03	3.237117E-15	2.286089E-16
3.580000E+03	3.248665E-15	2.286746E-16
3.582000E+03	3.253396E-15	2.273408E-16
3.584000E+03	3.262140E-15	2.269706E-16
3.586000E+03	3.262862E-15	2.280618E-16
3.588000E+03	3.268599E-15	2.300652E-16
3.590000E+03	3.268919E-15	2.322711E-16
3.592000E+03	3.271848E-15	2.334621E-16
3.594000E+03	3.276383E-15	2.292549E-16
3.596000E+03	3.272088E-15	2.044940E-16
3.598000E+03	3.263979E-15	2.038738E-16
3.600000E+03	3.261689E-15	1.977021E-16
3.602000E+03	3.266023E-15	1.919148E-16
3.604000E+03	3.261324E-15	1.909213E-16
3.606000E+03	3.250599E-15	1.921448E-16
3.608000E+03	3.244892E-15	1.788610E-16
3.610000E+03	3.241795E-15	1.787543E-16
3.612000E+03	3.245727E-15	1.816790E-16
3.614000E+03	3.242830E-15	1.731763E-16
3.616000E+03	3.243548E-15	1.671286E-16
3.618000E+03	3.245672E-15	1.667345E-16
3.620000E+03	3.253021E-15	1.658270E-16
3.622000E+03	3.255549E-15	1.696177E-16
3.624000E+03	3.250841E-15	1.775985E-16
3.626000E+03	3.257790E-15	1.798587E-16
3.628000E+03	3.268158E-15	1.720293E-16
3.630000E+03	3.280537E-15	1.719650E-16
3.632000E+03	3.287088E-15	1.716621E-16
3.634000E+03	3.287810E-15	1.764966E-16
3.636000E+03	3.295569E-15	1.759665E-16
3.638000E+03	3.302726E-15	1.769012E-16
3.640000E+03	3.304656E-15	1.739247E-16
3.642000E+03	3.306987E-15	1.761372E-16
3.644000E+03	3.319378E-15	1.879933E-16
3.646000E+03	3.342835E-15	1.876603E-16
3.648000E+03	3.354023E-15	1.905706E-16
3.650000E+03	3.358171E-15	1.904918E-16
3.652000E+03	3.355477E-15	1.993165E-16
3.654000E+03	3.353185E-15	2.008272E-16
3.656000E+03	3.356327E-15	2.085752E-16
3.658000E+03	3.350008E-15	2.081663E-16
3.660000E+03	3.335233E-15	2.040156E-16
3.662000E+03	3.330924E-15	2.041020E-16
3.664000E+03	3.333460E-15	2.037499E-16
3.666000E+03	3.332170E-15	2.118640E-16
3.668000E+03	3.330879E-15	2.145081E-16
3.670000E+03	3.324553E-15	2.143890E-16
3.672000E+03	3.320844E-15	2.122249E-16
3.674000E+03	3.316530E-15	2.130317E-16
3.676000E+03	3.302947E-15	2.160605E-16
3.678000E+03	3.285734E-15	2.157935E-16
3.680000E+03	3.268518E-15	2.140034E-16
3.682000E+03	3.254321E-15	2.136450E-16
3.684000E+03	3.248989E-15	2.113194E-16
3.686000E+03	3.247284E-15	2.123706E-16
3.688000E+03	3.240136E-15	2.087435E-16
3.690000E+03	3.236615E-15	2.087718E-16
3.692000E+03	3.238536E-15	2.056833E-16
3.694000E+03	3.239047E-15	1.910312E-16
3.696000E+03	3.239355E-15	1.925522E-16
3.698000E+03	3.237646E-15	1.944452E-16
3.700000E+03	3.234727E-15	1.970395E-16
3.702000E+03	3.232815E-15	1.842296E-16
3.704000E+03	3.230095E-15	1.793760E-16
3.706000E+03	3.226769E-15	1.747557E-16
3.708000E+03	3.224249E-15	1.781663E-16
3.710000E+03	3.213051E-15	1.799141E-16
3.712000E+03	3.220418E-15	1.749627E-16
3.714000E+03	3.223950E-15	1.749030E-16
3.716000E+03	3.225465E-15	1.652664E-16
3.718000E+03	3.226171E-15	1.590605E-16
3.720000E+03	3.229502E-15	1.592482E-16
3.722000E+03	3.233237E-15	1.587432E-16
3.724000E+03	3.240001E-15	1.464532E-16
3.726000E+03	3.249593E-15	1.375295E-16
3.728000E+03	3.256763E-15	1.408267E-16
3.730000E+03	3.263732E-15	1.468538E-16
3.732000E+03	3.279186E-15	1.529991E-16
3.734000E+03	3.283328E-15	1.522336E-16
3.736000E+03	3.289289E-15	1.545470E-16
3.738000E+03	3.285350E-15	1.580880E-16
3.740000E+03	3.291311E-15	1.586362E-16
3.742000E+03	3.299698E-15	1.579328E-16
3.744000E+03	3.301012E-15	1.580121E-16
3.746000E+03	3.302931E-15	1.566380E-16
3.748000E+03	3.308692E-15	1.536566E-16
3.750000E+03	3.310409E-15	1.511557E-16
3.752000E+03	3.305454E-15	1.509448E-16
3.754000E+03	3.298070E-15	1.501384E-16
3.756000E+03	3.304032E-15	1.484365E-16
3.758000E+03	3.310196E-15	1.430900E-16
3.760000E+03	3.306652E-15	1.456646E-16
3.762000E+03	3.298454E-15	1.481082E-16
3.764000E+03	3.299965E-15	1.465319E-16
3.766000E+03	3.306937E-15	1.494075E-16
3.768000E+03	3.318767E-15	1.548251E-16
3.770000E+03	3.322098E-15	1.520855E-16
3.772000E+03	3.310252E-15	1.498818E-16
3.774000E+03	3.309736E-15	1.493428E-16
3.776000E+03	3.314887E-15	1.472600E-16
3.778000E+03	3.313763E-15	1.451855E-16
3.780000E+03	3.315877E-15	1.414604E-16
3.782000E+03	3.320420E-15	1.431981E-16
3.784000E+03	3.327596E-15	1.438542E-16
3.786000E+03	3.327077E-15	1.422425E-16
3.788000E+03	3.331012E-15	1.565615E-16
3.790000E+03	3.337378E-15	1.610706E-16
3.792000E+03	3.350022E-15	1.605999E-16
3.794000E+03	3.356997E-15	1.620031E-16
3.796000E+03	3.363769E-15	1.616798E-16
3.798000E+03	3.373783E-15	1.624048E-16
3.800000E+03	3.381974E-15	1.626454E-16
3.802000E+03	3.387733E-15	1.626488E-16
3.804000E+03	3.395925E-15	1.631510E-16
3.806000E+03	3.405334E-15	1.630697E-16
3.808000E+03	3.412107E-15	1.647917E-16
3.810000E+03	3.427192E-15	1.644628E-16
3.812000E+03	3.437211E-15	1.632101E-16
3.814000E+03	3.446014E-15	1.632923E-16
3.816000E+03	3.457250E-15	1.603234E-16
3.818000E+03	3.468892E-15	1.652410E-16
3.820000E+03	3.474452E-15	1.868973E-16
3.822000E+03	3.483054E-15	1.876174E-16
3.824000E+03	3.490236E-15	1.882422E-16
3.826000E+03	3.500664E-15	1.881638E-16
3.828000E+03	3.511295E-15	1.897369E-16
3.830000E+03	3.522941E-15	1.889617E-16
3.832000E+03	3.541486E-15	1.832392E-16
3.834000E+03	3.549076E-15	1.834357E-16
3.836000E+03	3.548346E-15	1.819328E-16
3.838000E+03	3.561009E-15	1.673610E-16
3.840000E+03	3.574485E-15	1.625718E-16
3.842000E+03	3.584105E-15	1.620090E-16
3.844000E+03	3.587433E-15	1.613455E-16
3.846000E+03	3.586902E-15	1.614530E-16
3.848000E+03	3.589213E-15	1.635377E-16
3.850000E+03	3.592538E-15	1.648971E-16
3.852000E+03	3.597284E-15	1.681483E-16
3.854000E+03	3.610152E-15	1.730783E-16
3.856000E+03	3.618958E-15	1.731981E-16
3.858000E+03	3.615173E-15	1.711805E-16
3.860000E+03	3.627432E-15	1.659954E-16
3.862000E+03	3.631972E-15	1.644504E-16
3.864000E+03	3.640778E-15	1.645281E-16
3.866000E+03	3.644301E-15	1.657441E-16
3.868000E+03	3.643761E-15	1.563152E-16
3.870000E+03	3.644234E-15	1.276729E-16
3.872000E+03	3.643690E-15	1.285468E-16
3.874000E+03	3.643958E-15	1.287293E-16
3.876000E+03	3.643208E-15	1.289784E-16
3.878000E+03	3.645708E-15	1.268049E-16
3.880000E+03	3.639670E-15	1.264686E-16
3.882000E+03	3.628751E-15	1.292790E-16
3.884000E+03	3.620472E-15	1.275852E-16
3.886000E+03	3.619916E-15	1.303880E-16
3.888000E+03	3.625052E-15	1.299072E-16
3.890000E+03	3.627136E-15	1.307717E-16
3.892000E+03	3.621492E-15	1.371462E-16
3.894000E+03	3.612592E-15	1.352918E-16
3.896000E+03	3.605926E-15	1.376268E-16
3.898000E+03	3.601495E-15	1.364309E-16
3.900000E+03	3.598689E-15	1.376001E-16
3.902000E+03	3.597915E-15	1.381262E-16
3.904000E+03	3.604464E-15	1.353127E-16
3.906000E+03	3.608366E-15	1.356398E-16
3.908000E+03	3.608402E-15	1.550183E-16
3.910000E+03	3.619017E-15	1.554871E-16
3.912000E+03	3.631463E-15	1.556581E-16
3.914000E+03	3.639229E-15	1.558759E-16
3.916000E+03	3.647197E-15	1.554107E-16
3.918000E+03	3.652316E-15	1.558372E-16
3.920000E+03	3.649699E-15	1.556795E-16
3.922000E+03	3.657460E-15	1.549253E-16
3.924000E+03	3.671329E-15	1.535248E-16
3.926000E+03	3.684382E-15	1.532432E-16
3.928000E+03	3.697233E-15	1.558352E-16
3.930000E+03	3.707028E-15	1.559027E-16
3.932000E+03	3.711937E-15	1.502698E-16
3.934000E+03	3.721324E-15	1.504972E-16
3.936000E+03	3.731932E-15	1.546121E-16
3.938000E+03	3.742132E-15	1.593569E-16
3.940000E+03	3.751721E-15	1.608686E-16
3.942000E+03	3.757031E-15	1.569249E-16
3.944000E+03	3.764989E-15	1.571227E-16
3.946000E+03	3.771723E-15	1.552120E-16
3.948000E+03	3.771733E-15	1.547001E-16
3.950000E+03	3.769501E-15	1.543096E-16
3.952000E+03	3.773582E-15	1.513895E-16
3.954000E+03	3.780106E-15	1.487731E-16
3.956000E+03	3.782554E-15	1.485528E-16
3.958000E+03	3.783370E-15	1.270462E-16
3.960000E+03	3.781128E-15	1.261851E-16
3.962000E+03	3.780310E-15	1.253028E-16
3.964000E+03	3.780101E-15	1.282631E-16
3.966000E+03	3.782947E-15	1.336277E-16
3.968000E+03	3.785384E-15	1.334021E-16
3.970000E+03	3.790469E-15	1.335417E-16
3.972000E+03	3.792494E-15	1.360716E-16
3.974000E+03	3.793907E-15	1.360651E-16
3.976000E+03	3.796540E-15	1.375577E-16
3.978000E+03	3.799171E-15	1.345030E-16
3.980000E+03	3.803636E-15	1.354397E-16
3.982000E+03	3.801778E-15	1.363739E-16
3.984000E+03	3.802364E-15	1.373361E-16
3.986000E+03	3.808455E-15	1.306490E-16
3.988000E+03	3.808629E-15	1.247394E-16
3.990000E+03	3.804111E-15	1.210603E-16
3.992000E+03	3.799795E-15	1.184712E-16
3.994000E+03	3.800982E-15	1.192949E-16
3.996000E+03	3.806450E-15	1.207627E-16
3.998000E+03	3.809265E-15	1.210192E-16
4.000000E+03	3.816770E-15	1.167844E-16
4.002000E+03	3.825088E-15	1.164250E-16
4.004000E+03	3.825042E-15	1.168966E-16
4.006000E+03	3.817853E-15	1.169625E-16
4.008000E+03	3.826777E-15	1.161960E-16
4.010000E+03	3.832844E-15	1.169714E-16
4.012000E+03	3.831564E-15	1.180969E-16
4.014000E+03	3.831098E-15	1.162246E-16
4.016000E+03	3.832466E-15	1.106720E-16
4.018000E+03	3.831587E-15	1.109823E-16
4.020000E+03	3.829889E-15	1.101045E-16
4.022000E+03	3.825536E-15	1.059533E-16
4.024000E+03	3.825669E-15	1.061983E-16
4.026000E+03	3.827229E-15	1.049364E-16
4.028000E+03	3.830010E-15	1.046331E-16
4.030000E+03	3.835035E-15	1.023998E-16
4.032000E+03	3.837404E-15	9.925689E-17
4.034000E+03	3.835893E-15	9.862480E-17
4.036000E+03	3.831725E-15	9.736699E-17
4.038000E+03	3.826943E-15	9.893941E-17
4.040000E+03	3.816646E-15	1.073459E-16
4.042000E+03	3.806959E-15	1.059220E-16
4.044000E+03	3.798289E-15	1.042367E-16
4.046000E+03	3.791862E-15	1.043470E-16
4.048000E+03	3.784615E-15	1.022869E-16
4.050000E+03	3.782264E-15	1.035432E-16
4.052000E+03	3.775216E-15	1.085870E-16
4.054000E+03	3.766735E-15	1.181110E-16
4.056000E+03	3.761110E-15	1.176762E-16
4.058000E+03	3.756911E-15	1.175113E-16
4.060000E+03	3.754138E-15	1.239203E-16
4.062000E+03	3.746463E-15	1.240548E-16
4.064000E+03	3.738988E-15	1.231652E-16
4.066000E+03	3.734573E-15	1.227447E-16
4.068000E+03	3.734240E-15	1.221427E-16
4.070000E+03	3.732270E-15	1.218932E-16
4.072000E+03	3.730910E-15	1.295433E-16
4.074000E+03	3.729342E-15	1.330831E-16
4.076000E+03	3.728794E-15	1.354455E-16
4.078000E+03	3.728038E-15	1.368367E-16
4.080000E+03	3.729730E-15	1.376854E-16
4.082000E+03	3.736524E-15	1.381867E-16
4.084000E+03	3.740253E-15	1.383891E-16
4.086000E+03	3.744796E-15	1.386165E-16
4.088000E+03	3.748111E-15	1.381643E-16
4.090000E+03	3.746930E-15	1.301665E-16
4.092000E+03	3.752282E-15	1.292162E-16
4.094000E+03	3.753342E-15	1.290970E-16
4.096000E+03	3.751540E-15	1.283010E-16
4.098000E+03	3.753207E-15	1.285348E-16
4.100000E+03	3.752012E-15	1.271199E-16
4.102000E+03	3.748772E-15	1.234028E-16
4.104000E+03	3.745120E-15	1.134610E-16
4.106000E+03	3.740240E-15	1.128131E-16
4.108000E+03	3.736991E-15	1.126585E-16
4.110000E+03	3.733943E-15	1.099993E-16
4.112000E+03	3.730075E-15	1.097670E-16
4.114000E+03	3.724365E-15	1.107394E-16
4.116000E+03	3.717428E-15	1.133161E-16
4.118000E+03	3.713551E-15	1.151238E-16
4.120000E+03	3.711918E-15	1.148806E-16
4.122000E+03	3.708852E-15	1.101013E-16
4.124000E+03	3.705578E-15	1.066821E-16
4.126000E+03	3.703732E-15	1.024973E-16
4.128000E+03	3.699431E-15	1.036057E-16
4.130000E+03	3.694923E-15	1.065838E-16
4.132000E+03	3.694906E-15	1.062864E-16
4.134000E+03	3.694272E-15	1.056595E-16
4.136000E+03	3.692411E-15	1.057491E-16
4.138000E+03	3.699328E-15	1.032024E-16
4.140000E+03	3.712165E-15	1.057107E-16
4.142000E+03	3.719075E-15	1.111204E-16
4.144000E+03	3.725370E-15	1.113757E-16
4.146000E+03	3.724513E-15	1.108232E-16
4.148000E+03	3.727738E-15	1.140183E-16
4.150000E+03	3.730755E-15	1.144146E-16
4.152000E+03	3.726826E-15	1.135875E-16
4.154000E+03	3.725344E-15	1.139723E-16
4.156000E+03	3.729168E-15	1.140172E-16
4.158000E+03	3.726658E-15	1.193036E-16
4.160000E+03	3.722308E-15	1.167961E-16
4.162000E+03	3.719587E-15	1.168420E-16
4.164000E+03	3.713392E-15	1.151623E-16
4.166000E+03	3.702702E-15	1.124416E-16
4.168000E+03	3.691601E-15	1.107159E-16
4.170000E+03	3.679271E-15	1.108637E-16
4.172000E+03	3.671635E-15	1.054959E-16
4.174000E+03	3.663383E-15	1.032738E-16
4.176000E+03	3.654108E-15	1.030731E-16
4.178000E+03	3.636867E-15	1.035201E-16
4.180000E+03	3.622890E-15	1.063299E-16
4.182000E+03	3.608911E-15	1.055406E-16
4.184000E+03	3.598399E-15	1.103416E-16
4.186000E+03	3.581761E-15	1.170961E-16
4.188000E+03	3.562670E-15	1.166095E-16
4.190000E+03	3.551130E-15	1.144551E-16
4.192000E+03	3.538975E-15	1.101130E-16
4.194000E+03	3.524981E-15	1.103626E-16
4.196000E+03	3.509963E-15	1.139472E-16
4.198000E+03	3.498209E-15	1.124886E-16
4.200000E+03	3.484819E-15	1.110559E-16
4.202000E+03	3.472448E-15	1.150315E-16
4.204000E+03	3.457421E-15	1.154523E-16
4.206000E+03	3.444433E-15	1.160332E-16
4.208000E+03	3.434299E-15	1.080241E-16
4.210000E+03	3.419265E-15	1.151556E-16
4.212000E+03	3.400352E-15	1.161265E-16
