#wls	flux	fluxerr
1.600000E+03	9.993082E-17	1.178612E-16
1.640000E+03	1.012071E-16	1.191724E-16
1.680000E+03	1.025869E-16	1.205732E-16
1.720000E+03	1.040743E-16	1.220633E-16
1.760000E+03	1.056734E-16	1.236415E-16
1.800000E+03	1.074223E-16	1.253450E-16
1.840000E+03	1.093092E-16	1.271519E-16
1.880000E+03	1.113907E-16	1.291181E-16
1.920000E+03	1.136561E-16	1.312195E-16
1.960000E+03	1.161288E-16	1.334700E-16
2.000000E+03	1.188688E-16	1.359224E-16
2.040000E+03	1.219024E-16	1.385875E-16
2.080000E+03	1.252383E-16	1.414528E-16
2.120000E+03	1.289218E-16	1.445431E-16
2.160000E+03	1.330179E-16	1.478996E-16
2.200000E+03	1.375559E-16	1.515173E-16
2.240000E+03	1.425267E-16	1.553422E-16
2.280000E+03	1.479954E-16	1.593949E-16
2.320000E+03	1.539491E-16	1.636025E-16
2.360000E+03	1.603898E-16	1.679010E-16
2.400000E+03	1.673548E-16	1.722537E-16
2.440000E+03	1.747949E-16	1.765256E-16
2.480000E+03	1.827123E-16	1.806270E-16
2.520000E+03	1.910785E-16	1.844293E-16
2.560000E+03	1.998516E-16	1.877857E-16
2.600000E+03	2.089735E-16	1.905320E-16
2.640000E+03	2.183884E-16	1.925076E-16
2.680000E+03	2.280188E-16	1.935390E-16
2.720000E+03	2.377186E-16	1.934108E-16
2.760000E+03	2.473789E-16	1.919671E-16
2.800000E+03	2.568396E-16	1.890505E-16
2.840000E+03	2.658891E-16	1.845234E-16
2.880000E+03	2.742680E-16	1.782962E-16
2.920000E+03	2.816781E-16	1.703591E-16
2.960000E+03	2.879048E-16	1.608729E-16
3.000000E+03	2.926901E-16	1.500926E-16
3.010000E+03	2.936527E-16	1.472476E-16
3.020000E+03	2.945250E-16	1.443608E-16
3.030000E+03	2.952849E-16	1.414300E-16
3.040000E+03	2.959514E-16	1.384733E-16
3.050000E+03	2.965234E-16	1.354991E-16
3.060000E+03	2.969810E-16	1.325072E-16
3.070000E+03	2.973637E-16	1.295241E-16
3.080000E+03	2.976333E-16	1.265414E-16
3.090000E+03	2.978300E-16	1.235846E-16
3.100000E+03	2.979178E-16	1.206464E-16
3.110000E+03	2.979377E-16	1.177509E-16
3.120000E+03	2.978928E-16	1.149054E-16
3.130000E+03	2.977690E-16	1.121101E-16
3.140000E+03	2.975715E-16	1.093721E-16
3.150000E+03	2.973244E-16	1.067044E-16
3.160000E+03	2.970339E-16	1.041119E-16
3.170000E+03	2.967068E-16	1.015986E-16
3.180000E+03	2.963507E-16	9.916797E-17
3.190000E+03	2.959733E-16	9.682203E-17
3.200000E+03	2.955830E-16	9.456201E-17
3.210000E+03	2.952050E-16	9.239326E-17
3.220000E+03	2.948306E-16	9.030931E-17
3.230000E+03	2.945008E-16	8.831809E-17
3.240000E+03	2.941907E-16	8.640640E-17
3.250000E+03	2.939396E-16	8.457982E-17
3.260000E+03	2.937223E-16	8.282432E-17
3.270000E+03	2.935917E-16	8.114790E-17
3.280000E+03	2.935213E-16	7.953574E-17
3.290000E+03	2.935301E-16	7.798594E-17
3.300000E+03	2.936210E-16	7.649211E-17
3.310000E+03	2.938102E-16	7.505178E-17
3.320000E+03	2.940830E-16	7.365501E-17
3.330000E+03	2.944534E-16	7.229993E-17
3.340000E+03	2.949339E-16	7.098494E-17
3.350000E+03	2.955069E-16	6.970219E-17
3.360000E+03	2.961831E-16	6.845179E-17
3.370000E+03	2.969576E-16	6.723142E-17
3.380000E+03	2.978394E-16	6.604307E-17
3.390000E+03	2.988224E-16	6.488665E-17
3.400000E+03	2.999005E-16	6.376331E-17
3.410000E+03	3.010809E-16	6.267810E-17
3.420000E+03	3.023564E-16	6.163400E-17
3.430000E+03	3.037332E-16	6.063730E-17
3.440000E+03	3.052032E-16	5.969190E-17
3.450000E+03	3.067710E-16	5.880425E-17
3.460000E+03	3.084398E-16	5.798033E-17
3.470000E+03	3.101991E-16	5.722300E-17
3.480000E+03	3.120496E-16	5.653661E-17
3.490000E+03	3.139778E-16	5.592215E-17
3.500000E+03	3.159931E-16	5.538384E-17
3.510000E+03	3.180784E-16	5.492024E-17
3.520000E+03	3.202264E-16	5.453095E-17
3.530000E+03	3.224161E-16	5.421250E-17
3.540000E+03	3.246370E-16	5.396265E-17
3.550000E+03	3.268540E-16	5.377458E-17
3.560000E+03	3.290552E-16	5.364498E-17
3.570000E+03	3.311957E-16	5.356461E-17
3.580000E+03	3.332558E-16	5.352793E-17
3.590000E+03	3.352088E-16	5.352752E-17
3.600000E+03	3.370555E-16	5.355953E-17
3.610000E+03	3.387589E-16	5.361315E-17
3.620000E+03	3.403440E-16	5.368662E-17
3.630000E+03	3.417889E-16	5.377024E-17
3.640000E+03	3.431216E-16	5.386191E-17
3.650000E+03	3.443450E-16	5.395573E-17
3.660000E+03	3.454888E-16	5.405029E-17
3.670000E+03	3.465775E-16	5.414394E-17
3.680000E+03	3.476597E-16	5.423942E-17
3.690000E+03	3.487479E-16	5.433455E-17
3.700000E+03	3.498963E-16	5.443437E-17
3.710000E+03	3.511404E-16	5.454173E-17
3.720000E+03	3.525167E-16	5.466017E-17
3.730000E+03	3.540695E-16	5.479506E-17
3.740000E+03	3.558412E-16	5.495183E-17
3.750000E+03	3.578619E-16	5.513440E-17
3.760000E+03	3.601577E-16	5.534639E-17
3.770000E+03	3.627581E-16	5.559224E-17
3.780000E+03	3.656952E-16	5.587698E-17
3.790000E+03	3.689590E-16	5.619950E-17
3.800000E+03	3.725666E-16	5.656308E-17
3.810000E+03	3.765176E-16	5.696864E-17
3.820000E+03	3.807949E-16	5.741485E-17
3.830000E+03	3.853818E-16	5.790069E-17
3.840000E+03	3.902452E-16	5.842301E-17
3.850000E+03	3.953541E-16	5.897920E-17
3.860000E+03	4.006642E-16	5.956477E-17
3.870000E+03	4.061445E-16	6.017730E-17
3.880000E+03	4.117379E-16	6.081043E-17
3.890000E+03	4.174133E-16	6.146140E-17
3.900000E+03	4.231254E-16	6.212504E-17
3.910000E+03	4.288420E-16	6.279753E-17
3.920000E+03	4.345283E-16	6.347402E-17
3.930000E+03	4.401645E-16	6.415102E-17
3.940000E+03	4.457293E-16	6.482396E-17
3.950000E+03	4.512252E-16	6.549070E-17
3.960000E+03	4.566358E-16	6.614559E-17
3.970000E+03	4.619832E-16	6.678777E-17
3.980000E+03	4.672528E-16	6.741065E-17
3.990000E+03	4.724659E-16	6.801278E-17
4.000000E+03	4.776292E-16	6.859100E-17
4.010000E+03	4.827590E-16	6.914431E-17
4.020000E+03	4.878716E-16	6.967294E-17
4.030000E+03	4.929834E-16	7.017847E-17
4.040000E+03	4.980935E-16	7.066154E-17
4.050000E+03	5.032247E-16	7.112732E-17
4.060000E+03	5.083818E-16	7.157926E-17
4.070000E+03	5.135765E-16	7.202179E-17
4.080000E+03	5.188096E-16	7.245720E-17
4.090000E+03	5.240960E-16	7.288831E-17
4.100000E+03	5.294227E-16	7.331204E-17
4.110000E+03	5.347983E-16	7.372584E-17
4.120000E+03	5.402117E-16	7.412187E-17
4.130000E+03	5.456493E-16	7.448942E-17
4.140000E+03	5.511124E-16	7.481751E-17
4.150000E+03	5.565938E-16	7.509200E-17
4.160000E+03	5.620720E-16	7.529505E-17
4.170000E+03	5.675456E-16	7.541006E-17
4.180000E+03	5.730277E-16	7.542092E-17
4.190000E+03	5.785235E-16	7.530894E-17
4.200000E+03	5.840567E-16	7.505632E-17
4.210000E+03	5.896626E-16	7.464503E-17
4.220000E+03	5.953808E-16	7.405570E-17
4.230000E+03	6.012802E-16	7.327064E-17
4.240000E+03	6.074330E-16	7.227043E-17
4.250000E+03	6.139134E-16	7.103385E-17
4.260000E+03	6.208116E-16	6.953973E-17
4.270000E+03	6.282307E-16	6.776680E-17
4.280000E+03	6.362751E-16	6.569304E-17
4.290000E+03	6.450286E-16	6.329494E-17
4.300000E+03	6.545758E-16	6.055258E-17
4.310000E+03	6.650148E-16	5.745520E-17
4.320000E+03	6.763827E-16	5.400270E-17
4.330000E+03	6.887387E-16	5.022708E-17
4.340000E+03	7.020881E-16	4.621008E-17
4.350000E+03	7.164226E-16	4.212656E-17
4.360000E+03	7.316794E-16	3.830259E-17
4.370000E+03	7.477875E-16	3.528405E-17
4.380000E+03	7.646221E-16	3.381316E-17
4.390000E+03	7.820932E-16	3.455185E-17
4.400000E+03	8.001501E-16	3.763302E-17
4.410000E+03	8.187828E-16	4.260626E-17
4.420000E+03	8.379909E-16	4.882909E-17
4.430000E+03	8.577559E-16	5.576630E-17
4.440000E+03	8.779680E-16	6.304520E-17
4.450000E+03	8.984818E-16	7.042006E-17
4.460000E+03	9.190945E-16	7.772468E-17
4.470000E+03	9.395504E-16	8.483992E-17
4.480000E+03	9.595259E-16	9.167172E-17
4.490000E+03	9.786859E-16	9.814418E-17
4.500000E+03	9.966649E-16	1.041912E-16
4.510000E+03	1.013094E-15	1.097551E-16
4.520000E+03	1.027643E-15	1.147900E-16
4.530000E+03	1.039952E-15	1.192526E-16
4.540000E+03	1.049781E-15	1.231189E-16
4.550000E+03	1.056892E-15	1.263695E-16
4.560000E+03	1.061163E-15	1.290033E-16
4.570000E+03	1.062513E-15	1.310268E-16
4.580000E+03	1.060953E-15	1.324591E-16
4.590000E+03	1.056569E-15	1.333297E-16
4.600000E+03	1.049532E-15	1.336783E-16
4.610000E+03	1.040060E-15	1.335498E-16
4.620000E+03	1.028415E-15	1.329933E-16
4.630000E+03	1.014929E-15	1.320658E-16
4.640000E+03	9.999280E-16	1.308224E-16
4.650000E+03	9.837618E-16	1.293200E-16
4.660000E+03	9.667922E-16	1.276162E-16
4.670000E+03	9.493595E-16	1.257653E-16
4.680000E+03	9.318038E-16	1.238205E-16
4.690000E+03	9.144043E-16	1.218264E-16
4.700000E+03	8.974341E-16	1.198264E-16
4.710000E+03	8.811134E-16	1.178564E-16
4.720000E+03	8.656162E-16	1.159457E-16
4.730000E+03	8.510875E-16	1.141199E-16
4.740000E+03	8.375970E-16	1.123946E-16
4.750000E+03	8.252154E-16	1.107855E-16
4.760000E+03	8.139276E-16	1.092972E-16
4.770000E+03	8.037210E-16	1.079345E-16
4.780000E+03	7.945211E-16	1.066937E-16
4.790000E+03	7.862704E-16	1.055727E-16
4.800000E+03	7.788672E-16	1.045627E-16
4.810000E+03	7.722256E-16	1.036558E-16
4.820000E+03	7.662488E-16	1.028414E-16
4.830000E+03	7.608689E-16	1.021117E-16
4.840000E+03	7.560192E-16	1.014577E-16
4.850000E+03	7.516705E-16	1.008746E-16
4.860000E+03	7.478020E-16	1.003582E-16
4.870000E+03	7.444265E-16	9.990873E-17
4.880000E+03	7.415909E-16	9.953097E-17
4.890000E+03	7.393444E-16	9.923045E-17
4.900000E+03	7.377920E-16	9.902065E-17
4.910000E+03	7.370300E-16	9.891443E-17
4.920000E+03	7.372054E-16	9.893191E-17
4.930000E+03	7.384666E-16	9.909363E-17
4.940000E+03	7.409589E-16	9.941992E-17
4.950000E+03	7.448593E-16	9.993529E-17
4.960000E+03	7.503484E-16	1.006646E-16
4.970000E+03	7.575976E-16	1.016310E-16
4.980000E+03	7.667551E-16	1.028545E-16
4.990000E+03	7.779966E-16	1.043582E-16
5.000000E+03	7.914407E-16	1.061569E-16
5.010000E+03	8.071994E-16	1.082642E-16
5.020000E+03	8.253756E-16	1.106914E-16
5.030000E+03	8.460091E-16	1.134409E-16
5.040000E+03	8.691328E-16	1.165129E-16
5.050000E+03	8.947458E-16	1.199026E-16
5.060000E+03	9.227848E-16	1.235959E-16
5.070000E+03	9.531773E-16	1.275770E-16
5.080000E+03	9.858163E-16	1.318255E-16
5.090000E+03	1.020541E-15	1.363141E-16
5.100000E+03	1.057166E-15	1.410135E-16
5.110000E+03	1.095490E-15	1.458925E-16
5.120000E+03	1.135260E-15	1.509150E-16
5.130000E+03	1.176213E-15	1.560441E-16
5.140000E+03	1.218080E-15	1.612424E-16
5.150000E+03	1.260552E-15	1.664675E-16
5.160000E+03	1.303337E-15	1.716779E-16
5.170000E+03	1.346109E-15	1.768264E-16
5.180000E+03	1.388566E-15	1.818664E-16
5.190000E+03	1.430374E-15	1.867442E-16
5.200000E+03	1.471225E-15	1.914065E-16
5.210000E+03	1.510779E-15	1.957919E-16
5.220000E+03	1.548719E-15	1.998388E-16
5.230000E+03	1.584691E-15	2.034776E-16
5.240000E+03	1.618347E-15	2.066365E-16
5.250000E+03	1.649333E-15	2.092411E-16
5.260000E+03	1.677304E-15	2.112169E-16
5.270000E+03	1.701884E-15	2.124847E-16
5.280000E+03	1.722724E-15	2.129685E-16
5.290000E+03	1.739498E-15	2.125955E-16
5.300000E+03	1.751916E-15	2.112980E-16
5.310000E+03	1.759748E-15	2.090161E-16
5.320000E+03	1.762835E-15	2.056998E-16
5.330000E+03	1.761094E-15	2.013098E-16
5.340000E+03	1.754585E-15	1.958254E-16
5.350000E+03	1.743449E-15	1.892380E-16
5.360000E+03	1.727982E-15	1.815598E-16
5.370000E+03	1.708565E-15	1.728159E-16
5.380000E+03	1.685688E-15	1.630468E-16
5.390000E+03	1.659985E-15	1.523115E-16
5.400000E+03	1.632108E-15	1.406752E-16
5.410000E+03	1.602762E-15	1.282135E-16
5.420000E+03	1.572708E-15	1.150163E-16
5.430000E+03	1.542681E-15	1.011882E-16
5.440000E+03	1.513432E-15	8.687017E-17
5.450000E+03	1.485640E-15	7.227473E-17
5.460000E+03	1.459998E-15	5.779278E-17
5.470000E+03	1.437098E-15	4.425662E-17
5.480000E+03	1.417389E-15	3.363570E-17
5.490000E+03	1.401174E-15	2.976054E-17
5.500000E+03	1.388451E-15	3.472467E-17
5.510000E+03	1.378966E-15	4.502541E-17
5.520000E+03	1.372212E-15	5.706338E-17
5.530000E+03	1.367604E-15	6.922455E-17
5.540000E+03	1.364555E-15	8.086804E-17
5.550000E+03	1.362535E-15	9.172881E-17
5.560000E+03	1.361059E-15	1.016955E-16
5.570000E+03	1.359754E-15	1.107313E-16
5.580000E+03	1.358307E-15	1.188365E-16
5.590000E+03	1.356518E-15	1.260373E-16
5.600000E+03	1.354256E-15	1.323750E-16
5.610000E+03	1.351477E-15	1.379045E-16
5.620000E+03	1.348162E-15	1.426850E-16
5.630000E+03	1.344400E-15	1.467877E-16
5.640000E+03	1.340297E-15	1.502848E-16
5.650000E+03	1.335985E-15	1.532499E-16
5.660000E+03	1.331605E-15	1.557544E-16
5.670000E+03	1.327325E-15	1.578705E-16
5.680000E+03	1.323315E-15	1.596661E-16
5.690000E+03	1.319690E-15	1.611993E-16
5.700000E+03	1.316603E-15	1.625288E-16
5.710000E+03	1.314161E-15	1.637040E-16
5.720000E+03	1.312435E-15	1.647666E-16
5.730000E+03	1.311503E-15	1.657560E-16
5.740000E+03	1.311395E-15	1.667027E-16
5.750000E+03	1.312144E-15	1.676351E-16
5.760000E+03	1.313763E-15	1.685766E-16
5.770000E+03	1.316200E-15	1.695398E-16
5.780000E+03	1.319418E-15	1.705368E-16
5.790000E+03	1.323340E-15	1.715717E-16
5.800000E+03	1.327867E-15	1.726425E-16
5.810000E+03	1.332875E-15	1.737414E-16
5.820000E+03	1.338235E-15	1.748565E-16
5.830000E+03	1.343764E-15	1.759663E-16
5.840000E+03	1.349328E-15	1.770527E-16
5.850000E+03	1.354744E-15	1.780900E-16
5.860000E+03	1.359848E-15	1.790533E-16
5.870000E+03	1.364492E-15	1.799193E-16
5.880000E+03	1.368491E-15	1.806608E-16
5.890000E+03	1.371723E-15	1.812596E-16
5.900000E+03	1.374017E-15	1.816931E-16
5.910000E+03	1.375269E-15	1.819492E-16
5.920000E+03	1.375330E-15	1.820120E-16
5.930000E+03	1.374116E-15	1.818753E-16
5.940000E+03	1.371556E-15	1.815350E-16
5.950000E+03	1.367615E-15	1.809920E-16
5.960000E+03	1.362286E-15	1.802501E-16
5.970000E+03	1.355627E-15	1.793202E-16
5.980000E+03	1.347742E-15	1.782189E-16
5.990000E+03	1.338804E-15	1.769700E-16
6.000000E+03	1.328983E-15	1.755969E-16
6.010000E+03	1.318532E-15	1.741328E-16
6.020000E+03	1.307713E-15	1.726125E-16
6.030000E+03	1.296794E-15	1.710709E-16
6.040000E+03	1.286071E-15	1.695470E-16
6.050000E+03	1.275794E-15	1.680739E-16
6.060000E+03	1.266239E-15	1.666882E-16
6.070000E+03	1.257658E-15	1.654235E-16
6.080000E+03	1.250230E-15	1.643039E-16
6.090000E+03	1.244141E-15	1.633544E-16
6.100000E+03	1.239522E-15	1.625926E-16
6.110000E+03	1.236477E-15	1.620323E-16
6.120000E+03	1.235038E-15	1.616774E-16
6.130000E+03	1.235223E-15	1.615289E-16
6.140000E+03	1.236994E-15	1.615804E-16
6.150000E+03	1.240306E-15	1.618234E-16
6.160000E+03	1.245065E-15	1.622428E-16
6.170000E+03	1.251128E-15	1.628161E-16
6.180000E+03	1.258360E-15	1.635215E-16
6.190000E+03	1.266630E-15	1.643367E-16
6.200000E+03	1.275748E-15	1.652308E-16
6.210000E+03	1.285569E-15	1.661776E-16
6.220000E+03	1.295926E-15	1.671465E-16
6.230000E+03	1.306657E-15	1.681063E-16
6.240000E+03	1.317625E-15	1.690271E-16
6.250000E+03	1.328709E-15	1.698793E-16
6.260000E+03	1.339740E-15	1.706261E-16
6.270000E+03	1.350589E-15	1.712334E-16
6.280000E+03	1.361080E-15	1.716599E-16
6.290000E+03	1.371050E-15	1.718640E-16
6.300000E+03	1.380286E-15	1.717958E-16
6.310000E+03	1.388587E-15	1.714047E-16
6.320000E+03	1.395709E-15	1.706326E-16
6.330000E+03	1.401419E-15	1.694205E-16
6.340000E+03	1.405509E-15	1.677102E-16
6.350000E+03	1.407737E-15	1.654387E-16
6.360000E+03	1.407962E-15	1.625531E-16
6.370000E+03	1.406018E-15	1.589981E-16
6.380000E+03	1.401829E-15	1.547286E-16
6.390000E+03	1.395363E-15	1.497065E-16
6.400000E+03	1.386676E-15	1.439049E-16
6.410000E+03	1.375865E-15	1.373039E-16
6.420000E+03	1.363151E-15	1.298998E-16
6.430000E+03	1.348747E-15	1.216917E-16
6.440000E+03	1.333011E-15	1.126983E-16
6.450000E+03	1.316300E-15	1.029445E-16
6.460000E+03	1.299063E-15	9.247497E-17
6.470000E+03	1.281785E-15	8.135622E-17
6.480000E+03	1.264983E-15	6.969478E-17
6.490000E+03	1.249168E-15	5.767747E-17
6.500000E+03	1.234848E-15	4.568078E-17
6.510000E+03	1.222425E-15	3.457090E-17
6.520000E+03	1.212175E-15	2.648688E-17
6.530000E+03	1.204235E-15	2.518815E-17
6.540000E+03	1.198613E-15	3.139049E-17
6.550000E+03	1.195189E-15	4.133119E-17
6.560000E+03	1.193749E-15	5.231516E-17
6.570000E+03	1.193952E-15	6.325272E-17
6.580000E+03	1.195410E-15	7.371507E-17
6.590000E+03	1.197728E-15	8.352218E-17
6.600000E+03	1.200570E-15	9.259993E-17
6.610000E+03	1.203596E-15	1.009199E-16
6.620000E+03	1.206526E-15	1.084804E-16
6.630000E+03	1.209148E-15	1.152965E-16
6.640000E+03	1.211283E-15	1.213923E-16
6.650000E+03	1.212795E-15	1.267992E-16
6.660000E+03	1.213608E-15	1.315558E-16
6.670000E+03	1.213636E-15	1.356994E-16
6.680000E+03	1.212887E-15	1.392769E-16
6.690000E+03	1.211368E-15	1.423336E-16
6.700000E+03	1.209105E-15	1.449151E-16
6.710000E+03	1.206127E-15	1.470644E-16
6.720000E+03	1.202506E-15	1.488276E-16
6.730000E+03	1.198308E-15	1.502468E-16
6.740000E+03	1.193601E-15	1.513622E-16
6.750000E+03	1.188459E-15	1.522113E-16
6.760000E+03	1.182973E-15	1.528315E-16
6.770000E+03	1.177184E-15	1.532512E-16
6.780000E+03	1.171197E-15	1.535047E-16
6.790000E+03	1.165054E-15	1.536155E-16
6.800000E+03	1.158856E-15	1.536130E-16
6.810000E+03	1.152670E-15	1.535203E-16
6.820000E+03	1.146528E-15	1.533535E-16
6.830000E+03	1.140517E-15	1.531353E-16
6.840000E+03	1.134670E-15	1.528794E-16
6.850000E+03	1.129043E-15	1.526013E-16
6.860000E+03	1.123646E-15	1.523097E-16
6.870000E+03	1.118500E-15	1.520131E-16
6.880000E+03	1.113612E-15	1.517177E-16
6.890000E+03	1.108999E-15	1.514300E-16
6.900000E+03	1.104636E-15	1.511504E-16
6.910000E+03	1.100515E-15	1.508804E-16
6.920000E+03	1.096621E-15	1.506209E-16
6.930000E+03	1.092960E-15	1.503749E-16
6.940000E+03	1.089489E-15	1.501389E-16
6.950000E+03	1.086237E-15	1.499188E-16
6.960000E+03	1.083189E-15	1.497148E-16
6.970000E+03	1.080354E-15	1.495299E-16
6.980000E+03	1.077765E-15	1.493706E-16
6.990000E+03	1.075414E-15	1.492374E-16
7.000000E+03	1.073345E-15	1.491381E-16
7.010000E+03	1.071592E-15	1.490785E-16
7.020000E+03	1.070189E-15	1.490642E-16
7.030000E+03	1.069168E-15	1.491000E-16
7.040000E+03	1.068535E-15	1.491875E-16
7.050000E+03	1.068339E-15	1.493330E-16
7.060000E+03	1.068546E-15	1.495320E-16
7.070000E+03	1.069157E-15	1.497841E-16
7.080000E+03	1.070125E-15	1.500822E-16
7.090000E+03	1.071415E-15	1.504212E-16
7.100000E+03	1.072946E-15	1.507894E-16
7.110000E+03	1.074654E-15	1.511779E-16
7.120000E+03	1.076447E-15	1.515741E-16
7.130000E+03	1.078191E-15	1.519596E-16
7.140000E+03	1.079828E-15	1.523272E-16
7.150000E+03	1.081201E-15	1.526554E-16
7.160000E+03	1.082235E-15	1.529346E-16
7.170000E+03	1.082793E-15	1.531465E-16
7.180000E+03	1.082815E-15	1.532833E-16
7.190000E+03	1.082200E-15	1.533311E-16
7.200000E+03	1.080878E-15	1.532808E-16
7.210000E+03	1.078815E-15	1.531275E-16
7.220000E+03	1.075940E-15	1.528617E-16
7.230000E+03	1.072258E-15	1.524840E-16
7.240000E+03	1.067757E-15	1.519932E-16
7.250000E+03	1.062500E-15	1.513981E-16
7.260000E+03	1.056500E-15	1.507007E-16
7.270000E+03	1.049855E-15	1.499153E-16
7.280000E+03	1.042595E-15	1.490459E-16
7.290000E+03	1.034862E-15	1.481126E-16
7.300000E+03	1.026717E-15	1.471246E-16
7.310000E+03	1.018280E-15	1.460981E-16
7.320000E+03	1.009634E-15	1.450449E-16
7.330000E+03	1.000893E-15	1.439808E-16
7.340000E+03	9.921357E-16	1.429164E-16
7.350000E+03	9.834670E-16	1.418662E-16
7.360000E+03	9.749724E-16	1.408417E-16
7.370000E+03	9.667005E-16	1.398495E-16
7.380000E+03	9.587783E-16	1.389073E-16
7.390000E+03	9.512340E-16	1.380186E-16
7.400000E+03	9.441911E-16	1.372009E-16
7.410000E+03	9.376928E-16	1.364597E-16
7.420000E+03	9.318309E-16	1.358075E-16
7.430000E+03	9.266660E-16	1.352519E-16
7.440000E+03	9.223077E-16	1.348077E-16
7.450000E+03	9.188028E-16	1.344804E-16
7.460000E+03	9.162303E-16	1.342801E-16
7.470000E+03	9.146829E-16	1.342193E-16
7.480000E+03	9.142193E-16	1.343058E-16
7.490000E+03	9.149234E-16	1.345513E-16
7.500000E+03	9.168239E-16	1.349601E-16
7.510000E+03	9.200017E-16	1.355443E-16
7.520000E+03	9.244607E-16	1.363050E-16
7.530000E+03	9.302371E-16	1.372480E-16
7.540000E+03	9.373339E-16	1.383743E-16
7.550000E+03	9.457364E-16	1.396819E-16
7.560000E+03	9.554113E-16	1.411657E-16
7.570000E+03	9.662901E-16	1.428148E-16
7.580000E+03	9.783208E-16	1.446197E-16
7.590000E+03	9.914186E-16	1.465658E-16
7.600000E+03	1.005485E-15	1.486351E-16
7.610000E+03	1.020409E-15	1.508075E-16
7.620000E+03	1.036053E-15	1.530579E-16
7.630000E+03	1.052307E-15	1.553653E-16
7.640000E+03	1.069038E-15	1.577052E-16
7.650000E+03	1.086092E-15	1.600502E-16
7.660000E+03	1.103370E-15	1.623813E-16
7.670000E+03	1.120694E-15	1.646687E-16
7.680000E+03	1.137946E-15	1.668913E-16
7.690000E+03	1.154967E-15	1.690227E-16
7.700000E+03	1.171664E-15	1.710454E-16
7.710000E+03	1.187859E-15	1.729293E-16
7.720000E+03	1.203438E-15	1.746531E-16
7.730000E+03	1.218270E-15	1.761911E-16
7.740000E+03	1.232201E-15	1.775135E-16
7.750000E+03	1.245123E-15	1.785952E-16
7.760000E+03	1.256906E-15	1.794063E-16
