#wls	flux	fluxerr
1.600000E+03	3.972521E-17	4.684551E-17
1.640000E+03	4.000912E-17	4.710221E-17
1.680000E+03	4.032128E-17	4.738012E-17
1.720000E+03	4.067071E-17	4.768798E-17
1.760000E+03	4.105898E-17	4.802545E-17
1.800000E+03	4.149560E-17	4.840109E-17
1.840000E+03	4.197459E-17	4.880497E-17
1.880000E+03	4.250574E-17	4.924511E-17
1.920000E+03	4.309926E-17	4.972935E-17
1.960000E+03	4.375759E-17	5.025582E-17
2.000000E+03	4.448321E-17	5.082199E-17
2.040000E+03	4.528709E-17	5.143410E-17
2.080000E+03	4.617206E-17	5.208807E-17
2.120000E+03	4.715834E-17	5.279808E-17
2.160000E+03	4.823178E-17	5.353826E-17
2.200000E+03	4.940391E-17	5.431012E-17
2.240000E+03	5.068649E-17	5.511339E-17
2.280000E+03	5.207301E-17	5.592578E-17
2.320000E+03	5.357454E-17	5.674201E-17
2.360000E+03	5.518285E-17	5.753380E-17
2.400000E+03	5.690741E-17	5.828920E-17
2.440000E+03	5.873711E-17	5.897233E-17
2.480000E+03	6.066840E-17	5.955296E-17
2.520000E+03	6.269531E-17	5.999624E-17
2.560000E+03	6.480897E-17	6.026261E-17
2.600000E+03	6.699693E-17	6.030784E-17
2.640000E+03	6.924240E-17	6.008351E-17
2.680000E+03	7.152351E-17	5.953787E-17
2.720000E+03	7.380147E-17	5.860869E-17
2.760000E+03	7.605245E-17	5.725253E-17
2.800000E+03	7.823443E-17	5.542077E-17
2.840000E+03	8.028608E-17	5.306622E-17
2.880000E+03	8.216017E-17	5.017287E-17
2.920000E+03	8.379036E-17	4.673985E-17
2.960000E+03	8.511448E-17	4.280564E-17
3.000000E+03	8.607629E-17	3.845731E-17
3.010000E+03	8.625447E-17	3.732130E-17
3.020000E+03	8.640852E-17	3.617210E-17
3.030000E+03	8.652624E-17	3.500815E-17
3.040000E+03	8.662833E-17	3.384170E-17
3.050000E+03	8.669182E-17	3.266763E-17
3.060000E+03	8.672654E-17	3.149429E-17
3.070000E+03	8.673151E-17	3.032595E-17
3.080000E+03	8.670587E-17	2.916728E-17
3.090000E+03	8.664891E-17	2.802325E-17
3.100000E+03	8.657062E-17	2.690245E-17
3.110000E+03	8.644975E-17	2.580382E-17
3.120000E+03	8.630729E-17	2.473951E-17
3.130000E+03	8.613331E-17	2.371221E-17
3.140000E+03	8.592892E-17	2.272781E-17
3.150000E+03	8.570594E-17	2.179457E-17
3.160000E+03	8.545682E-17	2.091502E-17
3.170000E+03	8.519505E-17	2.009617E-17
3.180000E+03	8.492523E-17	1.934156E-17
3.190000E+03	8.464380E-17	1.865159E-17
3.200000E+03	8.436814E-17	1.802985E-17
3.210000E+03	8.411684E-17	1.747836E-17
3.220000E+03	8.388178E-17	1.699194E-17
3.230000E+03	8.368463E-17	1.657034E-17
3.240000E+03	8.354771E-17	1.621219E-17
3.250000E+03	8.347562E-17	1.591188E-17
3.260000E+03	8.348233E-17	1.566540E-17
3.270000E+03	8.359026E-17	1.547030E-17
3.280000E+03	8.380303E-17	1.532090E-17
3.290000E+03	8.414935E-17	1.521661E-17
3.300000E+03	8.462087E-17	1.515066E-17
3.310000E+03	8.524222E-17	1.512285E-17
3.320000E+03	8.600067E-17	1.512687E-17
3.330000E+03	8.691578E-17	1.516271E-17
3.340000E+03	8.797829E-17	1.522573E-17
3.350000E+03	8.919367E-17	1.531433E-17
3.360000E+03	9.055619E-17	1.542540E-17
3.370000E+03	9.205776E-17	1.555587E-17
3.380000E+03	9.368820E-17	1.570276E-17
3.390000E+03	9.543553E-17	1.586329E-17
3.400000E+03	9.728622E-17	1.603485E-17
3.410000E+03	9.923447E-17	1.621656E-17
3.420000E+03	1.012645E-16	1.640623E-17
3.430000E+03	1.033597E-16	1.660182E-17
3.440000E+03	1.055027E-16	1.680136E-17
3.450000E+03	1.076757E-16	1.700291E-17
3.460000E+03	1.098708E-16	1.720601E-17
3.470000E+03	1.120613E-16	1.740724E-17
3.480000E+03	1.142410E-16	1.760624E-17
3.490000E+03	1.163952E-16	1.780128E-17
3.500000E+03	1.185114E-16	1.799091E-17
3.510000E+03	1.205881E-16	1.817548E-17
3.520000E+03	1.226064E-16	1.835285E-17
3.530000E+03	1.245674E-16	1.852419E-17
3.540000E+03	1.264630E-16	1.868968E-17
3.550000E+03	1.282840E-16	1.884982E-17
3.560000E+03	1.300194E-16	1.900523E-17
3.570000E+03	1.316554E-16	1.915641E-17
3.580000E+03	1.331844E-16	1.930472E-17
3.590000E+03	1.345863E-16	1.944930E-17
3.600000E+03	1.358386E-16	1.958815E-17
3.610000E+03	1.369179E-16	1.971807E-17
3.620000E+03	1.378011E-16	1.983479E-17
3.630000E+03	1.384671E-16	1.993344E-17
3.640000E+03	1.389075E-16	2.001040E-17
3.650000E+03	1.391025E-16	2.006022E-17
3.660000E+03	1.390593E-16	2.008135E-17
3.670000E+03	1.387798E-16	2.007177E-17
3.680000E+03	1.383048E-16	2.003546E-17
3.690000E+03	1.376651E-16	1.997529E-17
3.700000E+03	1.369142E-16	1.989784E-17
3.710000E+03	1.361184E-16	1.981185E-17
3.720000E+03	1.353538E-16	1.972773E-17
3.730000E+03	1.347096E-16	1.965796E-17
3.740000E+03	1.342623E-16	1.961331E-17
3.750000E+03	1.341008E-16	1.960648E-17
3.760000E+03	1.342948E-16	1.964743E-17
3.770000E+03	1.349196E-16	1.974706E-17
3.780000E+03	1.360272E-16	1.991295E-17
3.790000E+03	1.376711E-16	2.015302E-17
3.800000E+03	1.398850E-16	2.047240E-17
3.810000E+03	1.426815E-16	2.087324E-17
3.820000E+03	1.460701E-16	2.135724E-17
3.830000E+03	1.500364E-16	2.192259E-17
3.840000E+03	1.545470E-16	2.256456E-17
3.850000E+03	1.595420E-16	2.327441E-17
3.860000E+03	1.649485E-16	2.404131E-17
3.870000E+03	1.706895E-16	2.485362E-17
3.880000E+03	1.766389E-16	2.569246E-17
3.890000E+03	1.826944E-16	2.654247E-17
3.900000E+03	1.887368E-16	2.738581E-17
3.910000E+03	1.946423E-16	2.820420E-17
3.920000E+03	2.003049E-16	2.898203E-17
3.930000E+03	2.056356E-16	2.970634E-17
3.940000E+03	2.105674E-16	3.036748E-17
3.950000E+03	2.150585E-16	3.095949E-17
3.960000E+03	2.190926E-16	3.148013E-17
3.970000E+03	2.226691E-16	3.192951E-17
3.980000E+03	2.258146E-16	3.231163E-17
3.990000E+03	2.285777E-16	3.263358E-17
4.000000E+03	2.310016E-16	3.290165E-17
4.010000E+03	2.331418E-16	3.312370E-17
4.020000E+03	2.350554E-16	3.330754E-17
4.030000E+03	2.367913E-16	3.345951E-17
4.040000E+03	2.384038E-16	3.358636E-17
4.050000E+03	2.399519E-16	3.369511E-17
4.060000E+03	2.414716E-16	3.378934E-17
4.070000E+03	2.430176E-16	3.387502E-17
4.080000E+03	2.446288E-16	3.395580E-17
4.090000E+03	2.463550E-16	3.403663E-17
4.100000E+03	2.482233E-16	3.411917E-17
4.110000E+03	2.502777E-16	3.420696E-17
4.120000E+03	2.525523E-16	3.430174E-17
4.130000E+03	2.550660E-16	3.440259E-17
4.140000E+03	2.578605E-16	3.451093E-17
4.150000E+03	2.609444E-16	3.462297E-17
4.160000E+03	2.643549E-16	3.473789E-17
4.170000E+03	2.681074E-16	3.485105E-17
4.180000E+03	2.722128E-16	3.495620E-17
4.190000E+03	2.766872E-16	3.504670E-17
4.200000E+03	2.815256E-16	3.511208E-17
4.210000E+03	2.867126E-16	3.513949E-17
4.220000E+03	2.922339E-16	3.511521E-17
4.230000E+03	2.980470E-16	3.502126E-17
4.240000E+03	3.041208E-16	3.484044E-17
4.250000E+03	3.104157E-16	3.455416E-17
4.260000E+03	3.168828E-16	3.414278E-17
4.270000E+03	3.235008E-16	3.359007E-17
4.280000E+03	3.302490E-16	3.288069E-17
4.290000E+03	3.371287E-16	3.200323E-17
4.300000E+03	3.441499E-16	3.095009E-17
4.310000E+03	3.513460E-16	2.972111E-17
4.320000E+03	3.587347E-16	2.832403E-17
4.330000E+03	3.663460E-16	2.678365E-17
4.340000E+03	3.741715E-16	2.514876E-17
4.350000E+03	3.821974E-16	2.351105E-17
4.360000E+03	3.903415E-16	2.202143E-17
4.370000E+03	3.984906E-16	2.090625E-17
4.380000E+03	4.065015E-16	2.044160E-17
4.390000E+03	4.142923E-16	2.085478E-17
4.400000E+03	4.218718E-16	2.219265E-17
4.410000E+03	4.294154E-16	2.431196E-17
4.420000E+03	4.371343E-16	2.698946E-17
4.430000E+03	4.452276E-16	3.002415E-17
4.440000E+03	4.538697E-16	3.327249E-17
4.450000E+03	4.631486E-16	3.663947E-17
4.460000E+03	4.731106E-16	4.006619E-17
4.470000E+03	4.837302E-16	4.351342E-17
4.480000E+03	4.949021E-16	4.695009E-17
4.490000E+03	5.064719E-16	5.034868E-17
4.500000E+03	5.182318E-16	5.368043E-17
4.510000E+03	5.298957E-16	5.690960E-17
4.520000E+03	5.411531E-16	5.999724E-17
4.530000E+03	5.516431E-16	6.289749E-17
4.540000E+03	5.609921E-16	6.556151E-17
4.550000E+03	5.688173E-16	6.793804E-17
4.560000E+03	5.747711E-16	6.997920E-17
4.570000E+03	5.785314E-16	7.164007E-17
4.580000E+03	5.798469E-16	7.288502E-17
4.590000E+03	5.785569E-16	7.369079E-17
4.600000E+03	5.745745E-16	7.404498E-17
4.610000E+03	5.679357E-16	7.395257E-17
4.620000E+03	5.587931E-16	7.343528E-17
4.630000E+03	5.473935E-16	7.252882E-17
4.640000E+03	5.340583E-16	7.128008E-17
4.650000E+03	5.191990E-16	6.974922E-17
4.660000E+03	5.032700E-16	6.800320E-17
4.670000E+03	4.867165E-16	6.610863E-17
4.680000E+03	4.700148E-16	6.413693E-17
4.690000E+03	4.535734E-16	6.215072E-17
4.700000E+03	4.377787E-16	6.020964E-17
4.710000E+03	4.229515E-16	5.836425E-17
4.720000E+03	4.093479E-16	5.665587E-17
4.730000E+03	3.971524E-16	5.511545E-17
4.740000E+03	3.864959E-16	5.376591E-17
4.750000E+03	3.774405E-16	5.261999E-17
4.760000E+03	3.700001E-16	5.168307E-17
4.770000E+03	3.641376E-16	5.095282E-17
4.780000E+03	3.597880E-16	5.042252E-17
4.790000E+03	3.568410E-16	5.007866E-17
4.800000E+03	3.551456E-16	4.990174E-17
4.810000E+03	3.545403E-16	4.987047E-17
4.820000E+03	3.548327E-16	4.995901E-17
4.830000E+03	3.558153E-16	5.013915E-17
4.840000E+03	3.572756E-16	5.038178E-17
4.850000E+03	3.590118E-16	5.065911E-17
4.860000E+03	3.608372E-16	5.094529E-17
4.870000E+03	3.626004E-16	5.121930E-17
4.880000E+03	3.641851E-16	5.146498E-17
4.890000E+03	3.655191E-16	5.167220E-17
4.900000E+03	3.665778E-16	5.183745E-17
4.910000E+03	3.673716E-16	5.196201E-17
4.920000E+03	3.679395E-16	5.205101E-17
4.930000E+03	3.683615E-16	5.211537E-17
4.940000E+03	3.687146E-16	5.216546E-17
4.950000E+03	3.690989E-16	5.221510E-17
4.960000E+03	3.696208E-16	5.227914E-17
4.970000E+03	3.703852E-16	5.237244E-17
4.980000E+03	3.714979E-16	5.251012E-17
4.990000E+03	3.730637E-16	5.270731E-17
5.000000E+03	3.751859E-16	5.297884E-17
5.010000E+03	3.779694E-16	5.333958E-17
5.020000E+03	3.815152E-16	5.380356E-17
5.030000E+03	3.859063E-16	5.438180E-17
5.040000E+03	3.912346E-16	5.508617E-17
5.050000E+03	3.975735E-16	5.592551E-17
5.060000E+03	4.049797E-16	5.690597E-17
5.070000E+03	4.135053E-16	5.803272E-17
5.080000E+03	4.231880E-16	5.930870E-17
5.090000E+03	4.340369E-16	6.073263E-17
5.100000E+03	4.460637E-16	6.230346E-17
5.110000E+03	4.592491E-16	6.401564E-17
5.120000E+03	4.735653E-16	6.586225E-17
5.130000E+03	4.889597E-16	6.783267E-17
5.140000E+03	5.053528E-16	6.991225E-17
5.150000E+03	5.226530E-16	7.208420E-17
5.160000E+03	5.407463E-16	7.432813E-17
5.170000E+03	5.594789E-16	7.661750E-17
5.180000E+03	5.786918E-16	7.892431E-17
5.190000E+03	5.981987E-16	8.121608E-17
5.200000E+03	6.177934E-16	8.345677E-17
5.210000E+03	6.372577E-16	8.560795E-17
5.220000E+03	6.563377E-16	8.762572E-17
5.230000E+03	6.747943E-16	8.946764E-17
5.240000E+03	6.923613E-16	9.108729E-17
5.250000E+03	7.087800E-16	9.243905E-17
5.260000E+03	7.238091E-16	9.347957E-17
5.270000E+03	7.372054E-16	9.416543E-17
5.280000E+03	7.487874E-16	9.446166E-17
5.290000E+03	7.583936E-16	9.433641E-17
5.300000E+03	7.659291E-16	9.376705E-17
5.310000E+03	7.713305E-16	9.273585E-17
5.320000E+03	7.746229E-16	9.123676E-17
5.330000E+03	7.758603E-16	8.926800E-17
5.340000E+03	7.751519E-16	8.683492E-17
5.350000E+03	7.726464E-16	8.394780E-17
5.360000E+03	7.685244E-16	8.062057E-17
5.370000E+03	7.629903E-16	7.686963E-17
5.380000E+03	7.562725E-16	7.271361E-17
5.390000E+03	7.485848E-16	6.816970E-17
5.400000E+03	7.401748E-16	6.325892E-17
5.410000E+03	7.312580E-16	5.800152E-17
5.420000E+03	7.220788E-16	5.242529E-17
5.430000E+03	7.128642E-16	4.656728E-17
5.440000E+03	7.038599E-16	4.048776E-17
5.450000E+03	6.953721E-16	3.429549E-17
5.460000E+03	6.877495E-16	2.819740E-17
5.470000E+03	6.814227E-16	2.261950E-17
5.480000E+03	6.769012E-16	1.843899E-17
5.490000E+03	6.745949E-16	1.703490E-17
5.500000E+03	6.745722E-16	1.908884E-17
5.510000E+03	6.764450E-16	2.355934E-17
5.520000E+03	6.795571E-16	2.910774E-17
5.530000E+03	6.832281E-16	3.495971E-17
5.540000E+03	6.868986E-16	4.073465E-17
5.550000E+03	6.901214E-16	4.623661E-17
5.560000E+03	6.926048E-16	5.136061E-17
5.570000E+03	6.941530E-16	5.604926E-17
5.580000E+03	6.946800E-16	6.027668E-17
5.590000E+03	6.941946E-16	6.403972E-17
5.600000E+03	6.927622E-16	6.735070E-17
5.610000E+03	6.905126E-16	7.023553E-17
5.620000E+03	6.875923E-16	7.272728E-17
5.630000E+03	6.841668E-16	7.486468E-17
5.640000E+03	6.804049E-16	7.668914E-17
5.650000E+03	6.764481E-16	7.824023E-17
5.660000E+03	6.724251E-16	7.955622E-17
5.670000E+03	6.684442E-16	8.067260E-17
5.680000E+03	6.645955E-16	8.162181E-17
5.690000E+03	6.609610E-16	8.243418E-17
5.700000E+03	6.575923E-16	8.313500E-17
5.710000E+03	6.545598E-16	8.375039E-17
5.720000E+03	6.519011E-16	8.430088E-17
5.730000E+03	6.496661E-16	8.480699E-17
5.740000E+03	6.478883E-16	8.528561E-17
5.750000E+03	6.465818E-16	8.574960E-17
5.760000E+03	6.457566E-16	8.620987E-17
5.770000E+03	6.453905E-16	8.667189E-17
5.780000E+03	6.454541E-16	8.713900E-17
5.790000E+03	6.458809E-16	8.760854E-17
5.800000E+03	6.466145E-16	8.807835E-17
5.810000E+03	6.475695E-16	8.854156E-17
5.820000E+03	6.486554E-16	8.898992E-17
5.830000E+03	6.497931E-16	8.941617E-17
5.840000E+03	6.508999E-16	8.981205E-17
5.850000E+03	6.518922E-16	9.016865E-17
5.860000E+03	6.527004E-16	9.047843E-17
5.870000E+03	6.532645E-16	9.073470E-17
5.880000E+03	6.535299E-16	9.093107E-17
5.890000E+03	6.534733E-16	9.106524E-17
5.900000E+03	6.530599E-16	9.113319E-17
5.910000E+03	6.522809E-16	9.113460E-17
5.920000E+03	6.511411E-16	9.107113E-17
5.930000E+03	6.496599E-16	9.094652E-17
5.940000E+03	6.478718E-16	9.076654E-17
5.950000E+03	6.458209E-16	9.053807E-17
5.960000E+03	6.435737E-16	9.027080E-17
5.970000E+03	6.412163E-16	8.997690E-17
5.980000E+03	6.388259E-16	8.966710E-17
5.990000E+03	6.365016E-16	8.935526E-17
6.000000E+03	6.343325E-16	8.905398E-17
6.010000E+03	6.323855E-16	8.877292E-17
6.020000E+03	6.307356E-16	8.852308E-17
6.030000E+03	6.294192E-16	8.831016E-17
6.040000E+03	6.284569E-16	8.813756E-17
6.050000E+03	6.278465E-16	8.800539E-17
6.060000E+03	6.275588E-16	8.790964E-17
6.070000E+03	6.275639E-16	8.784592E-17
6.080000E+03	6.277991E-16	8.780487E-17
6.090000E+03	6.281905E-16	8.777536E-17
6.100000E+03	6.286760E-16	8.774780E-17
6.110000E+03	6.291787E-16	8.771057E-17
6.120000E+03	6.296168E-16	8.765148E-17
6.130000E+03	6.299314E-16	8.756159E-17
6.140000E+03	6.300599E-16	8.743141E-17
6.150000E+03	6.299466E-16	8.725228E-17
6.160000E+03	6.295723E-16	8.702036E-17
6.170000E+03	6.289244E-16	8.673229E-17
6.180000E+03	6.280197E-16	8.638841E-17
6.190000E+03	6.269089E-16	8.599325E-17
6.200000E+03	6.256936E-16	8.555793E-17
6.210000E+03	6.244788E-16	8.509356E-17
6.220000E+03	6.234118E-16	8.461653E-17
6.230000E+03	6.226262E-16	8.414069E-17
6.240000E+03	6.222512E-16	8.367857E-17
6.250000E+03	6.223795E-16	8.323683E-17
6.260000E+03	6.230928E-16	8.281958E-17
6.270000E+03	6.244063E-16	8.242092E-17
6.280000E+03	6.263089E-16	8.203031E-17
6.290000E+03	6.287414E-16	8.162973E-17
6.300000E+03	6.316019E-16	8.119441E-17
6.310000E+03	6.347656E-16	8.069556E-17
6.320000E+03	6.380998E-16	8.010232E-17
6.330000E+03	6.414401E-16	7.937886E-17
6.340000E+03	6.446210E-16	7.848862E-17
6.350000E+03	6.474799E-16	7.739502E-17
6.360000E+03	6.498458E-16	7.606061E-17
6.370000E+03	6.515468E-16	7.444850E-17
6.380000E+03	6.524178E-16	7.252402E-17
6.390000E+03	6.522852E-16	7.025373E-17
6.400000E+03	6.510070E-16	6.761066E-17
6.410000E+03	6.484513E-16	6.457264E-17
6.420000E+03	6.445162E-16	6.112533E-17
6.430000E+03	6.391652E-16	5.726628E-17
6.440000E+03	6.324283E-16	5.300529E-17
6.450000E+03	6.244011E-16	4.836503E-17
6.460000E+03	6.152735E-16	4.338462E-17
6.470000E+03	6.053282E-16	3.812192E-17
6.480000E+03	5.949483E-16	3.266078E-17
6.490000E+03	5.845967E-16	2.712772E-17
6.500000E+03	5.748291E-16	2.174032E-17
6.510000E+03	5.662796E-16	1.693050E-17
6.520000E+03	5.595724E-16	1.359778E-17
6.530000E+03	5.551726E-16	1.305255E-17
6.540000E+03	5.531788E-16	1.550127E-17
6.550000E+03	5.532733E-16	1.965748E-17
6.560000E+03	5.549467E-16	2.444376E-17
6.570000E+03	5.576889E-16	2.934971E-17
6.580000E+03	5.610677E-16	3.414903E-17
6.590000E+03	5.647348E-16	3.873409E-17
6.600000E+03	5.684067E-16	4.304907E-17
6.610000E+03	5.718709E-16	4.706451E-17
6.620000E+03	5.749827E-16	5.076655E-17
6.630000E+03	5.776247E-16	5.414882E-17
6.640000E+03	5.797305E-16	5.721227E-17
6.650000E+03	5.812611E-16	5.996227E-17
6.660000E+03	5.821999E-16	6.240787E-17
6.670000E+03	5.825751E-16	6.456434E-17
6.680000E+03	5.824166E-16	6.644874E-17
6.690000E+03	5.817833E-16	6.808276E-17
6.700000E+03	5.807374E-16	6.948944E-17
6.710000E+03	5.793443E-16	7.069249E-17
6.720000E+03	5.776666E-16	7.171495E-17
6.730000E+03	5.757593E-16	7.257809E-17
6.740000E+03	5.736683E-16	7.330091E-17
6.750000E+03	5.714375E-16	7.390099E-17
6.760000E+03	5.690981E-16	7.439321E-17
6.770000E+03	5.666785E-16	7.479115E-17
6.780000E+03	5.642008E-16	7.510664E-17
6.790000E+03	5.617079E-16	7.535357E-17
6.800000E+03	5.592194E-16	7.554191E-17
6.810000E+03	5.567826E-16	7.568471E-17
6.820000E+03	5.544207E-16	7.579107E-17
6.830000E+03	5.521835E-16	7.587311E-17
6.840000E+03	5.501081E-16	7.594064E-17
6.850000E+03	5.482174E-16	7.600096E-17
6.860000E+03	5.465567E-16	7.606397E-17
6.870000E+03	5.451454E-16	7.613563E-17
6.880000E+03	5.440067E-16	7.622210E-17
6.890000E+03	5.431389E-16	7.632583E-17
6.900000E+03	5.425340E-16	7.644810E-17
6.910000E+03	5.421784E-16	7.658912E-17
6.920000E+03	5.420369E-16	7.674572E-17
6.930000E+03	5.420825E-16	7.691558E-17
6.940000E+03	5.422756E-16	7.709440E-17
6.950000E+03	5.425878E-16	7.727928E-17
6.960000E+03	5.430050E-16	7.746929E-17
6.970000E+03	5.435097E-16	7.766292E-17
6.980000E+03	5.441000E-16	7.786081E-17
6.990000E+03	5.447821E-16	7.806466E-17
7.000000E+03	5.455683E-16	7.827703E-17
7.010000E+03	5.464757E-16	7.850113E-17
7.020000E+03	5.475247E-16	7.874075E-17
7.030000E+03	5.487385E-16	7.900014E-17
7.040000E+03	5.501425E-16	7.928390E-17
7.050000E+03	5.517572E-16	7.959581E-17
7.060000E+03	5.536168E-16	7.994142E-17
7.070000E+03	5.557407E-16	8.032380E-17
7.080000E+03	5.581508E-16	8.074604E-17
7.090000E+03	5.608695E-16	8.121095E-17
7.100000E+03	5.638896E-16	8.171694E-17
7.110000E+03	5.672143E-16	8.226387E-17
7.120000E+03	5.708296E-16	8.284927E-17
7.130000E+03	5.747051E-16	8.346858E-17
7.140000E+03	5.788096E-16	8.411747E-17
7.150000E+03	5.831064E-16	8.479122E-17
7.160000E+03	5.875544E-16	8.548492E-17
7.170000E+03	5.921030E-16	8.619248E-17
7.180000E+03	5.967141E-16	8.690980E-17
7.190000E+03	6.013266E-16	8.762933E-17
7.200000E+03	6.059085E-16	8.834747E-17
7.210000E+03	6.103913E-16	8.905482E-17
7.220000E+03	6.147458E-16	8.974709E-17
7.230000E+03	6.189229E-16	9.041664E-17
7.240000E+03	6.228847E-16	9.105702E-17
7.250000E+03	6.265893E-16	9.166093E-17
7.260000E+03	6.299970E-16	9.222143E-17
7.270000E+03	6.330934E-16	9.273536E-17
7.280000E+03	6.358327E-16	9.319517E-17
7.290000E+03	6.381754E-16	9.359444E-17
7.300000E+03	6.401036E-16	9.392999E-17
7.310000E+03	6.415577E-16	9.419251E-17
7.320000E+03	6.425156E-16	9.437814E-17
7.330000E+03	6.429234E-16	9.447817E-17
7.340000E+03	6.427527E-16	9.448766E-17
7.350000E+03	6.419639E-16	9.440010E-17
7.360000E+03	6.405253E-16	9.421050E-17
7.370000E+03	6.384410E-16	9.391952E-17
7.380000E+03	6.356905E-16	9.352472E-17
7.390000E+03	6.323112E-16	9.303253E-17
7.400000E+03	6.283291E-16	9.244796E-17
7.410000E+03	6.238222E-16	9.178373E-17
7.420000E+03	6.188648E-16	9.105192E-17
7.430000E+03	6.135572E-16	9.026824E-17
7.440000E+03	6.080152E-16	8.945042E-17
7.450000E+03	6.023678E-16	8.861784E-17
7.460000E+03	5.967615E-16	8.779231E-17
7.470000E+03	5.913279E-16	8.699323E-17
7.480000E+03	5.862327E-16	8.624491E-17
7.490000E+03	5.816122E-16	8.556721E-17
7.500000E+03	5.776279E-16	8.498348E-17
7.510000E+03	5.744026E-16	8.451113E-17
7.520000E+03	5.720737E-16	8.416932E-17
7.530000E+03	5.707382E-16	8.397086E-17
7.540000E+03	5.704855E-16	8.392705E-17
7.550000E+03	5.713675E-16	8.404323E-17
7.560000E+03	5.734349E-16	8.432424E-17
7.570000E+03	5.766874E-16	8.476718E-17
7.580000E+03	5.811335E-16	8.537035E-17
7.590000E+03	5.867484E-16	8.612726E-17
7.600000E+03	5.934816E-16	8.702795E-17
7.610000E+03	6.012797E-16	8.806253E-17
7.620000E+03	6.100721E-16	8.921910E-17
7.630000E+03	6.197550E-16	9.048130E-17
7.640000E+03	6.302151E-16	9.183157E-17
7.650000E+03	6.413237E-16	9.324985E-17
7.660000E+03	6.529554E-16	9.471604E-17
7.670000E+03	6.649398E-16	9.620283E-17
7.680000E+03	6.771227E-16	9.768455E-17
7.690000E+03	6.893346E-16	9.913286E-17
7.700000E+03	7.014103E-16	1.005199E-16
7.710000E+03	7.131555E-16	1.018139E-16
7.720000E+03	7.244141E-16	1.029887E-16
7.730000E+03	7.350085E-16	1.040153E-16
7.740000E+03	7.447817E-16	1.048679E-16
7.750000E+03	7.536028E-16	1.055238E-16
7.760000E+03	7.613413E-16	1.059598E-16
