#wls	flux	fluxerr
1.600000E+03	7.355197E-18	8.730318E-18
1.640000E+03	7.439002E-18	8.824253E-18
1.680000E+03	7.528834E-18	8.924545E-18
1.720000E+03	7.625073E-18	9.031536E-18
1.760000E+03	7.728126E-18	9.145589E-18
1.800000E+03	7.839767E-18	9.268668E-18
1.840000E+03	7.957813E-18	9.398045E-18
1.880000E+03	8.085459E-18	9.537328E-18
1.920000E+03	8.223304E-18	9.687037E-18
1.960000E+03	8.370595E-18	9.846076E-18
2.000000E+03	8.527972E-18	1.001498E-17
2.040000E+03	8.697568E-18	1.019600E-17
2.080000E+03	8.878729E-18	1.038810E-17
2.120000E+03	9.075232E-18	1.059540E-17
2.160000E+03	9.285071E-18	1.081522E-17
2.200000E+03	9.510726E-18	1.105011E-17
2.240000E+03	9.753296E-18	1.130095E-17
2.280000E+03	1.001397E-17	1.156873E-17
2.320000E+03	1.029403E-17	1.185448E-17
2.360000E+03	1.059487E-17	1.215936E-17
2.400000E+03	1.091970E-17	1.248654E-17
2.440000E+03	1.126852E-17	1.283554E-17
2.480000E+03	1.164310E-17	1.320784E-17
2.520000E+03	1.204722E-17	1.360719E-17
2.560000E+03	1.248311E-17	1.403555E-17
2.600000E+03	1.295129E-17	1.449294E-17
2.640000E+03	1.345627E-17	1.498386E-17
2.680000E+03	1.400302E-17	1.551327E-17
2.720000E+03	1.459071E-17	1.607964E-17
2.760000E+03	1.522488E-17	1.668851E-17
2.800000E+03	1.591165E-17	1.734599E-17
2.840000E+03	1.665320E-17	1.805374E-17
2.880000E+03	1.745422E-17	1.881616E-17
2.920000E+03	1.832237E-17	1.964064E-17
2.960000E+03	1.926355E-17	2.053249E-17
3.000000E+03	2.028144E-17	2.149438E-17
3.010000E+03	2.054874E-17	2.174653E-17
3.020000E+03	2.082083E-17	2.200293E-17
3.030000E+03	2.110060E-17	2.226661E-17
3.040000E+03	2.138540E-17	2.253475E-17
3.050000E+03	2.167534E-17	2.280740E-17
3.060000E+03	2.197050E-17	2.308465E-17
3.070000E+03	2.227389E-17	2.336962E-17
3.080000E+03	2.258277E-17	2.365936E-17
3.090000E+03	2.289723E-17	2.395396E-17
3.100000E+03	2.321736E-17	2.425346E-17
3.110000E+03	2.354632E-17	2.456110E-17
3.120000E+03	2.387815E-17	2.487064E-17
3.130000E+03	2.422216E-17	2.519172E-17
3.140000E+03	2.456925E-17	2.551480E-17
3.150000E+03	2.492259E-17	2.584312E-17
3.160000E+03	2.528548E-17	2.618007E-17
3.170000E+03	2.565489E-17	2.652241E-17
3.180000E+03	2.603419E-17	2.687357E-17
3.190000E+03	2.641695E-17	2.722685E-17
3.200000E+03	2.680988E-17	2.758907E-17
3.210000E+03	2.720979E-17	2.795688E-17
3.220000E+03	2.762020E-17	2.833380E-17
3.230000E+03	2.803438E-17	2.871285E-17
3.240000E+03	2.845932E-17	2.910109E-17
3.250000E+03	2.889168E-17	2.949501E-17
3.260000E+03	2.933514E-17	2.989824E-17
3.270000E+03	2.978263E-17	3.030349E-17
3.280000E+03	3.024146E-17	3.071808E-17
3.290000E+03	3.071183E-17	3.114208E-17
3.300000E+03	3.118643E-17	3.156794E-17
3.310000E+03	3.167279E-17	3.200317E-17
3.320000E+03	3.216727E-17	3.244393E-17
3.330000E+03	3.266993E-17	3.289015E-17
3.340000E+03	3.318082E-17	3.334173E-17
3.350000E+03	3.370398E-17	3.380255E-17
3.360000E+03	3.423556E-17	3.426859E-17
3.370000E+03	3.477968E-17	3.474378E-17
3.380000E+03	3.532826E-17	3.521987E-17
3.390000E+03	3.588955E-17	3.570488E-17
3.400000E+03	3.645948E-17	3.619458E-17
3.410000E+03	3.703807E-17	3.668876E-17
3.420000E+03	3.762967E-17	3.719150E-17
3.430000E+03	3.823006E-17	3.769837E-17
3.440000E+03	3.883922E-17	3.820915E-17
3.450000E+03	3.945716E-17	3.872357E-17
3.460000E+03	4.008839E-17	3.924581E-17
3.470000E+03	4.072847E-17	3.977120E-17
3.480000E+03	4.137736E-17	4.029945E-17
3.490000E+03	4.203504E-17	4.083022E-17
3.500000E+03	4.270621E-17	4.136777E-17
3.510000E+03	4.338619E-17	4.190721E-17
3.520000E+03	4.407491E-17	4.244816E-17
3.530000E+03	4.477725E-17	4.299492E-17
3.540000E+03	4.548334E-17	4.353767E-17
3.550000E+03	4.620302E-17	4.408544E-17
3.560000E+03	4.693637E-17	4.463790E-17
3.570000E+03	4.767317E-17	4.518488E-17
3.580000E+03	4.842358E-17	4.573561E-17
3.590000E+03	4.918240E-17	4.628470E-17
3.600000E+03	4.994953E-17	4.683161E-17
3.610000E+03	5.072485E-17	4.737574E-17
3.620000E+03	5.151371E-17	4.792158E-17
3.630000E+03	5.231063E-17	4.846348E-17
3.640000E+03	5.311550E-17	4.900081E-17
3.650000E+03	5.392817E-17	4.953288E-17
3.660000E+03	5.475421E-17	5.006423E-17
3.670000E+03	5.558790E-17	5.058897E-17
3.680000E+03	5.642908E-17	5.110637E-17
3.690000E+03	5.727761E-17	5.161566E-17
3.700000E+03	5.813331E-17	5.211604E-17
3.710000E+03	5.900206E-17	5.261206E-17
3.720000E+03	5.987778E-17	5.309758E-17
3.730000E+03	6.076033E-17	5.357174E-17
3.740000E+03	6.164951E-17	5.403363E-17
3.750000E+03	6.255143E-17	5.448781E-17
3.760000E+03	6.345977E-17	5.492794E-17
3.770000E+03	6.437434E-17	5.535303E-17
3.780000E+03	6.529498E-17	5.576210E-17
3.790000E+03	6.622148E-17	5.615415E-17
3.800000E+03	6.716027E-17	5.653369E-17
3.810000E+03	6.809804E-17	5.688857E-17
3.820000E+03	6.904784E-17	5.722881E-17
3.830000E+03	7.000289E-17	5.754777E-17
3.840000E+03	7.096301E-17	5.784429E-17
3.850000E+03	7.193492E-17	5.812282E-17
3.860000E+03	7.290466E-17	5.837100E-17
3.870000E+03	7.388593E-17	5.859878E-17
3.880000E+03	7.487162E-17	5.879936E-17
3.890000E+03	7.586153E-17	5.897146E-17
3.900000E+03	7.685546E-17	5.911380E-17
3.910000E+03	7.785320E-17	5.922507E-17
3.920000E+03	7.886190E-17	5.930947E-17
3.930000E+03	7.986671E-17	5.935456E-17
3.940000E+03	8.088216E-17	5.936998E-17
3.950000E+03	8.190067E-17	5.934879E-17
3.960000E+03	8.292201E-17	5.928953E-17
3.970000E+03	8.394592E-17	5.919074E-17
3.980000E+03	8.497213E-17	5.905092E-17
3.990000E+03	8.600037E-17	5.886853E-17
4.000000E+03	8.703817E-17	5.864732E-17
4.010000E+03	8.806959E-17	5.837508E-17
4.020000E+03	8.911003E-17	5.806072E-17
4.030000E+03	9.014323E-17	5.769218E-17
4.040000E+03	9.118479E-17	5.727812E-17
4.050000E+03	9.222629E-17	5.681166E-17
4.060000E+03	9.325904E-17	5.628614E-17
4.070000E+03	9.429886E-17	5.570978E-17
4.080000E+03	9.533703E-17	5.507582E-17
4.090000E+03	9.637290E-17	5.438249E-17
4.100000E+03	9.740579E-17	5.362803E-17
4.110000E+03	9.843494E-17	5.281064E-17
4.120000E+03	9.945952E-17	5.192856E-17
4.130000E+03	1.004786E-16	5.098001E-17
4.140000E+03	1.014913E-16	4.996325E-17
4.150000E+03	1.024964E-16	4.887656E-17
4.160000E+03	1.034929E-16	4.771826E-17
4.170000E+03	1.044795E-16	4.648673E-17
4.180000E+03	1.054549E-16	4.518042E-17
4.190000E+03	1.064176E-16	4.379787E-17
4.200000E+03	1.073662E-16	4.233774E-17
4.210000E+03	1.082990E-16	4.079885E-17
4.220000E+03	1.092143E-16	3.918016E-17
4.230000E+03	1.101104E-16	3.748087E-17
4.240000E+03	1.109853E-16	3.570045E-17
4.250000E+03	1.118372E-16	3.383869E-17
4.260000E+03	1.126548E-16	3.189320E-17
4.270000E+03	1.134545E-16	2.987008E-17
4.280000E+03	1.142157E-16	2.776576E-17
4.290000E+03	1.149547E-16	2.558731E-17
4.300000E+03	1.156510E-16	2.333420E-17
4.310000E+03	1.163117E-16	2.101446E-17
4.320000E+03	1.169440E-16	1.863864E-17
4.330000E+03	1.175274E-16	1.621818E-17
4.340000E+03	1.180599E-16	1.377853E-17
4.350000E+03	1.185583E-16	1.136766E-17
4.360000E+03	1.190116E-16	9.075945E-18
4.370000E+03	1.194092E-16	7.102691E-18
4.380000E+03	1.197686E-16	5.868847E-18
4.390000E+03	1.200706E-16	5.914924E-18
4.400000E+03	1.203244E-16	7.228582E-18
4.410000E+03	1.205306E-16	9.269930E-18
4.420000E+03	1.206811E-16	1.163382E-17
4.430000E+03	1.207957E-16	1.412991E-17
4.440000E+03	1.208576E-16	1.666732E-17
4.450000E+03	1.208779E-16	1.920200E-17
4.460000E+03	1.208586E-16	2.170894E-17
4.470000E+03	1.208019E-16	2.417305E-17
4.480000E+03	1.207007E-16	2.658267E-17
4.490000E+03	1.205667E-16	2.893298E-17
4.500000E+03	1.204110E-16	3.122187E-17
4.510000E+03	1.202090E-16	3.343930E-17
4.520000E+03	1.199902E-16	3.559019E-17
4.530000E+03	1.197389E-16	3.766806E-17
4.540000E+03	1.194664E-16	3.967465E-17
4.550000E+03	1.191751E-16	4.160961E-17
4.560000E+03	1.188671E-16	4.347301E-17
4.570000E+03	1.185360E-16	4.526187E-17
4.580000E+03	1.181926E-16	4.697985E-17
4.590000E+03	1.178389E-16	4.862777E-17
4.600000E+03	1.174769E-16	5.020659E-17
4.610000E+03	1.170999E-16	5.171369E-17
4.620000E+03	1.167182E-16	5.315386E-17
4.630000E+03	1.163253E-16	5.452450E-17
4.640000E+03	1.159393E-16	5.583478E-17
4.650000E+03	1.155452E-16	5.707824E-17
4.660000E+03	1.151445E-16	5.825615E-17
4.670000E+03	1.147549E-16	5.937826E-17
4.680000E+03	1.143614E-16	6.043778E-17
4.690000E+03	1.139733E-16	6.144038E-17
4.700000E+03	1.135836E-16	6.238323E-17
4.710000E+03	1.132015E-16	6.327213E-17
4.720000E+03	1.128278E-16	6.410860E-17
4.730000E+03	1.124636E-16	6.489411E-17
4.740000E+03	1.121016E-16	6.562553E-17
4.750000E+03	1.117507E-16	6.630876E-17
4.760000E+03	1.114037E-16	6.694052E-17
4.770000E+03	1.110691E-16	6.752669E-17
4.780000E+03	1.107475E-16	6.806857E-17
4.790000E+03	1.104394E-16	6.856734E-17
4.800000E+03	1.101378E-16	6.901943E-17
4.810000E+03	1.098433E-16	6.942587E-17
4.820000E+03	1.095712E-16	6.979722E-17
4.830000E+03	1.093071E-16	7.012491E-17
4.840000E+03	1.090514E-16	7.040984E-17
4.850000E+03	1.088193E-16	7.066243E-17
4.860000E+03	1.085961E-16	7.087390E-17
4.870000E+03	1.083824E-16	7.104495E-17
4.880000E+03	1.081858E-16	7.118104E-17
4.890000E+03	1.080063E-16	7.128279E-17
4.900000E+03	1.078370E-16	7.134591E-17
4.910000E+03	1.076854E-16	7.137569E-17
4.920000E+03	1.075515E-16	7.137251E-17
4.930000E+03	1.074283E-16	7.133193E-17
4.940000E+03	1.073232E-16	7.125901E-17
4.950000E+03	1.072361E-16	7.115393E-17
4.960000E+03	1.071601E-16	7.101210E-17
4.970000E+03	1.071022E-16	7.083833E-17
4.980000E+03	1.070555E-16	7.062791E-17
4.990000E+03	1.070270E-16	7.038550E-17
5.000000E+03	1.070097E-16	7.010630E-17
5.010000E+03	1.070175E-16	6.979939E-17
5.020000E+03	1.070293E-16	6.945067E-17
5.030000E+03	1.070660E-16	6.907358E-17
5.040000E+03	1.071135E-16	6.865859E-17
5.050000E+03	1.071717E-16	6.820531E-17
5.060000E+03	1.072543E-16	6.772214E-17
5.070000E+03	1.073401E-16	6.719519E-17
5.080000E+03	1.074498E-16	6.663702E-17
5.090000E+03	1.075691E-16	6.603816E-17
5.100000E+03	1.077048E-16	6.540216E-17
5.110000E+03	1.078494E-16	6.472395E-17
5.120000E+03	1.080095E-16	6.400686E-17
5.130000E+03	1.081776E-16	6.324582E-17
5.140000E+03	1.083671E-16	6.244797E-17
5.150000E+03	1.085567E-16	6.160013E-17
5.160000E+03	1.087664E-16	6.071321E-17
5.170000E+03	1.089818E-16	5.977811E-17
5.180000E+03	1.092021E-16	5.879379E-17
5.190000E+03	1.094333E-16	5.776286E-17
5.200000E+03	1.096747E-16	5.668400E-17
5.210000E+03	1.099252E-16	5.555585E-17
5.220000E+03	1.101768E-16	5.437356E-17
5.230000E+03	1.104354E-16	5.313939E-17
5.240000E+03	1.106928E-16	5.184863E-17
5.250000E+03	1.109546E-16	5.050340E-17
5.260000E+03	1.112124E-16	4.909920E-17
5.270000E+03	1.114789E-16	4.764105E-17
5.280000E+03	1.117312E-16	4.611858E-17
5.290000E+03	1.119889E-16	4.453965E-17
5.300000E+03	1.122359E-16	4.289736E-17
5.310000E+03	1.124775E-16	4.119359E-17
5.320000E+03	1.127045E-16	3.942490E-17
5.330000E+03	1.129220E-16	3.759321E-17
5.340000E+03	1.131276E-16	3.569790E-17
5.350000E+03	1.133120E-16	3.373641E-17
5.360000E+03	1.134799E-16	3.171090E-17
5.370000E+03	1.136287E-16	2.962147E-17
5.380000E+03	1.137488E-16	2.746681E-17
5.390000E+03	1.138446E-16	2.524976E-17
5.400000E+03	1.139065E-16	2.297027E-17
5.410000E+03	1.139460E-16	2.063353E-17
5.420000E+03	1.139462E-16	1.824001E-17
5.430000E+03	1.139046E-16	1.579517E-17
5.440000E+03	1.138259E-16	1.330835E-17
5.450000E+03	1.137078E-16	1.079385E-17
5.460000E+03	1.135483E-16	8.280637E-18
5.470000E+03	1.133384E-16	5.840678E-18
5.480000E+03	1.130842E-16	3.717885E-18
5.490000E+03	1.127777E-16	2.843564E-18
5.500000E+03	1.124333E-16	4.104533E-18
5.510000E+03	1.120378E-16	6.287221E-18
5.520000E+03	1.115932E-16	8.669785E-18
5.530000E+03	1.111085E-16	1.107234E-17
5.540000E+03	1.105865E-16	1.343824E-17
5.550000E+03	1.100299E-16	1.574434E-17
5.560000E+03	1.094349E-16	1.797835E-17
5.570000E+03	1.088182E-16	2.013652E-17
5.580000E+03	1.081626E-16	2.221196E-17
5.590000E+03	1.074915E-16	2.420684E-17
5.600000E+03	1.067944E-16	2.611772E-17
5.610000E+03	1.060811E-16	2.794606E-17
5.620000E+03	1.053477E-16	2.969062E-17
5.630000E+03	1.046102E-16	3.135596E-17
5.640000E+03	1.038581E-16	3.293954E-17
5.650000E+03	1.031004E-16	3.444470E-17
5.660000E+03	1.023330E-16	3.587090E-17
5.670000E+03	1.015645E-16	3.722200E-17
5.680000E+03	1.007970E-16	3.849996E-17
5.690000E+03	1.000323E-16	3.970677E-17
5.700000E+03	9.926600E-17	4.084200E-17
5.710000E+03	9.850589E-17	4.191014E-17
5.720000E+03	9.775345E-17	4.291335E-17
5.730000E+03	9.701003E-17	4.385377E-17
5.740000E+03	9.627084E-17	4.473076E-17
5.750000E+03	9.554307E-17	4.554910E-17
5.760000E+03	9.482768E-17	4.631087E-17
5.770000E+03	9.412557E-17	4.701812E-17
5.780000E+03	9.343173E-17	4.766989E-17
5.790000E+03	9.275850E-17	4.827398E-17
5.800000E+03	9.208922E-17	4.882330E-17
5.810000E+03	9.144171E-17	4.932864E-17
5.820000E+03	9.081068E-17	4.978876E-17
5.830000E+03	9.019093E-17	5.020222E-17
5.840000E+03	8.958847E-17	5.057368E-17
5.850000E+03	8.900359E-17	5.090466E-17
5.860000E+03	8.843103E-17	5.119345E-17
5.870000E+03	8.788198E-17	5.144775E-17
5.880000E+03	8.734564E-17	5.166249E-17
5.890000E+03	8.682759E-17	5.184208E-17
5.900000E+03	8.632789E-17	5.198764E-17
5.910000E+03	8.584125E-17	5.209702E-17
5.920000E+03	8.537305E-17	5.217442E-17
5.930000E+03	8.492852E-17	5.222402E-17
5.940000E+03	8.449703E-17	5.224015E-17
5.950000E+03	8.407859E-17	5.222360E-17
5.960000E+03	8.368355E-17	5.218154E-17
5.970000E+03	8.330136E-17	5.210813E-17
5.980000E+03	8.294228E-17	5.201039E-17
5.990000E+03	8.259578E-17	5.188234E-17
6.000000E+03	8.226689E-17	5.172765E-17
6.010000E+03	8.195031E-17	5.154347E-17
6.020000E+03	8.165604E-17	5.133652E-17
6.030000E+03	8.137369E-17	5.110063E-17
6.040000E+03	8.110811E-17	5.083918E-17
6.050000E+03	8.085906E-17	5.055228E-17
6.060000E+03	8.062627E-17	5.023998E-17
6.070000E+03	8.040946E-17	4.990229E-17
6.080000E+03	8.020836E-17	4.953913E-17
6.090000E+03	8.001767E-17	4.914733E-17
6.100000E+03	7.984207E-17	4.872984E-17
6.110000E+03	7.968621E-17	4.828944E-17
6.120000E+03	7.953978E-17	4.781982E-17
6.130000E+03	7.940741E-17	4.732370E-17
6.140000E+03	7.928374E-17	4.679779E-17
6.150000E+03	7.917831E-17	4.624756E-17
6.160000E+03	7.908078E-17	4.566674E-17
6.170000E+03	7.900060E-17	4.506060E-17
6.180000E+03	7.892742E-17	4.442291E-17
6.190000E+03	7.886569E-17	4.375597E-17
6.200000E+03	7.881491E-17	4.305918E-17
6.210000E+03	7.877453E-17	4.233189E-17
6.220000E+03	7.874397E-17	4.157345E-17
6.230000E+03	7.871770E-17	4.078060E-17
6.240000E+03	7.870495E-17	3.995779E-17
6.250000E+03	7.869516E-17	3.909923E-17
6.260000E+03	7.869751E-17	3.820914E-17
6.270000E+03	7.870135E-17	3.728191E-17
6.280000E+03	7.871083E-17	3.631924E-17
6.290000E+03	7.872510E-17	3.532038E-17
6.300000E+03	7.874326E-17	3.428457E-17
6.310000E+03	7.876436E-17	3.321109E-17
6.320000E+03	7.878243E-17	3.209721E-17
6.330000E+03	7.880633E-17	3.094637E-17
6.340000E+03	7.882998E-17	2.975585E-17
6.350000E+03	7.884719E-17	2.852328E-17
6.360000E+03	7.886665E-17	2.725181E-17
6.370000E+03	7.887708E-17	2.593752E-17
6.380000E+03	7.888203E-17	2.458189E-17
6.390000E+03	7.888003E-17	2.318473E-17
6.400000E+03	7.886952E-17	2.174601E-17
6.410000E+03	7.884885E-17	2.026591E-17
6.420000E+03	7.881634E-17	1.874482E-17
6.430000E+03	7.877021E-17	1.718348E-17
6.440000E+03	7.870864E-17	1.558306E-17
6.450000E+03	7.862979E-17	1.394537E-17
6.460000E+03	7.853178E-17	1.227317E-17
6.470000E+03	7.840778E-17	1.057015E-17
6.480000E+03	7.826599E-17	8.845094E-18
6.490000E+03	7.809478E-17	7.110238E-18
6.500000E+03	7.790261E-17	5.395232E-18
6.510000E+03	7.767832E-17	3.774213E-18
6.520000E+03	7.743096E-17	2.499603E-18
6.530000E+03	7.715024E-17	2.290514E-18
6.540000E+03	7.684134E-17	3.339593E-18
6.550000E+03	7.650511E-17	4.863567E-18
6.560000E+03	7.614776E-17	6.503279E-18
6.570000E+03	7.576120E-17	8.156222E-18
6.580000E+03	7.535225E-17	9.787197E-18
6.590000E+03	7.492295E-17	1.138095E-17
6.600000E+03	7.447545E-17	1.293001E-17
6.610000E+03	7.401188E-17	1.443048E-17
6.620000E+03	7.353436E-17	1.588036E-17
6.630000E+03	7.304495E-17	1.727869E-17
6.640000E+03	7.254562E-17	1.862523E-17
6.650000E+03	7.203361E-17	1.991890E-17
6.660000E+03	7.151998E-17	2.116272E-17
6.670000E+03	7.100172E-17	2.235626E-17
6.680000E+03	7.048039E-17	2.350046E-17
6.690000E+03	6.995290E-17	2.459483E-17
6.700000E+03	6.942962E-17	2.564365E-17
6.710000E+03	6.890724E-17	2.664668E-17
6.720000E+03	6.838246E-17	2.760346E-17
6.730000E+03	6.786517E-17	2.851886E-17
6.740000E+03	6.734751E-17	2.939065E-17
6.750000E+03	6.683907E-17	3.022400E-17
6.760000E+03	6.633195E-17	3.101648E-17
6.770000E+03	6.583548E-17	3.177347E-17
6.780000E+03	6.534171E-17	3.249233E-17
6.790000E+03	6.485974E-17	3.317861E-17
6.800000E+03	6.438162E-17	3.382945E-17
6.810000E+03	6.391205E-17	3.444833E-17
6.820000E+03	6.345555E-17	3.503884E-17
6.830000E+03	6.300420E-17	3.559778E-17
6.840000E+03	6.256247E-17	3.612866E-17
6.850000E+03	6.213468E-17	3.663511E-17
6.860000E+03	6.171294E-17	3.711359E-17
6.870000E+03	6.130152E-17	3.756760E-17
6.880000E+03	6.090059E-17	3.799829E-17
6.890000E+03	6.051029E-17	3.840673E-17
6.900000E+03	6.013466E-17	3.879650E-17
6.910000E+03	5.976589E-17	3.916356E-17
6.920000E+03	5.940801E-17	3.951138E-17
6.930000E+03	5.906106E-17	3.984089E-17
6.940000E+03	5.872506E-17	4.015296E-17
6.950000E+03	5.840001E-17	4.044844E-17
6.960000E+03	5.808590E-17	4.072813E-17
6.970000E+03	5.778272E-17	4.099280E-17
6.980000E+03	5.749041E-17	4.124317E-17
6.990000E+03	5.720517E-17	4.147719E-17
7.000000E+03	5.693447E-17	4.170097E-17
7.010000E+03	5.667448E-17	4.191240E-17
7.020000E+03	5.642510E-17	4.211207E-17
7.030000E+03	5.618626E-17	4.230051E-17
7.040000E+03	5.595416E-17	4.247545E-17
7.050000E+03	5.573610E-17	4.264295E-17
7.060000E+03	5.552829E-17	4.280066E-17
7.070000E+03	5.532694E-17	4.294618E-17
7.080000E+03	5.513927E-17	4.308554E-17
7.090000E+03	5.495786E-17	4.321343E-17
7.100000E+03	5.478987E-17	4.333589E-17
7.110000E+03	5.462792E-17	4.344747E-17
7.120000E+03	5.447914E-17	4.355423E-17
7.130000E+03	5.433615E-17	4.365063E-17
7.140000E+03	5.420246E-17	4.373978E-17
7.150000E+03	5.407793E-17	4.382188E-17
7.160000E+03	5.396604E-17	4.390005E-17
7.170000E+03	5.385947E-17	4.396859E-17
7.180000E+03	5.376168E-17	4.403055E-17
7.190000E+03	5.367255E-17	4.408605E-17
7.200000E+03	5.359194E-17	4.413517E-17
7.210000E+03	5.351974E-17	4.417799E-17
7.220000E+03	5.345583E-17	4.421456E-17
7.230000E+03	5.339648E-17	4.424194E-17
7.240000E+03	5.334875E-17	4.426608E-17
7.250000E+03	5.330893E-17	4.428400E-17
7.260000E+03	5.327331E-17	4.429270E-17
7.270000E+03	5.324895E-17	4.429809E-17
7.280000E+03	5.322855E-17	4.429416E-17
7.290000E+03	5.321916E-17	4.428678E-17
7.300000E+03	5.321350E-17	4.426989E-17
7.310000E+03	5.321504E-17	4.424637E-17
7.320000E+03	5.322365E-17	4.421609E-17
7.330000E+03	5.323922E-17	4.417890E-17
7.340000E+03	5.326165E-17	4.413463E-17
7.350000E+03	5.329080E-17	4.408312E-17
7.360000E+03	5.332658E-17	4.402416E-17
7.370000E+03	5.336886E-17	4.395754E-17
7.380000E+03	5.341390E-17	4.388006E-17
7.390000E+03	5.346884E-17	4.379743E-17
7.400000E+03	5.352629E-17	4.370344E-17
7.410000E+03	5.359342E-17	4.360375E-17
7.420000E+03	5.366282E-17	4.349213E-17
7.430000E+03	5.373800E-17	4.337125E-17
7.440000E+03	5.381884E-17	4.324078E-17
7.450000E+03	5.390522E-17	4.310037E-17
7.460000E+03	5.399700E-17	4.294967E-17
7.470000E+03	5.409406E-17	4.278830E-17
7.480000E+03	5.419625E-17	4.261586E-17
7.490000E+03	5.429971E-17	4.242904E-17
7.500000E+03	5.441173E-17	4.223324E-17
7.510000E+03	5.452471E-17	4.202220E-17
7.520000E+03	5.464220E-17	4.179839E-17
7.530000E+03	5.476404E-17	4.156132E-17
7.540000E+03	5.489007E-17	4.131051E-17
7.550000E+03	5.502010E-17	4.104545E-17
7.560000E+03	5.515396E-17	4.076562E-17
7.570000E+03	5.528761E-17	4.046769E-17
7.580000E+03	5.542850E-17	4.015671E-17
7.590000E+03	5.556874E-17	3.982656E-17
7.600000E+03	5.571581E-17	3.948218E-17
7.610000E+03	5.586174E-17	3.911750E-17
7.620000E+03	5.601015E-17	3.873466E-17
7.630000E+03	5.615685E-17	3.833039E-17
7.640000E+03	5.630940E-17	3.790944E-17
7.650000E+03	5.646360E-17	3.746848E-17
7.660000E+03	5.661518E-17	3.700428E-17
7.670000E+03	5.676777E-17	3.651885E-17
7.680000E+03	5.692501E-17	3.601407E-17
7.690000E+03	5.707858E-17	3.548421E-17
7.700000E+03	5.722807E-17	3.492872E-17
7.710000E+03	5.738109E-17	3.435191E-17
7.720000E+03	5.753324E-17	3.375064E-17
7.730000E+03	5.768001E-17	3.312195E-17
7.740000E+03	5.782905E-17	3.246993E-17
7.750000E+03	5.797173E-17	3.178934E-17
7.760000E+03	5.811159E-17	3.108193E-17
