#wls	flux	fluxerr
1.600000E+03	3.165364E-18	3.770904E-18
1.640000E+03	3.184558E-18	3.793279E-18
1.680000E+03	3.206153E-18	3.818460E-18
1.720000E+03	3.228528E-18	3.844506E-18
1.760000E+03	3.252345E-18	3.872203E-18
1.800000E+03	3.277704E-18	3.901662E-18
1.840000E+03	3.305303E-18	3.933707E-18
1.880000E+03	3.334084E-18	3.967068E-18
1.920000E+03	3.365355E-18	4.003296E-18
1.960000E+03	3.398664E-18	4.041841E-18
2.000000E+03	3.434157E-18	4.082866E-18
2.040000E+03	3.471993E-18	4.126548E-18
2.080000E+03	3.512344E-18	4.173078E-18
2.120000E+03	3.555397E-18	4.222662E-18
2.160000E+03	3.601991E-18	4.276282E-18
2.200000E+03	3.651079E-18	4.332674E-18
2.240000E+03	3.704187E-18	4.393628E-18
2.280000E+03	3.760275E-18	4.457884E-18
2.320000E+03	3.820949E-18	4.527323E-18
2.360000E+03	3.885870E-18	4.601505E-18
2.400000E+03	3.955382E-18	4.680803E-18
2.440000E+03	4.030574E-18	4.766460E-18
2.480000E+03	4.110454E-18	4.857253E-18
2.520000E+03	4.196916E-18	4.955361E-18
2.560000E+03	4.289004E-18	5.059582E-18
2.600000E+03	4.388770E-18	5.172256E-18
2.640000E+03	4.496095E-18	5.293141E-18
2.680000E+03	4.611666E-18	5.422928E-18
2.720000E+03	4.736244E-18	5.562371E-18
2.760000E+03	4.870676E-18	5.712295E-18
2.800000E+03	5.015900E-18	5.873599E-18
2.840000E+03	5.173869E-18	6.048322E-18
2.880000E+03	5.343972E-18	6.235460E-18
2.920000E+03	5.529353E-18	6.438327E-18
2.960000E+03	5.729581E-18	6.655993E-18
3.000000E+03	5.948252E-18	6.892127E-18
3.010000E+03	6.006122E-18	6.954346E-18
3.020000E+03	6.065236E-18	7.017774E-18
3.030000E+03	6.124560E-18	7.081207E-18
3.040000E+03	6.186244E-18	7.147116E-18
3.050000E+03	6.249269E-18	7.214311E-18
3.060000E+03	6.313670E-18	7.282818E-18
3.070000E+03	6.378376E-18	7.351391E-18
3.080000E+03	6.445624E-18	7.422594E-18
3.090000E+03	6.514359E-18	7.495192E-18
3.100000E+03	6.584619E-18	7.569216E-18
3.110000E+03	6.656444E-18	7.644693E-18
3.120000E+03	6.728712E-18	7.720318E-18
3.130000E+03	6.803781E-18	7.798781E-18
3.140000E+03	6.880544E-18	7.878789E-18
3.150000E+03	6.959045E-18	7.960373E-18
3.160000E+03	7.038116E-18	8.042175E-18
3.170000E+03	7.120222E-18	8.126994E-18
3.180000E+03	7.204212E-18	8.213485E-18
3.190000E+03	7.290135E-18	8.301683E-18
3.200000E+03	7.378045E-18	8.391620E-18
3.210000E+03	7.467995E-18	8.483331E-18
3.220000E+03	7.558738E-18	8.575372E-18
3.230000E+03	7.652922E-18	8.670718E-18
3.240000E+03	7.749320E-18	8.767943E-18
3.250000E+03	7.847991E-18	8.867080E-18
3.260000E+03	7.948999E-18	8.968167E-18
3.270000E+03	8.052408E-18	9.071239E-18
3.280000E+03	8.158284E-18	9.176332E-18
3.290000E+03	8.265276E-18	9.281885E-18
3.300000E+03	8.376278E-18	9.391112E-18
3.310000E+03	8.489961E-18	9.502469E-18
3.320000E+03	8.606398E-18	9.615993E-18
3.330000E+03	8.725668E-18	9.731720E-18
3.340000E+03	8.847850E-18	9.849687E-18
3.350000E+03	8.973026E-18	9.969930E-18
3.360000E+03	9.101281E-18	1.009249E-17
3.370000E+03	9.231116E-18	1.021563E-17
3.380000E+03	9.365769E-18	1.034290E-17
3.390000E+03	9.503768E-18	1.047258E-17
3.400000E+03	9.645209E-18	1.060471E-17
3.410000E+03	9.790189E-18	1.073933E-17
3.420000E+03	9.938809E-18	1.087646E-17
3.430000E+03	1.009117E-17	1.101614E-17
3.440000E+03	1.024739E-17	1.115839E-17
3.450000E+03	1.040756E-17	1.130325E-17
3.460000E+03	1.057180E-17	1.145075E-17
3.470000E+03	1.074023E-17	1.160090E-17
3.480000E+03	1.091111E-17	1.175172E-17
3.490000E+03	1.108824E-17	1.190722E-17
3.500000E+03	1.126993E-17	1.206545E-17
3.510000E+03	1.145631E-17	1.222641E-17
3.520000E+03	1.164750E-17	1.239011E-17
3.530000E+03	1.184364E-17	1.255657E-17
3.540000E+03	1.204487E-17	1.272580E-17
3.550000E+03	1.225133E-17	1.289779E-17
3.560000E+03	1.246318E-17	1.307254E-17
3.570000E+03	1.268056E-17	1.325005E-17
3.580000E+03	1.290362E-17	1.343029E-17
3.590000E+03	1.313253E-17	1.361326E-17
3.600000E+03	1.336744E-17	1.379894E-17
3.610000E+03	1.360853E-17	1.398728E-17
3.620000E+03	1.385595E-17	1.417825E-17
3.630000E+03	1.410989E-17	1.437181E-17
3.640000E+03	1.437052E-17	1.456790E-17
3.650000E+03	1.463802E-17	1.476646E-17
3.660000E+03	1.491004E-17	1.496488E-17
3.670000E+03	1.519178E-17	1.516812E-17
3.680000E+03	1.548096E-17	1.537359E-17
3.690000E+03	1.577776E-17	1.558117E-17
3.700000E+03	1.608238E-17	1.579076E-17
3.710000E+03	1.639502E-17	1.600221E-17
3.720000E+03	1.671589E-17	1.621538E-17
3.730000E+03	1.704518E-17	1.643012E-17
3.740000E+03	1.738311E-17	1.664624E-17
3.750000E+03	1.772988E-17	1.686355E-17
3.760000E+03	1.808571E-17	1.708183E-17
3.770000E+03	1.845081E-17	1.730085E-17
3.780000E+03	1.882539E-17	1.752036E-17
3.790000E+03	1.920967E-17	1.774008E-17
3.800000E+03	1.960385E-17	1.795971E-17
3.810000E+03	2.000816E-17	1.817892E-17
3.820000E+03	2.042281E-17	1.839736E-17
3.830000E+03	2.084800E-17	1.861465E-17
3.840000E+03	2.128394E-17	1.883038E-17
3.850000E+03	2.173084E-17	1.904412E-17
3.860000E+03	2.218890E-17	1.925538E-17
3.870000E+03	2.265831E-17	1.946367E-17
3.880000E+03	2.313537E-17	1.966512E-17
3.890000E+03	2.362797E-17	1.986576E-17
3.900000E+03	2.413248E-17	2.006169E-17
3.910000E+03	2.464904E-17	2.025225E-17
3.920000E+03	2.517783E-17	2.043674E-17
3.930000E+03	2.571897E-17	2.061441E-17
3.940000E+03	2.627261E-17	2.078448E-17
3.950000E+03	2.683884E-17	2.094611E-17
3.960000E+03	2.741777E-17	2.109842E-17
3.970000E+03	2.800947E-17	2.124048E-17
3.980000E+03	2.861400E-17	2.137130E-17
3.990000E+03	2.923139E-17	2.148985E-17
4.000000E+03	2.986164E-17	2.159504E-17
4.010000E+03	3.050474E-17	2.168574E-17
4.020000E+03	3.115540E-17	2.175709E-17
4.030000E+03	3.182389E-17	2.181515E-17
4.040000E+03	3.250496E-17	2.185498E-17
4.050000E+03	3.319846E-17	2.187521E-17
4.060000E+03	3.390418E-17	2.187444E-17
4.070000E+03	3.462187E-17	2.185122E-17
4.080000E+03	3.535125E-17	2.180404E-17
4.090000E+03	3.609196E-17	2.173133E-17
4.100000E+03	3.684359E-17	2.163151E-17
4.110000E+03	3.760570E-17	2.150292E-17
4.120000E+03	3.837131E-17	2.134032E-17
4.130000E+03	3.915256E-17	2.114919E-17
4.140000E+03	3.994249E-17	2.092418E-17
4.150000E+03	4.074035E-17	2.066355E-17
4.160000E+03	4.154532E-17	2.036554E-17
4.170000E+03	4.235648E-17	2.002839E-17
4.180000E+03	4.317284E-17	1.965037E-17
4.190000E+03	4.398595E-17	1.922654E-17
4.200000E+03	4.480918E-17	1.876174E-17
4.210000E+03	4.563402E-17	1.825109E-17
4.220000E+03	4.645905E-17	1.769307E-17
4.230000E+03	4.728275E-17	1.708630E-17
4.240000E+03	4.810347E-17	1.642952E-17
4.250000E+03	4.891129E-17	1.571910E-17
4.260000E+03	4.972047E-17	1.495962E-17
4.270000E+03	5.052095E-17	1.414793E-17
4.280000E+03	5.131052E-17	1.328408E-17
4.290000E+03	5.208683E-17	1.236877E-17
4.300000E+03	5.283854E-17	1.140170E-17
4.310000E+03	5.358040E-17	1.038985E-17
4.320000E+03	5.430079E-17	9.336330E-18
4.330000E+03	5.499649E-17	8.249937E-18
4.340000E+03	5.565479E-17	7.144804E-18
4.350000E+03	5.629031E-17	6.051297E-18
4.360000E+03	5.688981E-17	5.021095E-18
4.370000E+03	5.744896E-17	4.157683E-18
4.380000E+03	5.795399E-17	3.641787E-18
4.390000E+03	5.842091E-17	3.671675E-18
4.400000E+03	5.883909E-17	4.255648E-18
4.410000E+03	5.920954E-17	5.211240E-18
4.420000E+03	5.952458E-17	6.363595E-18
4.430000E+03	5.980642E-17	7.613428E-18
4.440000E+03	6.004775E-17	8.906641E-18
4.450000E+03	6.024093E-17	1.021251E-17
4.460000E+03	6.040818E-17	1.151719E-17
4.470000E+03	6.054162E-17	1.280851E-17
4.480000E+03	6.063322E-17	1.407694E-17
4.490000E+03	6.070497E-17	1.532189E-17
4.500000E+03	6.074868E-17	1.653754E-17
4.510000E+03	6.075606E-17	1.771818E-17
4.520000E+03	6.074897E-17	1.886743E-17
4.530000E+03	6.070896E-17	1.997764E-17
4.540000E+03	6.065774E-17	2.105408E-17
4.550000E+03	6.058685E-17	2.209277E-17
4.560000E+03	6.048779E-17	2.308930E-17
4.570000E+03	6.038205E-17	2.405079E-17
4.580000E+03	6.025109E-17	2.496930E-17
4.590000E+03	6.011622E-17	2.585292E-17
4.600000E+03	5.996877E-17	2.669783E-17
4.610000E+03	5.980015E-17	2.749974E-17
4.620000E+03	5.963135E-17	2.826800E-17
4.630000E+03	5.944383E-17	2.899386E-17
4.640000E+03	5.925837E-17	2.968732E-17
4.650000E+03	5.905645E-17	3.033933E-17
4.660000E+03	5.885861E-17	3.096046E-17
4.670000E+03	5.864638E-17	3.154131E-17
4.680000E+03	5.844006E-17	3.209295E-17
4.690000E+03	5.822122E-17	3.260568E-17
4.700000E+03	5.800993E-17	3.309094E-17
4.710000E+03	5.778780E-17	3.353875E-17
4.720000E+03	5.757468E-17	3.396090E-17
4.730000E+03	5.735224E-17	3.434709E-17
4.740000E+03	5.714007E-17	3.470941E-17
4.750000E+03	5.691994E-17	3.503729E-17
4.760000E+03	5.670186E-17	3.533719E-17
4.770000E+03	5.649566E-17	3.561578E-17
4.780000E+03	5.628322E-17	3.586214E-17
4.790000E+03	5.608354E-17	3.608878E-17
4.800000E+03	5.587858E-17	3.628457E-17
4.810000E+03	5.567797E-17	3.645612E-17
4.820000E+03	5.549121E-17	3.661010E-17
4.830000E+03	5.530034E-17	3.673515E-17
4.840000E+03	5.511482E-17	3.683784E-17
4.850000E+03	5.494392E-17	3.692481E-17
4.860000E+03	5.476983E-17	3.698448E-17
4.870000E+03	5.460179E-17	3.702339E-17
4.880000E+03	5.444892E-17	3.704808E-17
4.890000E+03	5.429350E-17	3.704680E-17
4.900000E+03	5.414460E-17	3.702601E-17
4.910000E+03	5.401121E-17	3.699213E-17
4.920000E+03	5.387566E-17	3.693333E-17
4.930000E+03	5.374690E-17	3.685593E-17
4.940000E+03	5.362498E-17	3.676017E-17
4.950000E+03	5.351868E-17	3.665226E-17
4.960000E+03	5.341045E-17	3.652031E-17
4.970000E+03	5.330905E-17	3.637047E-17
4.980000E+03	5.321446E-17	3.620282E-17
4.990000E+03	5.312660E-17	3.601742E-17
5.000000E+03	5.305410E-17	3.582015E-17
5.010000E+03	5.297948E-17	3.559922E-17
5.020000E+03	5.291133E-17	3.536049E-17
5.030000E+03	5.284953E-17	3.510388E-17
5.040000E+03	5.279393E-17	3.482928E-17
5.050000E+03	5.274437E-17	3.453655E-17
5.060000E+03	5.270070E-17	3.422554E-17
5.070000E+03	5.267132E-17	3.390159E-17
5.080000E+03	5.263882E-17	3.355337E-17
5.090000E+03	5.261160E-17	3.318622E-17
5.100000E+03	5.258944E-17	3.279990E-17
5.110000E+03	5.257209E-17	3.239415E-17
5.120000E+03	5.255931E-17	3.196866E-17
5.130000E+03	5.255084E-17	3.152315E-17
5.140000E+03	5.254640E-17	3.105729E-17
5.150000E+03	5.254571E-17	3.057078E-17
5.160000E+03	5.254847E-17	3.006326E-17
5.170000E+03	5.255440E-17	2.953443E-17
5.180000E+03	5.256318E-17	2.898392E-17
5.190000E+03	5.257449E-17	2.841141E-17
5.200000E+03	5.258801E-17	2.781655E-17
5.210000E+03	5.260342E-17	2.719902E-17
5.220000E+03	5.262038E-17	2.655849E-17
5.230000E+03	5.263855E-17	2.589464E-17
5.240000E+03	5.265760E-17	2.520717E-17
5.250000E+03	5.267718E-17	2.449579E-17
5.260000E+03	5.269694E-17	2.376024E-17
5.270000E+03	5.270797E-17	2.299651E-17
5.280000E+03	5.272708E-17	2.221201E-17
5.290000E+03	5.274536E-17	2.140267E-17
5.300000E+03	5.276247E-17	2.056832E-17
5.310000E+03	5.277808E-17	1.970884E-17
5.320000E+03	5.279186E-17	1.882414E-17
5.330000E+03	5.280350E-17	1.791417E-17
5.340000E+03	5.280410E-17	1.697619E-17
5.350000E+03	5.281056E-17	1.601594E-17
5.360000E+03	5.281402E-17	1.503067E-17
5.370000E+03	5.281422E-17	1.402061E-17
5.380000E+03	5.281093E-17	1.298614E-17
5.390000E+03	5.279535E-17	1.192584E-17
5.400000E+03	5.278452E-17	1.084455E-17
5.410000E+03	5.276969E-17	9.741270E-18
5.420000E+03	5.275076E-17	8.617720E-18
5.430000E+03	5.271911E-17	7.475403E-18
5.440000E+03	5.269185E-17	6.321570E-18
5.450000E+03	5.266042E-17	5.163420E-18
5.460000E+03	5.261627E-17	4.018319E-18
5.470000E+03	5.257655E-17	2.932183E-18
5.480000E+03	5.253275E-17	2.036279E-18
5.490000E+03	5.247636E-17	1.699086E-18
5.500000E+03	5.242443E-17	2.198814E-18
5.510000E+03	5.236841E-17	3.147775E-18
5.520000E+03	5.229973E-17	4.236801E-18
5.530000E+03	5.223535E-17	5.364641E-18
5.540000E+03	5.216669E-17	6.495101E-18
5.550000E+03	5.208525E-17	7.611949E-18
5.560000E+03	5.200794E-17	8.710163E-18
5.570000E+03	5.191786E-17	9.783128E-18
5.580000E+03	5.183194E-17	1.083152E-17
5.590000E+03	5.173340E-17	1.185056E-17
5.600000E+03	5.163918E-17	1.284302E-17
5.610000E+03	5.153264E-17	1.380429E-17
5.620000E+03	5.143070E-17	1.473832E-17
5.630000E+03	5.132517E-17	1.564280E-17
5.640000E+03	5.120797E-17	1.651492E-17
5.650000E+03	5.109597E-17	1.735989E-17
5.660000E+03	5.097281E-17	1.817225E-17
5.670000E+03	5.084707E-17	1.895479E-17
5.680000E+03	5.072725E-17	1.971087E-17
5.690000E+03	5.059713E-17	2.043441E-17
5.700000E+03	5.047344E-17	2.113215E-17
5.710000E+03	5.034006E-17	2.179761E-17
5.720000E+03	5.021361E-17	2.243805E-17
5.730000E+03	5.007806E-17	2.304660E-17
5.740000E+03	4.994187E-17	2.362713E-17
5.750000E+03	4.981337E-17	2.418393E-17
5.760000E+03	4.967666E-17	2.470960E-17
5.770000E+03	4.954814E-17	2.521245E-17
5.780000E+03	4.941197E-17	2.568476E-17
5.790000E+03	4.927646E-17	2.613094E-17
5.800000E+03	4.914981E-17	2.655569E-17
5.810000E+03	4.901630E-17	2.695088E-17
5.820000E+03	4.888415E-17	2.732112E-17
5.830000E+03	4.876147E-17	2.767132E-17
5.840000E+03	4.863263E-17	2.799293E-17
5.850000E+03	4.850575E-17	2.829077E-17
5.860000E+03	4.838885E-17	2.856985E-17
5.870000E+03	4.826639E-17	2.882130E-17
5.880000E+03	4.814639E-17	2.905008E-17
5.890000E+03	4.802899E-17	2.925651E-17
5.900000E+03	4.792207E-17	2.944568E-17
5.910000E+03	4.781020E-17	2.960838E-17
5.920000E+03	4.770127E-17	2.974965E-17
5.930000E+03	4.759534E-17	2.986975E-17
5.940000E+03	4.750020E-17	2.997378E-17
5.950000E+03	4.740047E-17	3.005227E-17
5.960000E+03	4.730392E-17	3.011027E-17
5.970000E+03	4.721057E-17	3.014796E-17
5.980000E+03	4.712041E-17	3.016551E-17
5.990000E+03	4.703345E-17	3.016305E-17
6.000000E+03	4.695727E-17	3.014558E-17
6.010000E+03	4.687660E-17	3.010343E-17
6.020000E+03	4.679901E-17	3.004156E-17
6.030000E+03	4.672442E-17	2.996001E-17
6.040000E+03	4.665276E-17	2.985882E-17
6.050000E+03	4.658392E-17	2.973800E-17
6.060000E+03	4.651780E-17	2.959753E-17
6.070000E+03	4.645425E-17	2.943739E-17
6.080000E+03	4.640065E-17	2.926225E-17
6.090000E+03	4.634180E-17	2.906256E-17
6.100000E+03	4.628507E-17	2.884298E-17
6.110000E+03	4.623025E-17	2.860342E-17
6.120000E+03	4.617715E-17	2.834377E-17
6.130000E+03	4.612556E-17	2.806390E-17
6.140000E+03	4.607525E-17	2.776368E-17
6.150000E+03	4.602599E-17	2.744297E-17
6.160000E+03	4.597752E-17	2.710161E-17
6.170000E+03	4.592959E-17	2.673946E-17
6.180000E+03	4.588193E-17	2.635634E-17
6.190000E+03	4.583426E-17	2.595212E-17
6.200000E+03	4.578629E-17	2.552661E-17
6.210000E+03	4.573771E-17	2.507969E-17
6.220000E+03	4.568824E-17	2.461120E-17
6.230000E+03	4.563755E-17	2.412100E-17
6.240000E+03	4.558533E-17	2.360897E-17
6.250000E+03	4.553126E-17	2.307500E-17
6.260000E+03	4.547501E-17	2.251900E-17
6.270000E+03	4.541626E-17	2.194090E-17
6.280000E+03	4.535467E-17	2.134064E-17
6.290000E+03	4.528259E-17	2.071484E-17
6.300000E+03	4.521435E-17	2.007033E-17
6.310000E+03	4.514230E-17	1.940368E-17
6.320000E+03	4.506610E-17	1.871497E-17
6.330000E+03	4.498544E-17	1.800429E-17
6.340000E+03	4.490000E-17	1.727181E-17
6.350000E+03	4.480949E-17	1.651770E-17
6.360000E+03	4.471360E-17	1.574222E-17
6.370000E+03	4.460483E-17	1.494323E-17
6.380000E+03	4.449739E-17	1.412607E-17
6.390000E+03	4.438377E-17	1.328862E-17
6.400000E+03	4.426374E-17	1.243136E-17
6.410000E+03	4.413711E-17	1.155491E-17
6.420000E+03	4.400369E-17	1.065998E-17
6.430000E+03	4.385621E-17	9.745848E-18
6.440000E+03	4.370879E-17	8.816926E-18
6.450000E+03	4.355423E-17	7.872897E-18
6.460000E+03	4.339246E-17	6.915705E-18
6.470000E+03	4.322346E-17	5.948214E-18
6.480000E+03	4.304028E-17	4.974250E-18
6.490000E+03	4.285692E-17	4.003999E-18
6.500000E+03	4.266642E-17	3.054273E-18
6.510000E+03	4.246885E-17	2.170706E-18
6.520000E+03	4.225742E-17	1.495826E-18
6.530000E+03	4.204595E-17	1.386547E-18
6.540000E+03	4.182767E-17	1.929183E-18
6.550000E+03	4.160277E-17	2.744305E-18
6.560000E+03	4.136474E-17	3.633659E-18
6.570000E+03	4.112722E-17	4.536955E-18
6.580000E+03	4.088368E-17	5.431799E-18
6.590000E+03	4.062776E-17	6.307723E-18
6.600000E+03	4.037290E-17	7.162010E-18
6.610000E+03	4.011272E-17	7.991331E-18
6.620000E+03	3.984105E-17	8.792909E-18
6.630000E+03	3.957115E-17	9.568738E-18
6.640000E+03	3.929685E-17	1.031716E-17
6.650000E+03	3.901216E-17	1.103626E-17
6.660000E+03	3.873015E-17	1.172955E-17
6.670000E+03	3.844483E-17	1.239553E-17
6.680000E+03	3.815039E-17	1.303234E-17
6.690000E+03	3.785966E-17	1.364444E-17
6.700000E+03	3.756069E-17	1.422792E-17
6.710000E+03	3.726613E-17	1.478775E-17
6.720000E+03	3.697023E-17	1.532220E-17
6.730000E+03	3.666743E-17	1.582923E-17
6.740000E+03	3.637007E-17	1.631446E-17
6.750000E+03	3.606668E-17	1.677327E-17
6.760000E+03	3.576939E-17	1.721165E-17
6.770000E+03	3.547267E-17	1.762756E-17
6.780000E+03	3.517116E-17	1.801875E-17
6.790000E+03	3.487667E-17	1.839164E-17
6.800000E+03	3.457817E-17	1.874102E-17
6.810000E+03	3.428726E-17	1.907358E-17
6.820000E+03	3.399307E-17	1.938388E-17
6.830000E+03	3.370700E-17	1.967885E-17
6.840000E+03	3.341832E-17	1.995282E-17
6.850000E+03	3.313823E-17	2.021293E-17
6.860000E+03	3.285618E-17	2.045334E-17
6.870000E+03	3.258313E-17	2.068131E-17
6.880000E+03	3.230869E-17	2.089085E-17
6.890000E+03	3.204364E-17	2.108936E-17
6.900000E+03	3.177772E-17	2.127068E-17
6.910000E+03	3.152151E-17	2.144231E-17
6.920000E+03	3.126491E-17	2.159795E-17
6.930000E+03	3.101830E-17	2.174520E-17
6.940000E+03	3.077171E-17	2.187761E-17
6.950000E+03	3.053535E-17	2.200285E-17
6.960000E+03	3.029940E-17	2.211434E-17
6.970000E+03	3.007386E-17	2.221981E-17
6.980000E+03	2.984904E-17	2.231258E-17
6.990000E+03	2.962998E-17	2.239675E-17
7.000000E+03	2.942156E-17	2.247647E-17
7.010000E+03	2.921426E-17	2.254492E-17
7.020000E+03	2.901771E-17	2.260986E-17
7.030000E+03	2.882250E-17	2.266440E-17
7.040000E+03	2.863345E-17	2.271262E-17
7.050000E+03	2.845524E-17	2.275861E-17
7.060000E+03	2.827863E-17	2.279536E-17
7.070000E+03	2.811290E-17	2.283063E-17
7.080000E+03	2.794890E-17	2.285735E-17
7.090000E+03	2.779126E-17	2.287954E-17
7.100000E+03	2.764450E-17	2.290123E-17
7.110000E+03	2.749961E-17	2.291526E-17
7.120000E+03	2.736113E-17	2.292562E-17
7.130000E+03	2.723350E-17	2.293628E-17
7.140000E+03	2.710783E-17	2.294002E-17
7.150000E+03	2.698856E-17	2.294077E-17
7.160000E+03	2.688008E-17	2.294247E-17
7.170000E+03	2.677358E-17	2.293783E-17
7.180000E+03	2.667345E-17	2.293075E-17
7.190000E+03	2.658401E-17	2.292509E-17
7.200000E+03	2.649654E-17	2.291353E-17
7.210000E+03	2.641538E-17	2.289990E-17
7.220000E+03	2.634477E-17	2.288804E-17
7.230000E+03	2.627609E-17	2.287057E-17
7.240000E+03	2.621362E-17	2.285127E-17
7.250000E+03	2.615729E-17	2.283020E-17
7.260000E+03	2.611134E-17	2.281111E-17
7.270000E+03	2.606719E-17	2.278659E-17
7.280000E+03	2.602906E-17	2.276035E-17
7.290000E+03	2.599689E-17	2.273238E-17
7.300000E+03	2.597488E-17	2.270637E-17
7.310000E+03	2.595447E-17	2.267485E-17
7.320000E+03	2.593985E-17	2.264149E-17
7.330000E+03	2.593095E-17	2.260621E-17
7.340000E+03	2.592771E-17	2.256893E-17
7.350000E+03	2.593429E-17	2.253322E-17
7.360000E+03	2.594213E-17	2.249161E-17
7.370000E+03	2.595540E-17	2.244766E-17
7.380000E+03	2.597402E-17	2.240122E-17
7.390000E+03	2.599788E-17	2.235214E-17
7.400000E+03	2.603114E-17	2.230388E-17
7.410000E+03	2.606522E-17	2.224898E-17
7.420000E+03	2.610425E-17	2.219087E-17
7.430000E+03	2.614812E-17	2.212934E-17
7.440000E+03	2.619672E-17	2.206418E-17
7.450000E+03	2.624992E-17	2.199513E-17
7.460000E+03	2.631190E-17	2.192552E-17
7.470000E+03	2.637392E-17	2.184790E-17
7.480000E+03	2.644015E-17	2.176559E-17
7.490000E+03	2.651041E-17	2.167829E-17
7.500000E+03	2.658457E-17	2.158568E-17
7.510000E+03	2.666245E-17	2.148745E-17
7.520000E+03	2.674387E-17	2.138326E-17
7.530000E+03	2.682866E-17	2.127276E-17
7.540000E+03	2.691661E-17	2.115559E-17
7.550000E+03	2.700753E-17	2.103139E-17
7.560000E+03	2.710565E-17	2.090319E-17
7.570000E+03	2.720187E-17	2.076374E-17
7.580000E+03	2.730039E-17	2.061609E-17
7.590000E+03	2.740096E-17	2.045982E-17
7.600000E+03	2.750333E-17	2.029451E-17
7.610000E+03	2.760722E-17	2.011977E-17
7.620000E+03	2.771238E-17	1.993514E-17
7.630000E+03	2.781849E-17	1.974022E-17
7.640000E+03	2.792527E-17	1.953456E-17
7.650000E+03	2.803239E-17	1.931775E-17
7.660000E+03	2.813955E-17	1.908934E-17
7.670000E+03	2.824639E-17	1.884891E-17
7.680000E+03	2.835258E-17	1.859605E-17
7.690000E+03	2.845776E-17	1.833033E-17
7.700000E+03	2.856156E-17	1.805136E-17
7.710000E+03	2.866360E-17	1.775875E-17
7.720000E+03	2.876350E-17	1.745211E-17
7.730000E+03	2.886086E-17	1.713108E-17
7.740000E+03	2.895528E-17	1.679533E-17
7.750000E+03	2.904635E-17	1.644454E-17
7.760000E+03	2.913365E-17	1.607842E-17
