#wls	flux	fluxerr
1.600000E+03	9.466427E-15	4.159598E-16
1.640000E+03	9.615357E-15	4.197083E-16
1.680000E+03	9.754153E-15	4.228657E-16
1.720000E+03	9.882553E-15	4.254260E-16
1.760000E+03	1.000116E-14	4.274208E-16
1.800000E+03	1.011022E-14	4.288659E-16
1.840000E+03	1.021106E-14	4.298228E-16
1.880000E+03	1.030484E-14	4.303452E-16
1.920000E+03	1.039382E-14	4.305296E-16
1.960000E+03	1.047989E-14	4.304563E-16
2.000000E+03	1.056644E-14	4.302627E-16
2.040000E+03	1.065668E-14	4.300752E-16
2.080000E+03	1.075407E-14	4.300246E-16
2.120000E+03	1.086279E-14	4.302655E-16
2.160000E+03	1.098637E-14	4.309189E-16
2.200000E+03	1.112868E-14	4.321151E-16
2.240000E+03	1.129256E-14	4.339354E-16
2.280000E+03	1.147992E-14	4.364217E-16
2.320000E+03	1.169155E-14	4.395691E-16
2.360000E+03	1.192693E-14	4.433216E-16
2.400000E+03	1.218517E-14	4.476086E-16
2.440000E+03	1.246510E-14	4.523505E-16
2.480000E+03	1.276554E-14	4.574676E-16
2.520000E+03	1.308525E-14	4.628799E-16
2.560000E+03	1.342369E-14	4.685322E-16
2.600000E+03	1.378008E-14	4.743618E-16
2.640000E+03	1.415395E-14	4.803168E-16
2.680000E+03	1.454593E-14	4.863818E-16
2.720000E+03	1.495675E-14	4.925428E-16
2.760000E+03	1.538877E-14	4.988370E-16
2.800000E+03	1.584564E-14	5.053353E-16
2.840000E+03	1.633069E-14	5.120916E-16
2.880000E+03	1.684718E-14	5.191483E-16
2.920000E+03	1.739806E-14	5.265302E-16
2.960000E+03	1.798535E-14	5.342263E-16
3.000000E+03	1.860999E-14	5.421892E-16
3.010000E+03	1.877202E-14	5.442134E-16
3.020000E+03	1.893634E-14	5.462468E-16
3.030000E+03	1.910312E-14	5.482930E-16
3.040000E+03	1.927213E-14	5.503444E-16
3.050000E+03	1.944336E-14	5.523993E-16
3.060000E+03	1.961696E-14	5.544607E-16
3.070000E+03	1.979272E-14	5.565215E-16
3.080000E+03	1.997081E-14	5.585852E-16
3.090000E+03	2.015081E-14	5.606389E-16
3.100000E+03	2.033307E-14	5.626914E-16
3.110000E+03	2.051719E-14	5.647300E-16
3.120000E+03	2.070332E-14	5.667583E-16
3.130000E+03	2.089125E-14	5.687688E-16
3.140000E+03	2.108093E-14	5.707598E-16
3.150000E+03	2.127234E-14	5.727293E-16
3.160000E+03	2.146544E-14	5.746753E-16
3.170000E+03	2.165982E-14	5.765859E-16
3.180000E+03	2.185562E-14	5.784644E-16
3.190000E+03	2.205264E-14	5.803040E-16
3.200000E+03	2.225083E-14	5.821029E-16
3.210000E+03	2.244977E-14	5.838496E-16
3.220000E+03	2.264961E-14	5.855476E-16
3.230000E+03	2.284995E-14	5.871854E-16
3.240000E+03	2.305074E-14	5.887617E-16
3.250000E+03	2.325155E-14	5.902654E-16
3.260000E+03	2.345255E-14	5.917000E-16
3.270000E+03	2.365331E-14	5.930552E-16
3.280000E+03	2.385361E-14	5.943250E-16
3.290000E+03	2.405303E-14	5.954992E-16
3.300000E+03	2.425154E-14	5.965774E-16
3.310000E+03	2.444869E-14	5.975490E-16
3.320000E+03	2.464430E-14	5.984098E-16
3.330000E+03	2.483791E-14	5.991498E-16
3.340000E+03	2.502932E-14	5.997648E-16
3.350000E+03	2.521810E-14	6.002458E-16
3.360000E+03	2.540386E-14	6.005844E-16
3.370000E+03	2.558616E-14	6.007722E-16
3.380000E+03	2.576461E-14	6.008014E-16
3.390000E+03	2.593898E-14	6.006685E-16
3.400000E+03	2.610866E-14	6.003618E-16
3.410000E+03	2.627308E-14	5.998703E-16
3.420000E+03	2.643202E-14	5.991917E-16
3.430000E+03	2.658487E-14	5.983152E-16
3.440000E+03	2.673123E-14	5.972349E-16
3.450000E+03	2.687054E-14	5.959415E-16
3.460000E+03	2.700218E-14	5.944253E-16
3.470000E+03	2.712616E-14	5.926902E-16
3.480000E+03	2.724153E-14	5.907195E-16
3.490000E+03	2.734826E-14	5.885170E-16
3.500000E+03	2.744596E-14	5.860794E-16
3.510000E+03	2.753446E-14	5.834072E-16
3.520000E+03	2.761374E-14	5.805052E-16
3.530000E+03	2.768380E-14	5.773783E-16
3.540000E+03	2.774453E-14	5.740289E-16
3.550000E+03	2.779632E-14	5.704702E-16
3.560000E+03	2.783945E-14	5.667129E-16
3.570000E+03	2.787406E-14	5.627643E-16
3.580000E+03	2.790035E-14	5.586330E-16
3.590000E+03	2.791905E-14	5.543385E-16
3.600000E+03	2.793024E-14	5.498864E-16
3.610000E+03	2.793436E-14	5.452896E-16
3.620000E+03	2.793200E-14	5.405635E-16
3.630000E+03	2.792355E-14	5.357193E-16
3.640000E+03	2.790899E-14	5.307605E-16
3.650000E+03	2.788895E-14	5.257024E-16
3.660000E+03	2.786351E-14	5.205497E-16
3.670000E+03	2.783291E-14	5.153104E-16
3.680000E+03	2.779743E-14	5.099927E-16
3.690000E+03	2.775732E-14	5.046044E-16
3.700000E+03	2.771340E-14	4.991629E-16
3.710000E+03	2.766643E-14	4.936847E-16
3.720000E+03	2.761776E-14	4.881957E-16
3.730000E+03	2.756895E-14	4.827249E-16
3.740000E+03	2.752220E-14	4.773111E-16
3.750000E+03	2.748004E-14	4.719976E-16
3.760000E+03	2.744527E-14	4.668305E-16
3.770000E+03	2.742065E-14	4.618535E-16
3.780000E+03	2.740907E-14	4.571104E-16
3.790000E+03	2.741303E-14	4.526369E-16
3.800000E+03	2.743482E-14	4.484640E-16
3.810000E+03	2.747608E-14	4.446100E-16
3.820000E+03	2.753813E-14	4.410877E-16
3.830000E+03	2.762113E-14	4.378905E-16
3.840000E+03	2.772477E-14	4.350045E-16
3.850000E+03	2.784785E-14	4.324023E-16
3.860000E+03	2.798858E-14	4.300482E-16
3.870000E+03	2.814430E-14	4.278948E-16
3.880000E+03	2.831214E-14	4.258931E-16
3.890000E+03	2.848810E-14	4.239797E-16
3.900000E+03	2.866880E-14	4.221028E-16
3.910000E+03	2.884996E-14	4.201994E-16
3.920000E+03	2.902810E-14	4.182216E-16
3.930000E+03	2.919970E-14	4.161224E-16
3.940000E+03	2.936168E-14	4.138639E-16
3.950000E+03	2.951139E-14	4.114158E-16
3.960000E+03	2.964706E-14	4.087619E-16
3.970000E+03	2.976688E-14	4.058864E-16
3.980000E+03	2.986979E-14	4.027844E-16
3.990000E+03	2.995492E-14	3.994546E-16
4.000000E+03	3.002164E-14	3.958991E-16
4.010000E+03	3.006962E-14	3.921244E-16
4.020000E+03	3.009841E-14	3.881355E-16
4.030000E+03	3.010749E-14	3.839365E-16
4.040000E+03	3.009645E-14	3.795333E-16
4.050000E+03	3.006454E-14	3.749276E-16
4.060000E+03	3.001115E-14	3.701232E-16
4.070000E+03	2.993518E-14	3.651177E-16
4.080000E+03	2.983663E-14	3.599229E-16
4.090000E+03	2.971494E-14	3.545433E-16
4.100000E+03	2.957083E-14	3.489985E-16
4.110000E+03	2.940505E-14	3.433081E-16
4.120000E+03	2.921926E-14	3.375013E-16
4.130000E+03	2.901598E-14	3.316159E-16
4.140000E+03	2.879820E-14	3.256939E-16
4.150000E+03	2.856928E-14	3.197791E-16
4.160000E+03	2.833353E-14	3.139246E-16
4.170000E+03	2.809482E-14	3.081762E-16
4.180000E+03	2.785757E-14	3.025839E-16
4.190000E+03	2.762584E-14	2.971919E-16
4.200000E+03	2.740307E-14	2.920359E-16
4.210000E+03	2.719250E-14	2.871483E-16
4.220000E+03	2.699547E-14	2.825407E-16
4.230000E+03	2.681297E-14	2.782202E-16
4.240000E+03	2.664391E-14	2.741729E-16
4.250000E+03	2.648633E-14	2.703764E-16
4.260000E+03	2.633667E-14	2.667927E-16
4.270000E+03	2.619066E-14	2.633780E-16
4.280000E+03	2.604334E-14	2.600831E-16
4.290000E+03	2.589005E-14	2.568624E-16
4.300000E+03	2.572677E-14	2.536782E-16
4.310000E+03	2.555078E-14	2.505058E-16
4.320000E+03	2.536093E-14	2.473358E-16
4.330000E+03	2.515839E-14	2.441812E-16
4.340000E+03	2.494631E-14	2.410729E-16
4.350000E+03	2.472966E-14	2.380578E-16
4.360000E+03	2.451526E-14	2.351965E-16
4.370000E+03	2.431004E-14	2.325495E-16
4.380000E+03	2.412188E-14	2.301855E-16
4.390000E+03	2.395727E-14	2.281597E-16
4.400000E+03	2.382190E-14	2.265199E-16
4.410000E+03	2.371903E-14	2.252905E-16
4.420000E+03	2.365076E-14	2.244863E-16
4.430000E+03	2.361660E-14	2.240975E-16
4.440000E+03	2.361467E-14	2.241023E-16
4.450000E+03	2.364099E-14	2.244596E-16
4.460000E+03	2.369059E-14	2.251191E-16
4.470000E+03	2.375754E-14	2.260220E-16
4.480000E+03	2.383519E-14	2.271024E-16
4.490000E+03	2.391687E-14	2.282944E-16
4.500000E+03	2.399587E-14	2.295309E-16
4.510000E+03	2.406573E-14	2.307469E-16
4.520000E+03	2.412133E-14	2.318893E-16
4.530000E+03	2.415765E-14	2.329055E-16
4.540000E+03	2.417074E-14	2.337525E-16
4.550000E+03	2.415800E-14	2.343995E-16
4.560000E+03	2.411734E-14	2.348199E-16
4.570000E+03	2.404781E-14	2.349983E-16
4.580000E+03	2.394990E-14	2.349325E-16
4.590000E+03	2.382452E-14	2.346248E-16
4.600000E+03	2.367388E-14	2.340899E-16
4.610000E+03	2.350079E-14	2.333494E-16
4.620000E+03	2.330901E-14	2.324342E-16
4.630000E+03	2.310266E-14	2.313799E-16
4.640000E+03	2.288631E-14	2.302273E-16
4.650000E+03	2.266491E-14	2.290218E-16
4.660000E+03	2.244333E-14	2.278093E-16
4.670000E+03	2.222634E-14	2.266357E-16
4.680000E+03	2.201844E-14	2.255449E-16
4.690000E+03	2.182368E-14	2.245778E-16
4.700000E+03	2.164556E-14	2.237699E-16
4.710000E+03	2.148671E-14	2.231489E-16
4.720000E+03	2.134927E-14	2.227381E-16
4.730000E+03	2.123438E-14	2.225505E-16
4.740000E+03	2.114176E-14	2.225848E-16
4.750000E+03	2.107125E-14	2.228408E-16
4.760000E+03	2.102085E-14	2.232993E-16
4.770000E+03	2.098852E-14	2.239395E-16
4.780000E+03	2.097144E-14	2.247325E-16
4.790000E+03	2.096597E-14	2.256402E-16
4.800000E+03	2.096895E-14	2.266285E-16
4.810000E+03	2.097640E-14	2.276544E-16
4.820000E+03	2.098493E-14	2.286804E-16
4.830000E+03	2.099111E-14	2.296680E-16
4.840000E+03	2.099198E-14	2.305833E-16
4.850000E+03	2.098511E-14	2.313980E-16
4.860000E+03	2.096856E-14	2.320886E-16
4.870000E+03	2.094096E-14	2.326380E-16
4.880000E+03	2.090149E-14	2.330349E-16
4.890000E+03	2.084966E-14	2.332719E-16
4.900000E+03	2.078597E-14	2.333525E-16
4.910000E+03	2.071067E-14	2.332777E-16
4.920000E+03	2.062504E-14	2.330604E-16
4.930000E+03	2.053019E-14	2.327116E-16
4.940000E+03	2.042760E-14	2.322470E-16
4.950000E+03	2.031898E-14	2.316851E-16
4.960000E+03	2.020631E-14	2.310482E-16
4.970000E+03	2.009148E-14	2.303571E-16
4.980000E+03	1.997617E-14	2.296312E-16
4.990000E+03	1.986250E-14	2.288948E-16
5.000000E+03	1.975191E-14	2.281650E-16
5.010000E+03	1.964581E-14	2.274585E-16
5.020000E+03	1.954551E-14	2.267909E-16
5.030000E+03	1.945187E-14	2.261727E-16
5.040000E+03	1.936546E-14	2.256115E-16
5.050000E+03	1.928658E-14	2.251112E-16
5.060000E+03	1.921541E-14	2.246748E-16
5.070000E+03	1.915159E-14	2.242986E-16
5.080000E+03	1.909507E-14	2.239828E-16
5.090000E+03	1.904500E-14	2.237179E-16
5.100000E+03	1.900102E-14	2.235001E-16
5.110000E+03	1.896236E-14	2.233210E-16
5.120000E+03	1.892814E-14	2.231705E-16
5.130000E+03	1.889724E-14	2.230357E-16
5.140000E+03	1.886897E-14	2.229090E-16
5.150000E+03	1.884209E-14	2.227760E-16
5.160000E+03	1.881569E-14	2.226260E-16
5.170000E+03	1.878847E-14	2.224442E-16
5.180000E+03	1.875967E-14	2.222216E-16
5.190000E+03	1.872790E-14	2.219421E-16
5.200000E+03	1.869248E-14	2.215980E-16
5.210000E+03	1.865232E-14	2.211765E-16
5.220000E+03	1.860680E-14	2.206708E-16
5.230000E+03	1.855508E-14	2.200713E-16
5.240000E+03	1.849691E-14	2.193753E-16
5.250000E+03	1.843218E-14	2.185822E-16
5.260000E+03	1.836053E-14	2.176883E-16
5.270000E+03	1.828234E-14	2.166985E-16
5.280000E+03	1.819800E-14	2.156184E-16
5.290000E+03	1.810830E-14	2.144578E-16
5.300000E+03	1.801374E-14	2.132236E-16
5.310000E+03	1.791513E-14	2.119259E-16
5.320000E+03	1.781342E-14	2.105767E-16
5.330000E+03	1.770919E-14	2.091839E-16
5.340000E+03	1.760328E-14	2.077578E-16
5.350000E+03	1.749587E-14	2.063016E-16
5.360000E+03	1.738770E-14	2.048247E-16
5.370000E+03	1.727887E-14	2.033291E-16
5.380000E+03	1.716974E-14	2.018196E-16
5.390000E+03	1.706010E-14	2.002946E-16
5.400000E+03	1.695039E-14	1.987601E-16
5.410000E+03	1.684064E-14	1.972170E-16
5.420000E+03	1.673085E-14	1.956660E-16
5.430000E+03	1.662161E-14	1.941148E-16
5.440000E+03	1.651280E-14	1.925627E-16
5.450000E+03	1.640483E-14	1.910149E-16
5.460000E+03	1.629786E-14	1.894731E-16
5.470000E+03	1.619183E-14	1.879368E-16
5.480000E+03	1.608662E-14	1.864047E-16
5.490000E+03	1.598228E-14	1.848774E-16
5.500000E+03	1.587901E-14	1.833574E-16
5.510000E+03	1.577663E-14	1.818425E-16
5.520000E+03	1.567531E-14	1.803348E-16
5.530000E+03	1.557524E-14	1.788365E-16
5.540000E+03	1.547643E-14	1.773480E-16
5.550000E+03	1.537920E-14	1.758730E-16
5.560000E+03	1.528351E-14	1.744109E-16
5.570000E+03	1.518926E-14	1.729610E-16
5.580000E+03	1.509668E-14	1.715257E-16
5.590000E+03	1.500564E-14	1.701039E-16
5.600000E+03	1.491625E-14	1.686968E-16
5.610000E+03	1.482848E-14	1.673041E-16
5.620000E+03	1.474258E-14	1.659289E-16
5.630000E+03	1.465888E-14	1.645750E-16
5.640000E+03	1.457767E-14	1.632456E-16
5.650000E+03	1.449963E-14	1.619485E-16
5.660000E+03	1.442524E-14	1.606890E-16
5.670000E+03	1.435496E-14	1.594723E-16
5.680000E+03	1.428961E-14	1.583072E-16
5.690000E+03	1.422947E-14	1.571969E-16
5.700000E+03	1.417535E-14	1.561500E-16
5.710000E+03	1.412719E-14	1.551657E-16
5.720000E+03	1.408557E-14	1.542501E-16
5.730000E+03	1.405043E-14	1.534023E-16
5.740000E+03	1.402155E-14	1.526194E-16
5.750000E+03	1.399883E-14	1.519003E-16
5.760000E+03	1.398154E-14	1.512368E-16
5.770000E+03	1.396940E-14	1.506257E-16
5.780000E+03	1.396123E-14	1.500543E-16
5.790000E+03	1.395650E-14	1.495167E-16
5.800000E+03	1.395417E-14	1.490021E-16
5.810000E+03	1.395329E-14	1.485006E-16
5.820000E+03	1.395284E-14	1.480017E-16
5.830000E+03	1.395196E-14	1.474966E-16
5.840000E+03	1.394987E-14	1.469778E-16
5.850000E+03	1.394596E-14	1.464396E-16
5.860000E+03	1.393955E-14	1.458757E-16
5.870000E+03	1.393044E-14	1.452849E-16
5.880000E+03	1.391807E-14	1.446622E-16
5.890000E+03	1.390265E-14	1.440107E-16
5.900000E+03	1.388382E-14	1.433278E-16
5.910000E+03	1.386178E-14	1.426166E-16
5.920000E+03	1.383644E-14	1.418772E-16
5.930000E+03	1.380789E-14	1.411115E-16
5.940000E+03	1.377622E-14	1.403215E-16
5.950000E+03	1.374135E-14	1.395076E-16
5.960000E+03	1.370353E-14	1.386731E-16
5.970000E+03	1.366278E-14	1.378195E-16
5.980000E+03	1.361886E-14	1.369453E-16
5.990000E+03	1.357204E-14	1.360543E-16
6.000000E+03	1.352201E-14	1.351444E-16
6.010000E+03	1.346869E-14	1.342159E-16
6.020000E+03	1.341225E-14	1.332714E-16
6.030000E+03	1.335210E-14	1.323062E-16
6.040000E+03	1.328819E-14	1.313207E-16
6.050000E+03	1.322031E-14	1.303139E-16
6.060000E+03	1.314811E-14	1.292833E-16
6.070000E+03	1.307155E-14	1.282294E-16
6.080000E+03	1.299019E-14	1.271489E-16
6.090000E+03	1.290429E-14	1.260453E-16
6.100000E+03	1.281350E-14	1.249158E-16
6.110000E+03	1.271834E-14	1.237662E-16
6.120000E+03	1.261889E-14	1.225982E-16
6.130000E+03	1.251583E-14	1.214187E-16
6.140000E+03	1.240968E-14	1.202333E-16
6.150000E+03	1.230102E-14	1.190480E-16
6.160000E+03	1.219067E-14	1.178710E-16
6.170000E+03	1.207922E-14	1.167081E-16
6.180000E+03	1.196668E-14	1.155596E-16
6.190000E+03	1.185339E-14	1.144279E-16
6.200000E+03	1.173912E-14	1.133095E-16
6.210000E+03	1.162335E-14	1.121980E-16
6.220000E+03	1.150531E-14	1.110848E-16
6.230000E+03	1.138440E-14	1.099627E-16
6.240000E+03	1.126026E-14	1.088270E-16
6.250000E+03	1.113320E-14	1.076792E-16
6.260000E+03	1.100447E-14	1.065300E-16
6.270000E+03	1.087600E-14	1.053968E-16
6.280000E+03	1.074975E-14	1.042975E-16
6.290000E+03	1.062835E-14	1.032565E-16
6.300000E+03	1.051437E-14	1.022977E-16
6.310000E+03	1.041035E-14	1.014451E-16
6.320000E+03	1.031874E-14	1.007221E-16
6.330000E+03	1.024147E-14	1.001471E-16
6.340000E+03	1.018010E-14	9.973537E-17
6.350000E+03	1.013612E-14	9.950154E-17
6.360000E+03	1.010999E-14	9.945029E-17
6.370000E+03	1.010198E-14	9.958475E-17
6.380000E+03	1.011165E-14	9.990099E-17
6.390000E+03	1.013800E-14	1.003894E-16
6.400000E+03	1.017933E-14	1.010337E-16
6.410000E+03	1.023393E-14	1.018171E-16
6.420000E+03	1.029902E-14	1.027122E-16
6.430000E+03	1.037204E-14	1.036934E-16
6.440000E+03	1.045014E-14	1.047322E-16
6.450000E+03	1.053046E-14	1.057995E-16
6.460000E+03	1.061022E-14	1.068669E-16
6.470000E+03	1.068731E-14	1.079122E-16
6.480000E+03	1.075949E-14	1.089120E-16
6.490000E+03	1.082545E-14	1.098521E-16
6.500000E+03	1.088405E-14	1.107195E-16
6.510000E+03	1.093468E-14	1.115068E-16
6.520000E+03	1.097685E-14	1.122080E-16
6.530000E+03	1.101034E-14	1.128193E-16
6.540000E+03	1.103477E-14	1.133358E-16
6.550000E+03	1.104959E-14	1.137504E-16
6.560000E+03	1.105399E-14	1.140536E-16
6.570000E+03	1.104758E-14	1.142400E-16
6.580000E+03	1.102984E-14	1.143032E-16
6.590000E+03	1.100053E-14	1.142393E-16
6.600000E+03	1.096019E-14	1.140529E-16
6.610000E+03	1.090908E-14	1.137454E-16
6.620000E+03	1.084753E-14	1.133196E-16
6.630000E+03	1.077689E-14	1.127885E-16
6.640000E+03	1.069763E-14	1.121564E-16
6.650000E+03	1.061101E-14	1.114360E-16
6.660000E+03	1.051832E-14	1.106402E-16
6.670000E+03	1.042042E-14	1.097777E-16
6.680000E+03	1.031845E-14	1.088603E-16
6.690000E+03	1.021372E-14	1.079016E-16
6.700000E+03	1.010712E-14	1.069111E-16
6.710000E+03	9.999682E-15	1.058996E-16
6.720000E+03	9.892332E-15	1.048770E-16
6.730000E+03	9.785929E-15	1.038527E-16
6.740000E+03	9.681089E-15	1.028333E-16
6.750000E+03	9.578660E-15	1.018281E-16
6.760000E+03	9.479087E-15	1.008421E-16
6.770000E+03	9.382891E-15	9.988111E-17
6.780000E+03	9.290663E-15	9.895171E-17
6.790000E+03	9.202453E-15	9.805474E-17
6.800000E+03	9.118698E-15	9.719515E-17
6.810000E+03	9.039459E-15	9.637389E-17
6.820000E+03	8.965034E-15	9.559440E-17
6.830000E+03	8.895350E-15	9.485620E-17
6.840000E+03	8.830437E-15	9.415985E-17
6.850000E+03	8.770421E-15	9.350694E-17
6.860000E+03	8.714934E-15	9.289381E-17
6.870000E+03	8.664025E-15	9.232115E-17
6.880000E+03	8.617407E-15	9.178616E-17
6.890000E+03	8.575070E-15	9.128890E-17
6.900000E+03	8.536829E-15	9.082762E-17
6.910000E+03	8.502193E-15	9.039727E-17
6.920000E+03	8.471244E-15	8.999892E-17
6.930000E+03	8.443464E-15	8.962725E-17
6.940000E+03	8.418916E-15	8.928314E-17
6.950000E+03	8.397067E-15	8.896112E-17
6.960000E+03	8.377825E-15	8.866043E-17
6.970000E+03	8.360802E-15	8.837718E-17
6.980000E+03	8.345758E-15	8.810909E-17
6.990000E+03	8.332612E-15	8.785555E-17
7.000000E+03	8.320994E-15	8.761292E-17
7.010000E+03	8.310543E-15	8.737774E-17
7.020000E+03	8.301360E-15	8.715134E-17
7.030000E+03	8.292959E-15	8.692900E-17
7.040000E+03	8.285314E-15	8.671081E-17
7.050000E+03	8.278120E-15	8.649395E-17
7.060000E+03	8.271373E-15	8.627884E-17
7.070000E+03	8.264789E-15	8.606295E-17
7.080000E+03	8.258241E-15	8.584542E-17
7.090000E+03	8.251609E-15	8.562554E-17
7.100000E+03	8.244781E-15	8.540266E-17
7.110000E+03	8.237647E-15	8.517621E-17
7.120000E+03	8.230098E-15	8.494565E-17
7.130000E+03	8.221877E-15	8.470893E-17
7.140000E+03	8.213026E-15	8.446716E-17
7.150000E+03	8.203287E-15	8.421831E-17
7.160000E+03	8.192704E-15	8.396356E-17
7.170000E+03	8.180872E-15	8.369946E-17
7.180000E+03	8.167996E-15	8.342885E-17
7.190000E+03	8.153828E-15	8.314995E-17
7.200000E+03	8.138122E-15	8.286104E-17
7.210000E+03	8.121093E-15	8.256510E-17
7.220000E+03	8.102345E-15	8.225889E-17
7.230000E+03	8.081934E-15	8.194382E-17
7.240000E+03	8.059769E-15	8.161976E-17
7.250000E+03	8.035605E-15	8.128505E-17
7.260000E+03	8.009359E-15	8.093970E-17
7.270000E+03	7.981116E-15	8.058534E-17
7.280000E+03	7.950674E-15	8.022077E-17
7.290000E+03	7.918167E-15	7.984809E-17
7.300000E+03	7.883294E-15	7.946506E-17
7.310000E+03	7.846390E-15	7.907575E-17
7.320000E+03	7.807352E-15	7.867987E-17
7.330000E+03	7.766242E-15	7.827868E-17
7.340000E+03	7.723276E-15	7.787500E-17
7.350000E+03	7.678211E-15	7.746696E-17
7.360000E+03	7.631254E-15	7.705719E-17
7.370000E+03	7.582449E-15	7.664662E-17
7.380000E+03	7.531993E-15	7.623770E-17
7.390000E+03	7.479635E-15	7.582826E-17
7.400000E+03	7.425736E-15	7.542227E-17
7.410000E+03	7.370081E-15	7.501784E-17
7.420000E+03	7.313075E-15	7.461929E-17
7.430000E+03	7.254557E-15	7.422511E-17
7.440000E+03	7.194833E-15	7.383852E-17
7.450000E+03	7.134076E-15	7.346129E-17
7.460000E+03	7.072331E-15	7.309335E-17
7.470000E+03	7.009930E-15	7.273724E-17
7.480000E+03	6.947048E-15	7.239387E-17
7.490000E+03	6.883832E-15	7.206389E-17
7.500000E+03	6.820532E-15	7.174901E-17
7.510000E+03	6.756926E-15	7.144602E-17
7.520000E+03	6.693307E-15	7.115712E-17
7.530000E+03	6.629635E-15	7.088099E-17
7.540000E+03	6.565819E-15	7.061578E-17
7.550000E+03	6.501728E-15	7.035915E-17
7.560000E+03	6.437070E-15	7.010699E-17
7.570000E+03	6.371954E-15	6.985952E-17
7.580000E+03	6.305963E-15	6.961114E-17
7.590000E+03	6.239395E-15	6.936410E-17
7.600000E+03	6.171801E-15	6.911236E-17
7.610000E+03	6.103499E-15	6.885839E-17
7.620000E+03	6.034637E-15	6.860282E-17
7.630000E+03	5.965322E-15	6.834589E-17
7.640000E+03	5.895999E-15	6.809176E-17
7.650000E+03	5.827000E-15	6.784348E-17
7.660000E+03	5.758647E-15	6.760408E-17
7.670000E+03	5.691336E-15	6.737767E-17
7.680000E+03	5.625007E-15	6.716306E-17
7.690000E+03	5.560027E-15	6.696422E-17
7.700000E+03	5.496408E-15	6.678101E-17
7.710000E+03	5.433957E-15	6.661078E-17
7.720000E+03	5.372653E-15	6.645300E-17
7.730000E+03	5.312288E-15	6.630479E-17
7.740000E+03	5.252496E-15	6.616123E-17
7.750000E+03	5.193255E-15	6.602163E-17
7.760000E+03	5.134172E-15	6.588057E-17
