#wls	flux	fluxerr
1.600000E+03	4.576346E-17	1.694214E-18
1.640000E+03	4.673575E-17	1.724356E-18
1.680000E+03	4.773868E-17	1.755236E-18
1.720000E+03	4.877314E-17	1.786862E-18
1.760000E+03	4.984014E-17	1.819247E-18
1.800000E+03	5.095554E-17	1.852941E-18
1.840000E+03	5.210583E-17	1.887423E-18
1.880000E+03	5.330725E-17	1.923249E-18
1.920000E+03	5.454625E-17	1.959895E-18
1.960000E+03	5.583948E-17	1.997924E-18
2.000000E+03	5.717333E-17	2.036813E-18
2.040000E+03	5.856491E-17	2.077132E-18
2.080000E+03	6.001627E-17	2.118909E-18
2.120000E+03	6.152962E-17	2.162174E-18
2.160000E+03	6.309139E-17	2.206402E-18
2.200000E+03	6.473581E-17	2.252741E-18
2.240000E+03	6.643359E-17	2.300114E-18
2.280000E+03	6.821990E-17	2.349680E-18
2.320000E+03	7.008179E-17	2.400928E-18
2.360000E+03	7.202263E-17	2.453905E-18
2.400000E+03	7.404601E-17	2.508665E-18
2.440000E+03	7.618982E-17	2.566411E-18
2.480000E+03	7.840778E-17	2.625496E-18
2.520000E+03	8.075593E-17	2.687714E-18
2.560000E+03	8.320520E-17	2.751994E-18
2.600000E+03	8.579638E-17	2.819585E-18
2.640000E+03	8.850048E-17	2.889418E-18
2.680000E+03	9.136005E-17	2.962768E-18
2.720000E+03	9.436469E-17	3.039166E-18
2.760000E+03	9.754096E-17	3.119328E-18
2.800000E+03	1.008981E-16	3.203397E-18
2.840000E+03	1.044462E-16	3.291525E-18
2.880000E+03	1.081959E-16	3.383878E-18
2.920000E+03	1.121785E-16	3.481237E-18
2.960000E+03	1.163871E-16	3.583188E-18
3.000000E+03	1.208554E-16	3.690549E-18
3.010000E+03	1.220193E-16	3.718397E-18
3.020000E+03	1.231942E-16	3.746405E-18
3.030000E+03	1.244008E-16	3.775201E-18
3.040000E+03	1.256190E-16	3.804164E-18
3.050000E+03	1.268491E-16	3.833302E-18
3.060000E+03	1.280910E-16	3.862614E-18
3.070000E+03	1.293658E-16	3.892727E-18
3.080000E+03	1.306532E-16	3.923025E-18
3.090000E+03	1.319744E-16	3.954139E-18
3.100000E+03	1.333085E-16	3.985441E-18
3.110000E+03	1.346558E-16	4.016936E-18
3.120000E+03	1.360166E-16	4.048625E-18
3.130000E+03	1.374124E-16	4.081149E-18
3.140000E+03	1.388437E-16	4.114511E-18
3.150000E+03	1.402678E-16	4.147445E-18
3.160000E+03	1.417280E-16	4.181227E-18
3.170000E+03	1.432248E-16	4.215864E-18
3.180000E+03	1.447370E-16	4.250722E-18
3.190000E+03	1.462645E-16	4.285800E-18
3.200000E+03	1.478297E-16	4.321748E-18
3.210000E+03	1.494109E-16	4.357924E-18
3.220000E+03	1.510085E-16	4.394334E-18
3.230000E+03	1.526449E-16	4.431627E-18
3.240000E+03	1.542982E-16	4.469161E-18
3.250000E+03	1.559913E-16	4.507589E-18
3.260000E+03	1.577019E-16	4.546266E-18
3.270000E+03	1.594531E-16	4.585846E-18
3.280000E+03	1.612224E-16	4.625681E-18
3.290000E+03	1.630102E-16	4.665773E-18
3.300000E+03	1.648398E-16	4.706784E-18
3.310000E+03	1.666883E-16	4.748056E-18
3.320000E+03	1.685795E-16	4.790256E-18
3.330000E+03	1.704902E-16	4.832723E-18
3.340000E+03	1.724445E-16	4.876127E-18
3.350000E+03	1.744190E-16	4.919805E-18
3.360000E+03	1.764378E-16	4.964427E-18
3.370000E+03	1.784774E-16	5.009326E-18
3.380000E+03	1.805382E-16	5.054504E-18
3.390000E+03	1.826442E-16	5.100632E-18
3.400000E+03	1.847961E-16	5.147717E-18
3.410000E+03	1.869700E-16	5.195086E-18
3.420000E+03	1.891659E-16	5.242733E-18
3.430000E+03	1.914087E-16	5.291345E-18
3.440000E+03	1.936740E-16	5.340236E-18
3.450000E+03	1.959869E-16	5.390088E-18
3.460000E+03	1.983477E-16	5.440907E-18
3.470000E+03	2.007317E-16	5.492003E-18
3.480000E+03	2.031389E-16	5.543373E-18
3.490000E+03	2.055947E-16	5.595702E-18
3.500000E+03	2.080997E-16	5.648995E-18
3.510000E+03	2.106284E-16	5.702552E-18
3.520000E+03	2.132065E-16	5.757065E-18
3.530000E+03	2.158084E-16	5.811829E-18
3.540000E+03	2.184339E-16	5.866840E-18
3.550000E+03	2.211354E-16	5.923496E-18
3.560000E+03	2.238343E-16	5.979678E-18
3.570000E+03	2.266096E-16	6.037492E-18
3.580000E+03	2.294085E-16	6.095524E-18
3.590000E+03	2.322306E-16	6.153755E-18
3.600000E+03	2.351026E-16	6.212888E-18
3.610000E+03	2.380246E-16	6.272916E-18
3.620000E+03	2.409690E-16	6.333106E-18
3.630000E+03	2.439631E-16	6.394165E-18
3.640000E+03	2.469791E-16	6.455360E-18
3.650000E+03	2.500440E-16	6.517393E-18
3.660000E+03	2.531298E-16	6.579526E-18
3.670000E+03	2.562639E-16	6.642464E-18
3.680000E+03	2.594460E-16	6.706190E-18
3.690000E+03	2.626473E-16	6.769958E-18
3.700000E+03	2.658955E-16	6.834476E-18
3.710000E+03	2.691615E-16	6.898990E-18
3.720000E+03	2.724731E-16	6.964207E-18
3.730000E+03	2.758298E-16	7.030109E-18
3.740000E+03	2.792018E-16	7.095928E-18
3.750000E+03	2.826173E-16	7.162383E-18
3.760000E+03	2.860754E-16	7.229444E-18
3.770000E+03	2.895459E-16	7.296341E-18
3.780000E+03	2.930276E-16	7.363046E-18
3.790000E+03	2.965786E-16	7.431017E-18
3.800000E+03	3.001388E-16	7.498737E-18
3.810000E+03	3.037065E-16	7.566170E-18
3.820000E+03	3.073409E-16	7.634785E-18
3.830000E+03	3.109501E-16	7.702300E-18
3.840000E+03	3.146238E-16	7.770937E-18
3.850000E+03	3.183000E-16	7.839160E-18
3.860000E+03	3.220079E-16	7.907690E-18
3.870000E+03	3.257155E-16	7.975741E-18
3.880000E+03	3.294521E-16	8.044034E-18
3.890000E+03	3.332163E-16	8.112538E-18
3.900000E+03	3.369760E-16	8.180468E-18
3.910000E+03	3.407607E-16	8.248548E-18
3.920000E+03	3.445378E-16	8.315988E-18
3.930000E+03	3.483372E-16	8.383518E-18
3.940000E+03	3.521575E-16	8.451109E-18
3.950000E+03	3.559978E-16	8.518736E-18
3.960000E+03	3.598245E-16	8.585604E-18
3.970000E+03	3.636364E-16	8.651691E-18
3.980000E+03	3.674959E-16	8.718492E-18
3.990000E+03	3.713378E-16	8.784458E-18
4.000000E+03	3.751604E-16	8.849563E-18
4.010000E+03	3.789947E-16	8.914547E-18
4.020000E+03	3.828395E-16	8.979388E-18
4.030000E+03	3.866936E-16	9.044064E-18
4.040000E+03	3.905228E-16	9.107785E-18
4.050000E+03	3.943587E-16	9.171299E-18
4.060000E+03	3.981670E-16	9.233820E-18
4.070000E+03	4.019792E-16	9.296086E-18
4.080000E+03	4.057939E-16	9.358080E-18
4.090000E+03	4.095765E-16	9.419016E-18
4.100000E+03	4.133588E-16	9.479635E-18
4.110000E+03	4.171061E-16	9.539155E-18
4.120000E+03	4.208498E-16	9.598312E-18
4.130000E+03	4.245884E-16	9.657080E-18
4.140000E+03	4.282869E-16	9.714680E-18
4.150000E+03	4.319767E-16	9.771841E-18
4.160000E+03	4.356561E-16	9.828537E-18
4.170000E+03	4.392898E-16	9.883987E-18
4.180000E+03	4.428756E-16	9.938164E-18
4.190000E+03	4.464450E-16	9.991790E-18
4.200000E+03	4.499960E-16	1.004484E-17
4.210000E+03	4.535267E-16	1.009729E-17
4.220000E+03	4.570016E-16	1.014835E-17
4.230000E+03	4.604187E-16	1.019803E-17
4.240000E+03	4.638099E-16	1.024703E-17
4.250000E+03	4.671741E-16	1.029535E-17
4.260000E+03	4.704766E-16	1.034226E-17
4.270000E+03	4.737506E-16	1.038849E-17
4.280000E+03	4.769628E-16	1.043335E-17
4.290000E+03	4.801480E-16	1.047761E-17
4.300000E+03	4.832749E-16	1.052061E-17
4.310000E+03	4.863809E-16	1.056319E-17
4.320000E+03	4.894381E-16	1.060476E-17
4.330000E+03	4.924874E-16	1.064623E-17
4.340000E+03	4.955058E-16	1.068711E-17
4.350000E+03	4.985397E-16	1.072843E-17
4.360000E+03	5.016057E-16	1.077055E-17
4.370000E+03	5.046577E-16	1.081249E-17
4.380000E+03	5.078207E-16	1.085695E-17
4.390000E+03	5.110228E-16	1.090240E-17
4.400000E+03	5.143646E-16	1.095098E-17
4.410000E+03	5.177201E-16	1.100002E-17
4.420000E+03	5.211322E-16	1.105044E-17
4.430000E+03	5.245807E-16	1.110182E-17
4.440000E+03	5.279821E-16	1.115242E-17
4.450000E+03	5.314215E-16	1.120405E-17
4.460000E+03	5.347877E-16	1.125438E-17
4.470000E+03	5.381380E-16	1.130465E-17
4.480000E+03	5.414645E-16	1.135469E-17
4.490000E+03	5.447285E-16	1.140371E-17
4.500000E+03	5.479258E-16	1.145163E-17
4.510000E+03	5.510530E-16	1.149838E-17
4.520000E+03	5.541414E-16	1.154462E-17
4.530000E+03	5.571568E-16	1.158966E-17
4.540000E+03	5.601317E-16	1.163417E-17
4.550000E+03	5.630334E-16	1.167749E-17
4.560000E+03	5.658625E-16	1.171963E-17
4.570000E+03	5.686203E-16	1.176062E-17
4.580000E+03	5.713409E-16	1.180118E-17
4.590000E+03	5.739609E-16	1.184001E-17
4.600000E+03	5.765801E-16	1.187916E-17
4.610000E+03	5.791029E-16	1.191668E-17
4.620000E+03	5.815967E-16	1.195394E-17
4.630000E+03	5.839994E-16	1.198969E-17
4.640000E+03	5.864107E-16	1.202596E-17
4.650000E+03	5.887363E-16	1.206083E-17
4.660000E+03	5.910116E-16	1.209502E-17
4.670000E+03	5.932717E-16	1.212925E-17
4.680000E+03	5.954554E-16	1.216228E-17
4.690000E+03	5.976301E-16	1.219547E-17
4.700000E+03	5.997670E-16	1.222825E-17
4.710000E+03	6.019011E-16	1.226132E-17
4.720000E+03	6.039725E-16	1.229346E-17
4.730000E+03	6.060166E-16	1.232539E-17
4.740000E+03	6.080683E-16	1.235783E-17
4.750000E+03	6.100685E-16	1.238956E-17
4.760000E+03	6.120835E-16	1.242194E-17
4.770000E+03	6.140548E-16	1.245377E-17
4.780000E+03	6.160487E-16	1.248640E-17
4.790000E+03	6.180379E-16	1.251927E-17
4.800000E+03	6.199955E-16	1.255183E-17
4.810000E+03	6.219876E-16	1.258542E-17
4.820000E+03	6.239874E-16	1.261949E-17
4.830000E+03	6.259684E-16	1.265351E-17
4.840000E+03	6.279964E-16	1.268880E-17
4.850000E+03	6.300145E-16	1.272421E-17
4.860000E+03	6.320882E-16	1.276105E-17
4.870000E+03	6.341610E-16	1.279819E-17
4.880000E+03	6.362983E-16	1.283695E-17
4.890000E+03	6.384438E-16	1.287618E-17
4.900000E+03	6.406327E-16	1.291658E-17
4.910000E+03	6.428696E-16	1.295826E-17
4.920000E+03	6.451590E-16	1.300130E-17
4.930000E+03	6.474756E-16	1.304518E-17
4.940000E+03	6.498845E-16	1.309122E-17
4.950000E+03	6.523302E-16	1.313829E-17
4.960000E+03	6.548475E-16	1.318710E-17
4.970000E+03	6.574411E-16	1.323774E-17
4.980000E+03	6.601159E-16	1.329029E-17
4.990000E+03	6.628765E-16	1.334487E-17
5.000000E+03	6.656980E-16	1.340096E-17
5.010000E+03	6.686147E-16	1.345925E-17
5.020000E+03	6.716314E-16	1.351984E-17
5.030000E+03	6.747227E-16	1.358221E-17
5.040000E+03	6.779230E-16	1.364707E-17
5.050000E+03	6.812365E-16	1.371449E-17
5.060000E+03	6.846676E-16	1.378457E-17
5.070000E+03	6.881905E-16	1.385678E-17
5.080000E+03	6.918388E-16	1.393181E-17
5.090000E+03	6.956164E-16	1.400973E-17
5.100000E+03	6.994970E-16	1.409003E-17
5.110000E+03	7.035134E-16	1.417335E-17
5.120000E+03	7.076390E-16	1.425917E-17
5.130000E+03	7.119062E-16	1.434814E-17
5.140000E+03	7.163174E-16	1.444032E-17
5.150000E+03	7.208446E-16	1.453515E-17
5.160000E+03	7.255194E-16	1.463327E-17
5.170000E+03	7.303432E-16	1.473471E-17
5.180000E+03	7.352864E-16	1.483888E-17
5.190000E+03	7.403493E-16	1.494580E-17
5.200000E+03	7.455619E-16	1.505607E-17
5.210000E+03	7.509235E-16	1.516969E-17
5.220000E+03	7.564025E-16	1.528603E-17
5.230000E+03	7.619969E-16	1.540504E-17
5.240000E+03	7.677347E-16	1.552732E-17
5.250000E+03	7.736128E-16	1.565281E-17
5.260000E+03	7.795971E-16	1.578081E-17
5.270000E+03	7.857138E-16	1.591188E-17
5.280000E+03	7.918956E-16	1.604465E-17
5.290000E+03	7.982304E-16	1.618093E-17
5.300000E+03	8.046491E-16	1.631931E-17
5.310000E+03	8.111446E-16	1.645966E-17
5.320000E+03	8.177087E-16	1.660184E-17
5.330000E+03	8.243643E-16	1.674630E-17
5.340000E+03	8.311025E-16	1.689288E-17
5.350000E+03	8.378813E-16	1.704074E-17
5.360000E+03	8.446896E-16	1.718966E-17
5.370000E+03	8.515158E-16	1.733942E-17
5.380000E+03	8.583801E-16	1.749043E-17
5.390000E+03	8.652372E-16	1.764178E-17
5.400000E+03	8.721061E-16	1.779387E-17
5.410000E+03	8.789402E-16	1.794576E-17
5.420000E+03	8.857244E-16	1.809714E-17
5.430000E+03	8.924432E-16	1.824770E-17
5.440000E+03	8.991142E-16	1.839782E-17
5.450000E+03	9.056875E-16	1.854647E-17
5.460000E+03	9.121800E-16	1.869402E-17
5.470000E+03	9.185072E-16	1.883872E-17
5.480000E+03	9.247189E-16	1.898161E-17
5.490000E+03	9.307634E-16	1.912163E-17
5.500000E+03	9.366623E-16	1.925923E-17
5.510000E+03	9.423508E-16	1.939306E-17
5.520000E+03	9.479043E-16	1.952469E-17
5.530000E+03	9.532957E-16	1.965355E-17
5.540000E+03	9.585669E-16	1.978052E-17
5.550000E+03	9.636570E-16	1.990433E-17
5.560000E+03	9.686430E-16	2.002658E-17
5.570000E+03	9.734988E-16	2.014673E-17
5.580000E+03	9.782332E-16	2.026494E-17
5.590000E+03	9.828894E-16	2.038210E-17
5.600000E+03	9.874067E-16	2.049694E-17
5.610000E+03	9.918638E-16	2.061108E-17
5.620000E+03	9.962345E-16	2.072397E-17
5.630000E+03	1.000528E-15	2.083578E-17
5.640000E+03	1.004752E-15	2.094668E-17
5.650000E+03	1.008916E-15	2.105684E-17
5.660000E+03	1.013028E-15	2.116643E-17
5.670000E+03	1.017131E-15	2.127633E-17
5.680000E+03	1.021198E-15	2.138598E-17
5.690000E+03	1.025201E-15	2.149477E-17
5.700000E+03	1.029217E-15	2.160432E-17
5.710000E+03	1.033218E-15	2.171403E-17
5.720000E+03	1.037210E-15	2.182401E-17
5.730000E+03	1.041234E-15	2.193514E-17
5.740000E+03	1.045223E-15	2.204598E-17
5.750000E+03	1.049218E-15	2.215743E-17
5.760000E+03	1.053257E-15	2.227025E-17
5.770000E+03	1.057274E-15	2.238304E-17
5.780000E+03	1.061343E-15	2.249735E-17
5.790000E+03	1.065428E-15	2.261247E-17
5.800000E+03	1.069496E-15	2.272765E-17
5.810000E+03	1.073618E-15	2.284440E-17
5.820000E+03	1.077759E-15	2.296200E-17
5.830000E+03	1.081920E-15	2.308042E-17
5.840000E+03	1.086097E-15	2.319961E-17
5.850000E+03	1.090290E-15	2.331956E-17
5.860000E+03	1.094495E-15	2.344018E-17
5.870000E+03	1.098713E-15	2.356145E-17
5.880000E+03	1.102937E-15	2.368327E-17
5.890000E+03	1.107164E-15	2.380556E-17
5.900000E+03	1.111391E-15	2.392824E-17
5.910000E+03	1.115613E-15	2.405120E-17
5.920000E+03	1.119827E-15	2.417436E-17
5.930000E+03	1.124026E-15	2.429758E-17
5.940000E+03	1.128243E-15	2.442156E-17
5.950000E+03	1.132398E-15	2.454457E-17
5.960000E+03	1.136525E-15	2.466733E-17
5.970000E+03	1.140617E-15	2.478969E-17
5.980000E+03	1.144668E-15	2.491153E-17
5.990000E+03	1.148714E-15	2.503357E-17
6.000000E+03	1.152671E-15	2.515404E-17
6.010000E+03	1.156575E-15	2.527367E-17
6.020000E+03	1.160420E-15	2.539232E-17
6.030000E+03	1.164201E-15	2.550991E-17
6.040000E+03	1.167952E-15	2.562717E-17
6.050000E+03	1.171594E-15	2.574232E-17
6.060000E+03	1.175162E-15	2.585614E-17
6.070000E+03	1.178650E-15	2.596850E-17
6.080000E+03	1.182057E-15	2.607936E-17
6.090000E+03	1.185380E-15	2.618863E-17
6.100000E+03	1.188653E-15	2.629707E-17
6.110000E+03	1.191799E-15	2.640296E-17
6.120000E+03	1.194853E-15	2.650708E-17
6.130000E+03	1.197814E-15	2.660936E-17
6.140000E+03	1.200678E-15	2.670974E-17
6.150000E+03	1.203446E-15	2.680822E-17
6.160000E+03	1.206114E-15	2.690468E-17
6.170000E+03	1.208683E-15	2.699913E-17
6.180000E+03	1.211148E-15	2.709150E-17
6.190000E+03	1.213549E-15	2.718262E-17
6.200000E+03	1.215805E-15	2.727070E-17
6.210000E+03	1.217953E-15	2.735654E-17
6.220000E+03	1.219993E-15	2.744012E-17
6.230000E+03	1.221920E-15	2.752136E-17
6.240000E+03	1.223734E-15	2.760020E-17
6.250000E+03	1.225431E-15	2.767655E-17
6.260000E+03	1.227009E-15	2.775037E-17
6.270000E+03	1.228503E-15	2.782245E-17
6.280000E+03	1.229835E-15	2.789098E-17
6.290000E+03	1.231038E-15	2.795673E-17
6.300000E+03	1.232110E-15	2.801961E-17
6.310000E+03	1.233088E-15	2.808048E-17
6.320000E+03	1.233890E-15	2.813745E-17
6.330000E+03	1.234555E-15	2.819138E-17
6.340000E+03	1.235118E-15	2.824308E-17
6.350000E+03	1.235502E-15	2.829077E-17
6.360000E+03	1.235786E-15	2.833625E-17
6.370000E+03	1.235891E-15	2.837769E-17
6.380000E+03	1.235901E-15	2.841702E-17
6.390000E+03	1.235780E-15	2.845341E-17
6.400000E+03	1.235537E-15	2.848703E-17
6.410000E+03	1.235142E-15	2.851718E-17
6.420000E+03	1.234686E-15	2.854597E-17
6.430000E+03	1.234145E-15	2.857285E-17
6.440000E+03	1.233537E-15	2.859821E-17
6.450000E+03	1.232925E-15	2.862349E-17
6.460000E+03	1.232252E-15	2.864741E-17
6.470000E+03	1.231586E-15	2.867152E-17
6.480000E+03	1.230996E-15	2.869742E-17
6.490000E+03	1.230473E-15	2.872490E-17
6.500000E+03	1.230009E-15	2.875379E-17
6.510000E+03	1.229715E-15	2.878666E-17
6.520000E+03	1.229582E-15	2.882335E-17
6.530000E+03	1.229679E-15	2.886545E-17
6.540000E+03	1.229924E-15	2.891107E-17
6.550000E+03	1.230302E-15	2.895987E-17
6.560000E+03	1.230795E-15	2.901143E-17
6.570000E+03	1.231307E-15	2.906347E-17
6.580000E+03	1.231778E-15	2.911461E-17
6.590000E+03	1.232156E-15	2.916356E-17
6.600000E+03	1.232388E-15	2.920906E-17
6.610000E+03	1.232460E-15	2.925081E-17
6.620000E+03	1.232291E-15	2.928682E-17
6.630000E+03	1.231841E-15	2.931611E-17
6.640000E+03	1.231073E-15	2.933778E-17
6.650000E+03	1.229999E-15	2.935207E-17
6.660000E+03	1.228515E-15	2.935647E-17
6.670000E+03	1.226682E-15	2.935239E-17
6.680000E+03	1.224446E-15	2.933852E-17
6.690000E+03	1.221838E-15	2.931552E-17
6.700000E+03	1.218777E-15	2.928145E-17
6.710000E+03	1.215341E-15	2.923810E-17
6.720000E+03	1.211533E-15	2.918554E-17
6.730000E+03	1.207285E-15	2.912206E-17
6.740000E+03	1.202685E-15	2.904976E-17
6.750000E+03	1.197710E-15	2.896802E-17
6.760000E+03	1.192372E-15	2.887713E-17
6.770000E+03	1.186730E-15	2.877847E-17
6.780000E+03	1.180764E-15	2.867153E-17
6.790000E+03	1.174497E-15	2.855681E-17
6.800000E+03	1.167987E-15	2.843569E-17
6.810000E+03	1.161218E-15	2.830780E-17
6.820000E+03	1.154213E-15	2.817365E-17
6.830000E+03	1.147032E-15	2.803470E-17
6.840000E+03	1.139662E-15	2.789057E-17
6.850000E+03	1.132158E-15	2.774265E-17
6.860000E+03	1.124473E-15	2.758973E-17
6.870000E+03	1.116734E-15	2.743493E-17
6.880000E+03	1.108855E-15	2.727613E-17
6.890000E+03	1.100926E-15	2.711551E-17
6.900000E+03	1.092964E-15	2.695353E-17
6.910000E+03	1.084953E-15	2.678977E-17
6.920000E+03	1.076908E-15	2.662459E-17
6.930000E+03	1.068845E-15	2.645839E-17
6.940000E+03	1.060847E-15	2.629324E-17
6.950000E+03	1.052822E-15	2.612685E-17
6.960000E+03	1.044852E-15	2.596125E-17
6.970000E+03	1.036913E-15	2.579586E-17
6.980000E+03	1.029047E-15	2.563172E-17
6.990000E+03	1.021263E-15	2.546910E-17
7.000000E+03	1.013535E-15	2.530733E-17
7.010000E+03	1.005870E-15	2.514656E-17
7.020000E+03	9.983034E-16	2.498776E-17
7.030000E+03	9.908095E-16	2.483024E-17
7.040000E+03	9.834237E-16	2.467492E-17
7.050000E+03	9.761162E-16	2.452105E-17
7.060000E+03	9.689213E-16	2.436952E-17
7.070000E+03	9.618083E-16	2.421955E-17
7.080000E+03	9.548097E-16	2.407198E-17
7.090000E+03	9.478938E-16	2.392602E-17
7.100000E+03	9.410921E-16	2.378248E-17
7.110000E+03	9.344033E-16	2.364133E-17
7.120000E+03	9.277950E-16	2.350178E-17
7.130000E+03	9.212659E-16	2.336379E-17
7.140000E+03	9.148756E-16	2.322889E-17
7.150000E+03	9.085299E-16	2.309471E-17
7.160000E+03	9.023181E-16	2.296350E-17
7.170000E+03	8.961465E-16	2.283292E-17
7.180000E+03	8.901032E-16	2.270521E-17
7.190000E+03	8.841250E-16	2.257876E-17
7.200000E+03	8.782095E-16	2.245354E-17
7.210000E+03	8.724134E-16	2.233099E-17
7.220000E+03	8.666447E-16	2.220878E-17
7.230000E+03	8.609894E-16	2.208911E-17
7.240000E+03	8.553858E-16	2.197041E-17
7.250000E+03	8.498606E-16	2.185338E-17
7.260000E+03	8.443822E-16	2.173722E-17
7.270000E+03	8.389773E-16	2.162261E-17
7.280000E+03	8.336149E-16	2.150877E-17
7.290000E+03	8.283500E-16	2.139713E-17
7.300000E+03	8.230953E-16	2.128544E-17
7.310000E+03	8.179341E-16	2.117586E-17
7.320000E+03	8.128082E-16	2.106689E-17
7.330000E+03	8.077444E-16	2.095923E-17
7.340000E+03	8.027134E-16	2.085214E-17
7.350000E+03	7.977421E-16	2.074631E-17
7.360000E+03	7.928294E-16	2.064174E-17
7.370000E+03	7.879746E-16	2.053839E-17
7.380000E+03	7.831493E-16	2.043555E-17
7.390000E+03	7.783806E-16	2.033393E-17
7.400000E+03	7.736409E-16	2.023281E-17
7.410000E+03	7.689571E-16	2.013291E-17
7.420000E+03	7.643289E-16	2.003421E-17
7.430000E+03	7.597559E-16	1.993673E-17
7.440000E+03	7.552113E-16	1.983976E-17
7.450000E+03	7.507218E-16	1.974401E-17
7.460000E+03	7.462871E-16	1.964949E-17
7.470000E+03	7.418806E-16	1.955549E-17
7.480000E+03	7.375550E-16	1.946342E-17
7.490000E+03	7.332572E-16	1.937187E-17
7.500000E+03	7.289872E-16	1.928087E-17
7.510000E+03	7.247705E-16	1.919108E-17
7.520000E+03	7.206327E-16	1.910319E-17
7.530000E+03	7.164949E-16	1.901512E-17
7.540000E+03	7.124341E-16	1.892891E-17
7.550000E+03	7.083974E-16	1.884318E-17
7.560000E+03	7.044095E-16	1.875858E-17
7.570000E+03	7.004685E-16	1.867507E-17
7.580000E+03	6.965730E-16	1.859261E-17
7.590000E+03	6.926954E-16	1.851048E-17
7.600000E+03	6.888589E-16	1.842931E-17
7.610000E+03	6.850611E-16	1.834903E-17
7.620000E+03	6.812742E-16	1.826890E-17
7.630000E+03	6.775453E-16	1.819019E-17
7.640000E+03	6.738212E-16	1.811149E-17
7.650000E+03	6.701234E-16	1.803336E-17
7.660000E+03	6.664238E-16	1.795506E-17
7.670000E+03	6.627676E-16	1.787782E-17
7.680000E+03	6.591017E-16	1.780019E-17
7.690000E+03	6.554465E-16	1.772275E-17
7.700000E+03	6.517974E-16	1.764535E-17
7.710000E+03	6.481501E-16	1.756790E-17
7.720000E+03	6.444756E-16	1.748959E-17
7.730000E+03	6.407937E-16	1.741098E-17
7.740000E+03	6.370998E-16	1.733194E-17
7.750000E+03	6.333891E-16	1.725233E-17
7.760000E+03	6.296331E-16	1.717138E-17
