#wls	flux	fluxerr
1.599984E+03	5.648131E-04	1.170592E-05
1.639984E+03	5.930402E-04	1.224051E-05
1.679983E+03	6.185178E-04	1.271266E-05
1.719983E+03	6.405328E-04	1.310833E-05
1.759982E+03	6.582443E-04	1.341118E-05
1.799982E+03	6.703733E-04	1.359632E-05
1.839982E+03	6.754528E-04	1.363561E-05
1.879981E+03	6.719647E-04	1.350049E-05
1.919981E+03	6.586038E-04	1.316737E-05
1.959980E+03	6.348024E-04	1.262793E-05
1.999980E+03	6.015387E-04	1.190480E-05
2.039980E+03	5.621651E-04	1.106705E-05
2.079979E+03	5.224991E-04	1.023075E-05
2.119979E+03	4.892520E-04	9.526900E-06
2.159978E+03	4.670926E-04	9.044013E-06
2.199978E+03	4.563932E-04	8.785729E-06
2.239978E+03	4.534881E-04	8.678114E-06
2.279977E+03	4.530001E-04	8.616244E-06
2.319977E+03	4.501638E-04	8.509211E-06
2.359976E+03	4.419525E-04	8.301016E-06
2.399976E+03	4.283335E-04	7.993039E-06
2.439976E+03	4.121886E-04	7.640759E-06
2.479975E+03	3.985760E-04	7.338349E-06
2.519975E+03	3.936941E-04	7.198272E-06
2.559974E+03	4.037177E-04	7.329330E-06
2.599974E+03	4.350529E-04	7.841164E-06
2.639974E+03	4.935555E-04	8.830003E-06
2.679973E+03	5.793429E-04	1.028683E-05
2.719973E+03	6.813218E-04	1.200476E-05
2.759972E+03	7.786402E-04	1.361219E-05
2.799972E+03	8.504044E-04	1.474830E-05
2.839972E+03	8.856798E-04	1.523541E-05
2.879971E+03	8.858215E-04	1.511197E-05
2.919971E+03	8.598477E-04	1.454560E-05
2.959970E+03	8.195755E-04	1.374590E-05
2.999970E+03	7.767480E-04	1.291454E-05
3.009970E+03	7.667107E-04	1.271965E-05
3.019970E+03	7.571457E-04	1.253326E-05
3.029970E+03	7.481335E-04	1.235666E-05
3.039970E+03	7.397523E-04	1.219109E-05
3.049970E+03	7.321009E-04	1.203809E-05
3.059969E+03	7.252694E-04	1.189908E-05
3.069969E+03	7.192743E-04	1.177422E-05
3.079969E+03	7.141201E-04	1.166351E-05
3.089969E+03	7.098115E-04	1.156694E-05
3.099969E+03	7.063402E-04	1.148426E-05
3.109969E+03	7.036835E-04	1.141504E-05
3.119969E+03	7.018055E-04	1.135859E-05
3.129969E+03	7.006587E-04	1.131406E-05
3.139969E+03	7.001715E-04	1.128023E-05
3.149969E+03	7.002581E-04	1.125564E-05
3.159968E+03	7.008298E-04	1.123881E-05
3.169968E+03	7.017885E-04	1.122811E-05
3.179968E+03	7.030324E-04	1.122188E-05
3.189968E+03	7.044630E-04	1.121852E-05
3.199968E+03	7.059838E-04	1.121648E-05
3.209968E+03	7.075053E-04	1.121433E-05
3.219968E+03	7.089487E-04	1.121083E-05
3.229968E+03	7.102640E-04	1.120520E-05
3.239968E+03	7.114199E-04	1.119697E-05
3.249968E+03	7.123952E-04	1.118581E-05
3.259967E+03	7.131938E-04	1.117182E-05
3.269967E+03	7.138259E-04	1.115517E-05
3.279967E+03	7.143028E-04	1.113607E-05
3.289967E+03	7.146206E-04	1.111447E-05
3.299967E+03	7.147724E-04	1.109028E-05
3.309967E+03	7.147428E-04	1.106329E-05
3.319967E+03	7.145011E-04	1.103305E-05
3.329967E+03	7.140173E-04	1.099912E-05
3.339967E+03	7.132800E-04	1.096135E-05
3.349967E+03	7.123142E-04	1.092016E-05
3.359966E+03	7.111708E-04	1.087636E-05
3.369966E+03	7.098839E-04	1.083048E-05
3.379966E+03	7.084635E-04	1.078270E-05
3.389966E+03	7.069032E-04	1.073294E-05
3.399966E+03	7.051863E-04	1.068096E-05
3.409966E+03	7.032806E-04	1.062630E-05
3.419966E+03	7.011527E-04	1.056847E-05
3.429966E+03	6.988034E-04	1.050752E-05
3.439966E+03	6.962971E-04	1.044444E-05
3.449966E+03	6.937351E-04	1.038076E-05
3.459965E+03	6.912918E-04	1.031910E-05
3.469965E+03	6.892639E-04	1.026385E-05
3.479965E+03	6.880171E-04	1.022042E-05
3.489965E+03	6.880011E-04	1.019539E-05
3.499965E+03	6.898398E-04	1.019784E-05
3.509965E+03	6.942114E-04	1.023759E-05
3.519965E+03	7.017783E-04	1.032411E-05
3.529965E+03	7.131719E-04	1.046632E-05
3.539965E+03	7.288790E-04	1.067096E-05
3.549965E+03	7.487873E-04	1.093594E-05
3.559964E+03	7.716404E-04	1.124251E-05
3.569964E+03	7.953443E-04	1.155994E-05
3.579964E+03	8.163571E-04	1.183680E-05
3.589964E+03	8.292693E-04	1.199514E-05
3.599964E+03	8.311129E-04	1.199299E-05
3.609964E+03	8.231723E-04	1.184998E-05
3.619964E+03	8.081473E-04	1.160591E-05
3.629964E+03	7.897051E-04	1.131404E-05
3.639964E+03	7.714486E-04	1.102621E-05
3.649964E+03	7.553210E-04	1.077010E-05
3.659963E+03	7.421656E-04	1.055749E-05
3.669963E+03	7.323456E-04	1.039322E-05
3.679963E+03	7.257897E-04	1.027594E-05
3.689963E+03	7.221774E-04	1.020080E-05
3.699963E+03	7.211124E-04	1.016192E-05
3.709963E+03	7.221935E-04	1.015341E-05
3.719963E+03	7.250078E-04	1.016927E-05
3.729963E+03	7.291860E-04	1.020416E-05
3.739963E+03	7.345063E-04	1.025485E-05
3.749963E+03	7.408201E-04	1.031918E-05
3.759962E+03	7.480456E-04	1.039591E-05
3.769962E+03	7.562896E-04	1.048644E-05
3.779962E+03	7.656823E-04	1.059249E-05
3.789962E+03	7.763234E-04	1.071533E-05
3.799962E+03	7.882946E-04	1.085597E-05
3.809962E+03	8.015395E-04	1.101353E-05
3.819962E+03	8.158083E-04	1.118447E-05
3.829962E+03	8.306876E-04	1.136305E-05
3.839962E+03	8.455932E-04	1.154126E-05
3.849962E+03	8.598019E-04	1.170926E-05
3.859961E+03	8.725594E-04	1.185688E-05
3.869961E+03	8.832352E-04	1.197570E-05
3.879961E+03	8.914191E-04	1.206037E-05
3.889961E+03	8.969483E-04	1.210892E-05
3.899961E+03	9.000616E-04	1.212482E-05
3.909961E+03	9.013710E-04	1.211650E-05
3.919961E+03	9.015866E-04	1.209365E-05
3.929961E+03	9.015817E-04	1.206806E-05
3.939961E+03	9.022692E-04	1.205194E-05
3.949961E+03	9.042790E-04	1.205363E-05
3.959960E+03	9.080010E-04	1.207822E-05
3.969960E+03	9.135461E-04	1.212704E-05
3.979960E+03	9.205979E-04	1.219577E-05
3.989960E+03	9.285292E-04	1.227599E-05
3.999960E+03	9.364939E-04	1.235648E-05
4.009960E+03	9.434232E-04	1.242319E-05
4.019960E+03	9.482968E-04	1.246278E-05
4.029960E+03	9.502366E-04	1.246391E-05
4.039960E+03	9.484890E-04	1.241695E-05
4.049960E+03	9.427383E-04	1.231805E-05
4.059959E+03	9.330993E-04	1.216902E-05
4.069959E+03	9.198572E-04	1.197385E-05
4.079959E+03	9.037764E-04	1.174273E-05
4.089959E+03	8.860126E-04	1.149083E-05
4.099959E+03	8.677453E-04	1.123355E-05
4.109959E+03	8.503645E-04	1.098886E-05
4.119959E+03	8.353765E-04	1.077612E-05
4.129959E+03	8.240079E-04	1.061096E-05
4.139959E+03	8.173187E-04	1.050673E-05
4.149959E+03	8.161299E-04	1.047368E-05
4.159958E+03	8.207681E-04	1.051563E-05
4.169958E+03	8.310210E-04	1.062950E-05
4.179958E+03	8.461811E-04	1.080591E-05
4.189958E+03	8.651617E-04	1.103073E-05
4.199958E+03	8.862882E-04	1.128243E-05
4.209958E+03	9.074786E-04	1.153445E-05
4.219958E+03	9.268420E-04	1.176283E-05
4.229958E+03	9.427481E-04	1.194703E-05
4.239958E+03	9.539964E-04	1.207208E-05
4.249958E+03	9.601301E-04	1.213248E-05
4.259957E+03	9.617985E-04	1.213672E-05
4.269957E+03	9.602852E-04	1.210122E-05
4.279957E+03	9.567543E-04	1.204079E-05
4.289957E+03	9.529375E-04	1.197731E-05
4.299957E+03	9.505108E-04	1.193181E-05
4.309957E+03	9.496842E-04	1.190688E-05
4.319957E+03	9.505289E-04	1.190334E-05
4.329957E+03	9.533025E-04	1.192434E-05
4.339957E+03	9.575608E-04	1.196426E-05
4.349957E+03	9.628953E-04	1.201795E-05
4.359956E+03	9.692333E-04	1.208447E-05
4.369956E+03	9.762265E-04	1.215947E-05
4.379956E+03	9.835616E-04	1.223903E-05
4.389956E+03	9.910230E-04	1.232048E-05
4.399956E+03	9.980855E-04	1.239731E-05
4.409956E+03	1.004392E-03	1.246511E-05
4.419956E+03	1.009878E-03	1.252312E-05
4.429956E+03	1.014306E-03	1.256842E-05
4.439956E+03	1.017612E-03	1.260024E-05
4.449956E+03	1.019799E-03	1.261866E-05
4.459955E+03	1.020555E-03	1.261984E-05
4.469955E+03	1.019641E-03	1.260086E-05
4.479955E+03	1.016927E-03	1.256015E-05
4.489955E+03	1.011941E-03	1.249190E-05
4.499955E+03	1.004364E-03	1.239221E-05
4.509955E+03	9.941020E-04	1.225996E-05
4.519955E+03	9.808943E-04	1.209195E-05
4.529955E+03	9.647512E-04	1.188835E-05
4.539955E+03	9.460196E-04	1.165343E-05
4.549955E+03	9.251074E-04	1.139222E-05
4.559954E+03	9.027541E-04	1.111383E-05
4.569954E+03	8.800674E-04	1.083185E-05
4.579954E+03	8.582834E-04	1.056149E-05
4.589954E+03	8.388116E-04	1.032003E-05
4.599954E+03	8.231987E-04	1.012647E-05
4.609954E+03	8.129649E-04	9.999447E-06
4.619954E+03	8.094457E-04	9.955359E-06
4.629954E+03	8.138392E-04	1.000891E-05
4.639954E+03	8.271924E-04	1.017296E-05
4.649954E+03	8.501753E-04	1.045576E-05
4.659953E+03	8.830234E-04	1.086022E-05
4.669953E+03	9.257627E-04	1.138673E-05
4.679953E+03	9.777409E-04	1.202732E-05
4.689953E+03	1.037503E-03	1.276419E-05
4.699953E+03	1.103108E-03	1.357355E-05
4.709953E+03	1.171906E-03	1.442290E-05
4.719953E+03	1.240565E-03	1.527129E-05
4.729953E+03	1.305598E-03	1.607586E-05
4.739953E+03	1.363772E-03	1.679683E-05
4.749953E+03	1.412373E-03	1.740074E-05
4.759952E+03	1.449421E-03	1.786312E-05
4.769952E+03	1.474153E-03	1.817446E-05
4.779952E+03	1.486908E-03	1.833878E-05
4.789952E+03	1.488684E-03	1.836824E-05
4.799952E+03	1.481191E-03	1.828378E-05
4.809952E+03	1.466628E-03	1.811241E-05
4.819952E+03	1.446986E-03	1.787855E-05
4.829952E+03	1.424197E-03	1.760599E-05
4.839952E+03	1.400030E-03	1.731654E-05
4.849952E+03	1.375706E-03	1.702523E-05
4.859951E+03	1.352149E-03	1.674349E-05
4.869951E+03	1.329978E-03	1.647897E-05
4.879951E+03	1.309407E-03	1.623435E-05
4.889951E+03	1.290417E-03	1.600938E-05
4.899951E+03	1.272888E-03	1.580261E-05
4.909951E+03	1.256507E-03	1.561017E-05
4.919951E+03	1.240971E-03	1.542829E-05
4.929951E+03	1.226050E-03	1.525413E-05
4.939951E+03	1.211545E-03	1.508521E-05
4.949951E+03	1.197395E-03	1.492076E-05
4.959950E+03	1.183679E-03	1.476177E-05
4.969950E+03	1.170610E-03	1.461090E-05
4.979950E+03	1.158485E-03	1.447186E-05
4.989950E+03	1.147561E-03	1.434789E-05
4.999950E+03	1.138037E-03	1.424150E-05
5.009950E+03	1.130031E-03	1.415420E-05
5.019950E+03	1.123506E-03	1.408559E-05
5.029950E+03	1.118296E-03	1.403360E-05
5.039950E+03	1.114137E-03	1.399500E-05
5.049950E+03	1.110690E-03	1.396552E-05
5.059949E+03	1.107596E-03	1.394069E-05
5.069949E+03	1.104522E-03	1.391631E-05
5.079949E+03	1.101181E-03	1.388877E-05
5.089949E+03	1.097331E-03	1.385498E-05
5.099949E+03	1.092854E-03	1.381344E-05
5.109949E+03	1.087786E-03	1.376459E-05
5.119949E+03	1.082193E-03	1.370919E-05
5.129949E+03	1.076307E-03	1.365020E-05
5.139949E+03	1.070420E-03	1.359130E-05
5.149949E+03	1.064742E-03	1.353514E-05
5.159948E+03	1.059478E-03	1.348435E-05
5.169948E+03	1.054720E-03	1.344011E-05
5.179948E+03	1.050266E-03	1.339986E-05
5.189948E+03	1.045852E-03	1.336024E-05
5.199948E+03	1.041276E-03	1.331867E-05
5.209948E+03	1.036253E-03	1.327148E-05
5.219948E+03	1.030709E-03	1.321771E-05
5.229948E+03	1.024772E-03	1.315896E-05
5.239948E+03	1.018601E-03	1.309725E-05
5.249948E+03	1.012501E-03	1.303649E-05
5.259947E+03	1.006771E-03	1.298055E-05
5.269947E+03	1.001523E-03	1.293088E-05
5.279947E+03	9.967594E-04	1.288753E-05
5.289947E+03	9.924381E-04	1.284999E-05
5.299947E+03	9.884384E-04	1.281671E-05
5.309947E+03	9.845851E-04	1.278543E-05
5.319947E+03	9.807909E-04	1.275502E-05
5.329947E+03	9.769576E-04	1.272421E-05
5.339947E+03	9.730184E-04	1.269211E-05
5.349947E+03	9.689329E-04	1.265820E-05
5.359946E+03	9.646944E-04	1.262238E-05
5.369946E+03	9.602276E-04	1.258364E-05
5.379946E+03	9.554828E-04	1.254131E-05
5.389946E+03	9.505142E-04	1.249610E-05
5.399946E+03	9.453800E-04	1.244875E-05
5.409946E+03	9.401474E-04	1.240013E-05
5.419946E+03	9.350960E-04	1.235392E-05
5.429946E+03	9.304228E-04	1.231273E-05
5.439946E+03	9.262087E-04	1.227765E-05
5.449946E+03	9.224262E-04	1.224833E-05
5.459945E+03	9.187449E-04	1.222040E-05
5.469945E+03	9.143378E-04	1.218284E-05
5.479945E+03	9.080446E-04	1.212011E-05
5.489945E+03	8.988890E-04	1.201900E-05
5.499945E+03	8.865672E-04	1.187524E-05
5.509945E+03	8.716008E-04	1.169559E-05
5.519945E+03	8.551207E-04	1.149504E-05
5.529945E+03	8.384189E-04	1.129087E-05
5.539945E+03	8.225485E-04	1.109726E-05
5.549945E+03	8.082550E-04	1.092433E-05
5.559944E+03	7.960794E-04	1.077951E-05
5.569944E+03	7.862989E-04	1.066671E-05
5.579944E+03	7.790728E-04	1.058826E-05
5.589944E+03	7.744232E-04	1.054465E-05
5.599944E+03	7.722332E-04	1.053447E-05
5.609944E+03	7.722991E-04	1.055513E-05
5.619944E+03	7.743659E-04	1.060329E-05
5.629944E+03	7.780692E-04	1.067411E-05
5.639944E+03	7.829570E-04	1.076151E-05
5.649944E+03	7.885662E-04	1.085918E-05
5.659943E+03	7.944656E-04	1.096125E-05
5.669943E+03	8.002289E-04	1.106184E-05
5.679943E+03	8.054376E-04	1.115513E-05
5.689943E+03	8.098280E-04	1.123743E-05
5.699943E+03	8.132087E-04	1.130600E-05
5.709943E+03	8.154209E-04	1.135854E-05
5.719943E+03	8.164900E-04	1.139533E-05
5.729943E+03	8.164479E-04	1.141670E-05
5.739943E+03	8.153379E-04	1.142317E-05
5.749943E+03	8.132331E-04	1.141567E-05
5.759942E+03	8.101824E-04	1.139481E-05
5.769942E+03	8.061874E-04	1.136053E-05
5.779942E+03	8.012667E-04	1.131301E-05
5.789942E+03	7.954569E-04	1.125269E-05
5.799942E+03	7.887468E-04	1.117933E-05
5.809942E+03	7.811629E-04	1.109323E-05
5.819942E+03	7.727248E-04	1.099460E-05
5.829942E+03	7.634341E-04	1.088337E-05
5.839942E+03	7.533829E-04	1.076080E-05
5.849942E+03	7.426975E-04	1.062862E-05
5.859941E+03	7.315199E-04	1.048882E-05
5.869941E+03	7.200916E-04	1.034481E-05
5.879941E+03	7.087107E-04	1.020087E-05
5.889941E+03	6.975746E-04	1.005984E-05
5.899941E+03	6.868872E-04	9.924692E-06
5.909941E+03	6.767417E-04	9.796800E-06
5.919941E+03	6.671573E-04	9.676487E-06
5.929941E+03	6.580828E-04	9.563056E-06
5.939941E+03	6.493893E-04	9.454668E-06
5.949941E+03	6.409064E-04	9.348870E-06
5.959940E+03	6.324974E-04	9.243676E-06
5.969940E+03	6.239940E-04	9.136627E-06
5.979940E+03	6.152037E-04	9.024892E-06
5.989940E+03	6.059607E-04	8.906006E-06
5.999940E+03	5.961184E-04	8.777775E-06
6.009940E+03	5.855101E-04	8.637686E-06
6.019940E+03	5.740664E-04	8.484651E-06
6.029940E+03	5.617358E-04	8.317837E-06
6.039940E+03	5.485283E-04	8.137320E-06
6.049940E+03	5.345245E-04	7.944224E-06
6.059939E+03	5.198416E-04	7.740232E-06
6.069939E+03	5.046721E-04	7.528156E-06
6.079939E+03	4.892374E-04	7.311267E-06
6.089939E+03	4.738243E-04	7.093837E-06
6.099939E+03	4.586970E-04	6.879834E-06
6.109939E+03	4.441637E-04	6.673912E-06
6.119939E+03	4.305085E-04	6.480395E-06
6.129939E+03	4.180255E-04	6.303795E-06
6.139939E+03	4.069861E-04	6.148303E-06
6.149939E+03	3.976681E-04	6.018246E-06
6.159938E+03	3.903090E-04	5.917363E-06
6.169938E+03	3.851739E-04	5.849837E-06
6.179938E+03	3.824771E-04	5.819108E-06
6.189938E+03	3.824012E-04	5.828156E-06
6.199938E+03	3.851164E-04	5.879789E-06
6.209938E+03	3.907002E-04	5.975412E-06
6.219938E+03	3.991317E-04	6.114933E-06
6.229938E+03	4.103981E-04	6.298377E-06
6.239938E+03	4.243243E-04	6.523277E-06
6.249938E+03	4.406023E-04	6.785093E-06
6.259937E+03	4.590694E-04	7.081499E-06
6.269937E+03	4.794244E-04	7.408008E-06
6.279937E+03	5.011154E-04	7.756217E-06
6.289937E+03	5.235803E-04	8.117514E-06
6.299937E+03	5.460969E-04	8.480735E-06
6.309937E+03	5.677453E-04	8.831571E-06
6.319937E+03	5.877567E-04	9.157967E-06
6.329937E+03	6.054909E-04	9.449801E-06
6.339937E+03	6.204746E-04	9.699494E-06
6.349937E+03	6.325260E-04	9.903984E-06
6.359936E+03	6.418751E-04	1.006665E-05
6.369936E+03	6.488309E-04	1.019214E-05
6.379936E+03	6.533456E-04	1.027952E-05
6.389936E+03	6.555226E-04	1.033023E-05
6.399936E+03	6.554355E-04	1.034525E-05
6.409936E+03	6.525621E-04	1.031616E-05
6.419936E+03	6.464640E-04	1.023581E-05
6.429936E+03	6.368513E-04	1.009936E-05
6.439936E+03	6.230970E-04	9.896599E-06
6.449936E+03	6.049180E-04	9.622720E-06
6.459935E+03	5.826305E-04	9.282435E-06
6.469935E+03	5.568248E-04	8.884870E-06
6.479935E+03	5.286974E-04	8.448897E-06
6.489935E+03	5.000454E-04	8.003114E-06
6.499935E+03	4.729797E-04	7.581328E-06
6.509935E+03	4.495059E-04	7.215857E-06
6.519935E+03	4.312770E-04	6.933540E-06
6.529935E+03	4.193079E-04	6.751099E-06
6.539935E+03	4.134928E-04	6.667278E-06
6.549935E+03	4.127900E-04	6.665697E-06
6.559934E+03	4.156533E-04	6.721713E-06
6.569934E+03	4.203928E-04	6.808208E-06
6.579934E+03	4.254513E-04	6.900060E-06
6.589934E+03	4.295893E-04	6.977156E-06
6.599934E+03	4.319723E-04	7.025862E-06
6.609934E+03	4.321905E-04	7.039376E-06
6.619934E+03	4.300825E-04	7.014918E-06
6.629934E+03	4.257964E-04	6.954749E-06
6.639934E+03	4.196599E-04	6.864078E-06
6.649934E+03	4.120269E-04	6.748578E-06
6.659933E+03	4.033217E-04	6.615110E-06
6.669933E+03	3.939448E-04	6.470179E-06
6.679933E+03	3.842074E-04	6.318863E-06
6.689933E+03	3.743725E-04	6.165472E-06
6.699933E+03	3.646586E-04	6.013605E-06
6.709933E+03	3.551943E-04	5.865393E-06
6.719933E+03	3.460753E-04	5.722444E-06
6.729933E+03	3.373505E-04	5.585588E-06
6.739933E+03	3.290468E-04	5.455303E-06
6.749933E+03	3.211551E-04	5.331465E-06
6.759932E+03	3.136760E-04	5.214116E-06
6.769932E+03	3.065704E-04	5.102632E-06
6.779932E+03	2.998247E-04	4.996814E-06
6.789932E+03	2.934113E-04	4.896226E-06
6.799932E+03	2.873041E-04	4.800457E-06
6.809932E+03	2.814808E-04	4.709151E-06
6.819932E+03	2.759305E-04	4.622149E-06
6.829932E+03	2.706309E-04	4.539096E-06
6.839932E+03	2.655654E-04	4.459728E-06
6.849932E+03	2.607413E-04	4.384188E-06
6.859931E+03	2.561526E-04	4.312387E-06
6.869931E+03	2.518011E-04	4.244373E-06
6.879931E+03	2.476881E-04	4.180186E-06
6.889931E+03	2.438109E-04	4.119795E-06
6.899931E+03	2.401595E-04	4.063047E-06
6.909931E+03	2.367094E-04	4.009541E-06
6.919931E+03	2.334434E-04	3.959000E-06
6.929931E+03	2.303157E-04	3.910657E-06
6.939931E+03	2.272974E-04	3.864032E-06
6.949931E+03	2.243377E-04	3.818266E-06
6.959930E+03	2.213988E-04	3.772722E-06
6.969930E+03	2.184580E-04	3.727012E-06
6.979930E+03	2.154778E-04	3.680498E-06
6.989930E+03	2.124433E-04	3.632923E-06
6.999930E+03	2.093351E-04	3.583953E-06
7.009930E+03	2.061478E-04	3.533491E-06
7.019930E+03	2.028698E-04	3.481335E-06
7.029930E+03	1.995025E-04	3.427504E-06
7.039930E+03	1.960385E-04	3.371866E-06
7.049930E+03	1.924829E-04	3.314504E-06
7.059929E+03	1.888351E-04	3.255405E-06
7.069929E+03	1.851027E-04	3.194692E-06
7.079929E+03	1.813019E-04	3.132644E-06
7.089929E+03	1.774447E-04	3.069462E-06
7.099929E+03	1.735498E-04	3.005472E-06
7.109929E+03	1.696384E-04	2.941035E-06
7.119929E+03	1.657316E-04	2.876522E-06
7.129929E+03	1.618541E-04	2.812358E-06
7.139929E+03	1.580208E-04	2.748809E-06
7.149929E+03	1.542503E-04	2.686200E-06
7.159928E+03	1.505577E-04	2.624800E-06
7.169928E+03	1.469677E-04	2.565043E-06
7.179928E+03	1.434910E-04	2.507124E-06
7.189928E+03	1.401393E-04	2.451255E-06
7.199928E+03	1.369211E-04	2.397591E-06
7.209928E+03	1.338410E-04	2.346221E-06
7.219928E+03	1.309001E-04	2.297175E-06
7.229928E+03	1.280936E-04	2.250373E-06
7.239928E+03	1.254245E-04	2.205880E-06
7.249928E+03	1.228856E-04	2.163577E-06
7.259927E+03	1.204686E-04	2.123323E-06
7.269927E+03	1.181726E-04	2.085112E-06
7.279927E+03	1.159835E-04	2.048699E-06
7.289927E+03	1.138976E-04	2.014029E-06
7.299927E+03	1.119009E-04	1.980857E-06
7.309927E+03	1.099792E-04	1.948939E-06
7.319927E+03	1.081268E-04	1.918176E-06
7.329927E+03	1.063291E-04	1.888316E-06
7.339927E+03	1.045759E-04	1.859178E-06
7.349927E+03	1.028604E-04	1.830645E-06
7.359926E+03	1.011710E-04	1.802513E-06
7.369926E+03	9.950026E-05	1.774651E-06
7.379926E+03	9.784422E-05	1.746989E-06
7.389926E+03	9.619695E-05	1.719421E-06
7.399926E+03	9.455071E-05	1.691812E-06
7.409926E+03	9.290643E-05	1.664176E-06
7.419926E+03	9.125519E-05	1.636355E-06
7.429926E+03	8.959927E-05	1.608388E-06
7.439926E+03	8.793390E-05	1.580191E-06
7.449926E+03	8.625743E-05	1.551732E-06
7.459925E+03	8.457134E-05	1.523039E-06
7.469925E+03	8.287513E-05	1.494100E-06
7.479925E+03	8.116621E-05	1.464870E-06
7.489925E+03	7.944731E-05	1.435396E-06
7.499925E+03	7.771668E-05	1.405647E-06
7.509925E+03	7.597522E-05	1.375637E-06
7.519925E+03	7.422199E-05	1.345350E-06
7.529925E+03	7.246275E-05	1.314888E-06
7.539925E+03	7.069494E-05	1.284205E-06
7.549925E+03	6.892287E-05	1.253379E-06
7.559924E+03	6.714706E-05	1.222418E-06
7.569924E+03	6.537065E-05	1.191380E-06
7.579924E+03	6.359598E-05	1.160307E-06
7.589924E+03	6.183143E-05	1.129352E-06
7.599924E+03	6.007790E-05	1.098530E-06
7.609924E+03	5.834209E-05	1.067966E-06
7.619924E+03	5.662862E-05	1.037744E-06
7.629924E+03	5.494007E-05	1.007914E-06
7.639924E+03	5.328034E-05	9.785464E-07
7.649924E+03	5.165285E-05	9.497069E-07
7.659923E+03	5.006211E-05	9.214803E-07
7.669923E+03	4.850772E-05	8.938607E-07
7.679923E+03	4.699485E-05	8.669457E-07
7.689923E+03	4.552391E-05	8.407448E-07
7.699923E+03	4.409507E-05	8.152638E-07
7.709923E+03	4.271103E-05	7.905550E-07
7.719923E+03	4.137272E-05	7.666381E-07
7.729923E+03	4.008088E-05	7.435295E-07
7.739923E+03	3.883477E-05	7.212180E-07
7.749923E+03	3.763590E-05	6.997345E-07
7.759922E+03	3.648303E-05	6.790586E-07
