#wls	flux	fluxerr
1.599984E+03	2.047955E-04	4.383514E-06
1.639984E+03	2.093410E-04	4.448219E-06
1.679983E+03	2.126717E-04	4.485134E-06
1.719983E+03	2.146754E-04	4.492442E-06
1.759982E+03	2.152207E-04	4.468036E-06
1.799982E+03	2.140554E-04	4.407430E-06
1.839982E+03	2.108998E-04	4.305789E-06
1.879981E+03	2.054801E-04	4.158636E-06
1.919981E+03	1.976047E-04	3.963384E-06
1.959980E+03	1.872912E-04	3.721804E-06
1.999980E+03	1.749735E-04	3.443904E-06
2.039980E+03	1.616980E-04	3.151351E-06
2.079979E+03	1.491212E-04	2.876815E-06
2.119979E+03	1.390600E-04	2.654709E-06
2.159978E+03	1.326987E-04	2.505996E-06
2.199978E+03	1.300145E-04	2.428044E-06
2.239978E+03	1.298826E-04	2.397802E-06
2.279977E+03	1.307287E-04	2.384913E-06
2.319977E+03	1.312068E-04	2.364461E-06
2.359976E+03	1.305874E-04	2.323705E-06
2.399976E+03	1.289242E-04	2.264334E-06
2.439976E+03	1.270285E-04	2.201155E-06
2.479975E+03	1.263078E-04	2.158399E-06
2.519975E+03	1.285454E-04	2.165273E-06
2.559974E+03	1.357383E-04	2.252721E-06
2.599974E+03	1.500317E-04	2.452017E-06
2.639974E+03	1.732948E-04	2.787656E-06
2.679973E+03	2.059814E-04	3.259597E-06
2.719973E+03	2.456809E-04	3.822515E-06
2.759972E+03	2.868382E-04	4.385375E-06
2.799972E+03	3.226871E-04	4.844875E-06
2.839972E+03	3.482198E-04	5.131145E-06
2.879971E+03	3.619046E-04	5.230361E-06
2.919971E+03	3.653519E-04	5.175241E-06
2.959970E+03	3.620151E-04	5.022493E-06
2.999970E+03	3.558448E-04	4.831758E-06
3.009970E+03	3.542733E-04	4.784032E-06
3.019970E+03	3.527789E-04	4.737487E-06
3.029970E+03	3.513999E-04	4.692620E-06
3.039970E+03	3.501712E-04	4.649870E-06
3.049970E+03	3.491449E-04	4.609892E-06
3.059969E+03	3.483641E-04	4.573207E-06
3.069969E+03	3.478352E-04	4.539846E-06
3.079969E+03	3.475629E-04	4.509811E-06
3.089969E+03	3.475459E-04	4.483028E-06
3.099969E+03	3.477769E-04	4.459347E-06
3.109969E+03	3.482448E-04	4.438567E-06
3.119969E+03	3.489323E-04	4.420417E-06
3.129969E+03	3.498135E-04	4.404520E-06
3.139969E+03	3.508612E-04	4.390489E-06
3.149969E+03	3.520401E-04	4.377849E-06
3.159968E+03	3.533108E-04	4.366079E-06
3.169968E+03	3.546316E-04	4.354648E-06
3.179968E+03	3.559567E-04	4.342986E-06
3.189968E+03	3.572426E-04	4.330562E-06
3.199968E+03	3.584416E-04	4.316811E-06
3.209968E+03	3.595126E-04	4.301265E-06
3.219968E+03	3.604138E-04	4.283454E-06
3.229968E+03	3.611099E-04	4.263005E-06
3.239968E+03	3.615689E-04	4.239591E-06
3.249968E+03	3.617613E-04	4.212924E-06
3.259967E+03	3.616638E-04	4.182802E-06
3.269967E+03	3.612565E-04	4.149067E-06
3.279967E+03	3.605218E-04	4.111593E-06
3.289967E+03	3.594401E-04	4.070240E-06
3.299967E+03	3.579979E-04	4.024940E-06
3.309967E+03	3.561816E-04	3.975632E-06
3.319967E+03	3.539808E-04	3.922293E-06
3.329967E+03	3.513865E-04	3.864922E-06
3.339967E+03	3.483942E-04	3.803567E-06
3.349967E+03	3.450049E-04	3.738339E-06
3.359966E+03	3.412236E-04	3.669393E-06
3.369966E+03	3.370573E-04	3.596902E-06
3.379966E+03	3.325193E-04	3.521106E-06
3.389966E+03	3.276279E-04	3.442292E-06
3.399966E+03	3.224082E-04	3.360812E-06
3.409966E+03	3.168920E-04	3.277082E-06
3.419966E+03	3.111255E-04	3.191651E-06
3.429966E+03	3.051704E-04	3.105215E-06
3.439966E+03	2.991016E-04	3.018578E-06
3.449966E+03	2.930150E-04	2.932733E-06
3.459965E+03	2.870220E-04	2.848795E-06
3.469965E+03	2.812485E-04	2.767983E-06
3.479965E+03	2.758320E-04	2.691586E-06
3.489965E+03	2.709085E-04	2.620833E-06
3.499965E+03	2.666050E-04	2.556822E-06
3.509965E+03	2.630192E-04	2.500329E-06
3.519965E+03	2.601982E-04	2.451618E-06
3.529965E+03	2.581130E-04	2.410227E-06
3.539965E+03	2.566249E-04	2.374689E-06
3.549965E+03	2.554754E-04	2.342485E-06
3.559964E+03	2.543004E-04	2.310222E-06
3.569964E+03	2.527329E-04	2.274606E-06
3.579964E+03	2.506139E-04	2.234321E-06
3.589964E+03	2.481948E-04	2.191728E-06
3.599964E+03	2.457940E-04	2.149690E-06
3.609964E+03	2.431637E-04	2.106059E-06
3.619964E+03	2.399239E-04	2.057635E-06
3.629964E+03	2.361086E-04	2.004862E-06
3.639964E+03	2.320516E-04	1.950693E-06
3.649964E+03	2.281415E-04	1.898423E-06
3.659963E+03	2.246957E-04	1.850630E-06
3.669963E+03	2.219215E-04	1.808886E-06
3.679963E+03	2.199339E-04	1.773946E-06
3.689963E+03	2.187801E-04	1.745986E-06
3.699963E+03	2.184671E-04	1.724850E-06
3.709963E+03	2.189869E-04	1.710257E-06
3.719963E+03	2.203337E-04	1.701952E-06
3.729963E+03	2.225156E-04	1.699782E-06
3.739963E+03	2.255667E-04	1.703792E-06
3.749963E+03	2.295549E-04	1.714265E-06
3.759962E+03	2.345825E-04	1.731715E-06
3.769962E+03	2.407934E-04	1.756924E-06
3.779962E+03	2.483656E-04	1.790871E-06
3.789962E+03	2.575110E-04	1.834715E-06
3.799962E+03	2.684590E-04	1.889663E-06
3.809962E+03	2.814414E-04	1.956863E-06
3.819962E+03	2.966503E-04	2.037108E-06
3.829962E+03	3.141959E-04	2.130571E-06
3.839962E+03	3.340779E-04	2.236645E-06
3.849962E+03	3.561312E-04	2.353634E-06
3.859961E+03	3.799710E-04	2.478468E-06
3.869961E+03	4.050122E-04	2.606919E-06
3.879961E+03	4.305600E-04	2.734265E-06
3.889961E+03	4.558874E-04	2.855820E-06
3.899961E+03	4.803457E-04	2.967638E-06
3.909961E+03	5.035588E-04	3.067654E-06
3.919961E+03	5.255900E-04	3.156574E-06
3.929961E+03	5.469212E-04	3.237562E-06
3.939961E+03	5.683868E-04	3.315672E-06
3.949961E+03	5.911168E-04	3.397373E-06
3.959960E+03	6.163921E-04	3.489597E-06
3.969960E+03	6.453101E-04	3.597817E-06
3.979960E+03	6.784550E-04	3.724313E-06
3.989960E+03	7.158977E-04	3.868398E-06
3.999960E+03	7.570363E-04	4.025782E-06
4.009960E+03	8.003175E-04	4.187414E-06
4.019960E+03	8.433004E-04	4.340210E-06
4.029960E+03	8.828791E-04	4.468561E-06
4.039960E+03	9.155356E-04	4.555868E-06
4.049960E+03	9.377603E-04	4.586771E-06
4.059959E+03	9.468287E-04	4.550870E-06
4.069959E+03	9.414474E-04	4.445433E-06
4.079959E+03	9.218893E-04	4.275410E-06
4.089959E+03	8.899291E-04	4.052477E-06
4.099959E+03	8.486579E-04	3.793573E-06
4.109959E+03	8.018591E-04	3.517617E-06
4.119959E+03	7.534659E-04	3.242894E-06
4.129959E+03	7.071932E-04	2.985453E-06
4.139959E+03	6.661641E-04	2.757666E-06
4.149959E+03	6.327447E-04	2.567815E-06
4.159958E+03	6.086208E-04	2.420724E-06
4.169958E+03	5.950116E-04	2.318881E-06
4.179958E+03	5.927092E-04	2.262788E-06
4.189958E+03	6.021145E-04	2.251280E-06
4.199958E+03	6.235140E-04	2.282703E-06
4.209958E+03	6.569977E-04	2.354676E-06
4.219958E+03	7.020184E-04	2.462630E-06
4.229958E+03	7.574718E-04	2.600338E-06
4.239958E+03	8.217226E-04	2.760206E-06
4.249958E+03	8.923101E-04	2.932506E-06
4.259957E+03	9.660065E-04	3.105842E-06
4.269957E+03	1.039074E-03	3.268204E-06
4.279957E+03	1.107529E-03	3.407923E-06
4.289957E+03	1.167307E-03	3.514171E-06
4.299957E+03	1.214637E-03	3.578046E-06
4.309957E+03	1.246468E-03	3.593608E-06
4.319957E+03	1.260718E-03	3.558278E-06
4.329957E+03	1.256763E-03	3.473817E-06
4.339957E+03	1.235978E-03	3.347314E-06
4.349957E+03	1.201855E-03	3.190917E-06
4.359956E+03	1.160451E-03	3.022464E-06
4.369956E+03	1.120441E-03	2.865100E-06
4.379956E+03	1.091363E-03	2.742434E-06
4.389956E+03	1.080472E-03	2.670871E-06
4.399956E+03	1.088106E-03	2.649092E-06
4.409956E+03	1.107885E-03	2.659982E-06
4.419956E+03	1.132936E-03	2.686432E-06
4.429956E+03	1.159865E-03	2.720490E-06
4.439956E+03	1.188300E-03	2.761640E-06
4.449956E+03	1.219034E-03	2.812129E-06
4.459955E+03	1.252785E-03	2.874010E-06
4.469955E+03	1.289873E-03	2.948392E-06
4.479955E+03	1.329920E-03	3.034691E-06
4.489955E+03	1.371452E-03	3.129826E-06
4.499955E+03	1.411932E-03	3.228284E-06
4.509955E+03	1.448057E-03	3.322681E-06
4.519955E+03	1.476049E-03	3.404315E-06
4.529955E+03	1.491793E-03	3.463325E-06
4.539955E+03	1.491362E-03	3.489789E-06
4.549955E+03	1.471573E-03	3.474953E-06
4.559954E+03	1.430572E-03	3.412645E-06
4.569954E+03	1.368624E-03	3.301317E-06
4.579954E+03	1.288452E-03	3.145187E-06
4.589954E+03	1.194818E-03	2.953635E-06
4.599954E+03	1.094060E-03	2.740475E-06
4.609954E+03	9.933347E-04	2.522420E-06
4.619954E+03	8.991302E-04	2.315510E-06
4.629954E+03	8.162758E-04	2.132505E-06
4.639954E+03	7.478762E-04	1.982457E-06
4.649954E+03	6.957804E-04	1.871663E-06
4.659953E+03	6.607189E-04	1.803791E-06
4.669953E+03	6.426124E-04	1.780492E-06
4.679953E+03	6.414583E-04	1.803708E-06
4.689953E+03	6.574333E-04	1.875957E-06
4.699953E+03	6.904980E-04	1.999202E-06
4.709953E+03	7.406684E-04	2.175586E-06
4.719953E+03	8.079614E-04	2.407266E-06
4.729953E+03	8.916448E-04	2.694129E-06
4.739953E+03	9.898950E-04	3.032578E-06
4.749953E+03	1.099710E-03	3.415017E-06
4.759952E+03	1.216768E-03	3.829164E-06
4.769952E+03	1.335424E-03	4.257759E-06
4.779952E+03	1.449513E-03	4.680907E-06
4.789952E+03	1.553957E-03	5.081245E-06
4.799952E+03	1.644921E-03	5.444702E-06
4.809952E+03	1.719857E-03	5.760927E-06
4.819952E+03	1.777872E-03	6.024812E-06
4.829952E+03	1.819420E-03	6.235769E-06
4.839952E+03	1.845692E-03	6.395900E-06
4.849952E+03	1.858535E-03	6.509832E-06
4.859951E+03	1.860128E-03	6.583707E-06
4.869951E+03	1.852688E-03	6.624170E-06
4.879951E+03	1.838602E-03	6.638844E-06
4.889951E+03	1.820034E-03	6.634910E-06
4.899951E+03	1.798659E-03	6.618083E-06
4.909951E+03	1.775285E-03	6.591098E-06
4.919951E+03	1.750209E-03	6.554904E-06
4.929951E+03	1.723303E-03	6.508897E-06
4.939951E+03	1.694107E-03	6.451199E-06
4.949951E+03	1.662035E-03	6.379408E-06
4.959950E+03	1.626680E-03	6.291756E-06
4.969950E+03	1.588116E-03	6.188325E-06
4.979950E+03	1.546762E-03	6.070562E-06
4.989950E+03	1.503379E-03	5.941349E-06
4.999950E+03	1.459192E-03	5.805487E-06
5.009950E+03	1.415706E-03	5.669046E-06
5.019950E+03	1.374509E-03	5.538592E-06
5.029950E+03	1.337129E-03	5.420588E-06
5.039950E+03	1.304997E-03	5.321238E-06
5.049950E+03	1.279186E-03	5.245407E-06
5.059949E+03	1.260167E-03	5.195535E-06
5.069949E+03	1.247999E-03	5.172381E-06
5.079949E+03	1.242459E-03	5.175498E-06
5.089949E+03	1.243000E-03	5.203054E-06
5.099949E+03	1.248745E-03	5.251742E-06
5.109949E+03	1.258683E-03	5.317615E-06
5.119949E+03	1.271688E-03	5.396148E-06
5.129949E+03	1.286523E-03	5.482233E-06
5.139949E+03	1.302031E-03	5.571025E-06
5.149949E+03	1.317192E-03	5.658185E-06
5.159948E+03	1.331153E-03	5.740022E-06
5.169948E+03	1.343079E-03	5.812874E-06
5.179948E+03	1.352155E-03	5.873116E-06
5.189948E+03	1.357704E-03	5.917691E-06
5.199948E+03	1.359286E-03	5.944548E-06
5.209948E+03	1.356715E-03	5.952722E-06
5.219948E+03	1.350201E-03	5.943008E-06
5.229948E+03	1.340293E-03	5.917705E-06
5.239948E+03	1.327860E-03	5.880569E-06
5.249948E+03	1.313938E-03	5.836153E-06
5.259947E+03	1.299433E-03	5.788489E-06
5.269947E+03	1.284899E-03	5.740070E-06
5.279947E+03	1.270636E-03	5.692291E-06
5.289947E+03	1.256690E-03	5.645421E-06
5.299947E+03	1.242948E-03	5.599001E-06
5.309947E+03	1.229192E-03	5.552100E-06
5.319947E+03	1.215338E-03	5.504383E-06
5.329947E+03	1.201551E-03	5.456635E-06
5.339947E+03	1.188089E-03	5.410076E-06
5.349947E+03	1.175161E-03	5.365707E-06
5.359946E+03	1.162721E-03	5.323372E-06
5.369946E+03	1.150619E-03	5.282444E-06
5.379946E+03	1.138785E-03	5.242636E-06
5.389946E+03	1.127242E-03	5.204099E-06
5.399946E+03	1.116170E-03	5.167716E-06
5.409946E+03	1.105942E-03	5.135253E-06
5.419946E+03	1.097142E-03	5.109500E-06
5.429946E+03	1.090390E-03	5.093427E-06
5.439946E+03	1.086184E-03	5.089440E-06
5.449946E+03	1.084718E-03	5.098534E-06
5.459945E+03	1.085650E-03	5.119184E-06
5.469945E+03	1.087848E-03	5.146132E-06
5.479945E+03	1.089363E-03	5.170151E-06
5.489945E+03	1.088052E-03	5.180990E-06
5.499945E+03	1.082758E-03	5.172965E-06
5.509945E+03	1.073843E-03	5.147586E-06
5.519945E+03	1.062578E-03	5.110768E-06
5.529945E+03	1.050392E-03	5.069263E-06
5.539945E+03	1.038378E-03	5.028293E-06
5.549945E+03	1.027254E-03	4.991329E-06
5.559944E+03	1.017434E-03	4.960405E-06
5.569944E+03	1.009085E-03	4.936387E-06
5.579944E+03	1.002144E-03	4.919004E-06
5.589944E+03	9.964713E-04	4.907624E-06
5.599944E+03	9.919077E-04	4.901501E-06
5.609944E+03	9.882697E-04	4.899760E-06
5.619944E+03	9.852394E-04	4.900846E-06
5.629944E+03	9.824601E-04	4.902989E-06
5.639944E+03	9.795129E-04	4.904087E-06
5.649944E+03	9.759822E-04	4.902025E-06
5.659943E+03	9.714914E-04	4.894863E-06
5.669943E+03	9.657829E-04	4.881237E-06
5.679943E+03	9.587690E-04	4.860632E-06
5.689943E+03	9.505958E-04	4.833717E-06
5.699943E+03	9.416146E-04	4.802221E-06
5.709943E+03	9.323216E-04	4.768638E-06
5.719943E+03	9.233816E-04	4.736355E-06
5.729943E+03	9.154872E-04	4.708945E-06
5.739943E+03	9.092525E-04	4.689613E-06
5.749943E+03	9.050954E-04	4.680583E-06
5.759942E+03	9.032177E-04	4.682980E-06
5.769942E+03	9.036659E-04	4.697127E-06
5.779942E+03	9.063285E-04	4.722524E-06
5.789942E+03	9.108839E-04	4.757564E-06
5.799942E+03	9.168827E-04	4.799951E-06
5.809942E+03	9.238395E-04	4.847174E-06
5.819942E+03	9.311834E-04	4.896251E-06
5.829942E+03	9.382878E-04	4.943876E-06
5.839942E+03	9.446455E-04	4.987349E-06
5.849942E+03	9.497974E-04	5.024204E-06
5.859941E+03	9.534986E-04	5.053094E-06
5.869941E+03	9.557035E-04	5.073725E-06
5.879941E+03	9.566159E-04	5.087131E-06
5.889941E+03	9.565152E-04	5.094760E-06
5.899941E+03	9.557589E-04	5.098491E-06
5.909941E+03	9.546718E-04	5.100041E-06
5.919941E+03	9.534910E-04	5.100670E-06
5.929941E+03	9.522592E-04	5.100603E-06
5.939941E+03	9.508907E-04	5.099382E-06
5.949941E+03	9.492997E-04	5.096544E-06
5.959940E+03	9.474792E-04	5.092050E-06
5.969940E+03	9.454448E-04	5.085984E-06
5.979940E+03	9.431941E-04	5.078333E-06
5.989940E+03	9.407249E-04	5.069087E-06
5.999940E+03	9.379504E-04	5.057781E-06
6.009940E+03	9.347844E-04	5.043953E-06
6.019940E+03	9.310771E-04	5.026799E-06
6.029940E+03	9.266418E-04	5.005313E-06
6.039940E+03	9.212033E-04	4.978013E-06
6.049940E+03	9.144894E-04	4.943434E-06
6.059939E+03	9.060939E-04	4.899386E-06
6.069939E+03	8.955784E-04	4.843506E-06
6.079939E+03	8.824326E-04	4.773045E-06
6.089939E+03	8.661083E-04	4.685057E-06
6.099939E+03	8.461509E-04	4.577103E-06
6.109939E+03	8.222314E-04	4.447433E-06
6.119939E+03	7.942779E-04	4.295695E-06
6.129939E+03	7.626080E-04	4.123652E-06
6.139939E+03	7.280781E-04	3.935983E-06
6.149939E+03	6.918320E-04	3.738921E-06
6.159938E+03	6.550921E-04	3.539121E-06
6.169938E+03	6.190961E-04	3.343309E-06
6.179938E+03	5.849914E-04	3.157710E-06
6.189938E+03	5.537533E-04	2.987608E-06
6.199938E+03	5.262336E-04	2.837604E-06
6.209938E+03	5.031188E-04	2.711392E-06
6.219938E+03	4.848489E-04	2.611323E-06
6.229938E+03	4.716241E-04	2.538444E-06
6.239938E+03	4.635777E-04	2.493436E-06
6.249938E+03	4.608724E-04	2.477127E-06
6.259937E+03	4.636792E-04	2.490386E-06
6.269937E+03	4.722765E-04	2.534647E-06
6.279937E+03	4.871058E-04	2.612215E-06
6.289937E+03	5.086791E-04	2.725762E-06
6.299937E+03	5.376583E-04	2.878753E-06
6.309937E+03	5.748756E-04	3.075551E-06
6.319937E+03	6.212352E-04	3.320894E-06
6.329937E+03	6.777485E-04	3.620078E-06
6.339937E+03	7.454525E-04	3.978523E-06
6.349937E+03	8.252268E-04	4.400802E-06
6.359936E+03	9.175588E-04	4.889390E-06
6.369936E+03	1.022210E-03	5.442905E-06
6.379936E+03	1.137617E-03	6.052931E-06
6.389936E+03	1.260423E-03	6.701569E-06
6.399936E+03	1.385425E-03	7.361162E-06
6.409936E+03	1.505552E-03	7.994245E-06
6.419936E+03	1.612203E-03	8.555321E-06
6.429936E+03	1.696037E-03	8.995084E-06
6.439936E+03	1.748479E-03	9.268385E-06
6.449936E+03	1.763428E-03	9.343237E-06
6.459935E+03	1.738965E-03	9.209810E-06
6.469935E+03	1.678575E-03	8.886816E-06
6.479935E+03	1.591050E-03	8.420981E-06
6.489935E+03	1.489214E-03	7.880221E-06
6.499935E+03	1.388317E-03	7.345194E-06
6.509935E+03	1.302906E-03	6.892757E-06
6.519935E+03	1.245452E-03	6.588725E-06
6.529935E+03	1.225057E-03	6.481160E-06
6.539935E+03	1.243381E-03	6.578816E-06
6.549935E+03	1.294802E-03	6.851986E-06
6.559934E+03	1.370605E-03	7.254628E-06
6.569934E+03	1.460865E-03	7.734281E-06
6.579934E+03	1.555130E-03	8.235670E-06
6.589934E+03	1.644032E-03	8.709183E-06
6.599934E+03	1.720051E-03	9.114935E-06
6.609934E+03	1.777766E-03	9.424092E-06
6.619934E+03	1.814489E-03	9.622258E-06
6.629934E+03	1.830052E-03	9.708374E-06
6.639934E+03	1.826091E-03	9.690938E-06
6.649934E+03	1.805561E-03	9.585481E-06
6.659933E+03	1.772055E-03	9.410924E-06
6.669933E+03	1.729190E-03	9.186376E-06
6.679933E+03	1.680245E-03	8.929166E-06
6.689933E+03	1.627940E-03	8.653690E-06
6.699933E+03	1.574474E-03	8.371611E-06
6.709933E+03	1.521342E-03	8.090859E-06
6.719933E+03	1.469618E-03	7.817132E-06
6.729933E+03	1.419923E-03	7.553735E-06
6.739933E+03	1.372628E-03	7.302654E-06
6.749933E+03	1.327841E-03	7.064468E-06
6.759932E+03	1.285603E-03	6.839400E-06
6.769932E+03	1.245864E-03	6.627198E-06
6.779932E+03	1.208568E-03	6.427565E-06
6.789932E+03	1.173662E-03	6.240231E-06
6.799932E+03	1.141038E-03	6.064627E-06
6.809932E+03	1.110688E-03	5.900716E-06
6.819932E+03	1.082548E-03	5.748156E-06
6.829932E+03	1.056575E-03	5.606713E-06
6.839932E+03	1.032818E-03	5.476650E-06
6.849932E+03	1.011286E-03	5.357998E-06
6.859931E+03	9.920805E-04	5.251281E-06
6.869931E+03	9.752941E-04	5.156967E-06
6.879931E+03	9.609609E-04	5.075207E-06
6.889931E+03	9.490712E-04	5.005911E-06
6.899931E+03	9.395107E-04	4.948430E-06
6.909931E+03	9.321380E-04	4.901970E-06
6.919931E+03	9.267015E-04	4.865154E-06
6.929931E+03	9.229228E-04	4.836467E-06
6.939931E+03	9.205049E-04	4.814300E-06
6.949931E+03	9.191588E-04	4.797092E-06
6.959930E+03	9.185730E-04	4.783174E-06
6.969930E+03	9.184701E-04	4.771064E-06
6.979930E+03	9.186666E-04	4.759780E-06
6.989930E+03	9.189444E-04	4.748170E-06
6.999930E+03	9.191644E-04	4.735497E-06
7.009930E+03	9.191763E-04	4.720981E-06
7.019930E+03	9.188268E-04	4.703835E-06
7.029930E+03	9.180265E-04	4.683610E-06
7.039930E+03	9.166786E-04	4.659828E-06
7.049930E+03	9.147529E-04	4.632359E-06
7.059929E+03	9.122082E-04	4.601025E-06
7.069929E+03	9.090488E-04	4.565882E-06
7.079929E+03	9.053043E-04	4.527115E-06
7.089929E+03	9.010462E-04	4.485122E-06
7.099929E+03	8.963086E-04	4.440111E-06
7.109929E+03	8.911973E-04	4.392643E-06
7.119929E+03	8.858295E-04	4.343328E-06
7.129929E+03	8.802558E-04	4.292442E-06
7.139929E+03	8.746434E-04	4.240822E-06
7.149929E+03	8.690707E-04	4.188860E-06
7.159928E+03	8.636729E-04	4.137212E-06
7.169928E+03	8.585457E-04	4.086329E-06
7.179928E+03	8.537955E-04	4.036701E-06
7.189928E+03	8.495344E-04	3.988830E-06
7.199928E+03	8.458061E-04	3.942881E-06
7.209928E+03	8.427119E-04	3.899279E-06
7.219928E+03	8.402844E-04	3.858114E-06
7.229928E+03	8.385620E-04	3.819498E-06
7.239928E+03	8.375552E-04	3.783406E-06
7.249928E+03	8.373015E-04	3.749928E-06
7.259927E+03	8.378094E-04	3.719016E-06
7.269927E+03	8.390563E-04	3.690482E-06
7.279927E+03	8.410387E-04	3.664220E-06
7.289927E+03	8.437013E-04	3.639896E-06
7.299927E+03	8.469913E-04	3.617196E-06
7.309927E+03	8.508419E-04	3.595751E-06
7.319927E+03	8.551972E-04	3.575247E-06
7.329927E+03	8.599410E-04	3.555132E-06
7.339927E+03	8.650161E-04	3.535111E-06
7.349927E+03	8.703291E-04	3.514757E-06
7.359926E+03	8.758302E-04	3.493834E-06
7.369926E+03	8.814334E-04	3.471973E-06
7.379926E+03	8.870964E-04	3.448994E-06
7.389926E+03	8.927195E-04	3.424509E-06
7.399926E+03	8.982668E-04	3.398390E-06
7.409926E+03	9.036646E-04	3.370383E-06
7.419926E+03	9.088623E-04	3.340337E-06
7.429926E+03	9.138126E-04	3.308127E-06
7.439926E+03	9.184715E-04	3.273654E-06
7.449926E+03	9.227554E-04	3.236698E-06
7.459925E+03	9.266470E-04	3.197288E-06
7.469925E+03	9.301117E-04	3.155409E-06
7.479925E+03	9.331398E-04	3.111140E-06
7.489925E+03	9.356818E-04	3.064440E-06
7.499925E+03	9.377580E-04	3.015511E-06
7.509925E+03	9.393484E-04	2.964430E-06
7.519925E+03	9.404150E-04	2.911233E-06
7.529925E+03	9.409916E-04	2.856191E-06
7.539925E+03	9.410506E-04	2.799390E-06
7.549925E+03	9.406145E-04	2.741082E-06
7.559924E+03	9.396903E-04	2.681478E-06
7.569924E+03	9.382919E-04	2.620814E-06
7.579924E+03	9.364402E-04	2.559357E-06
7.589924E+03	9.341851E-04	2.497454E-06
7.599924E+03	9.315375E-04	2.435351E-06
7.609924E+03	9.285583E-04	2.373433E-06
7.619924E+03	9.252664E-04	2.311977E-06
7.629924E+03	9.217529E-04	2.251447E-06
7.639924E+03	9.180173E-04	2.192081E-06
7.649924E+03	9.141297E-04	2.134297E-06
7.659923E+03	9.101602E-04	2.078513E-06
7.669923E+03	9.061081E-04	2.024990E-06
7.679923E+03	9.020891E-04	1.974259E-06
7.689923E+03	8.980770E-04	1.926539E-06
7.699923E+03	8.941613E-04	1.882307E-06
7.709923E+03	8.903835E-04	1.841939E-06
7.719923E+03	8.867600E-04	1.805759E-06
7.729923E+03	8.833521E-04	1.774182E-06
7.739923E+03	8.801727E-04	1.747513E-06
7.749923E+03	8.772799E-04	1.726137E-06
7.759922E+03	8.747300E-04	1.710414E-06
