#wls	flux	fluxerr
1.599984E+03	4.223801E-05	1.568925E-06
1.639984E+03	4.161969E-05	1.535975E-06
1.679983E+03	4.075943E-05	1.494231E-06
1.719983E+03	3.966963E-05	1.444333E-06
1.759982E+03	3.836031E-05	1.386833E-06
1.799982E+03	3.682290E-05	1.321609E-06
1.839982E+03	3.504722E-05	1.248501E-06
1.879981E+03	3.302768E-05	1.167532E-06
1.919981E+03	3.077244E-05	1.079221E-06
1.959980E+03	2.831921E-05	9.851130E-07
1.999980E+03	2.575917E-05	8.885657E-07
2.039980E+03	2.325737E-05	7.953606E-07
2.079979E+03	2.104407E-05	7.132940E-07
2.119979E+03	1.935409E-05	6.500300E-07
2.159978E+03	1.833070E-05	6.098800E-07
2.199978E+03	1.796271E-05	5.918634E-07
2.239978E+03	1.810464E-05	5.906085E-07
2.279977E+03	1.855861E-05	5.992213E-07
2.319977E+03	1.915494E-05	6.119599E-07
2.359976E+03	1.979933E-05	6.256867E-07
2.399976E+03	2.049264E-05	6.403663E-07
2.439976E+03	2.133356E-05	6.589827E-07
2.479975E+03	2.251125E-05	6.871341E-07
2.519975E+03	2.429551E-05	7.325647E-07
2.559974E+03	2.702583E-05	8.046729E-07
2.599974E+03	3.109001E-05	9.137318E-07
2.639974E+03	3.685752E-05	1.068843E-06
2.679973E+03	4.453598E-05	1.273844E-06
2.719973E+03	5.397989E-05	1.522219E-06
2.759972E+03	6.457948E-05	1.794718E-06
2.799972E+03	7.536562E-05	2.063208E-06
2.839972E+03	8.533209E-05	2.300151E-06
2.879971E+03	9.379048E-05	2.488153E-06
2.919971E+03	1.005502E-04	2.624041E-06
2.959970E+03	1.058810E-04	2.716838E-06
2.999970E+03	1.103308E-04	2.782168E-06
3.009970E+03	1.113779E-04	2.796157E-06
3.019970E+03	1.124157E-04	2.809641E-06
3.029970E+03	1.134531E-04	2.822850E-06
3.039970E+03	1.144986E-04	2.835991E-06
3.049970E+03	1.155657E-04	2.849396E-06
3.059969E+03	1.166672E-04	2.863368E-06
3.069969E+03	1.178029E-04	2.877892E-06
3.079969E+03	1.189739E-04	2.892984E-06
3.089969E+03	1.201783E-04	2.908582E-06
3.099969E+03	1.214124E-04	2.924587E-06
3.109969E+03	1.226720E-04	2.940885E-06
3.119969E+03	1.239502E-04	2.957308E-06
3.129969E+03	1.252397E-04	2.973670E-06
3.139969E+03	1.265314E-04	2.989751E-06
3.149969E+03	1.278138E-04	3.005284E-06
3.159968E+03	1.290741E-04	3.019971E-06
3.169968E+03	1.302990E-04	3.033508E-06
3.179968E+03	1.314732E-04	3.045553E-06
3.189968E+03	1.325812E-04	3.055768E-06
3.199968E+03	1.336054E-04	3.063770E-06
3.209968E+03	1.345291E-04	3.069209E-06
3.219968E+03	1.353354E-04	3.071735E-06
3.229968E+03	1.360059E-04	3.070974E-06
3.239968E+03	1.365231E-04	3.066586E-06
3.249968E+03	1.368709E-04	3.058259E-06
3.259967E+03	1.370328E-04	3.045692E-06
3.269967E+03	1.369935E-04	3.028609E-06
3.279967E+03	1.367378E-04	3.006751E-06
3.289967E+03	1.362525E-04	2.979907E-06
3.299967E+03	1.355275E-04	2.947938E-06
3.309967E+03	1.345506E-04	2.910671E-06
3.319967E+03	1.333155E-04	2.868056E-06
3.329967E+03	1.318149E-04	2.820036E-06
3.339967E+03	1.300465E-04	2.766655E-06
3.349967E+03	1.280091E-04	2.707989E-06
3.359966E+03	1.257048E-04	2.644177E-06
3.369966E+03	1.231401E-04	2.575455E-06
3.379966E+03	1.203231E-04	2.502086E-06
3.389966E+03	1.172661E-04	2.424419E-06
3.399966E+03	1.139864E-04	2.342895E-06
3.409966E+03	1.105029E-04	2.257986E-06
3.419966E+03	1.068388E-04	2.170236E-06
3.429966E+03	1.030208E-04	2.080253E-06
3.439966E+03	9.907691E-05	1.988655E-06
3.449966E+03	9.503920E-05	1.896131E-06
3.459965E+03	9.093936E-05	1.803345E-06
3.469965E+03	8.681141E-05	1.710990E-06
3.479965E+03	8.268917E-05	1.619742E-06
3.489965E+03	7.860683E-05	1.530265E-06
3.499965E+03	7.459814E-05	1.443198E-06
3.509965E+03	7.069803E-05	1.359188E-06
3.519965E+03	6.694163E-05	1.278866E-06
3.529965E+03	6.336613E-05	1.202888E-06
3.539965E+03	6.001184E-05	1.131948E-06
3.549965E+03	5.692339E-05	1.066804E-06
3.559964E+03	5.414922E-05	1.008260E-06
3.569964E+03	5.174232E-05	9.571845E-07
3.579964E+03	4.975327E-05	9.143725E-07
3.589964E+03	4.822083E-05	8.803808E-07
3.599964E+03	4.714870E-05	8.551110E-07
3.609964E+03	4.649210E-05	8.375900E-07
3.619964E+03	4.617497E-05	8.263065E-07
3.629964E+03	4.611806E-05	8.197287E-07
3.639964E+03	4.625392E-05	8.165716E-07
3.649964E+03	4.653153E-05	8.158714E-07
3.659963E+03	4.691599E-05	8.169691E-07
3.669963E+03	4.738619E-05	8.194608E-07
3.679963E+03	4.793376E-05	8.231724E-07
3.689963E+03	4.855952E-05	8.280901E-07
3.699963E+03	4.927197E-05	8.343297E-07
3.709963E+03	5.008739E-05	8.421341E-07
3.719963E+03	5.102733E-05	8.518260E-07
3.729963E+03	5.211921E-05	8.638156E-07
3.739963E+03	5.339679E-05	8.786043E-07
3.749963E+03	5.489998E-05	8.967777E-07
3.759962E+03	5.667575E-05	9.190171E-07
3.769962E+03	5.878024E-05	9.461289E-07
3.779962E+03	6.127834E-05	9.790332E-07
3.789962E+03	6.424655E-05	1.018803E-06
3.799962E+03	6.777357E-05	1.066668E-06
3.809962E+03	7.196078E-05	1.124012E-06
3.819962E+03	7.692114E-05	1.192354E-06
3.829962E+03	8.277817E-05	1.273319E-06
3.839962E+03	8.966090E-05	1.368560E-06
3.849962E+03	9.769941E-05	1.479685E-06
3.859961E+03	1.070158E-04	1.608122E-06
3.869961E+03	1.177070E-04	1.754866E-06
3.879961E+03	1.298278E-04	1.920246E-06
3.889961E+03	1.433605E-04	2.103499E-06
3.899961E+03	1.582108E-04	2.302763E-06
3.909961E+03	1.742101E-04	2.515144E-06
3.919961E+03	1.911340E-04	2.737033E-06
3.929961E+03	2.087459E-04	2.964753E-06
3.939961E+03	2.268697E-04	3.195593E-06
3.949961E+03	2.454662E-04	3.428838E-06
3.959960E+03	2.646541E-04	3.665978E-06
3.969960E+03	2.846919E-04	3.910371E-06
3.979960E+03	3.059447E-04	4.166708E-06
3.989960E+03	3.287641E-04	4.439328E-06
3.999960E+03	3.532974E-04	4.729680E-06
4.009960E+03	3.792765E-04	5.033633E-06
4.019960E+03	4.059206E-04	5.340434E-06
4.029960E+03	4.318904E-04	5.632416E-06
4.039960E+03	4.553188E-04	5.885704E-06
4.049960E+03	4.740245E-04	6.073253E-06
4.059959E+03	4.859445E-04	6.170514E-06
4.069959E+03	4.895713E-04	6.160856E-06
4.079959E+03	4.843138E-04	6.039753E-06
4.089959E+03	4.706846E-04	5.816565E-06
4.099959E+03	4.502473E-04	5.513272E-06
4.109959E+03	4.252235E-04	5.159112E-06
4.119959E+03	3.980162E-04	4.784493E-06
4.129959E+03	3.708392E-04	4.416488E-06
4.139959E+03	3.454499E-04	4.075792E-06
4.149959E+03	3.230566E-04	3.775903E-06
4.159958E+03	3.043373E-04	3.523653E-06
4.169958E+03	2.896054E-04	3.321402E-06
4.179958E+03	2.789689E-04	3.169053E-06
4.189958E+03	2.724504E-04	3.065509E-06
4.199958E+03	2.700377E-04	3.009296E-06
4.209958E+03	2.717415E-04	2.999208E-06
4.219958E+03	2.776102E-04	3.034462E-06
4.229958E+03	2.877163E-04	3.114538E-06
4.239958E+03	3.020803E-04	3.238341E-06
4.249958E+03	3.206160E-04	3.403658E-06
4.259957E+03	3.430921E-04	3.606807E-06
4.269957E+03	3.691367E-04	3.842762E-06
4.279957E+03	3.981970E-04	4.104805E-06
4.289957E+03	4.295715E-04	4.384944E-06
4.299957E+03	4.624502E-04	4.674397E-06
4.309957E+03	4.959568E-04	4.964051E-06
4.319957E+03	5.291688E-04	5.244693E-06
4.329957E+03	5.610902E-04	5.506761E-06
4.339957E+03	5.906019E-04	5.739875E-06
4.349957E+03	6.165370E-04	5.933619E-06
4.359956E+03	6.377747E-04	6.078441E-06
4.369956E+03	6.533870E-04	6.167001E-06
4.379956E+03	6.628845E-04	6.196365E-06
4.389956E+03	6.663093E-04	6.168657E-06
4.399956E+03	6.641413E-04	6.089954E-06
4.409956E+03	6.574283E-04	5.971276E-06
4.419956E+03	6.479800E-04	5.830090E-06
4.429956E+03	6.382653E-04	5.689094E-06
4.439956E+03	6.310830E-04	5.573056E-06
4.449956E+03	6.292555E-04	5.506045E-06
4.459955E+03	6.354569E-04	5.509967E-06
4.469955E+03	6.521309E-04	5.603977E-06
4.479955E+03	6.812445E-04	5.802508E-06
4.489955E+03	7.240477E-04	6.113468E-06
4.499955E+03	7.810702E-04	6.538516E-06
4.509955E+03	8.520217E-04	7.072509E-06
4.519955E+03	9.354696E-04	7.701151E-06
4.529955E+03	1.028484E-03	8.398477E-06
4.539955E+03	1.126473E-03	9.125961E-06
4.549955E+03	1.223200E-03	9.833156E-06
4.559954E+03	1.311171E-03	1.046114E-05
4.569954E+03	1.382360E-03	1.094851E-05
4.579954E+03	1.429355E-03	1.124028E-05
4.589954E+03	1.446558E-03	1.129699E-05
4.599954E+03	1.431115E-03	1.110137E-05
4.609954E+03	1.383453E-03	1.066164E-05
4.619954E+03	1.307353E-03	1.001128E-05
4.629954E+03	1.209467E-03	9.204603E-06
4.639954E+03	1.098245E-03	8.308036E-06
4.649954E+03	9.825752E-04	7.389652E-06
4.659953E+03	8.706845E-04	6.510967E-06
4.669953E+03	7.693630E-04	5.721456E-06
4.679953E+03	6.831502E-04	5.052922E-06
4.689953E+03	6.143142E-04	4.519860E-06
4.699953E+03	5.635380E-04	4.124951E-06
4.709953E+03	5.306401E-04	3.864614E-06
4.719953E+03	5.151089E-04	3.733026E-06
4.729953E+03	5.164881E-04	3.724943E-06
4.739953E+03	5.346785E-04	3.837842E-06
4.749953E+03	5.698131E-04	4.070948E-06
4.759952E+03	6.218452E-04	4.422255E-06
4.769952E+03	6.902548E-04	4.886468E-06
4.779952E+03	7.737384E-04	5.452878E-06
4.789952E+03	8.698850E-04	6.103199E-06
4.799952E+03	9.750824E-04	6.811068E-06
4.809952E+03	1.085021E-03	7.545718E-06
4.819952E+03	1.195485E-03	8.277555E-06
4.829952E+03	1.302806E-03	8.981231E-06
4.839952E+03	1.403879E-03	9.635711E-06
4.849952E+03	1.496205E-03	1.022443E-05
4.859951E+03	1.577625E-03	1.073343E-05
4.869951E+03	1.646167E-03	1.115026E-05
4.879951E+03	1.699916E-03	1.146308E-05
4.889951E+03	1.737494E-03	1.166389E-05
4.899951E+03	1.759153E-03	1.175575E-05
4.909951E+03	1.767265E-03	1.175582E-05
4.919951E+03	1.765619E-03	1.169036E-05
4.929951E+03	1.757996E-03	1.158514E-05
4.939951E+03	1.747232E-03	1.145927E-05
4.949951E+03	1.734760E-03	1.132236E-05
4.959950E+03	1.720176E-03	1.117192E-05
4.969950E+03	1.701160E-03	1.099316E-05
4.979950E+03	1.674324E-03	1.076470E-05
4.989950E+03	1.636410E-03	1.046649E-05
4.999950E+03	1.585313E-03	1.008627E-05
5.009950E+03	1.520730E-03	9.623505E-06
5.019950E+03	1.444633E-03	9.092068E-06
5.029950E+03	1.361256E-03	8.519741E-06
5.039950E+03	1.276114E-03	7.941727E-06
5.049950E+03	1.195127E-03	7.394950E-06
5.059949E+03	1.123865E-03	6.913344E-06
5.069949E+03	1.066723E-03	6.522833E-06
5.079949E+03	1.026241E-03	6.237376E-06
5.089949E+03	1.003157E-03	6.059667E-06
5.099949E+03	9.969828E-04	5.984866E-06
5.109949E+03	1.006349E-03	6.002941E-06
5.119949E+03	1.029029E-03	6.098947E-06
5.129949E+03	1.062041E-03	6.253826E-06
5.139949E+03	1.101986E-03	6.446529E-06
5.149949E+03	1.145221E-03	6.655112E-06
5.159948E+03	1.188085E-03	6.858098E-06
5.169948E+03	1.227260E-03	7.036567E-06
5.179948E+03	1.260303E-03	7.177102E-06
5.189948E+03	1.285738E-03	7.272159E-06
5.199948E+03	1.303259E-03	7.320985E-06
5.209948E+03	1.313636E-03	7.328909E-06
5.219948E+03	1.318484E-03	7.305798E-06
5.229948E+03	1.319797E-03	7.263368E-06
5.239948E+03	1.319536E-03	7.212851E-06
5.249948E+03	1.319408E-03	7.163807E-06
5.259947E+03	1.320537E-03	7.122412E-06
5.269947E+03	1.323373E-03	7.091071E-06
5.279947E+03	1.327802E-03	7.069129E-06
5.289947E+03	1.333499E-03	7.054860E-06
5.299947E+03	1.340089E-03	7.046327E-06
5.309947E+03	1.347285E-03	7.042113E-06
5.319947E+03	1.354892E-03	7.041329E-06
5.329947E+03	1.362855E-03	7.043841E-06
5.339947E+03	1.370999E-03	7.048913E-06
5.349947E+03	1.378735E-03	7.053729E-06
5.359946E+03	1.384870E-03	7.052439E-06
5.369946E+03	1.387787E-03	7.037173E-06
5.379946E+03	1.385866E-03	7.000133E-06
5.389946E+03	1.377813E-03	6.935245E-06
5.399946E+03	1.363100E-03	6.840301E-06
5.409946E+03	1.342329E-03	6.718676E-06
5.419946E+03	1.317371E-03	6.579945E-06
5.429946E+03	1.290862E-03	6.437346E-06
5.439946E+03	1.265431E-03	6.303935E-06
5.449946E+03	1.243275E-03	6.190552E-06
5.459945E+03	1.226104E-03	6.105573E-06
5.469945E+03	1.215112E-03	6.054714E-06
5.479945E+03	1.210843E-03	6.040509E-06
5.489945E+03	1.212814E-03	6.060476E-06
5.499945E+03	1.219339E-03	6.106199E-06
5.509945E+03	1.227709E-03	6.164093E-06
5.519945E+03	1.234779E-03	6.218290E-06
5.529945E+03	1.237963E-03	6.255534E-06
5.539945E+03	1.236204E-03	6.270114E-06
5.549945E+03	1.229995E-03	6.264068E-06
5.559944E+03	1.220853E-03	6.244690E-06
5.569944E+03	1.210893E-03	6.222431E-06
5.579944E+03	1.202164E-03	6.207604E-06
5.589944E+03	1.196160E-03	6.207872E-06
5.599944E+03	1.193352E-03	6.225711E-06
5.609944E+03	1.193287E-03	6.258843E-06
5.619944E+03	1.194758E-03	6.300987E-06
5.629944E+03	1.195924E-03	6.342369E-06
5.639944E+03	1.194683E-03	6.371599E-06
5.649944E+03	1.189043E-03	6.377638E-06
5.659943E+03	1.177542E-03	6.352060E-06
5.669943E+03	1.159406E-03	6.289998E-06
5.679943E+03	1.134607E-03	6.190544E-06
5.689943E+03	1.103893E-03	6.057077E-06
5.699943E+03	1.068667E-03	5.896685E-06
5.709943E+03	1.030747E-03	5.718958E-06
5.719943E+03	9.922549E-04	5.535429E-06
5.729943E+03	9.554111E-04	5.358446E-06
5.739943E+03	9.224834E-04	5.200916E-06
5.749943E+03	8.957050E-04	5.075818E-06
5.759942E+03	8.770475E-04	4.994894E-06
5.769942E+03	8.681167E-04	4.967999E-06
5.779942E+03	8.699666E-04	5.001962E-06
5.789942E+03	8.831795E-04	5.100958E-06
5.799942E+03	9.077694E-04	5.265876E-06
5.809942E+03	9.429098E-04	5.492649E-06
5.819942E+03	9.869785E-04	5.772416E-06
5.829942E+03	1.037574E-03	6.091531E-06
5.839942E+03	1.091617E-03	6.432093E-06
5.849942E+03	1.145517E-03	6.772874E-06
5.859941E+03	1.195791E-03	7.092994E-06
5.869941E+03	1.239623E-03	7.375283E-06
5.879941E+03	1.275148E-03	7.608078E-06
5.889941E+03	1.301417E-03	7.785118E-06
5.899941E+03	1.318400E-03	7.905679E-06
5.909941E+03	1.326743E-03	7.973141E-06
5.919941E+03	1.327494E-03	7.993426E-06
5.929941E+03	1.321748E-03	7.972839E-06
5.939941E+03	1.310617E-03	7.917909E-06
5.949941E+03	1.295168E-03	7.834968E-06
5.959940E+03	1.276340E-03	7.729647E-06
5.969940E+03	1.255082E-03	7.607707E-06
5.979940E+03	1.232312E-03	7.474755E-06
5.989940E+03	1.209007E-03	7.336797E-06
5.999940E+03	1.186297E-03	7.200779E-06
6.009940E+03	1.165500E-03	7.074809E-06
6.019940E+03	1.148117E-03	6.968080E-06
6.029940E+03	1.135587E-03	6.889401E-06
6.039940E+03	1.129002E-03	6.845423E-06
6.049940E+03	1.128830E-03	6.838966E-06
6.059939E+03	1.134852E-03	6.868634E-06
6.069939E+03	1.146079E-03	6.928346E-06
6.079939E+03	1.160689E-03	7.006978E-06
6.089939E+03	1.176289E-03	7.090012E-06
6.099939E+03	1.190186E-03	7.161200E-06
6.109939E+03	1.199972E-03	7.206136E-06
6.119939E+03	1.203679E-03	7.213185E-06
6.129939E+03	1.200169E-03	7.175816E-06
6.139939E+03	1.189181E-03	7.092822E-06
6.149939E+03	1.171153E-03	6.967234E-06
6.159938E+03	1.146857E-03	6.804059E-06
6.169938E+03	1.116998E-03	6.607897E-06
6.179938E+03	1.082039E-03	6.381900E-06
6.189938E+03	1.042210E-03	6.127823E-06
6.199938E+03	9.975129E-04	5.846096E-06
6.209938E+03	9.477775E-04	5.536143E-06
6.219938E+03	8.930017E-04	5.198391E-06
6.229938E+03	8.336138E-04	4.835759E-06
6.239938E+03	7.706695E-04	4.454761E-06
6.249938E+03	7.061560E-04	4.067172E-06
6.259937E+03	6.428324E-04	3.689020E-06
6.269937E+03	5.835578E-04	3.336654E-06
6.279937E+03	5.306630E-04	3.023150E-06
6.289937E+03	4.857983E-04	2.757515E-06
6.299937E+03	4.499902E-04	2.545077E-06
6.309937E+03	4.237328E-04	2.388085E-06
6.319937E+03	4.072409E-04	2.287182E-06
6.329937E+03	4.006530E-04	2.242595E-06
6.339937E+03	4.042058E-04	2.255115E-06
6.349937E+03	4.182677E-04	2.326294E-06
6.359936E+03	4.434228E-04	2.458910E-06
6.369936E+03	4.804904E-04	2.657078E-06
6.379936E+03	5.304181E-04	2.925659E-06
6.389936E+03	5.940485E-04	3.269000E-06
6.399936E+03	6.717522E-04	3.688944E-06
6.409936E+03	7.629786E-04	4.182427E-06
6.419936E+03	8.656825E-04	4.738399E-06
6.429936E+03	9.758378E-04	5.335217E-06
6.439936E+03	1.087165E-03	5.939180E-06
6.449936E+03	1.191491E-03	6.506439E-06
6.459935E+03	1.280113E-03	6.990333E-06
6.469935E+03	1.345802E-03	7.352110E-06
6.479935E+03	1.384986E-03	7.572695E-06
6.489935E+03	1.399839E-03	7.664067E-06
6.499935E+03	1.398747E-03	7.671945E-06
6.509935E+03	1.394567E-03	7.666645E-06
6.519935E+03	1.401748E-03	7.727631E-06
6.529935E+03	1.433171E-03	7.926606E-06
6.539935E+03	1.495207E-03	8.300336E-06
6.549935E+03	1.586137E-03	8.841432E-06
6.559934E+03	1.699036E-03	9.513573E-06
6.569934E+03	1.823897E-03	1.026270E-05
6.579934E+03	1.949299E-03	1.102579E-05
6.589934E+03	2.064149E-03	1.174035E-05
6.599934E+03	2.159143E-03	1.235260E-05
6.609934E+03	2.227846E-03	1.282376E-05
6.619934E+03	2.267344E-03	1.313428E-05
6.629934E+03	2.278073E-03	1.328344E-05
6.639934E+03	2.262927E-03	1.328469E-05
6.649934E+03	2.226317E-03	1.316074E-05
6.659933E+03	2.173353E-03	1.293899E-05
6.669933E+03	2.109036E-03	1.264693E-05
6.679933E+03	2.037845E-03	1.230974E-05
6.689933E+03	1.963554E-03	1.194908E-05
6.699933E+03	1.889012E-03	1.158159E-05
6.709933E+03	1.816154E-03	1.121885E-05
6.719933E+03	1.746201E-03	1.086839E-05
6.729933E+03	1.679943E-03	1.053530E-05
6.739933E+03	1.617661E-03	1.022162E-05
6.749933E+03	1.559452E-03	9.928352E-06
6.759932E+03	1.505198E-03	9.655141E-06
6.769932E+03	1.454627E-03	9.400652E-06
6.779932E+03	1.407425E-03	9.163233E-06
6.789932E+03	1.363368E-03	8.941807E-06
6.799932E+03	1.322213E-03	8.735128E-06
6.809932E+03	1.283787E-03	8.542394E-06
6.819932E+03	1.248037E-03	8.363566E-06
6.829932E+03	1.214948E-03	8.198882E-06
6.839932E+03	1.184523E-03	8.048693E-06
6.849932E+03	1.156895E-03	7.914256E-06
6.859931E+03	1.132163E-03	7.796609E-06
6.869931E+03	1.110446E-03	7.696959E-06
6.879931E+03	1.091831E-03	7.616289E-06
6.889931E+03	1.076322E-03	7.555026E-06
6.899931E+03	1.063885E-03	7.513321E-06
6.909931E+03	1.054347E-03	7.490317E-06
6.919931E+03	1.047458E-03	7.484578E-06
6.929931E+03	1.042855E-03	7.493791E-06
6.939931E+03	1.040158E-03	7.515461E-06
6.949931E+03	1.038977E-03	7.546957E-06
6.959930E+03	1.038940E-03	7.585697E-06
6.969930E+03	1.039706E-03	7.629279E-06
6.979930E+03	1.040957E-03	7.675418E-06
6.989930E+03	1.042458E-03	7.722385E-06
6.999930E+03	1.043972E-03	7.768420E-06
7.009930E+03	1.045334E-03	7.812254E-06
7.019930E+03	1.046353E-03	7.852412E-06
7.029930E+03	1.046947E-03	7.888224E-06
7.039930E+03	1.047006E-03	7.918797E-06
7.049930E+03	1.046477E-03	7.943657E-06
7.059929E+03	1.045328E-03	7.962514E-06
7.069929E+03	1.043609E-03	7.975690E-06
7.079929E+03	1.041387E-03	7.983638E-06
7.089929E+03	1.038725E-03	7.986818E-06
7.099929E+03	1.035714E-03	7.985891E-06
7.109929E+03	1.032463E-03	7.981700E-06
7.119929E+03	1.029027E-03	7.974651E-06
7.129929E+03	1.025511E-03	7.965562E-06
7.139929E+03	1.022017E-03	7.955241E-06
7.149929E+03	1.018574E-03	7.943931E-06
7.159928E+03	1.015333E-03	7.932820E-06
7.169928E+03	1.012347E-03	7.922356E-06
7.179928E+03	1.009706E-03	7.913272E-06
7.189928E+03	1.007495E-03	7.906262E-06
7.199928E+03	1.005790E-03	7.901961E-06
7.209928E+03	1.004679E-03	7.901086E-06
7.219928E+03	1.004180E-03	7.903818E-06
7.229928E+03	1.004341E-03	7.910555E-06
7.239928E+03	1.005216E-03	7.921763E-06
7.249928E+03	1.006831E-03	7.937663E-06
7.259927E+03	1.009179E-03	7.958227E-06
7.269927E+03	1.012262E-03	7.983495E-06
7.279927E+03	1.016071E-03	8.013411E-06
7.289927E+03	1.020566E-03	8.047679E-06
7.299927E+03	1.025758E-03	8.086395E-06
7.309927E+03	1.031569E-03	8.128955E-06
7.319927E+03	1.037951E-03	8.175007E-06
7.329927E+03	1.044874E-03	8.224318E-06
7.339927E+03	1.052239E-03	8.276125E-06
7.349927E+03	1.060027E-03	8.330304E-06
7.359926E+03	1.068155E-03	8.386217E-06
7.369926E+03	1.076538E-03	8.443220E-06
7.379926E+03	1.085112E-03	8.500836E-06
7.389926E+03	1.093833E-03	8.558769E-06
7.399926E+03	1.102594E-03	8.616216E-06
7.409926E+03	1.111378E-03	8.673094E-06
7.419926E+03	1.120056E-03	8.728450E-06
7.429926E+03	1.128616E-03	8.782247E-06
7.439926E+03	1.136977E-03	8.833935E-06
7.449926E+03	1.145086E-03	8.883173E-06
7.459925E+03	1.152891E-03	8.929650E-06
7.469925E+03	1.160319E-03	8.972899E-06
7.479925E+03	1.167400E-03	9.013245E-06
7.489925E+03	1.174043E-03	9.050104E-06
7.499925E+03	1.180237E-03	9.083505E-06
7.509925E+03	1.185976E-03	9.113521E-06
7.519925E+03	1.191207E-03	9.139874E-06
7.529925E+03	1.195959E-03	9.162926E-06
7.539925E+03	1.200190E-03	9.182489E-06
7.549925E+03	1.203888E-03	9.198616E-06
7.559924E+03	1.207099E-03	9.211809E-06
7.569924E+03	1.209770E-03	9.221807E-06
7.579924E+03	1.211959E-03	9.229199E-06
7.589924E+03	1.213647E-03	9.234007E-06
7.599924E+03	1.214904E-03	9.236898E-06
7.609924E+03	1.215692E-03	9.237748E-06
7.619924E+03	1.216060E-03	9.237077E-06
7.629924E+03	1.216061E-03	9.235428E-06
7.639924E+03	1.215691E-03	9.232934E-06
7.649924E+03	1.215007E-03	9.230164E-06
7.659923E+03	1.214036E-03	9.227472E-06
7.669923E+03	1.212836E-03	9.225428E-06
7.679923E+03	1.211375E-03	9.223942E-06
7.689923E+03	1.209765E-03	9.223996E-06
7.699923E+03	1.207973E-03	9.225464E-06
7.709923E+03	1.206047E-03	9.228852E-06
7.719923E+03	1.204005E-03	9.234416E-06
7.729923E+03	1.201859E-03	9.242376E-06
7.739923E+03	1.199649E-03	9.253138E-06
7.749923E+03	1.197376E-03	9.266844E-06
7.759922E+03	1.195009E-03	9.283349E-06
