#wls	flux	fluxerr
1.599984E+03	1.026440E-05	7.719852E-07
1.639984E+03	1.015418E-05	7.591844E-07
1.679983E+03	1.001277E-05	7.440620E-07
1.719983E+03	9.845025E-06	7.270208E-07
1.759982E+03	9.646771E-06	7.077958E-07
1.799982E+03	9.415438E-06	6.862474E-07
1.839982E+03	9.142909E-06	6.618422E-07
1.879981E+03	8.823808E-06	6.342625E-07
1.919981E+03	8.444616E-06	6.026237E-07
1.959980E+03	8.011618E-06	5.674759E-07
1.999980E+03	7.539107E-06	5.299227E-07
2.039980E+03	7.065646E-06	4.927328E-07
2.079979E+03	6.654904E-06	4.603274E-07
2.119979E+03	6.394313E-06	4.386110E-07
2.159978E+03	6.342780E-06	4.313378E-07
2.199978E+03	6.530108E-06	4.401480E-07
2.239978E+03	6.939832E-06	4.635028E-07
2.279977E+03	7.522922E-06	4.977321E-07
2.319977E+03	8.237343E-06	5.397327E-07
2.359976E+03	9.047405E-06	5.869089E-07
2.399976E+03	9.940294E-06	6.382183E-07
2.439976E+03	1.091890E-05	6.936433E-07
2.479975E+03	1.199002E-05	7.533961E-07
2.519975E+03	1.317204E-05	8.183836E-07
2.559974E+03	1.448578E-05	8.896014E-07
2.599974E+03	1.594762E-05	9.677047E-07
2.639974E+03	1.757927E-05	1.053609E-06
2.679973E+03	1.938493E-05	1.147115E-06
2.719973E+03	2.138064E-05	1.248688E-06
2.759972E+03	2.355602E-05	1.357206E-06
2.799972E+03	2.590696E-05	1.471920E-06
2.839972E+03	2.841587E-05	1.591327E-06
2.879971E+03	3.106905E-05	1.714179E-06
2.919971E+03	3.382019E-05	1.837492E-06
2.959970E+03	3.664683E-05	1.959706E-06
2.999970E+03	3.950028E-05	2.077950E-06
3.009970E+03	4.021383E-05	2.106659E-06
3.019970E+03	4.092185E-05	2.134732E-06
3.029970E+03	4.163029E-05	2.162479E-06
3.039970E+03	4.233889E-05	2.189884E-06
3.049970E+03	4.304219E-05	2.216666E-06
3.059969E+03	4.374205E-05	2.242921E-06
3.069969E+03	4.445092E-05	2.269285E-06
3.079969E+03	4.515242E-05	2.294917E-06
3.089969E+03	4.585181E-05	2.320088E-06
3.099969E+03	4.654713E-05	2.344698E-06
3.109969E+03	4.723644E-05	2.368652E-06
3.119969E+03	4.791776E-05	2.391853E-06
3.129969E+03	4.858915E-05	2.414207E-06
3.139969E+03	4.924863E-05	2.435624E-06
3.149969E+03	4.989427E-05	2.456014E-06
3.159968E+03	5.052410E-05	2.475290E-06
3.169968E+03	5.113620E-05	2.493366E-06
3.179968E+03	5.173590E-05	2.510514E-06
3.189968E+03	5.231402E-05	2.526295E-06
3.199968E+03	5.287587E-05	2.540982E-06
3.209968E+03	5.341233E-05	2.554146E-06
3.219968E+03	5.392874E-05	2.566059E-06
3.229968E+03	5.441607E-05	2.576308E-06
3.239968E+03	5.487967E-05	2.585163E-06
3.249968E+03	5.531770E-05	2.592554E-06
3.259967E+03	5.572143E-05	2.598093E-06
3.269967E+03	5.609621E-05	2.602051E-06
3.279967E+03	5.644722E-05	2.604688E-06
3.289967E+03	5.675915E-05	2.605316E-06
3.299967E+03	5.704410E-05	2.604518E-06
3.309967E+03	5.728722E-05	2.601638E-06
3.319967E+03	5.750054E-05	2.597249E-06
3.329967E+03	5.768263E-05	2.591309E-06
3.339967E+03	5.781951E-05	2.583216E-06
3.349967E+03	5.792938E-05	2.573813E-06
3.359966E+03	5.799866E-05	2.562520E-06
3.369966E+03	5.802683E-05	2.549343E-06
3.379966E+03	5.802558E-05	2.534825E-06
3.389966E+03	5.798248E-05	2.518449E-06
3.399966E+03	5.790930E-05	2.500753E-06
3.409966E+03	5.779454E-05	2.481268E-06
3.419966E+03	5.765010E-05	2.460534E-06
3.429966E+03	5.747099E-05	2.438362E-06
3.439966E+03	5.725838E-05	2.414828E-06
3.449966E+03	5.701895E-05	2.390239E-06
3.459965E+03	5.674922E-05	2.364472E-06
3.469965E+03	5.646148E-05	2.338058E-06
3.479965E+03	5.614810E-05	2.310700E-06
3.489965E+03	5.581710E-05	2.282746E-06
3.499965E+03	5.547192E-05	2.254350E-06
3.509965E+03	5.511648E-05	2.225683E-06
3.519965E+03	5.475965E-05	2.197110E-06
3.529965E+03	5.440180E-05	2.168647E-06
3.539965E+03	5.405269E-05	2.140684E-06
3.549965E+03	5.371809E-05	2.113442E-06
3.559964E+03	5.340034E-05	2.087001E-06
3.569964E+03	5.311042E-05	2.061777E-06
3.579964E+03	5.285942E-05	2.038176E-06
3.589964E+03	5.264724E-05	2.016164E-06
3.599964E+03	5.248925E-05	1.996296E-06
3.609964E+03	5.239323E-05	1.978825E-06
3.619964E+03	5.236381E-05	1.963875E-06
3.629964E+03	5.241313E-05	1.951848E-06
3.639964E+03	5.255034E-05	1.943018E-06
3.649964E+03	5.278867E-05	1.937802E-06
3.659963E+03	5.313221E-05	1.936270E-06
3.669963E+03	5.359936E-05	1.939002E-06
3.679963E+03	5.419974E-05	1.946246E-06
3.689963E+03	5.495074E-05	1.958515E-06
3.699963E+03	5.586797E-05	1.976239E-06
3.709963E+03	5.696554E-05	1.999780E-06
3.719963E+03	5.826904E-05	2.029884E-06
3.729963E+03	5.979670E-05	2.067014E-06
3.739963E+03	6.157571E-05	2.111921E-06
3.749963E+03	6.362964E-05	2.165202E-06
3.759962E+03	6.598849E-05	2.227647E-06
3.769962E+03	6.869264E-05	2.300358E-06
3.779962E+03	7.177312E-05	2.384086E-06
3.789962E+03	7.527910E-05	2.480142E-06
3.799962E+03	7.925421E-05	2.589604E-06
3.809962E+03	8.375054E-05	2.713776E-06
3.819962E+03	8.882517E-05	2.854065E-06
3.829962E+03	9.454839E-05	3.012237E-06
3.839962E+03	1.009786E-04	3.189606E-06
3.849962E+03	1.081846E-04	3.387743E-06
3.859961E+03	1.162449E-04	3.608451E-06
3.869961E+03	1.252215E-04	3.852938E-06
3.879961E+03	1.351728E-04	4.122232E-06
3.889961E+03	1.461431E-04	4.416869E-06
3.899961E+03	1.581550E-04	4.736693E-06
3.909961E+03	1.712087E-04	5.080857E-06
3.919961E+03	1.852628E-04	5.447288E-06
3.929961E+03	2.002270E-04	5.832537E-06
3.939961E+03	2.159794E-04	6.232340E-06
3.949961E+03	2.323386E-04	6.640876E-06
3.959960E+03	2.490975E-04	7.051788E-06
3.969960E+03	2.660066E-04	7.457762E-06
3.979960E+03	2.827890E-04	7.850992E-06
3.989960E+03	2.991461E-04	8.223395E-06
3.999960E+03	3.147546E-04	8.566527E-06
4.009960E+03	3.292996E-04	8.872536E-06
4.019960E+03	3.424544E-04	9.133594E-06
4.029960E+03	3.539021E-04	9.342493E-06
4.039960E+03	3.633563E-04	9.493164E-06
4.049960E+03	3.705780E-04	9.581077E-06
4.059959E+03	3.754377E-04	9.604761E-06
4.069959E+03	3.779021E-04	9.565312E-06
4.079959E+03	3.780922E-04	9.467727E-06
4.089959E+03	3.762447E-04	9.319731E-06
4.099959E+03	3.727292E-04	9.132046E-06
4.109959E+03	3.680103E-04	8.917289E-06
4.119959E+03	3.626110E-04	8.688973E-06
4.129959E+03	3.570741E-04	8.460518E-06
4.139959E+03	3.519184E-04	8.244190E-06
4.149959E+03	3.476283E-04	8.050911E-06
4.159958E+03	3.446281E-04	7.889706E-06
4.169958E+03	3.432757E-04	7.767659E-06
4.179958E+03	3.438598E-04	7.689926E-06
4.189958E+03	3.466282E-04	7.660466E-06
4.199958E+03	3.517980E-04	7.682324E-06
4.209958E+03	3.595696E-04	7.757965E-06
4.219958E+03	3.701615E-04	7.890050E-06
4.229958E+03	3.838121E-04	8.081453E-06
4.239958E+03	4.008136E-04	8.335943E-06
4.249958E+03	4.214760E-04	8.657383E-06
4.259957E+03	4.461588E-04	9.050353E-06
4.269957E+03	4.752271E-04	9.519217E-06
4.279957E+03	5.090422E-04	1.006794E-05
4.289957E+03	5.478497E-04	1.069790E-05
4.299957E+03	5.917838E-04	1.140817E-05
4.309957E+03	6.406708E-04	1.219187E-05
4.319957E+03	6.939403E-04	1.303491E-05
4.329957E+03	7.504776E-04	1.391374E-05
4.339957E+03	8.084659E-04	1.479314E-05
4.349957E+03	8.653507E-04	1.562634E-05
4.359956E+03	9.179116E-04	1.635719E-05
4.369956E+03	9.626371E-04	1.692747E-05
4.379956E+03	9.963111E-04	1.728731E-05
4.389956E+03	1.016870E-03	1.740947E-05
4.399956E+03	1.023949E-03	1.729713E-05
4.409956E+03	1.019042E-03	1.698455E-05
4.419956E+03	1.005100E-03	1.652848E-05
4.429956E+03	9.857901E-04	1.599441E-05
4.439956E+03	9.649074E-04	1.544660E-05
4.449956E+03	9.458940E-04	1.494035E-05
4.459955E+03	9.317591E-04	1.452130E-05
4.469955E+03	9.249037E-04	1.422328E-05
4.479955E+03	9.273252E-04	1.407213E-05
4.489955E+03	9.406318E-04	1.408644E-05
4.499955E+03	9.661353E-04	1.427934E-05
4.509955E+03	1.004945E-03	1.466029E-05
4.519955E+03	1.057867E-03	1.523384E-05
4.529955E+03	1.125427E-03	1.600035E-05
4.539955E+03	1.207713E-03	1.695400E-05
4.549955E+03	1.304244E-03	1.808146E-05
4.559954E+03	1.413858E-03	1.936087E-05
4.569954E+03	1.534577E-03	2.076051E-05
4.579954E+03	1.663692E-03	2.224062E-05
4.589954E+03	1.797762E-03	2.375381E-05
4.599954E+03	1.932934E-03	2.524971E-05
4.609954E+03	2.065118E-03	2.667733E-05
4.619954E+03	2.190336E-03	2.798947E-05
4.629954E+03	2.304933E-03	2.914508E-05
4.639954E+03	2.405814E-03	3.011185E-05
4.649954E+03	2.490578E-03	3.086714E-05
4.659953E+03	2.557478E-03	3.139652E-05
4.669953E+03	2.605626E-03	3.169602E-05
4.679953E+03	2.634863E-03	3.177015E-05
4.689953E+03	2.645859E-03	3.163282E-05
4.699953E+03	2.639941E-03	3.130485E-05
4.709953E+03	2.619061E-03	3.081343E-05
4.719953E+03	2.585748E-03	3.019133E-05
4.729953E+03	2.542708E-03	2.947217E-05
4.739953E+03	2.492944E-03	2.869189E-05
4.749953E+03	2.439368E-03	2.788423E-05
4.759952E+03	2.384746E-03	2.708035E-05
4.769952E+03	2.331733E-03	2.630933E-05
4.779952E+03	2.282701E-03	2.559640E-05
4.789952E+03	2.239840E-03	2.496418E-05
4.799952E+03	2.205139E-03	2.443260E-05
4.809952E+03	2.180443E-03	2.401961E-05
4.819952E+03	2.167424E-03	2.374096E-05
4.829952E+03	2.167587E-03	2.361024E-05
4.839952E+03	2.182148E-03	2.363772E-05
4.849952E+03	2.212002E-03	2.382997E-05
4.859951E+03	2.257635E-03	2.418902E-05
4.869951E+03	2.318960E-03	2.471076E-05
4.879951E+03	2.395131E-03	2.538303E-05
4.889951E+03	2.484429E-03	2.618464E-05
4.899951E+03	2.584104E-03	2.708393E-05
4.909951E+03	2.690432E-03	2.803970E-05
4.919951E+03	2.798824E-03	2.900256E-05
4.929951E+03	2.904178E-03	2.991886E-05
4.939951E+03	3.001348E-03	3.073571E-05
4.949951E+03	3.085498E-03	3.140461E-05
4.959950E+03	3.152611E-03	3.188663E-05
4.969950E+03	3.199542E-03	3.215270E-05
4.979950E+03	3.224088E-03	3.218415E-05
4.989950E+03	3.225079E-03	3.197335E-05
4.999950E+03	3.202122E-03	3.152087E-05
5.009950E+03	3.155713E-03	3.083641E-05
5.019950E+03	3.087332E-03	2.993934E-05
5.029950E+03	2.999341E-03	2.885741E-05
5.039950E+03	2.895131E-03	2.762777E-05
5.049950E+03	2.779015E-03	2.629553E-05
5.059949E+03	2.655952E-03	2.491068E-05
5.069949E+03	2.531104E-03	2.352365E-05
5.079949E+03	2.409616E-03	2.218302E-05
5.089949E+03	2.296065E-03	2.093042E-05
5.099949E+03	2.194239E-03	1.979866E-05
5.109949E+03	2.106991E-03	1.881066E-05
5.119949E+03	2.036151E-03	1.797905E-05
5.129949E+03	1.982663E-03	1.730776E-05
5.139949E+03	1.946641E-03	1.679300E-05
5.149949E+03	1.927535E-03	1.642498E-05
5.159948E+03	1.924239E-03	1.618924E-05
5.169948E+03	1.935197E-03	1.606783E-05
5.179948E+03	1.958605E-03	1.604128E-05
5.189948E+03	1.992421E-03	1.608883E-05
5.199948E+03	2.034502E-03	1.618973E-05
5.209948E+03	2.082808E-03	1.632498E-05
5.219948E+03	2.135408E-03	1.647734E-05
5.229948E+03	2.190686E-03	1.663288E-05
5.239948E+03	2.247356E-03	1.678097E-05
5.249948E+03	2.304609E-03	1.691517E-05
5.259947E+03	2.361998E-03	1.703213E-05
5.269947E+03	2.419430E-03	1.713132E-05
5.279947E+03	2.477026E-03	1.721384E-05
5.289947E+03	2.535097E-03	1.728214E-05
5.299947E+03	2.593885E-03	1.733814E-05
5.309947E+03	2.653468E-03	1.738270E-05
5.319947E+03	2.713778E-03	1.741586E-05
5.329947E+03	2.774386E-03	1.743556E-05
5.339947E+03	2.834567E-03	1.743836E-05
5.349947E+03	2.893321E-03	1.741975E-05
5.359946E+03	2.949194E-03	1.737327E-05
5.369946E+03	3.000552E-03	1.729239E-05
5.379946E+03	3.045442E-03	1.716982E-05
5.389946E+03	3.081900E-03	1.699934E-05
5.399946E+03	3.108108E-03	1.677658E-05
5.409946E+03	3.122754E-03	1.650073E-05
5.419946E+03	3.125418E-03	1.617608E-05
5.429946E+03	3.116932E-03	1.581323E-05
5.439946E+03	3.099608E-03	1.542953E-05
5.449946E+03	3.077141E-03	1.504786E-05
5.459945E+03	3.054239E-03	1.469439E-05
5.469945E+03	3.036067E-03	1.439580E-05
5.479945E+03	3.027157E-03	1.417443E-05
5.489945E+03	3.030831E-03	1.404629E-05
5.499945E+03	3.048535E-03	1.401873E-05
5.509945E+03	3.079946E-03	1.409153E-05
5.519945E+03	3.122747E-03	1.425619E-05
5.529945E+03	3.173085E-03	1.449715E-05
5.539945E+03	3.226437E-03	1.479408E-05
5.549945E+03	3.278266E-03	1.512588E-05
5.559944E+03	3.324991E-03	1.547488E-05
5.569944E+03	3.364366E-03	1.582848E-05
5.579944E+03	3.395660E-03	1.618012E-05
5.589944E+03	3.419611E-03	1.652952E-05
5.599944E+03	3.437836E-03	1.688040E-05
5.609944E+03	3.452459E-03	1.723919E-05
5.619944E+03	3.465189E-03	1.761081E-05
5.629944E+03	3.476997E-03	1.799694E-05
5.639944E+03	3.487529E-03	1.839274E-05
5.649944E+03	3.495233E-03	1.878688E-05
5.659943E+03	3.497298E-03	1.916064E-05
5.669943E+03	3.490202E-03	1.949025E-05
5.679943E+03	3.470413E-03	1.975051E-05
5.689943E+03	3.435070E-03	1.991872E-05
5.699943E+03	3.382597E-03	1.997869E-05
5.709943E+03	3.313225E-03	1.992467E-05
5.719943E+03	3.228944E-03	1.976203E-05
5.729943E+03	3.133550E-03	1.950857E-05
5.739943E+03	3.031943E-03	1.919100E-05
5.749943E+03	2.929897E-03	1.884402E-05
5.759942E+03	2.833254E-03	1.850534E-05
5.769942E+03	2.747651E-03	1.821383E-05
5.779942E+03	2.678156E-03	1.800672E-05
5.789942E+03	2.629072E-03	1.791788E-05
5.799942E+03	2.603964E-03	1.797741E-05
5.809942E+03	2.605521E-03	1.821020E-05
5.819942E+03	2.635701E-03	1.863644E-05
5.829942E+03	2.695548E-03	1.926983E-05
5.839942E+03	2.785069E-03	2.011631E-05
5.849942E+03	2.903048E-03	2.117219E-05
5.859941E+03	3.046598E-03	2.242042E-05
5.869941E+03	3.211044E-03	2.382925E-05
5.879941E+03	3.389638E-03	2.534970E-05
5.889941E+03	3.573772E-03	2.691672E-05
5.899941E+03	3.753372E-03	2.845209E-05
5.909941E+03	3.917714E-03	2.987070E-05
5.919941E+03	4.056580E-03	3.108969E-05
5.929941E+03	4.161029E-03	3.203505E-05
5.939941E+03	4.224724E-03	3.265254E-05
5.949941E+03	4.244156E-03	3.291019E-05
5.959940E+03	4.219302E-03	3.280402E-05
5.969940E+03	4.153158E-03	3.235489E-05
5.979940E+03	4.051432E-03	3.160626E-05
5.989940E+03	3.921929E-03	3.061933E-05
5.999940E+03	3.773753E-03	2.946655E-05
6.009940E+03	3.616491E-03	2.822485E-05
6.019940E+03	3.459601E-03	2.697037E-05
6.029940E+03	3.311669E-03	2.577226E-05
6.039940E+03	3.180050E-03	2.468947E-05
6.049940E+03	3.070666E-03	2.376891E-05
6.059939E+03	2.987746E-03	2.304336E-05
6.069939E+03	2.933940E-03	2.253224E-05
6.079939E+03	2.910204E-03	2.224088E-05
6.089939E+03	2.915906E-03	2.216161E-05
6.099939E+03	2.948788E-03	2.227374E-05
6.109939E+03	3.004986E-03	2.254425E-05
6.119939E+03	3.079181E-03	2.292942E-05
6.129939E+03	3.164858E-03	2.337743E-05
6.139939E+03	3.254834E-03	2.383284E-05
6.149939E+03	3.342144E-03	2.424350E-05
6.159938E+03	3.420704E-03	2.456565E-05
6.169938E+03	3.486093E-03	2.476931E-05
6.179938E+03	3.536044E-03	2.484136E-05
6.189938E+03	3.570315E-03	2.478387E-05
6.199938E+03	3.590360E-03	2.461105E-05
6.209938E+03	3.598772E-03	2.434471E-05
6.219938E+03	3.598299E-03	2.400706E-05
6.229938E+03	3.591362E-03	2.361743E-05
6.239938E+03	3.579766E-03	2.319039E-05
6.249938E+03	3.564273E-03	2.273338E-05
6.259937E+03	3.544915E-03	2.224904E-05
6.269937E+03	3.520846E-03	2.173475E-05
6.279937E+03	3.490797E-03	2.118581E-05
6.289937E+03	3.453188E-03	2.059629E-05
6.299937E+03	3.406458E-03	1.996116E-05
6.309937E+03	3.349300E-03	1.927758E-05
6.319937E+03	3.281032E-03	1.854681E-05
6.329937E+03	3.201774E-03	1.777480E-05
6.339937E+03	3.112817E-03	1.697369E-05
6.349937E+03	3.016510E-03	1.616057E-05
6.359936E+03	2.916245E-03	1.535687E-05
6.369936E+03	2.816125E-03	1.458618E-05
6.379936E+03	2.720605E-03	1.387223E-05
6.389936E+03	2.634119E-03	1.323708E-05
6.399936E+03	2.560709E-03	1.269959E-05
6.409936E+03	2.503813E-03	1.227492E-05
6.419936E+03	2.466107E-03	1.197429E-05
6.429936E+03	2.449777E-03	1.180694E-05
6.439936E+03	2.456391E-03	1.177997E-05
6.449936E+03	2.487179E-03	1.190017E-05
6.459935E+03	2.543226E-03	1.217522E-05
6.469935E+03	2.625473E-03	1.261405E-05
6.479935E+03	2.734833E-03	1.322687E-05
6.489935E+03	2.872290E-03	1.402480E-05
6.499935E+03	3.038625E-03	1.501966E-05
6.509935E+03	3.234152E-03	1.622274E-05
6.519935E+03	3.458225E-03	1.764202E-05
6.529935E+03	3.708544E-03	1.927786E-05
6.539935E+03	3.980944E-03	2.112078E-05
6.549935E+03	4.268826E-03	2.314680E-05
6.559934E+03	4.563215E-03	2.531574E-05
6.569934E+03	4.852917E-03	2.756989E-05
6.579934E+03	5.125757E-03	2.983899E-05
6.589934E+03	5.369524E-03	3.204450E-05
6.599934E+03	5.573505E-03	3.410843E-05
6.609934E+03	5.729570E-03	3.596092E-05
6.619934E+03	5.832656E-03	3.754526E-05
6.629934E+03	5.881180E-03	3.882316E-05
6.639934E+03	5.876837E-03	3.977643E-05
6.649934E+03	5.823866E-03	4.040495E-05
6.659933E+03	5.728614E-03	4.072602E-05
6.669933E+03	5.598503E-03	4.076894E-05
6.679933E+03	5.441524E-03	4.057246E-05
6.689933E+03	5.265631E-03	4.018081E-05
6.699933E+03	5.078009E-03	3.963804E-05
6.709933E+03	4.885236E-03	3.898878E-05
6.719933E+03	4.692649E-03	3.827245E-05
6.729933E+03	4.504554E-03	3.752395E-05
6.739933E+03	4.324149E-03	3.677205E-05
6.749933E+03	4.153787E-03	3.604063E-05
6.759932E+03	3.994951E-03	3.534767E-05
6.769932E+03	3.848396E-03	3.470571E-05
6.779932E+03	3.714462E-03	3.412408E-05
6.789932E+03	3.592997E-03	3.360775E-05
6.799932E+03	3.483626E-03	3.315948E-05
6.809932E+03	3.385790E-03	3.277997E-05
6.819932E+03	3.298836E-03	3.246855E-05
6.829932E+03	3.222062E-03	3.222361E-05
6.839932E+03	3.154763E-03	3.204299E-05
6.849932E+03	3.096214E-03	3.192376E-05
6.859931E+03	3.045756E-03	3.186320E-05
6.869931E+03	3.002798E-03	3.185880E-05
6.879931E+03	2.966723E-03	3.190732E-05
6.889931E+03	2.936838E-03	3.200424E-05
6.899931E+03	2.912600E-03	3.214625E-05
6.909931E+03	2.893292E-03	3.232768E-05
6.919931E+03	2.878303E-03	3.254361E-05
6.929931E+03	2.866972E-03	3.278811E-05
6.939931E+03	2.858601E-03	3.305448E-05
6.949931E+03	2.852584E-03	3.333664E-05
6.959930E+03	2.848266E-03	3.362764E-05
6.969930E+03	2.845107E-03	3.392152E-05
6.979930E+03	2.842503E-03	3.421127E-05
6.989930E+03	2.840056E-03	3.449214E-05
6.999930E+03	2.837317E-03	3.475857E-05
7.009930E+03	2.833901E-03	3.500558E-05
7.019930E+03	2.829573E-03	3.522998E-05
7.029930E+03	2.824130E-03	3.542887E-05
7.039930E+03	2.817417E-03	3.559989E-05
7.049930E+03	2.809426E-03	3.574261E-05
7.059929E+03	2.800158E-03	3.585666E-05
7.069929E+03	2.789761E-03	3.594365E-05
7.079929E+03	2.778368E-03	3.600507E-05
7.089929E+03	2.766162E-03	3.604313E-05
7.099929E+03	2.753483E-03	3.606216E-05
7.109929E+03	2.740565E-03	3.606524E-05
7.119929E+03	2.727643E-03	3.605549E-05
7.129929E+03	2.715017E-03	3.603700E-05
7.139929E+03	2.702916E-03	3.601295E-05
7.149929E+03	2.691502E-03	3.598568E-05
7.159928E+03	2.680973E-03	3.595802E-05
7.169928E+03	2.671449E-03	3.593180E-05
7.179928E+03	2.662941E-03	3.590732E-05
7.189928E+03	2.655581E-03	3.588655E-05
7.199928E+03	2.649394E-03	3.586999E-05
7.209928E+03	2.644310E-03	3.585679E-05
7.219928E+03	2.640393E-03	3.584796E-05
7.229928E+03	2.637539E-03	3.584216E-05
7.239928E+03	2.635788E-03	3.583996E-05
7.249928E+03	2.635056E-03	3.584028E-05
7.259927E+03	2.635255E-03	3.584189E-05
7.269927E+03	2.636372E-03	3.584463E-05
7.279927E+03	2.638390E-03	3.584822E-05
7.289927E+03	2.641179E-03	3.585082E-05
7.299927E+03	2.644680E-03	3.585159E-05
7.309927E+03	2.648920E-03	3.585081E-05
7.319927E+03	2.653764E-03	3.584657E-05
7.329927E+03	2.659199E-03	3.583857E-05
7.339927E+03	2.665172E-03	3.582601E-05
7.349927E+03	2.671631E-03	3.580808E-05
7.359926E+03	2.678483E-03	3.578343E-05
7.369926E+03	2.685717E-03	3.575178E-05
7.379926E+03	2.693324E-03	3.571294E-05
7.389926E+03	2.701171E-03	3.566503E-05
7.399926E+03	2.709289E-03	3.560837E-05
7.409926E+03	2.717589E-03	3.554170E-05
7.419926E+03	2.726063E-03	3.546483E-05
7.429926E+03	2.734618E-03	3.537651E-05
7.439926E+03	2.743293E-03	3.527720E-05
7.449926E+03	2.752038E-03	3.516622E-05
7.459925E+03	2.760767E-03	3.504243E-05
7.469925E+03	2.769516E-03	3.490632E-05
7.479925E+03	2.778199E-03	3.475682E-05
7.489925E+03	2.786769E-03	3.459339E-05
7.499925E+03	2.795184E-03	3.441559E-05
7.509925E+03	2.803352E-03	3.422241E-05
7.519925E+03	2.811232E-03	3.401353E-05
7.529925E+03	2.818780E-03	3.378860E-05
7.539925E+03	2.825957E-03	3.354740E-05
7.549925E+03	2.832676E-03	3.328920E-05
7.559924E+03	2.838944E-03	3.301441E-05
7.569924E+03	2.844680E-03	3.272246E-05
7.579924E+03	2.849847E-03	3.241338E-05
7.589924E+03	2.854412E-03	3.208730E-05
7.599924E+03	2.858391E-03	3.174492E-05
7.609924E+03	2.861707E-03	3.138600E-05
7.619924E+03	2.864335E-03	3.101092E-05
7.629924E+03	2.866250E-03	3.062014E-05
7.639924E+03	2.867480E-03	3.021472E-05
7.649924E+03	2.867958E-03	2.979481E-05
7.659923E+03	2.867669E-03	2.936116E-05
7.669923E+03	2.866647E-03	2.891512E-05
7.679923E+03	2.864835E-03	2.845712E-05
7.689923E+03	2.862277E-03	2.798874E-05
7.699923E+03	2.858919E-03	2.751064E-05
7.709923E+03	2.854813E-03	2.702457E-05
7.719923E+03	2.849961E-03	2.653192E-05
7.729923E+03	2.844370E-03	2.603415E-05
7.739923E+03	2.838053E-03	2.553289E-05
7.749923E+03	2.830973E-03	2.502940E-05
7.759922E+03	2.823245E-03	2.452639E-05
