#wls	flux	fluxerr
1.599984E+03	1.378381E-05	5.958156E-07
1.639984E+03	1.386767E-05	5.957943E-07
1.679983E+03	1.391165E-05	5.939424E-07
1.719983E+03	1.391565E-05	5.902843E-07
1.759982E+03	1.388736E-05	5.851765E-07
1.799982E+03	1.380533E-05	5.777471E-07
1.839982E+03	1.365954E-05	5.676272E-07
1.879981E+03	1.343273E-05	5.541622E-07
1.919981E+03	1.310446E-05	5.365912E-07
1.959980E+03	1.267690E-05	5.151019E-07
1.999980E+03	1.215808E-05	4.901186E-07
2.039980E+03	1.161396E-05	4.643764E-07
2.079979E+03	1.114518E-05	4.419007E-07
2.119979E+03	1.089634E-05	4.283088E-07
2.159978E+03	1.099527E-05	4.283597E-07
2.199978E+03	1.149432E-05	4.437069E-07
2.239978E+03	1.237615E-05	4.732479E-07
2.279977E+03	1.357003E-05	5.138667E-07
2.319977E+03	1.498019E-05	5.615983E-07
2.359976E+03	1.653298E-05	6.134317E-07
2.399976E+03	1.819067E-05	6.677813E-07
2.439976E+03	1.992103E-05	7.233142E-07
2.479975E+03	2.172796E-05	7.800432E-07
2.519975E+03	2.360362E-05	8.375526E-07
2.559974E+03	2.555407E-05	8.959264E-07
2.599974E+03	2.759963E-05	9.557266E-07
2.639974E+03	2.973361E-05	1.016553E-06
2.679973E+03	3.196609E-05	1.078580E-06
2.719973E+03	3.429714E-05	1.141625E-06
2.759972E+03	3.671434E-05	1.205093E-06
2.799972E+03	3.922522E-05	1.269053E-06
2.839972E+03	4.180834E-05	1.332631E-06
2.879971E+03	4.445475E-05	1.395385E-06
2.919971E+03	4.714228E-05	1.456483E-06
2.959970E+03	4.985435E-05	1.515299E-06
2.999970E+03	5.257144E-05	1.571159E-06
3.009970E+03	5.324473E-05	1.584454E-06
3.019970E+03	5.392304E-05	1.597700E-06
3.029970E+03	5.459520E-05	1.610565E-06
3.039970E+03	5.526165E-05	1.623064E-06
3.049970E+03	5.593630E-05	1.635605E-06
3.059969E+03	5.662272E-05	1.648288E-06
3.069969E+03	5.730830E-05	1.660742E-06
3.079969E+03	5.799129E-05	1.672916E-06
3.089969E+03	5.868142E-05	1.685090E-06
3.099969E+03	5.936597E-05	1.696896E-06
3.109969E+03	6.005486E-05	1.708619E-06
3.119969E+03	6.074669E-05	1.720216E-06
3.129969E+03	6.144035E-05	1.731654E-06
3.139969E+03	6.212313E-05	1.742576E-06
3.149969E+03	6.279381E-05	1.752949E-06
3.159968E+03	6.347419E-05	1.763386E-06
3.169968E+03	6.414018E-05	1.773215E-06
3.179968E+03	6.480234E-05	1.782731E-06
3.189968E+03	6.545960E-05	1.791906E-06
3.199968E+03	6.611112E-05	1.800719E-06
3.209968E+03	6.674413E-05	1.808827E-06
3.219968E+03	6.738128E-05	1.816845E-06
3.229968E+03	6.800998E-05	1.824435E-06
3.239968E+03	6.861760E-05	1.831262E-06
3.249968E+03	6.922702E-05	1.837942E-06
3.259967E+03	6.982563E-05	1.844142E-06
3.269967E+03	7.041269E-05	1.849845E-06
3.279967E+03	7.098759E-05	1.855040E-06
3.289967E+03	7.156139E-05	1.860019E-06
3.299967E+03	7.212167E-05	1.864462E-06
3.309967E+03	7.266781E-05	1.868357E-06
3.319967E+03	7.321096E-05	1.871996E-06
3.329967E+03	7.373873E-05	1.875065E-06
3.339967E+03	7.425054E-05	1.877555E-06
3.349967E+03	7.475757E-05	1.879754E-06
3.359966E+03	7.525928E-05	1.881650E-06
3.369966E+03	7.575509E-05	1.883232E-06
3.379966E+03	7.623266E-05	1.884196E-06
3.389966E+03	7.670318E-05	1.884826E-06
3.399966E+03	7.716605E-05	1.885110E-06
3.409966E+03	7.762069E-05	1.885036E-06
3.419966E+03	7.806653E-05	1.884596E-06
3.429966E+03	7.850296E-05	1.883777E-06
3.439966E+03	7.892951E-05	1.882573E-06
3.449966E+03	7.934562E-05	1.880976E-06
3.459965E+03	7.976199E-05	1.879242E-06
3.469965E+03	8.016681E-05	1.877094E-06
3.479965E+03	8.055962E-05	1.874528E-06
3.489965E+03	8.095103E-05	1.871793E-06
3.499965E+03	8.134052E-05	1.868880E-06
3.509965E+03	8.171664E-05	1.865527E-06
3.519965E+03	8.209008E-05	1.861983E-06
3.529965E+03	8.246044E-05	1.858242E-06
3.539965E+03	8.282759E-05	1.854301E-06
3.549965E+03	8.319145E-05	1.850161E-06
3.559964E+03	8.355233E-05	1.845831E-06
3.569964E+03	8.391083E-05	1.841326E-06
3.579964E+03	8.426820E-05	1.836673E-06
3.589964E+03	8.463760E-05	1.832160E-06
3.599964E+03	8.501467E-05	1.827688E-06
3.609964E+03	8.542009E-05	1.823696E-06
3.619964E+03	8.586812E-05	1.820473E-06
3.629964E+03	8.636553E-05	1.818144E-06
3.639964E+03	8.694015E-05	1.817269E-06
3.649964E+03	8.761061E-05	1.818201E-06
3.659963E+03	8.839678E-05	1.821306E-06
3.669963E+03	8.931909E-05	1.826952E-06
3.679963E+03	9.039941E-05	1.835523E-06
3.689963E+03	9.167026E-05	1.847602E-06
3.699963E+03	9.314707E-05	1.863415E-06
3.709963E+03	9.486582E-05	1.883584E-06
3.719963E+03	9.685566E-05	1.908575E-06
3.729963E+03	9.913907E-05	1.938705E-06
3.739963E+03	1.017605E-04	1.974706E-06
3.749963E+03	1.047592E-04	2.017179E-06
3.759962E+03	1.081785E-04	2.066786E-06
3.769962E+03	1.120771E-04	2.124448E-06
3.779962E+03	1.164999E-04	2.190791E-06
3.789962E+03	1.215076E-04	2.266716E-06
3.799962E+03	1.271795E-04	2.353425E-06
3.809962E+03	1.335926E-04	2.452033E-06
3.819962E+03	1.408216E-04	2.563564E-06
3.829962E+03	1.489846E-04	2.689786E-06
3.839962E+03	1.581631E-04	2.831735E-06
3.849962E+03	1.684962E-04	2.991424E-06
3.859961E+03	1.800951E-04	3.170295E-06
3.869961E+03	1.931049E-04	3.370307E-06
3.879961E+03	2.076474E-04	3.592938E-06
3.889961E+03	2.238740E-04	3.840092E-06
3.899961E+03	2.419167E-04	4.113261E-06
3.909961E+03	2.618938E-04	4.413624E-06
3.919961E+03	2.838977E-04	4.741860E-06
3.929961E+03	3.079968E-04	5.098192E-06
3.939961E+03	3.341468E-04	5.480961E-06
3.949961E+03	3.622200E-04	5.887177E-06
3.959960E+03	3.920066E-04	6.312608E-06
3.969960E+03	4.231917E-04	6.751474E-06
3.979960E+03	4.554018E-04	7.197256E-06
3.989960E+03	4.882081E-04	7.642802E-06
3.999960E+03	5.211179E-04	8.080220E-06
4.009960E+03	5.535646E-04	8.500786E-06
4.019960E+03	5.849241E-04	8.895239E-06
4.029960E+03	6.144179E-04	9.252364E-06
4.039960E+03	6.410885E-04	9.558742E-06
4.049960E+03	6.639422E-04	9.800988E-06
4.059959E+03	6.819665E-04	9.966033E-06
4.069959E+03	6.941280E-04	1.004109E-05
4.079959E+03	6.997334E-04	1.001887E-05
4.089959E+03	6.985146E-04	9.898482E-06
4.099959E+03	6.907197E-04	9.686439E-06
4.109959E+03	6.770746E-04	9.395721E-06
4.119959E+03	6.589411E-04	9.047605E-06
4.129959E+03	6.378784E-04	8.665238E-06
4.139959E+03	6.156804E-04	8.274003E-06
4.149959E+03	5.939041E-04	7.895082E-06
4.159958E+03	5.739359E-04	7.546510E-06
4.169958E+03	5.568684E-04	7.241698E-06
4.179958E+03	5.434540E-04	6.989055E-06
4.189958E+03	5.342068E-04	6.793542E-06
4.199958E+03	5.294896E-04	6.657925E-06
4.209958E+03	5.295414E-04	6.583247E-06
4.219958E+03	5.346209E-04	6.570667E-06
4.229958E+03	5.449882E-04	6.621236E-06
4.239958E+03	5.610752E-04	6.737943E-06
4.249958E+03	5.833969E-04	6.924548E-06
4.259957E+03	6.126931E-04	7.187186E-06
4.269957E+03	6.498233E-04	7.533008E-06
4.279957E+03	6.957522E-04	7.969932E-06
4.289957E+03	7.515095E-04	8.506136E-06
4.299957E+03	8.179805E-04	9.147681E-06
4.309957E+03	8.957659E-04	9.897070E-06
4.319957E+03	9.849522E-04	1.075095E-05
4.329957E+03	1.084873E-03	1.169789E-05
4.339957E+03	1.193683E-03	1.271434E-05
4.349957E+03	1.307932E-03	1.376093E-05
4.359956E+03	1.422228E-03	1.477996E-05
4.369956E+03	1.529032E-03	1.569455E-05
4.379956E+03	1.619439E-03	1.641777E-05
4.389956E+03	1.685694E-03	1.687865E-05
4.399956E+03	1.723801E-03	1.704711E-05
4.409956E+03	1.734971E-03	1.694569E-05
4.419956E+03	1.724018E-03	1.663085E-05
4.429956E+03	1.697484E-03	1.617301E-05
4.439956E+03	1.662031E-03	1.564035E-05
4.449956E+03	1.624057E-03	1.509546E-05
4.459955E+03	1.589101E-03	1.458995E-05
4.469955E+03	1.561838E-03	1.416511E-05
4.479955E+03	1.546304E-03	1.385450E-05
4.489955E+03	1.545944E-03	1.368474E-05
4.499955E+03	1.563787E-03	1.367756E-05
4.509955E+03	1.602431E-03	1.384987E-05
4.519955E+03	1.664126E-03	1.421483E-05
4.529955E+03	1.750613E-03	1.478070E-05
4.539955E+03	1.863237E-03	1.555211E-05
4.549955E+03	2.002442E-03	1.652613E-05
4.559954E+03	2.167645E-03	1.769176E-05
4.569954E+03	2.357113E-03	1.902933E-05
4.579954E+03	2.567609E-03	2.050824E-05
4.589954E+03	2.794552E-03	2.208880E-05
4.599954E+03	3.032056E-03	2.372297E-05
4.609954E+03	3.273232E-03	2.535713E-05
4.619954E+03	3.510855E-03	2.693735E-05
4.629954E+03	3.736975E-03	2.840637E-05
4.639954E+03	3.943673E-03	2.970930E-05
4.649954E+03	4.123195E-03	3.079421E-05
4.659953E+03	4.268298E-03	3.161406E-05
4.669953E+03	4.372819E-03	3.213075E-05
4.679953E+03	4.432236E-03	3.231885E-05
4.689953E+03	4.444300E-03	3.216960E-05
4.699953E+03	4.409627E-03	3.169456E-05
4.709953E+03	4.331650E-03	3.092450E-05
4.719953E+03	4.216275E-03	2.990648E-05
4.729953E+03	4.071751E-03	2.870246E-05
4.739953E+03	3.907983E-03	2.738423E-05
4.749953E+03	3.736003E-03	2.602958E-05
4.759952E+03	3.567523E-03	2.471916E-05
4.769952E+03	3.413192E-03	2.352464E-05
4.779952E+03	3.281605E-03	2.250219E-05
4.789952E+03	3.178717E-03	2.168904E-05
4.799952E+03	3.108401E-03	2.110775E-05
4.809952E+03	3.072791E-03	2.076888E-05
4.819952E+03	3.072573E-03	2.067327E-05
4.829952E+03	3.107695E-03	2.081690E-05
4.839952E+03	3.177751E-03	2.119361E-05
4.849952E+03	3.282146E-03	2.179612E-05
4.859951E+03	3.420191E-03	2.261675E-05
4.869951E+03	3.590825E-03	2.364543E-05
4.879951E+03	3.792511E-03	2.486913E-05
4.889951E+03	4.022434E-03	2.626661E-05
4.899951E+03	4.275269E-03	2.780060E-05
4.909951E+03	4.542099E-03	2.941103E-05
4.919951E+03	4.810494E-03	3.101611E-05
4.929951E+03	5.065845E-03	3.252133E-05
4.939951E+03	5.292978E-03	3.383016E-05
4.949951E+03	5.478382E-03	3.485835E-05
4.959950E+03	5.612411E-03	3.554772E-05
4.969950E+03	5.691250E-03	3.587814E-05
4.979950E+03	5.715911E-03	3.586034E-05
4.989950E+03	5.689192E-03	3.551634E-05
4.999950E+03	5.614052E-03	3.486902E-05
5.009950E+03	5.492848E-03	3.393745E-05
5.019950E+03	5.327556E-03	3.273832E-05
5.029950E+03	5.120482E-03	3.129034E-05
5.039950E+03	4.875607E-03	2.962237E-05
5.049950E+03	4.600617E-03	2.778534E-05
5.059949E+03	4.307189E-03	2.585328E-05
5.069949E+03	4.008996E-03	2.391058E-05
5.079949E+03	3.719625E-03	2.203912E-05
5.089949E+03	3.451358E-03	2.031099E-05
5.099949E+03	3.213984E-03	1.878164E-05
5.109949E+03	3.014466E-03	1.748841E-05
5.119949E+03	2.857259E-03	1.645277E-05
5.129949E+03	2.744306E-03	1.568084E-05
5.139949E+03	2.675014E-03	1.516379E-05
5.149949E+03	2.646335E-03	1.487880E-05
5.159948E+03	2.653675E-03	1.479480E-05
5.169948E+03	2.692038E-03	1.487912E-05
5.179948E+03	2.756249E-03	1.509897E-05
5.189948E+03	2.840975E-03	1.542153E-05
5.199948E+03	2.940954E-03	1.581541E-05
5.209948E+03	3.051355E-03	1.625251E-05
5.219948E+03	3.167698E-03	1.670756E-05
5.229948E+03	3.285906E-03	1.715839E-05
5.239948E+03	3.402624E-03	1.758742E-05
5.249948E+03	3.515317E-03	1.798208E-05
5.259947E+03	3.622541E-03	1.833592E-05
5.269947E+03	3.724123E-03	1.864927E-05
5.279947E+03	3.820978E-03	1.892795E-05
5.289947E+03	3.914420E-03	1.917964E-05
5.299947E+03	4.005732E-03	1.941164E-05
5.309947E+03	4.095870E-03	1.962954E-05
5.319947E+03	4.185362E-03	1.983674E-05
5.329947E+03	4.273967E-03	2.003305E-05
5.339947E+03	4.360969E-03	2.021620E-05
5.349947E+03	4.445295E-03	2.038255E-05
5.359946E+03	4.525825E-03	2.052854E-05
5.369946E+03	4.601040E-03	2.064912E-05
5.379946E+03	4.668977E-03	2.073764E-05
5.389946E+03	4.726607E-03	2.078314E-05
5.399946E+03	4.770070E-03	2.077156E-05
5.409946E+03	4.794629E-03	2.068566E-05
5.419946E+03	4.795015E-03	2.050648E-05
5.429946E+03	4.767832E-03	2.022350E-05
5.439946E+03	4.714547E-03	1.984668E-05
5.449946E+03	4.643350E-03	1.941341E-05
5.459945E+03	4.567712E-03	1.898161E-05
5.469945E+03	4.504197E-03	1.862033E-05
5.479945E+03	4.470530E-03	1.840204E-05
5.489945E+03	4.481255E-03	1.838537E-05
5.499945E+03	4.542485E-03	1.859458E-05
5.509945E+03	4.649270E-03	1.900966E-05
5.519945E+03	4.788113E-03	1.957668E-05
5.529945E+03	4.940995E-03	2.022305E-05
5.539945E+03	5.089107E-03	2.087276E-05
5.549945E+03	5.215351E-03	2.145604E-05
5.559944E+03	5.307696E-03	2.192259E-05
5.569944E+03	5.362175E-03	2.225397E-05
5.579944E+03	5.382025E-03	2.246061E-05
5.589944E+03	5.375327E-03	2.257281E-05
5.599944E+03	5.352365E-03	2.263051E-05
5.609944E+03	5.323990E-03	2.267691E-05
5.619944E+03	5.298997E-03	2.274765E-05
5.629944E+03	5.282710E-03	2.286459E-05
5.639944E+03	5.276328E-03	2.303245E-05
5.649944E+03	5.275554E-03	2.323207E-05
5.659943E+03	5.270364E-03	2.341831E-05
5.669943E+03	5.246596E-03	2.352591E-05
5.679943E+03	5.189409E-03	2.348423E-05
5.689943E+03	5.085868E-03	2.322883E-05
5.699943E+03	4.927701E-03	2.271461E-05
5.709943E+03	4.713703E-03	2.192798E-05
5.719943E+03	4.451041E-03	2.089458E-05
5.729943E+03	4.153763E-03	1.967410E-05
5.739943E+03	3.840591E-03	1.835118E-05
5.749943E+03	3.532257E-03	1.702358E-05
5.759942E+03	3.247815E-03	1.578451E-05
5.769942E+03	3.002550E-03	1.471194E-05
5.779942E+03	2.807614E-03	1.386586E-05
5.789942E+03	2.670467E-03	1.328950E-05
5.799942E+03	2.595731E-03	1.301272E-05
5.809942E+03	2.586353E-03	1.305726E-05
5.819942E+03	2.645025E-03	1.344353E-05
5.829942E+03	2.774693E-03	1.419305E-05
5.839942E+03	2.977466E-03	1.532283E-05
5.849942E+03	3.254093E-03	1.684239E-05
5.859941E+03	3.602676E-03	1.874682E-05
5.869941E+03	4.016393E-03	2.100446E-05
5.879941E+03	4.481400E-03	2.354525E-05
5.889941E+03	4.975751E-03	2.625439E-05
5.899941E+03	5.470178E-03	2.897584E-05
5.909941E+03	5.930667E-03	3.152574E-05
5.919941E+03	6.323941E-03	3.372184E-05
5.929941E+03	6.624001E-03	3.541922E-05
5.939941E+03	6.815925E-03	3.653181E-05
5.949941E+03	6.896874E-03	3.703891E-05
5.959940E+03	6.875113E-03	3.698083E-05
5.969940E+03	6.767347E-03	3.644492E-05
5.979940E+03	6.594266E-03	3.554164E-05
5.989940E+03	6.377406E-03	3.438730E-05
5.999940E+03	6.136791E-03	3.309094E-05
6.009940E+03	5.889747E-03	3.174747E-05
6.019940E+03	5.650210E-03	3.043358E-05
6.029940E+03	5.428735E-03	2.920753E-05
6.039940E+03	5.232905E-03	2.811121E-05
6.049940E+03	5.067849E-03	2.717279E-05
6.059939E+03	4.936646E-03	2.640894E-05
6.069939E+03	4.840970E-03	2.582830E-05
6.079939E+03	4.781323E-03	2.543274E-05
6.089939E+03	4.757118E-03	2.521796E-05
6.099939E+03	4.766451E-03	2.517233E-05
6.109939E+03	4.805735E-03	2.527517E-05
6.119939E+03	4.869443E-03	2.549563E-05
6.129939E+03	4.949648E-03	2.579068E-05
6.139939E+03	5.035739E-03	2.610398E-05
6.149939E+03	5.115846E-03	2.637383E-05
6.159938E+03	5.179369E-03	2.654646E-05
6.169938E+03	5.219488E-03	2.658880E-05
6.179938E+03	5.233663E-03	2.649053E-05
6.189938E+03	5.224095E-03	2.626572E-05
6.199938E+03	5.197453E-03	2.595071E-05
6.209938E+03	5.162580E-03	2.559182E-05
6.219938E+03	5.127784E-03	2.523158E-05
6.229938E+03	5.098695E-03	2.489827E-05
6.239938E+03	5.078321E-03	2.460662E-05
6.249938E+03	5.067676E-03	2.436138E-05
6.259937E+03	5.065623E-03	2.415687E-05
6.269937E+03	5.069849E-03	2.398208E-05
6.279937E+03	5.077290E-03	2.382287E-05
6.289937E+03	5.084392E-03	2.366338E-05
6.299937E+03	5.087439E-03	2.348758E-05
6.309937E+03	5.081990E-03	2.327674E-05
6.319937E+03	5.063148E-03	2.301072E-05
6.329937E+03	5.025606E-03	2.266820E-05
6.339937E+03	4.964572E-03	2.223078E-05
6.349937E+03	4.876064E-03	2.168407E-05
6.359936E+03	4.758092E-03	2.102267E-05
6.369936E+03	4.611799E-03	2.025470E-05
6.379936E+03	4.441979E-03	1.940360E-05
6.389936E+03	4.256594E-03	1.850554E-05
6.399936E+03	4.066596E-03	1.760847E-05
6.409936E+03	3.884874E-03	1.676755E-05
6.419936E+03	3.724243E-03	1.603676E-05
6.429936E+03	3.595717E-03	1.546201E-05
6.439936E+03	3.507973E-03	1.507940E-05
6.449936E+03	3.468172E-03	1.491931E-05
6.459935E+03	3.482366E-03	1.500858E-05
6.469935E+03	3.556378E-03	1.537473E-05
6.479935E+03	3.696444E-03	1.604911E-05
6.489935E+03	3.909799E-03	1.706936E-05
6.499935E+03	4.204568E-03	1.847925E-05
6.509935E+03	4.589675E-03	2.032922E-05
6.519935E+03	5.073823E-03	2.267221E-05
6.529935E+03	5.662151E-03	2.554882E-05
6.539935E+03	6.350294E-03	2.895945E-05
6.549935E+03	7.119183E-03	3.283788E-05
6.559934E+03	7.933811E-03	3.704087E-05
6.569934E+03	8.745481E-03	4.135318E-05
6.579934E+03	9.498361E-03	4.551317E-05
6.589934E+03	1.013825E-02	4.925150E-05
6.599934E+03	1.062135E-02	5.233328E-05
6.609934E+03	1.091881E-02	5.458323E-05
6.619934E+03	1.102124E-02	5.591352E-05
6.629934E+03	1.093722E-02	5.632311E-05
6.639934E+03	1.069029E-02	5.588942E-05
6.649934E+03	1.031347E-02	5.474577E-05
6.659933E+03	9.844272E-03	5.305917E-05
6.669933E+03	9.319125E-03	5.100232E-05
6.679933E+03	8.769921E-03	4.873479E-05
6.689933E+03	8.222992E-03	4.639569E-05
6.699933E+03	7.697597E-03	4.409303E-05
6.709933E+03	7.206643E-03	4.190496E-05
6.719933E+03	6.758025E-03	3.988505E-05
6.729933E+03	6.355273E-03	3.806390E-05
6.739933E+03	5.999166E-03	3.645705E-05
6.749933E+03	5.688249E-03	3.506680E-05
6.759932E+03	5.419896E-03	3.388791E-05
6.769932E+03	5.190739E-03	3.290963E-05
6.779932E+03	4.997064E-03	3.211795E-05
6.789932E+03	4.835039E-03	3.149685E-05
6.799932E+03	4.701066E-03	3.103054E-05
6.809932E+03	4.591585E-03	3.070226E-05
6.819932E+03	4.503377E-03	3.049630E-05
6.829932E+03	4.433711E-03	3.039916E-05
6.839932E+03	4.380169E-03	3.039859E-05
6.849932E+03	4.340895E-03	3.048539E-05
6.859931E+03	4.314409E-03	3.065238E-05
6.869931E+03	4.299668E-03	3.089500E-05
6.879931E+03	4.295634E-03	3.120832E-05
6.889931E+03	4.301505E-03	3.158874E-05
6.899931E+03	4.316250E-03	3.203070E-05
6.909931E+03	4.338956E-03	3.252911E-05
6.919931E+03	4.368344E-03	3.307577E-05
6.929931E+03	4.403361E-03	3.366380E-05
6.939931E+03	4.442659E-03	3.428368E-05
6.949931E+03	4.485212E-03	3.492797E-05
6.959930E+03	4.529958E-03	3.558864E-05
6.969930E+03	4.575782E-03	3.625691E-05
6.979930E+03	4.621789E-03	3.692546E-05
6.989930E+03	4.667082E-03	3.758670E-05
6.999930E+03	4.710765E-03	3.823284E-05
7.009930E+03	4.752121E-03	3.885733E-05
7.019930E+03	4.790402E-03	3.945324E-05
7.029930E+03	4.825098E-03	4.001544E-05
7.039930E+03	4.855725E-03	4.053896E-05
7.049930E+03	4.881921E-03	4.101976E-05
7.059929E+03	4.903591E-03	4.145607E-05
7.069929E+03	4.920534E-03	4.184524E-05
7.079929E+03	4.932627E-03	4.218530E-05
7.089929E+03	4.939962E-03	4.247616E-05
7.099929E+03	4.942614E-03	4.271767E-05
7.109929E+03	4.940801E-03	4.291097E-05
7.119929E+03	4.934848E-03	4.305828E-05
7.129929E+03	4.924976E-03	4.316096E-05
7.139929E+03	4.911483E-03	4.322118E-05
7.149929E+03	4.894668E-03	4.324120E-05
7.159928E+03	4.874836E-03	4.322339E-05
7.169928E+03	4.852286E-03	4.317019E-05
7.179928E+03	4.827311E-03	4.308405E-05
7.189928E+03	4.800134E-03	4.296686E-05
7.199928E+03	4.771088E-03	4.282157E-05
7.209928E+03	4.740371E-03	4.264995E-05
7.219928E+03	4.708281E-03	4.245474E-05
7.229928E+03	4.674984E-03	4.223752E-05
7.239928E+03	4.640745E-03	4.200082E-05
7.249928E+03	4.605690E-03	4.174592E-05
7.259927E+03	4.570051E-03	4.147511E-05
7.269927E+03	4.533861E-03	4.118886E-05
7.279927E+03	4.497433E-03	4.089025E-05
7.289927E+03	4.460712E-03	4.057898E-05
7.299927E+03	4.423920E-03	4.025730E-05
7.309927E+03	4.387150E-03	3.992632E-05
7.319927E+03	4.350368E-03	3.958596E-05
7.329927E+03	4.313815E-03	3.923865E-05
7.339927E+03	4.277437E-03	3.888416E-05
7.349927E+03	4.241284E-03	3.852320E-05
7.359926E+03	4.205456E-03	3.815691E-05
7.369926E+03	4.169989E-03	3.778589E-05
7.379926E+03	4.134910E-03	3.741062E-05
7.389926E+03	4.100244E-03	3.703157E-05
7.399926E+03	4.066011E-03	3.664918E-05
7.409926E+03	4.032279E-03	3.626428E-05
7.419926E+03	3.999005E-03	3.587675E-05
7.429926E+03	3.966199E-03	3.548689E-05
7.439926E+03	3.933919E-03	3.509546E-05
7.449926E+03	3.902114E-03	3.470225E-05
7.459925E+03	3.870894E-03	3.430844E-05
7.469925E+03	3.840153E-03	3.391333E-05
7.479925E+03	3.809942E-03	3.351760E-05
7.489925E+03	3.780258E-03	3.312144E-05
7.499925E+03	3.751101E-03	3.272506E-05
7.509925E+03	3.722467E-03	3.232866E-05
7.519925E+03	3.694351E-03	3.193240E-05
7.529925E+03	3.666752E-03	3.153652E-05
7.539925E+03	3.639615E-03	3.114072E-05
7.549925E+03	3.612987E-03	3.074567E-05
7.559924E+03	3.586869E-03	3.035157E-05
7.569924E+03	3.561204E-03	2.995819E-05
7.579924E+03	3.536043E-03	2.956617E-05
7.589924E+03	3.511385E-03	2.917573E-05
7.599924E+03	3.487178E-03	2.878667E-05
7.609924E+03	3.463472E-03	2.839965E-05
7.619924E+03	3.440219E-03	2.801450E-05
7.629924E+03	3.417471E-03	2.763191E-05
7.639924E+03	3.395228E-03	2.725211E-05
7.649924E+03	3.373443E-03	2.687498E-05
7.659923E+03	3.352171E-03	2.650123E-05
7.669923E+03	3.331365E-03	2.613075E-05
7.679923E+03	3.311129E-03	2.576463E-05
7.689923E+03	3.291369E-03	2.540242E-05
7.699923E+03	3.272094E-03	2.504447E-05
7.709923E+03	3.253404E-03	2.469187E-05
7.719923E+03	3.235258E-03	2.434461E-05
7.729923E+03	3.217665E-03	2.400307E-05
7.739923E+03	3.200632E-03	2.366763E-05
7.749923E+03	3.184166E-03	2.333869E-05
7.759922E+03	3.168321E-03	2.301703E-05
