#wls	flux	fluxerr
1.599984E+03	7.574129E-06	6.475673E-07
1.639984E+03	7.636680E-06	6.489335E-07
1.679983E+03	7.679337E-06	6.484637E-07
1.719983E+03	7.699802E-06	6.459939E-07
1.759982E+03	7.701132E-06	6.418129E-07
1.799982E+03	7.672676E-06	6.350695E-07
1.839982E+03	7.610229E-06	6.254688E-07
1.879981E+03	7.499896E-06	6.119372E-07
1.919981E+03	7.336494E-06	5.941432E-07
1.959980E+03	7.113804E-06	5.716890E-07
1.999980E+03	6.839036E-06	5.452673E-07
2.039980E+03	6.547916E-06	5.178124E-07
2.079979E+03	6.299654E-06	4.940098E-07
2.119979E+03	6.175637E-06	4.801109E-07
2.159978E+03	6.244388E-06	4.811475E-07
2.199978E+03	6.543497E-06	4.995868E-07
2.239978E+03	7.060813E-06	5.340088E-07
2.279977E+03	7.755929E-06	5.808933E-07
2.319977E+03	8.576616E-06	6.359444E-07
2.359976E+03	9.480104E-06	6.957038E-07
2.399976E+03	1.043994E-05	7.580189E-07
2.439976E+03	1.143859E-05	8.214547E-07
2.479975E+03	1.247156E-05	8.855519E-07
2.519975E+03	1.353445E-05	9.498688E-07
2.559974E+03	1.463214E-05	1.014619E-06
2.599974E+03	1.575872E-05	1.079257E-06
2.639974E+03	1.691467E-05	1.143686E-06
2.679973E+03	1.809870E-05	1.207686E-06
2.719973E+03	1.930076E-05	1.270464E-06
2.759972E+03	2.051437E-05	1.331491E-06
2.799972E+03	2.173087E-05	1.390122E-06
2.839972E+03	2.293223E-05	1.445153E-06
2.879971E+03	2.410566E-05	1.495775E-06
2.919971E+03	2.524137E-05	1.541415E-06
2.959970E+03	2.631775E-05	1.580831E-06
2.999970E+03	2.732129E-05	1.613353E-06
3.009970E+03	2.756253E-05	1.620529E-06
3.019970E+03	2.779622E-05	1.627111E-06
3.029970E+03	2.802619E-05	1.633328E-06
3.039970E+03	2.824868E-05	1.638965E-06
3.049970E+03	2.846948E-05	1.644360E-06
3.059969E+03	2.868626E-05	1.649380E-06
3.069969E+03	2.890236E-05	1.654219E-06
3.079969E+03	2.911705E-05	1.658836E-06
3.089969E+03	2.932561E-05	1.662964E-06
3.099969E+03	2.953563E-05	1.667034E-06
3.109969E+03	2.973838E-05	1.670555E-06
3.119969E+03	2.993337E-05	1.673505E-06
3.129969E+03	3.012836E-05	1.676321E-06
3.139969E+03	3.031478E-05	1.678529E-06
3.149969E+03	3.049639E-05	1.680342E-06
3.159968E+03	3.067290E-05	1.681747E-06
3.169968E+03	3.084410E-05	1.682737E-06
3.179968E+03	3.100980E-05	1.683305E-06
3.189968E+03	3.116986E-05	1.683448E-06
3.199968E+03	3.132015E-05	1.682949E-06
3.209968E+03	3.146875E-05	1.682247E-06
3.219968E+03	3.161162E-05	1.681128E-06
3.229968E+03	3.174882E-05	1.679600E-06
3.239968E+03	3.188046E-05	1.677673E-06
3.249968E+03	3.200670E-05	1.675361E-06
3.259967E+03	3.212778E-05	1.672679E-06
3.269967E+03	3.224394E-05	1.669644E-06
3.279967E+03	3.235943E-05	1.666481E-06
3.289967E+03	3.247066E-05	1.663003E-06
3.299967E+03	3.257804E-05	1.659237E-06
3.309967E+03	3.268592E-05	1.655406E-06
3.319967E+03	3.279091E-05	1.651338E-06
3.329967E+03	3.289359E-05	1.647065E-06
3.339967E+03	3.299840E-05	1.642809E-06
3.349967E+03	3.310218E-05	1.638414E-06
3.359966E+03	3.320948E-05	1.634102E-06
3.369966E+03	3.331728E-05	1.629724E-06
3.379966E+03	3.343020E-05	1.625504E-06
3.389966E+03	3.354542E-05	1.621300E-06
3.399966E+03	3.367136E-05	1.617515E-06
3.409966E+03	3.380163E-05	1.613835E-06
3.419966E+03	3.393742E-05	1.610312E-06
3.429966E+03	3.408728E-05	1.607344E-06
3.439966E+03	3.424519E-05	1.604637E-06
3.449966E+03	3.441983E-05	1.602587E-06
3.459965E+03	3.460548E-05	1.600916E-06
3.469965E+03	3.480736E-05	1.599852E-06
3.479965E+03	3.502724E-05	1.599462E-06
3.489965E+03	3.527052E-05	1.599975E-06
3.499965E+03	3.553212E-05	1.601140E-06
3.509965E+03	3.582130E-05	1.603355E-06
3.519965E+03	3.613684E-05	1.606541E-06
3.529965E+03	3.648128E-05	1.610785E-06
3.539965E+03	3.686082E-05	1.616332E-06
3.549965E+03	3.727488E-05	1.623126E-06
3.559964E+03	3.773012E-05	1.631422E-06
3.569964E+03	3.822640E-05	1.641175E-06
3.579964E+03	3.876737E-05	1.652503E-06
3.589964E+03	3.936050E-05	1.665681E-06
3.599964E+03	4.001003E-05	1.680838E-06
3.609964E+03	4.071669E-05	1.697950E-06
3.619964E+03	4.149228E-05	1.717454E-06
3.629964E+03	4.233456E-05	1.739192E-06
3.639964E+03	4.325258E-05	1.763470E-06
3.649964E+03	4.425224E-05	1.790456E-06
3.659963E+03	4.533999E-05	1.820330E-06
3.669963E+03	4.652284E-05	1.853290E-06
3.679963E+03	4.780846E-05	1.889547E-06
3.689963E+03	4.920519E-05	1.929332E-06
3.699963E+03	5.072615E-05	1.973047E-06
3.709963E+03	5.237324E-05	2.020649E-06
3.719963E+03	5.416534E-05	2.072741E-06
3.729963E+03	5.611437E-05	2.129634E-06
3.739963E+03	5.822883E-05	2.191500E-06
3.749963E+03	6.052682E-05	2.258855E-06
3.759962E+03	6.301870E-05	2.331906E-06
3.769962E+03	6.572487E-05	2.411217E-06
3.779962E+03	6.865749E-05	2.497023E-06
3.789962E+03	7.183926E-05	2.589925E-06
3.799962E+03	7.528914E-05	2.690362E-06
3.809962E+03	7.902684E-05	2.798774E-06
3.819962E+03	8.307264E-05	2.915595E-06
3.829962E+03	8.744698E-05	3.041241E-06
3.839962E+03	9.217035E-05	3.176100E-06
3.849962E+03	9.726848E-05	3.320717E-06
3.859961E+03	1.027472E-04	3.474927E-06
3.869961E+03	1.086354E-04	3.639331E-06
3.879961E+03	1.149319E-04	3.813501E-06
3.889961E+03	1.216661E-04	3.998007E-06
3.899961E+03	1.288180E-04	4.191778E-06
3.909961E+03	1.364047E-04	4.394963E-06
3.919961E+03	1.443861E-04	4.605871E-06
3.929961E+03	1.527596E-04	4.824043E-06
3.939961E+03	1.614580E-04	5.047001E-06
3.949961E+03	1.704522E-04	5.273542E-06
3.959960E+03	1.796523E-04	5.500629E-06
3.969960E+03	1.889915E-04	5.726052E-06
3.979960E+03	1.983376E-04	5.945724E-06
3.989960E+03	2.076079E-04	6.157190E-06
3.999960E+03	2.166665E-04	6.356555E-06
4.009960E+03	2.253795E-04	6.540144E-06
4.019960E+03	2.335952E-04	6.703949E-06
4.029960E+03	2.411953E-04	6.845110E-06
4.039960E+03	2.480299E-04	6.960023E-06
4.049960E+03	2.539707E-04	7.045878E-06
4.059959E+03	2.589083E-04	7.100546E-06
4.069959E+03	2.627621E-04	7.122820E-06
4.079959E+03	2.655037E-04	7.112987E-06
4.089959E+03	2.671285E-04	7.072002E-06
4.099959E+03	2.676887E-04	7.002307E-06
4.109959E+03	2.673439E-04	6.909045E-06
4.119959E+03	2.662366E-04	6.796733E-06
4.129959E+03	2.646173E-04	6.672410E-06
4.139959E+03	2.627359E-04	6.542798E-06
4.149959E+03	2.608752E-04	6.415107E-06
4.159958E+03	2.593347E-04	6.296600E-06
4.169958E+03	2.583866E-04	6.193517E-06
4.179958E+03	2.583003E-04	6.111699E-06
4.189958E+03	2.593376E-04	6.056476E-06
4.199958E+03	2.617103E-04	6.031719E-06
4.209958E+03	2.656545E-04	6.041599E-06
4.219958E+03	2.713724E-04	6.089254E-06
4.229958E+03	2.790352E-04	6.176903E-06
4.239958E+03	2.888461E-04	6.307284E-06
4.249958E+03	3.009571E-04	6.481806E-06
4.259957E+03	3.155470E-04	6.702297E-06
4.269957E+03	3.327370E-04	6.969195E-06
4.279957E+03	3.526167E-04	7.282181E-06
4.289957E+03	3.751980E-04	7.639291E-06
4.299957E+03	4.004384E-04	8.037495E-06
4.309957E+03	4.281196E-04	8.470386E-06
4.319957E+03	4.579050E-04	8.929546E-06
4.329957E+03	4.892569E-04	9.403126E-06
4.339957E+03	5.214261E-04	9.875919E-06
4.349957E+03	5.534068E-04	1.032880E-05
4.359956E+03	5.840466E-04	1.074108E-05
4.369956E+03	6.119828E-04	1.108954E-05
4.379956E+03	6.357171E-04	1.134995E-05
4.389956E+03	6.537680E-04	1.149997E-05
4.399956E+03	6.657975E-04	1.153851E-05
4.409956E+03	6.725680E-04	1.148352E-05
4.419956E+03	6.751832E-04	1.135782E-05
4.429956E+03	6.747915E-04	1.118371E-05
4.439956E+03	6.727161E-04	1.098516E-05
4.449956E+03	6.701641E-04	1.078294E-05
4.459955E+03	6.683874E-04	1.059731E-05
4.469955E+03	6.685075E-04	1.044536E-05
4.479955E+03	6.715749E-04	1.034208E-05
4.489955E+03	6.785263E-04	1.029990E-05
4.499955E+03	6.902305E-04	1.032950E-05
4.509955E+03	7.074231E-04	1.043901E-05
4.519955E+03	7.306640E-04	1.063357E-05
4.529955E+03	7.604063E-04	1.091657E-05
4.539955E+03	7.968228E-04	1.128732E-05
4.549955E+03	8.398035E-04	1.174131E-05
4.559954E+03	8.889498E-04	1.227042E-05
4.569954E+03	9.434684E-04	1.286171E-05
4.579954E+03	1.002254E-03	1.349885E-05
4.589954E+03	1.063846E-03	1.416175E-05
4.599954E+03	1.126534E-03	1.482810E-05
4.609954E+03	1.188519E-03	1.547557E-05
4.619954E+03	1.247922E-03	1.608187E-05
4.629954E+03	1.303012E-03	1.662748E-05
4.639954E+03	1.352196E-03	1.709533E-05
4.649954E+03	1.394191E-03	1.747232E-05
4.659953E+03	1.428035E-03	1.774940E-05
4.669953E+03	1.453216E-03	1.792310E-05
4.679953E+03	1.469578E-03	1.799401E-05
4.689953E+03	1.477441E-03	1.796821E-05
4.699953E+03	1.477429E-03	1.785499E-05
4.709953E+03	1.470617E-03	1.766853E-05
4.719953E+03	1.458352E-03	1.742573E-05
4.729953E+03	1.442184E-03	1.714533E-05
4.739953E+03	1.423860E-03	1.684797E-05
4.749953E+03	1.405105E-03	1.655351E-05
4.759952E+03	1.387702E-03	1.628221E-05
4.769952E+03	1.373202E-03	1.605128E-05
4.779952E+03	1.363035E-03	1.587634E-05
4.789952E+03	1.358324E-03	1.576929E-05
4.799952E+03	1.359956E-03	1.573926E-05
4.809952E+03	1.368446E-03	1.579103E-05
4.819952E+03	1.384113E-03	1.592715E-05
4.829952E+03	1.406919E-03	1.614609E-05
4.839952E+03	1.436591E-03	1.644370E-05
4.849952E+03	1.472595E-03	1.681290E-05
4.859951E+03	1.514218E-03	1.724465E-05
4.869951E+03	1.560623E-03	1.772851E-05
4.879951E+03	1.610674E-03	1.825080E-05
4.889951E+03	1.663226E-03	1.879779E-05
4.899951E+03	1.716890E-03	1.935308E-05
4.909951E+03	1.770276E-03	1.990041E-05
4.919951E+03	1.821842E-03	2.042196E-05
4.929951E+03	1.870074E-03	2.090036E-05
4.939951E+03	1.913539E-03	2.131939E-05
4.949951E+03	1.950950E-03	2.166468E-05
4.959950E+03	1.981355E-03	2.192576E-05
4.969950E+03	2.003949E-03	2.209405E-05
4.979950E+03	2.018240E-03	2.216463E-05
4.989950E+03	2.024006E-03	2.213573E-05
4.999950E+03	2.021040E-03	2.200592E-05
5.009950E+03	2.009343E-03	2.177625E-05
5.019950E+03	1.988986E-03	2.144867E-05
5.029950E+03	1.960304E-03	2.102812E-05
5.039950E+03	1.923894E-03	2.052245E-05
5.049950E+03	1.880694E-03	1.994317E-05
5.059949E+03	1.832123E-03	1.930677E-05
5.069949E+03	1.779822E-03	1.863185E-05
5.079949E+03	1.725702E-03	1.793947E-05
5.089949E+03	1.671782E-03	1.725131E-05
5.099949E+03	1.619879E-03	1.658644E-05
5.109949E+03	1.571687E-03	1.596205E-05
5.119949E+03	1.528498E-03	1.539071E-05
5.129949E+03	1.491322E-03	1.488162E-05
5.139949E+03	1.460809E-03	1.443999E-05
5.149949E+03	1.437226E-03	1.406687E-05
5.159948E+03	1.420558E-03	1.376038E-05
5.169948E+03	1.410535E-03	1.351605E-05
5.179948E+03	1.406702E-03	1.332766E-05
5.189948E+03	1.408421E-03	1.318733E-05
5.199948E+03	1.414998E-03	1.308688E-05
5.209948E+03	1.425677E-03	1.301778E-05
5.219948E+03	1.439679E-03	1.297159E-05
5.229948E+03	1.456308E-03	1.294094E-05
5.239948E+03	1.474842E-03	1.291854E-05
5.249948E+03	1.494712E-03	1.289882E-05
5.259947E+03	1.515372E-03	1.287667E-05
5.269947E+03	1.536394E-03	1.284829E-05
5.279947E+03	1.557447E-03	1.281096E-05
5.289947E+03	1.578338E-03	1.276331E-05
5.299947E+03	1.598854E-03	1.270393E-05
5.309947E+03	1.618981E-03	1.263321E-05
5.319947E+03	1.638665E-03	1.255125E-05
5.329947E+03	1.657970E-03	1.245916E-05
5.339947E+03	1.676976E-03	1.235825E-05
5.349947E+03	1.695817E-03	1.225021E-05
5.359946E+03	1.714563E-03	1.213630E-05
5.369946E+03	1.733337E-03	1.201825E-05
5.379946E+03	1.752148E-03	1.189698E-05
5.389946E+03	1.770857E-03	1.177262E-05
5.399946E+03	1.789325E-03	1.164546E-05
5.409946E+03	1.807222E-03	1.151478E-05
5.419946E+03	1.824256E-03	1.138045E-05
5.429946E+03	1.840303E-03	1.124362E-05
5.439946E+03	1.855414E-03	1.110670E-05
5.449946E+03	1.870141E-03	1.097510E-05
5.459945E+03	1.885582E-03	1.085727E-05
5.469945E+03	1.903510E-03	1.076512E-05
5.479945E+03	1.926449E-03	1.071422E-05
5.489945E+03	1.957719E-03	1.072392E-05
5.499945E+03	1.999606E-03	1.080736E-05
5.509945E+03	2.049560E-03	1.095196E-05
5.519945E+03	2.104209E-03	1.114209E-05
5.529945E+03	2.160400E-03	1.136442E-05
5.539945E+03	2.215012E-03	1.160638E-05
5.549945E+03	2.265274E-03	1.185725E-05
5.559944E+03	2.308723E-03	1.210619E-05
5.569944E+03	2.343461E-03	1.234323E-05
5.579944E+03	2.368223E-03	1.256051E-05
5.589944E+03	2.382364E-03	1.275220E-05
5.599944E+03	2.385765E-03	1.291418E-05
5.609944E+03	2.378659E-03	1.304342E-05
5.619944E+03	2.361431E-03	1.313708E-05
5.629944E+03	2.334440E-03	1.319181E-05
5.639944E+03	2.297886E-03	1.320313E-05
5.649944E+03	2.251875E-03	1.316592E-05
5.659943E+03	2.196446E-03	1.307459E-05
5.669943E+03	2.131747E-03	1.292427E-05
5.679943E+03	2.058355E-03	1.271290E-05
5.689943E+03	1.977383E-03	1.244221E-05
5.699943E+03	1.890677E-03	1.211940E-05
5.709943E+03	1.800794E-03	1.175745E-05
5.719943E+03	1.710848E-03	1.137454E-05
5.729943E+03	1.624258E-03	1.099273E-05
5.739943E+03	1.544444E-03	1.063598E-05
5.749943E+03	1.474662E-03	1.032894E-05
5.759942E+03	1.417712E-03	1.009470E-05
5.769942E+03	1.376088E-03	9.955463E-06
5.779942E+03	1.351907E-03	9.931796E-06
5.789942E+03	1.347086E-03	1.004354E-05
5.799942E+03	1.363514E-03	1.031096E-05
5.809942E+03	1.403040E-03	1.075445E-05
5.819942E+03	1.467555E-03	1.139508E-05
5.829942E+03	1.558866E-03	1.225346E-05
5.839942E+03	1.678368E-03	1.334701E-05
5.849942E+03	1.826632E-03	1.468632E-05
5.859941E+03	2.002907E-03	1.627065E-05
5.869941E+03	2.204318E-03	1.808078E-05
5.879941E+03	2.425587E-03	2.007588E-05
5.889941E+03	2.658514E-03	2.218852E-05
5.899941E+03	2.892493E-03	2.432821E-05
5.909941E+03	3.115262E-03	2.638751E-05
5.919941E+03	3.314352E-03	2.825442E-05
5.929941E+03	3.478711E-03	2.982695E-05
5.939941E+03	3.600369E-03	3.102841E-05
5.949941E+03	3.675245E-03	3.181567E-05
5.959940E+03	3.703638E-03	3.218443E-05
5.969940E+03	3.689632E-03	3.216503E-05
5.979940E+03	3.639932E-03	3.181260E-05
5.989940E+03	3.563000E-03	3.119955E-05
5.999940E+03	3.467630E-03	3.040278E-05
6.009940E+03	3.362056E-03	2.949547E-05
6.019940E+03	3.253595E-03	2.854334E-05
6.029940E+03	3.148066E-03	2.759923E-05
6.039940E+03	3.049987E-03	2.670443E-05
6.049940E+03	2.962534E-03	2.588812E-05
6.059939E+03	2.887703E-03	2.516867E-05
6.069939E+03	2.826601E-03	2.455616E-05
6.079939E+03	2.779485E-03	2.405276E-05
6.089939E+03	2.745978E-03	2.365470E-05
6.099939E+03	2.725153E-03	2.335311E-05
6.109939E+03	2.715593E-03	2.313471E-05
6.119939E+03	2.715507E-03	2.298300E-05
6.129939E+03	2.722712E-03	2.287823E-05
6.139939E+03	2.734940E-03	2.280033E-05
6.149939E+03	2.749909E-03	2.272951E-05
6.159938E+03	2.765563E-03	2.264842E-05
6.169938E+03	2.780275E-03	2.254384E-05
6.179938E+03	2.793008E-03	2.240787E-05
6.189938E+03	2.803368E-03	2.223814E-05
6.199938E+03	2.811542E-03	2.203711E-05
6.209938E+03	2.818083E-03	2.181012E-05
6.219938E+03	2.823780E-03	2.156421E-05
6.229938E+03	2.829221E-03	2.130466E-05
6.239938E+03	2.834670E-03	2.103422E-05
6.249938E+03	2.840031E-03	2.075294E-05
6.259937E+03	2.844647E-03	2.045699E-05
6.269937E+03	2.847380E-03	2.013958E-05
6.279937E+03	2.846772E-03	1.979235E-05
6.289937E+03	2.841193E-03	1.940660E-05
6.299937E+03	2.828926E-03	1.897407E-05
6.309937E+03	2.808515E-03	1.848918E-05
6.319937E+03	2.778744E-03	1.794879E-05
6.329937E+03	2.739059E-03	1.735467E-05
6.339937E+03	2.689495E-03	1.671256E-05
6.349937E+03	2.630889E-03	1.603306E-05
6.359936E+03	2.564887E-03	1.533111E-05
6.369936E+03	2.493820E-03	1.462471E-05
6.379936E+03	2.420598E-03	1.393398E-05
6.389936E+03	2.348515E-03	1.327971E-05
6.399936E+03	2.281054E-03	1.268227E-05
6.409936E+03	2.221711E-03	1.216077E-05
6.419936E+03	2.173786E-03	1.173219E-05
6.429936E+03	2.140426E-03	1.141208E-05
6.439936E+03	2.124454E-03	1.121421E-05
6.449936E+03	2.128627E-03	1.115238E-05
6.459935E+03	2.155568E-03	1.124072E-05
6.469935E+03	2.208010E-03	1.149550E-05
6.479935E+03	2.288844E-03	1.193596E-05
6.489935E+03	2.401377E-03	1.258621E-05
6.499935E+03	2.549368E-03	1.347489E-05
6.509935E+03	2.737377E-03	1.463734E-05
6.519935E+03	2.971191E-03	1.611971E-05
6.529935E+03	3.258304E-03	1.798258E-05
6.539935E+03	3.600586E-03	2.026108E-05
6.549935E+03	3.987056E-03	2.292053E-05
6.559934E+03	4.401235E-03	2.589067E-05
6.569934E+03	4.821848E-03	2.906424E-05
6.579934E+03	5.224292E-03	3.230027E-05
6.589934E+03	5.583191E-03	3.543547E-05
6.599934E+03	5.875224E-03	3.830018E-05
6.609934E+03	6.082409E-03	4.074068E-05
6.619934E+03	6.194284E-03	4.263825E-05
6.629934E+03	6.208926E-03	4.392329E-05
6.639934E+03	6.132251E-03	4.457877E-05
6.649934E+03	5.976715E-03	4.463900E-05
6.659933E+03	5.758521E-03	4.417565E-05
6.669933E+03	5.495748E-03	4.328771E-05
6.679933E+03	5.205805E-03	4.208357E-05
6.689933E+03	4.904197E-03	4.067063E-05
6.699933E+03	4.603679E-03	3.914648E-05
6.709933E+03	4.313799E-03	3.759213E-05
6.719933E+03	4.041263E-03	3.607198E-05
6.729933E+03	3.790167E-03	3.463278E-05
6.739933E+03	3.562534E-03	3.330586E-05
6.749933E+03	3.358847E-03	3.210991E-05
6.759932E+03	3.178495E-03	3.105355E-05
6.769932E+03	3.020202E-03	3.013845E-05
6.779932E+03	2.882213E-03	2.936037E-05
6.789932E+03	2.762625E-03	2.871215E-05
6.799932E+03	2.659508E-03	2.818472E-05
6.809932E+03	2.571034E-03	2.776850E-05
6.819932E+03	2.495477E-03	2.745347E-05
6.829932E+03	2.431256E-03	2.722977E-05
6.839932E+03	2.377023E-03	2.708886E-05
6.849932E+03	2.331579E-03	2.702280E-05
6.859931E+03	2.293886E-03	2.702446E-05
6.869931E+03	2.263033E-03	2.708745E-05
6.879931E+03	2.238198E-03	2.720560E-05
6.889931E+03	2.218692E-03	2.737375E-05
6.899931E+03	2.203888E-03	2.758690E-05
6.909931E+03	2.193126E-03	2.783915E-05
6.919931E+03	2.185868E-03	2.812559E-05
6.929931E+03	2.181616E-03	2.844145E-05
6.939931E+03	2.179833E-03	2.878102E-05
6.949931E+03	2.180137E-03	2.914028E-05
6.959930E+03	2.182087E-03	2.951412E-05
6.969930E+03	2.185398E-03	2.989924E-05
6.979930E+03	2.189748E-03	3.029165E-05
6.989930E+03	2.194883E-03	3.068807E-05
6.999930E+03	2.200573E-03	3.108542E-05
7.009930E+03	2.206612E-03	3.148079E-05
7.019930E+03	2.212807E-03	3.187136E-05
7.029930E+03	2.219015E-03	3.225492E-05
7.039930E+03	2.225022E-03	3.262814E-05
7.049930E+03	2.230722E-03	3.298921E-05
7.059929E+03	2.236034E-03	3.333662E-05
7.069929E+03	2.240816E-03	3.366795E-05
7.079929E+03	2.245071E-03	3.398287E-05
7.089929E+03	2.248731E-03	3.428005E-05
7.099929E+03	2.251750E-03	3.455843E-05
7.109929E+03	2.254180E-03	3.481852E-05
7.119929E+03	2.256000E-03	3.505969E-05
7.129929E+03	2.257196E-03	3.528143E-05
7.139929E+03	2.257847E-03	3.548475E-05
7.149929E+03	2.257920E-03	3.566891E-05
7.159928E+03	2.257475E-03	3.583465E-05
7.169928E+03	2.256541E-03	3.598224E-05
7.179928E+03	2.255151E-03	3.611207E-05
7.189928E+03	2.253332E-03	3.622445E-05
7.199928E+03	2.251087E-03	3.631931E-05
7.209928E+03	2.248470E-03	3.639741E-05
7.219928E+03	2.245504E-03	3.645909E-05
7.229928E+03	2.242210E-03	3.650461E-05
7.239928E+03	2.238578E-03	3.653378E-05
7.249928E+03	2.234652E-03	3.654729E-05
7.259927E+03	2.230447E-03	3.654538E-05
7.269927E+03	2.225944E-03	3.652772E-05
7.279927E+03	2.221183E-03	3.649500E-05
7.289927E+03	2.216142E-03	3.644688E-05
7.299927E+03	2.210859E-03	3.638401E-05
7.309927E+03	2.205311E-03	3.630607E-05
7.319927E+03	2.199533E-03	3.621370E-05
7.329927E+03	2.193503E-03	3.610658E-05
7.339927E+03	2.187253E-03	3.598533E-05
7.349927E+03	2.180761E-03	3.584967E-05
7.359926E+03	2.174060E-03	3.570025E-05
7.369926E+03	2.167127E-03	3.553678E-05
7.379926E+03	2.159966E-03	3.535946E-05
7.389926E+03	2.152613E-03	3.516901E-05
7.399926E+03	2.145045E-03	3.496515E-05
7.409926E+03	2.137266E-03	3.474814E-05
7.419926E+03	2.129313E-03	3.451870E-05
7.429926E+03	2.121163E-03	3.427662E-05
7.439926E+03	2.112821E-03	3.402216E-05
7.449926E+03	2.104295E-03	3.375562E-05
7.459925E+03	2.095622E-03	3.347779E-05
7.469925E+03	2.086779E-03	3.318848E-05
7.479925E+03	2.077803E-03	3.288848E-05
7.489925E+03	2.068644E-03	3.257720E-05
7.499925E+03	2.059368E-03	3.225590E-05
7.509925E+03	2.049954E-03	3.192446E-05
7.519925E+03	2.040440E-03	3.158370E-05
7.529925E+03	2.030774E-03	3.123307E-05
7.539925E+03	2.021025E-03	3.087383E-05
7.549925E+03	2.011172E-03	3.050593E-05
7.559924E+03	2.001225E-03	3.012976E-05
7.569924E+03	1.991220E-03	2.974612E-05
7.579924E+03	1.981140E-03	2.935500E-05
7.589924E+03	1.970991E-03	2.895677E-05
7.599924E+03	1.960786E-03	2.855188E-05
7.609924E+03	1.950559E-03	2.814113E-05
7.619924E+03	1.940295E-03	2.772454E-05
7.629924E+03	1.930002E-03	2.730253E-05
7.639924E+03	1.919719E-03	2.687594E-05
7.649924E+03	1.909426E-03	2.644479E-05
7.659923E+03	1.899134E-03	2.600953E-05
7.669923E+03	1.888853E-03	2.557062E-05
7.679923E+03	1.878621E-03	2.512888E-05
7.689923E+03	1.868421E-03	2.468443E-05
7.699923E+03	1.858261E-03	2.423768E-05
7.709923E+03	1.848182E-03	2.378953E-05
7.719923E+03	1.838164E-03	2.334008E-05
7.729923E+03	1.828246E-03	2.289020E-05
7.739923E+03	1.818409E-03	2.244001E-05
7.749923E+03	1.808665E-03	2.199007E-05
7.759922E+03	1.799051E-03	2.154125E-05
