#wls	flux	fluxerr
1.599984E+03	4.302024E-06	3.280109E-07
1.639984E+03	4.306057E-06	3.265394E-07
1.679983E+03	4.297471E-06	3.240728E-07
1.719983E+03	4.277873E-06	3.207470E-07
1.759982E+03	4.245719E-06	3.164612E-07
1.799982E+03	4.199223E-06	3.110999E-07
1.839982E+03	4.134305E-06	3.043830E-07
1.879981E+03	4.045208E-06	2.959159E-07
1.919981E+03	3.928869E-06	2.855125E-07
1.959980E+03	3.783821E-06	2.731091E-07
1.999980E+03	3.615491E-06	2.591413E-07
2.039980E+03	3.441336E-06	2.448911E-07
2.079979E+03	3.293397E-06	2.326359E-07
2.119979E+03	3.212895E-06	2.252286E-07
2.159978E+03	3.236835E-06	2.251367E-07
2.199978E+03	3.380716E-06	2.332570E-07
2.239978E+03	3.640079E-06	2.490781E-07
2.279977E+03	3.993598E-06	2.709460E-07
2.319977E+03	4.415237E-06	2.969326E-07
2.359976E+03	4.884320E-06	3.255231E-07
2.399976E+03	5.389923E-06	3.558923E-07
2.439976E+03	5.923520E-06	3.873960E-07
2.479975E+03	6.485487E-06	4.199852E-07
2.519975E+03	7.074814E-06	4.535187E-07
2.559974E+03	7.693563E-06	4.880509E-07
2.599974E+03	8.340212E-06	5.234029E-07
2.639974E+03	9.014763E-06	5.594925E-07
2.679973E+03	9.715561E-06	5.961332E-07
2.719973E+03	1.043534E-05	6.328013E-07
2.759972E+03	1.116616E-05	6.689502E-07
2.799972E+03	1.190207E-05	7.041754E-07
2.839972E+03	1.262972E-05	7.376556E-07
2.879971E+03	1.333657E-05	7.686569E-07
2.919971E+03	1.401425E-05	7.967243E-07
2.959970E+03	1.464850E-05	8.210986E-07
2.999970E+03	1.523319E-05	8.415209E-07
3.009970E+03	1.536942E-05	8.458990E-07
3.019970E+03	1.550072E-05	8.499384E-07
3.029970E+03	1.562934E-05	8.537644E-07
3.039970E+03	1.575550E-05	8.573906E-07
3.049970E+03	1.587785E-05	8.607445E-07
3.059969E+03	1.599976E-05	8.640104E-07
3.069969E+03	1.611850E-05	8.670422E-07
3.079969E+03	1.623374E-05	8.698225E-07
3.089969E+03	1.634752E-05	8.724633E-07
3.099969E+03	1.645959E-05	8.749513E-07
3.109969E+03	1.656735E-05	8.771504E-07
3.119969E+03	1.667297E-05	8.791765E-07
3.129969E+03	1.677393E-05	8.808995E-07
3.139969E+03	1.687246E-05	8.824377E-07
3.149969E+03	1.696846E-05	8.837883E-07
3.159968E+03	1.705952E-05	8.848270E-07
3.169968E+03	1.714560E-05	8.855554E-07
3.179968E+03	1.723142E-05	8.862187E-07
3.189968E+03	1.730998E-05	8.864581E-07
3.199968E+03	1.738834E-05	8.866394E-07
3.209968E+03	1.746194E-05	8.865303E-07
3.219968E+03	1.753322E-05	8.862575E-07
3.229968E+03	1.760003E-05	8.857139E-07
3.239968E+03	1.766487E-05	8.850275E-07
3.249968E+03	1.772792E-05	8.842092E-07
3.259967E+03	1.778715E-05	8.831584E-07
3.269967E+03	1.784509E-05	8.820036E-07
3.279967E+03	1.790206E-05	8.807604E-07
3.289967E+03	1.795610E-05	8.793337E-07
3.299967E+03	1.800981E-05	8.778529E-07
3.309967E+03	1.806358E-05	8.763358E-07
3.319967E+03	1.811780E-05	8.748020E-07
3.329967E+03	1.817067E-05	8.731647E-07
3.339967E+03	1.822489E-05	8.715533E-07
3.349967E+03	1.828094E-05	8.699898E-07
3.359966E+03	1.833932E-05	8.684972E-07
3.369966E+03	1.840060E-05	8.670997E-07
3.379966E+03	1.846317E-05	8.657206E-07
3.389966E+03	1.852983E-05	8.644890E-07
3.399966E+03	1.860124E-05	8.634329E-07
3.409966E+03	1.867808E-05	8.625798E-07
3.419966E+03	1.875893E-05	8.618612E-07
3.429966E+03	1.884886E-05	8.615056E-07
3.439966E+03	1.894440E-05	8.613486E-07
3.449966E+03	1.904857E-05	8.615226E-07
3.459965E+03	1.916228E-05	8.620619E-07
3.469965E+03	1.928650E-05	8.630037E-07
3.479965E+03	1.942227E-05	8.643863E-07
3.489965E+03	1.957071E-05	8.662506E-07
3.499965E+03	1.973299E-05	8.686386E-07
3.509965E+03	1.990827E-05	8.715031E-07
3.519965E+03	2.010212E-05	8.750772E-07
3.529965E+03	2.031386E-05	8.793180E-07
3.539965E+03	2.054294E-05	8.841872E-07
3.549965E+03	2.079525E-05	8.899249E-07
3.559964E+03	2.106830E-05	8.964074E-07
3.569964E+03	2.136829E-05	9.038806E-07
3.579964E+03	2.169506E-05	9.123184E-07
3.589964E+03	2.204850E-05	9.216952E-07
3.599964E+03	2.243501E-05	9.322566E-07
3.609964E+03	2.285435E-05	9.439674E-07
3.619964E+03	2.330611E-05	9.567862E-07
3.629964E+03	2.379667E-05	9.709477E-07
3.639964E+03	2.432579E-05	9.864122E-07
3.649964E+03	2.489558E-05	1.003236E-06
3.659963E+03	2.551073E-05	1.021574E-06
3.669963E+03	2.616899E-05	1.041303E-06
3.679963E+03	2.687539E-05	1.062587E-06
3.689963E+03	2.763535E-05	1.085602E-06
3.699963E+03	2.844955E-05	1.110333E-06
3.709963E+03	2.931877E-05	1.136768E-06
3.719963E+03	3.025183E-05	1.165203E-06
3.729963E+03	3.125283E-05	1.195746E-06
3.739963E+03	3.232055E-05	1.228296E-06
3.749963E+03	3.346509E-05	1.263183E-06
3.759962E+03	3.468560E-05	1.300313E-06
3.769962E+03	3.599320E-05	1.340042E-06
3.779962E+03	3.739373E-05	1.382517E-06
3.789962E+03	3.888701E-05	1.427658E-06
3.799962E+03	4.048593E-05	1.475862E-06
3.809962E+03	4.219425E-05	1.527181E-06
3.819962E+03	4.401944E-05	1.581798E-06
3.829962E+03	4.596948E-05	1.639904E-06
3.839962E+03	4.805677E-05	1.701841E-06
3.849962E+03	5.028700E-05	1.767700E-06
3.859961E+03	5.267007E-05	1.837714E-06
3.869961E+03	5.522097E-05	1.912280E-06
3.879961E+03	5.794727E-05	1.991527E-06
3.889961E+03	6.086136E-05	2.075739E-06
3.899961E+03	6.397652E-05	2.165217E-06
3.909961E+03	6.731177E-05	2.260441E-06
3.919961E+03	7.087639E-05	2.361546E-06
3.929961E+03	7.468743E-05	2.468916E-06
3.939961E+03	7.873861E-05	2.582151E-06
3.949961E+03	8.303986E-05	2.701385E-06
3.959960E+03	8.755495E-05	2.825253E-06
3.969960E+03	9.226694E-05	2.953045E-06
3.979960E+03	9.713293E-05	3.083245E-06
3.989960E+03	1.021102E-04	3.214391E-06
3.999960E+03	1.071623E-04	3.345257E-06
4.009960E+03	1.122408E-04	3.474294E-06
4.019960E+03	1.173057E-04	3.600250E-06
4.029960E+03	1.223214E-04	3.722063E-06
4.039960E+03	1.272286E-04	3.837989E-06
4.049960E+03	1.319730E-04	3.946490E-06
4.059959E+03	1.364576E-04	4.044828E-06
4.069959E+03	1.406079E-04	4.131030E-06
4.079959E+03	1.442803E-04	4.201177E-06
4.089959E+03	1.473692E-04	4.252614E-06
4.099959E+03	1.497482E-04	4.282180E-06
4.109959E+03	1.513354E-04	4.288130E-06
4.119959E+03	1.520788E-04	4.269622E-06
4.129959E+03	1.520543E-04	4.229438E-06
4.139959E+03	1.513602E-04	4.170885E-06
4.149959E+03	1.502134E-04	4.100413E-06
4.159958E+03	1.488647E-04	4.025160E-06
4.169958E+03	1.476024E-04	3.953006E-06
4.179958E+03	1.467102E-04	3.891412E-06
4.189958E+03	1.464216E-04	3.846233E-06
4.199958E+03	1.469478E-04	3.822505E-06
4.209958E+03	1.484827E-04	3.824603E-06
4.219958E+03	1.511728E-04	3.855507E-06
4.229958E+03	1.551895E-04	3.918675E-06
4.239958E+03	1.606863E-04	4.016959E-06
4.249958E+03	1.677972E-04	4.152578E-06
4.259957E+03	1.766868E-04	4.328380E-06
4.269957E+03	1.874709E-04	4.545873E-06
4.279957E+03	2.002237E-04	4.805469E-06
4.289957E+03	2.149558E-04	5.106013E-06
4.299957E+03	2.316123E-04	5.444812E-06
4.309957E+03	2.499979E-04	5.815987E-06
4.319957E+03	2.698339E-04	6.211941E-06
4.329957E+03	2.906419E-04	6.620821E-06
4.339957E+03	3.117683E-04	7.027300E-06
4.349957E+03	3.323701E-04	7.412467E-06
4.359956E+03	3.514405E-04	7.754599E-06
4.369956E+03	3.678853E-04	8.031017E-06
4.379956E+03	3.807053E-04	8.222100E-06
4.389956E+03	3.891662E-04	8.314795E-06
4.399956E+03	3.931651E-04	8.310025E-06
4.409956E+03	3.932359E-04	8.222075E-06
4.419956E+03	3.902701E-04	8.072097E-06
4.429956E+03	3.853557E-04	7.884418E-06
4.439956E+03	3.795475E-04	7.681683E-06
4.449956E+03	3.738045E-04	7.483679E-06
4.459955E+03	3.689595E-04	7.306848E-06
4.469955E+03	3.657636E-04	7.165312E-06
4.479955E+03	3.649647E-04	7.072513E-06
4.489955E+03	3.673475E-04	7.041999E-06
4.499955E+03	3.737856E-04	7.088396E-06
4.509955E+03	3.851541E-04	7.225694E-06
4.519955E+03	4.023055E-04	7.466843E-06
4.529955E+03	4.260157E-04	7.822797E-06
4.539955E+03	4.567592E-04	8.298539E-06
4.549955E+03	4.944740E-04	8.889176E-06
4.559954E+03	5.383779E-04	9.577194E-06
4.569954E+03	5.870791E-04	1.033507E-05
4.579954E+03	6.385631E-04	1.112559E-05
4.589954E+03	6.903452E-04	1.190496E-05
4.599954E+03	7.400152E-04	1.263248E-05
4.609954E+03	7.856863E-04	1.327796E-05
4.619954E+03	8.262646E-04	1.382570E-05
4.629954E+03	8.612407E-04	1.427032E-05
4.639954E+03	8.905294E-04	1.461365E-05
4.649954E+03	9.145333E-04	1.486532E-05
4.659953E+03	9.337547E-04	1.503616E-05
4.669953E+03	9.486798E-04	1.513617E-05
4.679953E+03	9.598010E-04	1.517508E-05
4.689953E+03	9.675821E-04	1.516178E-05
4.699953E+03	9.722958E-04	1.510184E-05
4.709953E+03	9.742854E-04	1.500173E-05
4.719953E+03	9.737730E-04	1.486578E-05
4.729953E+03	9.709124E-04	1.469717E-05
4.739953E+03	9.661378E-04	1.450314E-05
4.749953E+03	9.601026E-04	1.429395E-05
4.759952E+03	9.540386E-04	1.408806E-05
4.769952E+03	9.492531E-04	1.390443E-05
4.779952E+03	9.468525E-04	1.375850E-05
4.789952E+03	9.474838E-04	1.365860E-05
4.799952E+03	9.514194E-04	1.360742E-05
4.809952E+03	9.587238E-04	1.360464E-05
4.819952E+03	9.693287E-04	1.364803E-05
4.829952E+03	9.830342E-04	1.373361E-05
4.839952E+03	9.994070E-04	1.385425E-05
4.849952E+03	1.017878E-03	1.400115E-05
4.859951E+03	1.037603E-03	1.416203E-05
4.869951E+03	1.057896E-03	1.432708E-05
4.879951E+03	1.078209E-03	1.448864E-05
4.889951E+03	1.098102E-03	1.464073E-05
4.899951E+03	1.117018E-03	1.477597E-05
4.909951E+03	1.134286E-03	1.488573E-05
4.919951E+03	1.149047E-03	1.495922E-05
4.929951E+03	1.160379E-03	1.498516E-05
4.939951E+03	1.167558E-03	1.495521E-05
4.949951E+03	1.170230E-03	1.486606E-05
4.959950E+03	1.168825E-03	1.472440E-05
4.969950E+03	1.164819E-03	1.454985E-05
4.979950E+03	1.160032E-03	1.436569E-05
4.989950E+03	1.155864E-03	1.418923E-05
4.999950E+03	1.152587E-03	1.402349E-05
5.009950E+03	1.149531E-03	1.386003E-05
5.019950E+03	1.145114E-03	1.367980E-05
5.029950E+03	1.137170E-03	1.345752E-05
5.039950E+03	1.123381E-03	1.316717E-05
5.049950E+03	1.102445E-03	1.279562E-05
5.059949E+03	1.074231E-03	1.234382E-05
5.069949E+03	1.039916E-03	1.182773E-05
5.079949E+03	1.001314E-03	1.127004E-05
5.089949E+03	9.605793E-04	1.069635E-05
5.099949E+03	9.200826E-04	1.013372E-05
5.109949E+03	8.820240E-04	9.606153E-06
5.119949E+03	8.484355E-04	9.134797E-06
5.129949E+03	8.210153E-04	8.736196E-06
5.139949E+03	8.008432E-04	8.419494E-06
5.149949E+03	7.884793E-04	8.187830E-06
5.159948E+03	7.838830E-04	8.037835E-06
5.169948E+03	7.864670E-04	7.960559E-06
5.179948E+03	7.950109E-04	7.940983E-06
5.189948E+03	8.079377E-04	7.961176E-06
5.199948E+03	8.236599E-04	8.003922E-06
5.209948E+03	8.409894E-04	8.056681E-06
5.219948E+03	8.590548E-04	8.110552E-06
5.229948E+03	8.771244E-04	8.158427E-06
5.239948E+03	8.947182E-04	8.195923E-06
5.249948E+03	9.113749E-04	8.219118E-06
5.259947E+03	9.268088E-04	8.225935E-06
5.269947E+03	9.407119E-04	8.214291E-06
5.279947E+03	9.529320E-04	8.183646E-06
5.289947E+03	9.634255E-04	8.134492E-06
5.299947E+03	9.722006E-04	8.067806E-06
5.309947E+03	9.794386E-04	7.986000E-06
5.319947E+03	9.853477E-04	7.891616E-06
5.329947E+03	9.901742E-04	7.787407E-06
5.339947E+03	9.942452E-04	7.676628E-06
5.349947E+03	9.980340E-04	7.563480E-06
5.359946E+03	1.002283E-03	7.453925E-06
5.369946E+03	1.007867E-03	7.354490E-06
5.379946E+03	1.015557E-03	7.270540E-06
5.389946E+03	1.026024E-03	7.206347E-06
5.399946E+03	1.039705E-03	7.164306E-06
5.409946E+03	1.056438E-03	7.142618E-06
5.419946E+03	1.075503E-03	7.136005E-06
5.429946E+03	1.095780E-03	7.137047E-06
5.439946E+03	1.116266E-03	7.139743E-06
5.449946E+03	1.136434E-03	7.141648E-06
5.459945E+03	1.156462E-03	7.144957E-06
5.469945E+03	1.177252E-03	7.156281E-06
5.479945E+03	1.200564E-03	7.187072E-06
5.489945E+03	1.228134E-03	7.248154E-06
5.499945E+03	1.261099E-03	7.346510E-06
5.509945E+03	1.299141E-03	7.480719E-06
5.519945E+03	1.340832E-03	7.643441E-06
5.529945E+03	1.383874E-03	7.823048E-06
5.539945E+03	1.425623E-03	8.006556E-06
5.549945E+03	1.463296E-03	8.180573E-06
5.559944E+03	1.494327E-03	8.332927E-06
5.569944E+03	1.516791E-03	8.454125E-06
5.579944E+03	1.529521E-03	8.537695E-06
5.589944E+03	1.531860E-03	8.579212E-06
5.599944E+03	1.524073E-03	8.578649E-06
5.609944E+03	1.506841E-03	8.537703E-06
5.619944E+03	1.481540E-03	8.461639E-06
5.629944E+03	1.449821E-03	8.357152E-06
5.639944E+03	1.413175E-03	8.230130E-06
5.649944E+03	1.372427E-03	8.082784E-06
5.659943E+03	1.327359E-03	7.911302E-06
5.669943E+03	1.277254E-03	7.708827E-06
5.679943E+03	1.221544E-03	7.469222E-06
5.689943E+03	1.160151E-03	7.189277E-06
5.699943E+03	1.093873E-03	6.871342E-06
5.709943E+03	1.024539E-03	6.524709E-06
5.719943E+03	9.549809E-04	6.165944E-06
5.729943E+03	8.883569E-04	5.814903E-06
5.739943E+03	8.274770E-04	5.490444E-06
5.749943E+03	7.746513E-04	5.209222E-06
5.759942E+03	7.316724E-04	4.985316E-06
5.769942E+03	6.998758E-04	4.830362E-06
5.779942E+03	6.804033E-04	4.755134E-06
5.789942E+03	6.744350E-04	4.771045E-06
5.799942E+03	6.833118E-04	4.890975E-06
5.809942E+03	7.087250E-04	5.130647E-06
5.819942E+03	7.528526E-04	5.509689E-06
5.829942E+03	8.182608E-04	6.051018E-06
5.839942E+03	9.074480E-04	6.777477E-06
5.849942E+03	1.022527E-03	7.709300E-06
5.859941E+03	1.164249E-03	8.856443E-06
5.869941E+03	1.330557E-03	1.020694E-05
5.879941E+03	1.515579E-03	1.171823E-05
5.889941E+03	1.709264E-03	1.331323E-05
5.899941E+03	1.898273E-03	1.488646E-05
5.909941E+03	2.067791E-03	1.631787E-05
5.919941E+03	2.204047E-03	1.749308E-05
5.929941E+03	2.298038E-03	1.833388E-05
5.939941E+03	2.346658E-03	1.880880E-05
5.949941E+03	2.352131E-03	1.892991E-05
5.959940E+03	2.321204E-03	1.874723E-05
5.969940E+03	2.262849E-03	1.833060E-05
5.979940E+03	2.186329E-03	1.775391E-05
5.989940E+03	2.099777E-03	1.708319E-05
5.999940E+03	2.009865E-03	1.637341E-05
6.009940E+03	1.921655E-03	1.566692E-05
6.019940E+03	1.838996E-03	1.499627E-05
6.029940E+03	1.764677E-03	1.438537E-05
6.039940E+03	1.700603E-03	1.385065E-05
6.049940E+03	1.648237E-03	1.340468E-05
6.059939E+03	1.608431E-03	1.305468E-05
6.069939E+03	1.581520E-03	1.280333E-05
6.079939E+03	1.567258E-03	1.264826E-05
6.089939E+03	1.564968E-03	1.258330E-05
6.099939E+03	1.573645E-03	1.259945E-05
6.109939E+03	1.591899E-03	1.268449E-05
6.119939E+03	1.617935E-03	1.282296E-05
6.129939E+03	1.649454E-03	1.299554E-05
6.139939E+03	1.683631E-03	1.317910E-05
6.149939E+03	1.717160E-03	1.334727E-05
6.159938E+03	1.746989E-03	1.347642E-05
6.169938E+03	1.770535E-03	1.354729E-05
6.179938E+03	1.786474E-03	1.355099E-05
6.189938E+03	1.795185E-03	1.349197E-05
6.199938E+03	1.799226E-03	1.339098E-05
6.209938E+03	1.802441E-03	1.327764E-05
6.219938E+03	1.808547E-03	1.317956E-05
6.229938E+03	1.820278E-03	1.311609E-05
6.239938E+03	1.839262E-03	1.309777E-05
6.249938E+03	1.866017E-03	1.312676E-05
6.259937E+03	1.899745E-03	1.319586E-05
6.269937E+03	1.938648E-03	1.329129E-05
6.279937E+03	1.980416E-03	1.339651E-05
6.289937E+03	2.022162E-03	1.349205E-05
6.299937E+03	2.060722E-03	1.355782E-05
6.309937E+03	2.092549E-03	1.357255E-05
6.319937E+03	2.114129E-03	1.351666E-05
6.329937E+03	2.121848E-03	1.337133E-05
6.339937E+03	2.112395E-03	1.312102E-05
6.349937E+03	2.083110E-03	1.275528E-05
6.359936E+03	2.032680E-03	1.227257E-05
6.369936E+03	1.961863E-03	1.168377E-05
6.379936E+03	1.873994E-03	1.101415E-05
6.389936E+03	1.774395E-03	1.029886E-05
6.399936E+03	1.669718E-03	9.578518E-06
6.409936E+03	1.567121E-03	8.894296E-06
6.419936E+03	1.473273E-03	8.282557E-06
6.429936E+03	1.393571E-03	7.771110E-06
6.439936E+03	1.332050E-03	7.379565E-06
6.449936E+03	1.292015E-03	7.123561E-06
6.459935E+03	1.276711E-03	7.019085E-06
6.469935E+03	1.289908E-03	7.086164E-06
6.479935E+03	1.336590E-03	7.353230E-06
6.489935E+03	1.423231E-03	7.859413E-06
6.499935E+03	1.558274E-03	8.658047E-06
6.509935E+03	1.752552E-03	9.819680E-06
6.519935E+03	2.019209E-03	1.143367E-05
6.529935E+03	2.371078E-03	1.359517E-05
6.539935E+03	2.814147E-03	1.636805E-05
6.549935E+03	3.339724E-03	1.973632E-05
6.559934E+03	3.919377E-03	2.356608E-05
6.569934E+03	4.503361E-03	2.758335E-05
6.579934E+03	5.028680E-03	3.140858E-05
6.589934E+03	5.435573E-03	3.464899E-05
6.599934E+03	5.681677E-03	3.698857E-05
6.609934E+03	5.750462E-03	3.825325E-05
6.619934E+03	5.652803E-03	3.843906E-05
6.629934E+03	5.419989E-03	3.768474E-05
6.639934E+03	5.092769E-03	3.621150E-05
6.649934E+03	4.711618E-03	3.426206E-05
6.659933E+03	4.311069E-03	3.206032E-05
6.669933E+03	3.917288E-03	2.978963E-05
6.679933E+03	3.547140E-03	2.757940E-05
6.689933E+03	3.210425E-03	2.551544E-05
6.699933E+03	2.911348E-03	2.364593E-05
6.709933E+03	2.650162E-03	2.199015E-05
6.719933E+03	2.425016E-03	2.055047E-05
6.729933E+03	2.232690E-03	1.931677E-05
6.739933E+03	2.069420E-03	1.827224E-05
6.749933E+03	1.931456E-03	1.739789E-05
6.759932E+03	1.815220E-03	1.667383E-05
6.769932E+03	1.717260E-03	1.607897E-05
6.779932E+03	1.634590E-03	1.559431E-05
6.789932E+03	1.564595E-03	1.520237E-05
6.799932E+03	1.504919E-03	1.488642E-05
6.809932E+03	1.453651E-03	1.463256E-05
6.819932E+03	1.409226E-03	1.442910E-05
6.829932E+03	1.370326E-03	1.426583E-05
6.839932E+03	1.336059E-03	1.413612E-05
6.849932E+03	1.305738E-03	1.403494E-05
6.859931E+03	1.278987E-03	1.396017E-05
6.869931E+03	1.255616E-03	1.391148E-05
6.879931E+03	1.235517E-03	1.388931E-05
6.889931E+03	1.218628E-03	1.389455E-05
6.899931E+03	1.204788E-03	1.392687E-05
6.909931E+03	1.193888E-03	1.398641E-05
6.919931E+03	1.185663E-03	1.407138E-05
6.929931E+03	1.179844E-03	1.417972E-05
6.939931E+03	1.176084E-03	1.430824E-05
6.949931E+03	1.174053E-03	1.445374E-05
6.959930E+03	1.173426E-03	1.461285E-05
6.969930E+03	1.173899E-03	1.478225E-05
6.979930E+03	1.175218E-03	1.495911E-05
6.989930E+03	1.177099E-03	1.514001E-05
6.999930E+03	1.179308E-03	1.532207E-05
7.009930E+03	1.181554E-03	1.550150E-05
7.019930E+03	1.183576E-03	1.567478E-05
7.029930E+03	1.185164E-03	1.583892E-05
7.039930E+03	1.186095E-03	1.599069E-05
7.049930E+03	1.186244E-03	1.612810E-05
7.059929E+03	1.185486E-03	1.624911E-05
7.069929E+03	1.183785E-03	1.635287E-05
7.079929E+03	1.181197E-03	1.643984E-05
7.089929E+03	1.177823E-03	1.651113E-05
7.099929E+03	1.173815E-03	1.656864E-05
7.109929E+03	1.169403E-03	1.661545E-05
7.119929E+03	1.164858E-03	1.665533E-05
7.129929E+03	1.160387E-03	1.669124E-05
7.139929E+03	1.156217E-03	1.672648E-05
7.149929E+03	1.152487E-03	1.676319E-05
7.159928E+03	1.149235E-03	1.680200E-05
7.169928E+03	1.146463E-03	1.684308E-05
7.179928E+03	1.144177E-03	1.688661E-05
7.189928E+03	1.142346E-03	1.693223E-05
7.199928E+03	1.140911E-03	1.697914E-05
7.209928E+03	1.139866E-03	1.702731E-05
7.219928E+03	1.139152E-03	1.707594E-05
7.229928E+03	1.138792E-03	1.712538E-05
7.239928E+03	1.138678E-03	1.717404E-05
7.249928E+03	1.138834E-03	1.722233E-05
7.259927E+03	1.139235E-03	1.726984E-05
7.269927E+03	1.139856E-03	1.731621E-05
7.279927E+03	1.140645E-03	1.736068E-05
7.289927E+03	1.141608E-03	1.740329E-05
7.299927E+03	1.142696E-03	1.744331E-05
7.309927E+03	1.143942E-03	1.748123E-05
7.319927E+03	1.145248E-03	1.751551E-05
7.329927E+03	1.146677E-03	1.754710E-05
7.339927E+03	1.148158E-03	1.757491E-05
7.349927E+03	1.149702E-03	1.759908E-05
7.359926E+03	1.151296E-03	1.761938E-05
7.369926E+03	1.152899E-03	1.763517E-05
7.379926E+03	1.154526E-03	1.764666E-05
7.389926E+03	1.156139E-03	1.765324E-05
7.399926E+03	1.157782E-03	1.765558E-05
7.409926E+03	1.159392E-03	1.765270E-05
7.419926E+03	1.160988E-03	1.764487E-05
7.429926E+03	1.162535E-03	1.763156E-05
7.439926E+03	1.164083E-03	1.761351E-05
7.449926E+03	1.165571E-03	1.758981E-05
7.459925E+03	1.166994E-03	1.756037E-05
7.469925E+03	1.168404E-03	1.752601E-05
7.479925E+03	1.169744E-03	1.748584E-05
7.489925E+03	1.171039E-03	1.744027E-05
7.499925E+03	1.172288E-03	1.738930E-05
7.509925E+03	1.173491E-03	1.733295E-05
7.519925E+03	1.174619E-03	1.727082E-05
7.529925E+03	1.175702E-03	1.720338E-05
7.539925E+03	1.176742E-03	1.713069E-05
7.549925E+03	1.177741E-03	1.705281E-05
7.559924E+03	1.178672E-03	1.696940E-05
7.569924E+03	1.179569E-03	1.688098E-05
7.579924E+03	1.180435E-03	1.678766E-05
7.589924E+03	1.181274E-03	1.668955E-05
7.599924E+03	1.182092E-03	1.658676E-05
7.609924E+03	1.182864E-03	1.647903E-05
7.619924E+03	1.183625E-03	1.636691E-05
7.629924E+03	1.184382E-03	1.625056E-05
7.639924E+03	1.185141E-03	1.613014E-05
7.649924E+03	1.185879E-03	1.600539E-05
7.659923E+03	1.186664E-03	1.587733E-05
7.669923E+03	1.187442E-03	1.574532E-05
7.679923E+03	1.188251E-03	1.560996E-05
7.689923E+03	1.189101E-03	1.547145E-05
7.699923E+03	1.189998E-03	1.533000E-05
7.709923E+03	1.190921E-03	1.518541E-05
7.719923E+03	1.191909E-03	1.503832E-05
7.729923E+03	1.192970E-03	1.488895E-05
7.739923E+03	1.194114E-03	1.473752E-05
7.749923E+03	1.195349E-03	1.458429E-05
7.759922E+03	1.196684E-03	1.442950E-05
