#wls	flux	fluxerr
1.599984E+03	1.743818E-06	6.917689E-08
1.639984E+03	1.696103E-06	6.709226E-08
1.679983E+03	1.644234E-06	6.484962E-08
1.719983E+03	1.588271E-06	6.245314E-08
1.759982E+03	1.528710E-06	5.992414E-08
1.799982E+03	1.465665E-06	5.726889E-08
1.839982E+03	1.398401E-06	5.446055E-08
1.879981E+03	1.325663E-06	5.145261E-08
1.919981E+03	1.247519E-06	4.825053E-08
1.959980E+03	1.164045E-06	4.486015E-08
1.999980E+03	1.078248E-06	4.139996E-08
2.039980E+03	9.954930E-07	3.807696E-08
2.079979E+03	9.256374E-07	3.526624E-08
2.119979E+03	8.783320E-07	3.332891E-08
2.159978E+03	8.625149E-07	3.259281E-08
2.199978E+03	8.809296E-07	3.314639E-08
2.239978E+03	9.307802E-07	3.486804E-08
2.279977E+03	1.006115E-06	3.751950E-08
2.319977E+03	1.102005E-06	4.090392E-08
2.359976E+03	1.215725E-06	4.490850E-08
2.399976E+03	1.347237E-06	4.952091E-08
2.439976E+03	1.500232E-06	5.486445E-08
2.479975E+03	1.680127E-06	6.112211E-08
2.519975E+03	1.896255E-06	6.861352E-08
2.559974E+03	2.158105E-06	7.765576E-08
2.599974E+03	2.478723E-06	8.868429E-08
2.639974E+03	2.871550E-06	1.021363E-07
2.679973E+03	3.347632E-06	1.183508E-07
2.719973E+03	3.914172E-06	1.375202E-07
2.759972E+03	4.567939E-06	1.594631E-07
2.799972E+03	5.285947E-06	1.833136E-07
2.839972E+03	6.029891E-06	2.076963E-07
2.879971E+03	6.753879E-06	2.310114E-07
2.919971E+03	7.406858E-06	2.515276E-07
2.959970E+03	7.961807E-06	2.683754E-07
2.999970E+03	8.410134E-06	2.813316E-07
3.009970E+03	8.508756E-06	2.840781E-07
3.019970E+03	8.600284E-06	2.865724E-07
3.029970E+03	8.689887E-06	2.889876E-07
3.039970E+03	8.776118E-06	2.912762E-07
3.049970E+03	8.860265E-06	2.934813E-07
3.059969E+03	8.943668E-06	2.956474E-07
3.069969E+03	9.026865E-06	2.977925E-07
3.079969E+03	9.110417E-06	2.999350E-07
3.089969E+03	9.194873E-06	3.020926E-07
3.099969E+03	9.283176E-06	3.043616E-07
3.109969E+03	9.371069E-06	3.066018E-07
3.119969E+03	9.461441E-06	3.089076E-07
3.129969E+03	9.554758E-06	3.112935E-07
3.139969E+03	9.653901E-06	3.138525E-07
3.149969E+03	9.754358E-06	3.164368E-07
3.159968E+03	9.861410E-06	3.192170E-07
3.169968E+03	9.972878E-06	3.221212E-07
3.179968E+03	1.008648E-05	3.250749E-07
3.189968E+03	1.020745E-05	3.282457E-07
3.199968E+03	1.033342E-05	3.315557E-07
3.209968E+03	1.046185E-05	3.349228E-07
3.219968E+03	1.059797E-05	3.385131E-07
3.229968E+03	1.073917E-05	3.422418E-07
3.239968E+03	1.088537E-05	3.461049E-07
3.249968E+03	1.103647E-05	3.500977E-07
3.259967E+03	1.119226E-05	3.542130E-07
3.269967E+03	1.135531E-05	3.585301E-07
3.279967E+03	1.151983E-05	3.628652E-07
3.289967E+03	1.168825E-05	3.672939E-07
3.299967E+03	1.186022E-05	3.718043E-07
3.309967E+03	1.203824E-05	3.764736E-07
3.319967E+03	1.221612E-05	3.811070E-07
3.329967E+03	1.239925E-05	3.858719E-07
3.339967E+03	1.258122E-05	3.905685E-07
3.349967E+03	1.276753E-05	3.953664E-07
3.359966E+03	1.295468E-05	4.001568E-07
3.369966E+03	1.313905E-05	4.048274E-07
3.379966E+03	1.332631E-05	4.095535E-07
3.389966E+03	1.351290E-05	4.142244E-07
3.399966E+03	1.369834E-05	4.188255E-07
3.409966E+03	1.388219E-05	4.233436E-07
3.419966E+03	1.406405E-05	4.277670E-07
3.429966E+03	1.424361E-05	4.320860E-07
3.439966E+03	1.442060E-05	4.362928E-07
3.449966E+03	1.459483E-05	4.403826E-07
3.459965E+03	1.476962E-05	4.444552E-07
3.469965E+03	1.493822E-05	4.483081E-07
3.479965E+03	1.510412E-05	4.520468E-07
3.489965E+03	1.527105E-05	4.557834E-07
3.499965E+03	1.543246E-05	4.593223E-07
3.509965E+03	1.559583E-05	4.628868E-07
3.519965E+03	1.575480E-05	4.662878E-07
3.529965E+03	1.591724E-05	4.697584E-07
3.539965E+03	1.608056E-05	4.732217E-07
3.549965E+03	1.624584E-05	4.767087E-07
3.559964E+03	1.641066E-05	4.801481E-07
3.569964E+03	1.658364E-05	4.837914E-07
3.579964E+03	1.676265E-05	4.875736E-07
3.589964E+03	1.694919E-05	4.915376E-07
3.599964E+03	1.714490E-05	4.957275E-07
3.609964E+03	1.735140E-05	5.001882E-07
3.619964E+03	1.757422E-05	5.050754E-07
3.629964E+03	1.780750E-05	5.102168E-07
3.639964E+03	1.805697E-05	5.157725E-07
3.649964E+03	1.832468E-05	5.217968E-07
3.659963E+03	1.861691E-05	5.284626E-07
3.669963E+03	1.892817E-05	5.356079E-07
3.679963E+03	1.926928E-05	5.435321E-07
3.689963E+03	1.963504E-05	5.520811E-07
3.699963E+03	2.003703E-05	5.615720E-07
3.709963E+03	2.047037E-05	5.718582E-07
3.719963E+03	2.094752E-05	5.832779E-07
3.729963E+03	2.146843E-05	5.958169E-07
3.739963E+03	2.203764E-05	6.095883E-07
3.749963E+03	2.265528E-05	6.245820E-07
3.759962E+03	2.333592E-05	6.411838E-07
3.769962E+03	2.408049E-05	6.594011E-07
3.779962E+03	2.489487E-05	6.793760E-07
3.789962E+03	2.578530E-05	7.012570E-07
3.799962E+03	2.675825E-05	7.251979E-07
3.809962E+03	2.782049E-05	7.513566E-07
3.819962E+03	2.898489E-05	7.800535E-07
3.829962E+03	3.024697E-05	8.111376E-07
3.839962E+03	3.161958E-05	8.449234E-07
3.849962E+03	3.311654E-05	8.817453E-07
3.859961E+03	3.473171E-05	9.214036E-07
3.869961E+03	3.647819E-05	9.642080E-07
3.879961E+03	3.836986E-05	1.010484E-06
3.889961E+03	4.039730E-05	1.059942E-06
3.899961E+03	4.258111E-05	1.113076E-06
3.909961E+03	4.490853E-05	1.169507E-06
3.919961E+03	4.739957E-05	1.229709E-06
3.929961E+03	5.004706E-05	1.293447E-06
3.939961E+03	5.285073E-05	1.360663E-06
3.949961E+03	5.579772E-05	1.430979E-06
3.959960E+03	5.890552E-05	1.504795E-06
3.969960E+03	6.215818E-05	1.581656E-06
3.979960E+03	6.554822E-05	1.661323E-06
3.989960E+03	6.906632E-05	1.743518E-06
3.999960E+03	7.270156E-05	1.827923E-06
4.009960E+03	7.644137E-05	1.914184E-06
4.019960E+03	8.027196E-05	2.001922E-06
4.029960E+03	8.417860E-05	2.090740E-06
4.039960E+03	8.814578E-05	2.180227E-06
4.049960E+03	9.215786E-05	2.269976E-06
4.059959E+03	9.621733E-05	2.360029E-06
4.069959E+03	1.002736E-04	2.449133E-06
4.079959E+03	1.043297E-04	2.537361E-06
4.089959E+03	1.083931E-04	2.624887E-06
4.099959E+03	1.124126E-04	2.710471E-06
4.109959E+03	1.163980E-04	2.794361E-06
4.119959E+03	1.203642E-04	2.876918E-06
4.129959E+03	1.242618E-04	2.956971E-06
4.139959E+03	1.281329E-04	3.035535E-06
4.149959E+03	1.319301E-04	3.111500E-06
4.159958E+03	1.357029E-04	3.186043E-06
4.169958E+03	1.394310E-04	3.258701E-06
4.179958E+03	1.430941E-04	3.329011E-06
4.189958E+03	1.467515E-04	3.398360E-06
4.199958E+03	1.503869E-04	3.466378E-06
4.209958E+03	1.539836E-04	3.532685E-06
4.219958E+03	1.576088E-04	3.598824E-06
4.229958E+03	1.612491E-04	3.664477E-06
4.239958E+03	1.649189E-04	3.729968E-06
4.249958E+03	1.686040E-04	3.794962E-06
4.259957E+03	1.723799E-04	3.861143E-06
4.269957E+03	1.762343E-04	3.928207E-06
4.279957E+03	1.801847E-04	3.996516E-06
4.289957E+03	1.842492E-04	4.066430E-06
4.299957E+03	1.884461E-04	4.138315E-06
4.309957E+03	1.927939E-04	4.212530E-06
4.319957E+03	1.973112E-04	4.289426E-06
4.329957E+03	2.020165E-04	4.369347E-06
4.339957E+03	2.069278E-04	4.452614E-06
4.349957E+03	2.120626E-04	4.539532E-06
4.359956E+03	2.174372E-04	4.630372E-06
4.369956E+03	2.230669E-04	4.725377E-06
4.379956E+03	2.289658E-04	4.824753E-06
4.389956E+03	2.351463E-04	4.928672E-06
4.399956E+03	2.416198E-04	5.037274E-06
4.409956E+03	2.483961E-04	5.150661E-06
4.419956E+03	2.554829E-04	5.268890E-06
4.429956E+03	2.628860E-04	5.391972E-06
4.439956E+03	2.706538E-04	5.520787E-06
4.449956E+03	2.786972E-04	5.653402E-06
4.459955E+03	2.870580E-04	5.790567E-06
4.469955E+03	2.957312E-04	5.932071E-06
4.479955E+03	3.047089E-04	6.077653E-06
4.489955E+03	3.139808E-04	6.227001E-06
4.499955E+03	3.235870E-04	6.380807E-06
4.509955E+03	3.334070E-04	6.536596E-06
4.519955E+03	3.434748E-04	6.694955E-06
4.529955E+03	3.537699E-04	6.855404E-06
4.539955E+03	3.642695E-04	7.017430E-06
4.549955E+03	3.749491E-04	7.180491E-06
4.559954E+03	3.858443E-04	7.345209E-06
4.569954E+03	3.968038E-04	7.508647E-06
4.579954E+03	4.078590E-04	7.671376E-06
4.589954E+03	4.189791E-04	7.832795E-06
4.599954E+03	4.301335E-04	7.992313E-06
4.609954E+03	4.412912E-04	8.149350E-06
4.619954E+03	4.524935E-04	8.304668E-06
4.629954E+03	4.635687E-04	8.455128E-06
4.639954E+03	4.745592E-04	8.601545E-06
4.649954E+03	4.854385E-04	8.743477E-06
4.659953E+03	4.961826E-04	8.880531E-06
4.669953E+03	5.067697E-04	9.012369E-06
4.679953E+03	5.171805E-04	9.138707E-06
4.689953E+03	5.273986E-04	9.259317E-06
4.699953E+03	5.374099E-04	9.374022E-06
4.709953E+03	5.472031E-04	9.482700E-06
4.719953E+03	5.567693E-04	9.585273E-06
4.729953E+03	5.661013E-04	9.681700E-06
4.739953E+03	5.751941E-04	9.771980E-06
4.749953E+03	5.840442E-04	9.856134E-06
4.759952E+03	5.926487E-04	9.934206E-06
4.769952E+03	6.010057E-04	1.000625E-05
4.779952E+03	6.091135E-04	1.007232E-05
4.789952E+03	6.169704E-04	1.013249E-05
4.799952E+03	6.245743E-04	1.018680E-05
4.809952E+03	6.318274E-04	1.023377E-05
4.819952E+03	6.389157E-04	1.027652E-05
4.829952E+03	6.457407E-04	1.031352E-05
4.839952E+03	6.522974E-04	1.034481E-05
4.849952E+03	6.584819E-04	1.036883E-05
4.859951E+03	6.644835E-04	1.038868E-05
4.869951E+03	6.701982E-04	1.040282E-05
4.879951E+03	6.755196E-04	1.040972E-05
4.889951E+03	6.806406E-04	1.041245E-05
4.899951E+03	6.853559E-04	1.040799E-05
4.909951E+03	6.898621E-04	1.039945E-05
4.919951E+03	6.939547E-04	1.038383E-05
4.929951E+03	6.977337E-04	1.036279E-05
4.939951E+03	7.013029E-04	1.033795E-05
4.949951E+03	7.044627E-04	1.030649E-05
4.959950E+03	7.073219E-04	1.027012E-05
4.969950E+03	7.099933E-04	1.023060E-05
4.979950E+03	7.122854E-04	1.018525E-05
4.989950E+03	7.143171E-04	1.013590E-05
4.999950E+03	7.161082E-04	1.008292E-05
5.009950E+03	7.176818E-04	1.002674E-05
5.019950E+03	7.190636E-04	9.967799E-06
5.029950E+03	7.202820E-04	9.906558E-06
5.039950E+03	7.213678E-04	9.843508E-06
5.049950E+03	7.223534E-04	9.779147E-06
5.059949E+03	7.231705E-04	9.712607E-06
5.069949E+03	7.240582E-04	9.647145E-06
5.079949E+03	7.249492E-04	9.581866E-06
5.089949E+03	7.257765E-04	9.515908E-06
5.099949E+03	7.267776E-04	9.452399E-06
5.109949E+03	7.277811E-04	9.389096E-06
5.119949E+03	7.290209E-04	9.329008E-06
5.129949E+03	7.303217E-04	9.269861E-06
5.139949E+03	7.319118E-04	9.214531E-06
5.149949E+03	7.336097E-04	9.160687E-06
5.159948E+03	7.355355E-04	9.109810E-06
5.169948E+03	7.377035E-04	9.062031E-06
5.179948E+03	7.401246E-04	9.017438E-06
5.189948E+03	7.428058E-04	8.976069E-06
5.199948E+03	7.457498E-04	8.937911E-06
5.209948E+03	7.489562E-04	8.902914E-06
5.219948E+03	7.524208E-04	8.870987E-06
5.229948E+03	7.560332E-04	8.840799E-06
5.239948E+03	7.599880E-04	8.814605E-06
5.249948E+03	7.641690E-04	8.791011E-06
5.259947E+03	7.684566E-04	8.768631E-06
5.269947E+03	7.730392E-04	8.749612E-06
5.279947E+03	7.776884E-04	8.731355E-06
5.289947E+03	7.824851E-04	8.714793E-06
5.299947E+03	7.874051E-04	8.699668E-06
5.309947E+03	7.924222E-04	8.685714E-06
5.319947E+03	7.975086E-04	8.672657E-06
5.329947E+03	8.026351E-04	8.660220E-06
5.339947E+03	8.077706E-04	8.648120E-06
5.349947E+03	8.128827E-04	8.636068E-06
5.359946E+03	8.179370E-04	8.623769E-06
5.369946E+03	8.227889E-04	8.609785E-06
5.379946E+03	8.276177E-04	8.596091E-06
5.389946E+03	8.321663E-04	8.580102E-06
5.399946E+03	8.366122E-04	8.563764E-06
5.409946E+03	8.406940E-04	8.544507E-06
5.419946E+03	8.444778E-04	8.523139E-06
5.429946E+03	8.479201E-04	8.499350E-06
5.439946E+03	8.509769E-04	8.472833E-06
5.449946E+03	8.536052E-04	8.443298E-06
5.459945E+03	8.557623E-04	8.410467E-06
5.469945E+03	8.574076E-04	8.374085E-06
5.479945E+03	8.583935E-04	8.332864E-06
5.489945E+03	8.589122E-04	8.288822E-06
5.499945E+03	8.587193E-04	8.239733E-06
5.509945E+03	8.580237E-04	8.187746E-06
5.519945E+03	8.566001E-04	8.130831E-06
5.529945E+03	8.545637E-04	8.070213E-06
5.539945E+03	8.519271E-04	8.006097E-06
5.549945E+03	8.487108E-04	7.938698E-06
5.559944E+03	8.449429E-04	7.868285E-06
5.569944E+03	8.406592E-04	7.795185E-06
5.579944E+03	8.359033E-04	7.719782E-06
5.589944E+03	8.306199E-04	7.641539E-06
5.599944E+03	8.250782E-04	7.562896E-06
5.609944E+03	8.191306E-04	7.482447E-06
5.619944E+03	8.129510E-04	7.401725E-06
5.629944E+03	8.066121E-04	7.321325E-06
5.639944E+03	8.001898E-04	7.241861E-06
5.649944E+03	7.937628E-04	7.163963E-06
5.659943E+03	7.874112E-04	7.088270E-06
5.669943E+03	7.812156E-04	7.015418E-06
5.679943E+03	7.752562E-04	6.946036E-06
5.689943E+03	7.695147E-04	6.879871E-06
5.699943E+03	7.642607E-04	6.819239E-06
5.709943E+03	7.593739E-04	6.762975E-06
5.719943E+03	7.550180E-04	6.712447E-06
5.729943E+03	7.512541E-04	6.668110E-06
5.739943E+03	7.481373E-04	6.630369E-06
5.749943E+03	7.457148E-04	6.599557E-06
5.759942E+03	7.440265E-04	6.575948E-06
5.769942E+03	7.430110E-04	6.558927E-06
5.779942E+03	7.428743E-04	6.550242E-06
5.789942E+03	7.434448E-04	6.548311E-06
5.799942E+03	7.448168E-04	6.553905E-06
5.809942E+03	7.470754E-04	6.567712E-06
5.819942E+03	7.500197E-04	6.587911E-06
5.829942E+03	7.537164E-04	6.615038E-06
5.839942E+03	7.580380E-04	6.647929E-06
5.849942E+03	7.631286E-04	6.687803E-06
5.859941E+03	7.688470E-04	6.733380E-06
5.869941E+03	7.750449E-04	6.783323E-06
5.879941E+03	7.818539E-04	6.838750E-06
5.889941E+03	7.890240E-04	6.897438E-06
5.899941E+03	7.965897E-04	6.959661E-06
5.909941E+03	8.044922E-04	7.024874E-06
5.919941E+03	8.126761E-04	7.092566E-06
5.929941E+03	8.210905E-04	7.162266E-06
5.939941E+03	8.295907E-04	7.232687E-06
5.949941E+03	8.383404E-04	7.305236E-06
5.959940E+03	8.471095E-04	7.377883E-06
5.969940E+03	8.559809E-04	7.451331E-06
5.979940E+03	8.650511E-04	7.526400E-06
5.989940E+03	8.741139E-04	7.601278E-06
5.999940E+03	8.832847E-04	7.676953E-06
6.009940E+03	8.924778E-04	7.752662E-06
6.019940E+03	9.019369E-04	7.830510E-06
6.029940E+03	9.114839E-04	7.908935E-06
6.039940E+03	9.213815E-04	7.990204E-06
6.049940E+03	9.314591E-04	8.072824E-06
6.059939E+03	9.418814E-04	8.158213E-06
6.069939E+03	9.527059E-04	8.246857E-06
6.079939E+03	9.639937E-04	8.339276E-06
6.089939E+03	9.758067E-04	8.435995E-06
6.099939E+03	9.882083E-04	8.537554E-06
6.109939E+03	1.001142E-03	8.643461E-06
6.119939E+03	1.014911E-03	8.756316E-06
6.129939E+03	1.029337E-03	8.874584E-06
6.139939E+03	1.044602E-03	8.999837E-06
6.149939E+03	1.060771E-03	9.132617E-06
6.159938E+03	1.077906E-03	9.273464E-06
6.169938E+03	1.096071E-03	9.422919E-06
6.179938E+03	1.115327E-03	9.581531E-06
6.189938E+03	1.135606E-03	9.748695E-06
6.199938E+03	1.157237E-03	9.927268E-06
6.209938E+03	1.180015E-03	1.011548E-05
6.219938E+03	1.204139E-03	1.031507E-05
6.229938E+03	1.229676E-03	1.052663E-05
6.239938E+03	1.256693E-03	1.075075E-05
6.249938E+03	1.285258E-03	1.098805E-05
6.259937E+03	1.315282E-03	1.123780E-05
6.269937E+03	1.347139E-03	1.150325E-05
6.279937E+03	1.380575E-03	1.178228E-05
6.289937E+03	1.415973E-03	1.207821E-05
6.299937E+03	1.453052E-03	1.238875E-05
6.309937E+03	1.492019E-03	1.271572E-05
6.319937E+03	1.532902E-03	1.305948E-05
6.329937E+03	1.575529E-03	1.341865E-05
6.339937E+03	1.620254E-03	1.379641E-05
6.349937E+03	1.666860E-03	1.419104E-05
6.359936E+03	1.715072E-03	1.460038E-05
6.369936E+03	1.764969E-03	1.502525E-05
6.379936E+03	1.816389E-03	1.546451E-05
6.389936E+03	1.869114E-03	1.591651E-05
6.399936E+03	1.922867E-03	1.637913E-05
6.409936E+03	1.977301E-03	1.684968E-05
6.419936E+03	2.031999E-03	1.732487E-05
6.429936E+03	2.086223E-03	1.779869E-05
6.439936E+03	2.139897E-03	1.827075E-05
6.449936E+03	2.191893E-03	1.873173E-05
6.459935E+03	2.241768E-03	1.917809E-05
6.469935E+03	2.288792E-03	1.960383E-05
6.479935E+03	2.332206E-03	2.000266E-05
6.489935E+03	2.371245E-03	2.036820E-05
6.499935E+03	2.404881E-03	2.069171E-05
6.509935E+03	2.432977E-03	2.097206E-05
6.519935E+03	2.454336E-03	2.119891E-05
6.529935E+03	2.468705E-03	2.136994E-05
6.539935E+03	2.475662E-03	2.148127E-05
6.549935E+03	2.474915E-03	2.153008E-05
6.559934E+03	2.466319E-03	2.151461E-05
6.569934E+03	2.449899E-03	2.143438E-05
6.579934E+03	2.425844E-03	2.129022E-05
6.589934E+03	2.394224E-03	2.108190E-05
6.599934E+03	2.356103E-03	2.081790E-05
6.609934E+03	2.311548E-03	2.049791E-05
6.619934E+03	2.261564E-03	2.012995E-05
6.629934E+03	2.206943E-03	1.972024E-05
6.639934E+03	2.148521E-03	1.927544E-05
6.649934E+03	2.087144E-03	1.880244E-05
6.659933E+03	2.023409E-03	1.830596E-05
6.669933E+03	1.958597E-03	1.779704E-05
6.679933E+03	1.892986E-03	1.727776E-05
6.689933E+03	1.827709E-03	1.675810E-05
6.699933E+03	1.762932E-03	1.623935E-05
6.709933E+03	1.699404E-03	1.572819E-05
6.719933E+03	1.637566E-03	1.522866E-05
6.729933E+03	1.577785E-03	1.474415E-05
6.739933E+03	1.520173E-03	1.427576E-05
6.749933E+03	1.465314E-03	1.382912E-05
6.759932E+03	1.413019E-03	1.340261E-05
6.769932E+03	1.363730E-03	1.300065E-05
6.779932E+03	1.317181E-03	1.262097E-05
6.789932E+03	1.273557E-03	1.226559E-05
6.799932E+03	1.232844E-03	1.193472E-05
6.809932E+03	1.195004E-03	1.162827E-05
6.819932E+03	1.159978E-03	1.134601E-05
6.829932E+03	1.127690E-03	1.108754E-05
6.839932E+03	1.097926E-03	1.085107E-05
6.849932E+03	1.070728E-03	1.063734E-05
6.859931E+03	1.046121E-03	1.044693E-05
6.869931E+03	1.023755E-03	1.027667E-05
6.879931E+03	1.003656E-03	1.012713E-05
6.889931E+03	9.857239E-04	9.997589E-06
6.899931E+03	9.698628E-04	9.887376E-06
6.909931E+03	9.559786E-04	9.795815E-06
6.919931E+03	9.438707E-04	9.721115E-06
6.929931E+03	9.336771E-04	9.664955E-06
6.939931E+03	9.250949E-04	9.624456E-06
6.949931E+03	9.182671E-04	9.601341E-06
6.959930E+03	9.129037E-04	9.592811E-06
6.969930E+03	9.090457E-04	9.599508E-06
6.979930E+03	9.066295E-04	9.620966E-06
6.989930E+03	9.055955E-04	9.656756E-06
6.999930E+03	9.058879E-04	9.706471E-06
7.009930E+03	9.073469E-04	9.768576E-06
7.019930E+03	9.101384E-04	9.845024E-06
7.029930E+03	9.140007E-04	9.933153E-06
7.039930E+03	9.191063E-04	1.003499E-05
7.049930E+03	9.251956E-04	1.014785E-05
7.059929E+03	9.323367E-04	1.027262E-05
7.069929E+03	9.404892E-04	1.040898E-05
7.079929E+03	9.496131E-04	1.055661E-05
7.089929E+03	9.596676E-04	1.071518E-05
7.099929E+03	9.704941E-04	1.088302E-05
7.109929E+03	9.822763E-04	1.106229E-05
7.119929E+03	9.948501E-04	1.125124E-05
7.129929E+03	1.008040E-03	1.144798E-05
7.139929E+03	1.021902E-03	1.165319E-05
7.149929E+03	1.036365E-03	1.186614E-05
7.159928E+03	1.051478E-03	1.208744E-05
7.169928E+03	1.066904E-03	1.231326E-05
7.179928E+03	1.082668E-03	1.254391E-05
7.189928E+03	1.098530E-03	1.277662E-05
7.199928E+03	1.114631E-03	1.301303E-05
7.209928E+03	1.130713E-03	1.325010E-05
7.219928E+03	1.146497E-03	1.348455E-05
7.229928E+03	1.162111E-03	1.371780E-05
7.239928E+03	1.177122E-03	1.394470E-05
7.249928E+03	1.191512E-03	1.416493E-05
7.259927E+03	1.205124E-03	1.437650E-05
7.269927E+03	1.217803E-03	1.457747E-05
7.279927E+03	1.229401E-03	1.476593E-05
7.289927E+03	1.239782E-03	1.494008E-05
7.299927E+03	1.248822E-03	1.509829E-05
7.309927E+03	1.256418E-03	1.523912E-05
7.319927E+03	1.262333E-03	1.535954E-05
7.329927E+03	1.266812E-03	1.546234E-05
7.339927E+03	1.269517E-03	1.554319E-05
7.349927E+03	1.270745E-03	1.560560E-05
7.359926E+03	1.270211E-03	1.564586E-05
7.369926E+03	1.268113E-03	1.566626E-05
7.379926E+03	1.264523E-03	1.566752E-05
7.389926E+03	1.259533E-03	1.565064E-05
7.399926E+03	1.253255E-03	1.561691E-05
7.409926E+03	1.245818E-03	1.556781E-05
7.419926E+03	1.237212E-03	1.550310E-05
7.429926E+03	1.227889E-03	1.542841E-05
7.439926E+03	1.217853E-03	1.534370E-05
7.449926E+03	1.207112E-03	1.524906E-05
7.459925E+03	1.195973E-03	1.514832E-05
7.469925E+03	1.184732E-03	1.504525E-05
7.479925E+03	1.173244E-03	1.493798E-05
7.489925E+03	1.161790E-03	1.483015E-05
7.499925E+03	1.150498E-03	1.472341E-05
7.509925E+03	1.139484E-03	1.461929E-05
7.519925E+03	1.128848E-03	1.451915E-05
7.529925E+03	1.118682E-03	1.442422E-05
7.539925E+03	1.108923E-03	1.433379E-05
7.549925E+03	1.099911E-03	1.425230E-05
7.559924E+03	1.091554E-03	1.417869E-05
7.569924E+03	1.083755E-03	1.411176E-05
7.579924E+03	1.076805E-03	1.405541E-05
7.589924E+03	1.070445E-03	1.400634E-05
7.599924E+03	1.064806E-03	1.396637E-05
7.609924E+03	1.059873E-03	1.393540E-05
7.619924E+03	1.055621E-03	1.391317E-05
7.629924E+03	1.052013E-03	1.389933E-05
7.639924E+03	1.049005E-03	1.389336E-05
7.649924E+03	1.046544E-03	1.389465E-05
7.659923E+03	1.044572E-03	1.390250E-05
7.669923E+03	1.043022E-03	1.391613E-05
7.679923E+03	1.041829E-03	1.393470E-05
7.689923E+03	1.040788E-03	1.395557E-05
7.699923E+03	1.040092E-03	1.398136E-05
7.709923E+03	1.039407E-03	1.400764E-05
7.719923E+03	1.038928E-03	1.403708E-05
7.729923E+03	1.038327E-03	1.406529E-05
7.739923E+03	1.037676E-03	1.409328E-05
7.749923E+03	1.036920E-03	1.412034E-05
7.759922E+03	1.036014E-03	1.414586E-05
