#wls	flux	fluxerr
1.599984E+03	1.295200E-06	6.043053E-08
1.639984E+03	1.250274E-06	5.815452E-08
1.679983E+03	1.202172E-06	5.573962E-08
1.719983E+03	1.152021E-06	5.323978E-08
1.759982E+03	1.099263E-06	5.063078E-08
1.799982E+03	1.044641E-06	4.794837E-08
1.839982E+03	9.877213E-07	4.517428E-08
1.879981E+03	9.272989E-07	4.225530E-08
1.919981E+03	8.640505E-07	3.922460E-08
1.959980E+03	7.981258E-07	3.609115E-08
1.999980E+03	7.317544E-07	3.295758E-08
2.039980E+03	6.685809E-07	2.998843E-08
2.079979E+03	6.147042E-07	2.745513E-08
2.119979E+03	5.769145E-07	2.565503E-08
2.159978E+03	5.603603E-07	2.480715E-08
2.199978E+03	5.659553E-07	2.493924E-08
2.239978E+03	5.912596E-07	2.593059E-08
2.279977E+03	6.321734E-07	2.758946E-08
2.319977E+03	6.853588E-07	2.976019E-08
2.359976E+03	7.487983E-07	3.234667E-08
2.399976E+03	8.231906E-07	3.537093E-08
2.439976E+03	9.107850E-07	3.892026E-08
2.479975E+03	1.016202E-06	4.318012E-08
2.519975E+03	1.146563E-06	4.843671E-08
2.559974E+03	1.313187E-06	5.514449E-08
2.599974E+03	1.533188E-06	6.398734E-08
2.639974E+03	1.836318E-06	7.615379E-08
2.679973E+03	2.271703E-06	9.359653E-08
2.719973E+03	2.903174E-06	1.188127E-07
2.759972E+03	3.785634E-06	1.538598E-07
2.799972E+03	4.912840E-06	1.982566E-07
2.839972E+03	6.156625E-06	2.466358E-07
2.879971E+03	7.276488E-06	2.893079E-07
2.919971E+03	8.032778E-06	3.169083E-07
2.959970E+03	8.319390E-06	3.256040E-07
2.999970E+03	8.218878E-06	3.190360E-07
3.009970E+03	8.158243E-06	3.160201E-07
3.019970E+03	8.087213E-06	3.126088E-07
3.029970E+03	8.014858E-06	3.091547E-07
3.039970E+03	7.939484E-06	3.055929E-07
3.049970E+03	7.867558E-06	3.021727E-07
3.059969E+03	7.805137E-06	2.991254E-07
3.069969E+03	7.749499E-06	2.963445E-07
3.079969E+03	7.707907E-06	2.941057E-07
3.089969E+03	7.679637E-06	2.923778E-07
3.099969E+03	7.663730E-06	2.911211E-07
3.109969E+03	7.666470E-06	2.905705E-07
3.119969E+03	7.683852E-06	2.905699E-07
3.129969E+03	7.721629E-06	2.913326E-07
3.139969E+03	7.777846E-06	2.927795E-07
3.149969E+03	7.850289E-06	2.948226E-07
3.159968E+03	7.944141E-06	2.976520E-07
3.169968E+03	8.056812E-06	3.011648E-07
3.179968E+03	8.185430E-06	3.052490E-07
3.189968E+03	8.334797E-06	3.100788E-07
3.199968E+03	8.501760E-06	3.155314E-07
3.209968E+03	8.685633E-06	3.215766E-07
3.219968E+03	8.882831E-06	3.280770E-07
3.229968E+03	9.098150E-06	3.352056E-07
3.239968E+03	9.328018E-06	3.428258E-07
3.249968E+03	9.571701E-06	3.509065E-07
3.259967E+03	9.828543E-06	3.594196E-07
3.269967E+03	1.009801E-05	3.683413E-07
3.279967E+03	1.037963E-05	3.776515E-07
3.289967E+03	1.067309E-05	3.873339E-07
3.299967E+03	1.097462E-05	3.972490E-07
3.309967E+03	1.129065E-05	4.076263E-07
3.319967E+03	1.161740E-05	4.183250E-07
3.329967E+03	1.195424E-05	4.293191E-07
3.339967E+03	1.230026E-05	4.405726E-07
3.349967E+03	1.265811E-05	4.521772E-07
3.359966E+03	1.301837E-05	4.637933E-07
3.369966E+03	1.338271E-05	4.754788E-07
3.379966E+03	1.374847E-05	4.871383E-07
3.389966E+03	1.411251E-05	4.986599E-07
3.399966E+03	1.447130E-05	5.099188E-07
3.409966E+03	1.482091E-05	5.207783E-07
3.419966E+03	1.515722E-05	5.310962E-07
3.429966E+03	1.548075E-05	5.408942E-07
3.439966E+03	1.577811E-05	5.497090E-07
3.449966E+03	1.605020E-05	5.575794E-07
3.459965E+03	1.629388E-05	5.644042E-07
3.469965E+03	1.650680E-05	5.701103E-07
3.479965E+03	1.669256E-05	5.748303E-07
3.489965E+03	1.684077E-05	5.782161E-07
3.499965E+03	1.695711E-05	5.804730E-07
3.509965E+03	1.704838E-05	5.818431E-07
3.519965E+03	1.710696E-05	5.820743E-07
3.529965E+03	1.714110E-05	5.814569E-07
3.539965E+03	1.715948E-05	5.802921E-07
3.549965E+03	1.715558E-05	5.783647E-07
3.559964E+03	1.714310E-05	5.761422E-07
3.569964E+03	1.711508E-05	5.733939E-07
3.579964E+03	1.707927E-05	5.703841E-07
3.589964E+03	1.704279E-05	5.673522E-07
3.599964E+03	1.699709E-05	5.640146E-07
3.609964E+03	1.695305E-05	5.607341E-07
3.619964E+03	1.690104E-05	5.571933E-07
3.629964E+03	1.685082E-05	5.537148E-07
3.639964E+03	1.679203E-05	5.499596E-07
3.649964E+03	1.673378E-05	5.462273E-07
3.659963E+03	1.666566E-05	5.421794E-07
3.669963E+03	1.659695E-05	5.381202E-07
3.679963E+03	1.652296E-05	5.338984E-07
3.689963E+03	1.644002E-05	5.293975E-07
3.699963E+03	1.635978E-05	5.249949E-07
3.709963E+03	1.627650E-05	5.205057E-07
3.719963E+03	1.620481E-05	5.163977E-07
3.729963E+03	1.614718E-05	5.127455E-07
3.739963E+03	1.610812E-05	5.096869E-07
3.749963E+03	1.610786E-05	5.078538E-07
3.759962E+03	1.615482E-05	5.074972E-07
3.769962E+03	1.625934E-05	5.089250E-07
3.779962E+03	1.644741E-05	5.129276E-07
3.789962E+03	1.673328E-05	5.199190E-07
3.799962E+03	1.713783E-05	5.305115E-07
3.809962E+03	1.767933E-05	5.452270E-07
3.819962E+03	1.839333E-05	5.651092E-07
3.829962E+03	1.930381E-05	5.908318E-07
3.839962E+03	2.044295E-05	6.233054E-07
3.849962E+03	2.184644E-05	6.635330E-07
3.859961E+03	2.354705E-05	7.124110E-07
3.869961E+03	2.559978E-05	7.714899E-07
3.879961E+03	2.804338E-05	8.418058E-07
3.889961E+03	3.092344E-05	9.245798E-07
3.899961E+03	3.428398E-05	1.020964E-06
3.909961E+03	3.816432E-05	1.131948E-06
3.919961E+03	4.258356E-05	1.257906E-06
3.929961E+03	4.758149E-05	1.399809E-06
3.939961E+03	5.314823E-05	1.557151E-06
3.949961E+03	5.926326E-05	1.729124E-06
3.959960E+03	6.588234E-05	1.914234E-06
3.969960E+03	7.293658E-05	2.110297E-06
3.979960E+03	8.033369E-05	2.314489E-06
3.989960E+03	8.796168E-05	2.523462E-06
3.999960E+03	9.569408E-05	2.733510E-06
4.009960E+03	1.033969E-04	2.940778E-06
4.019960E+03	1.109362E-04	3.141472E-06
4.029960E+03	1.181851E-04	3.332072E-06
4.039960E+03	1.250298E-04	3.509485E-06
4.049960E+03	1.313399E-04	3.670208E-06
4.059959E+03	1.371092E-04	3.814266E-06
4.069959E+03	1.422524E-04	3.939492E-06
4.079959E+03	1.467403E-04	4.045318E-06
4.089959E+03	1.505656E-04	4.131781E-06
4.099959E+03	1.537413E-04	4.199487E-06
4.109959E+03	1.562985E-04	4.249523E-06
4.119959E+03	1.582835E-04	4.283381E-06
4.129959E+03	1.597560E-04	4.302880E-06
4.139959E+03	1.607854E-04	4.310082E-06
4.149959E+03	1.614905E-04	4.308318E-06
4.159958E+03	1.618677E-04	4.297626E-06
4.169958E+03	1.620415E-04	4.281416E-06
4.179958E+03	1.620931E-04	4.261904E-06
4.189958E+03	1.621010E-04	4.241193E-06
4.199958E+03	1.621394E-04	4.221234E-06
4.209958E+03	1.622773E-04	4.203800E-06
4.219958E+03	1.625776E-04	4.190475E-06
4.229958E+03	1.630972E-04	4.182658E-06
4.239958E+03	1.638865E-04	4.181549E-06
4.249958E+03	1.649893E-04	4.188157E-06
4.259957E+03	1.664426E-04	4.203291E-06
4.269957E+03	1.682758E-04	4.227553E-06
4.279957E+03	1.705101E-04	4.261324E-06
4.289957E+03	1.731579E-04	4.304756E-06
4.299957E+03	1.762218E-04	4.357747E-06
4.309957E+03	1.796940E-04	4.419946E-06
4.319957E+03	1.835567E-04	4.490752E-06
4.329957E+03	1.877819E-04	4.569327E-06
4.339957E+03	1.923331E-04	4.654648E-06
4.349957E+03	1.971681E-04	4.745569E-06
4.359956E+03	2.022427E-04	4.840915E-06
4.369956E+03	2.075160E-04	4.939621E-06
4.379956E+03	2.130099E-04	5.042124E-06
4.389956E+03	2.186043E-04	5.145511E-06
4.399956E+03	2.243262E-04	5.250373E-06
4.409956E+03	2.301438E-04	5.355921E-06
4.419956E+03	2.360481E-04	5.461909E-06
4.429956E+03	2.420535E-04	5.568635E-06
4.439956E+03	2.481964E-04	5.676890E-06
4.449956E+03	2.545320E-04	5.787880E-06
4.459955E+03	2.611302E-04	5.903106E-06
4.469955E+03	2.680695E-04	6.024234E-06
4.479955E+03	2.754318E-04	6.152955E-06
4.489955E+03	2.832944E-04	6.290821E-06
4.499955E+03	2.917230E-04	6.439087E-06
4.509955E+03	3.007639E-04	6.598545E-06
4.519955E+03	3.104365E-04	6.769378E-06
4.529955E+03	3.207281E-04	6.951059E-06
4.539955E+03	3.315089E-04	7.140557E-06
4.549955E+03	3.428485E-04	7.339169E-06
4.559954E+03	3.545461E-04	7.542408E-06
4.569954E+03	3.664476E-04	7.746883E-06
4.579954E+03	3.783780E-04	7.948839E-06
4.589954E+03	3.901514E-04	8.144400E-06
4.599954E+03	4.015851E-04	8.329845E-06
4.609954E+03	4.125111E-04	8.501860E-06
4.619954E+03	4.227874E-04	8.657740E-06
4.629954E+03	4.323057E-04	8.795543E-06
4.639954E+03	4.408907E-04	8.912034E-06
4.649954E+03	4.487171E-04	9.011087E-06
4.659953E+03	4.556865E-04	9.091044E-06
4.669953E+03	4.618351E-04	9.152963E-06
4.679953E+03	4.672265E-04	9.198421E-06
4.689953E+03	4.719462E-04	9.229389E-06
4.699953E+03	4.759863E-04	9.245981E-06
4.709953E+03	4.796856E-04	9.255001E-06
4.719953E+03	4.830612E-04	9.256912E-06
4.729953E+03	4.862478E-04	9.254407E-06
4.739953E+03	4.892713E-04	9.248049E-06
4.749953E+03	4.924976E-04	9.244773E-06
4.759952E+03	4.959491E-04	9.244921E-06
4.769952E+03	4.996366E-04	9.248603E-06
4.779952E+03	5.039007E-04	9.261991E-06
4.789952E+03	5.087163E-04	9.284407E-06
4.799952E+03	5.140283E-04	9.314639E-06
4.809952E+03	5.201026E-04	9.357283E-06
4.819952E+03	5.266983E-04	9.407745E-06
4.829952E+03	5.340150E-04	9.469364E-06
4.839952E+03	5.418582E-04	9.538446E-06
4.849952E+03	5.499951E-04	9.610726E-06
4.859951E+03	5.585398E-04	9.688075E-06
4.869951E+03	5.670871E-04	9.763370E-06
4.879951E+03	5.757294E-04	9.838197E-06
4.889951E+03	5.840454E-04	9.905385E-06
4.899951E+03	5.920115E-04	9.964672E-06
4.909951E+03	5.996296E-04	1.001623E-05
4.919951E+03	6.065219E-04	1.005396E-05
4.929951E+03	6.128784E-04	1.008125E-05
4.939951E+03	6.183701E-04	1.009297E-05
4.949951E+03	6.231006E-04	1.009113E-05
4.959950E+03	6.271929E-04	1.007801E-05
4.969950E+03	6.303575E-04	1.004926E-05
4.979950E+03	6.327242E-04	1.000727E-05
4.989950E+03	6.342780E-04	9.952153E-06
4.999950E+03	6.351391E-04	9.886079E-06
5.009950E+03	6.350019E-04	9.804608E-06
5.019950E+03	6.339891E-04	9.710008E-06
5.029950E+03	6.320998E-04	9.602602E-06
5.039950E+03	6.293626E-04	9.483161E-06
5.049950E+03	6.258470E-04	9.353050E-06
5.059949E+03	6.216713E-04	9.214319E-06
5.069949E+03	6.170032E-04	9.069687E-06
5.079949E+03	6.120552E-04	8.922442E-06
5.089949E+03	6.070730E-04	8.776247E-06
5.099949E+03	6.023197E-04	8.634897E-06
5.109949E+03	5.980585E-04	8.502061E-06
5.119949E+03	5.945340E-04	8.381021E-06
5.129949E+03	5.919578E-04	8.274483E-06
5.139949E+03	5.904952E-04	8.184416E-06
5.149949E+03	5.902583E-04	8.111986E-06
5.159948E+03	5.911739E-04	8.055786E-06
5.169948E+03	5.934959E-04	8.018869E-06
5.179948E+03	5.970414E-04	7.998328E-06
5.189948E+03	6.017091E-04	7.992432E-06
5.199948E+03	6.072291E-04	7.997281E-06
5.209948E+03	6.136944E-04	8.013845E-06
5.219948E+03	6.207903E-04	8.037783E-06
5.229948E+03	6.281904E-04	8.064744E-06
5.239948E+03	6.359725E-04	8.095676E-06
5.249948E+03	6.436867E-04	8.124836E-06
5.259947E+03	6.514455E-04	8.153714E-06
5.269947E+03	6.588342E-04	8.177213E-06
5.279947E+03	6.660214E-04	8.197592E-06
5.289947E+03	6.726443E-04	8.210550E-06
5.299947E+03	6.787943E-04	8.217433E-06
5.309947E+03	6.845994E-04	8.219989E-06
5.319947E+03	6.897851E-04	8.215118E-06
5.329947E+03	6.945398E-04	8.205294E-06
5.339947E+03	6.989345E-04	8.191539E-06
5.349947E+03	7.032103E-04	8.176827E-06
5.359946E+03	7.071805E-04	8.159101E-06
5.369946E+03	7.111106E-04	8.141555E-06
5.379946E+03	7.151205E-04	8.125628E-06
5.389946E+03	7.193234E-04	8.112647E-06
5.399946E+03	7.238193E-04	8.103757E-06
5.409946E+03	7.286886E-04	8.099855E-06
5.419946E+03	7.339877E-04	8.101554E-06
5.429946E+03	7.397444E-04	8.109141E-06
5.439946E+03	7.459546E-04	8.122556E-06
5.449946E+03	7.524212E-04	8.139661E-06
5.459945E+03	7.593739E-04	8.162964E-06
5.469945E+03	7.665265E-04	8.189409E-06
5.479945E+03	7.736938E-04	8.217091E-06
5.489945E+03	7.804673E-04	8.241797E-06
5.499945E+03	7.869112E-04	8.264371E-06
5.509945E+03	7.925334E-04	8.279827E-06
5.519945E+03	7.974777E-04	8.289883E-06
5.529945E+03	8.012070E-04	8.289172E-06
5.539945E+03	8.038373E-04	8.279108E-06
5.549945E+03	8.048395E-04	8.254384E-06
5.559944E+03	8.043804E-04	8.216860E-06
5.569944E+03	8.020115E-04	8.162081E-06
5.579944E+03	7.978348E-04	8.091209E-06
5.589944E+03	7.920019E-04	8.005869E-06
5.599944E+03	7.842213E-04	7.903171E-06
5.609944E+03	7.747275E-04	7.785528E-06
5.619944E+03	7.636147E-04	7.653889E-06
5.629944E+03	7.509912E-04	7.509321E-06
5.639944E+03	7.369737E-04	7.352948E-06
5.649944E+03	7.216872E-04	7.185951E-06
5.659943E+03	7.052728E-04	7.009654E-06
5.669943E+03	6.878978E-04	6.825624E-06
5.679943E+03	6.697707E-04	6.635818E-06
5.689943E+03	6.511533E-04	6.442709E-06
5.699943E+03	6.323694E-04	6.249372E-06
5.709943E+03	6.136825E-04	6.058274E-06
5.719943E+03	5.957898E-04	5.876157E-06
5.729943E+03	5.790507E-04	5.706422E-06
5.739943E+03	5.638620E-04	5.552838E-06
5.749943E+03	5.509671E-04	5.422591E-06
5.759942E+03	5.406328E-04	5.318182E-06
5.769942E+03	5.335351E-04	5.246145E-06
5.779942E+03	5.298607E-04	5.208213E-06
5.789942E+03	5.301648E-04	5.209759E-06
5.799942E+03	5.345009E-04	5.251234E-06
5.809942E+03	5.431534E-04	5.335374E-06
5.819942E+03	5.563067E-04	5.463942E-06
5.829942E+03	5.736860E-04	5.634202E-06
5.839942E+03	5.951888E-04	5.845120E-06
5.849942E+03	6.204219E-04	6.092806E-06
5.859941E+03	6.487900E-04	6.371393E-06
5.869941E+03	6.794907E-04	6.672977E-06
5.879941E+03	7.115347E-04	6.987814E-06
5.889941E+03	7.437923E-04	7.304778E-06
5.899941E+03	7.750687E-04	7.612097E-06
5.909941E+03	8.041989E-04	7.898288E-06
5.919941E+03	8.301487E-04	8.153147E-06
5.929941E+03	8.519352E-04	8.366976E-06
5.939941E+03	8.693660E-04	8.537842E-06
5.949941E+03	8.820633E-04	8.661996E-06
5.959940E+03	8.899450E-04	8.738601E-06
5.969940E+03	8.937272E-04	8.774667E-06
5.979940E+03	8.936310E-04	8.772349E-06
5.989940E+03	8.907255E-04	8.742134E-06
5.999940E+03	8.854465E-04	8.688298E-06
6.009940E+03	8.787759E-04	8.620478E-06
6.019940E+03	8.716584E-04	8.547940E-06
6.029940E+03	8.644518E-04	8.474194E-06
6.039940E+03	8.579420E-04	8.406940E-06
6.049940E+03	8.526321E-04	8.351097E-06
6.059939E+03	8.489086E-04	8.310435E-06
6.069939E+03	8.472056E-04	8.289179E-06
6.079939E+03	8.473385E-04	8.285492E-06
6.089939E+03	8.493467E-04	8.299725E-06
6.099939E+03	8.535031E-04	8.334511E-06
6.109939E+03	8.594986E-04	8.386788E-06
6.119939E+03	8.671285E-04	8.454517E-06
6.129939E+03	8.761518E-04	8.535313E-06
6.139939E+03	8.863165E-04	8.626689E-06
6.149939E+03	8.972117E-04	8.724622E-06
6.159938E+03	9.089910E-04	8.830586E-06
6.169938E+03	9.211591E-04	8.939756E-06
6.179938E+03	9.339953E-04	9.054838E-06
6.189938E+03	9.471154E-04	9.172101E-06
6.199938E+03	9.609101E-04	9.295330E-06
6.209938E+03	9.750506E-04	9.421345E-06
6.219938E+03	9.897636E-04	9.552345E-06
6.229938E+03	1.005257E-03	9.690338E-06
6.239938E+03	1.021102E-03	9.831206E-06
6.249938E+03	1.037392E-03	9.975860E-06
6.259937E+03	1.053961E-03	1.012274E-05
6.269937E+03	1.070591E-03	1.026978E-05
6.279937E+03	1.087031E-03	1.041464E-05
6.289937E+03	1.103032E-03	1.055499E-05
6.299937E+03	1.118383E-03	1.068888E-05
6.309937E+03	1.132949E-03	1.081512E-05
6.319937E+03	1.146707E-03	1.093360E-05
6.329937E+03	1.159550E-03	1.104339E-05
6.339937E+03	1.172204E-03	1.115153E-05
6.349937E+03	1.184888E-03	1.126018E-05
6.359936E+03	1.197969E-03	1.137292E-05
6.369936E+03	1.212653E-03	1.150126E-05
6.379936E+03	1.229334E-03	1.164903E-05
6.389936E+03	1.249451E-03	1.182990E-05
6.399936E+03	1.273556E-03	1.204914E-05
6.409936E+03	1.303226E-03	1.232173E-05
6.419936E+03	1.339072E-03	1.265352E-05
6.429936E+03	1.382455E-03	1.305746E-05
6.439936E+03	1.434457E-03	1.354391E-05
6.449936E+03	1.496076E-03	1.412248E-05
6.459935E+03	1.568145E-03	1.480129E-05
6.469935E+03	1.651512E-03	1.558871E-05
6.479935E+03	1.745566E-03	1.647944E-05
6.489935E+03	1.849417E-03	1.746567E-05
6.499935E+03	1.961611E-03	1.853433E-05
6.509935E+03	2.077730E-03	1.964446E-05
6.519935E+03	2.191074E-03	2.073343E-05
6.529935E+03	2.291854E-03	2.170923E-05
6.539935E+03	2.372356E-03	2.249902E-05
6.549935E+03	2.432754E-03	2.310438E-05
6.559934E+03	2.471835E-03	2.351348E-05
6.569934E+03	2.488073E-03	2.371121E-05
6.579934E+03	2.481631E-03	2.369820E-05
6.589934E+03	2.451511E-03	2.346360E-05
6.599934E+03	2.399247E-03	2.302030E-05
6.609934E+03	2.327526E-03	2.239207E-05
6.619934E+03	2.238703E-03	2.159956E-05
6.629934E+03	2.137231E-03	2.068378E-05
6.639934E+03	2.027405E-03	1.968460E-05
6.649934E+03	1.913793E-03	1.864498E-05
6.659933E+03	1.799402E-03	1.759324E-05
6.669933E+03	1.687752E-03	1.656315E-05
6.679933E+03	1.581238E-03	1.557794E-05
6.689933E+03	1.481516E-03	1.465398E-05
6.699933E+03	1.389318E-03	1.379880E-05
6.709933E+03	1.305649E-03	1.302288E-05
6.719933E+03	1.230253E-03	1.232431E-05
6.729933E+03	1.162857E-03	1.170105E-05
6.739933E+03	1.102989E-03	1.114908E-05
6.749933E+03	1.049861E-03	1.066118E-05
6.759932E+03	1.003255E-03	1.023582E-05
6.769932E+03	9.621347E-04	9.863102E-06
6.779932E+03	9.262704E-04	9.541301E-06
6.789932E+03	8.947371E-04	9.261470E-06
6.799932E+03	8.673902E-04	9.022628E-06
6.809932E+03	8.434578E-04	8.817235E-06
6.819932E+03	8.227483E-04	8.643709E-06
6.829932E+03	8.049621E-04	8.499310E-06
6.839932E+03	7.900103E-04	8.383479E-06
6.849932E+03	7.773951E-04	8.291295E-06
6.859931E+03	7.671253E-04	8.223171E-06
6.869931E+03	7.590885E-04	8.178223E-06
6.879931E+03	7.531975E-04	8.155824E-06
6.889931E+03	7.493841E-04	8.155540E-06
6.899931E+03	7.475899E-04	8.177034E-06
6.909931E+03	7.477610E-04	8.220011E-06
6.919931E+03	7.498445E-04	8.284173E-06
6.929931E+03	7.536370E-04	8.367547E-06
6.939931E+03	7.593657E-04	8.472917E-06
6.949931E+03	7.668128E-04	8.598127E-06
6.959930E+03	7.757446E-04	8.740798E-06
6.969930E+03	7.863654E-04	8.903451E-06
6.979930E+03	7.982632E-04	9.081644E-06
6.989930E+03	8.116255E-04	9.277693E-06
6.999930E+03	8.260055E-04	9.486669E-06
7.009930E+03	8.415786E-04	9.710723E-06
7.019930E+03	8.578708E-04	9.944516E-06
7.029930E+03	8.748937E-04	1.018825E-05
7.039930E+03	8.926811E-04	1.044241E-05
7.049930E+03	9.107693E-04	1.070161E-05
7.059929E+03	9.292409E-04	1.096684E-05
7.069929E+03	9.480541E-04	1.123761E-05
7.079929E+03	9.672250E-04	1.151413E-05
7.089929E+03	9.868379E-04	1.179741E-05
7.099929E+03	1.007054E-03	1.208940E-05
7.109929E+03	1.028114E-03	1.239306E-05
7.119929E+03	1.050338E-03	1.271234E-05
7.129929E+03	1.074122E-03	1.305215E-05
7.139929E+03	1.099926E-03	1.341829E-05
7.149929E+03	1.128258E-03	1.381723E-05
7.159928E+03	1.159432E-03	1.425311E-05
7.169928E+03	1.194437E-03	1.473847E-05
7.179928E+03	1.233561E-03	1.527736E-05
7.189928E+03	1.276992E-03	1.587257E-05
7.199928E+03	1.325525E-03	1.653453E-05
7.209928E+03	1.378764E-03	1.725887E-05
7.219928E+03	1.437088E-03	1.805087E-05
7.229928E+03	1.499459E-03	1.889800E-05
7.239928E+03	1.565564E-03	1.979672E-05
7.249928E+03	1.633463E-03	2.072273E-05
7.259927E+03	1.701645E-03	2.165697E-05
7.269927E+03	1.767889E-03	2.257094E-05
7.279927E+03	1.830008E-03	2.343634E-05
7.289927E+03	1.884597E-03	2.420885E-05
7.299927E+03	1.929381E-03	2.485817E-05
7.309927E+03	1.962059E-03	2.535341E-05
7.319927E+03	1.980902E-03	2.567075E-05
7.329927E+03	1.984937E-03	2.579600E-05
7.339927E+03	1.974053E-03	2.572608E-05
7.349927E+03	1.948989E-03	2.546911E-05
7.359926E+03	1.911227E-03	2.504303E-05
7.369926E+03	1.862795E-03	2.447323E-05
7.379926E+03	1.805675E-03	2.378482E-05
7.389926E+03	1.743007E-03	2.301849E-05
7.399926E+03	1.676708E-03	2.219915E-05
7.409926E+03	1.608788E-03	2.135325E-05
7.419926E+03	1.540593E-03	2.049864E-05
7.429926E+03	1.474014E-03	1.966062E-05
7.439926E+03	1.409352E-03	1.884350E-05
7.449926E+03	1.347767E-03	1.806309E-05
7.459925E+03	1.289051E-03	1.731698E-05
7.469925E+03	1.233892E-03	1.661479E-05
7.479925E+03	1.181841E-03	1.595088E-05
7.489925E+03	1.133381E-03	1.533211E-05
7.499925E+03	1.088035E-03	1.475244E-05
7.509925E+03	1.046042E-03	1.421545E-05
7.519925E+03	1.007435E-03	1.372193E-05
7.529925E+03	9.724754E-04	1.327581E-05
7.539925E+03	9.408626E-04	1.287337E-05
7.549925E+03	9.129128E-04	1.251928E-05
7.559924E+03	8.887452E-04	1.221555E-05
7.569924E+03	8.684703E-04	1.196408E-05
7.579924E+03	8.521757E-04	1.176647E-05
7.589924E+03	8.399136E-04	1.162386E-05
7.599924E+03	8.316897E-04	1.153672E-05
7.609924E+03	8.274513E-04	1.150476E-05
7.619924E+03	8.270781E-04	1.152672E-05
7.629924E+03	8.303714E-04	1.160024E-05
7.639924E+03	8.370440E-04	1.172171E-05
7.649924E+03	8.465430E-04	1.188376E-05
7.659923E+03	8.587278E-04	1.208477E-05
7.669923E+03	8.728544E-04	1.231459E-05
7.679923E+03	8.882658E-04	1.256420E-05
7.689923E+03	9.040618E-04	1.282106E-05
7.699923E+03	9.198610E-04	1.307988E-05
7.709923E+03	9.345618E-04	1.332504E-05
7.719923E+03	9.478642E-04	1.355220E-05
7.729923E+03	9.590024E-04	1.375032E-05
7.739923E+03	9.673315E-04	1.390994E-05
7.749923E+03	9.729501E-04	1.403222E-05
7.759922E+03	9.753341E-04	1.410931E-05
