#wls	flux	fluxerr
1.590410E+03	1.380254E-03	1.734168E-04
1.630170E+03	1.375996E-03	1.712289E-04
1.669930E+03	1.370877E-03	1.689183E-04
1.709691E+03	1.365208E-03	1.665264E-04
1.749451E+03	1.359208E-03	1.640821E-04
1.789211E+03	1.353002E-03	1.616021E-04
1.828971E+03	1.347020E-03	1.591383E-04
1.868732E+03	1.341590E-03	1.567289E-04
1.908492E+03	1.336846E-03	1.543874E-04
1.948252E+03	1.333216E-03	1.521607E-04
1.988012E+03	1.331027E-03	1.500813E-04
2.027773E+03	1.330604E-03	1.481802E-04
2.067533E+03	1.332372E-03	1.464971E-04
2.107293E+03	1.336564E-03	1.450480E-04
2.147053E+03	1.343718E-03	1.438808E-04
2.186814E+03	1.354212E-03	1.430225E-04
2.226574E+03	1.368466E-03	1.425021E-04
2.266334E+03	1.386927E-03	1.423490E-04
2.306094E+03	1.410344E-03	1.426198E-04
2.345854E+03	1.438792E-03	1.432990E-04
2.385615E+03	1.472901E-03	1.444251E-04
2.425375E+03	1.512912E-03	1.459945E-04
2.465135E+03	1.559676E-03	1.480599E-04
2.504895E+03	1.613776E-03	1.506433E-04
2.544656E+03	1.676213E-03	1.538009E-04
2.584416E+03	1.747986E-03	1.575823E-04
2.624176E+03	1.830213E-03	1.620408E-04
2.663936E+03	1.923996E-03	1.672212E-04
2.703697E+03	2.030118E-03	1.731334E-04
2.743457E+03	2.149392E-03	1.797849E-04
2.783217E+03	2.282819E-03	1.871933E-04
2.822977E+03	2.431506E-03	1.953784E-04
2.862738E+03	2.596435E-03	2.043434E-04
2.902498E+03	2.778853E-03	2.141057E-04
2.942258E+03	2.979703E-03	2.246523E-04
2.982018E+03	3.200161E-03	2.359771E-04
2.991958E+03	3.258372E-03	2.389203E-04
3.001899E+03	3.317813E-03	2.419044E-04
3.011839E+03	3.378593E-03	2.449358E-04
3.021779E+03	3.440591E-03	2.480038E-04
3.031719E+03	3.503917E-03	2.511147E-04
3.041659E+03	3.568446E-03	2.542580E-04
3.051599E+03	3.634286E-03	2.574396E-04
3.061539E+03	3.701430E-03	2.606572E-04
3.071479E+03	3.769748E-03	2.639001E-04
3.081419E+03	3.839230E-03	2.671658E-04
3.091359E+03	3.909983E-03	2.704603E-04
3.101299E+03	3.981997E-03	2.737810E-04
3.111239E+03	4.055137E-03	2.771172E-04
3.121179E+03	4.129512E-03	2.804745E-04
3.131119E+03	4.204988E-03	2.838422E-04
3.141059E+03	4.281549E-03	2.872178E-04
3.150999E+03	4.359305E-03	2.906069E-04
3.160940E+03	4.438118E-03	2.939989E-04
3.170880E+03	4.517974E-03	2.973912E-04
3.180820E+03	4.598859E-03	3.007815E-04
3.190760E+03	4.680759E-03	3.041673E-04
3.200700E+03	4.763660E-03	3.075463E-04
3.210640E+03	4.847548E-03	3.109161E-04
3.220580E+03	4.932288E-03	3.142667E-04
3.230520E+03	5.017994E-03	3.176040E-04
3.240460E+03	5.104402E-03	3.209099E-04
3.250400E+03	5.191881E-03	3.242066E-04
3.260340E+03	5.280049E-03	3.274685E-04
3.270280E+03	5.368895E-03	3.306940E-04
3.280220E+03	5.458671E-03	3.338975E-04
3.290160E+03	5.549124E-03	3.370621E-04
3.300100E+03	5.640380E-03	3.401944E-04
3.310040E+03	5.732182E-03	3.432776E-04
3.319981E+03	5.824802E-03	3.463273E-04
3.329921E+03	5.917988E-03	3.493270E-04
3.339861E+03	6.011875E-03	3.522838E-04
3.349801E+03	6.106360E-03	3.551907E-04
3.359741E+03	6.201582E-03	3.580545E-04
3.369681E+03	6.297441E-03	3.608686E-04
3.379621E+03	6.393956E-03	3.636328E-04
3.389561E+03	6.491028E-03	3.663405E-04
3.399501E+03	6.588946E-03	3.690070E-04
3.409441E+03	6.687358E-03	3.716115E-04
3.419381E+03	6.786688E-03	3.741764E-04
3.429321E+03	6.886581E-03	3.766810E-04
3.439261E+03	6.987343E-03	3.791409E-04
3.449201E+03	7.088754E-03	3.815430E-04
3.459141E+03	7.191110E-03	3.839021E-04
3.469081E+03	7.294321E-03	3.862119E-04
3.479022E+03	7.398272E-03	3.884651E-04
3.488962E+03	7.503128E-03	3.906692E-04
3.498902E+03	7.609040E-03	3.928306E-04
3.508842E+03	7.715773E-03	3.949358E-04
3.518782E+03	7.823352E-03	3.969848E-04
3.528722E+03	7.932055E-03	3.989904E-04
3.538662E+03	8.041640E-03	4.009387E-04
3.548602E+03	8.152128E-03	4.028294E-04
3.558542E+03	8.263660E-03	4.046678E-04
3.568482E+03	8.376125E-03	4.064469E-04
3.578422E+03	8.489527E-03	4.081654E-04
3.588362E+03	8.603876E-03	4.098221E-04
3.598302E+03	8.718911E-03	4.114032E-04
3.608242E+03	8.834892E-03	4.129197E-04
3.618182E+03	8.951687E-03	4.143640E-04
3.628122E+03	9.069026E-03	4.157223E-04
3.638062E+03	9.187153E-03	4.170046E-04
3.648003E+03	9.305925E-03	4.182033E-04
3.657943E+03	9.425183E-03	4.193103E-04
3.667883E+03	9.545034E-03	4.203294E-04
3.677823E+03	9.665184E-03	4.212467E-04
3.687763E+03	9.785727E-03	4.220657E-04
3.697703E+03	9.906481E-03	4.227781E-04
3.707643E+03	1.002741E-02	4.233817E-04
3.717583E+03	1.014858E-02	4.238795E-04
3.727523E+03	1.026955E-02	4.242518E-04
3.737463E+03	1.039050E-02	4.245073E-04
3.747403E+03	1.051123E-02	4.246375E-04
3.757343E+03	1.063167E-02	4.246397E-04
3.767283E+03	1.075159E-02	4.245058E-04
3.777223E+03	1.087092E-02	4.242332E-04
3.787163E+03	1.098968E-02	4.238239E-04
3.797103E+03	1.110749E-02	4.232648E-04
3.807044E+03	1.122439E-02	4.225583E-04
3.816984E+03	1.134013E-02	4.216966E-04
3.826924E+03	1.145457E-02	4.206770E-04
3.836864E+03	1.156772E-02	4.195021E-04
3.846804E+03	1.167918E-02	4.181592E-04
3.856744E+03	1.178881E-02	4.166463E-04
3.866684E+03	1.189659E-02	4.149660E-04
3.876624E+03	1.200224E-02	4.131115E-04
3.886564E+03	1.210573E-02	4.110859E-04
3.896504E+03	1.220649E-02	4.088736E-04
3.906444E+03	1.230478E-02	4.064877E-04
3.916384E+03	1.240015E-02	4.039180E-04
3.926324E+03	1.249243E-02	4.011643E-04
3.936264E+03	1.258148E-02	3.982268E-04
3.946204E+03	1.266726E-02	3.951105E-04
3.956144E+03	1.274934E-02	3.918076E-04
3.966085E+03	1.282770E-02	3.883242E-04
3.976025E+03	1.290207E-02	3.846587E-04
3.985965E+03	1.297231E-02	3.808139E-04
3.995905E+03	1.303843E-02	3.767977E-04
4.005845E+03	1.310020E-02	3.726105E-04
4.015785E+03	1.315750E-02	3.682571E-04
4.025725E+03	1.321028E-02	3.637438E-04
4.035665E+03	1.325831E-02	3.590731E-04
4.045605E+03	1.330170E-02	3.542562E-04
4.055545E+03	1.334043E-02	3.493010E-04
4.065485E+03	1.337436E-02	3.442129E-04
4.075425E+03	1.340352E-02	3.390014E-04
4.085365E+03	1.342807E-02	3.336799E-04
4.095305E+03	1.344797E-02	3.282558E-04
4.105245E+03	1.346329E-02	3.227401E-04
4.115185E+03	1.347416E-02	3.171448E-04
4.125125E+03	1.348069E-02	3.114817E-04
4.135066E+03	1.348318E-02	3.057662E-04
4.145006E+03	1.348154E-02	3.000052E-04
4.154946E+03	1.347609E-02	2.942143E-04
4.164886E+03	1.346704E-02	2.884067E-04
4.174826E+03	1.345472E-02	2.825977E-04
4.184766E+03	1.343911E-02	2.767951E-04
4.194706E+03	1.342071E-02	2.710170E-04
4.204646E+03	1.339949E-02	2.652707E-04
4.214586E+03	1.337598E-02	2.595742E-04
4.224526E+03	1.335028E-02	2.539369E-04
4.234466E+03	1.332265E-02	2.483710E-04
4.244406E+03	1.329346E-02	2.428905E-04
4.254346E+03	1.326273E-02	2.375024E-04
4.264286E+03	1.323106E-02	2.322245E-04
4.274226E+03	1.319846E-02	2.270632E-04
4.284166E+03	1.316532E-02	2.220315E-04
4.294107E+03	1.313173E-02	2.171374E-04
4.304047E+03	1.309809E-02	2.123932E-04
4.313987E+03	1.306452E-02	2.078070E-04
4.323927E+03	1.303139E-02	2.033902E-04
4.333867E+03	1.299897E-02	1.991524E-04
4.343807E+03	1.296723E-02	1.950980E-04
4.353747E+03	1.293633E-02	1.912338E-04
4.363687E+03	1.290618E-02	1.875619E-04
4.373627E+03	1.287649E-02	1.840796E-04
4.383567E+03	1.284749E-02	1.807862E-04
4.393507E+03	1.281911E-02	1.776755E-04
4.403447E+03	1.279149E-02	1.747443E-04
4.413387E+03	1.276474E-02	1.719886E-04
4.423327E+03	1.273892E-02	1.694038E-04
4.433267E+03	1.271406E-02	1.669850E-04
4.443207E+03	1.269041E-02	1.647298E-04
4.453148E+03	1.266811E-02	1.626347E-04
4.463088E+03	1.264722E-02	1.606954E-04
4.473028E+03	1.262794E-02	1.589089E-04
4.482968E+03	1.261036E-02	1.572716E-04
4.492908E+03	1.259476E-02	1.557823E-04
4.502848E+03	1.258129E-02	1.544382E-04
4.512788E+03	1.257004E-02	1.532363E-04
4.522728E+03	1.256114E-02	1.521744E-04
4.532668E+03	1.255490E-02	1.512529E-04
4.542608E+03	1.255148E-02	1.504704E-04
4.552548E+03	1.255088E-02	1.498244E-04
4.562488E+03	1.255334E-02	1.493153E-04
4.572428E+03	1.255908E-02	1.489443E-04
4.582368E+03	1.256824E-02	1.487113E-04
4.592308E+03	1.258084E-02	1.486158E-04
4.602248E+03	1.259699E-02	1.486586E-04
4.612189E+03	1.261695E-02	1.488424E-04
4.622129E+03	1.264083E-02	1.491690E-04
4.632069E+03	1.266866E-02	1.496394E-04
4.642009E+03	1.270056E-02	1.502560E-04
4.651949E+03	1.273676E-02	1.510229E-04
4.661889E+03	1.277720E-02	1.519409E-04
4.671829E+03	1.282210E-02	1.530146E-04
4.681769E+03	1.287161E-02	1.542478E-04
4.691709E+03	1.292595E-02	1.556446E-04
4.701649E+03	1.298503E-02	1.571985E-04
4.711589E+03	1.304807E-02	1.588922E-04
4.721529E+03	1.311454E-02	1.607112E-04
4.731469E+03	1.318357E-02	1.626368E-04
4.741409E+03	1.325459E-02	1.646536E-04
4.751349E+03	1.332672E-02	1.667423E-04
4.761289E+03	1.339939E-02	1.688875E-04
4.771229E+03	1.347169E-02	1.710691E-04
4.781170E+03	1.354303E-02	1.732715E-04
4.791110E+03	1.361242E-02	1.754730E-04
4.801050E+03	1.367927E-02	1.776579E-04
4.810990E+03	1.374285E-02	1.798080E-04
4.820930E+03	1.380217E-02	1.819022E-04
4.830870E+03	1.385679E-02	1.839261E-04
4.840810E+03	1.390591E-02	1.858613E-04
4.850750E+03	1.394896E-02	1.876920E-04
4.860690E+03	1.398541E-02	1.894036E-04
4.870630E+03	1.401468E-02	1.909807E-04
4.880570E+03	1.403640E-02	1.924116E-04
4.890510E+03	1.405017E-02	1.936839E-04
4.900450E+03	1.405580E-02	1.947888E-04
4.910390E+03	1.405318E-02	1.957196E-04
4.920330E+03	1.404209E-02	1.964677E-04
4.930270E+03	1.402286E-02	1.970335E-04
4.940211E+03	1.399531E-02	1.974104E-04
4.950151E+03	1.395973E-02	1.975990E-04
4.960091E+03	1.391646E-02	1.976019E-04
4.970031E+03	1.386593E-02	1.974228E-04
4.979971E+03	1.380827E-02	1.970623E-04
4.989911E+03	1.374428E-02	1.965307E-04
4.999851E+03	1.367430E-02	1.958326E-04
5.009791E+03	1.359883E-02	1.949755E-04
5.019731E+03	1.351865E-02	1.939713E-04
5.029671E+03	1.343405E-02	1.928254E-04
5.039611E+03	1.334582E-02	1.915507E-04
5.049551E+03	1.325452E-02	1.901572E-04
5.059491E+03	1.316055E-02	1.886531E-04
5.069431E+03	1.306479E-02	1.870537E-04
5.079371E+03	1.296738E-02	1.853638E-04
5.089311E+03	1.286914E-02	1.835987E-04
5.099252E+03	1.277040E-02	1.817660E-04
5.109192E+03	1.267156E-02	1.798753E-04
5.119132E+03	1.257310E-02	1.779372E-04
5.129072E+03	1.247535E-02	1.759601E-04
5.139012E+03	1.237862E-02	1.739526E-04
5.148952E+03	1.228315E-02	1.719220E-04
5.158892E+03	1.218930E-02	1.698776E-04
5.168832E+03	1.209724E-02	1.678262E-04
5.178772E+03	1.200714E-02	1.657744E-04
5.188712E+03	1.191909E-02	1.637284E-04
5.198652E+03	1.183333E-02	1.616956E-04
5.208592E+03	1.174979E-02	1.596802E-04
5.218532E+03	1.166862E-02	1.576888E-04
5.228472E+03	1.158994E-02	1.557282E-04
5.238412E+03	1.151351E-02	1.538003E-04
5.248352E+03	1.143952E-02	1.519127E-04
5.258292E+03	1.136781E-02	1.500686E-04
5.268233E+03	1.129840E-02	1.482741E-04
5.278173E+03	1.123121E-02	1.465334E-04
5.288113E+03	1.116615E-02	1.448510E-04
5.298053E+03	1.110307E-02	1.432310E-04
5.307993E+03	1.104186E-02	1.416778E-04
5.317933E+03	1.098238E-02	1.401957E-04
5.327873E+03	1.092459E-02	1.387899E-04
5.337813E+03	1.086822E-02	1.374633E-04
5.347753E+03	1.081312E-02	1.362197E-04
5.357693E+03	1.075923E-02	1.350645E-04
5.367633E+03	1.070629E-02	1.339998E-04
5.377573E+03	1.065413E-02	1.330293E-04
5.387513E+03	1.060261E-02	1.321562E-04
5.397453E+03	1.055157E-02	1.313835E-04
5.407393E+03	1.050098E-02	1.307153E-04
5.417333E+03	1.045061E-02	1.301490E-04
5.427274E+03	1.040037E-02	1.296773E-04
5.437214E+03	1.035017E-02	1.292917E-04
5.447154E+03	1.029985E-02	1.289828E-04
5.457094E+03	1.024937E-02	1.287423E-04
5.467034E+03	1.019861E-02	1.285612E-04
5.476974E+03	1.014754E-02	1.284314E-04
5.486914E+03	1.009617E-02	1.283455E-04
5.496854E+03	1.004452E-02	1.282963E-04
5.506794E+03	9.992525E-03	1.282759E-04
5.516734E+03	9.940254E-03	1.282779E-04
5.526674E+03	9.887885E-03	1.282979E-04
5.536614E+03	9.835319E-03	1.283283E-04
5.546554E+03	9.782665E-03	1.283644E-04
5.556494E+03	9.730036E-03	1.284018E-04
5.566434E+03	9.677475E-03	1.284356E-04
5.576374E+03	9.625224E-03	1.284641E-04
5.586315E+03	9.573316E-03	1.284830E-04
5.596255E+03	9.521814E-03	1.284888E-04
5.606195E+03	9.470967E-03	1.284809E-04
5.616135E+03	9.420727E-03	1.284551E-04
5.626075E+03	9.371349E-03	1.284115E-04
5.636015E+03	9.322880E-03	1.283480E-04
5.645955E+03	9.275464E-03	1.282638E-04
5.655895E+03	9.229240E-03	1.281587E-04
5.665835E+03	9.184145E-03	1.280296E-04
5.675775E+03	9.140493E-03	1.278791E-04
5.685715E+03	9.098199E-03	1.277047E-04
5.695655E+03	9.057369E-03	1.275065E-04
5.705595E+03	9.018092E-03	1.272846E-04
5.715535E+03	8.980354E-03	1.270381E-04
5.725475E+03	8.944213E-03	1.267671E-04
5.735415E+03	8.909721E-03	1.264718E-04
5.745356E+03	8.876836E-03	1.261513E-04
5.755296E+03	8.845573E-03	1.258056E-04
5.765236E+03	8.815957E-03	1.254353E-04
5.775176E+03	8.787991E-03	1.250403E-04
5.785116E+03	8.761487E-03	1.246185E-04
5.795056E+03	8.736516E-03	1.241711E-04
5.804996E+03	8.712967E-03	1.236974E-04
5.814936E+03	8.690904E-03	1.231989E-04
5.824876E+03	8.670105E-03	1.226735E-04
5.834816E+03	8.650615E-03	1.221228E-04
5.844756E+03	8.632294E-03	1.215462E-04
5.854696E+03	8.615095E-03	1.209444E-04
5.864636E+03	8.598965E-03	1.203184E-04
5.874576E+03	8.583745E-03	1.196678E-04
5.884516E+03	8.569390E-03	1.189941E-04
5.894456E+03	8.555923E-03	1.182997E-04
5.904396E+03	8.543112E-03	1.175841E-04
5.914337E+03	8.530895E-03	1.168492E-04
5.924277E+03	8.519301E-03	1.160983E-04
5.934217E+03	8.508193E-03	1.153330E-04
5.944157E+03	8.497510E-03	1.145560E-04
5.954097E+03	8.487103E-03	1.137691E-04
5.964037E+03	8.477113E-03	1.129785E-04
5.973977E+03	8.467296E-03	1.121853E-04
5.983917E+03	8.457713E-03	1.113951E-04
5.993857E+03	8.448302E-03	1.106123E-04
6.003797E+03	8.438851E-03	1.098394E-04
6.013737E+03	8.429593E-03	1.090853E-04
6.023677E+03	8.420320E-03	1.083532E-04
6.033617E+03	8.411096E-03	1.076502E-04
6.043557E+03	8.401914E-03	1.069828E-04
6.053497E+03	8.392769E-03	1.063577E-04
6.063437E+03	8.383662E-03	1.057820E-04
6.073378E+03	8.374722E-03	1.052642E-04
6.083318E+03	8.365900E-03	1.048111E-04
6.093258E+03	8.357353E-03	1.044320E-04
6.103198E+03	8.349264E-03	1.041364E-04
6.113138E+03	8.341751E-03	1.039330E-04
6.123078E+03	8.334978E-03	1.038311E-04
6.133018E+03	8.329207E-03	1.038409E-04
6.142958E+03	8.324672E-03	1.039719E-04
6.152898E+03	8.321618E-03	1.042339E-04
6.162838E+03	8.320413E-03	1.046374E-04
6.172778E+03	8.321187E-03	1.051900E-04
6.182718E+03	8.324307E-03	1.058973E-04
6.192658E+03	8.330151E-03	1.067604E-04
6.202598E+03	8.339021E-03	1.077788E-04
6.212538E+03	8.351341E-03	1.089535E-04
6.222478E+03	8.367342E-03	1.102832E-04
6.232419E+03	8.387547E-03	1.117705E-04
6.242359E+03	8.412193E-03	1.134144E-04
6.252299E+03	8.441695E-03	1.152168E-04
6.262239E+03	8.476355E-03	1.171785E-04
6.272179E+03	8.516452E-03	1.193001E-04
6.282119E+03	8.562432E-03	1.215854E-04
6.292059E+03	8.614306E-03	1.240321E-04
6.301999E+03	8.672448E-03	1.266440E-04
6.311939E+03	8.737091E-03	1.294229E-04
6.321879E+03	8.808075E-03	1.323653E-04
6.331819E+03	8.885622E-03	1.354736E-04
6.341759E+03	8.969788E-03	1.387481E-04
6.351699E+03	9.060196E-03	1.421825E-04
6.361639E+03	9.156857E-03	1.457763E-04
6.371579E+03	9.259342E-03	1.495221E-04
6.381519E+03	9.367366E-03	1.534148E-04
6.391459E+03	9.480424E-03	1.574452E-04
6.401400E+03	9.597784E-03	1.615997E-04
6.411340E+03	9.718983E-03	1.658690E-04
6.421280E+03	9.843064E-03	1.702345E-04
6.431220E+03	9.969228E-03	1.746798E-04
6.441160E+03	1.009671E-02	1.791880E-04
6.451100E+03	1.022412E-02	1.837307E-04
6.461040E+03	1.035064E-02	1.882884E-04
6.470980E+03	1.047469E-02	1.928270E-04
6.480920E+03	1.059522E-02	1.973205E-04
6.490860E+03	1.071065E-02	2.017330E-04
6.500800E+03	1.081970E-02	2.060321E-04
6.510740E+03	1.092091E-02	2.101819E-04
6.520680E+03	1.101273E-02	2.141430E-04
6.530620E+03	1.109392E-02	2.178818E-04
6.540560E+03	1.116319E-02	2.213628E-04
6.550500E+03	1.121935E-02	2.245518E-04
6.560441E+03	1.126134E-02	2.274168E-04
6.570381E+03	1.128811E-02	2.299260E-04
6.580321E+03	1.129908E-02	2.320571E-04
6.590261E+03	1.129376E-02	2.337894E-04
6.600201E+03	1.127183E-02	2.351065E-04
6.610141E+03	1.123304E-02	2.359941E-04
6.620081E+03	1.117769E-02	2.364497E-04
6.630021E+03	1.110598E-02	2.364696E-04
6.639961E+03	1.101845E-02	2.360588E-04
6.649901E+03	1.091603E-02	2.352309E-04
6.659841E+03	1.079930E-02	2.339939E-04
6.669781E+03	1.066965E-02	2.323741E-04
6.679721E+03	1.052810E-02	2.303909E-04
6.689661E+03	1.037578E-02	2.280672E-04
6.699601E+03	1.021434E-02	2.254385E-04
6.709541E+03	1.004483E-02	2.225284E-04
6.719482E+03	9.868667E-03	2.193688E-04
6.729422E+03	9.687348E-03	2.159951E-04
6.739362E+03	9.502074E-03	2.124362E-04
6.749302E+03	9.314124E-03	2.087235E-04
6.759242E+03	9.124721E-03	2.048879E-04
6.769182E+03	8.934993E-03	2.009583E-04
6.779122E+03	8.745995E-03	1.969623E-04
6.789062E+03	8.558528E-03	1.929220E-04
6.799002E+03	8.373592E-03	1.888641E-04
6.808942E+03	8.191808E-03	1.848067E-04
6.818882E+03	8.013957E-03	1.807716E-04
6.828822E+03	7.840475E-03	1.767725E-04
6.838762E+03	7.671718E-03	1.728212E-04
6.848702E+03	7.508314E-03	1.689356E-04
6.858642E+03	7.350334E-03	1.651205E-04
6.868582E+03	7.198139E-03	1.613873E-04
6.878523E+03	7.051781E-03	1.577399E-04
6.888463E+03	6.911493E-03	1.541863E-04
6.898403E+03	6.777214E-03	1.507273E-04
6.908343E+03	6.648972E-03	1.473657E-04
6.918283E+03	6.526743E-03	1.441028E-04
6.928223E+03	6.410460E-03	1.409386E-04
6.938163E+03	6.299942E-03	1.378705E-04
6.948103E+03	6.195177E-03	1.348993E-04
6.958043E+03	6.096043E-03	1.320233E-04
6.967983E+03	6.002382E-03	1.292396E-04
6.977923E+03	5.913845E-03	1.265413E-04
6.987863E+03	5.830463E-03	1.239294E-04
6.997803E+03	5.751967E-03	1.213984E-04
7.007743E+03	5.678181E-03	1.189445E-04
7.017683E+03	5.608930E-03	1.165642E-04
7.027623E+03	5.544038E-03	1.142535E-04
7.037563E+03	5.483238E-03	1.120069E-04
7.047504E+03	5.426455E-03	1.098224E-04
7.057444E+03	5.373521E-03	1.076964E-04
7.067384E+03	5.324186E-03	1.056235E-04
7.077324E+03	5.278298E-03	1.036004E-04
7.087264E+03	5.235799E-03	1.016254E-04
7.097204E+03	5.196461E-03	9.969391E-05
7.107144E+03	5.160149E-03	9.780292E-05
7.117084E+03	5.126828E-03	9.595148E-05
7.127024E+03	5.096201E-03	9.413381E-05
7.136964E+03	5.068334E-03	9.235098E-05
7.146904E+03	5.042946E-03	9.059776E-05
7.156844E+03	5.020024E-03	8.887404E-05
7.166784E+03	4.999565E-03	8.717984E-05
7.176724E+03	4.981304E-03	8.551086E-05
7.186664E+03	4.965158E-03	8.386618E-05
7.196604E+03	4.951223E-03	8.224812E-05
7.206545E+03	4.939245E-03	8.065331E-05
7.216485E+03	4.929241E-03	7.908321E-05
7.226425E+03	4.921138E-03	7.753806E-05
7.236365E+03	4.914866E-03	7.601854E-05
7.246305E+03	4.910268E-03	7.452431E-05
7.256245E+03	4.907362E-03	7.305828E-05
7.266185E+03	4.906079E-03	7.162242E-05
7.276125E+03	4.906260E-03	7.021792E-05
7.286065E+03	4.907921E-03	6.884921E-05
7.296005E+03	4.911081E-03	6.752121E-05
7.305945E+03	4.915483E-03	6.623583E-05
7.315885E+03	4.921142E-03	6.499945E-05
7.325825E+03	4.927976E-03	6.381797E-05
7.335765E+03	4.935905E-03	6.269810E-05
7.345705E+03	4.944847E-03	6.164741E-05
7.355645E+03	4.954806E-03	6.067544E-05
7.365586E+03	4.965608E-03	5.979025E-05
7.375526E+03	4.977164E-03	5.900181E-05
7.385466E+03	4.989483E-03	5.832188E-05
7.395406E+03	5.002485E-03	5.776157E-05
7.405346E+03	5.015994E-03	5.733125E-05
7.415286E+03	5.030128E-03	5.704465E-05
7.425226E+03	5.044629E-03	5.691093E-05
7.435166E+03	5.059634E-03	5.694311E-05
7.445106E+03	5.074902E-03	5.714905E-05
7.455046E+03	5.090400E-03	5.753768E-05
7.464986E+03	5.106302E-03	5.811830E-05
7.474926E+03	5.122371E-03	5.888954E-05
7.484866E+03	5.138528E-03	5.984776E-05
7.494806E+03	5.154804E-03	6.098902E-05
7.504746E+03	5.171044E-03	6.230581E-05
7.514686E+03	5.187307E-03	6.379210E-05
7.524627E+03	5.203458E-03	6.543870E-05
7.534567E+03	5.219475E-03	6.723720E-05
7.544507E+03	5.235446E-03	6.918033E-05
7.554447E+03	5.251155E-03	7.125675E-05
7.564387E+03	5.266910E-03	7.346225E-05
7.574327E+03	5.282397E-03	7.578432E-05
7.584267E+03	5.297829E-03	7.821810E-05
7.594207E+03	5.313100E-03	8.075465E-05
7.604147E+03	5.328324E-03	8.338866E-05
7.614087E+03	5.343504E-03	8.611372E-05
7.624027E+03	5.358536E-03	8.892206E-05
7.633967E+03	5.373421E-03	9.180801E-05
7.643907E+03	5.388271E-03	9.476820E-05
7.653847E+03	5.403087E-03	9.779797E-05
7.663787E+03	5.417871E-03	1.008929E-04
7.673727E+03	5.432620E-03	1.040491E-04
7.683667E+03	5.447334E-03	1.072628E-04
7.693608E+03	5.461893E-03	1.105282E-04
7.703548E+03	5.476521E-03	1.138466E-04
7.713488E+03	5.491101E-03	1.172129E-04
