#wls	flux	fluxerr
1.590410E+03	3.056179E-04	2.553052E-05
1.630170E+03	3.172889E-04	2.650116E-05
1.669930E+03	3.296649E-04	2.753025E-05
1.709691E+03	3.425804E-04	2.860394E-05
1.749451E+03	3.561564E-04	2.973227E-05
1.789211E+03	3.704193E-04	3.091740E-05
1.828971E+03	3.853956E-04	3.216151E-05
1.868732E+03	4.011118E-04	3.346675E-05
1.908492E+03	4.175944E-04	3.483528E-05
1.948252E+03	4.349809E-04	3.627851E-05
1.988012E+03	4.530744E-04	3.777996E-05
2.027773E+03	4.721250E-04	3.936043E-05
2.067533E+03	4.920426E-04	4.101232E-05
2.107293E+03	5.128467E-04	4.273719E-05
2.147053E+03	5.345542E-04	4.453638E-05
2.186814E+03	5.573061E-04	4.642156E-05
2.226574E+03	5.809894E-04	4.838323E-05
2.266334E+03	6.056088E-04	5.042170E-05
2.306094E+03	6.311621E-04	5.253670E-05
2.345854E+03	6.576424E-04	5.472757E-05
2.385615E+03	6.851745E-04	5.700460E-05
2.425375E+03	7.135981E-04	5.935437E-05
2.465135E+03	7.428783E-04	6.177387E-05
2.504895E+03	7.731201E-04	6.427176E-05
2.544656E+03	8.041214E-04	6.683112E-05
2.584416E+03	8.358093E-04	6.944581E-05
2.624176E+03	8.680986E-04	7.210869E-05
2.663936E+03	9.010489E-04	7.482461E-05
2.703697E+03	9.345487E-04	7.758424E-05
2.743457E+03	9.683035E-04	8.036305E-05
2.783217E+03	1.002495E-03	8.317606E-05
2.822977E+03	1.036793E-03	8.599582E-05
2.862738E+03	1.071182E-03	8.882102E-05
2.902498E+03	1.105461E-03	9.163494E-05
2.942258E+03	1.139761E-03	9.444838E-05
2.982018E+03	1.173847E-03	9.724198E-05
2.991958E+03	1.182407E-03	9.794312E-05
3.001899E+03	1.190865E-03	9.863583E-05
3.011839E+03	1.199220E-03	9.931976E-05
3.021779E+03	1.207645E-03	1.000094E-04
3.031719E+03	1.216134E-03	1.007042E-04
3.041659E+03	1.224507E-03	1.013892E-04
3.051599E+03	1.232935E-03	1.020786E-04
3.061539E+03	1.241237E-03	1.027575E-04
3.071479E+03	1.249587E-03	1.034402E-04
3.081419E+03	1.257979E-03	1.041263E-04
3.091359E+03	1.266230E-03	1.048005E-04
3.101299E+03	1.274514E-03	1.054773E-04
3.111239E+03	1.282827E-03	1.061564E-04
3.121179E+03	1.291163E-03	1.068372E-04
3.131119E+03	1.299337E-03	1.075046E-04
3.141059E+03	1.307525E-03	1.081728E-04
3.150999E+03	1.315719E-03	1.088416E-04
3.160940E+03	1.323916E-03	1.095103E-04
3.170880E+03	1.332110E-03	1.101787E-04
3.180820E+03	1.340294E-03	1.108461E-04
3.190760E+03	1.348463E-03	1.115122E-04
3.200700E+03	1.356612E-03	1.121764E-04
3.210640E+03	1.364555E-03	1.128235E-04
3.220580E+03	1.372823E-03	1.134973E-04
3.230520E+03	1.380873E-03	1.141529E-04
3.240460E+03	1.388878E-03	1.148047E-04
3.250400E+03	1.397009E-03	1.154668E-04
3.260340E+03	1.405082E-03	1.161239E-04
3.270280E+03	1.413091E-03	1.167755E-04
3.280220E+03	1.421204E-03	1.174357E-04
3.290160E+03	1.429240E-03	1.180893E-04
3.300100E+03	1.437190E-03	1.187357E-04
3.310040E+03	1.445224E-03	1.193889E-04
3.319981E+03	1.453158E-03	1.200337E-04
3.329921E+03	1.461334E-03	1.206984E-04
3.339861E+03	1.469223E-03	1.213391E-04
3.349801E+03	1.477336E-03	1.219983E-04
3.359741E+03	1.485320E-03	1.226467E-04
3.369681E+03	1.493339E-03	1.232978E-04
3.379621E+03	1.501214E-03	1.239368E-04
3.389561E+03	1.509278E-03	1.245914E-04
3.399501E+03	1.517351E-03	1.252465E-04
3.409441E+03	1.525255E-03	1.258876E-04
3.419381E+03	1.533319E-03	1.265417E-04
3.429321E+03	1.541365E-03	1.271942E-04
3.439261E+03	1.549384E-03	1.278444E-04
3.449201E+03	1.557367E-03	1.284914E-04
3.459141E+03	1.565469E-03	1.291481E-04
3.469081E+03	1.573351E-03	1.297865E-04
3.479022E+03	1.581497E-03	1.304465E-04
3.488962E+03	1.589565E-03	1.311001E-04
3.498902E+03	1.597549E-03	1.317464E-04
3.508842E+03	1.605599E-03	1.323982E-04
3.518782E+03	1.613544E-03	1.330411E-04
3.528722E+03	1.621693E-03	1.337007E-04
3.538662E+03	1.629714E-03	1.343496E-04
3.548602E+03	1.637757E-03	1.350002E-04
3.558542E+03	1.645809E-03	1.356514E-04
3.568482E+03	1.653860E-03	1.363024E-04
3.578422E+03	1.661897E-03	1.369521E-04
3.588362E+03	1.669909E-03	1.375996E-04
3.598302E+03	1.678036E-03	1.382564E-04
3.608242E+03	1.685963E-03	1.388967E-04
3.618182E+03	1.693981E-03	1.395442E-04
3.628122E+03	1.702076E-03	1.401980E-04
3.638062E+03	1.710085E-03	1.408447E-04
3.648003E+03	1.718146E-03	1.414954E-04
3.657943E+03	1.726099E-03	1.421371E-04
3.667883E+03	1.734079E-03	1.427809E-04
3.677823E+03	1.742070E-03	1.434255E-04
3.687763E+03	1.750062E-03	1.440700E-04
3.697703E+03	1.758040E-03	1.447133E-04
3.707643E+03	1.765992E-03	1.453543E-04
3.717583E+03	1.773906E-03	1.459921E-04
3.727523E+03	1.781907E-03	1.466369E-04
3.737463E+03	1.789709E-03	1.472651E-04
3.747403E+03	1.797572E-03	1.478984E-04
3.757343E+03	1.805482E-03	1.485352E-04
3.767283E+03	1.813292E-03	1.491639E-04
3.777223E+03	1.821124E-03	1.497942E-04
3.787163E+03	1.828836E-03	1.504145E-04
3.797103E+03	1.836672E-03	1.510448E-04
3.807044E+03	1.844365E-03	1.516633E-04
3.816984E+03	1.852156E-03	1.522898E-04
3.826924E+03	1.859783E-03	1.529027E-04
3.836864E+03	1.867483E-03	1.535214E-04
3.846804E+03	1.875003E-03	1.541252E-04
3.856744E+03	1.882690E-03	1.547427E-04
3.866684E+03	1.890178E-03	1.553438E-04
3.876624E+03	1.897694E-03	1.559469E-04
3.886564E+03	1.905224E-03	1.565513E-04
3.896504E+03	1.912760E-03	1.571559E-04
3.906444E+03	1.920178E-03	1.577508E-04
3.916384E+03	1.927584E-03	1.583446E-04
3.926324E+03	1.934967E-03	1.589364E-04
3.936264E+03	1.942321E-03	1.595257E-04
3.946204E+03	1.949636E-03	1.601118E-04
3.956144E+03	1.956907E-03	1.606942E-04
3.966085E+03	1.964230E-03	1.612807E-04
3.976025E+03	1.971393E-03	1.618540E-04
3.985965E+03	1.978695E-03	1.624387E-04
3.995905E+03	1.985829E-03	1.630094E-04
4.005845E+03	1.992989E-03	1.635823E-04
4.015785E+03	2.000170E-03	1.641568E-04
4.025725E+03	2.007367E-03	1.647325E-04
4.035665E+03	2.014480E-03	1.653013E-04
4.045605E+03	2.021601E-03	1.658706E-04
4.055545E+03	2.028728E-03	1.664405E-04
4.065485E+03	2.035768E-03	1.670030E-04
4.075425E+03	2.042900E-03	1.675731E-04
4.085365E+03	2.049944E-03	1.681359E-04
4.095305E+03	2.057077E-03	1.687059E-04
4.105245E+03	2.064124E-03	1.692688E-04
4.115185E+03	2.071257E-03	1.698388E-04
4.125125E+03	2.078392E-03	1.704088E-04
4.135066E+03	2.085449E-03	1.709724E-04
4.145006E+03	2.092596E-03	1.715433E-04
4.154946E+03	2.099753E-03	1.721150E-04
4.164886E+03	2.107003E-03	1.726943E-04
4.174826E+03	2.114190E-03	1.732684E-04
4.184766E+03	2.121401E-03	1.738444E-04
4.194706E+03	2.128716E-03	1.744289E-04
4.204646E+03	2.135987E-03	1.750097E-04
4.214586E+03	2.143373E-03	1.756000E-04
4.224526E+03	2.150803E-03	1.761938E-04
4.234466E+03	2.158213E-03	1.767860E-04
4.244406E+03	2.165755E-03	1.773889E-04
4.254346E+03	2.173294E-03	1.779916E-04
4.264286E+03	2.180909E-03	1.786004E-04
4.274226E+03	2.188608E-03	1.792161E-04
4.284166E+03	2.196332E-03	1.798339E-04
4.294107E+03	2.204158E-03	1.804600E-04
4.304047E+03	2.212031E-03	1.810899E-04
4.313987E+03	2.220024E-03	1.817296E-04
4.323927E+03	2.228083E-03	1.823748E-04
4.333867E+03	2.236220E-03	1.830263E-04
4.343807E+03	2.244381E-03	1.836798E-04
4.353747E+03	2.252705E-03	1.843465E-04
4.363687E+03	2.261077E-03	1.850173E-04
4.373627E+03	2.269511E-03	1.856930E-04
4.383567E+03	2.278078E-03	1.863797E-04
4.393507E+03	2.286729E-03	1.870733E-04
4.403447E+03	2.295418E-03	1.877699E-04
4.413387E+03	2.304215E-03	1.884755E-04
4.423327E+03	2.313133E-03	1.891909E-04
4.433267E+03	2.322126E-03	1.899124E-04
4.443207E+03	2.331205E-03	1.906410E-04
4.453148E+03	2.340383E-03	1.913778E-04
4.463088E+03	2.349672E-03	1.921236E-04
4.473028E+03	2.358974E-03	1.928705E-04
4.482968E+03	2.368411E-03	1.936284E-04
4.492908E+03	2.377887E-03	1.943896E-04
4.502848E+03	2.387520E-03	1.951636E-04
4.512788E+03	2.397163E-03	1.959384E-04
4.522728E+03	2.406881E-03	1.967194E-04
4.532668E+03	2.416686E-03	1.975076E-04
4.542608E+03	2.426538E-03	1.982995E-04
4.552548E+03	2.436498E-03	1.991004E-04
4.562488E+03	2.446478E-03	1.999028E-04
4.572428E+03	2.456538E-03	2.007119E-04
4.582368E+03	2.466639E-03	2.015243E-04
4.592308E+03	2.476743E-03	2.023371E-04
4.602248E+03	2.486958E-03	2.031589E-04
4.612189E+03	2.497149E-03	2.039788E-04
4.622129E+03	2.507421E-03	2.048054E-04
4.632069E+03	2.517737E-03	2.056355E-04
4.642009E+03	2.528010E-03	2.064623E-04
4.651949E+03	2.538345E-03	2.072940E-04
4.661889E+03	2.548702E-03	2.081277E-04
4.671829E+03	2.559044E-03	2.089602E-04
4.681769E+03	2.569379E-03	2.097921E-04
4.691709E+03	2.579714E-03	2.106242E-04
4.701649E+03	2.590057E-03	2.114569E-04
4.711589E+03	2.600370E-03	2.122872E-04
4.721529E+03	2.610658E-03	2.131156E-04
4.731469E+03	2.620928E-03	2.139426E-04
4.741409E+03	2.631187E-03	2.147686E-04
4.751349E+03	2.641350E-03	2.155871E-04
4.761289E+03	2.651512E-03	2.164053E-04
4.771229E+03	2.661631E-03	2.172203E-04
4.781170E+03	2.671670E-03	2.180288E-04
4.791110E+03	2.681675E-03	2.188345E-04
4.801050E+03	2.691606E-03	2.196345E-04
4.810990E+03	2.701468E-03	2.204287E-04
4.820930E+03	2.711260E-03	2.212175E-04
4.830870E+03	2.720946E-03	2.219976E-04
4.840810E+03	2.730568E-03	2.227726E-04
4.850750E+03	2.740084E-03	2.235391E-04
4.860690E+03	2.749538E-03	2.243007E-04
4.870630E+03	2.758889E-03	2.250539E-04
4.880570E+03	2.768137E-03	2.257989E-04
4.890510E+03	2.777242E-03	2.265323E-04
4.900450E+03	2.786284E-03	2.272607E-04
4.910390E+03	2.795221E-03	2.279807E-04
4.920330E+03	2.804013E-03	2.286890E-04
4.930270E+03	2.812698E-03	2.293887E-04
4.940211E+03	2.821274E-03	2.300797E-04
4.950151E+03	2.829700E-03	2.307586E-04
4.960091E+03	2.838014E-03	2.314285E-04
4.970031E+03	2.846212E-03	2.320892E-04
4.979971E+03	2.854293E-03	2.327404E-04
4.989911E+03	2.862254E-03	2.333820E-04
4.999851E+03	2.870053E-03	2.340106E-04
5.009791E+03	2.877764E-03	2.346322E-04
5.019731E+03	2.885346E-03	2.352435E-04
5.029671E+03	2.892758E-03	2.358411E-04
5.039611E+03	2.900113E-03	2.364341E-04
5.049551E+03	2.907291E-03	2.370130E-04
5.059491E+03	2.914366E-03	2.375837E-04
5.069431E+03	2.921336E-03	2.381460E-04
5.079371E+03	2.928198E-03	2.386997E-04
5.089311E+03	2.934910E-03	2.392415E-04
5.099252E+03	2.941547E-03	2.397773E-04
5.109192E+03	2.948068E-03	2.403039E-04
5.119132E+03	2.954510E-03	2.408242E-04
5.129072E+03	2.960831E-03	2.413350E-04
5.139012E+03	2.967069E-03	2.418392E-04
5.148952E+03	2.973259E-03	2.423397E-04
5.158892E+03	2.979327E-03	2.428305E-04
5.168832E+03	2.985382E-03	2.433205E-04
5.178772E+03	2.991351E-03	2.438038E-04
5.188712E+03	2.997271E-03	2.442832E-04
5.198652E+03	3.003142E-03	2.447590E-04
5.208592E+03	3.009002E-03	2.452341E-04
5.218532E+03	3.014853E-03	2.457088E-04
5.228472E+03	3.020661E-03	2.461802E-04
5.238412E+03	3.026500E-03	2.466544E-04
5.248352E+03	3.032337E-03	2.471288E-04
5.258292E+03	3.038176E-03	2.476036E-04
5.268233E+03	3.044093E-03	2.480850E-04
5.278173E+03	3.050021E-03	2.485676E-04
5.288113E+03	3.056035E-03	2.490576E-04
5.298053E+03	3.062107E-03	2.495525E-04
5.307993E+03	3.068313E-03	2.500587E-04
5.317933E+03	3.074587E-03	2.505708E-04
5.327873E+03	3.080973E-03	2.510922E-04
5.337813E+03	3.087513E-03	2.516266E-04
5.347753E+03	3.094178E-03	2.521715E-04
5.357693E+03	3.101012E-03	2.527305E-04
5.367633E+03	3.108023E-03	2.533042E-04
5.377573E+03	3.115219E-03	2.538933E-04
5.387513E+03	3.122643E-03	2.545014E-04
5.397453E+03	3.130269E-03	2.551263E-04
5.407393E+03	3.138103E-03	2.557686E-04
5.417333E+03	3.146191E-03	2.564318E-04
5.427274E+03	3.154540E-03	2.571167E-04
5.437214E+03	3.163192E-03	2.578267E-04
5.447154E+03	3.172086E-03	2.585568E-04
5.457094E+03	3.181263E-03	2.593104E-04
5.467034E+03	3.190766E-03	2.600909E-04
5.476974E+03	3.200562E-03	2.608958E-04
5.486914E+03	3.210657E-03	2.617254E-04
5.496854E+03	3.221089E-03	2.625829E-04
5.506794E+03	3.231824E-03	2.634655E-04
5.516734E+03	3.242901E-03	2.643765E-04
5.526674E+03	3.254322E-03	2.653159E-04
5.536614E+03	3.266017E-03	2.662782E-04
5.546554E+03	3.278095E-03	2.672720E-04
5.556494E+03	3.290485E-03	2.682918E-04
5.566434E+03	3.303188E-03	2.693375E-04
5.576374E+03	3.316205E-03	2.704093E-04
5.586315E+03	3.329572E-03	2.715101E-04
5.596255E+03	3.343253E-03	2.726369E-04
5.606195E+03	3.357215E-03	2.737870E-04
5.616135E+03	3.371525E-03	2.749660E-04
5.626075E+03	3.386151E-03	2.761713E-04
5.636015E+03	3.401056E-03	2.773997E-04
5.645955E+03	3.416239E-03	2.786512E-04
5.655895E+03	3.431736E-03	2.799288E-04
5.665835E+03	3.447510E-03	2.812296E-04
5.675775E+03	3.463563E-03	2.825534E-04
5.685715E+03	3.479856E-03	2.838974E-04
5.695655E+03	3.496425E-03	2.852644E-04
5.705595E+03	3.513234E-03	2.866513E-04
5.715535E+03	3.530282E-03	2.880583E-04
5.725475E+03	3.547569E-03	2.894852E-04
5.735415E+03	3.565057E-03	2.909290E-04
5.745356E+03	3.582745E-03	2.923896E-04
5.755296E+03	3.600598E-03	2.938641E-04
5.765236E+03	3.618685E-03	2.953583E-04
5.775176E+03	3.636898E-03	2.968632E-04
5.785116E+03	3.655271E-03	2.983816E-04
5.795056E+03	3.673804E-03	2.999136E-04
5.804996E+03	3.692459E-03	3.014560E-04
5.814936E+03	3.711198E-03	3.030057E-04
5.824876E+03	3.730092E-03	3.045687E-04
5.834816E+03	3.749032E-03	3.061358E-04
5.844756E+03	3.768051E-03	3.077099E-04
5.854696E+03	3.787111E-03	3.092878E-04
5.864636E+03	3.806212E-03	3.108695E-04
5.874576E+03	3.825350E-03	3.124548E-04
5.884516E+03	3.844487E-03	3.140405E-04
5.894456E+03	3.863658E-03	3.156295E-04
5.904396E+03	3.882751E-03	3.172125E-04
5.914337E+03	3.901837E-03	3.187954E-04
5.924277E+03	3.920875E-03	3.203750E-04
5.934217E+03	3.939865E-03	3.219510E-04
5.944157E+03	3.958728E-03	3.235172E-04
5.954097E+03	3.977499E-03	3.250763E-04
5.964037E+03	3.996175E-03	3.266281E-04
5.973977E+03	4.014753E-03	3.281724E-04
5.983917E+03	4.033153E-03	3.297027E-04
5.993857E+03	4.051372E-03	3.312185E-04
6.003797E+03	4.069482E-03	3.327260E-04
6.013737E+03	4.087364E-03	3.342152E-04
6.023677E+03	4.105052E-03	3.356891E-04
6.033617E+03	4.122541E-03	3.371471E-04
6.043557E+03	4.139786E-03	3.385856E-04
6.053497E+03	4.156822E-03	3.400074E-04
6.063437E+03	4.173563E-03	3.414055E-04
6.073378E+03	4.190080E-03	3.427858E-04
6.083318E+03	4.206289E-03	3.441413E-04
6.093258E+03	4.222220E-03	3.454744E-04
6.103198E+03	4.237865E-03	3.467846E-04
6.113138E+03	4.253215E-03	3.480709E-04
6.123078E+03	4.268179E-03	3.493262E-04
6.133018E+03	4.282867E-03	3.505592E-04
6.142958E+03	4.297188E-03	3.517625E-04
6.152898E+03	4.311127E-03	3.529350E-04
6.162838E+03	4.324714E-03	3.540789E-04
6.172778E+03	4.337932E-03	3.551931E-04
6.182718E+03	4.350727E-03	3.562729E-04
6.192658E+03	4.363163E-03	3.573238E-04
6.202598E+03	4.375141E-03	3.583374E-04
6.212538E+03	4.386725E-03	3.593191E-04
6.222478E+03	4.397856E-03	3.602639E-04
6.232419E+03	4.408510E-03	3.611700E-04
6.242359E+03	4.418752E-03	3.620426E-04
6.252299E+03	4.428474E-03	3.628730E-04
6.262239E+03	4.437737E-03	3.636659E-04
6.272179E+03	4.446474E-03	3.644161E-04
6.282119E+03	4.454744E-03	3.651281E-04
6.292059E+03	4.462436E-03	3.657931E-04
6.301999E+03	4.469607E-03	3.664156E-04
6.311939E+03	4.476186E-03	3.669898E-04
6.321879E+03	4.482230E-03	3.675202E-04
6.331819E+03	4.487709E-03	3.680046E-04
6.341759E+03	4.492552E-03	3.684370E-04
6.351699E+03	4.496768E-03	3.688181E-04
6.361639E+03	4.500371E-03	3.691491E-04
6.371579E+03	4.503330E-03	3.694275E-04
6.381519E+03	4.505614E-03	3.696505E-04
6.391459E+03	4.507234E-03	3.698192E-04
6.401400E+03	4.508160E-03	3.699311E-04
6.411340E+03	4.508361E-03	3.699835E-04
6.421280E+03	4.507850E-03	3.699776E-04
6.431220E+03	4.506643E-03	3.699146E-04
6.441160E+03	4.504622E-03	3.697848E-04
6.451100E+03	4.501893E-03	3.695969E-04
6.461040E+03	4.498383E-03	3.693450E-04
6.470980E+03	4.494068E-03	3.690269E-04
6.480920E+03	4.489014E-03	3.686480E-04
6.490860E+03	4.483108E-03	3.681992E-04
6.500800E+03	4.476419E-03	3.676860E-04
6.510740E+03	4.468930E-03	3.671070E-04
6.520680E+03	4.460622E-03	3.664607E-04
6.530620E+03	4.451528E-03	3.657497E-04
6.540560E+03	4.441589E-03	3.649691E-04
6.550500E+03	4.430840E-03	3.641218E-04
6.560441E+03	4.419320E-03	3.632110E-04
6.570381E+03	4.406932E-03	3.622287E-04
6.580321E+03	4.393811E-03	3.611860E-04
6.590261E+03	4.379909E-03	3.600789E-04
6.600201E+03	4.365185E-03	3.589039E-04
6.610141E+03	4.349734E-03	3.576689E-04
6.620081E+03	4.333563E-03	3.563745E-04
6.630021E+03	4.316636E-03	3.550177E-04
6.639961E+03	4.299055E-03	3.536068E-04
6.649901E+03	4.280745E-03	3.521356E-04
6.659841E+03	4.261812E-03	3.506129E-04
6.669781E+03	4.242230E-03	3.490364E-04
6.679721E+03	4.222017E-03	3.474078E-04
6.689661E+03	4.201242E-03	3.457325E-04
6.699601E+03	4.179927E-03	3.440125E-04
6.709541E+03	4.158098E-03	3.422498E-04
6.719482E+03	4.135736E-03	3.404428E-04
6.729422E+03	4.112957E-03	3.386012E-04
6.739362E+03	4.089746E-03	3.367235E-04
6.749302E+03	4.066132E-03	3.348123E-04
6.759242E+03	4.042142E-03	3.328697E-04
6.769182E+03	4.017809E-03	3.308984E-04
6.779122E+03	3.993206E-03	3.289045E-04
6.789062E+03	3.968320E-03	3.268869E-04
6.799002E+03	3.943225E-03	3.248516E-04
6.808942E+03	3.917907E-03	3.227975E-04
6.818882E+03	3.892396E-03	3.207271E-04
6.828822E+03	3.866766E-03	3.186464E-04
6.838762E+03	3.841046E-03	3.165578E-04
6.848702E+03	3.815221E-03	3.144601E-04
6.858642E+03	3.789360E-03	3.123590E-04
6.868582E+03	3.763449E-03	3.102534E-04
6.878523E+03	3.737515E-03	3.081453E-04
6.888463E+03	3.711623E-03	3.060403E-04
6.898403E+03	3.685799E-03	3.039404E-04
6.908343E+03	3.660024E-03	3.018441E-04
6.918283E+03	3.634318E-03	2.997531E-04
6.928223E+03	3.608748E-03	2.976728E-04
6.938163E+03	3.583288E-03	2.956012E-04
6.948103E+03	3.558002E-03	2.935434E-04
6.958043E+03	3.532824E-03	2.914940E-04
6.967983E+03	3.507893E-03	2.894647E-04
6.977923E+03	3.483104E-03	2.874466E-04
6.987863E+03	3.458512E-03	2.854443E-04
6.997803E+03	3.434172E-03	2.834624E-04
7.007743E+03	3.410055E-03	2.814985E-04
7.017683E+03	3.386134E-03	2.795503E-04
7.027623E+03	3.362501E-03	2.776254E-04
7.037563E+03	3.339124E-03	2.757213E-04
7.047504E+03	3.315974E-03	2.738355E-04
7.057444E+03	3.293099E-03	2.719719E-04
7.067384E+03	3.270507E-03	2.701315E-04
7.077324E+03	3.248205E-03	2.683144E-04
7.087264E+03	3.226201E-03	2.665216E-04
7.097204E+03	3.204458E-03	2.647500E-04
7.107144E+03	3.182984E-03	2.630003E-04
7.117084E+03	3.161823E-03	2.612759E-04
7.127024E+03	3.140938E-03	2.595741E-04
7.136964E+03	3.120373E-03	2.578982E-04
7.146904E+03	3.100092E-03	2.562455E-04
7.156844E+03	3.080098E-03	2.546162E-04
7.166784E+03	3.060393E-03	2.530103E-04
7.176724E+03	3.041016E-03	2.514313E-04
7.186664E+03	3.021894E-03	2.498730E-04
7.196604E+03	3.003065E-03	2.483385E-04
7.206545E+03	2.984568E-03	2.468312E-04
7.216485E+03	2.966328E-03	2.453447E-04
7.226425E+03	2.948383E-03	2.438824E-04
7.236365E+03	2.930696E-03	2.424410E-04
7.246305E+03	2.913340E-03	2.410268E-04
7.256245E+03	2.896241E-03	2.396334E-04
7.266185E+03	2.879398E-03	2.382609E-04
7.276125E+03	2.862847E-03	2.369123E-04
7.286065E+03	2.846587E-03	2.355875E-04
7.296005E+03	2.830580E-03	2.342833E-04
7.305945E+03	2.814860E-03	2.330026E-04
7.315885E+03	2.799391E-03	2.317423E-04
7.325825E+03	2.784170E-03	2.305023E-04
7.335765E+03	2.769195E-03	2.292823E-04
7.345705E+03	2.754500E-03	2.280853E-04
7.355645E+03	2.740083E-03	2.269110E-04
7.365586E+03	2.725869E-03	2.257534E-04
7.375526E+03	2.711930E-03	2.246181E-04
7.385466E+03	2.698189E-03	2.234991E-04
7.395406E+03	2.684716E-03	2.224019E-04
7.405346E+03	2.671508E-03	2.213264E-04
7.415286E+03	2.658492E-03	2.202667E-04
7.425226E+03	2.645734E-03	2.192280E-04
7.435166E+03	2.633163E-03	2.182046E-04
7.445106E+03	2.620844E-03	2.172019E-04
7.455046E+03	2.608741E-03	2.162168E-04
7.464986E+03	2.596850E-03	2.152490E-04
7.474926E+03	2.585202E-03	2.143012E-04
7.484866E+03	2.573726E-03	2.133674E-04
7.494806E+03	2.562485E-03	2.124529E-04
7.504746E+03	2.551444E-03	2.115547E-04
7.514686E+03	2.540599E-03	2.106726E-04
7.524627E+03	2.529945E-03	2.098061E-04
7.534567E+03	2.519515E-03	2.089580E-04
7.544507E+03	2.509271E-03	2.081251E-04
7.554447E+03	2.499208E-03	2.073070E-04
7.564387E+03	2.489325E-03	2.065035E-04
7.574327E+03	2.479650E-03	2.057173E-04
7.584267E+03	2.470181E-03	2.049478E-04
7.594207E+03	2.460845E-03	2.041893E-04
7.604147E+03	2.451709E-03	2.034472E-04
7.614087E+03	2.442767E-03	2.027209E-04
7.624027E+03	2.433983E-03	2.020076E-04
7.633967E+03	2.425387E-03	2.013098E-04
7.643907E+03	2.416941E-03	2.006242E-04
7.653847E+03	2.408676E-03	1.999535E-04
7.663787E+03	2.400555E-03	1.992945E-04
7.673727E+03	2.392607E-03	1.986498E-04
7.683667E+03	2.384831E-03	1.980191E-04
7.693608E+03	2.377187E-03	1.973992E-04
7.703548E+03	2.369706E-03	1.967928E-04
7.713488E+03	2.362386E-03	1.961996E-04
