#wls	flux	fluxerr
1.590410E+03	2.025960E-04	3.852331E-07
1.630170E+03	2.101659E-04	3.996256E-07
1.669930E+03	2.179947E-04	4.145103E-07
1.709691E+03	2.262874E-04	4.302767E-07
1.749451E+03	2.348589E-04	4.465732E-07
1.789211E+03	2.438531E-04	4.636732E-07
1.828971E+03	2.532838E-04	4.816030E-07
1.868732E+03	2.630918E-04	5.002502E-07
1.908492E+03	2.733594E-04	5.197707E-07
1.948252E+03	2.840986E-04	5.401881E-07
1.988012E+03	2.952434E-04	5.613763E-07
2.027773E+03	3.068782E-04	5.834957E-07
2.067533E+03	3.190927E-04	6.067173E-07
2.107293E+03	3.317344E-04	6.307508E-07
2.147053E+03	3.448883E-04	6.557580E-07
2.186814E+03	3.585583E-04	6.817460E-07
2.226574E+03	3.728341E-04	7.088855E-07
2.266334E+03	3.875400E-04	7.368425E-07
2.306094E+03	4.029424E-04	7.661234E-07
2.345854E+03	4.187641E-04	7.962011E-07
2.385615E+03	4.352757E-04	8.275901E-07
2.425375E+03	4.522788E-04	8.599132E-07
2.465135E+03	4.698541E-04	8.933237E-07
2.504895E+03	4.879835E-04	9.277874E-07
2.544656E+03	5.066442E-04	9.632604E-07
2.584416E+03	5.259126E-04	9.998885E-07
2.624176E+03	5.456534E-04	1.037414E-06
2.663936E+03	5.659347E-04	1.075967E-06
2.703697E+03	5.867150E-04	1.115468E-06
2.743457E+03	6.079461E-04	1.155825E-06
2.783217E+03	6.296859E-04	1.197149E-06
2.822977E+03	6.517619E-04	1.239111E-06
2.862738E+03	6.742205E-04	1.281801E-06
2.902498E+03	6.969893E-04	1.325079E-06
2.942258E+03	7.201056E-04	1.369017E-06
2.982018E+03	7.433677E-04	1.413232E-06
2.991958E+03	7.493112E-04	1.424528E-06
3.001899E+03	7.550994E-04	1.435530E-06
3.011839E+03	7.610894E-04	1.446915E-06
3.021779E+03	7.669222E-04	1.458002E-06
3.031719E+03	7.728339E-04	1.469238E-06
3.041659E+03	7.787038E-04	1.480395E-06
3.051599E+03	7.846506E-04	1.491697E-06
3.061539E+03	7.905522E-04	1.502914E-06
3.071479E+03	7.965274E-04	1.514271E-06
3.081419E+03	8.024540E-04	1.525535E-06
3.091359E+03	8.083306E-04	1.536705E-06
3.101299E+03	8.142761E-04	1.548005E-06
3.111239E+03	8.201676E-04	1.559202E-06
3.121179E+03	8.261253E-04	1.570526E-06
3.131119E+03	8.320255E-04	1.581740E-06
3.141059E+03	8.379879E-04	1.593072E-06
3.150999E+03	8.438895E-04	1.604288E-06
3.160940E+03	8.498498E-04	1.615616E-06
3.170880E+03	8.557460E-04	1.626823E-06
3.180820E+03	8.616976E-04	1.638134E-06
3.190760E+03	8.675810E-04	1.649316E-06
3.200700E+03	8.733942E-04	1.660364E-06
3.210640E+03	8.792573E-04	1.671507E-06
3.220580E+03	8.851690E-04	1.682742E-06
3.230520E+03	8.910051E-04	1.693834E-06
3.240460E+03	8.968852E-04	1.705009E-06
3.250400E+03	9.026868E-04	1.716035E-06
3.260340E+03	9.085290E-04	1.727139E-06
3.270280E+03	9.142882E-04	1.738084E-06
3.280220E+03	9.200838E-04	1.749098E-06
3.290160E+03	9.257937E-04	1.759950E-06
3.300100E+03	9.315367E-04	1.770864E-06
3.310040E+03	9.373107E-04	1.781837E-06
3.319981E+03	9.429929E-04	1.792636E-06
3.329921E+03	9.487028E-04	1.803487E-06
3.339861E+03	9.543168E-04	1.814156E-06
3.349801E+03	9.599545E-04	1.824870E-06
3.359741E+03	9.654935E-04	1.835397E-06
3.369681E+03	9.711730E-04	1.846190E-06
3.379621E+03	9.766298E-04	1.856560E-06
3.389561E+03	9.822229E-04	1.867189E-06
3.399501E+03	9.877100E-04	1.877617E-06
3.409441E+03	9.930891E-04	1.887839E-06
3.419381E+03	9.985991E-04	1.898310E-06
3.429321E+03	1.003879E-03	1.908343E-06
3.439261E+03	1.009285E-03	1.918617E-06
3.449201E+03	1.014578E-03	1.928675E-06
3.459141E+03	1.019873E-03	1.938737E-06
3.469081E+03	1.025171E-03	1.948805E-06
3.479022E+03	1.030350E-03	1.958646E-06
3.488962E+03	1.035527E-03	1.968484E-06
3.498902E+03	1.040702E-03	1.978317E-06
3.508842E+03	1.045753E-03	1.987916E-06
3.518782E+03	1.050798E-03	1.997502E-06
3.528722E+03	1.055834E-03	2.007073E-06
3.538662E+03	1.060744E-03	2.016403E-06
3.548602E+03	1.065643E-03	2.025712E-06
3.558542E+03	1.070530E-03	2.034997E-06
3.568482E+03	1.075402E-03	2.044256E-06
3.578422E+03	1.080258E-03	2.053484E-06
3.588362E+03	1.084983E-03	2.062460E-06
3.598302E+03	1.089689E-03	2.071402E-06
3.608242E+03	1.094260E-03	2.080089E-06
3.618182E+03	1.098926E-03	2.088954E-06
3.628122E+03	1.103455E-03	2.097560E-06
3.638062E+03	1.107961E-03	2.106122E-06
3.648003E+03	1.112443E-03	2.114638E-06
3.657943E+03	1.116899E-03	2.123105E-06
3.667883E+03	1.121217E-03	2.131309E-06
3.677823E+03	1.125507E-03	2.139461E-06
3.687763E+03	1.129770E-03	2.147560E-06
3.697703E+03	1.134002E-03	2.155601E-06
3.707643E+03	1.138204E-03	2.163585E-06
3.717583E+03	1.142266E-03	2.171303E-06
3.727523E+03	1.146405E-03	2.179167E-06
3.737463E+03	1.150403E-03	2.186763E-06
3.747403E+03	1.154368E-03	2.194295E-06
3.757343E+03	1.158192E-03	2.201560E-06
3.767283E+03	1.162089E-03	2.208964E-06
3.777223E+03	1.165951E-03	2.216302E-06
3.787163E+03	1.169672E-03	2.223372E-06
3.797103E+03	1.173357E-03	2.230373E-06
3.807044E+03	1.177008E-03	2.237308E-06
3.816984E+03	1.180623E-03	2.244176E-06
3.826924E+03	1.184201E-03	2.250973E-06
3.836864E+03	1.187742E-03	2.257701E-06
3.846804E+03	1.191145E-03	2.264165E-06
3.856744E+03	1.194613E-03	2.270755E-06
3.866684E+03	1.197943E-03	2.277081E-06
3.876624E+03	1.201237E-03	2.283338E-06
3.886564E+03	1.204495E-03	2.289527E-06
3.896504E+03	1.207717E-03	2.295649E-06
3.906444E+03	1.210904E-03	2.301702E-06
3.916384E+03	1.213955E-03	2.307498E-06
3.926324E+03	1.217071E-03	2.313418E-06
3.936264E+03	1.220054E-03	2.319083E-06
3.946204E+03	1.223100E-03	2.324870E-06
3.956144E+03	1.226015E-03	2.330407E-06
3.966085E+03	1.228896E-03	2.335880E-06
3.976025E+03	1.231746E-03	2.341293E-06
3.985965E+03	1.234563E-03	2.346644E-06
3.995905E+03	1.237348E-03	2.351935E-06
4.005845E+03	1.240008E-03	2.356987E-06
4.015785E+03	1.242733E-03	2.362163E-06
4.025725E+03	1.245335E-03	2.367105E-06
4.035665E+03	1.248001E-03	2.372170E-06
4.045605E+03	1.250547E-03	2.377005E-06
4.055545E+03	1.253066E-03	2.381791E-06
4.065485E+03	1.255559E-03	2.386526E-06
4.075425E+03	1.258028E-03	2.391215E-06
4.085365E+03	1.260383E-03	2.395688E-06
4.095305E+03	1.262804E-03	2.400286E-06
4.105245E+03	1.265115E-03	2.404675E-06
4.115185E+03	1.267404E-03	2.409023E-06
4.125125E+03	1.269674E-03	2.413335E-06
4.135066E+03	1.271925E-03	2.417610E-06
4.145006E+03	1.274158E-03	2.421851E-06
4.154946E+03	1.276374E-03	2.426061E-06
4.164886E+03	1.278489E-03	2.430076E-06
4.174826E+03	1.280674E-03	2.434227E-06
4.184766E+03	1.282760E-03	2.438189E-06
4.194706E+03	1.284834E-03	2.442129E-06
4.204646E+03	1.286814E-03	2.445888E-06
4.214586E+03	1.288866E-03	2.449786E-06
4.224526E+03	1.290827E-03	2.453509E-06
4.234466E+03	1.292779E-03	2.457217E-06
4.244406E+03	1.294724E-03	2.460912E-06
4.254346E+03	1.296664E-03	2.464596E-06
4.264286E+03	1.298518E-03	2.468117E-06
4.274226E+03	1.300368E-03	2.471631E-06
4.284166E+03	1.302215E-03	2.475139E-06
4.294107E+03	1.304060E-03	2.478643E-06
4.304047E+03	1.305826E-03	2.481997E-06
4.313987E+03	1.307593E-03	2.485353E-06
4.323927E+03	1.309360E-03	2.488709E-06
4.333867E+03	1.311130E-03	2.492070E-06
4.343807E+03	1.312826E-03	2.495291E-06
4.353747E+03	1.314527E-03	2.498522E-06
4.363687E+03	1.316158E-03	2.501621E-06
4.373627E+03	1.317798E-03	2.504735E-06
4.383567E+03	1.319447E-03	2.507867E-06
4.393507E+03	1.321034E-03	2.510880E-06
4.403447E+03	1.322633E-03	2.513918E-06
4.413387E+03	1.324247E-03	2.516982E-06
4.423327E+03	1.325805E-03	2.519942E-06
4.433267E+03	1.327382E-03	2.522937E-06
4.443207E+03	1.328907E-03	2.525835E-06
4.453148E+03	1.330456E-03	2.528776E-06
4.463088E+03	1.331959E-03	2.531631E-06
4.473028E+03	1.333488E-03	2.534535E-06
4.482968E+03	1.335045E-03	2.537493E-06
4.492908E+03	1.336563E-03	2.540376E-06
4.502848E+03	1.338044E-03	2.543189E-06
4.512788E+03	1.339559E-03	2.546067E-06
4.522728E+03	1.341041E-03	2.548882E-06
4.532668E+03	1.342560E-03	2.551767E-06
4.542608E+03	1.344050E-03	2.554599E-06
4.552548E+03	1.345515E-03	2.557380E-06
4.562488E+03	1.347021E-03	2.560243E-06
4.572428E+03	1.348505E-03	2.563062E-06
4.582368E+03	1.350034E-03	2.565965E-06
4.592308E+03	1.351543E-03	2.568833E-06
4.602248E+03	1.353036E-03	2.571668E-06
4.612189E+03	1.354577E-03	2.574597E-06
4.622129E+03	1.356040E-03	2.577377E-06
4.632069E+03	1.357619E-03	2.580377E-06
4.642009E+03	1.359125E-03	2.583237E-06
4.651949E+03	1.360622E-03	2.586081E-06
4.661889E+03	1.362174E-03	2.589030E-06
4.671829E+03	1.363720E-03	2.591967E-06
4.681769E+03	1.365261E-03	2.594897E-06
4.691709E+03	1.366861E-03	2.597937E-06
4.701649E+03	1.368399E-03	2.600858E-06
4.711589E+03	1.369997E-03	2.603894E-06
4.721529E+03	1.371536E-03	2.606819E-06
4.731469E+03	1.373137E-03	2.609861E-06
4.741409E+03	1.374742E-03	2.612912E-06
4.751349E+03	1.376352E-03	2.615971E-06
4.761289E+03	1.377969E-03	2.619043E-06
4.771229E+03	1.379592E-03	2.622128E-06
4.781170E+03	1.381224E-03	2.625229E-06
4.791110E+03	1.382808E-03	2.628238E-06
4.801050E+03	1.384461E-03	2.631380E-06
4.810990E+03	1.386126E-03	2.634544E-06
4.820930E+03	1.387803E-03	2.637732E-06
4.830870E+03	1.389495E-03	2.640947E-06
4.840810E+03	1.391145E-03	2.644083E-06
4.850750E+03	1.392868E-03	2.647357E-06
4.860690E+03	1.394552E-03	2.650558E-06
4.870630E+03	1.396255E-03	2.653794E-06
4.880570E+03	1.397977E-03	2.657067E-06
4.890510E+03	1.399719E-03	2.660379E-06
4.900450E+03	1.401483E-03	2.663732E-06
4.910390E+03	1.403215E-03	2.667023E-06
4.920330E+03	1.404970E-03	2.670359E-06
4.930270E+03	1.406750E-03	2.673743E-06
4.940211E+03	1.408556E-03	2.677175E-06
4.950151E+03	1.410334E-03	2.680555E-06
4.960091E+03	1.412141E-03	2.683989E-06
4.970031E+03	1.413923E-03	2.687376E-06
4.979971E+03	1.415788E-03	2.690922E-06
4.989911E+03	1.417632E-03	2.694427E-06
4.999851E+03	1.419455E-03	2.697893E-06
5.009791E+03	1.421312E-03	2.701422E-06
5.019731E+03	1.423203E-03	2.705017E-06
5.029671E+03	1.425131E-03	2.708681E-06
5.039611E+03	1.427043E-03	2.712317E-06
5.049551E+03	1.428942E-03	2.715927E-06
5.059491E+03	1.430881E-03	2.719613E-06
5.069431E+03	1.432810E-03	2.723279E-06
5.079371E+03	1.434780E-03	2.727026E-06
5.089311E+03	1.436795E-03	2.730855E-06
5.099252E+03	1.438803E-03	2.734673E-06
5.109192E+03	1.440808E-03	2.738484E-06
5.119132E+03	1.442860E-03	2.742385E-06
5.129072E+03	1.444911E-03	2.746284E-06
5.139012E+03	1.447013E-03	2.750281E-06
5.148952E+03	1.449117E-03	2.754282E-06
5.158892E+03	1.451275E-03	2.758384E-06
5.168832E+03	1.453438E-03	2.762497E-06
5.178772E+03	1.455609E-03	2.766624E-06
5.188712E+03	1.457789E-03	2.770769E-06
5.198652E+03	1.460029E-03	2.775028E-06
5.208592E+03	1.462282E-03	2.779311E-06
5.218532E+03	1.464598E-03	2.783715E-06
5.228472E+03	1.466931E-03	2.788150E-06
5.238412E+03	1.469281E-03	2.792618E-06
5.248352E+03	1.471650E-03	2.797123E-06
5.258292E+03	1.474089E-03	2.801761E-06
5.268233E+03	1.476503E-03	2.806351E-06
5.278173E+03	1.478990E-03	2.811080E-06
5.288113E+03	1.481551E-03	2.815948E-06
5.298053E+03	1.484092E-03	2.820780E-06
5.307993E+03	1.486711E-03	2.825759E-06
5.317933E+03	1.489312E-03	2.830705E-06
5.327873E+03	1.491993E-03	2.835802E-06
5.337813E+03	1.494754E-03	2.841053E-06
5.347753E+03	1.497504E-03	2.846282E-06
5.357693E+03	1.500289E-03	2.851577E-06
5.367633E+03	1.503157E-03	2.857031E-06
5.377573E+03	1.506015E-03	2.862466E-06
5.387513E+03	1.508959E-03	2.868064E-06
5.397453E+03	1.511942E-03	2.873735E-06
5.407393E+03	1.514964E-03	2.879481E-06
5.417333E+03	1.518024E-03	2.885301E-06
5.427274E+03	1.521125E-03	2.891197E-06
5.437214E+03	1.524265E-03	2.897168E-06
5.447154E+03	1.527445E-03	2.903214E-06
5.457094E+03	1.530664E-03	2.909336E-06
5.467034E+03	1.533923E-03	2.915534E-06
5.476974E+03	1.537223E-03	2.921809E-06
5.486914E+03	1.540563E-03	2.928159E-06
5.496854E+03	1.543943E-03	2.934587E-06
5.506794E+03	1.547364E-03	2.941092E-06
5.516734E+03	1.550826E-03	2.947675E-06
5.526674E+03	1.554327E-03	2.954334E-06
5.536614E+03	1.557870E-03	2.961071E-06
5.546554E+03	1.561452E-03	2.967883E-06
5.556494E+03	1.565075E-03	2.974771E-06
5.566434E+03	1.568735E-03	2.981732E-06
5.576374E+03	1.572388E-03	2.988680E-06
5.586315E+03	1.576124E-03	2.995784E-06
5.596255E+03	1.579850E-03	3.002870E-06
5.606195E+03	1.583611E-03	3.010022E-06
5.616135E+03	1.587405E-03	3.017237E-06
5.626075E+03	1.591231E-03	3.024512E-06
5.636015E+03	1.595087E-03	3.031845E-06
5.645955E+03	1.598972E-03	3.039234E-06
5.655895E+03	1.602838E-03	3.046585E-06
5.665835E+03	1.606773E-03	3.054070E-06
5.675775E+03	1.610687E-03	3.061513E-06
5.685715E+03	1.614621E-03	3.068994E-06
5.695655E+03	1.618574E-03	3.076512E-06
5.705595E+03	1.622497E-03	3.083974E-06
5.715535E+03	1.626480E-03	3.091549E-06
5.725475E+03	1.630430E-03	3.099061E-06
5.735415E+03	1.634390E-03	3.106593E-06
5.745356E+03	1.638357E-03	3.114137E-06
5.755296E+03	1.642284E-03	3.121604E-06
5.765236E+03	1.646213E-03	3.129077E-06
5.775176E+03	1.650142E-03	3.136550E-06
5.785116E+03	1.654068E-03	3.144017E-06
5.795056E+03	1.657990E-03	3.151477E-06
5.804996E+03	1.661858E-03	3.158834E-06
5.814936E+03	1.665717E-03	3.166174E-06
5.824876E+03	1.669518E-03	3.173403E-06
5.834816E+03	1.673349E-03	3.180690E-06
5.844756E+03	1.677117E-03	3.187857E-06
5.854696E+03	1.680865E-03	3.194985E-06
5.864636E+03	1.684544E-03	3.201984E-06
5.874576E+03	1.688197E-03	3.208933E-06
5.884516E+03	1.691823E-03	3.215830E-06
5.894456E+03	1.695419E-03	3.222670E-06
5.904396E+03	1.698935E-03	3.229358E-06
5.914337E+03	1.702415E-03	3.235979E-06
5.924277E+03	1.705858E-03	3.242527E-06
5.934217E+03	1.709213E-03	3.248910E-06
5.944157E+03	1.712524E-03	3.255210E-06
5.954097E+03	1.715790E-03	3.261422E-06
5.964037E+03	1.718960E-03	3.267454E-06
5.973977E+03	1.722079E-03	3.273388E-06
5.983917E+03	1.725145E-03	3.279221E-06
5.993857E+03	1.728107E-03	3.284857E-06
6.003797E+03	1.731011E-03	3.290383E-06
6.013737E+03	1.733853E-03	3.295789E-06
6.023677E+03	1.736585E-03	3.300988E-06
6.033617E+03	1.739250E-03	3.306060E-06
6.043557E+03	1.741846E-03	3.310999E-06
6.053497E+03	1.744323E-03	3.315714E-06
6.063437E+03	1.746727E-03	3.320290E-06
6.073378E+03	1.749054E-03	3.324718E-06
6.083318E+03	1.751256E-03	3.328909E-06
6.093258E+03	1.753376E-03	3.332945E-06
6.103198E+03	1.755366E-03	3.336733E-06
6.113138E+03	1.757316E-03	3.340446E-06
6.123078E+03	1.759084E-03	3.343812E-06
6.133018E+03	1.760808E-03	3.347095E-06
6.142958E+03	1.762392E-03	3.350112E-06
6.152898E+03	1.763881E-03	3.352947E-06
6.162838E+03	1.765271E-03	3.355596E-06
6.172778E+03	1.766516E-03	3.357967E-06
6.182718E+03	1.767658E-03	3.360144E-06
6.192658E+03	1.768695E-03	3.362123E-06
6.202598E+03	1.769580E-03	3.363811E-06
6.212538E+03	1.770357E-03	3.365292E-06
6.222478E+03	1.771023E-03	3.366565E-06
6.232419E+03	1.771530E-03	3.367535E-06
6.242359E+03	1.771923E-03	3.368287E-06
6.252299E+03	1.772200E-03	3.368819E-06
6.262239E+03	1.772358E-03	3.369127E-06
6.272179E+03	1.772351E-03	3.369119E-06
6.282119E+03	1.772222E-03	3.368880E-06
6.292059E+03	1.771970E-03	3.368407E-06
6.301999E+03	1.771547E-03	3.367608E-06
6.311939E+03	1.771045E-03	3.366659E-06
6.321879E+03	1.770368E-03	3.365379E-06
6.331819E+03	1.769517E-03	3.363767E-06
6.341759E+03	1.768582E-03	3.361996E-06
6.351699E+03	1.767469E-03	3.359886E-06
6.361639E+03	1.766224E-03	3.357525E-06
6.371579E+03	1.764845E-03	3.354911E-06
6.381519E+03	1.763332E-03	3.352041E-06
6.391459E+03	1.761685E-03	3.348914E-06
6.401400E+03	1.759854E-03	3.345441E-06
6.411340E+03	1.757888E-03	3.341708E-06
6.421280E+03	1.755784E-03	3.337714E-06
6.431220E+03	1.753542E-03	3.333460E-06
6.441160E+03	1.751163E-03	3.328942E-06
6.451100E+03	1.748599E-03	3.324074E-06
6.461040E+03	1.745942E-03	3.319028E-06
6.470980E+03	1.743100E-03	3.313633E-06
6.480920E+03	1.740120E-03	3.307974E-06
6.490860E+03	1.737001E-03	3.302051E-06
6.500800E+03	1.733790E-03	3.295952E-06
6.510740E+03	1.730350E-03	3.289418E-06
6.520680E+03	1.726817E-03	3.282708E-06
6.530620E+03	1.723147E-03	3.275736E-06
6.540560E+03	1.719340E-03	3.268506E-06
6.550500E+03	1.715398E-03	3.261017E-06
6.560441E+03	1.711320E-03	3.253272E-06
6.570381E+03	1.707063E-03	3.245184E-06
6.580321E+03	1.702718E-03	3.236930E-06
6.590261E+03	1.698242E-03	3.228426E-06
6.600201E+03	1.693634E-03	3.219672E-06
6.610141E+03	1.688852E-03	3.210587E-06
6.620081E+03	1.683987E-03	3.201344E-06
6.630021E+03	1.678995E-03	3.191859E-06
6.639961E+03	1.673878E-03	3.182138E-06
6.649901E+03	1.668637E-03	3.172180E-06
6.659841E+03	1.663276E-03	3.161993E-06
6.669781E+03	1.657794E-03	3.151578E-06
6.679721E+03	1.652238E-03	3.141021E-06
6.689661E+03	1.646523E-03	3.130161E-06
6.699601E+03	1.640737E-03	3.119168E-06
6.709541E+03	1.634841E-03	3.107963E-06
6.719482E+03	1.628790E-03	3.096467E-06
6.729422E+03	1.622676E-03	3.084848E-06
6.739362E+03	1.616500E-03	3.073113E-06
6.749302E+03	1.610179E-03	3.061101E-06
6.759242E+03	1.603801E-03	3.048981E-06
6.769182E+03	1.597281E-03	3.036592E-06
6.779122E+03	1.590753E-03	3.024185E-06
6.789062E+03	1.584089E-03	3.011522E-06
6.799002E+03	1.577335E-03	2.998687E-06
6.808942E+03	1.570536E-03	2.985767E-06
6.818882E+03	1.563651E-03	2.972683E-06
6.828822E+03	1.556686E-03	2.959446E-06
6.838762E+03	1.549682E-03	2.946136E-06
6.848702E+03	1.542601E-03	2.932680E-06
6.858642E+03	1.535447E-03	2.919083E-06
6.868582E+03	1.528221E-03	2.905352E-06
6.878523E+03	1.520968E-03	2.891568E-06
6.888463E+03	1.513650E-03	2.877659E-06
6.898403E+03	1.506309E-03	2.863708E-06
6.908343E+03	1.498907E-03	2.849641E-06
6.918283E+03	1.491448E-03	2.835465E-06
6.928223E+03	1.483934E-03	2.821184E-06
6.938163E+03	1.476407E-03	2.806879E-06
6.948103E+03	1.468872E-03	2.792558E-06
6.958043E+03	1.461249E-03	2.778070E-06
6.967983E+03	1.453662E-03	2.763650E-06
6.977923E+03	1.445992E-03	2.749073E-06
6.987863E+03	1.438323E-03	2.734498E-06
6.997803E+03	1.430656E-03	2.719926E-06
7.007743E+03	1.422915E-03	2.705214E-06
7.017683E+03	1.415221E-03	2.690591E-06
7.027623E+03	1.407498E-03	2.675911E-06
7.037563E+03	1.399746E-03	2.661179E-06
7.047504E+03	1.392009E-03	2.646472E-06
7.057444E+03	1.384248E-03	2.631723E-06
7.067384E+03	1.376506E-03	2.617007E-06
7.077324E+03	1.368745E-03	2.602257E-06
7.087264E+03	1.361006E-03	2.587547E-06
7.097204E+03	1.353252E-03	2.572809E-06
7.107144E+03	1.345524E-03	2.558121E-06
7.117084E+03	1.337786E-03	2.543413E-06
7.127024E+03	1.330076E-03	2.528759E-06
7.136964E+03	1.322360E-03	2.514093E-06
7.146904E+03	1.314676E-03	2.499489E-06
7.156844E+03	1.307027E-03	2.484949E-06
7.166784E+03	1.299375E-03	2.470406E-06
7.176724E+03	1.291761E-03	2.455933E-06
7.186664E+03	1.284148E-03	2.441463E-06
7.196604E+03	1.276574E-03	2.427067E-06
7.206545E+03	1.269006E-03	2.412682E-06
7.216485E+03	1.261479E-03	2.398376E-06
7.226425E+03	1.253996E-03	2.384152E-06
7.236365E+03	1.246521E-03	2.369943E-06
7.246305E+03	1.239091E-03	2.355822E-06
7.256245E+03	1.231709E-03	2.341789E-06
7.266185E+03	1.224338E-03	2.327779E-06
7.276125E+03	1.217015E-03	2.313861E-06
7.286065E+03	1.209707E-03	2.299969E-06
7.296005E+03	1.202448E-03	2.286172E-06
7.305945E+03	1.195241E-03	2.272472E-06
7.315885E+03	1.188050E-03	2.258804E-06
7.325825E+03	1.180946E-03	2.245301E-06
7.335765E+03	1.173825E-03	2.231765E-06
7.345705E+03	1.166793E-03	2.218398E-06
7.355645E+03	1.159780E-03	2.205067E-06
7.365586E+03	1.152821E-03	2.191839E-06
7.375526E+03	1.145882E-03	2.178650E-06
7.385466E+03	1.139000E-03	2.165568E-06
7.395406E+03	1.132172E-03	2.152589E-06
7.405346E+03	1.125401E-03	2.139719E-06
7.415286E+03	1.118651E-03	2.126889E-06
7.425226E+03	1.111958E-03	2.114167E-06
7.435166E+03	1.105322E-03	2.101551E-06
7.445106E+03	1.098709E-03	2.088981E-06
7.455046E+03	1.092152E-03	2.076518E-06
7.464986E+03	1.085653E-03	2.064164E-06
7.474926E+03	1.079210E-03	2.051917E-06
7.484866E+03	1.072792E-03	2.039717E-06
7.494806E+03	1.066430E-03	2.027624E-06
7.504746E+03	1.060125E-03	2.015639E-06
7.514686E+03	1.053845E-03	2.003701E-06
7.524627E+03	1.047653E-03	1.991931E-06
7.534567E+03	1.041486E-03	1.980208E-06
7.544507E+03	1.035343E-03	1.968531E-06
7.554447E+03	1.029288E-03	1.957021E-06
7.564387E+03	1.023257E-03	1.945558E-06
7.574327E+03	1.017283E-03	1.934201E-06
7.584267E+03	1.011364E-03	1.922949E-06
7.594207E+03	1.005500E-03	1.911802E-06
7.604147E+03	9.996592E-04	1.900699E-06
7.614087E+03	9.938730E-04	1.889700E-06
7.624027E+03	9.881415E-04	1.878805E-06
7.633967E+03	9.824641E-04	1.868013E-06
7.643907E+03	9.768095E-04	1.857264E-06
7.653847E+03	9.712387E-04	1.846674E-06
7.663787E+03	9.656895E-04	1.836126E-06
7.673727E+03	9.601936E-04	1.825678E-06
7.683667E+03	9.547187E-04	1.815271E-06
7.693608E+03	9.493261E-04	1.805020E-06
7.703548E+03	9.439537E-04	1.794807E-06
7.713488E+03	9.386327E-04	1.784692E-06
