#wls	flux	fluxerr
1.590410E+03	1.062051E-04	2.508208E-06
1.630170E+03	1.096214E-04	2.587703E-06
1.669930E+03	1.132010E-04	2.670952E-06
1.709691E+03	1.169507E-04	2.758104E-06
1.749451E+03	1.208317E-04	2.848238E-06
1.789211E+03	1.248479E-04	2.941437E-06
1.828971E+03	1.290507E-04	3.038903E-06
1.868732E+03	1.333984E-04	3.139646E-06
1.908492E+03	1.379448E-04	3.244922E-06
1.948252E+03	1.426973E-04	3.354892E-06
1.988012E+03	1.476107E-04	3.468485E-06
2.027773E+03	1.527425E-04	3.587039E-06
2.067533E+03	1.580452E-04	3.709425E-06
2.107293E+03	1.635785E-04	3.837036E-06
2.147053E+03	1.692920E-04	3.968676E-06
2.186814E+03	1.752484E-04	4.105799E-06
2.226574E+03	1.814549E-04	4.248560E-06
2.266334E+03	1.878563E-04	4.395654E-06
2.306094E+03	1.945191E-04	4.548618E-06
2.345854E+03	2.013848E-04	4.706071E-06
2.385615E+03	2.085225E-04	4.869609E-06
2.425375E+03	2.159383E-04	5.039362E-06
2.465135E+03	2.236387E-04	5.215458E-06
2.504895E+03	2.315574E-04	5.396337E-06
2.544656E+03	2.397687E-04	5.583709E-06
2.584416E+03	2.482776E-04	5.777675E-06
2.624176E+03	2.570117E-04	5.976527E-06
2.663936E+03	2.660489E-04	6.182061E-06
2.703697E+03	2.753931E-04	6.394344E-06
2.743457E+03	2.850473E-04	6.613429E-06
2.783217E+03	2.950144E-04	6.839357E-06
2.822977E+03	3.052097E-04	7.070148E-06
2.862738E+03	3.157177E-04	7.307738E-06
2.902498E+03	3.265389E-04	7.552121E-06
2.942258E+03	3.376735E-04	7.803280E-06
2.982018E+03	3.490265E-04	8.058999E-06
2.991958E+03	3.518980E-04	8.123619E-06
3.001899E+03	3.548781E-04	8.190713E-06
3.011839E+03	3.577761E-04	8.255883E-06
3.021779E+03	3.606869E-04	8.321317E-06
3.031719E+03	3.637074E-04	8.389247E-06
3.041659E+03	3.666440E-04	8.455212E-06
3.051599E+03	3.696909E-04	8.523687E-06
3.061539E+03	3.727512E-04	8.592436E-06
3.071479E+03	3.757255E-04	8.659174E-06
3.081419E+03	3.788113E-04	8.728447E-06
3.091359E+03	3.819100E-04	8.797983E-06
3.101299E+03	3.850213E-04	8.867777E-06
3.111239E+03	3.881452E-04	8.937825E-06
3.121179E+03	3.911800E-04	9.005790E-06
3.131119E+03	3.943279E-04	9.076326E-06
3.141059E+03	3.975901E-04	9.149458E-06
3.150999E+03	4.007624E-04	9.220487E-06
3.160940E+03	4.039464E-04	9.291749E-06
3.170880E+03	4.071420E-04	9.363244E-06
3.180820E+03	4.103488E-04	9.434963E-06
3.190760E+03	4.136716E-04	9.509315E-06
3.200700E+03	4.169011E-04	9.581485E-06
3.210640E+03	4.201414E-04	9.653869E-06
3.220580E+03	4.234985E-04	9.728905E-06
3.230520E+03	4.267602E-04	9.801711E-06
3.240460E+03	4.301395E-04	9.877182E-06
3.250400E+03	4.335298E-04	9.952870E-06
3.260340E+03	4.368224E-04	1.002628E-05
3.270280E+03	4.402335E-04	1.010238E-05
3.280220E+03	4.436550E-04	1.017867E-05
3.290160E+03	4.470866E-04	1.025517E-05
3.300100E+03	4.505281E-04	1.033185E-05
3.310040E+03	4.539793E-04	1.040872E-05
3.319981E+03	4.574400E-04	1.048577E-05
3.329921E+03	4.609100E-04	1.056300E-05
3.339861E+03	4.643889E-04	1.064040E-05
3.349801E+03	4.678766E-04	1.071797E-05
3.359741E+03	4.713729E-04	1.079569E-05
3.369681E+03	4.749912E-04	1.087617E-05
3.379621E+03	4.785042E-04	1.095421E-05
3.389561E+03	4.820251E-04	1.103238E-05
3.399501E+03	4.856687E-04	1.111334E-05
3.409441E+03	4.892049E-04	1.119179E-05
3.419381E+03	4.928642E-04	1.127303E-05
3.429321E+03	4.964146E-04	1.135174E-05
3.439261E+03	5.000887E-04	1.143325E-05
3.449201E+03	5.037699E-04	1.151488E-05
3.459141E+03	5.073400E-04	1.159393E-05
3.469081E+03	5.110343E-04	1.167579E-05
3.479022E+03	5.147349E-04	1.175775E-05
3.488962E+03	5.184415E-04	1.183982E-05
3.498902E+03	5.221540E-04	1.192198E-05
3.508842E+03	5.258719E-04	1.200424E-05
3.518782E+03	5.295949E-04	1.208657E-05
3.528722E+03	5.333228E-04	1.216898E-05
3.538662E+03	5.370554E-04	1.225146E-05
3.548602E+03	5.409144E-04	1.233679E-05
3.558542E+03	5.446555E-04	1.241940E-05
3.568482E+03	5.484003E-04	1.250206E-05
3.578422E+03	5.522720E-04	1.258757E-05
3.588362E+03	5.560235E-04	1.267032E-05
3.598302E+03	5.599022E-04	1.275592E-05
3.608242E+03	5.636592E-04	1.283872E-05
3.618182E+03	5.675436E-04	1.292439E-05
3.628122E+03	5.713045E-04	1.300721E-05
3.638062E+03	5.751932E-04	1.309291E-05
3.648003E+03	5.790837E-04	1.317862E-05
3.657943E+03	5.829757E-04	1.326433E-05
3.667883E+03	5.867412E-04	1.334712E-05
3.677823E+03	5.906346E-04	1.343280E-05
3.687763E+03	5.945285E-04	1.351846E-05
3.697703E+03	5.984223E-04	1.360408E-05
3.707643E+03	6.023159E-04	1.368967E-05
3.717583E+03	6.062087E-04	1.377521E-05
3.727523E+03	6.101004E-04	1.386069E-05
3.737463E+03	6.141212E-04	1.394908E-05
3.747403E+03	6.180100E-04	1.403444E-05
3.757343E+03	6.218966E-04	1.411972E-05
3.767283E+03	6.257806E-04	1.420491E-05
3.777223E+03	6.297936E-04	1.429301E-05
3.787163E+03	6.336714E-04	1.437801E-05
3.797103E+03	6.375454E-04	1.446289E-05
3.807044E+03	6.415485E-04	1.455068E-05
3.816984E+03	6.454140E-04	1.463532E-05
3.826924E+03	6.494085E-04	1.472287E-05
3.836864E+03	6.533983E-04	1.481027E-05
3.846804E+03	6.572482E-04	1.489449E-05
3.856744E+03	6.612269E-04	1.498160E-05
3.866684E+03	6.651997E-04	1.506855E-05
3.876624E+03	6.691660E-04	1.515534E-05
3.886564E+03	6.729892E-04	1.523886E-05
3.896504E+03	6.769410E-04	1.532527E-05
3.906444E+03	6.808852E-04	1.541149E-05
3.916384E+03	6.848215E-04	1.549751E-05
3.926324E+03	6.887488E-04	1.558331E-05
3.936264E+03	6.926668E-04	1.566888E-05
3.946204E+03	6.965761E-04	1.575424E-05
3.956144E+03	7.004747E-04	1.583934E-05
3.966085E+03	7.043639E-04	1.592421E-05
3.976025E+03	7.083809E-04	1.601195E-05
3.985965E+03	7.122480E-04	1.609630E-05
3.995905E+03	7.161038E-04	1.618037E-05
4.005845E+03	7.199475E-04	1.626415E-05
4.015785E+03	7.239189E-04	1.635081E-05
4.025725E+03	7.277378E-04	1.643402E-05
4.035665E+03	7.315426E-04	1.651689E-05
4.045605E+03	7.354758E-04	1.660266E-05
4.055545E+03	7.392537E-04	1.668491E-05
4.065485E+03	7.431588E-04	1.677003E-05
4.075425E+03	7.469072E-04	1.685160E-05
4.085365E+03	7.507834E-04	1.693605E-05
4.095305E+03	7.545009E-04	1.701692E-05
4.105245E+03	7.583455E-04	1.710065E-05
4.115185E+03	7.621746E-04	1.718404E-05
4.125125E+03	7.658438E-04	1.726381E-05
4.135066E+03	7.696394E-04	1.734643E-05
4.145006E+03	7.734175E-04	1.742866E-05
4.154946E+03	7.771788E-04	1.751051E-05
4.164886E+03	7.807773E-04	1.758870E-05
4.174826E+03	7.845030E-04	1.766976E-05
4.184766E+03	7.882092E-04	1.775038E-05
4.194706E+03	7.918973E-04	1.783061E-05
4.204646E+03	7.955658E-04	1.791040E-05
4.214586E+03	7.992156E-04	1.798977E-05
4.224526E+03	8.026992E-04	1.806542E-05
4.234466E+03	8.063086E-04	1.814391E-05
4.244406E+03	8.098978E-04	1.822196E-05
4.254346E+03	8.134662E-04	1.829955E-05
4.264286E+03	8.170137E-04	1.837669E-05
4.274226E+03	8.205404E-04	1.845337E-05
4.284166E+03	8.240456E-04	1.852959E-05
4.294107E+03	8.275285E-04	1.860533E-05
4.304047E+03	8.309907E-04	1.868062E-05
4.313987E+03	8.345773E-04	1.875874E-05
4.323927E+03	8.379951E-04	1.883307E-05
4.333867E+03	8.413893E-04	1.890691E-05
4.343807E+03	8.447621E-04	1.898028E-05
4.353747E+03	8.481112E-04	1.905315E-05
4.363687E+03	8.514376E-04	1.912554E-05
4.373627E+03	8.547404E-04	1.919743E-05
4.383567E+03	8.581691E-04	1.927218E-05
4.393507E+03	8.614255E-04	1.934309E-05
4.403447E+03	8.646570E-04	1.941347E-05
4.413387E+03	8.678650E-04	1.948336E-05
4.423327E+03	8.710474E-04	1.955272E-05
4.433267E+03	8.742057E-04	1.962156E-05
4.443207E+03	8.774878E-04	1.969322E-05
4.453148E+03	8.805955E-04	1.976101E-05
4.463088E+03	8.836770E-04	1.982824E-05
4.473028E+03	8.867329E-04	1.989493E-05
4.482968E+03	8.899126E-04	1.996445E-05
4.492908E+03	8.929167E-04	2.003005E-05
4.502848E+03	8.958937E-04	2.009509E-05
4.512788E+03	8.988438E-04	2.015957E-05
4.522728E+03	9.017676E-04	2.022349E-05
4.532668E+03	9.048138E-04	2.029020E-05
4.542608E+03	9.076830E-04	2.035298E-05
4.552548E+03	9.105245E-04	2.041518E-05
4.562488E+03	9.133382E-04	2.047679E-05
4.572428E+03	9.161237E-04	2.053782E-05
4.582368E+03	9.190316E-04	2.060163E-05
4.592308E+03	9.217610E-04	2.066147E-05
4.602248E+03	9.244620E-04	2.072073E-05
4.612189E+03	9.271339E-04	2.077937E-05
4.622129E+03	9.297767E-04	2.083741E-05
4.632069E+03	9.323905E-04	2.089483E-05
4.642009E+03	9.349752E-04	2.095165E-05
4.651949E+03	9.376804E-04	2.101121E-05
4.661889E+03	9.402048E-04	2.106676E-05
4.671829E+03	9.427002E-04	2.112171E-05
4.681769E+03	9.451644E-04	2.117600E-05
4.691709E+03	9.475988E-04	2.122967E-05
4.701649E+03	9.500021E-04	2.128269E-05
4.711589E+03	9.523749E-04	2.133506E-05
4.721529E+03	9.547158E-04	2.138677E-05
4.731469E+03	9.570255E-04	2.143783E-05
4.741409E+03	9.593034E-04	2.148821E-05
4.751349E+03	9.615494E-04	2.153793E-05
4.761289E+03	9.637628E-04	2.158696E-05
4.771229E+03	9.657940E-04	2.163197E-05
4.781170E+03	9.679423E-04	2.167963E-05
4.791110E+03	9.700573E-04	2.172660E-05
4.801050E+03	9.721383E-04	2.177286E-05
4.810990E+03	9.741860E-04	2.181842E-05
4.820930E+03	9.760495E-04	2.185989E-05
4.830870E+03	9.780280E-04	2.190399E-05
4.840810E+03	9.799717E-04	2.194736E-05
4.850750E+03	9.817305E-04	2.198664E-05
4.860690E+03	9.836028E-04	2.202851E-05
4.870630E+03	9.852895E-04	2.206626E-05
4.880570E+03	9.870883E-04	2.210658E-05
4.890510E+03	9.887015E-04	2.214279E-05
4.900450E+03	9.904261E-04	2.218154E-05
4.910390E+03	9.919637E-04	2.221615E-05
4.920330E+03	9.936113E-04	2.225328E-05
4.930270E+03	9.950705E-04	2.228624E-05
4.940211E+03	9.964909E-04	2.231837E-05
4.950151E+03	9.978710E-04	2.234965E-05
4.960091E+03	9.993585E-04	2.238339E-05
4.970031E+03	1.000656E-03	2.241293E-05
4.979971E+03	1.001912E-03	2.244158E-05
4.989911E+03	1.003125E-03	2.246932E-05
4.999851E+03	1.004295E-03	2.249614E-05
5.009791E+03	1.005421E-03	2.252204E-05
5.019731E+03	1.006503E-03	2.254698E-05
5.029671E+03	1.007392E-03	2.256767E-05
5.039611E+03	1.008383E-03	2.259069E-05
5.049551E+03	1.009326E-03	2.261268E-05
5.059491E+03	1.010223E-03	2.263369E-05
5.069431E+03	1.010926E-03	2.265040E-05
5.079371E+03	1.011725E-03	2.266934E-05
5.089311E+03	1.012330E-03	2.268394E-05
5.099252E+03	1.013030E-03	2.270076E-05
5.109192E+03	1.013534E-03	2.271321E-05
5.119132E+03	1.014131E-03	2.272781E-05
5.129072E+03	1.014532E-03	2.273805E-05
5.139012E+03	1.014879E-03	2.274716E-05
5.148952E+03	1.015173E-03	2.275511E-05
5.158892E+03	1.015412E-03	2.276190E-05
5.168832E+03	1.015597E-03	2.276751E-05
5.178772E+03	1.015726E-03	2.277191E-05
5.188712E+03	1.015798E-03	2.277510E-05
5.198652E+03	1.015814E-03	2.277707E-05
5.208592E+03	1.015771E-03	2.277778E-05
5.218532E+03	1.015670E-03	2.277724E-05
5.228472E+03	1.015368E-03	2.277224E-05
5.238412E+03	1.015149E-03	2.276914E-05
5.248352E+03	1.014728E-03	2.276156E-05
5.258292E+03	1.014387E-03	2.275585E-05
5.268233E+03	1.013845E-03	2.274566E-05
5.278173E+03	1.013242E-03	2.273414E-05
5.288113E+03	1.012717E-03	2.272442E-05
5.298053E+03	1.011989E-03	2.271021E-05
5.307993E+03	1.011198E-03	2.269465E-05
5.317933E+03	1.010346E-03	2.267773E-05
5.327873E+03	1.009429E-03	2.265943E-05
5.337813E+03	1.008312E-03	2.263667E-05
5.347753E+03	1.007269E-03	2.261563E-05
5.357693E+03	1.006163E-03	2.259320E-05
5.367633E+03	1.004855E-03	2.256632E-05
5.377573E+03	1.003622E-03	2.254113E-05
5.387513E+03	1.002187E-03	2.251148E-05
5.397453E+03	1.000690E-03	2.248047E-05
5.407393E+03	9.992650E-04	2.245112E-05
5.417333E+03	9.976417E-04	2.241736E-05
5.427274E+03	9.959558E-04	2.238224E-05
5.437214E+03	9.942074E-04	2.234576E-05
5.447154E+03	9.923965E-04	2.230791E-05
5.457094E+03	9.905243E-04	2.226873E-05
5.467034E+03	9.884583E-04	2.222523E-05
5.476974E+03	9.864638E-04	2.218338E-05
5.486914E+03	9.842781E-04	2.213726E-05
5.496854E+03	9.821633E-04	2.209277E-05
5.506794E+03	9.798594E-04	2.204406E-05
5.516734E+03	9.774977E-04	2.199408E-05
5.526674E+03	9.752069E-04	2.194572E-05
5.536614E+03	9.727303E-04	2.189322E-05
5.546554E+03	9.701980E-04	2.183949E-05
5.556494E+03	9.674827E-04	2.178166E-05
5.566434E+03	9.648418E-04	2.172553E-05
5.576374E+03	9.621464E-04	2.166820E-05
5.586315E+03	9.592736E-04	2.160689E-05
5.596255E+03	9.564750E-04	2.154727E-05
5.606195E+03	9.535010E-04	2.148372E-05
5.616135E+03	9.506026E-04	2.142189E-05
5.626075E+03	9.475322E-04	2.135620E-05
5.636015E+03	9.444150E-04	2.128947E-05
5.645955E+03	9.412529E-04	2.122174E-05
5.655895E+03	9.380469E-04	2.115302E-05
5.665835E+03	9.347974E-04	2.108334E-05
5.675775E+03	9.313854E-04	2.101000E-05
5.685715E+03	9.280539E-04	2.093848E-05
5.695655E+03	9.245640E-04	2.086339E-05
5.705595E+03	9.211553E-04	2.079014E-05
5.715535E+03	9.175909E-04	2.071338E-05
5.725475E+03	9.139927E-04	2.063585E-05
5.735415E+03	9.103607E-04	2.055756E-05
5.745356E+03	9.066970E-04	2.047855E-05
5.755296E+03	9.030015E-04	2.039882E-05
5.765236E+03	8.992770E-04	2.031843E-05
5.775176E+03	8.954091E-04	2.023480E-05
5.785116E+03	8.916286E-04	2.015314E-05
5.795056E+03	8.877096E-04	2.006833E-05
5.804996E+03	8.837670E-04	1.998299E-05
5.814936E+03	8.799139E-04	1.989965E-05
5.824876E+03	8.759263E-04	1.981327E-05
5.834816E+03	8.719193E-04	1.972643E-05
5.844756E+03	8.677834E-04	1.963666E-05
5.854696E+03	8.637403E-04	1.954898E-05
5.864636E+03	8.596805E-04	1.946090E-05
5.874576E+03	8.554972E-04	1.937001E-05
5.884516E+03	8.514082E-04	1.928124E-05
5.894456E+03	8.471992E-04	1.918973E-05
5.904396E+03	8.429796E-04	1.909796E-05
5.914337E+03	8.387495E-04	1.900593E-05
5.924277E+03	8.345103E-04	1.891368E-05
5.934217E+03	8.302633E-04	1.882122E-05
5.944157E+03	8.260100E-04	1.872860E-05
5.954097E+03	8.216468E-04	1.863346E-05
5.964037E+03	8.173827E-04	1.854055E-05
5.973977E+03	8.130123E-04	1.844519E-05
5.983917E+03	8.086403E-04	1.834978E-05
5.993857E+03	8.043674E-04	1.825658E-05
6.003797E+03	7.999929E-04	1.816105E-05
6.013737E+03	7.955195E-04	1.806325E-05
6.023677E+03	7.911480E-04	1.796773E-05
6.033617E+03	7.867777E-04	1.787221E-05
6.043557E+03	7.824106E-04	1.777673E-05
6.053497E+03	7.779501E-04	1.767910E-05
6.063437E+03	7.734957E-04	1.758157E-05
6.073378E+03	7.690472E-04	1.748414E-05
6.083318E+03	7.646998E-04	1.738898E-05
6.093258E+03	7.602646E-04	1.729178E-05
6.103198E+03	7.557443E-04	1.719262E-05
6.113138E+03	7.513265E-04	1.709576E-05
6.123078E+03	7.469175E-04	1.699905E-05
6.133018E+03	7.424274E-04	1.690047E-05
6.142958E+03	7.380393E-04	1.680417E-05
6.152898E+03	7.335721E-04	1.670604E-05
6.162838E+03	7.291172E-04	1.660814E-05
6.172778E+03	7.246751E-04	1.651050E-05
6.182718E+03	7.202465E-04	1.641313E-05
6.192658E+03	7.158314E-04	1.631603E-05
6.202598E+03	7.113436E-04	1.621723E-05
6.212538E+03	7.069583E-04	1.612074E-05
6.222478E+03	7.025024E-04	1.602258E-05
6.232419E+03	6.981483E-04	1.592672E-05
6.242359E+03	6.937249E-04	1.582923E-05
6.252299E+03	6.893192E-04	1.573211E-05
6.262239E+03	6.849309E-04	1.563534E-05
6.272179E+03	6.805605E-04	1.553894E-05
6.282119E+03	6.761258E-04	1.544103E-05
6.292059E+03	6.717927E-04	1.534540E-05
6.301999E+03	6.673969E-04	1.524829E-05
6.311939E+03	6.631022E-04	1.515346E-05
6.321879E+03	6.587464E-04	1.505718E-05
6.331819E+03	6.544112E-04	1.496134E-05
6.341759E+03	6.500969E-04	1.486593E-05
6.351699E+03	6.458035E-04	1.477095E-05
6.361639E+03	6.415314E-04	1.467643E-05
6.371579E+03	6.372031E-04	1.458057E-05
6.381519E+03	6.329744E-04	1.448695E-05
6.391459E+03	6.286910E-04	1.439203E-05
6.401400E+03	6.245066E-04	1.429934E-05
6.411340E+03	6.202687E-04	1.420538E-05
6.421280E+03	6.160540E-04	1.411191E-05
6.431220E+03	6.118627E-04	1.401894E-05
6.441160E+03	6.076948E-04	1.392645E-05
6.451100E+03	6.034772E-04	1.383279E-05
6.461040E+03	5.993570E-04	1.374131E-05
6.470980E+03	5.951882E-04	1.364868E-05
6.480920E+03	5.911162E-04	1.355822E-05
6.490860E+03	5.869967E-04	1.346663E-05
6.500800E+03	5.829022E-04	1.337558E-05
6.510740E+03	5.788328E-04	1.328505E-05
6.520680E+03	5.747884E-04	1.319506E-05
6.530620E+03	5.707691E-04	1.310560E-05
6.540560E+03	5.667061E-04	1.301510E-05
6.550500E+03	5.627378E-04	1.292673E-05
6.560441E+03	5.587267E-04	1.283733E-05
6.570381E+03	5.547419E-04	1.274849E-05
6.580321E+03	5.508502E-04	1.266176E-05
6.590261E+03	5.469174E-04	1.257403E-05
6.600201E+03	5.430108E-04	1.248687E-05
6.610141E+03	5.390650E-04	1.239876E-05
6.620081E+03	5.352113E-04	1.231273E-05
6.630021E+03	5.313839E-04	1.222727E-05
6.639961E+03	5.275186E-04	1.214088E-05
6.649901E+03	5.237440E-04	1.205655E-05
6.659841E+03	5.199324E-04	1.197133E-05
6.669781E+03	5.161478E-04	1.188668E-05
6.679721E+03	5.123903E-04	1.180262E-05
6.689661E+03	5.086596E-04	1.171914E-05
6.699601E+03	5.049560E-04	1.163624E-05
6.709541E+03	5.012791E-04	1.155391E-05
6.719482E+03	4.975686E-04	1.147077E-05
6.729422E+03	4.939459E-04	1.138962E-05
6.739362E+03	4.902902E-04	1.130766E-05
6.749302E+03	4.866620E-04	1.122631E-05
6.759242E+03	4.830613E-04	1.114554E-05
6.769182E+03	4.795463E-04	1.106672E-05
6.779122E+03	4.759419E-04	1.098579E-05
6.789062E+03	4.724231E-04	1.090680E-05
6.799002E+03	4.689314E-04	1.082840E-05
6.808942E+03	4.654668E-04	1.075058E-05
6.818882E+03	4.619729E-04	1.067205E-05
6.828822E+03	4.585626E-04	1.059542E-05
6.838762E+03	4.551237E-04	1.051809E-05
6.848702E+03	4.517123E-04	1.044135E-05
6.858642E+03	4.483283E-04	1.036522E-05
6.868582E+03	4.449717E-04	1.028967E-05
6.878523E+03	4.416422E-04	1.021473E-05
6.888463E+03	4.383399E-04	1.014037E-05
6.898403E+03	4.350115E-04	1.006537E-05
6.908343E+03	4.317635E-04	9.992203E-06
6.918283E+03	4.284899E-04	9.918405E-06
6.928223E+03	4.252959E-04	9.846413E-06
6.938163E+03	4.220767E-04	9.773804E-06
6.948103E+03	4.188847E-04	9.701792E-06
6.958043E+03	4.157198E-04	9.630373E-06
6.967983E+03	4.125819E-04	9.559545E-06
6.977923E+03	4.094708E-04	9.489304E-06
6.987863E+03	4.063865E-04	9.419650E-06
6.997803E+03	4.032791E-04	9.349431E-06
7.007743E+03	4.002481E-04	9.280949E-06
7.017683E+03	3.971946E-04	9.211912E-06
7.027623E+03	3.942165E-04	9.144591E-06
7.037563E+03	3.912162E-04	9.076726E-06
7.047504E+03	3.882426E-04	9.009446E-06
7.057444E+03	3.852954E-04	8.942749E-06
7.067384E+03	3.823746E-04	8.876632E-06
7.077324E+03	3.794798E-04	8.811090E-06
7.087264E+03	3.766111E-04	8.746122E-06
7.097204E+03	3.737222E-04	8.680654E-06
7.107144E+03	3.709054E-04	8.616832E-06
7.117084E+03	3.680686E-04	8.552515E-06
7.127024E+03	3.653031E-04	8.489827E-06
7.136964E+03	3.625180E-04	8.426653E-06
7.146904E+03	3.597586E-04	8.364048E-06
7.156844E+03	3.570247E-04	8.302007E-06
7.166784E+03	3.543163E-04	8.240531E-06
7.176724E+03	3.516332E-04	8.179614E-06
7.186664E+03	3.489751E-04	8.119252E-06
7.196604E+03	3.463419E-04	8.059443E-06
7.206545E+03	3.436907E-04	7.999186E-06
7.216485E+03	3.411072E-04	7.940478E-06
7.226425E+03	3.385059E-04	7.881329E-06
7.236365E+03	3.359714E-04	7.823709E-06
7.246305E+03	3.334192E-04	7.765652E-06
7.256245E+03	3.308916E-04	7.708141E-06
7.266185E+03	3.283882E-04	7.651169E-06
7.276125E+03	3.259091E-04	7.594736E-06
7.286065E+03	3.234538E-04	7.538834E-06
7.296005E+03	3.210224E-04	7.483463E-06
7.305945E+03	3.186145E-04	7.428617E-06
7.315885E+03	3.162301E-04	7.374294E-06
7.325825E+03	3.138294E-04	7.319568E-06
7.335765E+03	3.114916E-04	7.266283E-06
7.345705E+03	3.091377E-04	7.212600E-06
7.355645E+03	3.068457E-04	7.160340E-06
7.365586E+03	3.045378E-04	7.107683E-06
7.375526E+03	3.022528E-04	7.055539E-06
7.385466E+03	2.999904E-04	7.003899E-06
7.395406E+03	2.977505E-04	6.952764E-06
7.405346E+03	2.955330E-04	6.902128E-06
7.415286E+03	2.933375E-04	6.851987E-06
7.425226E+03	2.911640E-04	6.802336E-06
7.435166E+03	2.889756E-04	6.752315E-06
7.445106E+03	2.868456E-04	6.703639E-06
7.455046E+03	2.847370E-04	6.655443E-06
7.464986E+03	2.826136E-04	6.606880E-06
7.474926E+03	2.805117E-04	6.558797E-06
7.484866E+03	2.784666E-04	6.512025E-06
7.494806E+03	2.764068E-04	6.464890E-06
7.504746E+03	2.743680E-04	6.418222E-06
7.514686E+03	2.723498E-04	6.372020E-06
7.524627E+03	2.703521E-04	6.326279E-06
7.534567E+03	2.683749E-04	6.280997E-06
7.544507E+03	2.664177E-04	6.236165E-06
7.554447E+03	2.644806E-04	6.191785E-06
7.564387E+03	2.625632E-04	6.147849E-06
7.574327E+03	2.606317E-04	6.103564E-06
7.584267E+03	2.587536E-04	6.060511E-06
7.594207E+03	2.568613E-04	6.017109E-06
7.604147E+03	2.550217E-04	5.974923E-06
7.614087E+03	2.531680E-04	5.932390E-06
7.624027E+03	2.513660E-04	5.891052E-06
7.633967E+03	2.495501E-04	5.849370E-06
7.643907E+03	2.477529E-04	5.808111E-06
7.653847E+03	2.459742E-04	5.767268E-06
7.663787E+03	2.442138E-04	5.726841E-06
7.673727E+03	2.424716E-04	5.686822E-06
7.683667E+03	2.407473E-04	5.647208E-06
7.693608E+03	2.390408E-04	5.607996E-06
7.703548E+03	2.373520E-04	5.569183E-06
7.713488E+03	2.356805E-04	5.530762E-06
