#wls	flux	fluxerr
1.575579E+03	5.760193E-03	1.300354E-04
1.614968E+03	5.982441E-03	1.341846E-04
1.654357E+03	6.223482E-03	1.386681E-04
1.693747E+03	6.484495E-03	1.435010E-04
1.733136E+03	6.767299E-03	1.487114E-04
1.772526E+03	7.073184E-03	1.543142E-04
1.811915E+03	7.404707E-03	1.603505E-04
1.851305E+03	7.763886E-03	1.668475E-04
1.890694E+03	8.152222E-03	1.738195E-04
1.930084E+03	8.571235E-03	1.812796E-04
1.969473E+03	9.022480E-03	1.892399E-04
2.008863E+03	9.508176E-03	1.977244E-04
2.048252E+03	1.002736E-02	2.066893E-04
2.087642E+03	1.058090E-02	2.161279E-04
2.127031E+03	1.116826E-02	2.260040E-04
2.166420E+03	1.178610E-02	2.362247E-04
2.205810E+03	1.243414E-02	2.467594E-04
2.245199E+03	1.311048E-02	2.575457E-04
2.284589E+03	1.381635E-02	2.685828E-04
2.323978E+03	1.455414E-02	2.798900E-04
2.363368E+03	1.532738E-02	2.915066E-04
2.402757E+03	1.614154E-02	3.035038E-04
2.442147E+03	1.699900E-02	3.158906E-04
2.481536E+03	1.790392E-02	3.287053E-04
2.520926E+03	1.885940E-02	3.419621E-04
2.560315E+03	1.986582E-02	3.556235E-04
2.599705E+03	2.092378E-02	3.696541E-04
2.639094E+03	2.203182E-02	3.839817E-04
2.678484E+03	2.318873E-02	3.985383E-04
2.717873E+03	2.439143E-02	4.132255E-04
2.757262E+03	2.563672E-02	4.279451E-04
2.796652E+03	2.692092E-02	4.425940E-04
2.836041E+03	2.824414E-02	4.571340E-04
2.875431E+03	2.960726E-02	4.715390E-04
2.914820E+03	3.101345E-02	4.858186E-04
2.954210E+03	3.247298E-02	5.000881E-04
2.964057E+03	3.284796E-02	5.036751E-04
2.973904E+03	3.322716E-02	5.072707E-04
2.983752E+03	3.361075E-02	5.108768E-04
2.993599E+03	3.399971E-02	5.145071E-04
3.003447E+03	3.439428E-02	5.181640E-04
3.013294E+03	3.479474E-02	5.218506E-04
3.023141E+03	3.520137E-02	5.255697E-04
3.032989E+03	3.561452E-02	5.293250E-04
3.042836E+03	3.603452E-02	5.331203E-04
3.052683E+03	3.646252E-02	5.369708E-04
3.062531E+03	3.689893E-02	5.408810E-04
3.072378E+03	3.734345E-02	5.448447E-04
3.082226E+03	3.779807E-02	5.488888E-04
3.092073E+03	3.826180E-02	5.529973E-04
3.101920E+03	3.873596E-02	5.571868E-04
3.111768E+03	3.922186E-02	5.614741E-04
3.121615E+03	3.971939E-02	5.658552E-04
3.131462E+03	4.022995E-02	5.703475E-04
3.141310E+03	4.075350E-02	5.749475E-04
3.151157E+03	4.129150E-02	5.796732E-04
3.161004E+03	4.184473E-02	5.845323E-04
3.170852E+03	4.241322E-02	5.895223E-04
3.180699E+03	4.299855E-02	5.946615E-04
3.190547E+03	4.360154E-02	5.999581E-04
3.200394E+03	4.422307E-02	6.054201E-04
3.210241E+03	4.486397E-02	6.110551E-04
3.220089E+03	4.552507E-02	6.168704E-04
3.229936E+03	4.620718E-02	6.228727E-04
3.239783E+03	4.691023E-02	6.290565E-04
3.249631E+03	4.763627E-02	6.354451E-04
3.259478E+03	4.838406E-02	6.420172E-04
3.269325E+03	4.915425E-02	6.487768E-04
3.279173E+03	4.994540E-02	6.557006E-04
3.289020E+03	5.075692E-02	6.627767E-04
3.298868E+03	5.158681E-02	6.699746E-04
3.308715E+03	5.243095E-02	6.772378E-04
3.318562E+03	5.328796E-02	6.845456E-04
3.328410E+03	5.415314E-02	6.918355E-04
3.338257E+03	5.502363E-02	6.990697E-04
3.348104E+03	5.589519E-02	7.061938E-04
3.357952E+03	5.676063E-02	7.131178E-04
3.367799E+03	5.761448E-02	7.197747E-04
3.377646E+03	5.844633E-02	7.260384E-04
3.387494E+03	5.924625E-02	7.317911E-04
3.397341E+03	6.000440E-02	7.369193E-04
3.407189E+03	6.071187E-02	7.413236E-04
3.417036E+03	6.136476E-02	7.449677E-04
3.426883E+03	6.196138E-02	7.478435E-04
3.436731E+03	6.250656E-02	7.500214E-04
3.446578E+03	6.300869E-02	7.516129E-04
3.456425E+03	6.348025E-02	7.527757E-04
3.466273E+03	6.393177E-02	7.536411E-04
3.476120E+03	6.437232E-02	7.543200E-04
3.485968E+03	6.480841E-02	7.548915E-04
3.495815E+03	6.523838E-02	7.553379E-04
3.505662E+03	6.565808E-02	7.556136E-04
3.515510E+03	6.606113E-02	7.556483E-04
3.525357E+03	6.644272E-02	7.553917E-04
3.535204E+03	6.681004E-02	7.549303E-04
3.545052E+03	6.717231E-02	7.543714E-04
3.554899E+03	6.751405E-02	7.535442E-04
3.564746E+03	6.781501E-02	7.522291E-04
3.574594E+03	6.806577E-02	7.503316E-04
3.584441E+03	6.826956E-02	7.478982E-04
3.594289E+03	6.843216E-02	7.450019E-04
3.604136E+03	6.856291E-02	7.417527E-04
3.613983E+03	6.867264E-02	7.382738E-04
3.623831E+03	6.877483E-02	7.347143E-04
3.633678E+03	6.888306E-02	7.312202E-04
3.643525E+03	6.900987E-02	7.279229E-04
3.653373E+03	6.916802E-02	7.249532E-04
3.663220E+03	6.936753E-02	7.224096E-04
3.673067E+03	6.961520E-02	7.203547E-04
3.682915E+03	6.991788E-02	7.188502E-04
3.692762E+03	7.027656E-02	7.178959E-04
3.702610E+03	7.069217E-02	7.174909E-04
3.712457E+03	7.116398E-02	7.176175E-04
3.722304E+03	7.168580E-02	7.182039E-04
3.732152E+03	7.225146E-02	7.191797E-04
3.741999E+03	7.284808E-02	7.204101E-04
3.751846E+03	7.346117E-02	7.217483E-04
3.761694E+03	7.407313E-02	7.230201E-04
3.771541E+03	7.466480E-02	7.240417E-04
3.781388E+03	7.521943E-02	7.246567E-04
3.791236E+03	7.572462E-02	7.247548E-04
3.801083E+03	7.617247E-02	7.242717E-04
3.810931E+03	7.656305E-02	7.232202E-04
3.820778E+03	7.690161E-02	7.216614E-04
3.830625E+03	7.719900E-02	7.197076E-04
3.840473E+03	7.746713E-02	7.174779E-04
3.850320E+03	7.771577E-02	7.150689E-04
3.860167E+03	7.795086E-02	7.125396E-04
3.870015E+03	7.817116E-02	7.098828E-04
3.879862E+03	7.837144E-02	7.070551E-04
3.889710E+03	7.854259E-02	7.039800E-04
3.899557E+03	7.867156E-02	7.005476E-04
3.909404E+03	7.874901E-02	6.966841E-04
3.919252E+03	7.876486E-02	6.923112E-04
3.929099E+03	7.871302E-02	6.873875E-04
3.938946E+03	7.859197E-02	6.819124E-04
3.948794E+03	7.840297E-02	6.759097E-04
3.958641E+03	7.815361E-02	6.694566E-04
3.968488E+03	7.785364E-02	6.626470E-04
3.978336E+03	7.751571E-02	6.555969E-04
3.988183E+03	7.715294E-02	6.484236E-04
3.998031E+03	7.677989E-02	6.412531E-04
4.007878E+03	7.640739E-02	6.341779E-04
4.017725E+03	7.604307E-02	6.272612E-04
4.027573E+03	7.569021E-02	6.205295E-04
4.037420E+03	7.534765E-02	6.139722E-04
4.047267E+03	7.501046E-02	6.075487E-04
4.057115E+03	7.466865E-02	6.011785E-04
4.066962E+03	7.431067E-02	5.947704E-04
4.076809E+03	7.392320E-02	5.882213E-04
4.086657E+03	7.349390E-02	5.814385E-04
4.096504E+03	7.301414E-02	5.743602E-04
4.106352E+03	7.248175E-02	5.669765E-04
4.116199E+03	7.190343E-02	5.593465E-04
4.126046E+03	7.129301E-02	5.515834E-04
4.135894E+03	7.067331E-02	5.438663E-04
4.145741E+03	7.007079E-02	5.363989E-04
4.155588E+03	6.951041E-02	5.293690E-04
4.165436E+03	6.901573E-02	5.229497E-04
4.175283E+03	6.860348E-02	5.172597E-04
4.185130E+03	6.828538E-02	5.123779E-04
4.194978E+03	6.806607E-02	5.083290E-04
4.204825E+03	6.794613E-02	5.051075E-04
4.214673E+03	6.792529E-02	5.027022E-04
4.224520E+03	6.799874E-02	5.010691E-04
4.234367E+03	6.816282E-02	5.001740E-04
4.244215E+03	6.840974E-02	4.999531E-04
4.254062E+03	6.872781E-02	5.003164E-04
4.263909E+03	6.909717E-02	5.011158E-04
4.273757E+03	6.948801E-02	5.021345E-04
4.283604E+03	6.985466E-02	5.030442E-04
4.293452E+03	7.013653E-02	5.034126E-04
4.303299E+03	7.027418E-02	5.028195E-04
4.313146E+03	7.024420E-02	5.011059E-04
4.322994E+03	7.009280E-02	4.986091E-04
4.332841E+03	6.982754E-02	4.953873E-04
4.342688E+03	6.942558E-02	4.912826E-04
4.352536E+03	6.892830E-02	4.865908E-04
4.362383E+03	6.840839E-02	4.818252E-04
4.372230E+03	6.792600E-02	4.774058E-04
4.382078E+03	6.751807E-02	4.735864E-04
4.391925E+03	6.720122E-02	4.704769E-04
4.401773E+03	6.697295E-02	4.680531E-04
4.411620E+03	6.681927E-02	4.662113E-04
4.421467E+03	6.671862E-02	4.647962E-04
4.431315E+03	6.664613E-02	4.636306E-04
4.441162E+03	6.657645E-02	4.625352E-04
4.451009E+03	6.648921E-02	4.613662E-04
4.460857E+03	6.636965E-02	4.600194E-04
4.470704E+03	6.621013E-02	4.584402E-04
4.480551E+03	6.601044E-02	4.566257E-04
4.490399E+03	6.577701E-02	4.546186E-04
4.500246E+03	6.551805E-02	4.524737E-04
4.510094E+03	6.523989E-02	4.502325E-04
4.519941E+03	6.494903E-02	4.479379E-04
4.529788E+03	6.464575E-02	4.455895E-04
4.539636E+03	6.433091E-02	4.431910E-04
4.549483E+03	6.400428E-02	4.407387E-04
4.559330E+03	6.366660E-02	4.382356E-04
4.569178E+03	6.332161E-02	4.357053E-04
4.579025E+03	6.297389E-02	4.331772E-04
4.588872E+03	6.263079E-02	4.306998E-04
4.598720E+03	6.229531E-02	4.282919E-04
4.608567E+03	6.197030E-02	4.259711E-04
4.618415E+03	6.165414E-02	4.237243E-04
4.628262E+03	6.134284E-02	4.215225E-04
4.638109E+03	6.102948E-02	4.193164E-04
4.647957E+03	6.070790E-02	4.170622E-04
4.657804E+03	6.037195E-02	4.147159E-04
4.667651E+03	6.001917E-02	4.122596E-04
4.677499E+03	5.964736E-02	4.096765E-04
4.687346E+03	5.925857E-02	4.069795E-04
4.697194E+03	5.885638E-02	4.041921E-04
4.707041E+03	5.844520E-02	4.013432E-04
4.716888E+03	5.803138E-02	3.984755E-04
4.726736E+03	5.762012E-02	3.956236E-04
4.736583E+03	5.721671E-02	3.928229E-04
4.746430E+03	5.682567E-02	3.901035E-04
4.756278E+03	5.645098E-02	3.874919E-04
4.766125E+03	5.609566E-02	3.850081E-04
4.775972E+03	5.576483E-02	3.826863E-04
4.785820E+03	5.546105E-02	3.805435E-04
4.795667E+03	5.519042E-02	3.786207E-04
4.805515E+03	5.495743E-02	3.769482E-04
4.815362E+03	5.476727E-02	3.755609E-04
4.825209E+03	5.462184E-02	3.744709E-04
4.835057E+03	5.452214E-02	3.736844E-04
4.844904E+03	5.446538E-02	3.731817E-04
4.854751E+03	5.444434E-02	3.729125E-04
4.864599E+03	5.444966E-02	3.728119E-04
4.874446E+03	5.446828E-02	3.727902E-04
4.884293E+03	5.448719E-02	3.727575E-04
4.894141E+03	5.449264E-02	3.726198E-04
4.903988E+03	5.447551E-02	3.723143E-04
4.913836E+03	5.442845E-02	3.717908E-04
4.923683E+03	5.435017E-02	3.710406E-04
4.933530E+03	5.424193E-02	3.700726E-04
4.943378E+03	5.410831E-02	3.689183E-04
4.953225E+03	5.395327E-02	3.676048E-04
4.963072E+03	5.377776E-02	3.661392E-04
4.972920E+03	5.358111E-02	3.645170E-04
4.982767E+03	5.335876E-02	3.627078E-04
4.992614E+03	5.310456E-02	3.606704E-04
5.002462E+03	5.281223E-02	3.583630E-04
5.012309E+03	5.248070E-02	3.557792E-04
5.022157E+03	5.211235E-02	3.529362E-04
5.032004E+03	5.171235E-02	3.498704E-04
5.041851E+03	5.129236E-02	3.466614E-04
5.051699E+03	5.086297E-02	3.433816E-04
5.061546E+03	5.043516E-02	3.401059E-04
5.071393E+03	5.001805E-02	3.368963E-04
5.081241E+03	4.961743E-02	3.337919E-04
5.091088E+03	4.923733E-02	3.308199E-04
5.100935E+03	4.887803E-02	3.279823E-04
5.110783E+03	4.853818E-02	3.252700E-04
5.120630E+03	4.821446E-02	3.226609E-04
5.130478E+03	4.790112E-02	3.201167E-04
5.140325E+03	4.759318E-02	3.176043E-04
5.150172E+03	4.728374E-02	3.150782E-04
5.160020E+03	4.696546E-02	3.124904E-04
5.169867E+03	4.663141E-02	3.097954E-04
5.179714E+03	4.627461E-02	3.069481E-04
5.189562E+03	4.588788E-02	3.039024E-04
5.199409E+03	4.546583E-02	3.006243E-04
5.209257E+03	4.500349E-02	2.970825E-04
5.219104E+03	4.449999E-02	2.932736E-04
5.228951E+03	4.395697E-02	2.892101E-04
5.238799E+03	4.338168E-02	2.849419E-04
5.248646E+03	4.278458E-02	2.805393E-04
5.258493E+03	4.217921E-02	2.760922E-04
5.268341E+03	4.157981E-02	2.716949E-04
5.278188E+03	4.099885E-02	2.674289E-04
5.288035E+03	4.044759E-02	2.633678E-04
5.297883E+03	3.993371E-02	2.595608E-04
5.307730E+03	3.946298E-02	2.560449E-04
5.317578E+03	3.903924E-02	2.528439E-04
5.327425E+03	3.866787E-02	2.499915E-04
5.337272E+03	3.835218E-02	2.475078E-04
5.347120E+03	3.809461E-02	2.454071E-04
5.356967E+03	3.789146E-02	2.436641E-04
5.366814E+03	3.772545E-02	2.421665E-04
5.376662E+03	3.756341E-02	2.407002E-04
5.386509E+03	3.736085E-02	2.389800E-04
5.396356E+03	3.709263E-02	2.368461E-04
5.406204E+03	3.679575E-02	2.345362E-04
5.416051E+03	3.651736E-02	2.323507E-04
5.425899E+03	3.622467E-02	2.300802E-04
5.435746E+03	3.592345E-02	2.277613E-04
5.445593E+03	3.566864E-02	2.257416E-04
5.455441E+03	3.551855E-02	2.243875E-04
5.465288E+03	3.551059E-02	2.239308E-04
5.475135E+03	3.566009E-02	2.244629E-04
5.484983E+03	3.596425E-02	2.259600E-04
5.494830E+03	3.640488E-02	2.283024E-04
5.504677E+03	3.695470E-02	2.313140E-04
5.514525E+03	3.758060E-02	2.347834E-04
5.524372E+03	3.824714E-02	2.384863E-04
5.534220E+03	3.892107E-02	2.422136E-04
5.544067E+03	3.957349E-02	2.457849E-04
5.553914E+03	4.018185E-02	2.490607E-04
5.563762E+03	4.073068E-02	2.519461E-04
5.573609E+03	4.120950E-02	2.543783E-04
5.583456E+03	4.161380E-02	2.563315E-04
5.593304E+03	4.193959E-02	2.577836E-04
5.603151E+03	4.218582E-02	2.587308E-04
5.612999E+03	4.235125E-02	2.591684E-04
5.622846E+03	4.243517E-02	2.590949E-04
5.632693E+03	4.243967E-02	2.585263E-04
5.642541E+03	4.236810E-02	2.574860E-04
5.652388E+03	4.222785E-02	2.560220E-04
5.662235E+03	4.202915E-02	2.541992E-04
5.672083E+03	4.178526E-02	2.521000E-04
5.681930E+03	4.150976E-02	2.498085E-04
5.691777E+03	4.121726E-02	2.474140E-04
5.701625E+03	4.091857E-02	2.449819E-04
5.711472E+03	4.062258E-02	2.425660E-04
5.721320E+03	4.033481E-02	2.401993E-04
5.731167E+03	4.005742E-02	2.378945E-04
5.741014E+03	3.979067E-02	2.356528E-04
5.750862E+03	3.953566E-02	2.334807E-04
5.760709E+03	3.929465E-02	2.313910E-04
5.770556E+03	3.907021E-02	2.293986E-04
5.780404E+03	3.886728E-02	2.275318E-04
5.790251E+03	3.869048E-02	2.258169E-04
5.800098E+03	3.854092E-02	2.242595E-04
5.809946E+03	3.841789E-02	2.228542E-04
5.819793E+03	3.831572E-02	2.215673E-04
5.829641E+03	3.822454E-02	2.203412E-04
5.839488E+03	3.813406E-02	2.191167E-04
5.849335E+03	3.803464E-02	2.178389E-04
5.859183E+03	3.791834E-02	2.164636E-04
5.869030E+03	3.778291E-02	2.149794E-04
5.878877E+03	3.763012E-02	2.133981E-04
5.888725E+03	3.746464E-02	2.117476E-04
5.898572E+03	3.729340E-02	2.100685E-04
5.908419E+03	3.712356E-02	2.084017E-04
5.918267E+03	3.696073E-02	2.067795E-04
5.928114E+03	3.680934E-02	2.052267E-04
5.937962E+03	3.667012E-02	2.037476E-04
5.947809E+03	3.654106E-02	2.023311E-04
5.957656E+03	3.641603E-02	2.009434E-04
5.967504E+03	3.628782E-02	1.995457E-04
5.977351E+03	3.614514E-02	1.980770E-04
5.987198E+03	3.597819E-02	1.964855E-04
5.997046E+03	3.577609E-02	1.947142E-04
6.006893E+03	3.553285E-02	1.927334E-04
6.016741E+03	3.524446E-02	1.905247E-04
6.026588E+03	3.491343E-02	1.881047E-04
6.036435E+03	3.454664E-02	1.855137E-04
6.046283E+03	3.415472E-02	1.828111E-04
6.056130E+03	3.375118E-02	1.800710E-04
6.065977E+03	3.335166E-02	1.773780E-04
6.075825E+03	3.297079E-02	1.748100E-04
6.085672E+03	3.262073E-02	1.724310E-04
6.095519E+03	3.230979E-02	1.702841E-04
6.105367E+03	3.204259E-02	1.683924E-04
6.115214E+03	3.181931E-02	1.667556E-04
6.125062E+03	3.163614E-02	1.653525E-04
6.134909E+03	3.148985E-02	1.641658E-04
6.144756E+03	3.137688E-02	1.631760E-04
6.154604E+03	3.129628E-02	1.623781E-04
6.164451E+03	3.125074E-02	1.617858E-04
6.174298E+03	3.124429E-02	1.614199E-04
6.184146E+03	3.128202E-02	1.613063E-04
6.193993E+03	3.136736E-02	1.614630E-04
6.203840E+03	3.150078E-02	1.618923E-04
6.213688E+03	3.167980E-02	1.625818E-04
6.223535E+03	3.189534E-02	1.634858E-04
6.233383E+03	3.213631E-02	1.645486E-04
6.243230E+03	3.238802E-02	1.656965E-04
6.253077E+03	3.263610E-02	1.668577E-04
6.262925E+03	3.286467E-02	1.679532E-04
6.272772E+03	3.305885E-02	1.689089E-04
6.282619E+03	3.320384E-02	1.696511E-04
6.292467E+03	3.328338E-02	1.700981E-04
6.302314E+03	3.328353E-02	1.701799E-04
6.312161E+03	3.319136E-02	1.698304E-04
6.322009E+03	3.299834E-02	1.690040E-04
6.331856E+03	3.270323E-02	1.676906E-04
6.341704E+03	3.231255E-02	1.659197E-04
6.351551E+03	3.183966E-02	1.637551E-04
6.361398E+03	3.130169E-02	1.612802E-04
6.371246E+03	3.071734E-02	1.585866E-04
6.381093E+03	3.010517E-02	1.557658E-04
6.390940E+03	2.948101E-02	1.528959E-04
6.400788E+03	2.886259E-02	1.500656E-04
6.410635E+03	2.827307E-02	1.473929E-04
6.420483E+03	2.775613E-02	1.451046E-04
6.430330E+03	2.738091E-02	1.435640E-04
6.440177E+03	2.716277E-02	1.428564E-04
6.450025E+03	2.704118E-02	1.426681E-04
6.459872E+03	2.697352E-02	1.427770E-04
6.469719E+03	2.694463E-02	1.431040E-04
6.479567E+03	2.694863E-02	1.436186E-04
6.489414E+03	2.698070E-02	1.442956E-04
6.499261E+03	2.703583E-02	1.451085E-04
6.509109E+03	2.710722E-02	1.460208E-04
6.518956E+03	2.718707E-02	1.469903E-04
6.528804E+03	2.726727E-02	1.479724E-04
6.538651E+03	2.734002E-02	1.489236E-04
6.548498E+03	2.739858E-02	1.498053E-04
6.558346E+03	2.743722E-02	1.505843E-04
6.568193E+03	2.745305E-02	1.512423E-04
6.578040E+03	2.744410E-02	1.517660E-04
6.587888E+03	2.741095E-02	1.521559E-04
6.597735E+03	2.735478E-02	1.524162E-04
6.607582E+03	2.727689E-02	1.525516E-04
6.617430E+03	2.717925E-02	1.525709E-04
6.627277E+03	2.706435E-02	1.524860E-04
6.637125E+03	2.693334E-02	1.523014E-04
6.646972E+03	2.678956E-02	1.520344E-04
6.656819E+03	2.663542E-02	1.516970E-04
6.666667E+03	2.647388E-02	1.513049E-04
6.676514E+03	2.630930E-02	1.508820E-04
6.686361E+03	2.614569E-02	1.504504E-04
6.696209E+03	2.598643E-02	1.500292E-04
6.706056E+03	2.583546E-02	1.496409E-04
6.715903E+03	2.569519E-02	1.492995E-04
6.725751E+03	2.556839E-02	1.490211E-04
6.735598E+03	2.545573E-02	1.488100E-04
6.745446E+03	2.535915E-02	1.486776E-04
6.755293E+03	2.527809E-02	1.486213E-04
6.765140E+03	2.521341E-02	1.486463E-04
6.774988E+03	2.516371E-02	1.487447E-04
6.784835E+03	2.512881E-02	1.489157E-04
6.794682E+03	2.510753E-02	1.491524E-04
6.804530E+03	2.509974E-02	1.494543E-04
6.814377E+03	2.510447E-02	1.498156E-04
6.824225E+03	2.512166E-02	1.502360E-04
6.834072E+03	2.514959E-02	1.507052E-04
6.843919E+03	2.518799E-02	1.512215E-04
6.853767E+03	2.523461E-02	1.517711E-04
6.863614E+03	2.528658E-02	1.523367E-04
6.873461E+03	2.534199E-02	1.529064E-04
6.883309E+03	2.539660E-02	1.534540E-04
6.893156E+03	2.544751E-02	1.539616E-04
6.903003E+03	2.549082E-02	1.544052E-04
6.912851E+03	2.552391E-02	1.547680E-04
6.922698E+03	2.554346E-02	1.550295E-04
6.932546E+03	2.554761E-02	1.551777E-04
6.942393E+03	2.553339E-02	1.551941E-04
6.952240E+03	2.550024E-02	1.550748E-04
6.962088E+03	2.544596E-02	1.548062E-04
6.971935E+03	2.537072E-02	1.543889E-04
6.981782E+03	2.527307E-02	1.538140E-04
6.991630E+03	2.515347E-02	1.530842E-04
7.001477E+03	2.501187E-02	1.521995E-04
7.011324E+03	2.484973E-02	1.511689E-04
7.021172E+03	2.466851E-02	1.500015E-04
7.031019E+03	2.446901E-02	1.487029E-04
7.040867E+03	2.425431E-02	1.472922E-04
7.050714E+03	2.402661E-02	1.457833E-04
7.060561E+03	2.378715E-02	1.441846E-04
7.070409E+03	2.353865E-02	1.425133E-04
7.080256E+03	2.328337E-02	1.407836E-04
7.090103E+03	2.302309E-02	1.390073E-04
7.099951E+03	2.276110E-02	1.372048E-04
7.109798E+03	2.249887E-02	1.353858E-04
7.119645E+03	2.223884E-02	1.335655E-04
7.129493E+03	2.198389E-02	1.317618E-04
7.139340E+03	2.173543E-02	1.299837E-04
7.149188E+03	2.149655E-02	1.282499E-04
7.159035E+03	2.126878E-02	1.265699E-04
7.168882E+03	2.105390E-02	1.249544E-04
7.178730E+03	2.085300E-02	1.234097E-04
7.188577E+03	2.066737E-02	1.219434E-04
7.198424E+03	2.049848E-02	1.205638E-04
7.208272E+03	2.034670E-02	1.192728E-04
7.218119E+03	2.021225E-02	1.180710E-04
7.227967E+03	2.009561E-02	1.169608E-04
7.237814E+03	1.999720E-02	1.159437E-04
7.247661E+03	1.991727E-02	1.150205E-04
7.257509E+03	1.985559E-02	1.141888E-04
7.267356E+03	1.981174E-02	1.134452E-04
7.277203E+03	1.978550E-02	1.127874E-04
7.287051E+03	1.977553E-02	1.122068E-04
7.296898E+03	1.978200E-02	1.117033E-04
7.306745E+03	1.980279E-02	1.112637E-04
7.316593E+03	1.983690E-02	1.108815E-04
7.326440E+03	1.988370E-02	1.105521E-04
7.336288E+03	1.994245E-02	1.102706E-04
7.346135E+03	2.001147E-02	1.100268E-04
7.355982E+03	2.009044E-02	1.098180E-04
7.365830E+03	2.017827E-02	1.096377E-04
7.375677E+03	2.027497E-02	1.094852E-04
7.385524E+03	2.037936E-02	1.093534E-04
7.395372E+03	2.049166E-02	1.092430E-04
7.405219E+03	2.061110E-02	1.091493E-04
7.415066E+03	2.073662E-02	1.090662E-04
7.424914E+03	2.086724E-02	1.089884E-04
7.434761E+03	2.100070E-02	1.089036E-04
7.444609E+03	2.113592E-02	1.088067E-04
7.454456E+03	2.127049E-02	1.086854E-04
7.464303E+03	2.140262E-02	1.085312E-04
7.474151E+03	2.153125E-02	1.083397E-04
7.483998E+03	2.165494E-02	1.081046E-04
7.493845E+03	2.177220E-02	1.078200E-04
7.503693E+03	2.188091E-02	1.074768E-04
7.513540E+03	2.198024E-02	1.070731E-04
7.523387E+03	2.206723E-02	1.065965E-04
7.533235E+03	2.214091E-02	1.060450E-04
7.543082E+03	2.219840E-02	1.054075E-04
7.552930E+03	2.223910E-02	1.046845E-04
7.562777E+03	2.226071E-02	1.038687E-04
7.572624E+03	2.226341E-02	1.029644E-04
7.582472E+03	2.224628E-02	1.019714E-04
7.592319E+03	2.220958E-02	1.008947E-04
7.602166E+03	2.215381E-02	9.974051E-05
7.612014E+03	2.208207E-02	9.852657E-05
7.621861E+03	2.199689E-02	9.726781E-05
7.631709E+03	2.190244E-02	9.598569E-05
7.641556E+03	2.180314E-02	9.470232E-05
