#wls	flux	fluxerr
1.575579E+03	5.044042E-03	4.759462E-04
1.614968E+03	5.092131E-03	4.784837E-04
1.654357E+03	5.144309E-03	4.813132E-04
1.693747E+03	5.201590E-03	4.845218E-04
1.733136E+03	5.264152E-03	4.881167E-04
1.772526E+03	5.333048E-03	4.921852E-04
1.811915E+03	5.408482E-03	4.967344E-04
1.851305E+03	5.490662E-03	5.017710E-04
1.890694E+03	5.582477E-03	5.075443E-04
1.930084E+03	5.684204E-03	5.140616E-04
1.969473E+03	5.796119E-03	5.213285E-04
2.008863E+03	5.920329E-03	5.295134E-04
2.048252E+03	6.058075E-03	5.387021E-04
2.087642E+03	6.212496E-03	5.491446E-04
2.127031E+03	6.383020E-03	5.607572E-04
2.166420E+03	6.573795E-03	5.738678E-04
2.205810E+03	6.784223E-03	5.883822E-04
2.245199E+03	7.014559E-03	6.042790E-04
2.284589E+03	7.265905E-03	6.216073E-04
2.323978E+03	7.536244E-03	6.401463E-04
2.363368E+03	7.826265E-03	6.599069E-04
2.402757E+03	8.135385E-03	6.807900E-04
2.442147E+03	8.461606E-03	7.025785E-04
2.481536E+03	8.803466E-03	7.251030E-04
2.520926E+03	9.158939E-03	7.481505E-04
2.560315E+03	9.526379E-03	7.715426E-04
2.599705E+03	9.900136E-03	7.947832E-04
2.639094E+03	1.027792E-02	8.176583E-04
2.678484E+03	1.065426E-02	8.397091E-04
2.717873E+03	1.102363E-02	8.604894E-04
2.757262E+03	1.138038E-02	8.795606E-04
2.796652E+03	1.171549E-02	8.962425E-04
2.836041E+03	1.201774E-02	9.097219E-04
2.875431E+03	1.227206E-02	9.189337E-04
2.914820E+03	1.246978E-02	9.233412E-04
2.954210E+03	1.259898E-02	9.222040E-04
2.964057E+03	1.261885E-02	9.209472E-04
2.973904E+03	1.263508E-02	9.194043E-04
2.983752E+03	1.264659E-02	9.174999E-04
2.993599E+03	1.265335E-02	9.152341E-04
3.003447E+03	1.265534E-02	9.126084E-04
3.013294E+03	1.265256E-02	9.096271E-04
3.023141E+03	1.264505E-02	9.062960E-04
3.032989E+03	1.263289E-02	9.026229E-04
3.042836E+03	1.261713E-02	8.986862E-04
3.052683E+03	1.259695E-02	8.944304E-04
3.062531E+03	1.257253E-02	8.898715E-04
3.072378E+03	1.254500E-02	8.850918E-04
3.082226E+03	1.251370E-02	8.800472E-04
3.092073E+03	1.247982E-02	8.748239E-04
3.101920E+03	1.244368E-02	8.694459E-04
3.111768E+03	1.240477E-02	8.638791E-04
3.121615E+03	1.236437E-02	8.582145E-04
3.131462E+03	1.232373E-02	8.525409E-04
3.141310E+03	1.228163E-02	8.467727E-04
3.151157E+03	1.224020E-02	8.410591E-04
3.161004E+03	1.219828E-02	8.353191E-04
3.170852E+03	1.215882E-02	8.297547E-04
3.180699E+03	1.212065E-02	8.242853E-04
3.190547E+03	1.208426E-02	8.189430E-04
3.200394E+03	1.205166E-02	8.138622E-04
3.210241E+03	1.202169E-02	8.089624E-04
3.220089E+03	1.199624E-02	8.043693E-04
3.229936E+03	1.197487E-02	8.000491E-04
3.239783E+03	1.195856E-02	7.960649E-04
3.249631E+03	1.194676E-02	7.923769E-04
3.259478E+03	1.194032E-02	7.890374E-04
3.269325E+03	1.194001E-02	7.860935E-04
3.279173E+03	1.194506E-02	7.834904E-04
3.289020E+03	1.195608E-02	7.812644E-04
3.298868E+03	1.197292E-02	7.794003E-04
3.308715E+03	1.199534E-02	7.778789E-04
3.318562E+03	1.202375E-02	7.767221E-04
3.328410E+03	1.205779E-02	7.759027E-04
3.338257E+03	1.209708E-02	7.753922E-04
3.348104E+03	1.214188E-02	7.752024E-04
3.357952E+03	1.219170E-02	7.752993E-04
3.367799E+03	1.224738E-02	7.757308E-04
3.377646E+03	1.230707E-02	7.763758E-04
3.387494E+03	1.237149E-02	7.772779E-04
3.397341E+03	1.244071E-02	7.784357E-04
3.407189E+03	1.251406E-02	7.798054E-04
3.417036E+03	1.259150E-02	7.813799E-04
3.426883E+03	1.267290E-02	7.831491E-04
3.436731E+03	1.275684E-02	7.850211E-04
3.446578E+03	1.284491E-02	7.870925E-04
3.456425E+03	1.293492E-02	7.892256E-04
3.466273E+03	1.302706E-02	7.914304E-04
3.476120E+03	1.312023E-02	7.936383E-04
3.485968E+03	1.321443E-02	7.958493E-04
3.495815E+03	1.330787E-02	7.979543E-04
3.505662E+03	1.339934E-02	7.998823E-04
3.515510E+03	1.348714E-02	8.015325E-04
3.525357E+03	1.357082E-02	8.028823E-04
3.535204E+03	1.364844E-02	8.038204E-04
3.545052E+03	1.372004E-02	8.043536E-04
3.554899E+03	1.378487E-02	8.044437E-04
3.564746E+03	1.384312E-02	8.041067E-04
3.574594E+03	1.389426E-02	8.033172E-04
3.584441E+03	1.394020E-02	8.021908E-04
3.594289E+03	1.398050E-02	8.007072E-04
3.604136E+03	1.401710E-02	7.989816E-04
3.613983E+03	1.405113E-02	7.970811E-04
3.623831E+03	1.408441E-02	7.951102E-04
3.633678E+03	1.411795E-02	7.931267E-04
3.643525E+03	1.415477E-02	7.912998E-04
3.653373E+03	1.419607E-02	7.896931E-04
3.663220E+03	1.424401E-02	7.884226E-04
3.673067E+03	1.430025E-02	7.875745E-04
3.682915E+03	1.436684E-02	7.872539E-04
3.692762E+03	1.444521E-02	7.875316E-04
3.702610E+03	1.453752E-02	7.885133E-04
3.712457E+03	1.464436E-02	7.902202E-04
3.722304E+03	1.476691E-02	7.927037E-04
3.732152E+03	1.490603E-02	7.959962E-04
3.741999E+03	1.506221E-02	8.001103E-04
3.751846E+03	1.523476E-02	8.049944E-04
3.761694E+03	1.542422E-02	8.106638E-04
3.771541E+03	1.562873E-02	8.170071E-04
3.781388E+03	1.584770E-02	8.239804E-04
3.791236E+03	1.607937E-02	8.314811E-04
3.801083E+03	1.632215E-02	8.394165E-04
3.810931E+03	1.657423E-02	8.476841E-04
3.820778E+03	1.683323E-02	8.561560E-04
3.830625E+03	1.709677E-02	8.647052E-04
3.840473E+03	1.736326E-02	8.732491E-04
3.850320E+03	1.763048E-02	8.816730E-04
3.860167E+03	1.789634E-02	8.898735E-04
3.870015E+03	1.815945E-02	8.977828E-04
3.879862E+03	1.841869E-02	9.053488E-04
3.889710E+03	1.867288E-02	9.125173E-04
3.899557E+03	1.892116E-02	9.192513E-04
3.909404E+03	1.916381E-02	9.255697E-04
3.919252E+03	1.940061E-02	9.314670E-04
3.929099E+03	1.963200E-02	9.369699E-04
3.938946E+03	1.985826E-02	9.420966E-04
3.948794E+03	2.007986E-02	9.468746E-04
3.958641E+03	2.029781E-02	9.513555E-04
3.968488E+03	2.051362E-02	9.556133E-04
3.978336E+03	2.072766E-02	9.596678E-04
3.988183E+03	2.094075E-02	9.635586E-04
3.998031E+03	2.115486E-02	9.673779E-04
4.007878E+03	2.137036E-02	9.711422E-04
4.017725E+03	2.158798E-02	9.748835E-04
4.027573E+03	2.180910E-02	9.786635E-04
4.037420E+03	2.203428E-02	9.825045E-04
4.047267E+03	2.226433E-02	9.864404E-04
4.057115E+03	2.249999E-02	9.905001E-04
4.066962E+03	2.274112E-02	9.946741E-04
4.076809E+03	2.298871E-02	9.990016E-04
4.086657E+03	2.324332E-02	1.003502E-03
4.096504E+03	2.350515E-02	1.008181E-03
4.106352E+03	2.377448E-02	1.013043E-03
4.116199E+03	2.405286E-02	1.018151E-03
4.126046E+03	2.434048E-02	1.023505E-03
4.135894E+03	2.463891E-02	1.029165E-03
4.145741E+03	2.494919E-02	1.035167E-03
4.155588E+03	2.527341E-02	1.041588E-03
4.165436E+03	2.561275E-02	1.048468E-03
4.175283E+03	2.597061E-02	1.055932E-03
4.185130E+03	2.634861E-02	1.064034E-03
4.194978E+03	2.674968E-02	1.072876E-03
4.204825E+03	2.717594E-02	1.082527E-03
4.214673E+03	2.763110E-02	1.093114E-03
4.224520E+03	2.811652E-02	1.104669E-03
4.234367E+03	2.863483E-02	1.117274E-03
4.244215E+03	2.918724E-02	1.130952E-03
4.254062E+03	2.977503E-02	1.145727E-03
4.263909E+03	3.039677E-02	1.161520E-03
4.273757E+03	3.105243E-02	1.178305E-03
4.283604E+03	3.173879E-02	1.195938E-03
4.293452E+03	3.245089E-02	1.214215E-03
4.303299E+03	3.318319E-02	1.232912E-03
4.313146E+03	3.392695E-02	1.251696E-03
4.322994E+03	3.467084E-02	1.270148E-03
4.332841E+03	3.541215E-02	1.288174E-03
4.342688E+03	3.615415E-02	1.305900E-03
4.352536E+03	3.689929E-02	1.323417E-03
4.362383E+03	3.764927E-02	1.340790E-03
4.372230E+03	3.840184E-02	1.357941E-03
4.382078E+03	3.915377E-02	1.374761E-03
4.391925E+03	3.989881E-02	1.391037E-03
4.401773E+03	4.062880E-02	1.406498E-03
4.411620E+03	4.133388E-02	1.420823E-03
4.421467E+03	4.200284E-02	1.433653E-03
4.431315E+03	4.262351E-02	1.444603E-03
4.441162E+03	4.318330E-02	1.453286E-03
4.451009E+03	4.366971E-02	1.459328E-03
4.460857E+03	4.407043E-02	1.462372E-03
4.470704E+03	4.437503E-02	1.462135E-03
4.480551E+03	4.457548E-02	1.458420E-03
4.490399E+03	4.466499E-02	1.451077E-03
4.500246E+03	4.464057E-02	1.440083E-03
4.510094E+03	4.450154E-02	1.425494E-03
4.519941E+03	4.424966E-02	1.407438E-03
4.529788E+03	4.389120E-02	1.386187E-03
4.539636E+03	4.343289E-02	1.362020E-03
4.549483E+03	4.288642E-02	1.335364E-03
4.559330E+03	4.226269E-02	1.306609E-03
4.569178E+03	4.157550E-02	1.276227E-03
4.579025E+03	4.083990E-02	1.244712E-03
4.588872E+03	4.006967E-02	1.212510E-03
4.598720E+03	3.927980E-02	1.180089E-03
4.608567E+03	3.848402E-02	1.147866E-03
4.618415E+03	3.769448E-02	1.116202E-03
4.628262E+03	3.692279E-02	1.085431E-03
4.638109E+03	3.617887E-02	1.055826E-03
4.647957E+03	3.547040E-02	1.027588E-03
4.657804E+03	3.480323E-02	1.000861E-03
4.667651E+03	3.418259E-02	9.757650E-04
4.677499E+03	3.361076E-02	9.523316E-04
4.687346E+03	3.308927E-02	9.305710E-04
4.697194E+03	3.261791E-02	9.104433E-04
4.707041E+03	3.219536E-02	8.918783E-04
4.716888E+03	3.181984E-02	8.747947E-04
4.726736E+03	3.148793E-02	8.590680E-04
4.736583E+03	3.119560E-02	8.445603E-04
4.746430E+03	3.093955E-02	8.311564E-04
4.756278E+03	3.071665E-02	8.187496E-04
4.766125E+03	3.052353E-02	8.072288E-04
4.775972E+03	3.035812E-02	7.965200E-04
4.785820E+03	3.021908E-02	7.865700E-04
4.795667E+03	3.010556E-02	7.773400E-04
4.805515E+03	3.001796E-02	7.688237E-04
4.815362E+03	2.995761E-02	7.610380E-04
4.825209E+03	2.992674E-02	7.540216E-04
4.835057E+03	2.992810E-02	7.478247E-04
4.844904E+03	2.996622E-02	7.425388E-04
4.854751E+03	3.004496E-02	7.382360E-04
4.864599E+03	3.017003E-02	7.350297E-04
4.874446E+03	3.034620E-02	7.330066E-04
4.884293E+03	3.057979E-02	7.322860E-04
4.894141E+03	3.087617E-02	7.329600E-04
4.903988E+03	3.124094E-02	7.351213E-04
4.913836E+03	3.167975E-02	7.388597E-04
4.923683E+03	3.219747E-02	7.442424E-04
4.933530E+03	3.279844E-02	7.513203E-04
4.943378E+03	3.348591E-02	7.601162E-04
4.953225E+03	3.426333E-02	7.706557E-04
4.963072E+03	3.513185E-02	7.829094E-04
4.972920E+03	3.609297E-02	7.968561E-04
4.982767E+03	3.714640E-02	8.124344E-04
4.992614E+03	3.829029E-02	8.295492E-04
5.002462E+03	3.952230E-02	8.480978E-04
5.012309E+03	4.083847E-02	8.679452E-04
5.022157E+03	4.223353E-02	8.889332E-04
5.032004E+03	4.370097E-02	9.108824E-04
5.041851E+03	4.523253E-02	9.335836E-04
5.051699E+03	4.682061E-02	9.568492E-04
5.061546E+03	4.845367E-02	9.804188E-04
5.071393E+03	5.012146E-02	1.004068E-03
5.081241E+03	5.181134E-02	1.027534E-03
5.091088E+03	5.351080E-02	1.050570E-03
5.100935E+03	5.520539E-02	1.072899E-03
5.110783E+03	5.688119E-02	1.094270E-03
5.120630E+03	5.852259E-02	1.114410E-03
5.130478E+03	6.011450E-02	1.133070E-03
5.140325E+03	6.164115E-02	1.149999E-03
5.150172E+03	6.308573E-02	1.164942E-03
5.160020E+03	6.443284E-02	1.177681E-03
5.169867E+03	6.566667E-02	1.188003E-03
5.179714E+03	6.677132E-02	1.195705E-03
5.189562E+03	6.773321E-02	1.200638E-03
5.199409E+03	6.853948E-02	1.202671E-03
5.209257E+03	6.917923E-02	1.201718E-03
5.219104E+03	6.964333E-02	1.197728E-03
5.228951E+03	6.992620E-02	1.190714E-03
5.238799E+03	7.002655E-02	1.180764E-03
5.248646E+03	6.994554E-02	1.168004E-03
5.258493E+03	6.968961E-02	1.152642E-03
5.268341E+03	6.926816E-02	1.134928E-03
5.278188E+03	6.869569E-02	1.115183E-03
5.288035E+03	6.798903E-02	1.093755E-03
5.297883E+03	6.716801E-02	1.071025E-03
5.307730E+03	6.625669E-02	1.047424E-03
5.317578E+03	6.527865E-02	1.023361E-03
5.327425E+03	6.425786E-02	9.992346E-04
5.337272E+03	6.321993E-02	9.754542E-04
5.347120E+03	6.218684E-02	9.523589E-04
5.356967E+03	6.118053E-02	9.302764E-04
5.366814E+03	6.021977E-02	9.094761E-04
5.376662E+03	5.932211E-02	8.902020E-04
5.386509E+03	5.850181E-02	8.726429E-04
5.396356E+03	5.777244E-02	8.569742E-04
5.406204E+03	5.714518E-02	8.433338E-04
5.416051E+03	5.662505E-02	8.317688E-04
5.425899E+03	5.620055E-02	8.220834E-04
5.435746E+03	5.585724E-02	8.140296E-04
5.445593E+03	5.558028E-02	8.073561E-04
5.455441E+03	5.535830E-02	8.018667E-04
5.465288E+03	5.517835E-02	7.973466E-04
5.475135E+03	5.502848E-02	7.935982E-04
5.484983E+03	5.489957E-02	7.904679E-04
5.494830E+03	5.478155E-02	7.877889E-04
5.504677E+03	5.466881E-02	7.854606E-04
5.514525E+03	5.455485E-02	7.833697E-04
5.524372E+03	5.443653E-02	7.814513E-04
5.534220E+03	5.431208E-02	7.796608E-04
5.544067E+03	5.418131E-02	7.779760E-04
5.553914E+03	5.404554E-02	7.763966E-04
5.563762E+03	5.390724E-02	7.749393E-04
5.573609E+03	5.377026E-02	7.736413E-04
5.583456E+03	5.363796E-02	7.725330E-04
5.593304E+03	5.351561E-02	7.716738E-04
5.603151E+03	5.340563E-02	7.710819E-04
5.612999E+03	5.331360E-02	7.708233E-04
5.622846E+03	5.324238E-02	7.709247E-04
5.632693E+03	5.319434E-02	7.714074E-04
5.642541E+03	5.317283E-02	7.723074E-04
5.652388E+03	5.317826E-02	7.736193E-04
5.662235E+03	5.321246E-02	7.753584E-04
5.672083E+03	5.327480E-02	7.775056E-04
5.681930E+03	5.336428E-02	7.800362E-04
5.691777E+03	5.347905E-02	7.829135E-04
5.701625E+03	5.361651E-02	7.860904E-04
5.711472E+03	5.377366E-02	7.895140E-04
5.721320E+03	5.394573E-02	7.931047E-04
5.731167E+03	5.412795E-02	7.967840E-04
5.741014E+03	5.431501E-02	8.004647E-04
5.750862E+03	5.450125E-02	8.040547E-04
5.760709E+03	5.468086E-02	8.074598E-04
5.770556E+03	5.484800E-02	8.105852E-04
5.780404E+03	5.499695E-02	8.133386E-04
5.790251E+03	5.512215E-02	8.156306E-04
5.800098E+03	5.521794E-02	8.173702E-04
5.809946E+03	5.528015E-02	8.184899E-04
5.819793E+03	5.530464E-02	8.189231E-04
5.829641E+03	5.528705E-02	8.186011E-04
5.839488E+03	5.522604E-02	8.175010E-04
5.849335E+03	5.511975E-02	8.155934E-04
5.859183E+03	5.496750E-02	8.128675E-04
5.869030E+03	5.477114E-02	8.093512E-04
5.878877E+03	5.453274E-02	8.050770E-04
5.888725E+03	5.425703E-02	8.001175E-04
5.898572E+03	5.394825E-02	7.945384E-04
5.908419E+03	5.361347E-02	7.884489E-04
5.918267E+03	5.326026E-02	7.819647E-04
5.928114E+03	5.289672E-02	7.752102E-04
5.937962E+03	5.253028E-02	7.682994E-04
5.947809E+03	5.217064E-02	7.613789E-04
5.957656E+03	5.182500E-02	7.545585E-04
5.967504E+03	5.150230E-02	7.479722E-04
5.977351E+03	5.120857E-02	7.417110E-04
5.987198E+03	5.095102E-02	7.358818E-04
5.997046E+03	5.073367E-02	7.305443E-04
6.006893E+03	5.056091E-02	7.257630E-04
6.016741E+03	5.043605E-02	7.215861E-04
6.026588E+03	5.036043E-02	7.180327E-04
6.036435E+03	5.033430E-02	7.151064E-04
6.046283E+03	5.035671E-02	7.127938E-04
6.056130E+03	5.042631E-02	7.110761E-04
6.065977E+03	5.054076E-02	7.099210E-04
6.075825E+03	5.069708E-02	7.092885E-04
6.085672E+03	5.089125E-02	7.091247E-04
6.095519E+03	5.111925E-02	7.093778E-04
6.105367E+03	5.137585E-02	7.099803E-04
6.115214E+03	5.165680E-02	7.108804E-04
6.125062E+03	5.195606E-02	7.120037E-04
6.134909E+03	5.226861E-02	7.132919E-04
6.144756E+03	5.258877E-02	7.146800E-04
6.154604E+03	5.291135E-02	7.161120E-04
6.164451E+03	5.323020E-02	7.175209E-04
6.174298E+03	5.353996E-02	7.188531E-04
6.184146E+03	5.383370E-02	7.200354E-04
6.193993E+03	5.410411E-02	7.209923E-04
6.203840E+03	5.434444E-02	7.216580E-04
6.213688E+03	5.454666E-02	7.219509E-04
6.223535E+03	5.470374E-02	7.218045E-04
6.233383E+03	5.480768E-02	7.211406E-04
6.243230E+03	5.485107E-02	7.198894E-04
6.253077E+03	5.482924E-02	7.180168E-04
6.262925E+03	5.473643E-02	7.154738E-04
6.272772E+03	5.456987E-02	7.122490E-04
6.282619E+03	5.432875E-02	7.083541E-04
6.292467E+03	5.401465E-02	7.038298E-04
6.302314E+03	5.363162E-02	6.987449E-04
6.312161E+03	5.318541E-02	6.931876E-04
6.322009E+03	5.268502E-02	6.872846E-04
6.331856E+03	5.214130E-02	6.811835E-04
6.341704E+03	5.156696E-02	6.750539E-04
6.351551E+03	5.097585E-02	6.690784E-04
6.361398E+03	5.038231E-02	6.634456E-04
6.371246E+03	4.980054E-02	6.583412E-04
6.381093E+03	4.924469E-02	6.539390E-04
6.390940E+03	4.872572E-02	6.503639E-04
6.400788E+03	4.825218E-02	6.477130E-04
6.410635E+03	4.782843E-02	6.460304E-04
6.420483E+03	4.745367E-02	6.452941E-04
6.430330E+03	4.712042E-02	6.453924E-04
6.440177E+03	4.682834E-02	6.463109E-04
6.450025E+03	4.658668E-02	6.481702E-04
6.459872E+03	4.639965E-02	6.510266E-04
6.469719E+03	4.626655E-02	6.548704E-04
6.479567E+03	4.618389E-02	6.596544E-04
6.489414E+03	4.614342E-02	6.652625E-04
6.499261E+03	4.613823E-02	6.715953E-04
6.509109E+03	4.615841E-02	6.785067E-04
6.518956E+03	4.619461E-02	6.858543E-04
6.528804E+03	4.623786E-02	6.934966E-04
6.538651E+03	4.628075E-02	7.013107E-04
6.548498E+03	4.631680E-02	7.091836E-04
6.558346E+03	4.633961E-02	7.169998E-04
6.568193E+03	4.634461E-02	7.246685E-04
6.578040E+03	4.632968E-02	7.321347E-04
6.587888E+03	4.629138E-02	7.393209E-04
6.597735E+03	4.622914E-02	7.461939E-04
6.607582E+03	4.614342E-02	7.527370E-04
6.617430E+03	4.603351E-02	7.589149E-04
6.627277E+03	4.590238E-02	7.647533E-04
6.637125E+03	4.575060E-02	7.702400E-04
6.646972E+03	4.558014E-02	7.753877E-04
6.656819E+03	4.539453E-02	7.802372E-04
6.666667E+03	4.519519E-02	7.847961E-04
6.676514E+03	4.498524E-02	7.891028E-04
6.686361E+03	4.476737E-02	7.931915E-04
6.696209E+03	4.454424E-02	7.970975E-04
6.706056E+03	4.431825E-02	8.008546E-04
6.715903E+03	4.409249E-02	8.045107E-04
6.725751E+03	4.386793E-02	8.080772E-04
6.735598E+03	4.364763E-02	8.116062E-04
6.745446E+03	4.343264E-02	8.151141E-04
6.755293E+03	4.322431E-02	8.186237E-04
6.765140E+03	4.302365E-02	8.221535E-04
6.774988E+03	4.283140E-02	8.257170E-04
6.784835E+03	4.264862E-02	8.293349E-04
6.794682E+03	4.247496E-02	8.330016E-04
6.804530E+03	4.231055E-02	8.367202E-04
6.814377E+03	4.215597E-02	8.405037E-04
6.824225E+03	4.201004E-02	8.443299E-04
6.834072E+03	4.187394E-02	8.482242E-04
6.843919E+03	4.174720E-02	8.521786E-04
6.853767E+03	4.163004E-02	8.561996E-04
6.863614E+03	4.152284E-02	8.602971E-04
6.873461E+03	4.142614E-02	8.644845E-04
6.883309E+03	4.134120E-02	8.687910E-04
6.893156E+03	4.126764E-02	8.732113E-04
6.903003E+03	4.120686E-02	8.777785E-04
6.912851E+03	4.116026E-02	8.825261E-04
6.922698E+03	4.112737E-02	8.874479E-04
6.932546E+03	4.110868E-02	8.925584E-04
6.942393E+03	4.110559E-02	8.978919E-04
6.952240E+03	4.111676E-02	9.034236E-04
6.962088E+03	4.114221E-02	9.091576E-04
6.971935E+03	4.118093E-02	9.150747E-04
6.981782E+03	4.123082E-02	9.211314E-04
6.991630E+03	4.128991E-02	9.272856E-04
7.001477E+03	4.135641E-02	9.334985E-04
7.011324E+03	4.142697E-02	9.396948E-04
7.021172E+03	4.149851E-02	9.458042E-04
7.031019E+03	4.156776E-02	9.517503E-04
7.040867E+03	4.163192E-02	9.574671E-04
7.050714E+03	4.168636E-02	9.628441E-04
7.060561E+03	4.172834E-02	9.678145E-04
7.070409E+03	4.175409E-02	9.722857E-04
7.080256E+03	4.176199E-02	9.762151E-04
7.090103E+03	4.174769E-02	9.794950E-04
7.099951E+03	4.171039E-02	9.821011E-04
7.109798E+03	4.164796E-02	9.839775E-04
7.119645E+03	4.156008E-02	9.851116E-04
7.129493E+03	4.144515E-02	9.854601E-04
7.139340E+03	4.130406E-02	9.850396E-04
7.149188E+03	4.113703E-02	9.838514E-04
7.159035E+03	4.094603E-02	9.819400E-04
7.168882E+03	4.073230E-02	9.793325E-04
7.178730E+03	4.049870E-02	9.760962E-04
7.188577E+03	4.024654E-02	9.722624E-04
7.198424E+03	3.997923E-02	9.679135E-04
7.208272E+03	3.969969E-02	9.631217E-04
7.218119E+03	3.941036E-02	9.579479E-04
7.227967E+03	3.911433E-02	9.524696E-04
7.237814E+03	3.881531E-02	9.467806E-04
7.247661E+03	3.851524E-02	9.409317E-04
7.257509E+03	3.821788E-02	9.350185E-04
7.267356E+03	3.792579E-02	9.291087E-04
7.277203E+03	3.764279E-02	9.233001E-04
7.287051E+03	3.737094E-02	9.176485E-04
7.296898E+03	3.711414E-02	9.122548E-04
7.306745E+03	3.687517E-02	9.071920E-04
7.316593E+03	3.665741E-02	9.025491E-04
7.326440E+03	3.646428E-02	8.984148E-04
7.336288E+03	3.629975E-02	8.948921E-04
7.346135E+03	3.616600E-02	8.920399E-04
7.355982E+03	3.606797E-02	8.899845E-04
7.365830E+03	3.600758E-02	8.887775E-04
7.375677E+03	3.598820E-02	8.885062E-04
7.385524E+03	3.601231E-02	8.892356E-04
7.395372E+03	3.608257E-02	8.910348E-04
7.405219E+03	3.620005E-02	8.939331E-04
7.415066E+03	3.636643E-02	8.979749E-04
7.424914E+03	3.658228E-02	9.031759E-04
7.434761E+03	3.684754E-02	9.095372E-04
7.444609E+03	3.716154E-02	9.170437E-04
7.454456E+03	3.752296E-02	9.256648E-04
7.464303E+03	3.793051E-02	9.353700E-04
7.474151E+03	3.838105E-02	9.460835E-04
7.483998E+03	3.887210E-02	9.577461E-04
7.493845E+03	3.939943E-02	9.702552E-04
7.503693E+03	3.995956E-02	9.835277E-04
7.513540E+03	4.054799E-02	9.974553E-04
7.523387E+03	4.115981E-02	1.011921E-03
7.533235E+03	4.178983E-02	1.026801E-03
7.543082E+03	4.243256E-02	1.041964E-03
7.552930E+03	4.308227E-02	1.057276E-03
7.562777E+03	4.373312E-02	1.072600E-03
7.572624E+03	4.437984E-02	1.087813E-03
7.582472E+03	4.501489E-02	1.102739E-03
7.592319E+03	4.563357E-02	1.117270E-03
7.602166E+03	4.622910E-02	1.131252E-03
7.612014E+03	4.679534E-02	1.144543E-03
7.621861E+03	4.732621E-02	1.157006E-03
7.631709E+03	4.781587E-02	1.168510E-03
7.641556E+03	4.825852E-02	1.178924E-03
