#wls	flux	fluxerr
1.575579E+03	7.053790E-04	5.701486E-05
1.614968E+03	7.135624E-04	5.761842E-05
1.654357E+03	7.223821E-04	5.827057E-05
1.693747E+03	7.321529E-04	5.899642E-05
1.733136E+03	7.426484E-04	5.977742E-05
1.772526E+03	7.541960E-04	6.063961E-05
1.811915E+03	7.667137E-04	6.157601E-05
1.851305E+03	7.804046E-04	6.260255E-05
1.890694E+03	7.953388E-04	6.372438E-05
1.930084E+03	8.114406E-04	6.493495E-05
1.969473E+03	8.290870E-04	6.626392E-05
2.008863E+03	8.483715E-04	6.771811E-05
2.048252E+03	8.692349E-04	6.929213E-05
2.087642E+03	8.919349E-04	7.100581E-05
2.127031E+03	9.165836E-04	7.286726E-05
2.166420E+03	9.434652E-04	7.489819E-05
2.205810E+03	9.727148E-04	7.710829E-05
2.245199E+03	1.004472E-03	7.950751E-05
2.284589E+03	1.039060E-03	8.212024E-05
2.323978E+03	1.076640E-03	8.495785E-05
2.363368E+03	1.117561E-03	8.804644E-05
2.402757E+03	1.161809E-03	9.138315E-05
2.442147E+03	1.209934E-03	9.500951E-05
2.481536E+03	1.262114E-03	9.893746E-05
2.520926E+03	1.318925E-03	1.032100E-04
2.560315E+03	1.380112E-03	1.078047E-04
2.599705E+03	1.446652E-03	1.127953E-04
2.639094E+03	1.518216E-03	1.181533E-04
2.678484E+03	1.595519E-03	1.239311E-04
2.717873E+03	1.678781E-03	1.301428E-04
2.757262E+03	1.767895E-03	1.367761E-04
2.796652E+03	1.863359E-03	1.438662E-04
2.836041E+03	1.965068E-03	1.514007E-04
2.875431E+03	2.072748E-03	1.593547E-04
2.914820E+03	2.186498E-03	1.677315E-04
2.954210E+03	2.306074E-03	1.765083E-04
2.964057E+03	2.337062E-03	1.787786E-04
2.973904E+03	2.368221E-03	1.810587E-04
2.983752E+03	2.399540E-03	1.833478E-04
2.993599E+03	2.431569E-03	1.856879E-04
3.003447E+03	2.463752E-03	1.880364E-04
3.013294E+03	2.496368E-03	1.904145E-04
3.023141E+03	2.529424E-03	1.928227E-04
3.032989E+03	2.562933E-03	1.952620E-04
3.042836E+03	2.596915E-03	1.977337E-04
3.052683E+03	2.631682E-03	2.002615E-04
3.062531E+03	2.666705E-03	2.028050E-04
3.072378E+03	2.702313E-03	2.053893E-04
3.082226E+03	2.738855E-03	2.080406E-04
3.092073E+03	2.776120E-03	2.107428E-04
3.101920E+03	2.814197E-03	2.135027E-04
3.111768E+03	2.853484E-03	2.163501E-04
3.121615E+03	2.893816E-03	2.192723E-04
3.131462E+03	2.935335E-03	2.222801E-04
3.141310E+03	2.978497E-03	2.254076E-04
3.151157E+03	3.023483E-03	2.286684E-04
3.161004E+03	3.070497E-03	2.320775E-04
3.170852E+03	3.119458E-03	2.356285E-04
3.180699E+03	3.170893E-03	2.393609E-04
3.190547E+03	3.225346E-03	2.433153E-04
3.200394E+03	3.282471E-03	2.474651E-04
3.210241E+03	3.342820E-03	2.518516E-04
3.220089E+03	3.406646E-03	2.564932E-04
3.229936E+03	3.474503E-03	2.614311E-04
3.239783E+03	3.546321E-03	2.666594E-04
3.249631E+03	3.622315E-03	2.721936E-04
3.259478E+03	3.702991E-03	2.780710E-04
3.269325E+03	3.788517E-03	2.843034E-04
3.279173E+03	3.878704E-03	2.908761E-04
3.289020E+03	3.973638E-03	2.977945E-04
3.298868E+03	4.074012E-03	3.051098E-04
3.308715E+03	4.179508E-03	3.127974E-04
3.318562E+03	4.289732E-03	3.208268E-04
3.328410E+03	4.405262E-03	3.292405E-04
3.338257E+03	4.525599E-03	3.380004E-04
3.348104E+03	4.650540E-03	3.470904E-04
3.357952E+03	4.780177E-03	3.565167E-04
3.367799E+03	4.914209E-03	3.662559E-04
3.377646E+03	5.051936E-03	3.762552E-04
3.387494E+03	5.192952E-03	3.864836E-04
3.397341E+03	5.337574E-03	3.969642E-04
3.407189E+03	5.484977E-03	4.076350E-04
3.417036E+03	5.634298E-03	4.184313E-04
3.426883E+03	5.785800E-03	4.293722E-04
3.436731E+03	5.938974E-03	4.404195E-04
3.446578E+03	6.092905E-03	4.515051E-04
3.456425E+03	6.247046E-03	4.625882E-04
3.466273E+03	6.401254E-03	4.736582E-04
3.476120E+03	6.554982E-03	4.846745E-04
3.485968E+03	6.707685E-03	4.955967E-04
3.495815E+03	6.858813E-03	5.063843E-04
3.505662E+03	7.008222E-03	5.170270E-04
3.515510E+03	7.154543E-03	5.274238E-04
3.525357E+03	7.298490E-03	5.376280E-04
3.535204E+03	7.438719E-03	5.475408E-04
3.545052E+03	7.574762E-03	5.571284E-04
3.554899E+03	7.707032E-03	5.664217E-04
3.564746E+03	7.834774E-03	5.753659E-04
3.574594E+03	7.957746E-03	5.839438E-04
3.584441E+03	8.075830E-03	5.921477E-04
3.594289E+03	8.189472E-03	6.000109E-04
3.604136E+03	8.298453E-03	6.075180E-04
3.613983E+03	8.403562E-03	6.147275E-04
3.623831E+03	8.505352E-03	6.216806E-04
3.633678E+03	8.604984E-03	6.284624E-04
3.643525E+03	8.702543E-03	6.350795E-04
3.653373E+03	8.799898E-03	6.416685E-04
3.663220E+03	8.897799E-03	6.482840E-04
3.673067E+03	8.997479E-03	6.550156E-04
3.682915E+03	9.100969E-03	6.620107E-04
3.692762E+03	9.208671E-03	6.692978E-04
3.702610E+03	9.322067E-03	6.769837E-04
3.712457E+03	9.442485E-03	6.851635E-04
3.722304E+03	9.569858E-03	6.938314E-04
3.732152E+03	9.705418E-03	7.030750E-04
3.741999E+03	9.848922E-03	7.128753E-04
3.751846E+03	1.000055E-02	7.232435E-04
3.761694E+03	1.015971E-02	7.341362E-04
3.771541E+03	1.032509E-02	7.454558E-04
3.781388E+03	1.049572E-02	7.571319E-04
3.791236E+03	1.066989E-02	7.690410E-04
3.801083E+03	1.084561E-02	7.810371E-04
3.810931E+03	1.102056E-02	7.929542E-04
3.820778E+03	1.119224E-02	8.046133E-04
3.830625E+03	1.135804E-02	8.158255E-04
3.840473E+03	1.151529E-02	8.264017E-04
3.850320E+03	1.166139E-02	8.361564E-04
3.860167E+03	1.179425E-02	8.449424E-04
3.870015E+03	1.191130E-02	8.525774E-04
3.879862E+03	1.201026E-02	8.589018E-04
3.889710E+03	1.209033E-02	8.638619E-04
3.899557E+03	1.215003E-02	8.673552E-04
3.909404E+03	1.218865E-02	8.693352E-04
3.919252E+03	1.220591E-02	8.697865E-04
3.929099E+03	1.220163E-02	8.686990E-04
3.938946E+03	1.217663E-02	8.661369E-04
3.948794E+03	1.213176E-02	8.621631E-04
3.958641E+03	1.206748E-02	8.568148E-04
3.968488E+03	1.198577E-02	8.502364E-04
3.978336E+03	1.188780E-02	8.425144E-04
3.988183E+03	1.177519E-02	8.337666E-04
3.998031E+03	1.164934E-02	8.240949E-04
4.007878E+03	1.151197E-02	8.136235E-04
4.017725E+03	1.136507E-02	8.024946E-04
4.027573E+03	1.120948E-02	7.907708E-04
4.037420E+03	1.104737E-02	7.786059E-04
4.047267E+03	1.088000E-02	7.660907E-04
4.057115E+03	1.070860E-02	7.533119E-04
4.066962E+03	1.053474E-02	7.403817E-04
4.076809E+03	1.035923E-02	7.273574E-04
4.086657E+03	1.018326E-02	7.143219E-04
4.096504E+03	1.000789E-02	7.013511E-04
4.106352E+03	9.833928E-03	6.885006E-04
4.116199E+03	9.662297E-03	6.758352E-04
4.126046E+03	9.493672E-03	6.634016E-04
4.135894E+03	9.328705E-03	6.512447E-04
4.145741E+03	9.168367E-03	6.394317E-04
4.155588E+03	9.013265E-03	6.280040E-04
4.165436E+03	8.864008E-03	6.170029E-04
4.175283E+03	8.721228E-03	6.064714E-04
4.185130E+03	8.585764E-03	5.964665E-04
4.194978E+03	8.458464E-03	5.870457E-04
4.204825E+03	8.340065E-03	5.782584E-04
4.214673E+03	8.231352E-03	5.701572E-04
4.224520E+03	8.133408E-03	5.628151E-04
4.234367E+03	8.046923E-03	5.562778E-04
4.244215E+03	7.972871E-03	5.506101E-04
4.254062E+03	7.912326E-03	5.458836E-04
4.263909E+03	7.866083E-03	5.421504E-04
4.273757E+03	7.834882E-03	5.394585E-04
4.283604E+03	7.819537E-03	5.378607E-04
4.293452E+03	7.820786E-03	5.374047E-04
4.303299E+03	7.839416E-03	5.381409E-04
4.313146E+03	7.875762E-03	5.400888E-04
4.322994E+03	7.930452E-03	5.432877E-04
4.332841E+03	8.003917E-03	5.477631E-04
4.342688E+03	8.096372E-03	5.535261E-04
4.352536E+03	8.208122E-03	5.605934E-04
4.362383E+03	8.339189E-03	5.689625E-04
4.372230E+03	8.489219E-03	5.786051E-04
4.382078E+03	8.657843E-03	5.894924E-04
4.391925E+03	8.844261E-03	6.015658E-04
4.401773E+03	9.047071E-03	6.147264E-04
4.411620E+03	9.264894E-03	6.288771E-04
4.421467E+03	9.495708E-03	6.438778E-04
4.431315E+03	9.737118E-03	6.595633E-04
4.441162E+03	9.986758E-03	6.757715E-04
4.451009E+03	1.024127E-02	6.922738E-04
4.460857E+03	1.049744E-02	7.088514E-04
4.470704E+03	1.075196E-02	7.252818E-04
4.480551E+03	1.100104E-02	7.413092E-04
4.490399E+03	1.124116E-02	7.566983E-04
4.500246E+03	1.146908E-02	7.712332E-04
4.510094E+03	1.168141E-02	7.846885E-04
4.519941E+03	1.187542E-02	7.968845E-04
4.529788E+03	1.204889E-02	8.076766E-04
4.539636E+03	1.220022E-02	8.169618E-04
4.549483E+03	1.232848E-02	8.246819E-04
4.559330E+03	1.243343E-02	8.308269E-04
4.569178E+03	1.251539E-02	8.354227E-04
4.579025E+03	1.257552E-02	8.385515E-04
4.588872E+03	1.261586E-02	8.403541E-04
4.598720E+03	1.263821E-02	8.409542E-04
4.608567E+03	1.264550E-02	8.405510E-04
4.618415E+03	1.264048E-02	8.393296E-04
4.628262E+03	1.262602E-02	8.374832E-04
4.638109E+03	1.260512E-02	8.352127E-04
4.647957E+03	1.258064E-02	8.327098E-04
4.657804E+03	1.255496E-02	8.301309E-04
4.667651E+03	1.253025E-02	8.276205E-04
4.677499E+03	1.250830E-02	8.252973E-04
4.687346E+03	1.249036E-02	8.232418E-04
4.697194E+03	1.247706E-02	8.214957E-04
4.707041E+03	1.246886E-02	8.200884E-04
4.716888E+03	1.246567E-02	8.190120E-04
4.726736E+03	1.246763E-02	8.182757E-04
4.736583E+03	1.247414E-02	8.178388E-04
4.746430E+03	1.248482E-02	8.176758E-04
4.756278E+03	1.249881E-02	8.177288E-04
4.766125E+03	1.251480E-02	8.179129E-04
4.775972E+03	1.253199E-02	8.181747E-04
4.785820E+03	1.254904E-02	8.184265E-04
4.795667E+03	1.256469E-02	8.185873E-04
4.805515E+03	1.257826E-02	8.186118E-04
4.815362E+03	1.258872E-02	8.184351E-04
4.825209E+03	1.259571E-02	8.180333E-04
4.835057E+03	1.259886E-02	8.173835E-04
4.844904E+03	1.259808E-02	8.164809E-04
4.854751E+03	1.259367E-02	8.153466E-04
4.864599E+03	1.258607E-02	8.140084E-04
4.874446E+03	1.257592E-02	8.125095E-04
4.884293E+03	1.256419E-02	8.109122E-04
4.894141E+03	1.255183E-02	8.092792E-04
4.903988E+03	1.253978E-02	8.076708E-04
4.913836E+03	1.252943E-02	8.061757E-04
4.923683E+03	1.252175E-02	8.048576E-04
4.933530E+03	1.251799E-02	8.037948E-04
4.943378E+03	1.251904E-02	8.030443E-04
4.953225E+03	1.252609E-02	8.026816E-04
4.963072E+03	1.253968E-02	8.027404E-04
4.972920E+03	1.256047E-02	8.032620E-04
4.982767E+03	1.258935E-02	8.043009E-04
4.992614E+03	1.262623E-02	8.058503E-04
5.002462E+03	1.267136E-02	8.079255E-04
5.012309E+03	1.272479E-02	8.105275E-04
5.022157E+03	1.278625E-02	8.136381E-04
5.032004E+03	1.285512E-02	8.172169E-04
5.041851E+03	1.293089E-02	8.212292E-04
5.051699E+03	1.301256E-02	8.256114E-04
5.061546E+03	1.309925E-02	8.303064E-04
5.071393E+03	1.318977E-02	8.352386E-04
5.081241E+03	1.328281E-02	8.403242E-04
5.091088E+03	1.337706E-02	8.454803E-04
5.100935E+03	1.347072E-02	8.505932E-04
5.110783E+03	1.356231E-02	8.555701E-04
5.120630E+03	1.365034E-02	8.603172E-04
5.130478E+03	1.373301E-02	8.647227E-04
5.140325E+03	1.380884E-02	8.686948E-04
5.150172E+03	1.387615E-02	8.721285E-04
5.160020E+03	1.393361E-02	8.749428E-04
5.169867E+03	1.397977E-02	8.770480E-04
5.179714E+03	1.401376E-02	8.783925E-04
5.189562E+03	1.403436E-02	8.789014E-04
5.199409E+03	1.404113E-02	8.785495E-04
5.209257E+03	1.403331E-02	8.772924E-04
5.219104E+03	1.401096E-02	8.751365E-04
5.228951E+03	1.397415E-02	8.720874E-04
5.238799E+03	1.392303E-02	8.681583E-04
5.248646E+03	1.385832E-02	8.633958E-04
5.258493E+03	1.378070E-02	8.578442E-04
5.268341E+03	1.369149E-02	8.515879E-04
5.278188E+03	1.359193E-02	8.447059E-04
5.288035E+03	1.348321E-02	8.372732E-04
5.297883E+03	1.336735E-02	8.294169E-04
5.307730E+03	1.324588E-02	8.212323E-04
5.317578E+03	1.312086E-02	8.128486E-04
5.327425E+03	1.299441E-02	8.043965E-04
5.337272E+03	1.286887E-02	7.960217E-04
5.347120E+03	1.274648E-02	7.878624E-04
5.356967E+03	1.262986E-02	7.800790E-04
5.366814E+03	1.252140E-02	7.728185E-04
5.376662E+03	1.242369E-02	7.662401E-04
5.386509E+03	1.233909E-02	7.604871E-04
5.396356E+03	1.226906E-02	7.556480E-04
5.406204E+03	1.221464E-02	7.517845E-04
5.416051E+03	1.217572E-02	7.488876E-04
5.425899E+03	1.215104E-02	7.468779E-04
5.435746E+03	1.213883E-02	7.456446E-04
5.445593E+03	1.213623E-02	7.450114E-04
5.455441E+03	1.214067E-02	7.448189E-04
5.465288E+03	1.214917E-02	7.448834E-04
5.475135E+03	1.215925E-02	7.450529E-04
5.484983E+03	1.216895E-02	7.452073E-04
5.494830E+03	1.217662E-02	7.452445E-04
5.504677E+03	1.218076E-02	7.450744E-04
5.514525E+03	1.218079E-02	7.446614E-04
5.524372E+03	1.217601E-02	7.439630E-04
5.534220E+03	1.216639E-02	7.429775E-04
5.544067E+03	1.215192E-02	7.417057E-04
5.553914E+03	1.213293E-02	7.401674E-04
5.563762E+03	1.211003E-02	7.383998E-04
5.573609E+03	1.208354E-02	7.364233E-04
5.583456E+03	1.205422E-02	7.342848E-04
5.593304E+03	1.202262E-02	7.320169E-04
5.603151E+03	1.198938E-02	7.296598E-04
5.612999E+03	1.195524E-02	7.272578E-04
5.622846E+03	1.192052E-02	7.248305E-04
5.632693E+03	1.188582E-02	7.224144E-04
5.642541E+03	1.185144E-02	7.200273E-04
5.652388E+03	1.181780E-02	7.176955E-04
5.662235E+03	1.178503E-02	7.154258E-04
5.672083E+03	1.175313E-02	7.132190E-04
5.681930E+03	1.172240E-02	7.110923E-04
5.691777E+03	1.169256E-02	7.090294E-04
5.701625E+03	1.166364E-02	7.070307E-04
5.711472E+03	1.163533E-02	7.050791E-04
5.721320E+03	1.160744E-02	7.031610E-04
5.731167E+03	1.157970E-02	7.012615E-04
5.741014E+03	1.155184E-02	6.993640E-04
5.750862E+03	1.152360E-02	6.974519E-04
5.760709E+03	1.149459E-02	6.955023E-04
5.770556E+03	1.146468E-02	6.935073E-04
5.780404E+03	1.143357E-02	6.914480E-04
5.790251E+03	1.140120E-02	6.893214E-04
5.800098E+03	1.136723E-02	6.871073E-04
5.809946E+03	1.133185E-02	6.848163E-04
5.819793E+03	1.129484E-02	6.824358E-04
5.829641E+03	1.125637E-02	6.799760E-04
5.839488E+03	1.121657E-02	6.774443E-04
5.849335E+03	1.117550E-02	6.748445E-04
5.859183E+03	1.113346E-02	6.721950E-04
5.869030E+03	1.109058E-02	6.695035E-04
5.878877E+03	1.104712E-02	6.667849E-04
5.888725E+03	1.100341E-02	6.640604E-04
5.898572E+03	1.095949E-02	6.613310E-04
5.908419E+03	1.091587E-02	6.586286E-04
5.918267E+03	1.087240E-02	6.559433E-04
5.928114E+03	1.082941E-02	6.532953E-04
5.937962E+03	1.078686E-02	6.506814E-04
5.947809E+03	1.074474E-02	6.481018E-04
5.957656E+03	1.070310E-02	6.455594E-04
5.967504E+03	1.066184E-02	6.430476E-04
5.977351E+03	1.062070E-02	6.405511E-04
5.987198E+03	1.057971E-02	6.380714E-04
5.997046E+03	1.053868E-02	6.355965E-04
6.006893E+03	1.049739E-02	6.331145E-04
6.016741E+03	1.045568E-02	6.306142E-04
6.026588E+03	1.041350E-02	6.280934E-04
6.036435E+03	1.037097E-02	6.255587E-04
6.046283E+03	1.032804E-02	6.230075E-04
6.056130E+03	1.028486E-02	6.204486E-04
6.065977E+03	1.024174E-02	6.179008E-04
6.075825E+03	1.019928E-02	6.154003E-04
6.085672E+03	1.015774E-02	6.129622E-04
6.095519E+03	1.011723E-02	6.105936E-04
6.105367E+03	1.007780E-02	6.082976E-04
6.115214E+03	1.003983E-02	6.060970E-04
6.125062E+03	1.000342E-02	6.039972E-04
6.134909E+03	9.968903E-03	6.020190E-04
6.144756E+03	9.936384E-03	6.001686E-04
6.154604E+03	9.906073E-03	5.984588E-04
6.164451E+03	9.877991E-03	5.968907E-04
6.174298E+03	9.852119E-03	5.954635E-04
6.184146E+03	9.828329E-03	5.941693E-04
6.193993E+03	9.806239E-03	5.929852E-04
6.203840E+03	9.785437E-03	5.918863E-04
6.213688E+03	9.765478E-03	5.908459E-04
6.223535E+03	9.745510E-03	5.898123E-04
6.233383E+03	9.724894E-03	5.887468E-04
6.243230E+03	9.702899E-03	5.876052E-04
6.253077E+03	9.678581E-03	5.863302E-04
6.262925E+03	9.651073E-03	5.848691E-04
6.272772E+03	9.619551E-03	5.831717E-04
6.282619E+03	9.583457E-03	5.812039E-04
6.292467E+03	9.541957E-03	5.789147E-04
6.302314E+03	9.494770E-03	5.762866E-04
6.312161E+03	9.441637E-03	5.733035E-04
6.322009E+03	9.382531E-03	5.699631E-04
6.331856E+03	9.317827E-03	5.662877E-04
6.341704E+03	9.248013E-03	5.623062E-04
6.351551E+03	9.174220E-03	5.580871E-04
6.361398E+03	9.097815E-03	5.537128E-04
6.371246E+03	9.020236E-03	5.492708E-04
6.381093E+03	8.943694E-03	5.448953E-04
6.390940E+03	8.870281E-03	5.407138E-04
6.400788E+03	8.802404E-03	5.368732E-04
6.410635E+03	8.742429E-03	5.335181E-04
6.420483E+03	8.692116E-03	5.307564E-04
6.430330E+03	8.652837E-03	5.286730E-04
6.440177E+03	8.624813E-03	5.272821E-04
6.450025E+03	8.607448E-03	5.265485E-04
6.459872E+03	8.599230E-03	5.263806E-04
6.469719E+03	8.598264E-03	5.266633E-04
6.479567E+03	8.602837E-03	5.272925E-04
6.489414E+03	8.610948E-03	5.281458E-04
6.499261E+03	8.620964E-03	5.291235E-04
6.509109E+03	8.631589E-03	5.301461E-04
6.518956E+03	8.641663E-03	5.311423E-04
6.528804E+03	8.650095E-03	5.320448E-04
6.538651E+03	8.656492E-03	5.328292E-04
6.548498E+03	8.660109E-03	5.334491E-04
6.558346E+03	8.660852E-03	5.338983E-04
6.568193E+03	8.658605E-03	5.341692E-04
6.578040E+03	8.653394E-03	5.342628E-04
6.587888E+03	8.645250E-03	5.341804E-04
6.597735E+03	8.634488E-03	5.339411E-04
6.607582E+03	8.621484E-03	5.335675E-04
6.617430E+03	8.606477E-03	5.330740E-04
6.627277E+03	8.589813E-03	5.324817E-04
6.637125E+03	8.571969E-03	5.318196E-04
6.646972E+03	8.553308E-03	5.311102E-04
6.656819E+03	8.534110E-03	5.303704E-04
6.666667E+03	8.514919E-03	5.296339E-04
6.676514E+03	8.495979E-03	5.289157E-04
6.686361E+03	8.477609E-03	5.282358E-04
6.696209E+03	8.460209E-03	5.276188E-04
6.706056E+03	8.444051E-03	5.270820E-04
6.715903E+03	8.429284E-03	5.266347E-04
6.725751E+03	8.416329E-03	5.263032E-04
6.735598E+03	8.405281E-03	5.260938E-04
6.745446E+03	8.396304E-03	5.260171E-04
6.755293E+03	8.389534E-03	5.260816E-04
6.765140E+03	8.385163E-03	5.262998E-04
6.774988E+03	8.383170E-03	5.266707E-04
6.784835E+03	8.383693E-03	5.272033E-04
6.794682E+03	8.386738E-03	5.278983E-04
6.804530E+03	8.392299E-03	5.287559E-04
6.814377E+03	8.400347E-03	5.297743E-04
6.824225E+03	8.410739E-03	5.309451E-04
6.834072E+03	8.423621E-03	5.322778E-04
6.843919E+03	8.438843E-03	5.337633E-04
6.853767E+03	8.456361E-03	5.353992E-04
6.863614E+03	8.476126E-03	5.371828E-04
6.873461E+03	8.498221E-03	5.391196E-04
6.883309E+03	8.522527E-03	5.412027E-04
6.893156E+03	8.549042E-03	5.434320E-04
6.903003E+03	8.577774E-03	5.458086E-04
6.912851E+03	8.608852E-03	5.483410E-04
6.922698E+03	8.642203E-03	5.510250E-04
6.932546E+03	8.677957E-03	5.538693E-04
6.942393E+03	8.716035E-03	5.568693E-04
6.952240E+03	8.756456E-03	5.600264E-04
6.962088E+03	8.799330E-03	5.633484E-04
6.971935E+03	8.844526E-03	5.668271E-04
6.981782E+03	8.891999E-03	5.704602E-04
6.991630E+03	8.941776E-03	5.742497E-04
7.001477E+03	8.993748E-03	5.781890E-04
7.011324E+03	9.047532E-03	5.822541E-04
7.021172E+03	9.103160E-03	5.864472E-04
7.031019E+03	9.160284E-03	5.907461E-04
7.040867E+03	9.218739E-03	5.951406E-04
7.050714E+03	9.278093E-03	5.996030E-04
7.060561E+03	9.337994E-03	6.041107E-04
7.070409E+03	9.398179E-03	6.086466E-04
7.080256E+03	9.457989E-03	6.131680E-04
7.090103E+03	9.517345E-03	6.176699E-04
7.099951E+03	9.575428E-03	6.220987E-04
7.109798E+03	9.631997E-03	6.264385E-04
7.119645E+03	9.686445E-03	6.306494E-04
7.129493E+03	9.738399E-03	6.347068E-04
7.139340E+03	9.787237E-03	6.385692E-04
7.149188E+03	9.832467E-03	6.422041E-04
7.159035E+03	9.873863E-03	6.455958E-04
7.168882E+03	9.910575E-03	6.486878E-04
7.178730E+03	9.942547E-03	6.514753E-04
7.188577E+03	9.969115E-03	6.539140E-04
7.198424E+03	9.990174E-03	6.559955E-04
7.208272E+03	1.000515E-02	6.576810E-04
7.218119E+03	1.001406E-02	6.589701E-04
7.227967E+03	1.001659E-02	6.598412E-04
7.237814E+03	1.001279E-02	6.602961E-04
7.247661E+03	1.000267E-02	6.603337E-04
7.257509E+03	9.986214E-03	6.599514E-04
7.267356E+03	9.963767E-03	6.591713E-04
7.277203E+03	9.935676E-03	6.580147E-04
7.287051E+03	9.902397E-03	6.565106E-04
7.296898E+03	9.864623E-03	6.547039E-04
7.306745E+03	9.822638E-03	6.526124E-04
7.316593E+03	9.777602E-03	6.503123E-04
7.326440E+03	9.730104E-03	6.478421E-04
7.336288E+03	9.681062E-03	6.452625E-04
7.346135E+03	9.631432E-03	6.426368E-04
7.355982E+03	9.582325E-03	6.400391E-04
7.365830E+03	9.534596E-03	6.375267E-04
7.375677E+03	9.489078E-03	6.351556E-04
7.385524E+03	9.446696E-03	6.329880E-04
7.395372E+03	9.408299E-03	6.310816E-04
7.405219E+03	9.374790E-03	6.294979E-04
7.415066E+03	9.346461E-03	6.282576E-04
7.424914E+03	9.324253E-03	6.274249E-04
7.434761E+03	9.308229E-03	6.270054E-04
7.444609E+03	9.298945E-03	6.270379E-04
7.454456E+03	9.296324E-03	6.275185E-04
7.464303E+03	9.300529E-03	6.284596E-04
7.474151E+03	9.311465E-03	6.298563E-04
7.483998E+03	9.328778E-03	6.316859E-04
7.493845E+03	9.352233E-03	6.339339E-04
7.503693E+03	9.381239E-03	6.365614E-04
7.513540E+03	9.415333E-03	6.395381E-04
7.523387E+03	9.453584E-03	6.428017E-04
7.533235E+03	9.495474E-03	6.463178E-04
7.543082E+03	9.540171E-03	6.500305E-04
7.552930E+03	9.586508E-03	6.538607E-04
7.562777E+03	9.633805E-03	6.577623E-04
7.572624E+03	9.680961E-03	6.616602E-04
7.582472E+03	9.726996E-03	6.654873E-04
7.592319E+03	9.770924E-03	6.691758E-04
7.602166E+03	9.811928E-03	6.726692E-04
7.612014E+03	9.848937E-03	6.758933E-04
7.621861E+03	9.881079E-03	6.787875E-04
7.631709E+03	9.907656E-03	6.813025E-04
7.641556E+03	9.927908E-03	6.833850E-04
