#wls	flux	fluxerr
1.575579E+03	4.792737E-04	1.202950E-05
1.614968E+03	4.854382E-04	1.217524E-05
1.654357E+03	4.922099E-04	1.233577E-05
1.693747E+03	4.994493E-04	1.250758E-05
1.733136E+03	5.073626E-04	1.269577E-05
1.772526E+03	5.159008E-04	1.289908E-05
1.811915E+03	5.251039E-04	1.311846E-05
1.851305E+03	5.351056E-04	1.335719E-05
1.890694E+03	5.458640E-04	1.361416E-05
1.930084E+03	5.576168E-04	1.389524E-05
1.969473E+03	5.702363E-04	1.419716E-05
2.008863E+03	5.839750E-04	1.452615E-05
2.048252E+03	5.989055E-04	1.488391E-05
2.087642E+03	6.150067E-04	1.526982E-05
2.127031E+03	6.324605E-04	1.568830E-05
2.166420E+03	6.514612E-04	1.614405E-05
2.205810E+03	6.720076E-04	1.663690E-05
2.245199E+03	6.943117E-04	1.717197E-05
2.284589E+03	7.184936E-04	1.775207E-05
2.323978E+03	7.447925E-04	1.838295E-05
2.363368E+03	7.732353E-04	1.906509E-05
2.402757E+03	8.042016E-04	1.980763E-05
2.442147E+03	8.378597E-04	2.061451E-05
2.481536E+03	8.742614E-04	2.148676E-05
2.520926E+03	9.139682E-04	2.243792E-05
2.560315E+03	9.569313E-04	2.346648E-05
2.599705E+03	1.003762E-03	2.458715E-05
2.639094E+03	1.054430E-03	2.579882E-05
2.678484E+03	1.109606E-03	2.711753E-05
2.717873E+03	1.169433E-03	2.854638E-05
2.757262E+03	1.234522E-03	3.009984E-05
2.796652E+03	1.305233E-03	3.178621E-05
2.836041E+03	1.382135E-03	3.361882E-05
2.875431E+03	1.465879E-03	3.561295E-05
2.914820E+03	1.557218E-03	3.778625E-05
2.954210E+03	1.657033E-03	4.015942E-05
2.964057E+03	1.683407E-03	4.078617E-05
2.973904E+03	1.710562E-03	4.143146E-05
2.983752E+03	1.738146E-03	4.208670E-05
2.993599E+03	1.766357E-03	4.275670E-05
3.003447E+03	1.795401E-03	4.344646E-05
3.013294E+03	1.825110E-03	4.415185E-05
3.023141E+03	1.855500E-03	4.487326E-05
3.032989E+03	1.886589E-03	4.561112E-05
3.042836E+03	1.918396E-03	4.636587E-05
3.052683E+03	1.951139E-03	4.714277E-05
3.062531E+03	1.984643E-03	4.793754E-05
3.072378E+03	2.018926E-03	4.875065E-05
3.082226E+03	2.054010E-03	4.958257E-05
3.092073E+03	2.090122E-03	5.043877E-05
3.101920E+03	2.127079E-03	5.131483E-05
3.111768E+03	2.165112E-03	5.221631E-05
3.121615E+03	2.204037E-03	5.313872E-05
3.131462E+03	2.243873E-03	5.408250E-05
3.141310E+03	2.284857E-03	5.505340E-05
3.151157E+03	2.326798E-03	5.604671E-05
3.161004E+03	2.369934E-03	5.706821E-05
3.170852E+03	2.414068E-03	5.811310E-05
3.180699E+03	2.459443E-03	5.918721E-05
3.190547E+03	2.505853E-03	6.028558E-05
3.200394E+03	2.553544E-03	6.141407E-05
3.210241E+03	2.602536E-03	6.257317E-05
3.220089E+03	2.652612E-03	6.375762E-05
3.229936E+03	2.704019E-03	6.497335E-05
3.239783E+03	2.756772E-03	6.622067E-05
3.249631E+03	2.810640E-03	6.749401E-05
3.259478E+03	2.865869E-03	6.879927E-05
3.269325E+03	2.922467E-03	7.013660E-05
3.279173E+03	2.980185E-03	7.150003E-05
3.289020E+03	3.039522E-03	7.290148E-05
3.298868E+03	3.099972E-03	7.432878E-05
3.308715E+03	3.161777E-03	7.578772E-05
3.318562E+03	3.225187E-03	7.728428E-05
3.328410E+03	3.289667E-03	7.880561E-05
3.338257E+03	3.355456E-03	8.035742E-05
3.348104E+03	3.422532E-03	8.193913E-05
3.357952E+03	3.490866E-03	8.355004E-05
3.367799E+03	3.560426E-03	8.518937E-05
3.377646E+03	3.631175E-03	8.685622E-05
3.387494E+03	3.703072E-03	8.854958E-05
3.397341E+03	3.776354E-03	9.027513E-05
3.407189E+03	3.850410E-03	9.201818E-05
3.417036E+03	3.925753E-03	9.379104E-05
3.426883E+03	4.002043E-03	9.558555E-05
3.436731E+03	4.079218E-03	9.740021E-05
3.446578E+03	4.157509E-03	9.924053E-05
3.456425E+03	4.236556E-03	1.010979E-04
3.466273E+03	4.316287E-03	1.029706E-04
3.476120E+03	4.396932E-03	1.048641E-04
3.485968E+03	4.478108E-03	1.067693E-04
3.495815E+03	4.560053E-03	1.086918E-04
3.505662E+03	4.642368E-03	1.106222E-04
3.515510E+03	4.724980E-03	1.125587E-04
3.525357E+03	4.808109E-03	1.145065E-04
3.535204E+03	4.891678E-03	1.164638E-04
3.545052E+03	4.975279E-03	1.184209E-04
3.554899E+03	5.059143E-03	1.203834E-04
3.564746E+03	5.142861E-03	1.223414E-04
3.574594E+03	5.226663E-03	1.243005E-04
3.584441E+03	5.310459E-03	1.262586E-04
3.594289E+03	5.394157E-03	1.282134E-04
3.604136E+03	5.477337E-03	1.301551E-04
3.613983E+03	5.560229E-03	1.320891E-04
3.623831E+03	5.642738E-03	1.340131E-04
3.633678E+03	5.724439E-03	1.359172E-04
3.643525E+03	5.805887E-03	1.378144E-04
3.653373E+03	5.886327E-03	1.396870E-04
3.663220E+03	5.966315E-03	1.415481E-04
3.673067E+03	6.045083E-03	1.433796E-04
3.682915E+03	6.122858E-03	1.451868E-04
3.692762E+03	6.199535E-03	1.469673E-04
3.702610E+03	6.274997E-03	1.487185E-04
3.712457E+03	6.349136E-03	1.504377E-04
3.722304E+03	6.421835E-03	1.521223E-04
3.732152E+03	6.492653E-03	1.537617E-04
3.741999E+03	6.562135E-03	1.553691E-04
3.751846E+03	6.629840E-03	1.569340E-04
3.761694E+03	6.695641E-03	1.584534E-04
3.771541E+03	6.759436E-03	1.599250E-04
3.781388E+03	6.821099E-03	1.613458E-04
3.791236E+03	6.880526E-03	1.627135E-04
3.801083E+03	6.937604E-03	1.640254E-04
3.810931E+03	6.992238E-03	1.652794E-04
3.820778E+03	7.044324E-03	1.664730E-04
3.830625E+03	7.093772E-03	1.676042E-04
3.840473E+03	7.140496E-03	1.686709E-04
3.850320E+03	7.184429E-03	1.696718E-04
3.860167E+03	7.225495E-03	1.706050E-04
3.870015E+03	7.263650E-03	1.714696E-04
3.879862E+03	7.298847E-03	1.722645E-04
3.889710E+03	7.331055E-03	1.729891E-04
3.899557E+03	7.360262E-03	1.736430E-04
3.909404E+03	7.386468E-03	1.742265E-04
3.919252E+03	7.409378E-03	1.747325E-04
3.929099E+03	7.429335E-03	1.751693E-04
3.938946E+03	7.446682E-03	1.755450E-04
3.948794E+03	7.460577E-03	1.758397E-04
3.958641E+03	7.472004E-03	1.760768E-04
3.968488E+03	7.480457E-03	1.762443E-04
3.978336E+03	7.486053E-03	1.763451E-04
3.988183E+03	7.489498E-03	1.763958E-04
3.998031E+03	7.490064E-03	1.763793E-04
4.007878E+03	7.488479E-03	1.763128E-04
4.017725E+03	7.484908E-03	1.762002E-04
4.027573E+03	7.478969E-03	1.760327E-04
4.037420E+03	7.471413E-03	1.758277E-04
4.047267E+03	7.462156E-03	1.755836E-04
4.057115E+03	7.451411E-03	1.753052E-04
4.066962E+03	7.439391E-03	1.749975E-04
4.076809E+03	7.426320E-03	1.746660E-04
4.086657E+03	7.412419E-03	1.743157E-04
4.096504E+03	7.397672E-03	1.739464E-04
4.106352E+03	7.382564E-03	1.735695E-04
4.116199E+03	7.367323E-03	1.731902E-04
4.126046E+03	7.351945E-03	1.728086E-04
4.135894E+03	7.336661E-03	1.724301E-04
4.145741E+03	7.321708E-03	1.720602E-04
4.155588E+03	7.307550E-03	1.717098E-04
4.165436E+03	7.293948E-03	1.713734E-04
4.175283E+03	7.281574E-03	1.710667E-04
4.185130E+03	7.270190E-03	1.707842E-04
4.194978E+03	7.260003E-03	1.705306E-04
4.204825E+03	7.251642E-03	1.703208E-04
4.214673E+03	7.244620E-03	1.701433E-04
4.224520E+03	7.239542E-03	1.700124E-04
4.234367E+03	7.236323E-03	1.699260E-04
4.244215E+03	7.235081E-03	1.698869E-04
4.254062E+03	7.235903E-03	1.698972E-04
4.263909E+03	7.238641E-03	1.699533E-04
4.273757E+03	7.243715E-03	1.700652E-04
4.283604E+03	7.250502E-03	1.702183E-04
4.293452E+03	7.259336E-03	1.704203E-04
4.303299E+03	7.269913E-03	1.706641E-04
4.313146E+03	7.282272E-03	1.709508E-04
4.322994E+03	7.295833E-03	1.712666E-04
4.332841E+03	7.310799E-03	1.716163E-04
4.342688E+03	7.327361E-03	1.720046E-04
4.352536E+03	7.345476E-03	1.724302E-04
4.362383E+03	7.365452E-03	1.729006E-04
4.372230E+03	7.387171E-03	1.734128E-04
4.382078E+03	7.410663E-03	1.739677E-04
4.391925E+03	7.436115E-03	1.745696E-04
4.401773E+03	7.463107E-03	1.752086E-04
4.411620E+03	7.491773E-03	1.758879E-04
4.421467E+03	7.522009E-03	1.766051E-04
4.431315E+03	7.553711E-03	1.773576E-04
4.441162E+03	7.586568E-03	1.781383E-04
4.451009E+03	7.620436E-03	1.789438E-04
4.460857E+03	7.655363E-03	1.797751E-04
4.470704E+03	7.691012E-03	1.806244E-04
4.480551E+03	7.727226E-03	1.814880E-04
4.490399E+03	7.763850E-03	1.823622E-04
4.500246E+03	7.800918E-03	1.832479E-04
4.510094E+03	7.837919E-03	1.841330E-04
4.519941E+03	7.874707E-03	1.850142E-04
4.529788E+03	7.911505E-03	1.858966E-04
4.539636E+03	7.947830E-03	1.867689E-04
4.549483E+03	7.983733E-03	1.876324E-04
4.559330E+03	8.019105E-03	1.884844E-04
4.569178E+03	8.053662E-03	1.893182E-04
4.579025E+03	8.087307E-03	1.901316E-04
4.588872E+03	8.120146E-03	1.909271E-04
4.598720E+03	8.151921E-03	1.916986E-04
4.608567E+03	8.182745E-03	1.924487E-04
4.618415E+03	8.212386E-03	1.931720E-04
4.628262E+03	8.240799E-03	1.938673E-04
4.638109E+03	8.267950E-03	1.945339E-04
4.647957E+03	8.293990E-03	1.951754E-04
4.657804E+03	8.318716E-03	1.957868E-04
4.667651E+03	8.342119E-03	1.963681E-04
4.677499E+03	8.364190E-03	1.969189E-04
4.687346E+03	8.385107E-03	1.974434E-04
4.697194E+03	8.404519E-03	1.979334E-04
4.707041E+03	8.422781E-03	1.983971E-04
4.716888E+03	8.439915E-03	1.988352E-04
4.726736E+03	8.455574E-03	1.992393E-04
4.736583E+03	8.470135E-03	1.996183E-04
4.746430E+03	8.483433E-03	1.999684E-04
4.756278E+03	8.495668E-03	2.002942E-04
4.766125E+03	8.506514E-03	2.005881E-04
4.775972E+03	8.516340E-03	2.008586E-04
4.785820E+03	8.525167E-03	2.011062E-04
4.795667E+03	8.532848E-03	2.013276E-04
4.805515E+03	8.539405E-03	2.015231E-04
4.815362E+03	8.545032E-03	2.016973E-04
4.825209E+03	8.549747E-03	2.018506E-04
4.835057E+03	8.553407E-03	2.019797E-04
4.844904E+03	8.556024E-03	2.020847E-04
4.854751E+03	8.557798E-03	2.021704E-04
4.864599E+03	8.558738E-03	2.022370E-04
4.874446E+03	8.558864E-03	2.022849E-04
4.884293E+03	8.558187E-03	2.023144E-04
4.894141E+03	8.556562E-03	2.023219E-04
4.903988E+03	8.554159E-03	2.023116E-04
4.913836E+03	8.550990E-03	2.022836E-04
4.923683E+03	8.547060E-03	2.022381E-04
4.933530E+03	8.542382E-03	2.021753E-04
4.943378E+03	8.536951E-03	2.020951E-04
4.953225E+03	8.530776E-03	2.019977E-04
4.963072E+03	8.523849E-03	2.018828E-04
4.972920E+03	8.516333E-03	2.017544E-04
4.982767E+03	8.507896E-03	2.016045E-04
4.992614E+03	8.498857E-03	2.014407E-04
5.002462E+03	8.489039E-03	2.012587E-04
5.012309E+03	8.478438E-03	2.010584E-04
5.022157E+03	8.467045E-03	2.008397E-04
5.032004E+03	8.454994E-03	2.006055E-04
5.041851E+03	8.442125E-03	2.003522E-04
5.051699E+03	8.428573E-03	2.000828E-04
5.061546E+03	8.414175E-03	1.997936E-04
5.071393E+03	8.398908E-03	1.994839E-04
5.081241E+03	8.382926E-03	1.991574E-04
5.091088E+03	8.366056E-03	1.988099E-04
5.100935E+03	8.348450E-03	1.984451E-04
5.110783E+03	8.329943E-03	1.980588E-04
5.120630E+03	8.310691E-03	1.976550E-04
5.130478E+03	8.290538E-03	1.972298E-04
5.140325E+03	8.269644E-03	1.967869E-04
5.150172E+03	8.247862E-03	1.963229E-04
5.160020E+03	8.225360E-03	1.958418E-04
5.169867E+03	8.202153E-03	1.953439E-04
5.179714E+03	8.178109E-03	1.948259E-04
5.189562E+03	8.153258E-03	1.942887E-04
5.199409E+03	8.127780E-03	1.937364E-04
5.209257E+03	8.101703E-03	1.931698E-04
5.219104E+03	8.074924E-03	1.925862E-04
5.228951E+03	8.047624E-03	1.919901E-04
5.238799E+03	8.019705E-03	1.913791E-04
5.248646E+03	7.991365E-03	1.907578E-04
5.258493E+03	7.962500E-03	1.901238E-04
5.268341E+03	7.933314E-03	1.894820E-04
5.278188E+03	7.903854E-03	1.888333E-04
5.288035E+03	7.874030E-03	1.881758E-04
5.297883E+03	7.844050E-03	1.875142E-04
5.307730E+03	7.813965E-03	1.868499E-04
5.317578E+03	7.783546E-03	1.861774E-04
5.327425E+03	7.753278E-03	1.855081E-04
5.337272E+03	7.722940E-03	1.848370E-04
5.347120E+03	7.692728E-03	1.841685E-04
5.356967E+03	7.662701E-03	1.835042E-04
5.366814E+03	7.632783E-03	1.828422E-04
5.376662E+03	7.603158E-03	1.821869E-04
5.386509E+03	7.573750E-03	1.815365E-04
5.396356E+03	7.544740E-03	1.808953E-04
5.406204E+03	7.516172E-03	1.802644E-04
5.416051E+03	7.488072E-03	1.796444E-04
5.425899E+03	7.460310E-03	1.790322E-04
5.435746E+03	7.433024E-03	1.784311E-04
5.445593E+03	7.406197E-03	1.778408E-04
5.455441E+03	7.379825E-03	1.772610E-04
5.465288E+03	7.353890E-03	1.766915E-04
5.475135E+03	7.328371E-03	1.761316E-04
5.484983E+03	7.303121E-03	1.755779E-04
5.494830E+03	7.278386E-03	1.750363E-04
5.504677E+03	7.253880E-03	1.744999E-04
5.514525E+03	7.229851E-03	1.739746E-04
5.524372E+03	7.206142E-03	1.734567E-04
5.534220E+03	7.182737E-03	1.729459E-04
5.544067E+03	7.159608E-03	1.724414E-04
5.553914E+03	7.136731E-03	1.719426E-04
5.563762E+03	7.114083E-03	1.714491E-04
5.573609E+03	7.091768E-03	1.709632E-04
5.583456E+03	7.069631E-03	1.704814E-04
5.593304E+03	7.047766E-03	1.700058E-04
5.603151E+03	7.026018E-03	1.695327E-04
5.612999E+03	7.004365E-03	1.690616E-04
5.622846E+03	6.982898E-03	1.685947E-04
5.632693E+03	6.961587E-03	1.681312E-04
5.642541E+03	6.940279E-03	1.676675E-04
5.652388E+03	6.919070E-03	1.672059E-04
5.662235E+03	6.897809E-03	1.667427E-04
5.672083E+03	6.876595E-03	1.662803E-04
5.681930E+03	6.855398E-03	1.658180E-04
5.691777E+03	6.834070E-03	1.653521E-04
5.701625E+03	6.812837E-03	1.648883E-04
5.711472E+03	6.791425E-03	1.644197E-04
5.721320E+03	6.769939E-03	1.639491E-04
5.731167E+03	6.748365E-03	1.634760E-04
5.741014E+03	6.726678E-03	1.629997E-04
5.750862E+03	6.704864E-03	1.625201E-04
5.760709E+03	6.682907E-03	1.620366E-04
5.770556E+03	6.660801E-03	1.615491E-04
5.780404E+03	6.638525E-03	1.610572E-04
5.790251E+03	6.616075E-03	1.605606E-04
5.800098E+03	6.593442E-03	1.600592E-04
5.809946E+03	6.570617E-03	1.595528E-04
5.819793E+03	6.547596E-03	1.590413E-04
5.829641E+03	6.524500E-03	1.585275E-04
5.839488E+03	6.501078E-03	1.580054E-04
5.849335E+03	6.477568E-03	1.574808E-04
5.859183E+03	6.453858E-03	1.569509E-04
5.869030E+03	6.429943E-03	1.564156E-04
5.878877E+03	6.405823E-03	1.558749E-04
5.888725E+03	6.381507E-03	1.553290E-04
5.898572E+03	6.357116E-03	1.547809E-04
5.908419E+03	6.332411E-03	1.542247E-04
5.918267E+03	6.307641E-03	1.536665E-04
5.928114E+03	6.282691E-03	1.531035E-04
5.937962E+03	6.257571E-03	1.525359E-04
5.947809E+03	6.232398E-03	1.519666E-04
5.957656E+03	6.206955E-03	1.513902E-04
5.967504E+03	6.181481E-03	1.508127E-04
5.977351E+03	6.155862E-03	1.502311E-04
5.987198E+03	6.130116E-03	1.496461E-04
5.997046E+03	6.104252E-03	1.490577E-04
6.006893E+03	6.078391E-03	1.484689E-04
6.016741E+03	6.052321E-03	1.478745E-04
6.026588E+03	6.026275E-03	1.472803E-04
6.036435E+03	6.000159E-03	1.466840E-04
6.046283E+03	5.973977E-03	1.460855E-04
6.056130E+03	5.947859E-03	1.454882E-04
6.065977E+03	5.921592E-03	1.448867E-04
6.075825E+03	5.895411E-03	1.442869E-04
6.085672E+03	5.869224E-03	1.436865E-04
6.095519E+03	5.843037E-03	1.430856E-04
6.105367E+03	5.816869E-03	1.424848E-04
6.115214E+03	5.790844E-03	1.418870E-04
6.125062E+03	5.764866E-03	1.412899E-04
6.134909E+03	5.738947E-03	1.406938E-04
6.144756E+03	5.713101E-03	1.400990E-04
6.154604E+03	5.687350E-03	1.395060E-04
6.164451E+03	5.661810E-03	1.389179E-04
6.174298E+03	5.636395E-03	1.383323E-04
6.184146E+03	5.611109E-03	1.377495E-04
6.193993E+03	5.586082E-03	1.371726E-04
6.203840E+03	5.561116E-03	1.365967E-04
6.213688E+03	5.536435E-03	1.360274E-04
6.223535E+03	5.512056E-03	1.354651E-04
6.233383E+03	5.487886E-03	1.349075E-04
6.243230E+03	5.463940E-03	1.343550E-04
6.253077E+03	5.440232E-03	1.338079E-04
6.262925E+03	5.416888E-03	1.332693E-04
6.272772E+03	5.393920E-03	1.327396E-04
6.282619E+03	5.371239E-03	1.322166E-04
6.292467E+03	5.348865E-03	1.317007E-04
6.302314E+03	5.326915E-03	1.311948E-04
6.312161E+03	5.305308E-03	1.306970E-04
6.322009E+03	5.284174E-03	1.302105E-04
6.331856E+03	5.263525E-03	1.297355E-04
6.341704E+03	5.243297E-03	1.292706E-04
6.351551E+03	5.223711E-03	1.288211E-04
6.361398E+03	5.204498E-03	1.283804E-04
6.371246E+03	5.185992E-03	1.279569E-04
6.381093E+03	5.168024E-03	1.275463E-04
6.390940E+03	5.150729E-03	1.271520E-04
6.400788E+03	5.134133E-03	1.267745E-04
6.410635E+03	5.118267E-03	1.264148E-04
6.420483E+03	5.103147E-03	1.260733E-04
6.430330E+03	5.088782E-03	1.257501E-04
6.440177E+03	5.075174E-03	1.254452E-04
6.450025E+03	5.062325E-03	1.251589E-04
6.459872E+03	5.050219E-03	1.248907E-04
6.469719E+03	5.038838E-03	1.246402E-04
6.479567E+03	5.028265E-03	1.244094E-04
6.489414E+03	5.018265E-03	1.241926E-04
6.499261E+03	5.009022E-03	1.239942E-04
6.509109E+03	5.000503E-03	1.238136E-04
6.518956E+03	4.992485E-03	1.236451E-04
6.528804E+03	4.985148E-03	1.234933E-04
6.538651E+03	4.978476E-03	1.233578E-04
6.548498E+03	4.972347E-03	1.232356E-04
6.558346E+03	4.966853E-03	1.231289E-04
6.568193E+03	4.961875E-03	1.230348E-04
6.578040E+03	4.957402E-03	1.229531E-04
6.587888E+03	4.953628E-03	1.228886E-04
6.597735E+03	4.950341E-03	1.228360E-04
6.607582E+03	4.947633E-03	1.227976E-04
6.617430E+03	4.945393E-03	1.227706E-04
6.627277E+03	4.943819E-03	1.227601E-04
6.637125E+03	4.942701E-03	1.227608E-04
6.646972E+03	4.942127E-03	1.227748E-04
6.656819E+03	4.942096E-03	1.228022E-04
6.666667E+03	4.942500E-03	1.228404E-04
6.676514E+03	4.943534E-03	1.228940E-04
6.686361E+03	4.945090E-03	1.229606E-04
6.696209E+03	4.947064E-03	1.230374E-04
6.706056E+03	4.949655E-03	1.231295E-04
6.715903E+03	4.952751E-03	1.232341E-04
6.725751E+03	4.956347E-03	1.233510E-04
6.735598E+03	4.960338E-03	1.234778E-04
6.745446E+03	4.964930E-03	1.236193E-04
6.755293E+03	4.970005E-03	1.237729E-04
6.765140E+03	4.975568E-03	1.239385E-04
6.774988E+03	4.981709E-03	1.241185E-04
6.784835E+03	4.988220E-03	1.243077E-04
6.794682E+03	4.995200E-03	1.245085E-04
6.804530E+03	5.002743E-03	1.247232E-04
6.814377E+03	5.010742E-03	1.249494E-04
6.824225E+03	5.019085E-03	1.251841E-04
6.834072E+03	5.027972E-03	1.254323E-04
6.843919E+03	5.037290E-03	1.256912E-04
6.853767E+03	5.047030E-03	1.259607E-04
6.863614E+03	5.057289E-03	1.262431E-04
6.873461E+03	5.067835E-03	1.265326E-04
6.883309E+03	5.078772E-03	1.268319E-04
6.893156E+03	5.090189E-03	1.271432E-04
6.903003E+03	5.101854E-03	1.274607E-04
6.912851E+03	5.113968E-03	1.277894E-04
6.922698E+03	5.126404E-03	1.281261E-04
6.932546E+03	5.139036E-03	1.284678E-04
6.942393E+03	5.152056E-03	1.288191E-04
6.952240E+03	5.165229E-03	1.291743E-04
6.962088E+03	5.178637E-03	1.295354E-04
6.971935E+03	5.192255E-03	1.299017E-04
6.981782E+03	5.206055E-03	1.302726E-04
6.991630E+03	5.220017E-03	1.306476E-04
7.001477E+03	5.234102E-03	1.310257E-04
7.011324E+03	5.248174E-03	1.314034E-04
7.021172E+03	5.262311E-03	1.317829E-04
7.031019E+03	5.276484E-03	1.321632E-04
7.040867E+03	5.290544E-03	1.325407E-04
7.050714E+03	5.304570E-03	1.329173E-04
7.060561E+03	5.318535E-03	1.332925E-04
7.070409E+03	5.332279E-03	1.336621E-04
7.080256E+03	5.345775E-03	1.340255E-04
7.090103E+03	5.359106E-03	1.343847E-04
7.099951E+03	5.372115E-03	1.347359E-04
7.109798E+03	5.384889E-03	1.350812E-04
7.119645E+03	5.397281E-03	1.354169E-04
7.129493E+03	5.409255E-03	1.357421E-04
7.139340E+03	5.420786E-03	1.360562E-04
7.149188E+03	5.431842E-03	1.363583E-04
7.159035E+03	5.442511E-03	1.366507E-04
7.168882E+03	5.452658E-03	1.369299E-04
7.178730E+03	5.462131E-03	1.371922E-04
7.188577E+03	5.471155E-03	1.374432E-04
7.198424E+03	5.479470E-03	1.376763E-04
7.208272E+03	5.487297E-03	1.378970E-04
7.218119E+03	5.494379E-03	1.380991E-04
7.227967E+03	5.500831E-03	1.382852E-04
7.237814E+03	5.506642E-03	1.384551E-04
7.247661E+03	5.511679E-03	1.386055E-04
7.257509E+03	5.516062E-03	1.387393E-04
7.267356E+03	5.519788E-03	1.388565E-04
7.277203E+03	5.522856E-03	1.389571E-04
7.287051E+03	5.525140E-03	1.390379E-04
7.296898E+03	5.526771E-03	1.391021E-04
7.306745E+03	5.527626E-03	1.391467E-04
7.316593E+03	5.527706E-03	1.391717E-04
7.326440E+03	5.527142E-03	1.391803E-04
7.336288E+03	5.525941E-03	1.391727E-04
7.346135E+03	5.523856E-03	1.391428E-04
7.355982E+03	5.521261E-03	1.390999E-04
7.365830E+03	5.517794E-03	1.390348E-04
7.375677E+03	5.513700E-03	1.389538E-04
7.385524E+03	5.508857E-03	1.388538E-04
7.395372E+03	5.503268E-03	1.387348E-04
7.405219E+03	5.497051E-03	1.385998E-04
7.415066E+03	5.490081E-03	1.384456E-04
7.424914E+03	5.482347E-03	1.382721E-04
7.434761E+03	5.473842E-03	1.380789E-04
7.444609E+03	5.464557E-03	1.378658E-04
7.454456E+03	5.454596E-03	1.376354E-04
7.464303E+03	5.443706E-03	1.373815E-04
7.474151E+03	5.432110E-03	1.371095E-04
7.483998E+03	5.419664E-03	1.368159E-04
7.493845E+03	5.406350E-03	1.365001E-04
7.503693E+03	5.392147E-03	1.361617E-04
7.513540E+03	5.377028E-03	1.357999E-04
7.523387E+03	5.360967E-03	1.354141E-04
7.533235E+03	5.343942E-03	1.350037E-04
7.543082E+03	5.325931E-03	1.345682E-04
7.552930E+03	5.306909E-03	1.341069E-04
7.562777E+03	5.286858E-03	1.336193E-04
7.572624E+03	5.265755E-03	1.331049E-04
7.582472E+03	5.243584E-03	1.325632E-04
7.592319E+03	5.220335E-03	1.319940E-04
7.602166E+03	5.196000E-03	1.313971E-04
7.612014E+03	5.170570E-03	1.307722E-04
7.621861E+03	5.143928E-03	1.301164E-04
7.631709E+03	5.116321E-03	1.294358E-04
7.641556E+03	5.087519E-03	1.287248E-04
