#wls	flux	fluxerr
1.575579E+03	1.564585E-04	4.536893E-06
1.614968E+03	1.572621E-04	4.555244E-06
1.654357E+03	1.581236E-04	4.575078E-06
1.693747E+03	1.590185E-04	4.595677E-06
1.733136E+03	1.600079E-04	4.618794E-06
1.772526E+03	1.610967E-04	4.644558E-06
1.811915E+03	1.622326E-04	4.671443E-06
1.851305E+03	1.634496E-04	4.700415E-06
1.890694E+03	1.647534E-04	4.731620E-06
1.930084E+03	1.661797E-04	4.766067E-06
1.969473E+03	1.677062E-04	4.803091E-06
2.008863E+03	1.693099E-04	4.842018E-06
2.048252E+03	1.710588E-04	4.884767E-06
2.087642E+03	1.729314E-04	4.930698E-06
2.127031E+03	1.749369E-04	4.980048E-06
2.166420E+03	1.770856E-04	5.033077E-06
2.205810E+03	1.793883E-04	5.090059E-06
2.245199E+03	1.818890E-04	5.152212E-06
2.284589E+03	1.845369E-04	5.218050E-06
2.323978E+03	1.874111E-04	5.289772E-06
2.363368E+03	1.904614E-04	5.365913E-06
2.402757E+03	1.937717E-04	5.448789E-06
2.442147E+03	1.973278E-04	5.537941E-06
2.481536E+03	2.011505E-04	5.633888E-06
2.520926E+03	2.052626E-04	5.737205E-06
2.560315E+03	2.096894E-04	5.848523E-06
2.599705E+03	2.144964E-04	5.969588E-06
2.639094E+03	2.196401E-04	6.099090E-06
2.678484E+03	2.252311E-04	6.240004E-06
2.717873E+03	2.312292E-04	6.391107E-06
2.757262E+03	2.377570E-04	6.555661E-06
2.796652E+03	2.448222E-04	6.733736E-06
2.836041E+03	2.524774E-04	6.926628E-06
2.875431E+03	2.607815E-04	7.135777E-06
2.914820E+03	2.698001E-04	7.362792E-06
2.954210E+03	2.796067E-04	7.609464E-06
2.964057E+03	2.821664E-04	7.673765E-06
2.973904E+03	2.848309E-04	7.740789E-06
2.983752E+03	2.875530E-04	7.809243E-06
2.993599E+03	2.902837E-04	7.877794E-06
3.003447E+03	2.931251E-04	7.949211E-06
3.013294E+03	2.959771E-04	8.020772E-06
3.023141E+03	2.989439E-04	8.095298E-06
3.032989E+03	3.019760E-04	8.171444E-06
3.042836E+03	3.050223E-04	8.247818E-06
3.052683E+03	3.081900E-04	8.327319E-06
3.062531E+03	3.113742E-04	8.407105E-06
3.072378E+03	3.146845E-04	8.490129E-06
3.082226E+03	3.180692E-04	8.574993E-06
3.092073E+03	3.214745E-04	8.660238E-06
3.101920E+03	3.250135E-04	8.748906E-06
3.111768E+03	3.285761E-04	8.838026E-06
3.121615E+03	3.322776E-04	8.930699E-06
3.131462E+03	3.360641E-04	9.025462E-06
3.141310E+03	3.398789E-04	9.120787E-06
3.151157E+03	3.438414E-04	9.219876E-06
3.161004E+03	3.478960E-04	9.321224E-06
3.170852E+03	3.519839E-04	9.423255E-06
3.180699E+03	3.562292E-04	9.529280E-06
3.190547E+03	3.605741E-04	9.637747E-06
3.200394E+03	3.649584E-04	9.747033E-06
3.210241E+03	3.695102E-04	9.860560E-06
3.220089E+03	3.741700E-04	9.976728E-06
3.229936E+03	3.788755E-04	1.009386E-05
3.239783E+03	3.837598E-04	1.021551E-05
3.249631E+03	3.887614E-04	1.034001E-05
3.259478E+03	3.938155E-04	1.046565E-05
3.269325E+03	3.990607E-04	1.059608E-05
3.279173E+03	4.044333E-04	1.072961E-05
3.289020E+03	4.099367E-04	1.086632E-05
3.298868E+03	4.155031E-04	1.100441E-05
3.308715E+03	4.212785E-04	1.114772E-05
3.318562E+03	4.271962E-04	1.129447E-05
3.328410E+03	4.331855E-04	1.144280E-05
3.338257E+03	4.393987E-04	1.159671E-05
3.348104E+03	4.457666E-04	1.175435E-05
3.357952E+03	4.522933E-04	1.191583E-05
3.367799E+03	4.589044E-04	1.207917E-05
3.377646E+03	4.657614E-04	1.224861E-05
3.387494E+03	4.727913E-04	1.242221E-05
3.397341E+03	4.799162E-04	1.259791E-05
3.407189E+03	4.873049E-04	1.278014E-05
3.417036E+03	4.948816E-04	1.296687E-05
3.426883E+03	5.026512E-04	1.315823E-05
3.436731E+03	5.105321E-04	1.335206E-05
3.446578E+03	5.187032E-04	1.355303E-05
3.456425E+03	5.270841E-04	1.375902E-05
3.466273E+03	5.356811E-04	1.397016E-05
3.476120E+03	5.444065E-04	1.418415E-05
3.485968E+03	5.534517E-04	1.440598E-05
3.495815E+03	5.627312E-04	1.463337E-05
3.505662E+03	5.722522E-04	1.486650E-05
3.515510E+03	5.819205E-04	1.510291E-05
3.525357E+03	5.919418E-04	1.534791E-05
3.535204E+03	6.022250E-04	1.559911E-05
3.545052E+03	6.127764E-04	1.585666E-05
3.554899E+03	6.234971E-04	1.611796E-05
3.564746E+03	6.346067E-04	1.638868E-05
3.574594E+03	6.460074E-04	1.666625E-05
3.584441E+03	6.577076E-04	1.695087E-05
3.594289E+03	6.696001E-04	1.723975E-05
3.604136E+03	6.819207E-04	1.753893E-05
3.613983E+03	6.945648E-04	1.784569E-05
3.623831E+03	7.075414E-04	1.816024E-05
3.633678E+03	7.208584E-04	1.848273E-05
3.643525E+03	7.343995E-04	1.881016E-05
3.653373E+03	7.484221E-04	1.914909E-05
3.663220E+03	7.628124E-04	1.949658E-05
3.673067E+03	7.775791E-04	1.985280E-05
3.682915E+03	7.925962E-04	2.021451E-05
3.692762E+03	8.081412E-04	2.058875E-05
3.702610E+03	8.240903E-04	2.097233E-05
3.712457E+03	8.404538E-04	2.136546E-05
3.722304E+03	8.570942E-04	2.176462E-05
3.732152E+03	8.743107E-04	2.217736E-05
3.741999E+03	8.919697E-04	2.260025E-05
3.751846E+03	9.100807E-04	2.303348E-05
3.761694E+03	9.284952E-04	2.347325E-05
3.771541E+03	9.475351E-04	2.392767E-05
3.781388E+03	9.670551E-04	2.439300E-05
3.791236E+03	9.870638E-04	2.486942E-05
3.801083E+03	1.007400E-03	2.535282E-05
3.810931E+03	1.028410E-03	2.585188E-05
3.820778E+03	1.049937E-03	2.636256E-05
3.830625E+03	1.071986E-03	2.688498E-05
3.840473E+03	1.094380E-03	2.741465E-05
3.850320E+03	1.117496E-03	2.796093E-05
3.860167E+03	1.141157E-03	2.851936E-05
3.870015E+03	1.165370E-03	2.909004E-05
3.879862E+03	1.189939E-03	2.966803E-05
3.889710E+03	1.215269E-03	3.026338E-05
3.899557E+03	1.241166E-03	3.087118E-05
3.909404E+03	1.267633E-03	3.149148E-05
3.919252E+03	1.294455E-03	3.211883E-05
3.929099E+03	1.322066E-03	3.276400E-05
3.938946E+03	1.350253E-03	3.342159E-05
3.948794E+03	1.379014E-03	3.409152E-05
3.958641E+03	1.408109E-03	3.476780E-05
3.968488E+03	1.438006E-03	3.546193E-05
3.978336E+03	1.468466E-03	3.616794E-05
3.988183E+03	1.499230E-03	3.687939E-05
3.998031E+03	1.530789E-03	3.760833E-05
4.007878E+03	1.562885E-03	3.834832E-05
4.017725E+03	1.595505E-03	3.909900E-05
4.027573E+03	1.628359E-03	3.985319E-05
4.037420E+03	1.661972E-03	4.062373E-05
4.047267E+03	1.696055E-03	4.140346E-05
4.057115E+03	1.730292E-03	4.218463E-05
4.066962E+03	1.765235E-03	4.298066E-05
4.076809E+03	1.800569E-03	4.378379E-05
4.086657E+03	1.835949E-03	4.458565E-05
4.096504E+03	1.871953E-03	4.540017E-05
4.106352E+03	1.908235E-03	4.621896E-05
4.116199E+03	1.944423E-03	4.703298E-05
4.126046E+03	1.981117E-03	4.785669E-05
4.135894E+03	2.017940E-03	4.868098E-05
4.145741E+03	2.054488E-03	4.949607E-05
4.155588E+03	2.091382E-03	5.031692E-05
4.165436E+03	2.128212E-03	5.113366E-05
4.175283E+03	2.164539E-03	5.193573E-05
4.185130E+03	2.201002E-03	5.273851E-05
4.194978E+03	2.237156E-03	5.353130E-05
4.204825E+03	2.272522E-03	5.430270E-05
4.214673E+03	2.307756E-03	5.506844E-05
4.224520E+03	2.341978E-03	5.580755E-05
4.234367E+03	2.375850E-03	5.653586E-05
4.244215E+03	2.408856E-03	5.724116E-05
4.254062E+03	2.440450E-03	5.791056E-05
4.263909E+03	2.471297E-03	5.856000E-05
4.273757E+03	2.500422E-03	5.916642E-05
4.283604E+03	2.528498E-03	5.974591E-05
4.293452E+03	2.554948E-03	6.028498E-05
4.303299E+03	2.579189E-03	6.077004E-05
4.313146E+03	2.601949E-03	6.121846E-05
4.322994E+03	2.622268E-03	6.160779E-05
4.332841E+03	2.640972E-03	6.195771E-05
4.342688E+03	2.657187E-03	6.224788E-05
4.352536E+03	2.671843E-03	6.250030E-05
4.362383E+03	2.684122E-03	6.269606E-05
4.372230E+03	2.695009E-03	6.285836E-05
4.382078E+03	2.703701E-03	6.296864E-05
4.391925E+03	2.711199E-03	6.305041E-05
4.401773E+03	2.716695E-03	6.308504E-05
4.411620E+03	2.721190E-03	6.309594E-05
4.421467E+03	2.723868E-03	6.306433E-05
4.431315E+03	2.725726E-03	6.301346E-05
4.441162E+03	2.725940E-03	6.292437E-05
4.451009E+03	2.725501E-03	6.282013E-05
4.460857E+03	2.723580E-03	6.268169E-05
4.470704E+03	2.721161E-03	6.253184E-05
4.480551E+03	2.717410E-03	6.235149E-05
4.490399E+03	2.713305E-03	6.216321E-05
4.500246E+03	2.708009E-03	6.194787E-05
4.510094E+03	2.702040E-03	6.171746E-05
4.519941E+03	2.695911E-03	6.148373E-05
4.529788E+03	2.688783E-03	6.122763E-05
4.539636E+03	2.681610E-03	6.097096E-05
4.549483E+03	2.673555E-03	6.069469E-05
4.559330E+03	2.665118E-03	6.041029E-05
4.569178E+03	2.656792E-03	6.012893E-05
4.579025E+03	2.647739E-03	5.983173E-05
4.588872E+03	2.638888E-03	5.953969E-05
4.598720E+03	2.629404E-03	5.923398E-05
4.608567E+03	2.619768E-03	5.892551E-05
4.618415E+03	2.610453E-03	5.862493E-05
4.628262E+03	2.600627E-03	5.831355E-05
4.638109E+03	2.590761E-03	5.800197E-05
4.647957E+03	2.581316E-03	5.770050E-05
4.657804E+03	2.571464E-03	5.739065E-05
4.667651E+03	2.561665E-03	5.708270E-05
4.677499E+03	2.552368E-03	5.678668E-05
4.687346E+03	2.542752E-03	5.648424E-05
4.697194E+03	2.533265E-03	5.618540E-05
4.707041E+03	2.523928E-03	5.589063E-05
4.716888E+03	2.515179E-03	5.560958E-05
4.726736E+03	2.506202E-03	5.532418E-05
4.736583E+03	2.497432E-03	5.504407E-05
4.746430E+03	2.488884E-03	5.476956E-05
4.756278E+03	2.480984E-03	5.451000E-05
4.766125E+03	2.472922E-03	5.424754E-05
4.775972E+03	2.465122E-03	5.399152E-05
4.785820E+03	2.457594E-03	5.374212E-05
4.795667E+03	2.450348E-03	5.349953E-05
4.805515E+03	2.443391E-03	5.326390E-05
4.815362E+03	2.437133E-03	5.304414E-05
4.825209E+03	2.430773E-03	5.282277E-05
4.835057E+03	2.424720E-03	5.260867E-05
4.844904E+03	2.418978E-03	5.240190E-05
4.854751E+03	2.413549E-03	5.220250E-05
4.864599E+03	2.408434E-03	5.201048E-05
4.874446E+03	2.403636E-03	5.182585E-05
4.884293E+03	2.399549E-03	5.165709E-05
4.894141E+03	2.395380E-03	5.148709E-05
4.903988E+03	2.391523E-03	5.132432E-05
4.913836E+03	2.387977E-03	5.116873E-05
4.923683E+03	2.384738E-03	5.102021E-05
4.933530E+03	2.381801E-03	5.087866E-05
4.943378E+03	2.379162E-03	5.074394E-05
4.953225E+03	2.376814E-03	5.061591E-05
4.963072E+03	2.374753E-03	5.049443E-05
4.972920E+03	2.372969E-03	5.037932E-05
4.982767E+03	2.371455E-03	5.027038E-05
4.992614E+03	2.370203E-03	5.016745E-05
5.002462E+03	2.369203E-03	5.007029E-05
5.012309E+03	2.368447E-03	4.997870E-05
5.022157E+03	2.367923E-03	4.989244E-05
5.032004E+03	2.367620E-03	4.981127E-05
5.041851E+03	2.367527E-03	4.973494E-05
5.051699E+03	2.367632E-03	4.966319E-05
5.061546E+03	2.367922E-03	4.959576E-05
5.071393E+03	2.368384E-03	4.953235E-05
5.081241E+03	2.369006E-03	4.947269E-05
5.091088E+03	2.369771E-03	4.941649E-05
5.100935E+03	2.370667E-03	4.936345E-05
5.110783E+03	2.371288E-03	4.930514E-05
5.120630E+03	2.372401E-03	4.925751E-05
5.130478E+03	2.373599E-03	4.921213E-05
5.140325E+03	2.374868E-03	4.916868E-05
5.150172E+03	2.376191E-03	4.912684E-05
5.160020E+03	2.377554E-03	4.908631E-05
5.169867E+03	2.378941E-03	4.904678E-05
5.179714E+03	2.379944E-03	4.899989E-05
5.189562E+03	2.381332E-03	4.896146E-05
5.199409E+03	2.382698E-03	4.892313E-05
5.209257E+03	2.384027E-03	4.888461E-05
5.219104E+03	2.385304E-03	4.884563E-05
5.228951E+03	2.386124E-03	4.879790E-05
5.238799E+03	2.387258E-03	4.875724E-05
5.248646E+03	2.388301E-03	4.871534E-05
5.258493E+03	2.389241E-03	4.867203E-05
5.268341E+03	2.389674E-03	4.861910E-05
5.278188E+03	2.390376E-03	4.857236E-05
5.288035E+03	2.390946E-03	4.852366E-05
5.297883E+03	2.390982E-03	4.846491E-05
5.307730E+03	2.391266E-03	4.841196E-05
5.317578E+03	2.391397E-03	4.835673E-05
5.327425E+03	2.390980E-03	4.829124E-05
5.337272E+03	2.390797E-03	4.823135E-05
5.347120E+03	2.390453E-03	4.816910E-05
5.356967E+03	2.389556E-03	4.809659E-05
5.366814E+03	2.388889E-03	4.802963E-05
5.376662E+03	2.388057E-03	4.796032E-05
5.386509E+03	2.386670E-03	4.788082E-05
5.396356E+03	2.385508E-03	4.780683E-05
5.406204E+03	2.384178E-03	4.773047E-05
5.416051E+03	2.382287E-03	4.764389E-05
5.425899E+03	2.380618E-03	4.756275E-05
5.435746E+03	2.378389E-03	4.747144E-05
5.445593E+03	2.376380E-03	4.738554E-05
5.455441E+03	2.373811E-03	4.728949E-05
5.465288E+03	2.371462E-03	4.719882E-05
5.475135E+03	2.368552E-03	4.709800E-05
5.484983E+03	2.365858E-03	4.700249E-05
5.494830E+03	2.362993E-03	4.690460E-05
5.504677E+03	2.359571E-03	4.679664E-05
5.514525E+03	2.356368E-03	4.669405E-05
5.524372E+03	2.352616E-03	4.658158E-05
5.534220E+03	2.348706E-03	4.646698E-05
5.544067E+03	2.345028E-03	4.635798E-05
5.553914E+03	2.340821E-03	4.623952E-05
5.563762E+03	2.336860E-03	4.612692E-05
5.573609E+03	2.332388E-03	4.600522E-05
5.583456E+03	2.328179E-03	4.588971E-05
5.593304E+03	2.323482E-03	4.576553E-05
5.603151E+03	2.319069E-03	4.564794E-05
5.612999E+03	2.314190E-03	4.552217E-05
5.622846E+03	2.309239E-03	4.539594E-05
5.632693E+03	2.304606E-03	4.527691E-05
5.642541E+03	2.299547E-03	4.515047E-05
5.652388E+03	2.294829E-03	4.503168E-05
5.662235E+03	2.289711E-03	4.490598E-05
5.672083E+03	2.284583E-03	4.478102E-05
5.681930E+03	2.279831E-03	4.466436E-05
5.691777E+03	2.274719E-03	4.454156E-05
5.701625E+03	2.269633E-03	4.442020E-05
5.711472E+03	2.264956E-03	4.430774E-05
5.721320E+03	2.259956E-03	4.418987E-05
5.731167E+03	2.255017E-03	4.407405E-05
5.741014E+03	2.250147E-03	4.396049E-05
5.750862E+03	2.245724E-03	4.385655E-05
5.760709E+03	2.241023E-03	4.374803E-05
5.770556E+03	2.236419E-03	4.364228E-05
5.780404E+03	2.232287E-03	4.354659E-05
5.790251E+03	2.227903E-03	4.344683E-05
5.800098E+03	2.223639E-03	4.335025E-05
5.809946E+03	2.219503E-03	4.325700E-05
5.819793E+03	2.215499E-03	4.316715E-05
5.829641E+03	2.211993E-03	4.308785E-05
5.839488E+03	2.208268E-03	4.300507E-05
5.849335E+03	2.204687E-03	4.292593E-05
5.859183E+03	2.201254E-03	4.285047E-05
5.869030E+03	2.197971E-03	4.277874E-05
5.878877E+03	2.195198E-03	4.271775E-05
5.888725E+03	2.192218E-03	4.265351E-05
5.898572E+03	2.189389E-03	4.259301E-05
5.908419E+03	2.186711E-03	4.253623E-05
5.918267E+03	2.184182E-03	4.248314E-05
5.928114E+03	2.181800E-03	4.243370E-05
5.937962E+03	2.179918E-03	4.239476E-05
5.947809E+03	2.177819E-03	4.235238E-05
5.957656E+03	2.175854E-03	4.231341E-05
5.967504E+03	2.174020E-03	4.227775E-05
5.977351E+03	2.172308E-03	4.224526E-05
5.987198E+03	2.170714E-03	4.221583E-05
5.997046E+03	2.169228E-03	4.218931E-05
6.006893E+03	2.167844E-03	4.216553E-05
6.016741E+03	2.166552E-03	4.214433E-05
6.026588E+03	2.165342E-03	4.212551E-05
6.036435E+03	2.164205E-03	4.210889E-05
6.046283E+03	2.163129E-03	4.209424E-05
6.056130E+03	2.162102E-03	4.208135E-05
6.065977E+03	2.161113E-03	4.206999E-05
6.075825E+03	2.160149E-03	4.205991E-05
6.085672E+03	2.159197E-03	4.205085E-05
6.095519E+03	2.158243E-03	4.204254E-05
6.105367E+03	2.157272E-03	4.203473E-05
6.115214E+03	2.156271E-03	4.202711E-05
6.125062E+03	2.155224E-03	4.201940E-05
6.134909E+03	2.154117E-03	4.201131E-05
6.144756E+03	2.152932E-03	4.200252E-05
6.154604E+03	2.151654E-03	4.199274E-05
6.164451E+03	2.150268E-03	4.198164E-05
6.174298E+03	2.148758E-03	4.196891E-05
6.184146E+03	2.147106E-03	4.195424E-05
6.193993E+03	2.145298E-03	4.193730E-05
6.203840E+03	2.143316E-03	4.191779E-05
6.213688E+03	2.141146E-03	4.189539E-05
6.223535E+03	2.138772E-03	4.186980E-05
6.233383E+03	2.136179E-03	4.184072E-05
6.243230E+03	2.133351E-03	4.180786E-05
6.253077E+03	2.129928E-03	4.176409E-05
6.262925E+03	2.126592E-03	4.172283E-05
6.272772E+03	2.122983E-03	4.167698E-05
6.282619E+03	2.119089E-03	4.162630E-05
6.292467E+03	2.114899E-03	4.157058E-05
6.302314E+03	2.110403E-03	4.150962E-05
6.312161E+03	2.105594E-03	4.144322E-05
6.322009E+03	2.100120E-03	4.136448E-05
6.331856E+03	2.094665E-03	4.128681E-05
6.341704E+03	2.088877E-03	4.120330E-05
6.351551E+03	2.082755E-03	4.111385E-05
6.361398E+03	2.076294E-03	4.101837E-05
6.371246E+03	2.069157E-03	4.091011E-05
6.381093E+03	2.062019E-03	4.080241E-05
6.390940E+03	2.054542E-03	4.068853E-05
6.400788E+03	2.046724E-03	4.056843E-05
6.410635E+03	2.038568E-03	4.044208E-05
6.420483E+03	2.029742E-03	4.030288E-05
6.430330E+03	2.020915E-03	4.016406E-05
6.440177E+03	2.011759E-03	4.001906E-05
6.450025E+03	2.002281E-03	3.986800E-05
6.459872E+03	1.992164E-03	3.970452E-05
6.469719E+03	1.982072E-03	3.954179E-05
6.479567E+03	1.971688E-03	3.937347E-05
6.489414E+03	1.961021E-03	3.919972E-05
6.499261E+03	1.949764E-03	3.901432E-05
6.509109E+03	1.938568E-03	3.883027E-05
6.518956E+03	1.927124E-03	3.864137E-05
6.528804E+03	1.915131E-03	3.844151E-05
6.538651E+03	1.903232E-03	3.824357E-05
6.548498E+03	1.891125E-03	3.804146E-05
6.558346E+03	1.878517E-03	3.782925E-05
6.568193E+03	1.866042E-03	3.761966E-05
6.578040E+03	1.853408E-03	3.740677E-05
6.587888E+03	1.840328E-03	3.718478E-05
6.597735E+03	1.827426E-03	3.696625E-05
6.607582E+03	1.814415E-03	3.674537E-05
6.617430E+03	1.801021E-03	3.651652E-05
6.627277E+03	1.787851E-03	3.629201E-05
6.637125E+03	1.774628E-03	3.606620E-05
6.646972E+03	1.761081E-03	3.583355E-05
6.656819E+03	1.747808E-03	3.560621E-05
6.666667E+03	1.734536E-03	3.537859E-05
6.676514E+03	1.721001E-03	3.514530E-05
6.686361E+03	1.707784E-03	3.491820E-05
6.696209E+03	1.694344E-03	3.468616E-05
6.706056E+03	1.681251E-03	3.446092E-05
6.715903E+03	1.667971E-03	3.423144E-05
6.725751E+03	1.655066E-03	3.400932E-05
6.735598E+03	1.642277E-03	3.378918E-05
6.745446E+03	1.629350E-03	3.356581E-05
6.755293E+03	1.616836E-03	3.335055E-05
6.765140E+03	1.604214E-03	3.313269E-05
6.774988E+03	1.592028E-03	3.292338E-05
6.784835E+03	1.579763E-03	3.271204E-05
6.794682E+03	1.567951E-03	3.250967E-05
6.804530E+03	1.556087E-03	3.230580E-05
6.814377E+03	1.544692E-03	3.211127E-05
6.824225E+03	1.533269E-03	3.191571E-05
6.834072E+03	1.522331E-03	3.172984E-05
6.843919E+03	1.511632E-03	3.154854E-05
6.853767E+03	1.500934E-03	3.136687E-05
6.863614E+03	1.490494E-03	3.119018E-05
6.873461E+03	1.480562E-03	3.102370E-05
6.883309E+03	1.470656E-03	3.085737E-05
6.893156E+03	1.461266E-03	3.070149E-05
6.903003E+03	1.451916E-03	3.054607E-05
6.912851E+03	1.443089E-03	3.040127E-05
6.922698E+03	1.434313E-03	3.025720E-05
6.932546E+03	1.426066E-03	3.012391E-05
6.942393E+03	1.417881E-03	2.999160E-05
6.952240E+03	1.410229E-03	2.987020E-05
6.962088E+03	1.402646E-03	2.974996E-05
6.971935E+03	1.395598E-03	2.964075E-05
6.981782E+03	1.388628E-03	2.953288E-05
6.991630E+03	1.381966E-03	2.943128E-05
7.001477E+03	1.375841E-03	2.934083E-05
7.011324E+03	1.369801E-03	2.925192E-05
7.021172E+03	1.364298E-03	2.917423E-05
7.031019E+03	1.358883E-03	2.909817E-05
7.040867E+03	1.353782E-03	2.902860E-05
7.050714E+03	1.349216E-03	2.897030E-05
7.060561E+03	1.344742E-03	2.891376E-05
7.070409E+03	1.340801E-03	2.886851E-05
7.080256E+03	1.336953E-03	2.882509E-05
7.090103E+03	1.333417E-03	2.878823E-05
7.099951E+03	1.330412E-03	2.876268E-05
7.109798E+03	1.327499E-03	2.873900E-05
7.119645E+03	1.324895E-03	2.872189E-05
7.129493E+03	1.322817E-03	2.871609E-05
7.139340E+03	1.320828E-03	2.871213E-05
7.149188E+03	1.319145E-03	2.871475E-05
7.159035E+03	1.317982E-03	2.872863E-05
7.168882E+03	1.316904E-03	2.874433E-05
7.178730E+03	1.316125E-03	2.876653E-05
7.188577E+03	1.315861E-03	2.879996E-05
7.198424E+03	1.315675E-03	2.883511E-05
7.208272E+03	1.315781E-03	2.887668E-05
7.218119E+03	1.316176E-03	2.892464E-05
7.227967E+03	1.317074E-03	2.898369E-05
7.237814E+03	1.318040E-03	2.904429E-05
7.247661E+03	1.319285E-03	2.911113E-05
7.257509E+03	1.321024E-03	2.918896E-05
7.267356E+03	1.322818E-03	2.926812E-05
7.277203E+03	1.324881E-03	2.935334E-05
7.287051E+03	1.327208E-03	2.944453E-05
7.296898E+03	1.330013E-03	2.954650E-05
7.306745E+03	1.332855E-03	2.964942E-05
7.316593E+03	1.335945E-03	2.975806E-05
7.326440E+03	1.339279E-03	2.987231E-05
7.336288E+03	1.342851E-03	2.999207E-05
7.346135E+03	1.346878E-03	3.012219E-05
7.355982E+03	1.350908E-03	3.025260E-05
7.365830E+03	1.355155E-03	3.038813E-05
7.375677E+03	1.359614E-03	3.052864E-05
7.385524E+03	1.364501E-03	3.067902E-05
7.395372E+03	1.369358E-03	3.082899E-05
7.405219E+03	1.374401E-03	3.098343E-05
7.415066E+03	1.379621E-03	3.114214E-05
7.424914E+03	1.385007E-03	3.130490E-05
7.434761E+03	1.390551E-03	3.147151E-05
7.444609E+03	1.396470E-03	3.164694E-05
7.454456E+03	1.402294E-03	3.182053E-05
7.464303E+03	1.408241E-03	3.199723E-05
7.474151E+03	1.414297E-03	3.217673E-05
7.483998E+03	1.420450E-03	3.235877E-05
7.493845E+03	1.426685E-03	3.254301E-05
7.503693E+03	1.432988E-03	3.272916E-05
7.513540E+03	1.439583E-03	3.292229E-05
7.523387E+03	1.445977E-03	3.311121E-05
7.533235E+03	1.452393E-03	3.330094E-05
7.543082E+03	1.458811E-03	3.349109E-05
7.552930E+03	1.465216E-03	3.368125E-05
7.562777E+03	1.471587E-03	3.387099E-05
7.572624E+03	1.477907E-03	3.405988E-05
7.582472E+03	1.484156E-03	3.424746E-05
7.592319E+03	1.490312E-03	3.443324E-05
7.602166E+03	1.496356E-03	3.461673E-05
7.612014E+03	1.502515E-03	3.480320E-05
7.621861E+03	1.508271E-03	3.498063E-05
7.631709E+03	1.513848E-03	3.515423E-05
7.641556E+03	1.519225E-03	3.532344E-05
