#wls	flux	fluxerr
1.600000E+03	2.441114E-18	8.479466E-19
1.640000E+03	2.467187E-18	8.540548E-19
1.680000E+03	2.495028E-18	8.606410E-19
1.720000E+03	2.525734E-18	8.680715E-19
1.760000E+03	2.558414E-18	8.760261E-19
1.800000E+03	2.593166E-18	8.845266E-19
1.840000E+03	2.631103E-18	8.939386E-19
1.880000E+03	2.671324E-18	9.039388E-19
1.920000E+03	2.713931E-18	9.145474E-19
1.960000E+03	2.760067E-18	9.261316E-19
2.000000E+03	2.809867E-18	9.387156E-19
2.040000E+03	2.862418E-18	9.519731E-19
2.080000E+03	2.917845E-18	9.659257E-19
2.120000E+03	2.977360E-18	9.809521E-19
2.160000E+03	3.040051E-18	9.967261E-19
2.200000E+03	3.107188E-18	1.013638E-18
2.240000E+03	3.177872E-18	1.031365E-18
2.280000E+03	3.253442E-18	1.050311E-18
2.320000E+03	3.333026E-18	1.070161E-18
2.360000E+03	3.418061E-18	1.091342E-18
2.400000E+03	3.508908E-18	1.113927E-18
2.440000E+03	3.603558E-18	1.137236E-18
2.480000E+03	3.706057E-18	1.162505E-18
2.520000E+03	3.814498E-18	1.189078E-18
2.560000E+03	3.929431E-18	1.217075E-18
2.600000E+03	4.052801E-18	1.247040E-18
2.640000E+03	4.185431E-18	1.279153E-18
2.680000E+03	4.326898E-18	1.313210E-18
2.720000E+03	4.479604E-18	1.349855E-18
2.760000E+03	4.643371E-18	1.388939E-18
2.800000E+03	4.821019E-18	1.431203E-18
2.840000E+03	5.012708E-18	1.476569E-18
2.880000E+03	5.221812E-18	1.525900E-18
2.920000E+03	5.450573E-18	1.579688E-18
2.960000E+03	5.699916E-18	1.638022E-18
3.000000E+03	5.974405E-18	1.702013E-18
3.010000E+03	6.046640E-18	1.718777E-18
3.020000E+03	6.122367E-18	1.736422E-18
3.030000E+03	6.198116E-18	1.753958E-18
3.040000E+03	6.277512E-18	1.772408E-18
3.050000E+03	6.357016E-18	1.790767E-18
3.060000E+03	6.440333E-18	1.810075E-18
3.070000E+03	6.523858E-18	1.829313E-18
3.080000E+03	6.611367E-18	1.849537E-18
3.090000E+03	6.699182E-18	1.869711E-18
3.100000E+03	6.791170E-18	1.890910E-18
3.110000E+03	6.885526E-18	1.912624E-18
3.120000E+03	6.980365E-18	1.934325E-18
3.130000E+03	7.079679E-18	1.957114E-18
3.140000E+03	7.181610E-18	1.980469E-18
3.150000E+03	7.286248E-18	2.004409E-18
3.160000E+03	7.393686E-18	2.028952E-18
3.170000E+03	7.504025E-18	2.054120E-18
3.180000E+03	7.617355E-18	2.079930E-18
3.190000E+03	7.733785E-18	2.106403E-18
3.200000E+03	7.853424E-18	2.133564E-18
3.210000E+03	7.976374E-18	2.161430E-18
3.220000E+03	8.102752E-18	2.190025E-18
3.230000E+03	8.232675E-18	2.219373E-18
3.240000E+03	8.366262E-18	2.249497E-18
3.250000E+03	8.503638E-18	2.280422E-18
3.260000E+03	8.647276E-18	2.312798E-18
3.270000E+03	8.792649E-18	2.345404E-18
3.280000E+03	8.942207E-18	2.378887E-18
3.290000E+03	9.098532E-18	2.413920E-18
3.300000E+03	9.256916E-18	2.449242E-18
3.310000E+03	9.422430E-18	2.486185E-18
3.320000E+03	9.590226E-18	2.523456E-18
3.330000E+03	9.765537E-18	2.562422E-18
3.340000E+03	9.943369E-18	2.601756E-18
3.350000E+03	1.012912E-17	2.642860E-18
3.360000E+03	1.032036E-17	2.685083E-18
3.370000E+03	1.051449E-17	2.727737E-18
3.380000E+03	1.071717E-17	2.772277E-18
3.390000E+03	1.092587E-17	2.818025E-18
3.400000E+03	1.114074E-17	2.865012E-18
3.410000E+03	1.135905E-17	2.912513E-18
3.420000E+03	1.158680E-17	2.962058E-18
3.430000E+03	1.182129E-17	3.012933E-18
3.440000E+03	1.206270E-17	3.065165E-18
3.450000E+03	1.231122E-17	3.118785E-18
3.460000E+03	1.256704E-17	3.173819E-18
3.470000E+03	1.283034E-17	3.230296E-18
3.480000E+03	1.310130E-17	3.288239E-18
3.490000E+03	1.338011E-17	3.347674E-18
3.500000E+03	1.367040E-17	3.409488E-18
3.510000E+03	1.396550E-17	3.471988E-18
3.520000E+03	1.426897E-17	3.536045E-18
3.530000E+03	1.458096E-17	3.601673E-18
3.540000E+03	1.490538E-17	3.669808E-18
3.550000E+03	1.523497E-17	3.738638E-18
3.560000E+03	1.557354E-17	3.809076E-18
3.570000E+03	1.592517E-17	3.882091E-18
3.580000E+03	1.628212E-17	3.955772E-18
3.590000E+03	1.665250E-17	4.032060E-18
3.600000E+03	1.702825E-17	4.108975E-18
3.610000E+03	1.741772E-17	4.188509E-18
3.620000E+03	1.781250E-17	4.268608E-18
3.630000E+03	1.822126E-17	4.351322E-18
3.640000E+03	1.863517E-17	4.434513E-18
3.650000E+03	1.906321E-17	4.520293E-18
3.660000E+03	1.950087E-17	4.607555E-18
3.670000E+03	1.994807E-17	4.696254E-18
3.680000E+03	2.039982E-17	4.785185E-18
3.690000E+03	2.086569E-17	4.876571E-18
3.700000E+03	2.134069E-17	4.969210E-18
3.710000E+03	2.182462E-17	5.063028E-18
3.720000E+03	2.231725E-17	5.157940E-18
3.730000E+03	2.281831E-17	5.253856E-18
3.740000E+03	2.332747E-17	5.350677E-18
3.750000E+03	2.384441E-17	5.448297E-18
3.760000E+03	2.436871E-17	5.546602E-18
3.770000E+03	2.489999E-17	5.645473E-18
3.780000E+03	2.543775E-17	5.744780E-18
3.790000E+03	2.598154E-17	5.844392E-18
3.800000E+03	2.653080E-17	5.944168E-18
3.810000E+03	2.708499E-17	6.043962E-18
3.820000E+03	2.764991E-17	6.145045E-18
3.830000E+03	2.821225E-17	6.244440E-18
3.840000E+03	2.877768E-17	6.343391E-18
3.850000E+03	2.935224E-17	6.443215E-18
3.860000E+03	2.992190E-17	6.540813E-18
3.870000E+03	3.049261E-17	6.637485E-18
3.880000E+03	3.107072E-17	6.734601E-18
3.890000E+03	3.164151E-17	6.828956E-18
3.900000E+03	3.221125E-17	6.921912E-18
3.910000E+03	3.278664E-17	7.014902E-18
3.920000E+03	3.335235E-17	7.104635E-18
3.930000E+03	3.392262E-17	7.194155E-18
3.940000E+03	3.448177E-17	7.280128E-18
3.950000E+03	3.504452E-17	7.365680E-18
3.960000E+03	3.560277E-17	7.449097E-18
3.970000E+03	3.614804E-17	7.528620E-18
3.980000E+03	3.669588E-17	7.607505E-18
3.990000E+03	3.722984E-17	7.682344E-18
4.000000E+03	3.776601E-17	7.756476E-18
4.010000E+03	3.829613E-17	7.828202E-18
4.020000E+03	3.882014E-17	7.897521E-18
4.030000E+03	3.932951E-17	7.962717E-18
4.040000E+03	3.984144E-17	8.027297E-18
4.050000E+03	4.034770E-17	8.089597E-18
4.060000E+03	4.084865E-17	8.149698E-18
4.070000E+03	4.134476E-17	8.207708E-18
4.080000E+03	4.182763E-17	8.261975E-18
4.090000E+03	4.231587E-17	8.316191E-18
4.100000E+03	4.280137E-17	8.368751E-18
4.110000E+03	4.328506E-17	8.419838E-18
4.120000E+03	4.376797E-17	8.469652E-18
4.130000E+03	4.425122E-17	8.518409E-18
4.140000E+03	4.473605E-17	8.566339E-18
4.150000E+03	4.522379E-17	8.613685E-18
4.160000E+03	4.571583E-17	8.660700E-18
4.170000E+03	4.621366E-17	8.707646E-18
4.180000E+03	4.671886E-17	8.754793E-18
4.190000E+03	4.723304E-17	8.802419E-18
4.200000E+03	4.775789E-17	8.850803E-18
4.210000E+03	4.829514E-17	8.900227E-18
4.220000E+03	4.884657E-17	8.950971E-18
4.230000E+03	4.941398E-17	9.003316E-18
4.240000E+03	4.999922E-17	9.057541E-18
4.250000E+03	5.060413E-17	9.113920E-18
4.260000E+03	5.123059E-17	9.172717E-18
4.270000E+03	5.189106E-17	9.236081E-18
4.280000E+03	5.256635E-17	9.300499E-18
4.290000E+03	5.326879E-17	9.368091E-18
4.300000E+03	5.400024E-17	9.439087E-18
4.310000E+03	5.476254E-17	9.513709E-18
4.320000E+03	5.555749E-17	9.592161E-18
4.330000E+03	5.639820E-17	9.676583E-18
4.340000E+03	5.726387E-17	9.763275E-18
4.350000E+03	5.816741E-17	9.854332E-18
4.360000E+03	5.911046E-17	9.949902E-18
4.370000E+03	6.009459E-17	1.005011E-17
4.380000E+03	6.113345E-17	1.015709E-17
4.390000E+03	6.220443E-17	1.026692E-17
4.400000E+03	6.332084E-17	1.038166E-17
4.410000E+03	6.448395E-17	1.050137E-17
4.420000E+03	6.569495E-17	1.062607E-17
4.430000E+03	6.696801E-17	1.075788E-17
4.440000E+03	6.827809E-17	1.089257E-17
4.450000E+03	6.963887E-17	1.103221E-17
4.460000E+03	7.105109E-17	1.117670E-17
4.470000E+03	7.252927E-17	1.132815E-17
4.480000E+03	7.404596E-17	1.148207E-17
4.490000E+03	7.561511E-17	1.164046E-17
4.500000E+03	7.723678E-17	1.180314E-17
4.510000E+03	7.891085E-17	1.196992E-17
4.520000E+03	8.065226E-17	1.214285E-17
4.530000E+03	8.243010E-17	1.231707E-17
4.540000E+03	8.425865E-17	1.249457E-17
4.550000E+03	8.613712E-17	1.267505E-17
4.560000E+03	8.806428E-17	1.285815E-17
4.570000E+03	9.005609E-17	1.304600E-17
4.580000E+03	9.207735E-17	1.323331E-17
4.590000E+03	9.414328E-17	1.342215E-17
4.600000E+03	9.625203E-17	1.361208E-17
4.610000E+03	9.840201E-17	1.380273E-17
4.620000E+03	1.005912E-16	1.399366E-17
4.630000E+03	1.028177E-16	1.418447E-17
4.640000E+03	1.050793E-16	1.437471E-17
4.650000E+03	1.073940E-16	1.456670E-17
4.660000E+03	1.097203E-16	1.475466E-17
4.670000E+03	1.120753E-16	1.494083E-17
4.680000E+03	1.144570E-16	1.512484E-17
4.690000E+03	1.168633E-16	1.530631E-17
4.700000E+03	1.192920E-16	1.548487E-17
4.710000E+03	1.217411E-16	1.566016E-17
4.720000E+03	1.242084E-16	1.583184E-17
4.730000E+03	1.266920E-16	1.599961E-17
4.740000E+03	1.291897E-16	1.616312E-17
4.750000E+03	1.316998E-16	1.632212E-17
4.760000E+03	1.342201E-16	1.647629E-17
4.770000E+03	1.367242E-16	1.662238E-17
4.780000E+03	1.392590E-16	1.676611E-17
4.790000E+03	1.417983E-16	1.690426E-17
4.800000E+03	1.443404E-16	1.703658E-17
4.810000E+03	1.468831E-16	1.716284E-17
4.820000E+03	1.494247E-16	1.728284E-17
4.830000E+03	1.519361E-16	1.739327E-17
4.840000E+03	1.544691E-16	1.750011E-17
4.850000E+03	1.569952E-16	1.760008E-17
4.860000E+03	1.594842E-16	1.768991E-17
4.870000E+03	1.619902E-16	1.777565E-17
4.880000E+03	1.644837E-16	1.785406E-17
4.890000E+03	1.669335E-16	1.792187E-17
4.900000E+03	1.693962E-16	1.798526E-17
4.910000E+03	1.718113E-16	1.803783E-17
4.920000E+03	1.742370E-16	1.808586E-17
4.930000E+03	1.766116E-16	1.812297E-17
4.940000E+03	1.789952E-16	1.815548E-17
4.950000E+03	1.813251E-16	1.817710E-17
4.960000E+03	1.836313E-16	1.819103E-17
4.970000E+03	1.859454E-16	1.820049E-17
4.980000E+03	1.882034E-16	1.819930E-17
4.990000E+03	1.904373E-16	1.819074E-17
5.000000E+03	1.926801E-16	1.817807E-17
5.010000E+03	1.948670E-16	1.815526E-17
5.020000E+03	1.970312E-16	1.812562E-17
5.030000E+03	1.991740E-16	1.808939E-17
5.040000E+03	2.012966E-16	1.804681E-17
5.050000E+03	2.034002E-16	1.799812E-17
5.060000E+03	2.054867E-16	1.794361E-17
5.070000E+03	2.075575E-16	1.788354E-17
5.080000E+03	2.096146E-16	1.781819E-17
5.090000E+03	2.116595E-16	1.774782E-17
5.100000E+03	2.136941E-16	1.767269E-17
5.110000E+03	2.156839E-16	1.759013E-17
5.120000E+03	2.177024E-16	1.750627E-17
5.130000E+03	2.197151E-16	1.741838E-17
5.140000E+03	2.216863E-16	1.732379E-17
5.150000E+03	2.236905E-16	1.722848E-17
5.160000E+03	2.256916E-16	1.712970E-17
5.170000E+03	2.276523E-16	1.702480E-17
5.180000E+03	2.296476E-16	1.691955E-17
5.190000E+03	2.316019E-16	1.680849E-17
5.200000E+03	2.335519E-16	1.669450E-17
5.210000E+03	2.355354E-16	1.658041E-17
5.220000E+03	2.374741E-16	1.646083E-17
5.230000E+03	2.394048E-16	1.633858E-17
5.240000E+03	2.413256E-16	1.621372E-17
5.250000E+03	2.432344E-16	1.608632E-17
5.260000E+03	2.451290E-16	1.595646E-17
5.270000E+03	2.470068E-16	1.582421E-17
5.280000E+03	2.488655E-16	1.568969E-17
5.290000E+03	2.507020E-16	1.555298E-17
5.300000E+03	2.525139E-16	1.541421E-17
5.310000E+03	2.542984E-16	1.527354E-17
5.320000E+03	2.560527E-16	1.513113E-17
5.330000E+03	2.577328E-16	1.498477E-17
5.340000E+03	2.594189E-16	1.483950E-17
5.350000E+03	2.610255E-16	1.469081E-17
5.360000E+03	2.626337E-16	1.454366E-17
5.370000E+03	2.641577E-16	1.439371E-17
5.380000E+03	2.656801E-16	1.424590E-17
5.390000E+03	2.671145E-16	1.409599E-17
5.400000E+03	2.685019E-16	1.394669E-17
5.410000E+03	2.698416E-16	1.379840E-17
5.420000E+03	2.711330E-16	1.365155E-17
5.430000E+03	2.723757E-16	1.350660E-17
5.440000E+03	2.735700E-16	1.336403E-17
5.450000E+03	2.747161E-16	1.322432E-17
5.460000E+03	2.758146E-16	1.308796E-17
5.470000E+03	2.768657E-16	1.295545E-17
5.480000E+03	2.778689E-16	1.282720E-17
5.490000E+03	2.787799E-16	1.270168E-17
5.500000E+03	2.796876E-16	1.258339E-17
5.510000E+03	2.805545E-16	1.247103E-17
5.520000E+03	2.813440E-16	1.236340E-17
5.530000E+03	2.821072E-16	1.226316E-17
5.540000E+03	2.828948E-16	1.217285E-17
5.550000E+03	2.836255E-16	1.208926E-17
5.560000E+03	2.843501E-16	1.201489E-17
5.570000E+03	2.850760E-16	1.195029E-17
5.580000E+03	2.858106E-16	1.189580E-17
5.590000E+03	2.865621E-16	1.185157E-17
5.600000E+03	2.873395E-16	1.181771E-17
5.610000E+03	2.881516E-16	1.179430E-17
5.620000E+03	2.890079E-16	1.178142E-17
5.630000E+03	2.898740E-16	1.177737E-17
5.640000E+03	2.908484E-16	1.178580E-17
5.650000E+03	2.918968E-16	1.180496E-17
5.660000E+03	2.929843E-16	1.183310E-17
5.670000E+03	2.941651E-16	1.187204E-17
5.680000E+03	2.954938E-16	1.192363E-17
5.690000E+03	2.968890E-16	1.198424E-17
5.700000E+03	2.984041E-16	1.205567E-17
5.710000E+03	3.000464E-16	1.213787E-17
5.720000E+03	3.018229E-16	1.223081E-17
5.730000E+03	3.037390E-16	1.233439E-17
5.740000E+03	3.057994E-16	1.244849E-17
5.750000E+03	3.080070E-16	1.257295E-17
5.760000E+03	3.103169E-16	1.270566E-17
5.770000E+03	3.128228E-16	1.285018E-17
5.780000E+03	3.154291E-16	1.300235E-17
5.790000E+03	3.182278E-16	1.316570E-17
5.800000E+03	3.211186E-16	1.333586E-17
5.810000E+03	3.241914E-16	1.351633E-17
5.820000E+03	3.273409E-16	1.370252E-17
5.830000E+03	3.306057E-16	1.389580E-17
5.840000E+03	3.339746E-16	1.409549E-17
5.850000E+03	3.374351E-16	1.430084E-17
5.860000E+03	3.409732E-16	1.451107E-17
5.870000E+03	3.445743E-16	1.472532E-17
5.880000E+03	3.481709E-16	1.494049E-17
5.890000E+03	3.518507E-16	1.516013E-17
5.900000E+03	3.555464E-16	1.538112E-17
5.910000E+03	3.591890E-16	1.560026E-17
5.920000E+03	3.628160E-16	1.581893E-17
5.930000E+03	3.664673E-16	1.603867E-17
5.940000E+03	3.700218E-16	1.625398E-17
5.950000E+03	3.735219E-16	1.646647E-17
5.960000E+03	3.769576E-16	1.667551E-17
5.970000E+03	3.803207E-16	1.688053E-17
5.980000E+03	3.836050E-16	1.708107E-17
5.990000E+03	3.868060E-16	1.727673E-17
6.000000E+03	3.899208E-16	1.746722E-17
6.010000E+03	3.928908E-16	1.764975E-17
6.020000E+03	3.958322E-16	1.782937E-17
6.030000E+03	3.986304E-16	1.800081E-17
6.040000E+03	4.014058E-16	1.816938E-17
6.050000E+03	4.040443E-16	1.832980E-17
6.060000E+03	4.066092E-16	1.848486E-17
6.070000E+03	4.091051E-16	1.863468E-17
6.080000E+03	4.115366E-16	1.877943E-17
6.090000E+03	4.139081E-16	1.891924E-17
6.100000E+03	4.162232E-16	1.905425E-17
6.110000E+03	4.184852E-16	1.918460E-17
6.120000E+03	4.206347E-16	1.930756E-17
6.130000E+03	4.227960E-16	1.942883E-17
6.140000E+03	4.248465E-16	1.954280E-17
6.150000E+03	4.269095E-16	1.965518E-17
6.160000E+03	4.288601E-16	1.976026E-17
6.170000E+03	4.307589E-16	1.986088E-17
6.180000E+03	4.326672E-16	1.995994E-17
6.190000E+03	4.344577E-16	2.005166E-17
6.200000E+03	4.361916E-16	2.013894E-17
6.210000E+03	4.378676E-16	2.022182E-17
6.220000E+03	4.394213E-16	2.029745E-17
6.230000E+03	4.409796E-16	2.037182E-17
6.240000E+03	4.424795E-16	2.044214E-17
6.250000E+03	4.438574E-16	2.050564E-17
6.260000E+03	4.452435E-16	2.056848E-17
6.270000E+03	4.465110E-16	2.062496E-17
6.280000E+03	4.477271E-16	2.067838E-17
6.290000E+03	4.488950E-16	2.072907E-17
6.300000E+03	4.500184E-16	2.077738E-17
6.310000E+03	4.511010E-16	2.082370E-17
6.320000E+03	4.521476E-16	2.086845E-17
6.330000E+03	4.531619E-16	2.091202E-17
6.340000E+03	4.541485E-16	2.095484E-17
6.350000E+03	4.551108E-16	2.099730E-17
6.360000E+03	4.559865E-16	2.103675E-17
6.370000E+03	4.569094E-16	2.107960E-17
6.380000E+03	4.577488E-16	2.112007E-17
6.390000E+03	4.585702E-16	2.116142E-17
6.400000E+03	4.593716E-16	2.120379E-17
6.410000E+03	4.602152E-16	2.125032E-17
6.420000E+03	4.609614E-16	2.129479E-17
6.430000E+03	4.616672E-16	2.134010E-17
6.440000E+03	4.622541E-16	2.138284E-17
6.450000E+03	4.628397E-16	2.142870E-17
6.460000E+03	4.633390E-16	2.147397E-17
6.470000E+03	4.636640E-16	2.151479E-17
6.480000E+03	4.639236E-16	2.155624E-17
6.490000E+03	4.639582E-16	2.159067E-17
6.500000E+03	4.638732E-16	2.162271E-17
6.510000E+03	4.635057E-16	2.164451E-17
6.520000E+03	4.628926E-16	2.165748E-17
6.530000E+03	4.620052E-16	2.165993E-17
6.540000E+03	4.608206E-16	2.165048E-17
6.550000E+03	4.593231E-16	2.162802E-17
6.560000E+03	4.575013E-16	2.159166E-17
6.570000E+03	4.552809E-16	2.153751E-17
6.580000E+03	4.527859E-16	2.147107E-17
6.590000E+03	4.499467E-16	2.138867E-17
6.600000E+03	4.466985E-16	2.128685E-17
6.610000E+03	4.431098E-16	2.116848E-17
6.620000E+03	4.392512E-16	2.103660E-17
6.630000E+03	4.350078E-16	2.088535E-17
6.640000E+03	4.304590E-16	2.071821E-17
6.650000E+03	4.256247E-16	2.053582E-17
6.660000E+03	4.205284E-16	2.033902E-17
6.670000E+03	4.151971E-16	2.012885E-17
6.680000E+03	4.096011E-16	1.990364E-17
6.690000E+03	4.038907E-16	1.967045E-17
6.700000E+03	3.980392E-16	1.942782E-17
6.710000E+03	3.920241E-16	1.917449E-17
6.720000E+03	3.859928E-16	1.891753E-17
6.730000E+03	3.798671E-16	1.865302E-17
6.740000E+03	3.737358E-16	1.838523E-17
6.750000E+03	3.676299E-16	1.811564E-17
6.760000E+03	3.615780E-16	1.784561E-17
6.770000E+03	3.556072E-16	1.757648E-17
6.780000E+03	3.497411E-16	1.730941E-17
6.790000E+03	3.440015E-16	1.704550E-17
6.800000E+03	3.384068E-16	1.678569E-17
6.810000E+03	3.329727E-16	1.653079E-17
6.820000E+03	3.276651E-16	1.627916E-17
6.830000E+03	3.225894E-16	1.603607E-17
6.840000E+03	3.176599E-16	1.579731E-17
6.850000E+03	3.129291E-16	1.556555E-17
6.860000E+03	3.084446E-16	1.534319E-17
6.870000E+03	3.041184E-16	1.512591E-17
6.880000E+03	2.999949E-16	1.491596E-17
6.890000E+03	2.960722E-16	1.471330E-17
6.900000E+03	2.923470E-16	1.451778E-17
6.910000E+03	2.888147E-16	1.432923E-17
6.920000E+03	2.854287E-16	1.414535E-17
6.930000E+03	2.822658E-16	1.396997E-17
6.940000E+03	2.792775E-16	1.380072E-17
6.950000E+03	2.764165E-16	1.363528E-17
6.960000E+03	2.737554E-16	1.347724E-17
6.970000E+03	2.712070E-16	1.332232E-17
6.980000E+03	2.688034E-16	1.317211E-17
6.990000E+03	2.665751E-16	1.302812E-17
7.000000E+03	2.644371E-16	1.288617E-17
7.010000E+03	2.624205E-16	1.274782E-17
7.020000E+03	2.605182E-16	1.261271E-17
7.030000E+03	2.587230E-16	1.248050E-17
7.040000E+03	2.569911E-16	1.234910E-17
7.050000E+03	2.553909E-16	1.222180E-17
7.060000E+03	2.538790E-16	1.209652E-17
7.070000E+03	2.524133E-16	1.197128E-17
7.080000E+03	2.510622E-16	1.184933E-17
7.090000E+03	2.497476E-16	1.172701E-17
7.100000E+03	2.485379E-16	1.160755E-17
7.110000E+03	2.473565E-16	1.148739E-17
7.120000E+03	2.462356E-16	1.136807E-17
7.130000E+03	2.452072E-16	1.125108E-17
7.140000E+03	2.441960E-16	1.113301E-17
7.150000E+03	2.432341E-16	1.101537E-17
7.160000E+03	2.423179E-16	1.089806E-17
7.170000E+03	2.414084E-16	1.077938E-17
7.180000E+03	2.405725E-16	1.066239E-17
7.190000E+03	2.397710E-16	1.054539E-17
7.200000E+03	2.389997E-16	1.042830E-17
7.210000E+03	2.382198E-16	1.030951E-17
7.220000E+03	2.374969E-16	1.019196E-17
7.230000E+03	2.367571E-16	1.007259E-17
7.240000E+03	2.360310E-16	9.952848E-18
7.250000E+03	2.353493E-16	9.834131E-18
7.260000E+03	2.346388E-16	9.713524E-18
7.270000E+03	2.339305E-16	9.592493E-18
7.280000E+03	2.332214E-16	9.471080E-18
7.290000E+03	2.325088E-16	9.349359E-18
7.300000E+03	2.317908E-16	9.227450E-18
7.310000E+03	2.310661E-16	9.105506E-18
7.320000E+03	2.303345E-16	8.983737E-18
7.330000E+03	2.295967E-16	8.862397E-18
7.340000E+03	2.288204E-16	8.740488E-18
7.350000E+03	2.280764E-16	8.620968E-18
7.360000E+03	2.273007E-16	8.501662E-18
7.370000E+03	2.265660E-16	8.385550E-18
7.380000E+03	2.258113E-16	8.270622E-18
7.390000E+03	2.251107E-16	8.159866E-18
7.400000E+03	2.244057E-16	8.051411E-18
7.410000E+03	2.237391E-16	7.947077E-18
7.420000E+03	2.231208E-16	7.847479E-18
7.430000E+03	2.225616E-16	7.753258E-18
7.440000E+03	2.220725E-16	7.665060E-18
7.450000E+03	2.216651E-16	7.583544E-18
7.460000E+03	2.213509E-16	7.509364E-18
7.470000E+03	2.211408E-16	7.443159E-18
7.480000E+03	2.210453E-16	7.385543E-18
7.490000E+03	2.210731E-16	7.337084E-18
7.500000E+03	2.211982E-16	7.297201E-18
7.510000E+03	2.214921E-16	7.268552E-18
7.520000E+03	2.218955E-16	7.249474E-18
7.530000E+03	2.224839E-16	7.242742E-18
7.540000E+03	2.231985E-16	7.246609E-18
7.550000E+03	2.241117E-16	7.263410E-18
7.560000E+03	2.251598E-16	7.291038E-18
7.570000E+03	2.263776E-16	7.330607E-18
7.580000E+03	2.277652E-16	7.382102E-18
7.590000E+03	2.293562E-16	7.446613E-18
7.600000E+03	2.310791E-16	7.521835E-18
7.610000E+03	2.329648E-16	7.608790E-18
7.620000E+03	2.350087E-16	7.707368E-18
7.630000E+03	2.372054E-16	7.817436E-18
7.640000E+03	2.395119E-16	7.937627E-18
7.650000E+03	2.419929E-16	8.070149E-18
7.660000E+03	2.446041E-16	8.213611E-18
7.670000E+03	2.473359E-16	8.367775E-18
7.680000E+03	2.501400E-16	8.531080E-18
7.690000E+03	2.530812E-16	8.705821E-18
7.700000E+03	2.560707E-16	8.889042E-18
7.710000E+03	2.591741E-16	9.083098E-18
7.720000E+03	2.622994E-16	9.284868E-18
7.730000E+03	2.655134E-16	9.496785E-18
7.740000E+03	2.687212E-16	9.715552E-18
7.750000E+03	2.719492E-16	9.942161E-18
7.760000E+03	2.751837E-16	1.017617E-17
