#wls	flux	fluxerr
1.600000E+03	2.055160E-18	7.578482E-19
1.640000E+03	2.075420E-18	7.627210E-19
1.680000E+03	2.097054E-18	7.679848E-19
1.720000E+03	2.121043E-18	7.739891E-19
1.760000E+03	2.145658E-18	7.800925E-19
1.800000E+03	2.172790E-18	7.869742E-19
1.840000E+03	2.202537E-18	7.946549E-19
1.880000E+03	2.233147E-18	8.024899E-19
1.920000E+03	2.266554E-18	8.111635E-19
1.960000E+03	2.301929E-18	8.203631E-19
2.000000E+03	2.340321E-18	8.304469E-19
2.040000E+03	2.380899E-18	8.411021E-19
2.080000E+03	2.423778E-18	8.523528E-19
2.120000E+03	2.469079E-18	8.642242E-19
2.160000E+03	2.517932E-18	8.770913E-19
2.200000E+03	2.569516E-18	8.906449E-19
2.240000E+03	2.623999E-18	9.049215E-19
2.280000E+03	2.681571E-18	9.199624E-19
2.320000E+03	2.743496E-18	9.361738E-19
2.360000E+03	2.808995E-18	9.532589E-19
2.400000E+03	2.879433E-18	9.716475E-19
2.440000E+03	2.954075E-18	9.910550E-19
2.480000E+03	3.033286E-18	1.011566E-18
2.520000E+03	3.117481E-18	1.033279E-18
2.560000E+03	3.208304E-18	1.056693E-18
2.600000E+03	3.305178E-18	1.081563E-18
2.640000E+03	3.408729E-18	1.108038E-18
2.680000E+03	3.520928E-18	1.136695E-18
2.720000E+03	3.641406E-18	1.167340E-18
2.760000E+03	3.771108E-18	1.200199E-18
2.800000E+03	3.912482E-18	1.235961E-18
2.840000E+03	4.065489E-18	1.274507E-18
2.880000E+03	4.231560E-18	1.316174E-18
2.920000E+03	4.413828E-18	1.361805E-18
2.960000E+03	4.612776E-18	1.411397E-18
3.000000E+03	4.830552E-18	1.465439E-18
3.010000E+03	4.889439E-18	1.480078E-18
3.020000E+03	4.948076E-18	1.494548E-18
3.030000E+03	5.009779E-18	1.509849E-18
3.040000E+03	5.071287E-18	1.524992E-18
3.050000E+03	5.134288E-18	1.540484E-18
3.060000E+03	5.200545E-18	1.556849E-18
3.070000E+03	5.266696E-18	1.573075E-18
3.080000E+03	5.336239E-18	1.590206E-18
3.090000E+03	5.407505E-18	1.607735E-18
3.100000E+03	5.478773E-18	1.625150E-18
3.110000E+03	5.553647E-18	1.643516E-18
3.120000E+03	5.628590E-18	1.661779E-18
3.130000E+03	5.707301E-18	1.681029E-18
3.140000E+03	5.788027E-18	1.700742E-18
3.150000E+03	5.868939E-18	1.720377E-18
3.160000E+03	5.953872E-18	1.741053E-18
3.170000E+03	6.041013E-18	1.762233E-18
3.180000E+03	6.128477E-18	1.783362E-18
3.190000E+03	6.220230E-18	1.805590E-18
3.200000E+03	6.314410E-18	1.828368E-18
3.210000E+03	6.411092E-18	1.851710E-18
3.220000E+03	6.508276E-18	1.875035E-18
3.230000E+03	6.610158E-18	1.899546E-18
3.240000E+03	6.714780E-18	1.924670E-18
3.250000E+03	6.822215E-18	1.950420E-18
3.260000E+03	6.932554E-18	1.976817E-18
3.270000E+03	7.045884E-18	2.003876E-18
3.280000E+03	7.162292E-18	2.031614E-18
3.290000E+03	7.281867E-18	2.060048E-18
3.300000E+03	7.402381E-18	2.088543E-18
3.310000E+03	7.528538E-18	2.118416E-18
3.320000E+03	7.658140E-18	2.149038E-18
3.330000E+03	7.791287E-18	2.180427E-18
3.340000E+03	7.928082E-18	2.212602E-18
3.350000E+03	8.071116E-18	2.246275E-18
3.360000E+03	8.215539E-18	2.280083E-18
3.370000E+03	8.363911E-18	2.314730E-18
3.380000E+03	8.516338E-18	2.350234E-18
3.390000E+03	8.672920E-18	2.386613E-18
3.400000E+03	8.833766E-18	2.423883E-18
3.410000E+03	8.998983E-18	2.462063E-18
3.420000E+03	9.168669E-18	2.501167E-18
3.430000E+03	9.345774E-18	2.541985E-18
3.440000E+03	9.524767E-18	2.582997E-18
3.450000E+03	9.708547E-18	2.624980E-18
3.460000E+03	9.897218E-18	2.667949E-18
3.470000E+03	1.009088E-17	2.711918E-18
3.480000E+03	1.029273E-17	2.757724E-18
3.490000E+03	1.049672E-17	2.803737E-18
3.500000E+03	1.070600E-17	2.850783E-18
3.510000E+03	1.092391E-17	2.899735E-18
3.520000E+03	1.114408E-17	2.948882E-18
3.530000E+03	1.136979E-17	2.999082E-18
3.540000E+03	1.160456E-17	3.051246E-18
3.550000E+03	1.184165E-17	3.103578E-18
3.560000E+03	1.208807E-17	3.157905E-18
3.570000E+03	1.233680E-17	3.212369E-18
3.580000E+03	1.259141E-17	3.267888E-18
3.590000E+03	1.285570E-17	3.325431E-18
3.600000E+03	1.312223E-17	3.383051E-18
3.610000E+03	1.339865E-17	3.442701E-18
3.620000E+03	1.367721E-17	3.502371E-18
3.630000E+03	1.396583E-17	3.564071E-18
3.640000E+03	1.425644E-17	3.625722E-18
3.650000E+03	1.455722E-17	3.689387E-18
3.660000E+03	1.485978E-17	3.752918E-18
3.670000E+03	1.517260E-17	3.818437E-18
3.680000E+03	1.549139E-17	3.884843E-18
3.690000E+03	1.581154E-17	3.950962E-18
3.700000E+03	1.614197E-17	4.019007E-18
3.710000E+03	1.647340E-17	4.086645E-18
3.720000E+03	1.681505E-17	4.156150E-18
3.730000E+03	1.716216E-17	4.226317E-18
3.740000E+03	1.750962E-17	4.295872E-18
3.750000E+03	1.786712E-17	4.367181E-18
3.760000E+03	1.822960E-17	4.438978E-18
3.770000E+03	1.859162E-17	4.509929E-18
3.780000E+03	1.896339E-17	4.582495E-18
3.790000E+03	1.933954E-17	4.655354E-18
3.800000E+03	1.971983E-17	4.728432E-18
3.810000E+03	2.009841E-17	4.800316E-18
3.820000E+03	2.048620E-17	4.873603E-18
3.830000E+03	2.087740E-17	4.946889E-18
3.840000E+03	2.127177E-17	5.020103E-18
3.850000E+03	2.166903E-17	5.093168E-18
3.860000E+03	2.206283E-17	5.164582E-18
3.870000E+03	2.246500E-17	5.237112E-18
3.880000E+03	2.286930E-17	5.309277E-18
3.890000E+03	2.327545E-17	5.381004E-18
3.900000E+03	2.368322E-17	5.452229E-18
3.910000E+03	2.409237E-17	5.522888E-18
3.920000E+03	2.449598E-17	5.591395E-18
3.930000E+03	2.490715E-17	5.660735E-18
3.940000E+03	2.531907E-17	5.729346E-18
3.950000E+03	2.573161E-17	5.797186E-18
3.960000E+03	2.614460E-17	5.864215E-18
3.970000E+03	2.655795E-17	5.930406E-18
3.980000E+03	2.697158E-17	5.995733E-18
3.990000E+03	2.738544E-17	6.060183E-18
4.000000E+03	2.779951E-17	6.123748E-18
4.010000E+03	2.821384E-17	6.186430E-18
4.020000E+03	2.862849E-17	6.248238E-18
4.030000E+03	2.904358E-17	6.309192E-18
4.040000E+03	2.945926E-17	6.369320E-18
4.050000E+03	2.986779E-17	6.426952E-18
4.060000E+03	3.028521E-17	6.485540E-18
4.070000E+03	3.070399E-17	6.543444E-18
4.080000E+03	3.112446E-17	6.600729E-18
4.090000E+03	3.154702E-17	6.657470E-18
4.100000E+03	3.197211E-17	6.713746E-18
4.110000E+03	3.240023E-17	6.769653E-18
4.120000E+03	3.283192E-17	6.825286E-18
4.130000E+03	3.326777E-17	6.880753E-18
4.140000E+03	3.370841E-17	6.936165E-18
4.150000E+03	3.416340E-17	6.993462E-18
4.160000E+03	3.461579E-17	7.049139E-18
4.170000E+03	3.507511E-17	7.105133E-18
4.180000E+03	3.554218E-17	7.161581E-18
4.190000E+03	3.601782E-17	7.218618E-18
4.200000E+03	3.650288E-17	7.276384E-18
4.210000E+03	3.699828E-17	7.335022E-18
4.220000E+03	3.750491E-17	7.394672E-18
4.230000E+03	3.802373E-17	7.455481E-18
4.240000E+03	3.855570E-17	7.517590E-18
4.250000E+03	3.910180E-17	7.581144E-18
4.260000E+03	3.966304E-17	7.646283E-18
4.270000E+03	4.024041E-17	7.713142E-18
4.280000E+03	4.083494E-17	7.781860E-18
4.290000E+03	4.144764E-17	7.852567E-18
4.300000E+03	4.207954E-17	7.925389E-18
4.310000E+03	4.273166E-17	8.000448E-18
4.320000E+03	4.340500E-17	8.077859E-18
4.330000E+03	4.410058E-17	8.157731E-18
4.340000E+03	4.481939E-17	8.240166E-18
4.350000E+03	4.556241E-17	8.325259E-18
4.360000E+03	4.633058E-17	8.413093E-18
4.370000E+03	4.712486E-17	8.503748E-18
4.380000E+03	4.795805E-17	8.599423E-18
4.390000E+03	4.880739E-17	8.695928E-18
4.400000E+03	4.968546E-17	8.795422E-18
4.410000E+03	5.059305E-17	8.897944E-18
4.420000E+03	5.153092E-17	9.003515E-18
4.430000E+03	5.249979E-17	9.112147E-18
4.440000E+03	5.350031E-17	9.223842E-18
4.450000E+03	5.453309E-17	9.338583E-18
4.460000E+03	5.559867E-17	9.456345E-18
4.470000E+03	5.669754E-17	9.577087E-18
4.480000E+03	5.783011E-17	9.700756E-18
4.490000E+03	5.899674E-17	9.827284E-18
4.500000E+03	6.019770E-17	9.956590E-18
4.510000E+03	6.143321E-17	1.008858E-17
4.520000E+03	6.270340E-17	1.022315E-17
4.530000E+03	6.400830E-17	1.036016E-17
4.540000E+03	6.533219E-17	1.049698E-17
4.550000E+03	6.670611E-17	1.063846E-17
4.560000E+03	6.811444E-17	1.078195E-17
4.570000E+03	6.955694E-17	1.092728E-17
4.580000E+03	7.103326E-17	1.107427E-17
4.590000E+03	7.254301E-17	1.122274E-17
4.600000E+03	7.408570E-17	1.137247E-17
4.610000E+03	7.566079E-17	1.152325E-17
4.620000E+03	7.726772E-17	1.167490E-17
4.630000E+03	7.890576E-17	1.182716E-17
4.640000E+03	8.055507E-17	1.197697E-17
4.650000E+03	8.225277E-17	1.212976E-17
4.660000E+03	8.397915E-17	1.228246E-17
4.670000E+03	8.573341E-17	1.243486E-17
4.680000E+03	8.751469E-17	1.258672E-17
4.690000E+03	8.932197E-17	1.273778E-17
4.700000E+03	9.113295E-17	1.288481E-17
4.710000E+03	9.298879E-17	1.303355E-17
4.720000E+03	9.486761E-17	1.318079E-17
4.730000E+03	9.676834E-17	1.332630E-17
4.740000E+03	9.866700E-17	1.346673E-17
4.750000E+03	1.006079E-16	1.360808E-17
4.760000E+03	1.025673E-16	1.374702E-17
4.770000E+03	1.045202E-16	1.388013E-17
4.780000E+03	1.065132E-16	1.401360E-17
4.790000E+03	1.085215E-16	1.414404E-17
4.800000E+03	1.105186E-16	1.426799E-17
4.810000E+03	1.125537E-16	1.439176E-17
4.820000E+03	1.145745E-16	1.450863E-17
4.830000E+03	1.166321E-16	1.462503E-17
4.840000E+03	1.186995E-16	1.473750E-17
4.850000E+03	1.207482E-16	1.484251E-17
4.860000E+03	1.228318E-16	1.494666E-17
4.870000E+03	1.248939E-16	1.504303E-17
4.880000E+03	1.269897E-16	1.513831E-17
4.890000E+03	1.290614E-16	1.522555E-17
4.900000E+03	1.311362E-16	1.530806E-17
4.910000E+03	1.332435E-16	1.538923E-17
4.920000E+03	1.353229E-16	1.546205E-17
4.930000E+03	1.374341E-16	1.553341E-17
4.940000E+03	1.395154E-16	1.559630E-17
4.950000E+03	1.415964E-16	1.565415E-17
4.960000E+03	1.437089E-16	1.571044E-17
4.970000E+03	1.457886E-16	1.575816E-17
4.980000E+03	1.478670E-16	1.580081E-17
4.990000E+03	1.499439E-16	1.583841E-17
5.000000E+03	1.520525E-16	1.587449E-17
5.010000E+03	1.541260E-16	1.590206E-17
5.020000E+03	1.561976E-16	1.592468E-17
5.030000E+03	1.582671E-16	1.594239E-17
5.040000E+03	1.603348E-16	1.595528E-17
5.050000E+03	1.624008E-16	1.596340E-17
5.060000E+03	1.644653E-16	1.596684E-17
5.070000E+03	1.665283E-16	1.596567E-17
5.080000E+03	1.685902E-16	1.595998E-17
5.090000E+03	1.706511E-16	1.594987E-17
5.100000E+03	1.727113E-16	1.593542E-17
5.110000E+03	1.747708E-16	1.591672E-17
5.120000E+03	1.768298E-16	1.589386E-17
5.130000E+03	1.788885E-16	1.586695E-17
5.140000E+03	1.809469E-16	1.583607E-17
5.150000E+03	1.830050E-16	1.580130E-17
5.160000E+03	1.850225E-16	1.575934E-17
5.170000E+03	1.870789E-16	1.571710E-17
5.180000E+03	1.891345E-16	1.567124E-17
5.190000E+03	1.911886E-16	1.562185E-17
5.200000E+03	1.931991E-16	1.556566E-17
5.210000E+03	1.952483E-16	1.550946E-17
5.220000E+03	1.972941E-16	1.544998E-17
5.230000E+03	1.992931E-16	1.538401E-17
5.240000E+03	2.013290E-16	1.531823E-17
5.250000E+03	2.033152E-16	1.524618E-17
5.260000E+03	2.053369E-16	1.517447E-17
5.270000E+03	2.073054E-16	1.509671E-17
5.280000E+03	2.093073E-16	1.501947E-17
5.290000E+03	2.112523E-16	1.493644E-17
5.300000E+03	2.131828E-16	1.485095E-17
5.310000E+03	2.151429E-16	1.476627E-17
5.320000E+03	2.170397E-16	1.467626E-17
5.330000E+03	2.189166E-16	1.458423E-17
5.340000E+03	2.207713E-16	1.449032E-17
5.350000E+03	2.226491E-16	1.439777E-17
5.360000E+03	2.244539E-16	1.430064E-17
5.370000E+03	2.262303E-16	1.420220E-17
5.380000E+03	2.279758E-16	1.410267E-17
5.390000E+03	2.296881E-16	1.400225E-17
5.400000E+03	2.313649E-16	1.390121E-17
5.410000E+03	2.330035E-16	1.379976E-17
5.420000E+03	2.346020E-16	1.369821E-17
5.430000E+03	2.361578E-16	1.359682E-17
5.440000E+03	2.376689E-16	1.349591E-17
5.450000E+03	2.390842E-16	1.339303E-17
5.460000E+03	2.405016E-16	1.329416E-17
5.470000E+03	2.418716E-16	1.319691E-17
5.480000E+03	2.431948E-16	1.310176E-17
5.490000E+03	2.444219E-16	1.300652E-17
5.500000E+03	2.456560E-16	1.291712E-17
5.510000E+03	2.467979E-16	1.282873E-17
5.520000E+03	2.479524E-16	1.274721E-17
5.530000E+03	2.490212E-16	1.266787E-17
5.540000E+03	2.501115E-16	1.259654E-17
5.550000E+03	2.511257E-16	1.252862E-17
5.560000E+03	2.521732E-16	1.246991E-17
5.570000E+03	2.531564E-16	1.241585E-17
5.580000E+03	2.541338E-16	1.236960E-17
5.590000E+03	2.551638E-16	1.233405E-17
5.600000E+03	2.561484E-16	1.230433E-17
5.610000E+03	2.571463E-16	1.228312E-17
5.620000E+03	2.581636E-16	1.227051E-17
5.630000E+03	2.592064E-16	1.226660E-17
5.640000E+03	2.602807E-16	1.227144E-17
5.650000E+03	2.613921E-16	1.228505E-17
5.660000E+03	2.625461E-16	1.230743E-17
5.670000E+03	2.637477E-16	1.233857E-17
5.680000E+03	2.650017E-16	1.237841E-17
5.690000E+03	2.663125E-16	1.242689E-17
5.700000E+03	2.676842E-16	1.248393E-17
5.710000E+03	2.690659E-16	1.254687E-17
5.720000E+03	2.705695E-16	1.262066E-17
5.730000E+03	2.721432E-16	1.270262E-17
5.740000E+03	2.737340E-16	1.279001E-17
5.750000E+03	2.754536E-16	1.288777E-17
5.760000E+03	2.771923E-16	1.299052E-17
5.770000E+03	2.790619E-16	1.310326E-17
5.780000E+03	2.809500E-16	1.322046E-17
5.790000E+03	2.829690E-16	1.334716E-17
5.800000E+03	2.850039E-16	1.347772E-17
5.810000E+03	2.871095E-16	1.361450E-17
5.820000E+03	2.893412E-16	1.375990E-17
5.830000E+03	2.915808E-16	1.390810E-17
5.840000E+03	2.938824E-16	1.406146E-17
5.850000E+03	2.962420E-16	1.421959E-17
5.860000E+03	2.986557E-16	1.438209E-17
5.870000E+03	3.011190E-16	1.454857E-17
5.880000E+03	3.036269E-16	1.471858E-17
5.890000E+03	3.061747E-16	1.489173E-17
5.900000E+03	3.087573E-16	1.506756E-17
5.910000E+03	3.113695E-16	1.524568E-17
5.920000E+03	3.140063E-16	1.542564E-17
5.930000E+03	3.165996E-16	1.560393E-17
5.940000E+03	3.192699E-16	1.578631E-17
5.950000E+03	3.219501E-16	1.596933E-17
5.960000E+03	3.245711E-16	1.614941E-17
5.970000E+03	3.272571E-16	1.633255E-17
5.980000E+03	3.298749E-16	1.651197E-17
5.990000E+03	3.325509E-16	1.669388E-17
6.000000E+03	3.351505E-16	1.687138E-17
6.010000E+03	3.377365E-16	1.704748E-17
6.020000E+03	3.403729E-16	1.722534E-17
6.030000E+03	3.429236E-16	1.739794E-17
6.040000E+03	3.454531E-16	1.756845E-17
6.050000E+03	3.479595E-16	1.773668E-17
6.060000E+03	3.504411E-16	1.790247E-17
6.070000E+03	3.529658E-16	1.806921E-17
6.080000E+03	3.553936E-16	1.822968E-17
6.090000E+03	3.577221E-16	1.838368E-17
6.100000E+03	3.600901E-16	1.853829E-17
6.110000E+03	3.624267E-16	1.868984E-17
6.120000E+03	3.647307E-16	1.883823E-17
6.130000E+03	3.670008E-16	1.898339E-17
6.140000E+03	3.692359E-16	1.912524E-17
6.150000E+03	3.713622E-16	1.925996E-17
6.160000E+03	3.735237E-16	1.939502E-17
6.170000E+03	3.755732E-16	1.952280E-17
6.180000E+03	3.776563E-16	1.965092E-17
6.190000E+03	3.796244E-16	1.977166E-17
6.200000E+03	3.816247E-16	1.989275E-17
6.210000E+03	3.835072E-16	2.000642E-17
6.220000E+03	3.853451E-16	2.011657E-17
6.230000E+03	3.872129E-16	2.022715E-17
6.240000E+03	3.889587E-16	2.033033E-17
6.250000E+03	3.906568E-16	2.043007E-17
6.260000E+03	3.923059E-16	2.052643E-17
6.270000E+03	3.939049E-16	2.061944E-17
6.280000E+03	3.954525E-16	2.070916E-17
6.290000E+03	3.969471E-16	2.079565E-17
6.300000E+03	3.983871E-16	2.087894E-17
6.310000E+03	3.997702E-16	2.095907E-17
6.320000E+03	4.010941E-16	2.103607E-17
6.330000E+03	4.022776E-16	2.110583E-17
6.340000E+03	4.034737E-16	2.117654E-17
6.350000E+03	4.046003E-16	2.124406E-17
6.360000E+03	4.055738E-16	2.130416E-17
6.370000E+03	4.065462E-16	2.136502E-17
6.380000E+03	4.073535E-16	2.141818E-17
6.390000E+03	4.081465E-16	2.147177E-17
6.400000E+03	4.087590E-16	2.151719E-17
6.410000E+03	4.093402E-16	2.156251E-17
6.420000E+03	4.097215E-16	2.159899E-17
6.430000E+03	4.099713E-16	2.163043E-17
6.440000E+03	4.100776E-16	2.165635E-17
6.450000E+03	4.100279E-16	2.167626E-17
6.460000E+03	4.098092E-16	2.168960E-17
6.470000E+03	4.094872E-16	2.170001E-17
6.480000E+03	4.088899E-16	2.169834E-17
6.490000E+03	4.080054E-16	2.168370E-17
6.500000E+03	4.069817E-16	2.166368E-17
6.510000E+03	4.057312E-16	2.163340E-17
6.520000E+03	4.042476E-16	2.159222E-17
6.530000E+03	4.025266E-16	2.153964E-17
6.540000E+03	4.004887E-16	2.147111E-17
6.550000E+03	3.982896E-16	2.139468E-17
6.560000E+03	3.958541E-16	2.130604E-17
6.570000E+03	3.931116E-16	2.120109E-17
6.580000E+03	3.902219E-16	2.108816E-17
6.590000E+03	3.870431E-16	2.095932E-17
6.600000E+03	3.836622E-16	2.081899E-17
6.610000E+03	3.801652E-16	2.067160E-17
6.620000E+03	3.764180E-16	2.050963E-17
6.630000E+03	3.725088E-16	2.033763E-17
6.640000E+03	3.684530E-16	2.015623E-17
6.650000E+03	3.643365E-16	1.996994E-17
6.660000E+03	3.600337E-16	1.977172E-17
6.670000E+03	3.556320E-16	1.956617E-17
6.680000E+03	3.511479E-16	1.935408E-17
6.690000E+03	3.465980E-16	1.913621E-17
6.700000E+03	3.419324E-16	1.890971E-17
6.710000E+03	3.373003E-16	1.868271E-17
6.720000E+03	3.326504E-16	1.845233E-17
6.730000E+03	3.279978E-16	1.821932E-17
6.740000E+03	3.233572E-16	1.798447E-17
6.750000E+03	3.186806E-16	1.774505E-17
6.760000E+03	3.141053E-16	1.750869E-17
6.770000E+03	3.095210E-16	1.726924E-17
6.780000E+03	3.050594E-16	1.703404E-17
6.790000E+03	3.006121E-16	1.679702E-17
6.800000E+03	2.963051E-16	1.656527E-17
6.810000E+03	2.920313E-16	1.633280E-17
6.820000E+03	2.878558E-16	1.610328E-17
6.830000E+03	2.837849E-16	1.587709E-17
6.840000E+03	2.798778E-16	1.565757E-17
6.850000E+03	2.760293E-16	1.543888E-17
6.860000E+03	2.722979E-16	1.522431E-17
6.870000E+03	2.686859E-16	1.501404E-17
6.880000E+03	2.651949E-16	1.480818E-17
6.890000E+03	2.618258E-16	1.460682E-17
6.900000E+03	2.585787E-16	1.441000E-17
6.910000E+03	2.554533E-16	1.421774E-17
6.920000E+03	2.524486E-16	1.402999E-17
6.930000E+03	2.495148E-16	1.384404E-17
6.940000E+03	2.467473E-16	1.366520E-17
6.950000E+03	2.440951E-16	1.349066E-17
6.960000E+03	2.415086E-16	1.331771E-17
6.970000E+03	2.390794E-16	1.315143E-17
6.980000E+03	2.367112E-16	1.298653E-17
6.990000E+03	2.344933E-16	1.282793E-17
7.000000E+03	2.323308E-16	1.267045E-17
7.010000E+03	2.303113E-16	1.251889E-17
7.020000E+03	2.283412E-16	1.236817E-17
7.030000E+03	2.264624E-16	1.222059E-17
7.040000E+03	2.247152E-16	1.207833E-17
7.050000E+03	2.230085E-16	1.193649E-17
7.060000E+03	2.213831E-16	1.179729E-17
7.070000E+03	2.198358E-16	1.166057E-17
7.080000E+03	2.183632E-16	1.152619E-17
7.090000E+03	2.169623E-16	1.139398E-17
7.100000E+03	2.156303E-16	1.126382E-17
7.110000E+03	2.143642E-16	1.113558E-17
7.120000E+03	2.131611E-16	1.100914E-17
7.130000E+03	2.120184E-16	1.088437E-17
7.140000E+03	2.109336E-16	1.076119E-17
7.150000E+03	2.099040E-16	1.063950E-17
7.160000E+03	2.088865E-16	1.051714E-17
7.170000E+03	2.079608E-16	1.039821E-17
7.180000E+03	2.070836E-16	1.028054E-17
7.190000E+03	2.062125E-16	1.016209E-17
7.200000E+03	2.054264E-16	1.004685E-17
7.210000E+03	2.046431E-16	9.930811E-18
7.220000E+03	2.039413E-16	9.817898E-18
7.230000E+03	2.032393E-16	9.704230E-18
7.240000E+03	2.026159E-16	9.593668E-18
7.250000E+03	2.019902E-16	9.482456E-18
7.260000E+03	2.014015E-16	9.372562E-18
7.270000E+03	2.008489E-16	9.264051E-18
7.280000E+03	2.003715E-16	9.158824E-18
7.290000E+03	1.998905E-16	9.053377E-18
7.300000E+03	1.994453E-16	8.949659E-18
7.310000E+03	1.990365E-16	8.847828E-18
7.320000E+03	1.986649E-16	8.748066E-18
7.330000E+03	1.983315E-16	8.650568E-18
7.340000E+03	1.980377E-16	8.555558E-18
7.350000E+03	1.977853E-16	8.463278E-18
7.360000E+03	1.975760E-16	8.373984E-18
7.370000E+03	1.974123E-16	8.287965E-18
7.380000E+03	1.972574E-16	8.203889E-18
7.390000E+03	1.971920E-16	8.125337E-18
7.400000E+03	1.971799E-16	8.051002E-18
7.410000E+03	1.972240E-16	7.981226E-18
7.420000E+03	1.972879E-16	7.914790E-18
7.430000E+03	1.974531E-16	7.855223E-18
7.440000E+03	1.976441E-16	7.799760E-18
7.450000E+03	1.979423E-16	7.751906E-18
7.460000E+03	1.982722E-16	7.708961E-18
7.470000E+03	1.987158E-16	7.674416E-18
7.480000E+03	1.991972E-16	7.645638E-18
7.490000E+03	1.997996E-16	7.626130E-18
7.500000E+03	2.004472E-16	7.613314E-18
7.510000E+03	2.011834E-16	7.609179E-18
7.520000E+03	2.020110E-16	7.614163E-18
7.530000E+03	2.029723E-16	7.630196E-18
7.540000E+03	2.039874E-16	7.654521E-18
7.550000E+03	2.050978E-16	7.688760E-18
7.560000E+03	2.063042E-16	7.732977E-18
7.570000E+03	2.076078E-16	7.787249E-18
7.580000E+03	2.090088E-16	7.851626E-18
7.590000E+03	2.105076E-16	7.926162E-18
7.600000E+03	2.121039E-16	8.010883E-18
7.610000E+03	2.137967E-16	8.105805E-18
7.620000E+03	2.155846E-16	8.210917E-18
7.630000E+03	2.174656E-16	8.326193E-18
7.640000E+03	2.194366E-16	8.451579E-18
7.650000E+03	2.214497E-16	8.585274E-18
7.660000E+03	2.235898E-16	8.730623E-18
7.670000E+03	2.258081E-16	8.885806E-18
7.680000E+03	2.280993E-16	9.050686E-18
7.690000E+03	2.304111E-16	9.223238E-18
7.700000E+03	2.328299E-16	9.406982E-18
7.710000E+03	2.352552E-16	9.597931E-18
7.720000E+03	2.377746E-16	9.799716E-18
7.730000E+03	2.403333E-16	1.001018E-17
7.740000E+03	2.428737E-16	1.022697E-17
7.750000E+03	2.454859E-16	1.045390E-17
7.760000E+03	2.480613E-16	1.068643E-17
