#wls	flux	fluxerr
1.600000E+03	1.180304E-14	3.051610E-16
1.640000E+03	1.259519E-14	3.185865E-16
1.680000E+03	1.341371E-14	3.318282E-16
1.720000E+03	1.425313E-14	3.447383E-16
1.760000E+03	1.510636E-14	3.571499E-16
1.800000E+03	1.596469E-14	3.688816E-16
1.840000E+03	1.681736E-14	3.797322E-16
1.880000E+03	1.765199E-14	3.894961E-16
1.920000E+03	1.845407E-14	3.979544E-16
1.960000E+03	1.920770E-14	4.048960E-16
2.000000E+03	1.989591E-14	4.101225E-16
2.040000E+03	2.050229E-14	4.134811E-16
2.080000E+03	2.100316E-14	4.147036E-16
2.120000E+03	2.132982E-14	4.126715E-16
2.160000E+03	2.149829E-14	4.079447E-16
2.200000E+03	2.148428E-14	4.002823E-16
2.240000E+03	2.128170E-14	3.897819E-16
2.280000E+03	2.092441E-14	3.772319E-16
2.320000E+03	2.041565E-14	3.627875E-16
2.360000E+03	1.974859E-14	3.463917E-16
2.400000E+03	1.895275E-14	3.285986E-16
2.440000E+03	1.807138E-14	3.101516E-16
2.480000E+03	1.714910E-14	2.917722E-16
2.520000E+03	1.622841E-14	2.741123E-16
2.560000E+03	1.535224E-14	2.577993E-16
2.600000E+03	1.457330E-14	2.435908E-16
2.640000E+03	1.394260E-14	2.322160E-16
2.680000E+03	1.343804E-14	2.232020E-16
2.720000E+03	1.300086E-14	2.154932E-16
2.760000E+03	1.260287E-14	2.085622E-16
2.800000E+03	1.223400E-14	2.021946E-16
2.840000E+03	1.189086E-14	1.962953E-16
2.880000E+03	1.157211E-14	1.908103E-16
2.920000E+03	1.127665E-14	1.856957E-16
2.960000E+03	1.100270E-14	1.809019E-16
3.000000E+03	1.074745E-14	1.763675E-16
3.010000E+03	1.068610E-14	1.752653E-16
3.020000E+03	1.062559E-14	1.741731E-16
3.030000E+03	1.056587E-14	1.730899E-16
3.040000E+03	1.050680E-14	1.720133E-16
3.050000E+03	1.044829E-14	1.709416E-16
3.060000E+03	1.039027E-14	1.698738E-16
3.070000E+03	1.033261E-14	1.688077E-16
3.080000E+03	1.027520E-14	1.677411E-16
3.090000E+03	1.021791E-14	1.666724E-16
3.100000E+03	1.016067E-14	1.655999E-16
3.110000E+03	1.010328E-14	1.645208E-16
3.120000E+03	1.004565E-14	1.634333E-16
3.130000E+03	9.987609E-15	1.623349E-16
3.140000E+03	9.929089E-15	1.612245E-16
3.150000E+03	9.869857E-15	1.600983E-16
3.160000E+03	9.809862E-15	1.589556E-16
3.170000E+03	9.748876E-15	1.577928E-16
3.180000E+03	9.686808E-15	1.566087E-16
3.190000E+03	9.623504E-15	1.554009E-16
3.200000E+03	9.558812E-15	1.541670E-16
3.210000E+03	9.492618E-15	1.529056E-16
3.220000E+03	9.424813E-15	1.516150E-16
3.230000E+03	9.355270E-15	1.502934E-16
3.240000E+03	9.283899E-15	1.489397E-16
3.250000E+03	9.210597E-15	1.475524E-16
3.260000E+03	9.135280E-15	1.461306E-16
3.270000E+03	9.057972E-15	1.446750E-16
3.280000E+03	8.978599E-15	1.431847E-16
3.290000E+03	8.897176E-15	1.416603E-16
3.300000E+03	8.813777E-15	1.401033E-16
3.310000E+03	8.728446E-15	1.385148E-16
3.320000E+03	8.641291E-15	1.368970E-16
3.330000E+03	8.552486E-15	1.352529E-16
3.340000E+03	8.462211E-15	1.335857E-16
3.350000E+03	8.370681E-15	1.318992E-16
3.360000E+03	8.278169E-15	1.301980E-16
3.370000E+03	8.184916E-15	1.284863E-16
3.380000E+03	8.091299E-15	1.267703E-16
3.390000E+03	7.997612E-15	1.250548E-16
3.400000E+03	7.904155E-15	1.233448E-16
3.410000E+03	7.811265E-15	1.216458E-16
3.420000E+03	7.719373E-15	1.199646E-16
3.430000E+03	7.629039E-15	1.183101E-16
3.440000E+03	7.541091E-15	1.166951E-16
3.450000E+03	7.456541E-15	1.151351E-16
3.460000E+03	7.376445E-15	1.136459E-16
3.470000E+03	7.302073E-15	1.122467E-16
3.480000E+03	7.234335E-15	1.109509E-16
3.490000E+03	7.172489E-15	1.097464E-16
3.500000E+03	7.115390E-15	1.086152E-16
3.510000E+03	7.061960E-15	1.075403E-16
3.520000E+03	7.011250E-15	1.065070E-16
3.530000E+03	6.962560E-15	1.055044E-16
3.540000E+03	6.915353E-15	1.045241E-16
3.550000E+03	6.869334E-15	1.035616E-16
3.560000E+03	6.824462E-15	1.026162E-16
3.570000E+03	6.780869E-15	1.016897E-16
3.580000E+03	6.738739E-15	1.007848E-16
3.590000E+03	6.698292E-15	9.990463E-17
3.600000E+03	6.659822E-15	9.905344E-17
3.610000E+03	6.623526E-15	9.823394E-17
3.620000E+03	6.589564E-15	9.744829E-17
3.630000E+03	6.558007E-15	9.669728E-17
3.640000E+03	6.528824E-15	9.598024E-17
3.650000E+03	6.501729E-15	9.529268E-17
3.660000E+03	6.476376E-15	9.462937E-17
3.670000E+03	6.452256E-15	9.398273E-17
3.680000E+03	6.428772E-15	9.334396E-17
3.690000E+03	6.405256E-15	9.270343E-17
3.700000E+03	6.381074E-15	9.205205E-17
3.710000E+03	6.355422E-15	9.137846E-17
3.720000E+03	6.327509E-15	9.067163E-17
3.730000E+03	6.296426E-15	8.991903E-17
3.740000E+03	6.261317E-15	8.910903E-17
3.750000E+03	6.221323E-15	8.823021E-17
3.760000E+03	6.175919E-15	8.727600E-17
3.770000E+03	6.125017E-15	8.624615E-17
3.780000E+03	6.068993E-15	8.514692E-17
3.790000E+03	6.008815E-15	8.399282E-17
3.800000E+03	5.945879E-15	8.280410E-17
3.810000E+03	5.881951E-15	8.160591E-17
3.820000E+03	5.818603E-15	8.042031E-17
3.830000E+03	5.757080E-15	7.926456E-17
3.840000E+03	5.698123E-15	7.814872E-17
3.850000E+03	5.641986E-15	7.707603E-17
3.860000E+03	5.588348E-15	7.604190E-17
3.870000E+03	5.536691E-15	7.503908E-17
3.880000E+03	5.486556E-15	7.406124E-17
3.890000E+03	5.437850E-15	7.310708E-17
3.900000E+03	5.390900E-15	7.218096E-17
3.910000E+03	5.346258E-15	7.129013E-17
3.920000E+03	5.304749E-15	7.044536E-17
3.930000E+03	5.267173E-15	6.965692E-17
3.940000E+03	5.234081E-15	6.893162E-17
3.950000E+03	5.205623E-15	6.827088E-17
3.960000E+03	5.181437E-15	6.766942E-17
3.970000E+03	5.160764E-15	6.711686E-17
3.980000E+03	5.142307E-15	6.659605E-17
3.990000E+03	5.124433E-15	6.608578E-17
4.000000E+03	5.105422E-15	6.556409E-17
4.010000E+03	5.083506E-15	6.500877E-17
4.020000E+03	5.057262E-15	6.440240E-17
4.030000E+03	5.025797E-15	6.373457E-17
4.040000E+03	4.989103E-15	6.300621E-17
4.050000E+03	4.947952E-15	6.222810E-17
4.060000E+03	4.903812E-15	6.141949E-17
4.070000E+03	4.858654E-15	6.060563E-17
4.080000E+03	4.814573E-15	5.981291E-17
4.090000E+03	4.773351E-15	5.906335E-17
4.100000E+03	4.735939E-15	5.836849E-17
4.110000E+03	4.702520E-15	5.773015E-17
4.120000E+03	4.672532E-15	5.714112E-17
4.130000E+03	4.644701E-15	5.658556E-17
4.140000E+03	4.617398E-15	5.604362E-17
4.150000E+03	4.588943E-15	5.549509E-17
4.160000E+03	4.557907E-15	5.492311E-17
4.170000E+03	4.523386E-15	5.431734E-17
4.180000E+03	4.485137E-15	5.367547E-17
4.190000E+03	4.443655E-15	5.300397E-17
4.200000E+03	4.399979E-15	5.231572E-17
4.210000E+03	4.355445E-15	5.162689E-17
4.220000E+03	4.311501E-15	5.095477E-17
4.230000E+03	4.269239E-15	5.031222E-17
4.240000E+03	4.229353E-15	4.970729E-17
4.250000E+03	4.191828E-15	4.913967E-17
4.260000E+03	4.156405E-15	4.860614E-17
4.270000E+03	4.123042E-15	4.810612E-17
4.280000E+03	4.092338E-15	4.764646E-17
4.290000E+03	4.065448E-15	4.724045E-17
4.300000E+03	4.044011E-15	4.690690E-17
4.310000E+03	4.029918E-15	4.666741E-17
4.320000E+03	4.024980E-15	4.654225E-17
4.330000E+03	4.030515E-15	4.654588E-17
4.340000E+03	4.046724E-15	4.667989E-17
4.350000E+03	4.072269E-15	4.692823E-17
4.360000E+03	4.103635E-15	4.724996E-17
4.370000E+03	4.133741E-15	4.756327E-17
4.380000E+03	4.149878E-15	4.772187E-17
4.390000E+03	4.139002E-15	4.757588E-17
4.400000E+03	4.099809E-15	4.711034E-17
4.410000E+03	4.042272E-15	4.643969E-17
4.420000E+03	3.976556E-15	4.568028E-17
4.430000E+03	3.910155E-15	4.491768E-17
4.440000E+03	3.847493E-15	4.420220E-17
4.450000E+03	3.790591E-15	4.355657E-17
4.460000E+03	3.739864E-15	4.298516E-17
4.470000E+03	3.694893E-15	4.248277E-17
4.480000E+03	3.654811E-15	4.203912E-17
4.490000E+03	3.618729E-15	4.164368E-17
4.500000E+03	3.585757E-15	4.128594E-17
4.510000E+03	3.555123E-15	4.095674E-17
4.520000E+03	3.526222E-15	4.064885E-17
4.530000E+03	3.498573E-15	4.035646E-17
4.540000E+03	3.471774E-15	4.007471E-17
4.550000E+03	3.445554E-15	3.980023E-17
4.560000E+03	3.419767E-15	3.953109E-17
4.570000E+03	3.394421E-15	3.926716E-17
4.580000E+03	3.369692E-15	3.901027E-17
4.590000E+03	3.345919E-15	3.876415E-17
4.600000E+03	3.323497E-15	3.853321E-17
4.610000E+03	3.302922E-15	3.832306E-17
4.620000E+03	3.284591E-15	3.813816E-17
4.630000E+03	3.268743E-15	3.798120E-17
4.640000E+03	3.255374E-15	3.785200E-17
4.650000E+03	3.244121E-15	3.774628E-17
4.660000E+03	3.234373E-15	3.765680E-17
4.670000E+03	3.225191E-15	3.757253E-17
4.680000E+03	3.215496E-15	3.748075E-17
4.690000E+03	3.204057E-15	3.736698E-17
4.700000E+03	3.189697E-15	3.721734E-17
4.710000E+03	3.171409E-15	3.701993E-17
4.720000E+03	3.148315E-15	3.676433E-17
4.730000E+03	3.119909E-15	3.644451E-17
4.740000E+03	3.086062E-15	3.605882E-17
4.750000E+03	3.047140E-15	3.561149E-17
4.760000E+03	3.003965E-15	3.511208E-17
4.770000E+03	2.957747E-15	3.457469E-17
4.780000E+03	2.910049E-15	3.401762E-17
4.790000E+03	2.862448E-15	3.345935E-17
4.800000E+03	2.816556E-15	3.291878E-17
4.810000E+03	2.773782E-15	3.241239E-17
4.820000E+03	2.735226E-15	3.195308E-17
4.830000E+03	2.701698E-15	3.155033E-17
4.840000E+03	2.673577E-15	3.120854E-17
4.850000E+03	2.650956E-15	3.092874E-17
4.860000E+03	2.633621E-15	3.070838E-17
4.870000E+03	2.621044E-15	3.054119E-17
4.880000E+03	2.612521E-15	3.041891E-17
4.890000E+03	2.607081E-15	3.033012E-17
4.900000E+03	2.603411E-15	3.025946E-17
4.910000E+03	2.599951E-15	3.018876E-17
4.920000E+03	2.595080E-15	3.009924E-17
4.930000E+03	2.587418E-15	2.997494E-17
4.940000E+03	2.576051E-15	2.980545E-17
4.950000E+03	2.560638E-15	2.958700E-17
4.960000E+03	2.541412E-15	2.932257E-17
4.970000E+03	2.519191E-15	2.902180E-17
4.980000E+03	2.495098E-15	2.869787E-17
4.990000E+03	2.470297E-15	2.836434E-17
5.000000E+03	2.445835E-15	2.803333E-17
5.010000E+03	2.422511E-15	2.771409E-17
5.020000E+03	2.400825E-15	2.741232E-17
5.030000E+03	2.380954E-15	2.713005E-17
5.040000E+03	2.362854E-15	2.686674E-17
5.050000E+03	2.346344E-15	2.662029E-17
5.060000E+03	2.331214E-15	2.638831E-17
5.070000E+03	2.317225E-15	2.616807E-17
5.080000E+03	2.304123E-15	2.595671E-17
5.090000E+03	2.291550E-15	2.575024E-17
5.100000E+03	2.279191E-15	2.554515E-17
5.110000E+03	2.266710E-15	2.533778E-17
5.120000E+03	2.253874E-15	2.512562E-17
5.130000E+03	2.240521E-15	2.490703E-17
5.140000E+03	2.226566E-15	2.468118E-17
5.150000E+03	2.212126E-15	2.444955E-17
5.160000E+03	2.197349E-15	2.421392E-17
5.170000E+03	2.182439E-15	2.397667E-17
5.180000E+03	2.167675E-15	2.374099E-17
5.190000E+03	2.153235E-15	2.350891E-17
5.200000E+03	2.139297E-15	2.328245E-17
5.210000E+03	2.125944E-15	2.306258E-17
5.220000E+03	2.113189E-15	2.284946E-17
5.230000E+03	2.100964E-15	2.264245E-17
5.240000E+03	2.089201E-15	2.244084E-17
5.250000E+03	2.077846E-15	2.224414E-17
5.260000E+03	2.066872E-15	2.205212E-17
5.270000E+03	2.056341E-15	2.186551E-17
5.280000E+03	2.046383E-15	2.168577E-17
5.290000E+03	2.037218E-15	2.151526E-17
5.300000E+03	2.029133E-15	2.135704E-17
5.310000E+03	2.022350E-15	2.121342E-17
5.320000E+03	2.016913E-15	2.108487E-17
5.330000E+03	2.012636E-15	2.096941E-17
5.340000E+03	2.009103E-15	2.086272E-17
5.350000E+03	2.005769E-15	2.075919E-17
5.360000E+03	2.002160E-15	2.065405E-17
5.370000E+03	1.997849E-15	2.054306E-17
5.380000E+03	1.992636E-15	2.042434E-17
5.390000E+03	1.986689E-15	2.029984E-17
5.400000E+03	1.980340E-15	2.017310E-17
5.410000E+03	1.974068E-15	2.004916E-17
5.420000E+03	1.968342E-15	1.993285E-17
5.430000E+03	1.963417E-15	1.982677E-17
5.440000E+03	1.959134E-15	1.972925E-17
5.450000E+03	1.955329E-15	1.963850E-17
5.460000E+03	1.951391E-15	1.954827E-17
5.470000E+03	1.946476E-15	1.945004E-17
5.480000E+03	1.939736E-15	1.933535E-17
5.490000E+03	1.930648E-15	1.919903E-17
5.500000E+03	1.919226E-15	1.904130E-17
5.510000E+03	1.906274E-15	1.887017E-17
5.520000E+03	1.892964E-15	1.869721E-17
5.530000E+03	1.880452E-15	1.853377E-17
5.540000E+03	1.869726E-15	1.838939E-17
5.550000E+03	1.861226E-15	1.826821E-17
5.560000E+03	1.854650E-15	1.816706E-17
5.570000E+03	1.849195E-15	1.807790E-17
5.580000E+03	1.843571E-15	1.798802E-17
5.590000E+03	1.836724E-15	1.788708E-17
5.600000E+03	1.828272E-15	1.777140E-17
5.610000E+03	1.818345E-15	1.764224E-17
5.620000E+03	1.807218E-15	1.750231E-17
5.630000E+03	1.795449E-15	1.735702E-17
5.640000E+03	1.783532E-15	1.721109E-17
5.650000E+03	1.771792E-15	1.706765E-17
5.660000E+03	1.760381E-15	1.692810E-17
5.670000E+03	1.749266E-15	1.679207E-17
5.680000E+03	1.738245E-15	1.665757E-17
5.690000E+03	1.727100E-15	1.652252E-17
5.700000E+03	1.715549E-15	1.638419E-17
5.710000E+03	1.703341E-15	1.624020E-17
5.720000E+03	1.690500E-15	1.609079E-17
5.730000E+03	1.677169E-15	1.593736E-17
5.740000E+03	1.663384E-15	1.578026E-17
5.750000E+03	1.649357E-15	1.562152E-17
5.760000E+03	1.635233E-15	1.546255E-17
5.770000E+03	1.621188E-15	1.530500E-17
5.780000E+03	1.607457E-15	1.515112E-17
5.790000E+03	1.594355E-15	1.500387E-17
5.800000E+03	1.582052E-15	1.486484E-17
5.810000E+03	1.570787E-15	1.473627E-17
5.820000E+03	1.560742E-15	1.461985E-17
5.830000E+03	1.551884E-15	1.451525E-17
5.840000E+03	1.544168E-15	1.442205E-17
5.850000E+03	1.537351E-15	1.433797E-17
5.860000E+03	1.531145E-15	1.426035E-17
5.870000E+03	1.525177E-15	1.418575E-17
5.880000E+03	1.519075E-15	1.411076E-17
5.890000E+03	1.512441E-15	1.403175E-17
5.900000E+03	1.504990E-15	1.394617E-17
5.910000E+03	1.496551E-15	1.385252E-17
5.920000E+03	1.487067E-15	1.375036E-17
5.930000E+03	1.476637E-15	1.364070E-17
5.940000E+03	1.465475E-15	1.352561E-17
5.950000E+03	1.453764E-15	1.340685E-17
5.960000E+03	1.441729E-15	1.328657E-17
5.970000E+03	1.429541E-15	1.316641E-17
5.980000E+03	1.417348E-15	1.304780E-17
5.990000E+03	1.405389E-15	1.293298E-17
6.000000E+03	1.393850E-15	1.282374E-17
6.010000E+03	1.382975E-15	1.272236E-17
6.020000E+03	1.372867E-15	1.262985E-17
6.030000E+03	1.363564E-15	1.254662E-17
6.040000E+03	1.354973E-15	1.247188E-17
6.050000E+03	1.346790E-15	1.240289E-17
6.060000E+03	1.338687E-15	1.233671E-17
6.070000E+03	1.330286E-15	1.226990E-17
6.080000E+03	1.321461E-15	1.220136E-17
6.090000E+03	1.312149E-15	1.213054E-17
6.100000E+03	1.302424E-15	1.205815E-17
6.110000E+03	1.292411E-15	1.198536E-17
6.120000E+03	1.282366E-15	1.191457E-17
6.130000E+03	1.272559E-15	1.184834E-17
6.140000E+03	1.263329E-15	1.178983E-17
6.150000E+03	1.255104E-15	1.174313E-17
6.160000E+03	1.248286E-15	1.171205E-17
6.170000E+03	1.243300E-15	1.170057E-17
6.180000E+03	1.240538E-15	1.171240E-17
6.190000E+03	1.240010E-15	1.174769E-17
6.200000E+03	1.241287E-15	1.180247E-17
6.210000E+03	1.243259E-15	1.186622E-17
6.220000E+03	1.243948E-15	1.191993E-17
6.230000E+03	1.240664E-15	1.193746E-17
6.240000E+03	1.230735E-15	1.189238E-17
6.250000E+03	1.213803E-15	1.178025E-17
6.260000E+03	1.192977E-15	1.163027E-17
6.270000E+03	1.171549E-15	1.147398E-17
6.280000E+03	1.152053E-15	1.133606E-17
6.290000E+03	1.135980E-15	1.123132E-17
6.300000E+03	1.123840E-15	1.116516E-17
6.310000E+03	1.115524E-15	1.113693E-17
6.320000E+03	1.110423E-15	1.114094E-17
6.330000E+03	1.107679E-15	1.116889E-17
6.340000E+03	1.106419E-15	1.121221E-17
6.350000E+03	1.105882E-15	1.126326E-17
6.360000E+03	1.105433E-15	1.131554E-17
6.370000E+03	1.104575E-15	1.136388E-17
6.380000E+03	1.102950E-15	1.140440E-17
6.390000E+03	1.100373E-15	1.143498E-17
6.400000E+03	1.096697E-15	1.145384E-17
6.410000E+03	1.091994E-15	1.146150E-17
6.420000E+03	1.086339E-15	1.145848E-17
6.430000E+03	1.079914E-15	1.144651E-17
6.440000E+03	1.072923E-15	1.142755E-17
6.450000E+03	1.065594E-15	1.140389E-17
6.460000E+03	1.058161E-15	1.137794E-17
6.470000E+03	1.050845E-15	1.135200E-17
6.480000E+03	1.043883E-15	1.132863E-17
6.490000E+03	1.037451E-15	1.130972E-17
6.500000E+03	1.031695E-15	1.129692E-17
6.510000E+03	1.026728E-15	1.129151E-17
6.520000E+03	1.022608E-15	1.129421E-17
6.530000E+03	1.019414E-15	1.130596E-17
6.540000E+03	1.017132E-15	1.132670E-17
6.550000E+03	1.015835E-15	1.135732E-17
6.560000E+03	1.015559E-15	1.139831E-17
6.570000E+03	1.016357E-15	1.145036E-17
6.580000E+03	1.018255E-15	1.151387E-17
6.590000E+03	1.021287E-15	1.158930E-17
6.600000E+03	1.025339E-15	1.167543E-17
6.610000E+03	1.030294E-15	1.177102E-17
6.620000E+03	1.035813E-15	1.187221E-17
6.630000E+03	1.041446E-15	1.197385E-17
6.640000E+03	1.046596E-15	1.206900E-17
6.650000E+03	1.050560E-15	1.214944E-17
6.660000E+03	1.052585E-15	1.220627E-17
6.670000E+03	1.052077E-15	1.223237E-17
6.680000E+03	1.048712E-15	1.222371E-17
6.690000E+03	1.042448E-15	1.217954E-17
6.700000E+03	1.033605E-15	1.210336E-17
6.710000E+03	1.022714E-15	1.200123E-17
6.720000E+03	1.010535E-15	1.188195E-17
6.730000E+03	9.978399E-16	1.175458E-17
6.740000E+03	9.853122E-16	1.162717E-17
6.750000E+03	9.735434E-16	1.150677E-17
6.760000E+03	9.629164E-16	1.139801E-17
6.770000E+03	9.536325E-16	1.130336E-17
6.780000E+03	9.457185E-16	1.122325E-17
6.790000E+03	9.389958E-16	1.115563E-17
6.800000E+03	9.331829E-16	1.109725E-17
6.810000E+03	9.278773E-16	1.104335E-17
6.820000E+03	9.227700E-16	1.099030E-17
6.830000E+03	9.175747E-16	1.093472E-17
6.840000E+03	9.121638E-16	1.087510E-17
6.850000E+03	9.065102E-16	1.081116E-17
6.860000E+03	9.006214E-16	1.074300E-17
6.870000E+03	8.945850E-16	1.067171E-17
6.880000E+03	8.884951E-16	1.059844E-17
6.890000E+03	8.823844E-16	1.052361E-17
6.900000E+03	8.762525E-16	1.044727E-17
6.910000E+03	8.700555E-16	1.036893E-17
6.920000E+03	8.638242E-16	1.028900E-17
6.930000E+03	8.575877E-16	1.020786E-17
6.940000E+03	8.513921E-16	1.012611E-17
6.950000E+03	8.453953E-16	1.004568E-17
6.960000E+03	8.397013E-16	9.967822E-18
6.970000E+03	8.344433E-16	9.894164E-18
6.980000E+03	8.296207E-16	9.824721E-18
6.990000E+03	8.252382E-16	9.759575E-18
7.000000E+03	8.211986E-16	9.697600E-18
7.010000E+03	8.174228E-16	9.637887E-18
7.020000E+03	8.138538E-16	9.579798E-18
7.030000E+03	8.104411E-16	9.522769E-18
7.040000E+03	8.071416E-16	9.466332E-18
7.050000E+03	8.039406E-16	9.410353E-18
7.060000E+03	8.008364E-16	9.354854E-18
7.070000E+03	7.977846E-16	9.299357E-18
7.080000E+03	7.947270E-16	9.243234E-18
7.090000E+03	7.916509E-16	9.186390E-18
7.100000E+03	7.884924E-16	9.128138E-18
7.110000E+03	7.852756E-16	9.068819E-18
7.120000E+03	7.819962E-16	9.008446E-18
7.130000E+03	7.787187E-16	8.947824E-18
7.140000E+03	7.755327E-16	8.888038E-18
7.150000E+03	7.724836E-16	8.829662E-18
7.160000E+03	7.695413E-16	8.772402E-18
7.170000E+03	7.667059E-16	8.716315E-18
7.180000E+03	7.639235E-16	8.660843E-18
7.190000E+03	7.611695E-16	8.605772E-18
7.200000E+03	7.584380E-16	8.551102E-18
7.210000E+03	7.557202E-16	8.496801E-18
7.220000E+03	7.530406E-16	8.443216E-18
7.230000E+03	7.503926E-16	8.390343E-18
7.240000E+03	7.477098E-16	8.337514E-18
7.250000E+03	7.449758E-16	8.284627E-18
7.260000E+03	7.420678E-16	8.230402E-18
7.270000E+03	7.389548E-16	8.174593E-18
7.280000E+03	7.356669E-16	8.117627E-18
7.290000E+03	7.322457E-16	8.060058E-18
7.300000E+03	7.288171E-16	8.003361E-18
7.310000E+03	7.255633E-16	7.949614E-18
7.320000E+03	7.226416E-16	7.900606E-18
7.330000E+03	7.201236E-16	7.857181E-18
7.340000E+03	7.180706E-16	7.820065E-18
7.350000E+03	7.164206E-16	7.788646E-18
7.360000E+03	7.150704E-16	7.761873E-18
7.370000E+03	7.139532E-16	7.739102E-18
7.380000E+03	7.130018E-16	7.719691E-18
7.390000E+03	7.121680E-16	7.703212E-18
7.400000E+03	7.114756E-16	7.690016E-18
7.410000E+03	7.109775E-16	7.680774E-18
7.420000E+03	7.107258E-16	7.676146E-18
7.430000E+03	7.107483E-16	7.676535E-18
7.440000E+03	7.109727E-16	7.681267E-18
7.450000E+03	7.113235E-16	7.689634E-18
7.460000E+03	7.115644E-16	7.699188E-18
7.470000E+03	7.114771E-16	7.707670E-18
7.480000E+03	7.108830E-16	7.713228E-18
7.490000E+03	7.096989E-16	7.715023E-18
7.500000E+03	7.079845E-16	7.713755E-18
7.510000E+03	7.059109E-16	7.711326E-18
7.520000E+03	7.037314E-16	7.710548E-18
7.530000E+03	7.018304E-16	7.715694E-18
7.540000E+03	7.004794E-16	7.729851E-18
7.550000E+03	6.999369E-16	7.756013E-18
7.560000E+03	7.003036E-16	7.795477E-18
7.570000E+03	7.014651E-16	7.847119E-18
7.580000E+03	7.029941E-16	7.906236E-18
7.590000E+03	7.042113E-16	7.965180E-18
7.600000E+03	7.040636E-16	8.011870E-18
7.610000E+03	7.013816E-16	8.032573E-18
7.620000E+03	6.953981E-16	8.017789E-18
7.630000E+03	6.869226E-16	7.976016E-18
7.640000E+03	6.771086E-16	7.919965E-18
7.650000E+03	6.668801E-16	7.860001E-18
7.660000E+03	6.569180E-16	7.803912E-18
7.670000E+03	6.475890E-16	7.755985E-18
7.680000E+03	6.390407E-16	7.718014E-18
7.690000E+03	6.313559E-16	7.691085E-18
7.700000E+03	6.245763E-16	7.675830E-18
7.710000E+03	6.187979E-16	7.673600E-18
7.720000E+03	6.140502E-16	7.684976E-18
7.730000E+03	6.103145E-16	7.709961E-18
7.740000E+03	6.075625E-16	7.748456E-18
7.750000E+03	6.057031E-16	7.799552E-18
7.760000E+03	6.046813E-16	7.862789E-18
