#wls	flux	fluxerr
1.600000E+03	7.832581E-19	3.008173E-19
1.640000E+03	8.029725E-19	3.064428E-19
1.680000E+03	8.242125E-19	3.125095E-19
1.720000E+03	8.472982E-19	3.191232E-19
1.760000E+03	8.715976E-19	3.260291E-19
1.800000E+03	8.979108E-19	3.335108E-19
1.840000E+03	9.260821E-19	3.414903E-19
1.880000E+03	9.561957E-19	3.499783E-19
1.920000E+03	9.883318E-19	3.589827E-19
1.960000E+03	1.022312E-18	3.684162E-19
2.000000E+03	1.058723E-18	3.784671E-19
2.040000E+03	1.097384E-18	3.890434E-19
2.080000E+03	1.138641E-18	4.002391E-19
2.120000E+03	1.182026E-18	4.118609E-19
2.160000E+03	1.228164E-18	4.240966E-19
2.200000E+03	1.276866E-18	4.368475E-19
2.240000E+03	1.328228E-18	4.501129E-19
2.280000E+03	1.382666E-18	4.639966E-19
2.320000E+03	1.440343E-18	4.785126E-19
2.360000E+03	1.501153E-18	4.935826E-19
2.400000E+03	1.565656E-18	5.093457E-19
2.440000E+03	1.633857E-18	5.257533E-19
2.480000E+03	1.706824E-18	5.430937E-19
2.520000E+03	1.784435E-18	5.612635E-19
2.560000E+03	1.868041E-18	5.806183E-19
2.600000E+03	1.958159E-18	6.012348E-19
2.640000E+03	2.056217E-18	6.234563E-19
2.680000E+03	2.163562E-18	6.475775E-19
2.720000E+03	2.281853E-18	6.739618E-19
2.760000E+03	2.413540E-18	7.031726E-19
2.800000E+03	2.560754E-18	7.356388E-19
2.840000E+03	2.727892E-18	7.723912E-19
2.880000E+03	2.917982E-18	8.140009E-19
2.920000E+03	3.136688E-18	8.617052E-19
2.960000E+03	3.390426E-18	9.168401E-19
3.000000E+03	3.686496E-18	9.808576E-19
3.010000E+03	3.768267E-18	9.984820E-19
3.020000E+03	3.853114E-18	1.016726E-18
3.030000E+03	3.941750E-18	1.035765E-18
3.040000E+03	4.034360E-18	1.055636E-18
3.050000E+03	4.130555E-18	1.076222E-18
3.060000E+03	4.231102E-18	1.097710E-18
3.070000E+03	4.336214E-18	1.120139E-18
3.080000E+03	4.445494E-18	1.143392E-18
3.090000E+03	4.559770E-18	1.167664E-18
3.100000E+03	4.679279E-18	1.192999E-18
3.110000E+03	4.803623E-18	1.219277E-18
3.120000E+03	4.934351E-18	1.246871E-18
3.130000E+03	5.070419E-18	1.275497E-18
3.140000E+03	5.212755E-18	1.305368E-18
3.150000E+03	5.360946E-18	1.336358E-18
3.160000E+03	5.516686E-18	1.368865E-18
3.170000E+03	5.678854E-18	1.402587E-18
3.180000E+03	5.848470E-18	1.437750E-18
3.190000E+03	6.026629E-18	1.474595E-18
3.200000E+03	6.212132E-18	1.512799E-18
3.210000E+03	6.406069E-18	1.552599E-18
3.220000E+03	6.608775E-18	1.594046E-18
3.230000E+03	6.820591E-18	1.637188E-18
3.240000E+03	7.041857E-18	1.682075E-18
3.250000E+03	7.272910E-18	1.728750E-18
3.260000E+03	7.514996E-18	1.777474E-18
3.270000E+03	7.766638E-18	1.827857E-18
3.280000E+03	8.029042E-18	1.880146E-18
3.290000E+03	8.303494E-18	1.934601E-18
3.300000E+03	8.589343E-18	1.991028E-18
3.310000E+03	8.886853E-18	2.049443E-18
3.320000E+03	9.196262E-18	2.109858E-18
3.330000E+03	9.518865E-18	2.172524E-18
3.340000E+03	9.853803E-18	2.237197E-18
3.350000E+03	1.020120E-17	2.303860E-18
3.360000E+03	1.056234E-17	2.372751E-18
3.370000E+03	1.093612E-17	2.443576E-18
3.380000E+03	1.132254E-17	2.516284E-18
3.390000E+03	1.172279E-17	2.591091E-18
3.400000E+03	1.213551E-17	2.667649E-18
3.410000E+03	1.256186E-17	2.746158E-18
3.420000E+03	1.300027E-17	2.826228E-18
3.430000E+03	1.345321E-17	2.908350E-18
3.440000E+03	1.391614E-17	2.991488E-18
3.450000E+03	1.439289E-17	3.076425E-18
3.460000E+03	1.488008E-17	3.162388E-18
3.470000E+03	1.537706E-17	3.249199E-18
3.480000E+03	1.588630E-17	3.337341E-18
3.490000E+03	1.640398E-17	3.425968E-18
3.500000E+03	1.693094E-17	3.515219E-18
3.510000E+03	1.746637E-17	3.604896E-18
3.520000E+03	1.800947E-17	3.694797E-18
3.530000E+03	1.855938E-17	3.784719E-18
3.540000E+03	1.911520E-17	3.874450E-18
3.550000E+03	1.967598E-17	3.963778E-18
3.560000E+03	2.024078E-17	4.052495E-18
3.570000E+03	2.080861E-17	4.140388E-18
3.580000E+03	2.137852E-17	4.227254E-18
3.590000E+03	2.195150E-17	4.313281E-18
3.600000E+03	2.252275E-17	4.397518E-18
3.610000E+03	2.309529E-17	4.480559E-18
3.620000E+03	2.366632E-17	4.561857E-18
3.630000E+03	2.423710E-17	4.641658E-18
3.640000E+03	2.480479E-17	4.719426E-18
3.650000E+03	2.536876E-17	4.795048E-18
3.660000E+03	2.593043E-17	4.868810E-18
3.670000E+03	2.648718E-17	4.940228E-18
3.680000E+03	2.704069E-17	5.009635E-18
3.690000E+03	2.758833E-17	5.076558E-18
3.700000E+03	2.813197E-17	5.141363E-18
3.710000E+03	2.867134E-17	5.204016E-18
3.720000E+03	2.920396E-17	5.264086E-18
3.730000E+03	2.973422E-17	5.322389E-18
3.740000E+03	3.025747E-17	5.378104E-18
3.750000E+03	3.077357E-17	5.431239E-18
3.760000E+03	3.128717E-17	5.482636E-18
3.770000E+03	3.179594E-17	5.531899E-18
3.780000E+03	3.229766E-17	5.578666E-18
3.790000E+03	3.279703E-17	5.623773E-18
3.800000E+03	3.328951E-17	5.666459E-18
3.810000E+03	3.377992E-17	5.707565E-18
3.820000E+03	3.426601E-17	5.746723E-18
3.830000E+03	3.474799E-17	5.783993E-18
3.840000E+03	3.522596E-17	5.819405E-18
3.850000E+03	3.570009E-17	5.853007E-18
3.860000E+03	3.617291E-17	5.885229E-18
3.870000E+03	3.664216E-17	5.915714E-18
3.880000E+03	3.710799E-17	5.944506E-18
3.890000E+03	3.757284E-17	5.972007E-18
3.900000E+03	3.803446E-17	5.997873E-18
3.910000E+03	3.849531E-17	6.022503E-18
3.920000E+03	3.895299E-17	6.045535E-18
3.930000E+03	3.940764E-17	6.067005E-18
3.940000E+03	3.986390E-17	6.087641E-18
3.950000E+03	4.031473E-17	6.106374E-18
3.960000E+03	4.076713E-17	6.124282E-18
3.970000E+03	4.121636E-17	6.140660E-18
3.980000E+03	4.166235E-17	6.155517E-18
3.990000E+03	4.210742E-17	6.169208E-18
4.000000E+03	4.255381E-17	6.182073E-18
4.010000E+03	4.299448E-17	6.193098E-18
4.020000E+03	4.343636E-17	6.203301E-18
4.030000E+03	4.387486E-17	6.212036E-18
4.040000E+03	4.431230E-17	6.219651E-18
4.050000E+03	4.474877E-17	6.226167E-18
4.060000E+03	4.518443E-17	6.231621E-18
4.070000E+03	4.561721E-17	6.235742E-18
4.080000E+03	4.605200E-17	6.239213E-18
4.090000E+03	4.648474E-17	6.241490E-18
4.100000E+03	4.691820E-17	6.242958E-18
4.110000E+03	4.735304E-17	6.243715E-18
4.120000E+03	4.779013E-17	6.243879E-18
4.130000E+03	4.823043E-17	6.243576E-18
4.140000E+03	4.867509E-17	6.242956E-18
4.150000E+03	4.912544E-17	6.242185E-18
4.160000E+03	4.958083E-17	6.241171E-18
4.170000E+03	5.004513E-17	6.240393E-18
4.180000E+03	5.052237E-17	6.240332E-18
4.190000E+03	5.101035E-17	6.240687E-18
4.200000E+03	5.151136E-17	6.241712E-18
4.210000E+03	5.203219E-17	6.244192E-18
4.220000E+03	5.257124E-17	6.247885E-18
4.230000E+03	5.313567E-17	6.253588E-18
4.240000E+03	5.372217E-17	6.260845E-18
4.250000E+03	5.434043E-17	6.270718E-18
4.260000E+03	5.498969E-17	6.283032E-18
4.270000E+03	5.567575E-17	6.298359E-18
4.280000E+03	5.640250E-17	6.317033E-18
4.290000E+03	5.717190E-17	6.339159E-18
4.300000E+03	5.798823E-17	6.365090E-18
4.310000E+03	5.885804E-17	6.395410E-18
4.320000E+03	5.978597E-17	6.430470E-18
4.330000E+03	6.077464E-17	6.470390E-18
4.340000E+03	6.182890E-17	6.515518E-18
4.350000E+03	6.295363E-17	6.566187E-18
4.360000E+03	6.415587E-17	6.622937E-18
4.370000E+03	6.543601E-17	6.685602E-18
4.380000E+03	6.680287E-17	6.754874E-18
4.390000E+03	6.825593E-17	6.830477E-18
4.400000E+03	6.980274E-17	6.912945E-18
4.410000E+03	7.144092E-17	7.001812E-18
4.420000E+03	7.317382E-17	7.097185E-18
4.430000E+03	7.500214E-17	7.198909E-18
4.440000E+03	7.692575E-17	7.306759E-18
4.450000E+03	7.893900E-17	7.419995E-18
4.460000E+03	8.104773E-17	7.538978E-18
4.470000E+03	8.324254E-17	7.662653E-18
4.480000E+03	8.552544E-17	7.791048E-18
4.490000E+03	8.789053E-17	7.923475E-18
4.500000E+03	9.033341E-17	8.059417E-18
4.510000E+03	9.284920E-17	8.198336E-18
4.520000E+03	9.542937E-17	8.339399E-18
4.530000E+03	9.807251E-17	8.482433E-18
4.540000E+03	1.007659E-16	8.626303E-18
4.550000E+03	1.035012E-16	8.770301E-18
4.560000E+03	1.062717E-16	8.913900E-18
4.570000E+03	1.090650E-16	9.056108E-18
4.580000E+03	1.118703E-16	9.196126E-18
4.590000E+03	1.146792E-16	9.333389E-18
4.600000E+03	1.174742E-16	9.466626E-18
4.610000E+03	1.202462E-16	9.595295E-18
4.620000E+03	1.229829E-16	9.718637E-18
4.630000E+03	1.256695E-16	9.835683E-18
4.640000E+03	1.282974E-16	9.945946E-18
4.650000E+03	1.308558E-16	1.004877E-17
4.660000E+03	1.333284E-16	1.014309E-17
4.670000E+03	1.357127E-16	1.022895E-17
4.680000E+03	1.379951E-16	1.030553E-17
4.690000E+03	1.401765E-16	1.037312E-17
4.700000E+03	1.422468E-16	1.043117E-17
4.710000E+03	1.442110E-16	1.048028E-17
4.720000E+03	1.460598E-16	1.051997E-17
4.730000E+03	1.478030E-16	1.055113E-17
4.740000E+03	1.494458E-16	1.057430E-17
4.750000E+03	1.509922E-16	1.058993E-17
4.760000E+03	1.524520E-16	1.059882E-17
4.770000E+03	1.538331E-16	1.060165E-17
4.780000E+03	1.551557E-16	1.059987E-17
4.790000E+03	1.564310E-16	1.059432E-17
4.800000E+03	1.576716E-16	1.058587E-17
4.810000E+03	1.589011E-16	1.057607E-17
4.820000E+03	1.601267E-16	1.056539E-17
4.830000E+03	1.613732E-16	1.055539E-17
4.840000E+03	1.626581E-16	1.054711E-17
4.850000E+03	1.639959E-16	1.054135E-17
4.860000E+03	1.654038E-16	1.053908E-17
4.870000E+03	1.668983E-16	1.054117E-17
4.880000E+03	1.684955E-16	1.054840E-17
4.890000E+03	1.702135E-16	1.056169E-17
4.900000E+03	1.720596E-16	1.058123E-17
4.910000E+03	1.740498E-16	1.060773E-17
4.920000E+03	1.761958E-16	1.064161E-17
4.930000E+03	1.785046E-16	1.068298E-17
4.940000E+03	1.809924E-16	1.073247E-17
4.950000E+03	1.836602E-16	1.078981E-17
4.960000E+03	1.865148E-16	1.085505E-17
4.970000E+03	1.895653E-16	1.092835E-17
4.980000E+03	1.928162E-16	1.100961E-17
4.990000E+03	1.962673E-16	1.109843E-17
5.000000E+03	1.999245E-16	1.119478E-17
5.010000E+03	2.037852E-16	1.129813E-17
5.020000E+03	2.078497E-16	1.140812E-17
5.030000E+03	2.121210E-16	1.152452E-17
5.040000E+03	2.165935E-16	1.164667E-17
5.050000E+03	2.212684E-16	1.177426E-17
5.060000E+03	2.261345E-16	1.190634E-17
5.070000E+03	2.311989E-16	1.204293E-17
5.080000E+03	2.364446E-16	1.218282E-17
5.090000E+03	2.418730E-16	1.232576E-17
5.100000E+03	2.474731E-16	1.247089E-17
5.110000E+03	2.532364E-16	1.261751E-17
5.120000E+03	2.591583E-16	1.276513E-17
5.130000E+03	2.652236E-16	1.291279E-17
5.140000E+03	2.714256E-16	1.305996E-17
5.150000E+03	2.777469E-16	1.320566E-17
5.160000E+03	2.841732E-16	1.334910E-17
5.170000E+03	2.906934E-16	1.348968E-17
5.180000E+03	2.972855E-16	1.362637E-17
5.190000E+03	3.039304E-16	1.375833E-17
5.200000E+03	3.106120E-16	1.388492E-17
5.210000E+03	3.173077E-16	1.400530E-17
5.220000E+03	3.239880E-16	1.411838E-17
5.230000E+03	3.306258E-16	1.422330E-17
5.240000E+03	3.372030E-16	1.431966E-17
5.250000E+03	3.436727E-16	1.440593E-17
5.260000E+03	3.500187E-16	1.448199E-17
5.270000E+03	3.561954E-16	1.454658E-17
5.280000E+03	3.621724E-16	1.459919E-17
5.290000E+03	3.679064E-16	1.463891E-17
5.300000E+03	3.733700E-16	1.466555E-17
5.310000E+03	3.785127E-16	1.467814E-17
5.320000E+03	3.833004E-16	1.467642E-17
5.330000E+03	3.876931E-16	1.466002E-17
5.340000E+03	3.916462E-16	1.462850E-17
5.350000E+03	3.951333E-16	1.458212E-17
5.360000E+03	3.981124E-16	1.452068E-17
5.370000E+03	4.005440E-16	1.444407E-17
5.380000E+03	4.024089E-16	1.435297E-17
5.390000E+03	4.036744E-16	1.424754E-17
5.400000E+03	4.043118E-16	1.412810E-17
5.410000E+03	4.043150E-16	1.399569E-17
5.420000E+03	4.036654E-16	1.385086E-17
5.430000E+03	4.023564E-16	1.369445E-17
5.440000E+03	4.003873E-16	1.352741E-17
5.450000E+03	3.977691E-16	1.335095E-17
5.460000E+03	3.945023E-16	1.316573E-17
5.470000E+03	3.906159E-16	1.297323E-17
5.480000E+03	3.861289E-16	1.277438E-17
5.490000E+03	3.810712E-16	1.256998E-17
5.500000E+03	3.754798E-16	1.236036E-17
5.510000E+03	3.693976E-16	1.214593E-17
5.520000E+03	3.628770E-16	1.192730E-17
5.530000E+03	3.559641E-16	1.170483E-17
5.540000E+03	3.487070E-16	1.147890E-17
5.550000E+03	3.411700E-16	1.125042E-17
5.560000E+03	3.334074E-16	1.102003E-17
5.570000E+03	3.254645E-16	1.078808E-17
5.580000E+03	3.174002E-16	1.055545E-17
5.590000E+03	3.092669E-16	1.032288E-17
5.600000E+03	3.011184E-16	1.009126E-17
5.610000E+03	2.929935E-16	9.861055E-18
5.620000E+03	2.849397E-16	9.633131E-18
5.630000E+03	2.770002E-16	9.408319E-18
5.640000E+03	2.692035E-16	9.187041E-18
5.650000E+03	2.615813E-16	8.969928E-18
5.660000E+03	2.541684E-16	8.757804E-18
5.670000E+03	2.469817E-16	8.550963E-18
5.680000E+03	2.400446E-16	8.349998E-18
5.690000E+03	2.333736E-16	8.155323E-18
5.700000E+03	2.269789E-16	7.967199E-18
5.710000E+03	2.208738E-16	7.786034E-18
5.720000E+03	2.150629E-16	7.611979E-18
5.730000E+03	2.095518E-16	7.445245E-18
5.740000E+03	2.043436E-16	7.285988E-18
5.750000E+03	1.994426E-16	7.134417E-18
5.760000E+03	1.948461E-16	6.990511E-18
5.770000E+03	1.905529E-16	6.854313E-18
5.780000E+03	1.865612E-16	6.725834E-18
5.790000E+03	1.828677E-16	6.605048E-18
5.800000E+03	1.794667E-16	6.491825E-18
5.810000E+03	1.763567E-16	6.386187E-18
5.820000E+03	1.735335E-16	6.288036E-18
5.830000E+03	1.709901E-16	6.197180E-18
5.840000E+03	1.687243E-16	6.113569E-18
5.850000E+03	1.667291E-16	6.036970E-18
5.860000E+03	1.650019E-16	5.967294E-18
5.870000E+03	1.635336E-16	5.904202E-18
5.880000E+03	1.623237E-16	5.847638E-18
5.890000E+03	1.613654E-16	5.797305E-18
5.900000E+03	1.606519E-16	5.752888E-18
5.910000E+03	1.601828E-16	5.714274E-18
5.920000E+03	1.599496E-16	5.681047E-18
5.930000E+03	1.599500E-16	5.652989E-18
5.940000E+03	1.601777E-16	5.629723E-18
5.950000E+03	1.606308E-16	5.611001E-18
5.960000E+03	1.613034E-16	5.596424E-18
5.970000E+03	1.621943E-16	5.585725E-18
5.980000E+03	1.632980E-16	5.578476E-18
5.990000E+03	1.646117E-16	5.574323E-18
6.000000E+03	1.661328E-16	5.572896E-18
6.010000E+03	1.678612E-16	5.573890E-18
6.020000E+03	1.697905E-16	5.576778E-18
6.030000E+03	1.719216E-16	5.581247E-18
6.040000E+03	1.742528E-16	5.586884E-18
6.050000E+03	1.767834E-16	5.593288E-18
6.060000E+03	1.795122E-16	5.600028E-18
6.070000E+03	1.824362E-16	5.606597E-18
6.080000E+03	1.855569E-16	5.612608E-18
6.090000E+03	1.888732E-16	5.617585E-18
6.100000E+03	1.923839E-16	5.621029E-18
6.110000E+03	1.960848E-16	5.622343E-18
6.120000E+03	1.999735E-16	5.620980E-18
6.130000E+03	2.040491E-16	5.616427E-18
6.140000E+03	2.083074E-16	5.608073E-18
6.150000E+03	2.127406E-16	5.595220E-18
6.160000E+03	2.173444E-16	5.577274E-18
6.170000E+03	2.221082E-16	5.553494E-18
6.180000E+03	2.270250E-16	5.523260E-18
6.190000E+03	2.320812E-16	5.485826E-18
6.200000E+03	2.372673E-16	5.440597E-18
6.210000E+03	2.425674E-16	5.386878E-18
6.220000E+03	2.479708E-16	5.324173E-18
6.230000E+03	2.534645E-16	5.252005E-18
6.240000E+03	2.590328E-16	5.169943E-18
6.250000E+03	2.646682E-16	5.077823E-18
6.260000E+03	2.703588E-16	4.975514E-18
6.270000E+03	2.761047E-16	4.863242E-18
6.280000E+03	2.818950E-16	4.741185E-18
6.290000E+03	2.877309E-16	4.609920E-18
6.300000E+03	2.936157E-16	4.470270E-18
6.310000E+03	2.995439E-16	4.323198E-18
6.320000E+03	3.055219E-16	4.170204E-18
6.330000E+03	3.115585E-16	4.013246E-18
6.340000E+03	3.176525E-16	3.854711E-18
6.350000E+03	3.238196E-16	3.697909E-18
6.360000E+03	3.300700E-16	3.546946E-18
6.370000E+03	3.364072E-16	3.406906E-18
6.380000E+03	3.428568E-16	3.284279E-18
6.390000E+03	3.494263E-16	3.186532E-18
6.400000E+03	3.561368E-16	3.122193E-18
6.410000E+03	3.630073E-16	3.100082E-18
6.420000E+03	3.700538E-16	3.128336E-18
6.430000E+03	3.773071E-16	3.212835E-18
6.440000E+03	3.847852E-16	3.354113E-18
6.450000E+03	3.925111E-16	3.549556E-18
6.460000E+03	4.005126E-16	3.794971E-18
6.470000E+03	4.088071E-16	4.085412E-18
6.480000E+03	4.174157E-16	4.416042E-18
6.490000E+03	4.263633E-16	4.782582E-18
6.500000E+03	4.356680E-16	5.181377E-18
6.510000E+03	4.453452E-16	5.609445E-18
6.520000E+03	4.554069E-16	6.064391E-18
6.530000E+03	4.658611E-16	6.544284E-18
6.540000E+03	4.767111E-16	7.047542E-18
6.550000E+03	4.879597E-16	7.572882E-18
6.560000E+03	4.995899E-16	8.118928E-18
6.570000E+03	5.115823E-16	8.684380E-18
6.580000E+03	5.239183E-16	9.268014E-18
6.590000E+03	5.365649E-16	9.868365E-18
6.600000E+03	5.494813E-16	1.048378E-17
6.610000E+03	5.626127E-16	1.111225E-17
6.620000E+03	5.759177E-16	1.175191E-17
6.630000E+03	5.893289E-16	1.240028E-17
6.640000E+03	6.027779E-16	1.305466E-17
6.650000E+03	6.161922E-16	1.371212E-17
6.660000E+03	6.295041E-16	1.436970E-17
6.670000E+03	6.426273E-16	1.502384E-17
6.680000E+03	6.554892E-16	1.567117E-17
6.690000E+03	6.680030E-16	1.630785E-17
6.700000E+03	6.801068E-16	1.693055E-17
6.710000E+03	6.917087E-16	1.753511E-17
6.720000E+03	7.027470E-16	1.811805E-17
6.730000E+03	7.131558E-16	1.867578E-17
6.740000E+03	7.228754E-16	1.920487E-17
6.750000E+03	7.318642E-16	1.970236E-17
6.760000E+03	7.400582E-16	2.016477E-17
6.770000E+03	7.474399E-16	2.058996E-17
6.780000E+03	7.539707E-16	2.097530E-17
6.790000E+03	7.596397E-16	2.131904E-17
6.800000E+03	7.644242E-16	2.161923E-17
6.810000E+03	7.683276E-16	2.187483E-17
6.820000E+03	7.713399E-16	2.208455E-17
6.830000E+03	7.734782E-16	2.224804E-17
6.840000E+03	7.747436E-16	2.236466E-17
6.850000E+03	7.751719E-16	2.243493E-17
6.860000E+03	7.747630E-16	2.245851E-17
6.870000E+03	7.735495E-16	2.243615E-17
6.880000E+03	7.715564E-16	2.236855E-17
6.890000E+03	7.688110E-16	2.225662E-17
6.900000E+03	7.653416E-16	2.210143E-17
6.910000E+03	7.611664E-16	2.190393E-17
6.920000E+03	7.563367E-16	2.166609E-17
6.930000E+03	7.508710E-16	2.138911E-17
6.940000E+03	7.447999E-16	2.107462E-17
6.950000E+03	7.381527E-16	2.072430E-17
6.960000E+03	7.309586E-16	2.033995E-17
6.970000E+03	7.232564E-16	1.992370E-17
6.980000E+03	7.150544E-16	1.947691E-17
6.990000E+03	7.064007E-16	1.900212E-17
7.000000E+03	6.973121E-16	1.850105E-17
7.010000E+03	6.878247E-16	1.797602E-17
7.020000E+03	6.779463E-16	1.742863E-17
7.030000E+03	6.677210E-16	1.686148E-17
7.040000E+03	6.571651E-16	1.627650E-17
7.050000E+03	6.463031E-16	1.567582E-17
7.060000E+03	6.351694E-16	1.506189E-17
7.070000E+03	6.237794E-16	1.443667E-17
7.080000E+03	6.121577E-16	1.380238E-17
7.090000E+03	6.003372E-16	1.316145E-17
7.100000E+03	5.883327E-16	1.251590E-17
7.110000E+03	5.761687E-16	1.186799E-17
7.120000E+03	5.638778E-16	1.122014E-17
7.130000E+03	5.514751E-16	1.057445E-17
7.140000E+03	5.389834E-16	9.933205E-18
7.150000E+03	5.264345E-16	9.298887E-18
7.160000E+03	5.138429E-16	8.673730E-18
7.170000E+03	5.012310E-16	8.060209E-18
7.180000E+03	4.886195E-16	7.460915E-18
7.190000E+03	4.760371E-16	6.878747E-18
7.200000E+03	4.634965E-16	6.316644E-18
7.210000E+03	4.510228E-16	5.778116E-18
7.220000E+03	4.386274E-16	5.267017E-18
7.230000E+03	4.263272E-16	4.787991E-18
7.240000E+03	4.141380E-16	4.346564E-18
7.250000E+03	4.020808E-16	3.949354E-18
7.260000E+03	3.901629E-16	3.603886E-18
7.270000E+03	3.783971E-16	3.318421E-18
7.280000E+03	3.668006E-16	3.100928E-18
7.290000E+03	3.553788E-16	2.957189E-18
7.300000E+03	3.441427E-16	2.888822E-18
7.310000E+03	3.331031E-16	2.890426E-18
7.320000E+03	3.222752E-16	2.950281E-18
7.330000E+03	3.116586E-16	3.054496E-18
7.340000E+03	3.012717E-16	3.189794E-18
7.350000E+03	2.911224E-16	3.344699E-18
7.360000E+03	2.812095E-16	3.509989E-18
7.370000E+03	2.715491E-16	3.678890E-18
7.380000E+03	2.621437E-16	3.846354E-18
7.390000E+03	2.529998E-16	4.008862E-18
7.400000E+03	2.441236E-16	4.164024E-18
7.410000E+03	2.355243E-16	4.310364E-18
7.420000E+03	2.271998E-16	4.446849E-18
7.430000E+03	2.191620E-16	4.573189E-18
7.440000E+03	2.114116E-16	4.689258E-18
7.450000E+03	2.039521E-16	4.795273E-18
7.460000E+03	1.967897E-16	4.891736E-18
7.470000E+03	1.899204E-16	4.979086E-18
7.480000E+03	1.833520E-16	5.058186E-18
7.490000E+03	1.770824E-16	5.129761E-18
7.500000E+03	1.711117E-16	5.194677E-18
7.510000E+03	1.654395E-16	5.253842E-18
7.520000E+03	1.600643E-16	5.308197E-18
7.530000E+03	1.549865E-16	5.358773E-18
7.540000E+03	1.501981E-16	5.406350E-18
7.550000E+03	1.457004E-16	5.452033E-18
7.560000E+03	1.414862E-16	5.496650E-18
7.570000E+03	1.375505E-16	5.541076E-18
7.580000E+03	1.338869E-16	5.586143E-18
7.590000E+03	1.304884E-16	5.632628E-18
7.600000E+03	1.273493E-16	5.681336E-18
7.610000E+03	1.244584E-16	5.732806E-18
7.620000E+03	1.218034E-16	5.787467E-18
7.630000E+03	1.193761E-16	5.845894E-18
7.640000E+03	1.171614E-16	5.908273E-18
7.650000E+03	1.151479E-16	5.974893E-18
7.660000E+03	1.133184E-16	6.045681E-18
7.670000E+03	1.116635E-16	6.120898E-18
7.680000E+03	1.101671E-16	6.200369E-18
7.690000E+03	1.088207E-16	6.284273E-18
7.700000E+03	1.076111E-16	6.372470E-18
7.710000E+03	1.065276E-16	6.464887E-18
7.720000E+03	1.055620E-16	6.561550E-18
7.730000E+03	1.047014E-16	6.662139E-18
7.740000E+03	1.039406E-16	6.766759E-18
7.750000E+03	1.032679E-16	6.875065E-18
7.760000E+03	1.026793E-16	6.987149E-18
