#wls	flux	fluxerr
1.600000E+03	1.009042E-15	5.667028E-16
1.640000E+03	1.009616E-15	5.321784E-16
1.680000E+03	1.010875E-15	4.962953E-16
1.720000E+03	1.012481E-15	4.588916E-16
1.760000E+03	1.014823E-15	4.202023E-16
1.800000E+03	1.017760E-15	3.802781E-16
1.840000E+03	1.021714E-15	3.394906E-16
1.880000E+03	1.026790E-15	2.982397E-16
1.920000E+03	1.033362E-15	2.573081E-16
1.960000E+03	1.041819E-15	2.180434E-16
2.000000E+03	1.053144E-15	1.830176E-16
2.040000E+03	1.068977E-15	1.567595E-16
2.080000E+03	1.092679E-15	1.456400E-16
2.120000E+03	1.126457E-15	1.529728E-16
2.160000E+03	1.169256E-15	1.741976E-16
2.200000E+03	1.218289E-15	2.015664E-16
2.240000E+03	1.271842E-15	2.291624E-16
2.280000E+03	1.328677E-15	2.530987E-16
2.320000E+03	1.386932E-15	2.705320E-16
2.360000E+03	1.444775E-15	2.793213E-16
2.400000E+03	1.499720E-15	2.778114E-16
2.440000E+03	1.548401E-15	2.649903E-16
2.480000E+03	1.586342E-15	2.409724E-16
2.520000E+03	1.608891E-15	2.081470E-16
2.560000E+03	1.613926E-15	1.732674E-16
2.600000E+03	1.604810E-15	1.496929E-16
2.640000E+03	1.590042E-15	1.520367E-16
2.680000E+03	1.569159E-15	1.772254E-16
2.720000E+03	1.536586E-15	2.095540E-16
2.760000E+03	1.493500E-15	2.383539E-16
2.800000E+03	1.444697E-15	2.593064E-16
2.840000E+03	1.395914E-15	2.716132E-16
2.880000E+03	1.351473E-15	2.759071E-16
2.920000E+03	1.314637E-15	2.733491E-16
2.960000E+03	1.288261E-15	2.652408E-16
3.000000E+03	1.274427E-15	2.526598E-16
3.010000E+03	1.273213E-15	2.489313E-16
3.020000E+03	1.273028E-15	2.450053E-16
3.030000E+03	1.273778E-15	2.408675E-16
3.040000E+03	1.275503E-15	2.365285E-16
3.050000E+03	1.278494E-15	2.320437E-16
3.060000E+03	1.282418E-15	2.273528E-16
3.070000E+03	1.287697E-15	2.225315E-16
3.080000E+03	1.294133E-15	2.175436E-16
3.090000E+03	1.301909E-15	2.124189E-16
3.100000E+03	1.311088E-15	2.071655E-16
3.110000E+03	1.321619E-15	2.017733E-16
3.120000E+03	1.333834E-15	1.962912E-16
3.130000E+03	1.347578E-15	1.906937E-16
3.140000E+03	1.363211E-15	1.850310E-16
3.150000E+03	1.380609E-15	1.792855E-16
3.160000E+03	1.400173E-15	1.735118E-16
3.170000E+03	1.421954E-15	1.677184E-16
3.180000E+03	1.446289E-15	1.619513E-16
3.190000E+03	1.473298E-15	1.562331E-16
3.200000E+03	1.503403E-15	1.506230E-16
3.210000E+03	1.536806E-15	1.451587E-16
3.220000E+03	1.574000E-15	1.399065E-16
3.230000E+03	1.615349E-15	1.349167E-16
3.240000E+03	1.661223E-15	1.302367E-16
3.250000E+03	1.712104E-15	1.259151E-16
3.260000E+03	1.767957E-15	1.219491E-16
3.270000E+03	1.829266E-15	1.183664E-16
3.280000E+03	1.896166E-15	1.151644E-16
3.290000E+03	1.968702E-15	1.123308E-16
3.300000E+03	2.046679E-15	1.098408E-16
3.310000E+03	2.130340E-15	1.076965E-16
3.320000E+03	2.219374E-15	1.058704E-16
3.330000E+03	2.313768E-15	1.043512E-16
3.340000E+03	2.413311E-15	1.031094E-16
3.350000E+03	2.517745E-15	1.020948E-16
3.360000E+03	2.626766E-15	1.012444E-16
3.370000E+03	2.740193E-15	1.004957E-16
3.373818E+03	2.876935E-15	9.803728E-16
3.378507E+03	2.926604E-15	9.857408E-16
3.383186E+03	3.167104E-15	1.019316E-15
3.387875E+03	3.133372E-15	9.115886E-16
3.392554E+03	3.204276E-15	7.990756E-16
3.397242E+03	3.176478E-15	8.445271E-16
3.401921E+03	3.122725E-15	8.377643E-16
3.406610E+03	3.324205E-15	8.165993E-16
3.411289E+03	3.443068E-15	7.814453E-16
3.415978E+03	3.404048E-15	7.674746E-16
3.420657E+03	3.334422E-15	5.923014E-16
3.425336E+03	3.498135E-15	5.255308E-16
3.430025E+03	3.603799E-15	5.705710E-16
3.434704E+03	3.651255E-15	5.705016E-16
3.439392E+03	3.783296E-15	4.536267E-16
3.444071E+03	4.021807E-15	4.001763E-16
3.448760E+03	4.188628E-15	3.772438E-16
3.453439E+03	4.421579E-15	4.188818E-16
3.458128E+03	4.610270E-15	4.177806E-16
3.462807E+03	4.754832E-15	4.742855E-16
3.467496E+03	4.869303E-15	4.620464E-16
3.472175E+03	4.847624E-15	5.299142E-16
3.476863E+03	4.753860E-15	5.289295E-16
3.481542E+03	4.680603E-15	5.267617E-16
3.486221E+03	4.536753E-15	5.306189E-16
3.490910E+03	4.443976E-15	5.261506E-16
3.495589E+03	4.317452E-15	5.225717E-16
3.500278E+03	4.096978E-15	4.822677E-16
3.504957E+03	3.875989E-15	4.730701E-16
3.509646E+03	3.696226E-15	4.038378E-16
3.514325E+03	3.501774E-15	3.629153E-16
3.519013E+03	3.343826E-15	3.145104E-16
3.523692E+03	3.207903E-15	2.473646E-16
3.528381E+03	3.088727E-15	2.396956E-16
3.533060E+03	3.062880E-15	2.301434E-16
3.537739E+03	3.096798E-15	2.714797E-16
3.542428E+03	3.172599E-15	3.062034E-16
3.547107E+03	3.295011E-15	2.881487E-16
3.551796E+03	3.502728E-15	2.982894E-16
3.556474E+03	3.731421E-15	3.054980E-16
3.561163E+03	3.915526E-15	3.272681E-16
3.565842E+03	4.049469E-15	4.034235E-16
3.570531E+03	4.207767E-15	4.648230E-16
3.575210E+03	4.361661E-15	4.836437E-16
3.579899E+03	4.409540E-15	4.714316E-16
3.584578E+03	4.388877E-15	4.247973E-16
3.589267E+03	4.360354E-15	3.774691E-16
3.593945E+03	4.276290E-15	4.032398E-16
3.598624E+03	4.165989E-15	4.486974E-16
3.603313E+03	4.072366E-15	5.008866E-16
3.607992E+03	3.972660E-15	5.704894E-16
3.612681E+03	3.909865E-15	5.074850E-16
3.617360E+03	3.862981E-15	4.331381E-16
3.622049E+03	3.864062E-15	3.864664E-16
3.626728E+03	3.873091E-15	3.847167E-16
3.631417E+03	3.913448E-15	4.969330E-16
3.636095E+03	3.991532E-15	5.312651E-16
3.640784E+03	4.092937E-15	5.356086E-16
3.645463E+03	4.197194E-15	5.311226E-16
3.650152E+03	4.329321E-15	4.808262E-16
3.654831E+03	4.512460E-15	3.664016E-16
3.659510E+03	4.702545E-15	3.688068E-16
3.664199E+03	4.871051E-15	4.590082E-16
3.668878E+03	5.015473E-15	5.255359E-16
3.673566E+03	5.138811E-15	5.541944E-16
3.678245E+03	5.236824E-15	4.785618E-16
3.682934E+03	5.299399E-15	4.546252E-16
3.687613E+03	5.335191E-15	4.769946E-16
3.692302E+03	5.334719E-15	5.011425E-16
3.696981E+03	5.301982E-15	5.230647E-16
3.701670E+03	5.237984E-15	5.263349E-16
3.706349E+03	5.157380E-15	5.222279E-16
3.711038E+03	5.028803E-15	4.672155E-16
3.715716E+03	4.835013E-15	3.913109E-16
3.720395E+03	4.618010E-15	3.263950E-16
3.725084E+03	4.388240E-15	3.318544E-16
3.729763E+03	4.077158E-15	3.345154E-16
3.734452E+03	3.734044E-15	3.149470E-16
3.739131E+03	3.365977E-15	2.439207E-16
3.743820E+03	2.954320E-15	1.786498E-16
3.748499E+03	2.564476E-15	1.382075E-16
3.753188E+03	2.187702E-15	1.379139E-16
3.757866E+03	1.837762E-15	1.441035E-16
3.762555E+03	1.546554E-15	1.368064E-16
3.767234E+03	1.313613E-15	1.421795E-16
3.771923E+03	1.145978E-15	1.385260E-16
3.776602E+03	1.009809E-15	1.417442E-16
3.781281E+03	9.194390E-16	1.464656E-16
3.785970E+03	8.619615E-16	1.326726E-16
3.790649E+03	8.392993E-16	1.256173E-16
3.795338E+03	8.485844E-16	1.261900E-16
3.800016E+03	8.736640E-16	1.307954E-16
3.804705E+03	9.275535E-16	1.403674E-16
3.809384E+03	9.978597E-16	1.433000E-16
3.814073E+03	1.084381E-15	1.521767E-16
3.818752E+03	1.162806E-15	1.685242E-16
3.823441E+03	1.236222E-15	1.676240E-16
3.828120E+03	1.317979E-15	1.803583E-16
3.832809E+03	1.403715E-15	1.831324E-16
3.837487E+03	1.510508E-15	1.872564E-16
3.842166E+03	1.640682E-15	2.206509E-16
3.846855E+03	1.810050E-15	2.330760E-16
3.851534E+03	2.018543E-15	2.507291E-16
3.856223E+03	2.322499E-15	3.242661E-16
3.860902E+03	2.718382E-15	3.582195E-16
3.865591E+03	3.168210E-15	3.590254E-16
3.870270E+03	3.716800E-15	3.452336E-16
3.874959E+03	4.310398E-15	3.473056E-16
3.879637E+03	4.915850E-15	4.006014E-16
3.884326E+03	5.513813E-15	5.252917E-16
3.889005E+03	6.056519E-15	6.232084E-16
3.893694E+03	6.563102E-15	6.870891E-16
3.898373E+03	7.002909E-15	6.960283E-16
3.903052E+03	7.393786E-15	6.448698E-16
3.907741E+03	7.783410E-15	6.629621E-16
3.912419E+03	8.137448E-15	7.077077E-16
3.917108E+03	8.466803E-15	7.972953E-16
3.921787E+03	8.811969E-15	9.147031E-16
3.926476E+03	9.171424E-15	9.448546E-16
3.931155E+03	9.550080E-15	9.150610E-16
3.935844E+03	9.985295E-15	8.478232E-16
3.940523E+03	1.045810E-14	8.199004E-16
3.945212E+03	1.096990E-14	8.367456E-16
3.949891E+03	1.151509E-14	9.428772E-16
3.954579E+03	1.213872E-14	9.932770E-16
3.959258E+03	1.279241E-14	9.948040E-16
3.963937E+03	1.348095E-14	9.800353E-16
3.968626E+03	1.418181E-14	9.171271E-16
3.973305E+03	1.490567E-14	9.333322E-16
3.977994E+03	1.563038E-14	9.565865E-16
3.982673E+03	1.628954E-14	9.967516E-16
3.987362E+03	1.685975E-14	1.022892E-15
3.992041E+03	1.730636E-14	1.027507E-15
3.996729E+03	1.761782E-14	9.904570E-16
4.001408E+03	1.782690E-14	9.855948E-16
4.006097E+03	1.798913E-14	9.998028E-16
4.010776E+03	1.806173E-14	1.020167E-15
4.015465E+03	1.808370E-14	1.021969E-15
4.020144E+03	1.810617E-14	1.007811E-15
4.024823E+03	1.810433E-14	1.021770E-15
4.029512E+03	1.810835E-14	1.042293E-15
4.034190E+03	1.810191E-14	1.041946E-15
4.038879E+03	1.807704E-14	1.038657E-15
4.043558E+03	1.806125E-14	1.034499E-15
4.048247E+03	1.800647E-14	1.025825E-15
4.052926E+03	1.794142E-14	1.016230E-15
4.057615E+03	1.786065E-14	9.925386E-16
4.062294E+03	1.773231E-14	1.001451E-15
4.066983E+03	1.757253E-14	9.968540E-16
4.071662E+03	1.742169E-14	9.651582E-16
4.076350E+03	1.725626E-14	9.229009E-16
4.081029E+03	1.708758E-14	9.009189E-16
4.085708E+03	1.694279E-14	8.955107E-16
4.090397E+03	1.677566E-14	9.034878E-16
4.095076E+03	1.660747E-14	9.072197E-16
4.099765E+03	1.641626E-14	8.992677E-16
4.104444E+03	1.620925E-14	8.839151E-16
4.109133E+03	1.594824E-14	8.582818E-16
4.113811E+03	1.569798E-14	8.497632E-16
4.118500E+03	1.545260E-14	8.460248E-16
4.123179E+03	1.522229E-14	8.369960E-16
4.127868E+03	1.500281E-14	8.287149E-16
4.132547E+03	1.478216E-14	8.107098E-16
4.137236E+03	1.457897E-14	7.884039E-16
4.141915E+03	1.437709E-14	7.582679E-16
4.146594E+03	1.417689E-14	7.434288E-16
4.151283E+03	1.402543E-14	7.343230E-16
4.155961E+03	1.389498E-14	7.208680E-16
4.160650E+03	1.374631E-14	7.016987E-16
4.165329E+03	1.360643E-14	6.856910E-16
4.170018E+03	1.347922E-14	6.677642E-16
4.174697E+03	1.338107E-14	6.610250E-16
4.179386E+03	1.328378E-14	6.685752E-16
4.184065E+03	1.318590E-14	6.677462E-16
4.188753E+03	1.307087E-14	6.578383E-16
4.193432E+03	1.297670E-14	6.445543E-16
4.198121E+03	1.288628E-14	6.327412E-16
4.202800E+03	1.279549E-14	6.303119E-16
4.207479E+03	1.269313E-14	6.193516E-16
4.212168E+03	1.259811E-14	5.920545E-16
4.216847E+03	1.248880E-14	5.887831E-16
4.221536E+03	1.237380E-14	5.925467E-16
4.226215E+03	1.223764E-14	5.943657E-16
4.230904E+03	1.210389E-14	5.706926E-16
4.235582E+03	1.197990E-14	5.667226E-16
4.240271E+03	1.186569E-14	5.889181E-16
4.244950E+03	1.176262E-14	5.846614E-16
4.249639E+03	1.164632E-14	5.758553E-16
4.254318E+03	1.153180E-14	5.675457E-16
4.259007E+03	1.141957E-14	5.609446E-16
4.263686E+03	1.134062E-14	5.573751E-16
4.268364E+03	1.125608E-14	5.362284E-16
4.273053E+03	1.116121E-14	4.974694E-16
4.277732E+03	1.106071E-14	4.914997E-16
4.282421E+03	1.098915E-14	4.842552E-16
4.287100E+03	1.091742E-14	4.409885E-16
4.291789E+03	1.081244E-14	4.229262E-16
4.296468E+03	1.066374E-14	4.115085E-16
4.301157E+03	1.048001E-14	4.344296E-16
4.305836E+03	1.023689E-14	4.403177E-16
4.310525E+03	9.939565E-15	4.346079E-16
4.315203E+03	9.611427E-15	4.211726E-16
4.319892E+03	9.298103E-15	3.999441E-16
4.324571E+03	8.996441E-15	3.806720E-16
4.329250E+03	8.679173E-15	3.851314E-16
4.333939E+03	8.333867E-15	4.582839E-16
4.338618E+03	7.968693E-15	4.669478E-16
4.343307E+03	7.619349E-15	4.573019E-16
4.347985E+03	7.307303E-15	4.230306E-16
4.352674E+03	7.060487E-15	3.989446E-16
4.357353E+03	6.917845E-15	3.675068E-16
4.362042E+03	6.896684E-15	3.442450E-16
4.366721E+03	6.980277E-15	3.239397E-16
4.371410E+03	7.149470E-15	3.347554E-16
4.376089E+03	7.417043E-15	3.327681E-16
4.380778E+03	7.768463E-15	2.837207E-16
4.385457E+03	8.207548E-15	3.227669E-16
4.390135E+03	8.683855E-15	3.645405E-16
4.394824E+03	9.166785E-15	4.075312E-16
4.399503E+03	9.647524E-15	4.140785E-16
4.404192E+03	1.012664E-14	4.159048E-16
4.408871E+03	1.055317E-14	4.238864E-16
4.413560E+03	1.091796E-14	4.320240E-16
4.418239E+03	1.121848E-14	3.999097E-16
4.422928E+03	1.145083E-14	3.917662E-16
4.427606E+03	1.161733E-14	4.057577E-16
4.432295E+03	1.176009E-14	3.843524E-16
4.436974E+03	1.184593E-14	3.459798E-16
4.441663E+03	1.188817E-14	3.104133E-16
4.446342E+03	1.186635E-14	3.122588E-16
4.451021E+03	1.179972E-14	3.063665E-16
4.455710E+03	1.169540E-14	2.986583E-16
4.460389E+03	1.156625E-14	2.795962E-16
4.465078E+03	1.143257E-14	2.611911E-16
4.469756E+03	1.134549E-14	2.623736E-16
4.474445E+03	1.129254E-14	2.433732E-16
4.479124E+03	1.128435E-14	2.393009E-16
4.483813E+03	1.130148E-14	2.623833E-16
4.488492E+03	1.137507E-14	2.580242E-16
4.493181E+03	1.148430E-14	2.482311E-16
4.497860E+03	1.164172E-14	2.493474E-16
4.502549E+03	1.185574E-14	2.555285E-16
4.507227E+03	1.212056E-14	2.718836E-16
4.511906E+03	1.243163E-14	3.127673E-16
4.516595E+03	1.276630E-14	3.387760E-16
4.521274E+03	1.313784E-14	3.451016E-16
4.525963E+03	1.355949E-14	3.534015E-16
4.530642E+03	1.402225E-14	3.519741E-16
4.535331E+03	1.450687E-14	3.487520E-16
4.540010E+03	1.493286E-14	3.545785E-16
4.544699E+03	1.531571E-14	3.680259E-16
4.549377E+03	1.564197E-14	3.801593E-16
4.554066E+03	1.589083E-14	3.881245E-16
4.558745E+03	1.605302E-14	4.153817E-16
4.563434E+03	1.616573E-14	4.597102E-16
4.568113E+03	1.622170E-14	4.919233E-16
4.572792E+03	1.618243E-14	4.951600E-16
4.577481E+03	1.605417E-14	5.058005E-16
4.582160E+03	1.586783E-14	5.465481E-16
4.586849E+03	1.566756E-14	5.556935E-16
4.591527E+03	1.548762E-14	5.605547E-16
4.596216E+03	1.535172E-14	5.735766E-16
4.600895E+03	1.527988E-14	5.780120E-16
4.605584E+03	1.526686E-14	5.602518E-16
4.610263E+03	1.535484E-14	5.286702E-16
4.614952E+03	1.552946E-14	4.943440E-16
4.619631E+03	1.579512E-14	4.978290E-16
4.624320E+03	1.612447E-14	5.846122E-16
4.628998E+03	1.649666E-14	6.875077E-16
4.633677E+03	1.690364E-14	7.830082E-16
4.638366E+03	1.732143E-14	8.280493E-16
4.643045E+03	1.771111E-14	8.425572E-16
4.647734E+03	1.808030E-14	8.499261E-16
4.652413E+03	1.842954E-14	8.512341E-16
4.657102E+03	1.870428E-14	8.453848E-16
4.661781E+03	1.893964E-14	9.021258E-16
4.666470E+03	1.914488E-14	9.804181E-16
4.671148E+03	1.935705E-14	1.024431E-15
4.675837E+03	1.955580E-14	1.002787E-15
4.680516E+03	1.976149E-14	9.349737E-16
4.685205E+03	1.995195E-14	8.995910E-16
4.689884E+03	2.013104E-14	9.292280E-16
4.694573E+03	2.028952E-14	9.952677E-16
4.699252E+03	2.042759E-14	1.033204E-15
4.703931E+03	2.055622E-14	1.057717E-15
4.708619E+03	2.068814E-14	1.024206E-15
4.713298E+03	2.082162E-14	9.822231E-16
4.717987E+03	2.093656E-14	9.633560E-16
4.722666E+03	2.099864E-14	9.776206E-16
4.727355E+03	2.100069E-14	9.916939E-16
4.732034E+03	2.092314E-14	1.005167E-15
4.736723E+03	2.076617E-14	9.898648E-16
4.741402E+03	2.051937E-14	9.519533E-16
4.746091E+03	2.019739E-14	9.278880E-16
4.750769E+03	1.981323E-14	9.025849E-16
4.755448E+03	1.937606E-14	8.776925E-16
4.760137E+03	1.893095E-14	8.813088E-16
4.764816E+03	1.847085E-14	8.687758E-16
4.769505E+03	1.799572E-14	8.364960E-16
4.774184E+03	1.750625E-14	8.176796E-16
4.778873E+03	1.702206E-14	8.016829E-16
4.783551E+03	1.653339E-14	7.862086E-16
4.788240E+03	1.601165E-14	7.649222E-16
4.792919E+03	1.545919E-14	7.441935E-16
4.797608E+03	1.489364E-14	7.235773E-16
4.802287E+03	1.430963E-14	7.018357E-16
4.806976E+03	1.369935E-14	6.663785E-16
4.811655E+03	1.311702E-14	6.322940E-16
4.816344E+03	1.256229E-14	6.099956E-16
4.821023E+03	1.206886E-14	5.899391E-16
4.825701E+03	1.161002E-14	5.680205E-16
4.830390E+03	1.118435E-14	5.514261E-16
4.835069E+03	1.078598E-14	5.349967E-16
4.839758E+03	1.042847E-14	5.216399E-16
4.844437E+03	1.008696E-14	5.140941E-16
4.849126E+03	9.783262E-15	5.043718E-16
4.853805E+03	9.507642E-15	4.962879E-16
4.858494E+03	9.260819E-15	4.859859E-16
4.863172E+03	9.050767E-15	4.787006E-16
4.867861E+03	8.917067E-15	4.880534E-16
4.872540E+03	8.853544E-15	5.247800E-16
4.877219E+03	8.856936E-15	5.348459E-16
4.881908E+03	8.923648E-15	5.396384E-16
4.886587E+03	9.046359E-15	5.454828E-16
4.891276E+03	9.228427E-15	5.515557E-16
4.895955E+03	9.477272E-15	5.636478E-16
4.900644E+03	9.807422E-15	5.863603E-16
4.905322E+03	1.019840E-14	6.135936E-16
4.910011E+03	1.065523E-14	6.388096E-16
4.914690E+03	1.117615E-14	6.584227E-16
4.919379E+03	1.173658E-14	6.632175E-16
4.924058E+03	1.233126E-14	6.870561E-16
4.928747E+03	1.299305E-14	7.254780E-16
4.933426E+03	1.371316E-14	7.689863E-16
4.938105E+03	1.448755E-14	8.142293E-16
4.942793E+03	1.530585E-14	8.584708E-16
4.947472E+03	1.615414E-14	8.996286E-16
4.952161E+03	1.701670E-14	9.418862E-16
4.956840E+03	1.787894E-14	9.903279E-16
4.961529E+03	1.872886E-14	1.043984E-15
4.966208E+03	1.953559E-14	1.099809E-15
4.970897E+03	2.031274E-14	1.161951E-15
4.975576E+03	2.105040E-14	1.215307E-15
4.980265E+03	2.175536E-14	1.255125E-15
4.984943E+03	2.240597E-14	1.297767E-15
4.989632E+03	2.298887E-14	1.345992E-15
4.994311E+03	2.351626E-14	1.396427E-15
4.998990E+03	2.396481E-14	1.440302E-15
5.003679E+03	2.430967E-14	1.468936E-15
5.008358E+03	2.455480E-14	1.483548E-15
5.013047E+03	2.468378E-14	1.494509E-15
5.017726E+03	2.468895E-14	1.524221E-15
5.022414E+03	2.451908E-14	1.544936E-15
5.027093E+03	2.419508E-14	1.550635E-15
5.031782E+03	2.370420E-14	1.528727E-15
5.036461E+03	2.306890E-14	1.483186E-15
5.041150E+03	2.230789E-14	1.417783E-15
5.045829E+03	2.147642E-14	1.369206E-15
5.050518E+03	2.060768E-14	1.342022E-15
5.055197E+03	1.972835E-14	1.329542E-15
5.059876E+03	1.886145E-14	1.325371E-15
5.064564E+03	1.801510E-14	1.263201E-15
5.069243E+03	1.720901E-14	1.165230E-15
5.073932E+03	1.646420E-14	1.088745E-15
5.078611E+03	1.582874E-14	1.040178E-15
5.083300E+03	1.534254E-14	1.031915E-15
5.087979E+03	1.501009E-14	1.043278E-15
5.092668E+03	1.484266E-14	1.045770E-15
5.097347E+03	1.482919E-14	1.024758E-15
5.102035E+03	1.495073E-14	1.004715E-15
5.106714E+03	1.518749E-14	9.753869E-16
5.111403E+03	1.548836E-14	9.576674E-16
5.116082E+03	1.581195E-14	9.642172E-16
5.120761E+03	1.615941E-14	9.835468E-16
5.125450E+03	1.650577E-14	1.001605E-15
5.130129E+03	1.682219E-14	1.007287E-15
5.134818E+03	1.708783E-14	1.009505E-15
5.139497E+03	1.729820E-14	1.010351E-15
5.144185E+03	1.746786E-14	1.018028E-15
5.148864E+03	1.758752E-14	1.022900E-15
5.153553E+03	1.766047E-14	1.024291E-15
5.158232E+03	1.772053E-14	1.024392E-15
5.162921E+03	1.777083E-14	1.024086E-15
5.167600E+03	1.780198E-14	1.024662E-15
5.172289E+03	1.780445E-14	1.024466E-15
5.176968E+03	1.777847E-14	1.019270E-15
5.181646E+03	1.769721E-14	1.010080E-15
5.186335E+03	1.757351E-14	9.988076E-16
5.191014E+03	1.742028E-14	9.865330E-16
5.195703E+03	1.727537E-14	9.757470E-16
5.200382E+03	1.711525E-14	9.636067E-16
5.205071E+03	1.695088E-14	9.502269E-16
5.209750E+03	1.679808E-14	9.372053E-16
5.214439E+03	1.665356E-14	9.241575E-16
5.219118E+03	1.652365E-14	9.119073E-16
5.223806E+03	1.640506E-14	9.032770E-16
5.228485E+03	1.631814E-14	8.927366E-16
5.233174E+03	1.628134E-14	8.848279E-16
5.237853E+03	1.627590E-14	8.774412E-16
5.242532E+03	1.632339E-14	8.696729E-16
5.247221E+03	1.640027E-14	8.624483E-16
5.251900E+03	1.651118E-14	8.611628E-16
5.256589E+03	1.666517E-14	8.611992E-16
5.261267E+03	1.686680E-14	8.639408E-16
5.265956E+03	1.713895E-14	8.666429E-16
5.270635E+03	1.745369E-14	8.701444E-16
5.275324E+03	1.780461E-14	8.780491E-16
5.280003E+03	1.815173E-14	8.849874E-16
5.284692E+03	1.850724E-14	8.923650E-16
5.289371E+03	1.884363E-14	9.009963E-16
5.294060E+03	1.914252E-14	9.059318E-16
5.298739E+03	1.941334E-14	9.125965E-16
5.303417E+03	1.964088E-14	9.120400E-16
5.308106E+03	1.984358E-14	9.038359E-16
5.312785E+03	2.002622E-14	9.043375E-16
5.317474E+03	2.018268E-14	9.095947E-16
5.322153E+03	2.032686E-14	9.069737E-16
5.326842E+03	2.045567E-14	9.049790E-16
5.331521E+03	2.057838E-14	8.959020E-16
5.336210E+03	2.068887E-14	8.824910E-16
5.340888E+03	2.079787E-14	8.699395E-16
5.345577E+03	2.089170E-14	8.494969E-16
5.350256E+03	2.096751E-14	8.329875E-16
5.354945E+03	2.106446E-14	8.266667E-16
5.359624E+03	2.118861E-14	8.142486E-16
5.364303E+03	2.130824E-14	7.941975E-16
5.368992E+03	2.140832E-14	7.772621E-16
5.373671E+03	2.150702E-14	7.584363E-16
5.378359E+03	2.161176E-14	7.552142E-16
5.383038E+03	2.171363E-14	7.446167E-16
5.387727E+03	2.178864E-14	7.294347E-16
5.392406E+03	2.183695E-14	7.139126E-16
5.397095E+03	2.183618E-14	7.023292E-16
5.401774E+03	2.178507E-14	6.824087E-16
5.406463E+03	2.167475E-14	6.611261E-16
5.411142E+03	2.153079E-14	6.404527E-16
5.415831E+03	2.137699E-14	6.289894E-16
5.420509E+03	2.119266E-14	6.070717E-16
5.425188E+03	2.101199E-14	5.753420E-16
