#wls	flux	fluxerr
1.600000E+03	4.929726E-16	2.882740E-16
1.640000E+03	4.884951E-16	2.701677E-16
1.680000E+03	4.841359E-16	2.518111E-16
1.720000E+03	4.799191E-16	2.332927E-16
1.760000E+03	4.758842E-16	2.147368E-16
1.800000E+03	4.720026E-16	1.962776E-16
1.840000E+03	4.686441E-16	1.782682E-16
1.880000E+03	4.657733E-16	1.609584E-16
1.920000E+03	4.637895E-16	1.448636E-16
1.960000E+03	4.629186E-16	1.305624E-16
2.000000E+03	4.636686E-16	1.188589E-16
2.040000E+03	4.666050E-16	1.106263E-16
2.080000E+03	4.720313E-16	1.064999E-16
2.120000E+03	4.801500E-16	1.065501E-16
2.160000E+03	4.906973E-16	1.099900E-16
2.200000E+03	5.030550E-16	1.154636E-16
2.240000E+03	5.164928E-16	1.215077E-16
2.280000E+03	5.300177E-16	1.267748E-16
2.320000E+03	5.428063E-16	1.302306E-16
2.360000E+03	5.539433E-16	1.311264E-16
2.400000E+03	5.624562E-16	1.290406E-16
2.440000E+03	5.677085E-16	1.240266E-16
2.480000E+03	5.692701E-16	1.166487E-16
2.520000E+03	5.672234E-16	1.081028E-16
2.560000E+03	5.621894E-16	1.001835E-16
2.600000E+03	5.554303E-16	9.499549E-17
2.640000E+03	5.479650E-16	9.398309E-17
2.680000E+03	5.398967E-16	9.684100E-17
2.720000E+03	5.309484E-16	1.018890E-16
2.760000E+03	5.206726E-16	1.072195E-16
2.800000E+03	5.091989E-16	1.114581E-16
2.840000E+03	4.972112E-16	1.138870E-16
2.880000E+03	4.855981E-16	1.142804E-16
2.920000E+03	4.754921E-16	1.127715E-16
2.960000E+03	4.679661E-16	1.096508E-16
3.000000E+03	4.641282E-16	1.052826E-16
3.010000E+03	4.638960E-16	1.040429E-16
3.020000E+03	4.640070E-16	1.027585E-16
3.030000E+03	4.644834E-16	1.014350E-16
3.040000E+03	4.653492E-16	1.000781E-16
3.050000E+03	4.666307E-16	9.869353E-17
3.060000E+03	4.683566E-16	9.728716E-17
3.070000E+03	4.705587E-16	9.586488E-17
3.080000E+03	4.732717E-16	9.443269E-17
3.090000E+03	4.765947E-16	9.300855E-17
3.100000E+03	4.804500E-16	9.157496E-17
3.110000E+03	4.850666E-16	9.017302E-17
3.120000E+03	4.903165E-16	8.877489E-17
3.130000E+03	4.963800E-16	8.740979E-17
3.140000E+03	5.033236E-16	8.608410E-17
3.150000E+03	5.111594E-16	8.479410E-17
3.160000E+03	5.199674E-16	8.354719E-17
3.170000E+03	5.299619E-16	8.237037E-17
3.180000E+03	5.411153E-16	8.125034E-17
3.190000E+03	5.535969E-16	8.020343E-17
3.200000E+03	5.675220E-16	7.923539E-17
3.210000E+03	5.830811E-16	7.836029E-17
3.220000E+03	6.002711E-16	7.756382E-17
3.230000E+03	6.192947E-16	7.685782E-17
3.240000E+03	6.403645E-16	7.625184E-17
3.250000E+03	6.635555E-16	7.573613E-17
3.260000E+03	6.890872E-16	7.531599E-17
3.270000E+03	7.170282E-16	7.497760E-17
3.280000E+03	7.476736E-16	7.472959E-17
3.290000E+03	7.809100E-16	7.453758E-17
3.300000E+03	8.170933E-16	7.441366E-17
3.310000E+03	8.562314E-16	7.433585E-17
3.320000E+03	8.983813E-16	7.428888E-17
3.330000E+03	9.435592E-16	7.425638E-17
3.340000E+03	9.918416E-16	7.422647E-17
3.350000E+03	1.043079E-15	7.416546E-17
3.360000E+03	1.097156E-15	7.404371E-17
3.370000E+03	1.154113E-15	7.384386E-17
3.380000E+03	1.213475E-15	7.351527E-17
3.390000E+03	1.275125E-15	7.303874E-17
3.400000E+03	1.338492E-15	7.238028E-17
3.410000E+03	1.403021E-15	7.152100E-17
3.420000E+03	1.468042E-15	7.046044E-17
3.430000E+03	1.532914E-15	6.922777E-17
3.440000E+03	1.596801E-15	6.786565E-17
3.450000E+03	1.658786E-15	6.644783E-17
3.460000E+03	1.717964E-15	6.506656E-17
3.470000E+03	1.773612E-15	6.379652E-17
3.480000E+03	1.825071E-15	6.270567E-17
3.490000E+03	1.872036E-15	6.184279E-17
3.500000E+03	1.914657E-15	6.119027E-17
3.510000E+03	1.953230E-15	6.072191E-17
3.520000E+03	1.988544E-15	6.046309E-17
3.530000E+03	2.020706E-15	6.045047E-17
3.540000E+03	2.050511E-15	6.079386E-17
3.550000E+03	2.077552E-15	6.160145E-17
3.560000E+03	2.101788E-15	6.295064E-17
3.570000E+03	2.122503E-15	6.479935E-17
3.580000E+03	2.138831E-15	6.702903E-17
3.590000E+03	2.149093E-15	6.944535E-17
3.600000E+03	2.151860E-15	7.186722E-17
3.610000E+03	2.145785E-15	7.412513E-17
3.620000E+03	2.129792E-15	7.603220E-17
3.630000E+03	2.102934E-15	7.743041E-17
3.640000E+03	2.064921E-15	7.823160E-17
3.650000E+03	2.015301E-15	7.836865E-17
3.660000E+03	1.954553E-15	7.784816E-17
3.670000E+03	1.883286E-15	7.670368E-17
3.680000E+03	1.802928E-15	7.498985E-17
3.690000E+03	1.715607E-15	7.279803E-17
3.700000E+03	1.623563E-15	7.022295E-17
3.710000E+03	1.530038E-15	6.737490E-17
3.720000E+03	1.438213E-15	6.436940E-17
3.730000E+03	1.350999E-15	6.132771E-17
3.740000E+03	1.271029E-15	5.836385E-17
3.750000E+03	1.200532E-15	5.558582E-17
3.760000E+03	1.141137E-15	5.308350E-17
3.770000E+03	1.094009E-15	5.092309E-17
3.780000E+03	1.060120E-15	4.915962E-17
3.790000E+03	1.040406E-15	4.784172E-17
3.800000E+03	1.035582E-15	4.699727E-17
3.810000E+03	1.046749E-15	4.666109E-17
3.820000E+03	1.075083E-15	4.685754E-17
3.830000E+03	1.122239E-15	4.761310E-17
3.840000E+03	1.190159E-15	4.895181E-17
3.850000E+03	1.281263E-15	5.090089E-17
3.860000E+03	1.398199E-15	5.347028E-17
3.870000E+03	1.543865E-15	5.666335E-17
3.880000E+03	1.721023E-15	6.046558E-17
3.890000E+03	1.932039E-15	6.482841E-17
3.900000E+03	2.178523E-15	6.967128E-17
3.910000E+03	2.460913E-15	7.486921E-17
3.920000E+03	2.778782E-15	8.024340E-17
3.930000E+03	3.129879E-15	8.556462E-17
3.940000E+03	3.510671E-15	9.059784E-17
3.950000E+03	3.915277E-15	9.507856E-17
3.960000E+03	4.336185E-15	9.882288E-17
3.970000E+03	4.763266E-15	1.017428E-16
3.980000E+03	5.183232E-15	1.037989E-16
3.990000E+03	5.580294E-15	1.051524E-16
4.000000E+03	5.939113E-15	1.060927E-16
4.010000E+03	6.247277E-15	1.066970E-16
4.020000E+03	6.496386E-15	1.071363E-16
4.030000E+03	6.682949E-15	1.076504E-16
4.040000E+03	6.812963E-15	1.081640E-16
4.050000E+03	6.897051E-15	1.087414E-16
4.060000E+03	6.947079E-15	1.095731E-16
4.070000E+03	6.974494E-15	1.104257E-16
4.080000E+03	6.989446E-15	1.111603E-16
4.090000E+03	6.999055E-15	1.117596E-16
4.100000E+03	7.006764E-15	1.118476E-16
4.110000E+03	7.013823E-15	1.111687E-16
4.120000E+03	7.018811E-15	1.097128E-16
4.130000E+03	7.020579E-15	1.074825E-16
4.140000E+03	7.016547E-15	1.047715E-16
4.150000E+03	7.003607E-15	1.020249E-16
4.160000E+03	6.981412E-15	9.939323E-17
4.170000E+03	6.949145E-15	9.719962E-17
4.180000E+03	6.905668E-15	9.577121E-17
4.190000E+03	6.851208E-15	9.475736E-17
4.200000E+03	6.785030E-15	9.388786E-17
4.210000E+03	6.706182E-15	9.313353E-17
4.220000E+03	6.613915E-15	9.216316E-17
4.230000E+03	6.507670E-15	9.091046E-17
4.240000E+03	6.387050E-15	8.959743E-17
4.250000E+03	6.254015E-15	8.825994E-17
4.260000E+03	6.111088E-15	8.713558E-17
4.270000E+03	5.962337E-15	8.651456E-17
4.280000E+03	5.814412E-15	8.617636E-17
4.290000E+03	5.674742E-15	8.591206E-17
4.300000E+03	5.550890E-15	8.562972E-17
4.310000E+03	5.451061E-15	8.500619E-17
4.320000E+03	5.383324E-15	8.380463E-17
4.330000E+03	5.354975E-15	8.196380E-17
4.340000E+03	5.372798E-15	7.941795E-17
4.350000E+03	5.442026E-15	7.625689E-17
4.360000E+03	5.562345E-15	7.276322E-17
4.370000E+03	5.724949E-15	6.945215E-17
4.380000E+03	5.911933E-15	6.763431E-17
4.390000E+03	6.093595E-15	6.935820E-17
4.400000E+03	6.254654E-15	7.427153E-17
4.410000E+03	6.402564E-15	7.980790E-17
4.420000E+03	6.542823E-15	8.416146E-17
4.430000E+03	6.674890E-15	8.649373E-17
4.440000E+03	6.795672E-15	8.690155E-17
4.450000E+03	6.902675E-15	8.593060E-17
4.460000E+03	6.996481E-15	8.398335E-17
4.470000E+03	7.079570E-15	8.177854E-17
4.480000E+03	7.157862E-15	8.016202E-17
4.490000E+03	7.243657E-15	7.938594E-17
4.500000E+03	7.350366E-15	8.002781E-17
4.510000E+03	7.486009E-15	8.271972E-17
4.520000E+03	7.650190E-15	8.681616E-17
4.530000E+03	7.834924E-15	9.157872E-17
4.540000E+03	8.026424E-15	9.657902E-17
4.550000E+03	8.206514E-15	1.008657E-16
4.560000E+03	8.355240E-15	1.036960E-16
4.570000E+03	8.457769E-15	1.049567E-16
4.580000E+03	8.511552E-15	1.048473E-16
4.590000E+03	8.523944E-15	1.042505E-16
4.600000E+03	8.512191E-15	1.042485E-16
4.610000E+03	8.505884E-15	1.051278E-16
4.620000E+03	8.538041E-15	1.071409E-16
4.630000E+03	8.634025E-15	1.104118E-16
4.640000E+03	8.804321E-15	1.139835E-16
4.650000E+03	9.049488E-15	1.168113E-16
4.660000E+03	9.361543E-15	1.183922E-16
4.670000E+03	9.722857E-15	1.186254E-16
4.680000E+03	1.010670E-14	1.182953E-16
4.690000E+03	1.048174E-14	1.184513E-16
4.700000E+03	1.081592E-14	1.190162E-16
4.710000E+03	1.107687E-14	1.201456E-16
4.720000E+03	1.123593E-14	1.221448E-16
4.730000E+03	1.127385E-14	1.237414E-16
4.740000E+03	1.117986E-14	1.240632E-16
4.750000E+03	1.094922E-14	1.231389E-16
4.760000E+03	1.058245E-14	1.205344E-16
4.770000E+03	1.008791E-14	1.165931E-16
4.780000E+03	9.484504E-15	1.120717E-16
4.790000E+03	8.802355E-15	1.066532E-16
4.800000E+03	8.077339E-15	1.003665E-16
4.810000E+03	7.347363E-15	9.369873E-17
4.820000E+03	6.651303E-15	8.672159E-17
4.830000E+03	6.021232E-15	7.976192E-17
4.840000E+03	5.479242E-15	7.333233E-17
4.850000E+03	5.040125E-15	6.764210E-17
4.860000E+03	4.712697E-15	6.294161E-17
4.870000E+03	4.502251E-15	5.947092E-17
4.880000E+03	4.413424E-15	5.721176E-17
4.890000E+03	4.453780E-15	5.627442E-17
4.900000E+03	4.632941E-15	5.689786E-17
4.910000E+03	4.959820E-15	5.916238E-17
4.920000E+03	5.444756E-15	6.354440E-17
4.930000E+03	6.096925E-15	7.074771E-17
4.940000E+03	6.915324E-15	8.058389E-17
4.950000E+03	7.882327E-15	9.263748E-17
4.960000E+03	8.961098E-15	1.065924E-16
4.970000E+03	1.009482E-14	1.212856E-16
4.980000E+03	1.120744E-14	1.355088E-16
4.990000E+03	1.221050E-14	1.483587E-16
5.000000E+03	1.302111E-14	1.583313E-16
5.010000E+03	1.357437E-14	1.645792E-16
5.020000E+03	1.383467E-14	1.672109E-16
5.030000E+03	1.380597E-14	1.660628E-16
5.040000E+03	1.352573E-14	1.619899E-16
5.050000E+03	1.305742E-14	1.565198E-16
5.060000E+03	1.248014E-14	1.500691E-16
5.070000E+03	1.187268E-14	1.434433E-16
5.080000E+03	1.129929E-14	1.375595E-16
5.090000E+03	1.080497E-14	1.319769E-16
5.100000E+03	1.041883E-14	1.264825E-16
5.110000E+03	1.015329E-14	1.213562E-16
5.120000E+03	1.000200E-14	1.164943E-16
5.130000E+03	9.949314E-15	1.123868E-16
5.140000E+03	9.974062E-15	1.097468E-16
5.150000E+03	1.004800E-14	1.082340E-16
5.160000E+03	1.013997E-14	1.081331E-16
5.170000E+03	1.022351E-14	1.100839E-16
5.180000E+03	1.028242E-14	1.130169E-16
5.190000E+03	1.030914E-14	1.161546E-16
5.200000E+03	1.030331E-14	1.194480E-16
5.200001E+03	8.769363E-15	1.844848E-15
5.202656E+03	8.481929E-15	1.842576E-15
5.205321E+03	8.199801E-15	1.840406E-15
5.207976E+03	7.968808E-15	1.838561E-15
5.210641E+03	7.740195E-15	1.836778E-15
5.213297E+03	7.609326E-15	1.835489E-15
5.215952E+03	7.540270E-15	1.834495E-15
5.218617E+03	7.421329E-15	1.833290E-15
5.221272E+03	7.267391E-15	1.831958E-15
5.223937E+03	7.095057E-15	1.830575E-15
5.226592E+03	7.000075E-15	1.792015E-15
5.229247E+03	6.932139E-15	1.738145E-15
5.231912E+03	6.831213E-15	1.759517E-15
5.234567E+03	6.759462E-15	1.746141E-15
5.237232E+03	6.733410E-15	1.771059E-15
5.239887E+03	6.685425E-15	1.900454E-15
5.242552E+03	6.691499E-15	1.978341E-15
5.245207E+03	6.771155E-15	1.941147E-15
5.247862E+03	6.851260E-15	1.687327E-15
5.250527E+03	6.963628E-15	1.437196E-15
5.253182E+03	7.107118E-15	1.479251E-15
5.255847E+03	7.222212E-15	1.536890E-15
5.258502E+03	7.367781E-15	1.630347E-15
5.261167E+03	7.540029E-15	1.586805E-15
5.263822E+03	7.682402E-15	1.701232E-15
5.266477E+03	7.794920E-15	1.690732E-15
5.269142E+03	7.885600E-15	1.798344E-15
5.271797E+03	8.027723E-15	1.821981E-15
5.274462E+03	8.193109E-15	1.811864E-15
5.277118E+03	8.313554E-15	1.812727E-15
5.279783E+03	8.381214E-15	1.814987E-15
5.282438E+03	8.428611E-15	1.846865E-15
5.285093E+03	8.423807E-15	1.824216E-15
5.287758E+03	8.318058E-15	1.680932E-15
5.290413E+03	8.301427E-15	1.568851E-15
5.293078E+03	8.337779E-15	1.500801E-15
5.295733E+03	8.491526E-15	1.509673E-15
5.298388E+03	8.709343E-15	1.455861E-15
5.301053E+03	8.887021E-15	1.434641E-15
5.303708E+03	9.076671E-15	1.392807E-15
5.306373E+03	9.329550E-15	1.280555E-15
5.309028E+03	9.444879E-15	1.198028E-15
5.311693E+03	9.488082E-15	9.839812E-16
5.314348E+03	9.620187E-15	9.858838E-16
5.317003E+03	9.805416E-15	8.292766E-16
5.319668E+03	9.968757E-15	7.839315E-16
5.322323E+03	1.008739E-14	9.234033E-16
5.324988E+03	1.016381E-14	9.164846E-16
5.327643E+03	1.029905E-14	9.614185E-16
5.330308E+03	1.040588E-14	1.028838E-15
5.332963E+03	1.056576E-14	1.150499E-15
5.335618E+03	1.068025E-14	1.164889E-15
5.338283E+03	1.068128E-14	1.170104E-15
5.340939E+03	1.064153E-14	1.268079E-15
5.343604E+03	1.071122E-14	1.383742E-15
5.346259E+03	1.070677E-14	1.390139E-15
5.348914E+03	1.064708E-14	1.400539E-15
5.351579E+03	1.064832E-14	1.414878E-15
5.354234E+03	1.064176E-14	1.465357E-15
5.356899E+03	1.067157E-14	1.462654E-15
5.359554E+03	1.072844E-14	1.500020E-15
5.362219E+03	1.086094E-14	1.491029E-15
5.364874E+03	1.096158E-14	1.498101E-15
5.367529E+03	1.096007E-14	1.479675E-15
5.370194E+03	1.095199E-14	1.381280E-15
5.372849E+03	1.102073E-14	1.372692E-15
5.375514E+03	1.116471E-14	1.334258E-15
5.378169E+03	1.121666E-14	1.253774E-15
5.380824E+03	1.129545E-14	1.150144E-15
5.383489E+03	1.143398E-14	1.120780E-15
5.386144E+03	1.160348E-14	1.101249E-15
5.388809E+03	1.166674E-14	1.036522E-15
5.391464E+03	1.175558E-14	9.046027E-16
5.394129E+03	1.186145E-14	9.438889E-16
5.396784E+03	1.192453E-14	9.459772E-16
5.399440E+03	1.202239E-14	9.237680E-16
5.402105E+03	1.208792E-14	8.318642E-16
5.404760E+03	1.208317E-14	8.542678E-16
5.407425E+03	1.205492E-14	8.113777E-16
5.410080E+03	1.198256E-14	8.130377E-16
5.412745E+03	1.187804E-14	7.854428E-16
5.415400E+03	1.180368E-14	7.729232E-16
5.418055E+03	1.180525E-14	7.710709E-16
5.420720E+03	1.186766E-14	8.026485E-16
5.423375E+03	1.188623E-14	9.469073E-16
5.426040E+03	1.180333E-14	9.599888E-16
5.428695E+03	1.170123E-14	9.172728E-16
5.431350E+03	1.159601E-14	1.070515E-15
5.434015E+03	1.148054E-14	1.091524E-15
5.436670E+03	1.137459E-14	1.062973E-15
5.439335E+03	1.135868E-14	1.134129E-15
5.441990E+03	1.140460E-14	1.082798E-15
5.444655E+03	1.145155E-14	1.064464E-15
5.447310E+03	1.144809E-14	1.063455E-15
5.449965E+03	1.143043E-14	1.021233E-15
5.452630E+03	1.154451E-14	1.048255E-15
5.455285E+03	1.163554E-14	1.149972E-15
5.457950E+03	1.169851E-14	1.218776E-15
5.460605E+03	1.178647E-14	1.219132E-15
5.463261E+03	1.192671E-14	1.231629E-15
5.465926E+03	1.213880E-14	1.248470E-15
5.468581E+03	1.233220E-14	1.256877E-15
5.471246E+03	1.248983E-14	1.184290E-15
5.473901E+03	1.264491E-14	1.166526E-15
5.476566E+03	1.285102E-14	1.160571E-15
5.479221E+03	1.311055E-14	1.009083E-15
5.481876E+03	1.341614E-14	9.793764E-16
5.484541E+03	1.368497E-14	9.806735E-16
5.487196E+03	1.391711E-14	9.025152E-16
5.489861E+03	1.411377E-14	9.055127E-16
5.492516E+03	1.422886E-14	8.877644E-16
5.495181E+03	1.437298E-14	8.830858E-16
5.497836E+03	1.452429E-14	9.016680E-16
5.500491E+03	1.459898E-14	8.521925E-16
5.503156E+03	1.464081E-14	7.423566E-16
5.505811E+03	1.465349E-14	6.418196E-16
5.508476E+03	1.462004E-14	6.385330E-16
5.511131E+03	1.450418E-14	6.054888E-16
5.513786E+03	1.445626E-14	5.718118E-16
5.516451E+03	1.438168E-14	5.700447E-16
5.519106E+03	1.427932E-14	6.016089E-16
5.521771E+03	1.425205E-14	5.958344E-16
5.524426E+03	1.416914E-14	5.978671E-16
5.527092E+03	1.403909E-14	6.115486E-16
5.529747E+03	1.398289E-14	6.655257E-16
5.532402E+03	1.392793E-14	6.679958E-16
5.535067E+03	1.385969E-14	6.786725E-16
5.537722E+03	1.371663E-14	7.060003E-16
5.540387E+03	1.359779E-14	7.509093E-16
5.543042E+03	1.353455E-14	7.661983E-16
5.545707E+03	1.345203E-14	7.513253E-16
5.548362E+03	1.334667E-14	7.491958E-16
5.551017E+03	1.318834E-14	7.621775E-16
5.553682E+03	1.302287E-14	7.668911E-16
5.556337E+03	1.286597E-14	7.986576E-16
5.559002E+03	1.270915E-14	8.154375E-16
5.561657E+03	1.256811E-14	7.908411E-16
5.564312E+03	1.247288E-14	9.745806E-16
5.566977E+03	1.240294E-14	9.520146E-16
5.569632E+03	1.228618E-14	9.459247E-16
5.572297E+03	1.215867E-14	9.474656E-16
5.574952E+03	1.206250E-14	9.398514E-16
5.577617E+03	1.198413E-14	8.862568E-16
5.580272E+03	1.192515E-14	8.822694E-16
5.582927E+03	1.182842E-14	9.131543E-16
5.585592E+03	1.174336E-14	8.923976E-16
5.588248E+03	1.163740E-14	8.559920E-16
5.590913E+03	1.160015E-14	8.391044E-16
5.593568E+03	1.153789E-14	8.208857E-16
5.596233E+03	1.147027E-14	8.321630E-16
5.598888E+03	1.144304E-14	8.273909E-16
5.601543E+03	1.140743E-14	8.193683E-16
5.604208E+03	1.136932E-14	7.922457E-16
5.606863E+03	1.135992E-14	7.583233E-16
5.609528E+03	1.132875E-14	7.829609E-16
5.612183E+03	1.133666E-14	5.229294E-16
5.614838E+03	1.140076E-14	5.517193E-16
5.617503E+03	1.139999E-14	5.422470E-16
5.620158E+03	1.139696E-14	5.327868E-16
5.622823E+03	1.139545E-14	4.848738E-16
5.625478E+03	1.142837E-14	4.787353E-16
5.628143E+03	1.150554E-14	5.017382E-16
5.630798E+03	1.155932E-14	4.537464E-16
5.633453E+03	1.156424E-14	4.889301E-16
5.636118E+03	1.154200E-14	5.076205E-16
5.638773E+03	1.147341E-14	5.064720E-16
5.641438E+03	1.135648E-14	5.223053E-16
5.644093E+03	1.126555E-14	5.165839E-16
5.646758E+03	1.112241E-14	5.136938E-16
5.649413E+03	1.094819E-14	5.120001E-16
5.652069E+03	1.076509E-14	5.142653E-16
5.654734E+03	1.050207E-14	5.085474E-16
5.657389E+03	1.017919E-14	4.913598E-16
5.660054E+03	9.858925E-15	4.954901E-16
5.662709E+03	9.587743E-15	4.692047E-16
5.665364E+03	9.224454E-15	4.950534E-16
5.668029E+03	8.932689E-15	4.941120E-16
5.670684E+03	8.626759E-15	4.822794E-16
5.673349E+03	8.084759E-15	4.700129E-16
5.676004E+03	7.520324E-15	4.890636E-16
5.678669E+03	7.023460E-15	5.086537E-16
5.681324E+03	6.592451E-15	4.734762E-16
5.683979E+03	6.172206E-15	4.443702E-16
5.686644E+03	5.738759E-15	4.421328E-16
5.689299E+03	5.318441E-15	4.306302E-16
5.691964E+03	4.954230E-15	4.095769E-16
5.694619E+03	4.566913E-15	4.308078E-16
5.697274E+03	4.214794E-15	4.646647E-16
5.699939E+03	3.926416E-15	4.319240E-16
5.702594E+03	3.714291E-15	4.387538E-16
5.705259E+03	3.512462E-15	4.489916E-16
5.707914E+03	3.289316E-15	4.222446E-16
5.710579E+03	3.135082E-15	4.203306E-16
5.713235E+03	3.072924E-15	4.111406E-16
5.715890E+03	3.015513E-15	3.975886E-16
5.718555E+03	2.982780E-15	4.084237E-16
5.721210E+03	2.985369E-15	9.724812E-16
5.723875E+03	3.012790E-15	1.425730E-15
5.726530E+03	3.068064E-15	1.414183E-15
5.729195E+03	3.191885E-15	1.468323E-15
5.731850E+03	3.290312E-15	1.496551E-15
5.734505E+03	3.393321E-15	1.496922E-15
5.737170E+03	3.529776E-15	1.495779E-15
5.739825E+03	3.725347E-15	1.498628E-15
5.742490E+03	3.939642E-15	1.498794E-15
5.745145E+03	4.194011E-15	1.485558E-15
5.747800E+03	4.453732E-15	1.485870E-15
5.750465E+03	4.674118E-15	1.491881E-15
5.753120E+03	4.916911E-15	1.495803E-15
5.755785E+03	5.195458E-15	1.495660E-15
5.758440E+03	5.484454E-15	1.490642E-15
5.761105E+03	5.817155E-15	1.499959E-15
5.763760E+03	6.177809E-15	1.498248E-15
5.766415E+03	6.517638E-15	1.497351E-15
5.769081E+03	6.837239E-15	1.253302E-15
5.771735E+03	7.159089E-15	6.329432E-16
5.774401E+03	7.526238E-15	6.436851E-16
5.777056E+03	7.878176E-15	5.709246E-16
5.779711E+03	8.202034E-15	5.343422E-16
5.782376E+03	8.558362E-15	6.171182E-16
5.785031E+03	8.907623E-15	6.346835E-16
5.787696E+03	9.250257E-15	6.281816E-16
5.790351E+03	9.615483E-15	6.227000E-16
5.793016E+03	1.000902E-14	6.436135E-16
5.795671E+03	1.041269E-14	6.070027E-16
5.798326E+03	1.082717E-14	5.665526E-16
5.800991E+03	1.123277E-14	5.477241E-16
5.803646E+03	1.163808E-14	5.600623E-16
5.806311E+03	1.208128E-14	6.367631E-16
5.808966E+03	1.253328E-14	6.521304E-16
5.811631E+03	1.299285E-14	6.647360E-16
5.814286E+03	1.348425E-14	6.390764E-16
5.816941E+03	1.399587E-14	6.269439E-16
5.819606E+03	1.435610E-14	6.051205E-16
5.822261E+03	1.460895E-14	6.006604E-16
5.824926E+03	1.500298E-14	5.980115E-16
5.827581E+03	1.549205E-14	5.974153E-16
5.830247E+03	1.598863E-14	5.017215E-16
5.832901E+03	1.647322E-14	4.641271E-16
5.835556E+03	1.692861E-14	4.752833E-16
5.838222E+03	1.738463E-14	4.690735E-16
5.840877E+03	1.782874E-14	4.571823E-16
5.843542E+03	1.820471E-14	5.014624E-16
5.846197E+03	1.857229E-14	5.617954E-16
5.848852E+03	1.891201E-14	6.143077E-16
5.851517E+03	1.922499E-14	6.513584E-16
5.854172E+03	1.948163E-14	5.846378E-16
5.856837E+03	1.969221E-14	5.401223E-16
5.859492E+03	1.987632E-14	5.535769E-16
5.862157E+03	2.001792E-14	5.402460E-16
5.864812E+03	2.010460E-14	5.421484E-16
5.867467E+03	2.015924E-14	5.453565E-16
5.870132E+03	2.017271E-14	5.417063E-16
5.872787E+03	2.017250E-14	6.119405E-16
5.875452E+03	2.018477E-14	8.756960E-16
5.878107E+03	2.017656E-14	1.032414E-15
