#wls	flux	fluxerr
1.600000E+03	2.652874E-16	1.755601E-16
1.640000E+03	2.611585E-16	1.667203E-16
1.680000E+03	2.570945E-16	1.580248E-16
1.720000E+03	2.532301E-16	1.496070E-16
1.760000E+03	2.495131E-16	1.414898E-16
1.800000E+03	2.460887E-16	1.338177E-16
1.840000E+03	2.429652E-16	1.266581E-16
1.880000E+03	2.402466E-16	1.201317E-16
1.920000E+03	2.379883E-16	1.143294E-16
1.960000E+03	2.361948E-16	1.093102E-16
2.000000E+03	2.349860E-16	1.051703E-16
2.040000E+03	2.343691E-16	1.019245E-16
2.080000E+03	2.342804E-16	9.952123E-17
2.120000E+03	2.347104E-16	9.788956E-17
2.160000E+03	2.355765E-16	9.688591E-17
2.200000E+03	2.368093E-16	9.634311E-17
2.240000E+03	2.382748E-16	9.605731E-17
2.280000E+03	2.398276E-16	9.583125E-17
2.320000E+03	2.413689E-16	9.551555E-17
2.360000E+03	2.427810E-16	9.499593E-17
2.400000E+03	2.440268E-16	9.424027E-17
2.440000E+03	2.450390E-16	9.325591E-17
2.480000E+03	2.459290E-16	9.216272E-17
2.520000E+03	2.467784E-16	9.109659E-17
2.560000E+03	2.477862E-16	9.024187E-17
2.600000E+03	2.490143E-16	8.971055E-17
2.640000E+03	2.507603E-16	8.965299E-17
2.680000E+03	2.530841E-16	9.007097E-17
2.720000E+03	2.562368E-16	9.097020E-17
2.760000E+03	2.604136E-16	9.228328E-17
2.800000E+03	2.658259E-16	9.391309E-17
2.840000E+03	2.728838E-16	9.581348E-17
2.880000E+03	2.820507E-16	9.794578E-17
2.920000E+03	2.939607E-16	1.003173E-16
2.960000E+03	3.095454E-16	1.030091E-16
3.000000E+03	3.299943E-16	1.061322E-16
3.010000E+03	3.360714E-16	1.070061E-16
3.020000E+03	3.425522E-16	1.079097E-16
3.030000E+03	3.494657E-16	1.088452E-16
3.040000E+03	3.569245E-16	1.098394E-16
3.050000E+03	3.648824E-16	1.108692E-16
3.060000E+03	3.734169E-16	1.119488E-16
3.070000E+03	3.825677E-16	1.130798E-16
3.080000E+03	3.923774E-16	1.142634E-16
3.090000E+03	4.028911E-16	1.155007E-16
3.100000E+03	4.142015E-16	1.168049E-16
3.110000E+03	4.262712E-16	1.181508E-16
3.120000E+03	4.391978E-16	1.195507E-16
3.130000E+03	4.530855E-16	1.210162E-16
3.140000E+03	4.679485E-16	1.225325E-16
3.150000E+03	4.838490E-16	1.240969E-16
3.160000E+03	5.009028E-16	1.257181E-16
3.170000E+03	5.191283E-16	1.273783E-16
3.180000E+03	5.385944E-16	1.290708E-16
3.190000E+03	5.594258E-16	1.308003E-16
3.200000E+03	5.816973E-16	1.325569E-16
3.210000E+03	6.054839E-16	1.343290E-16
3.220000E+03	6.307997E-16	1.360896E-16
3.230000E+03	6.577724E-16	1.378358E-16
3.240000E+03	6.865333E-16	1.395621E-16
3.250000E+03	7.170192E-16	1.412217E-16
3.260000E+03	7.493464E-16	1.428044E-16
3.270000E+03	7.835596E-16	1.442848E-16
3.280000E+03	8.197640E-16	1.456478E-16
3.290000E+03	8.579095E-16	1.468510E-16
3.300000E+03	8.979960E-16	1.478631E-16
3.310000E+03	9.400826E-16	1.486648E-16
3.320000E+03	9.841319E-16	1.492234E-16
3.330000E+03	1.029995E-15	1.494950E-16
3.340000E+03	1.077568E-15	1.494503E-16
3.350000E+03	1.126898E-15	1.490876E-16
3.360000E+03	1.177736E-15	1.483735E-16
3.370000E+03	1.229785E-15	1.472824E-16
3.380000E+03	1.282997E-15	1.458323E-16
3.390000E+03	1.336998E-15	1.440168E-16
3.400000E+03	1.391474E-15	1.418530E-16
3.410000E+03	1.446180E-15	1.393811E-16
3.420000E+03	1.500744E-15	1.366419E-16
3.430000E+03	1.554659E-15	1.336770E-16
3.440000E+03	1.607506E-15	1.305472E-16
3.450000E+03	1.659096E-15	1.273377E-16
3.460000E+03	1.708908E-15	1.241084E-16
3.470000E+03	1.756430E-15	1.209219E-16
3.480000E+03	1.801532E-15	1.178631E-16
3.490000E+03	1.843889E-15	1.149931E-16
3.500000E+03	1.883088E-15	1.123559E-16
3.510000E+03	1.918866E-15	1.099905E-16
3.520000E+03	1.951099E-15	1.079264E-16
3.530000E+03	1.979531E-15	1.061673E-16
3.540000E+03	2.003870E-15	1.046973E-16
3.550000E+03	2.023765E-15	1.034809E-16
3.560000E+03	2.038913E-15	1.024710E-16
3.570000E+03	2.048579E-15	1.015881E-16
3.580000E+03	2.052575E-15	1.007741E-16
3.590000E+03	2.050102E-15	9.993859E-17
3.600000E+03	2.040636E-15	9.900559E-17
3.610000E+03	2.023964E-15	9.791696E-17
3.620000E+03	1.999676E-15	9.660829E-17
3.630000E+03	1.967683E-15	9.503418E-17
3.640000E+03	1.928144E-15	9.316492E-17
3.650000E+03	1.881591E-15	9.099269E-17
3.660000E+03	1.828636E-15	8.851843E-17
3.670000E+03	1.770342E-15	8.577094E-17
3.680000E+03	1.707899E-15	8.279192E-17
3.690000E+03	1.642753E-15	7.964280E-17
3.700000E+03	1.576237E-15	7.638607E-17
3.710000E+03	1.510069E-15	7.310764E-17
3.720000E+03	1.445745E-15	6.988509E-17
3.730000E+03	1.384805E-15	6.679681E-17
3.740000E+03	1.328819E-15	6.391815E-17
3.750000E+03	1.278986E-15	6.129950E-17
3.760000E+03	1.236547E-15	5.898421E-17
3.770000E+03	1.202586E-15	5.699919E-17
3.780000E+03	1.177909E-15	5.535088E-17
3.790000E+03	1.163433E-15	5.404532E-17
3.800000E+03	1.159889E-15	5.307526E-17
3.810000E+03	1.168121E-15	5.243387E-17
3.820000E+03	1.189004E-15	5.210955E-17
3.830000E+03	1.223483E-15	5.208589E-17
3.840000E+03	1.272719E-15	5.234565E-17
3.850000E+03	1.337924E-15	5.286185E-17
3.860000E+03	1.420347E-15	5.359885E-17
3.864000E+03	3.855572E-16	1.342805E-16
3.866000E+03	3.991893E-16	1.351914E-16
3.868000E+03	4.140986E-16	1.372495E-16
3.870000E+03	4.426566E-16	1.410389E-16
3.872000E+03	4.796473E-16	1.468330E-16
3.874000E+03	5.221862E-16	1.486949E-16
3.876000E+03	5.677976E-16	1.495346E-16
3.878000E+03	6.197676E-16	1.506807E-16
3.880000E+03	6.751266E-16	1.467926E-16
3.882000E+03	7.363743E-16	1.468309E-16
3.884000E+03	8.040899E-16	1.457734E-16
3.886000E+03	8.797536E-16	1.393452E-16
3.888000E+03	9.578089E-16	1.418617E-16
3.890000E+03	1.035755E-15	1.536988E-16
3.892000E+03	1.121439E-15	1.642047E-16
3.894000E+03	1.213114E-15	1.814304E-16
3.896000E+03	1.302700E-15	2.019839E-16
3.898000E+03	1.400454E-15	2.163167E-16
3.900000E+03	1.498034E-15	2.183633E-16
3.902000E+03	1.588963E-15	2.198255E-16
3.904000E+03	1.688172E-15	2.230006E-16
3.906000E+03	1.792376E-15	2.295769E-16
3.908000E+03	1.896027E-15	2.328004E-16
3.910000E+03	1.995381E-15	2.367761E-16
3.912000E+03	2.089046E-15	2.329142E-16
3.914000E+03	2.178679E-15	2.304454E-16
3.916000E+03	2.264137E-15	2.346993E-16
3.918000E+03	2.348641E-15	2.479858E-16
3.920000E+03	2.428044E-15	2.478284E-16
3.922000E+03	2.504350E-15	2.448912E-16
3.924000E+03	2.568656E-15	2.454409E-16
3.926000E+03	2.627753E-15	2.471024E-16
3.928000E+03	2.684165E-15	2.445262E-16
3.930000E+03	2.733749E-15	2.455341E-16
3.932000E+03	2.781752E-15	2.473611E-16
3.934000E+03	2.825771E-15	2.490177E-16
3.936000E+03	2.860708E-15	2.519650E-16
3.938000E+03	2.889551E-15	2.536704E-16
3.940000E+03	2.918847E-15	2.550038E-16
3.942000E+03	2.940721E-15	2.509436E-16
3.944000E+03	2.948978E-15	2.402747E-16
3.946000E+03	2.958390E-15	2.289052E-16
3.948000E+03	2.970404E-15	2.184229E-16
3.950000E+03	2.978072E-15	2.149913E-16
3.952000E+03	2.980818E-15	2.190517E-16
3.954000E+03	2.977196E-15	2.156161E-16
3.956000E+03	2.971549E-15	2.143910E-16
3.958000E+03	2.967350E-15	2.181522E-16
3.960000E+03	2.963441E-15	2.174113E-16
3.962000E+03	2.961557E-15	2.174755E-16
3.964000E+03	2.963431E-15	2.169615E-16
3.966000E+03	2.958077E-15	2.157844E-16
3.968000E+03	2.955325E-15	2.069309E-16
3.970000E+03	2.964134E-15	2.074921E-16
3.972000E+03	2.981898E-15	2.091924E-16
3.974000E+03	3.003701E-15	2.126289E-16
3.976000E+03	3.028675E-15	2.178619E-16
3.978000E+03	3.062017E-15	2.225171E-16
3.980000E+03	3.095926E-15	2.280146E-16
3.982000E+03	3.137043E-15	2.293192E-16
3.984000E+03	3.185653E-15	2.310200E-16
3.986000E+03	3.235403E-15	2.335556E-16
3.988000E+03	3.288601E-15	2.357447E-16
3.990000E+03	3.345823E-15	2.373750E-16
3.992000E+03	3.407066E-15	2.429071E-16
3.994000E+03	3.472328E-15	2.452049E-16
3.996000E+03	3.535840E-15	2.484652E-16
3.998000E+03	3.595294E-15	2.545020E-16
4.000000E+03	3.657324E-15	2.591709E-16
4.002000E+03	3.727985E-15	2.605962E-16
4.004000E+03	3.793146E-15	2.632563E-16
4.006000E+03	3.849927E-15	2.635004E-16
4.008000E+03	3.911302E-15	2.701830E-16
4.010000E+03	3.966029E-15	2.727700E-16
4.012000E+03	4.017570E-15	2.744706E-16
4.014000E+03	4.061605E-15	2.806741E-16
4.016000E+03	4.108218E-15	2.825105E-16
4.018000E+03	4.159135E-15	2.865446E-16
4.020000E+03	4.195352E-15	2.877677E-16
4.022000E+03	4.222344E-15	2.897559E-16
4.024000E+03	4.245873E-15	2.895969E-16
4.026000E+03	4.265365E-15	2.847820E-16
4.028000E+03	4.277080E-15	2.807151E-16
4.030000E+03	4.284764E-15	2.747190E-16
4.032000E+03	4.290142E-15	2.746142E-16
4.034000E+03	4.288903E-15	2.773528E-16
4.036000E+03	4.282775E-15	2.830060E-16
4.038000E+03	4.278086E-15	2.890543E-16
4.040000E+03	4.269947E-15	2.980168E-16
4.042000E+03	4.256348E-15	3.001119E-16
4.044000E+03	4.234994E-15	2.985365E-16
4.046000E+03	4.212495E-15	2.972237E-16
4.048000E+03	4.192876E-15	2.946170E-16
4.050000E+03	4.172113E-15	2.932166E-16
4.052000E+03	4.161695E-15	2.897662E-16
4.054000E+03	4.144100E-15	2.888316E-16
4.056000E+03	4.121629E-15	2.874973E-16
4.058000E+03	4.099451E-15	2.786394E-16
4.060000E+03	4.073548E-15	2.745035E-16
4.062000E+03	4.040477E-15	2.746290E-16
4.064000E+03	4.006268E-15	2.663492E-16
4.066000E+03	3.969200E-15	2.676244E-16
4.068000E+03	3.926406E-15	2.736222E-16
4.070000E+03	3.887353E-15	2.750646E-16
4.072000E+03	3.842577E-15	2.723185E-16
4.074000E+03	3.808422E-15	2.687269E-16
4.076000E+03	3.785170E-15	2.672199E-16
4.078000E+03	3.763645E-15	2.653427E-16
4.080000E+03	3.744132E-15	2.643666E-16
4.082000E+03	3.728922E-15	2.614826E-16
4.084000E+03	3.719160E-15	2.582816E-16
4.086000E+03	3.717420E-15	2.538328E-16
4.088000E+03	3.716825E-15	2.466256E-16
4.090000E+03	3.716803E-15	2.369597E-16
4.092000E+03	3.719929E-15	2.360664E-16
4.094000E+03	3.733644E-15	2.488242E-16
4.096000E+03	3.747927E-15	2.658028E-16
4.098000E+03	3.765352E-15	2.692876E-16
4.100000E+03	3.787921E-15	2.753182E-16
4.102000E+03	3.811626E-15	2.760133E-16
4.104000E+03	3.842759E-15	2.769441E-16
4.106000E+03	3.868162E-15	2.774372E-16
4.108000E+03	3.888981E-15	2.854903E-16
4.110000E+03	3.913794E-15	2.982050E-16
4.112000E+03	3.938884E-15	3.036146E-16
4.114000E+03	3.968538E-15	3.078748E-16
4.116000E+03	4.005040E-15	3.087629E-16
4.118000E+03	4.044671E-15	3.032301E-16
4.120000E+03	4.083717E-15	3.029265E-16
4.122000E+03	4.117609E-15	3.031506E-16
4.124000E+03	4.145206E-15	3.031139E-16
4.126000E+03	4.167940E-15	3.049577E-16
4.128000E+03	4.187525E-15	3.060582E-16
4.130000E+03	4.215665E-15	3.066470E-16
4.132000E+03	4.237517E-15	3.072277E-16
4.134000E+03	4.259931E-15	3.070566E-16
4.136000E+03	4.283193E-15	3.070344E-16
4.138000E+03	4.306731E-15	3.074903E-16
4.140000E+03	4.329120E-15	3.096341E-16
4.142000E+03	4.348934E-15	3.077208E-16
4.144000E+03	4.367600E-15	2.988838E-16
4.146000E+03	4.385119E-15	2.843156E-16
4.148000E+03	4.398071E-15	2.792121E-16
4.150000E+03	4.405319E-15	2.696338E-16
4.152000E+03	4.407435E-15	2.685061E-16
4.154000E+03	4.409550E-15	2.675807E-16
4.156000E+03	4.415935E-15	2.690231E-16
4.158000E+03	4.413489E-15	2.664991E-16
4.160000E+03	4.407626E-15	2.566553E-16
4.162000E+03	4.399772E-15	2.554668E-16
4.164000E+03	4.392489E-15	2.503963E-16
4.166000E+03	4.381223E-15	2.476265E-16
4.168000E+03	4.359716E-15	2.463711E-16
4.170000E+03	4.337079E-15	2.449109E-16
4.172000E+03	4.312172E-15	2.443192E-16
4.174000E+03	4.286420E-15	2.426749E-16
4.176000E+03	4.261813E-15	2.409951E-16
4.178000E+03	4.234370E-15	2.390575E-16
4.180000E+03	4.206936E-15	2.394160E-16
4.182000E+03	4.178941E-15	2.391351E-16
4.184000E+03	4.152660E-15	2.382972E-16
4.186000E+03	4.131500E-15	2.353162E-16
4.188000E+03	4.111483E-15	2.341629E-16
4.190000E+03	4.094027E-15	2.322054E-16
4.192000E+03	4.081404E-15	2.318618E-16
4.194000E+03	4.070771E-15	2.336104E-16
4.196000E+03	4.069791E-15	2.406793E-16
4.198000E+03	4.067960E-15	2.422305E-16
4.200000E+03	4.068682E-15	2.413674E-16
4.202000E+03	4.066849E-15	2.393198E-16
4.204000E+03	4.070406E-15	2.359497E-16
4.206000E+03	4.074244E-15	2.379338E-16
4.208000E+03	4.071274E-15	2.367851E-16
4.210000E+03	4.064902E-15	2.352641E-16
4.212000E+03	4.059949E-15	2.301918E-16
4.214000E+03	4.053296E-15	2.309480E-16
4.216000E+03	4.052028E-15	2.338075E-16
4.218000E+03	4.055009E-15	2.339608E-16
4.220000E+03	4.052040E-15	2.329243E-16
4.222000E+03	4.052186E-15	2.322498E-16
4.224000E+03	4.050632E-15	2.322954E-16
4.226000E+03	4.039452E-15	2.287074E-16
4.228000E+03	4.024878E-15	2.250003E-16
4.230000E+03	4.011441E-15	2.236195E-16
4.232000E+03	3.997724E-15	2.221045E-16
4.234000E+03	3.981464E-15	2.244773E-16
4.236000E+03	3.960118E-15	2.250102E-16
4.238000E+03	3.942172E-15	2.241340E-16
4.240000E+03	3.926776E-15	2.212413E-16
4.242000E+03	3.910254E-15	2.183868E-16
4.244000E+03	3.893454E-15	2.188235E-16
4.246000E+03	3.879485E-15	2.113593E-16
4.248000E+03	3.867216E-15	2.089348E-16
4.250000E+03	3.852972E-15	2.092654E-16
4.252000E+03	3.835343E-15	2.104061E-16
4.254000E+03	3.816872E-15	2.103179E-16
4.256000E+03	3.803771E-15	2.075619E-16
4.258000E+03	3.792086E-15	2.073614E-16
4.260000E+03	3.782662E-15	2.066754E-16
4.262000E+03	3.778038E-15	2.024611E-16
4.264000E+03	3.766643E-15	1.993415E-16
4.266000E+03	3.756097E-15	1.932768E-16
4.268000E+03	3.746400E-15	1.976098E-16
4.270000E+03	3.731912E-15	2.028981E-16
4.272000E+03	3.721657E-15	2.109461E-16
4.274000E+03	3.712815E-15	2.192047E-16
4.276000E+03	3.706794E-15	2.233899E-16
4.278000E+03	3.701901E-15	2.252850E-16
4.280000E+03	3.693064E-15	2.253945E-16
4.282000E+03	3.690990E-15	2.243550E-16
4.284000E+03	3.690043E-15	2.194696E-16
4.286000E+03	3.688533E-15	2.162131E-16
4.288000E+03	3.686177E-15	2.153723E-16
4.290000E+03	3.685791E-15	2.167856E-16
4.292000E+03	3.688220E-15	2.189677E-16
4.294000E+03	3.682767E-15	2.209801E-16
4.296000E+03	3.671688E-15	2.251165E-16
4.298000E+03	3.663707E-15	2.252572E-16
4.300000E+03	3.657977E-15	2.241217E-16
4.302000E+03	3.655905E-15	2.233579E-16
4.304000E+03	3.652426E-15	2.221627E-16
4.306000E+03	3.646418E-15	2.216596E-16
4.308000E+03	3.640130E-15	2.204634E-16
4.310000E+03	3.632720E-15	2.191313E-16
4.312000E+03	3.625592E-15	2.185976E-16
4.314000E+03	3.619028E-15	2.173551E-16
4.316000E+03	3.606287E-15	2.167070E-16
4.318000E+03	3.597761E-15	2.126292E-16
4.320000E+03	3.586430E-15	2.084457E-16
4.322000E+03	3.576225E-15	2.003793E-16
4.324000E+03	3.564339E-15	1.912928E-16
4.326000E+03	3.548529E-15	1.842725E-16
4.328000E+03	3.532162E-15	1.795598E-16
4.330000E+03	3.517203E-15	1.814896E-16
4.332000E+03	3.501127E-15	1.864946E-16
4.334000E+03	3.485056E-15	1.962104E-16
4.336000E+03	3.463944E-15	2.031635E-16
4.338000E+03	3.440037E-15	2.092655E-16
4.340000E+03	3.411374E-15	2.106209E-16
4.342000E+03	3.371233E-15	2.122640E-16
4.344000E+03	3.328306E-15	2.066787E-16
4.346000E+03	3.280353E-15	1.984101E-16
4.348000E+03	3.226817E-15	1.948863E-16
4.350000E+03	3.172180E-15	1.924476E-16
4.352000E+03	3.116163E-15	1.865978E-16
4.354000E+03	3.060167E-15	1.839671E-16
4.356000E+03	3.007549E-15	1.823977E-16
4.358000E+03	2.954390E-15	1.865728E-16
4.360000E+03	2.902648E-15	1.983834E-16
4.362000E+03	2.850646E-15	2.036457E-16
4.364000E+03	2.806212E-15	2.064371E-16
4.366000E+03	2.763946E-15	2.168909E-16
4.368000E+03	2.719152E-15	2.182993E-16
4.370000E+03	2.673983E-15	2.213771E-16
4.372000E+03	2.632016E-15	2.259478E-16
4.374000E+03	2.589812E-15	2.292146E-16
4.376000E+03	2.551087E-15	2.329944E-16
4.378000E+03	2.513855E-15	2.352449E-16
4.380000E+03	2.481132E-15	2.311593E-16
4.382000E+03	2.449872E-15	2.250143E-16
4.384000E+03	2.422363E-15	2.169512E-16
4.386000E+03	2.399913E-15	2.114467E-16
4.388000E+03	2.380205E-15	2.170873E-16
4.390000E+03	2.367225E-15	2.363521E-16
4.392000E+03	2.359631E-15	2.418842E-16
4.394000E+03	2.358090E-15	2.447678E-16
4.396000E+03	2.363795E-15	2.509276E-16
4.398000E+03	2.378387E-15	2.538109E-16
4.400000E+03	2.398629E-15	2.546315E-16
4.402000E+03	2.429281E-15	2.551107E-16
4.404000E+03	2.464377E-15	2.560176E-16
4.406000E+03	2.501826E-15	2.566452E-16
4.408000E+03	2.543937E-15	2.555125E-16
4.410000E+03	2.592182E-15	2.515505E-16
4.412000E+03	2.646085E-15	2.546199E-16
4.414000E+03	2.707201E-15	2.576240E-16
4.416000E+03	2.772354E-15	2.515797E-16
4.418000E+03	2.844795E-15	2.511919E-16
4.420000E+03	2.924049E-15	2.499076E-16
4.422000E+03	3.003270E-15	2.466580E-16
4.424000E+03	3.082460E-15	2.429037E-16
4.426000E+03	3.164397E-15	2.382714E-16
4.428000E+03	3.252969E-15	2.345868E-16
4.430000E+03	3.340673E-15	2.367035E-16
4.432000E+03	3.426397E-15	2.389456E-16
4.434000E+03	3.509031E-15	2.404918E-16
4.436000E+03	3.590243E-15	2.421042E-16
4.438000E+03	3.664761E-15	2.361797E-16
4.440000E+03	3.738415E-15	2.203738E-16
4.442000E+03	3.806211E-15	2.118039E-16
4.444000E+03	3.873148E-15	2.090078E-16
4.446000E+03	3.934787E-15	2.040431E-16
4.448000E+03	3.992240E-15	2.021538E-16
4.450000E+03	4.048006E-15	2.036816E-16
4.452000E+03	4.094601E-15	2.084691E-16
4.454000E+03	4.136742E-15	2.131220E-16
4.456000E+03	4.172491E-15	2.145604E-16
4.458000E+03	4.208225E-15	2.141625E-16
4.460000E+03	4.241174E-15	2.117782E-16
4.462000E+03	4.271062E-15	2.041012E-16
4.464000E+03	4.295953E-15	1.967953E-16
4.466000E+03	4.320279E-15	1.958615E-16
4.468000E+03	4.339059E-15	1.943434E-16
4.470000E+03	4.353127E-15	1.902559E-16
4.472000E+03	4.361377E-15	1.896322E-16
4.474000E+03	4.367687E-15	1.907809E-16
4.476000E+03	4.371228E-15	1.955420E-16
4.478000E+03	4.376702E-15	1.964038E-16
4.480000E+03	4.379408E-15	1.959920E-16
4.482000E+03	4.381006E-15	1.954674E-16
4.484000E+03	4.384812E-15	1.949065E-16
4.486000E+03	4.385578E-15	1.930199E-16
4.488000E+03	4.377226E-15	1.939322E-16
4.490000E+03	4.364459E-15	1.931187E-16
4.492000E+03	4.354181E-15	1.929534E-16
4.494000E+03	4.343077E-15	1.923420E-16
4.496000E+03	4.333908E-15	1.914750E-16
4.498000E+03	4.327225E-15	1.899427E-16
4.500000E+03	4.321096E-15	1.888598E-16
4.502000E+03	4.319105E-15	1.843883E-16
4.504000E+03	4.319043E-15	1.782854E-16
4.506000E+03	4.318429E-15	1.765592E-16
4.508000E+03	4.321949E-15	1.770916E-16
4.510000E+03	4.328773E-15	1.769341E-16
4.512000E+03	4.340001E-15	1.803639E-16
4.514000E+03	4.350947E-15	1.847975E-16
4.516000E+03	4.360236E-15	1.911508E-16
4.518000E+03	4.376403E-15	2.025693E-16
4.520000E+03	4.397517E-15	2.077813E-16
4.522000E+03	4.416145E-15	2.084382E-16
4.524000E+03	4.441092E-15	2.082359E-16
4.526000E+03	4.470154E-15	2.094026E-16
4.528000E+03	4.506080E-15	2.134717E-16
4.530000E+03	4.547215E-15	2.166366E-16
4.532000E+03	4.595754E-15	2.202180E-16
4.534000E+03	4.647296E-15	2.215448E-16
4.536000E+03	4.696341E-15	2.230262E-16
4.538000E+03	4.749761E-15	2.256209E-16
4.540000E+03	4.801784E-15	2.287038E-16
4.542000E+03	4.857903E-15	2.302797E-16
4.544000E+03	4.919489E-15	2.358919E-16
4.546000E+03	4.985440E-15	2.374612E-16
4.548000E+03	5.045873E-15	2.396704E-16
4.550000E+03	5.106279E-15	2.413212E-16
4.552000E+03	5.166108E-15	2.435023E-16
4.554000E+03	5.222620E-15	2.460824E-16
4.556000E+03	5.273072E-15	2.509666E-16
4.558000E+03	5.317469E-15	2.576277E-16
4.560000E+03	5.359927E-15	2.652202E-16
4.562000E+03	5.405654E-15	2.720420E-16
4.564000E+03	5.449990E-15	2.730443E-16
4.566000E+03	5.495128E-15	2.715658E-16
4.568000E+03	5.538601E-15	2.672375E-16
4.570000E+03	5.578768E-15	2.652806E-16
4.572000E+03	5.613441E-15	2.685483E-16
4.574000E+03	5.648918E-15	2.719544E-16
4.576000E+03	5.684926E-15	2.736887E-16
4.578000E+03	5.712708E-15	2.750286E-16
4.580000E+03	5.731724E-15	2.751627E-16
4.582000E+03	5.743345E-15	2.732787E-16
4.584000E+03	5.750858E-15	2.734385E-16
4.586000E+03	5.753719E-15	2.735808E-16
4.588000E+03	5.756030E-15	2.705059E-16
4.590000E+03	5.752874E-15	2.691545E-16
4.592000E+03	5.751356E-15	2.682580E-16
4.594000E+03	5.744102E-15	2.630780E-16
4.596000E+03	5.732480E-15	2.618242E-16
4.598000E+03	5.718950E-15	2.610415E-16
4.600000E+03	5.702968E-15	2.603533E-16
4.602000E+03	5.689993E-15	2.624651E-16
4.604000E+03	5.677295E-15	2.670347E-16
4.606000E+03	5.663783E-15	2.643548E-16
4.608000E+03	5.647820E-15	2.638879E-16
4.610000E+03	5.631045E-15	2.622629E-16
4.612000E+03	5.612367E-15	2.537984E-16
4.614000E+03	5.592061E-15	2.510224E-16
4.616000E+03	5.564677E-15	2.490637E-16
4.618000E+03	5.528041E-15	2.452549E-16
4.620000E+03	5.490331E-15	2.435675E-16
4.622000E+03	5.453452E-15	2.412204E-16
4.624000E+03	5.414410E-15	2.407282E-16
4.626000E+03	5.382461E-15	2.428978E-16
4.628000E+03	5.348619E-15	2.439164E-16
4.630000E+03	5.313975E-15	2.421822E-16
4.632000E+03	5.280160E-15	2.410169E-16
4.634000E+03	5.240920E-15	2.395972E-16
4.636000E+03	5.205502E-15	2.373364E-16
4.638000E+03	5.180428E-15	2.363759E-16
4.640000E+03	5.161342E-15	2.349160E-16
4.642000E+03	5.148785E-15	2.332247E-16
