#wls	flux	fluxerr
1.600000E+03	1.252648E-16	1.020274E-16
1.640000E+03	1.235038E-16	9.919573E-17
1.680000E+03	1.218522E-16	9.650089E-17
1.720000E+03	1.202577E-16	9.390731E-17
1.760000E+03	1.187939E-16	9.147840E-17
1.800000E+03	1.174305E-16	8.919482E-17
1.840000E+03	1.162179E-16	8.709823E-17
1.880000E+03	1.151458E-16	8.518208E-17
1.920000E+03	1.142234E-16	8.345324E-17
1.960000E+03	1.134593E-16	8.191617E-17
2.000000E+03	1.128798E-16	8.058613E-17
2.040000E+03	1.124735E-16	7.944889E-17
2.080000E+03	1.122840E-16	7.852751E-17
2.120000E+03	1.122817E-16	7.779158E-17
2.160000E+03	1.125108E-16	7.726098E-17
2.200000E+03	1.129450E-16	7.690550E-17
2.240000E+03	1.136499E-16	7.675739E-17
2.280000E+03	1.146053E-16	7.678976E-17
2.320000E+03	1.158496E-16	7.701516E-17
2.360000E+03	1.174088E-16	7.743788E-17
2.400000E+03	1.193345E-16	7.807845E-17
2.440000E+03	1.216690E-16	7.895064E-17
2.480000E+03	1.244469E-16	8.006186E-17
2.520000E+03	1.277509E-16	8.144840E-17
2.560000E+03	1.316784E-16	8.315212E-17
2.600000E+03	1.363256E-16	8.520878E-17
2.640000E+03	1.418084E-16	8.765972E-17
2.680000E+03	1.482865E-16	9.056431E-17
2.720000E+03	1.559083E-16	9.396341E-17
2.760000E+03	1.649179E-16	9.794155E-17
2.800000E+03	1.755383E-16	1.025519E-16
2.840000E+03	1.880830E-16	1.078789E-16
2.880000E+03	2.029247E-16	1.140126E-16
2.920000E+03	2.204486E-16	1.210164E-16
2.960000E+03	2.411846E-16	1.289936E-16
3.000000E+03	2.656806E-16	1.380079E-16
3.010000E+03	2.724679E-16	1.404320E-16
3.020000E+03	2.795178E-16	1.429137E-16
3.030000E+03	2.868720E-16	1.454695E-16
3.040000E+03	2.945415E-16	1.480996E-16
3.050000E+03	3.025026E-16	1.507868E-16
3.060000E+03	3.108347E-16	1.535651E-16
3.070000E+03	3.194429E-16	1.563817E-16
3.080000E+03	3.284438E-16	1.592882E-16
3.090000E+03	3.377752E-16	1.622481E-16
3.100000E+03	3.474837E-16	1.652777E-16
3.110000E+03	3.575794E-16	1.683754E-16
3.120000E+03	3.680722E-16	1.715393E-16
3.130000E+03	3.789302E-16	1.747480E-16
3.140000E+03	3.902014E-16	1.780175E-16
3.150000E+03	4.018508E-16	1.813251E-16
3.160000E+03	4.139710E-16	1.847061E-16
3.170000E+03	4.264810E-16	1.881175E-16
3.180000E+03	4.394291E-16	1.915744E-16
3.190000E+03	4.528196E-16	1.950721E-16
3.200000E+03	4.666551E-16	1.986053E-16
3.210000E+03	4.808874E-16	2.021477E-16
3.220000E+03	4.956146E-16	2.057348E-16
3.230000E+03	5.107339E-16	2.093180E-16
3.240000E+03	5.262913E-16	2.129114E-16
3.250000E+03	5.422808E-16	2.165077E-16
3.260000E+03	5.586946E-16	2.200994E-16
3.270000E+03	5.754651E-16	2.236562E-16
3.280000E+03	5.926928E-16	2.272140E-16
3.290000E+03	6.102469E-16	2.307196E-16
3.300000E+03	6.281670E-16	2.341862E-16
3.310000E+03	6.464329E-16	2.376049E-16
3.320000E+03	6.650857E-16	2.409894E-16
3.330000E+03	6.839734E-16	2.442840E-16
3.340000E+03	7.031303E-16	2.475022E-16
3.350000E+03	7.224579E-16	2.506105E-16
3.360000E+03	7.420578E-16	2.536463E-16
3.370000E+03	7.618277E-16	2.565762E-16
3.380000E+03	7.817299E-16	2.593904E-16
3.390000E+03	8.017246E-16	2.620791E-16
3.400000E+03	8.216957E-16	2.646086E-16
3.410000E+03	8.417481E-16	2.670173E-16
3.420000E+03	8.617643E-16	2.692717E-16
3.430000E+03	8.816207E-16	2.713385E-16
3.440000E+03	9.014275E-16	2.732569E-16
3.450000E+03	9.210620E-16	2.749943E-16
3.460000E+03	9.404791E-16	2.765422E-16
3.470000E+03	9.596350E-16	2.778928E-16
3.480000E+03	9.784033E-16	2.790149E-16
3.490000E+03	9.969107E-16	2.799499E-16
3.500000E+03	1.015037E-15	2.806676E-16
3.510000E+03	1.032748E-15	2.811631E-16
3.520000E+03	1.050015E-15	2.814322E-16
3.530000E+03	1.066900E-15	2.814952E-16
3.540000E+03	1.083209E-15	2.813034E-16
3.550000E+03	1.099017E-15	2.808799E-16
3.560000E+03	1.114408E-15	2.802481E-16
3.570000E+03	1.129204E-15	2.793650E-16
3.580000E+03	1.143595E-15	2.782796E-16
3.590000E+03	1.157420E-15	2.769532E-16
3.600000E+03	1.170888E-15	2.754369E-16
3.610000E+03	1.183946E-15	2.737177E-16
3.620000E+03	1.196641E-15	2.718061E-16
3.630000E+03	1.209030E-15	2.697141E-16
3.640000E+03	1.221272E-15	2.674757E-16
3.650000E+03	1.233258E-15	2.650644E-16
3.660000E+03	1.245259E-15	2.625363E-16
3.670000E+03	1.257182E-15	2.598683E-16
3.680000E+03	1.269312E-15	2.571162E-16
3.690000E+03	1.281664E-15	2.542777E-16
3.700000E+03	1.294351E-15	2.513700E-16
3.710000E+03	1.307488E-15	2.484102E-16
3.720000E+03	1.321287E-15	2.454321E-16
3.730000E+03	1.335680E-15	2.424162E-16
3.740000E+03	1.350880E-15	2.393950E-16
3.750000E+03	1.367098E-15	2.363984E-16
3.760000E+03	1.384350E-15	2.334218E-16
3.770000E+03	1.402740E-15	2.304764E-16
3.780000E+03	1.422366E-15	2.275718E-16
3.790000E+03	1.443312E-15	2.247169E-16
3.800000E+03	1.465648E-15	2.219192E-16
3.810000E+03	1.489430E-15	2.191855E-16
3.820000E+03	1.514793E-15	2.165361E-16
3.830000E+03	1.541557E-15	2.139480E-16
3.840000E+03	1.569911E-15	2.114551E-16
3.850000E+03	1.599622E-15	2.090358E-16
3.860000E+03	1.630831E-15	2.067233E-16
3.870000E+03	1.663240E-15	2.044981E-16
3.880000E+03	1.696933E-15	2.023941E-16
3.890000E+03	1.731654E-15	2.004063E-16
3.900000E+03	1.767105E-15	1.985314E-16
3.910000E+03	1.803285E-15	1.968030E-16
3.920000E+03	1.839842E-15	1.952170E-16
3.930000E+03	1.876392E-15	1.937693E-16
3.940000E+03	1.912871E-15	1.924889E-16
3.950000E+03	1.948750E-15	1.913559E-16
3.960000E+03	1.983950E-15	1.903930E-16
3.970000E+03	2.017936E-15	1.895742E-16
3.980000E+03	2.050532E-15	1.889033E-16
3.990000E+03	2.081469E-15	1.883691E-16
4.000000E+03	2.110511E-15	1.879567E-16
4.010000E+03	2.137461E-15	1.876483E-16
4.020000E+03	2.162053E-15	1.874131E-16
4.030000E+03	2.184315E-15	1.872401E-16
4.040000E+03	2.204216E-15	1.871068E-16
4.050000E+03	2.221784E-15	1.869907E-16
4.060000E+03	2.236993E-15	1.868604E-16
4.070000E+03	2.250112E-15	1.867060E-16
4.080000E+03	2.261346E-15	1.865094E-16
4.090000E+03	2.270826E-15	1.862449E-16
4.100000E+03	2.278961E-15	1.859091E-16
4.110000E+03	2.286069E-15	1.854904E-16
4.120000E+03	2.292368E-15	1.849701E-16
4.130000E+03	2.298204E-15	1.843401E-16
4.140000E+03	2.304041E-15	1.836026E-16
4.150000E+03	2.310216E-15	1.827493E-16
4.160000E+03	2.316818E-15	1.817526E-16
4.170000E+03	2.324494E-15	1.806272E-16
4.180000E+03	2.333168E-15	1.793296E-16
4.190000E+03	2.343307E-15	1.778555E-16
4.200000E+03	2.354996E-15	1.761675E-16
4.210000E+03	2.368505E-15	1.742376E-16
4.220000E+03	2.383719E-15	1.720044E-16
4.230000E+03	2.400926E-15	1.694314E-16
4.240000E+03	2.420020E-15	1.664491E-16
4.250000E+03	2.440952E-15	1.629892E-16
4.260000E+03	2.463611E-15	1.589786E-16
4.270000E+03	2.487822E-15	1.543421E-16
4.280000E+03	2.513348E-15	1.490074E-16
4.290000E+03	2.539881E-15	1.429118E-16
4.300000E+03	2.567053E-15	1.360109E-16
4.310000E+03	2.594314E-15	1.282873E-16
4.320000E+03	2.621414E-15	1.197921E-16
4.330000E+03	2.647599E-15	1.106338E-16
4.340000E+03	2.672569E-15	1.010649E-16
4.350000E+03	2.695456E-15	9.150104E-17
4.360000E+03	2.716162E-15	8.265824E-17
4.370000E+03	2.734127E-15	7.558299E-17
4.380000E+03	2.749334E-15	7.162512E-17
4.390000E+03	2.761770E-15	7.198188E-17
4.400000E+03	2.771763E-15	7.665963E-17
4.410000E+03	2.779622E-15	8.449949E-17
4.420000E+03	2.785745E-15	9.420740E-17
4.430000E+03	2.790782E-15	1.047786E-16
4.440000E+03	2.795551E-15	1.155532E-16
4.450000E+03	2.800625E-15	1.261243E-16
4.460000E+03	2.806623E-15	1.362656E-16
4.470000E+03	2.814173E-15	1.458695E-16
4.480000E+03	2.823547E-15	1.548874E-16
4.490000E+03	2.834993E-15	1.633168E-16
4.500000E+03	2.848617E-15	1.711782E-16
4.510000E+03	2.864386E-15	1.785016E-16
4.520000E+03	2.882246E-15	1.853259E-16
4.530000E+03	2.901796E-15	1.916725E-16
4.540000E+03	2.922529E-15	1.975553E-16
4.550000E+03	2.944187E-15	2.030036E-16
4.560000E+03	2.966106E-15	2.080164E-16
4.570000E+03	2.987574E-15	2.125855E-16
4.580000E+03	3.008200E-15	2.167217E-16
4.590000E+03	3.027140E-15	2.204001E-16
4.600000E+03	3.044032E-15	2.236269E-16
4.610000E+03	3.058106E-15	2.263756E-16
4.620000E+03	3.069000E-15	2.286464E-16
4.630000E+03	3.076317E-15	2.304343E-16
4.640000E+03	3.079746E-15	2.317388E-16
4.650000E+03	3.078957E-15	2.325555E-16
4.660000E+03	3.073936E-15	2.329031E-16
4.670000E+03	3.064649E-15	2.327970E-16
4.680000E+03	3.051142E-15	2.322587E-16
4.690000E+03	3.033434E-15	2.313067E-16
4.700000E+03	3.011838E-15	2.299817E-16
4.710000E+03	2.986625E-15	2.283203E-16
4.720000E+03	2.958027E-15	2.263553E-16
4.730000E+03	2.926552E-15	2.241395E-16
4.740000E+03	2.892660E-15	2.217204E-16
4.750000E+03	2.856769E-15	2.191407E-16
4.760000E+03	2.819461E-15	2.164535E-16
4.770000E+03	2.781561E-15	2.137287E-16
4.780000E+03	2.743551E-15	2.110077E-16
4.790000E+03	2.706151E-15	2.083484E-16
4.800000E+03	2.670212E-15	2.058166E-16
4.810000E+03	2.636506E-15	2.034706E-16
4.820000E+03	2.605730E-15	2.013612E-16
4.830000E+03	2.578666E-15	1.995447E-16
4.840000E+03	2.556161E-15	1.980812E-16
4.850000E+03	2.538930E-15	1.970200E-16
4.860000E+03	2.527540E-15	1.963984E-16
4.870000E+03	2.522644E-15	1.962606E-16
4.880000E+03	2.524616E-15	1.966292E-16
4.890000E+03	2.533868E-15	1.975309E-16
4.900000E+03	2.550487E-15	1.989675E-16
4.910000E+03	2.574553E-15	2.009419E-16
4.920000E+03	2.605778E-15	2.034294E-16
4.930000E+03	2.643831E-15	2.064037E-16
4.940000E+03	2.687986E-15	2.098090E-16
4.950000E+03	2.737471E-15	2.135873E-16
4.960000E+03	2.791130E-15	2.176517E-16
4.970000E+03	2.847808E-15	2.219169E-16
4.980000E+03	2.906036E-15	2.262735E-16
4.990000E+03	2.964468E-15	2.306223E-16
5.000000E+03	3.021572E-15	2.348499E-16
5.010000E+03	3.076102E-15	2.388651E-16
5.020000E+03	3.126889E-15	2.425821E-16
5.030000E+03	3.172902E-15	2.459254E-16
5.040000E+03	3.213502E-15	2.488489E-16
5.050000E+03	3.248469E-15	2.513381E-16
5.060000E+03	3.277803E-15	2.533942E-16
5.070000E+03	3.301679E-15	2.550309E-16
5.080000E+03	3.320722E-15	2.562953E-16
5.090000E+03	3.335515E-15	2.572300E-16
5.100000E+03	3.346951E-15	2.579006E-16
5.110000E+03	3.355844E-15	2.583654E-16
5.120000E+03	3.362869E-15	2.586713E-16
5.130000E+03	3.368722E-15	2.588657E-16
5.140000E+03	3.374194E-15	2.590024E-16
5.150000E+03	3.379517E-15	2.590911E-16
5.160000E+03	3.384993E-15	2.591456E-16
5.170000E+03	3.390897E-15	2.591759E-16
5.180000E+03	3.397278E-15	2.591729E-16
5.190000E+03	3.404089E-15	2.591183E-16
5.200000E+03	3.411103E-15	2.589775E-16
5.210000E+03	3.418252E-15	2.587261E-16
5.220000E+03	3.425227E-15	2.583188E-16
5.230000E+03	3.431922E-15	2.577234E-16
5.240000E+03	3.438127E-15	2.568971E-16
5.250000E+03	3.443543E-15	2.557885E-16
5.260000E+03	3.448215E-15	2.543690E-16
5.270000E+03	3.451793E-15	2.525787E-16
5.280000E+03	3.454175E-15	2.503737E-16
5.290000E+03	3.455405E-15	2.477188E-16
5.300000E+03	3.455566E-15	2.445791E-16
5.310000E+03	3.454362E-15	2.408913E-16
5.320000E+03	3.452180E-15	2.366380E-16
5.330000E+03	3.448930E-15	2.317669E-16
5.340000E+03	3.444889E-15	2.262492E-16
5.350000E+03	3.440287E-15	2.200512E-16
5.360000E+03	3.435406E-15	2.131419E-16
5.370000E+03	3.430480E-15	2.054878E-16
5.380000E+03	3.426103E-15	1.970797E-16
5.390000E+03	3.422490E-15	1.878916E-16
5.400000E+03	3.420194E-15	1.779285E-16
5.410000E+03	3.419564E-15	1.672048E-16
5.420000E+03	3.421233E-15	1.557842E-16
5.430000E+03	3.425365E-15	1.437666E-16
5.440000E+03	3.432436E-15	1.313670E-16
5.450000E+03	3.442365E-15	1.189445E-16
5.460000E+03	3.455187E-15	1.071388E-16
5.470000E+03	3.470594E-15	9.699700E-17
5.480000E+03	3.487995E-15	9.007372E-17
5.490000E+03	3.506493E-15	8.819986E-17
5.500000E+03	3.524751E-15	9.229966E-17
5.510000E+03	3.541416E-15	1.011520E-16
5.520000E+03	3.554589E-15	1.129087E-16
5.530000E+03	3.562258E-15	1.259934E-16
5.540000E+03	3.562747E-15	1.392790E-16
5.550000E+03	3.554095E-15	1.519768E-16
5.560000E+03	3.535044E-15	1.635616E-16
5.570000E+03	3.504297E-15	1.736631E-16
5.580000E+03	3.461454E-15	1.820624E-16
5.590000E+03	3.406318E-15	1.886324E-16
5.600000E+03	3.339237E-15	1.933376E-16
5.610000E+03	3.261380E-15	1.962394E-16
5.620000E+03	3.174079E-15	1.974495E-16
5.630000E+03	3.079162E-15	1.971404E-16
5.640000E+03	2.978762E-15	1.955262E-16
5.650000E+03	2.875214E-15	1.928497E-16
5.660000E+03	2.770956E-15	1.893693E-16
5.670000E+03	2.668427E-15	1.853475E-16
5.680000E+03	2.570053E-15	1.810458E-16
5.690000E+03	2.477863E-15	1.766950E-16
5.700000E+03	2.393974E-15	1.725268E-16
5.710000E+03	2.320013E-15	1.687317E-16
5.720000E+03	2.257405E-15	1.654785E-16
5.730000E+03	2.207362E-15	1.629134E-16
5.740000E+03	2.170622E-15	1.611404E-16
5.750000E+03	2.147932E-15	1.602579E-16
5.760000E+03	2.139595E-15	1.603247E-16
5.770000E+03	2.145803E-15	1.613864E-16
5.780000E+03	2.166310E-15	1.634505E-16
5.790000E+03	2.200862E-15	1.665195E-16
5.800000E+03	2.248782E-15	1.705599E-16
5.810000E+03	2.308919E-15	1.754984E-16
5.820000E+03	2.380021E-15	1.812497E-16
5.830000E+03	2.460224E-15	1.876784E-16
5.840000E+03	2.547399E-15	1.946240E-16
5.850000E+03	2.638879E-15	2.018812E-16
5.860000E+03	2.731746E-15	2.092216E-16
5.870000E+03	2.822951E-15	2.164044E-16
5.880000E+03	2.909210E-15	2.231697E-16
5.890000E+03	2.987431E-15	2.292730E-16
5.900000E+03	3.054919E-15	2.345027E-16
5.910000E+03	3.109282E-15	2.386744E-16
5.920000E+03	3.148956E-15	2.416719E-16
5.930000E+03	3.172934E-15	2.434264E-16
5.940000E+03	3.181194E-15	2.439479E-16
5.950000E+03	3.174289E-15	2.432923E-16
5.960000E+03	3.153558E-15	2.415761E-16
5.970000E+03	3.121001E-15	2.389642E-16
5.980000E+03	3.078919E-15	2.356419E-16
5.990000E+03	3.029756E-15	2.318016E-16
6.000000E+03	2.976133E-15	2.276457E-16
6.010000E+03	2.920699E-15	2.233755E-16
6.020000E+03	2.865847E-15	2.191702E-16
6.030000E+03	2.813650E-15	2.151829E-16
6.040000E+03	2.766085E-15	2.115586E-16
6.050000E+03	2.724675E-15	2.084075E-16
6.060000E+03	2.690843E-15	2.058324E-16
6.070000E+03	2.665603E-15	2.039052E-16
6.080000E+03	2.649924E-15	2.026953E-16
6.090000E+03	2.644522E-15	2.022530E-16
6.100000E+03	2.649889E-15	2.026125E-16
6.110000E+03	2.666572E-15	2.038121E-16
6.120000E+03	2.694854E-15	2.058705E-16
6.130000E+03	2.735184E-15	2.088191E-16
6.140000E+03	2.787496E-15	2.126499E-16
6.150000E+03	2.852120E-15	2.173847E-16
6.160000E+03	2.928816E-15	2.230013E-16
6.170000E+03	3.017322E-15	2.294753E-16
6.180000E+03	3.117333E-15	2.367768E-16
6.190000E+03	3.227874E-15	2.448235E-16
6.200000E+03	3.347802E-15	2.535167E-16
6.210000E+03	3.475791E-15	2.627407E-16
6.220000E+03	3.609677E-15	2.723113E-16
6.230000E+03	3.747187E-15	2.820312E-16
6.240000E+03	3.885553E-15	2.916605E-16
6.250000E+03	4.021566E-15	3.009208E-16
6.260000E+03	4.152058E-15	3.095335E-16
6.270000E+03	4.273694E-15	3.172049E-16
6.280000E+03	4.383128E-15	3.236402E-16
6.290000E+03	4.477737E-15	3.286005E-16
6.300000E+03	4.554832E-15	3.318464E-16
6.310000E+03	4.612769E-15	3.332214E-16
6.320000E+03	4.650488E-15	3.326192E-16
6.330000E+03	4.667540E-15	3.299853E-16
6.340000E+03	4.664654E-15	3.253572E-16
6.350000E+03	4.642617E-15	3.187832E-16
6.360000E+03	4.603187E-15	3.103847E-16
6.370000E+03	4.548344E-15	3.003023E-16
6.380000E+03	4.480277E-15	2.886934E-16
6.390000E+03	4.401096E-15	2.757127E-16
6.400000E+03	4.313263E-15	2.615393E-16
6.410000E+03	4.218517E-15	2.463106E-16
6.420000E+03	4.118924E-15	2.301898E-16
6.430000E+03	4.015769E-15	2.133045E-16
6.440000E+03	3.910502E-15	1.958079E-16
6.450000E+03	3.804236E-15	1.778596E-16
6.460000E+03	3.697925E-15	1.596485E-16
6.470000E+03	3.592413E-15	1.414165E-16
6.480000E+03	3.488482E-15	1.234957E-16
6.490000E+03	3.386885E-15	1.063707E-16
6.500000E+03	3.288368E-15	9.078254E-17
6.510000E+03	3.193569E-15	7.787223E-17
6.520000E+03	3.103432E-15	6.925051E-17
6.530000E+03	3.018544E-15	6.651286E-17
6.540000E+03	2.939302E-15	6.955856E-17
6.550000E+03	2.865695E-15	7.631901E-17
6.560000E+03	2.797605E-15	8.481005E-17
6.570000E+03	2.734792E-15	9.374805E-17
6.580000E+03	2.676867E-15	1.024266E-16
6.590000E+03	2.623283E-15	1.104857E-16
6.600000E+03	2.573341E-15	1.177521E-16
6.610000E+03	2.526217E-15	1.241486E-16
6.620000E+03	2.481075E-15	1.296506E-16
6.630000E+03	2.436798E-15	1.342434E-16
6.640000E+03	2.392530E-15	1.379365E-16
6.650000E+03	2.347485E-15	1.407469E-16
6.660000E+03	2.300850E-15	1.426898E-16
6.670000E+03	2.252073E-15	1.437935E-16
6.680000E+03	2.200818E-15	1.440978E-16
6.690000E+03	2.146987E-15	1.436554E-16
6.700000E+03	2.090716E-15	1.425333E-16
6.710000E+03	2.032438E-15	1.408160E-16
6.720000E+03	1.972573E-15	1.385861E-16
6.730000E+03	1.911966E-15	1.359531E-16
6.740000E+03	1.851368E-15	1.330178E-16
6.750000E+03	1.791656E-15	1.298870E-16
6.760000E+03	1.733780E-15	1.266694E-16
6.770000E+03	1.678493E-15	1.234559E-16
6.780000E+03	1.626724E-15	1.203466E-16
6.790000E+03	1.579167E-15	1.174204E-16
6.800000E+03	1.536494E-15	1.147510E-16
6.810000E+03	1.499301E-15	1.124036E-16
6.820000E+03	1.468164E-15	1.104385E-16
6.830000E+03	1.443501E-15	1.089020E-16
6.840000E+03	1.425735E-15	1.078385E-16
6.850000E+03	1.415257E-15	1.072878E-16
6.860000E+03	1.412434E-15	1.072866E-16
6.870000E+03	1.417664E-15	1.078724E-16
6.880000E+03	1.431235E-15	1.090733E-16
6.890000E+03	1.453460E-15	1.109180E-16
6.900000E+03	1.484614E-15	1.134315E-16
6.910000E+03	1.524917E-15	1.166339E-16
6.920000E+03	1.574552E-15	1.205416E-16
6.930000E+03	1.633475E-15	1.251533E-16
6.940000E+03	1.701522E-15	1.304580E-16
6.950000E+03	1.778318E-15	1.364285E-16
6.960000E+03	1.863295E-15	1.430223E-16
6.970000E+03	1.955480E-15	1.501660E-16
6.980000E+03	2.053591E-15	1.577625E-16
6.990000E+03	2.156263E-15	1.657079E-16
7.000000E+03	2.261765E-15	1.738700E-16
7.010000E+03	2.368035E-15	1.820908E-16
7.020000E+03	2.473254E-15	1.902302E-16
7.030000E+03	2.575430E-15	1.981345E-16
7.040000E+03	2.672753E-15	2.056629E-16
7.050000E+03	2.764100E-15	2.127278E-16
7.060000E+03	2.848232E-15	2.192320E-16
7.070000E+03	2.924774E-15	2.251454E-16
7.080000E+03	2.993893E-15	2.304800E-16
7.090000E+03	3.055963E-15	2.352646E-16
7.100000E+03	3.112224E-15	2.395955E-16
7.110000E+03	3.163974E-15	2.435740E-16
7.120000E+03	3.212869E-15	2.473300E-16
7.130000E+03	3.260702E-15	2.510036E-16
7.140000E+03	3.309281E-15	2.547366E-16
7.150000E+03	3.360313E-15	2.586621E-16
7.160000E+03	3.415296E-15	2.628969E-16
7.170000E+03	3.475542E-15	2.675426E-16
7.180000E+03	3.541618E-15	2.726426E-16
7.190000E+03	3.613978E-15	2.782309E-16
7.200000E+03	3.692560E-15	2.843010E-16
7.210000E+03	3.776340E-15	2.907721E-16
7.220000E+03	3.864200E-15	2.975557E-16
7.230000E+03	3.953883E-15	3.044761E-16
7.240000E+03	4.042952E-15	3.113439E-16
7.250000E+03	4.128481E-15	3.179331E-16
7.260000E+03	4.206742E-15	3.239565E-16
7.270000E+03	4.274240E-15	3.291460E-16
7.280000E+03	4.327369E-15	3.332250E-16
7.290000E+03	4.362795E-15	3.359389E-16
7.300000E+03	4.377713E-15	3.370733E-16
7.310000E+03	4.370062E-15	3.364709E-16
7.320000E+03	4.338700E-15	3.340444E-16
7.330000E+03	4.283338E-15	3.297715E-16
7.340000E+03	4.205148E-15	3.237417E-16
7.350000E+03	4.105619E-15	3.160684E-16
7.360000E+03	3.987450E-15	3.069579E-16
7.370000E+03	3.853733E-15	2.966471E-16
7.380000E+03	3.707747E-15	2.853874E-16
7.390000E+03	3.553260E-15	2.734686E-16
7.400000E+03	3.393410E-15	2.611324E-16
7.410000E+03	3.231469E-15	2.486315E-16
7.420000E+03	3.070216E-15	2.361810E-16
7.430000E+03	2.912019E-15	2.239649E-16
7.440000E+03	2.758719E-15	2.121267E-16
7.450000E+03	2.611958E-15	2.007947E-16
7.460000E+03	2.472900E-15	1.900601E-16
7.470000E+03	2.342308E-15	1.799834E-16
7.480000E+03	2.220856E-15	1.706178E-16
7.490000E+03	2.108919E-15	1.619930E-16
7.500000E+03	2.006636E-15	1.541203E-16
7.510000E+03	1.914174E-15	1.470130E-16
7.520000E+03	1.831533E-15	1.406710E-16
7.530000E+03	1.758649E-15	1.350893E-16
7.540000E+03	1.695355E-15	1.302545E-16
7.550000E+03	1.641521E-15	1.261562E-16
7.560000E+03	1.597112E-15	1.227911E-16
7.570000E+03	1.561845E-15	1.201363E-16
7.580000E+03	1.535545E-15	1.181777E-16
7.590000E+03	1.518082E-15	1.169039E-16
7.600000E+03	1.509256E-15	1.162978E-16
7.610000E+03	1.508789E-15	1.163363E-16
7.620000E+03	1.516482E-15	1.170013E-16
7.630000E+03	1.531977E-15	1.182623E-16
7.640000E+03	1.554961E-15	1.200914E-16
7.650000E+03	1.584927E-15	1.224447E-16
7.660000E+03	1.621373E-15	1.252781E-16
7.670000E+03	1.663621E-15	1.285327E-16
7.680000E+03	1.710794E-15	1.321334E-16
7.690000E+03	1.761928E-15	1.359972E-16
7.700000E+03	1.815990E-15	1.400350E-16
7.710000E+03	1.871698E-15	1.441378E-16
7.720000E+03	1.927823E-15	1.482001E-16
7.730000E+03	1.983040E-15	1.521089E-16
7.740000E+03	2.035987E-15	1.557482E-16
7.750000E+03	2.085482E-15	1.590162E-16
7.760000E+03	2.130616E-15	1.618324E-16
