#wls	flux	fluxerr
1.600000E+03	1.379638E-16	1.101847E-16
1.640000E+03	1.359841E-16	1.069261E-16
1.680000E+03	1.340741E-16	1.037813E-16
1.720000E+03	1.322930E-16	1.008044E-16
1.760000E+03	1.306073E-16	9.797677E-17
1.800000E+03	1.290525E-16	9.533184E-17
1.840000E+03	1.276620E-16	9.289891E-17
1.880000E+03	1.264245E-16	9.067245E-17
1.920000E+03	1.253713E-16	8.867563E-17
1.960000E+03	1.244896E-16	8.689784E-17
2.000000E+03	1.238078E-16	8.535480E-17
2.040000E+03	1.233115E-16	8.402990E-17
2.080000E+03	1.230465E-16	8.294513E-17
2.120000E+03	1.230174E-16	8.209136E-17
2.160000E+03	1.231896E-16	8.143214E-17
2.200000E+03	1.236291E-16	8.099637E-17
2.240000E+03	1.243251E-16	8.076109E-17
2.280000E+03	1.252709E-16	8.070643E-17
2.320000E+03	1.265428E-16	8.086623E-17
2.360000E+03	1.281072E-16	8.120401E-17
2.400000E+03	1.300552E-16	8.176339E-17
2.440000E+03	1.324295E-16	8.255683E-17
2.480000E+03	1.352654E-16	8.359113E-17
2.520000E+03	1.386502E-16	8.490391E-17
2.560000E+03	1.426681E-16	8.652669E-17
2.600000E+03	1.474419E-16	8.850920E-17
2.640000E+03	1.531177E-16	9.090726E-17
2.680000E+03	1.598058E-16	9.374531E-17
2.720000E+03	1.677544E-16	9.711644E-17
2.760000E+03	1.771899E-16	1.010835E-16
2.800000E+03	1.883866E-16	1.057164E-16
2.840000E+03	2.016758E-16	1.110915E-16
2.880000E+03	2.175088E-16	1.173195E-16
2.920000E+03	2.363419E-16	1.244730E-16
2.960000E+03	2.588018E-16	1.326663E-16
3.000000E+03	2.855568E-16	1.419751E-16
3.010000E+03	2.930159E-16	1.444896E-16
3.020000E+03	3.007780E-16	1.470654E-16
3.030000E+03	3.089234E-16	1.497358E-16
3.040000E+03	3.173973E-16	1.524678E-16
3.050000E+03	3.262472E-16	1.552780E-16
3.060000E+03	3.354869E-16	1.581659E-16
3.070000E+03	3.451304E-16	1.611312E-16
3.080000E+03	3.551531E-16	1.641552E-16
3.090000E+03	3.656448E-16	1.672720E-16
3.100000E+03	3.765818E-16	1.704625E-16
3.110000E+03	3.879361E-16	1.737065E-16
3.120000E+03	3.997601E-16	1.770196E-16
3.130000E+03	4.121095E-16	1.804180E-16
3.140000E+03	4.249107E-16	1.838608E-16
3.150000E+03	4.382170E-16	1.873632E-16
3.160000E+03	4.520848E-16	1.909405E-16
3.170000E+03	4.664315E-16	1.945493E-16
3.180000E+03	4.813101E-16	1.982036E-16
3.190000E+03	4.967269E-16	2.018978E-16
3.200000E+03	5.127376E-16	2.056463E-16
3.210000E+03	5.292437E-16	2.094016E-16
3.220000E+03	5.463495E-16	2.131978E-16
3.230000E+03	5.639471E-16	2.169855E-16
3.240000E+03	5.821411E-16	2.207988E-16
3.250000E+03	6.008707E-16	2.246082E-16
3.260000E+03	6.201262E-16	2.284046E-16
3.270000E+03	6.398944E-16	2.321789E-16
3.280000E+03	6.601590E-16	2.359214E-16
3.290000E+03	6.808998E-16	2.396224E-16
3.300000E+03	7.021585E-16	2.432942E-16
3.310000E+03	7.238456E-16	2.469046E-16
3.320000E+03	7.459298E-16	2.504431E-16
3.330000E+03	7.683761E-16	2.538993E-16
3.340000E+03	7.912162E-16	2.572860E-16
3.350000E+03	8.142668E-16	2.605468E-16
3.360000E+03	8.376244E-16	2.637175E-16
3.370000E+03	8.612429E-16	2.667884E-16
3.380000E+03	8.849188E-16	2.697025E-16
3.390000E+03	9.087469E-16	2.724968E-16
3.400000E+03	9.325913E-16	2.751379E-16
3.410000E+03	9.564701E-16	2.776398E-16
3.420000E+03	9.802392E-16	2.799694E-16
3.430000E+03	1.003831E-15	2.821171E-16
3.440000E+03	1.027263E-15	2.840973E-16
3.450000E+03	1.050382E-15	2.858774E-16
3.460000E+03	1.073119E-15	2.874484E-16
3.470000E+03	1.095493E-15	2.888252E-16
3.480000E+03	1.117351E-15	2.899759E-16
3.490000E+03	1.138717E-15	2.909158E-16
3.500000E+03	1.159439E-15	2.916143E-16
3.510000E+03	1.179553E-15	2.920877E-16
3.520000E+03	1.198913E-15	2.923070E-16
3.530000E+03	1.217566E-15	2.922901E-16
3.540000E+03	1.235379E-15	2.920106E-16
3.550000E+03	1.252414E-15	2.914887E-16
3.560000E+03	1.268653E-15	2.907235E-16
3.570000E+03	1.283893E-15	2.896729E-16
3.580000E+03	1.298420E-15	2.884050E-16
3.590000E+03	1.312060E-15	2.868825E-16
3.600000E+03	1.324840E-15	2.851139E-16
3.610000E+03	1.336993E-15	2.831504E-16
3.620000E+03	1.348291E-15	2.809438E-16
3.630000E+03	1.359094E-15	2.785695E-16
3.640000E+03	1.369300E-15	2.760049E-16
3.650000E+03	1.379015E-15	2.732699E-16
3.660000E+03	1.388547E-15	2.704231E-16
3.670000E+03	1.397839E-15	2.674490E-16
3.680000E+03	1.407037E-15	2.643716E-16
3.690000E+03	1.416392E-15	2.612325E-16
3.700000E+03	1.426070E-15	2.580549E-16
3.710000E+03	1.436241E-15	2.548614E-16
3.720000E+03	1.446990E-15	2.516573E-16
3.730000E+03	1.458588E-15	2.484795E-16
3.740000E+03	1.471120E-15	2.453305E-16
3.750000E+03	1.484853E-15	2.422423E-16
3.760000E+03	1.499954E-15	2.392275E-16
3.770000E+03	1.516583E-15	2.362963E-16
3.780000E+03	1.534790E-15	2.334411E-16
3.790000E+03	1.554799E-15	2.306805E-16
3.800000E+03	1.576625E-15	2.280014E-16
3.810000E+03	1.600545E-15	2.254289E-16
3.820000E+03	1.626338E-15	2.229181E-16
3.830000E+03	1.654321E-15	2.205019E-16
3.840000E+03	1.684305E-15	2.181457E-16
3.850000E+03	1.716352E-15	2.158532E-16
3.860000E+03	1.750293E-15	2.136027E-16
3.870000E+03	1.786115E-15	2.113981E-16
3.880000E+03	1.823667E-15	2.092320E-16
3.890000E+03	1.862654E-15	2.070885E-16
3.900000E+03	1.902942E-15	2.049778E-16
3.910000E+03	1.944153E-15	2.028908E-16
3.920000E+03	1.986080E-15	2.008443E-16
3.930000E+03	2.028382E-15	1.988474E-16
3.940000E+03	2.070582E-15	1.969016E-16
3.950000E+03	2.112292E-15	1.950217E-16
3.960000E+03	2.153225E-15	1.932333E-16
3.970000E+03	2.192876E-15	1.915420E-16
3.980000E+03	2.230972E-15	1.899722E-16
3.990000E+03	2.267041E-15	1.885264E-16
4.000000E+03	2.300871E-15	1.872235E-16
4.010000E+03	2.332070E-15	1.860597E-16
4.020000E+03	2.360417E-15	1.850363E-16
4.030000E+03	2.385758E-15	1.841496E-16
4.040000E+03	2.408133E-15	1.833994E-16
4.050000E+03	2.427431E-15	1.827624E-16
4.060000E+03	2.443739E-15	1.822192E-16
4.070000E+03	2.457225E-15	1.817457E-16
4.080000E+03	2.468243E-15	1.813231E-16
4.090000E+03	2.476871E-15	1.809054E-16
4.100000E+03	2.483575E-15	1.804715E-16
4.110000E+03	2.488855E-15	1.800015E-16
4.120000E+03	2.492897E-15	1.794539E-16
4.130000E+03	2.496225E-15	1.788153E-16
4.140000E+03	2.499250E-15	1.780680E-16
4.150000E+03	2.502359E-15	1.771981E-16
4.160000E+03	2.505919E-15	1.761943E-16
4.170000E+03	2.510156E-15	1.750388E-16
4.180000E+03	2.515473E-15	1.737281E-16
4.190000E+03	2.522125E-15	1.722476E-16
4.200000E+03	2.530218E-15	1.705701E-16
4.210000E+03	2.539920E-15	1.686685E-16
4.220000E+03	2.551449E-15	1.665134E-16
4.230000E+03	2.564870E-15	1.640582E-16
4.240000E+03	2.580089E-15	1.612403E-16
4.250000E+03	2.596958E-15	1.579888E-16
4.260000E+03	2.615682E-15	1.542515E-16
4.270000E+03	2.635790E-15	1.499352E-16
4.280000E+03	2.657163E-15	1.449740E-16
4.290000E+03	2.679626E-15	1.393097E-16
4.300000E+03	2.702639E-15	1.328862E-16
4.310000E+03	2.725921E-15	1.256961E-16
4.320000E+03	2.749147E-15	1.177817E-16
4.330000E+03	2.771644E-15	1.092510E-16
4.340000E+03	2.792921E-15	1.003433E-16
4.350000E+03	2.812576E-15	9.148207E-17
4.360000E+03	2.830114E-15	8.334054E-17
4.370000E+03	2.845076E-15	7.688953E-17
4.380000E+03	2.857000E-15	7.327314E-17
4.390000E+03	2.865795E-15	7.335212E-17
4.400000E+03	2.871949E-15	7.712109E-17
4.410000E+03	2.876203E-15	8.372057E-17
4.420000E+03	2.879588E-15	9.203992E-17
4.430000E+03	2.883130E-15	1.011630E-16
4.440000E+03	2.887862E-15	1.104793E-16
4.450000E+03	2.894382E-15	1.196176E-16
4.460000E+03	2.903529E-15	1.283930E-16
4.470000E+03	2.915582E-15	1.367129E-16
4.480000E+03	2.930946E-15	1.445611E-16
4.490000E+03	2.949860E-15	1.519576E-16
4.500000E+03	2.972110E-15	1.589235E-16
4.510000E+03	2.997520E-15	1.654918E-16
4.520000E+03	3.025962E-15	1.717026E-16
4.530000E+03	3.056778E-15	1.775650E-16
4.540000E+03	3.089381E-15	1.830878E-16
4.550000E+03	3.123181E-15	1.882751E-16
4.560000E+03	3.157412E-15	1.931165E-16
4.570000E+03	3.191164E-15	1.975891E-16
4.580000E+03	3.223616E-15	2.016725E-16
4.590000E+03	3.254070E-15	2.053520E-16
4.600000E+03	3.281689E-15	2.086019E-16
4.610000E+03	3.305921E-15	2.114120E-16
4.620000E+03	3.326014E-15	2.137564E-16
4.630000E+03	3.341737E-15	2.156391E-16
4.640000E+03	3.352671E-15	2.170490E-16
4.650000E+03	3.358603E-15	2.179866E-16
4.660000E+03	3.359520E-15	2.184642E-16
4.670000E+03	3.355182E-15	2.184804E-16
4.680000E+03	3.345721E-15	2.180601E-16
4.690000E+03	3.331322E-15	2.172339E-16
4.700000E+03	3.311923E-15	2.160186E-16
4.710000E+03	3.287911E-15	2.144611E-16
4.720000E+03	3.259435E-15	2.125930E-16
4.730000E+03	3.226717E-15	2.104486E-16
4.740000E+03	3.190248E-15	2.080774E-16
4.750000E+03	3.150595E-15	2.055307E-16
4.760000E+03	3.108145E-15	2.028448E-16
4.770000E+03	3.063654E-15	2.000765E-16
4.780000E+03	3.017879E-15	1.972798E-16
4.790000E+03	2.971673E-15	1.945119E-16
4.800000E+03	2.925978E-15	1.918331E-16
4.810000E+03	2.881821E-15	1.893066E-16
4.820000E+03	2.840219E-15	1.869923E-16
4.830000E+03	2.802479E-15	1.849665E-16
4.840000E+03	2.769615E-15	1.832836E-16
4.850000E+03	2.742868E-15	1.820110E-16
4.860000E+03	2.723346E-15	1.812056E-16
4.870000E+03	2.712064E-15	1.809181E-16
4.880000E+03	2.709899E-15	1.811902E-16
4.890000E+03	2.717540E-15	1.820535E-16
4.900000E+03	2.735373E-15	1.835223E-16
4.910000E+03	2.763737E-15	1.856113E-16
4.920000E+03	2.802355E-15	1.882983E-16
4.930000E+03	2.850827E-15	1.915569E-16
4.940000E+03	2.908374E-15	1.953391E-16
4.950000E+03	2.973598E-15	1.995586E-16
4.960000E+03	3.044954E-15	2.041212E-16
4.970000E+03	3.120482E-15	2.089065E-16
4.980000E+03	3.197971E-15	2.137777E-16
4.990000E+03	3.275067E-15	2.185885E-16
5.000000E+03	3.349338E-15	2.231866E-16
5.010000E+03	3.418782E-15	2.274483E-16
5.020000E+03	3.481462E-15	2.312533E-16
5.030000E+03	3.535992E-15	2.345180E-16
5.040000E+03	3.581537E-15	2.371946E-16
5.050000E+03	3.617853E-15	2.392736E-16
5.060000E+03	3.645260E-15	2.407816E-16
5.070000E+03	3.664469E-15	2.417692E-16
5.080000E+03	3.676844E-15	2.423273E-16
5.090000E+03	3.683785E-15	2.425472E-16
5.100000E+03	3.686583E-15	2.425104E-16
5.110000E+03	3.686767E-15	2.423126E-16
5.120000E+03	3.685717E-15	2.420384E-16
5.130000E+03	3.684309E-15	2.417384E-16
5.140000E+03	3.683543E-15	2.414708E-16
5.150000E+03	3.683876E-15	2.412574E-16
5.160000E+03	3.685625E-15	2.411091E-16
5.170000E+03	3.688901E-15	2.410216E-16
5.180000E+03	3.693661E-15	2.409780E-16
5.190000E+03	3.699842E-15	2.409580E-16
5.200000E+03	3.707034E-15	2.409166E-16
5.210000E+03	3.715170E-15	2.408296E-16
5.220000E+03	3.723897E-15	2.406526E-16
5.230000E+03	3.733062E-15	2.403532E-16
5.240000E+03	3.742348E-15	2.398864E-16
5.250000E+03	3.751461E-15	2.392071E-16
5.260000E+03	3.760509E-15	2.382932E-16
5.270000E+03	3.769049E-15	2.370852E-16
5.280000E+03	3.777123E-15	2.355517E-16
5.290000E+03	3.784496E-15	2.336420E-16
5.300000E+03	3.791036E-15	2.313104E-16
5.310000E+03	3.796715E-15	2.285169E-16
5.320000E+03	3.801333E-15	2.252110E-16
5.330000E+03	3.804913E-15	2.213546E-16
5.340000E+03	3.807237E-15	2.168955E-16
5.350000E+03	3.808528E-15	2.118057E-16
5.360000E+03	3.808896E-15	2.060490E-16
5.370000E+03	3.808448E-15	1.995882E-16
5.380000E+03	3.807487E-15	1.923976E-16
5.390000E+03	3.806520E-15	1.844660E-16
5.400000E+03	3.805974E-15	1.757885E-16
5.410000E+03	3.806469E-15	1.663910E-16
5.420000E+03	3.808795E-15	1.563444E-16
5.430000E+03	3.813677E-15	1.457813E-16
5.440000E+03	3.821726E-15	1.349369E-16
5.450000E+03	3.833537E-15	1.242175E-16
5.460000E+03	3.849604E-15	1.142790E-16
5.470000E+03	3.869921E-15	1.060889E-16
5.480000E+03	3.894255E-15	1.008932E-16
5.490000E+03	3.921728E-15	9.986344E-17
5.500000E+03	3.950678E-15	1.034609E-16
5.510000E+03	3.978924E-15	1.110986E-16
5.520000E+03	4.003600E-15	1.215147E-16
5.530000E+03	4.021844E-15	1.333700E-16
5.540000E+03	4.030680E-15	1.455400E-16
5.550000E+03	4.027665E-15	1.571852E-16
5.560000E+03	4.010774E-15	1.677060E-16
5.570000E+03	3.978538E-15	1.766961E-16
5.580000E+03	3.930484E-15	1.839216E-16
5.590000E+03	3.866349E-15	1.892575E-16
5.600000E+03	3.787094E-15	1.927115E-16
5.610000E+03	3.693758E-15	1.943517E-16
5.620000E+03	3.588142E-15	1.943231E-16
5.630000E+03	3.472348E-15	1.928122E-16
5.640000E+03	3.348811E-15	1.900371E-16
5.650000E+03	3.220160E-15	1.862330E-16
5.660000E+03	3.089476E-15	1.816622E-16
5.670000E+03	2.959659E-15	1.765750E-16
5.680000E+03	2.833883E-15	1.712354E-16
5.690000E+03	2.715177E-15	1.658960E-16
5.700000E+03	2.606388E-15	1.607957E-16
5.710000E+03	2.510089E-15	1.561536E-16
5.720000E+03	2.428441E-15	1.521601E-16
5.730000E+03	2.363398E-15	1.489883E-16
5.740000E+03	2.316322E-15	1.467706E-16
5.750000E+03	2.288245E-15	1.456137E-16
5.760000E+03	2.279758E-15	1.455923E-16
5.770000E+03	2.291249E-15	1.467645E-16
5.780000E+03	2.322554E-15	1.491503E-16
5.790000E+03	2.373151E-15	1.527440E-16
5.800000E+03	2.442050E-15	1.575077E-16
5.810000E+03	2.527732E-15	1.633658E-16
5.820000E+03	2.628160E-15	1.702039E-16
5.830000E+03	2.740486E-15	1.778472E-16
5.840000E+03	2.861516E-15	1.860881E-16
5.850000E+03	2.987328E-15	1.946589E-16
5.860000E+03	3.113664E-15	2.032586E-16
5.870000E+03	3.236070E-15	2.115635E-16
5.880000E+03	3.350133E-15	2.192494E-16
5.890000E+03	3.451832E-15	2.260211E-16
5.900000E+03	3.537549E-15	2.316203E-16
5.910000E+03	3.604541E-15	2.358620E-16
5.920000E+03	3.651117E-15	2.386486E-16
5.930000E+03	3.676466E-15	2.399562E-16
5.940000E+03	3.680930E-15	2.398478E-16
5.950000E+03	3.665842E-15	2.384552E-16
5.960000E+03	3.633467E-15	2.359677E-16
5.970000E+03	3.586526E-15	2.325957E-16
5.980000E+03	3.528332E-15	2.285759E-16
5.990000E+03	3.462197E-15	2.241321E-16
6.000000E+03	3.391496E-15	2.194808E-16
6.010000E+03	3.319413E-15	2.148171E-16
6.020000E+03	3.248896E-15	2.103154E-16
6.030000E+03	3.182426E-15	2.061176E-16
6.040000E+03	3.122001E-15	2.023337E-16
6.050000E+03	3.069301E-15	1.990552E-16
6.060000E+03	3.025729E-15	1.963576E-16
6.070000E+03	2.992223E-15	1.942894E-16
6.080000E+03	2.969629E-15	1.928956E-16
6.090000E+03	2.958457E-15	1.922015E-16
6.100000E+03	2.959236E-15	1.922353E-16
6.110000E+03	2.972260E-15	1.930110E-16
6.120000E+03	2.997848E-15	1.945454E-16
6.130000E+03	3.036429E-15	1.968636E-16
6.140000E+03	3.088016E-15	1.999644E-16
6.150000E+03	3.152934E-15	2.038693E-16
6.160000E+03	3.231245E-15	2.085839E-16
6.170000E+03	3.322746E-15	2.140991E-16
6.180000E+03	3.427130E-15	2.204002E-16
6.190000E+03	3.543651E-15	2.274447E-16
6.200000E+03	3.670924E-15	2.351475E-16
6.210000E+03	3.807492E-15	2.434153E-16
6.220000E+03	3.950861E-15	2.520820E-16
6.230000E+03	4.098248E-15	2.609551E-16
6.240000E+03	4.246158E-15	2.697867E-16
6.250000E+03	4.390919E-15	2.783079E-16
6.260000E+03	4.528559E-15	2.862224E-16
6.270000E+03	4.655019E-15	2.932235E-16
6.280000E+03	4.766761E-15	2.990365E-16
6.290000E+03	4.860671E-15	3.034166E-16
6.300000E+03	4.934253E-15	3.061657E-16
6.310000E+03	4.986161E-15	3.071666E-16
6.320000E+03	5.015891E-15	3.063643E-16
6.330000E+03	5.023756E-15	3.037626E-16
6.340000E+03	5.011175E-15	2.994388E-16
6.350000E+03	4.980109E-15	2.935058E-16
6.360000E+03	4.932983E-15	2.861036E-16
6.370000E+03	4.872314E-15	2.773749E-16
6.380000E+03	4.801003E-15	2.674796E-16
6.390000E+03	4.721242E-15	2.565321E-16
6.400000E+03	4.635255E-15	2.446445E-16
6.410000E+03	4.544590E-15	2.318904E-16
6.420000E+03	4.450696E-15	2.183417E-16
6.430000E+03	4.354118E-15	2.040357E-16
6.440000E+03	4.255531E-15	1.890379E-16
6.450000E+03	4.154931E-15	1.734182E-16
6.460000E+03	4.052574E-15	1.573140E-16
6.470000E+03	3.948664E-15	1.409414E-16
6.480000E+03	3.843593E-15	1.246439E-16
6.490000E+03	3.738022E-15	1.089544E-16
6.500000E+03	3.632918E-15	9.467834E-17
6.510000E+03	3.529524E-15	8.296540E-17
6.520000E+03	3.429268E-15	7.520652E-17
6.530000E+03	3.333633E-15	7.244869E-17
6.540000E+03	3.244021E-15	7.451386E-17
6.550000E+03	3.161696E-15	8.001124E-17
6.560000E+03	3.087313E-15	8.731615E-17
6.570000E+03	3.021344E-15	9.524745E-17
6.580000E+03	2.963778E-15	1.031164E-16
6.590000E+03	2.913878E-15	1.105597E-16
6.600000E+03	2.870775E-15	1.174112E-16
6.610000E+03	2.832978E-15	1.235870E-16
6.620000E+03	2.798780E-15	1.290434E-16
6.630000E+03	2.766306E-15	1.337470E-16
6.640000E+03	2.733716E-15	1.376683E-16
6.650000E+03	2.699053E-15	1.407668E-16
6.660000E+03	2.660895E-15	1.430215E-16
6.670000E+03	2.618021E-15	1.444155E-16
6.680000E+03	2.569505E-15	1.449425E-16
6.690000E+03	2.515175E-15	1.446351E-16
6.700000E+03	2.455119E-15	1.435403E-16
6.710000E+03	2.389922E-15	1.417343E-16
6.720000E+03	2.320591E-15	1.393196E-16
6.730000E+03	2.248264E-15	1.364075E-16
6.740000E+03	2.174370E-15	1.331272E-16
6.750000E+03	2.100221E-15	1.295996E-16
6.760000E+03	2.027350E-15	1.259565E-16
6.770000E+03	1.957081E-15	1.223134E-16
6.780000E+03	1.890555E-15	1.187703E-16
6.790000E+03	1.828818E-15	1.154170E-16
6.800000E+03	1.772816E-15	1.123332E-16
6.810000E+03	1.723257E-15	1.095802E-16
6.820000E+03	1.680792E-15	1.072136E-16
6.830000E+03	1.646044E-15	1.052850E-16
6.840000E+03	1.619547E-15	1.038392E-16
6.850000E+03	1.601734E-15	1.029134E-16
6.860000E+03	1.593274E-15	1.025588E-16
6.870000E+03	1.594589E-15	1.028098E-16
6.880000E+03	1.606347E-15	1.037156E-16
6.890000E+03	1.629142E-15	1.053193E-16
6.900000E+03	1.663506E-15	1.076590E-16
6.910000E+03	1.709962E-15	1.107708E-16
6.920000E+03	1.768969E-15	1.146859E-16
6.930000E+03	1.840706E-15	1.194165E-16
6.940000E+03	1.925183E-15	1.249636E-16
6.950000E+03	2.021938E-15	1.312980E-16
6.960000E+03	2.130103E-15	1.383648E-16
6.970000E+03	2.248337E-15	1.460795E-16
6.980000E+03	2.374674E-15	1.543179E-16
6.990000E+03	2.506513E-15	1.629150E-16
7.000000E+03	2.640831E-15	1.716783E-16
7.010000E+03	2.774274E-15	1.803922E-16
7.020000E+03	2.903458E-15	1.888368E-16
7.030000E+03	3.024989E-15	1.967893E-16
7.040000E+03	3.136063E-15	2.040625E-16
7.050000E+03	3.234375E-15	2.105000E-16
7.060000E+03	3.318567E-15	2.160067E-16
7.070000E+03	3.388338E-15	2.205575E-16
7.080000E+03	3.444171E-15	2.241804E-16
7.090000E+03	3.487530E-15	2.269703E-16
7.100000E+03	3.520720E-15	2.290797E-16
7.110000E+03	3.546388E-15	2.306859E-16
7.120000E+03	3.567612E-15	2.319960E-16
7.130000E+03	3.587590E-15	2.332255E-16
7.140000E+03	3.609452E-15	2.345851E-16
7.150000E+03	3.636199E-15	2.362758E-16
7.160000E+03	3.670255E-15	2.384591E-16
7.170000E+03	3.713661E-15	2.412695E-16
7.180000E+03	3.767874E-15	2.448008E-16
7.190000E+03	3.833788E-15	2.491084E-16
7.200000E+03	3.911214E-15	2.541749E-16
7.210000E+03	3.999585E-15	2.599577E-16
7.220000E+03	4.097004E-15	2.663270E-16
7.230000E+03	4.201140E-15	2.731253E-16
7.240000E+03	4.308442E-15	2.801177E-16
7.250000E+03	4.414694E-15	2.870282E-16
7.260000E+03	4.514950E-15	2.935364E-16
7.270000E+03	4.604319E-15	2.993282E-16
7.280000E+03	4.677535E-15	3.040671E-16
7.290000E+03	4.729726E-15	3.074428E-16
7.300000E+03	4.757244E-15	3.092238E-16
7.310000E+03	4.757047E-15	3.092159E-16
7.320000E+03	4.728052E-15	3.073492E-16
7.330000E+03	4.670121E-15	3.036124E-16
7.340000E+03	4.584976E-15	2.981130E-16
7.350000E+03	4.475428E-15	2.910277E-16
7.360000E+03	4.345072E-15	2.825843E-16
7.370000E+03	4.198430E-15	2.730717E-16
7.380000E+03	4.039683E-15	2.627576E-16
7.390000E+03	3.873235E-15	2.519263E-16
7.400000E+03	3.702967E-15	2.408294E-16
7.410000E+03	3.532100E-15	2.296773E-16
7.420000E+03	3.363464E-15	2.186560E-16
7.430000E+03	3.199163E-15	2.079059E-16
7.440000E+03	3.040667E-15	1.975264E-16
7.450000E+03	2.889175E-15	1.876004E-16
7.460000E+03	2.745437E-15	1.781817E-16
7.470000E+03	2.609869E-15	1.693021E-16
7.480000E+03	2.482886E-15	1.609933E-16
7.490000E+03	2.364652E-15	1.532695E-16
7.500000E+03	2.255432E-15	1.461507E-16
7.510000E+03	2.155401E-15	1.396503E-16
7.520000E+03	2.064670E-15	1.337764E-16
7.530000E+03	1.983425E-15	1.285416E-16
7.540000E+03	1.911905E-15	1.239613E-16
7.550000E+03	1.850277E-15	1.200458E-16
7.560000E+03	1.798628E-15	1.168003E-16
7.570000E+03	1.757077E-15	1.142313E-16
7.580000E+03	1.725750E-15	1.123457E-16
7.590000E+03	1.704669E-15	1.111430E-16
7.600000E+03	1.693701E-15	1.106120E-16
7.610000E+03	1.692904E-15	1.107530E-16
7.620000E+03	1.701948E-15	1.115406E-16
7.630000E+03	1.720673E-15	1.129590E-16
7.640000E+03	1.748647E-15	1.149746E-16
7.650000E+03	1.785413E-15	1.175508E-16
7.660000E+03	1.830243E-15	1.206329E-16
7.670000E+03	1.882274E-15	1.241563E-16
7.680000E+03	1.940489E-15	1.280462E-16
7.690000E+03	2.003533E-15	1.322040E-16
7.700000E+03	2.069882E-15	1.365195E-16
7.710000E+03	2.137872E-15	1.408724E-16
7.720000E+03	2.205553E-15	1.451229E-16
7.730000E+03	2.270943E-15	1.491298E-16
7.740000E+03	2.332144E-15	1.527579E-16
7.750000E+03	2.387166E-15	1.558679E-16
7.760000E+03	2.434634E-15	1.583637E-16
