#wls	flux	fluxerr
1.600000E+03	9.746568E-17	8.297061E-17
1.640000E+03	9.621520E-17	8.102913E-17
1.680000E+03	9.502415E-17	7.916721E-17
1.720000E+03	9.390072E-17	7.739459E-17
1.760000E+03	9.285316E-17	7.572048E-17
1.800000E+03	9.190533E-17	7.416598E-17
1.840000E+03	9.106479E-17	7.273778E-17
1.880000E+03	9.032390E-17	7.142972E-17
1.920000E+03	8.969077E-17	7.024745E-17
1.960000E+03	8.920316E-17	6.921858E-17
2.000000E+03	8.883890E-17	6.832271E-17
2.040000E+03	8.862101E-17	6.757367E-17
2.080000E+03	8.855805E-17	6.697297E-17
2.120000E+03	8.867384E-17	6.653264E-17
2.160000E+03	8.895016E-17	6.623221E-17
2.200000E+03	8.942816E-17	6.609503E-17
2.240000E+03	9.010807E-17	6.611312E-17
2.280000E+03	9.100732E-17	6.629070E-17
2.320000E+03	9.217572E-17	6.665482E-17
2.360000E+03	9.360989E-17	6.719301E-17
2.400000E+03	9.534020E-17	6.791655E-17
2.440000E+03	9.743270E-17	6.886073E-17
2.480000E+03	9.991693E-17	7.003293E-17
2.520000E+03	1.028454E-16	7.145459E-17
2.560000E+03	1.062961E-16	7.316174E-17
2.600000E+03	1.103279E-16	7.517295E-17
2.640000E+03	1.150446E-16	7.753257E-17
2.680000E+03	1.205503E-16	8.027837E-17
2.720000E+03	1.269493E-16	8.344042E-17
2.760000E+03	1.344201E-16	8.708755E-17
2.800000E+03	1.431119E-16	9.125696E-17
2.840000E+03	1.532378E-16	9.601231E-17
2.880000E+03	1.649996E-16	1.013922E-16
2.920000E+03	1.786693E-16	1.074586E-16
2.960000E+03	1.945270E-16	1.142541E-16
3.000000E+03	2.129030E-16	1.218242E-16
3.010000E+03	2.179160E-16	1.238327E-16
3.020000E+03	2.231006E-16	1.258844E-16
3.030000E+03	2.284901E-16	1.279949E-16
3.040000E+03	2.340612E-16	1.301479E-16
3.050000E+03	2.398181E-16	1.323428E-16
3.060000E+03	2.457959E-16	1.345954E-16
3.070000E+03	2.519690E-16	1.368884E-16
3.080000E+03	2.583734E-16	1.392378E-16
3.090000E+03	2.649821E-16	1.416254E-16
3.100000E+03	2.717984E-16	1.440497E-16
3.110000E+03	2.788256E-16	1.465086E-16
3.120000E+03	2.861015E-16	1.490186E-16
3.130000E+03	2.935952E-16	1.515595E-16
3.140000E+03	3.013453E-16	1.541476E-16
3.150000E+03	3.093184E-16	1.567619E-16
3.160000E+03	3.175160E-16	1.593993E-16
3.170000E+03	3.259776E-16	1.620762E-16
3.180000E+03	3.346660E-16	1.647699E-16
3.190000E+03	3.435808E-16	1.674768E-16
3.200000E+03	3.527626E-16	1.702128E-16
3.210000E+03	3.621696E-16	1.729541E-16
3.220000E+03	3.718429E-16	1.757166E-16
3.230000E+03	3.817374E-16	1.784753E-16
3.240000E+03	3.918489E-16	1.812252E-16
3.250000E+03	4.022191E-16	1.839821E-16
3.260000E+03	4.127976E-16	1.867196E-16
3.270000E+03	4.235775E-16	1.894318E-16
3.280000E+03	4.346010E-16	1.921347E-16
3.290000E+03	4.458627E-16	1.948224E-16
3.300000E+03	4.572527E-16	1.974446E-16
3.310000E+03	4.688634E-16	2.000390E-16
3.320000E+03	4.806866E-16	2.025994E-16
3.330000E+03	4.926038E-16	2.050737E-16
3.340000E+03	5.047670E-16	2.075234E-16
3.350000E+03	5.169980E-16	2.098729E-16
3.360000E+03	5.293957E-16	2.121611E-16
3.370000E+03	5.419488E-16	2.143815E-16
3.380000E+03	5.545244E-16	2.164800E-16
3.390000E+03	5.672883E-16	2.185203E-16
3.400000E+03	5.800434E-16	2.204247E-16
3.410000E+03	5.928979E-16	2.222338E-16
3.420000E+03	6.058392E-16	2.239411E-16
3.430000E+03	6.187233E-16	2.254923E-16
3.440000E+03	6.317323E-16	2.269532E-16
3.450000E+03	6.446541E-16	2.282458E-16
3.460000E+03	6.576096E-16	2.294126E-16
3.470000E+03	6.705888E-16	2.304483E-16
3.480000E+03	6.834413E-16	2.313000E-16
3.490000E+03	6.963694E-16	2.320353E-16
3.500000E+03	7.091517E-16	2.325782E-16
3.510000E+03	7.219260E-16	2.329732E-16
3.520000E+03	7.346903E-16	2.332172E-16
3.530000E+03	7.472936E-16	2.332603E-16
3.540000E+03	7.599626E-16	2.331716E-16
3.550000E+03	7.724729E-16	2.328790E-16
3.560000E+03	7.849840E-16	2.324289E-16
3.570000E+03	7.975066E-16	2.318206E-16
3.580000E+03	8.099748E-16	2.310315E-16
3.590000E+03	8.224033E-16	2.300627E-16
3.600000E+03	8.348102E-16	2.289157E-16
3.610000E+03	8.472990E-16	2.276147E-16
3.620000E+03	8.598969E-16	2.261617E-16
3.630000E+03	8.725504E-16	2.245371E-16
3.640000E+03	8.852909E-16	2.227440E-16
3.650000E+03	8.981532E-16	2.207861E-16
3.660000E+03	9.112612E-16	2.186875E-16
3.670000E+03	9.245710E-16	2.164310E-16
3.680000E+03	9.382140E-16	2.140403E-16
3.690000E+03	9.521502E-16	2.114987E-16
3.700000E+03	9.665176E-16	2.088296E-16
3.710000E+03	9.811885E-16	2.059978E-16
3.720000E+03	9.963952E-16	2.030457E-16
3.730000E+03	1.012194E-15	1.999763E-16
3.740000E+03	1.028550E-15	1.967749E-16
3.750000E+03	1.045519E-15	1.934462E-16
3.760000E+03	1.063252E-15	1.900123E-16
3.770000E+03	1.081614E-15	1.864448E-16
3.780000E+03	1.100950E-15	1.828006E-16
3.790000E+03	1.121025E-15	1.790385E-16
3.800000E+03	1.142086E-15	1.752009E-16
3.810000E+03	1.164084E-15	1.712847E-16
3.820000E+03	1.187166E-15	1.673207E-16
3.830000E+03	1.211271E-15	1.633132E-16
3.840000E+03	1.236428E-15	1.592864E-16
3.850000E+03	1.262656E-15	1.552692E-16
3.860000E+03	1.290070E-15	1.513085E-16
3.870000E+03	1.318548E-15	1.474297E-16
3.880000E+03	1.348051E-15	1.436764E-16
3.890000E+03	1.378620E-15	1.401076E-16
3.900000E+03	1.410032E-15	1.367597E-16
3.910000E+03	1.442130E-15	1.336810E-16
3.920000E+03	1.474706E-15	1.309156E-16
3.930000E+03	1.507628E-15	1.285110E-16
3.940000E+03	1.540474E-15	1.264820E-16
3.950000E+03	1.572907E-15	1.248405E-16
3.960000E+03	1.604569E-15	1.235825E-16
3.970000E+03	1.635226E-15	1.226973E-16
3.980000E+03	1.664400E-15	1.221389E-16
3.990000E+03	1.691766E-15	1.218591E-16
4.000000E+03	1.717047E-15	1.218006E-16
4.010000E+03	1.740020E-15	1.219020E-16
4.020000E+03	1.760662E-15	1.221109E-16
4.030000E+03	1.778750E-15	1.223597E-16
4.040000E+03	1.794127E-15	1.225871E-16
4.050000E+03	1.807131E-15	1.227687E-16
4.060000E+03	1.817889E-15	1.228708E-16
4.070000E+03	1.826315E-15	1.228506E-16
4.080000E+03	1.832796E-15	1.227033E-16
4.090000E+03	1.837760E-15	1.224330E-16
4.100000E+03	1.841387E-15	1.220325E-16
4.110000E+03	1.843875E-15	1.215011E-16
4.120000E+03	1.845839E-15	1.208702E-16
4.130000E+03	1.847478E-15	1.201461E-16
4.140000E+03	1.849114E-15	1.193457E-16
4.150000E+03	1.851055E-15	1.184848E-16
4.160000E+03	1.853588E-15	1.175772E-16
4.170000E+03	1.856978E-15	1.166330E-16
4.180000E+03	1.861470E-15	1.156574E-16
4.190000E+03	1.867282E-15	1.146497E-16
4.200000E+03	1.874742E-15	1.136105E-16
4.210000E+03	1.883745E-15	1.125079E-16
4.220000E+03	1.894555E-15	1.113262E-16
4.230000E+03	1.907263E-15	1.100327E-16
4.240000E+03	1.921913E-15	1.085855E-16
4.250000E+03	1.938494E-15	1.069347E-16
4.260000E+03	1.956940E-15	1.050233E-16
4.270000E+03	1.977117E-15	1.027898E-16
4.280000E+03	1.998686E-15	1.001650E-16
4.290000E+03	2.021653E-15	9.710518E-17
4.300000E+03	2.045411E-15	9.355061E-17
4.310000E+03	2.069847E-15	8.949000E-17
4.320000E+03	2.094238E-15	8.492229E-17
4.330000E+03	2.118241E-15	7.992127E-17
4.340000E+03	2.141339E-15	7.463889E-17
4.350000E+03	2.162989E-15	6.935031E-17
4.360000E+03	2.182643E-15	6.449598E-17
4.370000E+03	2.199629E-15	6.069273E-17
4.380000E+03	2.213657E-15	5.865767E-17
4.390000E+03	2.224534E-15	5.892172E-17
4.400000E+03	2.232487E-15	6.150698E-17
4.410000E+03	2.238150E-15	6.592636E-17
4.420000E+03	2.242211E-15	7.150163E-17
4.430000E+03	2.245687E-15	7.764494E-17
4.440000E+03	2.249395E-15	8.393501E-17
4.450000E+03	2.254058E-15	9.010837E-17
4.460000E+03	2.260143E-15	9.601289E-17
4.470000E+03	2.268283E-15	1.015876E-16
4.480000E+03	2.278830E-15	1.068167E-16
4.490000E+03	2.291858E-15	1.117075E-16
4.500000E+03	2.307579E-15	1.162955E-16
4.510000E+03	2.325909E-15	1.206143E-16
4.520000E+03	2.346460E-15	1.246865E-16
4.530000E+03	2.368981E-15	1.285417E-16
4.540000E+03	2.392925E-15	1.321907E-16
4.550000E+03	2.417470E-15	1.356244E-16
4.560000E+03	2.441994E-15	1.388391E-16
4.570000E+03	2.465515E-15	1.418055E-16
4.580000E+03	2.487343E-15	1.445061E-16
4.590000E+03	2.506676E-15	1.469130E-16
4.600000E+03	2.522644E-15	1.489906E-16
4.610000E+03	2.534810E-15	1.507257E-16
4.620000E+03	2.542739E-15	1.521028E-16
4.630000E+03	2.546018E-15	1.531050E-16
4.640000E+03	2.544564E-15	1.537330E-16
4.650000E+03	2.538610E-15	1.540047E-16
4.660000E+03	2.528377E-15	1.539365E-16
4.670000E+03	2.514046E-15	1.535420E-16
4.680000E+03	2.496170E-15	1.528580E-16
4.690000E+03	2.475043E-15	1.519071E-16
4.700000E+03	2.451262E-15	1.507330E-16
4.710000E+03	2.425122E-15	1.493626E-16
4.720000E+03	2.397181E-15	1.478413E-16
4.730000E+03	2.367684E-15	1.461964E-16
4.740000E+03	2.337127E-15	1.444710E-16
4.750000E+03	2.305708E-15	1.426890E-16
4.760000E+03	2.273881E-15	1.408884E-16
4.770000E+03	2.241826E-15	1.390876E-16
4.780000E+03	2.209992E-15	1.373184E-16
4.790000E+03	2.178589E-15	1.355943E-16
4.800000E+03	2.147999E-15	1.339362E-16
4.810000E+03	2.118901E-15	1.323808E-16
4.820000E+03	2.091437E-15	1.309300E-16
4.830000E+03	2.066433E-15	1.296273E-16
4.840000E+03	2.044436E-15	1.284995E-16
4.850000E+03	2.026299E-15	1.275929E-16
4.860000E+03	2.012689E-15	1.269439E-16
4.870000E+03	2.004526E-15	1.266053E-16
4.880000E+03	2.002483E-15	1.266153E-16
4.890000E+03	2.007392E-15	1.270225E-16
4.900000E+03	2.019743E-15	1.278536E-16
4.910000E+03	2.039958E-15	1.291316E-16
4.920000E+03	2.068328E-15	1.308716E-16
4.930000E+03	2.104609E-15	1.330563E-16
4.940000E+03	2.148412E-15	1.356614E-16
4.950000E+03	2.198691E-15	1.386244E-16
4.960000E+03	2.254191E-15	1.418725E-16
4.970000E+03	2.312986E-15	1.452942E-16
4.980000E+03	2.372911E-15	1.487656E-16
4.990000E+03	2.431717E-15	1.521593E-16
5.000000E+03	2.486874E-15	1.553309E-16
5.010000E+03	2.536332E-15	1.581650E-16
5.020000E+03	2.578220E-15	1.605549E-16
5.030000E+03	2.611449E-15	1.624395E-16
5.040000E+03	2.635842E-15	1.638101E-16
5.050000E+03	2.651867E-15	1.646940E-16
5.060000E+03	2.660395E-15	1.651395E-16
5.070000E+03	2.663381E-15	1.652589E-16
5.080000E+03	2.662778E-15	1.651624E-16
5.090000E+03	2.660441E-15	1.649528E-16
5.100000E+03	2.658194E-15	1.647319E-16
5.110000E+03	2.657666E-15	1.645908E-16
5.120000E+03	2.659770E-15	1.645785E-16
5.130000E+03	2.665230E-15	1.647357E-16
5.140000E+03	2.674030E-15	1.650608E-16
5.150000E+03	2.686046E-15	1.655484E-16
5.160000E+03	2.700564E-15	1.661584E-16
5.170000E+03	2.716810E-15	1.668471E-16
5.180000E+03	2.734052E-15	1.675717E-16
5.190000E+03	2.751268E-15	1.682677E-16
5.200000E+03	2.767790E-15	1.688873E-16
5.210000E+03	2.782781E-15	1.693661E-16
5.220000E+03	2.795694E-15	1.696510E-16
5.230000E+03	2.806280E-15	1.697018E-16
5.240000E+03	2.814289E-15	1.694735E-16
5.250000E+03	2.819444E-15	1.689176E-16
5.260000E+03	2.821718E-15	1.680004E-16
5.270000E+03	2.821314E-15	1.667039E-16
5.280000E+03	2.818206E-15	1.650007E-16
5.290000E+03	2.812716E-15	1.628893E-16
5.300000E+03	2.804923E-15	1.603595E-16
5.310000E+03	2.795101E-15	1.574178E-16
5.320000E+03	2.783711E-15	1.540850E-16
5.330000E+03	2.771115E-15	1.503776E-16
5.340000E+03	2.757566E-15	1.463059E-16
5.350000E+03	2.743637E-15	1.418944E-16
5.360000E+03	2.729495E-15	1.371417E-16
5.370000E+03	2.716027E-15	1.320772E-16
5.380000E+03	2.703425E-15	1.266886E-16
5.390000E+03	2.692172E-15	1.209732E-16
5.400000E+03	2.682904E-15	1.149323E-16
5.410000E+03	2.676141E-15	1.085643E-16
5.420000E+03	2.672295E-15	1.018759E-16
5.430000E+03	2.671935E-15	9.491113E-17
5.440000E+03	2.675774E-15	8.777810E-17
5.450000E+03	2.684216E-15	8.068142E-17
5.460000E+03	2.697857E-15	7.401296E-17
5.470000E+03	2.717009E-15	6.842640E-17
5.480000E+03	2.741593E-15	6.486769E-17
5.490000E+03	2.771352E-15	6.434622E-17
5.500000E+03	2.804897E-15	6.729985E-17
5.510000E+03	2.839921E-15	7.322057E-17
5.520000E+03	2.873553E-15	8.106903E-17
5.530000E+03	2.902546E-15	8.981944E-17
5.540000E+03	2.923603E-15	9.866332E-17
5.550000E+03	2.934085E-15	1.070209E-16
5.560000E+03	2.931792E-15	1.144813E-16
5.570000E+03	2.915112E-15	1.207640E-16
5.580000E+03	2.883397E-15	1.257066E-16
5.590000E+03	2.836947E-15	1.292496E-16
5.600000E+03	2.776607E-15	1.314061E-16
5.610000E+03	2.703632E-15	1.322435E-16
5.620000E+03	2.619942E-15	1.318856E-16
5.630000E+03	2.527411E-15	1.304693E-16
5.640000E+03	2.428299E-15	1.281594E-16
5.650000E+03	2.324780E-15	1.251201E-16
5.660000E+03	2.218936E-15	1.215128E-16
5.670000E+03	2.113100E-15	1.175131E-16
5.680000E+03	2.009378E-15	1.132860E-16
5.690000E+03	1.910167E-15	1.090135E-16
5.700000E+03	1.817286E-15	1.048458E-16
5.710000E+03	1.733006E-15	1.009576E-16
5.720000E+03	1.658844E-15	9.747783E-17
5.730000E+03	1.596598E-15	9.454823E-17
5.740000E+03	1.547363E-15	9.226473E-17
5.750000E+03	1.512208E-15	9.071693E-17
5.760000E+03	1.491854E-15	8.996968E-17
5.770000E+03	1.486705E-15	9.006518E-17
5.780000E+03	1.497082E-15	9.103785E-17
5.790000E+03	1.522903E-15	9.289572E-17
5.800000E+03	1.563939E-15	9.563661E-17
5.810000E+03	1.619514E-15	9.922992E-17
5.820000E+03	1.688477E-15	1.036150E-16
5.830000E+03	1.769010E-15	1.086890E-16
5.840000E+03	1.858801E-15	1.143173E-16
5.850000E+03	1.954671E-15	1.203094E-16
5.860000E+03	2.053099E-15	1.264512E-16
5.870000E+03	2.149685E-15	1.324716E-16
5.880000E+03	2.239987E-15	1.380939E-16
5.890000E+03	2.319893E-15	1.430602E-16
5.900000E+03	2.385289E-15	1.471118E-16
5.910000E+03	2.433198E-15	1.500616E-16
5.920000E+03	2.461467E-15	1.517762E-16
5.930000E+03	2.469550E-15	1.522245E-16
5.940000E+03	2.457665E-15	1.514258E-16
5.950000E+03	2.427456E-15	1.494890E-16
5.960000E+03	2.381776E-15	1.465980E-16
5.970000E+03	2.323667E-15	1.429469E-16
5.980000E+03	2.256900E-15	1.387727E-16
5.990000E+03	2.185182E-15	1.343062E-16
6.000000E+03	2.112017E-15	1.297640E-16
6.010000E+03	2.040419E-15	1.253307E-16
6.020000E+03	1.973115E-15	1.211728E-16
6.030000E+03	1.912187E-15	1.174162E-16
6.040000E+03	1.859102E-15	1.141493E-16
6.050000E+03	1.815156E-15	1.114495E-16
6.060000E+03	1.780885E-15	1.093480E-16
6.070000E+03	1.756819E-15	1.078760E-16
6.080000E+03	1.743193E-15	1.070470E-16
6.090000E+03	1.740032E-15	1.068629E-16
6.100000E+03	1.747588E-15	1.073406E-16
6.110000E+03	1.765767E-15	1.084769E-16
6.120000E+03	1.794814E-15	1.102906E-16
6.130000E+03	1.834982E-15	1.128016E-16
6.140000E+03	1.886540E-15	1.160309E-16
6.150000E+03	1.950146E-15	1.200231E-16
6.160000E+03	2.026132E-15	1.248011E-16
6.170000E+03	2.115110E-15	1.304030E-16
6.180000E+03	2.217487E-15	1.368506E-16
6.190000E+03	2.333432E-15	1.441458E-16
6.200000E+03	2.462721E-15	1.522596E-16
6.210000E+03	2.604456E-15	1.611127E-16
6.220000E+03	2.757436E-15	1.705977E-16
6.230000E+03	2.919108E-15	1.805133E-16
6.240000E+03	3.086452E-15	1.906194E-16
6.250000E+03	3.255441E-15	2.006070E-16
6.260000E+03	3.421289E-15	2.101170E-16
6.270000E+03	3.578489E-15	2.187488E-16
6.280000E+03	3.721868E-15	2.261323E-16
6.290000E+03	3.845711E-15	2.318812E-16
6.300000E+03	3.945716E-15	2.357182E-16
6.310000E+03	4.017858E-15	2.374088E-16
6.320000E+03	4.060132E-15	2.368661E-16
6.330000E+03	4.071965E-15	2.341108E-16
6.340000E+03	4.054446E-15	2.292770E-16
6.350000E+03	4.009978E-15	2.225829E-16
6.360000E+03	3.942809E-15	2.143488E-16
6.370000E+03	3.857351E-15	2.048926E-16
6.380000E+03	3.758357E-15	1.945324E-16
6.390000E+03	3.651044E-15	1.835855E-16
6.400000E+03	3.539347E-15	1.722751E-16
6.410000E+03	3.427015E-15	1.607886E-16
6.420000E+03	3.316700E-15	1.492357E-16
6.430000E+03	3.210137E-15	1.376658E-16
6.440000E+03	3.108222E-15	1.260819E-16
6.450000E+03	3.011152E-15	1.144609E-16
6.460000E+03	2.918613E-15	1.027790E-16
6.470000E+03	2.829985E-15	9.104290E-17
6.480000E+03	2.744546E-15	7.933363E-17
6.490000E+03	2.661522E-15	6.786747E-17
6.500000E+03	2.580802E-15	5.711786E-17
6.510000E+03	2.502186E-15	4.795649E-17
6.520000E+03	2.425833E-15	4.176715E-17
6.530000E+03	2.352466E-15	3.990376E-17
6.540000E+03	2.282185E-15	4.226217E-17
6.550000E+03	2.215375E-15	4.719659E-17
6.560000E+03	2.151890E-15	5.303682E-17
6.570000E+03	2.091958E-15	5.880739E-17
6.580000E+03	2.035752E-15	6.406481E-17
6.590000E+03	1.982992E-15	6.864052E-17
6.600000E+03	1.933555E-15	7.251109E-17
6.610000E+03	1.887017E-15	7.570791E-17
6.620000E+03	1.842883E-15	7.828547E-17
6.630000E+03	1.800237E-15	8.028592E-17
6.640000E+03	1.758404E-15	8.175580E-17
6.650000E+03	1.716614E-15	8.272816E-17
6.660000E+03	1.674175E-15	8.322847E-17
6.670000E+03	1.630529E-15	8.327838E-17
6.680000E+03	1.585302E-15	8.289999E-17
6.690000E+03	1.538331E-15	8.211975E-17
6.700000E+03	1.489669E-15	8.097130E-17
6.710000E+03	1.439577E-15	7.949681E-17
6.720000E+03	1.388501E-15	7.774696E-17
6.730000E+03	1.337027E-15	7.577963E-17
6.740000E+03	1.285915E-15	7.366172E-17
6.750000E+03	1.235762E-15	7.145072E-17
6.760000E+03	1.187390E-15	6.921593E-17
6.770000E+03	1.141515E-15	6.701979E-17
6.780000E+03	1.098792E-15	6.491972E-17
6.790000E+03	1.059741E-15	6.296324E-17
6.800000E+03	1.024968E-15	6.120113E-17
6.810000E+03	9.948240E-16	5.966706E-17
6.820000E+03	9.696536E-16	5.839253E-17
6.830000E+03	9.497543E-16	5.740489E-17
6.840000E+03	9.353981E-16	5.672884E-17
6.850000E+03	9.268526E-16	5.638793E-17
6.860000E+03	9.243963E-16	5.640559E-17
6.870000E+03	9.283285E-16	5.680570E-17
6.880000E+03	9.389708E-16	5.761269E-17
6.890000E+03	9.566603E-16	5.885091E-17
6.900000E+03	9.817323E-16	6.054362E-17
6.910000E+03	1.014495E-15	6.271133E-17
6.920000E+03	1.055193E-15	6.536975E-17
6.930000E+03	1.103966E-15	6.852734E-17
6.940000E+03	1.160795E-15	7.218261E-17
6.950000E+03	1.225452E-15	7.632125E-17
6.960000E+03	1.297447E-15	8.091338E-17
6.970000E+03	1.375991E-15	8.591123E-17
6.980000E+03	1.459974E-15	9.124796E-17
6.990000E+03	1.547974E-15	9.683792E-17
7.000000E+03	1.638223E-15	1.025735E-16
7.010000E+03	1.729041E-15	1.083519E-16
7.020000E+03	1.818440E-15	1.140494E-16
7.030000E+03	1.904606E-15	1.195515E-16
7.040000E+03	1.985963E-15	1.247565E-16
7.050000E+03	2.061192E-15	1.295775E-16
7.060000E+03	2.129775E-15	1.339778E-16
7.070000E+03	2.191386E-15	1.379332E-16
7.080000E+03	2.246345E-15	1.414615E-16
7.090000E+03	2.295344E-15	1.446064E-16
7.100000E+03	2.339892E-15	1.474649E-16
7.110000E+03	2.381471E-15	1.501343E-16
7.120000E+03	2.421797E-15	1.527283E-16
7.130000E+03	2.463136E-15	1.553953E-16
7.140000E+03	2.507256E-15	1.582527E-16
7.150000E+03	2.556419E-15	1.614474E-16
7.160000E+03	2.612179E-15	1.650803E-16
7.170000E+03	2.676261E-15	1.692608E-16
7.180000E+03	2.750057E-15	1.740743E-16
7.190000E+03	2.834047E-15	1.795463E-16
7.200000E+03	2.928590E-15	1.856921E-16
7.210000E+03	3.033210E-15	1.924726E-16
7.220000E+03	3.146632E-15	1.997977E-16
7.230000E+03	3.266697E-15	2.075222E-16
7.240000E+03	3.390313E-15	2.154442E-16
7.250000E+03	3.513474E-15	2.233079E-16
7.260000E+03	3.631384E-15	2.308108E-16
7.270000E+03	3.738464E-15	2.376044E-16
7.280000E+03	3.829528E-15	2.433669E-16
7.290000E+03	3.898980E-15	2.477502E-16
7.300000E+03	3.941885E-15	2.504472E-16
7.310000E+03	3.954895E-15	2.512485E-16
7.320000E+03	3.936180E-15	2.500390E-16
7.330000E+03	3.884966E-15	2.467680E-16
7.340000E+03	3.802882E-15	2.415371E-16
7.350000E+03	3.692896E-15	2.345325E-16
7.360000E+03	3.559199E-15	2.260190E-16
7.370000E+03	3.406573E-15	2.163001E-16
7.380000E+03	3.240716E-15	2.057381E-16
7.390000E+03	3.066462E-15	1.946413E-16
7.400000E+03	2.888950E-15	1.833380E-16
7.410000E+03	2.711976E-15	1.720709E-16
7.420000E+03	2.539082E-15	1.610671E-16
7.430000E+03	2.372861E-15	1.504931E-16
7.440000E+03	2.215180E-15	1.404691E-16
7.450000E+03	2.067281E-15	1.310752E-16
7.460000E+03	1.929787E-15	1.223518E-16
7.470000E+03	1.803268E-15	1.143352E-16
7.480000E+03	1.687574E-15	1.070149E-16
7.490000E+03	1.582684E-15	1.003884E-16
7.500000E+03	1.488347E-15	9.443765E-17
7.510000E+03	1.404249E-15	8.914043E-17
7.520000E+03	1.330043E-15	8.447254E-17
7.530000E+03	1.265310E-15	8.040525E-17
7.540000E+03	1.209793E-15	7.692079E-17
7.550000E+03	1.163245E-15	7.400257E-17
7.560000E+03	1.125243E-15	7.162344E-17
7.570000E+03	1.095534E-15	6.976774E-17
7.580000E+03	1.074013E-15	6.842967E-17
7.590000E+03	1.060405E-15	6.759285E-17
7.600000E+03	1.054450E-15	6.724214E-17
7.610000E+03	1.056016E-15	6.737018E-17
7.620000E+03	1.064895E-15	6.796445E-17
7.630000E+03	1.080849E-15	6.900970E-17
7.640000E+03	1.103521E-15	7.048193E-17
7.650000E+03	1.132593E-15	7.235840E-17
7.660000E+03	1.167644E-15	7.460772E-17
7.670000E+03	1.207829E-15	7.716972E-17
7.680000E+03	1.252538E-15	7.999711E-17
7.690000E+03	1.300689E-15	8.301059E-17
7.700000E+03	1.350979E-15	8.611546E-17
7.710000E+03	1.402059E-15	8.921355E-17
7.720000E+03	1.452338E-15	9.219215E-17
7.730000E+03	1.500119E-15	9.493409E-17
7.740000E+03	1.543595E-15	9.731909E-17
7.750000E+03	1.581235E-15	9.924900E-17
7.760000E+03	1.611647E-15	1.006395E-16
