#wls	flux	fluxerr
1.600000E+03	5.046339E-17	4.817947E-17
1.640000E+03	5.013389E-17	4.766246E-17
1.680000E+03	4.982882E-17	4.717086E-17
1.720000E+03	4.956964E-17	4.672493E-17
1.760000E+03	4.935145E-17	4.631977E-17
1.800000E+03	4.918705E-17	4.596704E-17
1.840000E+03	4.907212E-17	4.566209E-17
1.880000E+03	4.901130E-17	4.540858E-17
1.920000E+03	4.900955E-17	4.521024E-17
1.960000E+03	4.908076E-17	4.507876E-17
2.000000E+03	4.922204E-17	4.501015E-17
2.040000E+03	4.943959E-17	4.500855E-17
2.080000E+03	4.974013E-17	4.507829E-17
2.120000E+03	5.013975E-17	4.523186E-17
2.160000E+03	5.064675E-17	4.547426E-17
2.200000E+03	5.125261E-17	4.579509E-17
2.240000E+03	5.198502E-17	4.621597E-17
2.280000E+03	5.285543E-17	4.674342E-17
2.320000E+03	5.385816E-17	4.736824E-17
2.360000E+03	5.502551E-17	4.811418E-17
2.400000E+03	5.637357E-17	4.898972E-17
2.440000E+03	5.791054E-17	4.999561E-17
2.480000E+03	5.965594E-17	5.114140E-17
2.520000E+03	6.163157E-17	5.243733E-17
2.560000E+03	6.387258E-17	5.390337E-17
2.600000E+03	6.640718E-17	5.555161E-17
2.640000E+03	6.924347E-17	5.737527E-17
2.680000E+03	7.243783E-17	5.940540E-17
2.720000E+03	7.602869E-17	6.165478E-17
2.760000E+03	8.004497E-17	6.412503E-17
2.800000E+03	8.453101E-17	6.682640E-17
2.840000E+03	8.954980E-17	6.977903E-17
2.880000E+03	9.513991E-17	7.297819E-17
2.920000E+03	1.013569E-16	7.642645E-17
2.960000E+03	1.082777E-16	8.013500E-17
3.000000E+03	1.159488E-16	8.408389E-17
3.010000E+03	1.179817E-16	8.510008E-17
3.020000E+03	1.200861E-16	8.614410E-17
3.030000E+03	1.222438E-16	8.720175E-17
3.040000E+03	1.244356E-16	8.825814E-17
3.050000E+03	1.267030E-16	8.934170E-17
3.060000E+03	1.290271E-16	9.043763E-17
3.070000E+03	1.313873E-16	9.153040E-17
3.080000E+03	1.338277E-16	9.264935E-17
3.090000E+03	1.363280E-16	9.377905E-17
3.100000E+03	1.388667E-16	9.490331E-17
3.110000E+03	1.414900E-16	9.605238E-17
3.120000E+03	1.441767E-16	9.721017E-17
3.130000E+03	1.469280E-16	9.837590E-17
3.140000E+03	1.497450E-16	9.954877E-17
3.150000E+03	1.526291E-16	1.007279E-16
3.160000E+03	1.555813E-16	1.019124E-16
3.170000E+03	1.585770E-16	1.030844E-16
3.180000E+03	1.616688E-16	1.042765E-16
3.190000E+03	1.648324E-16	1.054708E-16
3.200000E+03	1.680692E-16	1.066662E-16
3.210000E+03	1.713805E-16	1.078616E-16
3.220000E+03	1.747676E-16	1.090558E-16
3.230000E+03	1.782318E-16	1.102474E-16
3.240000E+03	1.817745E-16	1.114350E-16
3.250000E+03	1.853972E-16	1.126173E-16
3.260000E+03	1.891014E-16	1.137929E-16
3.270000E+03	1.929195E-16	1.149787E-16
3.280000E+03	1.967916E-16	1.161363E-16
3.290000E+03	2.007498E-16	1.172823E-16
3.300000E+03	2.047956E-16	1.184152E-16
3.310000E+03	2.089309E-16	1.195332E-16
3.320000E+03	2.131573E-16	1.206344E-16
3.330000E+03	2.174767E-16	1.217170E-16
3.340000E+03	2.219267E-16	1.227989E-16
3.350000E+03	2.264386E-16	1.238388E-16
3.360000E+03	2.310495E-16	1.248543E-16
3.370000E+03	2.357615E-16	1.258432E-16
3.380000E+03	2.406154E-16	1.268237E-16
3.390000E+03	2.455374E-16	1.277533E-16
3.400000E+03	2.505677E-16	1.286499E-16
3.410000E+03	2.557496E-16	1.295318E-16
3.420000E+03	2.610051E-16	1.303554E-16
3.430000E+03	2.663771E-16	1.311390E-16
3.440000E+03	2.719118E-16	1.319011E-16
3.450000E+03	2.775266E-16	1.325973E-16
3.460000E+03	2.832673E-16	1.332460E-16
3.470000E+03	2.891832E-16	1.338657E-16
3.480000E+03	2.951870E-16	1.344115E-16
3.490000E+03	3.013752E-16	1.349232E-16
3.500000E+03	3.076572E-16	1.353553E-16
3.510000E+03	3.141335E-16	1.357478E-16
3.520000E+03	3.207100E-16	1.360550E-16
3.530000E+03	3.274399E-16	1.362954E-16
3.540000E+03	3.343805E-16	1.364876E-16
3.550000E+03	3.414320E-16	1.365855E-16
3.560000E+03	3.487060E-16	1.366292E-16
3.570000E+03	3.560988E-16	1.365725E-16
3.580000E+03	3.637266E-16	1.364554E-16
3.590000E+03	3.714815E-16	1.362317E-16
3.600000E+03	3.794845E-16	1.359414E-16
3.610000E+03	3.876839E-16	1.355596E-16
3.620000E+03	3.960233E-16	1.350623E-16
3.630000E+03	4.046312E-16	1.344886E-16
3.640000E+03	4.133879E-16	1.337936E-16
3.650000E+03	4.224268E-16	1.330161E-16
3.660000E+03	4.316227E-16	1.321118E-16
3.670000E+03	4.411145E-16	1.311195E-16
3.680000E+03	4.508412E-16	1.300161E-16
3.690000E+03	4.607360E-16	1.287792E-16
3.700000E+03	4.709456E-16	1.274476E-16
3.710000E+03	4.813289E-16	1.259801E-16
3.720000E+03	4.920375E-16	1.244152E-16
3.730000E+03	5.030014E-16	1.227331E-16
3.740000E+03	5.141429E-16	1.209155E-16
3.750000E+03	5.256213E-16	1.190019E-16
3.760000E+03	5.373589E-16	1.169759E-16
3.770000E+03	5.492699E-16	1.148235E-16
3.780000E+03	5.615203E-16	1.125862E-16
3.790000E+03	5.739348E-16	1.102360E-16
3.800000E+03	5.866831E-16	1.078165E-16
3.810000E+03	5.996709E-16	1.053219E-16
3.820000E+03	6.127940E-16	1.027504E-16
3.830000E+03	6.262261E-16	1.001509E-16
3.840000E+03	6.398583E-16	9.752705E-17
3.850000E+03	6.535695E-16	9.488735E-17
3.860000E+03	6.675323E-16	9.228745E-17
3.870000E+03	6.816156E-16	8.974130E-17
3.880000E+03	6.956719E-16	8.726666E-17
3.890000E+03	7.098613E-16	8.492309E-17
3.900000E+03	7.239062E-16	8.271647E-17
3.910000E+03	7.379506E-16	8.070279E-17
3.920000E+03	7.517976E-16	7.889538E-17
3.930000E+03	7.652305E-16	7.730247E-17
3.940000E+03	7.783717E-16	7.595956E-17
3.950000E+03	7.909935E-16	7.485640E-17
3.960000E+03	8.028626E-16	7.397305E-17
3.970000E+03	8.141191E-16	7.331337E-17
3.980000E+03	8.244300E-16	7.282758E-17
3.990000E+03	8.339778E-16	7.250438E-17
4.000000E+03	8.425961E-16	7.229585E-17
4.010000E+03	8.501400E-16	7.215392E-17
4.020000E+03	8.568766E-16	7.206552E-17
4.030000E+03	8.625835E-16	7.197807E-17
4.040000E+03	8.675808E-16	7.188806E-17
4.050000E+03	8.718192E-16	7.176533E-17
4.060000E+03	8.752649E-16	7.158583E-17
4.070000E+03	8.782946E-16	7.136348E-17
4.080000E+03	8.807682E-16	7.107375E-17
4.090000E+03	8.830824E-16	7.073897E-17
4.100000E+03	8.851081E-16	7.034150E-17
4.110000E+03	8.872491E-16	6.990825E-17
4.120000E+03	8.893750E-16	6.942502E-17
4.130000E+03	8.918850E-16	6.892006E-17
4.140000E+03	8.946375E-16	6.837976E-17
4.150000E+03	8.980177E-16	6.783109E-17
4.160000E+03	9.018634E-16	6.725859E-17
4.170000E+03	9.065385E-16	6.668546E-17
4.180000E+03	9.118525E-16	6.609201E-17
4.190000E+03	9.180051E-16	6.548553E-17
4.200000E+03	9.251830E-16	6.486936E-17
4.210000E+03	9.331435E-16	6.421388E-17
4.220000E+03	9.420396E-16	6.351479E-17
4.230000E+03	9.520133E-16	6.276362E-17
4.240000E+03	9.627675E-16	6.192047E-17
4.250000E+03	9.745573E-16	6.098018E-17
4.260000E+03	9.870496E-16	5.989921E-17
4.270000E+03	1.000327E-15	5.866141E-17
4.280000E+03	1.014313E-15	5.724318E-17
4.290000E+03	1.029069E-15	5.563355E-17
4.300000E+03	1.044188E-15	5.380439E-17
4.310000E+03	1.059706E-15	5.176528E-17
4.320000E+03	1.075501E-15	4.953607E-17
4.330000E+03	1.091448E-15	4.716377E-17
4.340000E+03	1.107590E-15	4.473990E-17
4.350000E+03	1.123486E-15	4.238616E-17
4.360000E+03	1.139194E-15	4.030517E-17
4.370000E+03	1.154625E-15	3.875009E-17
4.380000E+03	1.169715E-15	3.799594E-17
4.390000E+03	1.184443E-15	3.825410E-17
4.400000E+03	1.198851E-15	3.957170E-17
4.410000E+03	1.213046E-15	4.181923E-17
4.420000E+03	1.227163E-15	4.477554E-17
4.430000E+03	1.241344E-15	4.821374E-17
4.440000E+03	1.255720E-15	5.194472E-17
4.450000E+03	1.270395E-15	5.582711E-17
4.460000E+03	1.285435E-15	5.976137E-17
4.470000E+03	1.300861E-15	6.367926E-17
4.480000E+03	1.316634E-15	6.753373E-17
4.490000E+03	1.332654E-15	7.129074E-17
4.500000E+03	1.348553E-15	7.491212E-17
4.510000E+03	1.364482E-15	7.839449E-17
4.520000E+03	1.379940E-15	8.170247E-17
4.530000E+03	1.394570E-15	8.480957E-17
4.540000E+03	1.407770E-15	8.767508E-17
4.550000E+03	1.419536E-15	9.029577E-17
4.560000E+03	1.429265E-15	9.263243E-17
4.570000E+03	1.436386E-15	9.464817E-17
4.580000E+03	1.441017E-15	9.635303E-17
4.590000E+03	1.442736E-15	9.772402E-17
4.600000E+03	1.441226E-15	9.874608E-17
4.610000E+03	1.436907E-15	9.945602E-17
4.620000E+03	1.429476E-15	9.984205E-17
4.630000E+03	1.419565E-15	9.995734E-17
4.640000E+03	1.407066E-15	9.980329E-17
4.650000E+03	1.392757E-15	9.944326E-17
4.660000E+03	1.376647E-15	9.888548E-17
4.670000E+03	1.359370E-15	9.818228E-17
4.680000E+03	1.341544E-15	9.738511E-17
4.690000E+03	1.323184E-15	9.650143E-17
4.700000E+03	1.304850E-15	9.557837E-17
4.710000E+03	1.287049E-15	9.465896E-17
4.720000E+03	1.269674E-15	9.374114E-17
4.730000E+03	1.253128E-15	9.285941E-17
4.740000E+03	1.237577E-15	9.202986E-17
4.750000E+03	1.223135E-15	9.126401E-17
4.760000E+03	1.209879E-15	9.056918E-17
4.770000E+03	1.197849E-15	8.994913E-17
4.780000E+03	1.187061E-15	8.940478E-17
4.790000E+03	1.177514E-15	8.893507E-17
4.800000E+03	1.169195E-15	8.853784E-17
4.810000E+03	1.162096E-15	8.821070E-17
4.820000E+03	1.156213E-15	8.795170E-17
4.830000E+03	1.151558E-15	8.776010E-17
4.840000E+03	1.148161E-15	8.763686E-17
4.850000E+03	1.146076E-15	8.758510E-17
4.860000E+03	1.145382E-15	8.761042E-17
4.870000E+03	1.146022E-15	8.770847E-17
4.880000E+03	1.148450E-15	8.791486E-17
4.890000E+03	1.152653E-15	8.822975E-17
4.900000E+03	1.158624E-15	8.865444E-17
4.910000E+03	1.166850E-15	8.922817E-17
4.920000E+03	1.177301E-15	8.995116E-17
4.930000E+03	1.189902E-15	9.082027E-17
4.940000E+03	1.205015E-15	9.186604E-17
4.950000E+03	1.222237E-15	9.306083E-17
4.960000E+03	1.241743E-15	9.442137E-17
4.970000E+03	1.262905E-15	9.590330E-17
4.980000E+03	1.285514E-15	9.749436E-17
4.990000E+03	1.309300E-15	9.917715E-17
5.000000E+03	1.333400E-15	1.008890E-16
5.010000E+03	1.357517E-15	1.026089E-16
5.020000E+03	1.381427E-15	1.043196E-16
5.030000E+03	1.404435E-15	1.059661E-16
5.040000E+03	1.426562E-15	1.075448E-16
5.050000E+03	1.447786E-15	1.090462E-16
5.060000E+03	1.468223E-15	1.104691E-16
5.070000E+03	1.488092E-15	1.118183E-16
5.080000E+03	1.507885E-15	1.131190E-16
5.090000E+03	1.527463E-15	1.143499E-16
5.100000E+03	1.547277E-15	1.155355E-16
5.110000E+03	1.567253E-15	1.166641E-16
5.120000E+03	1.587853E-15	1.177671E-16
5.130000E+03	1.608738E-15	1.188192E-16
5.140000E+03	1.629638E-15	1.198033E-16
5.150000E+03	1.650152E-15	1.206943E-16
5.160000E+03	1.669774E-15	1.214603E-16
5.170000E+03	1.687695E-15	1.220471E-16
5.180000E+03	1.703792E-15	1.224490E-16
5.190000E+03	1.717260E-15	1.226081E-16
5.200000E+03	1.727345E-15	1.224689E-16
5.210000E+03	1.734113E-15	1.220318E-16
5.220000E+03	1.737016E-15	1.212525E-16
5.230000E+03	1.735628E-15	1.200957E-16
5.240000E+03	1.730382E-15	1.185868E-16
5.250000E+03	1.720863E-15	1.166944E-16
5.260000E+03	1.707739E-15	1.144637E-16
5.270000E+03	1.690819E-15	1.118839E-16
5.280000E+03	1.670718E-15	1.090009E-16
5.290000E+03	1.648115E-15	1.058645E-16
5.300000E+03	1.623045E-15	1.024826E-16
5.310000E+03	1.596278E-15	9.890895E-17
5.320000E+03	1.568371E-15	9.517991E-17
5.330000E+03	1.540102E-15	9.134041E-17
5.340000E+03	1.511591E-15	8.739085E-17
5.350000E+03	1.483591E-15	8.336466E-17
5.360000E+03	1.456599E-15	7.927552E-17
5.370000E+03	1.431070E-15	7.513129E-17
5.380000E+03	1.407401E-15	7.093509E-17
5.390000E+03	1.385922E-15	6.668687E-17
5.400000E+03	1.366894E-15	6.238566E-17
5.410000E+03	1.350501E-15	5.803291E-17
5.420000E+03	1.336847E-15	5.363785E-17
5.430000E+03	1.325952E-15	4.922635E-17
5.440000E+03	1.317749E-15	4.485542E-17
5.450000E+03	1.311894E-15	4.063057E-17
5.460000E+03	1.308493E-15	3.676165E-17
5.470000E+03	1.306992E-15	3.356063E-17
5.480000E+03	1.306914E-15	3.145997E-17
5.490000E+03	1.307491E-15	3.087305E-17
5.500000E+03	1.308415E-15	3.194770E-17
5.510000E+03	1.308767E-15	3.440688E-17
5.520000E+03	1.307607E-15	3.774797E-17
5.530000E+03	1.304566E-15	4.150106E-17
5.540000E+03	1.298625E-15	4.529045E-17
5.550000E+03	1.289623E-15	4.887887E-17
5.560000E+03	1.276845E-15	5.209360E-17
5.570000E+03	1.260491E-15	5.485534E-17
5.580000E+03	1.240249E-15	5.710545E-17
5.590000E+03	1.216521E-15	5.884459E-17
5.600000E+03	1.189843E-15	6.010170E-17
5.610000E+03	1.160354E-15	6.089931E-17
5.620000E+03	1.128755E-15	6.129589E-17
5.630000E+03	1.095600E-15	6.134696E-17
5.640000E+03	1.061584E-15	6.111750E-17
5.650000E+03	1.026937E-15	6.064531E-17
5.660000E+03	9.923238E-16	5.999099E-17
5.670000E+03	9.582435E-16	5.920365E-17
5.680000E+03	9.251881E-16	5.832975E-17
5.690000E+03	8.936445E-16	5.741360E-17
5.700000E+03	8.640897E-16	5.649760E-17
5.710000E+03	8.369796E-16	5.562207E-17
5.720000E+03	8.127354E-16	5.482490E-17
5.730000E+03	7.917278E-16	5.414089E-17
5.740000E+03	7.742641E-16	5.360107E-17
5.750000E+03	7.605785E-16	5.323215E-17
5.760000E+03	7.508256E-16	5.305598E-17
5.770000E+03	7.449714E-16	5.308176E-17
5.780000E+03	7.432014E-16	5.333478E-17
5.790000E+03	7.452926E-16	5.381150E-17
5.800000E+03	7.510181E-16	5.450778E-17
5.810000E+03	7.599266E-16	5.540244E-17
5.820000E+03	7.717520E-16	5.648646E-17
5.830000E+03	7.857814E-16	5.771639E-17
5.840000E+03	8.011648E-16	5.903627E-17
5.850000E+03	8.172705E-16	6.040360E-17
5.860000E+03	8.330586E-16	6.174330E-17
5.870000E+03	8.474482E-16	6.297490E-17
5.880000E+03	8.597351E-16	6.404419E-17
5.890000E+03	8.688383E-16	6.486795E-17
5.900000E+03	8.743066E-16	6.540958E-17
5.910000E+03	8.754192E-16	6.561273E-17
5.920000E+03	8.720657E-16	6.546747E-17
5.930000E+03	8.644022E-16	6.498486E-17
5.940000E+03	8.524869E-16	6.416929E-17
5.950000E+03	8.370902E-16	6.307908E-17
5.960000E+03	8.187013E-16	6.175133E-17
5.970000E+03	7.982923E-16	6.025914E-17
5.980000E+03	7.767855E-16	5.867145E-17
5.990000E+03	7.552169E-16	5.706545E-17
6.000000E+03	7.342659E-16	5.549137E-17
6.010000E+03	7.148573E-16	5.401823E-17
6.020000E+03	6.977147E-16	5.270040E-17
6.030000E+03	6.834645E-16	5.158547E-17
6.040000E+03	6.726426E-16	5.071483E-17
6.050000E+03	6.658029E-16	5.013173E-17
6.060000E+03	6.631699E-16	4.985498E-17
6.070000E+03	6.652162E-16	4.992239E-17
6.080000E+03	6.723161E-16	5.036464E-17
6.090000E+03	6.848618E-16	5.121406E-17
6.100000E+03	7.032849E-16	5.250630E-17
6.110000E+03	7.280747E-16	5.428170E-17
6.120000E+03	7.597927E-16	5.658629E-17
6.130000E+03	7.989713E-16	5.946388E-17
6.140000E+03	8.465495E-16	6.298790E-17
6.150000E+03	9.032176E-16	6.721157E-17
6.160000E+03	9.698154E-16	7.219619E-17
6.170000E+03	1.047182E-15	7.799810E-17
6.180000E+03	1.136088E-15	8.466164E-17
6.190000E+03	1.236967E-15	9.219731E-17
6.200000E+03	1.350468E-15	1.006209E-16
6.210000E+03	1.476329E-15	1.098685E-16
6.220000E+03	1.613862E-15	1.198328E-16
6.230000E+03	1.761396E-15	1.303228E-16
6.240000E+03	1.917094E-15	1.411290E-16
6.250000E+03	2.077482E-15	1.519186E-16
6.260000E+03	2.238046E-15	1.622898E-16
6.270000E+03	2.394349E-15	1.718612E-16
6.280000E+03	2.540486E-15	1.801690E-16
6.290000E+03	2.670267E-15	1.867627E-16
6.300000E+03	2.778879E-15	1.913263E-16
6.310000E+03	2.860844E-15	1.935365E-16
6.320000E+03	2.913518E-15	1.933013E-16
6.330000E+03	2.934355E-15	1.905649E-16
6.340000E+03	2.924272E-15	1.855209E-16
6.350000E+03	2.884388E-15	1.783843E-16
6.360000E+03	2.818997E-15	1.695667E-16
6.370000E+03	2.731950E-15	1.594359E-16
6.380000E+03	2.628920E-15	1.484433E-16
6.390000E+03	2.515643E-15	1.370064E-16
6.400000E+03	2.396456E-15	1.254270E-16
6.410000E+03	2.276418E-15	1.140070E-16
6.420000E+03	2.158396E-15	1.028990E-16
6.430000E+03	2.045301E-15	9.223022E-17
6.440000E+03	1.938809E-15	8.204825E-17
6.450000E+03	1.840053E-15	7.236566E-17
6.460000E+03	1.748728E-15	6.313955E-17
6.470000E+03	1.664806E-15	5.435926E-17
6.480000E+03	1.587624E-15	4.603102E-17
6.490000E+03	1.516489E-15	3.823509E-17
6.500000E+03	1.449954E-15	3.116798E-17
6.510000E+03	1.387212E-15	2.527811E-17
6.520000E+03	1.327345E-15	2.131381E-17
6.530000E+03	1.269668E-15	2.000809E-17
6.540000E+03	1.213828E-15	2.119002E-17
6.550000E+03	1.159768E-15	2.376574E-17
6.560000E+03	1.107719E-15	2.672474E-17
6.570000E+03	1.057446E-15	2.950635E-17
6.580000E+03	1.009129E-15	3.187985E-17
6.590000E+03	9.627143E-16	3.377266E-17
6.600000E+03	9.180904E-16	3.518654E-17
6.610000E+03	8.751116E-16	3.615550E-17
6.620000E+03	8.336239E-16	3.672585E-17
6.630000E+03	7.934875E-16	3.694687E-17
6.640000E+03	7.545934E-16	3.686672E-17
6.650000E+03	7.168741E-16	3.653079E-17
6.660000E+03	6.802139E-16	3.597632E-17
6.670000E+03	6.448312E-16	3.525264E-17
6.680000E+03	6.106915E-16	3.439119E-17
6.690000E+03	5.778932E-16	3.342612E-17
6.700000E+03	5.465573E-16	3.238938E-17
6.710000E+03	5.168162E-16	3.131074E-17
6.720000E+03	4.888029E-16	3.021771E-17
6.730000E+03	4.625763E-16	2.913133E-17
6.740000E+03	4.383748E-16	2.808230E-17
6.750000E+03	4.162147E-16	2.708609E-17
6.760000E+03	3.961561E-16	2.615957E-17
6.770000E+03	3.782359E-16	2.531681E-17
6.780000E+03	3.624201E-16	2.456591E-17
6.790000E+03	3.488120E-16	2.392302E-17
6.800000E+03	3.373487E-16	2.339194E-17
6.810000E+03	3.279696E-16	2.297535E-17
6.820000E+03	3.207532E-16	2.268466E-17
6.830000E+03	3.156451E-16	2.252115E-17
6.840000E+03	3.126056E-16	2.248632E-17
6.850000E+03	3.117410E-16	2.259160E-17
6.860000E+03	3.130441E-16	2.283993E-17
6.870000E+03	3.165270E-16	2.323532E-17
6.880000E+03	3.223526E-16	2.379270E-17
6.890000E+03	3.305246E-16	2.451526E-17
6.900000E+03	3.412419E-16	2.542058E-17
6.910000E+03	3.545284E-16	2.651330E-17
6.920000E+03	3.706023E-16	2.781255E-17
6.930000E+03	3.894789E-16	2.932225E-17
6.940000E+03	4.113672E-16	3.106089E-17
6.950000E+03	4.362343E-16	3.302866E-17
6.960000E+03	4.642449E-16	3.524053E-17
6.970000E+03	4.952785E-16	3.768968E-17
6.980000E+03	5.294297E-16	4.038525E-17
6.990000E+03	5.664700E-16	4.331139E-17
7.000000E+03	6.064271E-16	4.647123E-17
7.010000E+03	6.489816E-16	4.984075E-17
7.020000E+03	6.940415E-16	5.341280E-17
7.030000E+03	7.415434E-16	5.718198E-17
7.040000E+03	7.911435E-16	6.112108E-17
7.050000E+03	8.428414E-16	6.522938E-17
7.060000E+03	8.967305E-16	6.951387E-17
7.070000E+03	9.526188E-16	7.396009E-17
7.080000E+03	1.010774E-15	7.859011E-17
7.090000E+03	1.071602E-15	8.343798E-17
7.100000E+03	1.135182E-15	8.851318E-17
7.110000E+03	1.202136E-15	9.386842E-17
7.120000E+03	1.273047E-15	9.955395E-17
7.130000E+03	1.348771E-15	1.056417E-16
7.140000E+03	1.429661E-15	1.121639E-16
7.150000E+03	1.516628E-15	1.191959E-16
7.160000E+03	1.610354E-15	1.267938E-16
7.170000E+03	1.711392E-15	1.350017E-16
7.180000E+03	1.820066E-15	1.438434E-16
7.190000E+03	1.936628E-15	1.533345E-16
7.200000E+03	2.060059E-15	1.633872E-16
7.210000E+03	2.189519E-15	1.739255E-16
7.220000E+03	2.323195E-15	1.847945E-16
7.230000E+03	2.458470E-15	1.957749E-16
7.240000E+03	2.591904E-15	2.065824E-16
7.250000E+03	2.719287E-15	2.168733E-16
7.260000E+03	2.835803E-15	2.262582E-16
7.270000E+03	2.936301E-15	2.343241E-16
7.280000E+03	3.015668E-15	2.406642E-16
7.290000E+03	3.069274E-15	2.449128E-16
7.300000E+03	3.093429E-15	2.467809E-16
7.310000E+03	3.085787E-15	2.460882E-16
7.320000E+03	3.045631E-15	2.427845E-16
7.330000E+03	2.973980E-15	2.369582E-16
7.340000E+03	2.873509E-15	2.288291E-16
7.350000E+03	2.747893E-15	2.186958E-16
7.360000E+03	2.602981E-15	2.070291E-16
7.370000E+03	2.443940E-15	1.942444E-16
7.380000E+03	2.276401E-15	1.807931E-16
7.390000E+03	2.105648E-15	1.670983E-16
7.400000E+03	1.936321E-15	1.535312E-16
7.410000E+03	1.771982E-15	1.403769E-16
7.420000E+03	1.616072E-15	1.279101E-16
7.430000E+03	1.470364E-15	1.162727E-16
7.440000E+03	1.336120E-15	1.055653E-16
7.450000E+03	1.213776E-15	9.582205E-17
7.460000E+03	1.103779E-15	8.707724E-17
7.470000E+03	1.005645E-15	7.929083E-17
7.480000E+03	9.188162E-16	7.241641E-17
7.490000E+03	8.424528E-16	6.638491E-17
7.500000E+03	7.759988E-16	6.114939E-17
7.510000E+03	7.183928E-16	5.662298E-17
7.520000E+03	6.690325E-16	5.275499E-17
7.530000E+03	6.270387E-16	4.947298E-17
7.540000E+03	5.916191E-16	4.671140E-17
7.550000E+03	5.623065E-16	4.443049E-17
7.560000E+03	5.383678E-16	4.256955E-17
7.570000E+03	5.194609E-16	4.109889E-17
7.580000E+03	5.050008E-16	3.996974E-17
7.590000E+03	4.947568E-16	3.916146E-17
7.600000E+03	4.882578E-16	3.863454E-17
7.610000E+03	4.853536E-16	3.837491E-17
7.620000E+03	4.856411E-16	3.834850E-17
7.630000E+03	4.890081E-16	3.854417E-17
7.640000E+03	4.950652E-16	3.892867E-17
7.650000E+03	5.036894E-16	3.948941E-17
7.660000E+03	5.144482E-16	4.018916E-17
7.670000E+03	5.270839E-16	4.100401E-17
7.680000E+03	5.412975E-16	4.190652E-17
7.690000E+03	5.565072E-16	4.284723E-17
7.700000E+03	5.723039E-16	4.379043E-17
7.710000E+03	5.882390E-16	4.469797E-17
7.720000E+03	6.035792E-16	4.551130E-17
7.730000E+03	6.178259E-16	4.619166E-17
7.740000E+03	6.304166E-16	4.669771E-17
7.750000E+03	6.409355E-16	4.700153E-17
7.760000E+03	6.487889E-16	4.706462E-17
