#wls	flux	fluxerr
1.600000E+03	5.622252E-17	5.302257E-17
1.640000E+03	5.579171E-17	5.236317E-17
1.680000E+03	5.539680E-17	5.174137E-17
1.720000E+03	5.505175E-17	5.117021E-17
1.760000E+03	5.474162E-17	5.063565E-17
1.800000E+03	5.449991E-17	5.016838E-17
1.840000E+03	5.430272E-17	4.974578E-17
1.880000E+03	5.417429E-17	4.938939E-17
1.920000E+03	5.412000E-17	4.910306E-17
1.960000E+03	5.413626E-17	4.888227E-17
2.000000E+03	5.422938E-17	4.873129E-17
2.040000E+03	5.441562E-17	4.866294E-17
2.080000E+03	5.469302E-17	4.867339E-17
2.120000E+03	5.507924E-17	4.877597E-17
2.160000E+03	5.557392E-17	4.896756E-17
2.200000E+03	5.618707E-17	4.925389E-17
2.240000E+03	5.693958E-17	4.964971E-17
2.280000E+03	5.784426E-17	5.016200E-17
2.320000E+03	5.890556E-17	5.078991E-17
2.360000E+03	6.013924E-17	5.154175E-17
2.400000E+03	6.157348E-17	5.243552E-17
2.440000E+03	6.322895E-17	5.348161E-17
2.480000E+03	6.511801E-17	5.468222E-17
2.520000E+03	6.727734E-17	5.605858E-17
2.560000E+03	6.972480E-17	5.761438E-17
2.600000E+03	7.250443E-17	5.937298E-17
2.640000E+03	7.564070E-17	6.133906E-17
2.680000E+03	7.918647E-17	6.353759E-17
2.720000E+03	8.317376E-17	6.597316E-17
2.760000E+03	8.766556E-17	6.867109E-17
2.800000E+03	9.270204E-17	7.163384E-17
2.840000E+03	9.835707E-17	7.488473E-17
2.880000E+03	1.046957E-16	7.843349E-17
2.920000E+03	1.117697E-16	8.227261E-17
2.960000E+03	1.196686E-16	8.641478E-17
3.000000E+03	1.284490E-16	9.083890E-17
3.010000E+03	1.307907E-16	9.198719E-17
3.020000E+03	1.331934E-16	9.315171E-17
3.030000E+03	1.356584E-16	9.433205E-17
3.040000E+03	1.381867E-16	9.552775E-17
3.050000E+03	1.408023E-16	9.675382E-17
3.060000E+03	1.434616E-16	9.797888E-17
3.070000E+03	1.461879E-16	9.921764E-17
3.080000E+03	1.490062E-16	1.004855E-16
3.090000E+03	1.518707E-16	1.017499E-16
3.100000E+03	1.548059E-16	1.030258E-16
3.110000E+03	1.578381E-16	1.043291E-16
3.120000E+03	1.609187E-16	1.056259E-16
3.130000E+03	1.640997E-16	1.069487E-16
3.140000E+03	1.673306E-16	1.082626E-16
3.150000E+03	1.706653E-16	1.096007E-16
3.160000E+03	1.740789E-16	1.109451E-16
3.170000E+03	1.775447E-16	1.122767E-16
3.180000E+03	1.811194E-16	1.136296E-16
3.190000E+03	1.847767E-16	1.149849E-16
3.200000E+03	1.884883E-16	1.163230E-16
3.210000E+03	1.923141E-16	1.176789E-16
3.220000E+03	1.962264E-16	1.190329E-16
3.230000E+03	2.002264E-16	1.203835E-16
3.240000E+03	2.042833E-16	1.217099E-16
3.250000E+03	2.084620E-16	1.230486E-16
3.260000E+03	2.127324E-16	1.243787E-16
3.270000E+03	2.170959E-16	1.256986E-16
3.280000E+03	2.215538E-16	1.270064E-16
3.290000E+03	2.261077E-16	1.283001E-16
3.300000E+03	2.307591E-16	1.295777E-16
3.310000E+03	2.355096E-16	1.308373E-16
3.320000E+03	2.403607E-16	1.320767E-16
3.330000E+03	2.453142E-16	1.332938E-16
3.340000E+03	2.503720E-16	1.344864E-16
3.350000E+03	2.555358E-16	1.356523E-16
3.360000E+03	2.608076E-16	1.367893E-16
3.370000E+03	2.662309E-16	1.379164E-16
3.380000E+03	2.717261E-16	1.389886E-16
3.390000E+03	2.773360E-16	1.400249E-16
3.400000E+03	2.830632E-16	1.410227E-16
3.410000E+03	2.889548E-16	1.420016E-16
3.420000E+03	2.949254E-16	1.429155E-16
3.430000E+03	3.010217E-16	1.437835E-16
3.440000E+03	3.072469E-16	1.446033E-16
3.450000E+03	3.136525E-16	1.453946E-16
3.460000E+03	3.201468E-16	1.461103E-16
3.470000E+03	3.268309E-16	1.467926E-16
3.480000E+03	3.336096E-16	1.473941E-16
3.490000E+03	3.405365E-16	1.479346E-16
3.500000E+03	3.476691E-16	1.484344E-16
3.510000E+03	3.549073E-16	1.488454E-16
3.520000E+03	3.623633E-16	1.492107E-16
3.530000E+03	3.699333E-16	1.494822E-16
3.540000E+03	3.777345E-16	1.497030E-16
3.550000E+03	3.857178E-16	1.498479E-16
3.560000E+03	3.938297E-16	1.498917E-16
3.570000E+03	4.021952E-16	1.498776E-16
3.580000E+03	4.107005E-16	1.497579E-16
3.590000E+03	4.194758E-16	1.495758E-16
3.600000E+03	4.284677E-16	1.493064E-16
3.610000E+03	4.376178E-16	1.489255E-16
3.620000E+03	4.470647E-16	1.484761E-16
3.630000E+03	4.566831E-16	1.479120E-16
3.640000E+03	4.666174E-16	1.472762E-16
3.650000E+03	4.768083E-16	1.465454E-16
3.660000E+03	4.872644E-16	1.457187E-16
3.670000E+03	4.979194E-16	1.447740E-16
3.680000E+03	5.089290E-16	1.437547E-16
3.690000E+03	5.202281E-16	1.426396E-16
3.700000E+03	5.318243E-16	1.414296E-16
3.710000E+03	5.436436E-16	1.401056E-16
3.720000E+03	5.558529E-16	1.387122E-16
3.730000E+03	5.683782E-16	1.372316E-16
3.740000E+03	5.812240E-16	1.356683E-16
3.750000E+03	5.943935E-16	1.340279E-16
3.760000E+03	6.077979E-16	1.322975E-16
3.770000E+03	6.216148E-16	1.305250E-16
3.780000E+03	6.357532E-16	1.287003E-16
3.790000E+03	6.502072E-16	1.268348E-16
3.800000E+03	6.649679E-16	1.249418E-16
3.810000E+03	6.799221E-16	1.230182E-16
3.820000E+03	6.952506E-16	1.211173E-16
3.830000E+03	7.108331E-16	1.192390E-16
3.840000E+03	7.266415E-16	1.174031E-16
3.850000E+03	7.426415E-16	1.156306E-16
3.860000E+03	7.587915E-16	1.139428E-16
3.870000E+03	7.750431E-16	1.123611E-16
3.880000E+03	7.912238E-16	1.108895E-16
3.890000E+03	8.074984E-16	1.095792E-16
3.900000E+03	8.236815E-16	1.084290E-16
3.910000E+03	8.396939E-16	1.074503E-16
3.920000E+03	8.554508E-16	1.066494E-16
3.930000E+03	8.708635E-16	1.060272E-16
3.940000E+03	8.858410E-16	1.055781E-16
3.950000E+03	9.001631E-16	1.052754E-16
3.960000E+03	9.140032E-16	1.051326E-16
3.970000E+03	9.271539E-16	1.051125E-16
3.980000E+03	9.395473E-16	1.051896E-16
3.990000E+03	9.511286E-16	1.053362E-16
4.000000E+03	9.618591E-16	1.055240E-16
4.010000E+03	9.715784E-16	1.057101E-16
4.020000E+03	9.805637E-16	1.058992E-16
4.030000E+03	9.886945E-16	1.060533E-16
4.040000E+03	9.960085E-16	1.061533E-16
4.050000E+03	1.002562E-15	1.061840E-16
4.060000E+03	1.008284E-15	1.061191E-16
4.070000E+03	1.013551E-15	1.059818E-16
4.080000E+03	1.018320E-15	1.057529E-16
4.090000E+03	1.022702E-15	1.054315E-16
4.100000E+03	1.026668E-15	1.050036E-16
4.110000E+03	1.030632E-15	1.045019E-16
4.120000E+03	1.034573E-15	1.039145E-16
4.130000E+03	1.038464E-15	1.032301E-16
4.140000E+03	1.042720E-15	1.024805E-16
4.150000E+03	1.047307E-15	1.016522E-16
4.160000E+03	1.052180E-15	1.007301E-16
4.170000E+03	1.057732E-15	9.973954E-17
4.180000E+03	1.063901E-15	9.866028E-17
4.190000E+03	1.070606E-15	9.746939E-17
4.200000E+03	1.078210E-15	9.618222E-17
4.210000E+03	1.086454E-15	9.475583E-17
4.220000E+03	1.095674E-15	9.319828E-17
4.230000E+03	1.105580E-15	9.146147E-17
4.240000E+03	1.116484E-15	8.954738E-17
4.250000E+03	1.128059E-15	8.740517E-17
4.260000E+03	1.140596E-15	8.503393E-17
4.270000E+03	1.153735E-15	8.238517E-17
4.280000E+03	1.167746E-15	7.946161E-17
4.290000E+03	1.182239E-15	7.622672E-17
4.300000E+03	1.197303E-15	7.268932E-17
4.310000E+03	1.213025E-15	6.887360E-17
4.320000E+03	1.228982E-15	6.480051E-17
4.330000E+03	1.245254E-15	6.055974E-17
4.340000E+03	1.261750E-15	5.628764E-17
4.350000E+03	1.278563E-15	5.220804E-17
4.360000E+03	1.295264E-15	4.862655E-17
4.370000E+03	1.311961E-15	4.598004E-17
4.380000E+03	1.328607E-15	4.474657E-17
4.390000E+03	1.345174E-15	4.528976E-17
4.400000E+03	1.361650E-15	4.766661E-17
4.410000E+03	1.378039E-15	5.161327E-17
4.420000E+03	1.394360E-15	5.671786E-17
4.430000E+03	1.410634E-15	6.258209E-17
4.440000E+03	1.426880E-15	6.888893E-17
4.450000E+03	1.443104E-15	7.540732E-17
4.460000E+03	1.459291E-15	8.197487E-17
4.470000E+03	1.475400E-15	8.847832E-17
4.480000E+03	1.491358E-15	9.483785E-17
4.490000E+03	1.507060E-15	1.009957E-16
4.500000E+03	1.522155E-15	1.068939E-16
4.510000E+03	1.536884E-15	1.125263E-16
4.520000E+03	1.550840E-15	1.178502E-16
4.530000E+03	1.563797E-15	1.228403E-16
4.540000E+03	1.575304E-15	1.274563E-16
4.550000E+03	1.585548E-15	1.317120E-16
4.560000E+03	1.593868E-15	1.355544E-16
4.570000E+03	1.600488E-15	1.390058E-16
4.580000E+03	1.604799E-15	1.420188E-16
4.590000E+03	1.607104E-15	1.446267E-16
4.600000E+03	1.606889E-15	1.467917E-16
4.610000E+03	1.604349E-15	1.485402E-16
4.620000E+03	1.599740E-15	1.499064E-16
4.630000E+03	1.592725E-15	1.508695E-16
4.640000E+03	1.583670E-15	1.514751E-16
4.650000E+03	1.572772E-15	1.517533E-16
4.660000E+03	1.560477E-15	1.517587E-16
4.670000E+03	1.546623E-15	1.514869E-16
4.680000E+03	1.531699E-15	1.509965E-16
4.690000E+03	1.515990E-15	1.503260E-16
4.700000E+03	1.499778E-15	1.495132E-16
4.710000E+03	1.483333E-15	1.485943E-16
4.720000E+03	1.466910E-15	1.476036E-16
4.730000E+03	1.450744E-15	1.465723E-16
4.740000E+03	1.434855E-15	1.455094E-16
4.750000E+03	1.419819E-15	1.444795E-16
4.760000E+03	1.405608E-15	1.434852E-16
4.770000E+03	1.392368E-15	1.425460E-16
4.780000E+03	1.380045E-15	1.416601E-16
4.790000E+03	1.369122E-15	1.408804E-16
4.800000E+03	1.359334E-15	1.401825E-16
4.810000E+03	1.351140E-15	1.396156E-16
4.820000E+03	1.344266E-15	1.391535E-16
4.830000E+03	1.339155E-15	1.388435E-16
4.840000E+03	1.335530E-15	1.386584E-16
4.850000E+03	1.333651E-15	1.386262E-16
4.860000E+03	1.333770E-15	1.387745E-16
4.870000E+03	1.335604E-15	1.390750E-16
4.880000E+03	1.339396E-15	1.395539E-16
4.890000E+03	1.345196E-15	1.402177E-16
4.900000E+03	1.353043E-15	1.410716E-16
4.910000E+03	1.362951E-15	1.421181E-16
4.920000E+03	1.374909E-15	1.433573E-16
4.930000E+03	1.388870E-15	1.447854E-16
4.940000E+03	1.404755E-15	1.463952E-16
4.950000E+03	1.422441E-15	1.481749E-16
4.960000E+03	1.441769E-15	1.501085E-16
4.970000E+03	1.462346E-15	1.521560E-16
4.980000E+03	1.484330E-15	1.543337E-16
4.990000E+03	1.507278E-15	1.565958E-16
5.000000E+03	1.530731E-15	1.588936E-16
5.010000E+03	1.554833E-15	1.612406E-16
5.020000E+03	1.578937E-15	1.635679E-16
5.030000E+03	1.603244E-15	1.658932E-16
5.040000E+03	1.627159E-15	1.681512E-16
5.050000E+03	1.650968E-15	1.703669E-16
5.060000E+03	1.674141E-15	1.724806E-16
5.070000E+03	1.696823E-15	1.745014E-16
5.080000E+03	1.718966E-15	1.764186E-16
5.090000E+03	1.740759E-15	1.782453E-16
5.100000E+03	1.761700E-15	1.799242E-16
5.110000E+03	1.781949E-15	1.814661E-16
5.120000E+03	1.801408E-15	1.828555E-16
5.130000E+03	1.819939E-15	1.840734E-16
5.140000E+03	1.837364E-15	1.850969E-16
5.150000E+03	1.853223E-15	1.858751E-16
5.160000E+03	1.867747E-15	1.864264E-16
5.170000E+03	1.880424E-15	1.866943E-16
5.180000E+03	1.890973E-15	1.866458E-16
5.190000E+03	1.898877E-15	1.862237E-16
5.200000E+03	1.904383E-15	1.854465E-16
5.210000E+03	1.906789E-15	1.842391E-16
5.220000E+03	1.906441E-15	1.826286E-16
5.230000E+03	1.902754E-15	1.805523E-16
5.240000E+03	1.896209E-15	1.780500E-16
5.250000E+03	1.886371E-15	1.750752E-16
5.260000E+03	1.873864E-15	1.716812E-16
5.270000E+03	1.858406E-15	1.678375E-16
5.280000E+03	1.840509E-15	1.635874E-16
5.290000E+03	1.820498E-15	1.589562E-16
5.300000E+03	1.798740E-15	1.539722E-16
5.310000E+03	1.775634E-15	1.486655E-16
5.320000E+03	1.751597E-15	1.430659E-16
5.330000E+03	1.727053E-15	1.372017E-16
5.340000E+03	1.702419E-15	1.310985E-16
5.350000E+03	1.678094E-15	1.247775E-16
5.360000E+03	1.654450E-15	1.182558E-16
5.370000E+03	1.631818E-15	1.115455E-16
5.380000E+03	1.610278E-15	1.046413E-16
5.390000E+03	1.590479E-15	9.757638E-17
5.400000E+03	1.572383E-15	9.034159E-17
5.410000E+03	1.555898E-15	8.293553E-17
5.420000E+03	1.541464E-15	7.540153E-17
5.430000E+03	1.528648E-15	6.776379E-17
5.440000E+03	1.517737E-15	6.012989E-17
5.450000E+03	1.508154E-15	5.265268E-17
5.460000E+03	1.500036E-15	4.565736E-17
5.470000E+03	1.492671E-15	3.967253E-17
5.480000E+03	1.485870E-15	3.553616E-17
5.490000E+03	1.479207E-15	3.415988E-17
5.500000E+03	1.472423E-15	3.587755E-17
5.510000E+03	1.464689E-15	4.005668E-17
5.520000E+03	1.455762E-15	4.568114E-17
5.530000E+03	1.445235E-15	5.191313E-17
5.540000E+03	1.432753E-15	5.820846E-17
5.550000E+03	1.418024E-15	6.423603E-17
5.560000E+03	1.400847E-15	6.979613E-17
5.570000E+03	1.380938E-15	7.476065E-17
5.580000E+03	1.358655E-15	7.908324E-17
5.590000E+03	1.333922E-15	8.272785E-17
5.600000E+03	1.306944E-15	8.569615E-17
5.610000E+03	1.277851E-15	8.800090E-17
5.620000E+03	1.247342E-15	8.970612E-17
5.630000E+03	1.215673E-15	9.085580E-17
5.640000E+03	1.183154E-15	9.150287E-17
5.650000E+03	1.150575E-15	9.174178E-17
5.660000E+03	1.118126E-15	9.162347E-17
5.670000E+03	1.086435E-15	9.123493E-17
5.680000E+03	1.056094E-15	9.066166E-17
5.690000E+03	1.027250E-15	8.995094E-17
5.700000E+03	1.000427E-15	8.918055E-17
5.710000E+03	9.760823E-16	8.842214E-17
5.720000E+03	9.542446E-16	8.770671E-17
5.730000E+03	9.352661E-16	8.709226E-17
5.740000E+03	9.193106E-16	8.661774E-17
5.750000E+03	9.064791E-16	8.631416E-17
5.760000E+03	8.968083E-16	8.620433E-17
5.770000E+03	8.902685E-16	8.630266E-17
5.780000E+03	8.867608E-16	8.661492E-17
5.790000E+03	8.861161E-16	8.713806E-17
5.800000E+03	8.880921E-16	8.785999E-17
5.810000E+03	8.923732E-16	8.875955E-17
5.820000E+03	8.985718E-16	8.980660E-17
5.830000E+03	9.062324E-16	9.096252E-17
5.840000E+03	9.147233E-16	9.216933E-17
5.850000E+03	9.237189E-16	9.339829E-17
5.860000E+03	9.325194E-16	9.458164E-17
5.870000E+03	9.404215E-16	9.564990E-17
5.880000E+03	9.471122E-16	9.657229E-17
5.890000E+03	9.518590E-16	9.727460E-17
5.900000E+03	9.545064E-16	9.774097E-17
5.910000E+03	9.545311E-16	9.791772E-17
5.920000E+03	9.520370E-16	9.781531E-17
5.930000E+03	9.467893E-16	9.740956E-17
5.940000E+03	9.391904E-16	9.674186E-17
5.950000E+03	9.292980E-16	9.581840E-17
5.960000E+03	9.176537E-16	9.469534E-17
5.970000E+03	9.048890E-16	9.343833E-17
5.980000E+03	8.913531E-16	9.208398E-17
5.990000E+03	8.777836E-16	9.070911E-17
6.000000E+03	8.648123E-16	8.937967E-17
6.010000E+03	8.530616E-16	8.816066E-17
6.020000E+03	8.431291E-16	8.711451E-17
6.030000E+03	8.356864E-16	8.631121E-17
6.040000E+03	8.310480E-16	8.578379E-17
6.050000E+03	8.298182E-16	8.559497E-17
6.060000E+03	8.324671E-16	8.579344E-17
6.070000E+03	8.394479E-16	8.642574E-17
6.080000E+03	8.510979E-16	8.752610E-17
6.090000E+03	8.680823E-16	8.916188E-17
6.100000E+03	8.907544E-16	9.136768E-17
6.110000E+03	9.195919E-16	9.418991E-17
6.120000E+03	9.550912E-16	9.767571E-17
6.130000E+03	9.977630E-16	1.018721E-16
6.140000E+03	1.047987E-15	1.068106E-16
6.150000E+03	1.106524E-15	1.125591E-16
6.160000E+03	1.173698E-15	1.191374E-16
6.170000E+03	1.249719E-15	1.265499E-16
6.180000E+03	1.335129E-15	1.348296E-16
6.190000E+03	1.429630E-15	1.439188E-16
6.200000E+03	1.533340E-15	1.537959E-16
6.210000E+03	1.645511E-15	1.643458E-16
6.220000E+03	1.764926E-15	1.754006E-16
6.230000E+03	1.890558E-15	1.868064E-16
6.240000E+03	2.019964E-15	1.982662E-16
6.250000E+03	2.150889E-15	2.095019E-16
6.260000E+03	2.280685E-15	2.201994E-16
6.270000E+03	2.405481E-15	2.299349E-16
6.280000E+03	2.522047E-15	2.383593E-16
6.290000E+03	2.627209E-15	2.451449E-16
6.300000E+03	2.717017E-15	2.499131E-16
6.310000E+03	2.788969E-15	2.524445E-16
6.320000E+03	2.841277E-15	2.526086E-16
6.330000E+03	2.871899E-15	2.502769E-16
6.340000E+03	2.880800E-15	2.455216E-16
6.350000E+03	2.868517E-15	2.384798E-16
6.360000E+03	2.836437E-15	2.293717E-16
6.370000E+03	2.786648E-15	2.184796E-16
6.380000E+03	2.721744E-15	2.061234E-16
6.390000E+03	2.644939E-15	1.926607E-16
6.400000E+03	2.558493E-15	1.783645E-16
6.410000E+03	2.465591E-15	1.635592E-16
6.420000E+03	2.368810E-15	1.485053E-16
6.430000E+03	2.270372E-15	1.334208E-16
6.440000E+03	2.171815E-15	1.184665E-16
6.450000E+03	2.075111E-15	1.038144E-16
6.460000E+03	1.980982E-15	8.956173E-17
6.470000E+03	1.890096E-15	7.581249E-17
6.480000E+03	1.802838E-15	6.268474E-17
6.490000E+03	1.719373E-15	5.035191E-17
6.500000E+03	1.639716E-15	3.912755E-17
6.510000E+03	1.563590E-15	2.964963E-17
6.520000E+03	1.491285E-15	2.321745E-17
6.530000E+03	1.422436E-15	2.147411E-17
6.540000E+03	1.356829E-15	2.417669E-17
6.550000E+03	1.294032E-15	2.902020E-17
6.560000E+03	1.234144E-15	3.425758E-17
6.570000E+03	1.176791E-15	3.911655E-17
6.580000E+03	1.121673E-15	4.331175E-17
6.590000E+03	1.068950E-15	4.677719E-17
6.600000E+03	1.018359E-15	4.951701E-17
6.610000E+03	9.696738E-16	5.157109E-17
6.620000E+03	9.230659E-16	5.301488E-17
6.630000E+03	8.782219E-16	5.390309E-17
6.640000E+03	8.353220E-16	5.431824E-17
6.650000E+03	7.941132E-16	5.431344E-17
6.660000E+03	7.547925E-16	5.396665E-17
6.670000E+03	7.171661E-16	5.332441E-17
6.680000E+03	6.814456E-16	5.245718E-17
6.690000E+03	6.474860E-16	5.140411E-17
6.700000E+03	6.154232E-16	5.022088E-17
6.710000E+03	5.853810E-16	4.895856E-17
6.720000E+03	5.572539E-16	4.764503E-17
6.730000E+03	5.311667E-16	4.632336E-17
6.740000E+03	5.072247E-16	4.503187E-17
6.750000E+03	4.853261E-16	4.378739E-17
6.760000E+03	4.655629E-16	4.262074E-17
6.770000E+03	4.480084E-16	4.155867E-17
6.780000E+03	4.325534E-16	4.060864E-17
6.790000E+03	4.192615E-16	3.979177E-17
6.800000E+03	4.081341E-16	3.912149E-17
6.810000E+03	3.991726E-16	3.860951E-17
6.820000E+03	3.923818E-16	3.826632E-17
6.830000E+03	3.878228E-16	3.810662E-17
6.840000E+03	3.854140E-16	3.812999E-17
6.850000E+03	3.852360E-16	3.835091E-17
6.860000E+03	3.873303E-16	3.877928E-17
6.870000E+03	3.917516E-16	3.942564E-17
6.880000E+03	3.985673E-16	4.030128E-17
6.890000E+03	4.078574E-16	4.141831E-17
6.900000E+03	4.197131E-16	4.278958E-17
6.910000E+03	4.342341E-16	4.442855E-17
6.920000E+03	4.515262E-16	4.634902E-17
6.930000E+03	4.716969E-16	4.856478E-17
6.940000E+03	4.948516E-16	5.108918E-17
6.950000E+03	5.210889E-16	5.393473E-17
6.960000E+03	5.504963E-16	5.711258E-17
6.970000E+03	5.831462E-16	6.063212E-17
6.980000E+03	6.190129E-16	6.449236E-17
6.990000E+03	6.582878E-16	6.871466E-17
7.000000E+03	7.009125E-16	7.329420E-17
7.010000E+03	7.468892E-16	7.823223E-17
7.020000E+03	7.962097E-16	8.352872E-17
7.030000E+03	8.487529E-16	8.917163E-17
7.040000E+03	9.047271E-16	9.518340E-17
7.050000E+03	9.640394E-16	1.015549E-16
7.060000E+03	1.026726E-15	1.082904E-16
7.070000E+03	1.092713E-15	1.153830E-16
7.080000E+03	1.162386E-15	1.228742E-16
7.090000E+03	1.235761E-15	1.307667E-16
7.100000E+03	1.312857E-15	1.390638E-16
7.110000E+03	1.394225E-15	1.478254E-16
7.120000E+03	1.479941E-15	1.570608E-16
7.130000E+03	1.570029E-15	1.667739E-16
7.140000E+03	1.665072E-15	1.770279E-16
7.150000E+03	1.764757E-15	1.877901E-16
7.160000E+03	1.869510E-15	1.991060E-16
7.170000E+03	1.978649E-15	2.109023E-16
7.180000E+03	2.092222E-15	2.231828E-16
7.190000E+03	2.208935E-15	2.358071E-16
7.200000E+03	2.328220E-15	2.487112E-16
7.210000E+03	2.447940E-15	2.616629E-16
7.220000E+03	2.566400E-15	2.744763E-16
7.230000E+03	2.681532E-15	2.869255E-16
7.240000E+03	2.789839E-15	2.986316E-16
7.250000E+03	2.888541E-15	3.092927E-16
7.260000E+03	2.974751E-15	3.185959E-16
7.270000E+03	3.044434E-15	3.261069E-16
7.280000E+03	3.094935E-15	3.315398E-16
7.290000E+03	3.124089E-15	3.346624E-16
7.300000E+03	3.129173E-15	3.351846E-16
7.310000E+03	3.109545E-15	3.330394E-16
7.320000E+03	3.065126E-15	3.282215E-16
7.330000E+03	2.996843E-15	3.208338E-16
7.340000E+03	2.906963E-15	3.111230E-16
7.350000E+03	2.797420E-15	2.993004E-16
7.360000E+03	2.671950E-15	2.857701E-16
7.370000E+03	2.534292E-15	2.709358E-16
7.380000E+03	2.388331E-15	2.552169E-16
7.390000E+03	2.237871E-15	2.390232E-16
7.400000E+03	2.086436E-15	2.227342E-16
7.410000E+03	1.937130E-15	2.066832E-16
7.420000E+03	1.792540E-15	1.911482E-16
7.430000E+03	1.654706E-15	1.763477E-16
7.440000E+03	1.525126E-15	1.624418E-16
7.450000E+03	1.404796E-15	1.495363E-16
7.460000E+03	1.294277E-15	1.376899E-16
7.470000E+03	1.193766E-15	1.269224E-16
7.480000E+03	1.103174E-15	1.172225E-16
7.490000E+03	1.022201E-15	1.085564E-16
7.500000E+03	9.502743E-16	1.008611E-16
7.510000E+03	8.871137E-16	9.410430E-17
7.520000E+03	8.319971E-16	8.820713E-17
7.530000E+03	7.843238E-16	8.310339E-17
7.540000E+03	7.434053E-16	7.871766E-17
7.550000E+03	7.088806E-16	7.500926E-17
7.560000E+03	6.801216E-16	7.190921E-17
7.570000E+03	6.566470E-16	6.936410E-17
7.580000E+03	6.379349E-16	6.731622E-17
7.590000E+03	6.237609E-16	6.573921E-17
7.600000E+03	6.135988E-16	6.457474E-17
7.610000E+03	6.072859E-16	6.380266E-17
7.620000E+03	6.044371E-16	6.337921E-17
7.630000E+03	6.046858E-16	6.326239E-17
7.640000E+03	6.079141E-16	6.343598E-17
7.650000E+03	6.136813E-16	6.384973E-17
7.660000E+03	6.218633E-16	6.448614E-17
7.670000E+03	6.319956E-16	6.529202E-17
7.680000E+03	6.438415E-16	6.623774E-17
7.690000E+03	6.571520E-16	6.729211E-17
7.700000E+03	6.714002E-16	6.839548E-17
7.710000E+03	6.863991E-16	6.952313E-17
7.720000E+03	7.016017E-16	7.061399E-17
7.730000E+03	7.167432E-16	7.163614E-17
7.740000E+03	7.314978E-16	7.255190E-17
7.750000E+03	7.456849E-16	7.333854E-17
7.760000E+03	7.588913E-16	7.395080E-17
