#wls	flux	fluxerr
1.600000E+03	4.836214E-17	4.651855E-17
1.640000E+03	4.807049E-17	4.605823E-17
1.680000E+03	4.781988E-17	4.563859E-17
1.720000E+03	4.760532E-17	4.525465E-17
1.760000E+03	4.743055E-17	4.490974E-17
1.800000E+03	4.729954E-17	4.460722E-17
1.840000E+03	4.722478E-17	4.435834E-17
1.880000E+03	4.720236E-17	4.415868E-17
1.920000E+03	4.723701E-17	4.401181E-17
1.960000E+03	4.733382E-17	4.392146E-17
2.000000E+03	4.750659E-17	4.389917E-17
2.040000E+03	4.775295E-17	4.394124E-17
2.080000E+03	4.807938E-17	4.405194E-17
2.120000E+03	4.849295E-17	4.423580E-17
2.160000E+03	4.900998E-17	4.450542E-17
2.200000E+03	4.963065E-17	4.485832E-17
2.240000E+03	5.036448E-17	4.530013E-17
2.280000E+03	5.123092E-17	4.584491E-17
2.320000E+03	5.223312E-17	4.649149E-17
2.360000E+03	5.338418E-17	4.724705E-17
2.400000E+03	5.469873E-17	4.811934E-17
2.440000E+03	5.620274E-17	4.912518E-17
2.480000E+03	5.790518E-17	5.026538E-17
2.520000E+03	5.983663E-17	5.155834E-17
2.560000E+03	6.199942E-17	5.299665E-17
2.600000E+03	6.443956E-17	5.460875E-17
2.640000E+03	6.717458E-17	5.639658E-17
2.680000E+03	7.024715E-17	5.838095E-17
2.720000E+03	7.368016E-17	6.056322E-17
2.760000E+03	7.751075E-17	6.295354E-17
2.800000E+03	8.179326E-17	6.557204E-17
2.840000E+03	8.654467E-17	6.840441E-17
2.880000E+03	9.184098E-17	7.147841E-17
2.920000E+03	9.773581E-17	7.479750E-17
2.960000E+03	1.042518E-16	7.833493E-17
3.000000E+03	1.114808E-16	8.210907E-17
3.010000E+03	1.134088E-16	8.308965E-17
3.020000E+03	1.153852E-16	8.408322E-17
3.030000E+03	1.174112E-16	8.508945E-17
3.040000E+03	1.194678E-16	8.609365E-17
3.050000E+03	1.215955E-16	8.712399E-17
3.060000E+03	1.237758E-16	8.816586E-17
3.070000E+03	1.260098E-16	8.921881E-17
3.080000E+03	1.282985E-16	9.028235E-17
3.090000E+03	1.306431E-16	9.135595E-17
3.100000E+03	1.330445E-16	9.243905E-17
3.110000E+03	1.355041E-16	9.353104E-17
3.120000E+03	1.379999E-16	9.461558E-17
3.130000E+03	1.405785E-16	9.572319E-17
3.140000E+03	1.432186E-16	9.683762E-17
3.150000E+03	1.459214E-16	9.795808E-17
3.160000E+03	1.486880E-16	9.908374E-17
3.170000E+03	1.515198E-16	1.002137E-16
3.180000E+03	1.544179E-16	1.013471E-16
3.190000E+03	1.573837E-16	1.024830E-16
3.200000E+03	1.604448E-16	1.036373E-16
3.210000E+03	1.635502E-16	1.047751E-16
3.220000E+03	1.667273E-16	1.059121E-16
3.230000E+03	1.699773E-16	1.070472E-16
3.240000E+03	1.733018E-16	1.081790E-16
3.250000E+03	1.767021E-16	1.093064E-16
3.260000E+03	1.801798E-16	1.104280E-16
3.270000E+03	1.837365E-16	1.115423E-16
3.280000E+03	1.874043E-16	1.126666E-16
3.290000E+03	1.911242E-16	1.137623E-16
3.300000E+03	1.949279E-16	1.148463E-16
3.310000E+03	1.988172E-16	1.159170E-16
3.320000E+03	2.027938E-16	1.169727E-16
3.330000E+03	2.068935E-16	1.180309E-16
3.340000E+03	2.110512E-16	1.190514E-16
3.350000E+03	2.153021E-16	1.200515E-16
3.360000E+03	2.196483E-16	1.210293E-16
3.370000E+03	2.241285E-16	1.220027E-16
3.380000E+03	2.286724E-16	1.229299E-16
3.390000E+03	2.333185E-16	1.238287E-16
3.400000E+03	2.381077E-16	1.247172E-16
3.410000E+03	2.429659E-16	1.255526E-16
3.420000E+03	2.479338E-16	1.263528E-16
3.430000E+03	2.530550E-16	1.271361E-16
3.440000E+03	2.582513E-16	1.278588E-16
3.450000E+03	2.635656E-16	1.285390E-16
3.460000E+03	2.690448E-16	1.291951E-16
3.470000E+03	2.746057E-16	1.297824E-16
3.480000E+03	2.802942E-16	1.303193E-16
3.490000E+03	2.861602E-16	1.308239E-16
3.500000E+03	2.921156E-16	1.312512E-16
3.510000E+03	2.982574E-16	1.316406E-16
3.520000E+03	3.044942E-16	1.319464E-16
3.530000E+03	3.109270E-16	1.322081E-16
3.540000E+03	3.174608E-16	1.323798E-16
3.550000E+03	3.241487E-16	1.324796E-16
3.560000E+03	3.310481E-16	1.325253E-16
3.570000E+03	3.380578E-16	1.324709E-16
3.580000E+03	3.452899E-16	1.323553E-16
3.590000E+03	3.526389E-16	1.321325E-16
3.600000E+03	3.602214E-16	1.318412E-16
3.610000E+03	3.679274E-16	1.314352E-16
3.620000E+03	3.758782E-16	1.309530E-16
3.630000E+03	3.839589E-16	1.303486E-16
3.640000E+03	3.922957E-16	1.296602E-16
3.650000E+03	4.007686E-16	1.288421E-16
3.660000E+03	4.095085E-16	1.279319E-16
3.670000E+03	4.183900E-16	1.268848E-16
3.680000E+03	4.275488E-16	1.257378E-16
3.690000E+03	4.368536E-16	1.244469E-16
3.700000E+03	4.464454E-16	1.230488E-16
3.710000E+03	4.561860E-16	1.215008E-16
3.720000E+03	4.662216E-16	1.198391E-16
3.730000E+03	4.764071E-16	1.180229E-16
3.740000E+03	4.868938E-16	1.160881E-16
3.750000E+03	4.976081E-16	1.140145E-16
3.760000E+03	5.084692E-16	1.117839E-16
3.770000E+03	5.196360E-16	1.094326E-16
3.780000E+03	5.309435E-16	1.069272E-16
3.790000E+03	5.425555E-16	1.043052E-16
3.800000E+03	5.542984E-16	1.015380E-16
3.810000E+03	5.663407E-16	9.866487E-17
3.820000E+03	5.784992E-16	9.566349E-17
3.830000E+03	5.909475E-16	9.257663E-17
3.840000E+03	6.034920E-16	8.938999E-17
3.850000E+03	6.163104E-16	8.615154E-17
3.860000E+03	6.292966E-16	8.287035E-17
3.870000E+03	6.423334E-16	7.956247E-17
3.880000E+03	6.555997E-16	7.628724E-17
3.890000E+03	6.688618E-16	7.305898E-17
3.900000E+03	6.822849E-16	6.994437E-17
3.910000E+03	6.955940E-16	6.696696E-17
3.920000E+03	7.089177E-16	6.419491E-17
3.930000E+03	7.219215E-16	6.165173E-17
3.940000E+03	7.346908E-16	5.939472E-17
3.950000E+03	7.468420E-16	5.743159E-17
3.960000E+03	7.584477E-16	5.579299E-17
3.970000E+03	7.691270E-16	5.445683E-17
3.980000E+03	7.790017E-16	5.341921E-17
3.990000E+03	7.877491E-16	5.262785E-17
4.000000E+03	7.955710E-16	5.205425E-17
4.010000E+03	8.022147E-16	5.163271E-17
4.020000E+03	8.079566E-16	5.133092E-17
4.030000E+03	8.126021E-16	5.108911E-17
4.040000E+03	8.164836E-16	5.088686E-17
4.050000E+03	8.194480E-16	5.068052E-17
4.060000E+03	8.218667E-16	5.046665E-17
4.070000E+03	8.236155E-16	5.021801E-17
4.080000E+03	8.250903E-16	4.994495E-17
4.090000E+03	8.261817E-16	4.963129E-17
4.100000E+03	8.271663E-16	4.928729E-17
4.110000E+03	8.283207E-16	4.892525E-17
4.120000E+03	8.295334E-16	4.853645E-17
4.130000E+03	8.312005E-16	4.814385E-17
4.140000E+03	8.331978E-16	4.774156E-17
4.150000E+03	8.357773E-16	4.734704E-17
4.160000E+03	8.391815E-16	4.697762E-17
4.170000E+03	8.432519E-16	4.662813E-17
4.180000E+03	8.483314E-16	4.632036E-17
4.190000E+03	8.542233E-16	4.604400E-17
4.200000E+03	8.611001E-16	4.580586E-17
4.210000E+03	8.691159E-16	4.560736E-17
4.220000E+03	8.780044E-16	4.542314E-17
4.230000E+03	8.878813E-16	4.524356E-17
4.240000E+03	8.987183E-16	4.504723E-17
4.250000E+03	9.106176E-16	4.481589E-17
4.260000E+03	9.232535E-16	4.450812E-17
4.270000E+03	9.366988E-16	4.410225E-17
4.280000E+03	9.508659E-16	4.357053E-17
4.290000E+03	9.657906E-16	4.289502E-17
4.300000E+03	9.810432E-16	4.204415E-17
4.310000E+03	9.966127E-16	4.101571E-17
4.320000E+03	1.012332E-15	3.981431E-17
4.330000E+03	1.028033E-15	3.846286E-17
4.340000E+03	1.043562E-15	3.700858E-17
4.350000E+03	1.058947E-15	3.553575E-17
4.360000E+03	1.073758E-15	3.415011E-17
4.370000E+03	1.088081E-15	3.301268E-17
4.380000E+03	1.101877E-15	3.230538E-17
4.390000E+03	1.115150E-15	3.220143E-17
4.400000E+03	1.127995E-15	3.274754E-17
4.410000E+03	1.140593E-15	3.385406E-17
4.420000E+03	1.153148E-15	3.539458E-17
4.430000E+03	1.165872E-15	3.724215E-17
4.440000E+03	1.178970E-15	3.928926E-17
4.450000E+03	1.192622E-15	4.145355E-17
4.460000E+03	1.206973E-15	4.367518E-17
4.470000E+03	1.222116E-15	4.591226E-17
4.480000E+03	1.238079E-15	4.813586E-17
4.490000E+03	1.254803E-15	5.032496E-17
4.500000E+03	1.271941E-15	5.245410E-17
4.510000E+03	1.289603E-15	5.452054E-17
4.520000E+03	1.307209E-15	5.649430E-17
4.530000E+03	1.324267E-15	5.834742E-17
4.540000E+03	1.340212E-15	6.004655E-17
4.550000E+03	1.354239E-15	6.154580E-17
4.560000E+03	1.366159E-15	6.282804E-17
4.570000E+03	1.375228E-15	6.385539E-17
4.580000E+03	1.380998E-15	6.460985E-17
4.590000E+03	1.382942E-15	6.507674E-17
4.600000E+03	1.381319E-15	6.528375E-17
4.610000E+03	1.375937E-15	6.524056E-17
4.620000E+03	1.366780E-15	6.496533E-17
4.630000E+03	1.354603E-15	6.451063E-17
4.640000E+03	1.339469E-15	6.389199E-17
4.650000E+03	1.322337E-15	6.316332E-17
4.660000E+03	1.303399E-15	6.233850E-17
4.670000E+03	1.283639E-15	6.146670E-17
4.680000E+03	1.263227E-15	6.055768E-17
4.690000E+03	1.243040E-15	5.965629E-17
4.700000E+03	1.223129E-15	5.876931E-17
4.710000E+03	1.204209E-15	5.793688E-17
4.720000E+03	1.186186E-15	5.716063E-17
4.730000E+03	1.169608E-15	5.647203E-17
4.740000E+03	1.154244E-15	5.586315E-17
4.750000E+03	1.140329E-15	5.534570E-17
4.760000E+03	1.127868E-15	5.491719E-17
4.770000E+03	1.116984E-15	5.457874E-17
4.780000E+03	1.107271E-15	5.430414E-17
4.790000E+03	1.098803E-15	5.408990E-17
4.800000E+03	1.091477E-15	5.392400E-17
4.810000E+03	1.085362E-15	5.380304E-17
4.820000E+03	1.080060E-15	5.370078E-17
4.830000E+03	1.075685E-15	5.361680E-17
4.840000E+03	1.072227E-15	5.354494E-17
4.850000E+03	1.069712E-15	5.348178E-17
4.860000E+03	1.068208E-15	5.342755E-17
4.870000E+03	1.067831E-15	5.338690E-17
4.880000E+03	1.068745E-15	5.336915E-17
4.890000E+03	1.071170E-15	5.338811E-17
4.900000E+03	1.075386E-15	5.346134E-17
4.910000E+03	1.081721E-15	5.360895E-17
4.920000E+03	1.090527E-15	5.385238E-17
4.930000E+03	1.102134E-15	5.421249E-17
4.940000E+03	1.116790E-15	5.470696E-17
4.950000E+03	1.134430E-15	5.533900E-17
4.960000E+03	1.155266E-15	5.612629E-17
4.970000E+03	1.178750E-15	5.705005E-17
4.980000E+03	1.204238E-15	5.808834E-17
4.990000E+03	1.230706E-15	5.920211E-17
5.000000E+03	1.257555E-15	6.037355E-17
5.010000E+03	1.283664E-15	6.155866E-17
5.020000E+03	1.308044E-15	6.271668E-17
5.030000E+03	1.330556E-15	6.384110E-17
5.040000E+03	1.350828E-15	6.490622E-17
5.050000E+03	1.368824E-15	6.589366E-17
5.060000E+03	1.385417E-15	6.682074E-17
5.070000E+03	1.400893E-15	6.767162E-17
5.080000E+03	1.416449E-15	6.847360E-17
5.090000E+03	1.432433E-15	6.921630E-17
5.100000E+03	1.449899E-15	6.993037E-17
5.110000E+03	1.468854E-15	7.060533E-17
5.120000E+03	1.489670E-15	7.125909E-17
5.130000E+03	1.512436E-15	7.190653E-17
5.140000E+03	1.536287E-15	7.252608E-17
5.150000E+03	1.560752E-15	7.312134E-17
5.160000E+03	1.584952E-15	7.367911E-17
5.170000E+03	1.608154E-15	7.419073E-17
5.180000E+03	1.628934E-15	7.460871E-17
5.190000E+03	1.646660E-15	7.491257E-17
5.200000E+03	1.660613E-15	7.506701E-17
5.210000E+03	1.670256E-15	7.503492E-17
5.220000E+03	1.675239E-15	7.478174E-17
5.230000E+03	1.675627E-15	7.429091E-17
5.240000E+03	1.670910E-15	7.352376E-17
5.250000E+03	1.661455E-15	7.248701E-17
5.260000E+03	1.647512E-15	7.118939E-17
5.270000E+03	1.629450E-15	6.965165E-17
5.280000E+03	1.607726E-15	6.790557E-17
5.290000E+03	1.582635E-15	6.598211E-17
5.300000E+03	1.555217E-15	6.394614E-17
5.310000E+03	1.525840E-15	6.183235E-17
5.320000E+03	1.495123E-15	5.967835E-17
5.330000E+03	1.463697E-15	5.750972E-17
5.340000E+03	1.432189E-15	5.533883E-17
5.350000E+03	1.401016E-15	5.315806E-17
5.360000E+03	1.371191E-15	5.097378E-17
5.370000E+03	1.343063E-15	4.876399E-17
5.380000E+03	1.316940E-15	4.650862E-17
5.390000E+03	1.293630E-15	4.421226E-17
5.400000E+03	1.273271E-15	4.186444E-17
5.410000E+03	1.255921E-15	3.946248E-17
5.420000E+03	1.242100E-15	3.702820E-17
5.430000E+03	1.231515E-15	3.457016E-17
5.440000E+03	1.224534E-15	3.213394E-17
5.450000E+03	1.220731E-15	2.977290E-17
5.460000E+03	1.220303E-15	2.760889E-17
5.470000E+03	1.222606E-15	2.582246E-17
5.480000E+03	1.227531E-15	2.469850E-17
5.490000E+03	1.234055E-15	2.455224E-17
5.500000E+03	1.241475E-15	2.553755E-17
5.510000E+03	1.248933E-15	2.738395E-17
5.520000E+03	1.254899E-15	2.970000E-17
5.530000E+03	1.258362E-15	3.215258E-17
5.540000E+03	1.258423E-15	3.449082E-17
5.550000E+03	1.253852E-15	3.652767E-17
5.560000E+03	1.244278E-15	3.815938E-17
5.570000E+03	1.229518E-15	3.933723E-17
5.580000E+03	1.209748E-15	4.006291E-17
5.590000E+03	1.185631E-15	4.038333E-17
5.600000E+03	1.157536E-15	4.035402E-17
5.610000E+03	1.126456E-15	4.005975E-17
5.620000E+03	1.093188E-15	3.957756E-17
5.630000E+03	1.058428E-15	3.897335E-17
5.640000E+03	1.022729E-15	3.829873E-17
5.650000E+03	9.865209E-16	3.759097E-17
5.660000E+03	9.501462E-16	3.687477E-17
5.670000E+03	9.139401E-16	3.616575E-17
5.680000E+03	8.783010E-16	3.547399E-17
5.690000E+03	8.437284E-16	3.480698E-17
5.700000E+03	8.106948E-16	3.416782E-17
5.710000E+03	7.800827E-16	3.357711E-17
5.720000E+03	7.524174E-16	3.304329E-17
5.730000E+03	7.282975E-16	3.258169E-17
5.740000E+03	7.082271E-16	3.220794E-17
5.750000E+03	6.924958E-16	3.193221E-17
5.760000E+03	6.815814E-16	3.177806E-17
5.770000E+03	6.755516E-16	3.175535E-17
5.780000E+03	6.744754E-16	3.187891E-17
5.790000E+03	6.782179E-16	3.215851E-17
5.800000E+03	6.868121E-16	3.261527E-17
5.810000E+03	6.997422E-16	3.324605E-17
5.820000E+03	7.167020E-16	3.405707E-17
5.830000E+03	7.368654E-16	3.502632E-17
5.840000E+03	7.591578E-16	3.611403E-17
5.850000E+03	7.826131E-16	3.727914E-17
5.860000E+03	8.056737E-16	3.844673E-17
5.870000E+03	8.271684E-16	3.955581E-17
5.880000E+03	8.454947E-16	4.052188E-17
5.890000E+03	8.596655E-16	4.128855E-17
5.900000E+03	8.684434E-16	4.178792E-17
5.910000E+03	8.712727E-16	4.198736E-17
5.920000E+03	8.679620E-16	4.187603E-17
5.930000E+03	8.583264E-16	4.144774E-17
5.940000E+03	8.429372E-16	4.073569E-17
5.950000E+03	8.227009E-16	3.978957E-17
5.960000E+03	7.984381E-16	3.865260E-17
5.970000E+03	7.715063E-16	3.739028E-17
5.980000E+03	7.433140E-16	3.606666E-17
5.990000E+03	7.149117E-16	3.472546E-17
6.000000E+03	6.875704E-16	3.342040E-17
6.010000E+03	6.622899E-16	3.219354E-17
6.020000E+03	6.398926E-16	3.108100E-17
6.030000E+03	6.211214E-16	3.011815E-17
6.040000E+03	6.063033E-16	2.932287E-17
6.050000E+03	5.959275E-16	2.872284E-17
6.060000E+03	5.903154E-16	2.833889E-17
6.070000E+03	5.897468E-16	2.819060E-17
6.080000E+03	5.944914E-16	2.829773E-17
6.090000E+03	6.048411E-16	2.868235E-17
6.100000E+03	6.211399E-16	2.937115E-17
6.110000E+03	6.438116E-16	3.039748E-17
6.120000E+03	6.733904E-16	3.180358E-17
6.130000E+03	7.105496E-16	3.364193E-17
6.140000E+03	7.561228E-16	3.597522E-17
6.150000E+03	8.111072E-16	3.887452E-17
6.160000E+03	8.766450E-16	4.241476E-17
6.170000E+03	9.539782E-16	4.666786E-17
6.180000E+03	1.044371E-15	5.169489E-17
6.190000E+03	1.148988E-15	5.753664E-17
6.200000E+03	1.268543E-15	6.419286E-17
6.210000E+03	1.403817E-15	7.164615E-17
6.220000E+03	1.554398E-15	7.979772E-17
6.230000E+03	1.719110E-15	8.849081E-17
6.240000E+03	1.895619E-15	9.749499E-17
6.250000E+03	2.079942E-15	1.064896E-16
6.260000E+03	2.267531E-15	1.151321E-16
6.270000E+03	2.451618E-15	1.229910E-16
6.280000E+03	2.624610E-15	1.296365E-16
6.290000E+03	2.777937E-15	1.346493E-16
6.300000E+03	2.904391E-15	1.377416E-16
6.310000E+03	2.996677E-15	1.386810E-16
6.320000E+03	3.049396E-15	1.373738E-16
6.330000E+03	3.061067E-15	1.339385E-16
6.340000E+03	3.031382E-15	1.285613E-16
6.350000E+03	2.964630E-15	1.216278E-16
6.360000E+03	2.866150E-15	1.135501E-16
6.370000E+03	2.742953E-15	1.047796E-16
6.380000E+03	2.603998E-15	9.579650E-17
6.390000E+03	2.456482E-15	8.695595E-17
6.400000E+03	2.308180E-15	7.856925E-17
6.410000E+03	2.164050E-15	7.078592E-17
6.420000E+03	2.028805E-15	6.369696E-17
6.430000E+03	1.904354E-15	5.726503E-17
6.440000E+03	1.792418E-15	5.142655E-17
6.450000E+03	1.692543E-15	4.605177E-17
6.460000E+03	1.604295E-15	4.102940E-17
6.470000E+03	1.526650E-15	3.626035E-17
6.480000E+03	1.457579E-15	3.166379E-17
6.490000E+03	1.395777E-15	2.723842E-17
6.500000E+03	1.339067E-15	2.306230E-17
6.510000E+03	1.286008E-15	1.939238E-17
6.520000E+03	1.235346E-15	1.672538E-17
6.530000E+03	1.185570E-15	1.569522E-17
6.540000E+03	1.136528E-15	1.630228E-17
6.550000E+03	1.088884E-15	1.773724E-17
6.560000E+03	1.042733E-15	1.934098E-17
6.570000E+03	9.984608E-16	2.078238E-17
6.580000E+03	9.560960E-16	2.193047E-17
6.590000E+03	9.156394E-16	2.275642E-17
6.600000E+03	8.765819E-16	2.326655E-17
6.610000E+03	8.387789E-16	2.349699E-17
6.620000E+03	8.019529E-16	2.348870E-17
6.630000E+03	7.658679E-16	2.328433E-17
6.640000E+03	7.304585E-16	2.292736E-17
6.650000E+03	6.954126E-16	2.244649E-17
6.660000E+03	6.608227E-16	2.187514E-17
6.670000E+03	6.267432E-16	2.123800E-17
6.680000E+03	5.932932E-16	2.055487E-17
6.690000E+03	5.606463E-16	1.984225E-17
6.700000E+03	5.290172E-16	1.911441E-17
6.710000E+03	4.986450E-16	1.838395E-17
6.720000E+03	4.697711E-16	1.766275E-17
6.730000E+03	4.426191E-16	1.696229E-17
6.740000E+03	4.174403E-16	1.629581E-17
6.750000E+03	3.942596E-16	1.566871E-17
6.760000E+03	3.732458E-16	1.509287E-17
6.770000E+03	3.544609E-16	1.457644E-17
6.780000E+03	3.379300E-16	1.412616E-17
6.790000E+03	3.236018E-16	1.374519E-17
6.800000E+03	3.115471E-16	1.344102E-17
6.810000E+03	3.016810E-16	1.321361E-17
6.820000E+03	2.939659E-16	1.306390E-17
6.830000E+03	2.883710E-16	1.299214E-17
6.840000E+03	2.848810E-16	1.299871E-17
6.850000E+03	2.835027E-16	1.308480E-17
6.860000E+03	2.842708E-16	1.325301E-17
6.870000E+03	2.872492E-16	1.350775E-17
6.880000E+03	2.925314E-16	1.385538E-17
6.890000E+03	3.001942E-16	1.430207E-17
6.900000E+03	3.104654E-16	1.486172E-17
6.910000E+03	3.234579E-16	1.554314E-17
6.920000E+03	3.393292E-16	1.635746E-17
6.930000E+03	3.582263E-16	1.731547E-17
6.940000E+03	3.802148E-16	1.842417E-17
6.950000E+03	4.054783E-16	1.969635E-17
6.960000E+03	4.339796E-16	2.113418E-17
6.970000E+03	4.656574E-16	2.273846E-17
6.980000E+03	5.002929E-16	2.450177E-17
6.990000E+03	5.377981E-16	2.642221E-17
7.000000E+03	5.778128E-16	2.848330E-17
7.010000E+03	6.200069E-16	3.066838E-17
7.020000E+03	6.639445E-16	3.295389E-17
7.030000E+03	7.094938E-16	3.533005E-17
7.040000E+03	7.562968E-16	3.777514E-17
7.050000E+03	8.040461E-16	4.027009E-17
7.060000E+03	8.528778E-16	4.281934E-17
7.070000E+03	9.025784E-16	4.541197E-17
7.080000E+03	9.535661E-16	4.807164E-17
7.090000E+03	1.006025E-15	5.081332E-17
7.100000E+03	1.060261E-15	5.366080E-17
7.110000E+03	1.117197E-15	5.667108E-17
7.120000E+03	1.177290E-15	5.987895E-17
7.130000E+03	1.241802E-15	6.336019E-17
7.140000E+03	1.311448E-15	6.716212E-17
7.150000E+03	1.387778E-15	7.137371E-17
7.160000E+03	1.471634E-15	7.604535E-17
7.170000E+03	1.564641E-15	8.126438E-17
7.180000E+03	1.667398E-15	8.706002E-17
7.190000E+03	1.781094E-15	9.348526E-17
7.200000E+03	1.905429E-15	1.005082E-16
7.210000E+03	2.040437E-15	1.081084E-16
7.220000E+03	2.184118E-15	1.161538E-16
7.230000E+03	2.334570E-15	1.245174E-16
7.240000E+03	2.487405E-15	1.329439E-16
7.250000E+03	2.637986E-15	1.411725E-16
7.260000E+03	2.780663E-15	1.488980E-16
7.270000E+03	2.907806E-15	1.557174E-16
7.280000E+03	3.012695E-15	1.612818E-16
7.290000E+03	3.089066E-15	1.652696E-16
7.300000E+03	3.130450E-15	1.673490E-16
7.310000E+03	3.133562E-15	1.673580E-16
7.320000E+03	3.097456E-15	1.652586E-16
7.330000E+03	3.022351E-15	1.610740E-16
7.340000E+03	2.912248E-15	1.550280E-16
7.350000E+03	2.773064E-15	1.474439E-16
7.360000E+03	2.610771E-15	1.386453E-16
7.370000E+03	2.433180E-15	1.290502E-16
7.380000E+03	2.247534E-15	1.190445E-16
7.390000E+03	2.060369E-15	1.089752E-16
7.400000E+03	1.877421E-15	9.914669E-17
7.410000E+03	1.702324E-15	8.975338E-17
7.420000E+03	1.538346E-15	8.097104E-17
7.430000E+03	1.387314E-15	7.289990E-17
7.440000E+03	1.250119E-15	6.558990E-17
7.450000E+03	1.126920E-15	5.905104E-17
7.460000E+03	1.017502E-15	5.327163E-17
7.470000E+03	9.208430E-16	4.819610E-17
7.480000E+03	8.362033E-16	4.378249E-17
7.490000E+03	7.625851E-16	3.997451E-17
7.500000E+03	6.989733E-16	3.671462E-17
7.510000E+03	6.443836E-16	3.394676E-17
7.520000E+03	5.978943E-16	3.161801E-17
7.530000E+03	5.586649E-16	2.967979E-17
7.540000E+03	5.259447E-16	2.808829E-17
7.550000E+03	4.990749E-16	2.680447E-17
7.560000E+03	4.774851E-16	2.579397E-17
7.570000E+03	4.606866E-16	2.502677E-17
7.580000E+03	4.482640E-16	2.447688E-17
7.590000E+03	4.398671E-16	2.412233E-17
7.600000E+03	4.352008E-16	2.394508E-17
7.610000E+03	4.340128E-16	2.393043E-17
7.620000E+03	4.360802E-16	2.406605E-17
7.630000E+03	4.411928E-16	2.434061E-17
7.640000E+03	4.490695E-16	2.473858E-17
7.650000E+03	4.596049E-16	2.525349E-17
7.660000E+03	4.724589E-16	2.586495E-17
7.670000E+03	4.873011E-16	2.655197E-17
7.680000E+03	5.037313E-16	2.728863E-17
7.690000E+03	5.212681E-16	2.804381E-17
7.700000E+03	5.392642E-16	2.877703E-17
7.710000E+03	5.572258E-16	2.945654E-17
7.720000E+03	5.743547E-16	3.003588E-17
7.730000E+03	5.898844E-16	3.047343E-17
7.740000E+03	6.030388E-16	3.073190E-17
7.750000E+03	6.129902E-16	3.077775E-17
7.760000E+03	6.192834E-16	3.060286E-17
