#wls	flux	fluxerr
1.600000E+03	3.997378E-16	3.818243E-17
1.640000E+03	4.071481E-16	3.845290E-17
1.680000E+03	4.144144E-16	3.868716E-17
1.720000E+03	4.215624E-16	3.888774E-17
1.760000E+03	4.286185E-16	3.905718E-17
1.800000E+03	4.356370E-16	3.920043E-17
1.840000E+03	4.427023E-16	3.932485E-17
1.880000E+03	4.498923E-16	3.943694E-17
1.920000E+03	4.573359E-16	3.954719E-17
1.960000E+03	4.651482E-16	3.966433E-17
2.000000E+03	4.734975E-16	3.980103E-17
2.040000E+03	4.825774E-16	3.997119E-17
2.080000E+03	4.925539E-16	4.018551E-17
2.120000E+03	5.036397E-16	4.045760E-17
2.160000E+03	5.160120E-16	4.079710E-17
2.200000E+03	5.298509E-16	4.121301E-17
2.240000E+03	5.452972E-16	4.171030E-17
2.280000E+03	5.624235E-16	4.228795E-17
2.320000E+03	5.812685E-16	4.294197E-17
2.360000E+03	6.018243E-16	4.366474E-17
2.400000E+03	6.240294E-16	4.444483E-17
2.440000E+03	6.477743E-16	4.526775E-17
2.480000E+03	6.729554E-16	4.612002E-17
2.520000E+03	6.994817E-16	4.698961E-17
2.560000E+03	7.272289E-16	4.786283E-17
2.600000E+03	7.561200E-16	4.872979E-17
2.640000E+03	7.861374E-16	4.958488E-17
2.680000E+03	8.173215E-16	5.042629E-17
2.720000E+03	8.498159E-16	5.125834E-17
2.760000E+03	8.838883E-16	5.209206E-17
2.800000E+03	9.198771E-16	5.294122E-17
2.840000E+03	9.581599E-16	5.382004E-17
2.880000E+03	9.990887E-16	5.473855E-17
2.920000E+03	1.043062E-15	5.570695E-17
2.960000E+03	1.090425E-15	5.673057E-17
3.000000E+03	1.141536E-15	5.781348E-17
3.010000E+03	1.154948E-15	5.809409E-17
3.020000E+03	1.168619E-15	5.837843E-17
3.030000E+03	1.182555E-15	5.866651E-17
3.040000E+03	1.196758E-15	5.895814E-17
3.050000E+03	1.211246E-15	5.925398E-17
3.060000E+03	1.225999E-15	5.955268E-17
3.070000E+03	1.241045E-15	5.985542E-17
3.080000E+03	1.256376E-15	6.016151E-17
3.090000E+03	1.271998E-15	6.047091E-17
3.100000E+03	1.287916E-15	6.078352E-17
3.110000E+03	1.304134E-15	6.109934E-17
3.120000E+03	1.320643E-15	6.141761E-17
3.130000E+03	1.337464E-15	6.173896E-17
3.140000E+03	1.354588E-15	6.206275E-17
3.150000E+03	1.372020E-15	6.238883E-17
3.160000E+03	1.389753E-15	6.271664E-17
3.170000E+03	1.407806E-15	6.304673E-17
3.180000E+03	1.426158E-15	6.337786E-17
3.190000E+03	1.444828E-15	6.371058E-17
3.200000E+03	1.463795E-15	6.404368E-17
3.210000E+03	1.483082E-15	6.437780E-17
3.220000E+03	1.502678E-15	6.471226E-17
3.230000E+03	1.522564E-15	6.504591E-17
3.240000E+03	1.542760E-15	6.537933E-17
3.250000E+03	1.563259E-15	6.571198E-17
3.260000E+03	1.584041E-15	6.604274E-17
3.270000E+03	1.605113E-15	6.637158E-17
3.280000E+03	1.626466E-15	6.669800E-17
3.290000E+03	1.648097E-15	6.702154E-17
3.300000E+03	1.669982E-15	6.734101E-17
3.310000E+03	1.692131E-15	6.765659E-17
3.320000E+03	1.714507E-15	6.796664E-17
3.330000E+03	1.737133E-15	6.827186E-17
3.340000E+03	1.759973E-15	6.857067E-17
3.350000E+03	1.783021E-15	6.886268E-17
3.360000E+03	1.806271E-15	6.914749E-17
3.370000E+03	1.829686E-15	6.942358E-17
3.380000E+03	1.853247E-15	6.969013E-17
3.390000E+03	1.876960E-15	6.994734E-17
3.400000E+03	1.900791E-15	7.019381E-17
3.410000E+03	1.924733E-15	7.042929E-17
3.420000E+03	1.948735E-15	7.065188E-17
3.430000E+03	1.972805E-15	7.086195E-17
3.440000E+03	1.996891E-15	7.105762E-17
3.450000E+03	2.020999E-15	7.123925E-17
3.460000E+03	2.045089E-15	7.140548E-17
3.470000E+03	2.069152E-15	7.155611E-17
3.480000E+03	2.093125E-15	7.168914E-17
3.490000E+03	2.117007E-15	7.180477E-17
3.500000E+03	2.140779E-15	7.190253E-17
3.510000E+03	2.164387E-15	7.198087E-17
3.520000E+03	2.187837E-15	7.204028E-17
3.530000E+03	2.211087E-15	7.207966E-17
3.540000E+03	2.234177E-15	7.210055E-17
3.550000E+03	2.257050E-15	7.210115E-17
3.560000E+03	2.279744E-15	7.208282E-17
3.570000E+03	2.302218E-15	7.204431E-17
3.580000E+03	2.324508E-15	7.198685E-17
3.590000E+03	2.346604E-15	7.191015E-17
3.600000E+03	2.368493E-15	7.181395E-17
3.610000E+03	2.390177E-15	7.169832E-17
3.620000E+03	2.411643E-15	7.156294E-17
3.630000E+03	2.432923E-15	7.140887E-17
3.640000E+03	2.453968E-15	7.123472E-17
3.650000E+03	2.474792E-15	7.104094E-17
3.660000E+03	2.495408E-15	7.082803E-17
3.670000E+03	2.515761E-15	7.059449E-17
3.680000E+03	2.535877E-15	7.034114E-17
3.690000E+03	2.555715E-15	7.006697E-17
3.700000E+03	2.575280E-15	6.977225E-17
3.710000E+03	2.594543E-15	6.945629E-17
3.720000E+03	2.613470E-15	6.911841E-17
3.730000E+03	2.632064E-15	6.875883E-17
3.740000E+03	2.650285E-15	6.837678E-17
3.750000E+03	2.668095E-15	6.797151E-17
3.760000E+03	2.685470E-15	6.754270E-17
3.770000E+03	2.702366E-15	6.708956E-17
3.780000E+03	2.718770E-15	6.661218E-17
3.790000E+03	2.734617E-15	6.610936E-17
3.800000E+03	2.749872E-15	6.558074E-17
3.810000E+03	2.764483E-15	6.502562E-17
3.820000E+03	2.778411E-15	6.444368E-17
3.830000E+03	2.791620E-15	6.383469E-17
3.840000E+03	2.804033E-15	6.319763E-17
3.850000E+03	2.815609E-15	6.253236E-17
3.860000E+03	2.826310E-15	6.183889E-17
3.870000E+03	2.836076E-15	6.111682E-17
3.880000E+03	2.844850E-15	6.036590E-17
3.890000E+03	2.852598E-15	5.958649E-17
3.900000E+03	2.859245E-15	5.877816E-17
3.910000E+03	2.864781E-15	5.794191E-17
3.920000E+03	2.869160E-15	5.707807E-17
3.930000E+03	2.872324E-15	5.618685E-17
3.940000E+03	2.874275E-15	5.526967E-17
3.950000E+03	2.874984E-15	5.432747E-17
3.960000E+03	2.874413E-15	5.336100E-17
3.970000E+03	2.872585E-15	5.237226E-17
3.980000E+03	2.869479E-15	5.136247E-17
3.990000E+03	2.865096E-15	5.033331E-17
4.000000E+03	2.859488E-15	4.928732E-17
4.010000E+03	2.852657E-15	4.822623E-17
4.020000E+03	2.844635E-15	4.715226E-17
4.030000E+03	2.835480E-15	4.606807E-17
4.040000E+03	2.825240E-15	4.497611E-17
4.050000E+03	2.813971E-15	4.387899E-17
4.060000E+03	2.801755E-15	4.277962E-17
4.070000E+03	2.788624E-15	4.168014E-17
4.080000E+03	2.774710E-15	4.058416E-17
4.090000E+03	2.760054E-15	3.949390E-17
4.100000E+03	2.744760E-15	3.841242E-17
4.110000E+03	2.728896E-15	3.734222E-17
4.120000E+03	2.712585E-15	3.628657E-17
4.130000E+03	2.695900E-15	3.524793E-17
4.140000E+03	2.678926E-15	3.422897E-17
4.150000E+03	2.661733E-15	3.323210E-17
4.160000E+03	2.644441E-15	3.226034E-17
4.170000E+03	2.627112E-15	3.131601E-17
4.180000E+03	2.609806E-15	3.040135E-17
4.190000E+03	2.592609E-15	2.951901E-17
4.200000E+03	2.575588E-15	2.867138E-17
4.210000E+03	2.558785E-15	2.786056E-17
4.220000E+03	2.542252E-15	2.708888E-17
4.230000E+03	2.526052E-15	2.635873E-17
4.240000E+03	2.510188E-15	2.567196E-17
4.250000E+03	2.494707E-15	2.503081E-17
4.260000E+03	2.479616E-15	2.443718E-17
4.270000E+03	2.464945E-15	2.389312E-17
4.280000E+03	2.450686E-15	2.340023E-17
4.290000E+03	2.436838E-15	2.296009E-17
4.300000E+03	2.423410E-15	2.257422E-17
4.310000E+03	2.410389E-15	2.224368E-17
4.320000E+03	2.397738E-15	2.196910E-17
4.330000E+03	2.385477E-15	2.175128E-17
4.340000E+03	2.373550E-15	2.158959E-17
4.350000E+03	2.361929E-15	2.148177E-17
4.360000E+03	2.350588E-15	2.142463E-17
4.370000E+03	2.339505E-15	2.141477E-17
4.380000E+03	2.328588E-15	2.144798E-17
4.390000E+03	2.317833E-15	2.152075E-17
4.400000E+03	2.307193E-15	2.162908E-17
4.410000E+03	2.296643E-15	2.176918E-17
4.420000E+03	2.286180E-15	2.193750E-17
4.430000E+03	2.275757E-15	2.213019E-17
4.440000E+03	2.265413E-15	2.234430E-17
4.450000E+03	2.255120E-15	2.257646E-17
4.460000E+03	2.244884E-15	2.282374E-17
4.470000E+03	2.234674E-15	2.308307E-17
4.480000E+03	2.224512E-15	2.335207E-17
4.490000E+03	2.214361E-15	2.362797E-17
4.500000E+03	2.204236E-15	2.390871E-17
4.510000E+03	2.194098E-15	2.419184E-17
4.520000E+03	2.183956E-15	2.447559E-17
4.530000E+03	2.173770E-15	2.475782E-17
4.540000E+03	2.163532E-15	2.503686E-17
4.550000E+03	2.153235E-15	2.531120E-17
4.560000E+03	2.142839E-15	2.557911E-17
4.570000E+03	2.132378E-15	2.583978E-17
4.580000E+03	2.121801E-15	2.609157E-17
4.590000E+03	2.111132E-15	2.633379E-17
4.600000E+03	2.100368E-15	2.656555E-17
4.610000E+03	2.089525E-15	2.678629E-17
4.620000E+03	2.078595E-15	2.699526E-17
4.630000E+03	2.067643E-15	2.719268E-17
4.640000E+03	2.056655E-15	2.737789E-17
4.650000E+03	2.045691E-15	2.755128E-17
4.660000E+03	2.034783E-15	2.771288E-17
4.670000E+03	2.023965E-15	2.786294E-17
4.680000E+03	2.013279E-15	2.800177E-17
4.690000E+03	2.002779E-15	2.812999E-17
4.700000E+03	1.992510E-15	2.824812E-17
4.710000E+03	1.982481E-15	2.835625E-17
4.720000E+03	1.972747E-15	2.845513E-17
4.730000E+03	1.963330E-15	2.854511E-17
4.740000E+03	1.954261E-15	2.862669E-17
4.750000E+03	1.945538E-15	2.869990E-17
4.760000E+03	1.937210E-15	2.876555E-17
4.770000E+03	1.929258E-15	2.882345E-17
4.780000E+03	1.921685E-15	2.887375E-17
4.790000E+03	1.914481E-15	2.891644E-17
4.800000E+03	1.907631E-15	2.895138E-17
4.810000E+03	1.901078E-15	2.897783E-17
4.820000E+03	1.894804E-15	2.899561E-17
4.830000E+03	1.888769E-15	2.900423E-17
4.840000E+03	1.882931E-15	2.900313E-17
4.850000E+03	1.877229E-15	2.899148E-17
4.860000E+03	1.871632E-15	2.896892E-17
4.870000E+03	1.866077E-15	2.893458E-17
4.880000E+03	1.860522E-15	2.888791E-17
4.890000E+03	1.854940E-15	2.882861E-17
4.900000E+03	1.849278E-15	2.875600E-17
4.910000E+03	1.843518E-15	2.866996E-17
4.920000E+03	1.837631E-15	2.857018E-17
4.930000E+03	1.831595E-15	2.845648E-17
4.940000E+03	1.825391E-15	2.832880E-17
4.950000E+03	1.819010E-15	2.818717E-17
4.960000E+03	1.812460E-15	2.803196E-17
4.970000E+03	1.805727E-15	2.786319E-17
4.980000E+03	1.798847E-15	2.768169E-17
4.990000E+03	1.791800E-15	2.748742E-17
5.000000E+03	1.784631E-15	2.728134E-17
5.010000E+03	1.777360E-15	2.706408E-17
5.020000E+03	1.770006E-15	2.683623E-17
5.030000E+03	1.762595E-15	2.659851E-17
5.040000E+03	1.755152E-15	2.635161E-17
5.050000E+03	1.747733E-15	2.609672E-17
5.060000E+03	1.740335E-15	2.583410E-17
5.070000E+03	1.732999E-15	2.556473E-17
5.080000E+03	1.725765E-15	2.528952E-17
5.090000E+03	1.718656E-15	2.500916E-17
5.100000E+03	1.711694E-15	2.472429E-17
5.110000E+03	1.704881E-15	2.443531E-17
5.120000E+03	1.698280E-15	2.414346E-17
5.130000E+03	1.691872E-15	2.384881E-17
5.140000E+03	1.685683E-15	2.355209E-17
5.150000E+03	1.679720E-15	2.325376E-17
5.160000E+03	1.673986E-15	2.295424E-17
5.170000E+03	1.668514E-15	2.265437E-17
5.180000E+03	1.663257E-15	2.235388E-17
5.190000E+03	1.658255E-15	2.205375E-17
5.200000E+03	1.653488E-15	2.175413E-17
5.210000E+03	1.648951E-15	2.145540E-17
5.220000E+03	1.644647E-15	2.115808E-17
5.230000E+03	1.640553E-15	2.086240E-17
5.240000E+03	1.636675E-15	2.056893E-17
5.250000E+03	1.632986E-15	2.027793E-17
5.260000E+03	1.629508E-15	1.999024E-17
5.270000E+03	1.626215E-15	1.970618E-17
5.280000E+03	1.623100E-15	1.942634E-17
5.290000E+03	1.620154E-15	1.915130E-17
5.300000E+03	1.617389E-15	1.888195E-17
5.310000E+03	1.614784E-15	1.861879E-17
5.320000E+03	1.612336E-15	1.836262E-17
5.330000E+03	1.610063E-15	1.811448E-17
5.340000E+03	1.607962E-15	1.787523E-17
5.350000E+03	1.606024E-15	1.764563E-17
5.360000E+03	1.604251E-15	1.742667E-17
5.370000E+03	1.602665E-15	1.721953E-17
5.380000E+03	1.601254E-15	1.702505E-17
5.390000E+03	1.600039E-15	1.684444E-17
5.400000E+03	1.599004E-15	1.667851E-17
5.410000E+03	1.598148E-15	1.652826E-17
5.420000E+03	1.597480E-15	1.639473E-17
5.430000E+03	1.596949E-15	1.627835E-17
5.440000E+03	1.596554E-15	1.617993E-17
5.450000E+03	1.596201E-15	1.609924E-17
5.460000E+03	1.595873E-15	1.603681E-17
5.470000E+03	1.595498E-15	1.599250E-17
5.480000E+03	1.595033E-15	1.596586E-17
5.490000E+03	1.594440E-15	1.595569E-17
5.500000E+03	1.593675E-15	1.596057E-17
5.510000E+03	1.592704E-15	1.597914E-17
5.520000E+03	1.591534E-15	1.601036E-17
5.530000E+03	1.590150E-15	1.605296E-17
5.540000E+03	1.588564E-15	1.610586E-17
5.550000E+03	1.586774E-15	1.616788E-17
5.560000E+03	1.584819E-15	1.623820E-17
5.570000E+03	1.582690E-15	1.631557E-17
5.580000E+03	1.580430E-15	1.639926E-17
5.590000E+03	1.578051E-15	1.648825E-17
5.600000E+03	1.575598E-15	1.658195E-17
5.610000E+03	1.573053E-15	1.667909E-17
5.620000E+03	1.570476E-15	1.677932E-17
5.630000E+03	1.567881E-15	1.688184E-17
5.640000E+03	1.565279E-15	1.698587E-17
5.650000E+03	1.562712E-15	1.709104E-17
5.660000E+03	1.560191E-15	1.719669E-17
5.670000E+03	1.557724E-15	1.730216E-17
5.680000E+03	1.555349E-15	1.740722E-17
5.690000E+03	1.553071E-15	1.751132E-17
5.700000E+03	1.550913E-15	1.761411E-17
5.710000E+03	1.548874E-15	1.771506E-17
5.720000E+03	1.546972E-15	1.781393E-17
5.730000E+03	1.545206E-15	1.791023E-17
5.740000E+03	1.543622E-15	1.800411E-17
5.750000E+03	1.542182E-15	1.809477E-17
5.760000E+03	1.540930E-15	1.818239E-17
5.770000E+03	1.539825E-15	1.826619E-17
5.780000E+03	1.538923E-15	1.834656E-17
5.790000E+03	1.538180E-15	1.842275E-17
5.800000E+03	1.537614E-15	1.849475E-17
5.810000E+03	1.537212E-15	1.856222E-17
5.820000E+03	1.536990E-15	1.862518E-17
5.830000E+03	1.536914E-15	1.868305E-17
5.840000E+03	1.537011E-15	1.873607E-17
5.850000E+03	1.537227E-15	1.878345E-17
5.860000E+03	1.537589E-15	1.882544E-17
5.870000E+03	1.538055E-15	1.886143E-17
5.880000E+03	1.538629E-15	1.889145E-17
5.890000E+03	1.539284E-15	1.891512E-17
5.900000E+03	1.540021E-15	1.893244E-17
5.910000E+03	1.540791E-15	1.894281E-17
5.920000E+03	1.541594E-15	1.894624E-17
5.930000E+03	1.542409E-15	1.894254E-17
5.940000E+03	1.543180E-15	1.893109E-17
5.950000E+03	1.543918E-15	1.891211E-17
5.960000E+03	1.544564E-15	1.888499E-17
5.970000E+03	1.545091E-15	1.884954E-17
5.980000E+03	1.545485E-15	1.880578E-17
5.990000E+03	1.545699E-15	1.875332E-17
6.000000E+03	1.545700E-15	1.869200E-17
6.010000E+03	1.545453E-15	1.862166E-17
6.020000E+03	1.544889E-15	1.854176E-17
6.030000E+03	1.544001E-15	1.845258E-17
6.040000E+03	1.542737E-15	1.835384E-17
6.050000E+03	1.541053E-15	1.824547E-17
6.060000E+03	1.538894E-15	1.812723E-17
6.070000E+03	1.536236E-15	1.799937E-17
6.080000E+03	1.533017E-15	1.786169E-17
6.090000E+03	1.529202E-15	1.771435E-17
6.100000E+03	1.524729E-15	1.755727E-17
6.110000E+03	1.519597E-15	1.739109E-17
6.120000E+03	1.513753E-15	1.721590E-17
6.130000E+03	1.507147E-15	1.703185E-17
6.140000E+03	1.499784E-15	1.683978E-17
6.150000E+03	1.491621E-15	1.663997E-17
6.160000E+03	1.482658E-15	1.643323E-17
6.170000E+03	1.472880E-15	1.622022E-17
6.180000E+03	1.462300E-15	1.600189E-17
6.190000E+03	1.450937E-15	1.577927E-17
6.200000E+03	1.438809E-15	1.555311E-17
6.210000E+03	1.425963E-15	1.532438E-17
6.220000E+03	1.412447E-15	1.509398E-17
6.230000E+03	1.398336E-15	1.486313E-17
6.240000E+03	1.383723E-15	1.463321E-17
6.250000E+03	1.368715E-15	1.440571E-17
6.260000E+03	1.353415E-15	1.418206E-17
6.270000E+03	1.337970E-15	1.396414E-17
6.280000E+03	1.322500E-15	1.375348E-17
6.290000E+03	1.307161E-15	1.355198E-17
6.300000E+03	1.292070E-15	1.336112E-17
6.310000E+03	1.277358E-15	1.318249E-17
6.320000E+03	1.263149E-15	1.301759E-17
6.330000E+03	1.249571E-15	1.286800E-17
6.340000E+03	1.236708E-15	1.273477E-17
6.350000E+03	1.224650E-15	1.261908E-17
6.360000E+03	1.213491E-15	1.252212E-17
6.370000E+03	1.203276E-15	1.244460E-17
6.380000E+03	1.194055E-15	1.238731E-17
6.390000E+03	1.185867E-15	1.235094E-17
6.400000E+03	1.178754E-15	1.233621E-17
6.410000E+03	1.172712E-15	1.234341E-17
6.420000E+03	1.167729E-15	1.237274E-17
6.430000E+03	1.163796E-15	1.242414E-17
6.440000E+03	1.160860E-15	1.249663E-17
6.450000E+03	1.158872E-15	1.258922E-17
6.460000E+03	1.157764E-15	1.270072E-17
6.470000E+03	1.157475E-15	1.283004E-17
6.480000E+03	1.157922E-15	1.297585E-17
6.490000E+03	1.159052E-15	1.313712E-17
6.500000E+03	1.160754E-15	1.331216E-17
6.510000E+03	1.162962E-15	1.349979E-17
6.520000E+03	1.165546E-15	1.369806E-17
6.530000E+03	1.168438E-15	1.390569E-17
6.540000E+03	1.171469E-15	1.412017E-17
6.550000E+03	1.174570E-15	1.434011E-17
6.560000E+03	1.177555E-15	1.456266E-17
6.570000E+03	1.180312E-15	1.478581E-17
6.580000E+03	1.182714E-15	1.500728E-17
6.590000E+03	1.184648E-15	1.522491E-17
6.600000E+03	1.185996E-15	1.543641E-17
6.610000E+03	1.186691E-15	1.564013E-17
6.620000E+03	1.186635E-15	1.583395E-17
6.630000E+03	1.185821E-15	1.601696E-17
6.640000E+03	1.184190E-15	1.618754E-17
6.650000E+03	1.181757E-15	1.634510E-17
6.660000E+03	1.178535E-15	1.648905E-17
6.670000E+03	1.174537E-15	1.661886E-17
6.680000E+03	1.169808E-15	1.673446E-17
6.690000E+03	1.164405E-15	1.683605E-17
6.700000E+03	1.158413E-15	1.692429E-17
6.710000E+03	1.151869E-15	1.699922E-17
6.720000E+03	1.144870E-15	1.706181E-17
6.730000E+03	1.137498E-15	1.711291E-17
6.740000E+03	1.129814E-15	1.715314E-17
6.750000E+03	1.121920E-15	1.718376E-17
6.760000E+03	1.113855E-15	1.720520E-17
6.770000E+03	1.105731E-15	1.721900E-17
6.780000E+03	1.097582E-15	1.722561E-17
6.790000E+03	1.089505E-15	1.722648E-17
6.800000E+03	1.081508E-15	1.722169E-17
6.810000E+03	1.073693E-15	1.721289E-17
6.820000E+03	1.066052E-15	1.719996E-17
6.830000E+03	1.058661E-15	1.718417E-17
6.840000E+03	1.051533E-15	1.716582E-17
6.850000E+03	1.044696E-15	1.714540E-17
6.860000E+03	1.038171E-15	1.712335E-17
6.870000E+03	1.031957E-15	1.709973E-17
6.880000E+03	1.026082E-15	1.707510E-17
6.890000E+03	1.020554E-15	1.704967E-17
6.900000E+03	1.015341E-15	1.702299E-17
6.910000E+03	1.010479E-15	1.699576E-17
6.920000E+03	1.005947E-15	1.696766E-17
6.930000E+03	1.001741E-15	1.693873E-17
6.940000E+03	9.978369E-16	1.690862E-17
6.950000E+03	9.942422E-16	1.687751E-17
6.960000E+03	9.909484E-16	1.684531E-17
6.970000E+03	9.879273E-16	1.681159E-17
6.980000E+03	9.851674E-16	1.677620E-17
6.990000E+03	9.826570E-16	1.673897E-17
7.000000E+03	9.804013E-16	1.670004E-17
7.010000E+03	9.783539E-16	1.665864E-17
7.020000E+03	9.765202E-16	1.661491E-17
7.030000E+03	9.748887E-16	1.656867E-17
7.040000E+03	9.734308E-16	1.651947E-17
7.050000E+03	9.721531E-16	1.646745E-17
7.060000E+03	9.710279E-16	1.641218E-17
7.070000E+03	9.700456E-16	1.635353E-17
7.080000E+03	9.691969E-16	1.629138E-17
7.090000E+03	9.684907E-16	1.622592E-17
7.100000E+03	9.678839E-16	1.615648E-17
7.110000E+03	9.673866E-16	1.608327E-17
7.120000E+03	9.669917E-16	1.600625E-17
7.130000E+03	9.666749E-16	1.592506E-17
7.140000E+03	9.664478E-16	1.583999E-17
7.150000E+03	9.662869E-16	1.575073E-17
7.160000E+03	9.661866E-16	1.565728E-17
7.170000E+03	9.661594E-16	1.555996E-17
7.180000E+03	9.661827E-16	1.545851E-17
7.190000E+03	9.662516E-16	1.535299E-17
7.200000E+03	9.663434E-16	1.524319E-17
7.210000E+03	9.664896E-16	1.512976E-17
7.220000E+03	9.666675E-16	1.501254E-17
7.230000E+03	9.668547E-16	1.489136E-17
7.240000E+03	9.670648E-16	1.476667E-17
7.250000E+03	9.672749E-16	1.463834E-17
7.260000E+03	9.674988E-16	1.450686E-17
7.270000E+03	9.677320E-16	1.437245E-17
7.280000E+03	9.679517E-16	1.423507E-17
7.290000E+03	9.681531E-16	1.409501E-17
7.300000E+03	9.683499E-16	1.395285E-17
7.310000E+03	9.685376E-16	1.380892E-17
7.320000E+03	9.686744E-16	1.366307E-17
7.330000E+03	9.688117E-16	1.351651E-17
7.340000E+03	9.688887E-16	1.336890E-17
7.350000E+03	9.689384E-16	1.322126E-17
7.360000E+03	9.689567E-16	1.307413E-17
7.370000E+03	9.689205E-16	1.292784E-17
7.380000E+03	9.688447E-16	1.278329E-17
7.390000E+03	9.687065E-16	1.264089E-17
7.400000E+03	9.685025E-16	1.250139E-17
7.410000E+03	9.682678E-16	1.236607E-17
7.420000E+03	9.679611E-16	1.223526E-17
7.430000E+03	9.675995E-16	1.211008E-17
7.440000E+03	9.671611E-16	1.199123E-17
7.450000E+03	9.666834E-16	1.188014E-17
7.460000E+03	9.661261E-16	1.177732E-17
7.470000E+03	9.655075E-16	1.168405E-17
7.480000E+03	9.648073E-16	1.160112E-17
7.490000E+03	9.640646E-16	1.153005E-17
7.500000E+03	9.632593E-16	1.147165E-17
7.510000E+03	9.623715E-16	1.142670E-17
7.520000E+03	9.614408E-16	1.139666E-17
7.530000E+03	9.604470E-16	1.138222E-17
7.540000E+03	9.594095E-16	1.138449E-17
7.550000E+03	9.582874E-16	1.140378E-17
7.560000E+03	9.571197E-16	1.144126E-17
7.570000E+03	9.559053E-16	1.149751E-17
7.580000E+03	9.546226E-16	1.157259E-17
7.590000E+03	9.532712E-16	1.166617E-17
7.600000E+03	9.518724E-16	1.177798E-17
7.610000E+03	9.504285E-16	1.190744E-17
7.620000E+03	9.489233E-16	1.205365E-17
7.630000E+03	9.473840E-16	1.221621E-17
7.640000E+03	9.458188E-16	1.239444E-17
7.650000E+03	9.442372E-16	1.258766E-17
7.660000E+03	9.426487E-16	1.279517E-17
7.670000E+03	9.410619E-16	1.301626E-17
7.680000E+03	9.395050E-16	1.325052E-17
7.690000E+03	9.379628E-16	1.349695E-17
7.700000E+03	9.364385E-16	1.375483E-17
7.710000E+03	9.349545E-16	1.402374E-17
7.720000E+03	9.334888E-16	1.430266E-17
7.730000E+03	9.320812E-16	1.459153E-17
7.740000E+03	9.306843E-16	1.488898E-17
7.750000E+03	9.293132E-16	1.519464E-17
7.760000E+03	9.279597E-16	1.550780E-17
