#wls	flux	fluxerr
1.600000E+03	5.095600E-17	1.863832E-18
1.640000E+03	5.059922E-17	1.841607E-18
1.680000E+03	5.028219E-17	1.820744E-18
1.720000E+03	4.999039E-17	1.800699E-18
1.760000E+03	4.975128E-17	1.782441E-18
1.800000E+03	4.956416E-17	1.765913E-18
1.840000E+03	4.942830E-17	1.751059E-18
1.880000E+03	4.932914E-17	1.737332E-18
1.920000E+03	4.930727E-17	1.726129E-18
1.960000E+03	4.933423E-17	1.716406E-18
2.000000E+03	4.943649E-17	1.709045E-18
2.040000E+03	4.961294E-17	1.703951E-18
2.080000E+03	4.984901E-17	1.700571E-18
2.120000E+03	5.017073E-17	1.699740E-18
2.160000E+03	5.057695E-17	1.701350E-18
2.200000E+03	5.106665E-17	1.705297E-18
2.240000E+03	5.163888E-17	1.711476E-18
2.280000E+03	5.231932E-17	1.720659E-18
2.320000E+03	5.309394E-17	1.732290E-18
2.360000E+03	5.397539E-17	1.746690E-18
2.400000E+03	5.496341E-17	1.763748E-18
2.440000E+03	5.608407E-17	1.784188E-18
2.480000E+03	5.732483E-17	1.807482E-18
2.520000E+03	5.871247E-17	1.834342E-18
2.560000E+03	6.026137E-17	1.865061E-18
2.600000E+03	6.198655E-17	1.899927E-18
2.640000E+03	6.391663E-17	1.939620E-18
2.680000E+03	6.606853E-17	1.984425E-18
2.720000E+03	6.846067E-17	2.034644E-18
2.760000E+03	7.112571E-17	2.090964E-18
2.800000E+03	7.409838E-17	2.154085E-18
2.840000E+03	7.741595E-17	2.224721E-18
2.880000E+03	8.111885E-17	2.303616E-18
2.920000E+03	8.526382E-17	2.391903E-18
2.960000E+03	8.989983E-17	2.490408E-18
3.000000E+03	9.509402E-17	2.600367E-18
3.010000E+03	9.650193E-17	2.630171E-18
3.020000E+03	9.793347E-17	2.660326E-18
3.030000E+03	9.941445E-17	2.691525E-18
3.040000E+03	1.009456E-16	2.723771E-18
3.050000E+03	1.025151E-16	2.756732E-18
3.060000E+03	1.041236E-16	2.790413E-18
3.070000E+03	1.057974E-16	2.825503E-18
3.080000E+03	1.075119E-16	2.861328E-18
3.090000E+03	1.092807E-16	2.898237E-18
3.100000E+03	1.111049E-16	2.936238E-18
3.110000E+03	1.129726E-16	2.975004E-18
3.120000E+03	1.149104E-16	3.015219E-18
3.130000E+03	1.169067E-16	3.056555E-18
3.140000E+03	1.189498E-16	3.098689E-18
3.150000E+03	1.210794E-16	3.142639E-18
3.160000E+03	1.232583E-16	3.187413E-18
3.170000E+03	1.255005E-16	3.233357E-18
3.180000E+03	1.278334E-16	3.281151E-18
3.190000E+03	1.302196E-16	3.329816E-18
3.200000E+03	1.326866E-16	3.380027E-18
3.210000E+03	1.352359E-16	3.431801E-18
3.220000E+03	1.378561E-16	3.484823E-18
3.230000E+03	1.405621E-16	3.539444E-18
3.240000E+03	1.433558E-16	3.595681E-18
3.250000E+03	1.462389E-16	3.653555E-18
3.260000E+03	1.492137E-16	3.713086E-18
3.270000E+03	1.522821E-16	3.774293E-18
3.280000E+03	1.554595E-16	3.837528E-18
3.290000E+03	1.587216E-16	3.902158E-18
3.300000E+03	1.620974E-16	3.968860E-18
3.310000E+03	1.655761E-16	4.037335E-18
3.320000E+03	1.691735E-16	4.107935E-18
3.330000E+03	1.728925E-16	4.180690E-18
3.340000E+03	1.767222E-16	4.255293E-18
3.350000E+03	1.806790E-16	4.332104E-18
3.360000E+03	1.847522E-16	4.410823E-18
3.370000E+03	1.889725E-16	4.492139E-18
3.380000E+03	1.933293E-16	4.575756E-18
3.390000E+03	1.978258E-16	4.661701E-18
3.400000E+03	2.024656E-16	4.750009E-18
3.410000E+03	2.072664E-16	4.841048E-18
3.420000E+03	2.122176E-16	4.934515E-18
3.430000E+03	2.173229E-16	5.030444E-18
3.440000E+03	2.226008E-16	5.129209E-18
3.450000E+03	2.280552E-16	5.230842E-18
3.460000E+03	2.336757E-16	5.335045E-18
3.470000E+03	2.394961E-16	5.442526E-18
3.480000E+03	2.454912E-16	5.552648E-18
3.490000E+03	2.516953E-16	5.666125E-18
3.500000E+03	2.580831E-16	5.782315E-18
3.510000E+03	2.646895E-16	5.901934E-18
3.520000E+03	2.715043E-16	6.024681E-18
3.530000E+03	2.785478E-16	6.150930E-18
3.540000E+03	2.858097E-16	6.280375E-18
3.550000E+03	2.932951E-16	6.413054E-18
3.560000E+03	3.010249E-16	6.549342E-18
3.570000E+03	3.090045E-16	6.689271E-18
3.580000E+03	3.172396E-16	6.832879E-18
3.590000E+03	3.257358E-16	6.980192E-18
3.600000E+03	3.344987E-16	7.131240E-18
3.610000E+03	3.435339E-16	7.286050E-18
3.620000E+03	3.528472E-16	7.444648E-18
3.630000E+03	3.624442E-16	7.607053E-18
3.640000E+03	3.723476E-16	7.773640E-18
3.650000E+03	3.825462E-16	7.944071E-18
3.660000E+03	3.930632E-16	8.118715E-18
3.670000E+03	4.039041E-16	8.297581E-18
3.680000E+03	4.150578E-16	8.480321E-18
3.690000E+03	4.265470E-16	8.667292E-18
3.700000E+03	4.383778E-16	8.858494E-18
3.710000E+03	4.505555E-16	9.053917E-18
3.720000E+03	4.630859E-16	9.253552E-18
3.730000E+03	4.759742E-16	9.457381E-18
3.740000E+03	4.892257E-16	9.665380E-18
3.750000E+03	5.028453E-16	9.877519E-18
3.760000E+03	5.168565E-16	1.009413E-17
3.770000E+03	5.312456E-16	1.031480E-17
3.780000E+03	5.460358E-16	1.053985E-17
3.790000E+03	5.612124E-16	1.076886E-17
3.800000E+03	4.138122E-16	7.893256E-18
3.803041E+03	4.355445E-16	8.292665E-18
3.806083E+03	4.575322E-16	8.695408E-18
3.809124E+03	4.813251E-16	9.130869E-18
3.812166E+03	5.042010E-16	9.547298E-18
3.815207E+03	5.250913E-16	9.924607E-18
3.818249E+03	5.416912E-16	1.021950E-17
3.821290E+03	5.557171E-16	1.046478E-17
3.824331E+03	5.680066E-16	1.067643E-17
3.827373E+03	5.752483E-16	1.079251E-17
3.830414E+03	5.817788E-16	1.089476E-17
3.833456E+03	5.837205E-16	1.091078E-17
3.836497E+03	5.808206E-16	1.083632E-17
3.839538E+03	5.719457E-16	1.065080E-17
3.842580E+03	5.589181E-16	1.038870E-17
3.845621E+03	5.413591E-16	1.004344E-17
3.848663E+03	5.219515E-16	9.665159E-18
3.851704E+03	4.975282E-16	9.195533E-18
3.854745E+03	4.695139E-16	8.661364E-18
3.857787E+03	4.353696E-16	8.016273E-18
3.860828E+03	4.011349E-16	7.371907E-18
3.863870E+03	3.659707E-16	6.712877E-18
3.866911E+03	3.338419E-16	6.111879E-18
3.869952E+03	3.011826E-16	5.503429E-18
3.872994E+03	2.680974E-16	4.889491E-18
3.876035E+03	2.400847E-16	4.370202E-18
3.879077E+03	2.179644E-16	3.959922E-18
3.882118E+03	1.968916E-16	3.570184E-18
3.885160E+03	1.809285E-16	3.274394E-18
3.888201E+03	1.661109E-16	3.000411E-18
3.891242E+03	1.562329E-16	2.816517E-18
3.894284E+03	1.530389E-16	2.753572E-18
3.897325E+03	1.558335E-16	2.798396E-18
3.900367E+03	1.578284E-16	2.828687E-18
3.903408E+03	1.571604E-16	2.811206E-18
3.906449E+03	1.643631E-16	2.934283E-18
3.909491E+03	1.779158E-16	3.169991E-18
3.912532E+03	1.991794E-16	3.541867E-18
3.915574E+03	2.219261E-16	3.938570E-18
3.918615E+03	2.518911E-16	4.461529E-18
3.921656E+03	2.872835E-16	5.078326E-18
3.924698E+03	3.268648E-16	5.766535E-18
3.927739E+03	3.676934E-16	6.473931E-18
3.930781E+03	4.113884E-16	7.228822E-18
3.933822E+03	4.603471E-16	8.072957E-18
3.936863E+03	5.128891E-16	8.976366E-18
3.939905E+03	5.697510E-16	9.951533E-18
3.942946E+03	6.262446E-16	1.091629E-17
3.945988E+03	6.847673E-16	1.191238E-17
3.949029E+03	7.404611E-16	1.285525E-17
3.952070E+03	7.961859E-16	1.379474E-17
3.955112E+03	8.496908E-16	1.469192E-17
3.958153E+03	8.962203E-16	1.546499E-17
3.961195E+03	9.389077E-16	1.616862E-17
3.964236E+03	9.769943E-16	1.679020E-17
3.967278E+03	1.012625E-15	1.736697E-17
3.970319E+03	1.043569E-15	1.786103E-17
3.973360E+03	1.069572E-15	1.826853E-17
3.976402E+03	1.096506E-15	1.869006E-17
3.979443E+03	1.120160E-15	1.905392E-17
3.982485E+03	1.137650E-15	1.931148E-17
3.985526E+03	1.153816E-15	1.954539E-17
3.988567E+03	1.162889E-15	1.965825E-17
3.991609E+03	1.166066E-15	1.967103E-17
3.994650E+03	1.160946E-15	1.954390E-17
3.997692E+03	1.146810E-15	1.926568E-17
4.000733E+03	1.125108E-15	1.886163E-17
4.003774E+03	1.098558E-15	1.837799E-17
4.006816E+03	1.076637E-15	1.797349E-17
4.009857E+03	1.056566E-15	1.760138E-17
4.012899E+03	1.036640E-15	1.723306E-17
4.015940E+03	1.014434E-15	1.682834E-17
4.018981E+03	9.910647E-16	1.640592E-17
4.022023E+03	9.734454E-16	1.608013E-17
4.025064E+03	9.564551E-16	1.576595E-17
4.028106E+03	9.396304E-16	1.545568E-17
4.031147E+03	9.281155E-16	1.523377E-17
4.034189E+03	9.197402E-16	1.506408E-17
4.037230E+03	9.164029E-16	1.497733E-17
4.040271E+03	9.180840E-16	1.497267E-17
4.043313E+03	9.200815E-16	1.497303E-17
4.046354E+03	9.217838E-16	1.496849E-17
4.049396E+03	9.244565E-16	1.497954E-17
4.052437E+03	9.334372E-16	1.509243E-17
4.055479E+03	9.474192E-16	1.528537E-17
4.058520E+03	9.653912E-16	1.554159E-17
4.061561E+03	9.850119E-16	1.582304E-17
4.064603E+03	1.010544E-15	1.619789E-17
4.067644E+03	1.043340E-15	1.668715E-17
4.070686E+03	1.079013E-15	1.722003E-17
4.073727E+03	1.118364E-15	1.780902E-17
4.076768E+03	1.160402E-15	1.843798E-17
4.079810E+03	1.208126E-15	1.915415E-17
4.082851E+03	1.257018E-15	1.988552E-17
4.085893E+03	1.303955E-15	2.058261E-17
4.088934E+03	1.347141E-15	2.121739E-17
4.091975E+03	1.385855E-15	2.177892E-17
4.095017E+03	1.410363E-15	2.211499E-17
4.098058E+03	1.423996E-15	2.227926E-17
4.101100E+03	1.430174E-15	2.232620E-17
4.104141E+03	1.422199E-15	2.215232E-17
4.107182E+03	1.405476E-15	2.184305E-17
4.110224E+03	1.380637E-15	2.140911E-17
4.113265E+03	1.353743E-15	2.094513E-17
4.116307E+03	1.319829E-15	2.037466E-17
4.119348E+03	1.287452E-15	1.983025E-17
4.122390E+03	1.260587E-15	1.937280E-17
4.125431E+03	1.234413E-15	1.892785E-17
4.128472E+03	1.206841E-15	1.846336E-17
4.131514E+03	1.183533E-15	1.806587E-17
4.134555E+03	1.156099E-15	1.760719E-17
4.137596E+03	1.129063E-15	1.715647E-17
4.140638E+03	1.102424E-15	1.671364E-17
4.143679E+03	1.077810E-15	1.630334E-17
4.146721E+03	1.054272E-15	1.591097E-17
4.149762E+03	1.040479E-15	1.566701E-17
4.152804E+03	1.030216E-15	1.547703E-17
4.155845E+03	1.022109E-15	1.532012E-17
4.158886E+03	1.011779E-15	1.513055E-17
4.161928E+03	9.986339E-16	1.489970E-17
4.164969E+03	9.832858E-16	1.463700E-17
4.168011E+03	9.661998E-16	1.434955E-17
4.171052E+03	9.464235E-16	1.402345E-17
4.174093E+03	9.282101E-16	1.372183E-17
4.177135E+03	9.118139E-16	1.344828E-17
4.180176E+03	8.964521E-16	1.319111E-17
4.183218E+03	8.848769E-16	1.299059E-17
4.186259E+03	8.769832E-16	1.284483E-17
4.189301E+03	8.674369E-16	1.267546E-17
4.192342E+03	8.616788E-16	1.256201E-17
4.195383E+03	8.579100E-16	1.247792E-17
4.198425E+03	8.568934E-16	1.243404E-17
4.201466E+03	8.569140E-16	1.240528E-17
4.204508E+03	8.561085E-16	1.236460E-17
4.207549E+03	8.550485E-16	1.232035E-17
4.210590E+03	8.552378E-16	1.229417E-17
4.213632E+03	8.588799E-16	1.231751E-17
4.216673E+03	8.637086E-16	1.235762E-17
4.219715E+03	8.713768E-16	1.243796E-17
4.222756E+03	8.801689E-16	1.253384E-17
4.225797E+03	8.902122E-16	1.264693E-17
4.228839E+03	9.002143E-16	1.275878E-17
4.231880E+03	9.090732E-16	1.285385E-17
4.234922E+03	9.162799E-16	1.292504E-17
4.237963E+03	9.171285E-16	1.290632E-17
4.241005E+03	9.086077E-16	1.275604E-17
4.244046E+03	8.990467E-16	1.259181E-17
4.247087E+03	8.856045E-16	1.237402E-17
4.250129E+03	8.609655E-16	1.200108E-17
4.253170E+03	8.344358E-16	1.160354E-17
4.256212E+03	8.031311E-16	1.114155E-17
4.259253E+03	7.723309E-16	1.068866E-17
4.262294E+03	7.359061E-16	1.016020E-17
4.265336E+03	6.959343E-16	9.585315E-18
4.268377E+03	6.552781E-16	9.003711E-18
4.271419E+03	6.119437E-16	8.388104E-18
4.274460E+03	5.707456E-16	7.804603E-18
4.277501E+03	5.359489E-16	7.311163E-18
4.280543E+03	5.080426E-16	6.913800E-18
4.283584E+03	4.901685E-16	6.654496E-18
4.286626E+03	4.824768E-16	6.534285E-18
4.289667E+03	4.832086E-16	6.528414E-18
4.292708E+03	4.955272E-16	6.678687E-18
4.295750E+03	5.206025E-16	6.999697E-18
4.298791E+03	5.497559E-16	7.373807E-18
4.301833E+03	5.875517E-16	7.861689E-18
4.304874E+03	6.278994E-16	8.381221E-18
4.307916E+03	6.689314E-16	8.907282E-18
4.310957E+03	7.075905E-16	9.399218E-18
4.313998E+03	7.413924E-16	9.824337E-18
4.317040E+03	7.730537E-16	1.021902E-17
4.320081E+03	7.999623E-16	1.054905E-17
4.323123E+03	8.234340E-16	1.083218E-17
4.326164E+03	8.415565E-16	1.104367E-17
4.329205E+03	8.546265E-16	1.118791E-17
4.332247E+03	8.603066E-16	1.123486E-17
4.335288E+03	8.608894E-16	1.121510E-17
4.338330E+03	8.594328E-16	1.116885E-17
4.341371E+03	8.549593E-16	1.108365E-17
4.344412E+03	8.478719E-16	1.096498E-17
4.347454E+03	8.413570E-16	1.085420E-17
4.350495E+03	8.348198E-16	1.074360E-17
4.353537E+03	8.303850E-16	1.066045E-17
4.356578E+03	8.245895E-16	1.056023E-17
4.359619E+03	8.205143E-16	1.048239E-17
4.362661E+03	8.169483E-16	1.041136E-17
4.365702E+03	8.162508E-16	1.037708E-17
4.368744E+03	8.165731E-16	1.035582E-17
4.371785E+03	8.164701E-16	1.032923E-17
4.374827E+03	8.204053E-16	1.035367E-17
4.377868E+03	8.262751E-16	1.040229E-17
4.380909E+03	8.311674E-16	1.043833E-17
4.383951E+03	8.355284E-16	1.046747E-17
4.386992E+03	8.414841E-16	1.051635E-17
4.390034E+03	8.500766E-16	1.059779E-17
4.393075E+03	8.605834E-16	1.070259E-17
4.396116E+03	8.749824E-16	1.085511E-17
4.399158E+03	8.917642E-16	1.103631E-17
4.402199E+03	9.086751E-16	1.121817E-17
4.405241E+03	9.290327E-16	1.144152E-17
4.408282E+03	9.455212E-16	1.161621E-17
4.411323E+03	9.541411E-16	1.169355E-17
4.414365E+03	9.627190E-16	1.176993E-17
4.417406E+03	9.696595E-16	1.182592E-17
4.420448E+03	9.753663E-16	1.186657E-17
4.423489E+03	9.823073E-16	1.192195E-17
4.426530E+03	9.877593E-16	1.195899E-17
4.429572E+03	9.920838E-16	1.198216E-17
4.432613E+03	9.957912E-16	1.199775E-17
4.435655E+03	1.000009E-15	1.201933E-17
4.438696E+03	1.003483E-15	1.203185E-17
4.441738E+03	1.006509E-15	1.203890E-17
4.444779E+03	1.009940E-15	1.205070E-17
4.447820E+03	1.015307E-15	1.208545E-17
4.450862E+03	1.018120E-15	1.208965E-17
4.453903E+03	1.018315E-15	1.206279E-17
4.456945E+03	1.015147E-15	1.199626E-17
4.459986E+03	1.012127E-15	1.193177E-17
4.463027E+03	1.008723E-15	1.186304E-17
4.466069E+03	1.001380E-15	1.174838E-17
4.469110E+03	9.915450E-16	1.160508E-17
4.472152E+03	9.768550E-16	1.140574E-17
4.475193E+03	9.602471E-16	1.118499E-17
4.478234E+03	9.399114E-16	1.092195E-17
4.481276E+03	9.145700E-16	1.060211E-17
4.484317E+03	8.857977E-16	1.024409E-17
4.487359E+03	8.545740E-16	9.859470E-18
4.490400E+03	8.231769E-16	9.474666E-18
4.493441E+03	7.921816E-16	9.096282E-18
4.496483E+03	7.628233E-16	8.738419E-18
4.499524E+03	7.349956E-16	8.399732E-18
4.502566E+03	7.065264E-16	8.055310E-18
4.505607E+03	6.786935E-16	7.719742E-18
4.508649E+03	6.505387E-16	7.382082E-18
4.511690E+03	6.245751E-16	7.070811E-18
4.514731E+03	6.027417E-16	6.807638E-18
4.517773E+03	5.858484E-16	6.601348E-18
4.520814E+03	5.777939E-16	6.495384E-18
4.523856E+03	5.769602E-16	6.470886E-18
4.526897E+03	5.818141E-16	6.510142E-18
4.529938E+03	5.976822E-16	6.672167E-18
4.532980E+03	6.244375E-16	6.954688E-18
4.536021E+03	6.625071E-16	7.361624E-18
4.539063E+03	7.109967E-16	7.882192E-18
4.542104E+03	7.699071E-16	8.515623E-18
4.545145E+03	8.343591E-16	9.207296E-18
4.548187E+03	9.041613E-16	9.954692E-18
4.551228E+03	9.749667E-16	1.070970E-17
4.554270E+03	1.043408E-15	1.143534E-17
4.557311E+03	1.109443E-15	1.213137E-17
4.560352E+03	1.178653E-15	1.285888E-17
4.563394E+03	1.247117E-15	1.357498E-17
4.566435E+03	1.312322E-15	1.425245E-17
4.569477E+03	1.376225E-15	1.491276E-17
4.572518E+03	1.436909E-15	1.553533E-17
4.575560E+03	1.496802E-15	1.614657E-17
4.578601E+03	1.552666E-15	1.671173E-17
4.581642E+03	1.602604E-15	1.721076E-17
4.584684E+03	1.645357E-15	1.763057E-17
4.587725E+03	1.680094E-15	1.796286E-17
4.590767E+03	1.711863E-15	1.826203E-17
4.593808E+03	1.737535E-15	1.849503E-17
4.596850E+03	1.750715E-15	1.859434E-17
4.599891E+03	1.756773E-15	1.861779E-17
4.602932E+03	1.756945E-15	1.857893E-17
4.605974E+03	1.751444E-15	1.848041E-17
4.609015E+03	1.742573E-15	1.834688E-17
4.612056E+03	1.732440E-15	1.820072E-17
4.615098E+03	1.721877E-15	1.805073E-17
4.618139E+03	1.715103E-15	1.794107E-17
4.621181E+03	1.712672E-15	1.787725E-17
4.624222E+03	1.708085E-15	1.779131E-17
4.627264E+03	1.704835E-15	1.771968E-17
4.630305E+03	1.706162E-15	1.769590E-17
4.633346E+03	1.715644E-15	1.775667E-17
4.636388E+03	1.731830E-15	1.788648E-17
4.639429E+03	1.753124E-15	1.806847E-17
4.642471E+03	1.779118E-15	1.829810E-17
4.645512E+03	1.805721E-15	1.853310E-17
4.648553E+03	1.830485E-15	1.874837E-17
4.651595E+03	1.850044E-15	1.890962E-17
4.654636E+03	1.860969E-15	1.898224E-17
4.657678E+03	1.868713E-15	1.902225E-17
4.660719E+03	1.871830E-15	1.901519E-17
4.663761E+03	1.871065E-15	1.896888E-17
4.666802E+03	1.870931E-15	1.892926E-17
4.669843E+03	1.869451E-15	1.887630E-17
4.672885E+03	1.868496E-15	1.882893E-17
4.675926E+03	1.871133E-15	1.881799E-17
4.678967E+03	1.874082E-15	1.881033E-17
4.682009E+03	1.876682E-15	1.879931E-17
4.685050E+03	1.881702E-15	1.881264E-17
4.688092E+03	1.885437E-15	1.881320E-17
4.691133E+03	1.880589E-15	1.872841E-17
4.694175E+03	1.871991E-15	1.860679E-17
4.697216E+03	1.855324E-15	1.840573E-17
4.700257E+03	1.832677E-15	1.814634E-17
4.703299E+03	1.807030E-15	1.785840E-17
4.706340E+03	1.781168E-15	1.756958E-17
4.709382E+03	1.752307E-15	1.725243E-17
4.712423E+03	1.724211E-15	1.694413E-17
4.715465E+03	1.697965E-15	1.665523E-17
4.718506E+03	1.675014E-15	1.639980E-17
4.721547E+03	1.652676E-15	1.615144E-17
4.724589E+03	1.629320E-15	1.589416E-17
4.727630E+03	1.608702E-15	1.566463E-17
4.730672E+03	1.589210E-15	1.544699E-17
4.733713E+03	1.568613E-15	1.521955E-17
4.736754E+03	1.551221E-15	1.502410E-17
4.739796E+03	1.530792E-15	1.480009E-17
4.742837E+03	1.507220E-15	1.454669E-17
4.745879E+03	1.485051E-15	1.430781E-17
4.748920E+03	1.461970E-15	1.406113E-17
4.751961E+03	1.439336E-15	1.381973E-17
4.755003E+03	1.421031E-15	1.362077E-17
4.758044E+03	1.406966E-15	1.346321E-17
4.761086E+03	1.392286E-15	1.330042E-17
4.764127E+03	1.375845E-15	1.312153E-17
4.767168E+03	1.353979E-15	1.289171E-17
4.770210E+03	1.323341E-15	1.257939E-17
4.773251E+03	1.287456E-15	1.221844E-17
4.776293E+03	1.249907E-15	1.184301E-17
4.779334E+03	1.209424E-15	1.144118E-17
4.782376E+03	1.166689E-15	1.101946E-17
4.785417E+03	1.123481E-15	1.059475E-17
4.788458E+03	1.078300E-15	1.015290E-17
4.791500E+03	1.031104E-15	9.693592E-18
4.794541E+03	9.832708E-16	9.229827E-18
4.797583E+03	9.346112E-16	8.759832E-18
4.800624E+03	8.893968E-16	8.323601E-18
4.803665E+03	8.551696E-16	7.991447E-18
4.806707E+03	8.273369E-16	7.720034E-18
4.809748E+03	8.063792E-16	7.513574E-18
4.812790E+03	7.994698E-16	7.438514E-18
4.815831E+03	8.120212E-16	7.544582E-18
4.818872E+03	8.428127E-16	7.819687E-18
4.821914E+03	8.901816E-16	8.247721E-18
4.824955E+03	9.544277E-16	8.830849E-18
4.827997E+03	1.032350E-15	9.538878E-18
4.831038E+03	1.120710E-15	1.034145E-17
4.834079E+03	1.211722E-15	1.116647E-17
4.837121E+03	1.302052E-15	1.198321E-17
4.840162E+03	1.392312E-15	1.279736E-17
4.843204E+03	1.477259E-15	1.356083E-17
4.846245E+03	1.553341E-15	1.424130E-17
4.849287E+03	1.619976E-15	1.483380E-17
4.852328E+03	1.677638E-15	1.534299E-17
4.855369E+03	1.723267E-15	1.574126E-17
4.858411E+03	1.759439E-15	1.605253E-17
4.861452E+03	1.784063E-15	1.625809E-17
4.864494E+03	1.800573E-15	1.638958E-17
4.867535E+03	1.804974E-15	1.641093E-17
4.870576E+03	1.801515E-15	1.636111E-17
4.873618E+03	1.790415E-15	1.624234E-17
4.876659E+03	1.774073E-15	1.607659E-17
4.879701E+03	1.753459E-15	1.587278E-17
4.882742E+03	1.730885E-15	1.565192E-17
4.885783E+03	1.704822E-15	1.540027E-17
4.888825E+03	1.679732E-15	1.515816E-17
4.891866E+03	1.661867E-15	1.498190E-17
4.894908E+03	1.651634E-15	1.487496E-17
4.897949E+03	1.651820E-15	1.486222E-17
4.900990E+03	1.665981E-15	1.497535E-17
4.904032E+03	1.693554E-15	1.520894E-17
4.907073E+03	1.732224E-15	1.554191E-17
4.910115E+03	1.781932E-15	1.597346E-17
4.913156E+03	1.842035E-15	1.649758E-17
4.916198E+03	1.908226E-15	1.707552E-17
4.919239E+03	1.978249E-15	1.768697E-17
4.922280E+03	2.051531E-15	1.832678E-17
4.925322E+03	2.120085E-15	1.892361E-17
4.928363E+03	2.182920E-15	1.946874E-17
4.931405E+03	2.233003E-15	1.989966E-17
4.934446E+03	2.263091E-15	2.015215E-17
4.937487E+03	2.274462E-15	2.023802E-17
4.940529E+03	2.266940E-15	2.015607E-17
4.943570E+03	2.237657E-15	1.988121E-17
4.946612E+03	2.189964E-15	1.944358E-17
4.949653E+03	2.121619E-15	1.882362E-17
4.952694E+03	2.035059E-15	1.804330E-17
4.955736E+03	1.935568E-15	1.714973E-17
4.958777E+03	1.831454E-15	1.621665E-17
4.961819E+03	1.728386E-15	1.529426E-17
4.964860E+03	1.624485E-15	1.436589E-17
4.967901E+03	1.529879E-15	1.352102E-17
4.970943E+03	1.446221E-15	1.277406E-17
4.973984E+03	1.374584E-15	1.213428E-17
4.977026E+03	1.316510E-15	1.161504E-17
4.980067E+03	1.276909E-15	1.125946E-17
4.983109E+03	1.252501E-15	1.103830E-17
4.986150E+03	1.244343E-15	1.096067E-17
4.989191E+03	1.254435E-15	1.104394E-17
4.992233E+03	1.276774E-15	1.123504E-17
4.995274E+03	1.311024E-15	1.153088E-17
4.998316E+03	1.361323E-15	1.196767E-17
5.001357E+03	1.420488E-15	1.248214E-17
5.004398E+03	1.490285E-15	1.308968E-17
