#wls	flux	fluxerr
1.600000E+03	9.387181E-18	1.174235E-18
1.640000E+03	9.631949E-18	1.199975E-18
1.680000E+03	9.883856E-18	1.226246E-18
1.720000E+03	1.014877E-17	1.253754E-18
1.760000E+03	1.041816E-17	1.281418E-18
1.800000E+03	1.070085E-17	1.310302E-18
1.840000E+03	1.099111E-17	1.339671E-18
1.880000E+03	1.129198E-17	1.369872E-18
1.920000E+03	1.160355E-17	1.400884E-18
1.960000E+03	1.192285E-17	1.432318E-18
2.000000E+03	1.225604E-17	1.464884E-18
2.040000E+03	1.259700E-17	1.497813E-18
2.080000E+03	1.295197E-17	1.531817E-18
2.120000E+03	1.331783E-17	1.566485E-18
2.160000E+03	1.369456E-17	1.601776E-18
2.200000E+03	1.408208E-17	1.637644E-18
2.240000E+03	1.448354E-17	1.674414E-18
2.280000E+03	1.489888E-17	1.712034E-18
2.320000E+03	1.532469E-17	1.750062E-18
2.360000E+03	1.576067E-17	1.788426E-18
2.400000E+03	1.621339E-17	1.827823E-18
2.440000E+03	1.667922E-17	1.867789E-18
2.480000E+03	1.715787E-17	1.908240E-18
2.520000E+03	1.764895E-17	1.949080E-18
2.560000E+03	1.815555E-17	1.990595E-18
2.600000E+03	1.867728E-17	2.032683E-18
2.640000E+03	1.921006E-17	2.074840E-18
2.680000E+03	1.976044E-17	2.117717E-18
2.720000E+03	2.032789E-17	2.161185E-18
2.760000E+03	2.090812E-17	2.204721E-18
2.800000E+03	2.150768E-17	2.248949E-18
2.840000E+03	2.212216E-17	2.293331E-18
2.880000E+03	2.275808E-17	2.338468E-18
2.920000E+03	2.340720E-17	2.383432E-18
2.960000E+03	2.407968E-17	2.429180E-18
3.000000E+03	2.477085E-17	2.475147E-18
3.010000E+03	2.494515E-17	2.486522E-18
3.020000E+03	2.512264E-17	2.498106E-18
3.030000E+03	2.529957E-17	2.509524E-18
3.040000E+03	2.547965E-17	2.521142E-18
3.050000E+03	2.566288E-17	2.532958E-18
3.060000E+03	2.584549E-17	2.544599E-18
3.070000E+03	2.602745E-17	2.556060E-18
3.080000E+03	2.621251E-17	2.567710E-18
3.090000E+03	2.640065E-17	2.579543E-18
3.100000E+03	2.658809E-17	2.591189E-18
3.110000E+03	2.677857E-17	2.603010E-18
3.120000E+03	2.696833E-17	2.614640E-18
3.130000E+03	2.716109E-17	2.626437E-18
3.140000E+03	2.735684E-17	2.638400E-18
3.150000E+03	2.755180E-17	2.650160E-18
3.160000E+03	2.774972E-17	2.662078E-18
3.170000E+03	2.794682E-17	2.673789E-18
3.180000E+03	2.815059E-17	2.686008E-18
3.190000E+03	2.834975E-17	2.697656E-18
3.200000E+03	2.855554E-17	2.709802E-18
3.210000E+03	2.876044E-17	2.721730E-18
3.220000E+03	2.896819E-17	2.733792E-18
3.230000E+03	2.917500E-17	2.745630E-18
3.240000E+03	2.938838E-17	2.757947E-18
3.250000E+03	2.960080E-17	2.770033E-18
3.260000E+03	2.981598E-17	2.782236E-18
3.270000E+03	3.003017E-17	2.794204E-18
3.280000E+03	3.024709E-17	2.806282E-18
3.290000E+03	3.046672E-17	2.818466E-18
3.300000E+03	3.068907E-17	2.830754E-18
3.310000E+03	3.091409E-17	2.843138E-18
3.320000E+03	3.113803E-17	2.855272E-18
3.330000E+03	3.136836E-17	2.867840E-18
3.340000E+03	3.159758E-17	2.880151E-18
3.350000E+03	3.182940E-17	2.892545E-18
3.360000E+03	3.206382E-17	2.905016E-18
3.370000E+03	3.229707E-17	2.917222E-18
3.380000E+03	3.253663E-17	2.929839E-18
3.390000E+03	3.277874E-17	2.942520E-18
3.400000E+03	3.301964E-17	2.954929E-18
3.410000E+03	3.326304E-17	2.967396E-18
3.420000E+03	3.351269E-17	2.980251E-18
3.430000E+03	3.376108E-17	2.992825E-18
3.440000E+03	3.401194E-17	3.005445E-18
3.450000E+03	3.426524E-17	3.018109E-18
3.460000E+03	3.452472E-17	3.031140E-18
3.470000E+03	3.478290E-17	3.043878E-18
3.480000E+03	3.504349E-17	3.056648E-18
3.490000E+03	3.530647E-17	3.069446E-18
3.500000E+03	3.557554E-17	3.082589E-18
3.510000E+03	3.584327E-17	3.095430E-18
3.520000E+03	3.611708E-17	3.108608E-18
3.530000E+03	3.638953E-17	3.121478E-18
3.540000E+03	3.666800E-17	3.134674E-18
3.550000E+03	3.694879E-17	3.147873E-18
3.560000E+03	3.723190E-17	3.161073E-18
3.570000E+03	3.751729E-17	3.174269E-18
3.580000E+03	3.780499E-17	3.187459E-18
3.590000E+03	3.809494E-17	3.200637E-18
3.600000E+03	3.839085E-17	3.214111E-18
3.610000E+03	3.868901E-17	3.227565E-18
3.620000E+03	3.898941E-17	3.240995E-18
3.630000E+03	3.929204E-17	3.254400E-18
3.640000E+03	3.959689E-17	3.267774E-18
3.650000E+03	3.990761E-17	3.281417E-18
3.660000E+03	4.022053E-17	3.295022E-18
3.670000E+03	4.053563E-17	3.308583E-18
3.680000E+03	4.085655E-17	3.322395E-18
3.690000E+03	4.117962E-17	3.336157E-18
3.700000E+03	4.150483E-17	3.349862E-18
3.710000E+03	4.183217E-17	3.363509E-18
3.720000E+03	4.216526E-17	3.377385E-18
3.730000E+03	4.250407E-17	3.391482E-18
3.740000E+03	4.284132E-17	3.405217E-18
3.750000E+03	4.318426E-17	3.419162E-18
3.760000E+03	4.352922E-17	3.433025E-18
3.770000E+03	4.387979E-17	3.447086E-18
3.780000E+03	4.423234E-17	3.461052E-18
3.790000E+03	4.459046E-17	3.475203E-18
3.800000E+03	4.495048E-17	3.489249E-18
3.810000E+03	4.531238E-17	3.503186E-18
3.820000E+03	4.567971E-17	3.517285E-18
3.830000E+03	4.605243E-17	3.531537E-18
3.840000E+03	4.642689E-17	3.545659E-18
3.850000E+03	4.680305E-17	3.559645E-18
3.860000E+03	4.718441E-17	3.573761E-18
3.870000E+03	4.756736E-17	3.587726E-18
3.880000E+03	4.795536E-17	3.601801E-18
3.890000E+03	4.834481E-17	3.615711E-18
3.900000E+03	4.873916E-17	3.629710E-18
3.910000E+03	4.913830E-17	3.643787E-18
3.920000E+03	4.953859E-17	3.657669E-18
3.930000E+03	4.993994E-17	3.671347E-18
3.932981E+03	5.355895E-17	3.932293E-18
3.936013E+03	5.560920E-17	4.077427E-18
3.939044E+03	5.608671E-17	4.106997E-18
3.942076E+03	5.658368E-17	4.137893E-18
3.945108E+03	5.789354E-17	4.228057E-18
3.948140E+03	5.911594E-17	4.311585E-18
3.951171E+03	5.941442E-17	4.327579E-18
3.954203E+03	6.055690E-17	4.404902E-18
3.957234E+03	6.113481E-17	4.440990E-18
3.960266E+03	6.269419E-17	4.548163E-18
3.963298E+03	6.269565E-17	4.542161E-18
3.966329E+03	6.219256E-17	4.499654E-18
3.969361E+03	6.126012E-17	4.426219E-18
3.972393E+03	6.085593E-17	4.391078E-18
3.975424E+03	5.984533E-17	4.312320E-18
3.978456E+03	5.994157E-17	4.313403E-18
3.981488E+03	5.998653E-17	4.310780E-18
3.984519E+03	5.951189E-17	4.270858E-18
3.987551E+03	5.938365E-17	4.255850E-18
3.990582E+03	6.121445E-17	4.381074E-18
3.993614E+03	6.087728E-17	4.350988E-18
3.996646E+03	5.980492E-17	4.268492E-18
3.999677E+03	6.008527E-17	4.282621E-18
4.002709E+03	6.058155E-17	4.312060E-18
4.005741E+03	6.057068E-17	4.305352E-18
4.008772E+03	6.206420E-17	4.405430E-18
4.011804E+03	6.270078E-17	4.444469E-18
4.014836E+03	6.285013E-17	4.448891E-18
4.017867E+03	6.488736E-17	4.586733E-18
4.020899E+03	6.559316E-17	4.630186E-18
4.023931E+03	6.600821E-17	4.653003E-18
4.026962E+03	6.708584E-17	4.722379E-18
4.029994E+03	6.702959E-17	4.711834E-18
4.033026E+03	6.680079E-17	4.689185E-18
4.036057E+03	6.739507E-17	4.724278E-18
4.039089E+03	6.686834E-17	4.680778E-18
4.042120E+03	6.680795E-17	4.669980E-18
4.045152E+03	6.763648E-17	4.721240E-18
4.048184E+03	6.792419E-17	4.734636E-18
4.051215E+03	6.864223E-17	4.777930E-18
4.054247E+03	6.927370E-17	4.815061E-18
4.057279E+03	6.995952E-17	4.855837E-18
4.060310E+03	7.030853E-17	4.873135E-18
4.063342E+03	6.989092E-17	4.837300E-18
4.066374E+03	6.978223E-17	4.822896E-18
4.069405E+03	7.013857E-17	4.840607E-18
4.072437E+03	6.976794E-17	4.808144E-18
4.075469E+03	6.838192E-17	4.705877E-18
4.078500E+03	6.671935E-17	4.584878E-18
4.081532E+03	6.529570E-17	4.480599E-18
4.084564E+03	6.342787E-17	4.346164E-18
4.087595E+03	6.219302E-17	4.255409E-18
4.090627E+03	6.147753E-17	4.200378E-18
4.093659E+03	6.117566E-17	4.173707E-18
4.096690E+03	6.107271E-17	4.160648E-18
4.099722E+03	6.050986E-17	4.116320E-18
4.102753E+03	5.991999E-17	4.070269E-18
4.105785E+03	5.880456E-17	3.988683E-18
4.108817E+03	5.797393E-17	3.926605E-18
4.111848E+03	5.763417E-17	3.897892E-18
4.114880E+03	5.889392E-17	3.977262E-18
4.117912E+03	6.062749E-17	4.088333E-18
4.120943E+03	6.042314E-17	4.068572E-18
4.123975E+03	6.012938E-17	4.042838E-18
4.127007E+03	6.100569E-17	4.095715E-18
4.130038E+03	6.192804E-17	4.151505E-18
4.133070E+03	6.117158E-17	4.094733E-18
4.136102E+03	6.143684E-17	4.106402E-18
4.139133E+03	6.151938E-17	4.105824E-18
4.142165E+03	6.187347E-17	4.123324E-18
4.145197E+03	6.184702E-17	4.115430E-18
4.148228E+03	6.152959E-17	4.088209E-18
4.151260E+03	6.253841E-17	4.149037E-18
4.154291E+03	6.435283E-17	4.263034E-18
4.157323E+03	6.496083E-17	4.296868E-18
4.160355E+03	6.506086E-17	4.297032E-18
4.163386E+03	6.519948E-17	4.299722E-18
4.166418E+03	6.423835E-17	4.229966E-18
4.169450E+03	6.366865E-17	4.186136E-18
4.172481E+03	6.337007E-17	4.160219E-18
4.175513E+03	6.211231E-17	4.071484E-18
4.178545E+03	6.078951E-17	3.978743E-18
4.181576E+03	5.944429E-17	3.884799E-18
4.184608E+03	5.876063E-17	3.834289E-18
4.187640E+03	5.798845E-17	3.778148E-18
4.190671E+03	5.790410E-17	3.766908E-18
4.193703E+03	5.642992E-17	3.665405E-18
4.196734E+03	5.576706E-17	3.616816E-18
4.199766E+03	5.545948E-17	3.591364E-18
4.202798E+03	5.539116E-17	3.581441E-18
4.205829E+03	5.560424E-17	3.589702E-18
4.208861E+03	5.586335E-17	3.600885E-18
4.211893E+03	5.592184E-17	3.599105E-18
4.214924E+03	5.591089E-17	3.592853E-18
4.217956E+03	5.638500E-17	3.617724E-18
4.220988E+03	5.686256E-17	3.642721E-18
4.224019E+03	5.658553E-17	3.619361E-18
4.227051E+03	5.714330E-17	3.649367E-18
4.230083E+03	5.865420E-17	3.740038E-18
4.233114E+03	5.964122E-17	3.797059E-18
4.236146E+03	6.206072E-17	3.944940E-18
4.239178E+03	6.309947E-17	4.004709E-18
4.242209E+03	6.363055E-17	4.032105E-18
4.245241E+03	6.384639E-17	4.039450E-18
4.248273E+03	6.479104E-17	4.092790E-18
4.251304E+03	6.460337E-17	4.074531E-18
4.254336E+03	6.570411E-17	4.137440E-18
4.257367E+03	6.642832E-17	4.176460E-18
4.260399E+03	6.768069E-17	4.248490E-18
4.263431E+03	6.817364E-17	4.272677E-18
4.266462E+03	6.713069E-17	4.200661E-18
4.269494E+03	6.693812E-17	4.181979E-18
4.272526E+03	6.732717E-17	4.199614E-18
4.275557E+03	6.680168E-17	4.160222E-18
4.278589E+03	6.646764E-17	4.132837E-18
4.281621E+03	6.595027E-17	4.094137E-18
4.284652E+03	6.492120E-17	4.023829E-18
4.287684E+03	6.403029E-17	3.962272E-18
4.290716E+03	6.336899E-17	3.915080E-18
4.293747E+03	6.251725E-17	3.856274E-18
4.296779E+03	6.144096E-17	3.783808E-18
4.299810E+03	6.031199E-17	3.708319E-18
4.302842E+03	5.887116E-17	3.613908E-18
4.305874E+03	5.768664E-17	3.535492E-18
4.308905E+03	5.611058E-17	3.433356E-18
4.311937E+03	5.424240E-17	3.313685E-18
4.314969E+03	5.321295E-17	3.245541E-18
4.318000E+03	5.286529E-17	3.219119E-18
4.321032E+03	5.171148E-17	3.143756E-18
4.324064E+03	5.083222E-17	3.085286E-18
4.327095E+03	5.063763E-17	3.068482E-18
4.330127E+03	5.037092E-17	3.047354E-18
4.333159E+03	5.037017E-17	3.042342E-18
4.336190E+03	5.023647E-17	3.029318E-18
4.339222E+03	5.011416E-17	3.017006E-18
4.342253E+03	5.083393E-17	3.055334E-18
4.345285E+03	5.201179E-17	3.121008E-18
4.348317E+03	5.357899E-17	3.209777E-18
4.351349E+03	5.499332E-17	3.289096E-18
4.354380E+03	5.602013E-17	3.345002E-18
4.357412E+03	5.652741E-17	3.369736E-18
4.360443E+03	5.729150E-17	3.409658E-18
4.363475E+03	5.935219E-17	3.526470E-18
4.366507E+03	5.994414E-17	3.555757E-18
4.369538E+03	6.088698E-17	3.605712E-18
4.372570E+03	6.199892E-17	3.665480E-18
4.375602E+03	6.242259E-17	3.684409E-18
4.378633E+03	6.264574E-17	3.691443E-18
4.381665E+03	6.389106E-17	3.758567E-18
4.384697E+03	6.524081E-17	3.831583E-18
4.387728E+03	6.568457E-17	3.851221E-18
4.390760E+03	6.633509E-17	3.882875E-18
4.393792E+03	6.693220E-17	3.911284E-18
4.396823E+03	6.635777E-17	3.871236E-18
4.399855E+03	6.665304E-17	3.881954E-18
4.402886E+03	6.590971E-17	3.832231E-18
4.405918E+03	6.527968E-17	3.789232E-18
4.408950E+03	6.451852E-17	3.738761E-18
4.411981E+03	6.428012E-17	3.718686E-18
4.415013E+03	6.445864E-17	3.722737E-18
4.418045E+03	6.491088E-17	3.742540E-18
4.421076E+03	6.488987E-17	3.735020E-18
4.424108E+03	6.531129E-17	3.752929E-18
4.427140E+03	6.433771E-17	3.690737E-18
4.430171E+03	6.433535E-17	3.684359E-18
4.433203E+03	6.437406E-17	3.680331E-18
4.436235E+03	6.483189E-17	3.700221E-18
4.439266E+03	6.330971E-17	3.607214E-18
4.442298E+03	6.165787E-17	3.507128E-18
4.445329E+03	6.196640E-17	3.518685E-18
4.448361E+03	6.309664E-17	3.576765E-18
4.451393E+03	6.382232E-17	3.611736E-18
4.454425E+03	6.432696E-17	3.634084E-18
4.457456E+03	6.492056E-17	3.661359E-18
4.460488E+03	6.546499E-17	3.685754E-18
4.463519E+03	6.617284E-17	3.719236E-18
4.466551E+03	6.685753E-17	3.751285E-18
4.469583E+03	6.816722E-17	3.818215E-18
4.472614E+03	6.966543E-17	3.895442E-18
4.475646E+03	6.974800E-17	3.893363E-18
4.478678E+03	7.161199E-17	3.990542E-18
4.481709E+03	7.279374E-17	4.049420E-18
4.484741E+03	7.434581E-17	4.128639E-18
4.487773E+03	7.518313E-17	4.167944E-18
4.490804E+03	7.696988E-17	4.259641E-18
4.493836E+03	7.708124E-17	4.258442E-18
4.496868E+03	7.650250E-17	4.219168E-18
4.499899E+03	7.684721E-17	4.230854E-18
4.502931E+03	7.614656E-17	4.185026E-18
4.505962E+03	7.544642E-17	4.139369E-18
4.508994E+03	7.492820E-17	4.103813E-18
4.512026E+03	7.380726E-17	4.035409E-18
4.515057E+03	7.299421E-17	3.984031E-18
4.518089E+03	7.093990E-17	3.865181E-18
4.521121E+03	6.795654E-17	3.696196E-18
4.524152E+03	6.730593E-17	3.654443E-18
4.527184E+03	6.669643E-17	3.615046E-18
4.530216E+03	6.664808E-17	3.606132E-18
4.533247E+03	6.637106E-17	3.584885E-18
4.536279E+03	6.688644E-17	3.606420E-18
4.539311E+03	6.817828E-17	3.669657E-18
4.542342E+03	6.890544E-17	3.702319E-18
4.545374E+03	6.970158E-17	3.738549E-18
4.548405E+03	6.953326E-17	3.722999E-18
4.551437E+03	7.068448E-17	3.778014E-18
4.554469E+03	7.333686E-17	3.912915E-18
4.557501E+03	7.644893E-17	4.071811E-18
4.560532E+03	7.964199E-17	4.234442E-18
4.563564E+03	8.461041E-17	4.490710E-18
4.566595E+03	9.057053E-17	4.798606E-18
4.569627E+03	9.684656E-17	5.122106E-18
4.572659E+03	1.027824E-16	5.426489E-18
4.575690E+03	1.098280E-16	5.788270E-18
4.578722E+03	1.167231E-16	6.140834E-18
4.581754E+03	1.225576E-16	6.436429E-18
4.584785E+03	1.263793E-16	6.625443E-18
4.587817E+03	1.310657E-16	6.859011E-18
4.590849E+03	1.362357E-16	7.116994E-18
4.593880E+03	1.402981E-16	7.316280E-18
4.596912E+03	1.444613E-16	7.520076E-18
4.599944E+03	1.472675E-16	7.652613E-18
4.602975E+03	1.490359E-16	7.730817E-18
4.606007E+03	1.522615E-16	7.884164E-18
4.609038E+03	1.541844E-16	7.969609E-18
4.612070E+03	1.558356E-16	8.040693E-18
4.615102E+03	1.561507E-16	8.042681E-18
4.618133E+03	1.559131E-16	8.016213E-18
4.621165E+03	1.554902E-16	7.980294E-18
4.624197E+03	1.549983E-16	7.940937E-18
4.627228E+03	1.539483E-16	7.873152E-18
4.630260E+03	1.526381E-16	7.792284E-18
4.633292E+03	1.515607E-16	7.723542E-18
4.636323E+03	1.497349E-16	7.616942E-18
4.639355E+03	1.471584E-16	7.472572E-18
4.642387E+03	1.471475E-16	7.458734E-18
4.645418E+03	1.490764E-16	7.543068E-18
4.648450E+03	1.492440E-16	7.538113E-18
4.651481E+03	1.510168E-16	7.614081E-18
4.654513E+03	1.543882E-16	7.770202E-18
4.657545E+03	1.565837E-16	7.866660E-18
4.660577E+03	1.575297E-16	7.900086E-18
4.663608E+03	1.583517E-16	7.927158E-18
4.666640E+03	1.596399E-16	7.977396E-18
4.669671E+03	1.606095E-16	8.011543E-18
4.672703E+03	1.615988E-16	8.046513E-18
4.675735E+03	1.658364E-16	8.242783E-18
4.678766E+03	1.698240E-16	8.425924E-18
4.681798E+03	1.721275E-16	8.524969E-18
4.684830E+03	1.741552E-16	8.609994E-18
4.687861E+03	1.753272E-16	8.652460E-18
4.690893E+03	1.747896E-16	8.610522E-18
4.693925E+03	1.735006E-16	8.531757E-18
4.696956E+03	1.722736E-16	8.456290E-18
4.699988E+03	1.710154E-16	8.379526E-18
4.703020E+03	1.690547E-16	8.268655E-18
4.706051E+03	1.673136E-16	8.168873E-18
4.709083E+03	1.667689E-16	8.127720E-18
4.712114E+03	1.670187E-16	8.125348E-18
4.715146E+03	1.673673E-16	8.127752E-18
4.718178E+03	1.681028E-16	8.148874E-18
4.721209E+03	1.679724E-16	8.127999E-18
4.724241E+03	1.689504E-16	8.160701E-18
4.727273E+03	1.684312E-16	8.121076E-18
4.730304E+03	1.680433E-16	8.087890E-18
4.733336E+03	1.682654E-16	8.084098E-18
4.736368E+03	1.683801E-16	8.075145E-18
4.739399E+03	1.695176E-16	8.115169E-18
4.742431E+03	1.723304E-16	8.235074E-18
4.745463E+03	1.749760E-16	8.346549E-18
4.748494E+03	1.790203E-16	8.524207E-18
4.751526E+03	1.835915E-16	8.726241E-18
4.754557E+03	1.868284E-16	8.864230E-18
4.757589E+03	1.910580E-16	9.048707E-18
4.760621E+03	1.939203E-16	9.167862E-18
4.763652E+03	1.967567E-16	9.285346E-18
4.766684E+03	1.994612E-16	9.396168E-18
4.769716E+03	2.005856E-16	9.432261E-18
4.772747E+03	2.006252E-16	9.417288E-18
4.775779E+03	1.992942E-16	9.338116E-18
4.778811E+03	1.973538E-16	9.230697E-18
4.781842E+03	1.932696E-16	9.023549E-18
4.784874E+03	1.902626E-16	8.867316E-18
4.787906E+03	1.883026E-16	8.760320E-18
4.790937E+03	1.853092E-16	8.605704E-18
4.793969E+03	1.827354E-16	8.471059E-18
4.797001E+03	1.834030E-16	8.486863E-18
4.800032E+03	1.832553E-16	8.464939E-18
4.803064E+03	1.809131E-16	8.341877E-18
4.806096E+03	1.800375E-16	8.286738E-18
4.809127E+03	1.765054E-16	8.109724E-18
4.812159E+03	1.711755E-16	7.850857E-18
4.815190E+03	1.636870E-16	7.494072E-18
4.818222E+03	1.584296E-16	7.240496E-18
4.821254E+03	1.552695E-16	7.083482E-18
4.824285E+03	1.515586E-16	6.901931E-18
4.827317E+03	1.483313E-16	6.742988E-18
4.830349E+03	1.467949E-16	6.661323E-18
4.833380E+03	1.457308E-16	6.601335E-18
4.836412E+03	1.439555E-16	6.509381E-18
4.839444E+03	1.421341E-16	6.415656E-18
4.842475E+03	1.417887E-16	6.388760E-18
4.845507E+03	1.433056E-16	6.445708E-18
4.848538E+03	1.458908E-16	6.550414E-18
4.851570E+03	1.488221E-16	6.670245E-18
4.854602E+03	1.542003E-16	6.899124E-18
4.857633E+03	1.589192E-16	7.097738E-18
4.860665E+03	1.640275E-16	7.313001E-18
4.863697E+03	1.683300E-16	7.491635E-18
4.866728E+03	1.718221E-16	7.633625E-18
4.869760E+03	1.760881E-16	7.809426E-18
4.872792E+03	1.775293E-16	7.859538E-18
4.875823E+03	1.785430E-16	7.890569E-18
4.878855E+03	1.768379E-16	7.801531E-18
4.881887E+03	1.729197E-16	7.615327E-18
4.884918E+03	1.691440E-16	7.436028E-18
4.887950E+03	1.661680E-16	7.292435E-18
4.890982E+03	1.617530E-16	7.086291E-18
4.894013E+03	1.572738E-16	6.878047E-18
4.897045E+03	1.525912E-16	6.661633E-18
4.900077E+03	1.481778E-16	6.457692E-18
4.903108E+03	1.433035E-16	6.234405E-18
4.906140E+03	1.395659E-16	6.061242E-18
4.909172E+03	1.371752E-16	5.947064E-18
4.912203E+03	1.355052E-16	5.864465E-18
4.915235E+03	1.338005E-16	5.780641E-18
4.918266E+03	1.316055E-16	5.675952E-18
4.921298E+03	1.298220E-16	5.589335E-18
4.924330E+03	1.288803E-16	5.539180E-18
4.927361E+03	1.278590E-16	5.485780E-18
4.930393E+03	1.280026E-16	5.482448E-18
4.933425E+03	1.291903E-16	5.523758E-18
4.936456E+03	1.314192E-16	5.609357E-18
4.939488E+03	1.362687E-16	5.806315E-18
4.942520E+03	1.420029E-16	6.040210E-18
4.945551E+03	1.469053E-16	6.237975E-18
4.948583E+03	1.514195E-16	6.418590E-18
4.951614E+03	1.553698E-16	6.574713E-18
4.954646E+03	1.562081E-16	6.598819E-18
4.957678E+03	1.558239E-16	6.571277E-18
4.960709E+03	1.547571E-16	6.515082E-18
4.963741E+03	1.544436E-16	6.490725E-18
4.966773E+03	1.534718E-16	6.438824E-18
4.969804E+03	1.524252E-16	6.383955E-18
4.972836E+03	1.502121E-16	6.280491E-18
4.975868E+03	1.473800E-16	6.151527E-18
4.978899E+03	1.426990E-16	5.945962E-18
4.981931E+03	1.366015E-16	5.682161E-18
4.984963E+03	1.315136E-16	5.461174E-18
4.987994E+03	1.277030E-16	5.293884E-18
4.991026E+03	1.235764E-16	5.114078E-18
4.994058E+03	1.191581E-16	4.922819E-18
4.997089E+03	1.165220E-16	4.805710E-18
5.000121E+03	1.145382E-16	4.715847E-18
5.003153E+03	1.116650E-16	4.589726E-18
5.006184E+03	1.109690E-16	4.553358E-18
5.009216E+03	1.103656E-16	4.520900E-18
5.012248E+03	1.104930E-16	4.518428E-18
5.015279E+03	1.117546E-16	4.562262E-18
5.018311E+03	1.139243E-16	4.642945E-18
5.021342E+03	1.158022E-16	4.711473E-18
5.024374E+03	1.172257E-16	4.761306E-18
5.027406E+03	1.193070E-16	4.837630E-18
5.030437E+03	1.225252E-16	4.959714E-18
5.033469E+03	1.254991E-16	5.071495E-18
5.036501E+03	1.279598E-16	5.162192E-18
5.039532E+03	1.304669E-16	5.254439E-18
5.042564E+03	1.323657E-16	5.321905E-18
5.045596E+03	1.332927E-16	5.350127E-18
5.048627E+03	1.335223E-16	5.350306E-18
5.051659E+03	1.341418E-16	5.366064E-18
5.054690E+03	1.348401E-16	5.384911E-18
5.057722E+03	1.343800E-16	5.357497E-18
5.060754E+03	1.331319E-16	5.298803E-18
5.063785E+03	1.308413E-16	5.198876E-18
5.066817E+03	1.275630E-16	5.060090E-18
5.069849E+03	1.252537E-16	4.960137E-18
5.072880E+03	1.233272E-16	4.875647E-18
5.075912E+03	1.217152E-16	4.803837E-18
5.078944E+03	1.206658E-16	4.754431E-18
5.081975E+03	1.190530E-16	4.683022E-18
5.085007E+03	1.176636E-16	4.620612E-18
5.088039E+03	1.151551E-16	4.514530E-18
5.091070E+03	1.130846E-16	4.425942E-18
