#wls	flux	fluxerr
1.600000E+03	2.393265E-17	1.627452E-17
1.640000E+03	2.432132E-17	1.649967E-17
1.680000E+03	2.473713E-17	1.673835E-17
1.720000E+03	2.517915E-17	1.698930E-17
1.760000E+03	2.565186E-17	1.725487E-17
1.800000E+03	2.615693E-17	1.753536E-17
1.840000E+03	2.669594E-17	1.783095E-17
1.880000E+03	2.727307E-17	1.814343E-17
1.920000E+03	2.788713E-17	1.847086E-17
1.960000E+03	2.854218E-17	1.881468E-17
2.000000E+03	2.924218E-17	1.917604E-17
2.040000E+03	2.998330E-17	1.955084E-17
2.080000E+03	3.077464E-17	1.994323E-17
2.120000E+03	3.161499E-17	2.035037E-17
2.160000E+03	3.251327E-17	2.077575E-17
2.200000E+03	3.347582E-17	2.122075E-17
2.240000E+03	3.452119E-17	2.169407E-17
2.280000E+03	3.567242E-17	2.220642E-17
2.320000E+03	3.693754E-17	2.275834E-17
2.360000E+03	3.831756E-17	2.334533E-17
2.400000E+03	3.981156E-17	2.396119E-17
2.440000E+03	4.142870E-17	2.460514E-17
2.480000E+03	4.318088E-17	2.527705E-17
2.520000E+03	4.508060E-17	2.597599E-17
2.560000E+03	4.714103E-17	2.670012E-17
2.600000E+03	4.937637E-17	2.744670E-17
2.640000E+03	5.180200E-17	2.821196E-17
2.680000E+03	5.443485E-17	2.899110E-17
2.720000E+03	5.728702E-17	2.977464E-17
2.760000E+03	6.037970E-17	3.055564E-17
2.800000E+03	6.373014E-17	3.132244E-17
2.840000E+03	6.735222E-17	3.205900E-17
2.880000E+03	7.127032E-17	3.275138E-17
2.920000E+03	7.551980E-17	3.338685E-17
2.960000E+03	8.017209E-17	3.396329E-17
3.000000E+03	8.531145E-17	3.447595E-17
3.010000E+03	8.668510E-17	3.459382E-17
3.020000E+03	8.809661E-17	3.470684E-17
3.030000E+03	8.954900E-17	3.481530E-17
3.040000E+03	9.104310E-17	3.491856E-17
3.050000E+03	9.257976E-17	3.501597E-17
3.060000E+03	9.416214E-17	3.510770E-17
3.070000E+03	9.579342E-17	3.519384E-17
3.080000E+03	9.747234E-17	3.527279E-17
3.090000E+03	9.920442E-17	3.534539E-17
3.100000E+03	1.009885E-16	3.540996E-17
3.110000E+03	1.028301E-16	3.546720E-17
3.120000E+03	1.047283E-16	3.551538E-17
3.130000E+03	1.066887E-16	3.555504E-17
3.140000E+03	1.087103E-16	3.558436E-17
3.150000E+03	1.107966E-16	3.560301E-17
3.160000E+03	1.129513E-16	3.561055E-17
3.170000E+03	1.151733E-16	3.560503E-17
3.180000E+03	1.174687E-16	3.558663E-17
3.190000E+03	1.198388E-16	3.555397E-17
3.200000E+03	1.222850E-16	3.550564E-17
3.210000E+03	1.248110E-16	3.544083E-17
3.220000E+03	1.274183E-16	3.535799E-17
3.230000E+03	1.301105E-16	3.525612E-17
3.240000E+03	1.328890E-16	3.513351E-17
3.250000E+03	1.357550E-16	3.498837E-17
3.260000E+03	1.387122E-16	3.481945E-17
3.270000E+03	1.417641E-16	3.462539E-17
3.280000E+03	1.449092E-16	3.440354E-17
3.290000E+03	1.481483E-16	3.415183E-17
3.300000E+03	1.514871E-16	3.386919E-17
3.310000E+03	1.549234E-16	3.355281E-17
3.320000E+03	1.584598E-16	3.320091E-17
3.330000E+03	1.620962E-16	3.281108E-17
3.340000E+03	1.658297E-16	3.238043E-17
3.350000E+03	1.696617E-16	3.190702E-17
3.360000E+03	1.735932E-16	3.138886E-17
3.370000E+03	1.776174E-16	3.082260E-17
3.380000E+03	1.817342E-16	3.020634E-17
3.390000E+03	1.859404E-16	2.953778E-17
3.400000E+03	1.902321E-16	2.881477E-17
3.410000E+03	1.945996E-16	2.803459E-17
3.420000E+03	1.990426E-16	2.719636E-17
3.430000E+03	2.035498E-16	2.629801E-17
3.440000E+03	2.081118E-16	2.533842E-17
3.450000E+03	2.127237E-16	2.431771E-17
3.460000E+03	2.173698E-16	2.323552E-17
3.470000E+03	2.220416E-16	2.209350E-17
3.480000E+03	2.267285E-16	2.089431E-17
3.490000E+03	2.314174E-16	1.964206E-17
3.500000E+03	2.360965E-16	1.834326E-17
3.510000E+03	2.407557E-16	1.700752E-17
3.520000E+03	2.453798E-16	1.564833E-17
3.530000E+03	2.499685E-16	1.428615E-17
3.540000E+03	2.545189E-16	1.294996E-17
3.550000E+03	2.590300E-16	1.168175E-17
3.560000E+03	2.635124E-16	1.054232E-17
3.570000E+03	2.679899E-16	9.615628E-18
3.580000E+03	2.724898E-16	9.004928E-18
3.590000E+03	2.770525E-16	8.809756E-18
3.600000E+03	2.816961E-16	9.069616E-18
3.610000E+03	2.863696E-16	9.726452E-18
3.620000E+03	2.910312E-16	1.067827E-17
3.630000E+03	2.956400E-16	1.182215E-17
3.640000E+03	3.001742E-16	1.307500E-17
3.650000E+03	3.046116E-16	1.437512E-17
3.660000E+03	3.089431E-16	1.567835E-17
3.670000E+03	3.131689E-16	1.695303E-17
3.680000E+03	3.172897E-16	1.817584E-17
3.690000E+03	3.213194E-16	1.932997E-17
3.700000E+03	3.252675E-16	2.040244E-17
3.710000E+03	3.291496E-16	2.138370E-17
3.720000E+03	3.329898E-16	2.226704E-17
3.730000E+03	3.368084E-16	2.304735E-17
3.740000E+03	3.406303E-16	2.372132E-17
3.750000E+03	3.444791E-16	2.428673E-17
3.760000E+03	3.483821E-16	2.474268E-17
3.770000E+03	3.523676E-16	2.508918E-17
3.780000E+03	3.564589E-16	2.532670E-17
3.790000E+03	3.606919E-16	2.545724E-17
3.800000E+03	3.650944E-16	2.548291E-17
3.810000E+03	3.696950E-16	2.540650E-17
3.820000E+03	3.745294E-16	2.523193E-17
3.830000E+03	3.796282E-16	2.496348E-17
3.840000E+03	3.850266E-16	2.460652E-17
3.850000E+03	3.907582E-16	2.416725E-17
3.858000E+03	1.508589E-16	5.452584E-17
3.860000E+03	1.533394E-16	4.674926E-17
3.862000E+03	1.557406E-16	4.292288E-17
3.864000E+03	1.580578E-16	4.341733E-17
3.866000E+03	1.601975E-16	4.119889E-17
3.868000E+03	1.634113E-16	3.965797E-17
3.870000E+03	1.645004E-16	3.864019E-17
3.872000E+03	1.680014E-16	3.893636E-17
3.874000E+03	1.719087E-16	3.885168E-17
3.876000E+03	1.740789E-16	3.871537E-17
3.878000E+03	1.755908E-16	3.916183E-17
3.880000E+03	1.778941E-16	3.908855E-17
3.882000E+03	1.818949E-16	4.093246E-17
3.884000E+03	1.867526E-16	4.065863E-17
3.886000E+03	1.925770E-16	3.947996E-17
3.888000E+03	1.959055E-16	3.884622E-17
3.890000E+03	2.016203E-16	3.847749E-17
3.892000E+03	2.051847E-16	3.953614E-17
3.894000E+03	2.093889E-16	3.983153E-17
3.896000E+03	2.145832E-16	3.790859E-17
3.898000E+03	2.204126E-16	3.765049E-17
3.900000E+03	2.274422E-16	3.799157E-17
3.902000E+03	2.350160E-16	3.877238E-17
3.904000E+03	2.422793E-16	4.025083E-17
3.906000E+03	2.499397E-16	3.499505E-17
3.908000E+03	2.581605E-16	3.475549E-17
3.910000E+03	2.655874E-16	3.512027E-17
3.912000E+03	2.736450E-16	3.427156E-17
3.914000E+03	2.796010E-16	3.440426E-17
3.916000E+03	2.857205E-16	3.447984E-17
3.918000E+03	2.931011E-16	3.506210E-17
3.920000E+03	3.030737E-16	3.641536E-17
3.922000E+03	3.113417E-16	3.791388E-17
3.924000E+03	3.205205E-16	3.782236E-17
3.926000E+03	3.291389E-16	3.893612E-17
3.928000E+03	3.380610E-16	3.850536E-17
3.930000E+03	3.451618E-16	3.527478E-17
3.932000E+03	3.529164E-16	3.516675E-17
3.934000E+03	3.602975E-16	3.475743E-17
3.936000E+03	3.681456E-16	3.940168E-17
3.938000E+03	3.761339E-16	3.989780E-17
3.940000E+03	3.842624E-16	3.895928E-17
3.942000E+03	3.932550E-16	3.852852E-17
3.944000E+03	4.025512E-16	3.974324E-17
3.946000E+03	4.106332E-16	3.823454E-17
3.948000E+03	4.196493E-16	3.834727E-17
3.950000E+03	4.284553E-16	3.850302E-17
3.952000E+03	4.370745E-16	3.629566E-17
3.954000E+03	4.455303E-16	3.639484E-17
3.956000E+03	4.541496E-16	3.600743E-17
3.958000E+03	4.613678E-16	3.788194E-17
3.960000E+03	4.685626E-16	3.811966E-17
3.962000E+03	4.761778E-16	3.763210E-17
3.964000E+03	4.834895E-16	3.762461E-17
3.966000E+03	4.887227E-16	3.791172E-17
3.968000E+03	4.943763E-16	3.781137E-17
3.970000E+03	4.997029E-16	3.766899E-17
3.972000E+03	5.062206E-16	3.883411E-17
3.974000E+03	5.114772E-16	3.793884E-17
3.976000E+03	5.164302E-16	3.944060E-17
3.978000E+03	5.217102E-16	4.010510E-17
3.980000E+03	5.264296E-16	4.011417E-17
3.982000E+03	5.308688E-16	4.006985E-17
3.984000E+03	5.366859E-16	3.454422E-17
3.986000E+03	5.426898E-16	3.357677E-17
3.988000E+03	5.477129E-16	3.633863E-17
3.990000E+03	5.512178E-16	3.688133E-17
3.992000E+03	5.555169E-16	3.570095E-17
3.994000E+03	5.606566E-16	3.600873E-17
3.996000E+03	5.665905E-16	3.565106E-17
3.998000E+03	5.712164E-16	3.451570E-17
4.000000E+03	5.753986E-16	3.417928E-17
4.002000E+03	5.783896E-16	3.419376E-17
4.004000E+03	5.796057E-16	3.410573E-17
4.006000E+03	5.816858E-16	3.040895E-17
4.008000E+03	5.840695E-16	2.878569E-17
4.010000E+03	5.858927E-16	2.889811E-17
4.012000E+03	5.879027E-16	2.883115E-17
4.014000E+03	5.896791E-16	2.779776E-17
4.016000E+03	5.908949E-16	2.946641E-17
4.018000E+03	5.922508E-16	3.033425E-17
4.020000E+03	5.928359E-16	2.703567E-17
4.022000E+03	5.934910E-16	2.707261E-17
4.024000E+03	5.942162E-16	2.712742E-17
4.026000E+03	5.944976E-16	3.995132E-17
4.028000E+03	5.952227E-16	5.071890E-17
4.030000E+03	5.948266E-16	5.299467E-17
4.032000E+03	5.939401E-16	5.289834E-17
4.034000E+03	5.926331E-16	5.307881E-17
4.036000E+03	5.905786E-16	5.218430E-17
4.038000E+03	5.875899E-16	5.187979E-17
4.040000E+03	5.857455E-16	5.206796E-17
4.042000E+03	5.834807E-16	5.182307E-17
4.044000E+03	5.800947E-16	5.185542E-17
4.046000E+03	5.769656E-16	5.239914E-17
4.048000E+03	5.730190E-16	5.253858E-17
4.050000E+03	5.705671E-16	5.315416E-17
4.052000E+03	5.668306E-16	5.553668E-17
4.054000E+03	5.617627E-16	5.567270E-17
4.056000E+03	5.574422E-16	5.810050E-17
4.058000E+03	5.541026E-16	6.111676E-17
4.060000E+03	5.505527E-16	6.349108E-17
4.062000E+03	5.466758E-16	6.276962E-17
4.064000E+03	5.433127E-16	6.095029E-17
4.066000E+03	5.395992E-16	5.946838E-17
4.068000E+03	5.364929E-16	5.990983E-17
4.070000E+03	5.331063E-16	5.942325E-17
4.072000E+03	5.289722E-16	5.957136E-17
4.074000E+03	5.248148E-16	5.646268E-17
4.076000E+03	5.206573E-16	5.102949E-17
4.078000E+03	5.163129E-16	4.949588E-17
4.080000E+03	5.119684E-16	5.033363E-17
4.082000E+03	5.096560E-16	5.127399E-17
4.084000E+03	5.068997E-16	5.100152E-17
4.086000E+03	5.031390E-16	5.096009E-17
4.088000E+03	4.998455E-16	5.128254E-17
4.090000E+03	4.947534E-16	5.265794E-17
4.092000E+03	4.904555E-16	5.287753E-17
4.094000E+03	4.856203E-16	5.188879E-17
4.096000E+03	4.806216E-16	5.106863E-17
4.098000E+03	4.755528E-16	5.086588E-17
4.100000E+03	4.722824E-16	4.930015E-17
4.102000E+03	4.679142E-16	4.952205E-17
4.104000E+03	4.625183E-16	4.605247E-17
4.106000E+03	4.582902E-16	3.843019E-17
4.108000E+03	4.542023E-16	2.922146E-17
4.110000E+03	4.503945E-16	2.425397E-17
4.112000E+03	4.462130E-16	2.589231E-17
4.114000E+03	4.428256E-16	2.755996E-17
4.116000E+03	4.399287E-16	2.944926E-17
4.118000E+03	4.349297E-16	3.039368E-17
4.120000E+03	4.302577E-16	3.253784E-17
4.122000E+03	4.271504E-16	3.463406E-17
4.124000E+03	4.226886E-16	3.635960E-17
4.126000E+03	4.178763E-16	3.884037E-17
4.128000E+03	4.135312E-16	4.063454E-17
4.130000E+03	4.093495E-16	4.171259E-17
4.132000E+03	4.051679E-16	4.212780E-17
4.134000E+03	4.026911E-16	4.227360E-17
4.136000E+03	4.003778E-16	4.095281E-17
4.138000E+03	3.985316E-16	3.810121E-17
4.140000E+03	3.957745E-16	3.578897E-17
4.142000E+03	3.932276E-16	3.394307E-17
4.144000E+03	3.911244E-16	3.394739E-17
4.146000E+03	3.886943E-16	3.354304E-17
4.148000E+03	3.859371E-16	3.313570E-17
4.150000E+03	3.836470E-16	3.164225E-17
4.152000E+03	3.813335E-16	2.834456E-17
4.154000E+03	3.791135E-16	3.451640E-17
4.156000E+03	3.782947E-16	3.642300E-17
4.158000E+03	3.780830E-16	3.734768E-17
4.160000E+03	3.782450E-16	3.940780E-17
4.162000E+03	3.787573E-16	4.120639E-17
4.164000E+03	3.797599E-16	4.102086E-17
4.166000E+03	3.787775E-16	4.094314E-17
4.168000E+03	3.798501E-16	4.084807E-17
4.170000E+03	3.803389E-16	3.996905E-17
4.172000E+03	3.789827E-16	3.902688E-17
4.174000E+03	3.767390E-16	3.768758E-17
4.176000E+03	3.748923E-16	3.511253E-17
4.178000E+03	3.743067E-16	3.175200E-17
4.180000E+03	3.746785E-16	2.987006E-17
4.182000E+03	3.726449E-16	2.886416E-17
4.184000E+03	3.717556E-16	2.963550E-17
4.186000E+03	3.725477E-16	3.030985E-17
4.188000E+03	3.720787E-16	3.317211E-17
4.190000E+03	3.722168E-16	3.317488E-17
4.192000E+03	3.712573E-16	3.288913E-17
4.194000E+03	3.702277E-16	3.232154E-17
4.196000E+03	3.713232E-16	3.230539E-17
4.198000E+03	3.727689E-16	3.298733E-17
4.200000E+03	3.726966E-16	3.458906E-17
4.202000E+03	3.708496E-16	3.047727E-17
4.204000E+03	3.689092E-16	2.993154E-17
4.206000E+03	3.660347E-16	3.074474E-17
4.208000E+03	3.640241E-16	2.952293E-17
4.210000E+03	3.634147E-16	2.940885E-17
4.212000E+03	3.628286E-16	3.129559E-17
4.214000E+03	3.621490E-16	3.249380E-17
4.216000E+03	3.618197E-16	3.349712E-17
4.218000E+03	3.606497E-16	3.382402E-17
4.220000E+03	3.594797E-16	3.405157E-17
4.222000E+03	3.580294E-16	3.495710E-17
4.224000E+03	3.570695E-16	3.490281E-17
4.226000E+03	3.568335E-16	3.453940E-17
4.228000E+03	3.569476E-16	3.340353E-17
4.230000E+03	3.565013E-16	3.502393E-17
4.232000E+03	3.557515E-16	3.667311E-17
4.234000E+03	3.564959E-16	3.659603E-17
4.236000E+03	3.562830E-16	3.519899E-17
4.238000E+03	3.560234E-16	3.618861E-17
4.240000E+03	3.567911E-16	3.641751E-17
4.242000E+03	3.570918E-16	3.616824E-17
4.244000E+03	3.572056E-16	3.579125E-17
4.246000E+03	3.566656E-16	3.462793E-17
4.248000E+03	3.574331E-16	3.735763E-17
4.250000E+03	3.601384E-16	3.908085E-17
4.252000E+03	3.617230E-16	4.164143E-17
4.254000E+03	3.627238E-16	4.465832E-17
4.256000E+03	3.642849E-16	4.464701E-17
4.258000E+03	3.650287E-16	4.508782E-17
4.260000E+03	3.657025E-16	4.397416E-17
4.262000E+03	3.669132E-16	4.256418E-17
4.264000E+03	3.673767E-16	4.139290E-17
4.266000E+03	3.677001E-16	4.079045E-17
4.268000E+03	3.682803E-16	3.971268E-17
4.270000E+03	3.684635E-16	3.724091E-17
4.272000E+03	3.689035E-16	3.820685E-17
4.274000E+03	3.693435E-16	3.840989E-17
4.276000E+03	3.682893E-16	3.839756E-17
4.278000E+03	3.683557E-16	3.786482E-17
4.280000E+03	3.686788E-16	3.786590E-17
4.282000E+03	3.685116E-16	4.023079E-17
4.284000E+03	3.685778E-16	4.026873E-17
4.286000E+03	3.688541E-16	3.888195E-17
4.288000E+03	3.684300E-16	3.909096E-17
4.290000E+03	3.675157E-16	4.025338E-17
4.292000E+03	3.676518E-16	4.020554E-17
4.294000E+03	3.675777E-16	3.997174E-17
4.296000E+03	3.666400E-16	4.023137E-17
4.298000E+03	3.665892E-16	3.971206E-17
4.300000E+03	3.674487E-16	3.644939E-17
4.302000E+03	3.673979E-16	3.152734E-17
4.304000E+03	3.685374E-16	3.150414E-17
4.306000E+03	3.710306E-16	3.140892E-17
4.308000E+03	3.731503E-16	3.108649E-17
4.310000E+03	3.734026E-16	3.133488E-17
4.312000E+03	3.731181E-16	3.103429E-17
4.314000E+03	3.738838E-16	3.108686E-17
4.316000E+03	3.735525E-16	3.109384E-17
4.318000E+03	3.728477E-16	3.094531E-17
4.320000E+03	3.726097E-16	3.097327E-17
4.322000E+03	3.721382E-16	3.391564E-17
4.324000E+03	3.732071E-16	3.394784E-17
4.326000E+03	3.741592E-16	3.391269E-17
4.328000E+03	3.748312E-16	3.314525E-17
4.330000E+03	3.748963E-16	2.984173E-17
4.332000E+03	3.749381E-16	2.872155E-17
4.334000E+03	3.750731E-16	2.983848E-17
4.336000E+03	3.746947E-16	3.057617E-17
4.338000E+03	3.738962E-16	3.202655E-17
4.340000E+03	3.737978E-16	3.202013E-17
4.342000E+03	3.737927E-16	3.227084E-17
4.344000E+03	3.752109E-16	2.960116E-17
4.346000E+03	3.750190E-16	3.128310E-17
4.348000E+03	3.755038E-16	3.153438E-17
4.350000E+03	3.768052E-16	3.410280E-17
4.352000E+03	3.761931E-16	3.406105E-17
4.354000E+03	3.756276E-16	3.337757E-17
4.356000E+03	3.747821E-16	3.431572E-17
4.358000E+03	3.739366E-16	3.379168E-17
4.360000E+03	3.724378E-16	3.369791E-17
4.362000E+03	3.704723E-16	3.320733E-17
4.364000E+03	3.700467E-16	3.297125E-17
4.366000E+03	3.696911E-16	3.268431E-17
4.368000E+03	3.680289E-16	3.273866E-17
4.370000E+03	3.670199E-16	3.029736E-17
4.372000E+03	3.656377E-16	3.065976E-17
4.374000E+03	3.640222E-16	3.216395E-17
4.376000E+03	3.626166E-16	3.287454E-17
4.378000E+03	3.608144E-16	3.320245E-17
4.380000E+03	3.584057E-16	3.389850E-17
4.382000E+03	3.554372E-16	3.255590E-17
4.384000E+03	3.523053E-16	3.148699E-17
4.386000E+03	3.499434E-16	2.982865E-17
4.388000E+03	3.473249E-16	3.040550E-17
4.390000E+03	3.442865E-16	3.151765E-17
4.392000E+03	3.421346E-16	3.247388E-17
4.394000E+03	3.409625E-16	2.801529E-17
4.396000E+03	3.391839E-16	2.884762E-17
4.398000E+03	3.374519E-16	2.702458E-17
4.400000E+03	3.363031E-16	2.794765E-17
4.402000E+03	3.336848E-16	3.116421E-17
4.404000E+03	3.302269E-16	3.052385E-17
4.406000E+03	3.266291E-16	3.614948E-17
4.408000E+03	3.229848E-16	3.894965E-17
4.410000E+03	3.201336E-16	3.877408E-17
4.412000E+03	3.179820E-16	3.859213E-17
4.414000E+03	3.148510E-16	3.863720E-17
4.416000E+03	3.116734E-16	3.905658E-17
4.418000E+03	3.086359E-16	3.915765E-17
4.420000E+03	3.055517E-16	4.051677E-17
4.422000E+03	3.035637E-16	4.163518E-17
4.424000E+03	3.008295E-16	4.107383E-17
4.426000E+03	2.969294E-16	4.082103E-17
4.428000E+03	2.952680E-16	4.030700E-17
4.430000E+03	2.928604E-16	4.012972E-17
4.432000E+03	2.898233E-16	4.008459E-17
4.434000E+03	2.874392E-16	4.166135E-17
4.436000E+03	2.837494E-16	4.172294E-17
4.438000E+03	2.811322E-16	4.234368E-17
4.440000E+03	2.796810E-16	4.213687E-17
4.442000E+03	2.765743E-16	4.246886E-17
4.444000E+03	2.734211E-16	4.203299E-17
4.446000E+03	2.701980E-16	4.187167E-17
4.448000E+03	2.682107E-16	4.128995E-17
4.450000E+03	2.660603E-16	3.941922E-17
4.452000E+03	2.644461E-16	3.967304E-17
4.454000E+03	2.626921E-16	3.617704E-17
4.456000E+03	2.604485E-16	3.260321E-17
4.458000E+03	2.584848E-16	3.208245E-17
4.460000E+03	2.555886E-16	3.238618E-17
4.462000E+03	2.529722E-16	3.270180E-17
4.464000E+03	2.504492E-16	3.398017E-17
4.466000E+03	2.497445E-16	3.787222E-17
4.468000E+03	2.507646E-16	3.867208E-17
4.470000E+03	2.500831E-16	3.747719E-17
4.472000E+03	2.501475E-16	3.733894E-17
4.474000E+03	2.504682E-16	3.744974E-17
4.476000E+03	2.510686E-16	3.738625E-17
4.478000E+03	2.519719E-16	3.774628E-17
4.480000E+03	2.518030E-16	3.820335E-17
4.482000E+03	2.533354E-16	3.578675E-17
4.484000E+03	2.549843E-16	3.555888E-17
4.486000E+03	2.559339E-16	3.405656E-17
4.488000E+03	2.566037E-16	3.355622E-17
4.490000E+03	2.578328E-16	3.327481E-17
4.492000E+03	2.604833E-16	3.296652E-17
4.494000E+03	2.633667E-16	3.421086E-17
4.496000E+03	2.646653E-16	3.439431E-17
4.498000E+03	2.673619E-16	3.309377E-17
4.500000E+03	2.703613E-16	3.292526E-17
4.502000E+03	2.722188E-16	3.154348E-17
4.504000E+03	2.754974E-16	3.092260E-17
4.506000E+03	2.796146E-16	3.181409E-17
4.508000E+03	2.823570E-16	3.253965E-17
4.510000E+03	2.857981E-16	2.982517E-17
4.512000E+03	2.893555E-16	2.919835E-17
4.514000E+03	2.921438E-16	2.577779E-17
4.516000E+03	2.958872E-16	2.326003E-17
4.518000E+03	2.994439E-16	2.225202E-17
4.520000E+03	3.022084E-16	2.222700E-17
4.522000E+03	3.063238E-16	2.527165E-17
4.524000E+03	3.092509E-16	2.656102E-17
4.526000E+03	3.121546E-16	2.615305E-17
4.528000E+03	3.167817E-16	2.611276E-17
4.530000E+03	3.206166E-16	2.492183E-17
4.532000E+03	3.237292E-16	2.523414E-17
4.534000E+03	3.272376E-16	2.512362E-17
4.536000E+03	3.312115E-16	2.523334E-17
4.538000E+03	3.339508E-16	2.457659E-17
4.540000E+03	3.370392E-16	2.810167E-17
4.542000E+03	3.410823E-16	2.803061E-17
4.544000E+03	3.455443E-16	2.845991E-17
4.546000E+03	3.491443E-16	2.958512E-17
4.548000E+03	3.527208E-16	2.971254E-17
4.550000E+03	3.559711E-16	2.987205E-17
4.552000E+03	3.575912E-16	2.967117E-17
4.554000E+03	3.592344E-16	2.809615E-17
4.556000E+03	3.612267E-16	2.465020E-17
4.558000E+03	3.630559E-16	2.467677E-17
4.560000E+03	3.653738E-16	2.707543E-17
4.562000E+03	3.691351E-16	3.018392E-17
4.564000E+03	3.725701E-16	3.564466E-17
4.566000E+03	3.760748E-16	3.605199E-17
4.568000E+03	3.798818E-16	3.640857E-17
4.570000E+03	3.820357E-16	3.682398E-17
4.572000E+03	3.849809E-16	3.613000E-17
4.574000E+03	3.878328E-16	3.614742E-17
4.576000E+03	3.901956E-16	3.567099E-17
4.578000E+03	3.928142E-16	3.592221E-17
4.580000E+03	3.945249E-16	3.563525E-17
4.582000E+03	3.979578E-16	3.574359E-17
4.584000E+03	4.019490E-16	3.557225E-17
4.586000E+03	4.058468E-16	3.593341E-17
4.588000E+03	4.091625E-16	3.319059E-17
4.590000E+03	4.115005E-16	3.270142E-17
4.592000E+03	4.147226E-16	3.241679E-17
4.594000E+03	4.171765E-16	3.210607E-17
4.596000E+03	4.177220E-16	3.186739E-17
4.598000E+03	4.198265E-16	3.077802E-17
4.600000E+03	4.224893E-16	3.074282E-17
4.602000E+03	4.248261E-16	2.987855E-17
4.604000E+03	4.273720E-16	2.973954E-17
4.606000E+03	4.304529E-16	3.269272E-17
4.608000E+03	4.343943E-16	3.255705E-17
4.610000E+03	4.364277E-16	3.079173E-17
4.612000E+03	4.371348E-16	2.649778E-17
4.614000E+03	4.393540E-16	2.692306E-17
4.616000E+03	4.411774E-16	2.590531E-17
4.618000E+03	4.427913E-16	2.472540E-17
4.620000E+03	4.439631E-16	2.476050E-17
4.622000E+03	4.452743E-16	2.469937E-17
4.624000E+03	4.474925E-16	2.473828E-17
4.626000E+03	4.498035E-16	2.413026E-17
4.628000E+03	4.521608E-16	2.796545E-17
4.630000E+03	4.540062E-16	2.994962E-17
4.632000E+03	4.561770E-16	3.089149E-17
4.634000E+03	4.583941E-16	3.045036E-17
4.636000E+03	4.607737E-16	2.947989E-17
4.638000E+03	4.627113E-16	2.775750E-17
