#wls	flux	fluxerr
1.592975E+03	1.458000E-01	1.560179E-04
1.632799E+03	1.566214E-01	1.675976E-04
1.672624E+03	1.676072E-01	1.793534E-04
1.712448E+03	1.785736E-01	1.910883E-04
1.752272E+03	1.892871E-01	2.025526E-04
1.792097E+03	1.994628E-01	2.134414E-04
1.831921E+03	2.087629E-01	2.233933E-04
1.871746E+03	2.168045E-01	2.319984E-04
1.911570E+03	2.231764E-01	2.388168E-04
1.951394E+03	2.274830E-01	2.434253E-04
1.991219E+03	2.294450E-01	2.455248E-04
2.031043E+03	2.291827E-01	2.452441E-04
2.070867E+03	2.272433E-01	2.431688E-04
2.110692E+03	2.198674E-01	2.352759E-04
2.150516E+03	2.111880E-01	2.259883E-04
2.190341E+03	2.009300E-01	2.150113E-04
2.230165E+03	1.904156E-01	2.037601E-04
2.269989E+03	1.827038E-01	1.955078E-04
2.309814E+03	1.770089E-01	1.894139E-04
2.349638E+03	1.705968E-01	1.825524E-04
2.389462E+03	1.629780E-01	1.743996E-04
2.429287E+03	1.544156E-01	1.652372E-04
2.469111E+03	1.452459E-01	1.554248E-04
2.508936E+03	1.357274E-01	1.452392E-04
2.548760E+03	1.261107E-01	1.349486E-04
2.588584E+03	1.174423E-01	1.256727E-04
2.628409E+03	1.114107E-01	1.192184E-04
2.668233E+03	1.074524E-01	1.149827E-04
2.708057E+03	1.036987E-01	1.109660E-04
2.747882E+03	9.984478E-02	1.068420E-04
2.787706E+03	9.601550E-02	1.027443E-04
2.827531E+03	9.230189E-02	9.877047E-05
2.867355E+03	8.874098E-02	9.496000E-05
2.907179E+03	8.533792E-02	9.131846E-05
2.947004E+03	8.208170E-02	8.783403E-05
2.986828E+03	7.895421E-02	8.448737E-05
2.996784E+03	7.819006E-02	8.366966E-05
3.006740E+03	7.743225E-02	8.285874E-05
3.016696E+03	7.668072E-02	8.205455E-05
3.026652E+03	7.593494E-02	8.125650E-05
3.036609E+03	7.519452E-02	8.046419E-05
3.046565E+03	7.445923E-02	7.967737E-05
3.056521E+03	7.372877E-02	7.889572E-05
3.066477E+03	7.300258E-02	7.811864E-05
3.076433E+03	7.228051E-02	7.734597E-05
3.086389E+03	7.156198E-02	7.657708E-05
3.096345E+03	7.084670E-02	7.581168E-05
3.106301E+03	7.013421E-02	7.504925E-05
3.116257E+03	6.942386E-02	7.428912E-05
3.126213E+03	6.871537E-02	7.353098E-05
3.136169E+03	6.800786E-02	7.277388E-05
3.146126E+03	6.730082E-02	7.201730E-05
3.156082E+03	6.659344E-02	7.126034E-05
3.166038E+03	6.588479E-02	7.050203E-05
3.175994E+03	6.517407E-02	6.974151E-05
3.185950E+03	6.446018E-02	6.897758E-05
3.195906E+03	6.374213E-02	6.820921E-05
3.205862E+03	6.301848E-02	6.743485E-05
3.215818E+03	6.228799E-02	6.665316E-05
3.225774E+03	6.154945E-02	6.586287E-05
3.235730E+03	6.080140E-02	6.506239E-05
3.245687E+03	6.004291E-02	6.425074E-05
3.255643E+03	5.927271E-02	6.342657E-05
3.265599E+03	5.849004E-02	6.258905E-05
3.275555E+03	5.769407E-02	6.173730E-05
3.285511E+03	5.688390E-02	6.087035E-05
3.285824E+03	5.573788E-02	5.964402E-05
3.287554E+03	5.579642E-02	5.970666E-05
3.289284E+03	5.585499E-02	5.976933E-05
3.291015E+03	5.587725E-02	5.979315E-05
3.292746E+03	5.567769E-02	5.957961E-05
3.294476E+03	5.556995E-02	5.946432E-05
3.296207E+03	5.549470E-02	5.938379E-05
3.297938E+03	5.547064E-02	5.935804E-05
3.299668E+03	5.543202E-02	5.931672E-05
3.301399E+03	5.542039E-02	5.930427E-05
3.303130E+03	5.533660E-02	5.921461E-05
3.304861E+03	5.521158E-02	5.908083E-05
3.306591E+03	5.503870E-02	5.889584E-05
3.308322E+03	5.489296E-02	5.873988E-05
3.310053E+03	5.474757E-02	5.858431E-05
3.311783E+03	5.441162E-02	5.822481E-05
3.313514E+03	5.437377E-02	5.818431E-05
3.315245E+03	5.442285E-02	5.823683E-05
3.316975E+03	5.436810E-02	5.817824E-05
3.318707E+03	5.434554E-02	5.815410E-05
3.320437E+03	5.431121E-02	5.811736E-05
3.322167E+03	5.418540E-02	5.798274E-05
3.323899E+03	5.412770E-02	5.792099E-05
3.325629E+03	5.411941E-02	5.791213E-05
3.327359E+03	5.398924E-02	5.777283E-05
3.329091E+03	5.380772E-02	5.757859E-05
3.330821E+03	5.360937E-02	5.736633E-05
3.332551E+03	5.349365E-02	5.724251E-05
3.334282E+03	5.331077E-02	5.704681E-05
3.336013E+03	5.294569E-02	5.665615E-05
3.337744E+03	5.278103E-02	5.647995E-05
3.339475E+03	5.272251E-02	5.641733E-05
3.341205E+03	5.270794E-02	5.640173E-05
3.342936E+03	5.254309E-02	5.622533E-05
3.344666E+03	5.241830E-02	5.609180E-05
3.346397E+03	5.228598E-02	5.595021E-05
3.348128E+03	5.220155E-02	5.585986E-05
3.349858E+03	5.209115E-02	5.574172E-05
3.351589E+03	5.212463E-02	5.577755E-05
3.353320E+03	5.217155E-02	5.582775E-05
3.355050E+03	5.199381E-02	5.563756E-05
3.356782E+03	5.169033E-02	5.531281E-05
3.358512E+03	5.143742E-02	5.504218E-05
3.360242E+03	5.137811E-02	5.497871E-05
3.361974E+03	5.146881E-02	5.507576E-05
3.363704E+03	5.138655E-02	5.498775E-05
3.365434E+03	5.128899E-02	5.488334E-05
3.367166E+03	5.128884E-02	5.488319E-05
3.368896E+03	5.113573E-02	5.471935E-05
3.370627E+03	5.084044E-02	5.440336E-05
3.372358E+03	5.078133E-02	5.434011E-05
3.374088E+03	5.066769E-02	5.421850E-05
3.375819E+03	5.039238E-02	5.392390E-05
3.377550E+03	5.026928E-02	5.379218E-05
3.379280E+03	5.009441E-02	5.360505E-05
3.381011E+03	4.984695E-02	5.334024E-05
3.382742E+03	4.961314E-02	5.309005E-05
3.384472E+03	4.927942E-02	5.273295E-05
3.386203E+03	4.900639E-02	5.244078E-05
3.387933E+03	4.881220E-02	5.223299E-05
3.389665E+03	4.850126E-02	5.190025E-05
3.391395E+03	4.835510E-02	5.174384E-05
3.393126E+03	4.832537E-02	5.171203E-05
3.394857E+03	4.813596E-02	5.150935E-05
3.396587E+03	4.812278E-02	5.149525E-05
3.398318E+03	4.818811E-02	5.156515E-05
3.400049E+03	4.805095E-02	5.141838E-05
3.401779E+03	4.806125E-02	5.142940E-05
3.403510E+03	4.767170E-02	5.101256E-05
3.405241E+03	4.739843E-02	5.072014E-05
3.406971E+03	4.732315E-02	5.063958E-05
3.408702E+03	4.723659E-02	5.054695E-05
3.410433E+03	4.694152E-02	5.023120E-05
3.412163E+03	4.677805E-02	5.005628E-05
3.413894E+03	4.691725E-02	5.020523E-05
3.415625E+03	4.649261E-02	4.975083E-05
3.417355E+03	4.656769E-02	4.983118E-05
3.419086E+03	4.672602E-02	5.000060E-05
3.420817E+03	4.652689E-02	4.978751E-05
3.422548E+03	4.646159E-02	4.971764E-05
3.424278E+03	4.636037E-02	4.960933E-05
3.426009E+03	4.625950E-02	4.950138E-05
3.427740E+03	4.612912E-02	4.936186E-05
3.429470E+03	4.632139E-02	4.956762E-05
3.431201E+03	4.646985E-02	4.972648E-05
3.432932E+03	4.629500E-02	4.953938E-05
3.434662E+03	4.618122E-02	4.941762E-05
3.436394E+03	4.605352E-02	4.928097E-05
3.438124E+03	4.600235E-02	4.922621E-05
3.439854E+03	4.615699E-02	4.939169E-05
3.441586E+03	4.594589E-02	4.916580E-05
3.443316E+03	4.571309E-02	4.891668E-05
3.445046E+03	4.552446E-02	4.871484E-05
3.446777E+03	4.556476E-02	4.875796E-05
3.448508E+03	4.578481E-02	4.899343E-05
3.450238E+03	4.579566E-02	4.900504E-05
3.451970E+03	4.565680E-02	4.885645E-05
3.453700E+03	4.583452E-02	4.904662E-05
3.455431E+03	4.580050E-02	4.901022E-05
3.457161E+03	4.572016E-02	4.892425E-05
3.458892E+03	4.547340E-02	4.866020E-05
3.460623E+03	4.550302E-02	4.869189E-05
3.462353E+03	4.565912E-02	4.885893E-05
3.464084E+03	4.575205E-02	4.895838E-05
3.465815E+03	4.587986E-02	4.909514E-05
3.467545E+03	4.600895E-02	4.923328E-05
3.469276E+03	4.603100E-02	4.925688E-05
3.471007E+03	4.622719E-02	4.946681E-05
3.472737E+03	4.624540E-02	4.948630E-05
3.474469E+03	4.624686E-02	4.948786E-05
3.476199E+03	4.628957E-02	4.953357E-05
3.477929E+03	4.636964E-02	4.961925E-05
3.479661E+03	4.635562E-02	4.960424E-05
3.481391E+03	4.654518E-02	4.980709E-05
3.483121E+03	4.688662E-02	5.017246E-05
3.484853E+03	4.693944E-02	5.022897E-05
3.486583E+03	4.710809E-02	5.040945E-05
3.488314E+03	4.713631E-02	5.043964E-05
3.490045E+03	4.704080E-02	5.033744E-05
3.491775E+03	4.712423E-02	5.042672E-05
3.493506E+03	4.721783E-02	5.052687E-05
3.495237E+03	4.730233E-02	5.061730E-05
3.496967E+03	4.736610E-02	5.068554E-05
3.498698E+03	4.738726E-02	5.070818E-05
3.500428E+03	4.734787E-02	5.066603E-05
3.502159E+03	4.731864E-02	5.063475E-05
3.503890E+03	4.732018E-02	5.063640E-05
3.505621E+03	4.742314E-02	5.074658E-05
3.507352E+03	4.749377E-02	5.082215E-05
3.509082E+03	4.752952E-02	5.086041E-05
3.510813E+03	4.784399E-02	5.119692E-05
3.512544E+03	4.787675E-02	5.123197E-05
3.514274E+03	4.781298E-02	5.116373E-05
3.516004E+03	4.779912E-02	5.114890E-05
3.517736E+03	4.771570E-02	5.105964E-05
3.519466E+03	4.759105E-02	5.092625E-05
3.521197E+03	4.752013E-02	5.085036E-05
3.522928E+03	4.735148E-02	5.066989E-05
3.524658E+03	4.706843E-02	5.036701E-05
3.526389E+03	4.684430E-02	5.012716E-05
3.528120E+03	4.664442E-02	4.991328E-05
3.529850E+03	4.645848E-02	4.971431E-05
3.531581E+03	4.617749E-02	4.941363E-05
3.533312E+03	4.594384E-02	4.916361E-05
3.535042E+03	4.596638E-02	4.918773E-05
3.536773E+03	4.590024E-02	4.911695E-05
3.538504E+03	4.561747E-02	4.881437E-05
3.540235E+03	4.521803E-02	4.838693E-05
3.541965E+03	4.502340E-02	4.817866E-05
3.543696E+03	4.474930E-02	4.788535E-05
3.545427E+03	4.455955E-02	4.768230E-05
3.547157E+03	4.438757E-02	4.749827E-05
3.548888E+03	4.435232E-02	4.746055E-05
3.550619E+03	4.413911E-02	4.723239E-05
3.552349E+03	4.379159E-02	4.686052E-05
3.554081E+03	4.363440E-02	4.669232E-05
3.555811E+03	4.363040E-02	4.668803E-05
3.557541E+03	4.360827E-02	4.666435E-05
3.559272E+03	4.358593E-02	4.664045E-05
3.561003E+03	4.319324E-02	4.622024E-05
3.562733E+03	4.299709E-02	4.601034E-05
3.564465E+03	4.286584E-02	4.586989E-05
3.566195E+03	4.267582E-02	4.566656E-05
3.567925E+03	4.248822E-02	4.546581E-05
3.569656E+03	4.254902E-02	4.553088E-05
3.571387E+03	4.236625E-02	4.533529E-05
3.573118E+03	4.217829E-02	4.513416E-05
3.574848E+03	4.223844E-02	4.519852E-05
3.576579E+03	4.211765E-02	4.506927E-05
3.578310E+03	4.196875E-02	4.490993E-05
3.580040E+03	4.191254E-02	4.484979E-05
3.581771E+03	4.185996E-02	4.479352E-05
3.583502E+03	4.192155E-02	4.485943E-05
3.585232E+03	4.186855E-02	4.480271E-05
3.586963E+03	4.182556E-02	4.475671E-05
3.588694E+03	4.179759E-02	4.472679E-05
3.590424E+03	4.170347E-02	4.462607E-05
3.592156E+03	4.156230E-02	4.447501E-05
3.593886E+03	4.156677E-02	4.447979E-05
3.595616E+03	4.156215E-02	4.447485E-05
3.597348E+03	4.133443E-02	4.423117E-05
3.599078E+03	4.108518E-02	4.396445E-05
3.600808E+03	4.112062E-02	4.400237E-05
3.602540E+03	4.108623E-02	4.396557E-05
3.604270E+03	4.103650E-02	4.391235E-05
3.606001E+03	4.095374E-02	4.382379E-05
3.607732E+03	4.087087E-02	4.373512E-05
3.609462E+03	4.091027E-02	4.377728E-05
3.611193E+03	4.100497E-02	4.387862E-05
3.612923E+03	4.091019E-02	4.377719E-05
3.614654E+03	4.095143E-02	4.382132E-05
3.616385E+03	4.072275E-02	4.357662E-05
3.618116E+03	4.072458E-02	4.357857E-05
3.619846E+03	4.070733E-02	4.356011E-05
3.621577E+03	4.069488E-02	4.354679E-05
3.623308E+03	4.077030E-02	4.362750E-05
3.625039E+03	4.061410E-02	4.346036E-05
3.626769E+03	4.053957E-02	4.338060E-05
3.628499E+03	4.041464E-02	4.324692E-05
3.630231E+03	4.040261E-02	4.323404E-05
3.631961E+03	4.033017E-02	4.315652E-05
3.633691E+03	4.032150E-02	4.314725E-05
3.635423E+03	4.039040E-02	4.322098E-05
3.637153E+03	4.030367E-02	4.312817E-05
3.638884E+03	4.015423E-02	4.296826E-05
3.640615E+03	4.006360E-02	4.287127E-05
3.642345E+03	4.002408E-02	4.282898E-05
3.644076E+03	3.993946E-02	4.273843E-05
3.645807E+03	3.992590E-02	4.272392E-05
3.647537E+03	3.981105E-02	4.260102E-05
3.649268E+03	3.959756E-02	4.237257E-05
3.650999E+03	3.945768E-02	4.222289E-05
3.652729E+03	3.932896E-02	4.208515E-05
3.654460E+03	3.923510E-02	4.198471E-05
3.656191E+03	3.927558E-02	4.202803E-05
3.657922E+03	3.929094E-02	4.204446E-05
3.659652E+03	3.915436E-02	4.189832E-05
3.661383E+03	3.898302E-02	4.171497E-05
3.663114E+03	3.887004E-02	4.159407E-05
3.664844E+03	3.872596E-02	4.143989E-05
3.666575E+03	3.870220E-02	4.141447E-05
3.668306E+03	3.866585E-02	4.137557E-05
3.670036E+03	3.856370E-02	4.126626E-05
3.671767E+03	3.848131E-02	4.117810E-05
3.673498E+03	3.834319E-02	4.103029E-05
3.675228E+03	3.822479E-02	4.090360E-05
3.676960E+03	3.818547E-02	4.086152E-05
3.678690E+03	3.819046E-02	4.086687E-05
3.680420E+03	3.812861E-02	4.080068E-05
3.682152E+03	3.810614E-02	4.077664E-05
3.683882E+03	3.801571E-02	4.067987E-05
3.685612E+03	3.778236E-02	4.043016E-05
3.687343E+03	3.762793E-02	4.026491E-05
3.689074E+03	3.759647E-02	4.023124E-05
3.690805E+03	3.761530E-02	4.025139E-05
3.692535E+03	3.765234E-02	4.029103E-05
3.694266E+03	3.761918E-02	4.025555E-05
3.695997E+03	3.767297E-02	4.031311E-05
3.697727E+03	3.777063E-02	4.041761E-05
3.699458E+03	3.772222E-02	4.036581E-05
3.701189E+03	3.771166E-02	4.035451E-05
3.702919E+03	3.781099E-02	4.046080E-05
3.704650E+03	3.785988E-02	4.051312E-05
3.706381E+03	3.798915E-02	4.065144E-05
3.708111E+03	3.809976E-02	4.076981E-05
3.709843E+03	3.804052E-02	4.070641E-05
3.711573E+03	3.798845E-02	4.065069E-05
3.713303E+03	3.786934E-02	4.052323E-05
3.715035E+03	3.784029E-02	4.049215E-05
3.716765E+03	3.778190E-02	4.042967E-05
3.718495E+03	3.774894E-02	4.039440E-05
3.720227E+03	3.766365E-02	4.030314E-05
3.721957E+03	3.763168E-02	4.026892E-05
3.723688E+03	3.761295E-02	4.024888E-05
3.725418E+03	3.749230E-02	4.011977E-05
3.727149E+03	3.730509E-02	3.991945E-05
3.728880E+03	3.718694E-02	3.979301E-05
3.730610E+03	3.709177E-02	3.969118E-05
3.732341E+03	3.697363E-02	3.956476E-05
3.734072E+03	3.683138E-02	3.941254E-05
3.735803E+03	3.656738E-02	3.913003E-05
3.737533E+03	3.640002E-02	3.895095E-05
3.739264E+03	3.631706E-02	3.886218E-05
3.740994E+03	3.619195E-02	3.872830E-05
3.742726E+03	3.613418E-02	3.866648E-05
3.744456E+03	3.607998E-02	3.860848E-05
3.746186E+03	3.596567E-02	3.848615E-05
3.747918E+03	3.573507E-02	3.823940E-05
3.749648E+03	3.553108E-02	3.802111E-05
3.751378E+03	3.531765E-02	3.779273E-05
3.753110E+03	3.506019E-02	3.751722E-05
3.754840E+03	3.485320E-02	3.729572E-05
3.756571E+03	3.477654E-02	3.721369E-05
3.758302E+03	3.454595E-02	3.696694E-05
3.760032E+03	3.450396E-02	3.692201E-05
3.761763E+03	3.442020E-02	3.683238E-05
3.763494E+03	3.425668E-02	3.665741E-05
3.765224E+03	3.400292E-02	3.638586E-05
3.766955E+03	3.391221E-02	3.628879E-05
3.768686E+03	3.379186E-02	3.616001E-05
3.770416E+03	3.362531E-02	3.598178E-05
3.772147E+03	3.355251E-02	3.590389E-05
3.773878E+03	3.333999E-02	3.567647E-05
3.775609E+03	3.324480E-02	3.557461E-05
3.777339E+03	3.328558E-02	3.561825E-05
3.779070E+03	3.325645E-02	3.558708E-05
3.780801E+03	3.320722E-02	3.553440E-05
3.782531E+03	3.314965E-02	3.547279E-05
3.784261E+03	3.310972E-02	3.543007E-05
3.785993E+03	3.304737E-02	3.536334E-05
3.787723E+03	3.296736E-02	3.527773E-05
3.789455E+03	3.290853E-02	3.521478E-05
3.791185E+03	3.280504E-02	3.510403E-05
3.792915E+03	3.270161E-02	3.499335E-05
3.794647E+03	3.259472E-02	3.487897E-05
3.796377E+03	3.260143E-02	3.488615E-05
3.798107E+03	3.271675E-02	3.500956E-05
3.799838E+03	3.274995E-02	3.504508E-05
3.801569E+03	3.278763E-02	3.508540E-05
3.803299E+03	3.268050E-02	3.497077E-05
3.805030E+03	3.260607E-02	3.489112E-05
3.806761E+03	3.260847E-02	3.489369E-05
3.808492E+03	3.255957E-02	3.484136E-05
3.810222E+03	3.254782E-02	3.482878E-05
3.811953E+03	3.259632E-02	3.488069E-05
3.813684E+03	3.256343E-02	3.484549E-05
3.815414E+03	3.267299E-02	3.496272E-05
3.817145E+03	3.264910E-02	3.493716E-05
3.818876E+03	3.265404E-02	3.494245E-05
3.820606E+03	3.269929E-02	3.499087E-05
3.822337E+03	3.265776E-02	3.494643E-05
3.824068E+03	3.270498E-02	3.499696E-05
3.825798E+03	3.278425E-02	3.508178E-05
3.827530E+03	3.289317E-02	3.519834E-05
3.829260E+03	3.289483E-02	3.520011E-05
3.830990E+03	3.300663E-02	3.531975E-05
3.832722E+03	3.300103E-02	3.531376E-05
3.834452E+03	3.298846E-02	3.530031E-05
3.836182E+03	3.305599E-02	3.537257E-05
3.837913E+03	3.317244E-02	3.549718E-05
3.839644E+03	3.330687E-02	3.564103E-05
3.841375E+03	3.331068E-02	3.564511E-05
3.843105E+03	3.324937E-02	3.557950E-05
3.844836E+03	3.326103E-02	3.559198E-05
3.846567E+03	3.322013E-02	3.554821E-05
3.848298E+03	3.312920E-02	3.545090E-05
3.850028E+03	3.312239E-02	3.544362E-05
3.851759E+03	3.310184E-02	3.542163E-05
3.853489E+03	3.301208E-02	3.532558E-05
3.855220E+03	3.298243E-02	3.529385E-05
3.856951E+03	3.298102E-02	3.529234E-05
3.858681E+03	3.292181E-02	3.522899E-05
3.860413E+03	3.291009E-02	3.521644E-05
3.862143E+03	3.287795E-02	3.518205E-05
3.863873E+03	3.286156E-02	3.516452E-05
3.865605E+03	3.270547E-02	3.499748E-05
3.867335E+03	3.262495E-02	3.491132E-05
3.869065E+03	3.247033E-02	3.474586E-05
3.870797E+03	3.226427E-02	3.452536E-05
3.872527E+03	3.216284E-02	3.441683E-05
3.874258E+03	3.203911E-02	3.428442E-05
3.875989E+03	3.194239E-02	3.418093E-05
3.877719E+03	3.173844E-02	3.396269E-05
3.879450E+03	3.151472E-02	3.372328E-05
3.881181E+03	3.127797E-02	3.346994E-05
3.882911E+03	3.117982E-02	3.336492E-05
3.884642E+03	3.108624E-02	3.326478E-05
3.886373E+03	3.095273E-02	3.312191E-05
3.888103E+03	3.084274E-02	3.300421E-05
3.889834E+03	3.082057E-02	3.298049E-05
3.891565E+03	3.075733E-02	3.291282E-05
3.893296E+03	3.076725E-02	3.292343E-05
3.895026E+03	3.062547E-02	3.277171E-05
3.896756E+03	3.050048E-02	3.263797E-05
3.898488E+03	3.052032E-02	3.265919E-05
3.900218E+03	3.052239E-02	3.266141E-05
3.901949E+03	3.045054E-02	3.258453E-05
3.903680E+03	3.035565E-02	3.248299E-05
3.905410E+03	3.019382E-02	3.230981E-05
3.907142E+03	3.006300E-02	3.216982E-05
3.908872E+03	3.001905E-02	3.212280E-05
3.910602E+03	2.997294E-02	3.207346E-05
3.912333E+03	2.998487E-02	3.208623E-05
3.914064E+03	2.993983E-02	3.203803E-05
3.915794E+03	2.990356E-02	3.199921E-05
3.917525E+03	2.982691E-02	3.191719E-05
3.919256E+03	2.977979E-02	3.186676E-05
3.920986E+03	2.970002E-02	3.178141E-05
3.922717E+03	2.955183E-02	3.162283E-05
3.924448E+03	2.950494E-02	3.157266E-05
3.926179E+03	2.953082E-02	3.160035E-05
3.927909E+03	2.954031E-02	3.161051E-05
3.929640E+03	2.948148E-02	3.154755E-05
3.931371E+03	2.939133E-02	3.145109E-05
3.933101E+03	2.933158E-02	3.138715E-05
3.934832E+03	2.930644E-02	3.136025E-05
3.936563E+03	2.922737E-02	3.127563E-05
3.938293E+03	2.918935E-02	3.123495E-05
3.940024E+03	2.915351E-02	3.119660E-05
3.941755E+03	2.911016E-02	3.115021E-05
3.943485E+03	2.903141E-02	3.106595E-05
3.945217E+03	2.896243E-02	3.099213E-05
3.946947E+03	2.892141E-02	3.094824E-05
3.948677E+03	2.882049E-02	3.084024E-05
3.950408E+03	2.876463E-02	3.078047E-05
3.952139E+03	2.874410E-02	3.075849E-05
3.953869E+03	2.873209E-02	3.074565E-05
3.955600E+03	2.868276E-02	3.069286E-05
3.957331E+03	2.867075E-02	3.068001E-05
3.959062E+03	2.855026E-02	3.055107E-05
3.960793E+03	2.844910E-02	3.044282E-05
3.962523E+03	2.841602E-02	3.040743E-05
3.964254E+03	2.838086E-02	3.036981E-05
3.965984E+03	2.832032E-02	3.030502E-05
3.967715E+03	2.831805E-02	3.030259E-05
3.969446E+03	2.833793E-02	3.032386E-05
3.971176E+03	2.827119E-02	3.025244E-05
3.972907E+03	2.829205E-02	3.027477E-05
3.974638E+03	2.829494E-02	3.027786E-05
3.976368E+03	2.820416E-02	3.018072E-05
3.978100E+03	2.808937E-02	3.005789E-05
3.979830E+03	2.799685E-02	2.995889E-05
3.981560E+03	2.792547E-02	2.988250E-05
3.983292E+03	2.788983E-02	2.984436E-05
3.985022E+03	2.789294E-02	2.984769E-05
3.986752E+03	2.790021E-02	2.985547E-05
3.988484E+03	2.788342E-02	2.983750E-05
3.990214E+03	2.790835E-02	2.986418E-05
3.991945E+03	2.788113E-02	2.983505E-05
3.993676E+03	2.784978E-02	2.980150E-05
3.995406E+03	2.775923E-02	2.970460E-05
3.997137E+03	2.767197E-02	2.961123E-05
3.998868E+03	2.756725E-02	2.949918E-05
4.000598E+03	2.750937E-02	2.943724E-05
4.002329E+03	2.747850E-02	2.940421E-05
4.004060E+03	2.742494E-02	2.934690E-05
4.005790E+03	2.739111E-02	2.931069E-05
4.007521E+03	2.733671E-02	2.925248E-05
4.009251E+03	2.721235E-02	2.911940E-05
4.010983E+03	2.706354E-02	2.896016E-05
4.012713E+03	2.699011E-02	2.888159E-05
4.014444E+03	2.689320E-02	2.877789E-05
4.016175E+03	2.679343E-02	2.867112E-05
4.017905E+03	2.677175E-02	2.864793E-05
4.019636E+03	2.664467E-02	2.851194E-05
4.021367E+03	2.654241E-02	2.840251E-05
4.023097E+03	2.647510E-02	2.833049E-05
4.024828E+03	2.638345E-02	2.823242E-05
4.026559E+03	2.630423E-02	2.814764E-05
4.028289E+03	2.626999E-02	2.811100E-05
4.030020E+03	2.621854E-02	2.805595E-05
4.031751E+03	2.625561E-02	2.809561E-05
4.033481E+03	2.630174E-02	2.814497E-05
4.035212E+03	2.620482E-02	2.804126E-05
4.036943E+03	2.618914E-02	2.802449E-05
4.038673E+03	2.607537E-02	2.790274E-05
4.040404E+03	2.600431E-02	2.782670E-05
4.042135E+03	2.604144E-02	2.786644E-05
4.043866E+03	2.599380E-02	2.781545E-05
4.045596E+03	2.600168E-02	2.782389E-05
4.047327E+03	2.604782E-02	2.787326E-05
4.049058E+03	2.601043E-02	2.783326E-05
4.050788E+03	2.603241E-02	2.785677E-05
4.052519E+03	2.615470E-02	2.798763E-05
4.054250E+03	2.619657E-02	2.803244E-05
4.055980E+03	2.614427E-02	2.797647E-05
