#wls	flux	fluxerr
1.592975E+03	3.905876E-04	2.196078E-05
1.632799E+03	3.775622E-04	2.107251E-05
1.672624E+03	3.660475E-04	2.027543E-05
1.712448E+03	3.560453E-04	1.956799E-05
1.752272E+03	3.480353E-04	1.897462E-05
1.792097E+03	3.421981E-04	1.850263E-05
1.831921E+03	3.388579E-04	1.816661E-05
1.871746E+03	3.385725E-04	1.799283E-05
1.911570E+03	3.416104E-04	1.799110E-05
1.951394E+03	3.483472E-04	1.817615E-05
1.991219E+03	3.592352E-04	1.856572E-05
2.031043E+03	3.745511E-04	1.916743E-05
2.070867E+03	3.944346E-04	1.998115E-05
2.110692E+03	4.190595E-04	2.100790E-05
2.150516E+03	4.478654E-04	2.221163E-05
2.190341E+03	4.804723E-04	2.356608E-05
2.230165E+03	5.158450E-04	2.501381E-05
2.269989E+03	5.531813E-04	2.651069E-05
2.309814E+03	5.912291E-04	2.799294E-05
2.349638E+03	6.291705E-04	2.941993E-05
2.389462E+03	6.663199E-04	3.075905E-05
2.429287E+03	7.025174E-04	3.200331E-05
2.469111E+03	7.379864E-04	3.316344E-05
2.508936E+03	7.731055E-04	3.425652E-05
2.548760E+03	8.088612E-04	3.532531E-05
2.588584E+03	8.460086E-04	3.640009E-05
2.628409E+03	8.854834E-04	3.751680E-05
2.668233E+03	9.285152E-04	3.872114E-05
2.708057E+03	9.756536E-04	4.002744E-05
2.747882E+03	1.027755E-03	4.146084E-05
2.787706E+03	1.085506E-03	4.303708E-05
2.827531E+03	1.149899E-03	4.478187E-05
2.867355E+03	1.222319E-03	4.673276E-05
2.907179E+03	1.304189E-03	4.892468E-05
2.947004E+03	1.397010E-03	5.139089E-05
2.986828E+03	1.503472E-03	5.420302E-05
2.996784E+03	1.532506E-03	5.496670E-05
3.006740E+03	1.562557E-03	5.575527E-05
3.016696E+03	1.593664E-03	5.656955E-05
3.026652E+03	1.625866E-03	5.741031E-05
3.036609E+03	1.659430E-03	5.828626E-05
3.046565E+03	1.694181E-03	5.919051E-05
3.056521E+03	1.730165E-03	6.012401E-05
3.066477E+03	1.767660E-03	6.109558E-05
3.076433E+03	1.806722E-03	6.210631E-05
3.086389E+03	1.847179E-03	6.314941E-05
3.096345E+03	1.889319E-03	6.423389E-05
3.106301E+03	1.932972E-03	6.535298E-05
3.116257E+03	1.978671E-03	6.652374E-05
3.126213E+03	2.026013E-03	6.773149E-05
3.136169E+03	2.075301E-03	6.898537E-05
3.146126E+03	2.126606E-03	7.028660E-05
3.156082E+03	2.179999E-03	7.163634E-05
3.166038E+03	2.235552E-03	7.303573E-05
3.175994E+03	2.293586E-03	7.449394E-05
3.185950E+03	2.353673E-03	7.599571E-05
3.195906E+03	2.416382E-03	7.755815E-05
3.205862E+03	2.481786E-03	7.918201E-05
3.215818E+03	2.549689E-03	8.085958E-05
3.225774E+03	2.620145E-03	8.259104E-05
3.235730E+03	2.693460E-03	8.438460E-05
3.245687E+03	2.769677E-03	8.623988E-05
3.255643E+03	2.848823E-03	8.815607E-05
3.265599E+03	2.930633E-03	9.012335E-05
3.275555E+03	3.015651E-03	9.215680E-05
3.285511E+03	3.103575E-03	9.424541E-05
3.295467E+03	3.194066E-03	9.637730E-05
3.305423E+03	3.287615E-03	9.856574E-05
3.315379E+03	3.384125E-03	1.008061E-04
3.325335E+03	3.482878E-03	1.030754E-04
3.335291E+03	3.584603E-03	1.053940E-04
3.345247E+03	3.688222E-03	1.077286E-04
3.355204E+03	3.794433E-03	1.100984E-04
3.365160E+03	3.902396E-03	1.124779E-04
3.375116E+03	4.012156E-03	1.148674E-04
3.385072E+03	4.123410E-03	1.172572E-04
3.395028E+03	4.235820E-03	1.196372E-04
3.404984E+03	4.348993E-03	1.219957E-04
3.414940E+03	4.462816E-03	1.243294E-04
3.424896E+03	4.576157E-03	1.266065E-04
3.434852E+03	4.689508E-03	1.288411E-04
3.444808E+03	4.801405E-03	1.309934E-04
3.454764E+03	4.912426E-03	1.330801E-04
3.464721E+03	5.021597E-03	1.350755E-04
3.474677E+03	5.128741E-03	1.369764E-04
3.484633E+03	5.234524E-03	1.388017E-04
3.494589E+03	5.338466E-03	1.405397E-04
3.504545E+03	5.441608E-03	1.422190E-04
3.514501E+03	5.544181E-03	1.438462E-04
3.524457E+03	5.646934E-03	1.454412E-04
3.534413E+03	5.750791E-03	1.470278E-04
3.544369E+03	5.857197E-03	1.486423E-04
3.554325E+03	5.967094E-03	1.503073E-04
3.564282E+03	6.082279E-03	1.520661E-04
3.574238E+03	6.204424E-03	1.539574E-04
3.584194E+03	6.335577E-03	1.560283E-04
3.594150E+03	6.477985E-03	1.583289E-04
3.604106E+03	6.634898E-03	1.609322E-04
3.614062E+03	6.809429E-03	1.639055E-04
3.624018E+03	7.003501E-03	1.672856E-04
3.633974E+03	7.218476E-03	1.710945E-04
3.643930E+03	7.454515E-03	1.753250E-04
3.653886E+03	7.710560E-03	1.799418E-04
3.663842E+03	7.983282E-03	1.848576E-04
3.673799E+03	8.266759E-03	1.899282E-04
3.683755E+03	8.553399E-03	1.949755E-04
3.693711E+03	8.832861E-03	1.997647E-04
3.703667E+03	9.092884E-03	2.040252E-04
3.713623E+03	9.320551E-03	2.074803E-04
3.723579E+03	9.502108E-03	2.098441E-04
3.733535E+03	9.627406E-03	2.109190E-04
3.743491E+03	9.689120E-03	2.105757E-04
3.753447E+03	9.685838E-03	2.088171E-04
3.763403E+03	9.622752E-03	2.057883E-04
3.773359E+03	9.510334E-03	2.017423E-04
3.783316E+03	9.364831E-03	1.970461E-04
3.793272E+03	9.205277E-03	1.921137E-04
3.803228E+03	9.051836E-03	1.873693E-04
3.813184E+03	8.923851E-03	1.832066E-04
3.823140E+03	8.839708E-03	1.799865E-04
3.833096E+03	8.815272E-03	1.780071E-04
3.843052E+03	8.864091E-03	1.775096E-04
3.853008E+03	8.997196E-03	1.786762E-04
3.862964E+03	9.224308E-03	1.816567E-04
3.872920E+03	9.551658E-03	1.865265E-04
3.882877E+03	9.984022E-03	1.933292E-04
3.892833E+03	1.052170E-02	2.020197E-04
3.902789E+03	1.116156E-02	2.124885E-04
3.912745E+03	1.189488E-02	2.245221E-04
3.922701E+03	1.270638E-02	2.377912E-04
3.932657E+03	1.357522E-02	2.518733E-04
3.942613E+03	1.447271E-02	2.662153E-04
3.952569E+03	1.536580E-02	2.802033E-04
3.962525E+03	1.621922E-02	2.932042E-04
3.972481E+03	1.699731E-02	3.046000E-04
3.982437E+03	1.766916E-02	3.138795E-04
3.992394E+03	1.821002E-02	3.206590E-04
4.002350E+03	1.860469E-02	3.247358E-04
4.012306E+03	1.884767E-02	3.260840E-04
4.022262E+03	1.894205E-02	3.248276E-04
4.032218E+03	1.889924E-02	3.212293E-04
4.042174E+03	1.873509E-02	3.156190E-04
4.052130E+03	1.846697E-02	3.083412E-04
4.062086E+03	1.811395E-02	2.997582E-04
4.072042E+03	1.769158E-02	2.901621E-04
4.081998E+03	1.721372E-02	2.798082E-04
4.091954E+03	1.669058E-02	2.688842E-04
4.101911E+03	1.613057E-02	2.575429E-04
4.111867E+03	1.554053E-02	2.459070E-04
4.121823E+03	1.492796E-02	2.341055E-04
4.131779E+03	1.430089E-02	2.222708E-04
4.141735E+03	1.366956E-02	2.105651E-04
4.151691E+03	1.304611E-02	1.991732E-04
4.161647E+03	1.244515E-02	1.883112E-04
4.171603E+03	1.188179E-02	1.781944E-04
4.181559E+03	1.137141E-02	1.690343E-04
4.191515E+03	1.092802E-02	1.610144E-04
4.201472E+03	1.056255E-02	1.542664E-04
4.211428E+03	1.028344E-02	1.488814E-04
4.221384E+03	1.009606E-02	1.449024E-04
4.231340E+03	1.000269E-02	1.423269E-04
4.241296E+03	1.000333E-02	1.411205E-04
4.251252E+03	1.009597E-02	1.412212E-04
4.261208E+03	1.027657E-02	1.425414E-04
4.271164E+03	1.053948E-02	1.449745E-04
4.281120E+03	1.087702E-02	1.483896E-04
4.291076E+03	1.127942E-02	1.526325E-04
4.301032E+03	1.173401E-02	1.575152E-04
4.310989E+03	1.222405E-02	1.628022E-04
4.320945E+03	1.272850E-02	1.682087E-04
4.330901E+03	1.322049E-02	1.733832E-04
4.340857E+03	1.366793E-02	1.779161E-04
4.350813E+03	1.403462E-02	1.813579E-04
4.360769E+03	1.428472E-02	1.832759E-04
4.370725E+03	1.439443E-02	1.834022E-04
4.380681E+03	1.437078E-02	1.818654E-04
4.390637E+03	1.425093E-02	1.791679E-04
4.400593E+03	1.408339E-02	1.759396E-04
4.410549E+03	1.391557E-02	1.727798E-04
4.420506E+03	1.379005E-02	1.702135E-04
4.430462E+03	1.374259E-02	1.686698E-04
4.440418E+03	1.380337E-02	1.685008E-04
4.450374E+03	1.399593E-02	1.699704E-04
4.460330E+03	1.433852E-02	1.732749E-04
4.470286E+03	1.484367E-02	1.785396E-04
4.480242E+03	1.551712E-02	1.858088E-04
4.490198E+03	1.635558E-02	1.950207E-04
4.500154E+03	1.734432E-02	2.059807E-04
4.510110E+03	1.845578E-02	2.183472E-04
4.520067E+03	1.964794E-02	2.316150E-04
4.530023E+03	2.086680E-02	2.451465E-04
4.539979E+03	2.204836E-02	2.581953E-04
4.549935E+03	2.312668E-02	2.700013E-04
4.559891E+03	2.403846E-02	2.798433E-04
4.569847E+03	2.473285E-02	2.871505E-04
4.579803E+03	2.517621E-02	2.915552E-04
4.589759E+03	2.535379E-02	2.929089E-04
4.599715E+03	2.527173E-02	2.913028E-04
4.609671E+03	2.495344E-02	2.870230E-04
4.619627E+03	2.443513E-02	2.804987E-04
4.629584E+03	2.376202E-02	2.722570E-04
4.639540E+03	2.298343E-02	2.628672E-04
4.649496E+03	2.214938E-02	2.529014E-04
4.659452E+03	2.130692E-02	2.428945E-04
4.669408E+03	2.049657E-02	2.333035E-04
4.679364E+03	1.975233E-02	2.245091E-04
4.689320E+03	1.910047E-02	2.168027E-04
4.699276E+03	1.856046E-02	2.103974E-04
4.709232E+03	1.814785E-02	2.054617E-04
4.719188E+03	1.787435E-02	2.021206E-04
4.729144E+03	1.774814E-02	2.004588E-04
4.739101E+03	1.777367E-02	2.005193E-04
4.749057E+03	1.795084E-02	2.022940E-04
4.759013E+03	1.827632E-02	2.057386E-04
4.768969E+03	1.874257E-02	2.107616E-04
4.778925E+03	1.933641E-02	2.172082E-04
4.788881E+03	2.003890E-02	2.248599E-04
4.798837E+03	2.082434E-02	2.334229E-04
4.808793E+03	2.165963E-02	2.425216E-04
4.818749E+03	2.250630E-02	2.517219E-04
4.828705E+03	2.332178E-02	2.605453E-04
4.838662E+03	2.406471E-02	2.685290E-04
4.848618E+03	2.469803E-02	2.752606E-04
4.858574E+03	2.519468E-02	2.804410E-04
4.868530E+03	2.553974E-02	2.839076E-04
4.878486E+03	2.573147E-02	2.856459E-04
4.888442E+03	2.578166E-02	2.857921E-04
4.898398E+03	2.571027E-02	2.845726E-04
4.908354E+03	2.554305E-02	2.822770E-04
4.918310E+03	2.530586E-02	2.791952E-04
4.928266E+03	2.501950E-02	2.755599E-04
4.938222E+03	2.469581E-02	2.715039E-04
4.948179E+03	2.433606E-02	2.670437E-04
4.958135E+03	2.393223E-02	2.620942E-04
4.968091E+03	2.347143E-02	2.565179E-04
4.978047E+03	2.293908E-02	2.501609E-04
4.988003E+03	2.232596E-02	2.429291E-04
4.997959E+03	2.163199E-02	2.348291E-04
5.007915E+03	2.086910E-02	2.259984E-04
5.017871E+03	2.006298E-02	2.167221E-04
5.027827E+03	1.925020E-02	2.074000E-04
5.037783E+03	1.847479E-02	1.985086E-04
5.047739E+03	1.778103E-02	1.905212E-04
5.057696E+03	1.720678E-02	1.838374E-04
5.067652E+03	1.678041E-02	1.787502E-04
5.077608E+03	1.651983E-02	1.754373E-04
5.087564E+03	1.643300E-02	1.739682E-04
5.097520E+03	1.651881E-02	1.743144E-04
5.107476E+03	1.676725E-02	1.763537E-04
5.117432E+03	1.716004E-02	1.798777E-04
5.127388E+03	1.766932E-02	1.845804E-04
5.137344E+03	1.825993E-02	1.900832E-04
5.147300E+03	1.888971E-02	1.959401E-04
5.157256E+03	1.951476E-02	2.016936E-04
5.167213E+03	2.009384E-02	2.069198E-04
5.177169E+03	2.059516E-02	2.112991E-04
5.187125E+03	2.100172E-02	2.146676E-04
5.197081E+03	2.131153E-02	2.170176E-04
5.207037E+03	2.153636E-02	2.184813E-04
5.216993E+03	2.169554E-02	2.192660E-04
5.226949E+03	2.181281E-02	2.196202E-04
5.236905E+03	2.191071E-02	2.197771E-04
5.246861E+03	2.200753E-02	2.199242E-04
5.256817E+03	2.211397E-02	2.201703E-04
5.266774E+03	2.223372E-02	2.205541E-04
5.276730E+03	2.236214E-02	2.210305E-04
5.286686E+03	2.248738E-02	2.214853E-04
5.296642E+03	2.259321E-02	2.217623E-04
5.306598E+03	2.266026E-02	2.216771E-04
5.316554E+03	2.266934E-02	2.210498E-04
5.326510E+03	2.260572E-02	2.197454E-04
5.336466E+03	2.246160E-02	2.176976E-04
5.346422E+03	2.223733E-02	2.149191E-04
5.356378E+03	2.194302E-02	2.115158E-04
5.366334E+03	2.159721E-02	2.076726E-04
5.376291E+03	2.122512E-02	2.036360E-04
5.386247E+03	2.085579E-02	1.996864E-04
5.396203E+03	2.051861E-02	1.961049E-04
5.406159E+03	2.023906E-02	1.931330E-04
5.416115E+03	2.003207E-02	1.909112E-04
5.426071E+03	1.989993E-02	1.894593E-04
5.436027E+03	1.983343E-02	1.886885E-04
5.445983E+03	1.981349E-02	1.884177E-04
5.455939E+03	1.981469E-02	1.884050E-04
5.465895E+03	1.980949E-02	1.883860E-04
5.475851E+03	1.976921E-02	1.880853E-04
5.485808E+03	1.966912E-02	1.872641E-04
5.495764E+03	1.949465E-02	1.857792E-04
5.505720E+03	1.924826E-02	1.836479E-04
5.515676E+03	1.894902E-02	1.810459E-04
5.525632E+03	1.862711E-02	1.782554E-04
5.535588E+03	1.831650E-02	1.755965E-04
5.545544E+03	1.804972E-02	1.733780E-04
5.555500E+03	1.785288E-02	1.718501E-04
5.565456E+03	1.774216E-02	1.711694E-04
5.575412E+03	1.772410E-02	1.714023E-04
5.585369E+03	1.779505E-02	1.725170E-04
5.595325E+03	1.794245E-02	1.743958E-04
5.605281E+03	1.814727E-02	1.768569E-04
5.615237E+03	1.838615E-02	1.796749E-04
5.625193E+03	1.863395E-02	1.826042E-04
5.635149E+03	1.886705E-02	1.854115E-04
5.645105E+03	1.906532E-02	1.878953E-04
5.655061E+03	1.921348E-02	1.898996E-04
5.665017E+03	1.930235E-02	1.913273E-04
5.674973E+03	1.932863E-02	1.921383E-04
5.684929E+03	1.929398E-02	1.923418E-04
5.694886E+03	1.920447E-02	1.919916E-04
5.704842E+03	1.906974E-02	1.911777E-04
5.714798E+03	1.890132E-02	1.900109E-04
5.724754E+03	1.871289E-02	1.886247E-04
5.734710E+03	1.851897E-02	1.871629E-04
5.744666E+03	1.833407E-02	1.857712E-04
5.754622E+03	1.817167E-02	1.845859E-04
5.764578E+03	1.804362E-02	1.837290E-04
5.774534E+03	1.795821E-02	1.832863E-04
5.784490E+03	1.792021E-02	1.833092E-04
5.794446E+03	1.793048E-02	1.838085E-04
5.804403E+03	1.798537E-02	1.847492E-04
5.814359E+03	1.807730E-02	1.860550E-04
5.824315E+03	1.819578E-02	1.876190E-04
5.834271E+03	1.832848E-02	1.893144E-04
5.844227E+03	1.846184E-02	1.910003E-04
5.854183E+03	1.858344E-02	1.925473E-04
5.864139E+03	1.868339E-02	1.938513E-04
5.874095E+03	1.875462E-02	1.948373E-04
5.884051E+03	1.879385E-02	1.954693E-04
5.894007E+03	1.880082E-02	1.957433E-04
5.903964E+03	1.877679E-02	1.956710E-04
5.913920E+03	1.872481E-02	1.952835E-04
5.923876E+03	1.864812E-02	1.946140E-04
5.933832E+03	1.855023E-02	1.936992E-04
5.943788E+03	1.843468E-02	1.925761E-04
5.953744E+03	1.830494E-02	1.912814E-04
5.963700E+03	1.816500E-02	1.898575E-04
5.973656E+03	1.801918E-02	1.883502E-04
5.983612E+03	1.787208E-02	1.868088E-04
5.993568E+03	1.772796E-02	1.852787E-04
6.003524E+03	1.759127E-02	1.838075E-04
6.013481E+03	1.746477E-02	1.824249E-04
6.023437E+03	1.734954E-02	1.811433E-04
6.033393E+03	1.724498E-02	1.799575E-04
6.043349E+03	1.714897E-02	1.788463E-04
6.053305E+03	1.705778E-02	1.777718E-04
6.063261E+03	1.696755E-02	1.766949E-04
6.073217E+03	1.687532E-02	1.755860E-04
6.083173E+03	1.678000E-02	1.744352E-04
6.093129E+03	1.668281E-02	1.732565E-04
6.103085E+03	1.658741E-02	1.720893E-04
6.113041E+03	1.649869E-02	1.709857E-04
6.122998E+03	1.642207E-02	1.700030E-04
6.132954E+03	1.636120E-02	1.691799E-04
6.142910E+03	1.631596E-02	1.685161E-04
6.152866E+03	1.628278E-02	1.679758E-04
6.162822E+03	1.625453E-02	1.674865E-04
6.172778E+03	1.622497E-02	1.669853E-04
6.182734E+03	1.619193E-02	1.664518E-04
6.192690E+03	1.615302E-02	1.658629E-04
6.202646E+03	1.610535E-02	1.651910E-04
6.212602E+03	1.604550E-02	1.644022E-04
6.222559E+03	1.596917E-02	1.634545E-04
6.232515E+03	1.587233E-02	1.623081E-04
6.242471E+03	1.575015E-02	1.609157E-04
6.252427E+03	1.559678E-02	1.592192E-04
6.262383E+03	1.540505E-02	1.571474E-04
6.272339E+03	1.516758E-02	1.546267E-04
6.282295E+03	1.487749E-02	1.515887E-04
6.292251E+03	1.453021E-02	1.479881E-04
6.302207E+03	1.412484E-02	1.438168E-04
6.312163E+03	1.366684E-02	1.391306E-04
6.322119E+03	1.316843E-02	1.340536E-04
6.332076E+03	1.264952E-02	1.287877E-04
6.342032E+03	1.213700E-02	1.236054E-04
6.351988E+03	1.166319E-02	1.188347E-04
6.361944E+03	1.126313E-02	1.148322E-04
6.371900E+03	1.097174E-02	1.119543E-04
6.381856E+03	1.082166E-02	1.105367E-04
6.391812E+03	1.084199E-02	1.108813E-04
6.401768E+03	1.105568E-02	1.132311E-04
6.411724E+03	1.147893E-02	1.177632E-04
6.421680E+03	1.212094E-02	1.245870E-04
6.431636E+03	1.298473E-02	1.337522E-04
6.441593E+03	1.406508E-02	1.452262E-04
6.451549E+03	1.534716E-02	1.588779E-04
6.461505E+03	1.680897E-02	1.745025E-04
6.471461E+03	1.842725E-02	1.918814E-04
6.481417E+03	2.019435E-02	2.109575E-04
6.491373E+03	2.213401E-02	2.320025E-04
6.501329E+03	2.428914E-02	2.554945E-04
6.511285E+03	2.662881E-02	2.811388E-04
6.521241E+03	2.898997E-02	3.072372E-04
6.531197E+03	3.114853E-02	3.314150E-04
6.541154E+03	3.290089E-02	3.514769E-04
6.551110E+03	3.411117E-02	3.659153E-04
6.561066E+03	3.473253E-02	3.741536E-04
6.571022E+03	3.479786E-02	3.764654E-04
6.580978E+03	3.439247E-02	3.736967E-04
6.590934E+03	3.362368E-02	3.669474E-04
6.600890E+03	3.259813E-02	3.573290E-04
6.610846E+03	3.140892E-02	3.458241E-04
6.620802E+03	3.012875E-02	3.332080E-04
6.630758E+03	2.881336E-02	3.200817E-04
6.640714E+03	2.750194E-02	3.068737E-04
6.650671E+03	2.622405E-02	2.939126E-04
6.660627E+03	2.500031E-02	2.814329E-04
6.670583E+03	2.384627E-02	2.696162E-04
6.680539E+03	2.277364E-02	2.586044E-04
6.690495E+03	2.178933E-02	2.484870E-04
6.700451E+03	2.089727E-02	2.393211E-04
6.710407E+03	2.009654E-02	2.311090E-04
6.720363E+03	1.938315E-02	2.238172E-04
6.730319E+03	1.875045E-02	2.173809E-04
6.740275E+03	1.818999E-02	2.117127E-04
6.750231E+03	1.769204E-02	2.067090E-04
6.760188E+03	1.724731E-02	2.022692E-04
6.770144E+03	1.684626E-02	1.982880E-04
6.780100E+03	1.648058E-02	1.946730E-04
6.790056E+03	1.614460E-02	1.913616E-04
6.800012E+03	1.583413E-02	1.883078E-04
6.809968E+03	1.554782E-02	1.854986E-04
6.819924E+03	1.528659E-02	1.829482E-04
6.829880E+03	1.505276E-02	1.806873E-04
6.839836E+03	1.484913E-02	1.787529E-04
6.849792E+03	1.467851E-02	1.771819E-04
6.859749E+03	1.454280E-02	1.760012E-04
6.869705E+03	1.444173E-02	1.752103E-04
6.879661E+03	1.437371E-02	1.747931E-04
6.889617E+03	1.433424E-02	1.746975E-04
6.899573E+03	1.431692E-02	1.748472E-04
6.909529E+03	1.431361E-02	1.751439E-04
6.919485E+03	1.431517E-02	1.754763E-04
6.929441E+03	1.431236E-02	1.757307E-04
6.939397E+03	1.429775E-02	1.758153E-04
6.949353E+03	1.426592E-02	1.756625E-04
6.959309E+03	1.421457E-02	1.752429E-04
6.969266E+03	1.414350E-02	1.745534E-04
6.979222E+03	1.405512E-02	1.736229E-04
6.989178E+03	1.395307E-02	1.724963E-04
6.999134E+03	1.384226E-02	1.712343E-04
7.009090E+03	1.372811E-02	1.699044E-04
7.019046E+03	1.361592E-02	1.685726E-04
7.029002E+03	1.351126E-02	1.673086E-04
7.038958E+03	1.341849E-02	1.661669E-04
7.048914E+03	1.334119E-02	1.651925E-04
7.058870E+03	1.328243E-02	1.644238E-04
7.068826E+03	1.324382E-02	1.638810E-04
7.078783E+03	1.322608E-02	1.635729E-04
7.088739E+03	1.322820E-02	1.634871E-04
7.098695E+03	1.324725E-02	1.635869E-04
7.108651E+03	1.327983E-02	1.638301E-04
7.118607E+03	1.332130E-02	1.641590E-04
7.128563E+03	1.336723E-02	1.645189E-04
7.138519E+03	1.341278E-02	1.648501E-04
7.148475E+03	1.345422E-02	1.651071E-04
7.158431E+03	1.348834E-02	1.652510E-04
7.168387E+03	1.351279E-02	1.652536E-04
7.178344E+03	1.352611E-02	1.650981E-04
7.188300E+03	1.352749E-02	1.647762E-04
7.198256E+03	1.351755E-02	1.642964E-04
7.208212E+03	1.349638E-02	1.636617E-04
7.218168E+03	1.346569E-02	1.628942E-04
7.228124E+03	1.342595E-02	1.620011E-04
7.238080E+03	1.337830E-02	1.609981E-04
7.248036E+03	1.332304E-02	1.598902E-04
7.257992E+03	1.325966E-02	1.586731E-04
7.267948E+03	1.318834E-02	1.573507E-04
7.277904E+03	1.310894E-02	1.559235E-04
7.287861E+03	1.302123E-02	1.543904E-04
7.297817E+03	1.292597E-02	1.527626E-04
7.307773E+03	1.282443E-02	1.510573E-04
7.317729E+03	1.271794E-02	1.492917E-04
7.327685E+03	1.260909E-02	1.474981E-04
7.337641E+03	1.250106E-02	1.457152E-04
7.347597E+03	1.239663E-02	1.439761E-04
7.357553E+03	1.229881E-02	1.423167E-04
7.367509E+03	1.220995E-02	1.407644E-04
7.377465E+03	1.213109E-02	1.393309E-04
7.387421E+03	1.206334E-02	1.380291E-04
7.397378E+03	1.200668E-02	1.368585E-04
7.407334E+03	1.196075E-02	1.358147E-04
7.417290E+03	1.192471E-02	1.348880E-04
7.427246E+03	1.189757E-02	1.340670E-04
7.437202E+03	1.187712E-02	1.333274E-04
7.447158E+03	1.186120E-02	1.326445E-04
7.457114E+03	1.184778E-02	1.319953E-04
7.467070E+03	1.183382E-02	1.313460E-04
7.477026E+03	1.181746E-02	1.306764E-04
7.486982E+03	1.179678E-02	1.299657E-04
7.496939E+03	1.176972E-02	1.291921E-04
7.506895E+03	1.173514E-02	1.283445E-04
7.516851E+03	1.169151E-02	1.274073E-04
7.526807E+03	1.163776E-02	1.263702E-04
7.536763E+03	1.157337E-02	1.252293E-04
7.546719E+03	1.149873E-02	1.239905E-04
7.556675E+03	1.141436E-02	1.226609E-04
7.566631E+03	1.132241E-02	1.212650E-04
7.576587E+03	1.122443E-02	1.198207E-04
7.586543E+03	1.112342E-02	1.183612E-04
7.596499E+03	1.102246E-02	1.169197E-04
7.606456E+03	1.092476E-02	1.155310E-04
7.616412E+03	1.083417E-02	1.142357E-04
7.626368E+03	1.075441E-02	1.130731E-04
7.636324E+03	1.068902E-02	1.120801E-04
7.646280E+03	1.064093E-02	1.112868E-04
7.656236E+03	1.061282E-02	1.107207E-04
7.666192E+03	1.060566E-02	1.103915E-04
7.676148E+03	1.061903E-02	1.102946E-04
7.686104E+03	1.065140E-02	1.104140E-04
7.696060E+03	1.069904E-02	1.107116E-04
7.706016E+03	1.075732E-02	1.111406E-04
7.715973E+03	1.082053E-02	1.116433E-04
7.725929E+03	1.088378E-02	1.121712E-04
