#wls	flux	fluxerr
1.592975E+03	4.108943E-04	2.923749E-05
1.632799E+03	3.962362E-04	2.803978E-05
1.672624E+03	3.829918E-04	2.694946E-05
1.712448E+03	3.713007E-04	2.597494E-05
1.752272E+03	3.616502E-04	2.514846E-05
1.792097E+03	3.543442E-04	2.448869E-05
1.831921E+03	3.497249E-04	2.401627E-05
1.871746E+03	3.480741E-04	2.374698E-05
1.911570E+03	3.500866E-04	2.372391E-05
1.951394E+03	3.559768E-04	2.395635E-05
1.991219E+03	3.663244E-04	2.447734E-05
2.031043E+03	3.814412E-04	2.530079E-05
2.070867E+03	4.013831E-04	2.642285E-05
2.110692E+03	4.262976E-04	2.784520E-05
2.150516E+03	4.558264E-04	2.953617E-05
2.190341E+03	4.892638E-04	3.144212E-05
2.230165E+03	5.255809E-04	3.349009E-05
2.269989E+03	5.638250E-04	3.561390E-05
2.309814E+03	6.026260E-04	3.772323E-05
2.349638E+03	6.410713E-04	3.975911E-05
2.389462E+03	6.784381E-04	4.167638E-05
2.429287E+03	7.147341E-04	4.347605E-05
2.469111E+03	7.498924E-04	4.515467E-05
2.508936E+03	7.846921E-04	4.675949E-05
2.548760E+03	8.200140E-04	4.834180E-05
2.588584E+03	8.568666E-04	4.995809E-05
2.628409E+03	8.964115E-04	5.167100E-05
2.668233E+03	9.395032E-04	5.352241E-05
2.708057E+03	9.868308E-04	5.554239E-05
2.747882E+03	1.039165E-03	5.776339E-05
2.787706E+03	1.097301E-03	6.021666E-05
2.827531E+03	1.162155E-03	6.293743E-05
2.867355E+03	1.234829E-03	6.596787E-05
2.907179E+03	1.316847E-03	6.936850E-05
2.947004E+03	1.409810E-03	7.319885E-05
2.986828E+03	1.515837E-03	7.753946E-05
2.996784E+03	1.544890E-03	7.872613E-05
3.006740E+03	1.574686E-03	7.993816E-05
3.016696E+03	1.605665E-03	8.119726E-05
3.026652E+03	1.637866E-03	8.250472E-05
3.036609E+03	1.671129E-03	8.385161E-05
3.046565E+03	1.705492E-03	8.523927E-05
3.056521E+03	1.741418E-03	8.668992E-05
3.066477E+03	1.778539E-03	8.818442E-05
3.076433E+03	1.817116E-03	8.973477E-05
3.086389E+03	1.857201E-03	9.134268E-05
3.096345E+03	1.898639E-03	9.299949E-05
3.106301E+03	1.941914E-03	9.472798E-05
3.116257E+03	1.986874E-03	9.651958E-05
3.126213E+03	2.033364E-03	9.836563E-05
3.136169E+03	2.082106E-03	1.002999E-04
3.146126E+03	2.132506E-03	1.022926E-04
3.156082E+03	2.184852E-03	1.043562E-04
3.166038E+03	2.239664E-03	1.065141E-04
3.175994E+03	2.296333E-03	1.087360E-04
3.185950E+03	2.355379E-03	1.110452E-04
3.195906E+03	2.416873E-03	1.134433E-04
3.205862E+03	2.480643E-03	1.159208E-04
3.215818E+03	2.546982E-03	1.184896E-04
3.225774E+03	2.615943E-03	1.211507E-04
3.235730E+03	2.687573E-03	1.239042E-04
3.245687E+03	2.761906E-03	1.267502E-04
3.255643E+03	2.838966E-03	1.296877E-04
3.265599E+03	2.919010E-03	1.327268E-04
3.275555E+03	3.001529E-03	1.358422E-04
3.285511E+03	3.086996E-03	1.390537E-04
3.295467E+03	3.175108E-03	1.423456E-04
3.305423E+03	3.266049E-03	1.457243E-04
3.315379E+03	3.359723E-03	1.491837E-04
3.325335E+03	3.455741E-03	1.527046E-04
3.335291E+03	3.554216E-03	1.562904E-04
3.345247E+03	3.654695E-03	1.599196E-04
3.355204E+03	3.757520E-03	1.636056E-04
3.365160E+03	3.862182E-03	1.673247E-04
3.375116E+03	3.968412E-03	1.710640E-04
3.385072E+03	4.075907E-03	1.748094E-04
3.395028E+03	4.184598E-03	1.785570E-04
3.404984E+03	4.293819E-03	1.822776E-04
3.414940E+03	4.403129E-03	1.859521E-04
3.424896E+03	4.512350E-03	1.895730E-04
3.434852E+03	4.620995E-03	1.931197E-04
3.444808E+03	4.728305E-03	1.965611E-04
3.454764E+03	4.834495E-03	1.999068E-04
3.464721E+03	4.938678E-03	2.031211E-04
3.474677E+03	5.041311E-03	2.062239E-04
3.484633E+03	5.141844E-03	2.091937E-04
3.494589E+03	5.241136E-03	2.120667E-04
3.504545E+03	5.339318E-03	2.148491E-04
3.514501E+03	5.437336E-03	2.175792E-04
3.524457E+03	5.535721E-03	2.202784E-04
3.534413E+03	5.635513E-03	2.229875E-04
3.544369E+03	5.738266E-03	2.257667E-04
3.554325E+03	5.845442E-03	2.286712E-04
3.564282E+03	5.958735E-03	2.317640E-04
3.574238E+03	6.080137E-03	2.351178E-04
3.584194E+03	6.211930E-03	2.388151E-04
3.594150E+03	6.356644E-03	2.429454E-04
3.604106E+03	6.516934E-03	2.476008E-04
3.614062E+03	6.695286E-03	2.528649E-04
3.624018E+03	6.893945E-03	2.588096E-04
3.633974E+03	7.113609E-03	2.654471E-04
3.643930E+03	7.354359E-03	2.727664E-04
3.653886E+03	7.614381E-03	2.806862E-04
3.663842E+03	7.889552E-03	2.890424E-04
3.673799E+03	8.174203E-03	2.976184E-04
3.683755E+03	8.459972E-03	3.061053E-04
3.693711E+03	8.736123E-03	3.141164E-04
3.703667E+03	8.990119E-03	3.212103E-04
3.713623E+03	9.208706E-03	3.269316E-04
3.723579E+03	9.379283E-03	3.308599E-04
3.733535E+03	9.491534E-03	3.326664E-04
3.743491E+03	9.539865E-03	3.321962E-04
3.753447E+03	9.524043E-03	3.294849E-04
3.763403E+03	9.450601E-03	3.248006E-04
3.773359E+03	9.330928E-03	3.185716E-04
3.783316E+03	9.181475E-03	3.113874E-04
3.793272E+03	9.021634E-03	3.039216E-04
3.803228E+03	8.871064E-03	2.968393E-04
3.813184E+03	8.748446E-03	2.907550E-04
3.823140E+03	8.671412E-03	2.862318E-04
3.833096E+03	8.654818E-03	2.837261E-04
3.843052E+03	8.711762E-03	2.836232E-04
3.853008E+03	8.852759E-03	2.862135E-04
3.862964E+03	9.086790E-03	2.917285E-04
3.872920E+03	9.420098E-03	3.003047E-04
3.882877E+03	9.856128E-03	3.119843E-04
3.892833E+03	1.039575E-02	3.267256E-04
3.902789E+03	1.103490E-02	3.443325E-04
3.912745E+03	1.176483E-02	3.644679E-04
3.922701E+03	1.256992E-02	3.865910E-04
3.932657E+03	1.342935E-02	4.100165E-04
3.942613E+03	1.431540E-02	4.338693E-04
3.952569E+03	1.519479E-02	4.571313E-04
3.962525E+03	1.603295E-02	4.787763E-04
3.972481E+03	1.679545E-02	4.978130E-04
3.982437E+03	1.745183E-02	5.133970E-04
3.992394E+03	1.797855E-02	5.249132E-04
4.002350E+03	1.836196E-02	5.320536E-04
4.012306E+03	1.859689E-02	5.347654E-04
4.022262E+03	1.868733E-02	5.332614E-04
4.032218E+03	1.864434E-02	5.279515E-04
4.042174E+03	1.848372E-02	5.193669E-04
4.052130E+03	1.822304E-02	5.080755E-04
4.062086E+03	1.788040E-02	4.946436E-04
4.072042E+03	1.747224E-02	4.795750E-04
4.081998E+03	1.701041E-02	4.632351E-04
4.091954E+03	1.650509E-02	4.459328E-04
4.101911E+03	1.596354E-02	4.278907E-04
4.111867E+03	1.539317E-02	4.093275E-04
4.121823E+03	1.480015E-02	3.904239E-04
4.131779E+03	1.419299E-02	3.714156E-04
4.141735E+03	1.358159E-02	3.525675E-04
4.151691E+03	1.297778E-02	3.341855E-04
4.161647E+03	1.239570E-02	3.166247E-04
4.171603E+03	1.185129E-02	3.002737E-04
4.181559E+03	1.136009E-02	2.854988E-04
4.191515E+03	1.093538E-02	2.725967E-04
4.201472E+03	1.058790E-02	2.617913E-04
4.211428E+03	1.032536E-02	2.532239E-04
4.221384E+03	1.015262E-02	2.469610E-04
4.231340E+03	1.007153E-02	2.429931E-04
4.241296E+03	1.008150E-02	2.412518E-04
4.251252E+03	1.018004E-02	2.416253E-04
4.261208E+03	1.036302E-02	2.439651E-04
4.271164E+03	1.062409E-02	2.480758E-04
4.281120E+03	1.095508E-02	2.537254E-04
4.291076E+03	1.134590E-02	2.606442E-04
4.301032E+03	1.178326E-02	2.684990E-04
4.310989E+03	1.225030E-02	2.768857E-04
4.320945E+03	1.272525E-02	2.853033E-04
4.330901E+03	1.318300E-02	2.931930E-04
4.340857E+03	1.359432E-02	2.999229E-04
4.350813E+03	1.393040E-02	3.048904E-04
4.360769E+03	1.416743E-02	3.076215E-04
4.370725E+03	1.429436E-02	3.079322E-04
4.380681E+03	1.431810E-02	3.060286E-04
4.390637E+03	1.426406E-02	3.025026E-04
4.400593E+03	1.416909E-02	2.981690E-04
4.410549E+03	1.407318E-02	2.938833E-04
4.420506E+03	1.401549E-02	2.904574E-04
4.430462E+03	1.403004E-02	2.885730E-04
4.440418E+03	1.414592E-02	2.887913E-04
4.450374E+03	1.438618E-02	2.915335E-04
4.460330E+03	1.476906E-02	2.971122E-04
4.470286E+03	1.530600E-02	3.056949E-04
4.480242E+03	1.600273E-02	3.173319E-04
4.490198E+03	1.685568E-02	3.318895E-04
4.500154E+03	1.784982E-02	3.490141E-04
4.510110E+03	1.895695E-02	3.681065E-04
4.520067E+03	2.013631E-02	3.883425E-04
4.530023E+03	2.133460E-02	4.086799E-04
4.539979E+03	2.248954E-02	4.279342E-04
4.549935E+03	2.353627E-02	4.449026E-04
4.559891E+03	2.441444E-02	4.584991E-04
4.569847E+03	2.507507E-02	4.678765E-04
4.579803E+03	2.548463E-02	4.724953E-04
4.589759E+03	2.563026E-02	4.722095E-04
4.599715E+03	2.551797E-02	4.672213E-04
4.609671E+03	2.517144E-02	4.580485E-04
4.619627E+03	2.462707E-02	4.454248E-04
4.629584E+03	2.393041E-02	4.302308E-04
4.639540E+03	2.313124E-02	4.134005E-04
4.649496E+03	2.228065E-02	3.958690E-04
4.659452E+03	2.142649E-02	3.784917E-04
4.669408E+03	2.060981E-02	3.619855E-04
4.679364E+03	1.986528E-02	3.469393E-04
4.689320E+03	1.921958E-02	3.337904E-04
4.699276E+03	1.869336E-02	3.228626E-04
4.709232E+03	1.830170E-02	3.143774E-04
4.719188E+03	1.805639E-02	3.084953E-04
4.729144E+03	1.796486E-02	3.053007E-04
4.739101E+03	1.803103E-02	3.048170E-04
4.749057E+03	1.825556E-02	3.070126E-04
4.759013E+03	1.863523E-02	3.117927E-04
4.768969E+03	1.916101E-02	3.189674E-04
4.778925E+03	1.981901E-02	3.282705E-04
4.788881E+03	2.058780E-02	3.393165E-04
4.798837E+03	2.143844E-02	3.516050E-04
4.808793E+03	2.233411E-02	3.645164E-04
4.818749E+03	2.323156E-02	3.773390E-04
4.828705E+03	2.408408E-02	3.893182E-04
4.838662E+03	2.484588E-02	3.997286E-04
4.848618E+03	2.547757E-02	4.079609E-04
4.858574E+03	2.595354E-02	4.136358E-04
4.868530E+03	2.626244E-02	4.166084E-04
4.878486E+03	2.640721E-02	4.169610E-04
4.888442E+03	2.640444E-02	4.149892E-04
4.898398E+03	2.627953E-02	4.111217E-04
4.908354E+03	2.606193E-02	4.058419E-04
4.918310E+03	2.577991E-02	3.996062E-04
4.928266E+03	2.545757E-02	3.927989E-04
4.938222E+03	2.510708E-02	3.856142E-04
4.948179E+03	2.472788E-02	3.780480E-04
4.958135E+03	2.430963E-02	3.699478E-04
4.968091E+03	2.383726E-02	3.610925E-04
4.978047E+03	2.329600E-02	3.512696E-04
4.988003E+03	2.267508E-02	3.403311E-04
4.997959E+03	2.197541E-02	3.283062E-04
5.007915E+03	2.121183E-02	3.154316E-04
5.017871E+03	2.041123E-02	3.021175E-04
5.027827E+03	1.961027E-02	2.889113E-04
5.037783E+03	1.885146E-02	2.764361E-04
5.047739E+03	1.817707E-02	2.652996E-04
5.057696E+03	1.762256E-02	2.559997E-04
5.067652E+03	1.721391E-02	2.488871E-04
5.077608E+03	1.696829E-02	2.441787E-04
5.087564E+03	1.689289E-02	2.419449E-04
5.097520E+03	1.698525E-02	2.421158E-04
5.107476E+03	1.723409E-02	2.444978E-04
5.117432E+03	1.762066E-02	2.487951E-04
5.127388E+03	1.811732E-02	2.545922E-04
5.137344E+03	1.868886E-02	2.613758E-04
5.147300E+03	1.929643E-02	2.685915E-04
5.157256E+03	1.989948E-02	2.756719E-04
5.167213E+03	2.046138E-02	2.821146E-04
5.177169E+03	2.095354E-02	2.875370E-04
5.187125E+03	2.136135E-02	2.917555E-04
5.197081E+03	2.168283E-02	2.947617E-04
5.207037E+03	2.192699E-02	2.966956E-04
5.216993E+03	2.211010E-02	2.977934E-04
5.226949E+03	2.225200E-02	2.983347E-04
5.236905E+03	2.237233E-02	2.985911E-04
5.246861E+03	2.248609E-02	2.987682E-04
5.256817E+03	2.260292E-02	2.989968E-04
5.266774E+03	2.272588E-02	2.993193E-04
5.276730E+03	2.285047E-02	2.996780E-04
5.286686E+03	2.296592E-02	2.999347E-04
5.296642E+03	2.305722E-02	2.998985E-04
5.306598E+03	2.310656E-02	2.993451E-04
5.316554E+03	2.309632E-02	2.980565E-04
5.326510E+03	2.301331E-02	2.958742E-04
5.336466E+03	2.285134E-02	2.927315E-04
5.346422E+03	2.261246E-02	2.886671E-04
5.356378E+03	2.230757E-02	2.838310E-04
5.366334E+03	2.195538E-02	2.784694E-04
5.376291E+03	2.158043E-02	2.728983E-04
5.386247E+03	2.121040E-02	2.674689E-04
5.396203E+03	2.087318E-02	2.625313E-04
5.406159E+03	2.059297E-02	2.583852E-04
5.416115E+03	2.038379E-02	2.552012E-04
5.426071E+03	2.024667E-02	2.529860E-04
5.436027E+03	2.017136E-02	2.516074E-04
5.445983E+03	2.013927E-02	2.508304E-04
5.455939E+03	2.012351E-02	2.503168E-04
5.465895E+03	2.009387E-02	2.496873E-04
5.475851E+03	2.002260E-02	2.485952E-04
5.485808E+03	1.989082E-02	2.468037E-04
5.495764E+03	1.968955E-02	2.441990E-04
5.505720E+03	1.942398E-02	2.408425E-04
5.515676E+03	1.911478E-02	2.369861E-04
5.525632E+03	1.879162E-02	2.329932E-04
5.535588E+03	1.848563E-02	2.292454E-04
5.545544E+03	1.822572E-02	2.260968E-04
5.555500E+03	1.803471E-02	2.238275E-04
5.565456E+03	1.792669E-02	2.226100E-04
5.575412E+03	1.790577E-02	2.224941E-04
5.585369E+03	1.796749E-02	2.234238E-04
5.595325E+03	1.810004E-02	2.252522E-04
5.605281E+03	1.828481E-02	2.277471E-04
5.615237E+03	1.849922E-02	2.306268E-04
5.625193E+03	1.872021E-02	2.336024E-04
5.635149E+03	1.892615E-02	2.364021E-04
5.645105E+03	1.909912E-02	2.387989E-04
5.655061E+03	1.922595E-02	2.406245E-04
5.665017E+03	1.929861E-02	2.417746E-04
5.674973E+03	1.931502E-02	2.422189E-04
5.684929E+03	1.927707E-02	2.419768E-04
5.694886E+03	1.919030E-02	2.411143E-04
5.704842E+03	1.906332E-02	2.397360E-04
5.714798E+03	1.890671E-02	2.379720E-04
5.724754E+03	1.873233E-02	2.359695E-04
5.734710E+03	1.855263E-02	2.338838E-04
5.744666E+03	1.838074E-02	2.318789E-04
5.754622E+03	1.822791E-02	2.300965E-04
5.764578E+03	1.810451E-02	2.286668E-04
5.774534E+03	1.801797E-02	2.276839E-04
5.784490E+03	1.797171E-02	2.271906E-04
5.794446E+03	1.796632E-02	2.271944E-04
5.804403E+03	1.799823E-02	2.276494E-04
5.814359E+03	1.806087E-02	2.284723E-04
5.824315E+03	1.814498E-02	2.295451E-04
5.834271E+03	1.823988E-02	2.307316E-04
5.844227E+03	1.833450E-02	2.318911E-04
5.854183E+03	1.841829E-02	2.328893E-04
5.864139E+03	1.848298E-02	2.336211E-04
5.874095E+03	1.852286E-02	2.340142E-04
5.884051E+03	1.853494E-02	2.340309E-04
5.894007E+03	1.851906E-02	2.336696E-04
5.903964E+03	1.847688E-02	2.329522E-04
5.913920E+03	1.841152E-02	2.319188E-04
5.923876E+03	1.832641E-02	2.306141E-04
5.933832E+03	1.822497E-02	2.290822E-04
5.943788E+03	1.811019E-02	2.273624E-04
5.953744E+03	1.798520E-02	2.254953E-04
5.963700E+03	1.785341E-02	2.235251E-04
5.973656E+03	1.771765E-02	2.214886E-04
5.983612E+03	1.758120E-02	2.194283E-04
5.993568E+03	1.744709E-02	2.173831E-04
6.003524E+03	1.731754E-02	2.153820E-04
6.013481E+03	1.719432E-02	2.134479E-04
6.023437E+03	1.707810E-02	2.115901E-04
6.033393E+03	1.696873E-02	2.098075E-04
6.043349E+03	1.686459E-02	2.080814E-04
6.053305E+03	1.676375E-02	2.063888E-04
6.063261E+03	1.666420E-02	2.047066E-04
6.073217E+03	1.656413E-02	2.030138E-04
6.083173E+03	1.646344E-02	2.013113E-04
6.093129E+03	1.636295E-02	1.996104E-04
6.103085E+03	1.626512E-02	1.979431E-04
6.113041E+03	1.617376E-02	1.963569E-04
6.122998E+03	1.609232E-02	1.948949E-04
6.132954E+03	1.602338E-02	1.935894E-04
6.142910E+03	1.596657E-02	1.924365E-04
6.152866E+03	1.592019E-02	1.914166E-04
6.162822E+03	1.588001E-02	1.904802E-04
6.172778E+03	1.584165E-02	1.895762E-04
6.182734E+03	1.580094E-02	1.886565E-04
6.192690E+03	1.575445E-02	1.876828E-04
6.202646E+03	1.569896E-02	1.866189E-04
6.212602E+03	1.563084E-02	1.854238E-04
6.222559E+03	1.554641E-02	1.840562E-04
6.232515E+03	1.544166E-02	1.824707E-04
6.242471E+03	1.531191E-02	1.806146E-04
6.252427E+03	1.515156E-02	1.784248E-04
6.262383E+03	1.495383E-02	1.758239E-04
6.272339E+03	1.471212E-02	1.727370E-04
6.282295E+03	1.442122E-02	1.691059E-04
6.292251E+03	1.407860E-02	1.649030E-04
6.302207E+03	1.368656E-02	1.601568E-04
6.312163E+03	1.325310E-02	1.549617E-04
6.322119E+03	1.279376E-02	1.494994E-04
6.332076E+03	1.232965E-02	1.440152E-04
6.342032E+03	1.188740E-02	1.388185E-04
6.351988E+03	1.149694E-02	1.342568E-04
6.361944E+03	1.118943E-02	1.306923E-04
6.371900E+03	1.099524E-02	1.284794E-04
6.381856E+03	1.094328E-02	1.279572E-04
6.391812E+03	1.106030E-02	1.294432E-04
6.401768E+03	1.136921E-02	1.332130E-04
6.411724E+03	1.188719E-02	1.394800E-04
6.421680E+03	1.262671E-02	1.484072E-04
6.431636E+03	1.359514E-02	1.601027E-04
6.441593E+03	1.479138E-02	1.745791E-04
6.451549E+03	1.620542E-02	1.917456E-04
6.461505E+03	1.781894E-02	2.114145E-04
6.471461E+03	1.960938E-02	2.333481E-04
6.481417E+03	2.155213E-02	2.572829E-04
6.491373E+03	2.362432E-02	2.829739E-04
6.501329E+03	2.579373E-02	3.100609E-04
6.511285E+03	2.798524E-02	3.376606E-04
6.521241E+03	3.006840E-02	3.642050E-04
6.531197E+03	3.188848E-02	3.878045E-04
6.541154E+03	3.330503E-02	4.067102E-04
6.551110E+03	3.422225E-02	4.196876E-04
6.561066E+03	3.461564E-02	4.263561E-04
6.571022E+03	3.452261E-02	4.270908E-04
6.580978E+03	3.401925E-02	4.227522E-04
6.590934E+03	3.319887E-02	4.144301E-04
6.600890E+03	3.215566E-02	4.032453E-04
6.610846E+03	3.097138E-02	3.901827E-04
6.620802E+03	2.971118E-02	3.760359E-04
6.630758E+03	2.842544E-02	3.614268E-04
6.640714E+03	2.715016E-02	3.468057E-04
6.650671E+03	2.591278E-02	3.325227E-04
6.660627E+03	2.473214E-02	3.188238E-04
6.670583E+03	2.362167E-02	3.058903E-04
6.680539E+03	2.259031E-02	2.938490E-04
6.690495E+03	2.164358E-02	2.827841E-04
6.700451E+03	2.078296E-02	2.727286E-04
6.710407E+03	2.000674E-02	2.636741E-04
6.720363E+03	1.931151E-02	2.555894E-04
6.730319E+03	1.869101E-02	2.484045E-04
6.740275E+03	1.813776E-02	2.420317E-04
6.750231E+03	1.764281E-02	2.363621E-04
6.760188E+03	1.719807E-02	2.312961E-04
6.770144E+03	1.679583E-02	2.267378E-04
6.780100E+03	1.642960E-02	2.226056E-04
6.790056E+03	1.609448E-02	2.188385E-04
6.800012E+03	1.578748E-02	2.154005E-04
6.809968E+03	1.550716E-02	2.122761E-04
6.819924E+03	1.525416E-02	2.094780E-04
6.829880E+03	1.502994E-02	2.070302E-04
6.839836E+03	1.483690E-02	2.049696E-04
6.849792E+03	1.467681E-02	2.033247E-04
6.859749E+03	1.455000E-02	2.021043E-04
6.869705E+03	1.445616E-02	2.013075E-04
6.879661E+03	1.439245E-02	2.008983E-04
6.889617E+03	1.435437E-02	2.008163E-04
6.899573E+03	1.433503E-02	2.009671E-04
6.909529E+03	1.432688E-02	2.012461E-04
6.919485E+03	1.432157E-02	2.015361E-04
6.929441E+03	1.431101E-02	2.017233E-04
6.939397E+03	1.428850E-02	2.017124E-04
6.949353E+03	1.424926E-02	2.014349E-04
6.959309E+03	1.419139E-02	2.008629E-04
6.969266E+03	1.411490E-02	1.999959E-04
6.979222E+03	1.402207E-02	1.988657E-04
6.989178E+03	1.391706E-02	1.975312E-04
6.999134E+03	1.380472E-02	1.960614E-04
7.009090E+03	1.369056E-02	1.945353E-04
7.019046E+03	1.358020E-02	1.930335E-04
7.029002E+03	1.347895E-02	1.916323E-04
7.038958E+03	1.339133E-02	1.903968E-04
7.048914E+03	1.332097E-02	1.893794E-04
7.058870E+03	1.327019E-02	1.886136E-04
7.068826E+03	1.324019E-02	1.881170E-04
7.078783E+03	1.323046E-02	1.878825E-04
7.088739E+03	1.323960E-02	1.878900E-04
7.098695E+03	1.326468E-02	1.880979E-04
7.108651E+03	1.330147E-02	1.884463E-04
7.118607E+03	1.334604E-02	1.888790E-04
7.128563E+03	1.339364E-02	1.893291E-04
7.138519E+03	1.343997E-02	1.897360E-04
7.148475E+03	1.348131E-02	1.900478E-04
7.158431E+03	1.351477E-02	1.902244E-04
7.168387E+03	1.353833E-02	1.902387E-04
7.178344E+03	1.355087E-02	1.900763E-04
7.188300E+03	1.355181E-02	1.897307E-04
7.198256E+03	1.354184E-02	1.892133E-04
7.208212E+03	1.352117E-02	1.885291E-04
7.218168E+03	1.349042E-02	1.876885E-04
7.228124E+03	1.345036E-02	1.867044E-04
7.238080E+03	1.340143E-02	1.855850E-04
7.248036E+03	1.334352E-02	1.843309E-04
7.257992E+03	1.327665E-02	1.829447E-04
7.267948E+03	1.320124E-02	1.814344E-04
7.277904E+03	1.311759E-02	1.798066E-04
7.287861E+03	1.302661E-02	1.780761E-04
7.297817E+03	1.292968E-02	1.762641E-04
7.307773E+03	1.282788E-02	1.743873E-04
7.317729E+03	1.272281E-02	1.724697E-04
7.327685E+03	1.261657E-02	1.705414E-04
7.337641E+03	1.251155E-02	1.686366E-04
7.347597E+03	1.241032E-02	1.667910E-04
7.357553E+03	1.231522E-02	1.650371E-04
7.367509E+03	1.222789E-02	1.633977E-04
7.377465E+03	1.214984E-02	1.618936E-04
7.387421E+03	1.208193E-02	1.605365E-04
7.397378E+03	1.202430E-02	1.593289E-04
7.407334E+03	1.197686E-02	1.582698E-04
7.417290E+03	1.193896E-02	1.573514E-04
7.427246E+03	1.190930E-02	1.565570E-04
7.437202E+03	1.188611E-02	1.558642E-04
7.447158E+03	1.186691E-02	1.552406E-04
7.457114E+03	1.184995E-02	1.546630E-04
7.467070E+03	1.183269E-02	1.540985E-04
7.477026E+03	1.181286E-02	1.535172E-04
7.486982E+03	1.178933E-02	1.529049E-04
7.496939E+03	1.176007E-02	1.522360E-04
7.506895E+03	1.172427E-02	1.515003E-04
7.516851E+03	1.168005E-02	1.506742E-04
7.526807E+03	1.162588E-02	1.497386E-04
7.536763E+03	1.156090E-02	1.486834E-04
7.546719E+03	1.148520E-02	1.475104E-04
7.556675E+03	1.139994E-02	1.462350E-04
7.566631E+03	1.130681E-02	1.448796E-04
7.576587E+03	1.120801E-02	1.434726E-04
7.586543E+03	1.110642E-02	1.420513E-04
7.596499E+03	1.100573E-02	1.406631E-04
7.606456E+03	1.090912E-02	1.393486E-04
7.616412E+03	1.082041E-02	1.381566E-04
7.626368E+03	1.074322E-02	1.371339E-04
7.636324E+03	1.068110E-02	1.363257E-04
7.646280E+03	1.063707E-02	1.357710E-04
7.656236E+03	1.061295E-02	1.354939E-04
7.666192E+03	1.060903E-02	1.354989E-04
7.676148E+03	1.062427E-02	1.357742E-04
7.686104E+03	1.065581E-02	1.362848E-04
7.696060E+03	1.070045E-02	1.369917E-04
7.706016E+03	1.075369E-02	1.378390E-04
7.715973E+03	1.081086E-02	1.387691E-04
7.725929E+03	1.086770E-02	1.397291E-04
