#wls	flux	fluxerr
1.592975E+03	2.063150E-04	3.105272E-06
1.632799E+03	2.033682E-04	3.054436E-06
1.672624E+03	2.011168E-04	3.014057E-06
1.712448E+03	1.997481E-04	2.986866E-06
1.752272E+03	1.993658E-04	2.974324E-06
1.792097E+03	2.000806E-04	2.977976E-06
1.831921E+03	2.020936E-04	3.000687E-06
1.871746E+03	2.055236E-04	3.044070E-06
1.911570E+03	2.104890E-04	3.109705E-06
1.951394E+03	2.170124E-04	3.197738E-06
1.991219E+03	2.252726E-04	3.310597E-06
2.031043E+03	2.354278E-04	3.450369E-06
2.070867E+03	2.475118E-04	3.617290E-06
2.110692E+03	2.614085E-04	3.809394E-06
2.150516E+03	2.770307E-04	4.025144E-06
2.190341E+03	2.944435E-04	4.265212E-06
2.230165E+03	3.133507E-04	4.525034E-06
2.269989E+03	3.336313E-04	4.802606E-06
2.309814E+03	3.549189E-04	5.092420E-06
2.349638E+03	3.769660E-04	5.390729E-06
2.389462E+03	3.996969E-04	5.696276E-06
2.429287E+03	4.229845E-04	6.007083E-06
2.469111E+03	4.466439E-04	6.320376E-06
2.508936E+03	4.708521E-04	6.638516E-06
2.548760E+03	4.958850E-04	6.965216E-06
2.588584E+03	5.218074E-04	7.301168E-06
2.628409E+03	5.490360E-04	7.651954E-06
2.668233E+03	5.782047E-04	8.026065E-06
2.708057E+03	6.093774E-04	8.423965E-06
2.747882E+03	6.432857E-04	8.855278E-06
2.787706E+03	6.805750E-04	9.328265E-06
2.827531E+03	7.218078E-04	9.849877E-06
2.867355E+03	7.676381E-04	1.042815E-05
2.907179E+03	8.191967E-04	1.107739E-05
2.947004E+03	8.776123E-04	1.181155E-05
2.986828E+03	9.440141E-04	1.264425E-05
2.996784E+03	9.621331E-04	1.287125E-05
3.006740E+03	9.809065E-04	1.310632E-05
3.016696E+03	1.000161E-03	1.334715E-05
3.026652E+03	1.020117E-03	1.359661E-05
3.036609E+03	1.040999E-03	1.385768E-05
3.046565E+03	1.062436E-03	1.412536E-05
3.056521E+03	1.084654E-03	1.440263E-05
3.066477E+03	1.107888E-03	1.469256E-05
3.076433E+03	1.131756E-03	1.499003E-05
3.086389E+03	1.156702E-03	1.530089E-05
3.096345E+03	1.182337E-03	1.561992E-05
3.106301E+03	1.209116E-03	1.595310E-05
3.116257E+03	1.236858E-03	1.629797E-05
3.126213E+03	1.265593E-03	1.665489E-05
3.136169E+03	1.295353E-03	1.702420E-05
3.146126E+03	1.326393E-03	1.740921E-05
3.156082E+03	1.358523E-03	1.780734E-05
3.166038E+03	1.391771E-03	1.821891E-05
3.175994E+03	1.426401E-03	1.864729E-05
3.185950E+03	1.462211E-03	1.908977E-05
3.195906E+03	1.499465E-03	1.954974E-05
3.205862E+03	1.537954E-03	2.002435E-05
3.215818E+03	1.577944E-03	2.051705E-05
3.225774E+03	1.619465E-03	2.102810E-05
3.235730E+03	1.662286E-03	2.155442E-05
3.245687E+03	1.706678E-03	2.209944E-05
3.255643E+03	1.752658E-03	2.266331E-05
3.265599E+03	1.800241E-03	2.324611E-05
3.275555E+03	1.849165E-03	2.384437E-05
3.285511E+03	1.899973E-03	2.446500E-05
3.295467E+03	1.952395E-03	2.510443E-05
3.305423E+03	2.006427E-03	2.576248E-05
3.315379E+03	2.062342E-03	2.644259E-05
3.325335E+03	2.119551E-03	2.713708E-05
3.335291E+03	2.178606E-03	2.785294E-05
3.345247E+03	2.239485E-03	2.858978E-05
3.355204E+03	2.301859E-03	2.934328E-05
3.365160E+03	2.365982E-03	3.011660E-05
3.375116E+03	2.431811E-03	3.090905E-05
3.385072E+03	2.499288E-03	3.171982E-05
3.395028E+03	2.568027E-03	3.254392E-05
3.404984E+03	2.638581E-03	3.338824E-05
3.414940E+03	2.710539E-03	3.424749E-05
3.424896E+03	2.783785E-03	3.512010E-05
3.434852E+03	2.858183E-03	3.600430E-05
3.444808E+03	2.933932E-03	3.690248E-05
3.454764E+03	3.010899E-03	3.781292E-05
3.464721E+03	3.088954E-03	3.873388E-05
3.474677E+03	3.167608E-03	3.965918E-05
3.484633E+03	3.247417E-03	4.059571E-05
3.494589E+03	3.327533E-03	4.153283E-05
3.504545E+03	3.408484E-03	4.247707E-05
3.514501E+03	3.490064E-03	4.342582E-05
3.524457E+03	3.571655E-03	4.437135E-05
3.534413E+03	3.653277E-03	4.531389E-05
3.544369E+03	3.734494E-03	4.624805E-05
3.554325E+03	3.814800E-03	4.716757E-05
3.564282E+03	3.894062E-03	4.807086E-05
3.574238E+03	3.971158E-03	4.894414E-05
3.584194E+03	4.047232E-03	4.980161E-05
3.594150E+03	4.122326E-03	5.064383E-05
3.604106E+03	4.198178E-03	5.149218E-05
3.614062E+03	4.276446E-03	5.236691E-05
3.624018E+03	4.358857E-03	5.328896E-05
3.633974E+03	4.446994E-03	5.427743E-05
3.643930E+03	4.542535E-03	5.535238E-05
3.653886E+03	4.645830E-03	5.651764E-05
3.663842E+03	4.757391E-03	5.777894E-05
3.673799E+03	4.875432E-03	5.911411E-05
3.683755E+03	4.998547E-03	6.050573E-05
3.693711E+03	5.124067E-03	6.192124E-05
3.703667E+03	5.249068E-03	6.332518E-05
3.713623E+03	5.369875E-03	6.467333E-05
3.723579E+03	5.482215E-03	6.591457E-05
3.733535E+03	5.582784E-03	6.700971E-05
3.743491E+03	5.668672E-03	6.792462E-05
3.753447E+03	5.738244E-03	6.864064E-05
3.763403E+03	5.791748E-03	6.916172E-05
3.773359E+03	5.830555E-03	6.950518E-05
3.783316E+03	5.858996E-03	6.972350E-05
3.793272E+03	5.882375E-03	6.988029E-05
3.803228E+03	5.908135E-03	7.006415E-05
3.813184E+03	5.943417E-03	7.035948E-05
3.823140E+03	5.996066E-03	7.085837E-05
3.833096E+03	6.074141E-03	7.165483E-05
3.843052E+03	6.184552E-03	7.282862E-05
3.853008E+03	6.334690E-03	7.446463E-05
3.862964E+03	6.529671E-03	7.662037E-05
3.872920E+03	6.773996E-03	7.934574E-05
3.882877E+03	7.070744E-03	8.267364E-05
3.892833E+03	7.420825E-03	8.661138E-05
3.902789E+03	7.823717E-03	9.114949E-05
3.912745E+03	8.275845E-03	9.624306E-05
3.922701E+03	8.772124E-03	1.018299E-04
3.932657E+03	9.302853E-03	1.077948E-04
3.942613E+03	9.856387E-03	1.140009E-04
3.952569E+03	1.041853E-02	1.202827E-04
3.962525E+03	1.097239E-02	1.264451E-04
3.972481E+03	1.150100E-02	1.322933E-04
3.982437E+03	1.198699E-02	1.376296E-04
3.992394E+03	1.241573E-02	1.422889E-04
4.002350E+03	1.277641E-02	1.461512E-04
4.012306E+03	1.305895E-02	1.491057E-04
4.022262E+03	1.325711E-02	1.510864E-04
4.032218E+03	1.336714E-02	1.520559E-04
4.042174E+03	1.338783E-02	1.520061E-04
4.052130E+03	1.332195E-02	1.509740E-04
4.062086E+03	1.317340E-02	1.490096E-04
4.072042E+03	1.294892E-02	1.461940E-04
4.081998E+03	1.265653E-02	1.426226E-04
4.091954E+03	1.230692E-02	1.384200E-04
4.101911E+03	1.191014E-02	1.337026E-04
4.111867E+03	1.147781E-02	1.286038E-04
4.121823E+03	1.102138E-02	1.232539E-04
4.131779E+03	1.055206E-02	1.177795E-04
4.141735E+03	1.008136E-02	1.123099E-04
4.151691E+03	9.619682E-03	1.069606E-04
4.161647E+03	9.177045E-03	1.018424E-04
4.171603E+03	8.762656E-03	9.705599E-05
4.181559E+03	8.384581E-03	9.268878E-05
4.191515E+03	8.049553E-03	8.881271E-05
4.201472E+03	7.762618E-03	8.548060E-05
4.211428E+03	7.528288E-03	8.273896E-05
4.221384E+03	7.348730E-03	8.060818E-05
4.231340E+03	7.224884E-03	7.909504E-05
4.241296E+03	7.156451E-03	7.819271E-05
4.251252E+03	7.141863E-03	7.788052E-05
4.261208E+03	7.177609E-03	7.811684E-05
4.271164E+03	7.259582E-03	7.885383E-05
4.281120E+03	7.381760E-03	8.002325E-05
4.291076E+03	7.537287E-03	8.154839E-05
4.301032E+03	7.717830E-03	8.333712E-05
4.310989E+03	7.913670E-03	8.528313E-05
4.320945E+03	8.114436E-03	8.727394E-05
4.330901E+03	8.308956E-03	8.918931E-05
4.340857E+03	8.486195E-03	9.091147E-05
4.350813E+03	8.636037E-03	9.233338E-05
4.360769E+03	8.750522E-03	9.337187E-05
4.370725E+03	8.826275E-03	9.399328E-05
4.380681E+03	8.865596E-03	9.422453E-05
4.390637E+03	8.876481E-03	9.415278E-05
4.400593E+03	8.872017E-03	9.391836E-05
4.410549E+03	8.868178E-03	9.369104E-05
4.420506E+03	8.882182E-03	9.365232E-05
4.430462E+03	8.931775E-03	9.398784E-05
4.440418E+03	9.035002E-03	9.488490E-05
4.450374E+03	9.209521E-03	9.652523E-05
4.460330E+03	9.472508E-03	9.908405E-05
4.470286E+03	9.840032E-03	1.027236E-04
4.480242E+03	1.032708E-02	1.075937E-04
4.490198E+03	1.094316E-02	1.137856E-04
4.500154E+03	1.168837E-02	1.212924E-04
4.510110E+03	1.255203E-02	1.299958E-04
4.520067E+03	1.351411E-02	1.396813E-04
4.530023E+03	1.454420E-02	1.500295E-04
4.539979E+03	1.560095E-02	1.606105E-04
4.549935E+03	1.663607E-02	1.709266E-04
4.559891E+03	1.760016E-02	1.804728E-04
4.569847E+03	1.844666E-02	1.887773E-04
4.579803E+03	1.913532E-02	1.954360E-04
4.589759E+03	1.963719E-02	2.001637E-04
4.599715E+03	1.993740E-02	2.028205E-04
4.609671E+03	2.003436E-02	2.034027E-04
4.619627E+03	1.993768E-02	2.020197E-04
4.629584E+03	1.966832E-02	1.988954E-04
4.639540E+03	1.925490E-02	1.943291E-04
4.649496E+03	1.873024E-02	1.886596E-04
4.659452E+03	1.813065E-02	1.822589E-04
4.669408E+03	1.749197E-02	1.754907E-04
4.679364E+03	1.684858E-02	1.687017E-04
4.689320E+03	1.623215E-02	1.622084E-04
4.699276E+03	1.566860E-02	1.562677E-04
4.709232E+03	1.517864E-02	1.510826E-04
4.719188E+03	1.477784E-02	1.468033E-04
4.729144E+03	1.447859E-02	1.435472E-04
4.739101E+03	1.428976E-02	1.413962E-04
4.749057E+03	1.421777E-02	1.404074E-04
4.759013E+03	1.426616E-02	1.406085E-04
4.768969E+03	1.443296E-02	1.419734E-04
4.778925E+03	1.471294E-02	1.444438E-04
4.788881E+03	1.509876E-02	1.479414E-04
4.798837E+03	1.557948E-02	1.523531E-04
4.808793E+03	1.614122E-02	1.575380E-04
4.818749E+03	1.676635E-02	1.633200E-04
4.828705E+03	1.743368E-02	1.694895E-04
4.838662E+03	1.811792E-02	1.757987E-04
4.848618E+03	1.879224E-02	1.819871E-04
4.858574E+03	1.942845E-02	1.877829E-04
4.868530E+03	1.999968E-02	1.929292E-04
4.878486E+03	2.048296E-02	1.972084E-04
4.888442E+03	2.086115E-02	2.004610E-04
4.898398E+03	2.112501E-02	2.026042E-04
4.908354E+03	2.127260E-02	2.036261E-04
4.918310E+03	2.131188E-02	2.036088E-04
4.928266E+03	2.125539E-02	2.026784E-04
4.938222E+03	2.111602E-02	2.009625E-04
4.948179E+03	2.090269E-02	1.985504E-04
4.958135E+03	2.062170E-02	1.955059E-04
4.968091E+03	2.027445E-02	1.918460E-04
4.978047E+03	1.985843E-02	1.875504E-04
4.988003E+03	1.936910E-02	1.825801E-04
4.997959E+03	1.880426E-02	1.769182E-04
5.007915E+03	1.816417E-02	1.705711E-04
5.017871E+03	1.745645E-02	1.636142E-04
5.027827E+03	1.670228E-02	1.562490E-04
5.037783E+03	1.593882E-02	1.488249E-04
5.047739E+03	1.520861E-02	1.417388E-04
5.057696E+03	1.455144E-02	1.353588E-04
5.067652E+03	1.400255E-02	1.300082E-04
5.077608E+03	1.358964E-02	1.259379E-04
5.087564E+03	1.333025E-02	1.233029E-04
5.097520E+03	1.322973E-02	1.221447E-04
5.107476E+03	1.328669E-02	1.224420E-04
5.117432E+03	1.349308E-02	1.241130E-04
5.127388E+03	1.383296E-02	1.270035E-04
5.137344E+03	1.428327E-02	1.308956E-04
5.147300E+03	1.481482E-02	1.355166E-04
5.157256E+03	1.539058E-02	1.405246E-04
5.167213E+03	1.596944E-02	1.455427E-04
5.177169E+03	1.651290E-02	1.502208E-04
5.187125E+03	1.699359E-02	1.543122E-04
5.197081E+03	1.739544E-02	1.576746E-04
5.207037E+03	1.771495E-02	1.602804E-04
5.216993E+03	1.796294E-02	1.622312E-04
5.226949E+03	1.815956E-02	1.637125E-04
5.236905E+03	1.832685E-02	1.649252E-04
5.246861E+03	1.848326E-02	1.660365E-04
5.256817E+03	1.864269E-02	1.671716E-04
5.266774E+03	1.881277E-02	1.683987E-04
5.276730E+03	1.899333E-02	1.697160E-04
5.286686E+03	1.917752E-02	1.710619E-04
5.296642E+03	1.935452E-02	1.723400E-04
5.306598E+03	1.951063E-02	1.734289E-04
5.316554E+03	1.963072E-02	1.741955E-04
5.326510E+03	1.970097E-02	1.745190E-04
5.336466E+03	1.971099E-02	1.743099E-04
5.346422E+03	1.965436E-02	1.735145E-04
5.356378E+03	1.953012E-02	1.721270E-04
5.366334E+03	1.934296E-02	1.701919E-04
5.376291E+03	1.910362E-02	1.678062E-04
5.386247E+03	1.882782E-02	1.651100E-04
5.396203E+03	1.853718E-02	1.622943E-04
5.406159E+03	1.825489E-02	1.595622E-04
5.416115E+03	1.800181E-02	1.570954E-04
5.426071E+03	1.779431E-02	1.550351E-04
5.436027E+03	1.764327E-02	1.534742E-04
5.445983E+03	1.755125E-02	1.524324E-04
5.455939E+03	1.750926E-02	1.518295E-04
5.465895E+03	1.749878E-02	1.515027E-04
5.475851E+03	1.749567E-02	1.512425E-04
5.485808E+03	1.747196E-02	1.508068E-04
5.495764E+03	1.740025E-02	1.499604E-04
5.505720E+03	1.726244E-02	1.485494E-04
5.515676E+03	1.705526E-02	1.465481E-04
5.525632E+03	1.678934E-02	1.440503E-04
5.535588E+03	1.648570E-02	1.412382E-04
5.545544E+03	1.617515E-02	1.383766E-04
5.555500E+03	1.589135E-02	1.357532E-04
5.565456E+03	1.566285E-02	1.336105E-04
5.575412E+03	1.551025E-02	1.321219E-04
5.585369E+03	1.544578E-02	1.313884E-04
5.595325E+03	1.547255E-02	1.314333E-04
5.605281E+03	1.558165E-02	1.321779E-04
5.615237E+03	1.575586E-02	1.334733E-04
5.625193E+03	1.597366E-02	1.351353E-04
5.635149E+03	1.620960E-02	1.369475E-04
5.645105E+03	1.643704E-02	1.386845E-04
5.655061E+03	1.663118E-02	1.401377E-04
5.665017E+03	1.677138E-02	1.411346E-04
5.674973E+03	1.684257E-02	1.415504E-04
5.684929E+03	1.683645E-02	1.413175E-04
5.694886E+03	1.675432E-02	1.404496E-04
5.704842E+03	1.660394E-02	1.390138E-04
5.714798E+03	1.639815E-02	1.371196E-04
5.724754E+03	1.615418E-02	1.349127E-04
5.734710E+03	1.589090E-02	1.325516E-04
5.744666E+03	1.562806E-02	1.302011E-04
5.754622E+03	1.538529E-02	1.280247E-04
5.764578E+03	1.518039E-02	1.261695E-04
5.774534E+03	1.502804E-02	1.247563E-04
5.784490E+03	1.493898E-02	1.238724E-04
5.794446E+03	1.491969E-02	1.235698E-04
5.804403E+03	1.497258E-02	1.238663E-04
5.814359E+03	1.509396E-02	1.247294E-04
5.824315E+03	1.527613E-02	1.260937E-04
5.834271E+03	1.550716E-02	1.278591E-04
5.844227E+03	1.577123E-02	1.298942E-04
5.854183E+03	1.604942E-02	1.320424E-04
5.864139E+03	1.632242E-02	1.341449E-04
5.874095E+03	1.657182E-02	1.360506E-04
5.884051E+03	1.678199E-02	1.376322E-04
5.894007E+03	1.694092E-02	1.387922E-04
5.903964E+03	1.704406E-02	1.394950E-04
5.913920E+03	1.709112E-02	1.397394E-04
5.923876E+03	1.708529E-02	1.395530E-04
5.933832E+03	1.703079E-02	1.389715E-04
5.943788E+03	1.693332E-02	1.380425E-04
5.953744E+03	1.679895E-02	1.368166E-04
5.963700E+03	1.663330E-02	1.353402E-04
5.973656E+03	1.644236E-02	1.336627E-04
5.983612E+03	1.623290E-02	1.318397E-04
5.993568E+03	1.601296E-02	1.299367E-04
6.003524E+03	1.579121E-02	1.280241E-04
6.013481E+03	1.557695E-02	1.261774E-04
6.023437E+03	1.537904E-02	1.244679E-04
6.033393E+03	1.520535E-02	1.229589E-04
6.043349E+03	1.506129E-02	1.216937E-04
6.053305E+03	1.494698E-02	1.206726E-04
6.063261E+03	1.485952E-02	1.198715E-04
6.073217E+03	1.479403E-02	1.192506E-04
6.083173E+03	1.474383E-02	1.187557E-04
6.093129E+03	1.470123E-02	1.183246E-04
6.103085E+03	1.466066E-02	1.179124E-04
6.113041E+03	1.461891E-02	1.174933E-04
6.122998E+03	1.457513E-02	1.170604E-04
6.132954E+03	1.453046E-02	1.166231E-04
6.142910E+03	1.448670E-02	1.161956E-04
6.152866E+03	1.444673E-02	1.158012E-04
6.162822E+03	1.441218E-02	1.154529E-04
6.172778E+03	1.438202E-02	1.151422E-04
6.182734E+03	1.435523E-02	1.148610E-04
6.192690E+03	1.433093E-02	1.146024E-04
6.202646E+03	1.430769E-02	1.143547E-04
6.212602E+03	1.428321E-02	1.140996E-04
6.222559E+03	1.425512E-02	1.138183E-04
6.232515E+03	1.422069E-02	1.134889E-04
6.242471E+03	1.417640E-02	1.130835E-04
6.252427E+03	1.411752E-02	1.125643E-04
6.262383E+03	1.403717E-02	1.118768E-04
6.272339E+03	1.392624E-02	1.109486E-04
6.282295E+03	1.377220E-02	1.096800E-04
6.292251E+03	1.355678E-02	1.079260E-04
6.302207E+03	1.326183E-02	1.055425E-04
6.312163E+03	1.287402E-02	1.024240E-04
6.322119E+03	1.238842E-02	9.853181E-05
6.332076E+03	1.181054E-02	9.391014E-05
6.342032E+03	1.116045E-02	8.871891E-05
6.351988E+03	1.047251E-02	8.323123E-05
6.361944E+03	9.787729E-03	7.777290E-05
6.371900E+03	9.149124E-03	7.268522E-05
6.381856E+03	8.600274E-03	6.831384E-05
6.391812E+03	8.179886E-03	6.496557E-05
6.401768E+03	7.921474E-03	6.290589E-05
6.411724E+03	7.857772E-03	6.239416E-05
6.421680E+03	8.024922E-03	6.371688E-05
6.431636E+03	8.457283E-03	6.714654E-05
6.441593E+03	9.179515E-03	7.287889E-05
6.451549E+03	1.021359E-02	8.108857E-05
6.461505E+03	1.158435E-02	9.197339E-05
6.471461E+03	1.331391E-02	1.057097E-04
6.481417E+03	1.541131E-02	1.223706E-04
6.491373E+03	1.785965E-02	1.418234E-04
6.501329E+03	2.059857E-02	1.635908E-04
6.511285E+03	2.349541E-02	1.866210E-04
6.521241E+03	2.634198E-02	2.092620E-04
6.531197E+03	2.889263E-02	2.295632E-04
6.541154E+03	3.090813E-02	2.456233E-04
6.551110E+03	3.221945E-02	2.560973E-04
6.561066E+03	3.279238E-02	2.607100E-04
6.571022E+03	3.270763E-02	2.600997E-04
6.580978E+03	3.210162E-02	2.553475E-04
6.590934E+03	3.111892E-02	2.476001E-04
6.600890E+03	2.989392E-02	2.379240E-04
6.610846E+03	2.853718E-02	2.271971E-04
6.620802E+03	2.712751E-02	2.160456E-04
6.630758E+03	2.571882E-02	2.048977E-04
6.640714E+03	2.434862E-02	1.940520E-04
6.650671E+03	2.304100E-02	1.837001E-04
6.660627E+03	2.181225E-02	1.739721E-04
6.670583E+03	2.067314E-02	1.649542E-04
6.680539E+03	1.963116E-02	1.567064E-04
6.690495E+03	1.869056E-02	1.492635E-04
6.700451E+03	1.785176E-02	1.426293E-04
6.710407E+03	1.711122E-02	1.367764E-04
6.720363E+03	1.646351E-02	1.316622E-04
6.730319E+03	1.590052E-02	1.272226E-04
6.740275E+03	1.541396E-02	1.233921E-04
6.750231E+03	1.499367E-02	1.200900E-04
6.760188E+03	1.463006E-02	1.172401E-04
6.770144E+03	1.431283E-02	1.147604E-04
6.780100E+03	1.403179E-02	1.125697E-04
6.790056E+03	1.377894E-02	1.106042E-04
6.800012E+03	1.354785E-02	1.088124E-04
6.809968E+03	1.333401E-02	1.071585E-04
6.819924E+03	1.313472E-02	1.056208E-04
6.829880E+03	1.294918E-02	1.041929E-04
6.839836E+03	1.277776E-02	1.028782E-04
6.849792E+03	1.262255E-02	1.016935E-04
6.859749E+03	1.248619E-02	1.006603E-04
6.869705E+03	1.237256E-02	9.981018E-05
6.879661E+03	1.228361E-02	9.915914E-05
6.889617E+03	1.222043E-02	9.871649E-05
6.899573E+03	1.218219E-02	9.847581E-05
6.909529E+03	1.216672E-02	9.842000E-05
6.919485E+03	1.217030E-02	9.851934E-05
6.929441E+03	1.218755E-02	9.873045E-05
6.939397E+03	1.221300E-02	9.900937E-05
6.949353E+03	1.224083E-02	9.930896E-05
6.959309E+03	1.226590E-02	9.958761E-05
6.969266E+03	1.228334E-02	9.980565E-05
6.979222E+03	1.229095E-02	9.994512E-05
6.989178E+03	1.228766E-02	9.999702E-05
6.999134E+03	1.227313E-02	9.995842E-05
7.009090E+03	1.224880E-02	9.984086E-05
7.019046E+03	1.221609E-02	9.965576E-05
7.029002E+03	1.217710E-02	9.942003E-05
7.038958E+03	1.213298E-02	9.914296E-05
7.048914E+03	1.208512E-02	9.883581E-05
7.058870E+03	1.203470E-02	9.850814E-05
7.068826E+03	1.198350E-02	9.817450E-05
7.078783E+03	1.193304E-02	9.784740E-05
7.088739E+03	1.188504E-02	9.754077E-05
7.098695E+03	1.184149E-02	9.727122E-05
7.108651E+03	1.180369E-02	9.704945E-05
7.118607E+03	1.177290E-02	9.688595E-05
7.128563E+03	1.174976E-02	9.678615E-05
7.138519E+03	1.173431E-02	9.675060E-05
7.148475E+03	1.172585E-02	9.677376E-05
7.158431E+03	1.172348E-02	9.684824E-05
7.168387E+03	1.172610E-02	9.696521E-05
7.178344E+03	1.173219E-02	9.711224E-05
7.188300E+03	1.174059E-02	9.727982E-05
7.198256E+03	1.175048E-02	9.746118E-05
7.208212E+03	1.176128E-02	9.765154E-05
7.218168E+03	1.177428E-02	9.786177E-05
7.228124E+03	1.179083E-02	9.810313E-05
7.238080E+03	1.181210E-02	9.838551E-05
7.248036E+03	1.183828E-02	9.871066E-05
7.257992E+03	1.186895E-02	9.907516E-05
7.267948E+03	1.190233E-02	9.946440E-05
7.277904E+03	1.193609E-02	9.985899E-05
7.287861E+03	1.196754E-02	1.002364E-04
7.297817E+03	1.199354E-02	1.005702E-04
7.307773E+03	1.201220E-02	1.008446E-04
7.317729E+03	1.202186E-02	1.010454E-04
7.327685E+03	1.202200E-02	1.011679E-04
7.337641E+03	1.201233E-02	1.012095E-04
7.347597E+03	1.199335E-02	1.011741E-04
7.357553E+03	1.196602E-02	1.010695E-04
7.367509E+03	1.193160E-02	1.009062E-04
7.377465E+03	1.189126E-02	1.006938E-04
7.387421E+03	1.184622E-02	1.004426E-04
7.397378E+03	1.179807E-02	1.001658E-04
7.407334E+03	1.174820E-02	9.987528E-05
7.417290E+03	1.169761E-02	9.957941E-05
7.427246E+03	1.164747E-02	9.928812E-05
7.437202E+03	1.159841E-02	9.900686E-05
7.447158E+03	1.155116E-02	9.874191E-05
7.457114E+03	1.150608E-02	9.849639E-05
7.467070E+03	1.146348E-02	9.827305E-05
7.477026E+03	1.142266E-02	9.806589E-05
7.486982E+03	1.138251E-02	9.786539E-05
7.496939E+03	1.134069E-02	9.765139E-05
7.506895E+03	1.129550E-02	9.740923E-05
7.516851E+03	1.124557E-02	9.712686E-05
7.526807E+03	1.119023E-02	9.679825E-05
7.536763E+03	1.113000E-02	9.642770E-05
7.546719E+03	1.106610E-02	9.602554E-05
7.556675E+03	1.100121E-02	9.561479E-05
7.566631E+03	1.093713E-02	9.521118E-05
7.576587E+03	1.087572E-02	9.483085E-05
7.586543E+03	1.081874E-02	9.448934E-05
7.596499E+03	1.076686E-02	9.419251E-05
7.606456E+03	1.072093E-02	9.394806E-05
7.616412E+03	1.068125E-02	9.375895E-05
7.626368E+03	1.064771E-02	9.362443E-05
7.636324E+03	1.062101E-02	9.355085E-05
7.646280E+03	1.060116E-02	9.353866E-05
7.656236E+03	1.058890E-02	9.359474E-05
7.666192E+03	1.058414E-02	9.371853E-05
7.676148E+03	1.058734E-02	9.391457E-05
7.686104E+03	1.059828E-02	9.418124E-05
7.696060E+03	1.061643E-02	9.451415E-05
7.706016E+03	1.064108E-02	9.490736E-05
7.715973E+03	1.066992E-02	9.534064E-05
7.725929E+03	1.069961E-02	9.578417E-05
