#wls	flux	fluxerr
1.592975E+03	9.125435E-05	7.092770E-06
1.632799E+03	9.183064E-05	7.103062E-06
1.672624E+03	9.262655E-05	7.129023E-06
1.712448E+03	9.369426E-05	7.174365E-06
1.752272E+03	9.505423E-05	7.240285E-06
1.792097E+03	9.672665E-05	7.327917E-06
1.831921E+03	9.873104E-05	7.438290E-06
1.871746E+03	1.010857E-04	7.572292E-06
1.911570E+03	1.038070E-04	7.730620E-06
1.951394E+03	1.068766E-04	7.911347E-06
1.991219E+03	1.103690E-04	8.119399E-06
2.031043E+03	1.142593E-04	8.352258E-06
2.070867E+03	1.185161E-04	8.606973E-06
2.110692E+03	1.232042E-04	8.887566E-06
2.150516E+03	1.282835E-04	9.190403E-06
2.190341E+03	1.337069E-04	9.511400E-06
2.230165E+03	1.394943E-04	9.851271E-06
2.269989E+03	1.456283E-04	1.020808E-05
2.309814E+03	1.520521E-04	1.057714E-05
2.349638E+03	1.588246E-04	1.096188E-05
2.389462E+03	1.658117E-04	1.135234E-05
2.429287E+03	1.730794E-04	1.175248E-05
2.469111E+03	1.806221E-04	1.216124E-05
2.508936E+03	1.883973E-04	1.257511E-05
2.548760E+03	1.964103E-04	1.299384E-05
2.588584E+03	2.046741E-04	1.341766E-05
2.628409E+03	2.132558E-04	1.385028E-05
2.668233E+03	2.220907E-04	1.428677E-05
2.708057E+03	2.312573E-04	1.473147E-05
2.747882E+03	2.407935E-04	1.518595E-05
2.787706E+03	2.507398E-04	1.565188E-05
2.827531E+03	2.610862E-04	1.612765E-05
2.867355E+03	2.719756E-04	1.662107E-05
2.907179E+03	2.833401E-04	1.712682E-05
2.947004E+03	2.953180E-04	1.765206E-05
2.986828E+03	3.079924E-04	1.820036E-05
2.996784E+03	3.112314E-04	1.833860E-05
3.006740E+03	3.145616E-04	1.848097E-05
3.016696E+03	3.179260E-04	1.862409E-05
3.026652E+03	3.213251E-04	1.876797E-05
3.036609E+03	3.248169E-04	1.891596E-05
3.046565E+03	3.283432E-04	1.906465E-05
3.056521E+03	3.319041E-04	1.921402E-05
3.066477E+03	3.355591E-04	1.936748E-05
3.076433E+03	3.392489E-04	1.952156E-05
3.086389E+03	3.430334E-04	1.967970E-05
3.096345E+03	3.468529E-04	1.983842E-05
3.106301E+03	3.507068E-04	1.999768E-05
3.116257E+03	3.546564E-04	2.016093E-05
3.126213E+03	3.587026E-04	2.032818E-05
3.136169E+03	3.627836E-04	2.049589E-05
3.146126E+03	3.669623E-04	2.066758E-05
3.156082E+03	3.711763E-04	2.083970E-05
3.166038E+03	3.754888E-04	2.101576E-05
3.175994E+03	3.799011E-04	2.119580E-05
3.185950E+03	3.844146E-04	2.137983E-05
3.195906E+03	3.890308E-04	2.156789E-05
3.205862E+03	3.936857E-04	2.175638E-05
3.215818E+03	3.984457E-04	2.194895E-05
3.225774E+03	4.033792E-04	2.214930E-05
3.235730E+03	4.083566E-04	2.235025E-05
3.245687E+03	4.134465E-04	2.255550E-05
3.255643E+03	4.187192E-04	2.276884E-05
3.265599E+03	4.241119E-04	2.298676E-05
3.275555E+03	4.296290E-04	2.320945E-05
3.285511E+03	4.352755E-04	2.343710E-05
3.295467E+03	4.410562E-04	2.366991E-05
3.305423E+03	4.470469E-04	2.391187E-05
3.315379E+03	4.531862E-04	2.415960E-05
3.325335E+03	4.595523E-04	2.441717E-05
3.335291E+03	4.661556E-04	2.468502E-05
3.345247E+03	4.729361E-04	2.495987E-05
3.355204E+03	4.799054E-04	2.524224E-05
3.365160E+03	4.872200E-04	2.554023E-05
3.375116E+03	4.947521E-04	2.584699E-05
3.385072E+03	5.025894E-04	2.616698E-05
3.395028E+03	5.107511E-04	2.650104E-05
3.404984E+03	5.193318E-04	2.685390E-05
3.414940E+03	5.282054E-04	2.721885E-05
3.424896E+03	5.375453E-04	2.760464E-05
3.434852E+03	5.472270E-04	2.800466E-05
3.444808E+03	5.575061E-04	2.843179E-05
3.454764E+03	5.681844E-04	2.887564E-05
3.464721E+03	5.795251E-04	2.934934E-05
3.474677E+03	5.914077E-04	2.984648E-05
3.484633E+03	6.038657E-04	3.036846E-05
3.494589E+03	6.170947E-04	3.092480E-05
3.504545E+03	6.309715E-04	3.150896E-05
3.514501E+03	6.456118E-04	3.212638E-05
3.524457E+03	6.611330E-04	3.278249E-05
3.534413E+03	6.774020E-04	3.347027E-05
3.544369E+03	6.946111E-04	3.419882E-05
3.554325E+03	7.127827E-04	3.496878E-05
3.564282E+03	7.317552E-04	3.577176E-05
3.574238E+03	7.517902E-04	3.662013E-05
3.584194E+03	7.727144E-04	3.750494E-05
3.594150E+03	7.945331E-04	3.842603E-05
3.604106E+03	8.174385E-04	3.939223E-05
3.614062E+03	8.412527E-04	4.039447E-05
3.624018E+03	8.660591E-04	4.143632E-05
3.633974E+03	8.919345E-04	4.252097E-05
3.643930E+03	9.187550E-04	4.364203E-05
3.653886E+03	9.463798E-04	4.479242E-05
3.663842E+03	9.750574E-04	4.598348E-05
3.673799E+03	1.004536E-03	4.720294E-05
3.683755E+03	1.034756E-03	4.844757E-05
3.693711E+03	1.065757E-03	4.971904E-05
3.703667E+03	1.097483E-03	5.101425E-05
3.713623E+03	1.129874E-03	5.233022E-05
3.723579E+03	1.162773E-03	5.365931E-05
3.733535E+03	1.196352E-03	5.500928E-05
3.743491E+03	1.230471E-03	5.637337E-05
3.753447E+03	1.265222E-03	5.775556E-05
3.763403E+03	1.300485E-03	5.915011E-05
3.773359E+03	1.336265E-03	6.055699E-05
3.783316E+03	1.372691E-03	6.198185E-05
3.793272E+03	1.409789E-03	6.342556E-05
3.803228E+03	1.447591E-03	6.488922E-05
3.813184E+03	1.486128E-03	6.637391E-05
3.823140E+03	1.525425E-03	6.788040E-05
3.833096E+03	1.565495E-03	6.940898E-05
3.843052E+03	1.606455E-03	7.096440E-05
3.853008E+03	1.648276E-03	7.254496E-05
3.862964E+03	1.690771E-03	7.414215E-05
3.872920E+03	1.733959E-03	7.575643E-05
3.882877E+03	1.777564E-03	7.737553E-05
3.892833E+03	1.821633E-03	7.900119E-05
3.902789E+03	1.865901E-03	8.062188E-05
3.912745E+03	1.909787E-03	8.221249E-05
3.922701E+03	1.953141E-03	8.376672E-05
3.932657E+03	1.995486E-03	8.526447E-05
3.942613E+03	2.036276E-03	8.668306E-05
3.952569E+03	2.074784E-03	8.799239E-05
3.962525E+03	2.110634E-03	8.917758E-05
3.972481E+03	2.143060E-03	9.020778E-05
3.982437E+03	2.171457E-03	9.105915E-05
3.992394E+03	2.195399E-03	9.171586E-05
4.002350E+03	2.214410E-03	9.216021E-05
4.012306E+03	2.227984E-03	9.237351E-05
4.022262E+03	2.235951E-03	9.235133E-05
4.032218E+03	2.238230E-03	9.209298E-05
4.042174E+03	2.234602E-03	9.159213E-05
4.052130E+03	2.225071E-03	9.085175E-05
4.062086E+03	2.209866E-03	8.988386E-05
4.072042E+03	2.189119E-03	8.869652E-05
4.081998E+03	2.163318E-03	8.731198E-05
4.091954E+03	2.133079E-03	8.575741E-05
4.101911E+03	2.098862E-03	8.405318E-05
4.111867E+03	2.061634E-03	8.223985E-05
4.121823E+03	2.022171E-03	8.034952E-05
4.131779E+03	1.981482E-03	7.842325E-05
4.141735E+03	1.940422E-03	7.649523E-05
4.151691E+03	1.899990E-03	7.460491E-05
4.161647E+03	1.861121E-03	7.278844E-05
4.171603E+03	1.824446E-03	7.106977E-05
4.181559E+03	1.790736E-03	6.947768E-05
4.191515E+03	1.760652E-03	6.803639E-05
4.201472E+03	1.734692E-03	6.676331E-05
4.211428E+03	1.713205E-03	6.566988E-05
4.221384E+03	1.696525E-03	6.476681E-05
4.231340E+03	1.685028E-03	6.406612E-05
4.241296E+03	1.678784E-03	6.356802E-05
4.251252E+03	1.678025E-03	6.327885E-05
4.261208E+03	1.682689E-03	6.319373E-05
4.271164E+03	1.692868E-03	6.331350E-05
4.281120E+03	1.708462E-03	6.363197E-05
4.291076E+03	1.729242E-03	6.413814E-05
4.301032E+03	1.754950E-03	6.482002E-05
4.310989E+03	1.785288E-03	6.566439E-05
4.320945E+03	1.819815E-03	6.665298E-05
4.330901E+03	1.858000E-03	6.776448E-05
4.340857E+03	1.899231E-03	6.897499E-05
4.350813E+03	1.942790E-03	7.025719E-05
4.360769E+03	1.988147E-03	7.159095E-05
4.370725E+03	2.034939E-03	7.296238E-05
4.380681E+03	2.083304E-03	7.437582E-05
4.390637E+03	2.134269E-03	7.586710E-05
4.400593E+03	2.189193E-03	7.748315E-05
4.410549E+03	2.249638E-03	7.927720E-05
4.420506E+03	2.317402E-03	8.130988E-05
4.430462E+03	2.394558E-03	8.365025E-05
4.440418E+03	2.483163E-03	8.636566E-05
4.450374E+03	2.585390E-03	8.952614E-05
4.460330E+03	2.703643E-03	9.320842E-05
4.470286E+03	2.840144E-03	9.748154E-05
4.480242E+03	2.997087E-03	1.024123E-04
4.490198E+03	3.176225E-03	1.080510E-04
4.500154E+03	3.378886E-03	1.144328E-04
4.510110E+03	3.605538E-03	1.215629E-04
4.520067E+03	3.855580E-03	1.294106E-04
4.530023E+03	4.127072E-03	1.379006E-04
4.539979E+03	4.416541E-03	1.469080E-04
4.549935E+03	4.718891E-03	1.562564E-04
4.559891E+03	5.027395E-03	1.657184E-04
4.569847E+03	5.333898E-03	1.750241E-04
4.579803E+03	5.629751E-03	1.838922E-04
4.589759E+03	5.905462E-03	1.920191E-04
4.599715E+03	6.152398E-03	1.991347E-04
4.609671E+03	6.362771E-03	2.050012E-04
4.619627E+03	6.530251E-03	2.094321E-04
4.629584E+03	6.650417E-03	2.123055E-04
4.639540E+03	6.721141E-03	2.135749E-04
4.649496E+03	6.742291E-03	2.132580E-04
4.659452E+03	6.715659E-03	2.114331E-04
4.669408E+03	6.645278E-03	2.082477E-04
4.679364E+03	6.537083E-03	2.039059E-04
4.689320E+03	6.398485E-03	1.986544E-04
4.699276E+03	6.238407E-03	1.927819E-04
4.709232E+03	6.066650E-03	1.865991E-04
4.719188E+03	5.893068E-03	1.804126E-04
4.729144E+03	5.727123E-03	1.745114E-04
4.739101E+03	5.577209E-03	1.691465E-04
4.749057E+03	5.450352E-03	1.645230E-04
4.759013E+03	5.351803E-03	1.607888E-04
4.768969E+03	5.285283E-03	1.580430E-04
4.778925E+03	5.253173E-03	1.563428E-04
4.788881E+03	5.256534E-03	1.557052E-04
4.798837E+03	5.295616E-03	1.561226E-04
4.808793E+03	5.369484E-03	1.575529E-04
4.818749E+03	5.476628E-03	1.599376E-04
4.828705E+03	5.614343E-03	1.631846E-04
4.838662E+03	5.779182E-03	1.671818E-04
4.848618E+03	5.966696E-03	1.717904E-04
4.858574E+03	6.171819E-03	1.768562E-04
4.868530E+03	6.388474E-03	1.821990E-04
4.878486E+03	6.610247E-03	1.876324E-04
4.888442E+03	6.830234E-03	1.929594E-04
4.898398E+03	7.041366E-03	1.979824E-04
4.908354E+03	7.236577E-03	2.025075E-04
4.918310E+03	7.409614E-03	2.063671E-04
4.928266E+03	7.554897E-03	2.094155E-04
4.938222E+03	7.667915E-03	2.115394E-04
4.948179E+03	7.745389E-03	2.126617E-04
4.958135E+03	7.784952E-03	2.127317E-04
4.968091E+03	7.785271E-03	2.117280E-04
4.978047E+03	7.745755E-03	2.096498E-04
4.988003E+03	7.666456E-03	2.065140E-04
4.997959E+03	7.548391E-03	2.023630E-04
5.007915E+03	7.393720E-03	1.972692E-04
5.017871E+03	7.206030E-03	1.913417E-04
5.027827E+03	6.990810E-03	1.847380E-04
5.037783E+03	6.755549E-03	1.776652E-04
5.047739E+03	6.509592E-03	1.703751E-04
5.057696E+03	6.263895E-03	1.631568E-04
5.067652E+03	6.029855E-03	1.563054E-04
5.077608E+03	5.818212E-03	1.500933E-04
5.087564E+03	5.637833E-03	1.447392E-04
5.097520E+03	5.495126E-03	1.403953E-04
5.107476E+03	5.393821E-03	1.371421E-04
5.117432E+03	5.335589E-03	1.350064E-04
5.127388E+03	5.320162E-03	1.339657E-04
5.137344E+03	5.345685E-03	1.339578E-04
5.147300E+03	5.408644E-03	1.348802E-04
5.157256E+03	5.504247E-03	1.366005E-04
5.167213E+03	5.626379E-03	1.389563E-04
5.177169E+03	5.767946E-03	1.417639E-04
5.187125E+03	5.921375E-03	1.448315E-04
5.197081E+03	6.079318E-03	1.479764E-04
5.207037E+03	6.235477E-03	1.510449E-04
5.216993E+03	6.385249E-03	1.539271E-04
5.226949E+03	6.525947E-03	1.565612E-04
5.236905E+03	6.656670E-03	1.589295E-04
5.246861E+03	6.777689E-03	1.610421E-04
5.256817E+03	6.890143E-03	1.629299E-04
5.266774E+03	6.995495E-03	1.646307E-04
5.276730E+03	7.095103E-03	1.661792E-04
5.286686E+03	7.190071E-03	1.676036E-04
5.296642E+03	7.280884E-03	1.689171E-04
5.306598E+03	7.367604E-03	1.701230E-04
5.316554E+03	7.449836E-03	1.712141E-04
5.326510E+03	7.526828E-03	1.721753E-04
5.336466E+03	7.597586E-03	1.729860E-04
5.346422E+03	7.661003E-03	1.736236E-04
5.356378E+03	7.715628E-03	1.740584E-04
5.366334E+03	7.760089E-03	1.742627E-04
5.376291E+03	7.793210E-03	1.742138E-04
5.386247E+03	7.813707E-03	1.738870E-04
5.396203E+03	7.821081E-03	1.732757E-04
5.406159E+03	7.816034E-03	1.723993E-04
5.416115E+03	7.800996E-03	1.713154E-04
5.426071E+03	7.780647E-03	1.701295E-04
5.436027E+03	7.761406E-03	1.689829E-04
5.445983E+03	7.750639E-03	1.680354E-04
5.455939E+03	7.755772E-03	1.674453E-04
5.465895E+03	7.782057E-03	1.673215E-04
5.475851E+03	7.829410E-03	1.676570E-04
5.485808E+03	7.890689E-03	1.682947E-04
5.495764E+03	7.953609E-03	1.689700E-04
5.505720E+03	8.004607E-03	1.693953E-04
5.515676E+03	8.030645E-03	1.692985E-04
5.525632E+03	8.022434E-03	1.684902E-04
5.535588E+03	7.975805E-03	1.668905E-04
5.545544E+03	7.893054E-03	1.645558E-04
5.555500E+03	7.782077E-03	1.616575E-04
5.565456E+03	7.654896E-03	1.584499E-04
5.575412E+03	7.525135E-03	1.552166E-04
5.585369E+03	7.405825E-03	1.522251E-04
5.595325E+03	7.307065E-03	1.496792E-04
5.605281E+03	7.234598E-03	1.476912E-04
5.615237E+03	7.189430E-03	1.462752E-04
5.625193E+03	7.167597E-03	1.453448E-04
5.635149E+03	7.160501E-03	1.447210E-04
5.645105E+03	7.155730E-03	1.441503E-04
5.655061E+03	7.138862E-03	1.433422E-04
5.665017E+03	7.095438E-03	1.420095E-04
5.674973E+03	7.013435E-03	1.399170E-04
5.684929E+03	6.885833E-03	1.369319E-04
5.694886E+03	6.712362E-03	1.330572E-04
5.704842E+03	6.499609E-03	1.284312E-04
5.714798E+03	6.259994E-03	1.233054E-04
5.724754E+03	6.009738E-03	1.180028E-04
5.734710E+03	5.766520E-03	1.128708E-04
5.744666E+03	5.547293E-03	1.082386E-04
5.754622E+03	5.367106E-03	1.043940E-04
5.764578E+03	5.238465E-03	1.015720E-04
5.774534E+03	5.171782E-03	9.996432E-05
5.784490E+03	5.175412E-03	9.972030E-05
5.794446E+03	5.255869E-03	1.009522E-04
5.804403E+03	5.417882E-03	1.037365E-04
5.814359E+03	5.663571E-03	1.080987E-04
5.824315E+03	5.992031E-03	1.140065E-04
5.834271E+03	6.398126E-03	1.213475E-04
5.844227E+03	6.870837E-03	1.298992E-04
5.854183E+03	7.392181E-03	1.393108E-04
5.864139E+03	7.935999E-03	1.490821E-04
5.874095E+03	8.468986E-03	1.585853E-04
5.884051E+03	8.953990E-03	1.671290E-04
5.894007E+03	9.355284E-03	1.740571E-04
5.903964E+03	9.645401E-03	1.788756E-04
5.913920E+03	9.809299E-03	1.813264E-04
5.923876E+03	9.846540E-03	1.814243E-04
5.933832E+03	9.769481E-03	1.794192E-04
5.943788E+03	9.599728E-03	1.757274E-04
5.953744E+03	9.362665E-03	1.708288E-04
5.963700E+03	9.083122E-03	1.651870E-04
5.973656E+03	8.782193E-03	1.591923E-04
5.983612E+03	8.476464E-03	1.531482E-04
5.993568E+03	8.177808E-03	1.472695E-04
6.003524E+03	7.894506E-03	1.417036E-04
6.013481E+03	7.632567E-03	1.365555E-04
6.023437E+03	7.396841E-03	1.319080E-04
6.033393E+03	7.191522E-03	1.278311E-04
6.043349E+03	7.020576E-03	1.243900E-04
6.053305E+03	6.887122E-03	1.216339E-04
6.063261E+03	6.793426E-03	1.195966E-04
6.073217E+03	6.739891E-03	1.182786E-04
6.083173E+03	6.724952E-03	1.176462E-04
6.093129E+03	6.744688E-03	1.176250E-04
6.103085E+03	6.793155E-03	1.181066E-04
6.113041E+03	6.862584E-03	1.189521E-04
6.122998E+03	6.943870E-03	1.200017E-04
6.132954E+03	7.027487E-03	1.210901E-04
6.142910E+03	7.104438E-03	1.220632E-04
6.152866E+03	7.167485E-03	1.227988E-04
6.162822E+03	7.212038E-03	1.232213E-04
6.172778E+03	7.237790E-03	1.233289E-04
6.182734E+03	7.248191E-03	1.231834E-04
6.192690E+03	7.248684E-03	1.228801E-04
6.202646E+03	7.244572E-03	1.225103E-04
6.212602E+03	7.239947E-03	1.221440E-04
6.222559E+03	7.236902E-03	1.218168E-04
6.232515E+03	7.235242E-03	1.215255E-04
6.242471E+03	7.232488E-03	1.212287E-04
6.252427E+03	7.224107E-03	1.208509E-04
6.262383E+03	7.204006E-03	1.202913E-04
6.272339E+03	7.164636E-03	1.194254E-04
6.282295E+03	7.097991E-03	1.181216E-04
6.292251E+03	6.995806E-03	1.162448E-04
6.302207E+03	6.851094E-03	1.136816E-04
6.312163E+03	6.658891E-03	1.103520E-04
6.322119E+03	6.417616E-03	1.062320E-04
6.332076E+03	6.130656E-03	1.013792E-04
6.342032E+03	5.806699E-03	9.593777E-05
6.351988E+03	5.459589E-03	9.013606E-05
6.361944E+03	5.106856E-03	8.426203E-05
6.371900E+03	4.767413E-03	7.862554E-05
6.381856E+03	4.459796E-03	7.352969E-05
6.391812E+03	4.200201E-03	6.923892E-05
6.401768E+03	4.002019E-03	6.597190E-05
6.411724E+03	3.876251E-03	6.390867E-05
6.421680E+03	3.832451E-03	6.320657E-05
6.431636E+03	3.880309E-03	6.402660E-05
6.441593E+03	4.030875E-03	6.655397E-05
6.451549E+03	4.297237E-03	7.100969E-05
6.461505E+03	4.694397E-03	7.764893E-05
6.471461E+03	5.237993E-03	8.674015E-05
6.481417E+03	5.941877E-03	9.852517E-05
6.491373E+03	6.814028E-03	1.131516E-04
6.501329E+03	7.851129E-03	1.305822E-04
6.511285E+03	9.032137E-03	1.504855E-04
6.521241E+03	1.031256E-02	1.721382E-04
6.531197E+03	1.162260E-02	1.943885E-04
6.541154E+03	1.287120E-02	2.157195E-04
6.551110E+03	1.395834E-02	2.344501E-04
6.561066E+03	1.479221E-02	2.490204E-04
6.571022E+03	1.530834E-02	2.583156E-04
6.580978E+03	1.548248E-02	2.618881E-04
6.590934E+03	1.533294E-02	2.600053E-04
6.600890E+03	1.491129E-02	2.535001E-04
6.610846E+03	1.428690E-02	2.435170E-04
6.620802E+03	1.353175E-02	2.312554E-04
6.630758E+03	1.271010E-02	2.177953E-04
6.640714E+03	1.187407E-02	2.040204E-04
6.650671E+03	1.106209E-02	1.905874E-04
6.660627E+03	1.030032E-02	1.779496E-04
6.670583E+03	9.604687E-03	1.663882E-04
6.680539E+03	8.983273E-03	1.560513E-04
6.690495E+03	8.438390E-03	1.469887E-04
6.700451E+03	7.968632E-03	1.391859E-04
6.710407E+03	7.570286E-03	1.325879E-04
6.720363E+03	7.238152E-03	1.271131E-04
6.730319E+03	6.966447E-03	1.226686E-04
6.740275E+03	6.749031E-03	1.191541E-04
6.750231E+03	6.579771E-03	1.164685E-04
6.760188E+03	6.451974E-03	1.144993E-04
6.770144E+03	6.358877E-03	1.131315E-04
6.780100E+03	6.293344E-03	1.122422E-04
6.790056E+03	6.248281E-03	1.117079E-04
6.800012E+03	6.216826E-03	1.114080E-04
6.809968E+03	6.192729E-03	1.112315E-04
6.819924E+03	6.170451E-03	1.110793E-04
6.829880E+03	6.145881E-03	1.108771E-04
6.839836E+03	6.116219E-03	1.105738E-04
6.849792E+03	6.080152E-03	1.101447E-04
6.859749E+03	6.037791E-03	1.095910E-04
6.869705E+03	5.990836E-03	1.089428E-04
6.879661E+03	5.942153E-03	1.082516E-04
6.889617E+03	5.895638E-03	1.075884E-04
6.899573E+03	5.855582E-03	1.070317E-04
6.909529E+03	5.826031E-03	1.066562E-04
6.919485E+03	5.810230E-03	1.065220E-04
6.929441E+03	5.810228E-03	1.066679E-04
6.939397E+03	5.826937E-03	1.071116E-04
6.949353E+03	5.859566E-03	1.078393E-04
6.959309E+03	5.906007E-03	1.088131E-04
6.969266E+03	5.962850E-03	1.099705E-04
6.979222E+03	6.025364E-03	1.112244E-04
6.989178E+03	6.088052E-03	1.124729E-04
6.999134E+03	6.145085E-03	1.136080E-04
7.009090E+03	6.190888E-03	1.145259E-04
7.019046E+03	6.220738E-03	1.151384E-04
7.029002E+03	6.231273E-03	1.153828E-04
7.038958E+03	6.220749E-03	1.152260E-04
7.048914E+03	6.189262E-03	1.146695E-04
7.058870E+03	6.138343E-03	1.137417E-04
7.068826E+03	6.070633E-03	1.124916E-04
7.078783E+03	5.990138E-03	1.109938E-04
7.088739E+03	5.901558E-03	1.093358E-04
7.098695E+03	5.809998E-03	1.076129E-04
7.108651E+03	5.720975E-03	1.059277E-04
7.118607E+03	5.639373E-03	1.043713E-04
7.128563E+03	5.569556E-03	1.030246E-04
7.138519E+03	5.514848E-03	1.019493E-04
7.148475E+03	5.477479E-03	1.011865E-04
7.158431E+03	5.458623E-03	1.007574E-04
7.168387E+03	5.458453E-03	1.006647E-04
7.178344E+03	5.476600E-03	1.009009E-04
7.188300E+03	5.512082E-03	1.014470E-04
7.198256E+03	5.563715E-03	1.022803E-04
7.208212E+03	5.630241E-03	1.033766E-04
7.218168E+03	5.710133E-03	1.047070E-04
7.228124E+03	5.801766E-03	1.062406E-04
7.238080E+03	5.902783E-03	1.079334E-04
7.248036E+03	6.010332E-03	1.097325E-04
7.257992E+03	6.120269E-03	1.115617E-04
7.267948E+03	6.227386E-03	1.133260E-04
7.277904E+03	6.325215E-03	1.149082E-04
7.287861E+03	6.407158E-03	1.161897E-04
7.297817E+03	6.467289E-03	1.170649E-04
7.307773E+03	6.501267E-03	1.174578E-04
7.317729E+03	6.507310E-03	1.173393E-04
7.327685E+03	6.486897E-03	1.167396E-04
7.337641E+03	6.444172E-03	1.157365E-04
7.347597E+03	6.385134E-03	1.144404E-04
7.357553E+03	6.316952E-03	1.129821E-04
7.367509E+03	6.246256E-03	1.114817E-04
7.377465E+03	6.178593E-03	1.100388E-04
7.387421E+03	6.117556E-03	1.087176E-04
7.397378E+03	6.064611E-03	1.075439E-04
7.407334E+03	6.019158E-03	1.065069E-04
7.417290E+03	5.979349E-03	1.055736E-04
7.427246E+03	5.941890E-03	1.046861E-04
7.437202E+03	5.903768E-03	1.037917E-04
7.447158E+03	5.862123E-03	1.028410E-04
7.457114E+03	5.815382E-03	1.018072E-04
7.467070E+03	5.762930E-03	1.006804E-04
7.477026E+03	5.705199E-03	9.946891E-05
7.486982E+03	5.643401E-03	9.819451E-05
7.496939E+03	5.579280E-03	9.688805E-05
7.506895E+03	5.514352E-03	9.557620E-05
7.516851E+03	5.450496E-03	9.429168E-05
7.526807E+03	5.389113E-03	9.305874E-05
7.536763E+03	5.331828E-03	9.190532E-05
7.546719E+03	5.280482E-03	9.086288E-05
7.556675E+03	5.236918E-03	8.996278E-05
7.566631E+03	5.202786E-03	8.923286E-05
7.576587E+03	5.179513E-03	8.869705E-05
7.586543E+03	5.168122E-03	8.837231E-05
7.596499E+03	5.168864E-03	8.826242E-05
7.606456E+03	5.181398E-03	8.836115E-05
7.616412E+03	5.204481E-03	8.864706E-05
7.626368E+03	5.236380E-03	8.909062E-05
7.636324E+03	5.274511E-03	8.964809E-05
7.646280E+03	5.316190E-03	9.027430E-05
7.656236E+03	5.358652E-03	9.092297E-05
7.666192E+03	5.399436E-03	9.155320E-05
7.676148E+03	5.436606E-03	9.213308E-05
7.686104E+03	5.468862E-03	9.264157E-05
7.696060E+03	5.495605E-03	9.306954E-05
7.706016E+03	5.516556E-03	9.341321E-05
7.715973E+03	5.531723E-03	9.367357E-05
7.725929E+03	5.541174E-03	9.385266E-05
