#wls	flux	fluxerr
1.592975E+03	4.573373E-05	4.738275E-06
1.632799E+03	4.636413E-05	4.788654E-06
1.672624E+03	4.708075E-05	4.847115E-06
1.712448E+03	4.791823E-05	4.917099E-06
1.752272E+03	4.885643E-05	4.996398E-06
1.792097E+03	4.991602E-05	5.086976E-06
1.831921E+03	5.111749E-05	5.190748E-06
1.871746E+03	5.243960E-05	5.305368E-06
1.911570E+03	5.391570E-05	5.434015E-06
1.951394E+03	5.553700E-05	5.575577E-06
1.991219E+03	5.729319E-05	5.728797E-06
2.031043E+03	5.921585E-05	5.896590E-06
2.070867E+03	6.130750E-05	6.078935E-06
2.110692E+03	6.353970E-05	6.272730E-06
2.150516E+03	6.594202E-05	6.480618E-06
2.190341E+03	6.848281E-05	6.699189E-06
2.230165E+03	7.120664E-05	6.932496E-06
2.269989E+03	7.406395E-05	7.175378E-06
2.309814E+03	7.708350E-05	7.430307E-06
2.349638E+03	8.024610E-05	7.695086E-06
2.389462E+03	8.354862E-05	7.969077E-06
2.429287E+03	8.700590E-05	8.253340E-06
2.469111E+03	9.059936E-05	8.545738E-06
2.508936E+03	9.434655E-05	8.847549E-06
2.548760E+03	9.823063E-05	9.156792E-06
2.588584E+03	1.022536E-04	9.473260E-06
2.628409E+03	1.064578E-04	9.800427E-06
2.668233E+03	1.108109E-04	1.013486E-05
2.708057E+03	1.153599E-04	1.048033E-05
2.747882E+03	1.200944E-04	1.083536E-05
2.787706E+03	1.250457E-04	1.120219E-05
2.827531E+03	1.302268E-04	1.158133E-05
2.867355E+03	1.356523E-04	1.197337E-05
2.907179E+03	1.413827E-04	1.238288E-05
2.947004E+03	1.474395E-04	1.281082E-05
2.986828E+03	1.538711E-04	1.326040E-05
2.996784E+03	1.555274E-04	1.337517E-05
3.006740E+03	1.572459E-04	1.349454E-05
3.016696E+03	1.589576E-04	1.361256E-05
3.026652E+03	1.607331E-04	1.373526E-05
3.036609E+03	1.625264E-04	1.385868E-05
3.046565E+03	1.643382E-04	1.398286E-05
3.056521E+03	1.661929E-04	1.410986E-05
3.066477E+03	1.680915E-04	1.423973E-05
3.076433E+03	1.700351E-04	1.437254E-05
3.086389E+03	1.720008E-04	1.450632E-05
3.096345E+03	1.740138E-04	1.464317E-05
3.106301E+03	1.760509E-04	1.478112E-05
3.116257E+03	1.781622E-04	1.492434E-05
3.126213E+03	1.803004E-04	1.506884E-05
3.136169E+03	1.824915E-04	1.521674E-05
3.146126E+03	1.847371E-04	1.536817E-05
3.156082E+03	1.870142E-04	1.552115E-05
3.166038E+03	1.893747E-04	1.567996E-05
3.175994E+03	1.917957E-04	1.584267E-05
3.185950E+03	1.942541E-04	1.600731E-05
3.195906E+03	1.968030E-04	1.617824E-05
3.205862E+03	1.993940E-04	1.635141E-05
3.215818E+03	2.020812E-04	1.653122E-05
3.225774E+03	2.048420E-04	1.671575E-05
3.235730E+03	2.076795E-04	1.690521E-05
3.245687E+03	2.105970E-04	1.709981E-05
3.255643E+03	2.135981E-04	1.729978E-05
3.265599E+03	2.167133E-04	1.750753E-05
3.275555E+03	2.199202E-04	1.772117E-05
3.285511E+03	2.232231E-04	1.794098E-05
3.295467E+03	2.266537E-04	1.816943E-05
3.305423E+03	2.301898E-04	1.840466E-05
3.315379E+03	2.338364E-04	1.864698E-05
3.325335E+03	2.376265E-04	1.889896E-05
3.335291E+03	2.415664E-04	1.916096E-05
3.345247E+03	2.456338E-04	1.943113E-05
3.355204E+03	2.498633E-04	1.971211E-05
3.365160E+03	2.542328E-04	2.000203E-05
3.375116E+03	2.587777E-04	2.030357E-05
3.385072E+03	2.635052E-04	2.061715E-05
3.395028E+03	2.684224E-04	2.094322E-05
3.404984E+03	2.735369E-04	2.128221E-05
3.414940E+03	2.788259E-04	2.163222E-05
3.424896E+03	2.843570E-04	2.199833E-05
3.434852E+03	2.900770E-04	2.237627E-05
3.444808E+03	2.960545E-04	2.277117E-05
3.454764E+03	3.022347E-04	2.317864E-05
3.464721E+03	3.086874E-04	2.360385E-05
3.474677E+03	3.153880E-04	2.404474E-05
3.484633E+03	3.223756E-04	2.450407E-05
3.494589E+03	3.295913E-04	2.497717E-05
3.504545E+03	3.371403E-04	2.547182E-05
3.514501E+03	3.449287E-04	2.598067E-05
3.524457E+03	3.530294E-04	2.650902E-05
3.534413E+03	3.614490E-04	2.705712E-05
3.544369E+03	3.701586E-04	2.762257E-05
3.554325E+03	3.791991E-04	2.820817E-05
3.564282E+03	3.885767E-04	2.881412E-05
3.574238E+03	3.982974E-04	2.944061E-05
3.584194E+03	4.083268E-04	3.008482E-05
3.594150E+03	4.187001E-04	3.074908E-05
3.604106E+03	4.294507E-04	3.143557E-05
3.614062E+03	4.404967E-04	3.213800E-05
3.624018E+03	4.519057E-04	3.286104E-05
3.633974E+03	4.636301E-04	3.360094E-05
3.643930E+03	4.756595E-04	3.435669E-05
3.653886E+03	4.879815E-04	3.512713E-05
3.663842E+03	5.006243E-04	3.591404E-05
3.673799E+03	5.135325E-04	3.671316E-05
3.683755E+03	5.267314E-04	3.752609E-05
3.693711E+03	5.401618E-04	3.834834E-05
3.703667E+03	5.538454E-04	3.918124E-05
3.713623E+03	5.677617E-04	4.002312E-05
3.723579E+03	5.818865E-04	4.087204E-05
3.733535E+03	5.961492E-04	4.172288E-05
3.743491E+03	6.106106E-04	4.257971E-05
3.753447E+03	6.251496E-04	4.343394E-05
3.763403E+03	6.398237E-04	4.428942E-05
3.773359E+03	6.545522E-04	4.514045E-05
3.783316E+03	6.692963E-04	4.598427E-05
3.793272E+03	6.840148E-04	4.681800E-05
3.803228E+03	6.987120E-04	4.764191E-05
3.813184E+03	7.132944E-04	4.844962E-05
3.823140E+03	7.277621E-04	4.924117E-05
3.833096E+03	7.420643E-04	5.001319E-05
3.843052E+03	7.560999E-04	5.075898E-05
3.853008E+03	7.698128E-04	5.147494E-05
3.862964E+03	7.832436E-04	5.216400E-05
3.872920E+03	7.962848E-04	5.281921E-05
3.882877E+03	8.088266E-04	5.343360E-05
3.892833E+03	8.209064E-04	5.400997E-05
3.902789E+03	8.323641E-04	5.453817E-05
3.912745E+03	8.432375E-04	5.502115E-05
3.922701E+03	8.534179E-04	5.545228E-05
3.932657E+03	8.628972E-04	5.583157E-05
3.942613E+03	8.715262E-04	5.614996E-05
3.952569E+03	8.793536E-04	5.641125E-05
3.962525E+03	8.863393E-04	5.661351E-05
3.972481E+03	8.924027E-04	5.675230E-05
3.982437E+03	8.975688E-04	5.682996E-05
3.992394E+03	9.017798E-04	5.684357E-05
4.002350E+03	9.050831E-04	5.679690E-05
4.012306E+03	9.074922E-04	5.669155E-05
4.022262E+03	9.090352E-04	5.653002E-05
4.032218E+03	9.097546E-04	5.631569E-05
4.042174E+03	9.096641E-04	5.605008E-05
4.052130E+03	9.089225E-04	5.574364E-05
4.062086E+03	9.075303E-04	5.539696E-05
4.072042E+03	9.056316E-04	5.501937E-05
4.081998E+03	9.033790E-04	5.462053E-05
4.091954E+03	9.008169E-04	5.420344E-05
4.101911E+03	8.981598E-04	5.378122E-05
4.111867E+03	8.955110E-04	5.336012E-05
4.121823E+03	8.930190E-04	5.294895E-05
4.131779E+03	8.908363E-04	5.255656E-05
4.141735E+03	8.891150E-04	5.219165E-05
4.151691E+03	8.880057E-04	5.186259E-05
4.161647E+03	8.876890E-04	5.157933E-05
4.171603E+03	8.882350E-04	5.134523E-05
4.181559E+03	8.898440E-04	5.117103E-05
4.191515E+03	8.926033E-04	5.106077E-05
4.201472E+03	8.966231E-04	5.101967E-05
4.211428E+03	9.020008E-04	5.105209E-05
4.221384E+03	9.088505E-04	5.116320E-05
4.231340E+03	9.171730E-04	5.135171E-05
4.241296E+03	9.270466E-04	5.162058E-05
4.251252E+03	9.384951E-04	5.196970E-05
4.261208E+03	9.515179E-04	5.239755E-05
4.271164E+03	9.660560E-04	5.289941E-05
4.281120E+03	9.821146E-04	5.347412E-05
4.291076E+03	9.995385E-04	5.411183E-05
4.301032E+03	1.018203E-03	5.480447E-05
4.310989E+03	1.037975E-03	5.554382E-05
4.320945E+03	1.058626E-03	5.631648E-05
4.330901E+03	1.079953E-03	5.711098E-05
4.340857E+03	1.101667E-03	5.791135E-05
4.350813E+03	1.123501E-03	5.870322E-05
4.360769E+03	1.145178E-03	5.947211E-05
4.370725E+03	1.166606E-03	6.021329E-05
4.380681E+03	1.187710E-03	6.092314E-05
4.390637E+03	1.208641E-03	6.160965E-05
4.400593E+03	1.229694E-03	6.228787E-05
4.410549E+03	1.251157E-03	6.297208E-05
4.420506E+03	1.273368E-03	6.367886E-05
4.430462E+03	1.296665E-03	6.442410E-05
4.440418E+03	1.321361E-03	6.522222E-05
4.450374E+03	1.347695E-03	6.608359E-05
4.460330E+03	1.375893E-03	6.701746E-05
4.470286E+03	1.406148E-03	6.803131E-05
4.480242E+03	1.438475E-03	6.912387E-05
4.490198E+03	1.472947E-03	7.029645E-05
4.500154E+03	1.509368E-03	7.153764E-05
4.510110E+03	1.547625E-03	7.284011E-05
4.520067E+03	1.587403E-03	7.418723E-05
4.530023E+03	1.628329E-03	7.556015E-05
4.539979E+03	1.669909E-03	7.693490E-05
4.549935E+03	1.711652E-03	7.828832E-05
4.559891E+03	1.752944E-03	7.959224E-05
4.569847E+03	1.793176E-03	8.081969E-05
4.579803E+03	1.831741E-03	8.194446E-05
4.589759E+03	1.868019E-03	8.294072E-05
4.599715E+03	1.901487E-03	8.378757E-05
4.609671E+03	1.931699E-03	8.446844E-05
4.619627E+03	1.958316E-03	8.497182E-05
4.629584E+03	1.981076E-03	8.529007E-05
4.639540E+03	1.999923E-03	8.542469E-05
4.649496E+03	2.014851E-03	8.537944E-05
4.659452E+03	2.025980E-03	8.516334E-05
4.669408E+03	2.033621E-03	8.479328E-05
4.679364E+03	2.038143E-03	8.428809E-05
4.689320E+03	2.039920E-03	8.366630E-05
4.699276E+03	2.039557E-03	8.295545E-05
4.709232E+03	2.037587E-03	8.217918E-05
4.719188E+03	2.034874E-03	8.137381E-05
4.729144E+03	2.032087E-03	8.056670E-05
4.739101E+03	2.030040E-03	7.978989E-05
4.749057E+03	2.029323E-03	7.906573E-05
4.759013E+03	2.030544E-03	7.841642E-05
4.768969E+03	2.034173E-03	7.785791E-05
4.778925E+03	2.040493E-03	7.739860E-05
4.788881E+03	2.049809E-03	7.704723E-05
4.798837E+03	2.062168E-03	7.680248E-05
4.808793E+03	2.077631E-03	7.666358E-05
4.818749E+03	2.095972E-03	7.661910E-05
4.828705E+03	2.117024E-03	7.666010E-05
4.838662E+03	2.140449E-03	7.677176E-05
4.848618E+03	2.165783E-03	7.693515E-05
4.858574E+03	2.192481E-03	7.712928E-05
4.868530E+03	2.220039E-03	7.733526E-05
4.878486E+03	2.247769E-03	7.752854E-05
4.888442E+03	2.275058E-03	7.768813E-05
4.898398E+03	2.301251E-03	7.779245E-05
4.908354E+03	2.325704E-03	7.782123E-05
4.918310E+03	2.347737E-03	7.775383E-05
4.928266E+03	2.366897E-03	7.757803E-05
4.938222E+03	2.382622E-03	7.727873E-05
4.948179E+03	2.394508E-03	7.684663E-05
4.958135E+03	2.402287E-03	7.627725E-05
4.968091E+03	2.405729E-03	7.556776E-05
4.978047E+03	2.404764E-03	7.472054E-05
4.988003E+03	2.399488E-03	7.374319E-05
4.997959E+03	2.390068E-03	7.264531E-05
5.007915E+03	2.376882E-03	7.144257E-05
5.017871E+03	2.360381E-03	7.015238E-05
5.027827E+03	2.341186E-03	6.879641E-05
5.037783E+03	2.320100E-03	6.740084E-05
5.047739E+03	2.297886E-03	6.598961E-05
5.057696E+03	2.275435E-03	6.458919E-05
5.067652E+03	2.253715E-03	6.322712E-05
5.077608E+03	2.233545E-03	6.192551E-05
5.087564E+03	2.215772E-03	6.070610E-05
5.097520E+03	2.201135E-03	5.958674E-05
5.107476E+03	2.190153E-03	5.857834E-05
5.117432E+03	2.183308E-03	5.769028E-05
5.127388E+03	2.180830E-03	5.692472E-05
5.137344E+03	2.182839E-03	5.628079E-05
5.147300E+03	2.189262E-03	5.575261E-05
5.157256E+03	2.199847E-03	5.532996E-05
5.167213E+03	2.214298E-03	5.500190E-05
5.177169E+03	2.232092E-03	5.475237E-05
5.187125E+03	2.252744E-03	5.456695E-05
5.197081E+03	2.275628E-03	5.442854E-05
5.207037E+03	2.300161E-03	5.432185E-05
5.216993E+03	2.325742E-03	5.423191E-05
5.226949E+03	2.351775E-03	5.414469E-05
5.236905E+03	2.377814E-03	5.405031E-05
5.246861E+03	2.403401E-03	5.393911E-05
5.256817E+03	2.428189E-03	5.380452E-05
5.266774E+03	2.451924E-03	5.364235E-05
5.276730E+03	2.474499E-03	5.345195E-05
5.286686E+03	2.495770E-03	5.323192E-05
5.296642E+03	2.515761E-03	5.298463E-05
5.306598E+03	2.534532E-03	5.271310E-05
5.316554E+03	2.552227E-03	5.242205E-05
5.326510E+03	2.568966E-03	5.211556E-05
5.336466E+03	2.584958E-03	5.179935E-05
5.346422E+03	2.600357E-03	5.147783E-05
5.356378E+03	2.615374E-03	5.115642E-05
5.366334E+03	2.630202E-03	5.083997E-05
5.376291E+03	2.644919E-03	5.053095E-05
5.386247E+03	2.659703E-03	5.023371E-05
5.396203E+03	2.674622E-03	4.995036E-05
5.406159E+03	2.689771E-03	4.968350E-05
5.416115E+03	2.705279E-03	4.943627E-05
5.426071E+03	2.721213E-03	4.921065E-05
5.436027E+03	2.737717E-03	4.900993E-05
5.445983E+03	2.754724E-03	4.883358E-05
5.455939E+03	2.772077E-03	4.867962E-05
5.465895E+03	2.789354E-03	4.854150E-05
5.475851E+03	2.806045E-03	4.841145E-05
5.485808E+03	2.821705E-03	4.828309E-05
5.495764E+03	2.835798E-03	4.814868E-05
5.505720E+03	2.847632E-03	4.799801E-05
5.515676E+03	2.856481E-03	4.782034E-05
5.525632E+03	2.861740E-03	4.760635E-05
5.535588E+03	2.863053E-03	4.735072E-05
5.545544E+03	2.860242E-03	4.705093E-05
5.555500E+03	2.853531E-03	4.671085E-05
5.565456E+03	2.843244E-03	4.633571E-05
5.575412E+03	2.829989E-03	4.593508E-05
5.585369E+03	2.814313E-03	4.551717E-05
5.595325E+03	2.796855E-03	4.509154E-05
5.605281E+03	2.778026E-03	4.466377E-05
5.615237E+03	2.758147E-03	4.423792E-05
5.625193E+03	2.737433E-03	4.381628E-05
5.635149E+03	2.715804E-03	4.339638E-05
5.645105E+03	2.693277E-03	4.297733E-05
5.655061E+03	2.669685E-03	4.255526E-05
5.665017E+03	2.645063E-03	4.212959E-05
5.674973E+03	2.619621E-03	4.170249E-05
5.684929E+03	2.593728E-03	4.127871E-05
5.694886E+03	2.568132E-03	4.086907E-05
5.704842E+03	2.543829E-03	4.048831E-05
5.714798E+03	2.522114E-03	4.015612E-05
5.724754E+03	2.504531E-03	3.989616E-05
5.734710E+03	2.492678E-03	3.973315E-05
5.744666E+03	2.488281E-03	3.969404E-05
5.754622E+03	2.492963E-03	3.980434E-05
5.764578E+03	2.508266E-03	4.008844E-05
5.774534E+03	2.535426E-03	4.056608E-05
5.784490E+03	2.575483E-03	4.125401E-05
5.794446E+03	2.628979E-03	4.216119E-05
5.804403E+03	2.696034E-03	4.328984E-05
5.814359E+03	2.776199E-03	4.463312E-05
5.824315E+03	2.868373E-03	4.617365E-05
5.834271E+03	2.970706E-03	4.788185E-05
5.844227E+03	3.080654E-03	4.971679E-05
5.854183E+03	3.194895E-03	5.162467E-05
5.864139E+03	3.309490E-03	5.354145E-05
5.874095E+03	3.420170E-03	5.539735E-05
5.884051E+03	3.522490E-03	5.711943E-05
5.894007E+03	3.612297E-03	5.863912E-05
5.903964E+03	3.686061E-03	5.989779E-05
5.913920E+03	3.741168E-03	6.085153E-05
5.923876E+03	3.776218E-03	6.147613E-05
5.933832E+03	3.791114E-03	6.176874E-05
5.943788E+03	3.786852E-03	6.174444E-05
5.953744E+03	3.765527E-03	6.143652E-05
5.963700E+03	3.730035E-03	6.089158E-05
5.973656E+03	3.683650E-03	6.016270E-05
5.983612E+03	3.629864E-03	5.930671E-05
5.993568E+03	3.572056E-03	5.837889E-05
6.003524E+03	3.513433E-03	5.743175E-05
6.013481E+03	3.456753E-03	5.651064E-05
6.023437E+03	3.404373E-03	5.565429E-05
6.033393E+03	3.358174E-03	5.489377E-05
6.043349E+03	3.319562E-03	5.425225E-05
6.053305E+03	3.289435E-03	5.374458E-05
6.063261E+03	3.268296E-03	5.337906E-05
6.073217E+03	3.256122E-03	5.315539E-05
6.083173E+03	3.252477E-03	5.306642E-05
6.093129E+03	3.256514E-03	5.309828E-05
6.103085E+03	3.266854E-03	5.322844E-05
6.113041E+03	3.281840E-03	5.342985E-05
6.122998E+03	3.299342E-03	5.366786E-05
6.132954E+03	3.316921E-03	5.390291E-05
6.142910E+03	3.332039E-03	5.409403E-05
6.152866E+03	3.342053E-03	5.419871E-05
6.162822E+03	3.344697E-03	5.418081E-05
6.172778E+03	3.338512E-03	5.401746E-05
6.182734E+03	3.323139E-03	5.370372E-05
6.192690E+03	3.298765E-03	5.324357E-05
6.202646E+03	3.265911E-03	5.264636E-05
6.212602E+03	3.225252E-03	5.192389E-05
6.222559E+03	3.177429E-03	5.108735E-05
6.232515E+03	3.123113E-03	5.014835E-05
6.242471E+03	3.063020E-03	4.911915E-05
6.252427E+03	2.997732E-03	4.800979E-05
6.262383E+03	2.927936E-03	4.683193E-05
6.272339E+03	2.854329E-03	4.559731E-05
6.282295E+03	2.777718E-03	4.431930E-05
6.292251E+03	2.698963E-03	4.301205E-05
6.302207E+03	2.619147E-03	4.169311E-05
6.312163E+03	2.539404E-03	4.038074E-05
6.322119E+03	2.461113E-03	3.909700E-05
6.332076E+03	2.385809E-03	3.786624E-05
6.342032E+03	2.315131E-03	3.671440E-05
6.351988E+03	2.250800E-03	3.566860E-05
6.361944E+03	2.194670E-03	3.475806E-05
6.371900E+03	2.148564E-03	3.401138E-05
6.381856E+03	2.114352E-03	3.345803E-05
6.391812E+03	2.093880E-03	3.312712E-05
6.401768E+03	2.089014E-03	3.304821E-05
6.411724E+03	2.101568E-03	3.325027E-05
6.421680E+03	2.133504E-03	3.376481E-05
6.431636E+03	2.186754E-03	3.462330E-05
6.441593E+03	2.263328E-03	3.585881E-05
6.451549E+03	2.365385E-03	3.750716E-05
6.461505E+03	2.494974E-03	3.960252E-05
6.471461E+03	2.654103E-03	4.217884E-05
6.481417E+03	2.844308E-03	4.526307E-05
6.491373E+03	3.066313E-03	4.886971E-05
6.501329E+03	3.319439E-03	5.299128E-05
6.511285E+03	3.600701E-03	5.758352E-05
6.521241E+03	3.904444E-03	6.255929E-05
6.531197E+03	4.221821E-03	6.777954E-05
6.541154E+03	4.540985E-03	7.305578E-05
6.551110E+03	4.847984E-03	7.816384E-05
6.561066E+03	5.127649E-03	8.285766E-05
6.571022E+03	5.365584E-03	8.690114E-05
6.580978E+03	5.549239E-03	9.008565E-05
6.590934E+03	5.670013E-03	9.226455E-05
6.600890E+03	5.723604E-03	9.335967E-05
6.610846E+03	5.710542E-03	9.337092E-05
6.620802E+03	5.635764E-03	9.237046E-05
6.630758E+03	5.507453E-03	9.048450E-05
6.640714E+03	5.336065E-03	8.787810E-05
6.650671E+03	5.132858E-03	8.473134E-05
6.660627E+03	4.908879E-03	8.122276E-05
6.670583E+03	4.674151E-03	7.751583E-05
6.680539E+03	4.437243E-03	7.375158E-05
6.690495E+03	4.204903E-03	7.004216E-05
6.700451E+03	3.982293E-03	6.647429E-05
6.710407E+03	3.772915E-03	6.310782E-05
6.720363E+03	3.579058E-03	5.998273E-05
6.730319E+03	3.401922E-03	5.712106E-05
6.740275E+03	3.241767E-03	5.452911E-05
6.750231E+03	3.098349E-03	5.220471E-05
6.760188E+03	2.970953E-03	5.013757E-05
6.770144E+03	2.858601E-03	4.831286E-05
6.780100E+03	2.760079E-03	4.671148E-05
6.790056E+03	2.674152E-03	4.531381E-05
6.800012E+03	2.599484E-03	4.409825E-05
6.809968E+03	2.534931E-03	4.304632E-05
6.819924E+03	2.479281E-03	4.213815E-05
6.829880E+03	2.431493E-03	4.135666E-05
6.839836E+03	2.390683E-03	4.068725E-05
6.849792E+03	2.356071E-03	4.011704E-05
6.859749E+03	2.326984E-03	3.963484E-05
6.869705E+03	2.302931E-03	3.923247E-05
6.879661E+03	2.283475E-03	3.890265E-05
6.889617E+03	2.268352E-03	3.864095E-05
6.899573E+03	2.257258E-03	3.844220E-05
6.909529E+03	2.250011E-03	3.830330E-05
6.919485E+03	2.246395E-03	3.822050E-05
6.929441E+03	2.246240E-03	3.819083E-05
6.939397E+03	2.249327E-03	3.821040E-05
6.949353E+03	2.255396E-03	3.827465E-05
6.959309E+03	2.264111E-03	3.837767E-05
6.969266E+03	2.275134E-03	3.851353E-05
6.979222E+03	2.288051E-03	3.867504E-05
6.989178E+03	2.302375E-03	3.885376E-05
6.999134E+03	2.317647E-03	3.904179E-05
7.009090E+03	2.333369E-03	3.923064E-05
7.019046E+03	2.349034E-03	3.941172E-05
7.029002E+03	2.364207E-03	3.957771E-05
7.038958E+03	2.378587E-03	3.972365E-05
7.048914E+03	2.391832E-03	3.984397E-05
7.058870E+03	2.403875E-03	3.993773E-05
7.068826E+03	2.414737E-03	4.000552E-05
7.078783E+03	2.424530E-03	4.004942E-05
7.088739E+03	2.433625E-03	4.007586E-05
7.098695E+03	2.442461E-03	4.009227E-05
7.108651E+03	2.451504E-03	4.010646E-05
7.118607E+03	2.461395E-03	4.012905E-05
7.128563E+03	2.472688E-03	4.016908E-05
7.138519E+03	2.485928E-03	4.023533E-05
7.148475E+03	2.501607E-03	4.033559E-05
7.158431E+03	2.519994E-03	4.047400E-05
7.168387E+03	2.541298E-03	4.065360E-05
7.178344E+03	2.565510E-03	4.087397E-05
7.188300E+03	2.592456E-03	4.113206E-05
7.198256E+03	2.621657E-03	4.142005E-05
7.208212E+03	2.652492E-03	4.172807E-05
7.218168E+03	2.684214E-03	4.204445E-05
7.228124E+03	2.715804E-03	4.235353E-05
7.238080E+03	2.746103E-03	4.263779E-05
7.248036E+03	2.773931E-03	4.287973E-05
7.257992E+03	2.798000E-03	4.306058E-05
7.267948E+03	2.817132E-03	4.316361E-05
7.277904E+03	2.830220E-03	4.317354E-05
7.287861E+03	2.836300E-03	4.307757E-05
7.297817E+03	2.834732E-03	4.286802E-05
7.307773E+03	2.825095E-03	4.254069E-05
7.317729E+03	2.807365E-03	4.209734E-05
7.327685E+03	2.781758E-03	4.154332E-05
7.337641E+03	2.748854E-03	4.088920E-05
7.347597E+03	2.709393E-03	4.014768E-05
7.357553E+03	2.664314E-03	3.933415E-05
7.367509E+03	2.614678E-03	3.846545E-05
7.377465E+03	2.561486E-03	3.755721E-05
7.387421E+03	2.505724E-03	3.662451E-05
7.397378E+03	2.448310E-03	3.568114E-05
7.407334E+03	2.389925E-03	3.473727E-05
7.417290E+03	2.331270E-03	3.380306E-05
7.427246E+03	2.272695E-03	3.288348E-05
7.437202E+03	2.214571E-03	3.198325E-05
7.447158E+03	2.157056E-03	3.110368E-05
7.457114E+03	2.100253E-03	3.024533E-05
7.467070E+03	2.044257E-03	2.940866E-05
7.477026E+03	1.989324E-03	2.859645E-05
7.486982E+03	1.935977E-03	2.781538E-05
7.496939E+03	1.885074E-03	2.707694E-05
7.506895E+03	1.837531E-03	2.639357E-05
7.516851E+03	1.794176E-03	2.577646E-05
7.526807E+03	1.755608E-03	2.523367E-05
7.536763E+03	1.722274E-03	2.477117E-05
7.546719E+03	1.694459E-03	2.439277E-05
7.556675E+03	1.672335E-03	2.410075E-05
7.566631E+03	1.655909E-03	2.389515E-05
7.576587E+03	1.645115E-03	2.377509E-05
7.586543E+03	1.639826E-03	2.373887E-05
7.596499E+03	1.639788E-03	2.378309E-05
7.606456E+03	1.644695E-03	2.390365E-05
7.616412E+03	1.654189E-03	2.409576E-05
7.626368E+03	1.667788E-03	2.435283E-05
7.636324E+03	1.684980E-03	2.466787E-05
7.646280E+03	1.705138E-03	2.503218E-05
7.656236E+03	1.727599E-03	2.543649E-05
7.666192E+03	1.751683E-03	2.587126E-05
7.676148E+03	1.776646E-03	2.632586E-05
7.686104E+03	1.801800E-03	2.679042E-05
7.696060E+03	1.826439E-03	2.725468E-05
7.706016E+03	1.849970E-03	2.770991E-05
7.715973E+03	1.871826E-03	2.814769E-05
7.725929E+03	1.891592E-03	2.856172E-05
