#wls	flux	fluxerr
1.592975E+03	1.753871E-05	4.414765E-06
1.632799E+03	1.777142E-05	4.458156E-06
1.672624E+03	1.803324E-05	4.508036E-06
1.712448E+03	1.831978E-05	4.563216E-06
1.752272E+03	1.863229E-05	4.623911E-06
1.792097E+03	1.897197E-05	4.690315E-06
1.831921E+03	1.934565E-05	4.763999E-06
1.871746E+03	1.974308E-05	4.842320E-06
1.911570E+03	2.018248E-05	4.929617E-06
1.951394E+03	2.064763E-05	5.021777E-06
1.991219E+03	2.115690E-05	5.123119E-06
2.031043E+03	2.169367E-05	5.229450E-06
2.070867E+03	2.227654E-05	5.345090E-06
2.110692E+03	2.289454E-05	5.467207E-06
2.150516E+03	2.354834E-05	5.595779E-06
2.190341E+03	2.425108E-05	5.733724E-06
2.230165E+03	2.499141E-05	5.878121E-06
2.269989E+03	2.577645E-05	6.030423E-06
2.309814E+03	2.660736E-05	6.190651E-06
2.349638E+03	2.748543E-05	6.358839E-06
2.389462E+03	2.841883E-05	6.536586E-06
2.429287E+03	2.939607E-05	6.720944E-06
2.469111E+03	3.043273E-05	6.915165E-06
2.508936E+03	3.153168E-05	7.119531E-06
2.548760E+03	3.268911E-05	7.332798E-06
2.588584E+03	3.390862E-05	7.555382E-06
2.628409E+03	3.520945E-05	7.791116E-06
2.668233E+03	3.658239E-05	8.037456E-06
2.708057E+03	3.804137E-05	8.296941E-06
2.747882E+03	3.959423E-05	8.570680E-06
2.787706E+03	4.125838E-05	8.861767E-06
2.827531E+03	4.303715E-05	9.170154E-06
2.867355E+03	4.495216E-05	9.499605E-06
2.907179E+03	4.701107E-05	9.850779E-06
2.947004E+03	4.924156E-05	1.022840E-05
2.986828E+03	5.166675E-05	1.063601E-05
2.996784E+03	5.231465E-05	1.074474E-05
3.006740E+03	5.296543E-05	1.085331E-05
3.016696E+03	5.363801E-05	1.096560E-05
3.026652E+03	5.432369E-05	1.107979E-05
3.036609E+03	5.502295E-05	1.119595E-05
3.046565E+03	5.574586E-05	1.131610E-05
3.056521E+03	5.648358E-05	1.143841E-05
3.066477E+03	5.723667E-05	1.156297E-05
3.076433E+03	5.800576E-05	1.168988E-05
3.086389E+03	5.880129E-05	1.182121E-05
3.096345E+03	5.961428E-05	1.195510E-05
3.106301E+03	6.044542E-05	1.209166E-05
3.116257E+03	6.130552E-05	1.223303E-05
3.126213E+03	6.218542E-05	1.237732E-05
3.136169E+03	6.308595E-05	1.252466E-05
3.146126E+03	6.400795E-05	1.267519E-05
3.156082E+03	6.496274E-05	1.283108E-05
3.166038E+03	6.594102E-05	1.299047E-05
3.175994E+03	6.695439E-05	1.315557E-05
3.185950E+03	6.799343E-05	1.332449E-05
3.195906E+03	6.905922E-05	1.349739E-05
3.205862E+03	7.015289E-05	1.367443E-05
3.215818E+03	7.128669E-05	1.385794E-05
3.225774E+03	7.245102E-05	1.404600E-05
3.235730E+03	7.364715E-05	1.423878E-05
3.245687E+03	7.488793E-05	1.443871E-05
3.255643E+03	7.616356E-05	1.464382E-05
3.265599E+03	7.747556E-05	1.485433E-05
3.275555E+03	7.883734E-05	1.507274E-05
3.285511E+03	8.023899E-05	1.529708E-05
3.295467E+03	8.169437E-05	1.552988E-05
3.305423E+03	8.318118E-05	1.576684E-05
3.315379E+03	8.473818E-05	1.601521E-05
3.325335E+03	8.633052E-05	1.626829E-05
3.335291E+03	8.798536E-05	1.653112E-05
3.345247E+03	8.969245E-05	1.680166E-05
3.355204E+03	9.146723E-05	1.708268E-05
3.365160E+03	9.329935E-05	1.737215E-05
3.375116E+03	9.519133E-05	1.767040E-05
3.385072E+03	9.715954E-05	1.798035E-05
3.395028E+03	9.919345E-05	1.829991E-05
3.404984E+03	1.012960E-04	1.862950E-05
3.414940E+03	1.034844E-04	1.897214E-05
3.424896E+03	1.057481E-04	1.932571E-05
3.434852E+03	1.081051E-04	1.969336E-05
3.444808E+03	1.105444E-04	2.007293E-05
3.454764E+03	1.130698E-04	2.046490E-05
3.464721E+03	1.157003E-04	2.087256E-05
3.474677E+03	1.184249E-04	2.129368E-05
3.484633E+03	1.212634E-04	2.173166E-05
3.494589E+03	1.242044E-04	2.218423E-05
3.504545E+03	1.272520E-04	2.265191E-05
3.514501E+03	1.304274E-04	2.313823E-05
3.524457E+03	1.337186E-04	2.364079E-05
3.534413E+03	1.371472E-04	2.416322E-05
3.544369E+03	1.407007E-04	2.470299E-05
3.554325E+03	1.443833E-04	2.526060E-05
3.564282E+03	1.482176E-04	2.583973E-05
3.574238E+03	1.521898E-04	2.643764E-05
3.584194E+03	1.563229E-04	2.705803E-05
3.594150E+03	1.606016E-04	2.769793E-05
3.604106E+03	1.650489E-04	2.836099E-05
3.614062E+03	1.696272E-04	2.904042E-05
3.624018E+03	1.744007E-04	2.974687E-05
3.633974E+03	1.793305E-04	3.047333E-05
3.643930E+03	1.844178E-04	3.121963E-05
3.653886E+03	1.896856E-04	3.198935E-05
3.663842E+03	1.951124E-04	3.277846E-05
3.673799E+03	2.007212E-04	3.359047E-05
3.683755E+03	2.064882E-04	3.442100E-05
3.693711E+03	2.124116E-04	3.526940E-05
3.703667E+03	2.185136E-04	3.613896E-05
3.713623E+03	2.247671E-04	3.702484E-05
3.723579E+03	2.311934E-04	3.793019E-05
3.733535E+03	2.377626E-04	3.884971E-05
3.743491E+03	2.444958E-04	3.978649E-05
3.753447E+03	2.513594E-04	4.073471E-05
3.763403E+03	2.583739E-04	4.169735E-05
3.773359E+03	2.655023E-04	4.266811E-05
3.783316E+03	2.727642E-04	4.364983E-05
3.793272E+03	2.800886E-04	4.463085E-05
3.803228E+03	2.875540E-04	4.562345E-05
3.813184E+03	2.950861E-04	4.661554E-05
3.823140E+03	3.026694E-04	4.760449E-05
3.833096E+03	3.103199E-04	4.859261E-05
3.843052E+03	3.179873E-04	4.957188E-05
3.853008E+03	3.256860E-04	5.054441E-05
3.862964E+03	3.333615E-04	5.150168E-05
3.872920E+03	3.410264E-04	5.244559E-05
3.882877E+03	3.486226E-04	5.336720E-05
3.892833E+03	3.561244E-04	5.426270E-05
3.902789E+03	3.635414E-04	5.513366E-05
3.912745E+03	3.708469E-04	5.597619E-05
3.922701E+03	3.779750E-04	5.678056E-05
3.932657E+03	3.848945E-04	5.754242E-05
3.942613E+03	3.916124E-04	5.826321E-05
3.952569E+03	3.980578E-04	5.893282E-05
3.962525E+03	4.042370E-04	5.955271E-05
3.972481E+03	4.100802E-04	6.011319E-05
3.982437E+03	4.156009E-04	6.061693E-05
3.992394E+03	4.207430E-04	6.105643E-05
4.002350E+03	4.254960E-04	6.143098E-05
4.012306E+03	4.298945E-04	6.174637E-05
4.022262E+03	4.339353E-04	6.200292E-05
4.032218E+03	4.375758E-04	6.219531E-05
4.042174E+03	4.408125E-04	6.232395E-05
4.052130E+03	4.436796E-04	6.239450E-05
4.062086E+03	4.461298E-04	6.240119E-05
4.072042E+03	4.481602E-04	6.234453E-05
4.081998E+03	4.498158E-04	6.223170E-05
4.091954E+03	4.511094E-04	6.206528E-05
4.101911E+03	4.520270E-04	6.184420E-05
4.111867E+03	4.526138E-04	6.157547E-05
4.121823E+03	4.529671E-04	6.127302E-05
4.131779E+03	4.531149E-04	6.094113E-05
4.141735E+03	4.531718E-04	6.059562E-05
4.151691E+03	4.531775E-04	6.024199E-05
4.161647E+03	4.532099E-04	5.989066E-05
4.171603E+03	4.533806E-04	5.955621E-05
4.181559E+03	4.537192E-04	5.924219E-05
4.191515E+03	4.543258E-04	5.896121E-05
4.201472E+03	4.552163E-04	5.871465E-05
4.211428E+03	4.564393E-04	5.850808E-05
4.221384E+03	4.580761E-04	5.835106E-05
4.231340E+03	4.601280E-04	5.824273E-05
4.241296E+03	4.626676E-04	5.819123E-05
4.251252E+03	4.656882E-04	5.819450E-05
4.261208E+03	4.692134E-04	5.825432E-05
4.271164E+03	4.732993E-04	5.837633E-05
4.281120E+03	4.779178E-04	5.855570E-05
4.291076E+03	4.830681E-04	5.879100E-05
4.301032E+03	4.887784E-04	5.908430E-05
4.310989E+03	4.949981E-04	5.942810E-05
4.320945E+03	5.017098E-04	5.981902E-05
4.330901E+03	5.089353E-04	6.025840E-05
4.340857E+03	5.166227E-04	6.073878E-05
4.350813E+03	5.248027E-04	6.126256E-05
4.360769E+03	5.333962E-04	6.181929E-05
4.370725E+03	5.425321E-04	6.242268E-05
4.380681E+03	5.521100E-04	6.305986E-05
4.390637E+03	5.622417E-04	6.374233E-05
4.400593E+03	5.728844E-04	6.446379E-05
4.410549E+03	5.842091E-04	6.524199E-05
4.420506E+03	5.961422E-04	6.606694E-05
4.430462E+03	6.088294E-04	6.695306E-05
4.440418E+03	6.222959E-04	6.790107E-05
4.450374E+03	6.366152E-04	6.891686E-05
4.460330E+03	6.519105E-04	7.001137E-05
4.470286E+03	6.682123E-04	7.118522E-05
4.480242E+03	6.855872E-04	7.244277E-05
4.490198E+03	7.040784E-04	7.378564E-05
4.500154E+03	7.237362E-04	7.521606E-05
4.510110E+03	7.444692E-04	7.672142E-05
4.520067E+03	7.661803E-04	7.828892E-05
4.530023E+03	7.887031E-04	7.989898E-05
4.539979E+03	8.118110E-04	8.152658E-05
4.549935E+03	8.352910E-04	8.314887E-05
4.559891E+03	8.587317E-04	8.472415E-05
4.569847E+03	8.819262E-04	8.623217E-05
4.579803E+03	9.045684E-04	8.764382E-05
4.589759E+03	9.262697E-04	8.892315E-05
4.599715E+03	9.468620E-04	9.005658E-05
4.609671E+03	9.662472E-04	9.103774E-05
4.619627E+03	9.842289E-04	9.185146E-05
4.629584E+03	1.000932E-03	9.251299E-05
4.639540E+03	1.016345E-03	9.302470E-05
4.649496E+03	1.030564E-03	9.339864E-05
4.659452E+03	1.043716E-03	9.364946E-05
4.669408E+03	1.056020E-03	9.379940E-05
4.679364E+03	1.067516E-03	9.385437E-05
4.689320E+03	1.078455E-03	9.383830E-05
4.699276E+03	1.089093E-03	9.377486E-05
4.709232E+03	1.099490E-03	9.366977E-05
4.719188E+03	1.109963E-03	9.355064E-05
4.729144E+03	1.120550E-03	9.342039E-05
4.739101E+03	1.131536E-03	9.330207E-05
4.749057E+03	1.142979E-03	9.319945E-05
4.759013E+03	1.154908E-03	9.311365E-05
4.768969E+03	1.167520E-03	9.305907E-05
4.778925E+03	1.180773E-03	9.303045E-05
4.788881E+03	1.194581E-03	9.301935E-05
4.798837E+03	1.209012E-03	9.302965E-05
4.808793E+03	1.223890E-03	9.304614E-05
4.818749E+03	1.239009E-03	9.305217E-05
4.828705E+03	1.254354E-03	9.304607E-05
4.838662E+03	1.269612E-03	9.300435E-05
4.848618E+03	1.284751E-03	9.292492E-05
4.858574E+03	1.299450E-03	9.278530E-05
4.868530E+03	1.313612E-03	9.257999E-05
4.878486E+03	1.327092E-03	9.230040E-05
4.888442E+03	1.339778E-03	9.194092E-05
4.898398E+03	1.351590E-03	9.149840E-05
4.908354E+03	1.362470E-03	9.097153E-05
4.918310E+03	1.372383E-03	9.036073E-05
4.928266E+03	1.381236E-03	8.966279E-05
4.938222E+03	1.389172E-03	8.888993E-05
4.948179E+03	1.396041E-03	8.803548E-05
4.958135E+03	1.401916E-03	8.710700E-05
4.968091E+03	1.406769E-03	8.610579E-05
4.978047E+03	1.410533E-03	8.503081E-05
4.988003E+03	1.413034E-03	8.387499E-05
4.997959E+03	1.414301E-03	8.264367E-05
5.007915E+03	1.414049E-03	8.132414E-05
5.017871E+03	1.412233E-03	7.991824E-05
5.027827E+03	1.408808E-03	7.842799E-05
5.037783E+03	1.403775E-03	7.685812E-05
5.047739E+03	1.397406E-03	7.522799E-05
5.057696E+03	1.390061E-03	7.356054E-05
5.067652E+03	1.382290E-03	7.188722E-05
5.077608E+03	1.374675E-03	7.023923E-05
5.087564E+03	1.367998E-03	6.865559E-05
5.097520E+03	1.362619E-03	6.715178E-05
5.107476E+03	1.359238E-03	6.575848E-05
5.117432E+03	1.358133E-03	6.448370E-05
5.127388E+03	1.359685E-03	6.333949E-05
5.137344E+03	1.364104E-03	6.232871E-05
5.147300E+03	1.371382E-03	6.144376E-05
5.157256E+03	1.381440E-03	6.067413E-05
5.167213E+03	1.393977E-03	6.000014E-05
5.177169E+03	1.408523E-03	5.939613E-05
5.187125E+03	1.424657E-03	5.884026E-05
5.197081E+03	1.441849E-03	5.830775E-05
5.207037E+03	1.459512E-03	5.777370E-05
5.216993E+03	1.477265E-03	5.722317E-05
5.226949E+03	1.494646E-03	5.663954E-05
5.236905E+03	1.511389E-03	5.601512E-05
5.246861E+03	1.527225E-03	5.534307E-05
5.256817E+03	1.541866E-03	5.461677E-05
5.266774E+03	1.555205E-03	5.383687E-05
5.276730E+03	1.567026E-03	5.300079E-05
5.286686E+03	1.577303E-03	5.211284E-05
5.296642E+03	1.585915E-03	5.117441E-05
5.306598E+03	1.592965E-03	5.019430E-05
5.316554E+03	1.598565E-03	4.918128E-05
5.326510E+03	1.602866E-03	4.814498E-05
5.336466E+03	1.606313E-03	4.710316E-05
5.346422E+03	1.609303E-03	4.607100E-05
5.356378E+03	1.612356E-03	4.506608E-05
5.366334E+03	1.616075E-03	4.410700E-05
5.376291E+03	1.620944E-03	4.320767E-05
5.386247E+03	1.627200E-03	4.237466E-05
5.396203E+03	1.634964E-03	4.161137E-05
5.406159E+03	1.644012E-03	4.091255E-05
5.416115E+03	1.654142E-03	4.027443E-05
5.426071E+03	1.664912E-03	3.968823E-05
5.436027E+03	1.675896E-03	3.914665E-05
5.445983E+03	1.686762E-03	3.864550E-05
5.455939E+03	1.697075E-03	3.817892E-05
5.465895E+03	1.706511E-03	3.774411E-05
5.475851E+03	1.714562E-03	3.733455E-05
5.485808E+03	1.720471E-03	3.693858E-05
5.495764E+03	1.723710E-03	3.654980E-05
5.505720E+03	1.723675E-03	3.615980E-05
5.515676E+03	1.719907E-03	3.576263E-05
5.525632E+03	1.712245E-03	3.535636E-05
5.535588E+03	1.700852E-03	3.494268E-05
5.545544E+03	1.686033E-03	3.452488E-05
5.555500E+03	1.668470E-03	3.411276E-05
5.565456E+03	1.648871E-03	3.371584E-05
5.575412E+03	1.628171E-03	3.334774E-05
5.585369E+03	1.607402E-03	3.302395E-05
5.595325E+03	1.587325E-03	3.275465E-05
5.605281E+03	1.568542E-03	3.254721E-05
5.615237E+03	1.551500E-03	3.240636E-05
5.625193E+03	1.536263E-03	3.232949E-05
5.635149E+03	1.522678E-03	3.230983E-05
5.645105E+03	1.510457E-03	3.233807E-05
5.655061E+03	1.499078E-03	3.239994E-05
5.665017E+03	1.488082E-03	3.248251E-05
5.674973E+03	1.476921E-03	3.257079E-05
5.684929E+03	1.465322E-03	3.265558E-05
5.694886E+03	1.453345E-03	3.273525E-05
5.704842E+03	1.441446E-03	3.281742E-05
5.714798E+03	1.430381E-03	3.291728E-05
5.724754E+03	1.421522E-03	3.306538E-05
5.734710E+03	1.416388E-03	3.329720E-05
5.744666E+03	1.416840E-03	3.365811E-05
5.754622E+03	1.424643E-03	3.419309E-05
5.764578E+03	1.441378E-03	3.494445E-05
5.774534E+03	1.468549E-03	3.595404E-05
5.784490E+03	1.507030E-03	3.724944E-05
5.794446E+03	1.557189E-03	3.884612E-05
5.804403E+03	1.619358E-03	4.075855E-05
5.814359E+03	1.693318E-03	4.298709E-05
5.824315E+03	1.778522E-03	4.552299E-05
5.834271E+03	1.874030E-03	4.834632E-05
5.844227E+03	1.978103E-03	5.141505E-05
5.854183E+03	2.088289E-03	5.466670E-05
5.864139E+03	2.201221E-03	5.801234E-05
5.874095E+03	2.312580E-03	6.133517E-05
5.884051E+03	2.416995E-03	6.448742E-05
5.894007E+03	2.508809E-03	6.731053E-05
5.903964E+03	2.582734E-03	6.965303E-05
5.913920E+03	2.634040E-03	7.137670E-05
5.923876E+03	2.660235E-03	7.240307E-05
5.933832E+03	2.661243E-03	7.272002E-05
5.943788E+03	2.638966E-03	7.237124E-05
5.953744E+03	2.597145E-03	7.145331E-05
5.963700E+03	2.540109E-03	7.008175E-05
5.973656E+03	2.472594E-03	6.838574E-05
5.983612E+03	2.399144E-03	6.649126E-05
5.993568E+03	2.323409E-03	6.450097E-05
6.003524E+03	2.248747E-03	6.251043E-05
6.013481E+03	2.177530E-03	6.058825E-05
6.023437E+03	2.111600E-03	5.878833E-05
6.033393E+03	2.052107E-03	5.714526E-05
6.043349E+03	1.999942E-03	5.568602E-05
6.053305E+03	1.955721E-03	5.442954E-05
6.063261E+03	1.919851E-03	5.338851E-05
6.073217E+03	1.892595E-03	5.257110E-05
6.083173E+03	1.873816E-03	5.197387E-05
6.093129E+03	1.863256E-03	5.158961E-05
6.103085E+03	1.860430E-03	5.140459E-05
6.113041E+03	1.864638E-03	5.139874E-05
6.122998E+03	1.874819E-03	5.154203E-05
6.132954E+03	1.889832E-03	5.180233E-05
6.142910E+03	1.908392E-03	5.214370E-05
6.152866E+03	1.929250E-03	5.253159E-05
6.162822E+03	1.951171E-03	5.293222E-05
6.172778E+03	1.973290E-03	5.332235E-05
6.182734E+03	1.994988E-03	5.368586E-05
6.192690E+03	2.015887E-03	5.401337E-05
6.202646E+03	2.035579E-03	5.429503E-05
6.212602E+03	2.053806E-03	5.452528E-05
6.222559E+03	2.070314E-03	5.469895E-05
6.232515E+03	2.084884E-03	5.481201E-05
6.242471E+03	2.097096E-03	5.485542E-05
6.252427E+03	2.106566E-03	5.482136E-05
6.262383E+03	2.112863E-03	5.470119E-05
6.272339E+03	2.115645E-03	5.448877E-05
6.282295E+03	2.114501E-03	5.417652E-05
6.292251E+03	2.109254E-03	5.376307E-05
6.302207E+03	2.099878E-03	5.325096E-05
6.312163E+03	2.086585E-03	5.264876E-05
6.322119E+03	2.069620E-03	5.196562E-05
6.332076E+03	2.049519E-03	5.121781E-05
6.342032E+03	2.027204E-03	5.043084E-05
6.351988E+03	2.003832E-03	4.963540E-05
6.361944E+03	1.980909E-03	4.887034E-05
6.371900E+03	1.960133E-03	4.817840E-05
6.381856E+03	1.943450E-03	4.760791E-05
6.391812E+03	1.932760E-03	4.720548E-05
6.401768E+03	1.930080E-03	4.702028E-05
6.411724E+03	1.937540E-03	4.710418E-05
6.421680E+03	1.957127E-03	4.750574E-05
6.431636E+03	1.990761E-03	4.827250E-05
6.441593E+03	2.040201E-03	4.944888E-05
6.451549E+03	2.106862E-03	5.107236E-05
6.461505E+03	2.192587E-03	5.319163E-05
6.471461E+03	2.298747E-03	5.584383E-05
6.481417E+03	2.426959E-03	5.907335E-05
6.491373E+03	2.578089E-03	6.290789E-05
6.501329E+03	2.752041E-03	6.735313E-05
6.511285E+03	2.947102E-03	7.237612E-05
6.521241E+03	3.158931E-03	7.787943E-05
6.531197E+03	3.380468E-03	8.369708E-05
6.541154E+03	3.601234E-03	8.957509E-05
6.551110E+03	3.808029E-03	9.518609E-05
6.561066E+03	3.985799E-03	1.001485E-04
6.571022E+03	4.119403E-03	1.040689E-04
6.580978E+03	4.196191E-03	1.066071E-04
6.590934E+03	4.208711E-03	1.075461E-04
6.600890E+03	4.156257E-03	1.068364E-04
6.610846E+03	4.043735E-03	1.045712E-04
6.620802E+03	3.881301E-03	1.009830E-04
6.630758E+03	3.682517E-03	9.639891E-05
6.640714E+03	3.461968E-03	9.118222E-05
6.650671E+03	3.233811E-03	8.569453E-05
6.660627E+03	3.009886E-03	8.024551E-05
6.670583E+03	2.798488E-03	7.505796E-05
6.680539E+03	2.604446E-03	7.026711E-05
6.690495E+03	2.430071E-03	6.594338E-05
6.700451E+03	2.275671E-03	6.210419E-05
6.710407E+03	2.140325E-03	5.873351E-05
6.720363E+03	2.022552E-03	5.579938E-05
6.730319E+03	1.920580E-03	5.326073E-05
6.740275E+03	1.832832E-03	5.108082E-05
6.750231E+03	1.757684E-03	4.922053E-05
6.760188E+03	1.693743E-03	4.764613E-05
6.770144E+03	1.639529E-03	4.632048E-05
6.780100E+03	1.593781E-03	4.521170E-05
6.790056E+03	1.555230E-03	4.428691E-05
6.800012E+03	1.522849E-03	4.351936E-05
6.809968E+03	1.495606E-03	4.288151E-05
6.819924E+03	1.472658E-03	4.235074E-05
6.829880E+03	1.453352E-03	4.190944E-05
6.839836E+03	1.437089E-03	4.154125E-05
6.849792E+03	1.423326E-03	4.123107E-05
6.859749E+03	1.411696E-03	4.096880E-05
6.869705E+03	1.402000E-03	4.074895E-05
6.879661E+03	1.394117E-03	4.056825E-05
6.889617E+03	1.388028E-03	4.042631E-05
6.899573E+03	1.383867E-03	4.032712E-05
6.909529E+03	1.381836E-03	4.027655E-05
6.919485E+03	1.382058E-03	4.027807E-05
6.929441E+03	1.384560E-03	4.033234E-05
6.939397E+03	1.389419E-03	4.044126E-05
6.949353E+03	1.396517E-03	4.060096E-05
6.959309E+03	1.405757E-03	4.080809E-05
6.969266E+03	1.416822E-03	4.105278E-05
6.979222E+03	1.429357E-03	4.132414E-05
6.989178E+03	1.442767E-03	4.160428E-05
6.999134E+03	1.456442E-03	4.187505E-05
7.009090E+03	1.469582E-03	4.211300E-05
7.019046E+03	1.481235E-03	4.229080E-05
7.029002E+03	1.490546E-03	4.238425E-05
7.038958E+03	1.496585E-03	4.236766E-05
7.048914E+03	1.498672E-03	4.222301E-05
7.058870E+03	1.496368E-03	4.193970E-05
7.068826E+03	1.489616E-03	4.151831E-05
7.078783E+03	1.478866E-03	4.097374E-05
7.088739E+03	1.464795E-03	4.032719E-05
7.098695E+03	1.448550E-03	3.961236E-05
7.108651E+03	1.431359E-03	3.886458E-05
7.118607E+03	1.414671E-03	3.812422E-05
7.128563E+03	1.399626E-03	3.742220E-05
7.138519E+03	1.387611E-03	3.679504E-05
7.148475E+03	1.379552E-03	3.626575E-05
7.158431E+03	1.376299E-03	3.585440E-05
7.168387E+03	1.378388E-03	3.557191E-05
7.178344E+03	1.386239E-03	3.542560E-05
7.188300E+03	1.399938E-03	3.541364E-05
7.198256E+03	1.419276E-03	3.552660E-05
7.208212E+03	1.443912E-03	3.575180E-05
7.218168E+03	1.473066E-03	3.606612E-05
7.228124E+03	1.505844E-03	3.644449E-05
7.238080E+03	1.540837E-03	3.685053E-05
7.248036E+03	1.576446E-03	3.724507E-05
7.257992E+03	1.610932E-03	3.758761E-05
7.267948E+03	1.642094E-03	3.782923E-05
7.277904E+03	1.667740E-03	3.792407E-05
7.287861E+03	1.685902E-03	3.783406E-05
7.297817E+03	1.694801E-03	3.752788E-05
7.307773E+03	1.693578E-03	3.699660E-05
7.317729E+03	1.682272E-03	3.625162E-05
7.327685E+03	1.661345E-03	3.531338E-05
7.337641E+03	1.632162E-03	3.422048E-05
7.347597E+03	1.596386E-03	3.301590E-05
7.357553E+03	1.556030E-03	3.174768E-05
7.367509E+03	1.512829E-03	3.045566E-05
7.377465E+03	1.468469E-03	2.917654E-05
7.387421E+03	1.424362E-03	2.793968E-05
7.397378E+03	1.381186E-03	2.675857E-05
7.407334E+03	1.339450E-03	2.564266E-05
7.417290E+03	1.299325E-03	2.459445E-05
7.427246E+03	1.260993E-03	2.361640E-05
7.437202E+03	1.224332E-03	2.270509E-05
7.447158E+03	1.189364E-03	2.185979E-05
7.457114E+03	1.156022E-03	2.107811E-05
7.467070E+03	1.124402E-03	2.036052E-05
7.477026E+03	1.094665E-03	1.970856E-05
7.486982E+03	1.067118E-03	1.912525E-05
7.496939E+03	1.042186E-03	1.861495E-05
7.506895E+03	1.020297E-03	1.818231E-05
7.516851E+03	1.001963E-03	1.783372E-05
7.526807E+03	9.876074E-04	1.757436E-05
7.536763E+03	9.775551E-04	1.740814E-05
7.546719E+03	9.719553E-04	1.733627E-05
7.556675E+03	9.709617E-04	1.736051E-05
7.566631E+03	9.746577E-04	1.748181E-05
7.576587E+03	9.831080E-04	1.770120E-05
7.586543E+03	9.963224E-04	1.801906E-05
7.596499E+03	1.014406E-03	1.843787E-05
7.606456E+03	1.037216E-03	1.895587E-05
7.616412E+03	1.064649E-03	1.957222E-05
7.626368E+03	1.096362E-03	2.028184E-05
7.636324E+03	1.131926E-03	2.107806E-05
7.646280E+03	1.170473E-03	2.194589E-05
7.656236E+03	1.211003E-03	2.286754E-05
7.666192E+03	1.252155E-03	2.381792E-05
7.676148E+03	1.292320E-03	2.476642E-05
7.686104E+03	1.330156E-03	2.568673E-05
7.696060E+03	1.364450E-03	2.655428E-05
7.706016E+03	1.394506E-03	2.735391E-05
7.715973E+03	1.419855E-03	2.807450E-05
7.725929E+03	1.440321E-03	2.871050E-05
