#wls	flux	fluxerr
1.600000E+03	9.603499E-18	8.962114E-18
1.640000E+03	1.013133E-17	9.023917E-18
1.680000E+03	1.070161E-17	9.068687E-18
1.720000E+03	1.132929E-17	9.105372E-18
1.760000E+03	1.201567E-17	9.131582E-18
1.800000E+03	1.277331E-17	9.154970E-18
1.840000E+03	1.361068E-17	9.181165E-18
1.880000E+03	1.453080E-17	9.214505E-18
1.920000E+03	1.554830E-17	9.269872E-18
1.960000E+03	1.667810E-17	9.364225E-18
2.000000E+03	1.791356E-17	9.504540E-18
2.040000E+03	1.927144E-17	9.711900E-18
2.080000E+03	2.073642E-17	9.989142E-18
2.120000E+03	2.230922E-17	1.034441E-17
2.160000E+03	2.398648E-17	1.077940E-17
2.200000E+03	2.572639E-17	1.127500E-17
2.240000E+03	2.751447E-17	1.182134E-17
2.280000E+03	2.932524E-17	1.239833E-17
2.320000E+03	3.111329E-17	1.297008E-17
2.360000E+03	3.285359E-17	1.350250E-17
2.400000E+03	3.448820E-17	1.394723E-17
2.440000E+03	3.602950E-17	1.429504E-17
2.480000E+03	3.745490E-17	1.454521E-17
2.520000E+03	3.882016E-17	1.475931E-17
2.560000E+03	4.015407E-17	1.501862E-17
2.600000E+03	4.153356E-17	1.543734E-17
2.640000E+03	4.300724E-17	1.610396E-17
2.680000E+03	4.460383E-17	1.705473E-17
2.720000E+03	4.635100E-17	1.826994E-17
2.760000E+03	4.825964E-17	1.968118E-17
2.800000E+03	5.031975E-17	2.119192E-17
2.840000E+03	5.252669E-17	2.270632E-17
2.880000E+03	5.486857E-17	2.413471E-17
2.920000E+03	5.734520E-17	2.540690E-17
2.960000E+03	5.991383E-17	2.645079E-17
3.000000E+03	6.253031E-17	2.721279E-17
3.010000E+03	6.318664E-17	2.735494E-17
3.020000E+03	6.384884E-17	2.747980E-17
3.030000E+03	6.450231E-17	2.758116E-17
3.040000E+03	6.515639E-17	2.766324E-17
3.050000E+03	6.579631E-17	2.772005E-17
3.060000E+03	6.643114E-17	2.775582E-17
3.070000E+03	6.705785E-17	2.776973E-17
3.080000E+03	6.767332E-17	2.776103E-17
3.090000E+03	6.828606E-17	2.773378E-17
3.100000E+03	6.888099E-17	2.768246E-17
3.110000E+03	6.945484E-17	2.760655E-17
3.120000E+03	7.001578E-17	2.751008E-17
3.130000E+03	7.056029E-17	2.739245E-17
3.140000E+03	7.109612E-17	2.725740E-17
3.150000E+03	7.159714E-17	2.709570E-17
3.160000E+03	7.208237E-17	2.691549E-17
3.170000E+03	7.253722E-17	2.671209E-17
3.180000E+03	7.296931E-17	2.648915E-17
3.190000E+03	7.338592E-17	2.625001E-17
3.200000E+03	7.376233E-17	2.598649E-17
3.210000E+03	7.411669E-17	2.570577E-17
3.220000E+03	7.444577E-17	2.540728E-17
3.230000E+03	7.474654E-17	2.509052E-17
3.240000E+03	7.501627E-17	2.475513E-17
3.250000E+03	7.526225E-17	2.440398E-17
3.260000E+03	7.547232E-17	2.403358E-17
3.270000E+03	7.566342E-17	2.364980E-17
3.280000E+03	7.581474E-17	2.324654E-17
3.290000E+03	7.595220E-17	2.283225E-17
3.300000E+03	7.605593E-17	2.240133E-17
3.310000E+03	7.613373E-17	2.195671E-17
3.320000E+03	7.619304E-17	2.150110E-17
3.330000E+03	7.622453E-17	2.103251E-17
3.340000E+03	7.624403E-17	2.055612E-17
3.350000E+03	7.624280E-17	2.007037E-17
3.360000E+03	7.622090E-17	1.957633E-17
3.370000E+03	7.619356E-17	1.907909E-17
3.380000E+03	7.615320E-17	1.857790E-17
3.390000E+03	7.610742E-17	1.807604E-17
3.400000E+03	7.605654E-17	1.757507E-17
3.410000E+03	7.600785E-17	1.707825E-17
3.420000E+03	7.595521E-17	1.658586E-17
3.430000E+03	7.591230E-17	1.610266E-17
3.440000E+03	7.587321E-17	1.562905E-17
3.450000E+03	7.583872E-17	1.516693E-17
3.460000E+03	7.582120E-17	1.472038E-17
3.470000E+03	7.582040E-17	1.429068E-17
3.480000E+03	7.583061E-17	1.387797E-17
3.490000E+03	7.586254E-17	1.348522E-17
3.500000E+03	7.591023E-17	1.311205E-17
3.510000E+03	7.597832E-17	1.275971E-17
3.520000E+03	7.606605E-17	1.242817E-17
3.530000E+03	7.617741E-17	1.211780E-17
3.540000E+03	7.630671E-17	1.182702E-17
3.550000E+03	7.645319E-17	1.155467E-17
3.560000E+03	7.662474E-17	1.130045E-17
3.570000E+03	7.681563E-17	1.106168E-17
3.580000E+03	7.702077E-17	1.083562E-17
3.590000E+03	7.724790E-17	1.062137E-17
3.600000E+03	7.749283E-17	1.041653E-17
3.610000E+03	7.775257E-17	1.021932E-17
3.620000E+03	7.803299E-17	1.002969E-17
3.630000E+03	7.833703E-17	9.847790E-18
3.640000E+03	7.866168E-17	9.673651E-18
3.650000E+03	7.901258E-17	9.508936E-18
3.660000E+03	7.939965E-17	9.356154E-18
3.670000E+03	7.982009E-17	9.216468E-18
3.680000E+03	8.028856E-17	9.093061E-18
3.690000E+03	8.080369E-17	8.987040E-18
3.700000E+03	8.137405E-17	8.900301E-18
3.710000E+03	8.200456E-17	8.833869E-18
3.720000E+03	8.270226E-17	8.788473E-18
3.730000E+03	8.346653E-17	8.763480E-18
3.740000E+03	8.430044E-17	8.758114E-18
3.750000E+03	8.520386E-17	8.770766E-18
3.760000E+03	8.616463E-17	8.798183E-18
3.770000E+03	8.717536E-17	8.837345E-18
3.780000E+03	8.822763E-17	8.885019E-18
3.790000E+03	8.929636E-17	8.936391E-18
3.800000E+03	9.037097E-17	8.988390E-18
3.810000E+03	9.142978E-17	9.037256E-18
3.820000E+03	9.245532E-17	9.080174E-18
3.830000E+03	9.343343E-17	9.115209E-18
3.840000E+03	9.435741E-17	9.141683E-18
3.850000E+03	9.522146E-17	9.159476E-18
3.860000E+03	9.603405E-17	9.170222E-18
3.870000E+03	9.680290E-17	9.175753E-18
3.880000E+03	9.754481E-17	9.178935E-18
3.890000E+03	9.828488E-17	9.183479E-18
3.900000E+03	9.905076E-17	9.193304E-18
3.910000E+03	9.987411E-17	9.212597E-18
3.920000E+03	1.007916E-16	9.245832E-18
3.930000E+03	1.018411E-16	9.297350E-18
3.940000E+03	1.030553E-16	9.370714E-18
3.950000E+03	1.044689E-16	9.469308E-18
3.960000E+03	1.061122E-16	9.595646E-18
3.970000E+03	1.080064E-16	9.750916E-18
3.980000E+03	1.101662E-16	9.935190E-18
3.990000E+03	1.125957E-16	1.014709E-17
4.000000E+03	1.152844E-16	1.038352E-17
4.010000E+03	1.182103E-16	1.064023E-17
4.020000E+03	1.213376E-16	1.091167E-17
4.030000E+03	1.246182E-16	1.119154E-17
4.040000E+03	1.279811E-16	1.147199E-17
4.050000E+03	1.313572E-16	1.174606E-17
4.060000E+03	1.346557E-16	1.200569E-17
4.070000E+03	1.377873E-16	1.224372E-17
4.080000E+03	1.406593E-16	1.245342E-17
4.090000E+03	1.431853E-16	1.262899E-17
4.100000E+03	1.452950E-16	1.276624E-17
4.110000E+03	1.469346E-16	1.286221E-17
4.120000E+03	1.480830E-16	1.291642E-17
4.130000E+03	1.487475E-16	1.293035E-17
4.140000E+03	1.489650E-16	1.290748E-17
4.150000E+03	1.488018E-16	1.285345E-17
4.160000E+03	1.483317E-16	1.277419E-17
4.170000E+03	1.476357E-16	1.267614E-17
4.180000E+03	1.467964E-16	1.256578E-17
4.190000E+03	1.458704E-16	1.244735E-17
4.200000E+03	1.449039E-16	1.232414E-17
4.210000E+03	1.439265E-16	1.219800E-17
4.220000E+03	1.429474E-16	1.206891E-17
4.230000E+03	1.419646E-16	1.193588E-17
4.240000E+03	1.409730E-16	1.179765E-17
4.250000E+03	1.399672E-16	1.165314E-17
4.260000E+03	1.389428E-16	1.150165E-17
4.270000E+03	1.379027E-16	1.134356E-17
4.280000E+03	1.368572E-16	1.118040E-17
4.290000E+03	1.358138E-16	1.101409E-17
4.300000E+03	1.347886E-16	1.084778E-17
4.310000E+03	1.337935E-16	1.068467E-17
4.320000E+03	1.328434E-16	1.052843E-17
4.330000E+03	1.319451E-16	1.038215E-17
4.340000E+03	1.311093E-16	1.024906E-17
4.350000E+03	1.303425E-16	1.013184E-17
4.360000E+03	1.296477E-16	1.003251E-17
4.370000E+03	1.290282E-16	9.952683E-18
4.380000E+03	1.284855E-16	9.893331E-18
4.390000E+03	1.280199E-16	9.854886E-18
4.400000E+03	1.276222E-16	9.836306E-18
4.410000E+03	1.272835E-16	9.836002E-18
4.420000E+03	1.269898E-16	9.851709E-18
4.430000E+03	1.267230E-16	9.880695E-18
4.440000E+03	1.264676E-16	9.920257E-18
4.450000E+03	1.262124E-16	9.967828E-18
4.460000E+03	1.259546E-16	1.002121E-17
4.470000E+03	1.256993E-16	1.007853E-17
4.480000E+03	1.254682E-16	1.013889E-17
4.490000E+03	1.252903E-16	1.020183E-17
4.500000E+03	1.252087E-16	1.026803E-17
4.510000E+03	1.252725E-16	1.033899E-17
4.520000E+03	1.255297E-16	1.041672E-17
4.530000E+03	1.260297E-16	1.050413E-17
4.540000E+03	1.268133E-16	1.060430E-17
4.550000E+03	1.279190E-16	1.072094E-17
4.560000E+03	1.293712E-16	1.085735E-17
4.570000E+03	1.311850E-16	1.101649E-17
4.580000E+03	1.333695E-16	1.120112E-17
4.590000E+03	1.359161E-16	1.141256E-17
4.600000E+03	1.388109E-16	1.165155E-17
4.610000E+03	1.420210E-16	1.191697E-17
4.620000E+03	1.455039E-16	1.220654E-17
4.630000E+03	1.492069E-16	1.251669E-17
4.640000E+03	1.530639E-16	1.284232E-17
4.650000E+03	1.569937E-16	1.317665E-17
4.660000E+03	1.609180E-16	1.351273E-17
4.670000E+03	1.647423E-16	1.384195E-17
4.680000E+03	1.683791E-16	1.415606E-17
4.690000E+03	1.717346E-16	1.444621E-17
4.700000E+03	1.747249E-16	1.470438E-17
4.710000E+03	1.772758E-16	1.492358E-17
4.720000E+03	1.793266E-16	1.509815E-17
4.730000E+03	1.808362E-16	1.522442E-17
4.740000E+03	1.817837E-16	1.530062E-17
4.750000E+03	1.821641E-16	1.532647E-17
4.760000E+03	1.819970E-16	1.530391E-17
4.770000E+03	1.813086E-16	1.523543E-17
4.780000E+03	1.801400E-16	1.512473E-17
4.790000E+03	1.785408E-16	1.497621E-17
4.800000E+03	1.765703E-16	1.479498E-17
4.810000E+03	1.742937E-16	1.458659E-17
4.820000E+03	1.717857E-16	1.435726E-17
4.830000E+03	1.691236E-16	1.411337E-17
4.840000E+03	1.663952E-16	1.386203E-17
4.850000E+03	1.636805E-16	1.360962E-17
4.860000E+03	1.610570E-16	1.336219E-17
4.870000E+03	1.585919E-16	1.312480E-17
4.880000E+03	1.563406E-16	1.290136E-17
4.890000E+03	1.543390E-16	1.269395E-17
4.900000E+03	1.526130E-16	1.250359E-17
4.910000E+03	1.511760E-16	1.232989E-17
4.920000E+03	1.500254E-16	1.217089E-17
4.930000E+03	1.491549E-16	1.202400E-17
4.940000E+03	1.485465E-16	1.188552E-17
4.950000E+03	1.481741E-16	1.175111E-17
4.960000E+03	1.480048E-16	1.161607E-17
4.970000E+03	1.480020E-16	1.147596E-17
4.980000E+03	1.481267E-16	1.132684E-17
4.990000E+03	1.483443E-16	1.116609E-17
5.000000E+03	1.486272E-16	1.099270E-17
5.010000E+03	1.489603E-16	1.080772E-17
5.020000E+03	1.493394E-16	1.061406E-17
5.030000E+03	1.497708E-16	1.041633E-17
5.040000E+03	1.502616E-16	1.021996E-17
5.050000E+03	1.508151E-16	1.003073E-17
5.060000E+03	1.514149E-16	9.853467E-18
5.070000E+03	1.520268E-16	9.691959E-18
5.080000E+03	1.525905E-16	9.547984E-18
5.090000E+03	1.530266E-16	9.421248E-18
5.100000E+03	1.532520E-16	9.309661E-18
5.110000E+03	1.531848E-16	9.209062E-18
5.120000E+03	1.527675E-16	9.114344E-18
5.130000E+03	1.519840E-16	9.020578E-18
5.140000E+03	1.508566E-16	8.923444E-18
5.150000E+03	1.494558E-16	8.820673E-18
5.160000E+03	1.478837E-16	8.711981E-18
5.170000E+03	1.462700E-16	8.599596E-18
5.180000E+03	1.447445E-16	8.487102E-18
5.190000E+03	1.434288E-16	8.379178E-18
5.200000E+03	1.424228E-16	8.280698E-18
5.210000E+03	1.417899E-16	8.195695E-18
5.220000E+03	1.415618E-16	8.127365E-18
5.230000E+03	1.417322E-16	8.077459E-18
5.240000E+03	1.422661E-16	8.046596E-18
5.250000E+03	1.431070E-16	8.034462E-18
5.260000E+03	1.441855E-16	8.040116E-18
5.270000E+03	1.454347E-16	8.062573E-18
5.280000E+03	1.467933E-16	8.100650E-18
5.290000E+03	1.482213E-16	8.153490E-18
5.300000E+03	1.496947E-16	8.220005E-18
5.310000E+03	1.512150E-16	8.299261E-18
5.320000E+03	1.527914E-16	8.389565E-18
5.330000E+03	1.544479E-16	8.489102E-18
5.340000E+03	1.562017E-16	8.595087E-18
5.350000E+03	1.580655E-16	8.704284E-18
5.360000E+03	1.600301E-16	8.812427E-18
5.370000E+03	1.620747E-16	8.915091E-18
5.380000E+03	1.641551E-16	9.007240E-18
5.390000E+03	1.662117E-16	9.083843E-18
5.400000E+03	1.681758E-16	9.140358E-18
5.410000E+03	1.699801E-16	9.173379E-18
5.420000E+03	1.715650E-16	9.181086E-18
5.430000E+03	1.728818E-16	9.163520E-18
5.440000E+03	1.739054E-16	9.123332E-18
5.450000E+03	1.746226E-16	9.065224E-18
5.460000E+03	1.750468E-16	8.996599E-18
5.470000E+03	1.751969E-16	8.926188E-18
5.480000E+03	1.751111E-16	8.864095E-18
5.490000E+03	1.748299E-16	8.819986E-18
5.500000E+03	1.744037E-16	8.800204E-18
5.510000E+03	1.738708E-16	8.802219E-18
5.520000E+03	1.732669E-16	8.820676E-18
5.530000E+03	1.726323E-16	8.849921E-18
5.540000E+03	1.719986E-16	8.884309E-18
5.550000E+03	1.713830E-16	8.918684E-18
5.560000E+03	1.707815E-16	8.948519E-18
5.570000E+03	1.701628E-16	8.969782E-18
5.580000E+03	1.694706E-16	8.978958E-18
5.590000E+03	1.686269E-16	8.972803E-18
5.600000E+03	1.675418E-16	8.948264E-18
5.610000E+03	1.661265E-16	8.902454E-18
5.620000E+03	1.643124E-16	8.833089E-18
5.630000E+03	1.620643E-16	8.738791E-18
5.640000E+03	1.593878E-16	8.619448E-18
5.650000E+03	1.563352E-16	8.476817E-18
5.660000E+03	1.529910E-16	8.314177E-18
5.670000E+03	1.494680E-16	8.136594E-18
5.680000E+03	1.458825E-16	7.949939E-18
5.690000E+03	1.423413E-16	7.760350E-18
5.700000E+03	1.389323E-16	7.573676E-18
5.710000E+03	1.357110E-16	7.394606E-18
5.720000E+03	1.327025E-16	7.226529E-18
5.730000E+03	1.299062E-16	7.071540E-18
5.740000E+03	1.273017E-16	6.930500E-18
5.750000E+03	1.248569E-16	6.803225E-18
5.760000E+03	1.225403E-16	6.688941E-18
5.770000E+03	1.203274E-16	6.586471E-18
5.780000E+03	1.182096E-16	6.494685E-18
5.790000E+03	1.161974E-16	6.412738E-18
5.800000E+03	1.143209E-16	6.340288E-18
5.810000E+03	1.126300E-16	6.277805E-18
5.820000E+03	1.111931E-16	6.226813E-18
5.830000E+03	1.100929E-16	6.189910E-18
5.840000E+03	1.094206E-16	6.170652E-18
5.850000E+03	1.092732E-16	6.173442E-18
5.860000E+03	1.097511E-16	6.203331E-18
5.870000E+03	1.109487E-16	6.265354E-18
5.880000E+03	1.129506E-16	6.364131E-18
5.890000E+03	1.158243E-16	6.503274E-18
5.900000E+03	1.196141E-16	6.684936E-18
5.910000E+03	1.243203E-16	6.908617E-18
5.920000E+03	1.298936E-16	7.171060E-18
5.930000E+03	1.362203E-16	7.465669E-18
5.940000E+03	1.431046E-16	7.782043E-18
5.950000E+03	1.502722E-16	8.106599E-18
5.960000E+03	1.573760E-16	8.423250E-18
5.970000E+03	1.640209E-16	8.714766E-18
5.980000E+03	1.698002E-16	8.964341E-18
5.990000E+03	1.743558E-16	9.157983E-18
6.000000E+03	1.774126E-16	9.285315E-18
6.010000E+03	1.788304E-16	9.341415E-18
6.020000E+03	1.786096E-16	9.326643E-18
6.030000E+03	1.768812E-16	9.246173E-18
6.040000E+03	1.738806E-16	9.109233E-18
6.050000E+03	1.698983E-16	8.927297E-18
6.060000E+03	1.652476E-16	8.713155E-18
6.070000E+03	1.602320E-16	8.479676E-18
6.080000E+03	1.551126E-16	8.238277E-18
6.090000E+03	1.501139E-16	7.999179E-18
6.100000E+03	1.454096E-16	7.770448E-18
6.110000E+03	1.411312E-16	7.558298E-18
6.120000E+03	1.373725E-16	7.367171E-18
6.130000E+03	1.341960E-16	7.200076E-18
6.140000E+03	1.316336E-16	7.058671E-18
6.150000E+03	1.296943E-16	6.943781E-18
6.160000E+03	1.283680E-16	6.855704E-18
6.170000E+03	1.276195E-16	6.793948E-18
6.180000E+03	1.274009E-16	6.757871E-18
6.190000E+03	1.276447E-16	6.746188E-18
6.200000E+03	1.282736E-16	6.757248E-18
6.210000E+03	1.292019E-16	6.788801E-18
6.220000E+03	1.303379E-16	6.837787E-18
6.230000E+03	1.315957E-16	6.900688E-18
6.240000E+03	1.328913E-16	6.973181E-18
6.250000E+03	1.341540E-16	7.050400E-18
6.260000E+03	1.353238E-16	7.126828E-18
6.270000E+03	1.363499E-16	7.197202E-18
6.280000E+03	1.371825E-16	7.256654E-18
6.290000E+03	1.377767E-16	7.301254E-18
6.300000E+03	1.380892E-16	7.328023E-18
6.310000E+03	1.380804E-16	7.334983E-18
6.320000E+03	1.377233E-16	7.321436E-18
6.330000E+03	1.370095E-16	7.287905E-18
6.340000E+03	1.359582E-16	7.236288E-18
6.350000E+03	1.346242E-16	7.170001E-18
6.360000E+03	1.330884E-16	7.093366E-18
6.370000E+03	1.314654E-16	7.012027E-18
6.380000E+03	1.298803E-16	6.931893E-18
6.390000E+03	1.284589E-16	6.858784E-18
6.400000E+03	1.273207E-16	6.798223E-18
6.410000E+03	1.265618E-16	6.754632E-18
6.420000E+03	1.262496E-16	6.731133E-18
6.430000E+03	1.264268E-16	6.729721E-18
6.440000E+03	1.271027E-16	6.750825E-18
6.450000E+03	1.282632E-16	6.793776E-18
6.460000E+03	1.298685E-16	6.856641E-18
6.470000E+03	1.318634E-16	6.936763E-18
6.480000E+03	1.341710E-16	7.030460E-18
6.490000E+03	1.367038E-16	7.133715E-18
6.500000E+03	1.393586E-16	7.242162E-18
6.510000E+03	1.420148E-16	7.351290E-18
6.520000E+03	1.445505E-16	7.457555E-18
6.530000E+03	1.468326E-16	7.557973E-18
6.540000E+03	1.487343E-16	7.650709E-18
6.550000E+03	1.501377E-16	7.734565E-18
6.560000E+03	1.509539E-16	7.809159E-18
6.570000E+03	1.511216E-16	7.873806E-18
6.580000E+03	1.506219E-16	7.927325E-18
6.590000E+03	1.494812E-16	7.967744E-18
6.600000E+03	1.477644E-16	7.992215E-18
6.610000E+03	1.455670E-16	7.997410E-18
6.620000E+03	1.430170E-16	7.980920E-18
6.630000E+03	1.402462E-16	7.940973E-18
6.640000E+03	1.373936E-16	7.877716E-18
6.650000E+03	1.345900E-16	7.793033E-18
6.660000E+03	1.319529E-16	7.690573E-18
6.670000E+03	1.295803E-16	7.575353E-18
6.680000E+03	1.275510E-16	7.453490E-18
6.690000E+03	1.259244E-16	7.331722E-18
6.700000E+03	1.247283E-16	7.216207E-18
6.710000E+03	1.239687E-16	7.112545E-18
6.720000E+03	1.236195E-16	7.024690E-18
6.730000E+03	1.236268E-16	6.954802E-18
6.740000E+03	1.239021E-16	6.902561E-18
6.750000E+03	1.243287E-16	6.865370E-18
6.760000E+03	1.247674E-16	6.838623E-18
6.770000E+03	1.250620E-16	6.816009E-18
6.780000E+03	1.250603E-16	6.790690E-18
6.790000E+03	1.246238E-16	6.755760E-18
6.800000E+03	1.236572E-16	6.705729E-18
6.810000E+03	1.221081E-16	6.636450E-18
6.820000E+03	1.199855E-16	6.546107E-18
6.830000E+03	1.173508E-16	6.434987E-18
6.840000E+03	1.143019E-16	6.305006E-18
6.850000E+03	1.109646E-16	6.159732E-18
6.860000E+03	1.074746E-16	6.003851E-18
6.870000E+03	1.039532E-16	5.842137E-18
6.880000E+03	1.005064E-16	5.679465E-18
6.890000E+03	9.721685E-17	5.520253E-18
6.900000E+03	9.414416E-17	5.368268E-18
6.910000E+03	9.132402E-17	5.226267E-18
6.920000E+03	8.877646E-17	5.096227E-18
6.930000E+03	8.650948E-17	4.979372E-18
6.940000E+03	8.452400E-17	4.876334E-18
6.950000E+03	8.281800E-17	4.787356E-18
6.960000E+03	8.138992E-17	4.712480E-18
6.970000E+03	8.023993E-17	4.651657E-18
6.980000E+03	7.937494E-17	4.605090E-18
6.990000E+03	7.880486E-17	4.573089E-18
7.000000E+03	7.854633E-17	4.556346E-18
7.010000E+03	7.862250E-17	4.555973E-18
7.020000E+03	7.905916E-17	4.573292E-18
7.030000E+03	7.988720E-17	4.609972E-18
7.040000E+03	8.114015E-17	4.667858E-18
7.050000E+03	8.285348E-17	4.748895E-18
7.060000E+03	8.505716E-17	4.854683E-18
7.070000E+03	8.777780E-17	4.986599E-18
7.080000E+03	9.103409E-17	5.145567E-18
7.090000E+03	9.482294E-17	5.331311E-18
7.100000E+03	9.912099E-17	5.542513E-18
7.110000E+03	1.038700E-16	5.776032E-18
7.120000E+03	1.089732E-16	6.026782E-18
7.130000E+03	1.142906E-16	6.287533E-18
7.140000E+03	1.196346E-16	6.548794E-18
7.150000E+03	1.247743E-16	6.799134E-18
7.160000E+03	1.294608E-16	7.026624E-18
7.170000E+03	1.334370E-16	7.219223E-18
7.180000E+03	1.364825E-16	7.366921E-18
7.190000E+03	1.384289E-16	7.462098E-18
7.200000E+03	1.392019E-16	7.501281E-18
7.210000E+03	1.388178E-16	7.484677E-18
7.220000E+03	1.373969E-16	7.416997E-18
7.230000E+03	1.351292E-16	7.306014E-18
7.240000E+03	1.322583E-16	7.162342E-18
7.250000E+03	1.290500E-16	6.998271E-18
7.260000E+03	1.257518E-16	6.825919E-18
7.270000E+03	1.225874E-16	6.656938E-18
7.280000E+03	1.197366E-16	6.501294E-18
7.290000E+03	1.173326E-16	6.366819E-18
7.300000E+03	1.154685E-16	6.259329E-18
7.310000E+03	1.141945E-16	6.182234E-18
7.320000E+03	1.135299E-16	6.137056E-18
7.330000E+03	1.134615E-16	6.123302E-18
7.340000E+03	1.139462E-16	6.138666E-18
7.350000E+03	1.149175E-16	6.179542E-18
7.360000E+03	1.162817E-16	6.240999E-18
7.370000E+03	1.179193E-16	6.317081E-18
7.380000E+03	1.196954E-16	6.401429E-18
7.390000E+03	1.214616E-16	6.487345E-18
7.400000E+03	1.230694E-16	6.568242E-18
7.410000E+03	1.243819E-16	6.637924E-18
7.420000E+03	1.252960E-16	6.691407E-18
7.430000E+03	1.257398E-16	6.724612E-18
7.440000E+03	1.256927E-16	6.735519E-18
7.450000E+03	1.251766E-16	6.724004E-18
7.460000E+03	1.242525E-16	6.692083E-18
7.470000E+03	1.230006E-16	6.643198E-18
7.480000E+03	1.215208E-16	6.582449E-18
7.490000E+03	1.199032E-16	6.515058E-18
7.500000E+03	1.182340E-16	6.446535E-18
7.510000E+03	1.165754E-16	6.381292E-18
7.520000E+03	1.149692E-16	6.322439E-18
7.530000E+03	1.134427E-16	6.271684E-18
7.540000E+03	1.119991E-16	6.228392E-18
7.550000E+03	1.106341E-16	6.190353E-18
7.560000E+03	1.093328E-16	6.153722E-18
7.570000E+03	1.080750E-16	6.113788E-18
7.580000E+03	1.068379E-16	6.065852E-18
7.590000E+03	1.055958E-16	6.006065E-18
7.600000E+03	1.043246E-16	5.932419E-18
7.610000E+03	1.030042E-16	5.845307E-18
7.620000E+03	1.016103E-16	5.746627E-18
7.630000E+03	1.001305E-16	5.638954E-18
7.640000E+03	9.856151E-17	5.525948E-18
7.650000E+03	9.689762E-17	5.411380E-18
7.660000E+03	9.514897E-17	5.299302E-18
7.670000E+03	9.333105E-17	5.192761E-18
7.680000E+03	9.146661E-17	5.093604E-18
7.690000E+03	8.958945E-17	5.002761E-18
7.700000E+03	8.773763E-17	4.920253E-18
7.710000E+03	8.594966E-17	4.845520E-18
7.720000E+03	8.427245E-17	4.778406E-18
7.730000E+03	8.274427E-17	4.718627E-18
7.740000E+03	8.140378E-17	4.666545E-18
7.750000E+03	8.028782E-17	4.623123E-18
7.760000E+03	7.942704E-17	4.589622E-18
