#wls	flux	fluxerr
1.600000E+03	1.447106E-18	1.680307E-18
1.640000E+03	1.509965E-18	1.717112E-18
1.680000E+03	1.576454E-18	1.755083E-18
1.720000E+03	1.649339E-18	1.797277E-18
1.760000E+03	1.726439E-18	1.841285E-18
1.800000E+03	1.810688E-18	1.890310E-18
1.840000E+03	1.901112E-18	1.943371E-18
1.880000E+03	1.996500E-18	1.999401E-18
1.920000E+03	2.099970E-18	2.061734E-18
1.960000E+03	2.211838E-18	2.130796E-18
2.000000E+03	2.330693E-18	2.205387E-18
2.040000E+03	2.456511E-18	2.285685E-18
2.080000E+03	2.590957E-18	2.373383E-18
2.120000E+03	2.734021E-18	2.468518E-18
2.160000E+03	2.885628E-18	2.571012E-18
2.200000E+03	3.045656E-18	2.680688E-18
2.240000E+03	3.213977E-18	2.797307E-18
2.280000E+03	3.390491E-18	2.920627E-18
2.320000E+03	3.577352E-18	3.052321E-18
2.360000E+03	3.774841E-18	3.192451E-18
2.400000E+03	3.983370E-18	3.341261E-18
2.440000E+03	4.201111E-18	3.497228E-18
2.480000E+03	4.435835E-18	3.666921E-18
2.520000E+03	4.686105E-18	3.849245E-18
2.560000E+03	4.952710E-18	4.044962E-18
2.600000E+03	5.238837E-18	4.256633E-18
2.640000E+03	5.550200E-18	4.488518E-18
2.680000E+03	5.884132E-18	4.737583E-18
2.720000E+03	6.245322E-18	5.006101E-18
2.760000E+03	6.635028E-18	5.292779E-18
2.800000E+03	7.056415E-18	5.596982E-18
2.840000E+03	7.502770E-18	5.909366E-18
2.880000E+03	7.980714E-18	6.230345E-18
2.920000E+03	8.486818E-18	6.551643E-18
2.960000E+03	9.019256E-18	6.865681E-18
3.000000E+03	9.577982E-18	7.165785E-18
3.010000E+03	9.720207E-18	7.236652E-18
3.020000E+03	9.865550E-18	7.307199E-18
3.030000E+03	1.001079E-17	7.374927E-18
3.040000E+03	1.015577E-17	7.439617E-18
3.050000E+03	1.030334E-17	7.503260E-18
3.060000E+03	1.045333E-17	7.565594E-18
3.070000E+03	1.060553E-17	7.626357E-18
3.080000E+03	1.075677E-17	7.683138E-18
3.090000E+03	1.090987E-17	7.737869E-18
3.100000E+03	1.106166E-17	7.788189E-18
3.110000E+03	1.121796E-17	7.838087E-18
3.120000E+03	1.137262E-17	7.883128E-18
3.130000E+03	1.153141E-17	7.927220E-18
3.140000E+03	1.168824E-17	7.966039E-18
3.150000E+03	1.184886E-17	8.003406E-18
3.160000E+03	1.201014E-17	8.037073E-18
3.170000E+03	1.217196E-17	8.066834E-18
3.180000E+03	1.233705E-17	8.094391E-18
3.190000E+03	1.249950E-17	8.115742E-18
3.200000E+03	1.266782E-17	8.136305E-18
3.210000E+03	1.283329E-17	8.150328E-18
3.220000E+03	1.300433E-17	8.163064E-18
3.230000E+03	1.317516E-17	8.170708E-18
3.240000E+03	1.334849E-17	8.174835E-18
3.250000E+03	1.352423E-17	8.175230E-18
3.260000E+03	1.369953E-17	8.170054E-18
3.270000E+03	1.387984E-17	8.162416E-18
3.280000E+03	1.406232E-17	8.150462E-18
3.290000E+03	1.424692E-17	8.134017E-18
3.300000E+03	1.443363E-17	8.112917E-18
3.310000E+03	1.462504E-17	8.088463E-18
3.320000E+03	1.481849E-17	8.058980E-18
3.330000E+03	1.501658E-17	8.025715E-18
3.340000E+03	1.521926E-17	7.988428E-18
3.350000E+03	1.542650E-17	7.946886E-18
3.360000E+03	1.563828E-17	7.900864E-18
3.370000E+03	1.585460E-17	7.850141E-18
3.380000E+03	1.607793E-17	7.795706E-18
3.390000E+03	1.630575E-17	7.736075E-18
3.400000E+03	1.654052E-17	7.672175E-18
3.410000E+03	1.677976E-17	7.602605E-18
3.420000E+03	1.702828E-17	7.529290E-18
3.430000E+03	1.728595E-17	7.451833E-18
3.440000E+03	1.754795E-17	7.367860E-18
3.450000E+03	1.782127E-17	7.280067E-18
3.460000E+03	1.810106E-17	7.186138E-18
3.470000E+03	1.838953E-17	7.086709E-18
3.480000E+03	1.868875E-17	6.982296E-18
3.490000E+03	1.899618E-17	6.871666E-18
3.500000E+03	1.931158E-17	6.754537E-18
3.510000E+03	1.963909E-17	6.632163E-18
3.520000E+03	1.997604E-17	6.503426E-18
3.530000E+03	2.032196E-17	6.368083E-18
3.540000E+03	2.067632E-17	6.225960E-18
3.550000E+03	2.104280E-17	6.078213E-18
3.560000E+03	2.141634E-17	5.923488E-18
3.570000E+03	2.179825E-17	5.762489E-18
3.580000E+03	2.218964E-17	5.595946E-18
3.590000E+03	2.258731E-17	5.423655E-18
3.600000E+03	2.299001E-17	5.246220E-18
3.610000E+03	2.340048E-17	5.065377E-18
3.620000E+03	2.381301E-17	4.881276E-18
3.630000E+03	2.422594E-17	4.695384E-18
3.640000E+03	2.463945E-17	4.509878E-18
3.650000E+03	2.505161E-17	4.326836E-18
3.660000E+03	2.546055E-17	4.148615E-18
3.670000E+03	2.586464E-17	3.977734E-18
3.680000E+03	2.626079E-17	3.816447E-18
3.690000E+03	2.664835E-17	3.667212E-18
3.700000E+03	2.702911E-17	3.532431E-18
3.710000E+03	2.740160E-17	3.413541E-18
3.720000E+03	2.776668E-17	3.311690E-18
3.730000E+03	2.812546E-17	3.227366E-18
3.740000E+03	2.847910E-17	3.160335E-18
3.750000E+03	2.882699E-17	3.109481E-18
3.760000E+03	2.917359E-17	3.073624E-18
3.770000E+03	2.951445E-17	3.050126E-18
3.780000E+03	2.985347E-17	3.036971E-18
3.790000E+03	3.018918E-17	3.031537E-18
3.800000E+03	3.052323E-17	3.031666E-18
3.810000E+03	3.085232E-17	3.034981E-18
3.820000E+03	3.117825E-17	3.039949E-18
3.830000E+03	3.150154E-17	3.045249E-18
3.840000E+03	3.182154E-17	3.049798E-18
3.850000E+03	3.213957E-17	3.053030E-18
3.860000E+03	3.245879E-17	3.054823E-18
3.870000E+03	3.277799E-17	3.054870E-18
3.880000E+03	3.310207E-17	3.053596E-18
3.890000E+03	3.342987E-17	3.050958E-18
3.900000E+03	3.376454E-17	3.047404E-18
3.910000E+03	3.410745E-17	3.043302E-18
3.920000E+03	3.445682E-17	3.038795E-18
3.930000E+03	3.481596E-17	3.034529E-18
3.940000E+03	3.518330E-17	3.030706E-18
3.950000E+03	3.555779E-17	3.027510E-18
3.960000E+03	3.593764E-17	3.024989E-18
3.970000E+03	3.631920E-17	3.022923E-18
3.980000E+03	3.670105E-17	3.021130E-18
3.990000E+03	3.708025E-17	3.019134E-18
4.000000E+03	3.745137E-17	3.016071E-18
4.010000E+03	3.781444E-17	3.011334E-18
4.020000E+03	3.816731E-17	3.004072E-18
4.030000E+03	3.850595E-17	2.993382E-18
4.040000E+03	3.883074E-17	2.978921E-18
4.050000E+03	3.914126E-17	2.960633E-18
4.060000E+03	3.943727E-17	2.938896E-18
4.070000E+03	3.971840E-17	2.914487E-18
4.080000E+03	3.998407E-17	2.888512E-18
4.090000E+03	4.023226E-17	2.862158E-18
4.100000E+03	4.046310E-17	2.836743E-18
4.110000E+03	4.067572E-17	2.813376E-18
4.120000E+03	4.086994E-17	2.792918E-18
4.130000E+03	4.104552E-17	2.775781E-18
4.140000E+03	4.120673E-17	2.762254E-18
4.150000E+03	4.135441E-17	2.751978E-18
4.160000E+03	4.149234E-17	2.744391E-18
4.170000E+03	4.162641E-17	2.738857E-18
4.180000E+03	4.175829E-17	2.734420E-18
4.190000E+03	4.188909E-17	2.730140E-18
4.200000E+03	4.201706E-17	2.725098E-18
4.210000E+03	4.214283E-17	2.718806E-18
4.220000E+03	4.225939E-17	2.710539E-18
4.230000E+03	4.236393E-17	2.700110E-18
4.240000E+03	4.245058E-17	2.687327E-18
4.250000E+03	4.251695E-17	2.672290E-18
4.260000E+03	4.255774E-17	2.654980E-18
4.270000E+03	4.257183E-17	2.635657E-18
4.280000E+03	4.255951E-17	2.614608E-18
4.290000E+03	4.252082E-17	2.592109E-18
4.300000E+03	4.245829E-17	2.568616E-18
4.310000E+03	4.237767E-17	2.544785E-18
4.320000E+03	4.228218E-17	2.521211E-18
4.330000E+03	4.217886E-17	2.498825E-18
4.340000E+03	4.207190E-17	2.478391E-18
4.350000E+03	4.196634E-17	2.460689E-18
4.360000E+03	4.186500E-17	2.446175E-18
4.370000E+03	4.176923E-17	2.434899E-18
4.380000E+03	4.167961E-17	2.426689E-18
4.390000E+03	4.159774E-17	2.421417E-18
4.400000E+03	4.152620E-17	2.419040E-18
4.410000E+03	4.146644E-17	2.419588E-18
4.420000E+03	4.142378E-17	2.423430E-18
4.430000E+03	4.140186E-17	2.430799E-18
4.440000E+03	4.140657E-17	2.441940E-18
4.450000E+03	4.144038E-17	2.456625E-18
4.460000E+03	4.150782E-17	2.474321E-18
4.470000E+03	4.161070E-17	2.494058E-18
4.480000E+03	4.175212E-17	2.514838E-18
4.490000E+03	4.193451E-17	2.535622E-18
4.500000E+03	4.215960E-17	2.555496E-18
4.510000E+03	4.242997E-17	2.573851E-18
4.520000E+03	4.274545E-17	2.590155E-18
4.530000E+03	4.310769E-17	2.604258E-18
4.540000E+03	4.351435E-17	2.615998E-18
4.550000E+03	4.396513E-17	2.625502E-18
4.560000E+03	4.445879E-17	2.633099E-18
4.570000E+03	4.499279E-17	2.639339E-18
4.580000E+03	4.556570E-17	2.645095E-18
4.590000E+03	4.617448E-17	2.651373E-18
4.600000E+03	4.681441E-17	2.659132E-18
4.610000E+03	4.747611E-17	2.668931E-18
4.620000E+03	4.814723E-17	2.681074E-18
4.630000E+03	4.881336E-17	2.695667E-18
4.640000E+03	4.945481E-17	2.712367E-18
4.650000E+03	5.005238E-17	2.730822E-18
4.660000E+03	5.058600E-17	2.750567E-18
4.670000E+03	5.103900E-17	2.771125E-18
4.680000E+03	5.139673E-17	2.791970E-18
4.690000E+03	5.164967E-17	2.812624E-18
4.700000E+03	5.179299E-17	2.832461E-18
4.710000E+03	5.182902E-17	2.850944E-18
4.720000E+03	5.176422E-17	2.867510E-18
4.730000E+03	5.161252E-17	2.881709E-18
4.740000E+03	5.139032E-17	2.893118E-18
4.750000E+03	5.111523E-17	2.901411E-18
4.760000E+03	5.080405E-17	2.906246E-18
4.770000E+03	5.047199E-17	2.907402E-18
4.780000E+03	5.013119E-17	2.904780E-18
4.790000E+03	4.978946E-17	2.898262E-18
4.800000E+03	4.945356E-17	2.887887E-18
4.810000E+03	4.912892E-17	2.873734E-18
4.820000E+03	4.882179E-17	2.855926E-18
4.830000E+03	4.854011E-17	2.834814E-18
4.840000E+03	4.829073E-17	2.810930E-18
4.850000E+03	4.808227E-17	2.785177E-18
4.860000E+03	4.792233E-17	2.758738E-18
4.870000E+03	4.781720E-17	2.732997E-18
4.880000E+03	4.777136E-17	2.709358E-18
4.890000E+03	4.778776E-17	2.689183E-18
4.900000E+03	4.786837E-17	2.673613E-18
4.910000E+03	4.801495E-17	2.663385E-18
4.920000E+03	4.822757E-17	2.658782E-18
4.930000E+03	4.850659E-17	2.659738E-18
4.940000E+03	4.884877E-17	2.665625E-18
4.950000E+03	4.924753E-17	2.675614E-18
4.960000E+03	4.969082E-17	2.688876E-18
4.970000E+03	5.015933E-17	2.704593E-18
4.980000E+03	5.062962E-17	2.722215E-18
4.990000E+03	5.107725E-17	2.741423E-18
5.000000E+03	5.148201E-17	2.761999E-18
5.010000E+03	5.183019E-17	2.783651E-18
5.020000E+03	5.212004E-17	2.805912E-18
5.030000E+03	5.236185E-17	2.827909E-18
5.040000E+03	5.257044E-17	2.848456E-18
5.050000E+03	5.276194E-17	2.866581E-18
5.060000E+03	5.294307E-17	2.881418E-18
5.070000E+03	5.311191E-17	2.892654E-18
5.080000E+03	5.325626E-17	2.900527E-18
5.090000E+03	5.335716E-17	2.905754E-18
5.100000E+03	5.339210E-17	2.909186E-18
5.110000E+03	5.334334E-17	2.911426E-18
5.120000E+03	5.320389E-17	2.912430E-18
5.130000E+03	5.297872E-17	2.911553E-18
5.140000E+03	5.268397E-17	2.907723E-18
5.150000E+03	5.234688E-17	2.899737E-18
5.160000E+03	5.199929E-17	2.886568E-18
5.170000E+03	5.167597E-17	2.867891E-18
5.180000E+03	5.140875E-17	2.844022E-18
5.190000E+03	5.122319E-17	2.815829E-18
5.200000E+03	5.113863E-17	2.784594E-18
5.210000E+03	5.116414E-17	2.751582E-18
5.220000E+03	5.130008E-17	2.718081E-18
5.230000E+03	5.153811E-17	2.685287E-18
5.240000E+03	5.186211E-17	2.654194E-18
5.250000E+03	5.225025E-17	2.625683E-18
5.260000E+03	5.267945E-17	2.600525E-18
5.270000E+03	5.312706E-17	2.579196E-18
5.280000E+03	5.357409E-17	2.562048E-18
5.290000E+03	5.400421E-17	2.549136E-18
5.300000E+03	5.440525E-17	2.540137E-18
5.310000E+03	5.476953E-17	2.534666E-18
5.320000E+03	5.509030E-17	2.532291E-18
5.330000E+03	5.536205E-17	2.532525E-18
5.340000E+03	5.557785E-17	2.534918E-18
5.350000E+03	5.573166E-17	2.539144E-18
5.360000E+03	5.581402E-17	2.544614E-18
5.370000E+03	5.581343E-17	2.550759E-18
5.380000E+03	5.571952E-17	2.557263E-18
5.390000E+03	5.552234E-17	2.563811E-18
5.400000E+03	5.521427E-17	2.570148E-18
5.410000E+03	5.479578E-17	2.576115E-18
5.420000E+03	5.427440E-17	2.581307E-18
5.430000E+03	5.366475E-17	2.585322E-18
5.440000E+03	5.298934E-17	2.588144E-18
5.450000E+03	5.227214E-17	2.589975E-18
5.460000E+03	5.153885E-17	2.591527E-18
5.470000E+03	5.081162E-17	2.593890E-18
5.480000E+03	5.010948E-17	2.598385E-18
5.490000E+03	4.944463E-17	2.606181E-18
5.500000E+03	4.882252E-17	2.617997E-18
5.510000E+03	4.824339E-17	2.633900E-18
5.520000E+03	4.770176E-17	2.653237E-18
5.530000E+03	4.718833E-17	2.674764E-18
5.540000E+03	4.669122E-17	2.696752E-18
5.550000E+03	4.619751E-17	2.717296E-18
5.560000E+03	4.569203E-17	2.734426E-18
5.570000E+03	4.516301E-17	2.746552E-18
5.580000E+03	4.459775E-17	2.752395E-18
5.590000E+03	4.398673E-17	2.751345E-18
5.600000E+03	4.332379E-17	2.743455E-18
5.610000E+03	4.260495E-17	2.729293E-18
5.620000E+03	4.183174E-17	2.709967E-18
5.630000E+03	4.100754E-17	2.686655E-18
5.640000E+03	4.014141E-17	2.660692E-18
5.650000E+03	3.924416E-17	2.633143E-18
5.660000E+03	3.832885E-17	2.604736E-18
5.670000E+03	3.741025E-17	2.575959E-18
5.680000E+03	3.650166E-17	2.546997E-18
5.690000E+03	3.561655E-17	2.517963E-18
5.700000E+03	3.476467E-17	2.488829E-18
5.710000E+03	3.395527E-17	2.459787E-18
5.720000E+03	3.319391E-17	2.431048E-18
5.730000E+03	3.248496E-17	2.403005E-18
5.740000E+03	3.183138E-17	2.376165E-18
5.750000E+03	3.123497E-17	2.351059E-18
5.760000E+03	3.069762E-17	2.328282E-18
5.770000E+03	3.022153E-17	2.308437E-18
5.780000E+03	2.980936E-17	2.292074E-18
5.790000E+03	2.946510E-17	2.279754E-18
5.800000E+03	2.919363E-17	2.271987E-18
5.810000E+03	2.900125E-17	2.269232E-18
5.820000E+03	2.889488E-17	2.271809E-18
5.830000E+03	2.888241E-17	2.279888E-18
5.840000E+03	2.897058E-17	2.293293E-18
5.850000E+03	2.916703E-17	2.311723E-18
5.860000E+03	2.947717E-17	2.334588E-18
5.870000E+03	2.990546E-17	2.361164E-18
5.880000E+03	3.045305E-17	2.390479E-18
5.890000E+03	3.111823E-17	2.421422E-18
5.900000E+03	3.189480E-17	2.452672E-18
5.910000E+03	3.277091E-17	2.482733E-18
5.920000E+03	3.372838E-17	2.510007E-18
5.930000E+03	3.474251E-17	2.532902E-18
5.940000E+03	3.578053E-17	2.549823E-18
5.950000E+03	3.680265E-17	2.559310E-18
5.960000E+03	3.776361E-17	2.560160E-18
5.970000E+03	3.861489E-17	2.551570E-18
5.980000E+03	3.930965E-17	2.533335E-18
5.990000E+03	3.980729E-17	2.505886E-18
6.000000E+03	4.007712E-17	2.470260E-18
6.010000E+03	4.010443E-17	2.428063E-18
6.020000E+03	3.989104E-17	2.381095E-18
6.030000E+03	3.945586E-17	2.331274E-18
6.040000E+03	3.883160E-17	2.280367E-18
6.050000E+03	3.806184E-17	2.229848E-18
6.060000E+03	3.719554E-17	2.180895E-18
6.070000E+03	3.628124E-17	2.134360E-18
6.080000E+03	3.536490E-17	2.090815E-18
6.090000E+03	3.448577E-17	2.050557E-18
6.100000E+03	3.367464E-17	2.013631E-18
6.110000E+03	3.295378E-17	1.979826E-18
6.120000E+03	3.233838E-17	1.948804E-18
6.130000E+03	3.183657E-17	1.920103E-18
6.140000E+03	3.145111E-17	1.893199E-18
6.150000E+03	3.118147E-17	1.867641E-18
6.160000E+03	3.102267E-17	1.842992E-18
6.170000E+03	3.096793E-17	1.818997E-18
6.180000E+03	3.100772E-17	1.795587E-18
6.190000E+03	3.113103E-17	1.773024E-18
6.200000E+03	3.132569E-17	1.751942E-18
6.210000E+03	3.157794E-17	1.733349E-18
6.220000E+03	3.187399E-17	1.718636E-18
6.230000E+03	3.220091E-17	1.709395E-18
6.240000E+03	3.254577E-17	1.707073E-18
6.250000E+03	3.289752E-17	1.712666E-18
6.260000E+03	3.324764E-17	1.726438E-18
6.270000E+03	3.358856E-17	1.747835E-18
6.280000E+03	3.391359E-17	1.775614E-18
6.290000E+03	3.421673E-17	1.808027E-18
6.300000E+03	3.449245E-17	1.843152E-18
6.310000E+03	3.473448E-17	1.879071E-18
6.320000E+03	3.493782E-17	1.914076E-18
6.330000E+03	3.509918E-17	1.946793E-18
6.340000E+03	3.521688E-17	1.976149E-18
6.350000E+03	3.529220E-17	2.001385E-18
6.360000E+03	3.533020E-17	2.022163E-18
6.370000E+03	3.533773E-17	2.038503E-18
6.380000E+03	3.532561E-17	2.050854E-18
6.390000E+03	3.530521E-17	2.059871E-18
6.400000E+03	3.529043E-17	2.066406E-18
6.410000E+03	3.529488E-17	2.071202E-18
6.420000E+03	3.533322E-17	2.074972E-18
6.430000E+03	3.541842E-17	2.078221E-18
6.440000E+03	3.556194E-17	2.081244E-18
6.450000E+03	3.577225E-17	2.084166E-18
6.460000E+03	3.605478E-17	2.087063E-18
6.470000E+03	3.641057E-17	2.089948E-18
6.480000E+03	3.683681E-17	2.092912E-18
6.490000E+03	3.732601E-17	2.096107E-18
6.500000E+03	3.786659E-17	2.099709E-18
6.510000E+03	3.844385E-17	2.103937E-18
6.520000E+03	3.904025E-17	2.108889E-18
6.530000E+03	3.963679E-17	2.114473E-18
6.540000E+03	4.021408E-17	2.120562E-18
6.550000E+03	4.075393E-17	2.127151E-18
6.560000E+03	4.123924E-17	2.134283E-18
6.570000E+03	4.165677E-17	2.142142E-18
6.580000E+03	4.199669E-17	2.150767E-18
6.590000E+03	4.225345E-17	2.159847E-18
6.600000E+03	4.242514E-17	2.168867E-18
6.610000E+03	4.251272E-17	2.177278E-18
6.620000E+03	4.251708E-17	2.184447E-18
6.630000E+03	4.244149E-17	2.190020E-18
6.640000E+03	4.228777E-17	2.193797E-18
6.650000E+03	4.205864E-17	2.195698E-18
6.660000E+03	4.175920E-17	2.195742E-18
6.670000E+03	4.139761E-17	2.193857E-18
6.680000E+03	4.098804E-17	2.189811E-18
6.690000E+03	4.054757E-17	2.183203E-18
6.700000E+03	4.009541E-17	2.173651E-18
6.710000E+03	3.965043E-17	2.160860E-18
6.720000E+03	3.922693E-17	2.144776E-18
6.730000E+03	3.883310E-17	2.125827E-18
6.740000E+03	3.846866E-17	2.104899E-18
6.750000E+03	3.812530E-17	2.083301E-18
6.760000E+03	3.778598E-17	2.062460E-18
6.770000E+03	3.742812E-17	2.043685E-18
6.780000E+03	3.702663E-17	2.027947E-18
6.790000E+03	3.655885E-17	2.015616E-18
6.800000E+03	3.600639E-17	2.006169E-18
6.810000E+03	3.535966E-17	1.998556E-18
6.820000E+03	3.461661E-17	1.991381E-18
6.830000E+03	3.378489E-17	1.983199E-18
6.840000E+03	3.287746E-17	1.972578E-18
6.850000E+03	3.191360E-17	1.958387E-18
6.860000E+03	3.091477E-17	1.939713E-18
6.870000E+03	2.990405E-17	1.916113E-18
6.880000E+03	2.890257E-17	1.887631E-18
6.890000E+03	2.792942E-17	1.854822E-18
6.900000E+03	2.700067E-17	1.818621E-18
6.910000E+03	2.612963E-17	1.780209E-18
6.920000E+03	2.532587E-17	1.740756E-18
6.930000E+03	2.459786E-17	1.701467E-18
6.940000E+03	2.395250E-17	1.663415E-18
6.950000E+03	2.339624E-17	1.627532E-18
6.960000E+03	2.293525E-17	1.594619E-18
6.970000E+03	2.257684E-17	1.565465E-18
6.980000E+03	2.232882E-17	1.540792E-18
6.990000E+03	2.219953E-17	1.521269E-18
7.000000E+03	2.219960E-17	1.507618E-18
7.010000E+03	2.234010E-17	1.500448E-18
7.020000E+03	2.263344E-17	1.500315E-18
7.030000E+03	2.309412E-17	1.507748E-18
7.040000E+03	2.373682E-17	1.523080E-18
7.050000E+03	2.457667E-17	1.546496E-18
7.060000E+03	2.562885E-17	1.578041E-18
7.070000E+03	2.690564E-17	1.617488E-18
7.080000E+03	2.841525E-17	1.664449E-18
7.090000E+03	3.015679E-17	1.718319E-18
7.100000E+03	3.211645E-17	1.778348E-18
7.110000E+03	3.426224E-17	1.843705E-18
7.120000E+03	3.653900E-17	1.913457E-18
7.130000E+03	3.886545E-17	1.986448E-18
7.140000E+03	4.113673E-17	2.061224E-18
7.150000E+03	4.323421E-17	2.135724E-18
7.160000E+03	4.503860E-17	2.206952E-18
7.170000E+03	4.644618E-17	2.271402E-18
7.180000E+03	4.738095E-17	2.325497E-18
7.190000E+03	4.780782E-17	2.366167E-18
7.200000E+03	4.773231E-17	2.391287E-18
7.210000E+03	4.719724E-17	2.399961E-18
7.220000E+03	4.627664E-17	2.392454E-18
7.230000E+03	4.506133E-17	2.369918E-18
7.240000E+03	4.365075E-17	2.334302E-18
7.250000E+03	4.214256E-17	2.287930E-18
7.260000E+03	4.062676E-17	2.233461E-18
7.270000E+03	3.917846E-17	2.173662E-18
7.280000E+03	3.785574E-17	2.111178E-18
7.290000E+03	3.670063E-17	2.048468E-18
7.300000E+03	3.573987E-17	1.987674E-18
7.310000E+03	3.498512E-17	1.930448E-18
7.320000E+03	3.443631E-17	1.878090E-18
7.330000E+03	3.408482E-17	1.831688E-18
7.340000E+03	3.391173E-17	1.791981E-18
7.350000E+03	3.389097E-17	1.759536E-18
7.360000E+03	3.398939E-17	1.734627E-18
7.370000E+03	3.416933E-17	1.717182E-18
7.380000E+03	3.438902E-17	1.706744E-18
7.390000E+03	3.460799E-17	1.702485E-18
7.400000E+03	3.478846E-17	1.702993E-18
7.410000E+03	3.489962E-17	1.706541E-18
7.420000E+03	3.491742E-17	1.711104E-18
7.430000E+03	3.482935E-17	1.714612E-18
7.440000E+03	3.462994E-17	1.715091E-18
7.450000E+03	3.432329E-17	1.711157E-18
7.460000E+03	3.391762E-17	1.701929E-18
7.470000E+03	3.342664E-17	1.687340E-18
7.480000E+03	3.286560E-17	1.668056E-18
7.490000E+03	3.225023E-17	1.645352E-18
7.500000E+03	3.159528E-17	1.620998E-18
7.510000E+03	3.091342E-17	1.597024E-18
7.520000E+03	3.021514E-17	1.575408E-18
7.530000E+03	2.950764E-17	1.557757E-18
7.540000E+03	2.879703E-17	1.545078E-18
7.550000E+03	2.808782E-17	1.537425E-18
7.560000E+03	2.738376E-17	1.533944E-18
7.570000E+03	2.669083E-17	1.533161E-18
7.580000E+03	2.601355E-17	1.532988E-18
7.590000E+03	2.535882E-17	1.531385E-18
7.600000E+03	2.473233E-17	1.526634E-18
7.610000E+03	2.413843E-17	1.517554E-18
7.620000E+03	2.358089E-17	1.503601E-18
7.630000E+03	2.306219E-17	1.484756E-18
7.640000E+03	2.258289E-17	1.461422E-18
7.650000E+03	2.214303E-17	1.434430E-18
7.660000E+03	2.174209E-17	1.404954E-18
7.670000E+03	2.137994E-17	1.374456E-18
7.680000E+03	2.105527E-17	1.344406E-18
7.690000E+03	2.076788E-17	1.316197E-18
7.700000E+03	2.051879E-17	1.290984E-18
7.710000E+03	2.030864E-17	1.269541E-18
7.720000E+03	2.013872E-17	1.252319E-18
7.730000E+03	2.001041E-17	1.239445E-18
7.740000E+03	1.992523E-17	1.230861E-18
7.750000E+03	1.988355E-17	1.226375E-18
7.760000E+03	1.988562E-17	1.225787E-18
