#wls	flux	fluxerr
1.600000E+03	5.369072E-19	7.461894E-19
1.640000E+03	5.599798E-19	7.722436E-19
1.680000E+03	5.841051E-19	7.992952E-19
1.720000E+03	6.099665E-19	8.282728E-19
1.760000E+03	6.369866E-19	8.583811E-19
1.800000E+03	6.658795E-19	8.905806E-19
1.840000E+03	6.960284E-19	9.240396E-19
1.880000E+03	7.281778E-19	9.597474E-19
1.920000E+03	7.616660E-19	9.968272E-19
1.960000E+03	7.972673E-19	1.036294E-18
2.000000E+03	8.342701E-19	1.077216E-18
2.040000E+03	8.730774E-19	1.120115E-18
2.080000E+03	9.137159E-19	1.165016E-18
2.120000E+03	9.562065E-19	1.211933E-18
2.160000E+03	1.000128E-18	1.260316E-18
2.200000E+03	1.045454E-18	1.310115E-18
2.240000E+03	1.092149E-18	1.361259E-18
2.280000E+03	1.140640E-18	1.414245E-18
2.320000E+03	1.189943E-18	1.467804E-18
2.360000E+03	1.239958E-18	1.521765E-18
2.400000E+03	1.291076E-18	1.576542E-18
2.440000E+03	1.342681E-18	1.631301E-18
2.480000E+03	1.394088E-18	1.685116E-18
2.520000E+03	1.445079E-18	1.737622E-18
2.560000E+03	1.495970E-18	1.789068E-18
2.600000E+03	1.545950E-18	1.838333E-18
2.640000E+03	1.594710E-18	1.884880E-18
2.680000E+03	1.642494E-18	1.928808E-18
2.720000E+03	1.688953E-18	1.969487E-18
2.760000E+03	1.735538E-18	2.008362E-18
2.800000E+03	1.781294E-18	2.044040E-18
2.840000E+03	1.827082E-18	2.077215E-18
2.880000E+03	1.873154E-18	2.107847E-18
2.920000E+03	1.919754E-18	2.135867E-18
2.960000E+03	1.967105E-18	2.161173E-18
3.000000E+03	2.016059E-18	2.184339E-18
3.010000E+03	2.028165E-18	2.189339E-18
3.020000E+03	2.041314E-18	2.195193E-18
3.030000E+03	2.053534E-18	2.199773E-18
3.040000E+03	2.066782E-18	2.205172E-18
3.050000E+03	2.079737E-18	2.209972E-18
3.060000E+03	2.093046E-18	2.214856E-18
3.070000E+03	2.106044E-18	2.219114E-18
3.080000E+03	2.120031E-18	2.224114E-18
3.090000E+03	2.133686E-18	2.228456E-18
3.100000E+03	2.147654E-18	2.232814E-18
3.110000E+03	2.161922E-18	2.237168E-18
3.120000E+03	2.175822E-18	2.240822E-18
3.130000E+03	2.190654E-18	2.245112E-18
3.140000E+03	2.205093E-18	2.248671E-18
3.150000E+03	2.220434E-18	2.252817E-18
3.160000E+03	2.235354E-18	2.256200E-18
3.170000E+03	2.251144E-18	2.260123E-18
3.180000E+03	2.266482E-18	2.263250E-18
3.190000E+03	2.282655E-18	2.266866E-18
3.200000E+03	2.298991E-18	2.270296E-18
3.210000E+03	2.315473E-18	2.273519E-18
3.220000E+03	2.332726E-18	2.277146E-18
3.230000E+03	2.349435E-18	2.279890E-18
3.240000E+03	2.366870E-18	2.282985E-18
3.250000E+03	2.385003E-18	2.286397E-18
3.260000E+03	2.402526E-18	2.288870E-18
3.270000E+03	2.421331E-18	2.292209E-18
3.280000E+03	2.439476E-18	2.294571E-18
3.290000E+03	2.458838E-18	2.297726E-18
3.300000E+03	2.477485E-18	2.299865E-18
3.310000E+03	2.497277E-18	2.302722E-18
3.320000E+03	2.516920E-18	2.305098E-18
3.330000E+03	2.537004E-18	2.307542E-18
3.340000E+03	2.557488E-18	2.310017E-18
3.350000E+03	2.578331E-18	2.312486E-18
3.360000E+03	2.599487E-18	2.314915E-18
3.370000E+03	2.620912E-18	2.317267E-18
3.380000E+03	2.642560E-18	2.319510E-18
3.390000E+03	2.664381E-18	2.321610E-18
3.400000E+03	2.686328E-18	2.323533E-18
3.410000E+03	2.708943E-18	2.325758E-18
3.420000E+03	2.731574E-18	2.327730E-18
3.430000E+03	2.754753E-18	2.329915E-18
3.440000E+03	2.777833E-18	2.331775E-18
3.450000E+03	2.800760E-18	2.333283E-18
3.460000E+03	2.824623E-18	2.335360E-18
3.470000E+03	2.848205E-18	2.337005E-18
3.480000E+03	2.872013E-18	2.338656E-18
3.490000E+03	2.896533E-18	2.340718E-18
3.500000E+03	2.920576E-18	2.342244E-18
3.510000E+03	2.944635E-18	2.343650E-18
3.520000E+03	2.969179E-18	2.345328E-18
3.530000E+03	2.993589E-18	2.346799E-18
3.540000E+03	3.018326E-18	2.348443E-18
3.550000E+03	3.042780E-18	2.349801E-18
3.560000E+03	3.067405E-18	2.351241E-18
3.570000E+03	3.091606E-18	2.352325E-18
3.580000E+03	3.115829E-18	2.353412E-18
3.590000E+03	3.139996E-18	2.354456E-18
3.600000E+03	3.164527E-18	2.355785E-18
3.610000E+03	3.188355E-18	2.356617E-18
3.620000E+03	3.211912E-18	2.357291E-18
3.630000E+03	3.235133E-18	2.357774E-18
3.640000E+03	3.258426E-18	2.358373E-18
3.650000E+03	3.281254E-18	2.358709E-18
3.660000E+03	3.303563E-18	2.358755E-18
3.670000E+03	3.325756E-18	2.358807E-18
3.680000E+03	3.347328E-18	2.358514E-18
3.690000E+03	3.368678E-18	2.358164E-18
3.700000E+03	3.389325E-18	2.357423E-18
3.710000E+03	3.409664E-18	2.356573E-18
3.720000E+03	3.429654E-18	2.355583E-18
3.730000E+03	3.448853E-18	2.354150E-18
3.740000E+03	3.467650E-18	2.352542E-18
3.750000E+03	3.486021E-18	2.350738E-18
3.760000E+03	3.503947E-18	2.348721E-18
3.770000E+03	3.521413E-18	2.346476E-18
3.780000E+03	3.538410E-18	2.343991E-18
3.790000E+03	3.555301E-18	2.341496E-18
3.800000E+03	3.571705E-18	2.338730E-18
3.810000E+03	3.587627E-18	2.335688E-18
3.820000E+03	3.603422E-18	2.332592E-18
3.830000E+03	3.618742E-18	2.329204E-18
3.840000E+03	3.633938E-18	2.325738E-18
3.850000E+03	3.649010E-18	2.322180E-18
3.860000E+03	3.663959E-18	2.318520E-18
3.870000E+03	3.678794E-18	2.314745E-18
3.880000E+03	3.693520E-18	2.310849E-18
3.890000E+03	3.708149E-18	2.306824E-18
3.900000E+03	3.722992E-18	2.302850E-18
3.910000E+03	3.738047E-18	2.298909E-18
3.920000E+03	3.753024E-18	2.294809E-18
3.930000E+03	3.767938E-18	2.290547E-18
3.940000E+03	3.783364E-18	2.286458E-18
3.950000E+03	3.798743E-18	2.282191E-18
3.960000E+03	3.814629E-18	2.278065E-18
3.970000E+03	3.830749E-18	2.273904E-18
3.980000E+03	3.847367E-18	2.269851E-18
3.990000E+03	3.864221E-18	2.265739E-18
4.000000E+03	3.881567E-18	2.261707E-18
4.010000E+03	3.899155E-18	2.257598E-18
4.020000E+03	3.917474E-18	2.253686E-18
4.030000E+03	3.936270E-18	2.249813E-18
4.040000E+03	3.955540E-18	2.245970E-18
4.050000E+03	3.975284E-18	2.242149E-18
4.060000E+03	3.995725E-18	2.238469E-18
4.070000E+03	4.016851E-18	2.234919E-18
4.080000E+03	4.038654E-18	2.231488E-18
4.090000E+03	4.061127E-18	2.228170E-18
4.100000E+03	4.084264E-18	2.224962E-18
4.110000E+03	4.108269E-18	2.221975E-18
4.120000E+03	4.132928E-18	2.219097E-18
4.130000E+03	4.158442E-18	2.216443E-18
4.140000E+03	4.184805E-18	2.214017E-18
4.150000E+03	4.212016E-18	2.211829E-18
4.160000E+03	4.240076E-18	2.209895E-18
4.170000E+03	4.269175E-18	2.208333E-18
4.180000E+03	4.299314E-18	2.207163E-18
4.190000E+03	4.330313E-18	2.206319E-18
4.200000E+03	4.362547E-18	2.206023E-18
4.210000E+03	4.395842E-18	2.206221E-18
4.220000E+03	4.430216E-18	2.206962E-18
4.230000E+03	4.465860E-18	2.208388E-18
4.240000E+03	4.502792E-18	2.210557E-18
4.250000E+03	4.540871E-18	2.213456E-18
4.260000E+03	4.580458E-18	2.217326E-18
4.270000E+03	4.621580E-18	2.222247E-18
4.280000E+03	4.664111E-18	2.228231E-18
4.290000E+03	4.708094E-18	2.235380E-18
4.300000E+03	4.753890E-18	2.243952E-18
4.310000E+03	4.801385E-18	2.253982E-18
4.320000E+03	4.850633E-18	2.265589E-18
4.330000E+03	4.901840E-18	2.278970E-18
4.340000E+03	4.955062E-18	2.294250E-18
4.350000E+03	5.010212E-18	2.311488E-18
4.360000E+03	5.067502E-18	2.330880E-18
4.370000E+03	5.127140E-18	2.352617E-18
4.380000E+03	5.189044E-18	2.376742E-18
4.390000E+03	5.253278E-18	2.403352E-18
4.400000E+03	5.320044E-18	2.432582E-18
4.410000E+03	5.389258E-18	2.464415E-18
4.420000E+03	5.461113E-18	2.498938E-18
4.430000E+03	5.535659E-18	2.536159E-18
4.440000E+03	5.612944E-18	2.576072E-18
4.450000E+03	5.692879E-18	2.618599E-18
4.460000E+03	5.775781E-18	2.663841E-18
4.470000E+03	5.861423E-18	2.711643E-18
4.480000E+03	5.949980E-18	2.762031E-18
4.490000E+03	6.041492E-18	2.814964E-18
4.500000E+03	6.135862E-18	2.870336E-18
4.510000E+03	6.233126E-18	2.928099E-18
4.520000E+03	6.333316E-18	2.988204E-18
4.530000E+03	6.436463E-18	3.050598E-18
4.540000E+03	6.542462E-18	3.115165E-18
4.550000E+03	6.651469E-18	3.181912E-18
4.560000E+03	6.763117E-18	3.250597E-18
4.570000E+03	6.877684E-18	3.321285E-18
4.580000E+03	6.995059E-18	3.393855E-18
4.590000E+03	7.115002E-18	3.468123E-18
4.600000E+03	7.237654E-18	3.544092E-18
4.610000E+03	7.362900E-18	3.621637E-18
4.620000E+03	7.490497E-18	3.700572E-18
4.630000E+03	7.620458E-18	3.780836E-18
4.640000E+03	7.752666E-18	3.862303E-18
4.650000E+03	7.887007E-18	3.944850E-18
4.660000E+03	8.023368E-18	4.028351E-18
4.670000E+03	8.161637E-18	4.112682E-18
4.680000E+03	8.301576E-18	4.197656E-18
4.690000E+03	8.443332E-18	4.283278E-18
4.700000E+03	8.586420E-18	4.369233E-18
4.710000E+03	8.730990E-18	4.455528E-18
4.720000E+03	8.876689E-18	4.541913E-18
4.730000E+03	9.023422E-18	4.628269E-18
4.740000E+03	9.171219E-18	4.714541E-18
4.750000E+03	9.319734E-18	4.800481E-18
4.760000E+03	9.468877E-18	4.885971E-18
4.770000E+03	9.618429E-18	4.970828E-18
4.780000E+03	9.768428E-18	5.054996E-18
4.790000E+03	9.918653E-18	5.138293E-18
4.800000E+03	1.006901E-17	5.220598E-18
4.810000E+03	1.021928E-17	5.301720E-18
4.820000E+03	1.036936E-17	5.381536E-18
4.830000E+03	1.051901E-17	5.459850E-18
4.840000E+03	1.066824E-17	5.536597E-18
4.850000E+03	1.081682E-17	5.611572E-18
4.860000E+03	1.096459E-17	5.684635E-18
4.870000E+03	1.111143E-17	5.755637E-18
4.880000E+03	1.125704E-17	5.824358E-18
4.890000E+03	1.140153E-17	5.890773E-18
4.900000E+03	1.154444E-17	5.954580E-18
4.910000E+03	1.168571E-17	6.015674E-18
4.920000E+03	1.182514E-17	6.073874E-18
4.930000E+03	1.196263E-17	6.129061E-18
4.940000E+03	1.209795E-17	6.181042E-18
4.950000E+03	1.223084E-17	6.229617E-18
4.960000E+03	1.236116E-17	6.274649E-18
4.970000E+03	1.248864E-17	6.315928E-18
4.980000E+03	1.261325E-17	6.353374E-18
4.990000E+03	1.273469E-17	6.386771E-18
5.000000E+03	1.285290E-17	6.416034E-18
5.010000E+03	1.296743E-17	6.440873E-18
5.020000E+03	1.307836E-17	6.461269E-18
5.030000E+03	1.318547E-17	6.477069E-18
5.040000E+03	1.328842E-17	6.488053E-18
5.050000E+03	1.338727E-17	6.494206E-18
5.060000E+03	1.348167E-17	6.495317E-18
5.070000E+03	1.357167E-17	6.491378E-18
5.080000E+03	1.365691E-17	6.482189E-18
5.090000E+03	1.373731E-17	6.467690E-18
5.100000E+03	1.381278E-17	6.447828E-18
5.110000E+03	1.388325E-17	6.422559E-18
5.120000E+03	1.394850E-17	6.391785E-18
5.130000E+03	1.400846E-17	6.355483E-18
5.140000E+03	1.406318E-17	6.313707E-18
5.150000E+03	1.411233E-17	6.266331E-18
5.160000E+03	1.415598E-17	6.213438E-18
5.170000E+03	1.419421E-17	6.155119E-18
5.180000E+03	1.422654E-17	6.091242E-18
5.190000E+03	1.425334E-17	6.022056E-18
5.200000E+03	1.427444E-17	5.947588E-18
5.210000E+03	1.428964E-17	5.867889E-18
5.220000E+03	1.429907E-17	5.783152E-18
5.230000E+03	1.430270E-17	5.693536E-18
5.240000E+03	1.430052E-17	5.599227E-18
5.250000E+03	1.429252E-17	5.500442E-18
5.260000E+03	1.427873E-17	5.397432E-18
5.270000E+03	1.425915E-17	5.290482E-18
5.280000E+03	1.423384E-17	5.179918E-18
5.290000E+03	1.420297E-17	5.066154E-18
5.300000E+03	1.416649E-17	4.949550E-18
5.310000E+03	1.412447E-17	4.830564E-18
5.320000E+03	1.407704E-17	4.709703E-18
5.330000E+03	1.402430E-17	4.587532E-18
5.340000E+03	1.396656E-17	4.464712E-18
5.350000E+03	1.390369E-17	4.341832E-18
5.360000E+03	1.383617E-17	4.219718E-18
5.370000E+03	1.376406E-17	4.099123E-18
5.380000E+03	1.368746E-17	3.980868E-18
5.390000E+03	1.360675E-17	3.865911E-18
5.400000E+03	1.352220E-17	3.755217E-18
5.410000E+03	1.343397E-17	3.649759E-18
5.420000E+03	1.334223E-17	3.550536E-18
5.430000E+03	1.324755E-17	3.458661E-18
5.440000E+03	1.315001E-17	3.375080E-18
5.450000E+03	1.304996E-17	3.300752E-18
5.460000E+03	1.294775E-17	3.236537E-18
5.470000E+03	1.284363E-17	3.183111E-18
5.480000E+03	1.273786E-17	3.140947E-18
5.490000E+03	1.263097E-17	3.110320E-18
5.500000E+03	1.252325E-17	3.091133E-18
5.510000E+03	1.241491E-17	3.082947E-18
5.520000E+03	1.230652E-17	3.085152E-18
5.530000E+03	1.219831E-17	3.096849E-18
5.540000E+03	1.209075E-17	3.117087E-18
5.550000E+03	1.198406E-17	3.144797E-18
5.560000E+03	1.187871E-17	3.178968E-18
5.570000E+03	1.177491E-17	3.218562E-18
5.580000E+03	1.167311E-17	3.262668E-18
5.590000E+03	1.157365E-17	3.310429E-18
5.600000E+03	1.147671E-17	3.361045E-18
5.610000E+03	1.138262E-17	3.413851E-18
5.620000E+03	1.129166E-17	3.468276E-18
5.630000E+03	1.120413E-17	3.523846E-18
5.640000E+03	1.112032E-17	3.580174E-18
5.650000E+03	1.104027E-17	3.636881E-18
5.660000E+03	1.096446E-17	3.693802E-18
5.670000E+03	1.089303E-17	3.750731E-18
5.680000E+03	1.082611E-17	3.807516E-18
5.690000E+03	1.076393E-17	3.864089E-18
5.700000E+03	1.070661E-17	3.920384E-18
5.710000E+03	1.065444E-17	3.976448E-18
5.720000E+03	1.060741E-17	4.032239E-18
5.730000E+03	1.056579E-17	4.087855E-18
5.740000E+03	1.052965E-17	4.143334E-18
5.750000E+03	1.049903E-17	4.198724E-18
5.760000E+03	1.047407E-17	4.254126E-18
5.770000E+03	1.045487E-17	4.309646E-18
5.780000E+03	1.044144E-17	4.365353E-18
5.790000E+03	1.043377E-17	4.421314E-18
5.800000E+03	1.043193E-17	4.477637E-18
5.810000E+03	1.043586E-17	4.534385E-18
5.820000E+03	1.044562E-17	4.591658E-18
5.830000E+03	1.046112E-17	4.649507E-18
5.840000E+03	1.048238E-17	4.708018E-18
5.850000E+03	1.050928E-17	4.767228E-18
5.860000E+03	1.054172E-17	4.827163E-18
5.870000E+03	1.057975E-17	4.887931E-18
5.880000E+03	1.062304E-17	4.949450E-18
5.890000E+03	1.067163E-17	5.011814E-18
5.900000E+03	1.072545E-17	5.075065E-18
5.910000E+03	1.078414E-17	5.139094E-18
5.920000E+03	1.084782E-17	5.204026E-18
5.930000E+03	1.091620E-17	5.269788E-18
5.940000E+03	1.098920E-17	5.336403E-18
5.950000E+03	1.106663E-17	5.403840E-18
5.960000E+03	1.114841E-17	5.472117E-18
5.970000E+03	1.123434E-17	5.541205E-18
5.980000E+03	1.132425E-17	5.611071E-18
5.990000E+03	1.141805E-17	5.681739E-18
6.000000E+03	1.151569E-17	5.753239E-18
6.010000E+03	1.161699E-17	5.825551E-18
6.020000E+03	1.172180E-17	5.898661E-18
6.030000E+03	1.183018E-17	5.972670E-18
6.040000E+03	1.194189E-17	6.047521E-18
6.050000E+03	1.205688E-17	6.123275E-18
6.060000E+03	1.217526E-17	6.200057E-18
6.070000E+03	1.229680E-17	6.277829E-18
6.080000E+03	1.242149E-17	6.356674E-18
6.090000E+03	1.254933E-17	6.436679E-18
6.100000E+03	1.268032E-17	6.517939E-18
6.110000E+03	1.281437E-17	6.600491E-18
6.120000E+03	1.295160E-17	6.684497E-18
6.130000E+03	1.309178E-17	6.769936E-18
6.140000E+03	1.323515E-17	6.857033E-18
6.150000E+03	1.338160E-17	6.945827E-18
6.160000E+03	1.353113E-17	7.036414E-18
6.170000E+03	1.368358E-17	7.128820E-18
6.180000E+03	1.383908E-17	7.223193E-18
6.190000E+03	1.399771E-17	7.319676E-18
6.200000E+03	1.415917E-17	7.418199E-18
6.210000E+03	1.432368E-17	7.518951E-18
6.220000E+03	1.449091E-17	7.621831E-18
6.230000E+03	1.466116E-17	7.727076E-18
6.240000E+03	1.483408E-17	7.834552E-18
6.250000E+03	1.500970E-17	7.944322E-18
6.260000E+03	1.518804E-17	8.056436E-18
6.270000E+03	1.536896E-17	8.170852E-18
6.280000E+03	1.555231E-17	8.287509E-18
6.290000E+03	1.573792E-17	8.406325E-18
6.300000E+03	1.592592E-17	8.527360E-18
6.310000E+03	1.611610E-17	8.650500E-18
6.320000E+03	1.630811E-17	8.775528E-18
6.330000E+03	1.650218E-17	8.902540E-18
6.340000E+03	1.669776E-17	9.031198E-18
6.350000E+03	1.689491E-17	9.161487E-18
6.360000E+03	1.709350E-17	9.293291E-18
6.370000E+03	1.729309E-17	9.426305E-18
6.380000E+03	1.749352E-17	9.560381E-18
6.390000E+03	1.769462E-17	9.695362E-18
6.400000E+03	1.789606E-17	9.830985E-18
6.410000E+03	1.809761E-17	9.967068E-18
6.420000E+03	1.829889E-17	1.010332E-17
6.430000E+03	1.849967E-17	1.023954E-17
6.440000E+03	1.869969E-17	1.037551E-17
6.450000E+03	1.889832E-17	1.051082E-17
6.460000E+03	1.909527E-17	1.064523E-17
6.470000E+03	1.929025E-17	1.077850E-17
6.480000E+03	1.948274E-17	1.091030E-17
6.490000E+03	1.967245E-17	1.104037E-17
6.500000E+03	1.985884E-17	1.116838E-17
6.510000E+03	2.004139E-17	1.129396E-17
6.520000E+03	2.021978E-17	1.141687E-17
6.530000E+03	2.039367E-17	1.153689E-17
6.540000E+03	2.056214E-17	1.165344E-17
6.550000E+03	2.072529E-17	1.176653E-17
6.560000E+03	2.088243E-17	1.187573E-17
6.570000E+03	2.103308E-17	1.198072E-17
6.580000E+03	2.117699E-17	1.208134E-17
6.590000E+03	2.131376E-17	1.217731E-17
6.600000E+03	2.144321E-17	1.226851E-17
6.610000E+03	2.156455E-17	1.235445E-17
6.620000E+03	2.167814E-17	1.243531E-17
6.630000E+03	2.178326E-17	1.251067E-17
6.640000E+03	2.187994E-17	1.258050E-17
6.650000E+03	2.196800E-17	1.264470E-17
6.660000E+03	2.204734E-17	1.270317E-17
6.670000E+03	2.211789E-17	1.275588E-17
6.680000E+03	2.217991E-17	1.280293E-17
6.690000E+03	2.223321E-17	1.284422E-17
6.700000E+03	2.227813E-17	1.287993E-17
6.710000E+03	2.231463E-17	1.291001E-17
6.720000E+03	2.234314E-17	1.293471E-17
6.730000E+03	2.236396E-17	1.295418E-17
6.740000E+03	2.237717E-17	1.296845E-17
6.750000E+03	2.238312E-17	1.297773E-17
6.760000E+03	2.238273E-17	1.298252E-17
6.770000E+03	2.237571E-17	1.298264E-17
6.780000E+03	2.236327E-17	1.297881E-17
6.790000E+03	2.234519E-17	1.297085E-17
6.800000E+03	2.232274E-17	1.295952E-17
6.810000E+03	2.229574E-17	1.294468E-17
6.820000E+03	2.226548E-17	1.292707E-17
6.830000E+03	2.223177E-17	1.290658E-17
6.840000E+03	2.219568E-17	1.288380E-17
6.850000E+03	2.215726E-17	1.285875E-17
6.860000E+03	2.211753E-17	1.283202E-17
6.870000E+03	2.207676E-17	1.280374E-17
6.880000E+03	2.203541E-17	1.277417E-17
6.890000E+03	2.199392E-17	1.274354E-17
6.900000E+03	2.195242E-17	1.271192E-17
6.910000E+03	2.191175E-17	1.267978E-17
6.920000E+03	2.187144E-17	1.264683E-17
6.930000E+03	2.183245E-17	1.261361E-17
6.940000E+03	2.179417E-17	1.257975E-17
6.950000E+03	2.175717E-17	1.254557E-17
6.960000E+03	2.172144E-17	1.251104E-17
6.970000E+03	2.168638E-17	1.247581E-17
6.980000E+03	2.165208E-17	1.243992E-17
6.990000E+03	2.161854E-17	1.240335E-17
7.000000E+03	2.158491E-17	1.236561E-17
7.010000E+03	2.155104E-17	1.232659E-17
7.020000E+03	2.151618E-17	1.228587E-17
7.030000E+03	2.148002E-17	1.224326E-17
7.040000E+03	2.144195E-17	1.219842E-17
7.050000E+03	2.140076E-17	1.215066E-17
7.060000E+03	2.135625E-17	1.209986E-17
7.070000E+03	2.130764E-17	1.204560E-17
7.080000E+03	2.125363E-17	1.198717E-17
7.090000E+03	2.119368E-17	1.192427E-17
7.100000E+03	2.112699E-17	1.185648E-17
7.110000E+03	2.105251E-17	1.178324E-17
7.120000E+03	2.097001E-17	1.170447E-17
7.130000E+03	2.087824E-17	1.161951E-17
7.140000E+03	2.077657E-17	1.152806E-17
7.150000E+03	2.066465E-17	1.142999E-17
7.160000E+03	2.054173E-17	1.132496E-17
7.170000E+03	2.040764E-17	1.121293E-17
7.180000E+03	2.026183E-17	1.109370E-17
7.190000E+03	2.010407E-17	1.096723E-17
7.200000E+03	1.993428E-17	1.083356E-17
7.210000E+03	1.975222E-17	1.069268E-17
7.220000E+03	1.955852E-17	1.054504E-17
7.230000E+03	1.935317E-17	1.039075E-17
7.240000E+03	1.913651E-17	1.023011E-17
7.250000E+03	1.890875E-17	1.006338E-17
7.260000E+03	1.867092E-17	9.891216E-18
7.270000E+03	1.842317E-17	9.713849E-18
7.280000E+03	1.816620E-17	9.531791E-18
7.290000E+03	1.790125E-17	9.345836E-18
7.300000E+03	1.762868E-17	9.156316E-18
7.310000E+03	1.734959E-17	8.963951E-18
7.320000E+03	1.706489E-17	8.769356E-18
7.330000E+03	1.677528E-17	8.573041E-18
7.340000E+03	1.648193E-17	8.375750E-18
7.350000E+03	1.618579E-17	8.178110E-18
7.360000E+03	1.588781E-17	7.980739E-18
7.370000E+03	1.558873E-17	7.784147E-18
7.380000E+03	1.528967E-17	7.589035E-18
7.390000E+03	1.499174E-17	7.396081E-18
7.400000E+03	1.469543E-17	7.205646E-18
7.410000E+03	1.440178E-17	7.018366E-18
7.420000E+03	1.411162E-17	6.834755E-18
7.430000E+03	1.382573E-17	6.655298E-18
7.440000E+03	1.354505E-17	6.480543E-18
7.450000E+03	1.327009E-17	6.310832E-18
7.460000E+03	1.300153E-17	6.146567E-18
7.470000E+03	1.274000E-17	5.988125E-18
7.480000E+03	1.248625E-17	5.835929E-18
7.490000E+03	1.224065E-17	5.690216E-18
7.500000E+03	1.200389E-17	5.551346E-18
7.510000E+03	1.177624E-17	5.419503E-18
7.520000E+03	1.155829E-17	5.294987E-18
7.530000E+03	1.135026E-17	5.177928E-18
7.540000E+03	1.115265E-17	5.068571E-18
7.550000E+03	1.096559E-17	4.966990E-18
7.560000E+03	1.078950E-17	4.873375E-18
7.570000E+03	1.062459E-17	4.787817E-18
7.580000E+03	1.047090E-17	4.710313E-18
7.590000E+03	1.032872E-17	4.640967E-18
7.600000E+03	1.019799E-17	4.579715E-18
7.610000E+03	1.007906E-17	4.526651E-18
7.620000E+03	9.971622E-18	4.481561E-18
7.630000E+03	9.875753E-18	4.444380E-18
7.640000E+03	9.791471E-18	4.414999E-18
7.650000E+03	9.718345E-18	4.393095E-18
7.660000E+03	9.656337E-18	4.378521E-18
7.670000E+03	9.605392E-18	4.371123E-18
7.680000E+03	9.565036E-18	4.370559E-18
7.690000E+03	9.535336E-18	4.376740E-18
7.700000E+03	9.515945E-18	4.389393E-18
7.710000E+03	9.506790E-18	4.408382E-18
7.720000E+03	9.507524E-18	4.433448E-18
7.730000E+03	9.518073E-18	4.464470E-18
7.740000E+03	9.538233E-18	4.501271E-18
7.750000E+03	9.567657E-18	4.543619E-18
7.760000E+03	9.606281E-18	4.591419E-18
