#wls	flux	fluxerr
1.580871E+03	3.495082E-19	0.000000E+00
1.620393E+03	3.664482E-19	0.000000E+00
1.659915E+03	3.802277E-19	0.000000E+00
1.699437E+03	3.902737E-19	0.000000E+00
1.738959E+03	3.960758E-19	0.000000E+00
1.778480E+03	3.963546E-19	0.000000E+00
1.818002E+03	3.898721E-19	0.000000E+00
1.857524E+03	3.754111E-19	0.000000E+00
1.897046E+03	3.523091E-19	0.000000E+00
1.936568E+03	3.211464E-19	0.000000E+00
1.976089E+03	2.845770E-19	0.000000E+00
2.015611E+03	2.474435E-19	0.000000E+00
2.055133E+03	2.160812E-19	0.000000E+00
2.094655E+03	1.963061E-19	0.000000E+00
2.134176E+03	1.919253E-19	0.000000E+00
2.173698E+03	2.045900E-19	0.000000E+00
2.213220E+03	2.344167E-19	0.000000E+00
2.252742E+03	2.802030E-19	0.000000E+00
2.292264E+03	3.394671E-19	0.000000E+00
2.331785E+03	4.089435E-19	0.000000E+00
2.371307E+03	4.852682E-19	0.000000E+00
2.410829E+03	5.656489E-19	0.000000E+00
2.450351E+03	6.481473E-19	0.000000E+00
2.489873E+03	7.314430E-19	0.000000E+00
2.529394E+03	8.149752E-19	0.000000E+00
2.568916E+03	8.984976E-19	0.000000E+00
2.608438E+03	9.822446E-19	0.000000E+00
2.647960E+03	1.066354E-18	0.000000E+00
2.687481E+03	1.151195E-18	0.000000E+00
2.727003E+03	1.237362E-18	0.000000E+00
2.766525E+03	1.325171E-18	0.000000E+00
2.806047E+03	1.415287E-18	0.000000E+00
2.845569E+03	1.508239E-18	0.000000E+00
2.885090E+03	1.604570E-18	0.000000E+00
2.924612E+03	1.704844E-18	0.000000E+00
2.964134E+03	1.809849E-18	0.000000E+00
2.974014E+03	1.836893E-18	0.000000E+00
2.983895E+03	1.864280E-18	0.000000E+00
2.993775E+03	1.892019E-18	0.000000E+00
3.003656E+03	1.920204E-18	0.000000E+00
3.013536E+03	1.949150E-18	0.000000E+00
3.023417E+03	1.979193E-18	0.000000E+00
3.033297E+03	2.010393E-18	0.000000E+00
3.043178E+03	2.042417E-18	0.000000E+00
3.053058E+03	2.075549E-18	0.000000E+00
3.062938E+03	2.109621E-18	0.000000E+00
3.072819E+03	2.144573E-18	0.000000E+00
3.082699E+03	2.180455E-18	0.000000E+00
3.092580E+03	2.217005E-18	0.000000E+00
3.102460E+03	2.254500E-18	0.000000E+00
3.112341E+03	2.292572E-18	0.000000E+00
3.122221E+03	2.331402E-18	0.000000E+00
3.132102E+03	2.370846E-18	0.000000E+00
3.141982E+03	2.410986E-18	0.000000E+00
3.151862E+03	2.451681E-18	0.000000E+00
3.161743E+03	2.493024E-18	0.000000E+00
3.171623E+03	2.534877E-18	0.000000E+00
3.181504E+03	2.577341E-18	0.000000E+00
3.191384E+03	2.620285E-18	0.000000E+00
3.201265E+03	2.663813E-18	0.000000E+00
3.211145E+03	2.707917E-18	0.000000E+00
3.221026E+03	2.752595E-18	0.000000E+00
3.230906E+03	2.797723E-18	0.000000E+00
3.240786E+03	2.843419E-18	0.000000E+00
3.250667E+03	2.889567E-18	0.000000E+00
3.260547E+03	2.936410E-18	0.000000E+00
3.270428E+03	2.983712E-18	0.000000E+00
3.280308E+03	3.031605E-18	0.000000E+00
3.290189E+03	3.080222E-18	0.000000E+00
3.300069E+03	3.129330E-18	0.000000E+00
3.309950E+03	3.179065E-18	0.000000E+00
3.319830E+03	3.229447E-18	0.000000E+00
3.329711E+03	3.280489E-18	0.000000E+00
3.339591E+03	3.332214E-18	0.000000E+00
3.349471E+03	3.384641E-18	0.000000E+00
3.359352E+03	3.437923E-18	0.000000E+00
3.369232E+03	3.491825E-18	0.000000E+00
3.379113E+03	3.546633E-18	0.000000E+00
3.388993E+03	3.602242E-18	0.000000E+00
3.398874E+03	3.658813E-18	0.000000E+00
3.408754E+03	3.716110E-18	0.000000E+00
3.418635E+03	3.774426E-18	0.000000E+00
3.428515E+03	3.833663E-18	0.000000E+00
3.438395E+03	3.893986E-18	0.000000E+00
3.448276E+03	3.955292E-18	0.000000E+00
3.458156E+03	4.017753E-18	0.000000E+00
3.468037E+03	4.081267E-18	0.000000E+00
3.477917E+03	4.146006E-18	0.000000E+00
3.487798E+03	4.211871E-18	0.000000E+00
3.497678E+03	4.278894E-18	0.000000E+00
3.507559E+03	4.347397E-18	0.000000E+00
3.517439E+03	4.417137E-18	0.000000E+00
3.527319E+03	4.488152E-18	0.000000E+00
3.537200E+03	4.560767E-18	0.000000E+00
3.547080E+03	4.634737E-18	0.000000E+00
3.556961E+03	4.710247E-18	0.000000E+00
3.566841E+03	4.787193E-18	0.000000E+00
3.576722E+03	4.865760E-18	0.000000E+00
3.586602E+03	4.946142E-18	0.000000E+00
3.596483E+03	5.028085E-18	0.000000E+00
3.606363E+03	5.111632E-18	0.000000E+00
3.616243E+03	5.197124E-18	0.000000E+00
3.626124E+03	5.284458E-18	0.000000E+00
3.636004E+03	5.373526E-18	0.000000E+00
3.645885E+03	5.464677E-18	0.000000E+00
3.655765E+03	5.557648E-18	0.000000E+00
3.665646E+03	5.652795E-18	0.000000E+00
3.675526E+03	5.749855E-18	0.000000E+00
3.685407E+03	5.849184E-18	0.000000E+00
3.695287E+03	5.950513E-18	0.000000E+00
3.705167E+03	6.054047E-18	0.000000E+00
3.715048E+03	6.159832E-18	0.000000E+00
3.724928E+03	6.268077E-18	0.000000E+00
3.734809E+03	6.378505E-18	0.000000E+00
3.744689E+03	6.491325E-18	0.000000E+00
3.754570E+03	6.606748E-18	0.000000E+00
3.764450E+03	6.724494E-18	0.000000E+00
3.774331E+03	6.844772E-18	0.000000E+00
3.784211E+03	6.967800E-18	0.000000E+00
3.794091E+03	7.093288E-18	0.000000E+00
3.803972E+03	7.221453E-18	0.000000E+00
3.813852E+03	7.352340E-18	0.000000E+00
3.823733E+03	7.485998E-18	0.000000E+00
3.833613E+03	7.622475E-18	0.000000E+00
3.843494E+03	7.761820E-18	0.000000E+00
3.853374E+03	7.904079E-18	0.000000E+00
3.863255E+03	8.049121E-18	0.000000E+00
3.873135E+03	8.197352E-18	0.000000E+00
3.883016E+03	8.348457E-18	0.000000E+00
3.892896E+03	8.502666E-18	0.000000E+00
3.902776E+03	8.659840E-18	0.000000E+00
3.912657E+03	8.820397E-18	0.000000E+00
3.922537E+03	8.983821E-18	0.000000E+00
3.932418E+03	9.150722E-18	0.000000E+00
3.942298E+03	9.320767E-18	0.000000E+00
3.952179E+03	9.494193E-18	0.000000E+00
3.962059E+03	9.670850E-18	0.000000E+00
3.971940E+03	9.850974E-18	0.000000E+00
3.981820E+03	1.003421E-17	0.000000E+00
3.991700E+03	1.022121E-17	0.000000E+00
4.001581E+03	1.041139E-17	0.000000E+00
4.011461E+03	1.060522E-17	0.000000E+00
4.021342E+03	1.080251E-17	0.000000E+00
4.031222E+03	1.100310E-17	0.000000E+00
4.041103E+03	1.120743E-17	0.000000E+00
4.050983E+03	1.141534E-17	0.000000E+00
4.060864E+03	1.162664E-17	0.000000E+00
4.070744E+03	1.184179E-17	0.000000E+00
4.080624E+03	1.206037E-17	0.000000E+00
4.090505E+03	1.228242E-17	0.000000E+00
4.100385E+03	1.250817E-17	0.000000E+00
4.110266E+03	1.273763E-17	0.000000E+00
4.120146E+03	1.297061E-17	0.000000E+00
4.130027E+03	1.320711E-17	0.000000E+00
4.139907E+03	1.344713E-17	0.000000E+00
4.149788E+03	1.369067E-17	0.000000E+00
4.159668E+03	1.393773E-17	0.000000E+00
4.169548E+03	1.418831E-17	0.000000E+00
4.179429E+03	1.444215E-17	0.000000E+00
4.189309E+03	1.469947E-17	0.000000E+00
4.199190E+03	1.496025E-17	0.000000E+00
4.209070E+03	1.522398E-17	0.000000E+00
4.218951E+03	1.549135E-17	0.000000E+00
4.228831E+03	1.576158E-17	0.000000E+00
4.238712E+03	1.603488E-17	0.000000E+00
4.248592E+03	1.631119E-17	0.000000E+00
4.258472E+03	1.659017E-17	0.000000E+00
4.268353E+03	1.687204E-17	0.000000E+00
4.278233E+03	1.715672E-17	0.000000E+00
4.288114E+03	1.744359E-17	0.000000E+00
4.297994E+03	1.773308E-17	0.000000E+00
4.307875E+03	1.802487E-17	0.000000E+00
4.317755E+03	1.831855E-17	0.000000E+00
4.327636E+03	1.861456E-17	0.000000E+00
4.337516E+03	1.891198E-17	0.000000E+00
4.347397E+03	1.921121E-17	0.000000E+00
4.357277E+03	1.951187E-17	0.000000E+00
4.367157E+03	1.981409E-17	0.000000E+00
4.377038E+03	2.011718E-17	0.000000E+00
4.386918E+03	2.042099E-17	0.000000E+00
4.396799E+03	2.072593E-17	0.000000E+00
4.406679E+03	2.103099E-17	0.000000E+00
4.416560E+03	2.133659E-17	0.000000E+00
4.426440E+03	2.164229E-17	0.000000E+00
4.436321E+03	2.194762E-17	0.000000E+00
4.446201E+03	2.225270E-17	0.000000E+00
4.456081E+03	2.255739E-17	0.000000E+00
4.465962E+03	2.286121E-17	0.000000E+00
4.475842E+03	2.316367E-17	0.000000E+00
4.485723E+03	2.346525E-17	0.000000E+00
4.495603E+03	2.376547E-17	0.000000E+00
4.505484E+03	2.406384E-17	0.000000E+00
4.515364E+03	2.436024E-17	0.000000E+00
4.525245E+03	2.465479E-17	0.000000E+00
4.535125E+03	2.494704E-17	0.000000E+00
4.545005E+03	2.523653E-17	0.000000E+00
4.554886E+03	2.552375E-17	0.000000E+00
4.564766E+03	2.580764E-17	0.000000E+00
4.574647E+03	2.608867E-17	0.000000E+00
4.584527E+03	2.636643E-17	0.000000E+00
4.594408E+03	2.664080E-17	0.000000E+00
4.604288E+03	2.691166E-17	0.000000E+00
4.614169E+03	2.717894E-17	0.000000E+00
4.624049E+03	2.744222E-17	0.000000E+00
4.633929E+03	2.770176E-17	0.000000E+00
4.643810E+03	2.795683E-17	0.000000E+00
4.653690E+03	2.820802E-17	0.000000E+00
4.663571E+03	2.845462E-17	0.000000E+00
4.673451E+03	2.869727E-17	0.000000E+00
4.683332E+03	2.893525E-17	0.000000E+00
4.693212E+03	2.916856E-17	0.000000E+00
4.703093E+03	2.939751E-17	0.000000E+00
4.712973E+03	2.962178E-17	0.000000E+00
4.722853E+03	2.984132E-17	0.000000E+00
4.732734E+03	3.005654E-17	0.000000E+00
4.742614E+03	3.026674E-17	0.000000E+00
4.752495E+03	3.047233E-17	0.000000E+00
4.762375E+03	3.067328E-17	0.000000E+00
4.772256E+03	3.086966E-17	0.000000E+00
4.782136E+03	3.106118E-17	0.000000E+00
4.792017E+03	3.124825E-17	0.000000E+00
4.801897E+03	3.143053E-17	0.000000E+00
4.811777E+03	3.160843E-17	0.000000E+00
4.821658E+03	3.178205E-17	0.000000E+00
4.831538E+03	3.195106E-17	0.000000E+00
4.841419E+03	3.211557E-17	0.000000E+00
4.851299E+03	3.227597E-17	0.000000E+00
4.861180E+03	3.243198E-17	0.000000E+00
4.871060E+03	3.258367E-17	0.000000E+00
4.880941E+03	3.273149E-17	0.000000E+00
4.890821E+03	3.287515E-17	0.000000E+00
4.900702E+03	3.301503E-17	0.000000E+00
4.910582E+03	3.315090E-17	0.000000E+00
4.920462E+03	3.328282E-17	0.000000E+00
4.930343E+03	3.341119E-17	0.000000E+00
4.940223E+03	3.353609E-17	0.000000E+00
4.950104E+03	3.365725E-17	0.000000E+00
4.959984E+03	3.377474E-17	0.000000E+00
4.969865E+03	3.388930E-17	0.000000E+00
4.979745E+03	3.399994E-17	0.000000E+00
4.989626E+03	3.410781E-17	0.000000E+00
4.999506E+03	3.421257E-17	0.000000E+00
5.009386E+03	3.431395E-17	0.000000E+00
5.019267E+03	3.441239E-17	0.000000E+00
5.029147E+03	3.450789E-17	0.000000E+00
5.039028E+03	3.460090E-17	0.000000E+00
5.048908E+03	3.469073E-17	0.000000E+00
5.058789E+03	3.477818E-17	0.000000E+00
5.068669E+03	3.486328E-17	0.000000E+00
5.078550E+03	3.494537E-17	0.000000E+00
5.088430E+03	3.502521E-17	0.000000E+00
5.098310E+03	3.510287E-17	0.000000E+00
5.108191E+03	3.517840E-17	0.000000E+00
5.118071E+03	3.525147E-17	0.000000E+00
5.127952E+03	3.532289E-17	0.000000E+00
5.137832E+03	3.539196E-17	0.000000E+00
5.147713E+03	3.545949E-17	0.000000E+00
5.157593E+03	3.552514E-17	0.000000E+00
5.167474E+03	3.558902E-17	0.000000E+00
5.177354E+03	3.565153E-17	0.000000E+00
5.187234E+03	3.571238E-17	0.000000E+00
5.197115E+03	3.577234E-17	0.000000E+00
5.206995E+03	3.583080E-17	0.000000E+00
5.216876E+03	3.588819E-17	0.000000E+00
5.226756E+03	3.594457E-17	0.000000E+00
5.236637E+03	3.600002E-17	0.000000E+00
5.246517E+03	3.605500E-17	0.000000E+00
5.256398E+03	3.610926E-17	0.000000E+00
5.266278E+03	3.616322E-17	0.000000E+00
5.276158E+03	3.621664E-17	0.000000E+00
5.286039E+03	3.626997E-17	0.000000E+00
5.295919E+03	3.632367E-17	0.000000E+00
5.305800E+03	3.637712E-17	0.000000E+00
5.315680E+03	3.643077E-17	0.000000E+00
5.325561E+03	3.648514E-17	0.000000E+00
5.335441E+03	3.653994E-17	0.000000E+00
5.345322E+03	3.659567E-17	0.000000E+00
5.355202E+03	3.665203E-17	0.000000E+00
5.365083E+03	3.670953E-17	0.000000E+00
5.374963E+03	3.676826E-17	0.000000E+00
5.384843E+03	3.682834E-17	0.000000E+00
5.394724E+03	3.688984E-17	0.000000E+00
5.404604E+03	3.695292E-17	0.000000E+00
5.414485E+03	3.701762E-17	0.000000E+00
5.424365E+03	3.708437E-17	0.000000E+00
5.434246E+03	3.715294E-17	0.000000E+00
5.444126E+03	3.722373E-17	0.000000E+00
5.454007E+03	3.729680E-17	0.000000E+00
5.463887E+03	3.737182E-17	0.000000E+00
5.473767E+03	3.744921E-17	0.000000E+00
5.483648E+03	3.752899E-17	0.000000E+00
5.493528E+03	3.761116E-17	0.000000E+00
5.503409E+03	3.769575E-17	0.000000E+00
5.513289E+03	3.778318E-17	0.000000E+00
5.523170E+03	3.787264E-17	0.000000E+00
5.533050E+03	3.796495E-17	0.000000E+00
5.542931E+03	3.805965E-17	0.000000E+00
5.552811E+03	3.815674E-17	0.000000E+00
5.562691E+03	3.825697E-17	0.000000E+00
5.572572E+03	3.835917E-17	0.000000E+00
5.582452E+03	3.846405E-17	0.000000E+00
5.592333E+03	3.857157E-17	0.000000E+00
5.602213E+03	3.868168E-17	0.000000E+00
5.612094E+03	3.879394E-17	0.000000E+00
5.621974E+03	3.890866E-17	0.000000E+00
5.631855E+03	3.902581E-17	0.000000E+00
5.641735E+03	3.914528E-17	0.000000E+00
5.651615E+03	3.926701E-17	0.000000E+00
5.661496E+03	3.939094E-17	0.000000E+00
5.671376E+03	3.951692E-17	0.000000E+00
5.681257E+03	3.964493E-17	0.000000E+00
5.691137E+03	3.977523E-17	0.000000E+00
5.701018E+03	3.990692E-17	0.000000E+00
5.710898E+03	4.004075E-17	0.000000E+00
5.720779E+03	4.017617E-17	0.000000E+00
5.730659E+03	4.031310E-17	0.000000E+00
5.740539E+03	4.045141E-17	0.000000E+00
5.750420E+03	4.059142E-17	0.000000E+00
5.760300E+03	4.073262E-17	0.000000E+00
5.770181E+03	4.087530E-17	0.000000E+00
5.780061E+03	4.101894E-17	0.000000E+00
5.789942E+03	4.116388E-17	0.000000E+00
5.799822E+03	4.130956E-17	0.000000E+00
5.809703E+03	4.145592E-17	0.000000E+00
5.819583E+03	4.160322E-17	0.000000E+00
5.829463E+03	4.175143E-17	0.000000E+00
5.839344E+03	4.190004E-17	0.000000E+00
5.849224E+03	4.204931E-17	0.000000E+00
5.859105E+03	4.219879E-17	0.000000E+00
5.868985E+03	4.234884E-17	0.000000E+00
5.878866E+03	4.249891E-17	0.000000E+00
5.888746E+03	4.264979E-17	0.000000E+00
5.898627E+03	4.280016E-17	0.000000E+00
5.908507E+03	4.295124E-17	0.000000E+00
5.918388E+03	4.310211E-17	0.000000E+00
5.928268E+03	4.325267E-17	0.000000E+00
5.938148E+03	4.340382E-17	0.000000E+00
5.948029E+03	4.355412E-17	0.000000E+00
5.957909E+03	4.370493E-17	0.000000E+00
5.967790E+03	4.385527E-17	0.000000E+00
5.977670E+03	4.400560E-17	0.000000E+00
5.987551E+03	4.415539E-17	0.000000E+00
5.997431E+03	4.430558E-17	0.000000E+00
6.007312E+03	4.445473E-17	0.000000E+00
6.017192E+03	4.460376E-17	0.000000E+00
6.027072E+03	4.475267E-17	0.000000E+00
6.036953E+03	4.490092E-17	0.000000E+00
6.046833E+03	4.504900E-17	0.000000E+00
6.056714E+03	4.519688E-17	0.000000E+00
6.066594E+03	4.534360E-17	0.000000E+00
6.076475E+03	4.549058E-17	0.000000E+00
6.086355E+03	4.563636E-17	0.000000E+00
6.096236E+03	4.578186E-17	0.000000E+00
6.106116E+03	4.592704E-17	0.000000E+00
6.115996E+03	4.607094E-17	0.000000E+00
6.125877E+03	4.621450E-17	0.000000E+00
6.135757E+03	4.635719E-17	0.000000E+00
6.145638E+03	4.649897E-17	0.000000E+00
6.155518E+03	4.663926E-17	0.000000E+00
6.165399E+03	4.677909E-17	0.000000E+00
6.175279E+03	4.691784E-17	0.000000E+00
6.185160E+03	4.705498E-17	0.000000E+00
6.195040E+03	4.719093E-17	0.000000E+00
6.204920E+03	4.732564E-17	0.000000E+00
6.214801E+03	4.745857E-17	0.000000E+00
6.224681E+03	4.759009E-17	0.000000E+00
6.234562E+03	4.771967E-17	0.000000E+00
6.244442E+03	4.784720E-17	0.000000E+00
6.254323E+03	4.797258E-17	0.000000E+00
6.264203E+03	4.809626E-17	0.000000E+00
6.274084E+03	4.821763E-17	0.000000E+00
6.283964E+03	4.833607E-17	0.000000E+00
6.293844E+03	4.845253E-17	0.000000E+00
6.303725E+03	4.856592E-17	0.000000E+00
6.313605E+03	4.867659E-17	0.000000E+00
6.323486E+03	4.878453E-17	0.000000E+00
6.333366E+03	4.888907E-17	0.000000E+00
6.343247E+03	4.899069E-17	0.000000E+00
6.353127E+03	4.908928E-17	0.000000E+00
6.363008E+03	4.918422E-17	0.000000E+00
6.372888E+03	4.927550E-17	0.000000E+00
6.382769E+03	4.936353E-17	0.000000E+00
6.392649E+03	4.944777E-17	0.000000E+00
6.402529E+03	4.952865E-17	0.000000E+00
6.412410E+03	4.960562E-17	0.000000E+00
6.422290E+03	4.967867E-17	0.000000E+00
6.432171E+03	4.974829E-17	0.000000E+00
6.442051E+03	4.981396E-17	0.000000E+00
6.451932E+03	4.987619E-17	0.000000E+00
6.461812E+03	4.993390E-17	0.000000E+00
6.471693E+03	4.998828E-17	0.000000E+00
6.481573E+03	5.003926E-17	0.000000E+00
6.491453E+03	5.008644E-17	0.000000E+00
6.501334E+03	5.012983E-17	0.000000E+00
6.511214E+03	5.017011E-17	0.000000E+00
6.521095E+03	5.020731E-17	0.000000E+00
6.530975E+03	5.024104E-17	0.000000E+00
6.540856E+03	5.027192E-17	0.000000E+00
6.550736E+03	5.030015E-17	0.000000E+00
6.560617E+03	5.032525E-17	0.000000E+00
6.570497E+03	5.034852E-17	0.000000E+00
6.580377E+03	5.036900E-17	0.000000E+00
6.590258E+03	5.038747E-17	0.000000E+00
6.600138E+03	5.040462E-17	0.000000E+00
6.610019E+03	5.041957E-17	0.000000E+00
6.619899E+03	5.043366E-17	0.000000E+00
6.629780E+03	5.044650E-17	0.000000E+00
6.639660E+03	5.045891E-17	0.000000E+00
6.649541E+03	5.047055E-17	0.000000E+00
6.659421E+03	5.048222E-17	0.000000E+00
6.669301E+03	5.049361E-17	0.000000E+00
6.679182E+03	5.050552E-17	0.000000E+00
6.689062E+03	5.051821E-17	0.000000E+00
6.698943E+03	5.053193E-17	0.000000E+00
6.708823E+03	5.054635E-17	0.000000E+00
6.718704E+03	5.056290E-17	0.000000E+00
6.728584E+03	5.058181E-17	0.000000E+00
6.738465E+03	5.060219E-17	0.000000E+00
6.748345E+03	5.062548E-17	0.000000E+00
6.758225E+03	5.065130E-17	0.000000E+00
6.768106E+03	5.068050E-17	0.000000E+00
6.777986E+03	5.071275E-17	0.000000E+00
6.787867E+03	5.074891E-17	0.000000E+00
6.797747E+03	5.078918E-17	0.000000E+00
6.807628E+03	5.083378E-17	0.000000E+00
6.817508E+03	5.088298E-17	0.000000E+00
6.827389E+03	5.093697E-17	0.000000E+00
6.837269E+03	5.099659E-17	0.000000E+00
6.847149E+03	5.106087E-17	0.000000E+00
6.857030E+03	5.113121E-17	0.000000E+00
6.866910E+03	5.120778E-17	0.000000E+00
6.876791E+03	5.128960E-17	0.000000E+00
6.886671E+03	5.137868E-17	0.000000E+00
6.896552E+03	5.147399E-17	0.000000E+00
6.906432E+03	5.157632E-17	0.000000E+00
6.916313E+03	5.168585E-17	0.000000E+00
6.926193E+03	5.180274E-17	0.000000E+00
6.936074E+03	5.192719E-17	0.000000E+00
6.945954E+03	5.205994E-17	0.000000E+00
6.955834E+03	5.219996E-17	0.000000E+00
6.965715E+03	5.234862E-17	0.000000E+00
6.975595E+03	5.250543E-17	0.000000E+00
6.985476E+03	5.267061E-17	0.000000E+00
6.995356E+03	5.284487E-17	0.000000E+00
7.005237E+03	5.302840E-17	0.000000E+00
7.015117E+03	5.322067E-17	0.000000E+00
7.024998E+03	5.342250E-17	0.000000E+00
7.034878E+03	5.363405E-17	0.000000E+00
7.044758E+03	5.385541E-17	0.000000E+00
7.054639E+03	5.408613E-17	0.000000E+00
7.064519E+03	5.432761E-17	0.000000E+00
7.074400E+03	5.457871E-17	0.000000E+00
7.084280E+03	5.484095E-17	0.000000E+00
7.094161E+03	5.511372E-17	0.000000E+00
7.104041E+03	5.539791E-17	0.000000E+00
7.113922E+03	5.569228E-17	0.000000E+00
7.123802E+03	5.599836E-17	0.000000E+00
7.133682E+03	5.631560E-17	0.000000E+00
7.143563E+03	5.664492E-17	0.000000E+00
7.153443E+03	5.698570E-17	0.000000E+00
7.163324E+03	5.733883E-17	0.000000E+00
7.173204E+03	5.770379E-17	0.000000E+00
7.183085E+03	5.808146E-17	0.000000E+00
7.192965E+03	5.847199E-17	0.000000E+00
7.202846E+03	5.887556E-17	0.000000E+00
7.212726E+03	5.929161E-17	0.000000E+00
7.222606E+03	5.972103E-17	0.000000E+00
7.232487E+03	6.016326E-17	0.000000E+00
7.242367E+03	6.061998E-17	0.000000E+00
7.252248E+03	6.108985E-17	0.000000E+00
7.262128E+03	6.157453E-17	0.000000E+00
7.272009E+03	6.207269E-17	0.000000E+00
7.281889E+03	6.258523E-17	0.000000E+00
7.291770E+03	6.311229E-17	0.000000E+00
7.301650E+03	6.365409E-17	0.000000E+00
7.311530E+03	6.421070E-17	0.000000E+00
7.321411E+03	6.478229E-17	0.000000E+00
7.331291E+03	6.536816E-17	0.000000E+00
7.341172E+03	6.597005E-17	0.000000E+00
7.351052E+03	6.658638E-17	0.000000E+00
7.360933E+03	6.721808E-17	0.000000E+00
7.370813E+03	6.786433E-17	0.000000E+00
7.380694E+03	6.852606E-17	0.000000E+00
7.390574E+03	6.920333E-17	0.000000E+00
7.400455E+03	6.989514E-17	0.000000E+00
7.410335E+03	7.060244E-17	0.000000E+00
7.420215E+03	7.132424E-17	0.000000E+00
7.430096E+03	7.206046E-17	0.000000E+00
7.439976E+03	7.281188E-17	0.000000E+00
7.449857E+03	7.357747E-17	0.000000E+00
7.459737E+03	7.435598E-17	0.000000E+00
7.469618E+03	7.514919E-17	0.000000E+00
7.479498E+03	7.595586E-17	0.000000E+00
7.489379E+03	7.677464E-17	0.000000E+00
7.499259E+03	7.760620E-17	0.000000E+00
7.509139E+03	7.845016E-17	0.000000E+00
7.519020E+03	7.930503E-17	0.000000E+00
7.528900E+03	8.017136E-17	0.000000E+00
7.538781E+03	8.104867E-17	0.000000E+00
7.548661E+03	8.193421E-17	0.000000E+00
7.558542E+03	8.282948E-17	0.000000E+00
7.568422E+03	8.373276E-17	0.000000E+00
7.578303E+03	8.464327E-17	0.000000E+00
7.588183E+03	8.556145E-17	0.000000E+00
7.598063E+03	8.648413E-17	0.000000E+00
7.607944E+03	8.741042E-17	0.000000E+00
7.617824E+03	8.834183E-17	0.000000E+00
7.627705E+03	8.927497E-17	0.000000E+00
7.637585E+03	9.021011E-17	0.000000E+00
7.647466E+03	9.114499E-17	0.000000E+00
7.657346E+03	9.207853E-17	0.000000E+00
7.667227E+03	9.301093E-17	0.000000E+00
