#wls	flux	fluxerr
1.591280E+03	2.239209E-05	7.756760E-07
1.631062E+03	2.274576E-05	7.848599E-07
1.670844E+03	2.297266E-05	7.895221E-07
1.710626E+03	2.307365E-05	7.897408E-07
1.750408E+03	2.302990E-05	7.849257E-07
1.790190E+03	2.281560E-05	7.742634E-07
1.829972E+03	2.239160E-05	7.565075E-07
1.869754E+03	2.173001E-05	7.308182E-07
1.909536E+03	2.079731E-05	6.961884E-07
1.949318E+03	1.960020E-05	6.529774E-07
1.989100E+03	1.819883E-05	6.033178E-07
2.028882E+03	1.673764E-05	5.520866E-07
2.068664E+03	1.544089E-05	5.066880E-07
2.108446E+03	1.456737E-05	4.754975E-07
2.148228E+03	1.430212E-05	4.643109E-07
2.188010E+03	1.470081E-05	4.746053E-07
2.227792E+03	1.568530E-05	5.035092E-07
2.267574E+03	1.709329E-05	5.455103E-07
2.307356E+03	1.874257E-05	5.945761E-07
2.347138E+03	2.047943E-05	6.457059E-07
2.386920E+03	2.220248E-05	6.956540E-07
2.426702E+03	2.385015E-05	7.424948E-07
2.466484E+03	2.539840E-05	7.855134E-07
2.506266E+03	2.684490E-05	8.246848E-07
2.546048E+03	2.820394E-05	8.604937E-07
2.585830E+03	2.948713E-05	8.933353E-07
2.625612E+03	3.071261E-05	9.237918E-07
2.665394E+03	3.190424E-05	9.526038E-07
2.705176E+03	3.307624E-05	9.802048E-07
2.744958E+03	3.425264E-05	1.007306E-06
2.784740E+03	3.544727E-05	1.034300E-06
2.824522E+03	3.668498E-05	1.061886E-06
2.864304E+03	3.798066E-05	1.090454E-06
2.904086E+03	3.936182E-05	1.120739E-06
2.943868E+03	4.084655E-05	1.153185E-06
2.983650E+03	4.246759E-05	1.188626E-06
2.993595E+03	4.289566E-05	1.197984E-06
3.003541E+03	4.334021E-05	1.207743E-06
3.013486E+03	4.378907E-05	1.217561E-06
3.023432E+03	4.425670E-05	1.227839E-06
3.033377E+03	4.473495E-05	1.238347E-06
3.043323E+03	4.524175E-05	1.249578E-06
3.053268E+03	4.577005E-05	1.261333E-06
3.063214E+03	4.631939E-05	1.273595E-06
3.073159E+03	4.688944E-05	1.286351E-06
3.083105E+03	4.747997E-05	1.299591E-06
3.093050E+03	4.809083E-05	1.313307E-06
3.102996E+03	4.872204E-05	1.327494E-06
3.112941E+03	4.938076E-05	1.342345E-06
3.122887E+03	5.005303E-05	1.357475E-06
3.132832E+03	5.075340E-05	1.373276E-06
3.142778E+03	5.146780E-05	1.389361E-06
3.152723E+03	5.221128E-05	1.406135E-06
3.162669E+03	5.297714E-05	1.423410E-06
3.172614E+03	5.376596E-05	1.441198E-06
3.182560E+03	5.457848E-05	1.459515E-06
3.192505E+03	5.541548E-05	1.478378E-06
3.202451E+03	5.627784E-05	1.497804E-06
3.212396E+03	5.717460E-05	1.518028E-06
3.222342E+03	5.809080E-05	1.538649E-06
3.232287E+03	5.904383E-05	1.560121E-06
3.242233E+03	6.001847E-05	1.582037E-06
3.252178E+03	6.103274E-05	1.604866E-06
3.262124E+03	6.207976E-05	1.628420E-06
3.272069E+03	6.316109E-05	1.652734E-06
3.282015E+03	6.427835E-05	1.677843E-06
3.291960E+03	6.543325E-05	1.703785E-06
3.301906E+03	6.662765E-05	1.730602E-06
3.311851E+03	6.786349E-05	1.758335E-06
3.321797E+03	6.915234E-05	1.787276E-06
3.331742E+03	7.047755E-05	1.816986E-06
3.341688E+03	7.186062E-05	1.848011E-06
3.351633E+03	7.328450E-05	1.879902E-06
3.361579E+03	7.477166E-05	1.913227E-06
3.371524E+03	7.631508E-05	1.947793E-06
3.381470E+03	7.791768E-05	1.983667E-06
3.391415E+03	7.958266E-05	2.020916E-06
3.401361E+03	8.131332E-05	2.059613E-06
3.411306E+03	8.311330E-05	2.099837E-06
3.421252E+03	8.498641E-05	2.141672E-06
3.431197E+03	8.693675E-05	2.185207E-06
3.441143E+03	8.898066E-05	2.230837E-06
3.451088E+03	9.109938E-05	2.278075E-06
3.461034E+03	9.332211E-05	2.327635E-06
3.470979E+03	9.564260E-05	2.379343E-06
3.480925E+03	9.805397E-05	2.433010E-06
3.490870E+03	1.005885E-04	2.489417E-06
3.500816E+03	1.032407E-04	2.548406E-06
3.510761E+03	1.060181E-04	2.610142E-06
3.520707E+03	1.089290E-04	2.674803E-06
3.530652E+03	1.119818E-04	2.742571E-06
3.540598E+03	1.151848E-04	2.813625E-06
3.550543E+03	1.185616E-04	2.888506E-06
3.560489E+03	1.220885E-04	2.966613E-06
3.570434E+03	1.257870E-04	3.048438E-06
3.580380E+03	1.296811E-04	3.134526E-06
3.590325E+03	1.337459E-04	3.224244E-06
3.600271E+03	1.380240E-04	3.318586E-06
3.610216E+03	1.425060E-04	3.417287E-06
3.620162E+03	1.471792E-04	3.520005E-06
3.630107E+03	1.520856E-04	3.627712E-06
3.640053E+03	1.572112E-04	3.740029E-06
3.649998E+03	1.625596E-04	3.857003E-06
3.659944E+03	1.681339E-04	3.978670E-06
3.669889E+03	1.739367E-04	4.105051E-06
3.679835E+03	1.799701E-04	4.236156E-06
3.689780E+03	1.862364E-04	4.371993E-06
3.699726E+03	1.927364E-04	4.512543E-06
3.709671E+03	1.994957E-04	4.658362E-06
3.719617E+03	2.064654E-04	4.808265E-06
3.729562E+03	2.136687E-04	4.962752E-06
3.739507E+03	2.211315E-04	5.122384E-06
3.749453E+03	2.287970E-04	5.285802E-06
3.759398E+03	2.367172E-04	5.454169E-06
3.769344E+03	2.448298E-04	5.626008E-06
3.779289E+03	2.531879E-04	5.802504E-06
3.789235E+03	2.617226E-04	5.982039E-06
3.799180E+03	2.704877E-04	6.165809E-06
3.809126E+03	2.794418E-04	6.352834E-06
3.819071E+03	2.885720E-04	6.542789E-06
3.829017E+03	2.978278E-04	6.734504E-06
3.838962E+03	3.072646E-04	6.929208E-06
3.848908E+03	3.168293E-04	7.125676E-06
3.858853E+03	3.265013E-04	7.323426E-06
3.868799E+03	3.362590E-04	7.521956E-06
3.878744E+03	3.460780E-04	7.720711E-06
3.888690E+03	3.559320E-04	7.919100E-06
3.898635E+03	3.657931E-04	8.116498E-06
3.908581E+03	3.756311E-04	8.312238E-06
3.918526E+03	3.854141E-04	8.505624E-06
3.928472E+03	3.951087E-04	8.695937E-06
3.938417E+03	4.046802E-04	8.882428E-06
3.948363E+03	4.140929E-04	9.064347E-06
3.958308E+03	4.233104E-04	9.240928E-06
3.968254E+03	4.322969E-04	9.411428E-06
3.978199E+03	4.410169E-04	9.575124E-06
3.988145E+03	4.494370E-04	9.731342E-06
3.998090E+03	4.575271E-04	9.879488E-06
4.008036E+03	4.652601E-04	1.001904E-05
4.017981E+03	4.726147E-04	1.014960E-05
4.027927E+03	4.795747E-04	1.027091E-05
4.037872E+03	4.861306E-04	1.038282E-05
4.047818E+03	4.922792E-04	1.048534E-05
4.057763E+03	4.980237E-04	1.057863E-05
4.067709E+03	5.033741E-04	1.066295E-05
4.077654E+03	5.083454E-04	1.073870E-05
4.087600E+03	5.129578E-04	1.080637E-05
4.097545E+03	5.172354E-04	1.086654E-05
4.107491E+03	5.212055E-04	1.091984E-05
4.117436E+03	5.248979E-04	1.096694E-05
4.127382E+03	5.283435E-04	1.100855E-05
4.137327E+03	5.315743E-04	1.104536E-05
4.147273E+03	5.346227E-04	1.107810E-05
4.157218E+03	5.375211E-04	1.110747E-05
4.167164E+03	5.403022E-04	1.113416E-05
4.177109E+03	5.429369E-04	1.115761E-05
4.187055E+03	5.455787E-04	1.118098E-05
4.197000E+03	5.481973E-04	1.120367E-05
4.206946E+03	5.507611E-04	1.122503E-05
4.216891E+03	5.534203E-04	1.124812E-05
4.226837E+03	5.561389E-04	1.127221E-05
4.236782E+03	5.588781E-04	1.129651E-05
4.246728E+03	5.617815E-04	1.132391E-05
4.256673E+03	5.647431E-04	1.135225E-05
4.266619E+03	5.678404E-04	1.138309E-05
4.276564E+03	5.711507E-04	1.141795E-05
4.286510E+03	5.745627E-04	1.145457E-05
4.296455E+03	5.781512E-04	1.149445E-05
4.306401E+03	5.819273E-04	1.153777E-05
4.316346E+03	5.858972E-04	1.158463E-05
4.326292E+03	5.900607E-04	1.163500E-05
4.336237E+03	5.944066E-04	1.168863E-05
4.346183E+03	5.989107E-04	1.174503E-05
4.356128E+03	6.035385E-04	1.180350E-05
4.366074E+03	6.082557E-04	1.186337E-05
4.376019E+03	6.129820E-04	1.192305E-05
4.385965E+03	6.178594E-04	1.198532E-05
4.395910E+03	6.227816E-04	1.204810E-05
4.405856E+03	6.279175E-04	1.211464E-05
4.415801E+03	6.331780E-04	1.218322E-05
4.425747E+03	6.386839E-04	1.225613E-05
4.435692E+03	6.445641E-04	1.233582E-05
4.445638E+03	6.507452E-04	1.242084E-05
4.455583E+03	6.573551E-04	1.251357E-05
4.465529E+03	6.644437E-04	1.261491E-05
4.475474E+03	6.719744E-04	1.272411E-05
4.485420E+03	6.801013E-04	1.284400E-05
4.495365E+03	6.887418E-04	1.297297E-05
4.505311E+03	6.977824E-04	1.310880E-05
4.515256E+03	7.073003E-04	1.325290E-05
4.525202E+03	7.170528E-04	1.340067E-05
4.535147E+03	7.269961E-04	1.355127E-05
4.545093E+03	7.369972E-04	1.370222E-05
4.555038E+03	7.469165E-04	1.385092E-05
4.564984E+03	7.566188E-04	1.399491E-05
4.574929E+03	7.659835E-04	1.413200E-05
4.584875E+03	7.749166E-04	1.426051E-05
4.594820E+03	7.832759E-04	1.437792E-05
4.604766E+03	7.912009E-04	1.448688E-05
4.614711E+03	7.985450E-04	1.458476E-05
4.624657E+03	8.054386E-04	1.467405E-05
4.634602E+03	8.120410E-04	1.475770E-05
4.644548E+03	8.182792E-04	1.483445E-05
4.654493E+03	8.242531E-04	1.490617E-05
4.664439E+03	8.302333E-04	1.497778E-05
4.674384E+03	8.362290E-04	1.504945E-05
4.684330E+03	8.422318E-04	1.512105E-05
4.694275E+03	8.484708E-04	1.519669E-05
4.704221E+03	8.548233E-04	1.527417E-05
4.714166E+03	8.614163E-04	1.535573E-05
4.724112E+03	8.682693E-04	1.544172E-05
4.734057E+03	8.753701E-04	1.553190E-05
4.744003E+03	8.826788E-04	1.562554E-05
4.753948E+03	8.900464E-04	1.572001E-05
4.763894E+03	8.975822E-04	1.581723E-05
4.773839E+03	9.050379E-04	1.591285E-05
4.783785E+03	9.125375E-04	1.600906E-05
4.793730E+03	9.198607E-04	1.610201E-05
4.803676E+03	9.270861E-04	1.619313E-05
4.813621E+03	9.341376E-04	1.628110E-05
4.823567E+03	9.412463E-04	1.636998E-05
4.833512E+03	9.483880E-04	1.645937E-05
4.843458E+03	9.555534E-04	1.654913E-05
4.853403E+03	9.629305E-04	1.664250E-05
4.863349E+03	9.707099E-04	1.674278E-05
4.873294E+03	9.787854E-04	1.684810E-05
4.883240E+03	9.872250E-04	1.695959E-05
4.893185E+03	9.962704E-04	1.708138E-05
4.903131E+03	1.005842E-03	1.721204E-05
4.913076E+03	1.015826E-03	1.734957E-05
4.923022E+03	1.026265E-03	1.749470E-05
4.932967E+03	1.037172E-03	1.764758E-05
4.942913E+03	1.048218E-03	1.780259E-05
4.952858E+03	1.059247E-03	1.795708E-05
4.962804E+03	1.070295E-03	1.811170E-05
4.972749E+03	1.081093E-03	1.826187E-05
4.982695E+03	1.091382E-03	1.840328E-05
4.992640E+03	1.101154E-03	1.853584E-05
5.002586E+03	1.110459E-03	1.866043E-05
5.012531E+03	1.119087E-03	1.877358E-05
5.022477E+03	1.127108E-03	1.887655E-05
5.032422E+03	1.134880E-03	1.897535E-05
5.042368E+03	1.142480E-03	1.907130E-05
5.052313E+03	1.150011E-03	1.916611E-05
5.062259E+03	1.157795E-03	1.926520E-05
5.072204E+03	1.166133E-03	1.937351E-05
5.082150E+03	1.174933E-03	1.948952E-05
5.092095E+03	1.184264E-03	1.961428E-05
5.102041E+03	1.194347E-03	1.975145E-05
5.111986E+03	1.204997E-03	1.989795E-05
5.121932E+03	1.215973E-03	2.004972E-05
5.131877E+03	1.227232E-03	2.020607E-05
5.141823E+03	1.238604E-03	2.036418E-05
5.151768E+03	1.249929E-03	2.052144E-05
5.161714E+03	1.261075E-03	2.067568E-05
5.171659E+03	1.271946E-03	2.082538E-05
5.181605E+03	1.282367E-03	2.096767E-05
5.191550E+03	1.292571E-03	2.110641E-05
5.201496E+03	1.302336E-03	2.123802E-05
5.211441E+03	1.311834E-03	2.136532E-05
5.221387E+03	1.321128E-03	2.148937E-05
5.231332E+03	1.330280E-03	2.161119E-05
5.241278E+03	1.339339E-03	2.173162E-05
5.251223E+03	1.348202E-03	2.184897E-05
5.261169E+03	1.357117E-03	2.196732E-05
5.271114E+03	1.365787E-03	2.208183E-05
5.281060E+03	1.374263E-03	2.219340E-05
5.291005E+03	1.382445E-03	2.230039E-05
5.300951E+03	1.390206E-03	2.240082E-05
5.310896E+03	1.397276E-03	2.249036E-05
5.320842E+03	1.403777E-03	2.257100E-05
5.330787E+03	1.409303E-03	2.263631E-05
5.340733E+03	1.413999E-03	2.268865E-05
5.350678E+03	1.417509E-03	2.272236E-05
5.360624E+03	1.419925E-03	2.273899E-05
5.370569E+03	1.421269E-03	2.273895E-05
5.380515E+03	1.421643E-03	2.272392E-05
5.390460E+03	1.421099E-03	2.269476E-05
5.400406E+03	1.420170E-03	2.266005E-05
5.410351E+03	1.418924E-03	2.262086E-05
5.420297E+03	1.417872E-03	2.258534E-05
5.430242E+03	1.417401E-03	2.255964E-05
5.440188E+03	1.417868E-03	2.254942E-05
5.450133E+03	1.419550E-03	2.255905E-05
5.460079E+03	1.422591E-03	2.259077E-05
5.470024E+03	1.426816E-03	2.264177E-05
5.479970E+03	1.432249E-03	2.271239E-05
5.489915E+03	1.438204E-03	2.279173E-05
5.499861E+03	1.444289E-03	2.287358E-05
5.509806E+03	1.449929E-03	2.294883E-05
5.519752E+03	1.454560E-03	2.300859E-05
5.529697E+03	1.457682E-03	2.304502E-05
5.539643E+03	1.458904E-03	2.305194E-05
5.549588E+03	1.457964E-03	2.302533E-05
5.559534E+03	1.454615E-03	2.296129E-05
5.569479E+03	1.449022E-03	2.286251E-05
5.579425E+03	1.441468E-03	2.273349E-05
5.589370E+03	1.431919E-03	2.257376E-05
5.599316E+03	1.420810E-03	2.239017E-05
5.609261E+03	1.408464E-03	2.218788E-05
5.619207E+03	1.395086E-03	2.197008E-05
5.629152E+03	1.381267E-03	2.174610E-05
5.639098E+03	1.367194E-03	2.151889E-05
5.649043E+03	1.353054E-03	2.129139E-05
5.658989E+03	1.339285E-03	2.107047E-05
5.668934E+03	1.326196E-03	2.086097E-05
5.678880E+03	1.314214E-03	2.066962E-05
5.688825E+03	1.303393E-03	2.049723E-05
5.698771E+03	1.294020E-03	2.034832E-05
5.708716E+03	1.286592E-03	2.023069E-05
5.718662E+03	1.281200E-03	2.014578E-05
5.728607E+03	1.277883E-03	2.009418E-05
5.738553E+03	1.276972E-03	2.008114E-05
5.748498E+03	1.278255E-03	2.010332E-05
5.758444E+03	1.281922E-03	2.016376E-05
5.768389E+03	1.287620E-03	2.025692E-05
5.778335E+03	1.295287E-03	2.038188E-05
5.788280E+03	1.304684E-03	2.053494E-05
5.798226E+03	1.315523E-03	2.071159E-05
5.808171E+03	1.327347E-03	2.090472E-05
5.818117E+03	1.340043E-03	2.111259E-05
5.828062E+03	1.353111E-03	2.132739E-05
5.838008E+03	1.366047E-03	2.154121E-05
5.847953E+03	1.378614E-03	2.175037E-05
5.857899E+03	1.390610E-03	2.195170E-05
5.867844E+03	1.401485E-03	2.213657E-05
5.877790E+03	1.411128E-03	2.230322E-05
5.887735E+03	1.419349E-03	2.244867E-05
5.897681E+03	1.426012E-03	2.257075E-05
5.907626E+03	1.431036E-03	2.266815E-05
5.917572E+03	1.434386E-03	2.274030E-05
5.927517E+03	1.435949E-03	2.278537E-05
5.937463E+03	1.436064E-03	2.280870E-05
5.947408E+03	1.434725E-03	2.281014E-05
5.957354E+03	1.431977E-03	2.279037E-05
5.967299E+03	1.428183E-03	2.275512E-05
5.977245E+03	1.423745E-03	2.271076E-05
5.987190E+03	1.418690E-03	2.265769E-05
5.997136E+03	1.413460E-03	2.260297E-05
6.007081E+03	1.408364E-03	2.255151E-05
6.017027E+03	1.403697E-03	2.250811E-05
6.026972E+03	1.399745E-03	2.247735E-05
6.036918E+03	1.396775E-03	2.246362E-05
6.046863E+03	1.395045E-03	2.247116E-05
6.056809E+03	1.394679E-03	2.250208E-05
6.066754E+03	1.396197E-03	2.256489E-05
6.076700E+03	1.399609E-03	2.265997E-05
6.086645E+03	1.405470E-03	2.279651E-05
6.096591E+03	1.413836E-03	2.297567E-05
6.106536E+03	1.425307E-03	2.320750E-05
6.116482E+03	1.439963E-03	2.349370E-05
6.126427E+03	1.458270E-03	2.384223E-05
6.136373E+03	1.480525E-03	2.425845E-05
6.146318E+03	1.506972E-03	2.474688E-05
6.156264E+03	1.537799E-03	2.531120E-05
6.166209E+03	1.573147E-03	2.595435E-05
6.176155E+03	1.613067E-03	2.667790E-05
6.186100E+03	1.657429E-03	2.748036E-05
6.196046E+03	1.705812E-03	2.835546E-05
6.205991E+03	1.757447E-03	2.929106E-05
6.215937E+03	1.811038E-03	3.026605E-05
6.225882E+03	1.865465E-03	3.126211E-05
6.235828E+03	1.918683E-03	3.224512E-05
6.245773E+03	1.969209E-03	3.319007E-05
6.255719E+03	2.014838E-03	3.405941E-05
6.265664E+03	2.054240E-03	3.483000E-05
6.275610E+03	2.085599E-03	3.547006E-05
6.285555E+03	2.108042E-03	3.596350E-05
6.295501E+03	2.121146E-03	3.630171E-05
6.305446E+03	2.124359E-03	3.647369E-05
6.315392E+03	2.118179E-03	3.648633E-05
6.325337E+03	2.103313E-03	3.635021E-05
6.335283E+03	2.080795E-03	3.608171E-05
6.345228E+03	2.051900E-03	3.570155E-05
6.355174E+03	2.018030E-03	3.523296E-05
6.365119E+03	1.980621E-03	3.470009E-05
6.375065E+03	1.941050E-03	3.412633E-05
6.385010E+03	1.900556E-03	3.353304E-05
6.394956E+03	1.860021E-03	3.293549E-05
6.404901E+03	1.820638E-03	3.235477E-05
6.414847E+03	1.782847E-03	3.179879E-05
6.424792E+03	1.746890E-03	3.127207E-05
6.434738E+03	1.713317E-03	3.078474E-05
6.444683E+03	1.681861E-03	3.033235E-05
6.454629E+03	1.652776E-03	2.991983E-05
6.464574E+03	1.625593E-03	2.953902E-05
6.474520E+03	1.600404E-03	2.919195E-05
6.484465E+03	1.576659E-03	2.886884E-05
6.494411E+03	1.554398E-03	2.857066E-05
6.504356E+03	1.533070E-03	2.828749E-05
6.514302E+03	1.512582E-03	2.801776E-05
6.524247E+03	1.492717E-03	2.775754E-05
6.534193E+03	1.473430E-03	2.750603E-05
6.544138E+03	1.454288E-03	2.725523E-05
6.554084E+03	1.435326E-03	2.700575E-05
6.564029E+03	1.416478E-03	2.675631E-05
6.573975E+03	1.397716E-03	2.650640E-05
6.583920E+03	1.379048E-03	2.625612E-05
6.593866E+03	1.360510E-03	2.600612E-05
6.603811E+03	1.342153E-03	2.575736E-05
6.613757E+03	1.324038E-03	2.551103E-05
6.623702E+03	1.306228E-03	2.526834E-05
6.633648E+03	1.288663E-03	2.502818E-05
6.643593E+03	1.271649E-03	2.479649E-05
6.653539E+03	1.255115E-03	2.457202E-05
6.663484E+03	1.239114E-03	2.435586E-05
6.673430E+03	1.223577E-03	2.414674E-05
6.683375E+03	1.208782E-03	2.395026E-05
6.693321E+03	1.194654E-03	2.376505E-05
6.703266E+03	1.181115E-03	2.358971E-05
6.713212E+03	1.168426E-03	2.342956E-05
6.723157E+03	1.156502E-03	2.328308E-05
6.733103E+03	1.145259E-03	2.314874E-05
6.743048E+03	1.134831E-03	2.302937E-05
6.752994E+03	1.125343E-03	2.292772E-05
6.762939E+03	1.116595E-03	2.283992E-05
6.772885E+03	1.108813E-03	2.277073E-05
6.782830E+03	1.101792E-03	2.271617E-05
6.792776E+03	1.095639E-03	2.267861E-05
6.802721E+03	1.090455E-03	2.266036E-05
6.812667E+03	1.086020E-03	2.265704E-05
6.822612E+03	1.082421E-03	2.267065E-05
6.832558E+03	1.079637E-03	2.270092E-05
6.842503E+03	1.077740E-03	2.274958E-05
6.852449E+03	1.076490E-03	2.281176E-05
6.862394E+03	1.075952E-03	2.288898E-05
6.872340E+03	1.076087E-03	2.298055E-05
6.882285E+03	1.076851E-03	2.308571E-05
6.892231E+03	1.078200E-03	2.320365E-05
6.902176E+03	1.080088E-03	2.333351E-05
6.912122E+03	1.082470E-03	2.347443E-05
6.922067E+03	1.085299E-03	2.362553E-05
6.932013E+03	1.088532E-03	2.378592E-05
6.941958E+03	1.092019E-03	2.395247E-05
6.951904E+03	1.095934E-03	2.412898E-05
6.961849E+03	1.100137E-03	2.431254E-05
6.971795E+03	1.104605E-03	2.450265E-05
6.981740E+03	1.109321E-03	2.469899E-05
6.991686E+03	1.114170E-03	2.489906E-05
7.001631E+03	1.119368E-03	2.510773E-05
7.011577E+03	1.124820E-03	2.532292E-05
7.021522E+03	1.130436E-03	2.554264E-05
7.031468E+03	1.136459E-03	2.577247E-05
7.041413E+03	1.142703E-03	2.600826E-05
7.051359E+03	1.149426E-03	2.625595E-05
7.061304E+03	1.156448E-03	2.651150E-05
7.071250E+03	1.164037E-03	2.678114E-05
7.081195E+03	1.172009E-03	2.706080E-05
7.091141E+03	1.180522E-03	2.735416E-05
7.101086E+03	1.189727E-03	2.766491E-05
7.111032E+03	1.199428E-03	2.798859E-05
7.120977E+03	1.209762E-03	2.832857E-05
7.130923E+03	1.220743E-03	2.868527E-05
7.140868E+03	1.232368E-03	2.905882E-05
7.150814E+03	1.244742E-03	2.945180E-05
7.160759E+03	1.257587E-03	2.985782E-05
7.170705E+03	1.270966E-03	3.027846E-05
7.180650E+03	1.284800E-03	3.071196E-05
7.190596E+03	1.298988E-03	3.115600E-05
7.200541E+03	1.313406E-03	3.160768E-05
7.210487E+03	1.327909E-03	3.206351E-05
7.220432E+03	1.342201E-03	3.251635E-05
7.230378E+03	1.356364E-03	3.296810E-05
7.240323E+03	1.370075E-03	3.341088E-05
7.250269E+03	1.383136E-03	3.383972E-05
7.260214E+03	1.395216E-03	3.424627E-05
7.270160E+03	1.406395E-03	3.463234E-05
7.280105E+03	1.416365E-03	3.499003E-05
7.290051E+03	1.424830E-03	3.531173E-05
7.299996E+03	1.431938E-03	3.560076E-05
7.309942E+03	1.437306E-03	3.584721E-05
7.319887E+03	1.441141E-03	3.605589E-05
7.329833E+03	1.443119E-03	3.621823E-05
7.339778E+03	1.443363E-03	3.633697E-05
7.349724E+03	1.442031E-03	3.641559E-05
7.359669E+03	1.438871E-03	3.644743E-05
7.369615E+03	1.434080E-03	3.643703E-05
7.379560E+03	1.427731E-03	3.638584E-05
7.389506E+03	1.419902E-03	3.629556E-05
7.399451E+03	1.410685E-03	3.616814E-05
7.409397E+03	1.400175E-03	3.600573E-05
7.419342E+03	1.388469E-03	3.581057E-05
7.429288E+03	1.375669E-03	3.558498E-05
7.439233E+03	1.361873E-03	3.533130E-05
7.449179E+03	1.347181E-03	3.505190E-05
7.459124E+03	1.331688E-03	3.474905E-05
7.469069E+03	1.315356E-03	3.442160E-05
7.479015E+03	1.298534E-03	3.407852E-05
7.488960E+03	1.281171E-03	3.371836E-05
7.498906E+03	1.263215E-03	3.333967E-05
7.508851E+03	1.244992E-03	3.295090E-05
7.518797E+03	1.226315E-03	3.254709E-05
7.528742E+03	1.207372E-03	3.213314E-05
7.538688E+03	1.188338E-03	3.171368E-05
7.548633E+03	1.169028E-03	3.128373E-05
7.558579E+03	1.149611E-03	3.084779E-05
7.568524E+03	1.130133E-03	3.040707E-05
7.578470E+03	1.110635E-03	2.996273E-05
7.588415E+03	1.091267E-03	2.951878E-05
7.598361E+03	1.071843E-03	2.907025E-05
7.608306E+03	1.052402E-03	2.861818E-05
7.618252E+03	1.033188E-03	2.816925E-05
7.628197E+03	1.014119E-03	2.772130E-05
7.638143E+03	9.952233E-04	2.727508E-05
7.648088E+03	9.765208E-04	2.683126E-05
7.658034E+03	9.579365E-04	2.638780E-05
7.667979E+03	9.396830E-04	2.595062E-05
7.677925E+03	9.215859E-04	2.551496E-05
7.687870E+03	9.038470E-04	2.508647E-05
7.697816E+03	8.862943E-04	2.466047E-05
7.707761E+03	8.691204E-04	2.424237E-05
7.717707E+03	8.521564E-04	2.382754E-05
