#wls	flux	fluxerr
1.591280E+03	2.095772E-05	7.416372E-07
1.631062E+03	2.128733E-05	7.503907E-07
1.670844E+03	2.149870E-05	7.548361E-07
1.710626E+03	2.158519E-05	7.547877E-07
1.750408E+03	2.154426E-05	7.502093E-07
1.790190E+03	2.134062E-05	7.399327E-07
1.829972E+03	2.094149E-05	7.229002E-07
1.869754E+03	2.032090E-05	6.983124E-07
1.909536E+03	1.944751E-05	6.652063E-07
1.949318E+03	1.832448E-05	6.238173E-07
1.989100E+03	1.701449E-05	5.764022E-07
2.028882E+03	1.564648E-05	5.274122E-07
2.068664E+03	1.443554E-05	4.841041E-07
2.108446E+03	1.361840E-05	4.543053E-07
2.148228E+03	1.336832E-05	4.435653E-07
2.188010E+03	1.374180E-05	4.534462E-07
2.227792E+03	1.466126E-05	4.810559E-07
2.267574E+03	1.598000E-05	5.212945E-07
2.307356E+03	1.752290E-05	5.682421E-07
2.347138E+03	1.914903E-05	6.172104E-07
2.386920E+03	2.076058E-05	6.650008E-07
2.426702E+03	2.230321E-05	7.098759E-07
2.466484E+03	2.375867E-05	7.512850E-07
2.506266E+03	2.511754E-05	7.889725E-07
2.546048E+03	2.639291E-05	8.233944E-07
2.585830E+03	2.760418E-05	8.551934E-07
2.625612E+03	2.875988E-05	8.846625E-07
2.665394E+03	2.988691E-05	9.126505E-07
2.705176E+03	3.099380E-05	9.394257E-07
2.744958E+03	3.210794E-05	9.658176E-07
2.784740E+03	3.324238E-05	9.922029E-07
2.824522E+03	3.441527E-05	1.019097E-06
2.864304E+03	3.565108E-05	1.047185E-06
2.904086E+03	3.695924E-05	1.076691E-06
2.943868E+03	3.837302E-05	1.108515E-06
2.983650E+03	3.991158E-05	1.143125E-06
2.993595E+03	4.031947E-05	1.152308E-06
3.003541E+03	4.073698E-05	1.161709E-06
3.013486E+03	4.116459E-05	1.171340E-06
3.023432E+03	4.160387E-05	1.181243E-06
3.033377E+03	4.205924E-05	1.191541E-06
3.043323E+03	4.254172E-05	1.202544E-06
3.053268E+03	4.303807E-05	1.213870E-06
3.063214E+03	4.355413E-05	1.225684E-06
3.073159E+03	4.409616E-05	1.238156E-06
3.083105E+03	4.465749E-05	1.251096E-06
3.093050E+03	4.523126E-05	1.264306E-06
3.102996E+03	4.583081E-05	1.278157E-06
3.112941E+03	4.644956E-05	1.292461E-06
3.122887E+03	4.708763E-05	1.307218E-06
3.132832E+03	4.774526E-05	1.322429E-06
3.142778E+03	4.842277E-05	1.338101E-06
3.152723E+03	4.912054E-05	1.354240E-06
3.162669E+03	4.983905E-05	1.370856E-06
3.172614E+03	5.057886E-05	1.387958E-06
3.182560E+03	5.134060E-05	1.405562E-06
3.192505E+03	5.213262E-05	1.423889E-06
3.202451E+03	5.294057E-05	1.442545E-06
3.212396E+03	5.378068E-05	1.461966E-06
3.222342E+03	5.463837E-05	1.481750E-06
3.232287E+03	5.553043E-05	1.502350E-06
3.242233E+03	5.645019E-05	1.523578E-06
3.252178E+03	5.739059E-05	1.545238E-06
3.262124E+03	5.836939E-05	1.567804E-06
3.272069E+03	5.937985E-05	1.591088E-06
3.282015E+03	6.042346E-05	1.615123E-06
3.291960E+03	6.150186E-05	1.639947E-06
3.301906E+03	6.261675E-05	1.665598E-06
3.311851E+03	6.377907E-05	1.692359E-06
3.321797E+03	6.497274E-05	1.719796E-06
3.331742E+03	6.620878E-05	1.748194E-06
3.341688E+03	6.749904E-05	1.777857E-06
3.351633E+03	6.882685E-05	1.808335E-06
3.361579E+03	7.021413E-05	1.840198E-06
3.371524E+03	7.164389E-05	1.872988E-06
3.381470E+03	7.313908E-05	1.907297E-06
3.391415E+03	7.468242E-05	1.942661E-06
3.401361E+03	7.629803E-05	1.979699E-06
3.411306E+03	7.797920E-05	2.018223E-06
3.421252E+03	7.972978E-05	2.058319E-06
3.431197E+03	8.155388E-05	2.100080E-06
3.441143E+03	8.345595E-05	2.143606E-06
3.451088E+03	8.544073E-05	2.189004E-06
3.461034E+03	8.751330E-05	2.236389E-06
3.470979E+03	8.967905E-05	2.285881E-06
3.480925E+03	9.194372E-05	2.337608E-06
3.490870E+03	9.432629E-05	2.392034E-06
3.500816E+03	9.680732E-05	2.448643E-06
3.510761E+03	9.940578E-05	2.507897E-06
3.520707E+03	1.021420E-04	2.570284E-06
3.530652E+03	1.049942E-04	2.635233E-06
3.540598E+03	1.079961E-04	2.703568E-06
3.550543E+03	1.111384E-04	2.775023E-06
3.560489E+03	1.144089E-04	2.849276E-06
3.570434E+03	1.178419E-04	2.927149E-06
3.580380E+03	1.214271E-04	3.008362E-06
3.590325E+03	1.251552E-04	3.092653E-06
3.600271E+03	1.290681E-04	3.181031E-06
3.610216E+03	1.331579E-04	3.273268E-06
3.620162E+03	1.374320E-04	3.369513E-06
3.630107E+03	1.418968E-04	3.469892E-06
3.640053E+03	1.465579E-04	3.574501E-06
3.649998E+03	1.514196E-04	3.683417E-06
3.659944E+03	1.564858E-04	3.796694E-06
3.669889E+03	1.617594E-04	3.914368E-06
3.679835E+03	1.672649E-04	4.036993E-06
3.689780E+03	1.729602E-04	4.163511E-06
3.699726E+03	1.788675E-04	4.294424E-06
3.709671E+03	1.849873E-04	4.429706E-06
3.719617E+03	1.913441E-04	4.569903E-06
3.729562E+03	1.978868E-04	4.713754E-06
3.739507E+03	2.046379E-04	4.861760E-06
3.749453E+03	2.116214E-04	5.014458E-06
3.759398E+03	2.187790E-04	5.170424E-06
3.769344E+03	2.261612E-04	5.330822E-06
3.779289E+03	2.337036E-04	5.494095E-06
3.789235E+03	2.414583E-04	5.661438E-06
3.799180E+03	2.493543E-04	5.831156E-06
3.809126E+03	2.574448E-04	6.004464E-06
3.819071E+03	2.656520E-04	6.179520E-06
3.829017E+03	2.740300E-04	6.357559E-06
3.838962E+03	2.824938E-04	6.536585E-06
3.848908E+03	2.910982E-04	6.717852E-06
3.858853E+03	2.997897E-04	6.900104E-06
3.868799E+03	3.085087E-04	7.081960E-06
3.878744E+03	3.173116E-04	7.264708E-06
3.888690E+03	3.261366E-04	7.446926E-06
3.898635E+03	3.349171E-04	7.627095E-06
3.908581E+03	3.437114E-04	7.806552E-06
3.918526E+03	3.524515E-04	7.983755E-06
3.928472E+03	3.610644E-04	8.157066E-06
3.938417E+03	3.696125E-04	8.327921E-06
3.948363E+03	3.780232E-04	8.494699E-06
3.958308E+03	3.862689E-04	8.656814E-06
3.968254E+03	3.942738E-04	8.812601E-06
3.978199E+03	4.021104E-04	8.963721E-06
3.988145E+03	4.097062E-04	9.108600E-06
3.998090E+03	4.170407E-04	9.246826E-06
4.008036E+03	4.240428E-04	9.376879E-06
4.017981E+03	4.308026E-04	9.500804E-06
4.027927E+03	4.372569E-04	9.617259E-06
4.037872E+03	4.433445E-04	9.724961E-06
4.047818E+03	4.491714E-04	9.826294E-06
4.057763E+03	4.546856E-04	9.920171E-06
4.067709E+03	4.598362E-04	1.000555E-05
4.077654E+03	4.647459E-04	1.008515E-05
4.087600E+03	4.693723E-04	1.015810E-05
4.097545E+03	4.736745E-04	1.022358E-05
4.107491E+03	4.777877E-04	1.028455E-05
4.117436E+03	4.816187E-04	1.033904E-05
4.127382E+03	4.853084E-04	1.039014E-05
4.137327E+03	4.887655E-04	1.043590E-05
4.147273E+03	4.921355E-04	1.047948E-05
4.157218E+03	4.953274E-04	1.051897E-05
4.167164E+03	4.984890E-04	1.055752E-05
4.177109E+03	5.015290E-04	1.059321E-05
4.187055E+03	5.045959E-04	1.062920E-05
4.197000E+03	5.075964E-04	1.066352E-05
4.206946E+03	5.106177E-04	1.069802E-05
4.216891E+03	5.136854E-04	1.073324E-05
4.226837E+03	5.168852E-04	1.077094E-05
4.236782E+03	5.201163E-04	1.080903E-05
4.246728E+03	5.234603E-04	1.084918E-05
4.256673E+03	5.269347E-04	1.089176E-05
4.266619E+03	5.305543E-04	1.093703E-05
4.276564E+03	5.343301E-04	1.098522E-05
4.286510E+03	5.382695E-04	1.103644E-05
4.296455E+03	5.423739E-04	1.109072E-05
4.306401E+03	5.466387E-04	1.114793E-05
4.316346E+03	5.510514E-04	1.120779E-05
4.326292E+03	5.555902E-04	1.126985E-05
4.336237E+03	5.601584E-04	1.133214E-05
4.346183E+03	5.648458E-04	1.139647E-05
4.356128E+03	5.695442E-04	1.146064E-05
4.366074E+03	5.741557E-04	1.152271E-05
4.376019E+03	5.788134E-04	1.158535E-05
4.385965E+03	5.834155E-04	1.164653E-05
4.395910E+03	5.880781E-04	1.170859E-05
4.405856E+03	5.929212E-04	1.177389E-05
4.415801E+03	5.978570E-04	1.184069E-05
4.425747E+03	6.029972E-04	1.191118E-05
4.435692E+03	6.083798E-04	1.198609E-05
4.445638E+03	6.140362E-04	1.206601E-05
4.455583E+03	6.199903E-04	1.215136E-05
4.465529E+03	6.262579E-04	1.224243E-05
4.475474E+03	6.328449E-04	1.233928E-05
4.485420E+03	6.397469E-04	1.244179E-05
4.495365E+03	6.468744E-04	1.254819E-05
4.505311E+03	6.543475E-04	1.266077E-05
4.515256E+03	6.620562E-04	1.277737E-05
4.525202E+03	6.698786E-04	1.289561E-05
4.535147E+03	6.778364E-04	1.301592E-05
4.545093E+03	6.859510E-04	1.313868E-05
4.555038E+03	6.940112E-04	1.325986E-05
4.564984E+03	7.020397E-04	1.337990E-05
4.574929E+03	7.099896E-04	1.349792E-05
4.584875E+03	7.178225E-04	1.361324E-05
4.594820E+03	7.255124E-04	1.372537E-05
4.604766E+03	7.330453E-04	1.383408E-05
4.614711E+03	7.404196E-04	1.393939E-05
4.624657E+03	7.475603E-04	1.403992E-05
4.634602E+03	7.546503E-04	1.413913E-05
4.644548E+03	7.615415E-04	1.423428E-05
4.654493E+03	7.684216E-04	1.432891E-05
4.664439E+03	7.751322E-04	1.442009E-05
4.674384E+03	7.817596E-04	1.450945E-05
4.684330E+03	7.882947E-04	1.459684E-05
4.694275E+03	7.947297E-04	1.468216E-05
4.704221E+03	8.010772E-04	1.476565E-05
4.714166E+03	8.073795E-04	1.484812E-05
4.724112E+03	8.136003E-04	1.492893E-05
4.734057E+03	8.199635E-04	1.501219E-05
4.744003E+03	8.264106E-04	1.509684E-05
4.753948E+03	8.328654E-04	1.518149E-05
4.763894E+03	8.394226E-04	1.526788E-05
4.773839E+03	8.460799E-04	1.535597E-05
4.783785E+03	8.529259E-04	1.544737E-05
4.793730E+03	8.597713E-04	1.553865E-05
4.803676E+03	8.666145E-04	1.562981E-05
4.813621E+03	8.736512E-04	1.572437E-05
4.823567E+03	8.807998E-04	1.582088E-05
4.833512E+03	8.880791E-04	1.591967E-05
4.843458E+03	8.954154E-04	1.601944E-05
4.853403E+03	9.029301E-04	1.612236E-05
4.863349E+03	9.107462E-04	1.623061E-05
4.873294E+03	9.186886E-04	1.634107E-05
4.883240E+03	9.268702E-04	1.645573E-05
4.893185E+03	9.352965E-04	1.657466E-05
4.903131E+03	9.439623E-04	1.669776E-05
4.913076E+03	9.528503E-04	1.682471E-05
4.923022E+03	9.618272E-04	1.695313E-05
4.932967E+03	9.710579E-04	1.708594E-05
4.942913E+03	9.802839E-04	1.721857E-05
4.952858E+03	9.895525E-04	1.735186E-05
4.962804E+03	9.989134E-04	1.748668E-05
4.972749E+03	1.008099E-03	1.761835E-05
4.982695E+03	1.017170E-03	1.774797E-05
4.992640E+03	1.026097E-03	1.787501E-05
5.002586E+03	1.034752E-03	1.799730E-05
5.012531E+03	1.043363E-03	1.811879E-05
5.022477E+03	1.051843E-03	1.823802E-05
5.032422E+03	1.060122E-03	1.835375E-05
5.042368E+03	1.068363E-03	1.846886E-05
5.052313E+03	1.076744E-03	1.858639E-05
5.062259E+03	1.085096E-03	1.870345E-05
5.072204E+03	1.093586E-03	1.882294E-05
5.082150E+03	1.102258E-03	1.894556E-05
5.092095E+03	1.111134E-03	1.907172E-05
5.102041E+03	1.120101E-03	1.919947E-05
5.111986E+03	1.129381E-03	1.933259E-05
5.121932E+03	1.138704E-03	1.946647E-05
5.131877E+03	1.148263E-03	1.960441E-05
5.141823E+03	1.157765E-03	1.974138E-05
5.151768E+03	1.167271E-03	1.987847E-05
5.161714E+03	1.176727E-03	2.001474E-05
5.171659E+03	1.186082E-03	2.014936E-05
5.181605E+03	1.195296E-03	2.028164E-05
5.191550E+03	1.204210E-03	2.040890E-05
5.201496E+03	1.213052E-03	2.053506E-05
5.211441E+03	1.221682E-03	2.065774E-05
5.221387E+03	1.229959E-03	2.077457E-05
5.231332E+03	1.238000E-03	2.088759E-05
5.241278E+03	1.245794E-03	2.099660E-05
5.251223E+03	1.253323E-03	2.110136E-05
5.261169E+03	1.260565E-03	2.120147E-05
5.271114E+03	1.267488E-03	2.129646E-05
5.281060E+03	1.274054E-03	2.138569E-05
5.291005E+03	1.280218E-03	2.146845E-05
5.300951E+03	1.285797E-03	2.154171E-05
5.310896E+03	1.291013E-03	2.160919E-05
5.320842E+03	1.295553E-03	2.166572E-05
5.330787E+03	1.299519E-03	2.171303E-05
5.340733E+03	1.302894E-03	2.175084E-05
5.350678E+03	1.305678E-03	2.177923E-05
5.360624E+03	1.307896E-03	2.179862E-05
5.370569E+03	1.309600E-03	2.180992E-05
5.380515E+03	1.310866E-03	2.181442E-05
5.390460E+03	1.311660E-03	2.181156E-05
5.400406E+03	1.312377E-03	2.180792E-05
5.410351E+03	1.312877E-03	2.180119E-05
5.420297E+03	1.313434E-03	2.179590E-05
5.430242E+03	1.314176E-03	2.179419E-05
5.440188E+03	1.315349E-03	2.180014E-05
5.450133E+03	1.316757E-03	2.181048E-05
5.460079E+03	1.318430E-03	2.182569E-05
5.470024E+03	1.320602E-03	2.184966E-05
5.479970E+03	1.323022E-03	2.187821E-05
5.489915E+03	1.325517E-03	2.190849E-05
5.499861E+03	1.327741E-03	2.193478E-05
5.509806E+03	1.329609E-03	2.195570E-05
5.519752E+03	1.331041E-03	2.196994E-05
5.529697E+03	1.331561E-03	2.196964E-05
5.539643E+03	1.331138E-03	2.195435E-05
5.549588E+03	1.329650E-03	2.192203E-05
5.559534E+03	1.327021E-03	2.187151E-05
5.569479E+03	1.323234E-03	2.180249E-05
5.579425E+03	1.318322E-03	2.171553E-05
5.589370E+03	1.312231E-03	2.160977E-05
5.599316E+03	1.305357E-03	2.149174E-05
5.609261E+03	1.297586E-03	2.135959E-05
5.619207E+03	1.289370E-03	2.122072E-05
5.629152E+03	1.280641E-03	2.107406E-05
5.639098E+03	1.271743E-03	2.092524E-05
5.649043E+03	1.263021E-03	2.077996E-05
5.658989E+03	1.254429E-03	2.063743E-05
5.668934E+03	1.246306E-03	2.050323E-05
5.678880E+03	1.238721E-03	2.037852E-05
5.688825E+03	1.232116E-03	2.027053E-05
5.698771E+03	1.226524E-03	2.017984E-05
5.708716E+03	1.222087E-03	2.010877E-05
5.718662E+03	1.218789E-03	2.005709E-05
5.728607E+03	1.216962E-03	2.003025E-05
5.738553E+03	1.216399E-03	2.002489E-05
5.748498E+03	1.217232E-03	2.004318E-05
5.758444E+03	1.219555E-03	2.008673E-05
5.768389E+03	1.223049E-03	2.015031E-05
5.778335E+03	1.227737E-03	2.023432E-05
5.788280E+03	1.233480E-03	2.033654E-05
5.798226E+03	1.240114E-03	2.045429E-05
5.808171E+03	1.247452E-03	2.058452E-05
5.818117E+03	1.255158E-03	2.072175E-05
5.828062E+03	1.263274E-03	2.086672E-05
5.838008E+03	1.271455E-03	2.101375E-05
5.847953E+03	1.279356E-03	2.115717E-05
5.857899E+03	1.287038E-03	2.129803E-05
5.867844E+03	1.294054E-03	2.142895E-05
5.877790E+03	1.300378E-03	2.154952E-05
5.887735E+03	1.306017E-03	2.165984E-05
5.897681E+03	1.310607E-03	2.175388E-05
5.907626E+03	1.314221E-03	2.183286E-05
5.917572E+03	1.316838E-03	2.189639E-05
5.927517E+03	1.318471E-03	2.194470E-05
5.937463E+03	1.319174E-03	2.197862E-05
5.947408E+03	1.319033E-03	2.199961E-05
5.957354E+03	1.318169E-03	2.200964E-05
5.967299E+03	1.316597E-03	2.200893E-05
5.977245E+03	1.314763E-03	2.200494E-05
5.987190E+03	1.312726E-03	2.199865E-05
5.997136E+03	1.310565E-03	2.199137E-05
6.007081E+03	1.308769E-03	2.199137E-05
6.017027E+03	1.307300E-03	2.199801E-05
6.026972E+03	1.306660E-03	2.201981E-05
6.036918E+03	1.306816E-03	2.205629E-05
6.046863E+03	1.308137E-03	2.211377E-05
6.056809E+03	1.310859E-03	2.219637E-05
6.066754E+03	1.315216E-03	2.230820E-05
6.076700E+03	1.321575E-03	2.245568E-05
6.086645E+03	1.329891E-03	2.263827E-05
6.096591E+03	1.340517E-03	2.286220E-05
6.106536E+03	1.353514E-03	2.312880E-05
6.116482E+03	1.369333E-03	2.344610E-05
6.126427E+03	1.387971E-03	2.381441E-05
6.136373E+03	1.409508E-03	2.423549E-05
6.146318E+03	1.433955E-03	2.470994E-05
6.156264E+03	1.461106E-03	2.523464E-05
6.166209E+03	1.491153E-03	2.581335E-05
6.176155E+03	1.523632E-03	2.643850E-05
6.186100E+03	1.558595E-03	2.711142E-05
6.196046E+03	1.595326E-03	2.782008E-05
6.205991E+03	1.633604E-03	2.856092E-05
6.215937E+03	1.672401E-03	2.931624E-05
6.225882E+03	1.711060E-03	3.007468E-05
6.235828E+03	1.748844E-03	3.082331E-05
6.245773E+03	1.784426E-03	3.153867E-05
6.255719E+03	1.817013E-03	3.220642E-05
6.265664E+03	1.845684E-03	3.280984E-05
6.275610E+03	1.869632E-03	3.333397E-05
6.285555E+03	1.888206E-03	3.376644E-05
6.295501E+03	1.900949E-03	3.409825E-05
6.305446E+03	1.907625E-03	3.432417E-05
6.315392E+03	1.908226E-03	3.444302E-05
6.325337E+03	1.902960E-03	3.445750E-05
6.335283E+03	1.892226E-03	3.437381E-05
6.345228E+03	1.876584E-03	3.420110E-05
6.355174E+03	1.856512E-03	3.394719E-05
6.365119E+03	1.833137E-03	3.363183E-05
6.375065E+03	1.807025E-03	3.326476E-05
6.385010E+03	1.778737E-03	3.285570E-05
6.394956E+03	1.749334E-03	3.242385E-05
6.404901E+03	1.719247E-03	3.197687E-05
6.414847E+03	1.688825E-03	3.152108E-05
6.424792E+03	1.658851E-03	3.107091E-05
6.434738E+03	1.629304E-03	3.062602E-05
6.444683E+03	1.600598E-03	3.019417E-05
6.454629E+03	1.573046E-03	2.978140E-05
6.464574E+03	1.546403E-03	2.938316E-05
6.474520E+03	1.520857E-03	2.900318E-05
6.484465E+03	1.496542E-03	2.864416E-05
6.494411E+03	1.473090E-03	2.829923E-05
6.504356E+03	1.450585E-03	2.797007E-05
6.514302E+03	1.428936E-03	2.765512E-05
6.524247E+03	1.408053E-03	2.735273E-05
6.534193E+03	1.387991E-03	2.706408E-05
6.544138E+03	1.368381E-03	2.678205E-05
6.554084E+03	1.349299E-03	2.650820E-05
6.564029E+03	1.330690E-03	2.624152E-05
6.573975E+03	1.312515E-03	2.598127E-05
6.583920E+03	1.294747E-03	2.572699E-05
6.593866E+03	1.277241E-03	2.547582E-05
6.603811E+03	1.260264E-03	2.523312E-05
6.613757E+03	1.243689E-03	2.499642E-05
6.623702E+03	1.227532E-03	2.476609E-05
6.633648E+03	1.211813E-03	2.454260E-05
6.643593E+03	1.196431E-03	2.432396E-05
6.653539E+03	1.181664E-03	2.411590E-05
6.663484E+03	1.167413E-03	2.391649E-05
6.673430E+03	1.153705E-03	2.372639E-05
6.683375E+03	1.140449E-03	2.354379E-05
6.693321E+03	1.127908E-03	2.337426E-05
6.703266E+03	1.115871E-03	2.321353E-05
6.713212E+03	1.104593E-03	2.306702E-05
6.723157E+03	1.093863E-03	2.293047E-05
6.733103E+03	1.083927E-03	2.280917E-05
6.743048E+03	1.074573E-03	2.269879E-05
6.752994E+03	1.066036E-03	2.260448E-05
6.762939E+03	1.058103E-03	2.252184E-05
6.772885E+03	1.051001E-03	2.245586E-05
6.782830E+03	1.044509E-03	2.240201E-05
6.792776E+03	1.038737E-03	2.236279E-05
6.802721E+03	1.033788E-03	2.234054E-05
6.812667E+03	1.029434E-03	2.233055E-05
6.822612E+03	1.025772E-03	2.233504E-05
6.832558E+03	1.022783E-03	2.235376E-05
6.842503E+03	1.020448E-03	2.238646E-05
6.852449E+03	1.018851E-03	2.243511E-05
6.862394E+03	1.017751E-03	2.249459E-05
6.872340E+03	1.017229E-03	2.256678E-05
6.882285E+03	1.017254E-03	2.265114E-05
6.892231E+03	1.017798E-03	2.274716E-05
6.902176E+03	1.018830E-03	2.285424E-05
6.912122E+03	1.020318E-03	2.297184E-05
6.922067E+03	1.022236E-03	2.309941E-05
6.932013E+03	1.024554E-03	2.323640E-05
6.941958E+03	1.027249E-03	2.338237E-05
6.951904E+03	1.030190E-03	2.353440E-05
6.961849E+03	1.033576E-03	2.369712E-05
6.971795E+03	1.037286E-03	2.386784E-05
6.981740E+03	1.041310E-03	2.404641E-05
6.991686E+03	1.045645E-03	2.423283E-05
7.001631E+03	1.050182E-03	2.442461E-05
7.011577E+03	1.055148E-03	2.462712E-05
7.021522E+03	1.060444E-03	2.483812E-05
7.031468E+03	1.065971E-03	2.505537E-05
7.041413E+03	1.071973E-03	2.528466E-05
7.051359E+03	1.078242E-03	2.552121E-05
7.061304E+03	1.085030E-03	2.577101E-05
7.071250E+03	1.092243E-03	2.603197E-05
7.081195E+03	1.099785E-03	2.630188E-05
7.091141E+03	1.107787E-03	2.658397E-05
7.101086E+03	1.116381E-03	2.688152E-05
7.111032E+03	1.125339E-03	2.718913E-05
7.120977E+03	1.134896E-03	2.751262E-05
7.130923E+03	1.144804E-03	2.784605E-05
7.140868E+03	1.155162E-03	2.819194E-05
7.150814E+03	1.165937E-03	2.854960E-05
7.160759E+03	1.177211E-03	2.892108E-05
7.170705E+03	1.188675E-03	2.929894E-05
7.180650E+03	1.200382E-03	2.968446E-05
7.190596E+03	1.212244E-03	3.007555E-05
7.200541E+03	1.224162E-03	3.046978E-05
7.210487E+03	1.236025E-03	3.086432E-05
7.220432E+03	1.247708E-03	3.125609E-05
7.230378E+03	1.259081E-03	3.164173E-05
7.240323E+03	1.270008E-03	3.201770E-05
7.250269E+03	1.280348E-03	3.238038E-05
7.260214E+03	1.289963E-03	3.272608E-05
7.270160E+03	1.298720E-03	3.305123E-05
7.280105E+03	1.306494E-03	3.335241E-05
7.290051E+03	1.313168E-03	3.362643E-05
7.299996E+03	1.318502E-03	3.386683E-05
7.309942E+03	1.322696E-03	3.407842E-05
7.319887E+03	1.325542E-03	3.425559E-05
7.329833E+03	1.326853E-03	3.439313E-05
7.339778E+03	1.326887E-03	3.449741E-05
7.349724E+03	1.325353E-03	3.456051E-05
7.359669E+03	1.322546E-03	3.458982E-05
7.369615E+03	1.318210E-03	3.457829E-05
7.379560E+03	1.312672E-03	3.453417E-05
7.389506E+03	1.305704E-03	3.445118E-05
7.399451E+03	1.297653E-03	3.433820E-05
7.409397E+03	1.288315E-03	3.418950E-05
7.419342E+03	1.277910E-03	3.401071E-05
7.429288E+03	1.266662E-03	3.380752E-05
7.439233E+03	1.254381E-03	3.357470E-05
7.449179E+03	1.241293E-03	3.331806E-05
7.459124E+03	1.227484E-03	3.303973E-05
7.469069E+03	1.213034E-03	3.274175E-05
7.479015E+03	1.198020E-03	3.242603E-05
7.488960E+03	1.182511E-03	3.209434E-05
7.498906E+03	1.166572E-03	3.174835E-05
7.508851E+03	1.150261E-03	3.138957E-05
7.518797E+03	1.133634E-03	3.101945E-05
7.528742E+03	1.116743E-03	3.063932E-05
7.538688E+03	1.099636E-03	3.025050E-05
7.548633E+03	1.082239E-03	2.985090E-05
7.558579E+03	1.064833E-03	2.944825E-05
7.568524E+03	1.047338E-03	2.904033E-05
7.578470E+03	1.029679E-03	2.862503E-05
7.588415E+03	1.012117E-03	2.820962E-05
7.598361E+03	9.944609E-04	2.778880E-05
7.608306E+03	9.769610E-04	2.736956E-05
7.618252E+03	9.594294E-04	2.694668E-05
7.628197E+03	9.421037E-04	2.652685E-05
7.638143E+03	9.248000E-04	2.610493E-05
7.648088E+03	9.076449E-04	2.568454E-05
7.658034E+03	8.907565E-04	2.526905E-05
7.667979E+03	8.739549E-04	2.485343E-05
7.677925E+03	8.573569E-04	2.444103E-05
7.687870E+03	8.409773E-04	2.403233E-05
7.697816E+03	8.248288E-04	2.362776E-05
7.707761E+03	8.089235E-04	2.322773E-05
7.717707E+03	7.932715E-04	2.283258E-05
