#wls	flux	fluxerr
1.591280E+03	8.813609E-06	3.524184E-07
1.631062E+03	8.983177E-06	3.588113E-07
1.670844E+03	9.104214E-06	3.632431E-07
1.710626E+03	9.175168E-06	3.656578E-07
1.750408E+03	9.191358E-06	3.658755E-07
1.790190E+03	9.142041E-06	3.634765E-07
1.829972E+03	9.009068E-06	3.577492E-07
1.869754E+03	8.778805E-06	3.481657E-07
1.909536E+03	8.441041E-06	3.343366E-07
1.949318E+03	7.992326E-06	3.161432E-07
1.989100E+03	7.458577E-06	2.946283E-07
2.028882E+03	6.895013E-06	2.719856E-07
2.068664E+03	6.397479E-06	2.519978E-07
2.108446E+03	6.069976E-06	2.387458E-07
2.148228E+03	5.996365E-06	2.354950E-07
2.188010E+03	6.203744E-06	2.432628E-07
2.227792E+03	6.663531E-06	2.608781E-07
2.267574E+03	7.314330E-06	2.858918E-07
2.307356E+03	8.081335E-06	3.153456E-07
2.347138E+03	8.901261E-06	3.467479E-07
2.386920E+03	9.728527E-06	3.783117E-07
2.426702E+03	1.054173E-05	4.092008E-07
2.466484E+03	1.132901E-05	4.389541E-07
2.506266E+03	1.208931E-05	4.675333E-07
2.546048E+03	1.282698E-05	4.951071E-07
2.585830E+03	1.354899E-05	5.219465E-07
2.625612E+03	1.426366E-05	5.483699E-07
2.665394E+03	1.497969E-05	5.747099E-07
2.705176E+03	1.570597E-05	6.013022E-07
2.744958E+03	1.645149E-05	6.284838E-07
2.784740E+03	1.722834E-05	6.567073E-07
2.824522E+03	1.803988E-05	6.860876E-07
2.864304E+03	1.889874E-05	7.170904E-07
2.904086E+03	1.981519E-05	7.500877E-07
2.943868E+03	2.080397E-05	7.856155E-07
2.983650E+03	2.186984E-05	8.238276E-07
2.993595E+03	2.214845E-05	8.338005E-07
3.003541E+03	2.243707E-05	8.441342E-07
3.013486E+03	2.273205E-05	8.546908E-07
3.023432E+03	2.303009E-05	8.653459E-07
3.033377E+03	2.334177E-05	8.764966E-07
3.043323E+03	2.366137E-05	8.879264E-07
3.053268E+03	2.399691E-05	8.999361E-07
3.063214E+03	2.434397E-05	9.123583E-07
3.073159E+03	2.469791E-05	9.250186E-07
3.083105E+03	2.506727E-05	9.382361E-07
3.093050E+03	2.544302E-05	9.516714E-07
3.102996E+03	2.583408E-05	9.656574E-07
3.112941E+03	2.623588E-05	9.800224E-07
3.122887E+03	2.664368E-05	9.945879E-07
3.132832E+03	2.706687E-05	1.009704E-06
3.142778E+03	2.749593E-05	1.025015E-06
3.152723E+03	2.794063E-05	1.040884E-06
3.162669E+03	2.839624E-05	1.057133E-06
3.172614E+03	2.885778E-05	1.073576E-06
3.182560E+03	2.933556E-05	1.090596E-06
3.192505E+03	2.981943E-05	1.107814E-06
3.202451E+03	3.032011E-05	1.125628E-06
3.212396E+03	3.083262E-05	1.143851E-06
3.222342E+03	3.135163E-05	1.162285E-06
3.232287E+03	3.188848E-05	1.181349E-06
3.242233E+03	3.243222E-05	1.200637E-06
3.252178E+03	3.299464E-05	1.220582E-06
3.262124E+03	3.357039E-05	1.240987E-06
3.272069E+03	3.415378E-05	1.261640E-06
3.282015E+03	3.475722E-05	1.282998E-06
3.291960E+03	3.536889E-05	1.304622E-06
3.301906E+03	3.600164E-05	1.326987E-06
3.311851E+03	3.664976E-05	1.349880E-06
3.321797E+03	3.730711E-05	1.373072E-06
3.331742E+03	3.798725E-05	1.397063E-06
3.341688E+03	3.868418E-05	1.421629E-06
3.351633E+03	3.939143E-05	1.446532E-06
3.361579E+03	4.012337E-05	1.472296E-06
3.371524E+03	4.086642E-05	1.498423E-06
3.381470E+03	4.163548E-05	1.525457E-06
3.391415E+03	4.242401E-05	1.553156E-06
3.401361E+03	4.322489E-05	1.581257E-06
3.411306E+03	4.405391E-05	1.610338E-06
3.421252E+03	4.490410E-05	1.640139E-06
3.431197E+03	4.576797E-05	1.670387E-06
3.441143E+03	4.666220E-05	1.701687E-06
3.451088E+03	4.757096E-05	1.733460E-06
3.461034E+03	4.851159E-05	1.766336E-06
3.470979E+03	4.947640E-05	1.800032E-06
3.480925E+03	5.045709E-05	1.834243E-06
3.490870E+03	5.147194E-05	1.869634E-06
3.500816E+03	5.251281E-05	1.905903E-06
3.510761E+03	5.357080E-05	1.942727E-06
3.520707E+03	5.466528E-05	1.980804E-06
3.530652E+03	5.577767E-05	2.019460E-06
3.540598E+03	5.692808E-05	2.059419E-06
3.550543E+03	5.810737E-05	2.100347E-06
3.560489E+03	5.930560E-05	2.141883E-06
3.570434E+03	6.054408E-05	2.184793E-06
3.580380E+03	6.181297E-05	2.228718E-06
3.590325E+03	6.310162E-05	2.273273E-06
3.600271E+03	6.443255E-05	2.319264E-06
3.610216E+03	6.579523E-05	2.366310E-06
3.620162E+03	6.717814E-05	2.413993E-06
3.630107E+03	6.860513E-05	2.463166E-06
3.640053E+03	7.005246E-05	2.512975E-06
3.649998E+03	7.154488E-05	2.564304E-06
3.659944E+03	7.307048E-05	2.616721E-06
3.669889E+03	7.461614E-05	2.669754E-06
3.679835E+03	7.620807E-05	2.724337E-06
3.689780E+03	7.783336E-05	2.780005E-06
3.699726E+03	7.947788E-05	2.836250E-06
3.709671E+03	8.116932E-05	2.894056E-06
3.719617E+03	8.287901E-05	2.952398E-06
3.729562E+03	8.463567E-05	3.012296E-06
3.739507E+03	8.642454E-05	3.073219E-06
3.749453E+03	8.822958E-05	3.134595E-06
3.759398E+03	9.008100E-05	3.197494E-06
3.769344E+03	9.196290E-05	3.261347E-06
3.779289E+03	9.385787E-05	3.325533E-06
3.789235E+03	9.579778E-05	3.391180E-06
3.799180E+03	9.774814E-05	3.457062E-06
3.809126E+03	9.974195E-05	3.524345E-06
3.819071E+03	1.017610E-04	3.592379E-06
3.829017E+03	1.037855E-04	3.660467E-06
3.838962E+03	1.058502E-04	3.729830E-06
3.848908E+03	1.079355E-04	3.799771E-06
3.858853E+03	1.100200E-04	3.869539E-06
3.868799E+03	1.121401E-04	3.940415E-06
3.878744E+03	1.142546E-04	4.010942E-06
3.888690E+03	1.164010E-04	4.082439E-06
3.898635E+03	1.185571E-04	4.154122E-06
3.908581E+03	1.206988E-04	4.225150E-06
3.918526E+03	1.228655E-04	4.296901E-06
3.928472E+03	1.250332E-04	4.368534E-06
3.938417E+03	1.271765E-04	4.439155E-06
3.948363E+03	1.293362E-04	4.510197E-06
3.958308E+03	1.314636E-04	4.579960E-06
3.968254E+03	1.336009E-04	4.649914E-06
3.978199E+03	1.357215E-04	4.719131E-06
3.988145E+03	1.377969E-04	4.786627E-06
3.998090E+03	1.398714E-04	4.853941E-06
4.008036E+03	1.418924E-04	4.919249E-06
4.017981E+03	1.439064E-04	4.984166E-06
4.027927E+03	1.458859E-04	5.047744E-06
4.037872E+03	1.478028E-04	5.109012E-06
4.047818E+03	1.497072E-04	5.169707E-06
4.057763E+03	1.515455E-04	5.227984E-06
4.067709E+03	1.533703E-04	5.285661E-06
4.077654E+03	1.551555E-04	5.341836E-06
4.087600E+03	1.568741E-04	5.395588E-06
4.097545E+03	1.585820E-04	5.448846E-06
4.107491E+03	1.602249E-04	5.499748E-06
4.117436E+03	1.618605E-04	5.550275E-06
4.127382E+03	1.634624E-04	5.599523E-06
4.137327E+03	1.650032E-04	5.646563E-06
4.147273E+03	1.665428E-04	5.693447E-06
4.157218E+03	1.680256E-04	5.738273E-06
4.167164E+03	1.695136E-04	5.783171E-06
4.177109E+03	1.709818E-04	5.827278E-06
4.187055E+03	1.724045E-04	5.869726E-06
4.197000E+03	1.738472E-04	5.912747E-06
4.206946E+03	1.752546E-04	5.954460E-06
4.216891E+03	1.766938E-04	5.997150E-06
4.226837E+03	1.781404E-04	6.039982E-06
4.236782E+03	1.795690E-04	6.082095E-06
4.246728E+03	1.810488E-04	6.125835E-06
4.256673E+03	1.825231E-04	6.169279E-06
4.266619E+03	1.840627E-04	6.214819E-06
4.276564E+03	1.856103E-04	6.260517E-06
4.286510E+03	1.872385E-04	6.308814E-06
4.296455E+03	1.889232E-04	6.358893E-06
4.306401E+03	1.906403E-04	6.409940E-06
4.316346E+03	1.924674E-04	6.464557E-06
4.326292E+03	1.943486E-04	6.520855E-06
4.336237E+03	1.963618E-04	6.581443E-06
4.346183E+03	1.984461E-04	6.644266E-06
4.356128E+03	2.006761E-04	6.711812E-06
4.366074E+03	2.029846E-04	6.781821E-06
4.376019E+03	2.054432E-04	6.856672E-06
4.385965E+03	2.080149E-04	6.935121E-06
4.395910E+03	2.106587E-04	7.015790E-06
4.405856E+03	2.134415E-04	7.100895E-06
4.415801E+03	2.162794E-04	7.187635E-06
4.425747E+03	2.192363E-04	7.278124E-06
4.435692E+03	2.222221E-04	7.369364E-06
4.445638E+03	2.252998E-04	7.463440E-06
4.455583E+03	2.283777E-04	7.557307E-06
4.465529E+03	2.315247E-04	7.653242E-06
4.475474E+03	2.346512E-04	7.748284E-06
4.485420E+03	2.378307E-04	7.844852E-06
4.495365E+03	2.409714E-04	7.939924E-06
4.505311E+03	2.441481E-04	8.035961E-06
4.515256E+03	2.472652E-04	8.129818E-06
4.525202E+03	2.503973E-04	8.223954E-06
4.535147E+03	2.534903E-04	8.316588E-06
4.545093E+03	2.564903E-04	8.405962E-06
4.555038E+03	2.594797E-04	8.494781E-06
4.564984E+03	2.623653E-04	8.580003E-06
4.574929E+03	2.652393E-04	8.664646E-06
4.584875E+03	2.680136E-04	8.745839E-06
4.594820E+03	2.707889E-04	8.826878E-06
4.604766E+03	2.734812E-04	8.905026E-06
4.614711E+03	2.761979E-04	8.983784E-06
4.624657E+03	2.788557E-04	9.060447E-06
4.634602E+03	2.815650E-04	9.138603E-06
4.644548E+03	2.842376E-04	9.215386E-06
4.654493E+03	2.869313E-04	9.292674E-06
4.664439E+03	2.897031E-04	9.372311E-06
4.674384E+03	2.924559E-04	9.451149E-06
4.684330E+03	2.952944E-04	9.532571E-06
4.694275E+03	2.981167E-04	9.613285E-06
4.704221E+03	3.010269E-04	9.696644E-06
4.714166E+03	3.039192E-04	9.779236E-06
4.724112E+03	3.068953E-04	9.864333E-06
4.734057E+03	3.098409E-04	9.948257E-06
4.744003E+03	3.128546E-04	1.003417E-05
4.753948E+03	3.158176E-04	1.011827E-05
4.763894E+03	3.188322E-04	1.020383E-05
4.773839E+03	3.217818E-04	1.028712E-05
4.783785E+03	3.247778E-04	1.037171E-05
4.793730E+03	3.277107E-04	1.045409E-05
4.803676E+03	3.306462E-04	1.053637E-05
4.813621E+03	3.336557E-04	1.062083E-05
4.823567E+03	3.366395E-04	1.070428E-05
4.833512E+03	3.397332E-04	1.079103E-05
4.843458E+03	3.428371E-04	1.087793E-05
4.853403E+03	3.460860E-04	1.096923E-05
4.863349E+03	3.493715E-04	1.106149E-05
4.873294E+03	3.527602E-04	1.115681E-05
4.883240E+03	3.563141E-04	1.125715E-05
4.893185E+03	3.599037E-04	1.135840E-05
4.903131E+03	3.636469E-04	1.146429E-05
4.913076E+03	3.674082E-04	1.157051E-05
4.923022E+03	3.712415E-04	1.167878E-05
4.932967E+03	3.752013E-04	1.179081E-05
4.942913E+03	3.791459E-04	1.190212E-05
4.952858E+03	3.831915E-04	1.201637E-05
4.962804E+03	3.871842E-04	1.212873E-05
4.972749E+03	3.911621E-04	1.224040E-05
4.982695E+03	3.951630E-04	1.235257E-05
4.992640E+03	3.990186E-04	1.245997E-05
5.002586E+03	4.028433E-04	1.256620E-05
5.012531E+03	4.064803E-04	1.266637E-05
5.022477E+03	4.099949E-04	1.276255E-05
5.032422E+03	4.134702E-04	1.285732E-05
5.042368E+03	4.167837E-04	1.294688E-05
5.052313E+03	4.201068E-04	1.303658E-05
5.062259E+03	4.233204E-04	1.312273E-05
5.072204E+03	4.265240E-04	1.320841E-05
5.082150E+03	4.298141E-04	1.329662E-05
5.092095E+03	4.330568E-04	1.338321E-05
5.102041E+03	4.363353E-04	1.347077E-05
5.111986E+03	4.397264E-04	1.356166E-05
5.121932E+03	4.430678E-04	1.365086E-05
5.131877E+03	4.464181E-04	1.374020E-05
5.141823E+03	4.498348E-04	1.383144E-05
5.151768E+03	4.531373E-04	1.391903E-05
5.161714E+03	4.563791E-04	1.400463E-05
5.171659E+03	4.596162E-04	1.408996E-05
5.181605E+03	4.626668E-04	1.416947E-05
5.191550E+03	4.655914E-04	1.424501E-05
5.201496E+03	4.684542E-04	1.431857E-05
5.211441E+03	4.710784E-04	1.438476E-05
5.221387E+03	4.735351E-04	1.444578E-05
5.231332E+03	4.759033E-04	1.450404E-05
5.241278E+03	4.780196E-04	1.455459E-05
5.251223E+03	4.799730E-04	1.460016E-05
5.261169E+03	4.817706E-04	1.464097E-05
5.271114E+03	4.834997E-04	1.467971E-05
5.281060E+03	4.849905E-04	1.471122E-05
5.291005E+03	4.863179E-04	1.473780E-05
5.300951E+03	4.875496E-04	1.476153E-05
5.310896E+03	4.884966E-04	1.477668E-05
5.320842E+03	4.892319E-04	1.478550E-05
5.330787E+03	4.897594E-04	1.478812E-05
5.340733E+03	4.901807E-04	1.478762E-05
5.350678E+03	4.903522E-04	1.477970E-05
5.360624E+03	4.903951E-04	1.476802E-05
5.370569E+03	4.904318E-04	1.475628E-05
5.380515E+03	4.903208E-04	1.474023E-05
5.390460E+03	4.901665E-04	1.472301E-05
5.400406E+03	4.899785E-04	1.470492E-05
5.410351E+03	4.898497E-04	1.468875E-05
5.420297E+03	4.896198E-04	1.466969E-05
5.430242E+03	4.893848E-04	1.465063E-05
5.440188E+03	4.891568E-04	1.463192E-05
5.450133E+03	4.890301E-04	1.461639E-05
5.460079E+03	4.888407E-04	1.459914E-05
5.470024E+03	4.886735E-04	1.458270E-05
5.479970E+03	4.885197E-04	1.456681E-05
5.489915E+03	4.883631E-04	1.455099E-05
5.499861E+03	4.882690E-04	1.453719E-05
5.509806E+03	4.880429E-04	1.451962E-05
5.519752E+03	4.877448E-04	1.450006E-05
5.529697E+03	4.873496E-04	1.447779E-05
5.539643E+03	4.869184E-04	1.445462E-05
5.549588E+03	4.862620E-04	1.442494E-05
5.559534E+03	4.854488E-04	1.439080E-05
5.569479E+03	4.844682E-04	1.435189E-05
5.579425E+03	4.833156E-04	1.430809E-05
5.589370E+03	4.820769E-04	1.426196E-05
5.599316E+03	4.805924E-04	1.420877E-05
5.609261E+03	4.789611E-04	1.415147E-05
5.619207E+03	4.771992E-04	1.409054E-05
5.629152E+03	4.753243E-04	1.402651E-05
5.639098E+03	4.733566E-04	1.395998E-05
5.649043E+03	4.714013E-04	1.389406E-05
5.658989E+03	4.693216E-04	1.382471E-05
5.668934E+03	4.672339E-04	1.375538E-05
5.678880E+03	4.651771E-04	1.368720E-05
5.688825E+03	4.631959E-04	1.362149E-05
5.698771E+03	4.613376E-04	1.355964E-05
5.708716E+03	4.597268E-04	1.350529E-05
5.718662E+03	4.582432E-04	1.345491E-05
5.728607E+03	4.569984E-04	1.341176E-05
5.738553E+03	4.560136E-04	1.337647E-05
5.748498E+03	4.552972E-04	1.334926E-05
5.758444E+03	4.548466E-04	1.333005E-05
5.768389E+03	4.546497E-04	1.331848E-05
5.778335E+03	4.547647E-04	1.331623E-05
5.788280E+03	4.550084E-04	1.331795E-05
5.798226E+03	4.554330E-04	1.332516E-05
5.808171E+03	4.560132E-04	1.333711E-05
5.818117E+03	4.567210E-04	1.335299E-05
5.828062E+03	4.575228E-04	1.337180E-05
5.838008E+03	4.583756E-04	1.339230E-05
5.847953E+03	4.592289E-04	1.341302E-05
5.857899E+03	4.600265E-04	1.343231E-05
5.867844E+03	4.607912E-04	1.345085E-05
5.877790E+03	4.613082E-04	1.346237E-05
5.887735E+03	4.616174E-04	1.346804E-05
5.897681E+03	4.616964E-04	1.346723E-05
5.907626E+03	4.615395E-04	1.345976E-05
5.917572E+03	4.611485E-04	1.344571E-05
5.927517E+03	4.605323E-04	1.342533E-05
5.937463E+03	4.597023E-04	1.339897E-05
5.947408E+03	4.586726E-04	1.336704E-05
5.957354E+03	4.574599E-04	1.333002E-05
5.967299E+03	4.560866E-04	1.328859E-05
5.977245E+03	4.546631E-04	1.324594E-05
5.987190E+03	4.530759E-04	1.319878E-05
5.997136E+03	4.514570E-04	1.315096E-05
6.007081E+03	4.498662E-04	1.310422E-05
6.017027E+03	4.483657E-04	1.306036E-05
6.026972E+03	4.470258E-04	1.302144E-05
6.036918E+03	4.459294E-04	1.298987E-05
6.046863E+03	4.451768E-04	1.296857E-05
6.056809E+03	4.448824E-04	1.296089E-05
6.066754E+03	4.451649E-04	1.297028E-05
6.076700E+03	4.461454E-04	1.300028E-05
6.086645E+03	4.479474E-04	1.305450E-05
6.096591E+03	4.506975E-04	1.313664E-05
6.106536E+03	4.545250E-04	1.325051E-05
6.116482E+03	4.595600E-04	1.339991E-05
6.126427E+03	4.659257E-04	1.358847E-05
6.136373E+03	4.737316E-04	1.381943E-05
6.146318E+03	4.830709E-04	1.409555E-05
6.156264E+03	4.940139E-04	1.441895E-05
6.166209E+03	5.065971E-04	1.479074E-05
6.176155E+03	5.208167E-04	1.521091E-05
6.186100E+03	5.366146E-04	1.567781E-05
6.196046E+03	5.538571E-04	1.618762E-05
6.205991E+03	5.723206E-04	1.673387E-05
6.215937E+03	5.916714E-04	1.730688E-05
6.225882E+03	6.114467E-04	1.789317E-05
6.235828E+03	6.310661E-04	1.847579E-05
6.245773E+03	6.498650E-04	1.903531E-05
6.255719E+03	6.671351E-04	1.955095E-05
6.265664E+03	6.821727E-04	2.000206E-05
6.275610E+03	6.943540E-04	2.037023E-05
6.285555E+03	7.032000E-04	2.064130E-05
6.295501E+03	7.083951E-04	2.080584E-05
6.305446E+03	7.097845E-04	2.085911E-05
6.315392E+03	7.073805E-04	2.080128E-05
6.325337E+03	7.013487E-04	2.063700E-05
6.335283E+03	6.919937E-04	2.037502E-05
6.345228E+03	6.797463E-04	2.002783E-05
6.355174E+03	6.651300E-04	1.961065E-05
6.365119E+03	6.487258E-04	1.914046E-05
6.375065E+03	6.311428E-04	1.863511E-05
6.385010E+03	6.129687E-04	1.811185E-05
6.394956E+03	5.947201E-04	1.758589E-05
6.404901E+03	5.768145E-04	1.706954E-05
6.414847E+03	5.595711E-04	1.657225E-05
6.424792E+03	5.432170E-04	1.610077E-05
6.434738E+03	5.278905E-04	1.565924E-05
6.444683E+03	5.135749E-04	1.524722E-05
6.454629E+03	5.004743E-04	1.487081E-05
6.464574E+03	4.884822E-04	1.452693E-05
6.474520E+03	4.775593E-04	1.421446E-05
6.484465E+03	4.676532E-04	1.393191E-05
6.494411E+03	4.587041E-04	1.367756E-05
6.504356E+03	4.506469E-04	1.344954E-05
6.514302E+03	4.434138E-04	1.324587E-05
6.524247E+03	4.369341E-04	1.306450E-05
6.534193E+03	4.311368E-04	1.290336E-05
6.544138E+03	4.259559E-04	1.276051E-05
6.554084E+03	4.213296E-04	1.263415E-05
6.564029E+03	4.172014E-04	1.252262E-05
6.573975E+03	4.134423E-04	1.242208E-05
6.583920E+03	4.101395E-04	1.233518E-05
6.593866E+03	4.071618E-04	1.225801E-05
6.603811E+03	4.044500E-04	1.218881E-05
6.613757E+03	4.019476E-04	1.212588E-05
6.623702E+03	3.996016E-04	1.206765E-05
6.633648E+03	3.973684E-04	1.201280E-05
6.643593E+03	3.952174E-04	1.196042E-05
6.653539E+03	3.931294E-04	1.190992E-05
6.663484E+03	3.910273E-04	1.185898E-05
6.673430E+03	3.890478E-04	1.181173E-05
6.683375E+03	3.871291E-04	1.176630E-05
6.693321E+03	3.852831E-04	1.172306E-05
6.703266E+03	3.835246E-04	1.168246E-05
6.713212E+03	3.818682E-04	1.164496E-05
6.723157E+03	3.803258E-04	1.161092E-05
6.733103E+03	3.789036E-04	1.158053E-05
6.743048E+03	3.775374E-04	1.155186E-05
6.752994E+03	3.763567E-04	1.152885E-05
6.762939E+03	3.752922E-04	1.150942E-05
6.772885E+03	3.743381E-04	1.149337E-05
6.782830E+03	3.734869E-04	1.148050E-05
6.792776E+03	3.727289E-04	1.147052E-05
6.802721E+03	3.719902E-04	1.146115E-05
6.812667E+03	3.713909E-04	1.145610E-05
6.822612E+03	3.708595E-04	1.145317E-05
6.832558E+03	3.703900E-04	1.145219E-05
6.842503E+03	3.699791E-04	1.145305E-05
6.852449E+03	3.696226E-04	1.145563E-05
6.862394E+03	3.692524E-04	1.145782E-05
6.872340E+03	3.689925E-04	1.146347E-05
6.882285E+03	3.687718E-04	1.147037E-05
6.892231E+03	3.685822E-04	1.147828E-05
6.902176E+03	3.684143E-04	1.148691E-05
6.912122E+03	3.682595E-04	1.149599E-05
6.922067E+03	3.680463E-04	1.150327E-05
6.932013E+03	3.678991E-04	1.151266E-05
6.941958E+03	3.677551E-04	1.152217E-05
6.951904E+03	3.676191E-04	1.153198E-05
6.961849E+03	3.674989E-04	1.154231E-05
6.971795E+03	3.673399E-04	1.155145E-05
6.981740E+03	3.672806E-04	1.156375E-05
6.991686E+03	3.672692E-04	1.157760E-05
7.001631E+03	3.673186E-04	1.159340E-05
7.011577E+03	3.674425E-04	1.161160E-05
7.021522E+03	3.675898E-04	1.163057E-05
7.031468E+03	3.679001E-04	1.165475E-05
7.041413E+03	3.683196E-04	1.168245E-05
7.051359E+03	3.688564E-04	1.171393E-05
7.061304E+03	3.695162E-04	1.174939E-05
7.071250E+03	3.702394E-04	1.178694E-05
7.081195E+03	3.711563E-04	1.183075E-05
7.091141E+03	3.722029E-04	1.187879E-05
7.101086E+03	3.733764E-04	1.193099E-05
7.111032E+03	3.746073E-04	1.198514E-05
7.120977E+03	3.760188E-04	1.204518E-05
7.130923E+03	3.775363E-04	1.210875E-05
7.140868E+03	3.791499E-04	1.217555E-05
7.150814E+03	3.808481E-04	1.224520E-05
7.160759E+03	3.825522E-04	1.231520E-05
7.170705E+03	3.843789E-04	1.238928E-05
7.180650E+03	3.862425E-04	1.246471E-05
7.190596E+03	3.881192E-04	1.254073E-05
7.200541E+03	3.899133E-04	1.261423E-05
7.210487E+03	3.917283E-04	1.268855E-05
7.220432E+03	3.934601E-04	1.276032E-05
7.230378E+03	3.950701E-04	1.282828E-05
7.240323E+03	3.964465E-04	1.288877E-05
7.250269E+03	3.976848E-04	1.294487E-05
7.260214E+03	3.986761E-04	1.299303E-05
7.270160E+03	3.993845E-04	1.303203E-05
7.280105E+03	3.997124E-04	1.305865E-05
7.290051E+03	3.997769E-04	1.307668E-05
7.299996E+03	3.994965E-04	1.308341E-05
7.309942E+03	3.987959E-04	1.307634E-05
7.319887E+03	3.978170E-04	1.306006E-05
7.329833E+03	3.964985E-04	1.303254E-05
7.339778E+03	3.948548E-04	1.299420E-05
7.349724E+03	3.928347E-04	1.294331E-05
7.359669E+03	3.905965E-04	1.288506E-05
7.369615E+03	3.880932E-04	1.281786E-05
7.379560E+03	3.852781E-04	1.274014E-05
7.389506E+03	3.823040E-04	1.265691E-05
7.399451E+03	3.791187E-04	1.256644E-05
7.409397E+03	3.757368E-04	1.246918E-05
7.419342E+03	3.721077E-04	1.236341E-05
7.429288E+03	3.683752E-04	1.225391E-05
7.439233E+03	3.644874E-04	1.213891E-05
7.449179E+03	3.603945E-04	1.201676E-05
7.459124E+03	3.562359E-04	1.189207E-05
7.469069E+03	3.519605E-04	1.176313E-05
7.479015E+03	3.475804E-04	1.163034E-05
7.488960E+03	3.430477E-04	1.149206E-05
7.498906E+03	3.384943E-04	1.135272E-05
7.508851E+03	3.338705E-04	1.121064E-05
7.518797E+03	3.291294E-04	1.106423E-05
7.528742E+03	3.243970E-04	1.091773E-05
7.538688E+03	3.196246E-04	1.076948E-05
7.548633E+03	3.147665E-04	1.061796E-05
7.558579E+03	3.099422E-04	1.046718E-05
7.568524E+03	3.051043E-04	1.031554E-05
7.578470E+03	3.002081E-04	1.016153E-05
7.588415E+03	2.953667E-04	1.000898E-05
7.598361E+03	2.905339E-04	9.856332E-06
7.608306E+03	2.856661E-04	9.702099E-06
7.618252E+03	2.808702E-04	9.549915E-06
7.628197E+03	2.761010E-04	9.398251E-06
7.638143E+03	2.713164E-04	9.245674E-06
7.648088E+03	2.666167E-04	9.095611E-06
7.658034E+03	2.619583E-04	8.946577E-06
7.667979E+03	2.573002E-04	8.797181E-06
7.677925E+03	2.527370E-04	8.650654E-06
7.687870E+03	2.482261E-04	8.505557E-06
7.697816E+03	2.437281E-04	8.360540E-06
7.707761E+03	2.393316E-04	8.218650E-06
7.717707E+03	2.349957E-04	8.078493E-06
