#wls	flux	fluxerr
1.591280E+03	8.718495E-06	3.695649E-07
1.631062E+03	8.884130E-06	3.762137E-07
1.670844E+03	9.003345E-06	3.808754E-07
1.710626E+03	9.074680E-06	3.834937E-07
1.750408E+03	9.090246E-06	3.837413E-07
1.790190E+03	9.039427E-06	3.811781E-07
1.829972E+03	8.907559E-06	3.751955E-07
1.869754E+03	8.679540E-06	3.651699E-07
1.909536E+03	8.345282E-06	3.506920E-07
1.949318E+03	7.901386E-06	3.316361E-07
1.989100E+03	7.372152E-06	3.090389E-07
2.028882E+03	6.816149E-06	2.853677E-07
2.068664E+03	6.323007E-06	2.643763E-07
2.108446E+03	6.000256E-06	2.505462E-07
2.148228E+03	5.926304E-06	2.471193E-07
2.188010E+03	6.130047E-06	2.552565E-07
2.227792E+03	6.585446E-06	2.738254E-07
2.267574E+03	7.228509E-06	3.001220E-07
2.307356E+03	7.984967E-06	3.310300E-07
2.347138E+03	8.794991E-06	3.640485E-07
2.386920E+03	9.613958E-06	3.973195E-07
2.426702E+03	1.041555E-05	4.297517E-07
2.466484E+03	1.119317E-05	4.610734E-07
2.506266E+03	1.194408E-05	4.911729E-07
2.546048E+03	1.267249E-05	5.202259E-07
2.585830E+03	1.338291E-05	5.484181E-07
2.625612E+03	1.408813E-05	5.762732E-07
2.665394E+03	1.479445E-05	6.040466E-07
2.705176E+03	1.551058E-05	6.320893E-07
2.744958E+03	1.624527E-05	6.607517E-07
2.784740E+03	1.700739E-05	6.903857E-07
2.824522E+03	1.780600E-05	7.213483E-07
2.864304E+03	1.865049E-05	7.540065E-07
2.904086E+03	1.955082E-05	7.887467E-07
2.943868E+03	2.051764E-05	8.259789E-07
2.983650E+03	2.156249E-05	8.661445E-07
2.993595E+03	2.183928E-05	8.767774E-07
3.003541E+03	2.211805E-05	8.874753E-07
3.013486E+03	2.240685E-05	8.985604E-07
3.023432E+03	2.269853E-05	9.097461E-07
3.033377E+03	2.300352E-05	9.214495E-07
3.043323E+03	2.331616E-05	9.334431E-07
3.053268E+03	2.364436E-05	9.460428E-07
3.063214E+03	2.397946E-05	9.589013E-07
3.073159E+03	2.432972E-05	9.723478E-07
3.083105E+03	2.468629E-05	9.860278E-07
3.093050E+03	2.505780E-05	1.000285E-06
3.102996E+03	2.543522E-05	1.014759E-06
3.112941E+03	2.582749E-05	1.029804E-06
3.122887E+03	2.623008E-05	1.045240E-06
3.132832E+03	2.663826E-05	1.060877E-06
3.142778E+03	2.706145E-05	1.077090E-06
3.152723E+03	2.749012E-05	1.093498E-06
3.162669E+03	2.793411E-05	1.110492E-06
3.172614E+03	2.838361E-05	1.127681E-06
3.182560E+03	2.884881E-05	1.145469E-06
3.192505E+03	2.931968E-05	1.163456E-06
3.202451E+03	2.980674E-05	1.182060E-06
3.212396E+03	3.029968E-05	1.200871E-06
3.222342E+03	3.080947E-05	1.220322E-06
3.232287E+03	3.133101E-05	1.240211E-06
3.242233E+03	3.185893E-05	1.260323E-06
3.252178E+03	3.240480E-05	1.281116E-06
3.262124E+03	3.295746E-05	1.302147E-06
3.272069E+03	3.352893E-05	1.323890E-06
3.282015E+03	3.410768E-05	1.345889E-06
3.291960E+03	3.470614E-05	1.368632E-06
3.301906E+03	3.531249E-05	1.391654E-06
3.311851E+03	3.593956E-05	1.415457E-06
3.321797E+03	3.658161E-05	1.439815E-06
3.331742E+03	3.723245E-05	1.464483E-06
3.341688E+03	3.790570E-05	1.489995E-06
3.351633E+03	3.858845E-05	1.515842E-06
3.361579E+03	3.929477E-05	1.542576E-06
3.371524E+03	4.001131E-05	1.569671E-06
3.381470E+03	4.075267E-05	1.597699E-06
3.391415E+03	4.151240E-05	1.626403E-06
3.401361E+03	4.228349E-05	1.655510E-06
3.411306E+03	4.308137E-05	1.685620E-06
3.421252E+03	4.389143E-05	1.716161E-06
3.431197E+03	4.472965E-05	1.747756E-06
3.441143E+03	4.558084E-05	1.779809E-06
3.451088E+03	4.646162E-05	1.812968E-06
3.461034E+03	4.735615E-05	1.846612E-06
3.470979E+03	4.828171E-05	1.881413E-06
3.480925E+03	4.923056E-05	1.917068E-06
3.490870E+03	5.019438E-05	1.953250E-06
3.500816E+03	5.119136E-05	1.990665E-06
3.510761E+03	5.220408E-05	2.028634E-06
3.520707E+03	5.325140E-05	2.067887E-06
3.530652E+03	5.431515E-05	2.107717E-06
3.540598E+03	5.541495E-05	2.148882E-06
3.550543E+03	5.654183E-05	2.191032E-06
3.560489E+03	5.768610E-05	2.233789E-06
3.570434E+03	5.886847E-05	2.277952E-06
3.580380E+03	6.006872E-05	2.322738E-06
3.590325E+03	6.130838E-05	2.368975E-06
3.600271E+03	6.256633E-05	2.415844E-06
3.610216E+03	6.386491E-05	2.464207E-06
3.620162E+03	6.519357E-05	2.513652E-06
3.630107E+03	6.654085E-05	2.563735E-06
3.640053E+03	6.793037E-05	2.615364E-06
3.649998E+03	6.933849E-05	2.667625E-06
3.659944E+03	7.078975E-05	2.721461E-06
3.669889E+03	7.225939E-05	2.775915E-06
3.679835E+03	7.377286E-05	2.831963E-06
3.689780E+03	7.531763E-05	2.889121E-06
3.699726E+03	7.688003E-05	2.946862E-06
3.709671E+03	7.848690E-05	3.006212E-06
3.719617E+03	8.011051E-05	3.066104E-06
3.729562E+03	8.177870E-05	3.127604E-06
3.739507E+03	8.346244E-05	3.189596E-06
3.749453E+03	8.519053E-05	3.253179E-06
3.759398E+03	8.694798E-05	3.317778E-06
3.769344E+03	8.871848E-05	3.382767E-06
3.779289E+03	9.053239E-05	3.449302E-06
3.789235E+03	9.235713E-05	3.516139E-06
3.799180E+03	9.422415E-05	3.584471E-06
3.809126E+03	9.609935E-05	3.653001E-06
3.819071E+03	9.801526E-05	3.722962E-06
3.829017E+03	9.993618E-05	3.792995E-06
3.838962E+03	1.018957E-04	3.864375E-06
3.848908E+03	1.038750E-04	3.936381E-06
3.858853E+03	1.058535E-04	4.008237E-06
3.868799E+03	1.078666E-04	4.081278E-06
3.878744E+03	1.098744E-04	4.153995E-06
3.888690E+03	1.119132E-04	4.227760E-06
3.898635E+03	1.139416E-04	4.301004E-06
3.908581E+03	1.159969E-04	4.375141E-06
3.918526E+03	1.180568E-04	4.449321E-06
3.928472E+03	1.200973E-04	4.522642E-06
3.938417E+03	1.221574E-04	4.596574E-06
3.948363E+03	1.241912E-04	4.669391E-06
3.958308E+03	1.262391E-04	4.742610E-06
3.968254E+03	1.282533E-04	4.814438E-06
3.978199E+03	1.302755E-04	4.886439E-06
3.988145E+03	1.322565E-04	4.956771E-06
3.998090E+03	1.342394E-04	5.027049E-06
4.008036E+03	1.361980E-04	5.096296E-06
4.017981E+03	1.381052E-04	5.163495E-06
4.027927E+03	1.400068E-04	5.230371E-06
4.037872E+03	1.418519E-04	5.295016E-06
4.047818E+03	1.436886E-04	5.359233E-06
4.057763E+03	1.454654E-04	5.421106E-06
4.067709E+03	1.472329E-04	5.482519E-06
4.077654E+03	1.489392E-04	5.541548E-06
4.087600E+03	1.506370E-04	5.600153E-06
4.097545E+03	1.522741E-04	5.656397E-06
4.107491E+03	1.539049E-04	5.712307E-06
4.117436E+03	1.554767E-04	5.765928E-06
4.127382E+03	1.570456E-04	5.819345E-06
4.137327E+03	1.585864E-04	5.871623E-06
4.147273E+03	1.600729E-04	5.921799E-06
4.157218E+03	1.615640E-04	5.972056E-06
4.167164E+03	1.630063E-04	6.020414E-06
4.177109E+03	1.644605E-04	6.069128E-06
4.187055E+03	1.658732E-04	6.116219E-06
4.197000E+03	1.673070E-04	6.164007E-06
4.206946E+03	1.687084E-04	6.210511E-06
4.216891E+03	1.701417E-04	6.258107E-06
4.226837E+03	1.715528E-04	6.304801E-06
4.236782E+03	1.730076E-04	6.353020E-06
4.246728E+03	1.744516E-04	6.400751E-06
4.256673E+03	1.759522E-04	6.450472E-06
4.266619E+03	1.774541E-04	6.500155E-06
4.276564E+03	1.790264E-04	6.552330E-06
4.286510E+03	1.806137E-04	6.604956E-06
4.296455E+03	1.822868E-04	6.660628E-06
4.306401E+03	1.839897E-04	6.717294E-06
4.316346E+03	1.857952E-04	6.777601E-06
4.326292E+03	1.876457E-04	6.839448E-06
4.336237E+03	1.896139E-04	6.905478E-06
4.346183E+03	1.916388E-04	6.973454E-06
4.356128E+03	1.937909E-04	7.045945E-06
4.366074E+03	1.960044E-04	7.120542E-06
4.376019E+03	1.983482E-04	7.199748E-06
4.385965E+03	2.007520E-04	7.280996E-06
4.395910E+03	2.032831E-04	7.366724E-06
4.405856E+03	2.058654E-04	7.454166E-06
4.415801E+03	2.085640E-04	7.545671E-06
4.425747E+03	2.112972E-04	7.638281E-06
4.435692E+03	2.141291E-04	7.734303E-06
4.445638E+03	2.169742E-04	7.830648E-06
4.455583E+03	2.198980E-04	7.929677E-06
4.465529E+03	2.228137E-04	8.028255E-06
4.475474E+03	2.257898E-04	8.128853E-06
4.485420E+03	2.287386E-04	8.228304E-06
4.495365E+03	2.317311E-04	8.329170E-06
4.505311E+03	2.346774E-04	8.428220E-06
4.515256E+03	2.376508E-04	8.528084E-06
4.525202E+03	2.405592E-04	8.625459E-06
4.535147E+03	2.434789E-04	8.723088E-06
4.545093E+03	2.463182E-04	8.817686E-06
4.555038E+03	2.491581E-04	8.912159E-06
4.564984E+03	2.519097E-04	9.003328E-06
4.574929E+03	2.546163E-04	9.092748E-06
4.584875E+03	2.573259E-04	9.182140E-06
4.594820E+03	2.599540E-04	9.268489E-06
4.604766E+03	2.625983E-04	9.355285E-06
4.614711E+03	2.651759E-04	9.439575E-06
4.624657E+03	2.677885E-04	9.524983E-06
4.634602E+03	2.703517E-04	9.608506E-06
4.644548E+03	2.729681E-04	9.693796E-06
4.654493E+03	2.755493E-04	9.777710E-06
4.664439E+03	2.781487E-04	9.862146E-06
4.674384E+03	2.808195E-04	9.948988E-06
4.684330E+03	2.834663E-04	1.003485E-05
4.694275E+03	2.861890E-04	1.012328E-05
4.704221E+03	2.888881E-04	1.021074E-05
4.714166E+03	2.916624E-04	1.030073E-05
4.724112E+03	2.944067E-04	1.038954E-05
4.734057E+03	2.971678E-04	1.047882E-05
4.744003E+03	2.999927E-04	1.057021E-05
4.753948E+03	3.027716E-04	1.065986E-05
4.763894E+03	3.056060E-04	1.075133E-05
4.773839E+03	3.083870E-04	1.084081E-05
4.783785E+03	3.111689E-04	1.093019E-05
4.793730E+03	3.140100E-04	1.102153E-05
4.803676E+03	3.168080E-04	1.111124E-05
4.813621E+03	3.196829E-04	1.120352E-05
4.823567E+03	3.225352E-04	1.129489E-05
4.833512E+03	3.254331E-04	1.138773E-05
4.843458E+03	3.284465E-04	1.148450E-05
4.853403E+03	3.314721E-04	1.158156E-05
4.863349E+03	3.346342E-04	1.168327E-05
4.873294E+03	3.378206E-04	1.178570E-05
4.883240E+03	3.410918E-04	1.189095E-05
4.893185E+03	3.445057E-04	1.200104E-05
4.903131E+03	3.479377E-04	1.211163E-05
4.913076E+03	3.515029E-04	1.222670E-05
4.923022E+03	3.550697E-04	1.234170E-05
4.932967E+03	3.586886E-04	1.245837E-05
4.942913E+03	3.624108E-04	1.257848E-05
4.952858E+03	3.660946E-04	1.269712E-05
4.962804E+03	3.697851E-04	1.281585E-05
4.972749E+03	3.735274E-04	1.293624E-05
4.982695E+03	3.771707E-04	1.305306E-05
4.992640E+03	3.807600E-04	1.316789E-05
5.002586E+03	3.843471E-04	1.328252E-05
5.012531E+03	3.877876E-04	1.339196E-05
5.022477E+03	3.911456E-04	1.349844E-05
5.032422E+03	3.944952E-04	1.360453E-05
5.042368E+03	3.977092E-04	1.370584E-05
5.052313E+03	4.008722E-04	1.380530E-05
5.062259E+03	4.040717E-04	1.390593E-05
5.072204E+03	4.071840E-04	1.400347E-05
5.082150E+03	4.102941E-04	1.410085E-05
5.092095E+03	4.134853E-04	1.420094E-05
5.102041E+03	4.166187E-04	1.429897E-05
5.111986E+03	4.197663E-04	1.439741E-05
5.121932E+03	4.229965E-04	1.449860E-05
5.131877E+03	4.261508E-04	1.459712E-05
5.141823E+03	4.292877E-04	1.469499E-05
5.151768E+03	4.324660E-04	1.479421E-05
5.161714E+03	4.355159E-04	1.488897E-05
5.171659E+03	4.384939E-04	1.498123E-05
5.181605E+03	4.413823E-04	1.507037E-05
5.191550E+03	4.442419E-04	1.515850E-05
5.201496E+03	4.469037E-04	1.523985E-05
5.211441E+03	4.494335E-04	1.531668E-05
5.221387E+03	4.519019E-04	1.539140E-05
5.231332E+03	4.541460E-04	1.545847E-05
5.241278E+03	4.562421E-04	1.552052E-05
5.251223E+03	4.581899E-04	1.557753E-05
5.261169E+03	4.600705E-04	1.563228E-05
5.271114E+03	4.617217E-04	1.567928E-05
5.281060E+03	4.632210E-04	1.572115E-05
5.291005E+03	4.646438E-04	1.576047E-05
5.300951E+03	4.658209E-04	1.579153E-05
5.310896E+03	4.668281E-04	1.581689E-05
5.320842E+03	4.676631E-04	1.583649E-05
5.330787E+03	4.684126E-04	1.585328E-05
5.340733E+03	4.689243E-04	1.586212E-05
5.350678E+03	4.692970E-04	1.586635E-05
5.360624E+03	4.695519E-04	1.586672E-05
5.370569E+03	4.697936E-04	1.586675E-05
5.380515E+03	4.698777E-04	1.586158E-05
5.390460E+03	4.699030E-04	1.585454E-05
5.400406E+03	4.698817E-04	1.584606E-05
5.410351E+03	4.698230E-04	1.583643E-05
5.420297E+03	4.698163E-04	1.582870E-05
5.430242E+03	4.697014E-04	1.581744E-05
5.440188E+03	4.695622E-04	1.580549E-05
5.450133E+03	4.693962E-04	1.579277E-05
5.460079E+03	4.692817E-04	1.578192E-05
5.470024E+03	4.690498E-04	1.576725E-05
5.479970E+03	4.687799E-04	1.575145E-05
5.489915E+03	4.684676E-04	1.573435E-05
5.499861E+03	4.681054E-04	1.571573E-05
5.509806E+03	4.677635E-04	1.569792E-05
5.519752E+03	4.672644E-04	1.567499E-05
5.529697E+03	4.666750E-04	1.564917E-05
5.539643E+03	4.659795E-04	1.561994E-05
5.549588E+03	4.651655E-04	1.558690E-05
5.559534E+03	4.642219E-04	1.554967E-05
5.569479E+03	4.632230E-04	1.551074E-05
5.579425E+03	4.620044E-04	1.546463E-05
5.589370E+03	4.606490E-04	1.541410E-05
5.599316E+03	4.591641E-04	1.535941E-05
5.609261E+03	4.575600E-04	1.530090E-05
5.619207E+03	4.559305E-04	1.524171E-05
5.629152E+03	4.541325E-04	1.517707E-05
5.639098E+03	4.522665E-04	1.511033E-05
5.649043E+03	4.503551E-04	1.504225E-05
5.658989E+03	4.484245E-04	1.497371E-05
5.668934E+03	4.465052E-04	1.490572E-05
5.678880E+03	4.446296E-04	1.483937E-05
5.688825E+03	4.429105E-04	1.477841E-05
5.698771E+03	4.412273E-04	1.471882E-05
5.708716E+03	4.396914E-04	1.466432E-05
5.718662E+03	4.383322E-04	1.461587E-05
5.728607E+03	4.371732E-04	1.457426E-05
5.738553E+03	4.362305E-04	1.454003E-05
5.748498E+03	4.355120E-04	1.451343E-05
5.758444E+03	4.350941E-04	1.449699E-05
5.768389E+03	4.348170E-04	1.448541E-05
5.778335E+03	4.347436E-04	1.448077E-05
5.788280E+03	4.348553E-04	1.448244E-05
5.798226E+03	4.351301E-04	1.448969E-05
5.808171E+03	4.355428E-04	1.450169E-05
5.818117E+03	4.360645E-04	1.451748E-05
5.828062E+03	4.366631E-04	1.453598E-05
5.838008E+03	4.373012E-04	1.455595E-05
5.847953E+03	4.380151E-04	1.457861E-05
5.857899E+03	4.386093E-04	1.459744E-05
5.867844E+03	4.391192E-04	1.461363E-05
5.877790E+03	4.395075E-04	1.462593E-05
5.887735E+03	4.397440E-04	1.463336E-05
5.897681E+03	4.398078E-04	1.463521E-05
5.907626E+03	4.396872E-04	1.463109E-05
5.917572E+03	4.393787E-04	1.462090E-05
5.927517E+03	4.388857E-04	1.460474E-05
5.937463E+03	4.382169E-04	1.458291E-05
5.947408E+03	4.373863E-04	1.455587E-05
5.957354E+03	4.364127E-04	1.452425E-05
5.967299E+03	4.353981E-04	1.449143E-05
5.977245E+03	4.342220E-04	1.445342E-05
5.987190E+03	4.330005E-04	1.441408E-05
5.997136E+03	4.317812E-04	1.437499E-05
6.007081E+03	4.306188E-04	1.433796E-05
6.017027E+03	4.295746E-04	1.430505E-05
6.026972E+03	4.287183E-04	1.427858E-05
6.036918E+03	4.281284E-04	1.426116E-05
6.046863E+03	4.278919E-04	1.425570E-05
6.056809E+03	4.281037E-04	1.426536E-05
6.066754E+03	4.288646E-04	1.429352E-05
6.076700E+03	4.302791E-04	1.434368E-05
6.086645E+03	4.324528E-04	1.441937E-05
6.096591E+03	4.354931E-04	1.452419E-05
6.106536E+03	4.395042E-04	1.466166E-05
6.116482E+03	4.445859E-04	1.483512E-05
6.126427E+03	4.508294E-04	1.504767E-05
6.136373E+03	4.583112E-04	1.530190E-05
6.146318E+03	4.670893E-04	1.559980E-05
6.156264E+03	4.771972E-04	1.594253E-05
6.166209E+03	4.886398E-04	1.633033E-05
6.176155E+03	5.013842E-04	1.676215E-05
6.186100E+03	5.153489E-04	1.723534E-05
6.196046E+03	5.303884E-04	1.774509E-05
6.205991E+03	5.462832E-04	1.828411E-05
6.215937E+03	5.627315E-04	1.884234E-05
6.225882E+03	5.793487E-04	1.940696E-05
6.235828E+03	5.956745E-04	1.996255E-05
6.245773E+03	6.111946E-04	2.049188E-05
6.255719E+03	6.253706E-04	2.097688E-05
6.265664E+03	6.376758E-04	2.139981E-05
6.275610E+03	6.476378E-04	2.174474E-05
6.285555E+03	6.548727E-04	2.199868E-05
6.295501E+03	6.591114E-04	2.215243E-05
6.305446E+03	6.602152E-04	2.220118E-05
6.315392E+03	6.581781E-04	2.214457E-05
6.325337E+03	6.531233E-04	2.198656E-05
6.335283E+03	6.452910E-04	2.173507E-05
6.345228E+03	6.350184E-04	2.140128E-05
6.355174E+03	6.227172E-04	2.099894E-05
6.365119E+03	6.088430E-04	2.054326E-05
6.375065E+03	5.938664E-04	2.005003E-05
6.385010E+03	5.782421E-04	1.953452E-05
6.394956E+03	5.623829E-04	1.901062E-05
6.404901E+03	5.466418E-04	1.849024E-05
6.414847E+03	5.313034E-04	1.798300E-05
6.424792E+03	5.165834E-04	1.749621E-05
6.434738E+03	5.026326E-04	1.703501E-05
6.444683E+03	4.895476E-04	1.660270E-05
6.454629E+03	4.773784E-04	1.620102E-05
6.464574E+03	4.661404E-04	1.583056E-05
6.474520E+03	4.557434E-04	1.548830E-05
6.484465E+03	4.463198E-04	1.517877E-05
6.494411E+03	4.377468E-04	1.489788E-05
6.504356E+03	4.299757E-04	1.464400E-05
6.514302E+03	4.229518E-04	1.441533E-05
6.524247E+03	4.166189E-04	1.421000E-05
6.534193E+03	4.109191E-04	1.402606E-05
6.544138E+03	4.057954E-04	1.386163E-05
6.554084E+03	4.011920E-04	1.371482E-05
6.564029E+03	3.970557E-04	1.358386E-05
6.573975E+03	3.933335E-04	1.346696E-05
6.583920E+03	3.899733E-04	1.336236E-05
6.593866E+03	3.868568E-04	1.326604E-05
6.603811E+03	3.840709E-04	1.318098E-05
6.613757E+03	3.815016E-04	1.310330E-05
6.623702E+03	3.791074E-04	1.303158E-05
6.633648E+03	3.768532E-04	1.296463E-05
6.643593E+03	3.747126E-04	1.290154E-05
6.653539E+03	3.726655E-04	1.284164E-05
6.663484E+03	3.707009E-04	1.278454E-05
6.673430E+03	3.688132E-04	1.273006E-05
6.683375E+03	3.670036E-04	1.267824E-05
6.693321E+03	3.652126E-04	1.262703E-05
6.703266E+03	3.635741E-04	1.258106E-05
6.713212E+03	3.620319E-04	1.253839E-05
6.723157E+03	3.605919E-04	1.249924E-05
6.733103E+03	3.592583E-04	1.246376E-05
6.743048E+03	3.580323E-04	1.243200E-05
6.752994E+03	3.569134E-04	1.240394E-05
6.762939E+03	3.558991E-04	1.237951E-05
6.772885E+03	3.549227E-04	1.235639E-05
6.782830E+03	3.541026E-04	1.233871E-05
6.792776E+03	3.533697E-04	1.232407E-05
6.802721E+03	3.527171E-04	1.231224E-05
6.812667E+03	3.521377E-04	1.230298E-05
6.822612E+03	3.516252E-04	1.229607E-05
6.832558E+03	3.511737E-04	1.229130E-05
6.842503E+03	3.507173E-04	1.228638E-05
6.852449E+03	3.503727E-04	1.228539E-05
6.862394E+03	3.500747E-04	1.228606E-05
6.872340E+03	3.498171E-04	1.228817E-05
6.882285E+03	3.495950E-04	1.229154E-05
6.892231E+03	3.494012E-04	1.229593E-05
6.902176E+03	3.491694E-04	1.229902E-05
6.912122E+03	3.490158E-04	1.230487E-05
6.922067E+03	3.488755E-04	1.231121E-05
6.932013E+03	3.487465E-04	1.231798E-05
6.941958E+03	3.486295E-04	1.232519E-05
6.951904E+03	3.485273E-04	1.233295E-05
6.961849E+03	3.483848E-04	1.233930E-05
6.971795E+03	3.483308E-04	1.234880E-05
6.981740E+03	3.483127E-04	1.235960E-05
6.991686E+03	3.483404E-04	1.237205E-05
7.001631E+03	3.484238E-04	1.238650E-05
7.011577E+03	3.485734E-04	1.240334E-05
7.021522E+03	3.487383E-04	1.242075E-05
7.031468E+03	3.490495E-04	1.244340E-05
7.041413E+03	3.494542E-04	1.246943E-05
7.051359E+03	3.499591E-04	1.249908E-05
7.061304E+03	3.505691E-04	1.253254E-05
7.071250E+03	3.512262E-04	1.256774E-05
7.081195E+03	3.520546E-04	1.260913E-05
7.091141E+03	3.529924E-04	1.265451E-05
7.101086E+03	3.540371E-04	1.270380E-05
7.111032E+03	3.551846E-04	1.275686E-05
7.120977E+03	3.563663E-04	1.281124E-05
7.130923E+03	3.576982E-04	1.287111E-05
7.140868E+03	3.591089E-04	1.293391E-05
7.150814E+03	3.605866E-04	1.299923E-05
7.160759E+03	3.621174E-04	1.306657E-05
7.170705E+03	3.636223E-04	1.313309E-05
7.180650E+03	3.652091E-04	1.320267E-05
7.190596E+03	3.667921E-04	1.327222E-05
7.200541E+03	3.683463E-04	1.334083E-05
7.210487E+03	3.697790E-04	1.340515E-05
7.220432E+03	3.711883E-04	1.346871E-05
7.230378E+03	3.724770E-04	1.352799E-05
7.240323E+03	3.736118E-04	1.358176E-05
7.250269E+03	3.744934E-04	1.362638E-05
7.260214E+03	3.752217E-04	1.366548E-05
7.270160E+03	3.757032E-04	1.369563E-05
7.280105E+03	3.759147E-04	1.371595E-05
7.290051E+03	3.758390E-04	1.372579E-05
7.299996E+03	3.753985E-04	1.372228E-05
7.309942E+03	3.747195E-04	1.371001E-05
7.319887E+03	3.737367E-04	1.368656E-05
7.329833E+03	3.724550E-04	1.365208E-05
7.339778E+03	3.708198E-04	1.360453E-05
7.349724E+03	3.689745E-04	1.354915E-05
7.359669E+03	3.668690E-04	1.348407E-05
7.369615E+03	3.645199E-04	1.340988E-05
7.379560E+03	3.618804E-04	1.332482E-05
7.389506E+03	3.590938E-04	1.323415E-05
7.399451E+03	3.561113E-04	1.313606E-05
7.409397E+03	3.528856E-04	1.302878E-05
7.419342E+03	3.495545E-04	1.291737E-05
7.429288E+03	3.460688E-04	1.280001E-05
7.439233E+03	3.424411E-04	1.267714E-05
7.449179E+03	3.386245E-04	1.254702E-05
7.459124E+03	3.347501E-04	1.241449E-05
7.469069E+03	3.307696E-04	1.227775E-05
7.479015E+03	3.266943E-04	1.213720E-05
7.488960E+03	3.224784E-04	1.199114E-05
7.498906E+03	3.182460E-04	1.184418E-05
7.508851E+03	3.139502E-04	1.169455E-05
7.518797E+03	3.095461E-04	1.154060E-05
7.528742E+03	3.051524E-04	1.138672E-05
7.538688E+03	3.007228E-04	1.123119E-05
7.548633E+03	2.962656E-04	1.107434E-05
7.558579E+03	2.917378E-04	1.091453E-05
7.568524E+03	2.872499E-04	1.075590E-05
7.578470E+03	2.827570E-04	1.059678E-05
7.588415E+03	2.782172E-04	1.043558E-05
7.598361E+03	2.737350E-04	1.027624E-05
7.608306E+03	2.692669E-04	1.011712E-05
7.618252E+03	2.647717E-04	9.956685E-06
7.628197E+03	2.603484E-04	9.798642E-06
7.638143E+03	2.559544E-04	9.641402E-06
7.648088E+03	2.515941E-04	9.485136E-06
7.658034E+03	2.472282E-04	9.328363E-06
7.667979E+03	2.429479E-04	9.174526E-06
7.677925E+03	2.387124E-04	9.022095E-06
7.687870E+03	2.344837E-04	8.869634E-06
7.697816E+03	2.303476E-04	8.720393E-06
7.707761E+03	2.262645E-04	8.572887E-06
7.717707E+03	2.221980E-04	8.425731E-06
