#wls	flux	fluxerr
1.567091E+03	4.460975E-03	1.350128E-07
1.606268E+03	4.562216E-03	1.380769E-07
1.645446E+03	4.671354E-03	1.413800E-07
1.684623E+03	4.788709E-03	1.449318E-07
1.723800E+03	4.916335E-03	1.487945E-07
1.762977E+03	5.053522E-03	1.529464E-07
1.802155E+03	5.202443E-03	1.574536E-07
1.841332E+03	5.363646E-03	1.623325E-07
1.880509E+03	5.538902E-03	1.676366E-07
1.919687E+03	5.728925E-03	1.733877E-07
1.958864E+03	5.935690E-03	1.796455E-07
1.998041E+03	6.161312E-03	1.864740E-07
2.037218E+03	6.407463E-03	1.939239E-07
2.076396E+03	6.677784E-03	2.021052E-07
2.115573E+03	6.976775E-03	2.111543E-07
2.154750E+03	7.308646E-03	2.211984E-07
2.193928E+03	7.679191E-03	2.324131E-07
2.233105E+03	8.096564E-03	2.450450E-07
2.272282E+03	8.565699E-03	2.592435E-07
2.311459E+03	9.092675E-03	2.751925E-07
2.350637E+03	9.682193E-03	2.930345E-07
2.389814E+03	1.034012E-02	3.129468E-07
2.428991E+03	1.107299E-02	3.351273E-07
2.468168E+03	1.188793E-02	3.597918E-07
2.507346E+03	1.279426E-02	3.872221E-07
2.546523E+03	1.380210E-02	4.177247E-07
2.585700E+03	1.492015E-02	4.515626E-07
2.624878E+03	1.616157E-02	4.891344E-07
2.664055E+03	1.753718E-02	5.307678E-07
2.703232E+03	1.905898E-02	5.768253E-07
2.742409E+03	2.073736E-02	6.276220E-07
2.781587E+03	2.258554E-02	6.835576E-07
2.820764E+03	2.461571E-02	7.450012E-07
2.859941E+03	2.684346E-02	8.124246E-07
2.899119E+03	2.928615E-02	8.863533E-07
2.938296E+03	3.195970E-02	9.672688E-07
2.948090E+03	3.266558E-02	9.886323E-07
2.957884E+03	3.338634E-02	1.010446E-06
2.967679E+03	3.412270E-02	1.032732E-06
2.977473E+03	3.487433E-02	1.055481E-06
2.987267E+03	3.564184E-02	1.078710E-06
2.997062E+03	3.642484E-02	1.102407E-06
3.006856E+03	3.722283E-02	1.126558E-06
3.016650E+03	3.803624E-02	1.151177E-06
3.026445E+03	3.886446E-02	1.176243E-06
3.036239E+03	3.970882E-02	1.201798E-06
3.046033E+03	4.056651E-02	1.227756E-06
3.055828E+03	4.143972E-02	1.254184E-06
3.065622E+03	4.232542E-02	1.280990E-06
3.075416E+03	4.322565E-02	1.308235E-06
3.085211E+03	4.413716E-02	1.335822E-06
3.095005E+03	4.506074E-02	1.363775E-06
3.104799E+03	4.599603E-02	1.392081E-06
3.114594E+03	4.694043E-02	1.420664E-06
3.124388E+03	4.789440E-02	1.449536E-06
3.134182E+03	4.885508E-02	1.478611E-06
3.143976E+03	4.982156E-02	1.507862E-06
3.153771E+03	5.079284E-02	1.537258E-06
3.163565E+03	5.176666E-02	1.566731E-06
3.173359E+03	5.274170E-02	1.596240E-06
3.183154E+03	5.371543E-02	1.625711E-06
3.192948E+03	5.468518E-02	1.655060E-06
3.202742E+03	5.564918E-02	1.684236E-06
3.212537E+03	5.660447E-02	1.713148E-06
3.222331E+03	5.754798E-02	1.741703E-06
3.232125E+03	5.847758E-02	1.769838E-06
3.241920E+03	5.938997E-02	1.797452E-06
3.251714E+03	6.028287E-02	1.824475E-06
3.261508E+03	6.115074E-02	1.850742E-06
3.271303E+03	6.199229E-02	1.876211E-06
3.281097E+03	6.280200E-02	1.900717E-06
3.290891E+03	6.357969E-02	1.924254E-06
3.300686E+03	6.431901E-02	1.946630E-06
3.310480E+03	6.501692E-02	1.967752E-06
3.320274E+03	6.567267E-02	1.987599E-06
3.330069E+03	6.628068E-02	2.006000E-06
3.339863E+03	6.683882E-02	2.022892E-06
3.349657E+03	6.734544E-02	2.038225E-06
3.359452E+03	6.779842E-02	2.051935E-06
3.369246E+03	6.819632E-02	2.063977E-06
3.379040E+03	6.853749E-02	2.074303E-06
3.388834E+03	6.882309E-02	2.082946E-06
3.398629E+03	6.905246E-02	2.089888E-06
3.408420E+03	8.665117E-02	2.622517E-06
3.409860E+03	8.711102E-02	2.636435E-06
3.411300E+03	8.710192E-02	2.636159E-06
3.412739E+03	8.691650E-02	2.630548E-06
3.414180E+03	8.679810E-02	2.626964E-06
3.415620E+03	8.606876E-02	2.604890E-06
3.417060E+03	8.531432E-02	2.582057E-06
3.418500E+03	8.488109E-02	2.568945E-06
3.419940E+03	8.490375E-02	2.569631E-06
3.421380E+03	8.538616E-02	2.584231E-06
3.422820E+03	8.589730E-02	2.599701E-06
3.424260E+03	8.617181E-02	2.608009E-06
3.425700E+03	8.649261E-02	2.617718E-06
3.427140E+03	8.648091E-02	2.617364E-06
3.428580E+03	8.583527E-02	2.597824E-06
3.430020E+03	8.521415E-02	2.579025E-06
3.431460E+03	8.486567E-02	2.568478E-06
3.432900E+03	8.477578E-02	2.565758E-06
3.434340E+03	8.483140E-02	2.567441E-06
3.435780E+03	8.480906E-02	2.566765E-06
3.437220E+03	8.439293E-02	2.554171E-06
3.438660E+03	8.412222E-02	2.545978E-06
3.440100E+03	8.408930E-02	2.544981E-06
3.441540E+03	8.376163E-02	2.535064E-06
3.442980E+03	8.338764E-02	2.523746E-06
3.444420E+03	8.302063E-02	2.512638E-06
3.445860E+03	8.268549E-02	2.502495E-06
3.447300E+03	8.236088E-02	2.492670E-06
3.448740E+03	8.212866E-02	2.485642E-06
3.450180E+03	8.222027E-02	2.488415E-06
3.451620E+03	8.221233E-02	2.488175E-06
3.453060E+03	8.200150E-02	2.481794E-06
3.454500E+03	8.178706E-02	2.475304E-06
3.455940E+03	8.140865E-02	2.463851E-06
3.457380E+03	8.103362E-02	2.452501E-06
3.458810E+03	8.086867E-02	2.447508E-06
3.460250E+03	8.072173E-02	2.443061E-06
3.461690E+03	8.078892E-02	2.445094E-06
3.463130E+03	8.121324E-02	2.457937E-06
3.464570E+03	8.139512E-02	2.463441E-06
3.466010E+03	8.149148E-02	2.466358E-06
3.467451E+03	8.164878E-02	2.471118E-06
3.468890E+03	8.157749E-02	2.468961E-06
3.470330E+03	8.147763E-02	2.465938E-06
3.471770E+03	8.148871E-02	2.466274E-06
3.473210E+03	8.160011E-02	2.469645E-06
3.474650E+03	8.165799E-02	2.471397E-06
3.476090E+03	8.164797E-02	2.471094E-06
3.477530E+03	8.121171E-02	2.457890E-06
3.478970E+03	8.017312E-02	2.426457E-06
3.480410E+03	7.899048E-02	2.390664E-06
3.481850E+03	7.837375E-02	2.371999E-06
3.483290E+03	7.779614E-02	2.354517E-06
3.484730E+03	7.694184E-02	2.328662E-06
3.486170E+03	7.659327E-02	2.318112E-06
3.487610E+03	7.661092E-02	2.318646E-06
3.489050E+03	7.696643E-02	2.329406E-06
3.490490E+03	7.754517E-02	2.346922E-06
3.491929E+03	7.763901E-02	2.349762E-06
3.493370E+03	7.720781E-02	2.336711E-06
3.494810E+03	7.714705E-02	2.334872E-06
3.496250E+03	7.710794E-02	2.333689E-06
3.497690E+03	7.742904E-02	2.343407E-06
3.499130E+03	7.792702E-02	2.358478E-06
3.500570E+03	7.734786E-02	2.340950E-06
3.502010E+03	7.720822E-02	2.336723E-06
3.503450E+03	7.754829E-02	2.347016E-06
3.504890E+03	7.680264E-02	2.324449E-06
3.506330E+03	7.583270E-02	2.295093E-06
3.507770E+03	7.592379E-02	2.297850E-06
3.509210E+03	7.621011E-02	2.306516E-06
3.510650E+03	7.638474E-02	2.311801E-06
3.512090E+03	7.671869E-02	2.321908E-06
3.513530E+03	7.694088E-02	2.328632E-06
3.514970E+03	7.657719E-02	2.317625E-06
3.516410E+03	7.613730E-02	2.304312E-06
3.517850E+03	7.670386E-02	2.321459E-06
3.519280E+03	7.723091E-02	2.337410E-06
3.520720E+03	7.602276E-02	2.300845E-06
3.522160E+03	7.431703E-02	2.249221E-06
3.523600E+03	7.323749E-02	2.216548E-06
3.525040E+03	7.293367E-02	2.207353E-06
3.526480E+03	7.330853E-02	2.218699E-06
3.527920E+03	7.390531E-02	2.236760E-06
3.529360E+03	7.448090E-02	2.254181E-06
3.530800E+03	7.526423E-02	2.277888E-06
3.532240E+03	7.619013E-02	2.305911E-06
3.533680E+03	7.664766E-02	2.319758E-06
3.535120E+03	7.673448E-02	2.322386E-06
3.536560E+03	7.735666E-02	2.341216E-06
3.538000E+03	7.821986E-02	2.367341E-06
3.539440E+03	7.902559E-02	2.391726E-06
3.540880E+03	7.897547E-02	2.390210E-06
3.542320E+03	7.924634E-02	2.398407E-06
3.543760E+03	7.993348E-02	2.419204E-06
3.545200E+03	7.971975E-02	2.412735E-06
3.546640E+03	7.946944E-02	2.405160E-06
3.548080E+03	7.979257E-02	2.414939E-06
3.549520E+03	8.004299E-02	2.422518E-06
3.550960E+03	8.060087E-02	2.439403E-06
3.552400E+03	8.143370E-02	2.464608E-06
3.553840E+03	8.208439E-02	2.484301E-06
3.555280E+03	8.248680E-02	2.496481E-06
3.556720E+03	8.235490E-02	2.492489E-06
3.558160E+03	8.223767E-02	2.488940E-06
3.559600E+03	8.219742E-02	2.487722E-06
3.561040E+03	8.206923E-02	2.483843E-06
3.562480E+03	8.164747E-02	2.471078E-06
3.563920E+03	8.192294E-02	2.479415E-06
3.565360E+03	8.244851E-02	2.495322E-06
3.566800E+03	8.290486E-02	2.509133E-06
3.568240E+03	8.321101E-02	2.518399E-06
3.569680E+03	8.317922E-02	2.517437E-06
3.571119E+03	8.286786E-02	2.508013E-06
3.572560E+03	8.257841E-02	2.499253E-06
3.574000E+03	8.206047E-02	2.483578E-06
3.575440E+03	8.143531E-02	2.464657E-06
3.576880E+03	8.094238E-02	2.449738E-06
3.578320E+03	8.078102E-02	2.444855E-06
3.579750E+03	8.087394E-02	2.447667E-06
3.581190E+03	8.056125E-02	2.438203E-06
3.582630E+03	7.991231E-02	2.418563E-06
3.584071E+03	7.873448E-02	2.382916E-06
3.585510E+03	7.795858E-02	2.359433E-06
3.586950E+03	7.724123E-02	2.337722E-06
3.588390E+03	7.600896E-02	2.300427E-06
3.589830E+03	7.461642E-02	2.258282E-06
3.591270E+03	7.378933E-02	2.233249E-06
3.592710E+03	7.334690E-02	2.219859E-06
3.594150E+03	7.283741E-02	2.204439E-06
3.595590E+03	7.248331E-02	2.193723E-06
3.597030E+03	7.238130E-02	2.190635E-06
3.598470E+03	7.181891E-02	2.173614E-06
3.599910E+03	7.086975E-02	2.144888E-06
3.601350E+03	7.010556E-02	2.121760E-06
3.602790E+03	6.963447E-02	2.107502E-06
3.604230E+03	6.963171E-02	2.107418E-06
3.605670E+03	6.970721E-02	2.109703E-06
3.607110E+03	6.966371E-02	2.108387E-06
3.608549E+03	6.970595E-02	2.109665E-06
3.609990E+03	6.975951E-02	2.111286E-06
3.611430E+03	6.980574E-02	2.112685E-06
3.612870E+03	7.007227E-02	2.120752E-06
3.614310E+03	6.995090E-02	2.117079E-06
3.615750E+03	6.952324E-02	2.104135E-06
3.617190E+03	6.939418E-02	2.100229E-06
3.618630E+03	6.931369E-02	2.097793E-06
3.620070E+03	6.910602E-02	2.091508E-06
3.621510E+03	6.874103E-02	2.080462E-06
3.622950E+03	6.832708E-02	2.067933E-06
3.624390E+03	6.755312E-02	2.044509E-06
3.625830E+03	6.660977E-02	2.015958E-06
3.627270E+03	6.618681E-02	2.003158E-06
3.628710E+03	6.645393E-02	2.011242E-06
3.630150E+03	6.643233E-02	2.010588E-06
3.631590E+03	6.599759E-02	1.997431E-06
3.633030E+03	6.594582E-02	1.995864E-06
3.634470E+03	6.558948E-02	1.985079E-06
3.635910E+03	6.518394E-02	1.972805E-06
3.637350E+03	6.498131E-02	1.966673E-06
3.638790E+03	6.497815E-02	1.966577E-06
3.640230E+03	6.454924E-02	1.953596E-06
3.641660E+03	6.402169E-02	1.937629E-06
3.643100E+03	6.339202E-02	1.918573E-06
3.644540E+03	6.281837E-02	1.901211E-06
3.645980E+03	6.287102E-02	1.902804E-06
3.647420E+03	6.240617E-02	1.888735E-06
3.648860E+03	6.194467E-02	1.874768E-06
3.650300E+03	6.184961E-02	1.871891E-06
3.651740E+03	6.149717E-02	1.861224E-06
3.653180E+03	6.107247E-02	1.848371E-06
3.654620E+03	6.113987E-02	1.850411E-06
3.656060E+03	6.091173E-02	1.843506E-06
3.657500E+03	6.023207E-02	1.822936E-06
3.658940E+03	5.998434E-02	1.815438E-06
3.660380E+03	5.981611E-02	1.810347E-06
3.661820E+03	5.955278E-02	1.802377E-06
3.663261E+03	5.963131E-02	1.804754E-06
3.664700E+03	5.935247E-02	1.796315E-06
3.666140E+03	5.848357E-02	1.770017E-06
3.667580E+03	5.742337E-02	1.737930E-06
3.669020E+03	5.707061E-02	1.727254E-06
3.670460E+03	5.677088E-02	1.718182E-06
3.671900E+03	5.682553E-02	1.719836E-06
3.673340E+03	5.694134E-02	1.723341E-06
3.674780E+03	5.705734E-02	1.726852E-06
3.676220E+03	5.675327E-02	1.717649E-06
3.677660E+03	5.665532E-02	1.714685E-06
3.679100E+03	5.651523E-02	1.710445E-06
3.680540E+03	5.612246E-02	1.698558E-06
3.681980E+03	5.597817E-02	1.694191E-06
3.683420E+03	5.639692E-02	1.706864E-06
3.684860E+03	5.655169E-02	1.711548E-06
3.686300E+03	5.602780E-02	1.695693E-06
3.687739E+03	5.530764E-02	1.673897E-06
3.689180E+03	5.502058E-02	1.665209E-06
3.690620E+03	5.462182E-02	1.653140E-06
3.692060E+03	5.399582E-02	1.634194E-06
3.693500E+03	5.355378E-02	1.620816E-06
3.694940E+03	5.313819E-02	1.608238E-06
3.696380E+03	5.245260E-02	1.587488E-06
3.697820E+03	5.210531E-02	1.576978E-06
3.699261E+03	5.199668E-02	1.573690E-06
3.700700E+03	5.176838E-02	1.566780E-06
3.702140E+03	5.161703E-02	1.562200E-06
3.703570E+03	5.138423E-02	1.555154E-06
3.705010E+03	5.096204E-02	1.542376E-06
3.706450E+03	5.040792E-02	1.525606E-06
3.707890E+03	4.978742E-02	1.506826E-06
3.709330E+03	4.914685E-02	1.487439E-06
3.710770E+03	4.874959E-02	1.475416E-06
3.712210E+03	4.815034E-02	1.457280E-06
3.713650E+03	4.750389E-02	1.437715E-06
3.715090E+03	4.719815E-02	1.428461E-06
3.716530E+03	4.695030E-02	1.420960E-06
3.717970E+03	4.661283E-02	1.410747E-06
3.719410E+03	4.632941E-02	1.402169E-06
3.720850E+03	4.588620E-02	1.388755E-06
3.722290E+03	4.532963E-02	1.371910E-06
3.723730E+03	4.476464E-02	1.354811E-06
3.725170E+03	4.435873E-02	1.342526E-06
3.726610E+03	4.375353E-02	1.324209E-06
3.728050E+03	4.288627E-02	1.297961E-06
3.729490E+03	4.192821E-02	1.268966E-06
3.730930E+03	4.082453E-02	1.235562E-06
3.732370E+03	4.021583E-02	1.217140E-06
3.733810E+03	3.967681E-02	1.200826E-06
3.735250E+03	3.916846E-02	1.185441E-06
3.736690E+03	3.884702E-02	1.175713E-06
3.738130E+03	3.896591E-02	1.179311E-06
3.739570E+03	3.882429E-02	1.175025E-06
3.741010E+03	3.842014E-02	1.162793E-06
3.742450E+03	3.800649E-02	1.150274E-06
3.743890E+03	3.741525E-02	1.132380E-06
3.745330E+03	3.676319E-02	1.112645E-06
3.746770E+03	3.612647E-02	1.093375E-06
3.748210E+03	3.575177E-02	1.082034E-06
3.749650E+03	3.550022E-02	1.074421E-06
3.751090E+03	3.509674E-02	1.062210E-06
3.752530E+03	3.452173E-02	1.044807E-06
3.753970E+03	3.424456E-02	1.036418E-06
3.755410E+03	3.404358E-02	1.030336E-06
3.756850E+03	3.385264E-02	1.024557E-06
3.758290E+03	3.387282E-02	1.025168E-06
3.759730E+03	3.350921E-02	1.014163E-06
3.761170E+03	3.310244E-02	1.001852E-06
3.762610E+03	3.308066E-02	1.001193E-06
3.764040E+03	3.331097E-02	1.008163E-06
3.765480E+03	3.359838E-02	1.016861E-06
3.766920E+03	3.398288E-02	1.028498E-06
3.768360E+03	3.449244E-02	1.043920E-06
3.769800E+03	3.468344E-02	1.049701E-06
3.771240E+03	3.451598E-02	1.044633E-06
3.772680E+03	3.441987E-02	1.041724E-06
3.774119E+03	3.473686E-02	1.051318E-06
3.775560E+03	3.531212E-02	1.068728E-06
3.777000E+03	3.552571E-02	1.075193E-06
3.778440E+03	3.538894E-02	1.071053E-06
3.779881E+03	3.540112E-02	1.071422E-06
3.781320E+03	3.523818E-02	1.066490E-06
3.782760E+03	3.500637E-02	1.059475E-06
3.784200E+03	3.505468E-02	1.060936E-06
3.785640E+03	3.539000E-02	1.071085E-06
3.787080E+03	3.553258E-02	1.075400E-06
3.788520E+03	3.564692E-02	1.078861E-06
3.789960E+03	3.611657E-02	1.093075E-06
3.791400E+03	3.648662E-02	1.104274E-06
3.792840E+03	3.676211E-02	1.112612E-06
3.794280E+03	3.666246E-02	1.109596E-06
3.795720E+03	3.701426E-02	1.120244E-06
3.797160E+03	3.743718E-02	1.133043E-06
3.798600E+03	3.755116E-02	1.136493E-06
3.800040E+03	3.792868E-02	1.147919E-06
3.801480E+03	3.847325E-02	1.164400E-06
3.802920E+03	3.857518E-02	1.167485E-06
3.804360E+03	3.885370E-02	1.175914E-06
3.805800E+03	3.958004E-02	1.197897E-06
3.807240E+03	4.036334E-02	1.221604E-06
3.808680E+03	4.097364E-02	1.240075E-06
3.810120E+03	4.142718E-02	1.253801E-06
3.811560E+03	4.182872E-02	1.265954E-06
3.813000E+03	4.236825E-02	1.282283E-06
3.814440E+03	4.296104E-02	1.300224E-06
3.815881E+03	4.354241E-02	1.317819E-06
3.817320E+03	4.420957E-02	1.338011E-06
3.818760E+03	4.534376E-02	1.372338E-06
3.820200E+03	4.608586E-02	1.394797E-06
3.821640E+03	4.699124E-02	1.422199E-06
3.823080E+03	4.782868E-02	1.447544E-06
3.824520E+03	4.877282E-02	1.476119E-06
3.825950E+03	4.955523E-02	1.499798E-06
3.827390E+03	5.056262E-02	1.530287E-06
3.828830E+03	5.191732E-02	1.571288E-06
3.830270E+03	5.292740E-02	1.601858E-06
3.831710E+03	5.371041E-02	1.625556E-06
3.833150E+03	5.474730E-02	1.656937E-06
3.834590E+03	5.546299E-02	1.678598E-06
3.836030E+03	5.602844E-02	1.695711E-06
3.837470E+03	5.659048E-02	1.712721E-06
3.838910E+03	5.754578E-02	1.741634E-06
3.840350E+03	5.885006E-02	1.781108E-06
3.841790E+03	5.995940E-02	1.814682E-06
3.843230E+03	6.080789E-02	1.840362E-06
3.844670E+03	6.157953E-02	1.863716E-06
3.846110E+03	6.238901E-02	1.888215E-06
3.847550E+03	6.335545E-02	1.917464E-06
3.848990E+03	6.425735E-02	1.944761E-06
3.850430E+03	6.520143E-02	1.973333E-06
3.851870E+03	6.597806E-02	1.996838E-06
3.853310E+03	6.697371E-02	2.026972E-06
3.854750E+03	6.774412E-02	2.050288E-06
3.856190E+03	6.851956E-02	2.073757E-06
3.857630E+03	6.934540E-02	2.098751E-06
3.859070E+03	7.027537E-02	2.126897E-06
3.860510E+03	7.125186E-02	2.156451E-06
3.861950E+03	7.236995E-02	2.190290E-06
3.863390E+03	7.339847E-02	2.221418E-06
3.864830E+03	7.447785E-02	2.254086E-06
3.866270E+03	7.564130E-02	2.289298E-06
3.867710E+03	7.662396E-02	2.319038E-06
3.869150E+03	7.768652E-02	2.351197E-06
3.870590E+03	7.870060E-02	2.381888E-06
3.872030E+03	7.957901E-02	2.408473E-06
3.873470E+03	8.053317E-02	2.437351E-06
3.874910E+03	8.184566E-02	2.477074E-06
3.876350E+03	8.323037E-02	2.518982E-06
3.877790E+03	8.459180E-02	2.560186E-06
3.879230E+03	8.603811E-02	2.603959E-06
3.880670E+03	8.756101E-02	2.650050E-06
3.882110E+03	8.902752E-02	2.694434E-06
3.883550E+03	9.019555E-02	2.729785E-06
3.884990E+03	9.124404E-02	2.761517E-06
3.886430E+03	9.239812E-02	2.796446E-06
3.887860E+03	9.349048E-02	2.829506E-06
3.889300E+03	9.449678E-02	2.859962E-06
3.890739E+03	9.562138E-02	2.893998E-06
3.892180E+03	9.692718E-02	2.933519E-06
3.893620E+03	9.797074E-02	2.965102E-06
3.895060E+03	9.891085E-02	2.993555E-06
3.896500E+03	9.997774E-02	3.025844E-06
3.897940E+03	1.011172E-01	3.060332E-06
3.899380E+03	1.024049E-01	3.099303E-06
3.900820E+03	1.036059E-01	3.135651E-06
3.902260E+03	1.046445E-01	3.167083E-06
3.903700E+03	1.058019E-01	3.202112E-06
3.905140E+03	1.070154E-01	3.238840E-06
3.906580E+03	1.081671E-01	3.273698E-06
3.908020E+03	1.094718E-01	3.313184E-06
3.909460E+03	1.105378E-01	3.345447E-06
3.910900E+03	1.114531E-01	3.373149E-06
3.912340E+03	1.124624E-01	3.403694E-06
3.913780E+03	1.132067E-01	3.426220E-06
3.915220E+03	1.138335E-01	3.445192E-06
3.916660E+03	1.142961E-01	3.459192E-06
3.918100E+03	1.147761E-01	3.473721E-06
3.919540E+03	1.152693E-01	3.488647E-06
3.920980E+03	1.161612E-01	3.515639E-06
3.922420E+03	1.167361E-01	3.533040E-06
3.923860E+03	1.168453E-01	3.536343E-06
3.925300E+03	1.171156E-01	3.544523E-06
3.926740E+03	1.175985E-01	3.559139E-06
3.928180E+03	1.178014E-01	3.565281E-06
3.929620E+03	1.180981E-01	3.574259E-06
3.931060E+03	1.187990E-01	3.595474E-06
3.932500E+03	1.191858E-01	3.607179E-06
3.933940E+03	1.195048E-01	3.616833E-06
3.935380E+03	1.201820E-01	3.637329E-06
3.936820E+03	1.206210E-01	3.650617E-06
3.938260E+03	1.207534E-01	3.654622E-06
3.939700E+03	1.209669E-01	3.661085E-06
3.941140E+03	1.213002E-01	3.671172E-06
3.942580E+03	1.216594E-01	3.682043E-06
3.944020E+03	1.217579E-01	3.685025E-06
3.945460E+03	1.218223E-01	3.686975E-06
3.946900E+03	1.219124E-01	3.689701E-06
3.948330E+03	1.219547E-01	3.690981E-06
3.949770E+03	1.218132E-01	3.686698E-06
3.951210E+03	1.217529E-01	3.684872E-06
3.952650E+03	1.218298E-01	3.687200E-06
3.954090E+03	1.216273E-01	3.681073E-06
3.955530E+03	1.212055E-01	3.668306E-06
3.956970E+03	1.210926E-01	3.664888E-06
3.958410E+03	1.210698E-01	3.664198E-06
3.959850E+03	1.209133E-01	3.659461E-06
3.961290E+03	1.206316E-01	3.650936E-06
3.962730E+03	1.202676E-01	3.639921E-06
3.964170E+03	1.200798E-01	3.634236E-06
3.965610E+03	1.199348E-01	3.629849E-06
3.967050E+03	1.197075E-01	3.622969E-06
3.968490E+03	1.195965E-01	3.619609E-06
3.969929E+03	1.196235E-01	3.620425E-06
3.971370E+03	1.194168E-01	3.614171E-06
3.972810E+03	1.193267E-01	3.611442E-06
3.974250E+03	1.196778E-01	3.622071E-06
3.975690E+03	1.196264E-01	3.620515E-06
3.977130E+03	1.192540E-01	3.609243E-06
3.978570E+03	1.189722E-01	3.600713E-06
3.980010E+03	1.183902E-01	3.583101E-06
3.981450E+03	1.178640E-01	3.567174E-06
3.982890E+03	1.177890E-01	3.564903E-06
3.984330E+03	1.177658E-01	3.564203E-06
3.985770E+03	1.178514E-01	3.566793E-06
3.987210E+03	1.177322E-01	3.563186E-06
3.988650E+03	1.169987E-01	3.540986E-06
3.990090E+03	1.160811E-01	3.513215E-06
3.991530E+03	1.155766E-01	3.497947E-06
3.992970E+03	1.152546E-01	3.488200E-06
3.994410E+03	1.147531E-01	3.473023E-06
3.995850E+03	1.139626E-01	3.449097E-06
3.997290E+03	1.134114E-01	3.432415E-06
3.998730E+03	1.126452E-01	3.409226E-06
4.000170E+03	1.122805E-01	3.398190E-06
4.001610E+03	1.115081E-01	3.374812E-06
4.003050E+03	1.107654E-01	3.352332E-06
4.004490E+03	1.101224E-01	3.332872E-06
4.005930E+03	1.094303E-01	3.311928E-06
4.007370E+03	1.085926E-01	3.286573E-06
4.008800E+03	1.080079E-01	3.268878E-06
4.010240E+03	1.072779E-01	3.246785E-06
4.011680E+03	1.065337E-01	3.224262E-06
4.013119E+03	1.058458E-01	3.203441E-06
4.014560E+03	1.050381E-01	3.178996E-06
4.016000E+03	1.044363E-01	3.160782E-06
4.017440E+03	1.038601E-01	3.143344E-06
4.018880E+03	1.030628E-01	3.119213E-06
4.020320E+03	1.025158E-01	3.102657E-06
4.021760E+03	1.022151E-01	3.093558E-06
4.023200E+03	1.020377E-01	3.088187E-06
4.024640E+03	1.015991E-01	3.074915E-06
