#wls	flux	fluxerr
1.567091E+03	3.274577E-04	3.787996E-05
1.606268E+03	3.261947E-04	3.748453E-05
1.645446E+03	3.250285E-04	3.709633E-05
1.684623E+03	3.239588E-04	3.671503E-05
1.723800E+03	3.229852E-04	3.634035E-05
1.762977E+03	3.221667E-04	3.597859E-05
1.802155E+03	3.214436E-04	3.562273E-05
1.841332E+03	3.208750E-04	3.527895E-05
1.880509E+03	3.204607E-04	3.494678E-05
1.919687E+03	3.202008E-04	3.462576E-05
1.958864E+03	3.200962E-04	3.431549E-05
1.998041E+03	3.202049E-04	3.402164E-05
2.037218E+03	3.205276E-04	3.374358E-05
2.076396E+03	3.210658E-04	3.348074E-05
2.115573E+03	3.218776E-04	3.323838E-05
2.154750E+03	3.229092E-04	3.301006E-05
2.193928E+03	3.242752E-04	3.280654E-05
2.233105E+03	3.258689E-04	3.261592E-05
2.272282E+03	3.278601E-04	3.245414E-05
2.311459E+03	3.302534E-04	3.232014E-05
2.350637E+03	3.330015E-04	3.220778E-05
2.389814E+03	3.362204E-04	3.212672E-05
2.428991E+03	3.398663E-04	3.207090E-05
2.468168E+03	3.441107E-04	3.205452E-05
2.507346E+03	3.489131E-04	3.207137E-05
2.546523E+03	3.543422E-04	3.212527E-05
2.585700E+03	3.604689E-04	3.221983E-05
2.624878E+03	3.673665E-04	3.235842E-05
2.664055E+03	3.751632E-04	3.254871E-05
2.703232E+03	3.838863E-04	3.278897E-05
2.742409E+03	3.936189E-04	3.308189E-05
2.781587E+03	4.044998E-04	3.343422E-05
2.820764E+03	4.167237E-04	3.385636E-05
2.859941E+03	4.302811E-04	3.434116E-05
2.899119E+03	4.454272E-04	3.490212E-05
2.938296E+03	4.623173E-04	3.554345E-05
2.948090E+03	4.668367E-04	3.571721E-05
2.957884E+03	4.714925E-04	3.589737E-05
2.967679E+03	4.762332E-04	3.607989E-05
2.977473E+03	4.811119E-04	3.626865E-05
2.987267E+03	4.861295E-04	3.646356E-05
2.997062E+03	4.912879E-04	3.666457E-05
3.006856E+03	4.965872E-04	3.687152E-05
3.016650E+03	5.020292E-04	3.708437E-05
3.026445E+03	5.076150E-04	3.730302E-05
3.036239E+03	5.133457E-04	3.752737E-05
3.046033E+03	5.192222E-04	3.775731E-05
3.055828E+03	5.252463E-04	3.799277E-05
3.065622E+03	5.314189E-04	3.823364E-05
3.075416E+03	5.377958E-04	3.848372E-05
3.085211E+03	5.443776E-04	3.874279E-05
3.095005E+03	5.510600E-04	3.900323E-05
3.104799E+03	5.579515E-04	3.927253E-05
3.114594E+03	5.650551E-04	3.955063E-05
3.124388E+03	5.723187E-04	3.983366E-05
3.134182E+03	5.797993E-04	4.012533E-05
3.143976E+03	5.874461E-04	4.042189E-05
3.153771E+03	5.953701E-04	4.073071E-05
3.163565E+03	6.034672E-04	4.104437E-05
3.173359E+03	6.117954E-04	4.136656E-05
3.183154E+03	6.203606E-04	4.169738E-05
3.192948E+03	6.291676E-04	4.203685E-05
3.202742E+03	6.382774E-04	4.238872E-05
3.212537E+03	6.475885E-04	4.274590E-05
3.222331E+03	6.572186E-04	4.311585E-05
3.232125E+03	6.671213E-04	4.349514E-05
3.241920E+03	6.773630E-04	4.388773E-05
3.251714E+03	6.879005E-04	4.429041E-05
3.261508E+03	6.988030E-04	4.470721E-05
3.271303E+03	7.100315E-04	4.513521E-05
3.281097E+03	7.216587E-04	4.557857E-05
3.290891E+03	7.337056E-04	4.603811E-05
3.300686E+03	7.461953E-04	4.651473E-05
3.310480E+03	7.591543E-04	4.700951E-05
3.320274E+03	7.726685E-04	4.752714E-05
3.330069E+03	7.866599E-04	4.806215E-05
3.339863E+03	8.012788E-04	4.862305E-05
3.349657E+03	8.165120E-04	4.920826E-05
3.359452E+03	8.324652E-04	4.982331E-05
3.369246E+03	8.491364E-04	5.046717E-05
3.379040E+03	8.666436E-04	5.114591E-05
3.388834E+03	8.851151E-04	5.186599E-05
3.398629E+03	9.045119E-04	5.262389E-05
3.408423E+03	9.249785E-04	5.342681E-05
3.418217E+03	9.466118E-04	5.427894E-05
3.428012E+03	9.695795E-04	5.518836E-05
3.437806E+03	9.939423E-04	5.615679E-05
3.447600E+03	1.019832E-03	5.718984E-05
3.457395E+03	1.047457E-03	5.829725E-05
3.467189E+03	1.076981E-03	5.948580E-05
3.476983E+03	1.108584E-03	6.076292E-05
3.486778E+03	1.142459E-03	6.213653E-05
3.496572E+03	1.178882E-03	6.361865E-05
3.506366E+03	1.217944E-03	6.521091E-05
3.516161E+03	1.260008E-03	6.692923E-05
3.525955E+03	1.305233E-03	6.877825E-05
3.535749E+03	1.353908E-03	7.076901E-05
3.545544E+03	1.406239E-03	7.290784E-05
3.555338E+03	1.462430E-03	7.520067E-05
3.565132E+03	1.522684E-03	7.765296E-05
3.574927E+03	1.587208E-03	8.027006E-05
3.584721E+03	1.656295E-03	8.306130E-05
3.594515E+03	1.730088E-03	8.602808E-05
3.604310E+03	1.808902E-03	8.917998E-05
3.614104E+03	1.892890E-03	9.251832E-05
3.623898E+03	1.982390E-03	9.605295E-05
3.633692E+03	2.077756E-03	9.979402E-05
3.643487E+03	2.179075E-03	1.037385E-04
3.653281E+03	2.286816E-03	1.079010E-04
3.663075E+03	2.401172E-03	1.122829E-04
3.672870E+03	2.522541E-03	1.168944E-04
3.682664E+03	2.651231E-03	1.217411E-04
3.692458E+03	2.787437E-03	1.268229E-04
3.702253E+03	2.931685E-03	1.321546E-04
3.712047E+03	3.084050E-03	1.377298E-04
3.721841E+03	3.245066E-03	1.435621E-04
3.731636E+03	3.414901E-03	1.496489E-04
3.741430E+03	3.593962E-03	1.559971E-04
3.751224E+03	3.782376E-03	1.626013E-04
3.761019E+03	3.980513E-03	1.694663E-04
3.770813E+03	4.188437E-03	1.765834E-04
3.780607E+03	4.406605E-03	1.839604E-04
3.790402E+03	4.634845E-03	1.915784E-04
3.800196E+03	4.873533E-03	1.994414E-04
3.809990E+03	5.122522E-03	2.075316E-04
3.819785E+03	5.381571E-03	2.158279E-04
3.829579E+03	5.651040E-03	2.243336E-04
3.839373E+03	5.930163E-03	2.330075E-04
3.849167E+03	6.218947E-03	2.418395E-04
3.858962E+03	6.516937E-03	2.508022E-04
3.868756E+03	6.823158E-03	2.598492E-04
3.878550E+03	7.137481E-03	2.689679E-04
3.888345E+03	7.458659E-03	2.781041E-04
3.898139E+03	7.785682E-03	2.872148E-04
3.907933E+03	8.117646E-03	2.962627E-04
3.917728E+03	8.453058E-03	3.051906E-04
3.927522E+03	8.790763E-03	3.139563E-04
3.937316E+03	9.129287E-03	3.225079E-04
3.947111E+03	9.466598E-03	3.307768E-04
3.956905E+03	9.801553E-03	3.387284E-04
3.966699E+03	1.013229E-02	3.463053E-04
3.976494E+03	1.045720E-02	3.534616E-04
3.986288E+03	1.077473E-02	3.601561E-04
3.996082E+03	1.108342E-02	3.663528E-04
4.005877E+03	1.138168E-02	3.720138E-04
4.015671E+03	1.166861E-02	3.771260E-04
4.025465E+03	1.194299E-02	3.816673E-04
4.035260E+03	1.220438E-02	3.856417E-04
4.045054E+03	1.245179E-02	3.890373E-04
4.054848E+03	1.268508E-02	3.918692E-04
4.064643E+03	1.290463E-02	3.941687E-04
4.074437E+03	1.311034E-02	3.959520E-04
4.084231E+03	1.330340E-02	3.972735E-04
4.094025E+03	1.348388E-02	3.981536E-04
4.103820E+03	1.365308E-02	3.986478E-04
4.113614E+03	1.381209E-02	3.988037E-04
4.123408E+03	1.396179E-02	3.986614E-04
4.133203E+03	1.410298E-02	3.982577E-04
4.142997E+03	1.423688E-02	3.976404E-04
4.152791E+03	1.436353E-02	3.968223E-04
4.162586E+03	1.448402E-02	3.958455E-04
4.172380E+03	1.459817E-02	3.947162E-04
4.182174E+03	1.470608E-02	3.934479E-04
4.191969E+03	1.480729E-02	3.920398E-04
4.201763E+03	1.490110E-02	3.904848E-04
4.211557E+03	1.498660E-02	3.887707E-04
4.221352E+03	1.506319E-02	3.868948E-04
4.231146E+03	1.512922E-02	3.848275E-04
4.240940E+03	1.518379E-02	3.825593E-04
4.250735E+03	1.522587E-02	3.800783E-04
4.260529E+03	1.525472E-02	3.773797E-04
4.270323E+03	1.526993E-02	3.744675E-04
4.280118E+03	1.527159E-02	3.713568E-04
4.289912E+03	1.526008E-02	3.680692E-04
4.299706E+03	1.523683E-02	3.646504E-04
4.309500E+03	1.520326E-02	3.611440E-04
4.319295E+03	1.516234E-02	3.576280E-04
4.329089E+03	1.511687E-02	3.541746E-04
4.338883E+03	1.507013E-02	3.508637E-04
4.348678E+03	1.502594E-02	3.477867E-04
4.358472E+03	1.498881E-02	3.450477E-04
4.368266E+03	1.496251E-02	3.427326E-04
4.378061E+03	1.495176E-02	3.409465E-04
4.387855E+03	1.496092E-02	3.397861E-04
4.397649E+03	1.499426E-02	3.393430E-04
4.407444E+03	1.505563E-02	3.396956E-04
4.417238E+03	1.514897E-02	3.409243E-04
4.427032E+03	1.527788E-02	3.431031E-04
4.436827E+03	1.544493E-02	3.462840E-04
4.446621E+03	1.565281E-02	3.505225E-04
4.456415E+03	1.590338E-02	3.558583E-04
4.466210E+03	1.619800E-02	3.623211E-04
4.476004E+03	1.653678E-02	3.699145E-04
4.485798E+03	1.691918E-02	3.786299E-04
4.495593E+03	1.734330E-02	3.884293E-04
4.505387E+03	1.780591E-02	3.992464E-04
4.515181E+03	1.830205E-02	4.109769E-04
4.524976E+03	1.882588E-02	4.234971E-04
4.534770E+03	1.936934E-02	4.366324E-04
4.544564E+03	1.992307E-02	4.501781E-04
4.554358E+03	2.047671E-02	4.639040E-04
4.564153E+03	2.101862E-02	4.775482E-04
4.573947E+03	2.153682E-02	4.908367E-04
4.583741E+03	2.201863E-02	5.034755E-04
4.593536E+03	2.245219E-02	5.151833E-04
4.603330E+03	2.282645E-02	5.256924E-04
4.613124E+03	2.313163E-02	5.347590E-04
4.622919E+03	2.335971E-02	5.421748E-04
4.632713E+03	2.350475E-02	5.477754E-04
4.642507E+03	2.356342E-02	5.514535E-04
4.652302E+03	2.353495E-02	5.531589E-04
4.662096E+03	2.342129E-02	5.529048E-04
4.671890E+03	2.322707E-02	5.507673E-04
4.681685E+03	2.295856E-02	5.468628E-04
4.691479E+03	2.262282E-02	5.413295E-04
4.701273E+03	2.222868E-02	5.343500E-04
4.711068E+03	2.178509E-02	5.261145E-04
4.720862E+03	2.130264E-02	5.168572E-04
4.730656E+03	2.079220E-02	5.068241E-04
4.740451E+03	2.026405E-02	4.962522E-04
4.750245E+03	1.972902E-02	4.853970E-04
4.760039E+03	1.919658E-02	4.744863E-04
4.769833E+03	1.867590E-02	4.637451E-04
4.779628E+03	1.817539E-02	4.533843E-04
4.789422E+03	1.770214E-02	4.435855E-04
4.799216E+03	1.726222E-02	4.345091E-04
4.809011E+03	1.686128E-02	4.263075E-04
4.818805E+03	1.650344E-02	4.190963E-04
4.828599E+03	1.619210E-02	4.129763E-04
4.838394E+03	1.592939E-02	4.080159E-04
4.848188E+03	1.571677E-02	4.042677E-04
4.857982E+03	1.555474E-02	4.017598E-04
4.867777E+03	1.544247E-02	4.004862E-04
4.877571E+03	1.537872E-02	4.004291E-04
4.887365E+03	1.536084E-02	4.015331E-04
4.897160E+03	1.538540E-02	4.037218E-04
4.906954E+03	1.544834E-02	4.068988E-04
4.916748E+03	1.554470E-02	4.109438E-04
4.926543E+03	1.566859E-02	4.157081E-04
4.936337E+03	1.581325E-02	4.210181E-04
4.946131E+03	1.597179E-02	4.266939E-04
4.955926E+03	1.613642E-02	4.325287E-04
4.965720E+03	1.629955E-02	4.383181E-04
4.975514E+03	1.645362E-02	4.438566E-04
4.985309E+03	1.659172E-02	4.489529E-04
4.995103E+03	1.670814E-02	4.534470E-04
5.004897E+03	1.679833E-02	4.572086E-04
5.014691E+03	1.685986E-02	4.601639E-04
5.024486E+03	1.689206E-02	4.622878E-04
5.034280E+03	1.689617E-02	4.636075E-04
5.044074E+03	1.687530E-02	4.642019E-04
5.053869E+03	1.683353E-02	4.641787E-04
5.063663E+03	1.677592E-02	4.636739E-04
5.073457E+03	1.670802E-02	4.628386E-04
5.083252E+03	1.663509E-02	4.618176E-04
5.093046E+03	1.656167E-02	4.607366E-04
5.102840E+03	1.649203E-02	4.597159E-04
5.112635E+03	1.642875E-02	4.588285E-04
5.122429E+03	1.637449E-02	4.581506E-04
5.132223E+03	1.633041E-02	4.577169E-04
5.142018E+03	1.629698E-02	4.575433E-04
5.151812E+03	1.627450E-02	4.576398E-04
5.161606E+03	1.626267E-02	4.580006E-04
5.171401E+03	1.626092E-02	4.586118E-04
5.181195E+03	1.626853E-02	4.594542E-04
5.190989E+03	1.628443E-02	4.605000E-04
5.200784E+03	1.630780E-02	4.617273E-04
5.210578E+03	1.633752E-02	4.631059E-04
5.220372E+03	1.637226E-02	4.645993E-04
5.230167E+03	1.641089E-02	4.661764E-04
5.239961E+03	1.645206E-02	4.677998E-04
5.249755E+03	1.649436E-02	4.694309E-04
5.259549E+03	1.653643E-02	4.710314E-04
5.269344E+03	1.657701E-02	4.725660E-04
5.279138E+03	1.661504E-02	4.740058E-04
5.288932E+03	1.664998E-02	4.753356E-04
5.298727E+03	1.668158E-02	4.765495E-04
5.308521E+03	1.671035E-02	4.776627E-04
5.318315E+03	1.673727E-02	4.787043E-04
5.328110E+03	1.676417E-02	4.797276E-04
5.337904E+03	1.679352E-02	4.808045E-04
5.347698E+03	1.682828E-02	4.820207E-04
5.357493E+03	1.687166E-02	4.834691E-04
5.367287E+03	1.692664E-02	4.852342E-04
5.377081E+03	1.699567E-02	4.873865E-04
5.386876E+03	1.707977E-02	4.899546E-04
5.396670E+03	1.717832E-02	4.929209E-04
5.406464E+03	1.728854E-02	4.962047E-04
5.416259E+03	1.740733E-02	4.997171E-04
5.426053E+03	1.753014E-02	5.033265E-04
5.435847E+03	1.765142E-02	5.068726E-04
5.445642E+03	1.776502E-02	5.101786E-04
5.455436E+03	1.786400E-02	5.130439E-04
5.465230E+03	1.794021E-02	5.152345E-04
5.475024E+03	1.798552E-02	5.165159E-04
5.484819E+03	1.799115E-02	5.166358E-04
5.494613E+03	1.794876E-02	5.153552E-04
5.504407E+03	1.785089E-02	5.124604E-04
5.514202E+03	1.769162E-02	5.077824E-04
5.523996E+03	1.746679E-02	5.012038E-04
5.533790E+03	1.717578E-02	4.927092E-04
5.543585E+03	1.681991E-02	4.823389E-04
5.553379E+03	1.640369E-02	4.702258E-04
5.563173E+03	1.593425E-02	4.565779E-04
5.572968E+03	1.542039E-02	4.416508E-04
5.582762E+03	1.487239E-02	4.257428E-04
5.592556E+03	1.430130E-02	4.091738E-04
5.602351E+03	1.371805E-02	3.922594E-04
5.612145E+03	1.313299E-02	3.752984E-04
5.621939E+03	1.255591E-02	3.585731E-04
5.631734E+03	1.199536E-02	3.423286E-04
5.641528E+03	1.145898E-02	3.267844E-04
5.651322E+03	1.095319E-02	3.121238E-04
5.661117E+03	1.048328E-02	2.984974E-04
5.670911E+03	1.005345E-02	2.860237E-04
5.680705E+03	9.667111E-03	2.747989E-04
5.690500E+03	9.326751E-03	2.648917E-04
5.700294E+03	9.034086E-03	2.563486E-04
5.710088E+03	8.790058E-03	2.491939E-04
5.719882E+03	8.595262E-03	2.434414E-04
5.729677E+03	8.449785E-03	2.390908E-04
5.739471E+03	8.353016E-03	2.361214E-04
5.749265E+03	8.304507E-03	2.345173E-04
5.759060E+03	8.303133E-03	2.342435E-04
5.768854E+03	8.347833E-03	2.352666E-04
5.778648E+03	8.436855E-03	2.375341E-04
5.788443E+03	8.568625E-03	2.409986E-04
5.798237E+03	8.740665E-03	2.455877E-04
5.808031E+03	8.950539E-03	2.512303E-04
5.817826E+03	9.194712E-03	2.578252E-04
5.827620E+03	9.469448E-03	2.652660E-04
5.837414E+03	9.770099E-03	2.734212E-04
5.847209E+03	1.009141E-02	2.821434E-04
5.857003E+03	1.042754E-02	2.912696E-04
5.866797E+03	1.077219E-02	3.006245E-04
5.876592E+03	1.111863E-02	3.100222E-04
5.886386E+03	1.146017E-02	3.192784E-04
5.896180E+03	1.179040E-02	3.282173E-04
5.905975E+03	1.210295E-02	3.366653E-04
5.915769E+03	1.239244E-02	3.444766E-04
5.925563E+03	1.265411E-02	3.515233E-04
5.935357E+03	1.288423E-02	3.577064E-04
5.945152E+03	1.308050E-02	3.629660E-04
5.954946E+03	1.324148E-02	3.672668E-04
5.964740E+03	1.336735E-02	3.706179E-04
5.974535E+03	1.345927E-02	3.730547E-04
5.984329E+03	1.351945E-02	3.746423E-04
5.994123E+03	1.355117E-02	3.754746E-04
6.003918E+03	1.355832E-02	3.756612E-04
6.013712E+03	1.354544E-02	3.753300E-04
6.023506E+03	1.351764E-02	3.746246E-04
6.033301E+03	1.347964E-02	3.736771E-04
6.043095E+03	1.343707E-02	3.726448E-04
6.052889E+03	1.339508E-02	3.716720E-04
6.062684E+03	1.335791E-02	3.708778E-04
6.072478E+03	1.332917E-02	3.703642E-04
6.082272E+03	1.331256E-02	3.702360E-04
6.092067E+03	1.331117E-02	3.705817E-04
6.101861E+03	1.332752E-02	3.714744E-04
6.111655E+03	1.336381E-02	3.729793E-04
6.121450E+03	1.342088E-02	3.751225E-04
6.131244E+03	1.349923E-02	3.779195E-04
6.141038E+03	1.359853E-02	3.813629E-04
6.150833E+03	1.371739E-02	3.854162E-04
6.160627E+03	1.385467E-02	3.900496E-04
6.170421E+03	1.400818E-02	3.952041E-04
6.180215E+03	1.417541E-02	4.008109E-04
6.190010E+03	1.435357E-02	4.067937E-04
6.199804E+03	1.453936E-02	4.130599E-04
6.209598E+03	1.472919E-02	4.195087E-04
6.219393E+03	1.491927E-02	4.260322E-04
6.229187E+03	1.510581E-02	4.325215E-04
6.238981E+03	1.528515E-02	4.388694E-04
6.248776E+03	1.545406E-02	4.449808E-04
6.258570E+03	1.560928E-02	4.507578E-04
6.268364E+03	1.574871E-02	4.561346E-04
6.278159E+03	1.587019E-02	4.610436E-04
6.287953E+03	1.597283E-02	4.654522E-04
6.297747E+03	1.605548E-02	4.693205E-04
6.307542E+03	1.611857E-02	4.726535E-04
6.317336E+03	1.616199E-02	4.754408E-04
6.327130E+03	1.618670E-02	4.777035E-04
6.336925E+03	1.619382E-02	4.794674E-04
6.346719E+03	1.618456E-02	4.807614E-04
6.356513E+03	1.616059E-02	4.816283E-04
6.366308E+03	1.612328E-02	4.821031E-04
6.376102E+03	1.607434E-02	4.822314E-04
6.385896E+03	1.601520E-02	4.820502E-04
6.395690E+03	1.594713E-02	4.815937E-04
6.405485E+03	1.587119E-02	4.808893E-04
6.415279E+03	1.578841E-02	4.799643E-04
6.425073E+03	1.569943E-02	4.788344E-04
6.434868E+03	1.560467E-02	4.775095E-04
6.444662E+03	1.550469E-02	4.760032E-04
6.454456E+03	1.539957E-02	4.743150E-04
6.464251E+03	1.528906E-02	4.724351E-04
6.474045E+03	1.517350E-02	4.703705E-04
6.483839E+03	1.505234E-02	4.681018E-04
6.493634E+03	1.492563E-02	4.656279E-04
6.503428E+03	1.479307E-02	4.629369E-04
6.513222E+03	1.465435E-02	4.600169E-04
6.523017E+03	1.450937E-02	4.568616E-04
6.532811E+03	1.435766E-02	4.534545E-04
6.542605E+03	1.419932E-02	4.497963E-04
6.552400E+03	1.403418E-02	4.458788E-04
6.562194E+03	1.386198E-02	4.416920E-04
6.571988E+03	1.368286E-02	4.372384E-04
6.581783E+03	1.349698E-02	4.325205E-04
6.591577E+03	1.330459E-02	4.275449E-04
6.601371E+03	1.310639E-02	4.223328E-04
6.611166E+03	1.290265E-02	4.168914E-04
6.620960E+03	1.269422E-02	4.112472E-04
6.630754E+03	1.248195E-02	4.054265E-04
6.640548E+03	1.226676E-02	3.994595E-04
6.650343E+03	1.204985E-02	3.933851E-04
6.660137E+03	1.183219E-02	3.872348E-04
6.669931E+03	1.161508E-02	3.810517E-04
6.679726E+03	1.139955E-02	3.748713E-04
6.689520E+03	1.118704E-02	3.687414E-04
6.699314E+03	1.097842E-02	3.626924E-04
6.709109E+03	1.077503E-02	3.567708E-04
6.718903E+03	1.057762E-02	3.510034E-04
6.728697E+03	1.038740E-02	3.454319E-04
6.738492E+03	1.020508E-02	3.400832E-04
6.748286E+03	1.003144E-02	3.349855E-04
6.758080E+03	9.867281E-03	3.301679E-04
6.767875E+03	9.713079E-03	3.256496E-04
6.777669E+03	9.569366E-03	3.214510E-04
6.787463E+03	9.436740E-03	3.175951E-04
6.797258E+03	9.315472E-03	3.140939E-04
6.807052E+03	9.206034E-03	3.109661E-04
6.816846E+03	9.108618E-03	3.082212E-04
6.826641E+03	9.023566E-03	3.058735E-04
6.836435E+03	8.951072E-03	3.039325E-04
6.846229E+03	8.891057E-03	3.023983E-04
6.856024E+03	8.843903E-03	3.012866E-04
6.865818E+03	8.809423E-03	3.005937E-04
6.875612E+03	8.787546E-03	3.003198E-04
6.885406E+03	8.778154E-03	3.004635E-04
6.895201E+03	8.781161E-03	3.010245E-04
6.904995E+03	8.796188E-03	3.019920E-04
6.914789E+03	8.823022E-03	3.033613E-04
6.924584E+03	8.861165E-03	3.051174E-04
6.934378E+03	8.910070E-03	3.072439E-04
6.944172E+03	8.969470E-03	3.097337E-04
6.953967E+03	9.038763E-03	3.125681E-04
6.963761E+03	9.117427E-03	3.157313E-04
6.973555E+03	9.204950E-03	3.192074E-04
6.983350E+03	9.300713E-03	3.229771E-04
6.993144E+03	9.404348E-03	3.270295E-04
7.002938E+03	9.515429E-03	3.313518E-04
7.012733E+03	9.633418E-03	3.359274E-04
7.022527E+03	9.757938E-03	3.407450E-04
7.032321E+03	9.888769E-03	3.457990E-04
7.042116E+03	1.002548E-02	3.510765E-04
7.051910E+03	1.016775E-02	3.565685E-04
7.061704E+03	1.031515E-02	3.622618E-04
7.071499E+03	1.046762E-02	3.681568E-04
7.081293E+03	1.062452E-02	3.742333E-04
7.091087E+03	1.078559E-02	3.804844E-04
7.100881E+03	1.095019E-02	3.868905E-04
7.110676E+03	1.111776E-02	3.934338E-04
7.120470E+03	1.128779E-02	4.000987E-04
7.130264E+03	1.145921E-02	4.068501E-04
7.140059E+03	1.163145E-02	4.136700E-04
7.149853E+03	1.180319E-02	4.205143E-04
7.159647E+03	1.197347E-02	4.273510E-04
7.169442E+03	1.214089E-02	4.341321E-04
7.179236E+03	1.230421E-02	4.408157E-04
7.189030E+03	1.246175E-02	4.473437E-04
7.198825E+03	1.261207E-02	4.536650E-04
7.208619E+03	1.275308E-02	4.597065E-04
7.218413E+03	1.288309E-02	4.654078E-04
7.228208E+03	1.300020E-02	4.707001E-04
7.238002E+03	1.310246E-02	4.755125E-04
7.247796E+03	1.318757E-02	4.797607E-04
7.257591E+03	1.325385E-02	4.833814E-04
7.267385E+03	1.329941E-02	4.863031E-04
7.277179E+03	1.332261E-02	4.884618E-04
7.286974E+03	1.332228E-02	4.898107E-04
7.296768E+03	1.329783E-02	4.903223E-04
7.306562E+03	1.324895E-02	4.899791E-04
7.316357E+03	1.317580E-02	4.887807E-04
7.326151E+03	1.307927E-02	4.867522E-04
7.335945E+03	1.296039E-02	4.839251E-04
7.345739E+03	1.282090E-02	4.803557E-04
7.355534E+03	1.266313E-02	4.761244E-04
7.365328E+03	1.248970E-02	4.713217E-04
7.375122E+03	1.230339E-02	4.660459E-04
7.384917E+03	1.210761E-02	4.604194E-04
7.394711E+03	1.190578E-02	4.545675E-04
7.404505E+03	1.170149E-02	4.486236E-04
7.414300E+03	1.149838E-02	4.427240E-04
7.424094E+03	1.130002E-02	4.370060E-04
7.433888E+03	1.110983E-02	4.316008E-04
7.443683E+03	1.093097E-02	4.266318E-04
7.453477E+03	1.076547E-02	4.221812E-04
7.463271E+03	1.061491E-02	4.183147E-04
7.473066E+03	1.047935E-02	4.150398E-04
7.482860E+03	1.035783E-02	4.123247E-04
7.492654E+03	1.024928E-02	4.101310E-04
7.502449E+03	1.015237E-02	4.084120E-04
7.512243E+03	1.006589E-02	4.071227E-04
7.522037E+03	9.989249E-03	4.062442E-04
7.531832E+03	9.921670E-03	4.057490E-04
7.541626E+03	9.863065E-03	4.056376E-04
7.551420E+03	9.813658E-03	4.059238E-04
7.561214E+03	9.773480E-03	4.066136E-04
7.571009E+03	9.743310E-03	4.077449E-04
7.580803E+03	9.723621E-03	4.093435E-04
7.590597E+03	9.715105E-03	4.114453E-04
7.600392E+03	9.718435E-03	4.140864E-04
