#wls	flux	fluxerr
1.567091E+03	7.886746E-05	2.507741E-05
1.606268E+03	7.821867E-05	2.468423E-05
1.645446E+03	7.758478E-05	2.429428E-05
1.684623E+03	7.695135E-05	2.390303E-05
1.723800E+03	7.633056E-05	2.351426E-05
1.762977E+03	7.570829E-05	2.312362E-05
1.802155E+03	7.509641E-05	2.273477E-05
1.841332E+03	7.450613E-05	2.235104E-05
1.880509E+03	7.391098E-05	2.196444E-05
1.919687E+03	7.333453E-05	2.158201E-05
1.958864E+03	7.276304E-05	2.119966E-05
1.998041E+03	7.219527E-05	2.081703E-05
2.037218E+03	7.164172E-05	2.043716E-05
2.076396E+03	7.110075E-05	2.005953E-05
2.115573E+03	7.057079E-05	1.968365E-05
2.154750E+03	7.005038E-05	1.930908E-05
2.193928E+03	6.953817E-05	1.893544E-05
2.233105E+03	6.903293E-05	1.856239E-05
2.272282E+03	6.854423E-05	1.819249E-05
2.311459E+03	6.807072E-05	1.782528E-05
2.350637E+03	6.760112E-05	1.745779E-05
2.389814E+03	6.715534E-05	1.709513E-05
2.428991E+03	6.673249E-05	1.673689E-05
2.468168E+03	6.631293E-05	1.637807E-05
2.507346E+03	6.592648E-05	1.602596E-05
2.546523E+03	6.556437E-05	1.567819E-05
2.585700E+03	6.522858E-05	1.533502E-05
2.624878E+03	6.493126E-05	1.499903E-05
2.664055E+03	6.467647E-05	1.467077E-05
2.703232E+03	6.447864E-05	1.435301E-05
2.742409E+03	6.432832E-05	1.404305E-05
2.781587E+03	6.426154E-05	1.374809E-05
2.820764E+03	6.428315E-05	1.346811E-05
2.859941E+03	6.441875E-05	1.320726E-05
2.899119E+03	6.468282E-05	1.296698E-05
2.938296E+03	6.512019E-05	1.275434E-05
2.948090E+03	6.526146E-05	1.270616E-05
2.957884E+03	6.541207E-05	1.265923E-05
2.967679E+03	6.558058E-05	1.261515E-05
2.977473E+03	6.576773E-05	1.257400E-05
2.987267E+03	6.596653E-05	1.253440E-05
2.997062E+03	6.617794E-05	1.249648E-05
3.006856E+03	6.641054E-05	1.246180E-05
3.016650E+03	6.666533E-05	1.243049E-05
3.026445E+03	6.694332E-05	1.240263E-05
3.036239E+03	6.723795E-05	1.237695E-05
3.046033E+03	6.755045E-05	1.235361E-05
3.055828E+03	6.788976E-05	1.233417E-05
3.065622E+03	6.825718E-05	1.231876E-05
3.075416E+03	6.865420E-05	1.230755E-05
3.085211E+03	6.907469E-05	1.229934E-05
3.095005E+03	6.952031E-05	1.229433E-05
3.104799E+03	7.000819E-05	1.229545E-05
3.114594E+03	7.052483E-05	1.230018E-05
3.124388E+03	7.107230E-05	1.230877E-05
3.134182E+03	7.166812E-05	1.232412E-05
3.143976E+03	7.229927E-05	1.234383E-05
3.153771E+03	7.296818E-05	1.236817E-05
3.163565E+03	7.369306E-05	1.240007E-05
3.173359E+03	7.446127E-05	1.243721E-05
3.183154E+03	7.527582E-05	1.247992E-05
3.192948E+03	7.615579E-05	1.253117E-05
3.202742E+03	7.708901E-05	1.258871E-05
3.212537E+03	7.808726E-05	1.265427E-05
3.222331E+03	7.914665E-05	1.272695E-05
3.232125E+03	8.027968E-05	1.280853E-05
3.241920E+03	8.149122E-05	1.289950E-05
3.251714E+03	8.278660E-05	1.300039E-05
3.261508E+03	8.417149E-05	1.311176E-05
3.271303E+03	8.564356E-05	1.323290E-05
3.281097E+03	8.721786E-05	1.336580E-05
3.290891E+03	8.889283E-05	1.350981E-05
3.300686E+03	9.069364E-05	1.366835E-05
3.310480E+03	9.261123E-05	1.383957E-05
3.320274E+03	9.466350E-05	1.402568E-05
3.330069E+03	9.686040E-05	1.422760E-05
3.339863E+03	9.920341E-05	1.444501E-05
3.349657E+03	1.017230E-04	1.468172E-05
3.359452E+03	1.044129E-04	1.493616E-05
3.369246E+03	1.072964E-04	1.521097E-05
3.379040E+03	1.103786E-04	1.550610E-05
3.388834E+03	1.136960E-04	1.582588E-05
3.398629E+03	1.172461E-04	1.616902E-05
3.408423E+03	1.210584E-04	1.653868E-05
3.418217E+03	1.251545E-04	1.693672E-05
3.428012E+03	1.295573E-04	1.736515E-05
3.437806E+03	1.342924E-04	1.782611E-05
3.447600E+03	1.393749E-04	1.832034E-05
3.457395E+03	1.448464E-04	1.885189E-05
3.467189E+03	1.507396E-04	1.942344E-05
3.476983E+03	1.570900E-04	2.003788E-05
3.486778E+03	1.639363E-04	2.069831E-05
3.496572E+03	1.713206E-04	2.140805E-05
3.506366E+03	1.792732E-04	2.216876E-05
3.516161E+03	1.878574E-04	2.298596E-05
3.525955E+03	1.971261E-04	2.386361E-05
3.535749E+03	2.071363E-04	2.480583E-05
3.545544E+03	2.179489E-04	2.581698E-05
3.555338E+03	2.296295E-04	2.690161E-05
3.565132E+03	2.422291E-04	2.806224E-05
3.574927E+03	2.558414E-04	2.930605E-05
3.584721E+03	2.705481E-04	3.063835E-05
3.594515E+03	2.864369E-04	3.206472E-05
3.604310E+03	3.036023E-04	3.359102E-05
3.614104E+03	3.221457E-04	3.522340E-05
3.623898E+03	3.421494E-04	3.696543E-05
3.633692E+03	3.637817E-04	3.882944E-05
3.643487E+03	3.871127E-04	4.081654E-05
3.653281E+03	4.123023E-04	4.293684E-05
3.663075E+03	4.394595E-04	4.519443E-05
3.672870E+03	4.688002E-04	4.760368E-05
3.682664E+03	5.004547E-04	5.016929E-05
3.692458E+03	5.345546E-04	5.289547E-05
3.702253E+03	5.713168E-04	5.579408E-05
3.712047E+03	6.109323E-04	5.887343E-05
3.721841E+03	6.535536E-04	6.213719E-05
3.731636E+03	6.994832E-04	6.560239E-05
3.741430E+03	7.488422E-04	6.926777E-05
3.751224E+03	8.019049E-04	7.314549E-05
3.761019E+03	8.589064E-04	7.724282E-05
3.770813E+03	9.200255E-04	8.156091E-05
3.780607E+03	9.855693E-04	8.611129E-05
3.790402E+03	1.055795E-03	9.089968E-05
3.800196E+03	1.130963E-03	9.593099E-05
3.809990E+03	1.211260E-03	1.012025E-04
3.819785E+03	1.297114E-03	1.067307E-04
3.829579E+03	1.388535E-03	1.124962E-04
3.839373E+03	1.486053E-03	1.185211E-04
3.849167E+03	1.589748E-03	1.247896E-04
3.858962E+03	1.699975E-03	1.313070E-04
3.868756E+03	1.816875E-03	1.380607E-04
3.878550E+03	1.940927E-03	1.450628E-04
3.888345E+03	2.071995E-03	1.522781E-04
3.898139E+03	2.210679E-03	1.597255E-04
3.907933E+03	2.356917E-03	1.673742E-04
3.917728E+03	2.510877E-03	1.752097E-04
3.927522E+03	2.672868E-03	1.832270E-04
3.937316E+03	2.843041E-03	1.914090E-04
3.947111E+03	3.021333E-03	1.997242E-04
3.956905E+03	3.207810E-03	2.081501E-04
3.966699E+03	3.402712E-03	2.166752E-04
3.976494E+03	3.606072E-03	2.252745E-04
3.986288E+03	3.817661E-03	2.339071E-04
3.996082E+03	4.037412E-03	2.425433E-04
4.005877E+03	4.265466E-03	2.511666E-04
4.015671E+03	4.501447E-03	2.597305E-04
4.025465E+03	4.745441E-03	2.682169E-04
4.035260E+03	4.996967E-03	2.765765E-04
4.045054E+03	5.255753E-03	2.847741E-04
4.054848E+03	5.521790E-03	2.927907E-04
4.064643E+03	5.794106E-03	3.005575E-04
4.074437E+03	6.072929E-03	3.080724E-04
4.084231E+03	6.357846E-03	3.153008E-04
4.094025E+03	6.647665E-03	3.221733E-04
4.103820E+03	6.942559E-03	3.286914E-04
4.113614E+03	7.241581E-03	3.348049E-04
4.123408E+03	7.543687E-03	3.404642E-04
4.133203E+03	7.848993E-03	3.456769E-04
4.142997E+03	8.156811E-03	3.504162E-04
4.152791E+03	8.465515E-03	3.546205E-04
4.162586E+03	8.774711E-03	3.582865E-04
4.172380E+03	9.083550E-03	3.613959E-04
4.182174E+03	9.391147E-03	3.639337E-04
4.191969E+03	9.696581E-03	3.658890E-04
4.201763E+03	9.998914E-03	3.672552E-04
4.211557E+03	1.029718E-02	3.680302E-04
4.221352E+03	1.059041E-02	3.682170E-04
4.231146E+03	1.087708E-02	3.678058E-04
4.240940E+03	1.115730E-02	3.668476E-04
4.250735E+03	1.142900E-02	3.653254E-04
4.260529E+03	1.169181E-02	3.632842E-04
4.270323E+03	1.194487E-02	3.607569E-04
4.280118E+03	1.218677E-02	3.577654E-04
4.289912E+03	1.241737E-02	3.543745E-04
4.299706E+03	1.263610E-02	3.506384E-04
4.309500E+03	1.284198E-02	3.466033E-04
4.319295E+03	1.303545E-02	3.423572E-04
4.329089E+03	1.321648E-02	3.379751E-04
4.338883E+03	1.338457E-02	3.335208E-04
4.348678E+03	1.353993E-02	3.290764E-04
4.358472E+03	1.368345E-02	3.247389E-04
4.368266E+03	1.381549E-02	3.205892E-04
4.378061E+03	1.393577E-02	3.166907E-04
4.387855E+03	1.404468E-02	3.131189E-04
4.397649E+03	1.414325E-02	3.099578E-04
4.407444E+03	1.423121E-02	3.072561E-04
4.417238E+03	1.430962E-02	3.050845E-04
4.427032E+03	1.437825E-02	3.034769E-04
4.436827E+03	1.443753E-02	3.024613E-04
4.446621E+03	1.448784E-02	3.020283E-04
4.456415E+03	1.453019E-02	3.021683E-04
4.466210E+03	1.456422E-02	3.028350E-04
4.476004E+03	1.459013E-02	3.039874E-04
4.485798E+03	1.460875E-02	3.055915E-04
4.495593E+03	1.461891E-02	3.075685E-04
4.505387E+03	1.462196E-02	3.098889E-04
4.515181E+03	1.461729E-02	3.124814E-04
4.524976E+03	1.460487E-02	3.152866E-04
4.534770E+03	1.458470E-02	3.182459E-04
4.544564E+03	1.455732E-02	3.213144E-04
4.554358E+03	1.452147E-02	3.244097E-04
4.564153E+03	1.447771E-02	3.274913E-04
4.573947E+03	1.442663E-02	3.305232E-04
4.583741E+03	1.436704E-02	3.334316E-04
4.593536E+03	1.430017E-02	3.362014E-04
4.603330E+03	1.422494E-02	3.387667E-04
4.613124E+03	1.414267E-02	3.411222E-04
4.622919E+03	1.405239E-02	3.432108E-04
4.632713E+03	1.395499E-02	3.450232E-04
4.642507E+03	1.385134E-02	3.465540E-04
4.652302E+03	1.374072E-02	3.477607E-04
4.662096E+03	1.362418E-02	3.486486E-04
4.671890E+03	1.350278E-02	3.492265E-04
4.681685E+03	1.337599E-02	3.494657E-04
4.691479E+03	1.324499E-02	3.493835E-04
4.701273E+03	1.311043E-02	3.489867E-04
4.711068E+03	1.297301E-02	3.482859E-04
4.720862E+03	1.283293E-02	3.472803E-04
4.730656E+03	1.269192E-02	3.460127E-04
4.740451E+03	1.254968E-02	3.444728E-04
4.750245E+03	1.240791E-02	3.427063E-04
4.760039E+03	1.226634E-02	3.407063E-04
4.769833E+03	1.212608E-02	3.385059E-04
4.779628E+03	1.198777E-02	3.361249E-04
4.789422E+03	1.185198E-02	3.335833E-04
4.799216E+03	1.171877E-02	3.308869E-04
4.809011E+03	1.158953E-02	3.280792E-04
4.818805E+03	1.146378E-02	3.251519E-04
4.828599E+03	1.134276E-02	3.221447E-04
4.838394E+03	1.122589E-02	3.190466E-04
4.848188E+03	1.111385E-02	3.158815E-04
4.857982E+03	1.100681E-02	3.126596E-04
4.867777E+03	1.090449E-02	3.093772E-04
4.877571E+03	1.080779E-02	3.060642E-04
4.887365E+03	1.071589E-02	3.027021E-04
4.897160E+03	1.062919E-02	2.993057E-04
4.906954E+03	1.054762E-02	2.958765E-04
4.916748E+03	1.047108E-02	2.924150E-04
4.926543E+03	1.039942E-02	2.889203E-04
4.936337E+03	1.033248E-02	2.853908E-04
4.946131E+03	1.026972E-02	2.818136E-04
4.955926E+03	1.021168E-02	2.782067E-04
4.965720E+03	1.015742E-02	2.745461E-04
4.975514E+03	1.010709E-02	2.708387E-04
4.985309E+03	1.006049E-02	2.670811E-04
4.995103E+03	1.001741E-02	2.632698E-04
5.004897E+03	9.977639E-03	2.594019E-04
5.014691E+03	9.940622E-03	2.554653E-04
5.024486E+03	9.906907E-03	2.514767E-04
5.034280E+03	9.875593E-03	2.474161E-04
5.044074E+03	9.847246E-03	2.433006E-04
5.053869E+03	9.821000E-03	2.391121E-04
5.063663E+03	9.797081E-03	2.348602E-04
5.073457E+03	9.775372E-03	2.305460E-04
5.083252E+03	9.755760E-03	2.261716E-04
5.093046E+03	9.738144E-03	2.217396E-04
5.102840E+03	9.722434E-03	2.172538E-04
5.112635E+03	9.708541E-03	2.127185E-04
5.122429E+03	9.696381E-03	2.081393E-04
5.132223E+03	9.685873E-03	2.035224E-04
5.142018E+03	9.676586E-03	1.988680E-04
5.151812E+03	9.669132E-03	1.941993E-04
5.161606E+03	9.663074E-03	1.895188E-04
5.171401E+03	9.657973E-03	1.848312E-04
5.181195E+03	9.654407E-03	1.801626E-04
5.190989E+03	9.651564E-03	1.755145E-04
5.200784E+03	9.650025E-03	1.709166E-04
5.210578E+03	9.649283E-03	1.663810E-04
5.220372E+03	9.648831E-03	1.619230E-04
5.230167E+03	9.649186E-03	1.575784E-04
5.239961E+03	9.649433E-03	1.533619E-04
5.249755E+03	9.650045E-03	1.493142E-04
5.259549E+03	9.650408E-03	1.454617E-04
5.269344E+03	9.650235E-03	1.418391E-04
5.279138E+03	9.648846E-03	1.384785E-04
5.288932E+03	9.646576E-03	1.354286E-04
5.298727E+03	9.642681E-03	1.327234E-04
5.308521E+03	9.636724E-03	1.304015E-04
5.318315E+03	9.628584E-03	1.285039E-04
5.328110E+03	9.617105E-03	1.270538E-04
5.337904E+03	9.602103E-03	1.260821E-04
5.347698E+03	9.583429E-03	1.256082E-04
5.357493E+03	9.559890E-03	1.256010E-04
5.367287E+03	9.531661E-03	1.260250E-04
5.377081E+03	9.497985E-03	1.268249E-04
5.386876E+03	9.458628E-03	1.279473E-04
5.396670E+03	9.413543E-03	1.293377E-04
5.406464E+03	9.362856E-03	1.309429E-04
5.416259E+03	9.306787E-03	1.327114E-04
5.426053E+03	9.245929E-03	1.345990E-04
5.435847E+03	9.180236E-03	1.365553E-04
5.445642E+03	9.110022E-03	1.385386E-04
5.455436E+03	9.035598E-03	1.405111E-04
5.465230E+03	8.957602E-03	1.424444E-04
5.475024E+03	8.875731E-03	1.442996E-04
5.484819E+03	8.790928E-03	1.460614E-04
5.494613E+03	8.703229E-03	1.477041E-04
5.504407E+03	8.613276E-03	1.492157E-04
5.514202E+03	8.521122E-03	1.505776E-04
5.523996E+03	8.427147E-03	1.517800E-04
5.533790E+03	8.331746E-03	1.528161E-04
5.543585E+03	8.235339E-03	1.536825E-04
5.553379E+03	8.138647E-03	1.543838E-04
5.563173E+03	8.041830E-03	1.549167E-04
5.572968E+03	7.945641E-03	1.552907E-04
5.582762E+03	7.850276E-03	1.555069E-04
5.592556E+03	7.756229E-03	1.555733E-04
5.602351E+03	7.663998E-03	1.554997E-04
5.612145E+03	7.574344E-03	1.553024E-04
5.621939E+03	7.487488E-03	1.549877E-04
5.631734E+03	7.404171E-03	1.545735E-04
5.641528E+03	7.324591E-03	1.540668E-04
5.651322E+03	7.249191E-03	1.534806E-04
5.661117E+03	7.178644E-03	1.528326E-04
5.670911E+03	7.113083E-03	1.521295E-04
5.680705E+03	7.053115E-03	1.513879E-04
5.690500E+03	6.998813E-03	1.506129E-04
5.700294E+03	6.950462E-03	1.498138E-04
5.710088E+03	6.908554E-03	1.490041E-04
5.719882E+03	6.873294E-03	1.481906E-04
5.729677E+03	6.844607E-03	1.473736E-04
5.739471E+03	6.822621E-03	1.465571E-04
5.749265E+03	6.807663E-03	1.457488E-04
5.759060E+03	6.799538E-03	1.449449E-04
5.768854E+03	6.798493E-03	1.441502E-04
5.778648E+03	6.804256E-03	1.433580E-04
5.788443E+03	6.816998E-03	1.425705E-04
5.798237E+03	6.836613E-03	1.417837E-04
5.808031E+03	6.862719E-03	1.409873E-04
5.817826E+03	6.895137E-03	1.401756E-04
5.827620E+03	6.933903E-03	1.393468E-04
5.837414E+03	6.978779E-03	1.384938E-04
5.847209E+03	7.029249E-03	1.376042E-04
5.857003E+03	7.085267E-03	1.366754E-04
5.866797E+03	7.146259E-03	1.356954E-04
5.876592E+03	7.212132E-03	1.346624E-04
5.886386E+03	7.282527E-03	1.335708E-04
5.896180E+03	7.356799E-03	1.324112E-04
5.905975E+03	7.434810E-03	1.311858E-04
5.915769E+03	7.515879E-03	1.298891E-04
5.925563E+03	7.600116E-03	1.285322E-04
5.935357E+03	7.686276E-03	1.271064E-04
5.945152E+03	7.774728E-03	1.256337E-04
5.954946E+03	7.864471E-03	1.241177E-04
5.964740E+03	7.955324E-03	1.225799E-04
5.974535E+03	8.046540E-03	1.210383E-04
5.984329E+03	8.137932E-03	1.195253E-04
5.994123E+03	8.229029E-03	1.180746E-04
6.003918E+03	8.319058E-03	1.167223E-04
6.013712E+03	8.408131E-03	1.155230E-04
6.023506E+03	8.494855E-03	1.145166E-04
6.033301E+03	8.579646E-03	1.137725E-04
6.043095E+03	8.661393E-03	1.133431E-04
6.052889E+03	8.740216E-03	1.132987E-04
6.062684E+03	8.814671E-03	1.136880E-04
6.072478E+03	8.885209E-03	1.145801E-04
6.082272E+03	8.950707E-03	1.160161E-04
6.092067E+03	9.011021E-03	1.180324E-04
6.101861E+03	9.065731E-03	1.206204E-04
6.111655E+03	9.114482E-03	1.237519E-04
6.121450E+03	9.157059E-03	1.273901E-04
6.131244E+03	9.193060E-03	1.314870E-04
6.141038E+03	9.222850E-03	1.359996E-04
6.150833E+03	9.246513E-03	1.408780E-04
6.160627E+03	9.263821E-03	1.460663E-04
6.170421E+03	9.275574E-03	1.515252E-04
6.180215E+03	9.281229E-03	1.571954E-04
6.190010E+03	9.281260E-03	1.630366E-04
6.199804E+03	9.275803E-03	1.690056E-04
6.209598E+03	9.264998E-03	1.750623E-04
6.219393E+03	9.248976E-03	1.811694E-04
6.229187E+03	9.227869E-03	1.872927E-04
6.238981E+03	9.201466E-03	1.933934E-04
6.248776E+03	9.170233E-03	1.994492E-04
6.258570E+03	9.134632E-03	2.054409E-04
6.268364E+03	9.094118E-03	2.113296E-04
6.278159E+03	9.049156E-03	2.171004E-04
6.287953E+03	8.999878E-03	2.227333E-04
6.297747E+03	8.946421E-03	2.282102E-04
6.307542E+03	8.888601E-03	2.335063E-04
6.317336E+03	8.827225E-03	2.386242E-04
6.327130E+03	8.762117E-03	2.435428E-04
6.336925E+03	8.693122E-03	2.482421E-04
6.346719E+03	8.621054E-03	2.527307E-04
6.356513E+03	8.545772E-03	2.569920E-04
6.366308E+03	8.467142E-03	2.610099E-04
6.376102E+03	8.385992E-03	2.647990E-04
6.385896E+03	8.301893E-03	2.683362E-04
6.395690E+03	8.215362E-03	2.716294E-04
6.405485E+03	8.126913E-03	2.746881E-04
6.415279E+03	8.036147E-03	2.774924E-04
6.425073E+03	7.943884E-03	2.800649E-04
6.434868E+03	7.849743E-03	2.823874E-04
6.444662E+03	7.754536E-03	2.844852E-04
6.454456E+03	7.657898E-03	2.863419E-04
6.464251E+03	7.560626E-03	2.879850E-04
6.474045E+03	7.462371E-03	2.893997E-04
6.483839E+03	7.363914E-03	2.906154E-04
6.493634E+03	7.264916E-03	2.916188E-04
6.503428E+03	7.166142E-03	2.924410E-04
6.513222E+03	7.067528E-03	2.930810E-04
6.523017E+03	6.969018E-03	2.935380E-04
6.532811E+03	6.871349E-03	2.938452E-04
6.542605E+03	6.774455E-03	2.940029E-04
6.552400E+03	6.678532E-03	2.940231E-04
6.562194E+03	6.583773E-03	2.939179E-04
6.571988E+03	6.490610E-03	2.937109E-04
6.581783E+03	6.398726E-03	2.933926E-04
6.591577E+03	6.308544E-03	2.929868E-04
6.601371E+03	6.220472E-03	2.925178E-04
6.611166E+03	6.134190E-03	2.919763E-04
6.620960E+03	6.050323E-03	2.913975E-04
6.630754E+03	5.968552E-03	2.907721E-04
6.640548E+03	5.889474E-03	2.901351E-04
6.650343E+03	5.812988E-03	2.894881E-04
6.660137E+03	5.739217E-03	2.888435E-04
6.669931E+03	5.668492E-03	2.882245E-04
6.679726E+03	5.600482E-03	2.876211E-04
6.689520E+03	5.535506E-03	2.870558E-04
6.699314E+03	5.473864E-03	2.865509E-04
6.709109E+03	5.415216E-03	2.860954E-04
6.718903E+03	5.360057E-03	2.857218E-04
6.728697E+03	5.308243E-03	2.854293E-04
6.738492E+03	5.259837E-03	2.852275E-04
6.748286E+03	5.214891E-03	2.851259E-04
6.758080E+03	5.173453E-03	2.851333E-04
6.767875E+03	5.135765E-03	2.852694E-04
6.777669E+03	5.101461E-03	2.855202E-04
6.787463E+03	5.070773E-03	2.859043E-04
6.797258E+03	5.043921E-03	2.864404E-04
6.807052E+03	5.020725E-03	2.871241E-04
6.816846E+03	5.001202E-03	2.879621E-04
6.826641E+03	4.985361E-03	2.889605E-04
6.836435E+03	4.973207E-03	2.901250E-04
6.846229E+03	4.964745E-03	2.914611E-04
6.856024E+03	4.959970E-03	2.929739E-04
6.865818E+03	4.958874E-03	2.946679E-04
6.875612E+03	4.961644E-03	2.965593E-04
6.885406E+03	4.967875E-03	2.986287E-04
6.895201E+03	4.977938E-03	3.009033E-04
6.904995E+03	4.991616E-03	3.033745E-04
6.914789E+03	5.008683E-03	3.060333E-04
6.924584E+03	5.029503E-03	3.089062E-04
6.934378E+03	5.053841E-03	3.119833E-04
6.944172E+03	5.081656E-03	3.152665E-04
6.953967E+03	5.112898E-03	3.187569E-04
6.963761E+03	5.147516E-03	3.224554E-04
6.973555E+03	5.185445E-03	3.263623E-04
6.983350E+03	5.226620E-03	3.304774E-04
6.993144E+03	5.270962E-03	3.348000E-04
7.002938E+03	5.318386E-03	3.393286E-04
7.012733E+03	5.368800E-03	3.440614E-04
7.022527E+03	5.422097E-03	3.489957E-04
7.032321E+03	5.478161E-03	3.541279E-04
7.042116E+03	5.536868E-03	3.594541E-04
7.051910E+03	5.598074E-03	3.649690E-04
7.061704E+03	5.661628E-03	3.706668E-04
7.071499E+03	5.727363E-03	3.765406E-04
7.081293E+03	5.795098E-03	3.825826E-04
7.091087E+03	5.864636E-03	3.887838E-04
7.100881E+03	5.935528E-03	3.951184E-04
7.110676E+03	6.008018E-03	4.016070E-04
7.120470E+03	6.081631E-03	4.082216E-04
7.130264E+03	6.155857E-03	4.149322E-04
7.140059E+03	6.230917E-03	4.217577E-04
7.149853E+03	6.306022E-03	4.286486E-04
7.159647E+03	6.381119E-03	4.356053E-04
7.169442E+03	6.455892E-03	4.426098E-04
7.179236E+03	6.530019E-03	4.496438E-04
7.189030E+03	6.603162E-03	4.566878E-04
7.198825E+03	6.674982E-03	4.637217E-04
7.208619E+03	6.744860E-03	4.707056E-04
7.218413E+03	6.812993E-03	4.776562E-04
7.228208E+03	6.878486E-03	4.845136E-04
7.238002E+03	6.941270E-03	4.912754E-04
7.247796E+03	7.001015E-03	4.979202E-04
7.257591E+03	7.057398E-03	5.044269E-04
7.267385E+03	7.109824E-03	5.107543E-04
7.277179E+03	7.158290E-03	5.169029E-04
7.286974E+03	7.202530E-03	5.228540E-04
7.296768E+03	7.242302E-03	5.285902E-04
7.306562E+03	7.277395E-03	5.340954E-04
7.316357E+03	7.307322E-03	5.393331E-04
7.326151E+03	7.332228E-03	5.443121E-04
7.335945E+03	7.351996E-03	5.490216E-04
7.345739E+03	7.366539E-03	5.534526E-04
7.355534E+03	7.375504E-03	5.575753E-04
7.365328E+03	7.379175E-03	5.614072E-04
7.375122E+03	7.377571E-03	5.649458E-04
7.384917E+03	7.370437E-03	5.681653E-04
7.394711E+03	7.358157E-03	5.710861E-04
7.404505E+03	7.340847E-03	5.737067E-04
7.414300E+03	7.318338E-03	5.760036E-04
7.424094E+03	7.291408E-03	5.780270E-04
7.433888E+03	7.259639E-03	5.797330E-04
7.443683E+03	7.223250E-03	5.811279E-04
7.453477E+03	7.182777E-03	5.822435E-04
7.463271E+03	7.138465E-03	5.830888E-04
7.473066E+03	7.090253E-03	5.836481E-04
7.482860E+03	7.038973E-03	5.839793E-04
7.492654E+03	6.983982E-03	5.840190E-04
7.502449E+03	6.926414E-03	5.838513E-04
7.512243E+03	6.865932E-03	5.834385E-04
7.522037E+03	6.802782E-03	5.827918E-04
7.531832E+03	6.737774E-03	5.819717E-04
7.541626E+03	6.670276E-03	5.809150E-04
7.551420E+03	6.601348E-03	5.797055E-04
7.561214E+03	6.530619E-03	5.783034E-04
7.571009E+03	6.458549E-03	5.767417E-04
7.580803E+03	6.385025E-03	5.750035E-04
7.590597E+03	6.310466E-03	5.731194E-04
7.600392E+03	6.234731E-03	5.710706E-04
