#wls	flux	fluxerr
1.567091E+03	2.303679E-04	2.376819E-06
1.606268E+03	2.275926E-04	2.347644E-06
1.645446E+03	2.246880E-04	2.317135E-06
1.684623E+03	2.217363E-04	2.286139E-06
1.723800E+03	2.186997E-04	2.254270E-06
1.762977E+03	2.156196E-04	2.221953E-06
1.802155E+03	2.124608E-04	2.188827E-06
1.841332E+03	2.092277E-04	2.154938E-06
1.880509E+03	2.059256E-04	2.120342E-06
1.919687E+03	2.025961E-04	2.085469E-06
1.958864E+03	1.992092E-04	2.050008E-06
1.998041E+03	1.957724E-04	2.014041E-06
2.037218E+03	1.922942E-04	1.977654E-06
2.076396E+03	1.888168E-04	1.941282E-06
2.115573E+03	1.853484E-04	1.905011E-06
2.154750E+03	1.818352E-04	1.868288E-06
2.193928E+03	1.783531E-04	1.831892E-06
2.233105E+03	1.749132E-04	1.795939E-06
2.272282E+03	1.714685E-04	1.759948E-06
2.311459E+03	1.680942E-04	1.724689E-06
2.350637E+03	1.648047E-04	1.690310E-06
2.389814E+03	1.615880E-04	1.656688E-06
2.428991E+03	1.584627E-04	1.624015E-06
2.468168E+03	1.554492E-04	1.592496E-06
2.507346E+03	1.525947E-04	1.562617E-06
2.546523E+03	1.499206E-04	1.534594E-06
2.585700E+03	1.474006E-04	1.508155E-06
2.624878E+03	1.451117E-04	1.484088E-06
2.664055E+03	1.430817E-04	1.462676E-06
2.703232E+03	1.413177E-04	1.443985E-06
2.742409E+03	1.398549E-04	1.428372E-06
2.781587E+03	1.387552E-04	1.416467E-06
2.820764E+03	1.380387E-04	1.408468E-06
2.859941E+03	1.377550E-04	1.404875E-06
2.899119E+03	1.379831E-04	1.406488E-06
2.938296E+03	1.387651E-04	1.413728E-06
2.948090E+03	1.390444E-04	1.416388E-06
2.957884E+03	1.393871E-04	1.419692E-06
2.967679E+03	1.397719E-04	1.423423E-06
2.977473E+03	1.401770E-04	1.427359E-06
2.987267E+03	1.406500E-04	1.431983E-06
2.997062E+03	1.411695E-04	1.437079E-06
3.006856E+03	1.417137E-04	1.442424E-06
3.016650E+03	1.423308E-04	1.448509E-06
3.026445E+03	1.429993E-04	1.455114E-06
3.036239E+03	1.436977E-04	1.462021E-06
3.046033E+03	1.444746E-04	1.469722E-06
3.055828E+03	1.453089E-04	1.478004E-06
3.065622E+03	1.462023E-04	1.486885E-06
3.075416E+03	1.471573E-04	1.496388E-06
3.085211E+03	1.481759E-04	1.506535E-06
3.095005E+03	1.492608E-04	1.517351E-06
3.104799E+03	1.503898E-04	1.528612E-06
3.114594E+03	1.516145E-04	1.540840E-06
3.124388E+03	1.529132E-04	1.553816E-06
3.134182E+03	1.542889E-04	1.567569E-06
3.143976E+03	1.557445E-04	1.582130E-06
3.153771E+03	1.572831E-04	1.597528E-06
3.163565E+03	1.589083E-04	1.613800E-06
3.173359E+03	1.606234E-04	1.630978E-06
3.183154E+03	1.624321E-04	1.649101E-06
3.192948E+03	1.643383E-04	1.668207E-06
3.202742E+03	1.663728E-04	1.688608E-06
3.212537E+03	1.684865E-04	1.709806E-06
3.222331E+03	1.707103E-04	1.732113E-06
3.232125E+03	1.730490E-04	1.755578E-06
3.241920E+03	1.755074E-04	1.780249E-06
3.251714E+03	1.780908E-04	1.806179E-06
3.261508E+03	1.808045E-04	1.833421E-06
3.271303E+03	1.836835E-04	1.862329E-06
3.281097E+03	1.866756E-04	1.892374E-06
3.290891E+03	1.898159E-04	1.923910E-06
3.300686E+03	1.931111E-04	1.957004E-06
3.310480E+03	1.965994E-04	1.992044E-06
3.320274E+03	2.002259E-04	2.028471E-06
3.330069E+03	2.040290E-04	2.066675E-06
3.339863E+03	2.080500E-04	2.107071E-06
3.349657E+03	2.122317E-04	2.149080E-06
3.359452E+03	2.166153E-04	2.193119E-06
3.369246E+03	2.212454E-04	2.239637E-06
3.379040E+03	2.260619E-04	2.288026E-06
3.388834E+03	2.311098E-04	2.338739E-06
3.398629E+03	2.364373E-04	2.392262E-06
3.408423E+03	2.419813E-04	2.447957E-06
3.418217E+03	2.478297E-04	2.506711E-06
3.428012E+03	2.539173E-04	2.567863E-06
3.437806E+03	2.603367E-04	2.632348E-06
3.447600E+03	2.670201E-04	2.699477E-06
3.457395E+03	2.740219E-04	2.769802E-06
3.467189E+03	2.814015E-04	2.843920E-06
3.476983E+03	2.890870E-04	2.921101E-06
3.486778E+03	2.971847E-04	3.002420E-06
3.496572E+03	3.056195E-04	3.087113E-06
3.506366E+03	3.145043E-04	3.176320E-06
3.516161E+03	3.237603E-04	3.269243E-06
3.525955E+03	3.335074E-04	3.367091E-06
3.535749E+03	3.437169E-04	3.469570E-06
3.545544E+03	3.543547E-04	3.576334E-06
3.555338E+03	3.655525E-04	3.688709E-06
3.565132E+03	3.772208E-04	3.805790E-06
3.574927E+03	3.895000E-04	3.928990E-06
3.584721E+03	4.022954E-04	4.057349E-06
3.594515E+03	4.157568E-04	4.192377E-06
3.604310E+03	4.298506E-04	4.333731E-06
3.614104E+03	4.445360E-04	4.480994E-06
3.623898E+03	4.599783E-04	4.635832E-06
3.633692E+03	4.760672E-04	4.797125E-06
3.643487E+03	4.929792E-04	4.966652E-06
3.653281E+03	5.106757E-04	5.144016E-06
3.663075E+03	5.291079E-04	5.328721E-06
3.672870E+03	5.484716E-04	5.522737E-06
3.682664E+03	5.687232E-04	5.725617E-06
3.692458E+03	5.898081E-04	5.936808E-06
3.702253E+03	6.119429E-04	6.158484E-06
3.712047E+03	6.349801E-04	6.389154E-06
3.721841E+03	6.591515E-04	6.631145E-06
3.731636E+03	6.844027E-04	6.883904E-06
3.741430E+03	7.106653E-04	7.146736E-06
3.751224E+03	7.381956E-04	7.422213E-06
3.761019E+03	7.669305E-04	7.709692E-06
3.770813E+03	7.967903E-04	8.008364E-06
3.780607E+03	8.280585E-04	8.321071E-06
3.790402E+03	8.606603E-04	8.647056E-06
3.800196E+03	8.945026E-04	8.985373E-06
3.809990E+03	9.298976E-04	9.339150E-06
3.819785E+03	9.666082E-04	9.705997E-06
3.829579E+03	1.004968E-03	1.008926E-05
3.839373E+03	1.044878E-03	1.048793E-05
3.849167E+03	1.086213E-03	1.090074E-05
3.858962E+03	1.129340E-03	1.133136E-05
3.868756E+03	1.174136E-03	1.177855E-05
3.878550E+03	1.220457E-03	1.224086E-05
3.888345E+03	1.268701E-03	1.272227E-05
3.898139E+03	1.318523E-03	1.321930E-05
3.907933E+03	1.370348E-03	1.373621E-05
3.917728E+03	1.424012E-03	1.427135E-05
3.927522E+03	1.479317E-03	1.482270E-05
3.937316E+03	1.536723E-03	1.539488E-05
3.947111E+03	1.595793E-03	1.598350E-05
3.956905E+03	1.657015E-03	1.659342E-05
3.966699E+03	1.720164E-03	1.722239E-05
3.976494E+03	1.784978E-03	1.786775E-05
3.986288E+03	1.851982E-03	1.853479E-05
3.996082E+03	1.920622E-03	1.921790E-05
4.005877E+03	1.991452E-03	1.992265E-05
4.015671E+03	2.063863E-03	2.064292E-05
4.025465E+03	2.138438E-03	2.138453E-05
4.035260E+03	2.214511E-03	2.214081E-05
4.045054E+03	2.292694E-03	2.291786E-05
4.054848E+03	2.372258E-03	2.370839E-05
4.064643E+03	2.453845E-03	2.451880E-05
4.074437E+03	2.536663E-03	2.534117E-05
4.084231E+03	2.621384E-03	2.618220E-05
4.094025E+03	2.707150E-03	2.703332E-05
4.103820E+03	2.794246E-03	2.789735E-05
4.113614E+03	2.882996E-03	2.877753E-05
4.123408E+03	2.972442E-03	2.966428E-05
4.133203E+03	3.062877E-03	3.056053E-05
4.142997E+03	3.154640E-03	3.146964E-05
4.152791E+03	3.246666E-03	3.238098E-05
4.162586E+03	3.339758E-03	3.330256E-05
4.172380E+03	3.432783E-03	3.422310E-05
4.182174E+03	3.526062E-03	3.514576E-05
4.191969E+03	3.619426E-03	3.606888E-05
4.201763E+03	3.713252E-03	3.699620E-05
4.211557E+03	3.806276E-03	3.791514E-05
4.221352E+03	3.898854E-03	3.882924E-05
4.231146E+03	3.990803E-03	3.973669E-05
4.240940E+03	4.081940E-03	4.063566E-05
4.250735E+03	4.172699E-03	4.153048E-05
4.260529E+03	4.261681E-03	4.240723E-05
4.270323E+03	4.349311E-03	4.327016E-05
4.280118E+03	4.435421E-03	4.411759E-05
4.289912E+03	4.519843E-03	4.494787E-05
4.299706E+03	4.602421E-03	4.575945E-05
4.309500E+03	4.683005E-03	4.655087E-05
4.319295E+03	4.761456E-03	4.732074E-05
4.329089E+03	4.837648E-03	4.806783E-05
4.338883E+03	4.911464E-03	4.879099E-05
4.348678E+03	4.982798E-03	4.948920E-05
4.358472E+03	5.051559E-03	5.016155E-05
4.368266E+03	5.117670E-03	5.080730E-05
4.378061E+03	5.181063E-03	5.142579E-05
4.387855E+03	5.241686E-03	5.201652E-05
4.397649E+03	5.299499E-03	5.257912E-05
4.407444E+03	5.353693E-03	5.310558E-05
4.417238E+03	5.405807E-03	5.361118E-05
4.427032E+03	5.455064E-03	5.408825E-05
4.436827E+03	5.501472E-03	5.453686E-05
4.446621E+03	5.544242E-03	5.494922E-05
4.456415E+03	5.585007E-03	5.534155E-05
4.466210E+03	5.623006E-03	5.570629E-05
4.476004E+03	5.657461E-03	5.603579E-05
4.485798E+03	5.690064E-03	5.634681E-05
4.495593E+03	5.720056E-03	5.663186E-05
4.505387E+03	5.746674E-03	5.688338E-05
4.515181E+03	5.771650E-03	5.711855E-05
4.524976E+03	5.793394E-03	5.732165E-05
4.534770E+03	5.813659E-03	5.751005E-05
4.544564E+03	5.830856E-03	5.766802E-05
4.554358E+03	5.846752E-03	5.781307E-05
4.564153E+03	5.859753E-03	5.792945E-05
4.573947E+03	5.870794E-03	5.802642E-05
4.583741E+03	5.880817E-03	5.811331E-05
4.593536E+03	5.888224E-03	5.817431E-05
4.603330E+03	5.893956E-03	5.821877E-05
4.613124E+03	5.898959E-03	5.825602E-05
4.622919E+03	5.901629E-03	5.827024E-05
4.632713E+03	5.902911E-03	5.827076E-05
4.642507E+03	5.902897E-03	5.825852E-05
4.652302E+03	5.901681E-03	5.823443E-05
4.662096E+03	5.899352E-03	5.819940E-05
4.671890E+03	5.895999E-03	5.815430E-05
4.681685E+03	5.891709E-03	5.810000E-05
4.691479E+03	5.886565E-03	5.803733E-05
4.701273E+03	5.880650E-03	5.796711E-05
4.711068E+03	5.874042E-03	5.789012E-05
4.720862E+03	5.866817E-03	5.780710E-05
4.730656E+03	5.859050E-03	5.771881E-05
4.740451E+03	5.850809E-03	5.762591E-05
4.750245E+03	5.842162E-03	5.752909E-05
4.760039E+03	5.833173E-03	5.742897E-05
4.769833E+03	5.823074E-03	5.731800E-05
4.779628E+03	5.813583E-03	5.721309E-05
4.789422E+03	5.803923E-03	5.710660E-05
4.799216E+03	5.793321E-03	5.699091E-05
4.809011E+03	5.783475E-03	5.688276E-05
4.818805E+03	5.773604E-03	5.677443E-05
4.828599E+03	5.762929E-03	5.665830E-05
4.838394E+03	5.753130E-03	5.655085E-05
4.848188E+03	5.742604E-03	5.643634E-05
4.857982E+03	5.733016E-03	5.633115E-05
4.867777E+03	5.722765E-03	5.621953E-05
4.877571E+03	5.712693E-03	5.610976E-05
4.887365E+03	5.703628E-03	5.600997E-05
4.897160E+03	5.693976E-03	5.590450E-05
4.906954E+03	5.684559E-03	5.580144E-05
4.916748E+03	5.676196E-03	5.570881E-05
4.926543E+03	5.667289E-03	5.561093E-05
4.936337E+03	5.658652E-03	5.551579E-05
4.946131E+03	5.650291E-03	5.542346E-05
4.955926E+03	5.642207E-03	5.533393E-05
4.965720E+03	5.634401E-03	5.524723E-05
4.975514E+03	5.627666E-03	5.517112E-05
4.985309E+03	5.620409E-03	5.508998E-05
4.995103E+03	5.613418E-03	5.501154E-05
5.004897E+03	5.605894E-03	5.492799E-05
5.014691E+03	5.599410E-03	5.485471E-05
5.024486E+03	5.593160E-03	5.478382E-05
5.034280E+03	5.587132E-03	5.471520E-05
5.044074E+03	5.581309E-03	5.464869E-05
5.053869E+03	5.575675E-03	5.458412E-05
5.063663E+03	5.569428E-03	5.451365E-05
5.073457E+03	5.564115E-03	5.445243E-05
5.083252E+03	5.558932E-03	5.439258E-05
5.093046E+03	5.553078E-03	5.432626E-05
5.102840E+03	5.548090E-03	5.426852E-05
5.112635E+03	5.543167E-03	5.421151E-05
5.122429E+03	5.537506E-03	5.414741E-05
5.132223E+03	5.532642E-03	5.409119E-05
5.142018E+03	5.526997E-03	5.402745E-05
5.151812E+03	5.522101E-03	5.397114E-05
5.161606E+03	5.516382E-03	5.390690E-05
5.171401E+03	5.510594E-03	5.384210E-05
5.181195E+03	5.505488E-03	5.378408E-05
5.190989E+03	5.499504E-03	5.371758E-05
5.200784E+03	5.493396E-03	5.365001E-05
5.210578E+03	5.487148E-03	5.358119E-05
5.220372E+03	5.481515E-03	5.351849E-05
5.230167E+03	5.474952E-03	5.344685E-05
5.239961E+03	5.468220E-03	5.337367E-05
5.249755E+03	5.461312E-03	5.329891E-05
5.259549E+03	5.454228E-03	5.322256E-05
5.269344E+03	5.446969E-03	5.314464E-05
5.279138E+03	5.439541E-03	5.306520E-05
5.288932E+03	5.431952E-03	5.298432E-05
5.298727E+03	5.424213E-03	5.290212E-05
5.308521E+03	5.416340E-03	5.281876E-05
5.318315E+03	5.408352E-03	5.273441E-05
5.328110E+03	5.400269E-03	5.264928E-05
5.337904E+03	5.391363E-03	5.255627E-05
5.347698E+03	5.383162E-03	5.247028E-05
5.357493E+03	5.374935E-03	5.238418E-05
5.367287E+03	5.366703E-03	5.229818E-05
5.377081E+03	5.357731E-03	5.220512E-05
5.386876E+03	5.349512E-03	5.211954E-05
5.396670E+03	5.341287E-03	5.203405E-05
5.406464E+03	5.332290E-03	5.194118E-05
5.416259E+03	5.323974E-03	5.185509E-05
5.426053E+03	5.314825E-03	5.176103E-05
5.435847E+03	5.306290E-03	5.167310E-05
5.445642E+03	5.296862E-03	5.157661E-05
5.455436E+03	5.287985E-03	5.148563E-05
5.465230E+03	5.278161E-03	5.138558E-05
5.475024E+03	5.268105E-03	5.128341E-05
5.484819E+03	5.258528E-03	5.118606E-05
5.494613E+03	5.247951E-03	5.107911E-05
5.504407E+03	5.237095E-03	5.096959E-05
5.514202E+03	5.225950E-03	5.085740E-05
5.523996E+03	5.215235E-03	5.074955E-05
5.533790E+03	5.203497E-03	5.063187E-05
5.543585E+03	5.191462E-03	5.051145E-05
5.553379E+03	5.179130E-03	5.038829E-05
5.563173E+03	5.166507E-03	5.026244E-05
5.572968E+03	5.153598E-03	5.013395E-05
5.582762E+03	5.140411E-03	5.000291E-05
5.592556E+03	5.126954E-03	4.986938E-05
5.602351E+03	5.113237E-03	4.973345E-05
5.612145E+03	5.099270E-03	4.959525E-05
5.621939E+03	5.085064E-03	4.945485E-05
5.631734E+03	5.070630E-03	4.931238E-05
5.641528E+03	5.055977E-03	4.916793E-05
5.651322E+03	5.040420E-03	4.901482E-05
5.661117E+03	5.025365E-03	4.886674E-05
5.670911E+03	5.010124E-03	4.871698E-05
5.680705E+03	4.994704E-03	4.856562E-05
5.690500E+03	4.978425E-03	4.840604E-05
5.700294E+03	4.962673E-03	4.825174E-05
5.710088E+03	4.946763E-03	4.809603E-05
5.719882E+03	4.930018E-03	4.793233E-05
5.729677E+03	4.913808E-03	4.777397E-05
5.739471E+03	4.897450E-03	4.761431E-05
5.749265E+03	4.880269E-03	4.744679E-05
5.759060E+03	4.863618E-03	4.728454E-05
5.768854E+03	4.846148E-03	4.711446E-05
5.778648E+03	4.829197E-03	4.694956E-05
5.788443E+03	4.811422E-03	4.677678E-05
5.798237E+03	4.793489E-03	4.660259E-05
5.808031E+03	4.776050E-03	4.643334E-05
5.817826E+03	4.757773E-03	4.625607E-05
5.827620E+03	4.739968E-03	4.608351E-05
5.837414E+03	4.721310E-03	4.590279E-05
5.847209E+03	4.702447E-03	4.572019E-05
5.857003E+03	4.683367E-03	4.553561E-05
5.866797E+03	4.664702E-03	4.535518E-05
5.876592E+03	4.645146E-03	4.516621E-05
5.886386E+03	4.625334E-03	4.497488E-05
5.896180E+03	4.605253E-03	4.478104E-05
5.905975E+03	4.584888E-03	4.458457E-05
5.915769E+03	4.564228E-03	4.438534E-05
5.925563E+03	4.543888E-03	4.418934E-05
5.935357E+03	4.522597E-03	4.398420E-05
5.945152E+03	4.500974E-03	4.377595E-05
5.954946E+03	4.479011E-03	4.356450E-05
5.964740E+03	4.456699E-03	4.334977E-05
5.974535E+03	4.434031E-03	4.313167E-05
5.984329E+03	4.411002E-03	4.291018E-05
5.994123E+03	4.387609E-03	4.268524E-05
6.003918E+03	4.363248E-03	4.245099E-05
6.013712E+03	4.339131E-03	4.221921E-05
6.023506E+03	4.314656E-03	4.198404E-05
6.033301E+03	4.289829E-03	4.174555E-05
6.043095E+03	4.264662E-03	4.150384E-05
6.052889E+03	4.239168E-03	4.125902E-05
6.062684E+03	4.212778E-03	4.100557E-05
6.072478E+03	4.186682E-03	4.075506E-05
6.082272E+03	4.160316E-03	4.050198E-05
6.092067E+03	4.133701E-03	4.024656E-05
6.101861E+03	4.106294E-03	3.998348E-05
6.111655E+03	4.079252E-03	3.972403E-05
6.121450E+03	4.052011E-03	3.946268E-05
6.131244E+03	4.024005E-03	3.919394E-05
6.141038E+03	3.996340E-03	3.892857E-05
6.150833E+03	3.968441E-03	3.866096E-05
6.160627E+03	3.939751E-03	3.838569E-05
6.170421E+03	3.911357E-03	3.811333E-05
6.180215E+03	3.882169E-03	3.783327E-05
6.190010E+03	3.853264E-03	3.755599E-05
6.199804E+03	3.823575E-03	3.727109E-05
6.209598E+03	3.794170E-03	3.698899E-05
6.219393E+03	3.764007E-03	3.669950E-05
6.229187E+03	3.734142E-03	3.641294E-05
6.238981E+03	3.703555E-03	3.611934E-05
6.248776E+03	3.672784E-03	3.582395E-05
6.258570E+03	3.642353E-03	3.553187E-05
6.268364E+03	3.611272E-03	3.523345E-05
6.278159E+03	3.580569E-03	3.493871E-05
6.287953E+03	3.549273E-03	3.463817E-05
6.297747E+03	3.517910E-03	3.433697E-05
6.307542E+03	3.486507E-03	3.403536E-05
6.317336E+03	3.455573E-03	3.373830E-05
6.327130E+03	3.424171E-03	3.343665E-05
6.336925E+03	3.392816E-03	3.313543E-05
6.346719E+03	3.361534E-03	3.283490E-05
6.356513E+03	3.330819E-03	3.253987E-05
6.366308E+03	3.299770E-03	3.224155E-05
6.376102E+03	3.268882E-03	3.194476E-05
6.385896E+03	3.238182E-03	3.164977E-05
6.395690E+03	3.207699E-03	3.135686E-05
6.405485E+03	3.177462E-03	3.106631E-05
6.415279E+03	3.147493E-03	3.077834E-05
6.425073E+03	3.118254E-03	3.049746E-05
6.434868E+03	3.088899E-03	3.021541E-05
6.444662E+03	3.059890E-03	2.993668E-05
6.454456E+03	3.031249E-03	2.966151E-05
6.464251E+03	3.002999E-03	2.939011E-05
6.474045E+03	2.975161E-03	2.912269E-05
6.483839E+03	2.947756E-03	2.885946E-05
6.493634E+03	2.920803E-03	2.860060E-05
6.503428E+03	2.894320E-03	2.834630E-05
6.513222E+03	2.868323E-03	2.809670E-05
6.523017E+03	2.842437E-03	2.784813E-05
6.532811E+03	2.817468E-03	2.760850E-05
6.542605E+03	2.793033E-03	2.737403E-05
6.552400E+03	2.769144E-03	2.714488E-05
6.562194E+03	2.745815E-03	2.692115E-05
6.571988E+03	2.723055E-03	2.670296E-05
6.581783E+03	2.700877E-03	2.649042E-05
6.591577E+03	2.678916E-03	2.627996E-05
6.601371E+03	2.657931E-03	2.607902E-05
6.611166E+03	2.637550E-03	2.588396E-05
6.620960E+03	2.617784E-03	2.569489E-05
6.630754E+03	2.598637E-03	2.551184E-05
6.640548E+03	2.579756E-03	2.533136E-05
6.650343E+03	2.561864E-03	2.516055E-05
6.660137E+03	2.544605E-03	2.499591E-05
6.669931E+03	2.527629E-03	2.483401E-05
6.679726E+03	2.511645E-03	2.468181E-05
6.689520E+03	2.496299E-03	2.453584E-05
6.699314E+03	2.481247E-03	2.439272E-05
6.709109E+03	2.467181E-03	2.425926E-05
6.718903E+03	2.453754E-03	2.413204E-05
6.728697E+03	2.440623E-03	2.400771E-05
6.738492E+03	2.428469E-03	2.389295E-05
6.748286E+03	2.416611E-03	2.378108E-05
6.758080E+03	2.405720E-03	2.367870E-05
6.767875E+03	2.395121E-03	2.357916E-05
6.777669E+03	2.385479E-03	2.348900E-05
6.787463E+03	2.376119E-03	2.340162E-05
6.797258E+03	2.367705E-03	2.332352E-05
6.807052E+03	2.359564E-03	2.324809E-05
6.816846E+03	2.352351E-03	2.318179E-05
6.826641E+03	2.345401E-03	2.311806E-05
6.836435E+03	2.339361E-03	2.306330E-05
6.846229E+03	2.333568E-03	2.301095E-05
6.856024E+03	2.328667E-03	2.296739E-05
6.865818E+03	2.323995E-03	2.292607E-05
6.875612E+03	2.319869E-03	2.289013E-05
6.885406E+03	2.316600E-03	2.286265E-05
6.895201E+03	2.313528E-03	2.283711E-05
6.904995E+03	2.310966E-03	2.281660E-05
6.914789E+03	2.309224E-03	2.280418E-05
6.924584E+03	2.307641E-03	2.279333E-05
6.934378E+03	2.306525E-03	2.278709E-05
6.944172E+03	2.306185E-03	2.278853E-05
6.953967E+03	2.305958E-03	2.279109E-05
6.963761E+03	2.306150E-03	2.279780E-05
6.973555E+03	2.306744E-03	2.280848E-05
6.983350E+03	2.308045E-03	2.282617E-05
6.993144E+03	2.309386E-03	2.284427E-05
7.002938E+03	2.311071E-03	2.286578E-05
7.012733E+03	2.313079E-03	2.289049E-05
7.022527E+03	2.315387E-03	2.291818E-05
7.032321E+03	2.317973E-03	2.294864E-05
7.042116E+03	2.321139E-03	2.298487E-05
7.051910E+03	2.324210E-03	2.302015E-05
7.061704E+03	2.327484E-03	2.305747E-05
7.071499E+03	2.330936E-03	2.309657E-05
7.081293E+03	2.334538E-03	2.313718E-05
7.091087E+03	2.338261E-03	2.317900E-05
7.100881E+03	2.342078E-03	2.322176E-05
7.110676E+03	2.345957E-03	2.326516E-05
7.120470E+03	2.349868E-03	2.330889E-05
7.130264E+03	2.353778E-03	2.335263E-05
7.140059E+03	2.357656E-03	2.339607E-05
7.149853E+03	2.361468E-03	2.343886E-05
7.159647E+03	2.365179E-03	2.348067E-05
7.169442E+03	2.368755E-03	2.352116E-05
7.179236E+03	2.372161E-03	2.355996E-05
7.189030E+03	2.375361E-03	2.359673E-05
7.198825E+03	2.377981E-03	2.362776E-05
7.208619E+03	2.380659E-03	2.365936E-05
7.218413E+03	2.383019E-03	2.368782E-05
7.228208E+03	2.385027E-03	2.371278E-05
7.238002E+03	2.386645E-03	2.373387E-05
7.247796E+03	2.387836E-03	2.375071E-05
7.257591E+03	2.388225E-03	2.375957E-05
7.267385E+03	2.388454E-03	2.376684E-05
7.277179E+03	2.388146E-03	2.376877E-05
7.286974E+03	2.387269E-03	2.376502E-05
7.296768E+03	2.385452E-03	2.375190E-05
7.306562E+03	2.383339E-03	2.373581E-05
7.316357E+03	2.380558E-03	2.371307E-05
7.326151E+03	2.377082E-03	2.368339E-05
7.335945E+03	2.372547E-03	2.364312E-05
7.345739E+03	2.367601E-03	2.359874E-05
7.355534E+03	2.361550E-03	2.354330E-05
7.365328E+03	2.355043E-03	2.348330E-05
7.375122E+03	2.347727E-03	2.341519E-05
7.384917E+03	2.339254E-03	2.333550E-05
7.394711E+03	2.330279E-03	2.325076E-05
7.404505E+03	2.320131E-03	2.315427E-05
7.414300E+03	2.309464E-03	2.305256E-05
7.424094E+03	2.297619E-03	2.293902E-05
7.433888E+03	2.285252E-03	2.282022E-05
7.443683E+03	2.271718E-03	2.268970E-05
7.453477E+03	2.257674E-03	2.255403E-05
7.463271E+03	2.242486E-03	2.240685E-05
7.473066E+03	2.226812E-03	2.225475E-05
7.482860E+03	2.210033E-03	2.209154E-05
7.492654E+03	2.192804E-03	2.192375E-05
7.502449E+03	2.174523E-03	2.174535E-05
7.512243E+03	2.155532E-03	2.155978E-05
7.522037E+03	2.136166E-03	2.137036E-05
7.531832E+03	2.115845E-03	2.117131E-05
7.541626E+03	2.094912E-03	2.096604E-05
7.551420E+03	2.073698E-03	2.075786E-05
7.561214E+03	2.051646E-03	2.054120E-05
7.571009E+03	2.029095E-03	2.031944E-05
7.580803E+03	2.006082E-03	2.009296E-05
7.590597E+03	1.982932E-03	1.986501E-05
7.600392E+03	1.959116E-03	1.963028E-05
