#wls	flux	fluxerr
1.587144E+03	3.095033E-17	2.706476E-19
1.626823E+03	3.224532E-17	2.813331E-19
1.666501E+03	3.333384E-17	2.901549E-19
1.706180E+03	3.418683E-17	2.968713E-19
1.745859E+03	3.476390E-17	3.011458E-19
1.785537E+03	3.498553E-17	3.023077E-19
1.825216E+03	3.475551E-17	2.995504E-19
1.864894E+03	3.397948E-17	2.920927E-19
1.904573E+03	3.257569E-17	2.792720E-19
1.944252E+03	3.054940E-17	2.611788E-19
1.983930E+03	2.803276E-17	2.389865E-19
2.023609E+03	2.535721E-17	2.155518E-19
2.063287E+03	2.301854E-17	1.950925E-19
2.102966E+03	2.155591E-17	1.821426E-19
2.142645E+03	2.139160E-17	1.801936E-19
2.182323E+03	2.273938E-17	1.909388E-19
2.222002E+03	2.562532E-17	2.144729E-19
2.261680E+03	2.990966E-17	2.494995E-19
2.301359E+03	3.535632E-17	2.939323E-19
2.341038E+03	4.168697E-17	3.453579E-19
2.380716E+03	4.864228E-17	4.015484E-19
2.420395E+03	5.603064E-17	4.608614E-19
2.460073E+03	6.372821E-17	5.222311E-19
2.499752E+03	7.167140E-17	5.850974E-19
2.539431E+03	7.983223E-17	6.491970E-19
2.579109E+03	8.820738E-17	7.144694E-19
2.618788E+03	9.682322E-17	7.810933E-19
2.658466E+03	1.056948E-16	8.491522E-19
2.698145E+03	1.148565E-16	9.188824E-19
2.737824E+03	1.243405E-16	9.904964E-19
2.777502E+03	1.341640E-16	1.064084E-18
2.817181E+03	1.443864E-16	1.140063E-18
2.856859E+03	1.550548E-16	1.218749E-18
2.896538E+03	1.662585E-16	1.300777E-18
2.936217E+03	1.781384E-16	1.387172E-18
2.975895E+03	1.908377E-16	1.478955E-18
2.985815E+03	1.941667E-16	1.502931E-18
2.995735E+03	1.975574E-16	1.527317E-18
3.005654E+03	2.010233E-16	1.552214E-18
3.015574E+03	2.045660E-16	1.577633E-18
3.025494E+03	2.082161E-16	1.603806E-18
3.035413E+03	2.120022E-16	1.630951E-18
3.045333E+03	2.159241E-16	1.659059E-18
3.055252E+03	2.200005E-16	1.688274E-18
3.065172E+03	2.242211E-16	1.718510E-18
3.075092E+03	2.285887E-16	1.749784E-18
3.085011E+03	2.331064E-16	1.782115E-18
3.094931E+03	2.377718E-16	1.815481E-18
3.104851E+03	2.425828E-16	1.849860E-18
3.114770E+03	2.475504E-16	1.885333E-18
3.124690E+03	2.526679E-16	1.921842E-18
3.134610E+03	2.579341E-16	1.959376E-18
3.144529E+03	2.633688E-16	1.998079E-18
3.154449E+03	2.689598E-16	2.037852E-18
3.164369E+03	2.747210E-16	2.078797E-18
3.174288E+03	2.806473E-16	2.120871E-18
3.184208E+03	2.867542E-16	2.164183E-18
3.194128E+03	2.930441E-16	2.208748E-18
3.204047E+03	2.995208E-16	2.254587E-18
3.213967E+03	3.061940E-16	2.301769E-18
3.223887E+03	3.130750E-16	2.350370E-18
3.233806E+03	3.201621E-16	2.400373E-18
3.243726E+03	3.274671E-16	2.451860E-18
3.253645E+03	3.349963E-16	2.504870E-18
3.263565E+03	3.427629E-16	2.559494E-18
3.273485E+03	3.507738E-16	2.615777E-18
3.283404E+03	3.590365E-16	2.673768E-18
3.293324E+03	3.675665E-16	2.733573E-18
3.303244E+03	3.763580E-16	2.795140E-18
3.313163E+03	3.854409E-16	2.858685E-18
3.323083E+03	3.948109E-16	2.924165E-18
3.333003E+03	4.044769E-16	2.991637E-18
3.342922E+03	4.144562E-16	3.061220E-18
3.352842E+03	4.247509E-16	3.132919E-18
3.362762E+03	4.353635E-16	3.206743E-18
3.372681E+03	4.463027E-16	3.282746E-18
3.382601E+03	4.575689E-16	3.360921E-18
3.392521E+03	4.691762E-16	3.441361E-18
3.402440E+03	4.811074E-16	3.523929E-18
3.412360E+03	4.933650E-16	3.608633E-18
3.422280E+03	5.059403E-16	3.695399E-18
3.432199E+03	5.188132E-16	3.784072E-18
3.442119E+03	5.319655E-16	3.874509E-18
3.452038E+03	5.453720E-16	3.966517E-18
3.461958E+03	5.589912E-16	4.059789E-18
3.471878E+03	5.727636E-16	4.153886E-18
3.481797E+03	5.866319E-16	4.248388E-18
3.491717E+03	6.005164E-16	4.342715E-18
3.501637E+03	6.143111E-16	4.436102E-18
3.511556E+03	6.278988E-16	4.527708E-18
3.521476E+03	6.411408E-16	4.616539E-18
3.531396E+03	6.538784E-16	4.701465E-18
3.541315E+03	6.659323E-16	4.781217E-18
3.551235E+03	6.771338E-16	4.854605E-18
3.561155E+03	6.873440E-16	4.920662E-18
3.571074E+03	6.965231E-16	4.979135E-18
3.580994E+03	7.047001E-16	5.030265E-18
3.590914E+03	7.119847E-16	5.074863E-18
3.600833E+03	7.185177E-16	5.113962E-18
3.610753E+03	7.244615E-16	5.148739E-18
3.620673E+03	7.299795E-16	5.180372E-18
3.630592E+03	7.352312E-16	5.210007E-18
3.640512E+03	7.403776E-16	5.238790E-18
3.650432E+03	7.455667E-16	5.267772E-18
3.660351E+03	7.509580E-16	5.298078E-18
3.670271E+03	7.566944E-16	5.330706E-18
3.680190E+03	7.629439E-16	5.366831E-18
3.690110E+03	7.698642E-16	5.407543E-18
3.700030E+03	7.776238E-16	5.454005E-18
3.709949E+03	7.864194E-16	5.507568E-18
3.719869E+03	7.964579E-16	5.569649E-18
3.729789E+03	8.079686E-16	5.641811E-18
3.739708E+03	8.212042E-16	5.725772E-18
3.749628E+03	8.364591E-16	5.823527E-18
3.759548E+03	8.540302E-16	5.937080E-18
3.769467E+03	8.742543E-16	6.068700E-18
3.779387E+03	8.974986E-16	6.220851E-18
3.789307E+03	9.241120E-16	6.395857E-18
3.799226E+03	9.544925E-16	6.596366E-18
3.809146E+03	9.890083E-16	6.824807E-18
3.819066E+03	1.028007E-15	7.083451E-18
3.828985E+03	1.071815E-15	7.374406E-18
3.838905E+03	1.120676E-15	7.699204E-18
3.848825E+03	1.174747E-15	8.058781E-18
3.858744E+03	1.234048E-15	8.453109E-18
3.868664E+03	1.298451E-15	8.881162E-18
3.878583E+03	1.367585E-15	9.340250E-18
3.888503E+03	1.440857E-15	9.826207E-18
3.898423E+03	1.517361E-15	1.033274E-17
3.908342E+03	1.595874E-15	1.085144E-17
3.918262E+03	1.674829E-15	1.137161E-17
3.928182E+03	1.752279E-15	1.188005E-17
3.938101E+03	1.825978E-15	1.236161E-17
3.948021E+03	1.893430E-15	1.279953E-17
3.957941E+03	1.951898E-15	1.317554E-17
3.967860E+03	1.998693E-15	1.347177E-17
3.977780E+03	2.031203E-15	1.367101E-17
3.987700E+03	2.047296E-15	1.375935E-17
3.997619E+03	2.045507E-15	1.372744E-17
4.007539E+03	2.025319E-15	1.357233E-17
4.017459E+03	1.987317E-15	1.329848E-17
4.027378E+03	1.933245E-15	1.291807E-17
4.037298E+03	1.865840E-15	1.244980E-17
4.047218E+03	1.788589E-15	1.191729E-17
4.057137E+03	1.705240E-15	1.134575E-17
4.067057E+03	1.619504E-15	1.076000E-17
4.076976E+03	1.534741E-15	1.018240E-17
4.086896E+03	1.453765E-15	9.631545E-18
4.096816E+03	1.378735E-15	9.121607E-18
4.106735E+03	1.311178E-15	8.662502E-18
4.116655E+03	1.252091E-15	8.260595E-18
4.126575E+03	1.202004E-15	7.919125E-18
4.136494E+03	1.161089E-15	7.638979E-18
4.146414E+03	1.129300E-15	7.419593E-18
4.156334E+03	1.106374E-15	7.258998E-18
4.166253E+03	1.091972E-15	7.154725E-18
4.176173E+03	1.085694E-15	7.103931E-18
4.186093E+03	1.087092E-15	7.103462E-18
4.196012E+03	1.095704E-15	7.150116E-18
4.205932E+03	1.111069E-15	7.240688E-18
4.215852E+03	1.132686E-15	7.371753E-18
4.225771E+03	1.160044E-15	7.539835E-18
4.235691E+03	1.192552E-15	7.740947E-18
4.245611E+03	1.229499E-15	7.970366E-18
4.255530E+03	1.270042E-15	8.222527E-18
4.265450E+03	1.313032E-15	8.489918E-18
4.275370E+03	1.356994E-15	8.762970E-18
4.285289E+03	1.400080E-15	9.029744E-18
4.295209E+03	1.440044E-15	9.275809E-18
4.305128E+03	1.474327E-15	9.484785E-18
4.315048E+03	1.500255E-15	9.639651E-18
4.324968E+03	1.515309E-15	9.724438E-18
4.334887E+03	1.517597E-15	9.727281E-18
4.344807E+03	1.506308E-15	9.643295E-18
4.354727E+03	1.482262E-15	9.478029E-18
4.364646E+03	1.448070E-15	9.248452E-18
4.374566E+03	1.407792E-15	8.980682E-18
4.384486E+03	1.365991E-15	8.703916E-18
4.394405E+03	1.326995E-15	8.445736E-18
4.404325E+03	1.294452E-15	8.229251E-18
4.414245E+03	1.271187E-15	8.072259E-18
4.424164E+03	1.259221E-15	7.987375E-18
4.434084E+03	1.259916E-15	7.982981E-18
4.444004E+03	1.274046E-15	8.063722E-18
4.453923E+03	1.301914E-15	8.231228E-18
4.463843E+03	1.343399E-15	8.484469E-18
4.473763E+03	1.397972E-15	8.819839E-18
4.483682E+03	1.464707E-15	9.231254E-18
4.493602E+03	1.542140E-15	9.709280E-18
4.503521E+03	1.628280E-15	1.024120E-17
4.513441E+03	1.720473E-15	1.081020E-17
4.523361E+03	1.815506E-15	1.139602E-17
4.533280E+03	1.909641E-15	1.197519E-17
4.543200E+03	1.998831E-15	1.252240E-17
4.553120E+03	2.078969E-15	1.301206E-17
4.563039E+03	2.146094E-15	1.341958E-17
4.572959E+03	2.196764E-15	1.372371E-17
4.582879E+03	2.228412E-15	1.390872E-17
4.592798E+03	2.239653E-15	1.396632E-17
4.602718E+03	2.230622E-15	1.389769E-17
4.612638E+03	2.202781E-15	1.371227E-17
4.622557E+03	2.158789E-15	1.342690E-17
4.632477E+03	2.102163E-15	1.306367E-17
4.642397E+03	2.036980E-15	1.264809E-17
4.652316E+03	1.967580E-15	1.220721E-17
4.662236E+03	1.898237E-15	1.176756E-17
4.672156E+03	1.832661E-15	1.135210E-17
4.682075E+03	1.773645E-15	1.097805E-17
4.691995E+03	1.722629E-15	1.065420E-17
4.701914E+03	1.679677E-15	1.038083E-17
4.711834E+03	1.643808E-15	1.015176E-17
4.721754E+03	1.613543E-15	9.957741E-18
4.731673E+03	1.587362E-15	9.789333E-18
4.741593E+03	1.563977E-15	9.638519E-18
4.751513E+03	1.542539E-15	9.500042E-18
4.761432E+03	1.522664E-15	9.371497E-18
4.771352E+03	1.504444E-15	9.253437E-18
4.781272E+03	1.488305E-15	9.148444E-18
4.791191E+03	1.474911E-15	9.060568E-18
4.801111E+03	1.464834E-15	8.993300E-18
4.811031E+03	1.458466E-15	8.948984E-18
4.820950E+03	1.455980E-15	8.928655E-18
4.830870E+03	1.457383E-15	8.932311E-18
4.840790E+03	1.462561E-15	8.959211E-18
4.850709E+03	1.471351E-15	9.008315E-18
4.860629E+03	1.483626E-15	9.078820E-18
4.870549E+03	1.499268E-15	9.169978E-18
4.880468E+03	1.518143E-15	9.280933E-18
4.890388E+03	1.539893E-15	9.409475E-18
4.900308E+03	1.563861E-15	9.551573E-18
4.910227E+03	1.588907E-15	9.700262E-18
4.920147E+03	1.613376E-15	9.845424E-18
4.930066E+03	1.635173E-15	9.974306E-18
4.939986E+03	1.651853E-15	1.007201E-17
4.949906E+03	1.661184E-15	1.012499E-17
4.959825E+03	1.661397E-15	1.012251E-17
4.969745E+03	1.651674E-15	1.005966E-17
4.979665E+03	1.632376E-15	9.938683E-18
4.989584E+03	1.605177E-15	9.769834E-18
4.999504E+03	1.572648E-15	9.568800E-18
5.009424E+03	1.537903E-15	9.354541E-18
5.019343E+03	1.504033E-15	9.145857E-18
5.029263E+03	1.473838E-15	8.959750E-18
5.039183E+03	1.449403E-15	8.808876E-18
5.049102E+03	1.432003E-15	8.700949E-18
5.059022E+03	1.422195E-15	8.639306E-18
5.068942E+03	1.419836E-15	8.623044E-18
5.078861E+03	1.424234E-15	8.647937E-18
5.088781E+03	1.434289E-15	8.707281E-18
5.098701E+03	1.448750E-15	8.793457E-18
5.108620E+03	1.466304E-15	8.898493E-18
5.118540E+03	1.485871E-15	9.015834E-18
5.128459E+03	1.506782E-15	9.141413E-18
5.138379E+03	1.528936E-15	9.274624E-18
5.148299E+03	1.552839E-15	9.418528E-18
5.158218E+03	1.579434E-15	9.578865E-18
5.168138E+03	1.610027E-15	9.763540E-18
5.178058E+03	1.646063E-15	9.981322E-18
5.187977E+03	1.688891E-15	1.024040E-17
5.197897E+03	1.739472E-15	1.054659E-17
5.207817E+03	1.798285E-15	1.090281E-17
5.217736E+03	1.865045E-15	1.130734E-17
5.227656E+03	1.938622E-15	1.175335E-17
5.237576E+03	2.017002E-15	1.222864E-17
5.247495E+03	2.097449E-15	1.271664E-17
5.257415E+03	2.176850E-15	1.319850E-17
5.267335E+03	2.251822E-15	1.365373E-17
5.277254E+03	2.319204E-15	1.406317E-17
5.287174E+03	2.376243E-15	1.441015E-17
5.297094E+03	2.420773E-15	1.468153E-17
5.307013E+03	2.451192E-15	1.486756E-17
5.316933E+03	2.466352E-15	1.496129E-17
5.326852E+03	2.465731E-15	1.495950E-17
5.336772E+03	2.449370E-15	1.486242E-17
5.346692E+03	2.418009E-15	1.467448E-17
5.356611E+03	2.373120E-15	1.440457E-17
5.366531E+03	2.316923E-15	1.406609E-17
5.376451E+03	2.252372E-15	1.367695E-17
5.386370E+03	2.182953E-15	1.325825E-17
5.396290E+03	2.112437E-15	1.283287E-17
5.406210E+03	2.044706E-15	1.242438E-17
5.416129E+03	1.983511E-15	1.205556E-17
5.426049E+03	1.932222E-15	1.174692E-17
5.435969E+03	1.893502E-15	1.151469E-17
5.445888E+03	1.868679E-15	1.136699E-17
5.455808E+03	1.857069E-15	1.129973E-17
5.465728E+03	1.855945E-15	1.129638E-17
5.475647E+03	1.861323E-15	1.133274E-17
5.485567E+03	1.869080E-15	1.138372E-17
5.495487E+03	1.875856E-15	1.142889E-17
5.505406E+03	1.879431E-15	1.145469E-17
5.515326E+03	1.878618E-15	1.145387E-17
5.525246E+03	1.873185E-15	1.142498E-17
5.535165E+03	1.863608E-15	1.137090E-17
5.545085E+03	1.850708E-15	1.129659E-17
5.555004E+03	1.835442E-15	1.120788E-17
5.564924E+03	1.818802E-15	1.111081E-17
5.574844E+03	1.801579E-15	1.101018E-17
5.584763E+03	1.784352E-15	1.090954E-17
5.594683E+03	1.767544E-15	1.081147E-17
5.604603E+03	1.751309E-15	1.071691E-17
5.614522E+03	1.735690E-15	1.062612E-17
5.624442E+03	1.720593E-15	1.053852E-17
5.634362E+03	1.705865E-15	1.045319E-17
5.644281E+03	1.691317E-15	1.036895E-17
5.654201E+03	1.676841E-15	1.028515E-17
5.664121E+03	1.662324E-15	1.020110E-17
5.674040E+03	1.647807E-15	1.011702E-17
5.683960E+03	1.633423E-15	1.003375E-17
5.693880E+03	1.619510E-15	9.953356E-18
5.703799E+03	1.606521E-15	9.878618E-18
5.713719E+03	1.595037E-15	9.813131E-18
5.723639E+03	1.585789E-15	9.761395E-18
5.733558E+03	1.579480E-15	9.727763E-18
5.743478E+03	1.576756E-15	9.716244E-18
5.753397E+03	1.578058E-15	9.729592E-18
5.763317E+03	1.583555E-15	9.768884E-18
5.773237E+03	1.593075E-15	9.833103E-18
5.783156E+03	1.606191E-15	9.919660E-18
5.793076E+03	1.622208E-15	1.002429E-17
5.802996E+03	1.640251E-15	1.014162E-17
5.812915E+03	1.659363E-15	1.026574E-17
5.822835E+03	1.678654E-15	1.039117E-17
5.832755E+03	1.697254E-15	1.051252E-17
5.842674E+03	1.714352E-15	1.062474E-17
5.852594E+03	1.729264E-15	1.072360E-17
5.862514E+03	1.741399E-15	1.080539E-17
5.872433E+03	1.750312E-15	1.086731E-17
5.882353E+03	1.755652E-15	1.090717E-17
5.892273E+03	1.757230E-15	1.092373E-17
5.902192E+03	1.754955E-15	1.091639E-17
5.912112E+03	1.748771E-15	1.088476E-17
5.922032E+03	1.738744E-15	1.082919E-17
5.931951E+03	1.725032E-15	1.075063E-17
5.941871E+03	1.707880E-15	1.065055E-17
5.951790E+03	1.687789E-15	1.053205E-17
5.961710E+03	1.665487E-15	1.039962E-17
5.971630E+03	1.641981E-15	1.025953E-17
5.981549E+03	1.618483E-15	1.011935E-17
5.991469E+03	1.596239E-15	9.986861E-18
6.001389E+03	1.576373E-15	9.869120E-18
6.011308E+03	1.559905E-15	9.772544E-18
6.021228E+03	1.547506E-15	9.701382E-18
6.031148E+03	1.539547E-15	9.658003E-18
6.041067E+03	1.536014E-15	9.642383E-18
6.050987E+03	1.536345E-15	9.651044E-18
6.060907E+03	1.539544E-15	9.677777E-18
6.070826E+03	1.544024E-15	9.712634E-18
6.080746E+03	1.547707E-15	9.742553E-18
6.090666E+03	1.548030E-15	9.751379E-18
6.100585E+03	1.542094E-15	9.720793E-18
6.110505E+03	1.526829E-15	9.631343E-18
6.120425E+03	1.499419E-15	9.465127E-18
6.130344E+03	1.457884E-15	9.209481E-18
6.140264E+03	1.401913E-15	8.862238E-18
6.150184E+03	1.333466E-15	8.435602E-18
6.160103E+03	1.256382E-15	7.953696E-18
6.170023E+03	1.175486E-15	7.446967E-18
6.179942E+03	1.095296E-15	6.943994E-18
6.189862E+03	1.019474E-15	6.468017E-18
6.199782E+03	9.505256E-16	6.035002E-18
6.209701E+03	8.899245E-16	5.654400E-18
6.219621E+03	8.383186E-16	5.330444E-18
6.229541E+03	7.958602E-16	5.064226E-18
6.239460E+03	7.623288E-16	4.854469E-18
6.249380E+03	7.373918E-16	4.699176E-18
6.259300E+03	7.207097E-16	4.596305E-18
6.269219E+03	7.120398E-16	4.544422E-18
6.279139E+03	7.112768E-16	4.542970E-18
6.289059E+03	7.184633E-16	4.592333E-18
6.298978E+03	7.338446E-16	4.694197E-18
6.308898E+03	7.577746E-16	4.850945E-18
6.318818E+03	7.907496E-16	5.065882E-18
6.328737E+03	8.332749E-16	5.342380E-18
6.338657E+03	8.857844E-16	5.683366E-18
6.348577E+03	9.485611E-16	6.090803E-18
6.358496E+03	1.021505E-15	6.564200E-18
6.368416E+03	1.104114E-15	7.100487E-18
6.378335E+03	1.195188E-15	7.692075E-18
6.388255E+03	1.292912E-15	8.327408E-18
6.398175E+03	1.394703E-15	8.989933E-18
6.408094E+03	1.497535E-15	9.660205E-18
6.418014E+03	1.598107E-15	1.031691E-17
6.427934E+03	1.693177E-15	1.093910E-17
6.437853E+03	1.779896E-15	1.150824E-17
6.447773E+03	1.856105E-15	1.201026E-17
6.457693E+03	1.920464E-15	1.243633E-17
6.467612E+03	1.972580E-15	1.278370E-17
6.477532E+03	2.012726E-15	1.305398E-17
6.487452E+03	2.041874E-15	1.325329E-17
6.497371E+03	2.061316E-15	1.338987E-17
6.507291E+03	2.072542E-15	1.347323E-17
6.517211E+03	2.077079E-15	1.351321E-17
6.527130E+03	2.076250E-15	1.351831E-17
6.537050E+03	2.071249E-15	1.349622E-17
6.546970E+03	2.063081E-15	1.345345E-17
6.556889E+03	2.052492E-15	1.339480E-17
6.566809E+03	2.039946E-15	1.332327E-17
6.576728E+03	2.025860E-15	1.324157E-17
6.586648E+03	2.010391E-15	1.315068E-17
6.596568E+03	1.993731E-15	1.305185E-17
6.606487E+03	1.975846E-15	1.294483E-17
6.616407E+03	1.956850E-15	1.283035E-17
6.626327E+03	1.936669E-15	1.270792E-17
6.636246E+03	1.915314E-15	1.257758E-17
6.646166E+03	1.892705E-15	1.243879E-17
6.656086E+03	1.868937E-15	1.229214E-17
6.666005E+03	1.843947E-15	1.213723E-17
6.675925E+03	1.817872E-15	1.197492E-17
6.685845E+03	1.790834E-15	1.180601E-17
6.695764E+03	1.762943E-15	1.163119E-17
6.705684E+03	1.734465E-15	1.145222E-17
6.715604E+03	1.705598E-15	1.127041E-17
6.725523E+03	1.676615E-15	1.108753E-17
6.735443E+03	1.647695E-15	1.090478E-17
6.745363E+03	1.619110E-15	1.072396E-17
6.755282E+03	1.591045E-15	1.054630E-17
6.765202E+03	1.563621E-15	1.037261E-17
6.775122E+03	1.536942E-15	1.020360E-17
6.785041E+03	1.511079E-15	1.003974E-17
6.794961E+03	1.486127E-15	9.881682E-18
6.804880E+03	1.462033E-15	9.729077E-18
6.814800E+03	1.438853E-15	9.582327E-18
6.824720E+03	1.416578E-15	9.441371E-18
6.834639E+03	1.395157E-15	9.305897E-18
6.844559E+03	1.374591E-15	9.175914E-18
6.854479E+03	1.354866E-15	9.051346E-18
6.864398E+03	1.335973E-15	8.932144E-18
6.874318E+03	1.317991E-15	8.818851E-18
6.884238E+03	1.301028E-15	8.712211E-18
6.894157E+03	1.285222E-15	8.613157E-18
6.904077E+03	1.270811E-15	8.523301E-18
6.913997E+03	1.257932E-15	8.443594E-18
6.923916E+03	1.246781E-15	8.375372E-18
6.933836E+03	1.237397E-15	8.318923E-18
6.943756E+03	1.229816E-15	8.274525E-18
6.953675E+03	1.223878E-15	8.241120E-18
6.963595E+03	1.219413E-15	8.217602E-18
6.973515E+03	1.216114E-15	8.201908E-18
6.983434E+03	1.213640E-15	8.191767E-18
6.993354E+03	1.211656E-15	8.184933E-18
7.003273E+03	1.209799E-15	8.178951E-18
7.013193E+03	1.207771E-15	8.171805E-18
7.023113E+03	1.205353E-15	8.162025E-18
7.033032E+03	1.202369E-15	8.148400E-18
7.042952E+03	1.198687E-15	8.130028E-18
7.052872E+03	1.194290E-15	8.106791E-18
7.062791E+03	1.189213E-15	8.078905E-18
7.072711E+03	1.183560E-15	8.047064E-18
7.082631E+03	1.177475E-15	8.012254E-18
7.092550E+03	1.171234E-15	7.976334E-18
7.102470E+03	1.165086E-15	7.941004E-18
7.112390E+03	1.159335E-15	7.908339E-18
7.122309E+03	1.154317E-15	7.880638E-18
7.132229E+03	1.150304E-15	7.859781E-18
7.142149E+03	1.147541E-15	7.847447E-18
7.152068E+03	1.146223E-15	7.845000E-18
7.161988E+03	1.146300E-15	7.852134E-18
7.171908E+03	1.147732E-15	7.868581E-18
7.181827E+03	1.150245E-15	7.892490E-18
7.191747E+03	1.153443E-15	7.921173E-18
7.201667E+03	1.156900E-15	7.951706E-18
7.211586E+03	1.160174E-15	7.981053E-18
7.221506E+03	1.162809E-15	8.006073E-18
7.231425E+03	1.164422E-15	8.024120E-18
7.241345E+03	1.164807E-15	8.033755E-18
7.251265E+03	1.163810E-15	8.033890E-18
7.261184E+03	1.161420E-15	8.024433E-18
7.271104E+03	1.157759E-15	8.006197E-18
7.281024E+03	1.152932E-15	7.979886E-18
7.290943E+03	1.147244E-15	7.947592E-18
7.300863E+03	1.140878E-15	7.910571E-18
7.310783E+03	1.134024E-15	7.870125E-18
7.320702E+03	1.126783E-15	7.826955E-18
7.330622E+03	1.119096E-15	7.780633E-18
7.340542E+03	1.110775E-15	7.729843E-18
7.350461E+03	1.101514E-15	7.672451E-18
7.360381E+03	1.090943E-15	7.605857E-18
7.370301E+03	1.078749E-15	7.527840E-18
7.380220E+03	1.064710E-15	7.436834E-18
7.390140E+03	1.048920E-15	7.333439E-18
7.400060E+03	1.031632E-15	7.219407E-18
7.409979E+03	1.013515E-15	7.099389E-18
7.419899E+03	9.955123E-16	6.979975E-18
7.429818E+03	9.788336E-16	6.869659E-18
7.439738E+03	9.646550E-16	6.776729E-18
7.449658E+03	9.538813E-16	6.707597E-18
7.459577E+03	9.467669E-16	6.664121E-18
7.469497E+03	9.427573E-16	6.642472E-18
7.479417E+03	9.409526E-16	6.636366E-18
7.489336E+03	9.402677E-16	6.638186E-18
7.499256E+03	9.398098E-16	6.641647E-18
7.509176E+03	9.389593E-16	6.642370E-18
7.519095E+03	9.372557E-16	6.637082E-18
7.529015E+03	9.344982E-16	6.624343E-18
7.538935E+03	9.306858E-16	6.604120E-18
7.548854E+03	9.258267E-16	6.576447E-18
7.558774E+03	9.200377E-16	6.542130E-18
7.568694E+03	9.134897E-16	6.502364E-18
7.578613E+03	9.063571E-16	6.458371E-18
7.588533E+03	8.988345E-16	6.411527E-18
7.598453E+03	8.912324E-16	6.364036E-18
7.608372E+03	8.839209E-16	6.318543E-18
7.618292E+03	8.772732E-16	6.277721E-18
7.628211E+03	8.717705E-16	6.245032E-18
7.638131E+03	8.677095E-16	6.222629E-18
7.648051E+03	8.654318E-16	6.212995E-18
7.657970E+03	8.650249E-16	6.216800E-18
7.667890E+03	8.665735E-16	6.234697E-18
7.677810E+03	8.699369E-16	6.265717E-18
7.687729E+03	8.749452E-16	6.308678E-18
7.697649E+03	8.814297E-16	6.362399E-18
