#wls	flux	fluxerr
1.587144E+03	2.668538E-18	1.735681E-19
1.626823E+03	2.753808E-18	1.790670E-19
1.666501E+03	2.819357E-18	1.832796E-19
1.706180E+03	2.862610E-18	1.860397E-19
1.745859E+03	2.881506E-18	1.872144E-19
1.785537E+03	2.870112E-18	1.864196E-19
1.825216E+03	2.821449E-18	1.832039E-19
1.864894E+03	2.728761E-18	1.771310E-19
1.904573E+03	2.588040E-18	1.679435E-19
1.944252E+03	2.400318E-18	1.557116E-19
1.983930E+03	2.178238E-18	1.412582E-19
2.023609E+03	1.948136E-18	1.262934E-19
2.063287E+03	1.748057E-18	1.132833E-19
2.102966E+03	1.617445E-18	1.047818E-19
2.142645E+03	1.584877E-18	1.026346E-19
2.182323E+03	1.662537E-18	1.076236E-19
2.222002E+03	1.846677E-18	1.194983E-19
2.261680E+03	2.122636E-18	1.373020E-19
2.301359E+03	2.467864E-18	1.595693E-19
2.341038E+03	2.858647E-18	1.847615E-19
2.380716E+03	3.275155E-18	2.115931E-19
2.420395E+03	3.702973E-18	2.391304E-19
2.460073E+03	4.133420E-18	2.668114E-19
2.499752E+03	4.563004E-18	2.944098E-19
2.539431E+03	4.990845E-18	3.218680E-19
2.579109E+03	5.417988E-18	3.492527E-19
2.618788E+03	5.846586E-18	3.767019E-19
2.658466E+03	6.281084E-18	4.045010E-19
2.698145E+03	6.723905E-18	4.328043E-19
2.737824E+03	7.180242E-18	4.619446E-19
2.777502E+03	7.651797E-18	4.920289E-19
2.817181E+03	8.144100E-18	5.234102E-19
2.856859E+03	8.662055E-18	5.564005E-19
2.896538E+03	9.208658E-18	5.911885E-19
2.936217E+03	9.790395E-18	6.281862E-19
2.975895E+03	1.041196E-17	6.676896E-19
2.985815E+03	1.057389E-17	6.779765E-19
2.995735E+03	1.073907E-17	6.884691E-19
3.005654E+03	1.090762E-17	6.991733E-19
3.015574E+03	1.107870E-17	7.100367E-19
3.025494E+03	1.125614E-17	7.213035E-19
3.035413E+03	1.143898E-17	7.329124E-19
3.045333E+03	1.162680E-17	7.448368E-19
3.055252E+03	1.182284E-17	7.572840E-19
3.065172E+03	1.202427E-17	7.700716E-19
3.075092E+03	1.223347E-17	7.833531E-19
3.085011E+03	1.244761E-17	7.969460E-19
3.094931E+03	1.266647E-17	8.108361E-19
3.104851E+03	1.289259E-17	8.251868E-19
3.114770E+03	1.312451E-17	8.399033E-19
3.124690E+03	1.336070E-17	8.548884E-19
3.134610E+03	1.360245E-17	8.702239E-19
3.144529E+03	1.385113E-17	8.859973E-19
3.154449E+03	1.410382E-17	9.020213E-19
3.164369E+03	1.436189E-17	9.183846E-19
3.174288E+03	1.462533E-17	9.350852E-19
3.184208E+03	1.489414E-17	9.521229E-19
3.194128E+03	1.516678E-17	9.694003E-19
3.204047E+03	1.544633E-17	9.871127E-19
3.213967E+03	1.573131E-17	1.005166E-18
3.223887E+03	1.602178E-17	1.023563E-18
3.233806E+03	1.631620E-17	1.042207E-18
3.243726E+03	1.661783E-17	1.061304E-18
3.253645E+03	1.692518E-17	1.080760E-18
3.263565E+03	1.723671E-17	1.100475E-18
3.273485E+03	1.755582E-17	1.120667E-18
3.283404E+03	1.788101E-17	1.141240E-18
3.293324E+03	1.821241E-17	1.162203E-18
3.303244E+03	1.855019E-17	1.183564E-18
3.313163E+03	1.889451E-17	1.205334E-18
3.323083E+03	1.924554E-17	1.227525E-18
3.333003E+03	1.960347E-17	1.250148E-18
3.342922E+03	1.996850E-17	1.273216E-18
3.352842E+03	2.034266E-17	1.296856E-18
3.362762E+03	2.072256E-17	1.320854E-18
3.372681E+03	2.111208E-17	1.345456E-18
3.382601E+03	2.150963E-17	1.370561E-18
3.392521E+03	2.191547E-17	1.396185E-18
3.402440E+03	2.232987E-17	1.422344E-18
3.412360E+03	2.275504E-17	1.449180E-18
3.422280E+03	2.318739E-17	1.476462E-18
3.432199E+03	2.363112E-17	1.504459E-18
3.442119E+03	2.408460E-17	1.533065E-18
3.452038E+03	2.454812E-17	1.562301E-18
3.461958E+03	2.502409E-17	1.592316E-18
3.471878E+03	2.551077E-17	1.623003E-18
3.481797E+03	2.600856E-17	1.654384E-18
3.491717E+03	2.651778E-17	1.686480E-18
3.501637E+03	2.703879E-17	1.719314E-18
3.511556E+03	2.757415E-17	1.753047E-18
3.521476E+03	2.812210E-17	1.787568E-18
3.531396E+03	2.868525E-17	1.823041E-18
3.541315E+03	2.925958E-17	1.859212E-18
3.551235E+03	2.984999E-17	1.896390E-18
3.561155E+03	3.045695E-17	1.934605E-18
3.571074E+03	3.107634E-17	1.973594E-18
3.580994E+03	3.171321E-17	2.013678E-18
3.590914E+03	3.236810E-17	2.054891E-18
3.600833E+03	3.303673E-17	2.096960E-18
3.610753E+03	3.372435E-17	2.140217E-18
3.620673E+03	3.443158E-17	2.184702E-18
3.630592E+03	3.515645E-17	2.230288E-18
3.640512E+03	3.589947E-17	2.277008E-18
3.650432E+03	3.666115E-17	2.324893E-18
3.660351E+03	3.744462E-17	2.374141E-18
3.670271E+03	3.824786E-17	2.424623E-18
3.680190E+03	3.907410E-17	2.476542E-18
3.690110E+03	3.992128E-17	2.529768E-18
3.700030E+03	4.078998E-17	2.584336E-18
3.709949E+03	4.168349E-17	2.640454E-18
3.719869E+03	4.259975E-17	2.697991E-18
3.729789E+03	4.353930E-17	2.756980E-18
3.739708E+03	4.450561E-17	2.817640E-18
3.749628E+03	4.549654E-17	2.879833E-18
3.759548E+03	4.651560E-17	2.943782E-18
3.769467E+03	4.755754E-17	3.009154E-18
3.779387E+03	4.863199E-17	3.076555E-18
3.789307E+03	4.973057E-17	3.145457E-18
3.799226E+03	5.086006E-17	3.216285E-18
3.809146E+03	5.201799E-17	3.288883E-18
3.819066E+03	5.320827E-17	3.363497E-18
3.828985E+03	5.442838E-17	3.439965E-18
3.838905E+03	5.567894E-17	3.518328E-18
3.848825E+03	5.696060E-17	3.598624E-18
3.858744E+03	5.827735E-17	3.681104E-18
3.868664E+03	5.962652E-17	3.765597E-18
3.878583E+03	6.100869E-17	3.852141E-18
3.888503E+03	6.242443E-17	3.940769E-18
3.898423E+03	6.387791E-17	4.031743E-18
3.908342E+03	6.536620E-17	4.124876E-18
3.918262E+03	6.688976E-17	4.220197E-18
3.928182E+03	6.844910E-17	4.317737E-18
3.938101E+03	7.004462E-17	4.417519E-18
3.948021E+03	7.168064E-17	4.519814E-18
3.957941E+03	7.334982E-17	4.624158E-18
3.967860E+03	7.506019E-17	4.731056E-18
3.977780E+03	7.680815E-17	4.840279E-18
3.987700E+03	7.858975E-17	4.951577E-18
3.997619E+03	8.041320E-17	5.065467E-18
4.007539E+03	8.227447E-17	5.181692E-18
4.017459E+03	8.416914E-17	5.299973E-18
4.027378E+03	8.610546E-17	5.420827E-18
4.037298E+03	8.807452E-17	5.543694E-18
4.047218E+03	9.008011E-17	5.668809E-18
4.057137E+03	9.212160E-17	5.796132E-18
4.067057E+03	9.419823E-17	5.925614E-18
4.076976E+03	9.630443E-17	6.056903E-18
4.086896E+03	9.844826E-17	6.190505E-18
4.096816E+03	1.006191E-16	6.325752E-18
4.106735E+03	1.028153E-16	6.462536E-18
4.116655E+03	1.050398E-16	6.601043E-18
4.126575E+03	1.072907E-16	6.741152E-18
4.136494E+03	1.095608E-16	6.882410E-18
4.146414E+03	1.118525E-16	7.024972E-18
4.156334E+03	1.141582E-16	7.168350E-18
4.166253E+03	1.164747E-16	7.312348E-18
4.176173E+03	1.188039E-16	7.457089E-18
4.186093E+03	1.211372E-16	7.602026E-18
4.196012E+03	1.234761E-16	7.747258E-18
4.205932E+03	1.258059E-16	7.891857E-18
4.215852E+03	1.281331E-16	8.036239E-18
4.225771E+03	1.304480E-16	8.179787E-18
4.235691E+03	1.327458E-16	8.322208E-18
4.245611E+03	1.350218E-16	8.463208E-18
4.255530E+03	1.372712E-16	8.602479E-18
4.265450E+03	1.394889E-16	8.739715E-18
4.275370E+03	1.416701E-16	8.874608E-18
4.285289E+03	1.438099E-16	9.006852E-18
4.295209E+03	1.458976E-16	9.135784E-18
4.305128E+03	1.479346E-16	9.261487E-18
4.315048E+03	1.499166E-16	9.383702E-18
4.324968E+03	1.518400E-16	9.502198E-18
4.334887E+03	1.536954E-16	9.616397E-18
4.344807E+03	1.554802E-16	9.726139E-18
4.354727E+03	1.572049E-16	9.832072E-18
4.364646E+03	1.588501E-16	9.932997E-18
4.374566E+03	1.604277E-16	1.002966E-17
4.384486E+03	1.619387E-16	1.012212E-17
4.394405E+03	1.633719E-16	1.020969E-17
4.404325E+03	1.647419E-16	1.029327E-17
4.414245E+03	1.660515E-16	1.037305E-17
4.424164E+03	1.672915E-16	1.044845E-17
4.434084E+03	1.684717E-16	1.052010E-17
4.444004E+03	1.696026E-16	1.058864E-17
4.453923E+03	1.706820E-16	1.065394E-17
4.463843E+03	1.717083E-16	1.071591E-17
4.473763E+03	1.726984E-16	1.077559E-17
4.483682E+03	1.736444E-16	1.083251E-17
4.493602E+03	1.745633E-16	1.088771E-17
4.503521E+03	1.754472E-16	1.094072E-17
4.513441E+03	1.763065E-16	1.099218E-17
4.523361E+03	1.771455E-16	1.104235E-17
4.533280E+03	1.779619E-16	1.109111E-17
4.543200E+03	1.787718E-16	1.113944E-17
4.553120E+03	1.795663E-16	1.118679E-17
4.563039E+03	1.803484E-16	1.123337E-17
4.572959E+03	1.811273E-16	1.127972E-17
4.582879E+03	1.819054E-16	1.132602E-17
4.592798E+03	1.826787E-16	1.137200E-17
4.602718E+03	1.834552E-16	1.141818E-17
4.612638E+03	1.842303E-16	1.146425E-17
4.622557E+03	1.850114E-16	1.151068E-17
4.632477E+03	1.857933E-16	1.155715E-17
4.642397E+03	1.865828E-16	1.160409E-17
4.652316E+03	1.873747E-16	1.165115E-17
4.662236E+03	1.881756E-16	1.169877E-17
4.672156E+03	1.889741E-16	1.174623E-17
4.682075E+03	1.897834E-16	1.179434E-17
4.691995E+03	1.906050E-16	1.184321E-17
4.701914E+03	1.914344E-16	1.189255E-17
4.711834E+03	1.922740E-16	1.194252E-17
4.721754E+03	1.931262E-16	1.199326E-17
4.731673E+03	1.939996E-16	1.204530E-17
4.741593E+03	1.948906E-16	1.209842E-17
4.751513E+03	1.958017E-16	1.215278E-17
4.761432E+03	1.967351E-16	1.220851E-17
4.771352E+03	1.976989E-16	1.226612E-17
4.781272E+03	1.986889E-16	1.232534E-17
4.791191E+03	1.997065E-16	1.238625E-17
4.801111E+03	2.007529E-16	1.244894E-17
4.811031E+03	2.018350E-16	1.251384E-17
4.820950E+03	2.029473E-16	1.258058E-17
4.830870E+03	2.040899E-16	1.264919E-17
4.840790E+03	2.052625E-16	1.271965E-17
4.850709E+03	2.064710E-16	1.279232E-17
4.860629E+03	2.077019E-16	1.286636E-17
4.870549E+03	2.089666E-16	1.294248E-17
4.880468E+03	2.102574E-16	1.302019E-17
4.890388E+03	2.115786E-16	1.309977E-17
4.900308E+03	2.129155E-16	1.318031E-17
4.910227E+03	2.142782E-16	1.326243E-17
4.920147E+03	2.156577E-16	1.334557E-17
4.930066E+03	2.170573E-16	1.342993E-17
4.939986E+03	2.184607E-16	1.351452E-17
4.949906E+03	2.198773E-16	1.359990E-17
4.959825E+03	2.212966E-16	1.368543E-17
4.969745E+03	2.227211E-16	1.377127E-17
4.979665E+03	2.241335E-16	1.385635E-17
4.989584E+03	2.255421E-16	1.394117E-17
4.999504E+03	2.269424E-16	1.402547E-17
5.009424E+03	2.283163E-16	1.410812E-17
5.019343E+03	2.296719E-16	1.418963E-17
5.029263E+03	2.309977E-16	1.426928E-17
5.039183E+03	2.322951E-16	1.434716E-17
5.049102E+03	2.335521E-16	1.442255E-17
5.059022E+03	2.347637E-16	1.449511E-17
5.068942E+03	2.359313E-16	1.456496E-17
5.078861E+03	2.370364E-16	1.463094E-17
5.088781E+03	2.380942E-16	1.469399E-17
5.098701E+03	2.390795E-16	1.475256E-17
5.108620E+03	2.400078E-16	1.480762E-17
5.118540E+03	2.408544E-16	1.485764E-17
5.128459E+03	2.416285E-16	1.490318E-17
5.138379E+03	2.423192E-16	1.494358E-17
5.148299E+03	2.429295E-16	1.497903E-17
5.158218E+03	2.434492E-16	1.500890E-17
5.168138E+03	2.438819E-16	1.503342E-17
5.178058E+03	2.442181E-16	1.505199E-17
5.187977E+03	2.444553E-16	1.506448E-17
5.197897E+03	2.445982E-16	1.507117E-17
5.207817E+03	2.446451E-16	1.507196E-17
5.217736E+03	2.445881E-16	1.506637E-17
5.227656E+03	2.444329E-16	1.505475E-17
5.237576E+03	2.441722E-16	1.503666E-17
5.247495E+03	2.438059E-16	1.501208E-17
5.257415E+03	2.433409E-16	1.498146E-17
5.267335E+03	2.427778E-16	1.494482E-17
5.277254E+03	2.421105E-16	1.490180E-17
5.287174E+03	2.413469E-16	1.485288E-17
5.297094E+03	2.404817E-16	1.479774E-17
5.307013E+03	2.395230E-16	1.473688E-17
5.316933E+03	2.384726E-16	1.467041E-17
5.326852E+03	2.373257E-16	1.459805E-17
5.336772E+03	2.360846E-16	1.451993E-17
5.346692E+03	2.347643E-16	1.443697E-17
5.356611E+03	2.333541E-16	1.434853E-17
5.366531E+03	2.318565E-16	1.425475E-17
5.376451E+03	2.302866E-16	1.415657E-17
5.386370E+03	2.286343E-16	1.405336E-17
5.396290E+03	2.269027E-16	1.394532E-17
5.406210E+03	2.251070E-16	1.383338E-17
5.416129E+03	2.232383E-16	1.371700E-17
5.426049E+03	2.213005E-16	1.359642E-17
5.435969E+03	2.193104E-16	1.347266E-17
5.445888E+03	2.172609E-16	1.334531E-17
5.455808E+03	2.151642E-16	1.321509E-17
5.465728E+03	2.130273E-16	1.308246E-17
5.475647E+03	2.108578E-16	1.294786E-17
5.485567E+03	2.086583E-16	1.281146E-17
5.495487E+03	2.064428E-16	1.267413E-17
5.505406E+03	2.042197E-16	1.253637E-17
5.515326E+03	2.019972E-16	1.239869E-17
5.525246E+03	1.997831E-16	1.226157E-17
5.535165E+03	1.975795E-16	1.212513E-17
5.545085E+03	1.954044E-16	1.199049E-17
5.555004E+03	1.932538E-16	1.185738E-17
5.564924E+03	1.911390E-16	1.172651E-17
5.574844E+03	1.890659E-16	1.159824E-17
5.584763E+03	1.870447E-16	1.147319E-17
5.594683E+03	1.850699E-16	1.135102E-17
5.604603E+03	1.831512E-16	1.123232E-17
5.614522E+03	1.812924E-16	1.111734E-17
5.624442E+03	1.794973E-16	1.100629E-17
5.634362E+03	1.777692E-16	1.089938E-17
5.644281E+03	1.761110E-16	1.079678E-17
5.654201E+03	1.745256E-16	1.069868E-17
5.664121E+03	1.730155E-16	1.060522E-17
5.674040E+03	1.715876E-16	1.051683E-17
5.683960E+03	1.702347E-16	1.043306E-17
5.693880E+03	1.689680E-16	1.035460E-17
5.703799E+03	1.677801E-16	1.028100E-17
5.713719E+03	1.666820E-16	1.021291E-17
5.723639E+03	1.656705E-16	1.015015E-17
5.733558E+03	1.647471E-16	1.009281E-17
5.743478E+03	1.639132E-16	1.004098E-17
5.753397E+03	1.631747E-16	9.995008E-18
5.763317E+03	1.625283E-16	9.954693E-18
5.773237E+03	1.619753E-16	9.920113E-18
5.783156E+03	1.615169E-16	9.891343E-18
5.793076E+03	1.611541E-16	9.868448E-18
5.802996E+03	1.608928E-16	9.851773E-18
5.812915E+03	1.607294E-16	9.841112E-18
5.822835E+03	1.606653E-16	9.836541E-18
5.832755E+03	1.607059E-16	9.838394E-18
5.842674E+03	1.608480E-16	9.846471E-18
5.852594E+03	1.610929E-16	9.860846E-18
5.862514E+03	1.614460E-16	9.881858E-18
5.872433E+03	1.619042E-16	9.909309E-18
5.882353E+03	1.624685E-16	9.943268E-18
5.892273E+03	1.631449E-16	9.984084E-18
5.902192E+03	1.639298E-16	1.003156E-17
5.912112E+03	1.648291E-16	1.008603E-17
5.922032E+03	1.658393E-16	1.014730E-17
5.931951E+03	1.669616E-16	1.021542E-17
5.941871E+03	1.682015E-16	1.029075E-17
5.951790E+03	1.695555E-16	1.037307E-17
5.961710E+03	1.710291E-16	1.046271E-17
5.971630E+03	1.726184E-16	1.055942E-17
5.981549E+03	1.743287E-16	1.066354E-17
5.991469E+03	1.761555E-16	1.077479E-17
6.001389E+03	1.781039E-16	1.089349E-17
6.011308E+03	1.801689E-16	1.101931E-17
6.021228E+03	1.823550E-16	1.115255E-17
6.031148E+03	1.846562E-16	1.129283E-17
6.041067E+03	1.870765E-16	1.144039E-17
6.050987E+03	1.896090E-16	1.159481E-17
6.060907E+03	1.922566E-16	1.175629E-17
6.070826E+03	1.950168E-16	1.192464E-17
6.080746E+03	1.978807E-16	1.209934E-17
6.090666E+03	2.008441E-16	1.228014E-17
6.100585E+03	2.039140E-16	1.246744E-17
6.110505E+03	2.070681E-16	1.265990E-17
6.120425E+03	2.103181E-16	1.285823E-17
6.130344E+03	2.136466E-16	1.306136E-17
6.140264E+03	2.170536E-16	1.326930E-17
6.150184E+03	2.205267E-16	1.348128E-17
6.160103E+03	2.240661E-16	1.369733E-17
6.170023E+03	2.276661E-16	1.391709E-17
6.179942E+03	2.313140E-16	1.413980E-17
6.189862E+03	2.350100E-16	1.436544E-17
6.199782E+03	2.387473E-16	1.459363E-17
6.209701E+03	2.425121E-16	1.482351E-17
6.219621E+03	2.463033E-16	1.505502E-17
6.229541E+03	2.501130E-16	1.528768E-17
6.239460E+03	2.539325E-16	1.552095E-17
6.249380E+03	2.577454E-16	1.575384E-17
6.259300E+03	2.615491E-16	1.598618E-17
6.269219E+03	2.653338E-16	1.621739E-17
6.279139E+03	2.690814E-16	1.644634E-17
6.289059E+03	2.727967E-16	1.667334E-17
6.298978E+03	2.764530E-16	1.689676E-17
6.308898E+03	2.800474E-16	1.711642E-17
6.318818E+03	2.835687E-16	1.733163E-17
6.328737E+03	2.870061E-16	1.754174E-17
6.338657E+03	2.903402E-16	1.774556E-17
6.348577E+03	2.935687E-16	1.794296E-17
6.358496E+03	2.966899E-16	1.813382E-17
6.368416E+03	2.996770E-16	1.831651E-17
6.378335E+03	3.025289E-16	1.849096E-17
6.388255E+03	3.052369E-16	1.865665E-17
6.398175E+03	3.077928E-16	1.881307E-17
6.408094E+03	3.101801E-16	1.895921E-17
6.418014E+03	3.124101E-16	1.909576E-17
6.427934E+03	3.144678E-16	1.922182E-17
6.437853E+03	3.163389E-16	1.933649E-17
6.447773E+03	3.180375E-16	1.944065E-17
6.457693E+03	3.195512E-16	1.953353E-17
6.467612E+03	3.208679E-16	1.961440E-17
6.477532E+03	3.220049E-16	1.968432E-17
6.487452E+03	3.229521E-16	1.974265E-17
6.497371E+03	3.236999E-16	1.978883E-17
6.507291E+03	3.242684E-16	1.982407E-17
6.517211E+03	3.246498E-16	1.984789E-17
6.527130E+03	3.248466E-16	1.986046E-17
6.537050E+03	3.248619E-16	1.986195E-17
6.546970E+03	3.246997E-16	1.985261E-17
6.556889E+03	3.243739E-16	1.983330E-17
6.566809E+03	3.238704E-16	1.980314E-17
6.576728E+03	3.232044E-16	1.976307E-17
6.586648E+03	3.223913E-16	1.971402E-17
6.596568E+03	3.214279E-16	1.965580E-17
6.606487E+03	3.203209E-16	1.958882E-17
6.616407E+03	3.190772E-16	1.951350E-17
6.626327E+03	3.177135E-16	1.943085E-17
6.636246E+03	3.162181E-16	1.934016E-17
6.646166E+03	3.146173E-16	1.924305E-17
6.656086E+03	3.129091E-16	1.913938E-17
6.666005E+03	3.111105E-16	1.903019E-17
6.675925E+03	3.092101E-16	1.891478E-17
6.685845E+03	3.072340E-16	1.879475E-17
6.695764E+03	3.051801E-16	1.866998E-17
6.705684E+03	3.030555E-16	1.854089E-17
6.715604E+03	3.008765E-16	1.840848E-17
6.725523E+03	2.986407E-16	1.827260E-17
6.735443E+03	2.963545E-16	1.813365E-17
6.745363E+03	2.940244E-16	1.799202E-17
6.755282E+03	2.916655E-16	1.784862E-17
6.765202E+03	2.892745E-16	1.770327E-17
6.775122E+03	2.868658E-16	1.755685E-17
6.785041E+03	2.844273E-16	1.740859E-17
6.794961E+03	2.819812E-16	1.725988E-17
6.804880E+03	2.795238E-16	1.711047E-17
6.814800E+03	2.770678E-16	1.696116E-17
6.824720E+03	2.746088E-16	1.681166E-17
6.834639E+03	2.721509E-16	1.666223E-17
6.844559E+03	2.696975E-16	1.651307E-17
6.854479E+03	2.672603E-16	1.636491E-17
6.864398E+03	2.648339E-16	1.621740E-17
6.874318E+03	2.624294E-16	1.607124E-17
6.884238E+03	2.600329E-16	1.592556E-17
6.894157E+03	2.576629E-16	1.578151E-17
6.904077E+03	2.553215E-16	1.563921E-17
6.913997E+03	2.529946E-16	1.549779E-17
6.923916E+03	2.506996E-16	1.535832E-17
6.933836E+03	2.484301E-16	1.522042E-17
6.943756E+03	2.461950E-16	1.508462E-17
6.953675E+03	2.439802E-16	1.495006E-17
6.963595E+03	2.418017E-16	1.481773E-17
6.973515E+03	2.396530E-16	1.468720E-17
6.983434E+03	2.375419E-16	1.455899E-17
6.993354E+03	2.354616E-16	1.443266E-17
7.003273E+03	2.334051E-16	1.430779E-17
7.013193E+03	2.313948E-16	1.418575E-17
7.023113E+03	2.294089E-16	1.406520E-17
7.033032E+03	2.274549E-16	1.394660E-17
7.042952E+03	2.255401E-16	1.383040E-17
7.052872E+03	2.236571E-16	1.371615E-17
7.062791E+03	2.218060E-16	1.360385E-17
7.072711E+03	2.199867E-16	1.349350E-17
7.082631E+03	2.182058E-16	1.338550E-17
7.092550E+03	2.164495E-16	1.327901E-17
7.102470E+03	2.147311E-16	1.317484E-17
7.112390E+03	2.130368E-16	1.307214E-17
7.122309E+03	2.113798E-16	1.297174E-17
7.132229E+03	2.097532E-16	1.287319E-17
7.142149E+03	2.081564E-16	1.277648E-17
7.152068E+03	2.065892E-16	1.268158E-17
7.161988E+03	2.050513E-16	1.258847E-17
7.171908E+03	2.035422E-16	1.249713E-17
7.181827E+03	2.020615E-16	1.240753E-17
7.191747E+03	2.006088E-16	1.231965E-17
7.201667E+03	1.991837E-16	1.223347E-17
7.211586E+03	1.977857E-16	1.214894E-17
7.221506E+03	1.964081E-16	1.206566E-17
7.231425E+03	1.950628E-16	1.198437E-17
7.241345E+03	1.937429E-16	1.190465E-17
7.251265E+03	1.924418E-16	1.182607E-17
7.261184E+03	1.911710E-16	1.174936E-17
7.271104E+03	1.899176E-16	1.167371E-17
7.281024E+03	1.886870E-16	1.159946E-17
7.290943E+03	1.874781E-16	1.152656E-17
7.300863E+03	1.862902E-16	1.145493E-17
7.310783E+03	1.851222E-16	1.138453E-17
7.320702E+03	1.839669E-16	1.131492E-17
7.330622E+03	1.828292E-16	1.124639E-17
7.340542E+03	1.817077E-16	1.117885E-17
7.350461E+03	1.806011E-16	1.111223E-17
7.360381E+03	1.795020E-16	1.104608E-17
7.370301E+03	1.784148E-16	1.098065E-17
7.380220E+03	1.773378E-16	1.091585E-17
7.390140E+03	1.762635E-16	1.085122E-17
7.400060E+03	1.752019E-16	1.078737E-17
7.409979E+03	1.741341E-16	1.072314E-17
7.419899E+03	1.730758E-16	1.065950E-17
7.429818E+03	1.720143E-16	1.059566E-17
7.439738E+03	1.709542E-16	1.053190E-17
7.449658E+03	1.698894E-16	1.046785E-17
7.459577E+03	1.688254E-16	1.040386E-17
7.469497E+03	1.677574E-16	1.033961E-17
7.479417E+03	1.666921E-16	1.027553E-17
7.489336E+03	1.656308E-16	1.021169E-17
7.499256E+03	1.645695E-16	1.014785E-17
7.509176E+03	1.635153E-16	1.008445E-17
7.519095E+03	1.624642E-16	1.002123E-17
7.529015E+03	1.614230E-16	9.958613E-18
7.538935E+03	1.603877E-16	9.896363E-18
7.548854E+03	1.593596E-16	9.834545E-18
7.558774E+03	1.583503E-16	9.773886E-18
7.568694E+03	1.573450E-16	9.713465E-18
7.578613E+03	1.563549E-16	9.653975E-18
7.588533E+03	1.553807E-16	9.595461E-18
7.598453E+03	1.544177E-16	9.537633E-18
7.608372E+03	1.534714E-16	9.480830E-18
7.618292E+03	1.525320E-16	9.424446E-18
7.628211E+03	1.516150E-16	9.369436E-18
7.638131E+03	1.507102E-16	9.315174E-18
7.648051E+03	1.498178E-16	9.261668E-18
7.657970E+03	1.489377E-16	9.208919E-18
7.667890E+03	1.480749E-16	9.157225E-18
7.677810E+03	1.472241E-16	9.106274E-18
7.687729E+03	1.463903E-16	9.056361E-18
7.697649E+03	1.455682E-16	9.007162E-18
