#wls	flux	fluxerr
1.587144E+03	1.277636E-18	7.937083E-20
1.626823E+03	1.315966E-18	8.164540E-20
1.666501E+03	1.344418E-18	8.329904E-20
1.706180E+03	1.362299E-18	8.429104E-20
1.745859E+03	1.368235E-18	8.453915E-20
1.785537E+03	1.359265E-18	8.386371E-20
1.825216E+03	1.332941E-18	8.211784E-20
1.864894E+03	1.285531E-18	7.907692E-20
1.904573E+03	1.215621E-18	7.466023E-20
1.944252E+03	1.123936E-18	6.891912E-20
1.983930E+03	1.016468E-18	6.222747E-20
2.023609E+03	9.058977E-19	5.536561E-20
2.063287E+03	8.096533E-19	4.939864E-20
2.102966E+03	7.462886E-19	4.545270E-20
2.142645E+03	7.281807E-19	4.427013E-20
2.182323E+03	7.605137E-19	4.615076E-20
2.222002E+03	8.409113E-19	5.093348E-20
2.261680E+03	9.617599E-19	5.814094E-20
2.301359E+03	1.112527E-18	6.712260E-20
2.341038E+03	1.281899E-18	7.718542E-20
2.380716E+03	1.460696E-18	8.776969E-20
2.420395E+03	1.641771E-18	9.844203E-20
2.460073E+03	1.821683E-18	1.089943E-19
2.499752E+03	1.998661E-18	1.193198E-19
2.539431E+03	2.171996E-18	1.293761E-19
2.579109E+03	2.342146E-18	1.391905E-19
2.618788E+03	2.510079E-18	1.488204E-19
2.658466E+03	2.677484E-18	1.583654E-19
2.698145E+03	2.845334E-18	1.678818E-19
2.737824E+03	3.015065E-18	1.774527E-19
2.777502E+03	3.188693E-18	1.871942E-19
2.817181E+03	3.367250E-18	1.971639E-19
2.856859E+03	3.552895E-18	2.074842E-19
2.896538E+03	3.746722E-18	2.182142E-19
2.936217E+03	3.950457E-18	2.294491E-19
2.975895E+03	4.165947E-18	2.412896E-19
2.985815E+03	4.221886E-18	2.443568E-19
2.995735E+03	4.278716E-18	2.474704E-19
3.005654E+03	4.337190E-18	2.506737E-19
3.015574E+03	4.396049E-18	2.538937E-19
3.025494E+03	4.456519E-18	2.572012E-19
3.035413E+03	4.519214E-18	2.606313E-19
3.045333E+03	4.583971E-18	2.641744E-19
3.055252E+03	4.651814E-18	2.678891E-19
3.065172E+03	4.721111E-18	2.716811E-19
3.075092E+03	4.792521E-18	2.755881E-19
3.085011E+03	4.866760E-18	2.796509E-19
3.094931E+03	4.942163E-18	2.837736E-19
3.104851E+03	5.019451E-18	2.879974E-19
3.114770E+03	5.099411E-18	2.923670E-19
3.124690E+03	5.180326E-18	2.967838E-19
3.134610E+03	5.263853E-18	3.013424E-19
3.144529E+03	5.348245E-18	3.059426E-19
3.154449E+03	5.435218E-18	3.106824E-19
3.164369E+03	5.522995E-18	3.154597E-19
3.174288E+03	5.613359E-18	3.203764E-19
3.184208E+03	5.704488E-18	3.253280E-19
3.194128E+03	5.798243E-18	3.304206E-19
3.204047E+03	5.892754E-18	3.355472E-19
3.213967E+03	5.989953E-18	3.408177E-19
3.223887E+03	6.087926E-18	3.461229E-19
3.233806E+03	6.188674E-18	3.515763E-19
3.243726E+03	6.290237E-18	3.570661E-19
3.253645E+03	6.394691E-18	3.627103E-19
3.263565E+03	6.501081E-18	3.684539E-19
3.273485E+03	6.608386E-18	3.742392E-19
3.283404E+03	6.718801E-18	3.801899E-19
3.293324E+03	6.831337E-18	3.862499E-19
3.303244E+03	6.944945E-18	3.923595E-19
3.313163E+03	7.061930E-18	3.986487E-19
3.323083E+03	7.181277E-18	4.050597E-19
3.333003E+03	7.301890E-18	4.115303E-19
3.342922E+03	7.426207E-18	4.181979E-19
3.352842E+03	7.553169E-18	4.250020E-19
3.362762E+03	7.682878E-18	4.319483E-19
3.372681E+03	7.815452E-18	4.390427E-19
3.382601E+03	7.949721E-18	4.462193E-19
3.392521E+03	8.088350E-18	4.536273E-19
3.402440E+03	8.230210E-18	4.612027E-19
3.412360E+03	8.375428E-18	4.689523E-19
3.422280E+03	8.524149E-18	4.768835E-19
3.432199E+03	8.675124E-18	4.849262E-19
3.442119E+03	8.831262E-18	4.932424E-19
3.452038E+03	8.991354E-18	5.017639E-19
3.461958E+03	9.155560E-18	5.104991E-19
3.471878E+03	9.324052E-18	5.194570E-19
3.481797E+03	9.497004E-18	5.286465E-19
3.491717E+03	9.674596E-18	5.380771E-19
3.501637E+03	9.857020E-18	5.477588E-19
3.511556E+03	1.004447E-17	5.577017E-19
3.521476E+03	1.023715E-17	5.679162E-19
3.531396E+03	1.043526E-17	5.784132E-19
3.541315E+03	1.063904E-17	5.892040E-19
3.551235E+03	1.084697E-17	6.002049E-19
3.561155E+03	1.106270E-17	6.116168E-19
3.571074E+03	1.128479E-17	6.233587E-19
3.580994E+03	1.151348E-17	6.354433E-19
3.590914E+03	1.174904E-17	6.478840E-19
3.600833E+03	1.199172E-17	6.606945E-19
3.610753E+03	1.224182E-17	6.738891E-19
3.620673E+03	1.249960E-17	6.874823E-19
3.630592E+03	1.276538E-17	7.014894E-19
3.640512E+03	1.303945E-17	7.159262E-19
3.650432E+03	1.332214E-17	7.308088E-19
3.660351E+03	1.361591E-17	7.462715E-19
3.670271E+03	1.391686E-17	7.620988E-19
3.680190E+03	1.422744E-17	7.784237E-19
3.690110E+03	1.454802E-17	7.952649E-19
3.700030E+03	1.487895E-17	8.126410E-19
3.709949E+03	1.522064E-17	8.305720E-19
3.719869E+03	1.557348E-17	8.490776E-19
3.729789E+03	1.593788E-17	8.681790E-19
3.739708E+03	1.631426E-17	8.878975E-19
3.749628E+03	1.670306E-17	9.082552E-19
3.759548E+03	1.710473E-17	9.292746E-19
3.769467E+03	1.751972E-17	9.509791E-19
3.779387E+03	1.794853E-17	9.733928E-19
3.789307E+03	1.839163E-17	9.965402E-19
3.799226E+03	1.884953E-17	1.020447E-18
3.809146E+03	1.932274E-17	1.045138E-18
3.819066E+03	1.981179E-17	1.070640E-18
3.828985E+03	2.031722E-17	1.096980E-18
3.838905E+03	2.084282E-17	1.124361E-18
3.848825E+03	2.138276E-17	1.152466E-18
3.858744E+03	2.194077E-17	1.181492E-18
3.868664E+03	2.251744E-17	1.211470E-18
3.878583E+03	2.311336E-17	1.242430E-18
3.888503E+03	2.372910E-17	1.274398E-18
3.898423E+03	2.436531E-17	1.307408E-18
3.908342E+03	2.502259E-17	1.341489E-18
3.918262E+03	2.570153E-17	1.376668E-18
3.928182E+03	2.640274E-17	1.412978E-18
3.938101E+03	2.712684E-17	1.450448E-18
3.948021E+03	2.787443E-17	1.489106E-18
3.957941E+03	2.864608E-17	1.528980E-18
3.967860E+03	2.944239E-17	1.570100E-18
3.977780E+03	3.026390E-17	1.612491E-18
3.987700E+03	3.111112E-17	1.656176E-18
3.997619E+03	3.198460E-17	1.701183E-18
4.007539E+03	3.288477E-17	1.747531E-18
4.017459E+03	3.381206E-17	1.795239E-18
4.027378E+03	3.476685E-17	1.844324E-18
4.037298E+03	3.574946E-17	1.894800E-18
4.047218E+03	3.676013E-17	1.946676E-18
4.057137E+03	3.779904E-17	1.999960E-18
4.067057E+03	3.886628E-17	2.054652E-18
4.076976E+03	3.996182E-17	2.110746E-18
4.086896E+03	4.108560E-17	2.168238E-18
4.096816E+03	4.223732E-17	2.227109E-18
4.106735E+03	4.341007E-17	2.286992E-18
4.116655E+03	4.461636E-17	2.348541E-18
4.126575E+03	4.584914E-17	2.411385E-18
4.136494E+03	4.710760E-17	2.475477E-18
4.146414E+03	4.839076E-17	2.540764E-18
4.156334E+03	4.969751E-17	2.607185E-18
4.166253E+03	5.102650E-17	2.674668E-18
4.176173E+03	5.236830E-17	2.742716E-18
4.186093E+03	5.373693E-17	2.812064E-18
4.196012E+03	5.512280E-17	2.882206E-18
4.205932E+03	5.652386E-17	2.953037E-18
4.215852E+03	5.793796E-17	3.024442E-18
4.225771E+03	5.935384E-17	3.095834E-18
4.235691E+03	6.078675E-17	3.168010E-18
4.245611E+03	6.222550E-17	3.240385E-18
4.255530E+03	6.366751E-17	3.312827E-18
4.265450E+03	6.510046E-17	3.384696E-18
4.275370E+03	6.654121E-17	3.456871E-18
4.285289E+03	6.797777E-17	3.528731E-18
4.295209E+03	6.939752E-17	3.599623E-18
4.305128E+03	7.081904E-17	3.670513E-18
4.315048E+03	7.221954E-17	3.740224E-18
4.324968E+03	7.361904E-17	3.809795E-18
4.334887E+03	7.500587E-17	3.878626E-18
4.344807E+03	7.636798E-17	3.946097E-18
4.354727E+03	7.772779E-17	4.013371E-18
4.364646E+03	7.906091E-17	4.079191E-18
4.374566E+03	8.038823E-17	4.144640E-18
4.384486E+03	8.168376E-17	4.208382E-18
4.394405E+03	8.296972E-17	4.271565E-18
4.404325E+03	8.422003E-17	4.332852E-18
4.414245E+03	8.544563E-17	4.392812E-18
4.424164E+03	8.665849E-17	4.452063E-18
4.434084E+03	8.783240E-17	4.509264E-18
4.444004E+03	8.899292E-17	4.565733E-18
4.453923E+03	9.011366E-17	4.620120E-18
4.463843E+03	9.120771E-17	4.673102E-18
4.473763E+03	9.227533E-17	4.724697E-18
4.483682E+03	9.333066E-17	4.775633E-18
4.493602E+03	9.434660E-17	4.824528E-18
4.503521E+03	9.533727E-17	4.872107E-18
4.513441E+03	9.630321E-17	4.918403E-18
4.523361E+03	9.725924E-17	4.964177E-18
4.533280E+03	9.817719E-17	5.007993E-18
4.543200E+03	9.907172E-17	5.050604E-18
4.553120E+03	9.994323E-17	5.092035E-18
4.563039E+03	1.007921E-16	5.132305E-18
4.572959E+03	1.016186E-16	5.171437E-18
4.582879E+03	1.024230E-16	5.209445E-18
4.592798E+03	1.032056E-16	5.246347E-18
4.602718E+03	1.039665E-16	5.282158E-18
4.612638E+03	1.047062E-16	5.316896E-18
4.622557E+03	1.054249E-16	5.350576E-18
4.632477E+03	1.061228E-16	5.383220E-18
4.642397E+03	1.068003E-16	5.414845E-18
4.652316E+03	1.074580E-16	5.445481E-18
4.662236E+03	1.080962E-16	5.475154E-18
4.672156E+03	1.086997E-16	5.503091E-18
4.682075E+03	1.093009E-16	5.530941E-18
4.691995E+03	1.098849E-16	5.557943E-18
4.701914E+03	1.104524E-16	5.584146E-18
4.711834E+03	1.109883E-16	5.608783E-18
4.721754E+03	1.115261E-16	5.633549E-18
4.731673E+03	1.120509E-16	5.657692E-18
4.741593E+03	1.125474E-16	5.680445E-18
4.751513E+03	1.130499E-16	5.703538E-18
4.761432E+03	1.135267E-16	5.725379E-18
4.771352E+03	1.140123E-16	5.747709E-18
4.781272E+03	1.144751E-16	5.768931E-18
4.791191E+03	1.149497E-16	5.790792E-18
4.801111E+03	1.154041E-16	5.811685E-18
4.811031E+03	1.158732E-16	5.833365E-18
4.820950E+03	1.163245E-16	5.854200E-18
4.830870E+03	1.167930E-16	5.875951E-18
4.840790E+03	1.172458E-16	5.896962E-18
4.850709E+03	1.177006E-16	5.918132E-18
4.860629E+03	1.181753E-16	5.940356E-18
4.870549E+03	1.186362E-16	5.961942E-18
4.880468E+03	1.191006E-16	5.983764E-18
4.890388E+03	1.195687E-16	6.005825E-18
4.900308E+03	1.200402E-16	6.028124E-18
4.910227E+03	1.205323E-16	6.051516E-18
4.920147E+03	1.210095E-16	6.074222E-18
4.930066E+03	1.214883E-16	6.097074E-18
4.939986E+03	1.219676E-16	6.120018E-18
4.949906E+03	1.224461E-16	6.142988E-18
4.959825E+03	1.229221E-16	6.165905E-18
4.969745E+03	1.233939E-16	6.188680E-18
4.979665E+03	1.238596E-16	6.211217E-18
4.989584E+03	1.243167E-16	6.233403E-18
4.999504E+03	1.247451E-16	6.254221E-18
5.009424E+03	1.251780E-16	6.275345E-18
5.019343E+03	1.255948E-16	6.295743E-18
5.029263E+03	1.259927E-16	6.315274E-18
5.039183E+03	1.263689E-16	6.333793E-18
5.049102E+03	1.267020E-16	6.350240E-18
5.059022E+03	1.270254E-16	6.366286E-18
5.068942E+03	1.273178E-16	6.380869E-18
5.078861E+03	1.275580E-16	6.392916E-18
5.088781E+03	1.277792E-16	6.404108E-18
5.098701E+03	1.279420E-16	6.412457E-18
5.108620E+03	1.280799E-16	6.419657E-18
5.118540E+03	1.281535E-16	6.423720E-18
5.128459E+03	1.281967E-16	6.426355E-18
5.138379E+03	1.281702E-16	6.425585E-18
5.148299E+03	1.281081E-16	6.423130E-18
5.158218E+03	1.279716E-16	6.417035E-18
5.168138E+03	1.277952E-16	6.409034E-18
5.178058E+03	1.275405E-16	6.397199E-18
5.187977E+03	1.272243E-16	6.382370E-18
5.197897E+03	1.268453E-16	6.364480E-18
5.207817E+03	1.264205E-16	6.344383E-18
5.217736E+03	1.259130E-16	6.320226E-18
5.227656E+03	1.253405E-16	6.292894E-18
5.237576E+03	1.247031E-16	6.262383E-18
5.247495E+03	1.240008E-16	6.228701E-18
5.257415E+03	1.232344E-16	6.191874E-18
5.267335E+03	1.224048E-16	6.151947E-18
5.277254E+03	1.215131E-16	6.108974E-18
5.287174E+03	1.205609E-16	6.063027E-18
5.297094E+03	1.195502E-16	6.014194E-18
5.307013E+03	1.184830E-16	5.962577E-18
5.316933E+03	1.173617E-16	5.908290E-18
5.326852E+03	1.161891E-16	5.851464E-18
5.336772E+03	1.149682E-16	5.792242E-18
5.346692E+03	1.137020E-16	5.730776E-18
5.356611E+03	1.123781E-16	5.666427E-18
5.366531E+03	1.110323E-16	5.600990E-18
5.376451E+03	1.096521E-16	5.533838E-18
5.386370E+03	1.082415E-16	5.465165E-18
5.396290E+03	1.067895E-16	5.394404E-18
5.406210E+03	1.053309E-16	5.323315E-18
5.416129E+03	1.038550E-16	5.251342E-18
5.426049E+03	1.023516E-16	5.177975E-18
5.435969E+03	1.008551E-16	5.104937E-18
5.445888E+03	9.934132E-17	5.031009E-18
5.455808E+03	9.784286E-17	4.957836E-18
5.465728E+03	9.633326E-17	4.884073E-18
5.475647E+03	9.484152E-17	4.811187E-18
5.485567E+03	9.334201E-17	4.737874E-18
5.495487E+03	9.185028E-17	4.664921E-18
5.505406E+03	9.038116E-17	4.593079E-18
5.515326E+03	8.891078E-17	4.521131E-18
5.525246E+03	8.745435E-17	4.449850E-18
5.535165E+03	8.602615E-17	4.379959E-18
5.545085E+03	8.460372E-17	4.310314E-18
5.555004E+03	8.320156E-17	4.241653E-18
5.564924E+03	8.182164E-17	4.174074E-18
5.574844E+03	8.046589E-17	4.107676E-18
5.584763E+03	7.914743E-17	4.043128E-18
5.594683E+03	7.784533E-17	3.979362E-18
5.604603E+03	7.657270E-17	3.917047E-18
5.614522E+03	7.533105E-17	3.856262E-18
5.624442E+03	7.412181E-17	3.797081E-18
5.634362E+03	7.294634E-17	3.739575E-18
5.644281E+03	7.180585E-17	3.683807E-18
5.654201E+03	7.070144E-17	3.629836E-18
5.664121E+03	6.963416E-17	3.577717E-18
5.674040E+03	6.860483E-17	3.527496E-18
5.683960E+03	6.760473E-17	3.478726E-18
5.693880E+03	6.665384E-17	3.432437E-18
5.703799E+03	6.574304E-17	3.388165E-18
5.713719E+03	6.487290E-17	3.345941E-18
5.723639E+03	6.404378E-17	3.305787E-18
5.733558E+03	6.324709E-17	3.267264E-18
5.743478E+03	6.250118E-17	3.231323E-18
5.753397E+03	6.179712E-17	3.197505E-18
5.763317E+03	6.112640E-17	3.165376E-18
5.773237E+03	6.050654E-17	3.135846E-18
5.783156E+03	5.992876E-17	3.108465E-18
5.793076E+03	5.938466E-17	3.082801E-18
5.802996E+03	5.889107E-17	3.059732E-18
5.812915E+03	5.843114E-17	3.038388E-18
5.822835E+03	5.802128E-17	3.019626E-18
5.832755E+03	5.764491E-17	3.002588E-18
5.842674E+03	5.731818E-17	2.988120E-18
5.852594E+03	5.702461E-17	2.975369E-18
5.862514E+03	5.678020E-17	2.965173E-18
5.872433E+03	5.656860E-17	2.956683E-18
5.882353E+03	5.639762E-17	2.950314E-18
5.892273E+03	5.627501E-17	2.946474E-18
5.902192E+03	5.618457E-17	2.944321E-18
5.912112E+03	5.613406E-17	2.944267E-18
5.922032E+03	5.613111E-17	2.946717E-18
5.931951E+03	5.615961E-17	2.950831E-18
5.941871E+03	5.622725E-17	2.957017E-18
5.951790E+03	5.633371E-17	2.965263E-18
5.961710E+03	5.648667E-17	2.975979E-18
5.971630E+03	5.666988E-17	2.988316E-18
5.981549E+03	5.689089E-17	3.002675E-18
5.991469E+03	5.714936E-17	3.019043E-18
6.001389E+03	5.744481E-17	3.037400E-18
6.011308E+03	5.777675E-17	3.057726E-18
6.021228E+03	5.814457E-17	3.079992E-18
6.031148E+03	5.854761E-17	3.104170E-18
6.041067E+03	5.898514E-17	3.130225E-18
6.050987E+03	5.945631E-17	3.158117E-18
6.060907E+03	5.996015E-17	3.187799E-18
6.070826E+03	6.049554E-17	3.219216E-18
6.080746E+03	6.106120E-17	3.252304E-18
6.090666E+03	6.165579E-17	3.286997E-18
6.100585E+03	6.227766E-17	3.323210E-18
6.110505E+03	6.292512E-17	3.360857E-18
6.120425E+03	6.359624E-17	3.399838E-18
6.130344E+03	6.428886E-17	3.440041E-18
6.140264E+03	6.499149E-17	3.480854E-18
6.150184E+03	6.571983E-17	3.523120E-18
6.160103E+03	6.646211E-17	3.566211E-18
6.170023E+03	6.721537E-17	3.609970E-18
6.179942E+03	6.797651E-17	3.654230E-18
6.189862E+03	6.873252E-17	3.698294E-18
6.199782E+03	6.949925E-17	3.743015E-18
6.209701E+03	7.026345E-17	3.787679E-18
6.219621E+03	7.101141E-17	3.831545E-18
6.229541E+03	7.175919E-17	3.875479E-18
6.239460E+03	7.249298E-17	3.918734E-18
6.249380E+03	7.319843E-17	3.960531E-18
6.259300E+03	7.389226E-17	4.001771E-18
6.269219E+03	7.454965E-17	4.041106E-18
6.279139E+03	7.518775E-17	4.079461E-18
6.289059E+03	7.579237E-17	4.116063E-18
6.298978E+03	7.634905E-17	4.150120E-18
6.308898E+03	7.687592E-17	4.182612E-18
6.318818E+03	7.734804E-17	4.212174E-18
6.328737E+03	7.778423E-17	4.239824E-18
6.338657E+03	7.815992E-17	4.264217E-18
6.348577E+03	7.848362E-17	4.285807E-18
6.358496E+03	7.876448E-17	4.305087E-18
6.368416E+03	7.897853E-17	4.320737E-18
6.378335E+03	7.914677E-17	4.333899E-18
6.388255E+03	7.924583E-17	4.343284E-18
6.398175E+03	7.928635E-17	4.349465E-18
6.408094E+03	7.927933E-17	4.353037E-18
6.418014E+03	7.920249E-17	4.352767E-18
6.427934E+03	7.906751E-17	4.349289E-18
6.437853E+03	7.888657E-17	4.343263E-18
6.447773E+03	7.863840E-17	4.333510E-18
6.457693E+03	7.833574E-17	4.320724E-18
6.467612E+03	7.799139E-17	4.305601E-18
6.477532E+03	7.758524E-17	4.287025E-18
6.487452E+03	7.713072E-17	4.265728E-18
6.497371E+03	7.663017E-17	4.241834E-18
6.507291E+03	7.608631E-17	4.215485E-18
6.517211E+03	7.551255E-17	4.187420E-18
6.527130E+03	7.489035E-17	4.156604E-18
6.537050E+03	7.423336E-17	4.123789E-18
6.546970E+03	7.354463E-17	4.089138E-18
6.556889E+03	7.282722E-17	4.052818E-18
6.566809E+03	7.208408E-17	4.014988E-18
6.576728E+03	7.131832E-17	3.975818E-18
6.586648E+03	7.053288E-17	3.935469E-18
6.596568E+03	6.973070E-17	3.894103E-18
6.606487E+03	6.891459E-17	3.851874E-18
6.616407E+03	6.808732E-17	3.808934E-18
6.626327E+03	6.725156E-17	3.765433E-18
6.636246E+03	6.640984E-17	3.721510E-18
6.646166E+03	6.556459E-17	3.677300E-18
6.656086E+03	6.471818E-17	3.632938E-18
6.666005E+03	6.387267E-17	3.588538E-18
6.675925E+03	6.303022E-17	3.544222E-18
6.685845E+03	6.219265E-17	3.500094E-18
6.695764E+03	6.136175E-17	3.456254E-18
6.705684E+03	6.053918E-17	3.412798E-18
6.715604E+03	5.972646E-17	3.369812E-18
6.725523E+03	5.892491E-17	3.327373E-18
6.735443E+03	5.813579E-17	3.285554E-18
6.745363E+03	5.735209E-17	3.243960E-18
6.755282E+03	5.659124E-17	3.203579E-18
6.765202E+03	5.584585E-17	3.163995E-18
6.775122E+03	5.511666E-17	3.125254E-18
6.785041E+03	5.440436E-17	3.087395E-18
6.794961E+03	5.370191E-17	3.050023E-18
6.804880E+03	5.302515E-17	3.014039E-18
6.814800E+03	5.236672E-17	2.979028E-18
6.824720E+03	5.172693E-17	2.945011E-18
6.834639E+03	5.109869E-17	2.911586E-18
6.844559E+03	5.049682E-17	2.879600E-18
6.854479E+03	4.991403E-17	2.848642E-18
6.864398E+03	4.934333E-17	2.818313E-18
6.874318E+03	4.879884E-17	2.789424E-18
6.884238E+03	4.827325E-17	2.761560E-18
6.894157E+03	4.775969E-17	2.734331E-18
6.904077E+03	4.727165E-17	2.708511E-18
6.913997E+03	4.679532E-17	2.683311E-18
6.923916E+03	4.634389E-17	2.659491E-18
6.933836E+03	4.591022E-17	2.636644E-18
6.943756E+03	4.548759E-17	2.614386E-18
6.953675E+03	4.508860E-17	2.593444E-18
6.963595E+03	4.469996E-17	2.573055E-18
6.973515E+03	4.433407E-17	2.553936E-18
6.983434E+03	4.397777E-17	2.535332E-18
6.993354E+03	4.364323E-17	2.517944E-18
7.003273E+03	4.331746E-17	2.501027E-18
7.013193E+03	4.301239E-17	2.485272E-18
7.023113E+03	4.271520E-17	2.469939E-18
7.033032E+03	4.243764E-17	2.455709E-18
7.042952E+03	4.216700E-17	2.441850E-18
7.052872E+03	4.190888E-17	2.428686E-18
7.062791E+03	4.166869E-17	2.416534E-18
7.072711E+03	4.143395E-17	2.404671E-18
7.082631E+03	4.121601E-17	2.393757E-18
7.092550E+03	4.100249E-17	2.383075E-18
7.102470E+03	4.079877E-17	2.372939E-18
7.112390E+03	4.061012E-17	2.363656E-18
7.122309E+03	4.042432E-17	2.354516E-18
7.132229E+03	4.024666E-17	2.345830E-18
7.142149E+03	4.008235E-17	2.337901E-18
7.152068E+03	3.991932E-17	2.330025E-18
7.161988E+03	3.976277E-17	2.322509E-18
7.171908E+03	3.961217E-17	2.315321E-18
7.181827E+03	3.947263E-17	2.308762E-18
7.191747E+03	3.933228E-17	2.302137E-18
7.201667E+03	3.919624E-17	2.295746E-18
7.211586E+03	3.906401E-17	2.289561E-18
7.221506E+03	3.893503E-17	2.283551E-18
7.231425E+03	3.881440E-17	2.278013E-18
7.241345E+03	3.869042E-17	2.272262E-18
7.251265E+03	3.856818E-17	2.266597E-18
7.261184E+03	3.844720E-17	2.260990E-18
7.271104E+03	3.832700E-17	2.255414E-18
7.281024E+03	3.820711E-17	2.249839E-18
7.290943E+03	3.808709E-17	2.244242E-18
7.300863E+03	3.796650E-17	2.238594E-18
7.310783E+03	3.784491E-17	2.232873E-18
7.320702E+03	3.772193E-17	2.227053E-18
7.330622E+03	3.759717E-17	2.221112E-18
7.340542E+03	3.747026E-17	2.215029E-18
7.350461E+03	3.734087E-17	2.208782E-18
7.360381E+03	3.720866E-17	2.202353E-18
7.370301E+03	3.707335E-17	2.195724E-18
7.380220E+03	3.693465E-17	2.188877E-18
7.390140E+03	3.679232E-17	2.181799E-18
7.400060E+03	3.664613E-17	2.174475E-18
7.409979E+03	3.649588E-17	2.166893E-18
7.419899E+03	3.634140E-17	2.159042E-18
7.429818E+03	3.618254E-17	2.150914E-18
7.439738E+03	3.601920E-17	2.142501E-18
7.449658E+03	3.585126E-17	2.133797E-18
7.459577E+03	3.567352E-17	2.124490E-18
7.469497E+03	3.549627E-17	2.115195E-18
7.479417E+03	3.531433E-17	2.105600E-18
7.489336E+03	3.512769E-17	2.095707E-18
7.499256E+03	3.493641E-17	2.085518E-18
7.509176E+03	3.473549E-17	2.074734E-18
7.519095E+03	3.453513E-17	2.063963E-18
7.529015E+03	3.433036E-17	2.052909E-18
7.538935E+03	3.412132E-17	2.041578E-18
7.548854E+03	3.390320E-17	2.029685E-18
7.558774E+03	3.368606E-17	2.017829E-18
7.568694E+03	3.346510E-17	2.005725E-18
7.578613E+03	3.323568E-17	1.993092E-18
7.588533E+03	3.300770E-17	1.980524E-18
7.598453E+03	3.277650E-17	1.967743E-18
7.608372E+03	3.253756E-17	1.954476E-18
7.618292E+03	3.230061E-17	1.941307E-18
7.628211E+03	3.205644E-17	1.927682E-18
7.638131E+03	3.181465E-17	1.914180E-18
7.648051E+03	3.157079E-17	1.900532E-18
7.657970E+03	3.132053E-17	1.886478E-18
7.667890E+03	3.107327E-17	1.872582E-18
7.677810E+03	3.082015E-17	1.858313E-18
7.687729E+03	3.057045E-17	1.844228E-18
7.697649E+03	3.031542E-17	1.829801E-18
