#wls	flux	fluxerr
1.596488E+03	8.896622E-05	4.529753E-09
1.636400E+03	9.210639E-05	4.689636E-09
1.676312E+03	9.536766E-05	4.855685E-09
1.716224E+03	9.877469E-05	5.029155E-09
1.756136E+03	1.023264E-04	5.209991E-09
1.796049E+03	1.060075E-04	5.397418E-09
1.835961E+03	1.098014E-04	5.590582E-09
1.875873E+03	1.136898E-04	5.788562E-09
1.915785E+03	1.176319E-04	5.989278E-09
1.955697E+03	1.215992E-04	6.191276E-09
1.995610E+03	1.255883E-04	6.394381E-09
2.035522E+03	1.297061E-04	6.604039E-09
2.075434E+03	1.341796E-04	6.831808E-09
2.115346E+03	1.393936E-04	7.097283E-09
2.155258E+03	1.457766E-04	7.422277E-09
2.195171E+03	1.536005E-04	7.820633E-09
2.235083E+03	1.628532E-04	8.291735E-09
2.274995E+03	1.733848E-04	8.827959E-09
2.314907E+03	1.849863E-04	9.418652E-09
2.354819E+03	1.975126E-04	1.005643E-08
2.394732E+03	2.109055E-04	1.073834E-08
2.434644E+03	2.252083E-04	1.146657E-08
2.474556E+03	2.404792E-04	1.224409E-08
2.514468E+03	2.568011E-04	1.307513E-08
2.554380E+03	2.742940E-04	1.396579E-08
2.594293E+03	2.930743E-04	1.492199E-08
2.634205E+03	3.132752E-04	1.595053E-08
2.674117E+03	3.350060E-04	1.705696E-08
2.714029E+03	3.584005E-04	1.824810E-08
2.753941E+03	3.835909E-04	1.953068E-08
2.793854E+03	4.107039E-04	2.091115E-08
2.833766E+03	4.398262E-04	2.239392E-08
2.873678E+03	4.710713E-04	2.398477E-08
2.913590E+03	5.045125E-04	2.568744E-08
2.953502E+03	5.401692E-04	2.750292E-08
2.993414E+03	5.780206E-04	2.943014E-08
3.003393E+03	5.878200E-04	2.992907E-08
3.013371E+03	5.977411E-04	3.043421E-08
3.023349E+03	6.077802E-04	3.094536E-08
3.033327E+03	6.179522E-04	3.146327E-08
3.043305E+03	6.282429E-04	3.198722E-08
3.053283E+03	6.386728E-04	3.251826E-08
3.063261E+03	6.492161E-04	3.305508E-08
3.073239E+03	6.598639E-04	3.359722E-08
3.083217E+03	6.706424E-04	3.414601E-08
3.093195E+03	6.815058E-04	3.469912E-08
3.103173E+03	6.924428E-04	3.525598E-08
3.113151E+03	7.034594E-04	3.581690E-08
3.123129E+03	7.145428E-04	3.638121E-08
3.133107E+03	7.256603E-04	3.694726E-08
3.143085E+03	7.368336E-04	3.751616E-08
3.153063E+03	7.480087E-04	3.808514E-08
3.163041E+03	7.591682E-04	3.865333E-08
3.173019E+03	7.703282E-04	3.922154E-08
3.182997E+03	7.814308E-04	3.978684E-08
3.192975E+03	7.924707E-04	4.034894E-08
3.202954E+03	8.034222E-04	4.090653E-08
3.212932E+03	8.142386E-04	4.145726E-08
3.222910E+03	8.249283E-04	4.200153E-08
3.232888E+03	8.354207E-04	4.253575E-08
3.242866E+03	8.456991E-04	4.305908E-08
3.252844E+03	8.557255E-04	4.356958E-08
3.262822E+03	8.654578E-04	4.406510E-08
3.272800E+03	8.748457E-04	4.454309E-08
3.282778E+03	8.838285E-04	4.500045E-08
3.292756E+03	8.923204E-04	4.543282E-08
3.302734E+03	9.002765E-04	4.583791E-08
3.312712E+03	9.076615E-04	4.621392E-08
3.322690E+03	9.144010E-04	4.655706E-08
3.332668E+03	9.205110E-04	4.686815E-08
3.342646E+03	9.260226E-04	4.714878E-08
3.352624E+03	9.310666E-04	4.740559E-08
3.362602E+03	9.357259E-04	4.764282E-08
3.372580E+03	9.401564E-04	4.786840E-08
3.382558E+03	9.445100E-04	4.809007E-08
3.392536E+03	9.489326E-04	4.831525E-08
3.402514E+03	9.535212E-04	4.854888E-08
3.412493E+03	9.583806E-04	4.879629E-08
3.422471E+03	9.635166E-04	4.905779E-08
3.432449E+03	9.688949E-04	4.933163E-08
3.442427E+03	9.743158E-04	4.960764E-08
3.452405E+03	9.796292E-04	4.987817E-08
3.462383E+03	9.845109E-04	5.012672E-08
3.472361E+03	9.887073E-04	5.034039E-08
3.482339E+03	9.918567E-04	5.050074E-08
3.492317E+03	9.937058E-04	5.059489E-08
3.502295E+03	9.940186E-04	5.061081E-08
3.512273E+03	9.927421E-04	5.054582E-08
3.522251E+03	9.899884E-04	5.040561E-08
3.532229E+03	9.861864E-04	5.021203E-08
3.542207E+03	9.820079E-04	4.999928E-08
3.552185E+03	9.781285E-04	4.980176E-08
3.562163E+03	9.745889E-04	4.962154E-08
3.572141E+03	9.712932E-04	4.945374E-08
3.582119E+03	9.683520E-04	4.930398E-08
3.592097E+03	9.659181E-04	4.918006E-08
3.602075E+03	9.640584E-04	4.908537E-08
3.612053E+03	9.627468E-04	4.901859E-08
3.622032E+03	9.620287E-04	4.898203E-08
3.632010E+03	9.619513E-04	4.897809E-08
3.641988E+03	9.625818E-04	4.901019E-08
3.651966E+03	9.640261E-04	4.908373E-08
3.661944E+03	9.663881E-04	4.920399E-08
3.671922E+03	9.696749E-04	4.937134E-08
3.681900E+03	9.739025E-04	4.958659E-08
3.691878E+03	9.790460E-04	4.984847E-08
3.701856E+03	9.850104E-04	5.015215E-08
3.711834E+03	9.915835E-04	5.048682E-08
3.721812E+03	9.983967E-04	5.083372E-08
3.731790E+03	1.004792E-03	5.115933E-08
3.741768E+03	1.009913E-03	5.142010E-08
3.751746E+03	1.012769E-03	5.156547E-08
3.761724E+03	1.012295E-03	5.154137E-08
3.771702E+03	1.007563E-03	5.130041E-08
3.781680E+03	9.979095E-04	5.080891E-08
3.791658E+03	9.830774E-04	5.005373E-08
3.801636E+03	9.632748E-04	4.904547E-08
3.811614E+03	9.392258E-04	4.782101E-08
3.821592E+03	9.120440E-04	4.643704E-08
3.831571E+03	8.831580E-04	4.496630E-08
3.841549E+03	8.541494E-04	4.348931E-08
3.851527E+03	8.265939E-04	4.208632E-08
3.861505E+03	8.019539E-04	4.083176E-08
3.871483E+03	7.815049E-04	3.979059E-08
3.881461E+03	7.662088E-04	3.901179E-08
3.891439E+03	7.567583E-04	3.853061E-08
3.901417E+03	7.535958E-04	3.836959E-08
3.911395E+03	7.568510E-04	3.853533E-08
3.921373E+03	7.663569E-04	3.901933E-08
3.931351E+03	7.816734E-04	3.979917E-08
3.941329E+03	8.019578E-04	4.083196E-08
3.951307E+03	8.260710E-04	4.205969E-08
3.961285E+03	8.526683E-04	4.341390E-08
3.971263E+03	8.802506E-04	4.481826E-08
3.981241E+03	9.073557E-04	4.619833E-08
3.991219E+03	9.325677E-04	4.748200E-08
3.992686E+03	9.486620E-04	4.830145E-08
3.997635E+03	9.407963E-04	4.790097E-08
4.002583E+03	9.394107E-04	4.783042E-08
4.007532E+03	9.380255E-04	4.775989E-08
4.012482E+03	9.351577E-04	4.761387E-08
4.017431E+03	9.317340E-04	4.743955E-08
4.022380E+03	9.271046E-04	4.720385E-08
4.027329E+03	9.299835E-04	4.735043E-08
4.032278E+03	9.246393E-04	4.707833E-08
4.037227E+03	9.162977E-04	4.665361E-08
4.042176E+03	9.175454E-04	4.671714E-08
4.047125E+03	9.142291E-04	4.654829E-08
4.052074E+03	9.160171E-04	4.663932E-08
4.057023E+03	9.239135E-04	4.704137E-08
4.061972E+03	9.329200E-04	4.749994E-08
4.066921E+03	9.411970E-04	4.792136E-08
4.071870E+03	9.435328E-04	4.804029E-08
4.076819E+03	9.436412E-04	4.804581E-08
4.081768E+03	9.286036E-04	4.728017E-08
4.086717E+03	9.096093E-04	4.631307E-08
4.091666E+03	8.879123E-04	4.520835E-08
4.096615E+03	8.560426E-04	4.358570E-08
4.101565E+03	8.363251E-04	4.258177E-08
4.106514E+03	8.159763E-04	4.154571E-08
4.111462E+03	8.180430E-04	4.165094E-08
4.116411E+03	8.192641E-04	4.171311E-08
4.121360E+03	8.207563E-04	4.178908E-08
4.126309E+03	8.256579E-04	4.203865E-08
4.131258E+03	8.374904E-04	4.264111E-08
4.136207E+03	8.372571E-04	4.262923E-08
4.141156E+03	8.297842E-04	4.224874E-08
4.146106E+03	8.268568E-04	4.209969E-08
4.151055E+03	8.226608E-04	4.188605E-08
4.156004E+03	8.127762E-04	4.138277E-08
4.160953E+03	8.004161E-04	4.075345E-08
4.165902E+03	7.896554E-04	4.020557E-08
4.170850E+03	7.810735E-04	3.976862E-08
4.175799E+03	7.739997E-04	3.940846E-08
4.180748E+03	7.671935E-04	3.906191E-08
4.185697E+03	7.585176E-04	3.862018E-08
4.190647E+03	7.426480E-04	3.781217E-08
4.195596E+03	7.387361E-04	3.761300E-08
4.200545E+03	7.411008E-04	3.773339E-08
4.205494E+03	7.417569E-04	3.776680E-08
4.210443E+03	7.405629E-04	3.770601E-08
4.215392E+03	7.392005E-04	3.763664E-08
4.220341E+03	7.389506E-04	3.762392E-08
4.225290E+03	7.402815E-04	3.769168E-08
4.230238E+03	7.301438E-04	3.717552E-08
4.235188E+03	7.161277E-04	3.646188E-08
4.240137E+03	7.101453E-04	3.615729E-08
4.245086E+03	7.036923E-04	3.582873E-08
4.250035E+03	7.089321E-04	3.609551E-08
4.254984E+03	7.170780E-04	3.651027E-08
4.259933E+03	7.174523E-04	3.652933E-08
4.264882E+03	7.183518E-04	3.657512E-08
4.269831E+03	7.181742E-04	3.656608E-08
4.274780E+03	7.179591E-04	3.655513E-08
4.279730E+03	7.034628E-04	3.581705E-08
4.284679E+03	7.024005E-04	3.576296E-08
4.289627E+03	7.071825E-04	3.600644E-08
4.294576E+03	7.061398E-04	3.595334E-08
4.299525E+03	7.072461E-04	3.600967E-08
4.304474E+03	7.005234E-04	3.566738E-08
4.309423E+03	6.983801E-04	3.555826E-08
4.314372E+03	7.024540E-04	3.576568E-08
4.319321E+03	7.074038E-04	3.601770E-08
4.324271E+03	7.087005E-04	3.608372E-08
4.329220E+03	7.125829E-04	3.628140E-08
4.334169E+03	7.079682E-04	3.604643E-08
4.339117E+03	7.055142E-04	3.592149E-08
4.344066E+03	7.007642E-04	3.567964E-08
4.349015E+03	6.949676E-04	3.538450E-08
4.353964E+03	6.877473E-04	3.501688E-08
4.358913E+03	6.859079E-04	3.492323E-08
4.363863E+03	6.848116E-04	3.486741E-08
4.368812E+03	6.813980E-04	3.469361E-08
4.373761E+03	6.777569E-04	3.450822E-08
4.378710E+03	6.749244E-04	3.436400E-08
4.383659E+03	6.717136E-04	3.420052E-08
4.388608E+03	6.707355E-04	3.415072E-08
4.393557E+03	6.690875E-04	3.406681E-08
4.398505E+03	6.649678E-04	3.385705E-08
4.403454E+03	6.592424E-04	3.356555E-08
4.408404E+03	6.544013E-04	3.331906E-08
4.413353E+03	6.457732E-04	3.287975E-08
4.418302E+03	6.366879E-04	3.241717E-08
4.423251E+03	6.300721E-04	3.208033E-08
4.428200E+03	6.241331E-04	3.177794E-08
4.433149E+03	6.134205E-04	3.123251E-08
4.438098E+03	6.102812E-04	3.107267E-08
4.443047E+03	6.138891E-04	3.125637E-08
4.447996E+03	6.158254E-04	3.135495E-08
4.452946E+03	6.126751E-04	3.119456E-08
4.457894E+03	6.052858E-04	3.081833E-08
4.462843E+03	6.040805E-04	3.075696E-08
4.467792E+03	6.041807E-04	3.076206E-08
4.472741E+03	5.989707E-04	3.049679E-08
4.477690E+03	5.935785E-04	3.022224E-08
4.482639E+03	5.945855E-04	3.027352E-08
4.487588E+03	5.924672E-04	3.016566E-08
4.492537E+03	5.854873E-04	2.981028E-08
4.497487E+03	5.820296E-04	2.963423E-08
4.502436E+03	5.845141E-04	2.976073E-08
4.507385E+03	5.895221E-04	3.001571E-08
4.512334E+03	6.008777E-04	3.059388E-08
4.517282E+03	6.117078E-04	3.114530E-08
4.522231E+03	6.254280E-04	3.184387E-08
4.527180E+03	6.465299E-04	3.291828E-08
4.532129E+03	6.590032E-04	3.355336E-08
4.537078E+03	6.724039E-04	3.423567E-08
4.542028E+03	6.805684E-04	3.465136E-08
4.546977E+03	6.811936E-04	3.468319E-08
4.551926E+03	6.884523E-04	3.505278E-08
4.556875E+03	7.022833E-04	3.575699E-08
4.561824E+03	7.090285E-04	3.610042E-08
4.566772E+03	7.155300E-04	3.643145E-08
4.571721E+03	7.241373E-04	3.686969E-08
4.576670E+03	7.390101E-04	3.762694E-08
4.581619E+03	7.510259E-04	3.823873E-08
4.586569E+03	7.614582E-04	3.876990E-08
4.591518E+03	7.736101E-04	3.938861E-08
4.596467E+03	7.811109E-04	3.977052E-08
4.601416E+03	7.928363E-04	4.036752E-08
4.606365E+03	8.014708E-04	4.080715E-08
4.611314E+03	8.009410E-04	4.078017E-08
4.616263E+03	8.026510E-04	4.086724E-08
4.621212E+03	8.101230E-04	4.124768E-08
4.626160E+03	8.153185E-04	4.151221E-08
4.631110E+03	8.200221E-04	4.175169E-08
4.636059E+03	8.261112E-04	4.206172E-08
4.641008E+03	8.313362E-04	4.232776E-08
4.645957E+03	8.320470E-04	4.236394E-08
4.650906E+03	8.297599E-04	4.224750E-08
4.655855E+03	8.269465E-04	4.210425E-08
4.660804E+03	8.241317E-04	4.196094E-08
4.665753E+03	8.247194E-04	4.199086E-08
4.670702E+03	8.238447E-04	4.194632E-08
4.675652E+03	8.247110E-04	4.199043E-08
4.680601E+03	8.217321E-04	4.183876E-08
4.685549E+03	8.154515E-04	4.151898E-08
4.690498E+03	8.127571E-04	4.138179E-08
4.695447E+03	8.084624E-04	4.116312E-08
4.700396E+03	8.030267E-04	4.088637E-08
4.705345E+03	7.985183E-04	4.065682E-08
4.710294E+03	7.937776E-04	4.041545E-08
4.715243E+03	7.929361E-04	4.037260E-08
4.720193E+03	7.981916E-04	4.064018E-08
4.725142E+03	8.033449E-04	4.090257E-08
4.730091E+03	7.993895E-04	4.070117E-08
4.735040E+03	7.934755E-04	4.040006E-08
4.739989E+03	7.931921E-04	4.038563E-08
4.744937E+03	7.901637E-04	4.023144E-08
4.749886E+03	7.898134E-04	4.021361E-08
4.754835E+03	7.873889E-04	4.009016E-08
4.759784E+03	7.831094E-04	3.987227E-08
4.764734E+03	7.774250E-04	3.958285E-08
4.769683E+03	7.710268E-04	3.925708E-08
4.774632E+03	7.661640E-04	3.900949E-08
4.779581E+03	7.555762E-04	3.847041E-08
4.784530E+03	7.453680E-04	3.795065E-08
4.789479E+03	7.376567E-04	3.755803E-08
4.794427E+03	7.298645E-04	3.716129E-08
4.799376E+03	7.246106E-04	3.689378E-08
4.804325E+03	7.152702E-04	3.641821E-08
4.809275E+03	7.035838E-04	3.582320E-08
4.814224E+03	6.975002E-04	3.551345E-08
4.819173E+03	6.910473E-04	3.518489E-08
4.824122E+03	6.806567E-04	3.465586E-08
4.829071E+03	6.747362E-04	3.435441E-08
4.834020E+03	6.713116E-04	3.418005E-08
4.838969E+03	6.698252E-04	3.410437E-08
4.843918E+03	6.664559E-04	3.393281E-08
4.848866E+03	6.579475E-04	3.349961E-08
4.853816E+03	6.522553E-04	3.320979E-08
4.858765E+03	6.515747E-04	3.317513E-08
4.863714E+03	6.509713E-04	3.314441E-08
4.868663E+03	6.504743E-04	3.311911E-08
4.873612E+03	6.489715E-04	3.304259E-08
4.878561E+03	6.496736E-04	3.307834E-08
4.883510E+03	6.484605E-04	3.301658E-08
4.888459E+03	6.480407E-04	3.299520E-08
4.893409E+03	6.435739E-04	3.276777E-08
4.898358E+03	6.366639E-04	3.241595E-08
4.903307E+03	6.388567E-04	3.252759E-08
4.908255E+03	6.351590E-04	3.233933E-08
4.913204E+03	6.407264E-04	3.262279E-08
4.918153E+03	6.475286E-04	3.296913E-08
4.923102E+03	6.474778E-04	3.296654E-08
4.928051E+03	6.469129E-04	3.293778E-08
4.933000E+03	6.474445E-04	3.296484E-08
4.937950E+03	6.494134E-04	3.306509E-08
4.942899E+03	6.483635E-04	3.301164E-08
4.947848E+03	6.463516E-04	3.290920E-08
4.952797E+03	6.469426E-04	3.293929E-08
4.957746E+03	6.494974E-04	3.306937E-08
4.962695E+03	6.504399E-04	3.311735E-08
4.967644E+03	6.503814E-04	3.311438E-08
4.972592E+03	6.492237E-04	3.305543E-08
4.977541E+03	6.475400E-04	3.296971E-08
4.982491E+03	6.468287E-04	3.293349E-08
4.987440E+03	6.468571E-04	3.293494E-08
4.992389E+03	6.506452E-04	3.312781E-08
4.997338E+03	6.561502E-04	3.340810E-08
5.002287E+03	6.621654E-04	3.371436E-08
5.007236E+03	6.593619E-04	3.357162E-08
5.012185E+03	6.534654E-04	3.327140E-08
5.017134E+03	6.442685E-04	3.280314E-08
5.022083E+03	6.393008E-04	3.255021E-08
5.027032E+03	6.426263E-04	3.271952E-08
5.031981E+03	6.465787E-04	3.292076E-08
5.036930E+03	6.497326E-04	3.308134E-08
5.041879E+03	6.496060E-04	3.307490E-08
5.046828E+03	6.443392E-04	3.280674E-08
5.051777E+03	6.412393E-04	3.264890E-08
5.056726E+03	6.379125E-04	3.247952E-08
5.061675E+03	6.305051E-04	3.210237E-08
5.066624E+03	6.274470E-04	3.194666E-08
5.071574E+03	6.199731E-04	3.156613E-08
5.076522E+03	6.167043E-04	3.139970E-08
5.081471E+03	6.105446E-04	3.108607E-08
5.086420E+03	6.070650E-04	3.090891E-08
5.091369E+03	6.060526E-04	3.085736E-08
5.096318E+03	6.001387E-04	3.055625E-08
5.101267E+03	5.961330E-04	3.035230E-08
5.106216E+03	5.890649E-04	2.999243E-08
5.111165E+03	5.888008E-04	2.997898E-08
5.116115E+03	5.923735E-04	3.016088E-08
5.121064E+03	5.895479E-04	3.001702E-08
5.126013E+03	5.906482E-04	3.007304E-08
5.130962E+03	5.891561E-04	2.999707E-08
5.135910E+03	5.885569E-04	2.996656E-08
5.140859E+03	5.912595E-04	3.010416E-08
5.145808E+03	5.947992E-04	3.028439E-08
5.150757E+03	5.938467E-04	3.023589E-08
5.155706E+03	5.923131E-04	3.015781E-08
5.160656E+03	5.907685E-04	3.007916E-08
5.165605E+03	5.878645E-04	2.993131E-08
5.170554E+03	5.860121E-04	2.983699E-08
5.175503E+03	5.858918E-04	2.983087E-08
5.180452E+03	5.880667E-04	2.994160E-08
5.185401E+03	5.891586E-04	2.999719E-08
5.190350E+03	5.925970E-04	3.017227E-08
5.195298E+03	5.967374E-04	3.038307E-08
5.200247E+03	5.946858E-04	3.027862E-08
5.205197E+03	5.894360E-04	3.001132E-08
5.210146E+03	5.854856E-04	2.981019E-08
5.215095E+03	5.880977E-04	2.994318E-08
5.220044E+03	5.997862E-04	3.053831E-08
5.224993E+03	6.111555E-04	3.111717E-08
5.229942E+03	6.182527E-04	3.147853E-08
5.234891E+03	6.252353E-04	3.183405E-08
5.239840E+03	6.314703E-04	3.215151E-08
5.244789E+03	6.346229E-04	3.231203E-08
5.249739E+03	6.358086E-04	3.237240E-08
5.254687E+03	6.389044E-04	3.253002E-08
5.259636E+03	6.464956E-04	3.291653E-08
5.264585E+03	6.552494E-04	3.336223E-08
5.269534E+03	6.566491E-04	3.343349E-08
5.274483E+03	6.638944E-04	3.380239E-08
5.279432E+03	6.677147E-04	3.399691E-08
5.284381E+03	6.703077E-04	3.412893E-08
5.289330E+03	6.759261E-04	3.441499E-08
5.294280E+03	6.789883E-04	3.457090E-08
5.299229E+03	6.799387E-04	3.461929E-08
5.304177E+03	6.803631E-04	3.464090E-08
5.309126E+03	6.815021E-04	3.469889E-08
5.314075E+03	6.833066E-04	3.479077E-08
5.319024E+03	6.811188E-04	3.467938E-08
5.323973E+03	6.830228E-04	3.477632E-08
5.328922E+03	6.818364E-04	3.471591E-08
5.333871E+03	6.814145E-04	3.469443E-08
5.338821E+03	6.853772E-04	3.489619E-08
5.343770E+03	6.810656E-04	3.467667E-08
5.348719E+03	6.756468E-04	3.440077E-08
5.353668E+03	6.729614E-04	3.426404E-08
5.358617E+03	6.704233E-04	3.413481E-08
5.363565E+03	6.658318E-04	3.390104E-08
5.368514E+03	6.608886E-04	3.364935E-08
5.373463E+03	6.595291E-04	3.358013E-08
5.378412E+03	6.589758E-04	3.355196E-08
5.383362E+03	6.542941E-04	3.331359E-08
5.388311E+03	6.489213E-04	3.304003E-08
5.393260E+03	6.408617E-04	3.262967E-08
5.398209E+03	6.350720E-04	3.233489E-08
5.403158E+03	6.334205E-04	3.225080E-08
5.408107E+03	6.296011E-04	3.205634E-08
5.413056E+03	6.276066E-04	3.195479E-08
5.418005E+03	6.300555E-04	3.207947E-08
5.422954E+03	6.313959E-04	3.214772E-08
5.427903E+03	6.342657E-04	3.229384E-08
5.432852E+03	6.375264E-04	3.245986E-08
5.437801E+03	6.413382E-04	3.265393E-08
5.442750E+03	6.425608E-04	3.271619E-08
5.447699E+03	6.435534E-04	3.276672E-08
5.452648E+03	6.497399E-04	3.308171E-08
5.457597E+03	6.599731E-04	3.360274E-08
5.462546E+03	6.667767E-04	3.394915E-08
5.467496E+03	6.708391E-04	3.415598E-08
5.472445E+03	6.759148E-04	3.441442E-08
5.477394E+03	6.788380E-04	3.456325E-08
5.482342E+03	6.804692E-04	3.464630E-08
5.487291E+03	6.873541E-04	3.499685E-08
5.492240E+03	6.908624E-04	3.517548E-08
5.497189E+03	6.908208E-04	3.517336E-08
5.502138E+03	6.896347E-04	3.511297E-08
5.507087E+03	6.878051E-04	3.501981E-08
5.512037E+03	6.877708E-04	3.501806E-08
5.516986E+03	6.853962E-04	3.489716E-08
5.521935E+03	6.821360E-04	3.473117E-08
5.526884E+03	6.725239E-04	3.424176E-08
5.531832E+03	6.636400E-04	3.378944E-08
5.536781E+03	6.575756E-04	3.348067E-08
5.541730E+03	6.475662E-04	3.297104E-08
5.546679E+03	6.405482E-04	3.261371E-08
5.551628E+03	6.312729E-04	3.214146E-08
5.556578E+03	6.242562E-04	3.178420E-08
5.561527E+03	6.170947E-04	3.141957E-08
5.566476E+03	6.126774E-04	3.119466E-08
5.571425E+03	6.133927E-04	3.123108E-08
5.576374E+03	6.129798E-04	3.121006E-08
5.581323E+03	6.131203E-04	3.121721E-08
5.586272E+03	6.123435E-04	3.117766E-08
5.591220E+03	6.109609E-04	3.110726E-08
5.596169E+03	6.126622E-04	3.119389E-08
5.601119E+03	6.127504E-04	3.119838E-08
5.606068E+03	6.129390E-04	3.120798E-08
5.611017E+03	6.128951E-04	3.120575E-08
5.615966E+03	6.169378E-04	3.141158E-08
5.620915E+03	6.212546E-04	3.163137E-08
5.625864E+03	6.264614E-04	3.189648E-08
5.630813E+03	6.311753E-04	3.213649E-08
5.635762E+03	6.341537E-04	3.228813E-08
5.640711E+03	6.312931E-04	3.214249E-08
5.645661E+03	6.301792E-04	3.208577E-08
5.650609E+03	6.310554E-04	3.213038E-08
5.655558E+03	6.309409E-04	3.212455E-08
5.660507E+03	6.269020E-04	3.191891E-08
5.665456E+03	6.229923E-04	3.171985E-08
5.670405E+03	6.164902E-04	3.138879E-08
5.675354E+03	6.124236E-04	3.118174E-08
5.680303E+03	6.081015E-04	3.096167E-08
5.685252E+03	6.042327E-04	3.076470E-08
5.690202E+03	5.989945E-04	3.049799E-08
5.695151E+03	5.965795E-04	3.037503E-08
5.700100E+03	5.957538E-04	3.033299E-08
5.705049E+03	5.948766E-04	3.028833E-08
5.709997E+03	5.947183E-04	3.028027E-08
5.714946E+03	5.915989E-04	3.012144E-08
5.719895E+03	5.899078E-04	3.003534E-08
5.724844E+03	5.867750E-04	2.987583E-08
5.729793E+03	5.874958E-04	2.991253E-08
5.734743E+03	5.883384E-04	2.995543E-08
5.739692E+03	5.889881E-04	2.998851E-08
5.744641E+03	5.894245E-04	3.001073E-08
5.749590E+03	5.895561E-04	3.001743E-08
5.754539E+03	5.885904E-04	2.996826E-08
5.759487E+03	5.860391E-04	2.983836E-08
5.764436E+03	5.851527E-04	2.979323E-08
5.769385E+03	5.837779E-04	2.972323E-08
5.774334E+03	5.840794E-04	2.973858E-08
5.779284E+03	5.837604E-04	2.972234E-08
5.784233E+03	5.801661E-04	2.953934E-08
5.789182E+03	5.746168E-04	2.925679E-08
5.794131E+03	5.713946E-04	2.909273E-08
5.799080E+03	5.693615E-04	2.898922E-08
5.804029E+03	5.666655E-04	2.885195E-08
5.808978E+03	5.627972E-04	2.865499E-08
5.813927E+03	5.601896E-04	2.852223E-08
5.818875E+03	5.587418E-04	2.844851E-08
5.823825E+03	5.585156E-04	2.843699E-08
5.828774E+03	5.594812E-04	2.848616E-08
5.833723E+03	5.575625E-04	2.838847E-08
5.838672E+03	5.560708E-04	2.831252E-08
5.843621E+03	5.596562E-04	2.849507E-08
5.848570E+03	5.608971E-04	2.855825E-08
