#wls	flux	fluxerr
1.596488E+03	3.500444E-05	1.318184E-06
1.636400E+03	3.611249E-05	1.356781E-06
1.676312E+03	3.725691E-05	1.396472E-06
1.716224E+03	3.843677E-05	1.437205E-06
1.756136E+03	3.964947E-05	1.478864E-06
1.796049E+03	4.088671E-05	1.521122E-06
1.835961E+03	4.214143E-05	1.563700E-06
1.875873E+03	4.339794E-05	1.606003E-06
1.915785E+03	4.463776E-05	1.647338E-06
1.955697E+03	4.584925E-05	1.687272E-06
1.995610E+03	4.702825E-05	1.725651E-06
2.035522E+03	4.820206E-05	1.763473E-06
2.075434E+03	4.946037E-05	1.804003E-06
2.115346E+03	5.092859E-05	1.851760E-06
2.155258E+03	5.274894E-05	1.911815E-06
2.195171E+03	5.499440E-05	1.986667E-06
2.235083E+03	5.765104E-05	2.075643E-06
2.274995E+03	6.062188E-05	2.175091E-06
2.314907E+03	6.380933E-05	2.281382E-06
2.354819E+03	6.714513E-05	2.391973E-06
2.394732E+03	7.057287E-05	2.504777E-06
2.434644E+03	7.406921E-05	2.618903E-06
2.474556E+03	7.762873E-05	2.734101E-06
2.514468E+03	8.123101E-05	2.849599E-06
2.554380E+03	8.487322E-05	2.965247E-06
2.594293E+03	8.854866E-05	3.080763E-06
2.634205E+03	9.221810E-05	3.194740E-06
2.674117E+03	9.587451E-05	3.306906E-06
2.714029E+03	9.947580E-05	3.415790E-06
2.753941E+03	1.029700E-04	3.519605E-06
2.793854E+03	1.063153E-04	3.616953E-06
2.833766E+03	1.094383E-04	3.705389E-06
2.873678E+03	1.122612E-04	3.782367E-06
2.913590E+03	1.147083E-04	3.845482E-06
2.953502E+03	1.166803E-04	3.891582E-06
2.993414E+03	1.180630E-04	3.917111E-06
3.003393E+03	1.183043E-04	3.919906E-06
3.013371E+03	1.185008E-04	3.921177E-06
3.023349E+03	1.186570E-04	3.921076E-06
3.033327E+03	1.187588E-04	3.919147E-06
3.043305E+03	1.188125E-04	3.915599E-06
3.053283E+03	1.188239E-04	3.910633E-06
3.063261E+03	1.187785E-04	3.903780E-06
3.073239E+03	1.186864E-04	3.895377E-06
3.083217E+03	1.185398E-04	3.885173E-06
3.093195E+03	1.183368E-04	3.873116E-06
3.103173E+03	1.180759E-04	3.859164E-06
3.113151E+03	1.177615E-04	3.843467E-06
3.123129E+03	1.173865E-04	3.825807E-06
3.133107E+03	1.169501E-04	3.806158E-06
3.143085E+03	1.164570E-04	3.784689E-06
3.153063E+03	1.159013E-04	3.761213E-06
3.163041E+03	1.152827E-04	3.735732E-06
3.173019E+03	1.146071E-04	3.708440E-06
3.182997E+03	1.138693E-04	3.679188E-06
3.192975E+03	1.130758E-04	3.648184E-06
3.202954E+03	1.122224E-04	3.615308E-06
3.212932E+03	1.113163E-04	3.580796E-06
3.222910E+03	1.103544E-04	3.544563E-06
3.232888E+03	1.093446E-04	3.506865E-06
3.242866E+03	1.082900E-04	3.467810E-06
3.252844E+03	1.071898E-04	3.427380E-06
3.262822E+03	1.060528E-04	3.385864E-06
3.272800E+03	1.048840E-04	3.343430E-06
3.282778E+03	1.036890E-04	3.300254E-06
3.292756E+03	1.024694E-04	3.256401E-06
3.302734E+03	1.012366E-04	3.212228E-06
3.312712E+03	9.999765E-05	3.167965E-06
3.322690E+03	9.876042E-05	3.123863E-06
3.332668E+03	9.752942E-05	3.080065E-06
3.342646E+03	9.632129E-05	3.037094E-06
3.352624E+03	9.514142E-05	2.995118E-06
3.362602E+03	9.399586E-05	2.954323E-06
3.372580E+03	9.290191E-05	2.915248E-06
3.382558E+03	9.186597E-05	2.878085E-06
3.392536E+03	9.089854E-05	2.843156E-06
3.402514E+03	9.000979E-05	2.810767E-06
3.412493E+03	8.921024E-05	2.781236E-06
3.422471E+03	8.850992E-05	2.754861E-06
3.432449E+03	8.792195E-05	2.732034E-06
3.442427E+03	8.745274E-05	2.712939E-06
3.452405E+03	8.711147E-05	2.697840E-06
3.462383E+03	8.690665E-05	2.686983E-06
3.472361E+03	8.684956E-05	2.680692E-06
3.482339E+03	8.694406E-05	2.679066E-06
3.492317E+03	8.719964E-05	2.682371E-06
3.502295E+03	8.761815E-05	2.690639E-06
3.512273E+03	8.820360E-05	2.703968E-06
3.522251E+03	8.896107E-05	2.722486E-06
3.532229E+03	8.988867E-05	2.746109E-06
3.542207E+03	9.098930E-05	2.774896E-06
3.552185E+03	9.226446E-05	2.808866E-06
3.562163E+03	9.371680E-05	2.848072E-06
3.572141E+03	9.535574E-05	2.892769E-06
3.582119E+03	9.718321E-05	2.942985E-06
3.592097E+03	9.920507E-05	2.998868E-06
3.602075E+03	1.014231E-04	3.060438E-06
3.612053E+03	1.038326E-04	3.127520E-06
3.622032E+03	1.064325E-04	3.200052E-06
3.632010E+03	1.092013E-04	3.277355E-06
3.641988E+03	1.121150E-04	3.358682E-06
3.651966E+03	1.151464E-04	3.443196E-06
3.661944E+03	1.182456E-04	3.529383E-06
3.671922E+03	1.213626E-04	3.615747E-06
3.681900E+03	1.244395E-04	3.700556E-06
3.691878E+03	1.273975E-04	3.781480E-06
3.701856E+03	1.301750E-04	3.856713E-06
3.711834E+03	1.326953E-04	3.924015E-06
3.721812E+03	1.348848E-04	3.981254E-06
3.731790E+03	1.366874E-04	4.026831E-06
3.741768E+03	1.380435E-04	4.059061E-06
3.751746E+03	1.389188E-04	4.077013E-06
3.761724E+03	1.392938E-04	4.080191E-06
3.771702E+03	1.391691E-04	4.068699E-06
3.781680E+03	1.385675E-04	4.043291E-06
3.791658E+03	1.375346E-04	4.005370E-06
3.801636E+03	1.361336E-04	3.956850E-06
3.811614E+03	1.344570E-04	3.900478E-06
3.821592E+03	1.325987E-04	3.839018E-06
3.831571E+03	1.306736E-04	3.775823E-06
3.841549E+03	1.287988E-04	3.714283E-06
3.851527E+03	1.270925E-04	3.657792E-06
3.861505E+03	1.256667E-04	3.609539E-06
3.871483E+03	1.246358E-04	3.572754E-06
3.881461E+03	1.240931E-04	3.550042E-06
3.891439E+03	1.241300E-04	3.543924E-06
3.901417E+03	1.248226E-04	3.556469E-06
3.911395E+03	1.262316E-04	3.589292E-06
3.921373E+03	1.284101E-04	3.643770E-06
3.931351E+03	1.313936E-04	3.720778E-06
3.941329E+03	1.351994E-04	3.820661E-06
3.951307E+03	1.398324E-04	3.943414E-06
3.961285E+03	1.452700E-04	4.088252E-06
3.971263E+03	1.514706E-04	4.253867E-06
3.981241E+03	1.583583E-04	4.437994E-06
3.991219E+03	1.658335E-04	4.637723E-06
4.001197E+03	1.737580E-04	4.849095E-06
4.011175E+03	1.819667E-04	5.067431E-06
4.021153E+03	1.902689E-04	5.287376E-06
4.031132E+03	1.984581E-04	5.503189E-06
4.041110E+03	2.063093E-04	5.708659E-06
4.051088E+03	2.135997E-04	5.897695E-06
4.061066E+03	2.201167E-04	6.064535E-06
4.071044E+03	2.256648E-04	6.203946E-06
4.081022E+03	2.300941E-04	6.311987E-06
4.091000E+03	2.332843E-04	6.385562E-06
4.100978E+03	2.351635E-04	6.422931E-06
4.110956E+03	2.357217E-04	6.424055E-06
4.120934E+03	2.349936E-04	6.390121E-06
4.130912E+03	2.330733E-04	6.323908E-06
4.140890E+03	2.300919E-04	6.229185E-06
4.150868E+03	2.262269E-04	6.110938E-06
4.160846E+03	2.216743E-04	5.974608E-06
4.170824E+03	2.166486E-04	5.826092E-06
4.180802E+03	2.113689E-04	5.671356E-06
4.190780E+03	2.060474E-04	5.516128E-06
4.200758E+03	2.008800E-04	5.365649E-06
4.210736E+03	1.960406E-04	5.224526E-06
4.220714E+03	1.916753E-04	5.096587E-06
4.230692E+03	1.879111E-04	4.985114E-06
4.240671E+03	1.848429E-04	4.892513E-06
4.250649E+03	1.825441E-04	4.820598E-06
4.260627E+03	1.810657E-04	4.770571E-06
4.270605E+03	1.804270E-04	4.742790E-06
4.280583E+03	1.806260E-04	4.737052E-06
4.290561E+03	1.816352E-04	4.752486E-06
4.300539E+03	1.834070E-04	4.787700E-06
4.310517E+03	1.858610E-04	4.840463E-06
4.320495E+03	1.888765E-04	4.907519E-06
4.330473E+03	1.922941E-04	4.984627E-06
4.340451E+03	1.959049E-04	5.066317E-06
4.350429E+03	1.994645E-04	5.146246E-06
4.360407E+03	2.026962E-04	5.217305E-06
4.370385E+03	2.053265E-04	5.272529E-06
4.380363E+03	2.071084E-04	5.305701E-06
4.390341E+03	2.079209E-04	5.313888E-06
4.400319E+03	2.077805E-04	5.297683E-06
4.410297E+03	2.067752E-04	5.259503E-06
4.420275E+03	2.050449E-04	5.203051E-06
4.430253E+03	2.027622E-04	5.132837E-06
4.440231E+03	2.001183E-04	5.053784E-06
4.450210E+03	1.973201E-04	4.971171E-06
4.460188E+03	1.945740E-04	4.890218E-06
4.470166E+03	1.920818E-04	4.815971E-06
4.480144E+03	1.900388E-04	4.753273E-06
4.490122E+03	1.886389E-04	4.706880E-06
4.500100E+03	1.880528E-04	4.680918E-06
4.510078E+03	1.884445E-04	4.679322E-06
4.520056E+03	1.899597E-04	4.705517E-06
4.530034E+03	1.927341E-04	4.762658E-06
4.540012E+03	1.968798E-04	4.853279E-06
4.549990E+03	2.024997E-04	4.979667E-06
4.559968E+03	2.096605E-04	5.143194E-06
4.569946E+03	2.183985E-04	5.344469E-06
4.579924E+03	2.287070E-04	5.583052E-06
4.589902E+03	2.405178E-04	5.857000E-06
4.599880E+03	2.536947E-04	6.162737E-06
4.609858E+03	2.680186E-04	6.494713E-06
4.619836E+03	2.831812E-04	6.845272E-06
4.629814E+03	2.987801E-04	7.204568E-06
4.639792E+03	3.143381E-04	7.561044E-06
4.649771E+03	3.293096E-04	7.901624E-06
4.659749E+03	3.431466E-04	8.213293E-06
4.669727E+03	3.553027E-04	8.483218E-06
4.679705E+03	3.653108E-04	8.700571E-06
4.689683E+03	3.727991E-04	8.856903E-06
4.699661E+03	3.775509E-04	8.947531E-06
4.709639E+03	3.795279E-04	8.972032E-06
4.719617E+03	3.788908E-04	8.934692E-06
4.729595E+03	3.759614E-04	8.843533E-06
4.739573E+03	3.711965E-04	8.709686E-06
4.749551E+03	3.651613E-04	8.546700E-06
4.759529E+03	3.584354E-04	8.368326E-06
4.769507E+03	3.515703E-04	8.187531E-06
4.779485E+03	3.449888E-04	8.014157E-06
4.789463E+03	3.389053E-04	7.853125E-06
4.799441E+03	3.334268E-04	7.706819E-06
4.809419E+03	3.285993E-04	7.576193E-06
4.819397E+03	3.244544E-04	7.461860E-06
4.829375E+03	3.209923E-04	7.363707E-06
4.839353E+03	3.182205E-04	7.281787E-06
4.849331E+03	3.161310E-04	7.215796E-06
4.859310E+03	3.147300E-04	7.165759E-06
4.869288E+03	3.140263E-04	7.131758E-06
4.879266E+03	3.140252E-04	7.113792E-06
4.889244E+03	3.147348E-04	7.111921E-06
4.899222E+03	3.161380E-04	7.125642E-06
4.909200E+03	3.182084E-04	7.154243E-06
4.919178E+03	3.209060E-04	7.196712E-06
4.929156E+03	3.241698E-04	7.251581E-06
4.939134E+03	3.279189E-04	7.316947E-06
4.949112E+03	3.320657E-04	7.390782E-06
4.959090E+03	3.365097E-04	7.470789E-06
4.969068E+03	3.411353E-04	7.554357E-06
4.979046E+03	3.458193E-04	7.638740E-06
4.989024E+03	3.504362E-04	7.721163E-06
4.999002E+03	3.548262E-04	7.798126E-06
5.008980E+03	3.588069E-04	7.865672E-06
5.018958E+03	3.621673E-04	7.919256E-06
5.028936E+03	3.646671E-04	7.953743E-06
5.038914E+03	3.660530E-04	7.963764E-06
5.048892E+03	3.660781E-04	7.944149E-06
5.058870E+03	3.645568E-04	7.891104E-06
5.068849E+03	3.613911E-04	7.802769E-06
5.078827E+03	3.566323E-04	7.680518E-06
5.088805E+03	3.504532E-04	7.528324E-06
5.098783E+03	3.431255E-04	7.352240E-06
5.108761E+03	3.349782E-04	7.159481E-06
5.118739E+03	3.263909E-04	6.958271E-06
5.128717E+03	3.177358E-04	6.756594E-06
5.138695E+03	3.093826E-04	6.562301E-06
5.148673E+03	3.016586E-04	6.382263E-06
5.158651E+03	2.948413E-04	6.222231E-06
5.168629E+03	2.891616E-04	6.086921E-06
5.178607E+03	2.847816E-04	5.979552E-06
5.188585E+03	2.817915E-04	5.901803E-06
5.198563E+03	2.801964E-04	5.853557E-06
5.208541E+03	2.799406E-04	5.833436E-06
5.218519E+03	2.809294E-04	5.839258E-06
5.228497E+03	2.830541E-04	5.868572E-06
5.238475E+03	2.861857E-04	5.918539E-06
5.248453E+03	2.902001E-04	5.986440E-06
5.258431E+03	2.949727E-04	6.069578E-06
5.268409E+03	3.003925E-04	6.165558E-06
5.278388E+03	3.063681E-04	6.272418E-06
5.288366E+03	3.128229E-04	6.388506E-06
5.298344E+03	3.197052E-04	6.512705E-06
5.308322E+03	3.269603E-04	6.643841E-06
5.318300E+03	3.345471E-04	6.781030E-06
5.328278E+03	3.424205E-04	6.923317E-06
5.338256E+03	3.505171E-04	7.069387E-06
5.348234E+03	3.587605E-04	7.217678E-06
5.358212E+03	3.670540E-04	7.366230E-06
5.368190E+03	3.752814E-04	7.512722E-06
5.378168E+03	3.833042E-04	7.654405E-06
5.388146E+03	3.909699E-04	7.788278E-06
5.398124E+03	3.981387E-04	7.911623E-06
5.408102E+03	4.046949E-04	8.022228E-06
5.418080E+03	4.105523E-04	8.118486E-06
5.428058E+03	4.157015E-04	8.200323E-06
5.438036E+03	4.201954E-04	8.268882E-06
5.448014E+03	4.241963E-04	8.327455E-06
5.457992E+03	4.279423E-04	8.380781E-06
5.467970E+03	4.317950E-04	8.435965E-06
5.477949E+03	4.361467E-04	8.500647E-06
5.487927E+03	4.413656E-04	8.581921E-06
5.497905E+03	4.477288E-04	8.685050E-06
5.507883E+03	4.554178E-04	8.813399E-06
5.517861E+03	4.645336E-04	8.968746E-06
5.527839E+03	4.750714E-04	9.150818E-06
5.537817E+03	4.869054E-04	9.357018E-06
5.547795E+03	4.997717E-04	9.582120E-06
5.557773E+03	5.132389E-04	9.817747E-06
5.567751E+03	5.267534E-04	1.005327E-05
5.577729E+03	5.396709E-04	1.027641E-05
5.587707E+03	5.513439E-04	1.047497E-05
5.597685E+03	5.611577E-04	1.063745E-05
5.607663E+03	5.686702E-04	1.075575E-05
5.617641E+03	5.736709E-04	1.082619E-05
5.627619E+03	5.761885E-04	1.084963E-05
5.637597E+03	5.764734E-04	1.083108E-05
5.647575E+03	5.749461E-04	1.077870E-05
5.657553E+03	5.721208E-04	1.070233E-05
5.667531E+03	5.684965E-04	1.061145E-05
5.677509E+03	5.644646E-04	1.051343E-05
5.687488E+03	5.602943E-04	1.041333E-05
5.697466E+03	5.560805E-04	1.031290E-05
5.707444E+03	5.517558E-04	1.021092E-05
5.717422E+03	5.471108E-04	1.010350E-05
5.727400E+03	5.418518E-04	9.985289E-06
5.737378E+03	5.356459E-04	9.850216E-06
5.747356E+03	5.281789E-04	9.692622E-06
5.757334E+03	5.192231E-04	9.508477E-06
5.767312E+03	5.086925E-04	9.296370E-06
5.777290E+03	4.966346E-04	9.057337E-06
5.787268E+03	4.832740E-04	8.795626E-06
5.797246E+03	4.689707E-04	8.517915E-06
5.807224E+03	4.541999E-04	8.232909E-06
5.817202E+03	4.395122E-04	7.950606E-06
5.827180E+03	4.254899E-04	7.681500E-06
5.837158E+03	4.126931E-04	7.435598E-06
5.847136E+03	4.016223E-04	7.221758E-06
5.857114E+03	3.927003E-04	7.047373E-06
5.867092E+03	3.862317E-04	6.917663E-06
5.877070E+03	3.824043E-04	6.835719E-06
5.887048E+03	3.812796E-04	6.802361E-06
5.897027E+03	3.827895E-04	6.816091E-06
5.907005E+03	3.867836E-04	6.873966E-06
5.916983E+03	3.929975E-04	6.971046E-06
5.926961E+03	4.010924E-04	7.101110E-06
5.936939E+03	4.106588E-04	7.256738E-06
5.946917E+03	4.212342E-04	7.429636E-06
5.956895E+03	4.323185E-04	7.610906E-06
5.966873E+03	4.434038E-04	7.791584E-06
5.976851E+03	4.540081E-04	7.963225E-06
5.986829E+03	4.636876E-04	8.118118E-06
5.996807E+03	4.720560E-04	8.249608E-06
6.006785E+03	4.787838E-04	8.352080E-06
6.016763E+03	4.836366E-04	8.421618E-06
6.026741E+03	4.864373E-04	8.455323E-06
6.036719E+03	4.871127E-04	8.452121E-06
6.046697E+03	4.856593E-04	8.412149E-06
6.056675E+03	4.821637E-04	8.337098E-06
6.066653E+03	4.768029E-04	8.230209E-06
6.076631E+03	4.698208E-04	8.095847E-06
6.086609E+03	4.615611E-04	7.940063E-06
6.096588E+03	4.524218E-04	7.769800E-06
6.106566E+03	4.428446E-04	7.592699E-06
6.116544E+03	4.332803E-04	7.416509E-06
6.126522E+03	4.241664E-04	7.248696E-06
6.136500E+03	4.158978E-04	7.095956E-06
6.146478E+03	4.088026E-04	6.963798E-06
6.156456E+03	4.031341E-04	6.856433E-06
6.166434E+03	3.990571E-04	6.776541E-06
6.176412E+03	3.966745E-04	6.725739E-06
6.186390E+03	3.960142E-04	6.704363E-06
6.196368E+03	3.970414E-04	6.711699E-06
6.206346E+03	3.996905E-04	6.746512E-06
6.216324E+03	4.038441E-04	6.806710E-06
6.226302E+03	4.093813E-04	6.890152E-06
6.236280E+03	4.162651E-04	6.996126E-06
6.246258E+03	4.245765E-04	7.125907E-06
6.256236E+03	4.343648E-04	7.280229E-06
6.266214E+03	4.455607E-04	7.457846E-06
6.276192E+03	4.579208E-04	7.654610E-06
6.286170E+03	4.710322E-04	7.863570E-06
6.296148E+03	4.843324E-04	8.075313E-06
6.306127E+03	4.971505E-04	8.278677E-06
6.316105E+03	5.087399E-04	8.461292E-06
6.326083E+03	5.183848E-04	8.611360E-06
6.336061E+03	5.254646E-04	8.718716E-06
6.346039E+03	5.295320E-04	8.776106E-06
6.356017E+03	5.303386E-04	8.779601E-06
6.365995E+03	5.279093E-04	8.729797E-06
6.375973E+03	5.225085E-04	8.631239E-06
6.385951E+03	5.145894E-04	8.491555E-06
6.395929E+03	5.047884E-04	8.321360E-06
6.405907E+03	4.938283E-04	8.132640E-06
6.415885E+03	4.824752E-04	7.938044E-06
6.425863E+03	4.714686E-04	7.749729E-06
6.435841E+03	4.614859E-04	7.578794E-06
6.445819E+03	4.530737E-04	7.434145E-06
6.455797E+03	4.466441E-04	7.322461E-06
6.465775E+03	4.424468E-04	7.247729E-06
6.475753E+03	4.405916E-04	7.211647E-06
6.485731E+03	4.410092E-04	7.212979E-06
6.495709E+03	4.434992E-04	7.248359E-06
6.505687E+03	4.477639E-04	7.312846E-06
6.515666E+03	4.534267E-04	7.400228E-06
6.525644E+03	4.601696E-04	7.505272E-06
6.535622E+03	4.677434E-04	7.623881E-06
6.545600E+03	4.759414E-04	7.752664E-06
6.555578E+03	4.845400E-04	7.887961E-06
6.565556E+03	4.933012E-04	8.025888E-06
6.575534E+03	5.020124E-04	8.162986E-06
6.585512E+03	5.104524E-04	8.295661E-06
6.595490E+03	5.183990E-04	8.420309E-06
6.605468E+03	5.256469E-04	8.533611E-06
6.615446E+03	5.320056E-04	8.632489E-06
6.625424E+03	5.372850E-04	8.713878E-06
6.635402E+03	5.413058E-04	8.774897E-06
6.645380E+03	5.439009E-04	8.812859E-06
6.655358E+03	5.449465E-04	8.825786E-06
6.665336E+03	5.443661E-04	8.812467E-06
6.675314E+03	5.421194E-04	8.772277E-06
6.685292E+03	5.382519E-04	8.705979E-06
6.695270E+03	5.328838E-04	8.615543E-06
6.705248E+03	5.261841E-04	8.503721E-06
6.715227E+03	5.183707E-04	8.374049E-06
6.725205E+03	5.096962E-04	8.230622E-06
6.735183E+03	5.004177E-04	8.077597E-06
6.745161E+03	4.907774E-04	7.918886E-06
6.755139E+03	4.810081E-04	7.758242E-06
6.765117E+03	4.713101E-04	7.598891E-06
6.775095E+03	4.618500E-04	7.443511E-06
6.785073E+03	4.527818E-04	7.294572E-06
6.795051E+03	4.442121E-04	7.153780E-06
6.805029E+03	4.362283E-04	7.022525E-06
6.815007E+03	4.288734E-04	6.901486E-06
6.824985E+03	4.221792E-04	6.791159E-06
6.834963E+03	4.161292E-04	6.691261E-06
6.844941E+03	4.106639E-04	6.600824E-06
6.854919E+03	4.057070E-04	6.518605E-06
6.864897E+03	4.011289E-04	6.442513E-06
6.874875E+03	3.968063E-04	6.370557E-06
6.884853E+03	3.925890E-04	6.300319E-06
6.894831E+03	3.883430E-04	6.229648E-06
6.904809E+03	3.839396E-04	6.156478E-06
6.914787E+03	3.793027E-04	6.079590E-06
6.924766E+03	3.743930E-04	5.998357E-06
6.934744E+03	3.692391E-04	5.913246E-06
6.944722E+03	3.639175E-04	5.825482E-06
6.954700E+03	3.585657E-04	5.737269E-06
6.964678E+03	3.533604E-04	5.651436E-06
6.974656E+03	3.485031E-04	5.571199E-06
6.984634E+03	3.441964E-04	5.499790E-06
6.994612E+03	3.406279E-04	5.440190E-06
7.004590E+03	3.379554E-04	5.394905E-06
7.014568E+03	3.362909E-04	5.365700E-06
7.024546E+03	3.356923E-04	5.353473E-06
7.034524E+03	3.361513E-04	5.358067E-06
7.044502E+03	3.376061E-04	5.378470E-06
7.054480E+03	3.399196E-04	5.412474E-06
7.064458E+03	3.429061E-04	5.457100E-06
7.074436E+03	3.463292E-04	5.508570E-06
7.084414E+03	3.499135E-04	5.562493E-06
7.094392E+03	3.533593E-04	5.614100E-06
7.104370E+03	3.563858E-04	5.658935E-06
7.114348E+03	3.587266E-04	5.692783E-06
7.124326E+03	3.601668E-04	5.712250E-06
7.134305E+03	3.605571E-04	5.714999E-06
7.144283E+03	3.598289E-04	5.699971E-06
7.154261E+03	3.580007E-04	5.667494E-06
7.164239E+03	3.551636E-04	5.619040E-06
7.174217E+03	3.514917E-04	5.557398E-06
7.184195E+03	3.472055E-04	5.486078E-06
7.194173E+03	3.425690E-04	5.409271E-06
7.204151E+03	3.378537E-04	5.331274E-06
7.214129E+03	3.333348E-04	5.256432E-06
7.224107E+03	3.292579E-04	5.188615E-06
7.234085E+03	3.258324E-04	5.131107E-06
7.244063E+03	3.232256E-04	5.086523E-06
7.254041E+03	3.215787E-04	5.057058E-06
7.264019E+03	3.209778E-04	5.044039E-06
7.273997E+03	3.214883E-04	5.048457E-06
7.283975E+03	3.231434E-04	5.070798E-06
7.293953E+03	3.259297E-04	5.110817E-06
7.303931E+03	3.298139E-04	5.167953E-06
7.313909E+03	3.347209E-04	5.240997E-06
7.323887E+03	3.405370E-04	5.328134E-06
7.333865E+03	3.470897E-04	5.426639E-06
7.343844E+03	3.541760E-04	5.533318E-06
7.353822E+03	3.615278E-04	5.643969E-06
7.363800E+03	3.688398E-04	5.753821E-06
7.373778E+03	3.758055E-04	5.858105E-06
7.383756E+03	3.821106E-04	5.951937E-06
7.393734E+03	3.874831E-04	6.031115E-06
7.403712E+03	3.917288E-04	6.092652E-06
7.413690E+03	3.947584E-04	6.135207E-06
7.423668E+03	3.965887E-04	6.159086E-06
7.433646E+03	3.973319E-04	6.166079E-06
7.443624E+03	3.971792E-04	6.159190E-06
7.453602E+03	3.963617E-04	6.142039E-06
7.463580E+03	3.951236E-04	6.118432E-06
7.473558E+03	3.936705E-04	6.091572E-06
7.483536E+03	3.921515E-04	6.063775E-06
7.493514E+03	3.906477E-04	6.036303E-06
7.503492E+03	3.891639E-04	6.009230E-06
7.513470E+03	3.876093E-04	5.981165E-06
7.523448E+03	3.858771E-04	5.950464E-06
7.533426E+03	3.838129E-04	5.914759E-06
7.543405E+03	3.812673E-04	5.871765E-06
7.553383E+03	3.780660E-04	5.818818E-06
7.563361E+03	3.740359E-04	5.753275E-06
7.573339E+03	3.690112E-04	5.672612E-06
7.583317E+03	3.628384E-04	5.574497E-06
7.593295E+03	3.553963E-04	5.457097E-06
7.603273E+03	3.465781E-04	5.318805E-06
7.613251E+03	3.363183E-04	5.158643E-06
7.623229E+03	3.246100E-04	4.976538E-06
7.633207E+03	3.115662E-04	4.774244E-06
7.643185E+03	2.974225E-04	4.555392E-06
7.653163E+03	2.825662E-04	4.325925E-06
7.663141E+03	2.674800E-04	4.093232E-06
7.673119E+03	2.527470E-04	3.866224E-06
7.683097E+03	2.389914E-04	3.654426E-06
7.693075E+03	2.268036E-04	3.466836E-06
7.703053E+03	2.166783E-04	3.310974E-06
7.713031E+03	2.090059E-04	3.192765E-06
7.723009E+03	2.040732E-04	3.116549E-06
7.732987E+03	2.020403E-04	3.084730E-06
7.742965E+03	2.029500E-04	3.097929E-06
