#wls	flux	fluxerr
1.596488E+03	3.214563E-05	1.662617E-07
1.636400E+03	3.316762E-05	1.715475E-07
1.676312E+03	3.422209E-05	1.770013E-07
1.716224E+03	3.530798E-05	1.826177E-07
1.756136E+03	3.641815E-05	1.883596E-07
1.796049E+03	3.755840E-05	1.942570E-07
1.835961E+03	3.870835E-05	2.002047E-07
1.875873E+03	3.985317E-05	2.061258E-07
1.915785E+03	4.098968E-05	2.120039E-07
1.955697E+03	4.209281E-05	2.177094E-07
1.995610E+03	4.316785E-05	2.232696E-07
2.035522E+03	4.423481E-05	2.287880E-07
2.075434E+03	4.537075E-05	2.346632E-07
2.115346E+03	4.669488E-05	2.415117E-07
2.155258E+03	4.834159E-05	2.500286E-07
2.195171E+03	5.037181E-05	2.605291E-07
2.235083E+03	5.277128E-05	2.729394E-07
2.274995E+03	5.544957E-05	2.867918E-07
2.314907E+03	5.831562E-05	3.016152E-07
2.354819E+03	6.130520E-05	3.170776E-07
2.394732E+03	6.436493E-05	3.329028E-07
2.434644E+03	6.747153E-05	3.489705E-07
2.474556E+03	7.061796E-05	3.652441E-07
2.514468E+03	7.378914E-05	3.816457E-07
2.554380E+03	7.696834E-05	3.980888E-07
2.594293E+03	8.015282E-05	4.145592E-07
2.634205E+03	8.331014E-05	4.308891E-07
2.674117E+03	8.641921E-05	4.469695E-07
2.714029E+03	8.943915E-05	4.625888E-07
2.753941E+03	9.233914E-05	4.775878E-07
2.793854E+03	9.505526E-05	4.916357E-07
2.833766E+03	9.753923E-05	5.044830E-07
2.873678E+03	9.972165E-05	5.157706E-07
2.913590E+03	1.015195E-04	5.250694E-07
2.953502E+03	1.028618E-04	5.320116E-07
2.993414E+03	1.036621E-04	5.361509E-07
3.003393E+03	1.037673E-04	5.366945E-07
3.013371E+03	1.038322E-04	5.370303E-07
3.023349E+03	1.038557E-04	5.371519E-07
3.033327E+03	1.038368E-04	5.370544E-07
3.043305E+03	1.037757E-04	5.367381E-07
3.053283E+03	1.036779E-04	5.362325E-07
3.063261E+03	1.035312E-04	5.354733E-07
3.073239E+03	1.033396E-04	5.344822E-07
3.083217E+03	1.031070E-04	5.332796E-07
3.093195E+03	1.028273E-04	5.318328E-07
3.103173E+03	1.024995E-04	5.301373E-07
3.113151E+03	1.021230E-04	5.281900E-07
3.123129E+03	1.017024E-04	5.260146E-07
3.133107E+03	1.012323E-04	5.235832E-07
3.143085E+03	1.007128E-04	5.208960E-07
3.153063E+03	1.001489E-04	5.179798E-07
3.163041E+03	9.953652E-05	5.148124E-07
3.173019E+03	9.887643E-05	5.113983E-07
3.182997E+03	9.817448E-05	5.077677E-07
3.192975E+03	9.743188E-05	5.039269E-07
3.202954E+03	9.664611E-05	4.998628E-07
3.212932E+03	9.581951E-05	4.955875E-07
3.222910E+03	9.495900E-05	4.911368E-07
3.232888E+03	9.406744E-05	4.865256E-07
3.242866E+03	9.314411E-05	4.817500E-07
3.252844E+03	9.219700E-05	4.768515E-07
3.262822E+03	9.122651E-05	4.718320E-07
3.272800E+03	9.024122E-05	4.667360E-07
3.282778E+03	8.924628E-05	4.615900E-07
3.292756E+03	8.824715E-05	4.564224E-07
3.302734E+03	8.724996E-05	4.512648E-07
3.312712E+03	8.625743E-05	4.461313E-07
3.322690E+03	8.528010E-05	4.410765E-07
3.332668E+03	8.432508E-05	4.361370E-07
3.342646E+03	8.340309E-05	4.313684E-07
3.352624E+03	8.251539E-05	4.267771E-07
3.362602E+03	8.167337E-05	4.224221E-07
3.372580E+03	8.088525E-05	4.183458E-07
3.382558E+03	8.015958E-05	4.145926E-07
3.392536E+03	7.950483E-05	4.112061E-07
3.402514E+03	7.892972E-05	4.082316E-07
3.412493E+03	7.844581E-05	4.057287E-07
3.422471E+03	7.805593E-05	4.037122E-07
3.432449E+03	7.777440E-05	4.022561E-07
3.442427E+03	7.760682E-05	4.013893E-07
3.452405E+03	7.756418E-05	4.011688E-07
3.462383E+03	7.764901E-05	4.016075E-07
3.472361E+03	7.787449E-05	4.027737E-07
3.482339E+03	7.824517E-05	4.046909E-07
3.492317E+03	7.877055E-05	4.074082E-07
3.502295E+03	7.945418E-05	4.109439E-07
3.512273E+03	8.030427E-05	4.153407E-07
3.522251E+03	8.132303E-05	4.206098E-07
3.532229E+03	8.251517E-05	4.267756E-07
3.542207E+03	8.388778E-05	4.338748E-07
3.552185E+03	8.544676E-05	4.419380E-07
3.562163E+03	8.719731E-05	4.509920E-07
3.572141E+03	8.914788E-05	4.610805E-07
3.582119E+03	9.131055E-05	4.722660E-07
3.592097E+03	9.368333E-05	4.845382E-07
3.602075E+03	9.626666E-05	4.978994E-07
3.612053E+03	9.906170E-05	5.123555E-07
3.622032E+03	1.020505E-04	5.278138E-07
3.632010E+03	1.052154E-04	5.441829E-07
3.641988E+03	1.085226E-04	5.612880E-07
3.651966E+03	1.119344E-04	5.789340E-07
3.661944E+03	1.153989E-04	5.968529E-07
3.671922E+03	1.188545E-04	6.147256E-07
3.681900E+03	1.222309E-04	6.321886E-07
3.691878E+03	1.254518E-04	6.488469E-07
3.701856E+03	1.284348E-04	6.642754E-07
3.711834E+03	1.311065E-04	6.780936E-07
3.721812E+03	1.333966E-04	6.899383E-07
3.731790E+03	1.352450E-04	6.994984E-07
3.741768E+03	1.366060E-04	7.065376E-07
3.751746E+03	1.374465E-04	7.108846E-07
3.761724E+03	1.377629E-04	7.125211E-07
3.771702E+03	1.375572E-04	7.114569E-07
3.781680E+03	1.368659E-04	7.078816E-07
3.791658E+03	1.357320E-04	7.020167E-07
3.801636E+03	1.342274E-04	6.942350E-07
3.811614E+03	1.324337E-04	6.849580E-07
3.821592E+03	1.304548E-04	6.747230E-07
3.831571E+03	1.283903E-04	6.640452E-07
3.841549E+03	1.263573E-04	6.535301E-07
3.851527E+03	1.244611E-04	6.437226E-07
3.861505E+03	1.228132E-04	6.351998E-07
3.871483E+03	1.215137E-04	6.284788E-07
3.881461E+03	1.206625E-04	6.240761E-07
3.891439E+03	1.203378E-04	6.223966E-07
3.901417E+03	1.206115E-04	6.238123E-07
3.911395E+03	1.215479E-04	6.286554E-07
3.921373E+03	1.231863E-04	6.371294E-07
3.931351E+03	1.255596E-04	6.494043E-07
3.941329E+03	1.286798E-04	6.655419E-07
3.950075E+03	7.128644E-05	3.686991E-07
3.952786E+03	7.617558E-05	3.939861E-07
3.955498E+03	8.136448E-05	4.208234E-07
3.958210E+03	8.480887E-05	4.386381E-07
3.960921E+03	8.762709E-05	4.532141E-07
3.963633E+03	9.060514E-05	4.686169E-07
3.966345E+03	9.275836E-05	4.797535E-07
3.969057E+03	9.603741E-05	4.967129E-07
3.971768E+03	1.009404E-04	5.220718E-07
3.974480E+03	1.059851E-04	5.481631E-07
3.977192E+03	1.094825E-04	5.662522E-07
3.979903E+03	1.117595E-04	5.780288E-07
3.982615E+03	1.160240E-04	6.000853E-07
3.985327E+03	1.207759E-04	6.246623E-07
3.988038E+03	1.244726E-04	6.437820E-07
3.990750E+03	1.287602E-04	6.659576E-07
3.993462E+03	1.336179E-04	6.910822E-07
3.996173E+03	1.377828E-04	7.126234E-07
3.998885E+03	1.423315E-04	7.361496E-07
4.001597E+03	1.478650E-04	7.647690E-07
4.004310E+03	1.525915E-04	7.892151E-07
4.007021E+03	1.561793E-04	8.077716E-07
4.009733E+03	1.591566E-04	8.231700E-07
4.012445E+03	1.618545E-04	8.371239E-07
4.015156E+03	1.640038E-04	8.482400E-07
4.017868E+03	1.658010E-04	8.575353E-07
4.020580E+03	1.668626E-04	8.630262E-07
4.023291E+03	1.684012E-04	8.709841E-07
4.026003E+03	1.712667E-04	8.858045E-07
4.028715E+03	1.739772E-04	8.998233E-07
4.031427E+03	1.756203E-04	9.083214E-07
4.034138E+03	1.765689E-04	9.132278E-07
4.036850E+03	1.778804E-04	9.200112E-07
4.039562E+03	1.797937E-04	9.299069E-07
4.042273E+03	1.818627E-04	9.406079E-07
4.044985E+03	1.831023E-04	9.470189E-07
4.047697E+03	1.848399E-04	9.560061E-07
4.050409E+03	1.883827E-04	9.743296E-07
4.053120E+03	1.920298E-04	9.931926E-07
4.055832E+03	1.949614E-04	1.008355E-06
4.058543E+03	1.974163E-04	1.021052E-06
4.061255E+03	1.996534E-04	1.032623E-06
4.063967E+03	2.017145E-04	1.043283E-06
4.066679E+03	2.027898E-04	1.048844E-06
4.069390E+03	2.033670E-04	1.051829E-06
4.072102E+03	2.049614E-04	1.060076E-06
4.074814E+03	2.065768E-04	1.068431E-06
4.077525E+03	2.079847E-04	1.075713E-06
4.080237E+03	2.090605E-04	1.081277E-06
4.082950E+03	2.112993E-04	1.092856E-06
4.085661E+03	2.133930E-04	1.103685E-06
4.088373E+03	2.160165E-04	1.117254E-06
4.091085E+03	2.191908E-04	1.133671E-06
4.093797E+03	2.203089E-04	1.139454E-06
4.096508E+03	2.199208E-04	1.137447E-06
4.099220E+03	2.206752E-04	1.141349E-06
4.101932E+03	2.218037E-04	1.147186E-06
4.104643E+03	2.223504E-04	1.150013E-06
4.107355E+03	2.215047E-04	1.145639E-06
4.110067E+03	2.198273E-04	1.136963E-06
4.112779E+03	2.212154E-04	1.144143E-06
4.115490E+03	2.233727E-04	1.155301E-06
4.118202E+03	2.241997E-04	1.159578E-06
4.120914E+03	2.251307E-04	1.164393E-06
4.123625E+03	2.269037E-04	1.173563E-06
4.126337E+03	2.284689E-04	1.181658E-06
4.129049E+03	2.296495E-04	1.187764E-06
4.131760E+03	2.311733E-04	1.195645E-06
4.134472E+03	2.328427E-04	1.204280E-06
4.137184E+03	2.332955E-04	1.206622E-06
4.139895E+03	2.338002E-04	1.209232E-06
4.142607E+03	2.339409E-04	1.209960E-06
4.145319E+03	2.328228E-04	1.204177E-06
4.148031E+03	2.312364E-04	1.195972E-06
4.150742E+03	2.295976E-04	1.187496E-06
4.153454E+03	2.264604E-04	1.171270E-06
4.156166E+03	2.241861E-04	1.159507E-06
4.158877E+03	2.216929E-04	1.146612E-06
4.161590E+03	2.179610E-04	1.127311E-06
4.164302E+03	2.150506E-04	1.112258E-06
4.167014E+03	2.116090E-04	1.094457E-06
4.169725E+03	2.057210E-04	1.064004E-06
4.172437E+03	1.998010E-04	1.033386E-06
4.175149E+03	1.950979E-04	1.009061E-06
4.177860E+03	1.914975E-04	9.904394E-07
4.180572E+03	1.879070E-04	9.718690E-07
4.183284E+03	1.828376E-04	9.456498E-07
4.185995E+03	1.779133E-04	9.201810E-07
4.188707E+03	1.739566E-04	8.997165E-07
4.191419E+03	1.712176E-04	8.855502E-07
4.194131E+03	1.692174E-04	8.752049E-07
4.196842E+03	1.664359E-04	8.608187E-07
4.199554E+03	1.627688E-04	8.418523E-07
4.202266E+03	1.595698E-04	8.253069E-07
4.204977E+03	1.572036E-04	8.130684E-07
4.207689E+03	1.544724E-04	7.989428E-07
4.210401E+03	1.515118E-04	7.836299E-07
4.213112E+03	1.491965E-04	7.716553E-07
4.215824E+03	1.473496E-04	7.621032E-07
4.218536E+03	1.460859E-04	7.555671E-07
4.221247E+03	1.449470E-04	7.496763E-07
4.223959E+03	1.435057E-04	7.422218E-07
4.226671E+03	1.422100E-04	7.355203E-07
4.229383E+03	1.406536E-04	7.274705E-07
4.232094E+03	1.398368E-04	7.232459E-07
4.234806E+03	1.395720E-04	7.218767E-07
4.237518E+03	1.389841E-04	7.188360E-07
4.240229E+03	1.386149E-04	7.169262E-07
4.242942E+03	1.392773E-04	7.203523E-07
4.245654E+03	1.400230E-04	7.242091E-07
4.248366E+03	1.402997E-04	7.256402E-07
4.251077E+03	1.412641E-04	7.306284E-07
4.253789E+03	1.419680E-04	7.342690E-07
4.256501E+03	1.423695E-04	7.363455E-07
4.259212E+03	1.423853E-04	7.364269E-07
4.261924E+03	1.423800E-04	7.363997E-07
4.264636E+03	1.435110E-04	7.422492E-07
4.267347E+03	1.449338E-04	7.496080E-07
4.270059E+03	1.452828E-04	7.514130E-07
4.272771E+03	1.453709E-04	7.518689E-07
4.275483E+03	1.452609E-04	7.513000E-07
4.278194E+03	1.448067E-04	7.489509E-07
4.280906E+03	1.437685E-04	7.435808E-07
4.283618E+03	1.426674E-04	7.378858E-07
4.286329E+03	1.406589E-04	7.274981E-07
4.289041E+03	1.377951E-04	7.126862E-07
4.291753E+03	1.361512E-04	7.041838E-07
4.294464E+03	1.351640E-04	6.990781E-07
4.297176E+03	1.337074E-04	6.915444E-07
4.299888E+03	1.324279E-04	6.849264E-07
4.302599E+03	1.304389E-04	6.746395E-07
4.305311E+03	1.297222E-04	6.709327E-07
4.308023E+03	1.313521E-04	6.793624E-07
4.310735E+03	1.317824E-04	6.815882E-07
4.313446E+03	1.311801E-04	6.784729E-07
4.316158E+03	1.303377E-04	6.741160E-07
4.318870E+03	1.307364E-04	6.761779E-07
4.321582E+03	1.322927E-04	6.842275E-07
4.324294E+03	1.342037E-04	6.941109E-07
4.327006E+03	1.364588E-04	7.057746E-07
4.329718E+03	1.383383E-04	7.154956E-07
4.332429E+03	1.391225E-04	7.195515E-07
4.335141E+03	1.400943E-04	7.245777E-07
4.337853E+03	1.409721E-04	7.291178E-07
4.340564E+03	1.417141E-04	7.329554E-07
4.343276E+03	1.423413E-04	7.361995E-07
4.345988E+03	1.436256E-04	7.428418E-07
4.348699E+03	1.454522E-04	7.522893E-07
4.351411E+03	1.476125E-04	7.634622E-07
4.354123E+03	1.496370E-04	7.739334E-07
4.356834E+03	1.510042E-04	7.810047E-07
4.359546E+03	1.521314E-04	7.868344E-07
4.362258E+03	1.535296E-04	7.940660E-07
4.364970E+03	1.552719E-04	8.030772E-07
4.367681E+03	1.573584E-04	8.138686E-07
4.370393E+03	1.590586E-04	8.226622E-07
4.373105E+03	1.601118E-04	8.281097E-07
4.375816E+03	1.610189E-04	8.328014E-07
4.378528E+03	1.623536E-04	8.397041E-07
4.381240E+03	1.641261E-04	8.488719E-07
4.383951E+03	1.656794E-04	8.569053E-07
4.386663E+03	1.673994E-04	8.658013E-07
4.389375E+03	1.688584E-04	8.733473E-07
4.392086E+03	1.700877E-04	8.797054E-07
4.394798E+03	1.712332E-04	8.856303E-07
4.397510E+03	1.723369E-04	8.913386E-07
4.400223E+03	1.734196E-04	8.969381E-07
4.402934E+03	1.735840E-04	8.977885E-07
4.405646E+03	1.740402E-04	9.001483E-07
4.408358E+03	1.745380E-04	9.027230E-07
4.411069E+03	1.745976E-04	9.030308E-07
4.413781E+03	1.743022E-04	9.015031E-07
4.416493E+03	1.745803E-04	9.029417E-07
4.419204E+03	1.752651E-04	9.064832E-07
4.421916E+03	1.751673E-04	9.059775E-07
4.424628E+03	1.741202E-04	9.005618E-07
4.427340E+03	1.737927E-04	8.988677E-07
4.430051E+03	1.746537E-04	9.033213E-07
4.432763E+03	1.753165E-04	9.067492E-07
4.435475E+03	1.762188E-04	9.114161E-07
4.438186E+03	1.771313E-04	9.161352E-07
4.440898E+03	1.782104E-04	9.217164E-07
4.443610E+03	1.791640E-04	9.266487E-07
4.446322E+03	1.801904E-04	9.319571E-07
4.449033E+03	1.803093E-04	9.325724E-07
4.451745E+03	1.794479E-04	9.281171E-07
4.454457E+03	1.787324E-04	9.244165E-07
4.457168E+03	1.782982E-04	9.221704E-07
4.459880E+03	1.776344E-04	9.187373E-07
4.462592E+03	1.764596E-04	9.126614E-07
4.465303E+03	1.754827E-04	9.076089E-07
4.468015E+03	1.747976E-04	9.040654E-07
4.470727E+03	1.734453E-04	8.970709E-07
4.473438E+03	1.716863E-04	8.879735E-07
4.476150E+03	1.703025E-04	8.808165E-07
4.478863E+03	1.690749E-04	8.744671E-07
4.481575E+03	1.684204E-04	8.710821E-07
4.484286E+03	1.680055E-04	8.689357E-07
4.486998E+03	1.663399E-04	8.603212E-07
4.489710E+03	1.641324E-04	8.489040E-07
4.492421E+03	1.626438E-04	8.412051E-07
4.495133E+03	1.613533E-04	8.345301E-07
4.497845E+03	1.599479E-04	8.272616E-07
4.500557E+03	1.588447E-04	8.215558E-07
4.503268E+03	1.573247E-04	8.136940E-07
4.505980E+03	1.557943E-04	8.057788E-07
4.508692E+03	1.549408E-04	8.013645E-07
4.511403E+03	1.547747E-04	8.005051E-07
4.514115E+03	1.555664E-04	8.045999E-07
4.516827E+03	1.561079E-04	8.074006E-07
4.519538E+03	1.556702E-04	8.051370E-07
4.522250E+03	1.550242E-04	8.017959E-07
4.524962E+03	1.539721E-04	7.963541E-07
4.527674E+03	1.532426E-04	7.925810E-07
4.530385E+03	1.529398E-04	7.910149E-07
4.533097E+03	1.518874E-04	7.855720E-07
4.535809E+03	1.514074E-04	7.830893E-07
4.538520E+03	1.518639E-04	7.854502E-07
4.541232E+03	1.533919E-04	7.933535E-07
4.543944E+03	1.553150E-04	8.032999E-07
4.546655E+03	1.569878E-04	8.119515E-07
4.549367E+03	1.585040E-04	8.197937E-07
4.552079E+03	1.604880E-04	8.300545E-07
4.554790E+03	1.632307E-04	8.442402E-07
4.557502E+03	1.661703E-04	8.594442E-07
4.560215E+03	1.697749E-04	8.780872E-07
4.562927E+03	1.731394E-04	8.954889E-07
4.565638E+03	1.764615E-04	9.126705E-07
4.568350E+03	1.806041E-04	9.340964E-07
4.571062E+03	1.848184E-04	9.558934E-07
4.573773E+03	1.890110E-04	9.775778E-07
4.576485E+03	1.933584E-04	1.000063E-06
4.579197E+03	1.980374E-04	1.024263E-06
4.581909E+03	2.030685E-04	1.050284E-06
4.584620E+03	2.073397E-04	1.072375E-06
4.587332E+03	2.117554E-04	1.095213E-06
4.590044E+03	2.170633E-04	1.122666E-06
4.592755E+03	2.222036E-04	1.149252E-06
4.595467E+03	2.268233E-04	1.173145E-06
4.598179E+03	2.314313E-04	1.196978E-06
4.600890E+03	2.362873E-04	1.222093E-06
4.603602E+03	2.412769E-04	1.247900E-06
4.606314E+03	2.464728E-04	1.274774E-06
4.609026E+03	2.511482E-04	1.298955E-06
4.611737E+03	2.562270E-04	1.325223E-06
4.614449E+03	2.613149E-04	1.351538E-06
4.617161E+03	2.659134E-04	1.375322E-06
4.619872E+03	2.714031E-04	1.403715E-06
4.622584E+03	2.773372E-04	1.434407E-06
4.625296E+03	2.837677E-04	1.467665E-06
4.628007E+03	2.902689E-04	1.501290E-06
4.630719E+03	2.966334E-04	1.534208E-06
4.633431E+03	3.021560E-04	1.562771E-06
4.636142E+03	3.068058E-04	1.586820E-06
4.638855E+03	3.113506E-04	1.610326E-06
4.641567E+03	3.163915E-04	1.636398E-06
4.644278E+03	3.208607E-04	1.659513E-06
4.646990E+03	3.246962E-04	1.679350E-06
4.649702E+03	3.290692E-04	1.701967E-06
4.652414E+03	3.337930E-04	1.726400E-06
4.655125E+03	3.382252E-04	1.749323E-06
4.657837E+03	3.426041E-04	1.771971E-06
4.660549E+03	3.470229E-04	1.794825E-06
4.663260E+03	3.518026E-04	1.819546E-06
4.665972E+03	3.566946E-04	1.844848E-06
4.668684E+03	3.619680E-04	1.872122E-06
4.671395E+03	3.671258E-04	1.898799E-06
4.674107E+03	3.723231E-04	1.925679E-06
4.676819E+03	3.769702E-04	1.949714E-06
4.679531E+03	3.807774E-04	1.969406E-06
4.682242E+03	3.848833E-04	1.990641E-06
4.684954E+03	3.897117E-04	2.015615E-06
4.687666E+03	3.946212E-04	2.041007E-06
4.690377E+03	3.984534E-04	2.060827E-06
4.693089E+03	4.010226E-04	2.074115E-06
4.695801E+03	4.035182E-04	2.087023E-06
4.698513E+03	4.061265E-04	2.100513E-06
4.701224E+03	4.085580E-04	2.113089E-06
4.703936E+03	4.107920E-04	2.124643E-06
4.706648E+03	4.119195E-04	2.130474E-06
4.709359E+03	4.128704E-04	2.135393E-06
4.712071E+03	4.133767E-04	2.138011E-06
4.714783E+03	4.134487E-04	2.138384E-06
4.717495E+03	4.139333E-04	2.140890E-06
4.720207E+03	4.136327E-04	2.139335E-06
4.722919E+03	4.126093E-04	2.134042E-06
4.725630E+03	4.110696E-04	2.126079E-06
4.728342E+03	4.088490E-04	2.114594E-06
4.731054E+03	4.066392E-04	2.103164E-06
4.733766E+03	4.042336E-04	2.090722E-06
4.736477E+03	4.018903E-04	2.078603E-06
4.739189E+03	3.990834E-04	2.064085E-06
4.741901E+03	3.955138E-04	2.045623E-06
4.744612E+03	3.916668E-04	2.025726E-06
4.747324E+03	3.880887E-04	2.007220E-06
4.750036E+03	3.844083E-04	1.988185E-06
4.752747E+03	3.801312E-04	1.966063E-06
4.755459E+03	3.757830E-04	1.943574E-06
4.758171E+03	3.707251E-04	1.917414E-06
4.760883E+03	3.655553E-04	1.890676E-06
4.763594E+03	3.608401E-04	1.866288E-06
4.766306E+03	3.563630E-04	1.843132E-06
4.769018E+03	3.523297E-04	1.822272E-06
4.771729E+03	3.488534E-04	1.804292E-06
4.774441E+03	3.452237E-04	1.785519E-06
4.777153E+03	3.402881E-04	1.759992E-06
4.779865E+03	3.350761E-04	1.733035E-06
4.782576E+03	3.312441E-04	1.713216E-06
4.785288E+03	3.278863E-04	1.695849E-06
4.788000E+03	3.243854E-04	1.677742E-06
4.790711E+03	3.207724E-04	1.659055E-06
4.793423E+03	3.170679E-04	1.639895E-06
4.796136E+03	3.133131E-04	1.620475E-06
4.798847E+03	3.101861E-04	1.604303E-06
4.801559E+03	3.077177E-04	1.591536E-06
4.804271E+03	3.049828E-04	1.577391E-06
4.806982E+03	3.032450E-04	1.568402E-06
4.809694E+03	3.020518E-04	1.562231E-06
4.812406E+03	3.009820E-04	1.556698E-06
4.815118E+03	3.009902E-04	1.556741E-06
4.817829E+03	3.013472E-04	1.558587E-06
4.820541E+03	3.020118E-04	1.562024E-06
4.823253E+03	3.017320E-04	1.560577E-06
4.825964E+03	3.008880E-04	1.556212E-06
4.828676E+03	3.003518E-04	1.553439E-06
4.831388E+03	3.005232E-04	1.554325E-06
4.834099E+03	3.014427E-04	1.559081E-06
4.836811E+03	3.022592E-04	1.563304E-06
4.839523E+03	3.022862E-04	1.563443E-06
4.842235E+03	3.019646E-04	1.561780E-06
4.844946E+03	3.016532E-04	1.560170E-06
4.847658E+03	3.016696E-04	1.560254E-06
4.850370E+03	3.019008E-04	1.561450E-06
4.853081E+03	3.015379E-04	1.559573E-06
4.855793E+03	3.005199E-04	1.554308E-06
4.858505E+03	3.003516E-04	1.553437E-06
4.861217E+03	3.009200E-04	1.556377E-06
4.863928E+03	3.010686E-04	1.557146E-06
4.866640E+03	2.998667E-04	1.550929E-06
4.869352E+03	2.977447E-04	1.539954E-06
4.872063E+03	2.953369E-04	1.527501E-06
4.874775E+03	2.940545E-04	1.520869E-06
4.877488E+03	2.932019E-04	1.516459E-06
4.880199E+03	2.913479E-04	1.506869E-06
4.882911E+03	2.900564E-04	1.500190E-06
4.885623E+03	2.888777E-04	1.494094E-06
4.888334E+03	2.878832E-04	1.488950E-06
4.891046E+03	2.876753E-04	1.487875E-06
4.893758E+03	2.873448E-04	1.486165E-06
4.896470E+03	2.873410E-04	1.486146E-06
4.899181E+03	2.883577E-04	1.491404E-06
4.901893E+03	2.904148E-04	1.502044E-06
4.904605E+03	2.936238E-04	1.518641E-06
4.907316E+03	2.968622E-04	1.535390E-06
4.910028E+03	3.001298E-04	1.552290E-06
4.912740E+03	3.035999E-04	1.570237E-06
4.915451E+03	3.067627E-04	1.586596E-06
4.918163E+03	3.110353E-04	1.608694E-06
4.920875E+03	3.158665E-04	1.633681E-06
4.923586E+03	3.199418E-04	1.654759E-06
4.926298E+03	3.241174E-04	1.676355E-06
4.929010E+03	3.285866E-04	1.699470E-06
4.931722E+03	3.327484E-04	1.720995E-06
4.934433E+03	3.364810E-04	1.740301E-06
4.937145E+03	3.400695E-04	1.758860E-06
4.939857E+03	3.431884E-04	1.774992E-06
4.942568E+03	3.461024E-04	1.790063E-06
4.945280E+03	3.485169E-04	1.802551E-06
4.947992E+03	3.504522E-04	1.812560E-06
4.950704E+03	3.523460E-04	1.822355E-06
4.953415E+03	3.537002E-04	1.829359E-06
4.956128E+03	3.550334E-04	1.836255E-06
4.958840E+03	3.565897E-04	1.844304E-06
4.961551E+03	3.583078E-04	1.853190E-06
4.964263E+03	3.586436E-04	1.854927E-06
4.966975E+03	3.578822E-04	1.850989E-06
4.969686E+03	3.565524E-04	1.844111E-06
4.972398E+03	3.541571E-04	1.831722E-06
4.975110E+03	3.510723E-04	1.815767E-06
4.977822E+03	3.478873E-04	1.799294E-06
4.980533E+03	3.450179E-04	1.784454E-06
