#wls	flux	fluxerr
1.596488E+03	2.325543E-05	1.544080E-06
1.636400E+03	2.399183E-05	1.586996E-06
1.676312E+03	2.474917E-05	1.630780E-06
1.716224E+03	2.552368E-05	1.675155E-06
1.756136E+03	2.631548E-05	1.720099E-06
1.796049E+03	2.711573E-05	1.765006E-06
1.835961E+03	2.792083E-05	1.809618E-06
1.875873E+03	2.871951E-05	1.853187E-06
1.915785E+03	2.950130E-05	1.895029E-06
1.955697E+03	3.024895E-05	1.934038E-06
1.995610E+03	3.096671E-05	1.970500E-06
2.035522E+03	3.166895E-05	2.005333E-06
2.075434E+03	3.240914E-05	2.041906E-06
2.115346E+03	3.327357E-05	2.085575E-06
2.155258E+03	3.434872E-05	2.141591E-06
2.195171E+03	3.567778E-05	2.212398E-06
2.235083E+03	3.724197E-05	2.296552E-06
2.274995E+03	3.897900E-05	2.389957E-06
2.314907E+03	4.081683E-05	2.488000E-06
2.354819E+03	4.270157E-05	2.587269E-06
2.394732E+03	4.459565E-05	2.685407E-06
2.434644E+03	4.648427E-05	2.781479E-06
2.474556E+03	4.834499E-05	2.874114E-06
2.514468E+03	5.016964E-05	2.962823E-06
2.554380E+03	5.194644E-05	3.046917E-06
2.594293E+03	5.365815E-05	3.125412E-06
2.634205E+03	5.529376E-05	3.197717E-06
2.674117E+03	5.682326E-05	3.262168E-06
2.714029E+03	5.822884E-05	3.317856E-06
2.753941E+03	5.948332E-05	3.363375E-06
2.793854E+03	6.055409E-05	3.397071E-06
2.833766E+03	6.141299E-05	3.417603E-06
2.873678E+03	6.202870E-05	3.423515E-06
2.913590E+03	6.237160E-05	3.413515E-06
2.953502E+03	6.241904E-05	3.386751E-06
2.993414E+03	6.214996E-05	3.342515E-06
3.003393E+03	6.203465E-05	3.328857E-06
3.013371E+03	6.189644E-05	3.313976E-06
3.023349E+03	6.173816E-05	3.298031E-06
3.033327E+03	6.156266E-05	3.281184E-06
3.043305E+03	6.136575E-05	3.263217E-06
3.053283E+03	6.115353E-05	3.244462E-06
3.063261E+03	6.092104E-05	3.224662E-06
3.073239E+03	6.067341E-05	3.204098E-06
3.083217E+03	6.040850E-05	3.182661E-06
3.093195E+03	6.012903E-05	3.160502E-06
3.103173E+03	5.983080E-05	3.137406E-06
3.113151E+03	5.951922E-05	3.113664E-06
3.123129E+03	5.919271E-05	3.089198E-06
3.133107E+03	5.885449E-05	3.064184E-06
3.143085E+03	5.850108E-05	3.038444E-06
3.153063E+03	5.813820E-05	3.012282E-06
3.163041E+03	5.776710E-05	2.985766E-06
3.173019E+03	5.738498E-05	2.958755E-06
3.182997E+03	5.699983E-05	2.931667E-06
3.192975E+03	5.660712E-05	2.904268E-06
3.202954E+03	5.621294E-05	2.876876E-06
3.212932E+03	5.581929E-05	2.849593E-06
3.222910E+03	5.542637E-05	2.822429E-06
3.232888E+03	5.503851E-05	2.795605E-06
3.242866E+03	5.465625E-05	2.769148E-06
3.252844E+03	5.428417E-05	2.743286E-06
3.262822E+03	5.392317E-05	2.718063E-06
3.272800E+03	5.357805E-05	2.693714E-06
3.282778E+03	5.325186E-05	2.670389E-06
3.292756E+03	5.294604E-05	2.648152E-06
3.302734E+03	5.266575E-05	2.627252E-06
3.312712E+03	5.241448E-05	2.607855E-06
3.322690E+03	5.219590E-05	2.590131E-06
3.332668E+03	5.201215E-05	2.574174E-06
3.342646E+03	5.186891E-05	2.560251E-06
3.352624E+03	5.177034E-05	2.548550E-06
3.362602E+03	5.172077E-05	2.539268E-06
3.372580E+03	5.172472E-05	2.532607E-06
3.382558E+03	5.178695E-05	2.528777E-06
3.392536E+03	5.191084E-05	2.527921E-06
3.402514E+03	5.210480E-05	2.530422E-06
3.412493E+03	5.237119E-05	2.536367E-06
3.422471E+03	5.271900E-05	2.546162E-06
3.432449E+03	5.315288E-05	2.559997E-06
3.442427E+03	5.367789E-05	2.578081E-06
3.452405E+03	5.430431E-05	2.600870E-06
3.462383E+03	5.503824E-05	2.628614E-06
3.472361E+03	5.588646E-05	2.661593E-06
3.482339E+03	5.686122E-05	2.700342E-06
3.492317E+03	5.797261E-05	2.745287E-06
3.502295E+03	5.922846E-05	2.796742E-06
3.512273E+03	6.064267E-05	2.855305E-06
3.522251E+03	6.223076E-05	2.921636E-06
3.532229E+03	6.400647E-05	2.996311E-06
3.542207E+03	6.598900E-05	3.080146E-06
3.552185E+03	6.819444E-05	3.173808E-06
3.562163E+03	7.064818E-05	3.278382E-06
3.572141E+03	7.337162E-05	3.394757E-06
3.582119E+03	7.638701E-05	3.523848E-06
3.592097E+03	7.971384E-05	3.666431E-06
3.602075E+03	8.335391E-05	3.822463E-06
3.612053E+03	8.730037E-05	3.991499E-06
3.622032E+03	9.153184E-05	4.172440E-06
3.632010E+03	9.601809E-05	4.363794E-06
3.641988E+03	1.007199E-04	4.563680E-06
3.651966E+03	1.055808E-04	4.769455E-06
3.661944E+03	1.105329E-04	4.978001E-06
3.671922E+03	1.154981E-04	5.185768E-06
3.681900E+03	1.203834E-04	5.388590E-06
3.691878E+03	1.250820E-04	5.581736E-06
3.701856E+03	1.294960E-04	5.760924E-06
3.711834E+03	1.335268E-04	5.921895E-06
3.721812E+03	1.370863E-04	6.060918E-06
3.731790E+03	1.401097E-04	6.175330E-06
3.741768E+03	1.425564E-04	6.263564E-06
3.751746E+03	1.443967E-04	6.324561E-06
3.761724E+03	1.456192E-04	6.358073E-06
3.771702E+03	1.462281E-04	6.364534E-06
3.781680E+03	1.462490E-04	6.345316E-06
3.791658E+03	1.457211E-04	6.302351E-06
3.801636E+03	1.447049E-04	6.238475E-06
3.811614E+03	1.432788E-04	6.157264E-06
3.821592E+03	1.415273E-04	6.062498E-06
3.831571E+03	1.395441E-04	5.958326E-06
3.841549E+03	1.374395E-04	5.849531E-06
3.851527E+03	1.353200E-04	5.740677E-06
3.861505E+03	1.332972E-04	5.636502E-06
3.871483E+03	1.314821E-04	5.541632E-06
3.881461E+03	1.299805E-04	5.460437E-06
3.891439E+03	1.288889E-04	5.396825E-06
3.901417E+03	1.282885E-04	5.354013E-06
3.911395E+03	1.282409E-04	5.334364E-06
3.921373E+03	1.287843E-04	5.339229E-06
3.931351E+03	1.299389E-04	5.369208E-06
3.941329E+03	1.316989E-04	5.423801E-06
3.951307E+03	1.340363E-04	5.501618E-06
3.961285E+03	1.368994E-04	5.600298E-06
3.971263E+03	1.402312E-04	5.717307E-06
3.981241E+03	1.439471E-04	5.849017E-06
3.991219E+03	1.479550E-04	5.991533E-06
4.001197E+03	1.521551E-04	6.140719E-06
4.011175E+03	1.564358E-04	6.292000E-06
4.021153E+03	1.606820E-04	6.440734E-06
4.031132E+03	1.647908E-04	6.582831E-06
4.041110E+03	1.686464E-04	6.713734E-06
4.051088E+03	1.721500E-04	6.829633E-06
4.061066E+03	1.752061E-04	6.926895E-06
4.071044E+03	1.777394E-04	7.002744E-06
4.081022E+03	1.796775E-04	7.054550E-06
4.091000E+03	1.809741E-04	7.080753E-06
4.100978E+03	1.815967E-04	7.080343E-06
4.110956E+03	1.815395E-04	7.053379E-06
4.120934E+03	1.808124E-04	7.000521E-06
4.130912E+03	1.794491E-04	6.923346E-06
4.140890E+03	1.775023E-04	6.824137E-06
4.150868E+03	1.750419E-04	6.705809E-06
4.160846E+03	1.721511E-04	6.571750E-06
4.170824E+03	1.689237E-04	6.425706E-06
4.180802E+03	1.654600E-04	6.271609E-06
4.190780E+03	1.618593E-04	6.113310E-06
4.200758E+03	1.582213E-04	5.954612E-06
4.210736E+03	1.546414E-04	5.799105E-06
4.220714E+03	1.512011E-04	5.649816E-06
4.230692E+03	1.479714E-04	5.509330E-06
4.240671E+03	1.450180E-04	5.379993E-06
4.250649E+03	1.423879E-04	5.263438E-06
4.260627E+03	1.401166E-04	5.160843E-06
4.270605E+03	1.382325E-04	5.073102E-06
4.280583E+03	1.367481E-04	5.000517E-06
4.290561E+03	1.356680E-04	4.943099E-06
4.300539E+03	1.349797E-04	4.900240E-06
4.310517E+03	1.346571E-04	4.870834E-06
4.320495E+03	1.346642E-04	4.853443E-06
4.330473E+03	1.349407E-04	4.845777E-06
4.340451E+03	1.354169E-04	4.845236E-06
4.350429E+03	1.360057E-04	4.848641E-06
4.360407E+03	1.366116E-04	4.852556E-06
4.370385E+03	1.371353E-04	4.853463E-06
4.380363E+03	1.374744E-04	4.847783E-06
4.390341E+03	1.375797E-04	4.833870E-06
4.400319E+03	1.374428E-04	4.811512E-06
4.410297E+03	1.370718E-04	4.781092E-06
4.420275E+03	1.364870E-04	4.743405E-06
4.430253E+03	1.357175E-04	4.699539E-06
4.440231E+03	1.347995E-04	4.650816E-06
4.450210E+03	1.337859E-04	4.599102E-06
4.460188E+03	1.327407E-04	4.546631E-06
4.470166E+03	1.317338E-04	4.495791E-06
4.480144E+03	1.308566E-04	4.449682E-06
4.490122E+03	1.302016E-04	4.411379E-06
4.500100E+03	1.298704E-04	4.384230E-06
4.510078E+03	1.299672E-04	4.371623E-06
4.520056E+03	1.305970E-04	4.376919E-06
4.530034E+03	1.318543E-04	4.403078E-06
4.540012E+03	1.338302E-04	4.452909E-06
4.549990E+03	1.365964E-04	4.528524E-06
4.559968E+03	1.402084E-04	4.631481E-06
4.569946E+03	1.447008E-04	4.762614E-06
4.579924E+03	1.500709E-04	4.921531E-06
4.589902E+03	1.562944E-04	5.107126E-06
4.599880E+03	1.632988E-04	5.316751E-06
4.609858E+03	1.709800E-04	5.546760E-06
4.619836E+03	1.791957E-04	5.792321E-06
4.629814E+03	1.877605E-04	6.047292E-06
4.639792E+03	1.964644E-04	6.304819E-06
4.649771E+03	2.050622E-04	6.557028E-06
4.659749E+03	2.132992E-04	6.795853E-06
4.669727E+03	2.209130E-04	7.013098E-06
4.679705E+03	2.276599E-04	7.201280E-06
4.689683E+03	2.333225E-04	7.353857E-06
4.699661E+03	2.377375E-04	7.466077E-06
4.709639E+03	2.408006E-04	7.535107E-06
4.719617E+03	2.424875E-04	7.560653E-06
4.729595E+03	2.428437E-04	7.544594E-06
4.739573E+03	2.419993E-04	7.491406E-06
4.749551E+03	2.401363E-04	7.407104E-06
4.759529E+03	2.374905E-04	7.299272E-06
4.769507E+03	2.343060E-04	7.175644E-06
4.779485E+03	2.308224E-04	7.043706E-06
4.789463E+03	2.272149E-04	6.908878E-06
4.799441E+03	2.236384E-04	6.775891E-06
4.809419E+03	2.202234E-04	6.648669E-06
4.819397E+03	2.170808E-04	6.530494E-06
4.829375E+03	2.143040E-04	6.424073E-06
4.839353E+03	2.119695E-04	6.331575E-06
4.849331E+03	2.101460E-04	6.254897E-06
4.859310E+03	2.088882E-04	6.195501E-06
4.869288E+03	2.082384E-04	6.154458E-06
4.879266E+03	2.082230E-04	6.132351E-06
4.889244E+03	2.088443E-04	6.129053E-06
4.899222E+03	2.100858E-04	6.143881E-06
4.909200E+03	2.118982E-04	6.175214E-06
4.919178E+03	2.142229E-04	6.221178E-06
4.929156E+03	2.169782E-04	6.279255E-06
4.939134E+03	2.200811E-04	6.346926E-06
4.949112E+03	2.234447E-04	6.421596E-06
4.959090E+03	2.269881E-04	6.500879E-06
4.969068E+03	2.306298E-04	6.582402E-06
4.979046E+03	2.343049E-04	6.664297E-06
4.989024E+03	2.379467E-04	6.744675E-06
4.999002E+03	2.414903E-04	6.821713E-06
5.008980E+03	2.448621E-04	6.893386E-06
5.018958E+03	2.479638E-04	6.956988E-06
5.028936E+03	2.506898E-04	7.009652E-06
5.038914E+03	2.529053E-04	7.047740E-06
5.048892E+03	2.544722E-04	7.067565E-06
5.058870E+03	2.552634E-04	7.065797E-06
5.068849E+03	2.551795E-04	7.039919E-06
5.078827E+03	2.541683E-04	6.988735E-06
5.088805E+03	2.522430E-04	6.912868E-06
5.098783E+03	2.494834E-04	6.814743E-06
5.108761E+03	2.460255E-04	6.698290E-06
5.118739E+03	2.420649E-04	6.568994E-06
5.128717E+03	2.378303E-04	6.433177E-06
5.138695E+03	2.335581E-04	6.297273E-06
5.148673E+03	2.294861E-04	6.167681E-06
5.158651E+03	2.258159E-04	6.049741E-06
5.168629E+03	2.227112E-04	5.947719E-06
5.178607E+03	2.202849E-04	5.864471E-06
5.188585E+03	2.186080E-04	5.801715E-06
5.198563E+03	2.177060E-04	5.759932E-06
5.208541E+03	2.175675E-04	5.738636E-06
5.218519E+03	2.181509E-04	5.736553E-06
5.228497E+03	2.193977E-04	5.751983E-06
5.238475E+03	2.212362E-04	5.782899E-06
5.248453E+03	2.235831E-04	5.827005E-06
5.258431E+03	2.263661E-04	5.882316E-06
5.268409E+03	2.295124E-04	5.946863E-06
5.278388E+03	2.329641E-04	6.019081E-06
5.288366E+03	2.366705E-04	6.097616E-06
5.298344E+03	2.405971E-04	6.181542E-06
5.308322E+03	2.447153E-04	6.270104E-06
5.318300E+03	2.490001E-04	6.362638E-06
5.328278E+03	2.534322E-04	6.458644E-06
5.338256E+03	2.579898E-04	6.557559E-06
5.348234E+03	2.626360E-04	6.658450E-06
5.358212E+03	2.673361E-04	6.760443E-06
5.368190E+03	2.720383E-04	6.862253E-06
5.378168E+03	2.766861E-04	6.962480E-06
5.388146E+03	2.812200E-04	7.059671E-06
5.398124E+03	2.855744E-04	7.152231E-06
5.408102E+03	2.896947E-04	7.238853E-06
5.418080E+03	2.935369E-04	7.318507E-06
5.428058E+03	2.970821E-04	7.390799E-06
5.438036E+03	3.003488E-04	7.456259E-06
5.448014E+03	3.034054E-04	7.516651E-06
5.457992E+03	3.063835E-04	7.575285E-06
5.467970E+03	3.094864E-04	7.637212E-06
5.477949E+03	3.129718E-04	7.708787E-06
5.487927E+03	3.170963E-04	7.796297E-06
5.497905E+03	3.219869E-04	7.902800E-06
5.507883E+03	3.277487E-04	8.030810E-06
5.517861E+03	3.344773E-04	8.182601E-06
5.527839E+03	3.422368E-04	8.359656E-06
5.537817E+03	3.510196E-04	8.561703E-06
5.547795E+03	3.607251E-04	8.786215E-06
5.557773E+03	3.711182E-04	9.027418E-06
5.567751E+03	3.818436E-04	9.276652E-06
5.577729E+03	3.924323E-04	9.522541E-06
5.587707E+03	4.023493E-04	9.752165E-06
5.597685E+03	4.110524E-04	9.952486E-06
5.607663E+03	4.180521E-04	1.011178E-05
5.617641E+03	4.230134E-04	1.022209E-05
5.627619E+03	4.257492E-04	1.027905E-05
5.637597E+03	4.262804E-04	1.028330E-05
5.647575E+03	4.247889E-04	1.023934E-05
5.657553E+03	4.215918E-04	1.015490E-05
5.667531E+03	4.170577E-04	1.003893E-05
5.677509E+03	4.115593E-04	9.900411E-06
5.687488E+03	4.054198E-04	9.747129E-06
5.697466E+03	3.988788E-04	9.584829E-06
5.707444E+03	3.920613E-04	9.416495E-06
5.717422E+03	3.849961E-04	9.242790E-06
5.727400E+03	3.776302E-04	9.062414E-06
5.737378E+03	3.698542E-04	8.872715E-06
5.747356E+03	3.615413E-04	8.670627E-06
5.757334E+03	3.525763E-04	8.453364E-06
5.767312E+03	3.428983E-04	8.219440E-06
5.777290E+03	3.325199E-04	7.969134E-06
5.787268E+03	3.215455E-04	7.704918E-06
5.797246E+03	3.101598E-04	7.431187E-06
5.807224E+03	2.986360E-04	7.154453E-06
5.817202E+03	2.872915E-04	6.882284E-06
5.827180E+03	2.764718E-04	6.622920E-06
5.837158E+03	2.665246E-04	6.384662E-06
5.847136E+03	2.577535E-04	6.174753E-06
5.857114E+03	2.504114E-04	5.999230E-06
5.867092E+03	2.446898E-04	5.862665E-06
5.877070E+03	2.407114E-04	5.767997E-06
5.887048E+03	2.385418E-04	5.716791E-06
5.897027E+03	2.381796E-04	5.709031E-06
5.907005E+03	2.395680E-04	5.743364E-06
5.916983E+03	2.426001E-04	5.817248E-06
5.926961E+03	2.471035E-04	5.926573E-06
5.936939E+03	2.528592E-04	6.066112E-06
5.946917E+03	2.595937E-04	6.229326E-06
5.956895E+03	2.669913E-04	6.408662E-06
5.966873E+03	2.747144E-04	6.596030E-06
5.976851E+03	2.824205E-04	6.783218E-06
5.986829E+03	2.897866E-04	6.962471E-06
5.996807E+03	2.965148E-04	7.126624E-06
6.006785E+03	3.023448E-04	7.269407E-06
6.016763E+03	3.070759E-04	7.385968E-06
6.026741E+03	3.105470E-04	7.472406E-06
6.036719E+03	3.126762E-04	7.526713E-06
6.046697E+03	3.134231E-04	7.547872E-06
6.056675E+03	3.128251E-04	7.536742E-06
6.066653E+03	3.109594E-04	7.495137E-06
6.076631E+03	3.079639E-04	7.426341E-06
6.086609E+03	3.040156E-04	7.334576E-06
6.096588E+03	2.993317E-04	7.225052E-06
6.106566E+03	2.941588E-04	7.103689E-06
6.116544E+03	2.887533E-04	6.976660E-06
6.126522E+03	2.833695E-04	6.850101E-06
6.136500E+03	2.782530E-04	6.729944E-06
6.146478E+03	2.736282E-04	6.621625E-06
6.156456E+03	2.696821E-04	6.529687E-06
6.166434E+03	2.665693E-04	6.457901E-06
6.176412E+03	2.644107E-04	6.409226E-06
6.186390E+03	2.632868E-04	6.385653E-06
6.196368E+03	2.632568E-04	6.388660E-06
6.206346E+03	2.643562E-04	6.419151E-06
6.216324E+03	2.666127E-04	6.477853E-06
6.226302E+03	2.700342E-04	6.565002E-06
6.236280E+03	2.746479E-04	6.681315E-06
6.246258E+03	2.804779E-04	6.827433E-06
6.256236E+03	2.875165E-04	7.003229E-06
6.266214E+03	2.956974E-04	7.207143E-06
6.276192E+03	3.048680E-04	7.435510E-06
6.286170E+03	3.147786E-04	7.682287E-06
6.296148E+03	3.250897E-04	7.939227E-06
6.306127E+03	3.353646E-04	8.195677E-06
6.316105E+03	3.451048E-04	8.439452E-06
6.326083E+03	3.537786E-04	8.657517E-06
6.336061E+03	3.608681E-04	8.837141E-06
6.346039E+03	3.659320E-04	8.967429E-06
6.356017E+03	3.686448E-04	9.040300E-06
6.365995E+03	3.688407E-04	9.051562E-06
6.375973E+03	3.665281E-04	9.001288E-06
6.385951E+03	3.618847E-04	8.893714E-06
6.395929E+03	3.552333E-04	8.736649E-06
6.405907E+03	3.470216E-04	8.541001E-06
6.415885E+03	3.377532E-04	8.319084E-06
6.425863E+03	3.279742E-04	8.084298E-06
6.435841E+03	3.182027E-04	7.849382E-06
6.445819E+03	3.089045E-04	7.625819E-06
6.455797E+03	3.004660E-04	7.423172E-06
6.465775E+03	2.931827E-04	7.248781E-06
6.475753E+03	2.872551E-04	7.107662E-06
6.485731E+03	2.827954E-04	7.002660E-06
6.495709E+03	2.798309E-04	6.934528E-06
6.505687E+03	2.783303E-04	6.902563E-06
6.515666E+03	2.782002E-04	6.904519E-06
6.525644E+03	2.792988E-04	6.936946E-06
6.535622E+03	2.814332E-04	6.995106E-06
6.545600E+03	2.843830E-04	7.073561E-06
6.555578E+03	2.879202E-04	7.166674E-06
6.565556E+03	2.918122E-04	7.268669E-06
6.575534E+03	2.958347E-04	7.373960E-06
6.585512E+03	2.997808E-04	7.477380E-06
6.595490E+03	3.034668E-04	7.574329E-06
6.605468E+03	3.067404E-04	7.660978E-06
6.615446E+03	3.094630E-04	7.733827E-06
6.625424E+03	3.115262E-04	7.790133E-06
6.635402E+03	3.128277E-04	7.827290E-06
6.645380E+03	3.132754E-04	7.842950E-06
6.655358E+03	3.128014E-04	7.835367E-06
6.665336E+03	3.113719E-04	7.803647E-06
6.675314E+03	3.089712E-04	7.747358E-06
6.685292E+03	3.056288E-04	7.667195E-06
6.695270E+03	3.014206E-04	7.565032E-06
6.705248E+03	2.964482E-04	7.443392E-06
6.715227E+03	2.908483E-04	7.305684E-06
6.725205E+03	2.847804E-04	7.155906E-06
6.735183E+03	2.784188E-04	6.998430E-06
6.745161E+03	2.719265E-04	6.837359E-06
6.755139E+03	2.654665E-04	6.676795E-06
6.765117E+03	2.591712E-04	6.520080E-06
6.775095E+03	2.531366E-04	6.369644E-06
6.785073E+03	2.474289E-04	6.227168E-06
6.795051E+03	2.420769E-04	6.093388E-06
6.805029E+03	2.370921E-04	5.968612E-06
6.815007E+03	2.324672E-04	5.852664E-06
6.824985E+03	2.281837E-04	5.745092E-06
6.834963E+03	2.242176E-04	5.645299E-06
6.844941E+03	2.205408E-04	5.552584E-06
6.854919E+03	2.171260E-04	5.466271E-06
6.864897E+03	2.139365E-04	5.385439E-06
6.874875E+03	2.109455E-04	5.309417E-06
6.884853E+03	2.081181E-04	5.237330E-06
6.894831E+03	2.054254E-04	5.168459E-06
6.904809E+03	2.028357E-04	5.102008E-06
6.914787E+03	2.003246E-04	5.037366E-06
6.924766E+03	1.978775E-04	4.974173E-06
6.934744E+03	1.954880E-04	4.912269E-06
6.944722E+03	1.931630E-04	4.851831E-06
6.954700E+03	1.909250E-04	4.793432E-06
6.964678E+03	1.888106E-04	4.737990E-06
6.974656E+03	1.868770E-04	4.686941E-06
6.984634E+03	1.851797E-04	4.641673E-06
6.994612E+03	1.837865E-04	4.603880E-06
7.004590E+03	1.827508E-04	4.574888E-06
7.014568E+03	1.821229E-04	4.555940E-06
7.024546E+03	1.819298E-04	4.547690E-06
7.034524E+03	1.821719E-04	4.550125E-06
7.044502E+03	1.828353E-04	4.562869E-06
7.054480E+03	1.838743E-04	4.584758E-06
7.064458E+03	1.852251E-04	4.614173E-06
7.074436E+03	1.868014E-04	4.648938E-06
7.084414E+03	1.884962E-04	4.686373E-06
7.094392E+03	1.902057E-04	4.723888E-06
7.104370E+03	1.918137E-04	4.758594E-06
7.114348E+03	1.932206E-04	4.788024E-06
7.124326E+03	1.943416E-04	4.810098E-06
7.134305E+03	1.951177E-04	4.823374E-06
7.144283E+03	1.955212E-04	4.827204E-06
7.154261E+03	1.955572E-04	4.821743E-06
7.164239E+03	1.952732E-04	4.808202E-06
7.174217E+03	1.947394E-04	4.788343E-06
7.184195E+03	1.940634E-04	4.764833E-06
7.194173E+03	1.933625E-04	4.740569E-06
7.204151E+03	1.927629E-04	4.718647E-06
7.214129E+03	1.923981E-04	4.702320E-06
7.224107E+03	1.923853E-04	4.694428E-06
7.234085E+03	1.928190E-04	4.697232E-06
7.244063E+03	1.937830E-04	4.712718E-06
7.254041E+03	1.953308E-04	4.742118E-06
7.264019E+03	1.974949E-04	4.786145E-06
7.273997E+03	2.002887E-04	4.845041E-06
7.283975E+03	2.037003E-04	4.918433E-06
7.293953E+03	2.077047E-04	5.005628E-06
7.303931E+03	2.122524E-04	5.105348E-06
7.313909E+03	2.172780E-04	5.215939E-06
7.323887E+03	2.226993E-04	5.335358E-06
7.333865E+03	2.284066E-04	5.460916E-06
7.343844E+03	2.342738E-04	5.589553E-06
7.353822E+03	2.401470E-04	5.717575E-06
7.363800E+03	2.458630E-04	5.841095E-06
7.373778E+03	2.512460E-04	5.955966E-06
7.383756E+03	2.561336E-04	6.058389E-06
7.393734E+03	2.603754E-04	6.144897E-06
7.403712E+03	2.638621E-04	6.213009E-06
7.413690E+03	2.665207E-04	6.261141E-06
7.423668E+03	2.683298E-04	6.288924E-06
7.433646E+03	2.693168E-04	6.297145E-06
7.443624E+03	2.695371E-04	6.287241E-06
7.453602E+03	2.690894E-04	6.261642E-06
7.463580E+03	2.680747E-04	6.222817E-06
7.473558E+03	2.665992E-04	6.173329E-06
7.483536E+03	2.647595E-04	6.115503E-06
7.493514E+03	2.626305E-04	6.051133E-06
7.503492E+03	2.602750E-04	5.981731E-06
7.513470E+03	2.577156E-04	5.907859E-06
7.523448E+03	2.549766E-04	5.830124E-06
7.533426E+03	2.520488E-04	5.748356E-06
7.543405E+03	2.489196E-04	5.662318E-06
7.553383E+03	2.455716E-04	5.571657E-06
7.563361E+03	2.419856E-04	5.475990E-06
7.573339E+03	2.381453E-04	5.375001E-06
7.583317E+03	2.340232E-04	5.268128E-06
7.593295E+03	2.295995E-04	5.154982E-06
7.603273E+03	2.248444E-04	5.034952E-06
7.613251E+03	2.197129E-04	4.907102E-06
7.623229E+03	2.141727E-04	4.770782E-06
7.633207E+03	2.082093E-04	4.625744E-06
7.643185E+03	2.018498E-04	4.472671E-06
7.653163E+03	1.951730E-04	4.313372E-06
7.663141E+03	1.883036E-04	4.150655E-06
7.673119E+03	1.814310E-04	3.988720E-06
7.683097E+03	1.747781E-04	3.832450E-06
7.693075E+03	1.685953E-04	3.687287E-06
7.703053E+03	1.631258E-04	3.558456E-06
7.713031E+03	1.585895E-04	3.450618E-06
7.723009E+03	1.551764E-04	3.367740E-06
7.732987E+03	1.530404E-04	3.312969E-06
7.742965E+03	1.522927E-04	3.288496E-06
