#wls	flux	fluxerr
1.596488E+03	9.716297E-06	4.546737E-06
1.636400E+03	9.863944E-06	4.602048E-06
1.676312E+03	1.000643E-05	4.654197E-06
1.716224E+03	1.014224E-05	4.702484E-06
1.756136E+03	1.026947E-05	4.746030E-06
1.796049E+03	1.038704E-05	4.784357E-06
1.835961E+03	1.049166E-05	4.815983E-06
1.875873E+03	1.057793E-05	4.838467E-06
1.915785E+03	1.064239E-05	4.850308E-06
1.955697E+03	1.068246E-05	4.850429E-06
1.995610E+03	1.069660E-05	4.838243E-06
2.035522E+03	1.069348E-05	4.817774E-06
2.075434E+03	1.069018E-05	4.796770E-06
2.115346E+03	1.071359E-05	4.787245E-06
2.155258E+03	1.078895E-05	4.800261E-06
2.195171E+03	1.092485E-05	4.839304E-06
2.235083E+03	1.111167E-05	4.899745E-06
2.274995E+03	1.132576E-05	4.970860E-06
2.314907E+03	1.154534E-05	5.042931E-06
2.354819E+03	1.175308E-05	5.108340E-06
2.394732E+03	1.194120E-05	5.163758E-06
2.434644E+03	1.210626E-05	5.207793E-06
2.474556E+03	1.224774E-05	5.240340E-06
2.514468E+03	1.236658E-05	5.261928E-06
2.554380E+03	1.246441E-05	5.273374E-06
2.594293E+03	1.254318E-05	5.275619E-06
2.634205E+03	1.260507E-05	5.269691E-06
2.674117E+03	1.265252E-05	5.256704E-06
2.714029E+03	1.268827E-05	5.237884E-06
2.753941E+03	1.271550E-05	5.214605E-06
2.793854E+03	1.273792E-05	5.188425E-06
2.833766E+03	1.275901E-05	5.160778E-06
2.873678E+03	1.278552E-05	5.134359E-06
2.913590E+03	1.282167E-05	5.110792E-06
2.953502E+03	1.287599E-05	5.093331E-06
2.993414E+03	1.295471E-05	5.084241E-06
3.003393E+03	1.297916E-05	5.083619E-06
3.013371E+03	1.300591E-05	5.083800E-06
3.023349E+03	1.303594E-05	5.085165E-06
3.033327E+03	1.306780E-05	5.087137E-06
3.043305E+03	1.310267E-05	5.090164E-06
3.053283E+03	1.314087E-05	5.094373E-06
3.063261E+03	1.318338E-05	5.100128E-06
3.073239E+03	1.322866E-05	5.106822E-06
3.083217E+03	1.327770E-05	5.114833E-06
3.093195E+03	1.333066E-05	5.124208E-06
3.103173E+03	1.338771E-05	5.135005E-06
3.113151E+03	1.344904E-05	5.147283E-06
3.123129E+03	1.351569E-05	5.161429E-06
3.133107E+03	1.358616E-05	5.176858E-06
3.143085E+03	1.366153E-05	5.193966E-06
3.153063E+03	1.374202E-05	5.212821E-06
3.163041E+03	1.382786E-05	5.233504E-06
3.173019E+03	1.391929E-05	5.256086E-06
3.182997E+03	1.401659E-05	5.280652E-06
3.192975E+03	1.412001E-05	5.307287E-06
3.202954E+03	1.423073E-05	5.336407E-06
3.212932E+03	1.434725E-05	5.367438E-06
3.222910E+03	1.447076E-05	5.400802E-06
3.232888E+03	1.460157E-05	5.436594E-06
3.242866E+03	1.473999E-05	5.474909E-06
3.252844E+03	1.488635E-05	5.515845E-06
3.262822E+03	1.504099E-05	5.559508E-06
3.272800E+03	1.520426E-05	5.605994E-06
3.282778E+03	1.537650E-05	5.655410E-06
3.292756E+03	1.555808E-05	5.707860E-06
3.302734E+03	1.574938E-05	5.763453E-06
3.312712E+03	1.594977E-05	5.821934E-06
3.322690E+03	1.616163E-05	5.884132E-06
3.332668E+03	1.638435E-05	5.949799E-06
3.342646E+03	1.661832E-05	6.019040E-06
3.352624E+03	1.686395E-05	6.091963E-06
3.362602E+03	1.712164E-05	6.168677E-06
3.372580E+03	1.739178E-05	6.249284E-06
3.382558E+03	1.767476E-05	6.333885E-06
3.392536E+03	1.796988E-05	6.422184E-06
3.402514E+03	1.827972E-05	6.515066E-06
3.412493E+03	1.860358E-05	6.612225E-06
3.422471E+03	1.894181E-05	6.713748E-06
3.432449E+03	1.929358E-05	6.819286E-06
3.442427E+03	1.966158E-05	6.929746E-06
3.452405E+03	2.004497E-05	7.044776E-06
3.462383E+03	2.044403E-05	7.164418E-06
3.472361E+03	2.085774E-05	7.288267E-06
3.482339E+03	2.128886E-05	7.417232E-06
3.492317E+03	2.173633E-05	7.550884E-06
3.502295E+03	2.219895E-05	7.688746E-06
3.512273E+03	2.267951E-05	7.831732E-06
3.522251E+03	2.317530E-05	7.978843E-06
3.532229E+03	2.368914E-05	8.130992E-06
3.542207E+03	2.421810E-05	8.287109E-06
3.552185E+03	2.476499E-05	8.448095E-06
3.562163E+03	2.532816E-05	8.613327E-06
3.572141E+03	2.590577E-05	8.782116E-06
3.582119E+03	2.650063E-05	8.955354E-06
3.592097E+03	2.710910E-05	9.131757E-06
3.602075E+03	2.773230E-05	9.311638E-06
3.612053E+03	2.837138E-05	9.495325E-06
3.622032E+03	2.902227E-05	9.681398E-06
3.632010E+03	2.968773E-05	9.870726E-06
3.641988E+03	3.036339E-05	1.006180E-05
3.651966E+03	3.105013E-05	1.025487E-05
3.661944E+03	3.174892E-05	1.045019E-05
3.671922E+03	3.245493E-05	1.064614E-05
3.681900E+03	3.316894E-05	1.084293E-05
3.691878E+03	3.389185E-05	1.104082E-05
3.701856E+03	3.461841E-05	1.123805E-05
3.711834E+03	3.534936E-05	1.143485E-05
3.721812E+03	3.608342E-05	1.163076E-05
3.731790E+03	3.682149E-05	1.182606E-05
3.741768E+03	3.755782E-05	1.201888E-05
3.751746E+03	3.829322E-05	1.220946E-05
3.761724E+03	3.902633E-05	1.239738E-05
3.771702E+03	3.975579E-05	1.258218E-05
3.781680E+03	4.048024E-05	1.276344E-05
3.791658E+03	4.119832E-05	1.294074E-05
3.801636E+03	4.190875E-05	1.311369E-05
3.811614E+03	4.261022E-05	1.328189E-05
3.821592E+03	4.330149E-05	1.344497E-05
3.831571E+03	4.398136E-05	1.360260E-05
3.841549E+03	4.464868E-05	1.375444E-05
3.851527E+03	4.530236E-05	1.390019E-05
3.861505E+03	4.594135E-05	1.403957E-05
3.871483E+03	4.656466E-05	1.417232E-05
3.881461E+03	4.717140E-05	1.429821E-05
3.891439E+03	4.776071E-05	1.441705E-05
3.901417E+03	4.832895E-05	1.452778E-05
3.911395E+03	4.888114E-05	1.463198E-05
3.921373E+03	4.941382E-05	1.472866E-05
3.931351E+03	4.992645E-05	1.481773E-05
3.941329E+03	5.041560E-05	1.489825E-05
3.951307E+03	5.088684E-05	1.497193E-05
3.961285E+03	5.133695E-05	1.503788E-05
3.971263E+03	5.176267E-05	1.509524E-05
3.981241E+03	5.217005E-05	1.514584E-05
3.991219E+03	5.255606E-05	1.518887E-05
4.001197E+03	5.291771E-05	1.522355E-05
4.011175E+03	5.326147E-05	1.525181E-05
4.021153E+03	5.358145E-05	1.527205E-05
4.031132E+03	5.388440E-05	1.528627E-05
4.041110E+03	5.416459E-05	1.529291E-05
4.051088E+03	5.442911E-05	1.529404E-05
4.061066E+03	5.467237E-05	1.528817E-05
4.071044E+03	5.489853E-05	1.527654E-05
4.081022E+03	5.511190E-05	1.526039E-05
4.091000E+03	5.530718E-05	1.523832E-05
4.100978E+03	5.548889E-05	1.521164E-05
4.110956E+03	5.566169E-05	1.518167E-05
4.120934E+03	5.582056E-05	1.514708E-05
4.130912E+03	5.597032E-05	1.510923E-05
4.140890E+03	5.611263E-05	1.506860E-05
4.150868E+03	5.624921E-05	1.502567E-05
4.160846E+03	5.638516E-05	1.498183E-05
4.170824E+03	5.651572E-05	1.493580E-05
4.180802E+03	5.664607E-05	1.488898E-05
4.190780E+03	5.677811E-05	1.484186E-05
4.200758E+03	5.691376E-05	1.479493E-05
4.210736E+03	5.705495E-05	1.474867E-05
4.220714E+03	5.720361E-05	1.470354E-05
4.230692E+03	5.736163E-05	1.466000E-05
4.240671E+03	5.753089E-05	1.461847E-05
4.250649E+03	5.771323E-05	1.457937E-05
4.260627E+03	5.790709E-05	1.454224E-05
4.270605E+03	5.812090E-05	1.450914E-05
4.280583E+03	5.835297E-05	1.447955E-05
4.290561E+03	5.860490E-05	1.445377E-05
4.300539E+03	5.887477E-05	1.443124E-05
4.310517E+03	5.917080E-05	1.441389E-05
4.320495E+03	5.949091E-05	1.440106E-05
4.330473E+03	5.983285E-05	1.439212E-05
4.340451E+03	6.020461E-05	1.438886E-05
4.350429E+03	6.060371E-05	1.439055E-05
4.360407E+03	6.102750E-05	1.439643E-05
4.370385E+03	6.148370E-05	1.440819E-05
4.380363E+03	6.196583E-05	1.442415E-05
4.390341E+03	6.248140E-05	1.444591E-05
4.400319E+03	6.302353E-05	1.447175E-05
4.410297E+03	6.359586E-05	1.450234E-05
4.420275E+03	6.420201E-05	1.453834E-05
4.430253E+03	6.483437E-05	1.457789E-05
4.440231E+03	6.549614E-05	1.462155E-05
4.450210E+03	6.619044E-05	1.466987E-05
4.460188E+03	6.690886E-05	1.472081E-05
4.470166E+03	6.765407E-05	1.477484E-05
4.480144E+03	6.842471E-05	1.483151E-05
4.490122E+03	6.921922E-05	1.489035E-05
4.500100E+03	7.003578E-05	1.495084E-05
4.510078E+03	7.087231E-05	1.501242E-05
4.520056E+03	7.172648E-05	1.507447E-05
4.530034E+03	7.259571E-05	1.513637E-05
4.540012E+03	7.347722E-05	1.519744E-05
4.549990E+03	7.436793E-05	1.525698E-05
4.559968E+03	7.526465E-05	1.531427E-05
4.569946E+03	7.616393E-05	1.536858E-05
4.579924E+03	7.706224E-05	1.541916E-05
4.589902E+03	7.795593E-05	1.546529E-05
4.599880E+03	7.883682E-05	1.550536E-05
4.609858E+03	7.971013E-05	1.554045E-05
4.619836E+03	8.056765E-05	1.556899E-05
4.629814E+03	8.140144E-05	1.558953E-05
4.639792E+03	8.221713E-05	1.560325E-05
4.649771E+03	8.300701E-05	1.560878E-05
4.659749E+03	8.376356E-05	1.560485E-05
4.669727E+03	8.449361E-05	1.559288E-05
4.679705E+03	8.518545E-05	1.557086E-05
4.689683E+03	8.584210E-05	1.553953E-05
4.699661E+03	8.646703E-05	1.549969E-05
4.709639E+03	8.704975E-05	1.544965E-05
4.719617E+03	8.759466E-05	1.539039E-05
4.729595E+03	8.810670E-05	1.532298E-05
4.739573E+03	8.857646E-05	1.524597E-05
4.749551E+03	8.900976E-05	1.516057E-05
4.759529E+03	8.940790E-05	1.506720E-05
4.769507E+03	8.977738E-05	1.496715E-05
4.779485E+03	9.011000E-05	1.485921E-05
4.789463E+03	9.041279E-05	1.474473E-05
4.799441E+03	9.068798E-05	1.462424E-05
4.809419E+03	9.093798E-05	1.449829E-05
4.819397E+03	9.116496E-05	1.436736E-05
4.829375E+03	9.137138E-05	1.423196E-05
4.839353E+03	9.155443E-05	1.409180E-05
4.849331E+03	9.172667E-05	1.394891E-05
4.859310E+03	9.188482E-05	1.380288E-05
4.869288E+03	9.203106E-05	1.365411E-05
4.879266E+03	9.216194E-05	1.350220E-05
4.889244E+03	9.228929E-05	1.334894E-05
4.899222E+03	9.240928E-05	1.319383E-05
4.909200E+03	9.251798E-05	1.303637E-05
4.919178E+03	9.262669E-05	1.287822E-05
4.929156E+03	9.272577E-05	1.271807E-05
4.939134E+03	9.282624E-05	1.255750E-05
4.949112E+03	9.291817E-05	1.239518E-05
4.959090E+03	9.301221E-05	1.223260E-05
4.969068E+03	9.309832E-05	1.206847E-05
4.979046E+03	9.318191E-05	1.190356E-05
4.989024E+03	9.326813E-05	1.173856E-05
4.999002E+03	9.334677E-05	1.157222E-05
5.008980E+03	9.342333E-05	1.140529E-05
5.018958E+03	9.349786E-05	1.123783E-05
5.028936E+03	9.357061E-05	1.106992E-05
5.038914E+03	9.364711E-05	1.090227E-05
5.048892E+03	9.371760E-05	1.073378E-05
5.058870E+03	9.378751E-05	1.056514E-05
5.068849E+03	9.385777E-05	1.039653E-05
5.078827E+03	9.392381E-05	1.022749E-05
5.088805E+03	9.399702E-05	1.005934E-05
5.098783E+03	9.407301E-05	9.891653E-06
5.108761E+03	9.415297E-05	9.724599E-06
5.118739E+03	9.423808E-05	9.558362E-06
5.128717E+03	9.432418E-05	9.392587E-06
5.138695E+03	9.442284E-05	9.228492E-06
5.148673E+03	9.453017E-05	9.065738E-06
5.158651E+03	9.464191E-05	8.903988E-06
5.168629E+03	9.476967E-05	8.744408E-06
5.178607E+03	9.490393E-05	8.586180E-06
5.188585E+03	9.505596E-05	8.430412E-06
5.198563E+03	9.521605E-05	8.276317E-06
5.208541E+03	9.539526E-05	8.124962E-06
5.218519E+03	9.558342E-05	7.975580E-06
5.228497E+03	9.578612E-05	7.828778E-06
5.238475E+03	9.600356E-05	7.684712E-06
5.248453E+03	9.624099E-05	7.543954E-06
5.258431E+03	9.648778E-05	7.405840E-06
5.268409E+03	9.674920E-05	7.270996E-06
5.278388E+03	9.702500E-05	7.139629E-06
5.288366E+03	9.731493E-05	7.011978E-06
5.298344E+03	9.761910E-05	6.888332E-06
5.308322E+03	9.793734E-05	6.768989E-06
5.318300E+03	9.826975E-05	6.654298E-06
5.328278E+03	9.861643E-05	6.544635E-06
5.338256E+03	9.897782E-05	6.440430E-06
5.348234E+03	9.934881E-05	6.341786E-06
5.358212E+03	9.974094E-05	6.249904E-06
5.368190E+03	1.001494E-04	6.164949E-06
5.378168E+03	1.005695E-04	6.087158E-06
5.388146E+03	1.010132E-04	6.017766E-06
5.398124E+03	1.014754E-04	5.957024E-06
5.408102E+03	1.019516E-04	5.905209E-06
5.418080E+03	1.024531E-04	5.863551E-06
5.428058E+03	1.029690E-04	5.831975E-06
5.438036E+03	1.035046E-04	5.811335E-06
5.448014E+03	1.040648E-04	5.802431E-06
5.457992E+03	1.046370E-04	5.805062E-06
5.467970E+03	1.052246E-04	5.819879E-06
5.477949E+03	1.058246E-04	5.847130E-06
5.487927E+03	1.064314E-04	5.886811E-06
5.497905E+03	1.070432E-04	5.938873E-06
5.507883E+03	1.076383E-04	6.002071E-06
5.517861E+03	1.082116E-04	6.075982E-06
5.527839E+03	1.087514E-04	6.159726E-06
5.537817E+03	1.092455E-04	6.252286E-06
5.547795E+03	1.096752E-04	6.352181E-06
5.557773E+03	1.100397E-04	6.458852E-06
5.567751E+03	1.103205E-04	6.570620E-06
5.577729E+03	1.105057E-04	6.686077E-06
5.587707E+03	1.105780E-04	6.803397E-06
5.597685E+03	1.105395E-04	6.921848E-06
5.607663E+03	1.103758E-04	7.039598E-06
5.617641E+03	1.100742E-04	7.154859E-06
5.627619E+03	1.096421E-04	7.267056E-06
5.637597E+03	1.090653E-04	7.374189E-06
5.647575E+03	1.083556E-04	7.475959E-06
5.657553E+03	1.075038E-04	7.570644E-06
5.667531E+03	1.065205E-04	7.657895E-06
5.677509E+03	1.054186E-04	7.737598E-06
5.687488E+03	1.041960E-04	7.808585E-06
5.697466E+03	1.028696E-04	7.871161E-06
5.707444E+03	1.014520E-04	7.925409E-06
5.717422E+03	9.995707E-05	7.971618E-06
5.727400E+03	9.839995E-05	8.010276E-06
5.737378E+03	9.679590E-05	8.042014E-06
5.747356E+03	9.516059E-05	8.067622E-06
5.757334E+03	9.350962E-05	8.088012E-06
5.767312E+03	9.185825E-05	8.104196E-06
5.777290E+03	9.022104E-05	8.117252E-06
5.787268E+03	8.861166E-05	8.128303E-06
5.797246E+03	8.703829E-05	8.138074E-06
5.807224E+03	8.552193E-05	8.148589E-06
5.817202E+03	8.406829E-05	8.160559E-06
5.827180E+03	8.268218E-05	8.174663E-06
5.837158E+03	8.138053E-05	8.192851E-06
5.847136E+03	8.016132E-05	8.215270E-06
5.857114E+03	7.903882E-05	8.243763E-06
5.867092E+03	7.800902E-05	8.278348E-06
5.877070E+03	7.707968E-05	8.320299E-06
5.887048E+03	7.625744E-05	8.370828E-06
5.897027E+03	7.553580E-05	8.429740E-06
5.907005E+03	7.491986E-05	8.498115E-06
5.916983E+03	7.440996E-05	8.576525E-06
5.926961E+03	7.400590E-05	8.665488E-06
5.936939E+03	7.370704E-05	8.765475E-06
5.946917E+03	7.351244E-05	8.876914E-06
5.956895E+03	7.342091E-05	9.000199E-06
5.966873E+03	7.343111E-05	9.135703E-06
5.976851E+03	7.354168E-05	9.283782E-06
5.986829E+03	7.375131E-05	9.444792E-06
5.996807E+03	7.405878E-05	9.619092E-06
6.006785E+03	7.445915E-05	9.806540E-06
6.016763E+03	7.495964E-05	1.000858E-05
6.026741E+03	7.555590E-05	1.022515E-05
6.036719E+03	7.624390E-05	1.045618E-05
6.046697E+03	7.703218E-05	1.070335E-05
6.056675E+03	7.791345E-05	1.096613E-05
6.066653E+03	7.889734E-05	1.124637E-05
6.076631E+03	7.997731E-05	1.154367E-05
6.086609E+03	8.115977E-05	1.185944E-05
6.096588E+03	8.245173E-05	1.219523E-05
6.106566E+03	8.384746E-05	1.255075E-05
6.116544E+03	8.535445E-05	1.292764E-05
6.126522E+03	8.697602E-05	1.332698E-05
6.136500E+03	8.871548E-05	1.374985E-05
6.146478E+03	9.057587E-05	1.419730E-05
6.156456E+03	9.255995E-05	1.467037E-05
6.166434E+03	9.466984E-05	1.517001E-05
6.176412E+03	9.690686E-05	1.569704E-05
6.186390E+03	9.927126E-05	1.625211E-05
6.196368E+03	1.017619E-04	1.683566E-05
6.206346E+03	1.043759E-04	1.744779E-05
6.216324E+03	1.071028E-04	1.808734E-05
6.226302E+03	1.099468E-04	1.875553E-05
6.236280E+03	1.128870E-04	1.944929E-05
6.246258E+03	1.159226E-04	2.016893E-05
6.256236E+03	1.190327E-04	2.091120E-05
6.266214E+03	1.221925E-04	2.167199E-05
6.276192E+03	1.253867E-04	2.244875E-05
6.286170E+03	1.285977E-04	2.323842E-05
6.296148E+03	1.317849E-04	2.403359E-05
6.306127E+03	1.349253E-04	2.482985E-05
6.316105E+03	1.379947E-04	2.562240E-05
6.326083E+03	1.409456E-04	2.640194E-05
6.336061E+03	1.437518E-04	2.716287E-05
6.346039E+03	1.463801E-04	2.789807E-05
6.356017E+03	1.487984E-04	2.860044E-05
6.365995E+03	1.509764E-04	2.926307E-05
6.375973E+03	1.528871E-04	2.987943E-05
6.385951E+03	1.545071E-04	3.044358E-05
6.395929E+03	1.558089E-04	3.094866E-05
6.405907E+03	1.567948E-04	3.139354E-05
6.415885E+03	1.574477E-04	3.177324E-05
6.425863E+03	1.577636E-04	3.208538E-05
6.435841E+03	1.577356E-04	3.232694E-05
6.445819E+03	1.573866E-04	3.250102E-05
6.455797E+03	1.567106E-04	3.260487E-05
6.465775E+03	1.557385E-04	3.264346E-05
6.475753E+03	1.544711E-04	3.261562E-05
6.485731E+03	1.529445E-04	3.252767E-05
6.495709E+03	1.511635E-04	3.237949E-05
6.505687E+03	1.491584E-04	3.217648E-05
6.515666E+03	1.469589E-04	3.192413E-05
6.525644E+03	1.445715E-04	3.162300E-05
6.535622E+03	1.420246E-04	3.127856E-05
6.545600E+03	1.393382E-04	3.089459E-05
6.555578E+03	1.365309E-04	3.047466E-05
6.565556E+03	1.336202E-04	3.002223E-05
6.575534E+03	1.306220E-04	2.954051E-05
6.585512E+03	1.275514E-04	2.903259E-05
6.595490E+03	1.244221E-04	2.850139E-05
6.605468E+03	1.212405E-04	2.794817E-05
6.615446E+03	1.180317E-04	2.737860E-05
6.625424E+03	1.148003E-04	2.679371E-05
6.635402E+03	1.115572E-04	2.619602E-05
6.645380E+03	1.083069E-04	2.558661E-05
6.655358E+03	1.050709E-04	2.497065E-05
6.665336E+03	1.018476E-04	2.434786E-05
6.675314E+03	9.865714E-05	2.372321E-05
6.685292E+03	9.549780E-05	2.309651E-05
6.695270E+03	9.238367E-05	2.247137E-05
6.705248E+03	8.932778E-05	2.185122E-05
6.715227E+03	8.632830E-05	2.123594E-05
6.725205E+03	8.339754E-05	2.062885E-05
6.735183E+03	8.054233E-05	2.003199E-05
6.745161E+03	7.777303E-05	1.944834E-05
6.755139E+03	7.508692E-05	1.887761E-05
6.765117E+03	7.249321E-05	1.832251E-05
6.775095E+03	6.999617E-05	1.778456E-05
6.785073E+03	6.759935E-05	1.726511E-05
6.795051E+03	6.530216E-05	1.676444E-05
6.805029E+03	6.311379E-05	1.628538E-05
6.815007E+03	6.103218E-05	1.582786E-05
6.824985E+03	5.905825E-05	1.539258E-05
6.834963E+03	5.718929E-05	1.497929E-05
6.844941E+03	5.543124E-05	1.459000E-05
6.854919E+03	5.378034E-05	1.422419E-05
6.864897E+03	5.223281E-05	1.388128E-05
6.874875E+03	5.079285E-05	1.356283E-05
6.884853E+03	4.945335E-05	1.326736E-05
6.894831E+03	4.821774E-05	1.299622E-05
6.904809E+03	4.707881E-05	1.274785E-05
6.914787E+03	4.603702E-05	1.252278E-05
6.924766E+03	4.509015E-05	1.232077E-05
6.934744E+03	4.423828E-05	1.214222E-05
6.944722E+03	4.347447E-05	1.198558E-05
6.954700E+03	4.279892E-05	1.185125E-05
6.964678E+03	4.220948E-05	1.173896E-05
6.974656E+03	4.170416E-05	1.164848E-05
6.984634E+03	4.128103E-05	1.157958E-05
6.994612E+03	4.093832E-05	1.153207E-05
7.004590E+03	4.067438E-05	1.150577E-05
7.014568E+03	4.048774E-05	1.150056E-05
7.024546E+03	4.037493E-05	1.151571E-05
7.034524E+03	4.033905E-05	1.155239E-05
7.044502E+03	4.037698E-05	1.160996E-05
7.054480E+03	4.048790E-05	1.168844E-05
7.064458E+03	4.066902E-05	1.178727E-05
7.074436E+03	4.092415E-05	1.190781E-05
7.084414E+03	4.124869E-05	1.204896E-05
7.094392E+03	4.164683E-05	1.221217E-05
7.104370E+03	4.211424E-05	1.239642E-05
7.114348E+03	4.265326E-05	1.260263E-05
7.124326E+03	4.326649E-05	1.283179E-05
7.134305E+03	4.394982E-05	1.308292E-05
7.144283E+03	4.470604E-05	1.335707E-05
7.154261E+03	4.553572E-05	1.365464E-05
7.164239E+03	4.643948E-05	1.397606E-05
7.174217E+03	4.742039E-05	1.432246E-05
7.184195E+03	4.847402E-05	1.469275E-05
7.194173E+03	4.960318E-05	1.508799E-05
7.204151E+03	5.080798E-05	1.550845E-05
7.214129E+03	5.208552E-05	1.595345E-05
7.224107E+03	5.344064E-05	1.642470E-05
7.234085E+03	5.486956E-05	1.692125E-05
7.244063E+03	5.637061E-05	1.744280E-05
7.254041E+03	5.794135E-05	1.798879E-05
7.264019E+03	5.957540E-05	1.855742E-05
7.273997E+03	6.127478E-05	1.914950E-05
7.283975E+03	6.302791E-05	1.976157E-05
7.293953E+03	6.483503E-05	2.039385E-05
7.303931E+03	6.668199E-05	2.104200E-05
7.313909E+03	6.856709E-05	2.170559E-05
7.323887E+03	7.047348E-05	2.237934E-05
7.333865E+03	7.239767E-05	2.306219E-05
7.343844E+03	7.432032E-05	2.374797E-05
7.353822E+03	7.623254E-05	2.443381E-05
7.363800E+03	7.812110E-05	2.511539E-05
7.373778E+03	7.997659E-05	2.578959E-05
7.383756E+03	8.177694E-05	2.644914E-05
7.393734E+03	8.351274E-05	2.709080E-05
7.403712E+03	8.517094E-05	2.771013E-05
7.413690E+03	8.673932E-05	2.830289E-05
7.423668E+03	8.820687E-05	2.886520E-05
7.433646E+03	8.956392E-05	2.939358E-05
7.443624E+03	9.080233E-05	2.988502E-05
7.453602E+03	9.191106E-05	3.033554E-05
7.463580E+03	9.289567E-05	3.074659E-05
7.473558E+03	9.374901E-05	3.111545E-05
7.483536E+03	9.447112E-05	3.144175E-05
7.493514E+03	9.505878E-05	3.172407E-05
7.503492E+03	9.552577E-05	3.196662E-05
7.513470E+03	9.586760E-05	3.216758E-05
7.523448E+03	9.610170E-05	3.233247E-05
7.533426E+03	9.622623E-05	3.246038E-05
7.543405E+03	9.626108E-05	3.255774E-05
7.553383E+03	9.620673E-05	3.262449E-05
7.563361E+03	9.607933E-05	3.266586E-05
7.573339E+03	9.589566E-05	3.268741E-05
7.583317E+03	9.565723E-05	3.268951E-05
7.593295E+03	9.538111E-05	3.267785E-05
7.603273E+03	9.507857E-05	3.265624E-05
7.613251E+03	9.476595E-05	3.263022E-05
7.623229E+03	9.444358E-05	3.259990E-05
7.633207E+03	9.412643E-05	3.257043E-05
7.643185E+03	9.382358E-05	3.254499E-05
7.653163E+03	9.354322E-05	3.252647E-05
7.663141E+03	9.328771E-05	3.251576E-05
7.673119E+03	9.307303E-05	3.251850E-05
7.683097E+03	9.289945E-05	3.253490E-05
7.693075E+03	9.277068E-05	3.256637E-05
7.703053E+03	9.268960E-05	3.261404E-05
7.713031E+03	9.265274E-05	3.267680E-05
7.723009E+03	9.266998E-05	3.275826E-05
7.732987E+03	9.273527E-05	3.285641E-05
7.742965E+03	9.284111E-05	3.296871E-05
