#wls	flux	fluxerr
1.600000E+03	1.812302E-16	3.409362E-18
1.640000E+03	1.956322E-16	3.630741E-18
1.680000E+03	2.097709E-16	3.839203E-18
1.720000E+03	2.230255E-16	4.023601E-18
1.760000E+03	2.347425E-16	4.172877E-18
1.800000E+03	2.441147E-16	4.274003E-18
1.840000E+03	2.504005E-16	4.316005E-18
1.880000E+03	2.530856E-16	4.292632E-18
1.920000E+03	2.520135E-16	4.204245E-18
1.960000E+03	2.479621E-16	4.066781E-18
2.000000E+03	2.433068E-16	3.921117E-18
2.040000E+03	2.435403E-16	3.854783E-18
2.080000E+03	2.588778E-16	4.022318E-18
2.120000E+03	3.001901E-16	4.576199E-18
2.160000E+03	3.673914E-16	5.492055E-18
2.200000E+03	4.530945E-16	6.638326E-18
2.240000E+03	5.474481E-16	7.856695E-18
2.280000E+03	6.389969E-16	8.978078E-18
2.320000E+03	7.159279E-16	9.842382E-18
2.360000E+03	7.683560E-16	1.032992E-17
2.400000E+03	7.897031E-16	1.037667E-17
2.440000E+03	7.780159E-16	9.986146E-18
2.480000E+03	7.368299E-16	9.233144E-18
2.520000E+03	6.753434E-16	8.257345E-18
2.560000E+03	6.100403E-16	7.274002E-18
2.600000E+03	5.701966E-16	6.626919E-18
2.640000E+03	6.001941E-16	6.795702E-18
2.680000E+03	6.983088E-16	7.699143E-18
2.720000E+03	8.303736E-16	8.911164E-18
2.760000E+03	9.748830E-16	1.017921E-17
2.800000E+03	1.118085E-15	1.135513E-17
2.840000E+03	1.250226E-15	1.234580E-17
2.880000E+03	1.364729E-15	1.309936E-17
2.920000E+03	1.457899E-15	1.359780E-17
2.960000E+03	1.528614E-15	1.384998E-17
3.000000E+03	1.577700E-15	1.388267E-17
3.010000E+03	1.586861E-15	1.386105E-17
3.020000E+03	1.594801E-15	1.382825E-17
3.030000E+03	1.601625E-15	1.378542E-17
3.040000E+03	1.607331E-15	1.373277E-17
3.050000E+03	1.611989E-15	1.367114E-17
3.060000E+03	1.615667E-15	1.360131E-17
3.070000E+03	1.618330E-15	1.352319E-17
3.080000E+03	1.620111E-15	1.343809E-17
3.090000E+03	1.620975E-15	1.334591E-17
3.100000E+03	1.621015E-15	1.324759E-17
3.110000E+03	1.620227E-15	1.314327E-17
3.120000E+03	1.618635E-15	1.303331E-17
3.130000E+03	1.616325E-15	1.291855E-17
3.140000E+03	1.613254E-15	1.279880E-17
3.150000E+03	1.609531E-15	1.267507E-17
3.160000E+03	1.605078E-15	1.254689E-17
3.170000E+03	1.599996E-15	1.241516E-17
3.180000E+03	1.594235E-15	1.227964E-17
3.190000E+03	1.587858E-15	1.214093E-17
3.200000E+03	1.580839E-15	1.199896E-17
3.210000E+03	1.573208E-15	1.185406E-17
3.220000E+03	1.564963E-15	1.170634E-17
3.230000E+03	1.556101E-15	1.155589E-17
3.240000E+03	1.546592E-15	1.140259E-17
3.250000E+03	1.536485E-15	1.124692E-17
3.260000E+03	1.525751E-15	1.108877E-17
3.270000E+03	1.514410E-15	1.092837E-17
3.280000E+03	1.502439E-15	1.076568E-17
3.290000E+03	1.489840E-15	1.060080E-17
3.300000E+03	1.476643E-15	1.043404E-17
3.310000E+03	1.462839E-15	1.026542E-17
3.320000E+03	1.448470E-15	1.009532E-17
3.330000E+03	1.433567E-15	9.924020E-18
3.340000E+03	1.418128E-15	9.751597E-18
3.350000E+03	1.402254E-15	9.578790E-18
3.360000E+03	1.386001E-15	9.406028E-18
3.370000E+03	1.369465E-15	9.234007E-18
3.380000E+03	1.352774E-15	9.063585E-18
3.390000E+03	1.336045E-15	8.895563E-18
3.400000E+03	1.319507E-15	8.731425E-18
3.410000E+03	1.303366E-15	8.572500E-18
3.420000E+03	1.287859E-15	8.420251E-18
3.430000E+03	1.273238E-15	8.276240E-18
3.440000E+03	1.259686E-15	8.141518E-18
3.450000E+03	1.247144E-15	8.015564E-18
3.460000E+03	1.235241E-15	7.895898E-18
3.470000E+03	1.223487E-15	7.779288E-18
3.480000E+03	1.212319E-15	7.668409E-18
3.490000E+03	1.201818E-15	7.563647E-18
3.500000E+03	1.192843E-15	7.470249E-18
3.510000E+03	1.186166E-15	7.392824E-18
3.520000E+03	1.182102E-15	7.333057E-18
3.530000E+03	1.180651E-15	7.290672E-18
3.540000E+03	1.181679E-15	7.264582E-18
3.550000E+03	1.185040E-15	7.253658E-18
3.560000E+03	1.190620E-15	7.256987E-18
3.570000E+03	1.198423E-15	7.274393E-18
3.580000E+03	1.208567E-15	7.306399E-18
3.590000E+03	1.221342E-15	7.354562E-18
3.600000E+03	1.236899E-15	7.419594E-18
3.610000E+03	1.254535E-15	7.497081E-18
3.620000E+03	1.273104E-15	7.580062E-18
3.630000E+03	1.291599E-15	7.662485E-18
3.640000E+03	1.309182E-15	7.739399E-18
3.650000E+03	1.325293E-15	7.807545E-18
3.660000E+03	1.339580E-15	7.864940E-18
3.670000E+03	1.351896E-15	7.910806E-18
3.680000E+03	1.362261E-15	7.945365E-18
3.690000E+03	1.370811E-15	7.969486E-18
3.700000E+03	1.377744E-15	7.984400E-18
3.710000E+03	1.383315E-15	7.991645E-18
3.720000E+03	1.387757E-15	7.992603E-18
3.730000E+03	1.391313E-15	7.988701E-18
3.740000E+03	1.394152E-15	7.980936E-18
3.750000E+03	1.396387E-15	7.969955E-18
3.760000E+03	1.398079E-15	7.956111E-18
3.770000E+03	1.399236E-15	7.939449E-18
3.780000E+03	1.399782E-15	7.919555E-18
3.790000E+03	1.399624E-15	7.895897E-18
3.800000E+03	1.398615E-15	7.867672E-18
3.810000E+03	1.396621E-15	7.834137E-18
3.820000E+03	1.393544E-15	7.794785E-18
3.830000E+03	1.389337E-15	7.749381E-18
3.840000E+03	1.383976E-15	7.697828E-18
3.850000E+03	1.377518E-15	7.640487E-18
3.860000E+03	1.370017E-15	7.577687E-18
3.870000E+03	1.361613E-15	7.510245E-18
3.880000E+03	1.352415E-15	7.438793E-18
3.890000E+03	1.342608E-15	7.364369E-18
3.900000E+03	1.332328E-15	7.287741E-18
3.910000E+03	1.321716E-15	7.209698E-18
3.920000E+03	1.310866E-15	7.130764E-18
3.930000E+03	1.299831E-15	7.051226E-18
3.940000E+03	1.288598E-15	6.971034E-18
3.950000E+03	1.277114E-15	6.889910E-18
3.960000E+03	1.265251E-15	6.807185E-18
3.970000E+03	1.252880E-15	6.722179E-18
3.980000E+03	1.239865E-15	6.634193E-18
3.990000E+03	1.226140E-15	6.542922E-18
4.000000E+03	1.211718E-15	6.448459E-18
4.010000E+03	1.196744E-15	6.351629E-18
4.020000E+03	1.181522E-15	6.254061E-18
4.030000E+03	1.166463E-15	6.157947E-18
4.040000E+03	1.151879E-15	6.064943E-18
4.050000E+03	1.138162E-15	5.977089E-18
4.060000E+03	1.125659E-15	5.896187E-18
4.070000E+03	1.114523E-15	5.822991E-18
4.080000E+03	1.104830E-15	5.757866E-18
4.090000E+03	1.096571E-15	5.700724E-18
4.100000E+03	1.089526E-15	5.650377E-18
4.110000E+03	1.083422E-15	5.605396E-18
4.120000E+03	1.078003E-15	5.564444E-18
4.130000E+03	1.072919E-15	5.525709E-18
4.140000E+03	1.067901E-15	5.487827E-18
4.150000E+03	1.062766E-15	5.449871E-18
4.160000E+03	1.057366E-15	5.411120E-18
4.170000E+03	1.051672E-15	5.371453E-18
4.180000E+03	1.045737E-15	5.331168E-18
4.190000E+03	1.039571E-15	5.290344E-18
4.200000E+03	1.033236E-15	5.249335E-18
4.210000E+03	1.026877E-15	5.208891E-18
4.220000E+03	1.020547E-15	5.169303E-18
4.230000E+03	1.014330E-15	5.131023E-18
4.240000E+03	1.008312E-15	5.094491E-18
4.250000E+03	1.002521E-15	5.059872E-18
4.260000E+03	9.969450E-16	5.027122E-18
4.270000E+03	9.915689E-16	4.996177E-18
4.280000E+03	9.863482E-16	4.966829E-18
4.290000E+03	9.812358E-16	4.938859E-18
4.300000E+03	9.762401E-16	4.912324E-18
4.310000E+03	9.715357E-16	4.888118E-18
4.320000E+03	9.673711E-16	4.867507E-18
4.330000E+03	9.640737E-16	4.852132E-18
4.340000E+03	9.621651E-16	4.844580E-18
4.350000E+03	9.621172E-16	4.847193E-18
4.360000E+03	9.644004E-16	4.862322E-18
4.370000E+03	9.693508E-16	4.891654E-18
4.380000E+03	9.752792E-16	4.926662E-18
4.390000E+03	9.806479E-16	4.959556E-18
4.400000E+03	9.846294E-16	4.986106E-18
4.410000E+03	9.869930E-16	5.005081E-18
4.420000E+03	9.877237E-16	5.016333E-18
4.430000E+03	9.871003E-16	5.021203E-18
4.440000E+03	9.854241E-16	5.021151E-18
4.450000E+03	9.829872E-16	5.017599E-18
4.460000E+03	9.801177E-16	5.012162E-18
4.470000E+03	9.771094E-16	5.006290E-18
4.480000E+03	9.741603E-16	5.000955E-18
4.490000E+03	9.712677E-16	4.996105E-18
4.500000E+03	9.683846E-16	4.991460E-18
4.510000E+03	9.654438E-16	4.986636E-18
4.520000E+03	9.623773E-16	4.981244E-18
4.530000E+03	9.591399E-16	4.975009E-18
4.540000E+03	9.557034E-16	4.967746E-18
4.550000E+03	9.520943E-16	4.959555E-18
4.560000E+03	9.483409E-16	4.950546E-18
4.570000E+03	9.444740E-16	4.940847E-18
4.580000E+03	9.404813E-16	4.930362E-18
4.590000E+03	9.363455E-16	4.918969E-18
4.600000E+03	9.319906E-16	4.906239E-18
4.610000E+03	9.273167E-16	4.891616E-18
4.620000E+03	9.221567E-16	4.874183E-18
4.630000E+03	9.163498E-16	4.853055E-18
4.640000E+03	9.097808E-16	4.827584E-18
4.650000E+03	9.023491E-16	4.797195E-18
4.660000E+03	8.939666E-16	4.761380E-18
4.670000E+03	8.847195E-16	4.720561E-18
4.680000E+03	8.747119E-16	4.675262E-18
4.690000E+03	8.640734E-16	4.626149E-18
4.700000E+03	8.530639E-16	4.574596E-18
4.710000E+03	8.419221E-16	4.521875E-18
4.720000E+03	8.308636E-16	4.469141E-18
4.730000E+03	8.200808E-16	4.417435E-18
4.740000E+03	8.097439E-16	4.367686E-18
4.750000E+03	7.999569E-16	4.320468E-18
4.760000E+03	7.908182E-16	4.276331E-18
4.770000E+03	7.823864E-16	4.235611E-18
4.780000E+03	7.746992E-16	4.198530E-18
4.790000E+03	7.677179E-16	4.164899E-18
4.800000E+03	7.613877E-16	4.134439E-18
4.810000E+03	7.556428E-16	4.106808E-18
4.820000E+03	7.503939E-16	4.081538E-18
4.830000E+03	7.455401E-16	4.058092E-18
4.840000E+03	7.409825E-16	4.035946E-18
4.850000E+03	7.366756E-16	4.014865E-18
4.860000E+03	7.325688E-16	3.994583E-18
4.870000E+03	7.286124E-16	3.974843E-18
4.880000E+03	7.248189E-16	3.955725E-18
4.890000E+03	7.212098E-16	3.937360E-18
4.900000E+03	7.177764E-16	3.919712E-18
4.910000E+03	7.145574E-16	3.903010E-18
4.920000E+03	7.115593E-16	3.887302E-18
4.930000E+03	7.087710E-16	3.872543E-18
4.940000E+03	7.061984E-16	3.858782E-18
4.950000E+03	7.038287E-16	3.845965E-18
4.960000E+03	7.016320E-16	3.833945E-18
4.970000E+03	6.996027E-16	3.822710E-18
4.980000E+03	6.977133E-16	3.812128E-18
4.990000E+03	6.959603E-16	3.802199E-18
5.000000E+03	6.943212E-16	3.792820E-18
5.010000E+03	6.927716E-16	3.783878E-18
5.020000E+03	6.912918E-16	3.775289E-18
5.030000E+03	6.898299E-16	3.766790E-18
5.040000E+03	6.883336E-16	3.758121E-18
5.050000E+03	6.867476E-16	3.749004E-18
5.060000E+03	6.850053E-16	3.739102E-18
5.070000E+03	6.830404E-16	3.728077E-18
5.080000E+03	6.808179E-16	3.715769E-18
5.090000E+03	6.783173E-16	3.702091E-18
5.100000E+03	6.755407E-16	3.687085E-18
5.110000E+03	6.724931E-16	3.670803E-18
5.120000E+03	6.692013E-16	3.653423E-18
5.130000E+03	6.656684E-16	3.634988E-18
5.140000E+03	6.619100E-16	3.615611E-18
5.150000E+03	6.578979E-16	3.595165E-18
5.160000E+03	6.536136E-16	3.573576E-18
5.170000E+03	6.490229E-16	3.550681E-18
5.180000E+03	6.440917E-16	3.526318E-18
5.190000E+03	6.388093E-16	3.500450E-18
5.200000E+03	6.331792E-16	3.473115E-18
5.210000E+03	6.272591E-16	3.444648E-18
5.220000E+03	6.211349E-16	3.415535E-18
5.230000E+03	6.149023E-16	3.386320E-18
5.240000E+03	6.086727E-16	3.357633E-18
5.250000E+03	6.025609E-16	3.330125E-18
5.260000E+03	5.966865E-16	3.304479E-18
5.270000E+03	5.911158E-16	3.281087E-18
5.280000E+03	5.859143E-16	3.260339E-18
5.290000E+03	5.811395E-16	3.242587E-18
5.300000E+03	5.767962E-16	3.227895E-18
5.310000E+03	5.728833E-16	3.216290E-18
5.320000E+03	5.693858E-16	3.207731E-18
5.330000E+03	5.662460E-16	3.201930E-18
5.340000E+03	5.633897E-16	3.198508E-18
5.350000E+03	5.607201E-16	3.196948E-18
5.360000E+03	5.580135E-16	3.196000E-18
5.370000E+03	5.550488E-16	3.194403E-18
5.380000E+03	5.516594E-16	3.191185E-18
5.390000E+03	5.477553E-16	3.185793E-18
5.400000E+03	5.433473E-16	3.178246E-18
5.410000E+03	5.386747E-16	3.169890E-18
5.420000E+03	5.343100E-16	3.164049E-18
5.430000E+03	5.310804E-16	3.165646E-18
5.440000E+03	5.297038E-16	3.179085E-18
5.450000E+03	5.296590E-16	3.201418E-18
5.460000E+03	5.302788E-16	3.228732E-18
5.470000E+03	5.309863E-16	3.257561E-18
5.480000E+03	5.310797E-16	3.283560E-18
5.490000E+03	5.299841E-16	3.303036E-18
5.500000E+03	5.274994E-16	3.314531E-18
5.510000E+03	5.237908E-16	3.318842E-18
5.520000E+03	5.192615E-16	3.318314E-18
5.530000E+03	5.143276E-16	3.315453E-18
5.540000E+03	5.092483E-16	3.311834E-18
5.550000E+03	5.042288E-16	3.308734E-18
5.560000E+03	4.994290E-16	3.307182E-18
5.570000E+03	4.949214E-16	3.307659E-18
5.580000E+03	4.907484E-16	3.310469E-18
5.590000E+03	4.869673E-16	3.316027E-18
5.600000E+03	4.835485E-16	3.324170E-18
5.610000E+03	4.804833E-16	3.334879E-18
5.620000E+03	4.777665E-16	3.348156E-18
5.630000E+03	4.753088E-16	3.363412E-18
5.640000E+03	4.730459E-16	3.380214E-18
5.650000E+03	4.709154E-16	3.398128E-18
5.660000E+03	4.688480E-16	3.416652E-18
5.670000E+03	4.668116E-16	3.435540E-18
5.680000E+03	4.647684E-16	3.454496E-18
5.690000E+03	4.626962E-16	3.473331E-18
5.700000E+03	4.605912E-16	3.491986E-18
5.710000E+03	4.584588E-16	3.510477E-18
5.720000E+03	4.562899E-16	3.528706E-18
5.730000E+03	4.540915E-16	3.546700E-18
5.740000E+03	4.518914E-16	3.564653E-18
5.750000E+03	4.497029E-16	3.582652E-18
5.760000E+03	4.475372E-16	3.600771E-18
5.770000E+03	4.454358E-16	3.619338E-18
5.780000E+03	4.433862E-16	3.638249E-18
5.790000E+03	4.413968E-16	3.657569E-18
5.800000E+03	4.394550E-16	3.677193E-18
5.810000E+03	4.375075E-16	3.696669E-18
5.820000E+03	4.354920E-16	3.715450E-18
5.830000E+03	4.333576E-16	3.733066E-18
5.840000E+03	4.310300E-16	3.748829E-18
5.850000E+03	4.284508E-16	3.762167E-18
5.860000E+03	4.255951E-16	3.772780E-18
5.870000E+03	4.224735E-16	3.780685E-18
5.880000E+03	4.191091E-16	3.786008E-18
5.890000E+03	4.155588E-16	3.789198E-18
5.900000E+03	4.118698E-16	3.790628E-18
5.910000E+03	4.081121E-16	3.790902E-18
5.920000E+03	4.043520E-16	3.790614E-18
5.930000E+03	4.006160E-16	3.790005E-18
5.940000E+03	3.969457E-16	3.789467E-18
5.950000E+03	3.933790E-16	3.789374E-18
5.960000E+03	3.899030E-16	3.789618E-18
5.970000E+03	3.865245E-16	3.790283E-18
5.980000E+03	3.832476E-16	3.791426E-18
5.990000E+03	3.800705E-16	3.793049E-18
6.000000E+03	3.769969E-16	3.795208E-18
6.010000E+03	3.740360E-16	3.798017E-18
6.020000E+03	3.711927E-16	3.801549E-18
6.030000E+03	3.684614E-16	3.805773E-18
6.040000E+03	3.658626E-16	3.810927E-18
6.050000E+03	3.634024E-16	3.817102E-18
6.060000E+03	3.611055E-16	3.824593E-18
6.070000E+03	3.589870E-16	3.833600E-18
6.080000E+03	3.570477E-16	3.844174E-18
6.090000E+03	3.552816E-16	3.856292E-18
6.100000E+03	3.536754E-16	3.869852E-18
6.110000E+03	3.521953E-16	3.884518E-18
6.120000E+03	3.507909E-16	3.899760E-18
6.130000E+03	3.494391E-16	3.915336E-18
6.140000E+03	3.481063E-16	3.930877E-18
6.150000E+03	3.467862E-16	3.946315E-18
6.160000E+03	3.454763E-16	3.961618E-18
6.170000E+03	3.442080E-16	3.977152E-18
6.180000E+03	3.430131E-16	3.993295E-18
6.190000E+03	3.419252E-16	4.010458E-18
6.200000E+03	3.409111E-16	4.028273E-18
6.210000E+03	3.399263E-16	4.046228E-18
6.220000E+03	3.388513E-16	4.062897E-18
6.230000E+03	3.373653E-16	4.074378E-18
6.240000E+03	3.351899E-16	4.077178E-18
6.250000E+03	3.323945E-16	4.071964E-18
6.260000E+03	3.293221E-16	4.062807E-18
6.270000E+03	3.263714E-16	4.054587E-18
6.280000E+03	3.238842E-16	4.051610E-18
6.290000E+03	3.219782E-16	4.055478E-18
6.300000E+03	3.206728E-16	4.066588E-18
6.310000E+03	3.199624E-16	4.085017E-18
6.320000E+03	3.197628E-16	4.109840E-18
6.330000E+03	3.199707E-16	4.139848E-18
6.340000E+03	3.204790E-16	4.173748E-18
6.350000E+03	3.211901E-16	4.210337E-18
6.360000E+03	3.220140E-16	4.248477E-18
6.370000E+03	3.228741E-16	4.287178E-18
6.380000E+03	3.236920E-16	4.325399E-18
6.390000E+03	3.244045E-16	4.362278E-18
6.400000E+03	3.249673E-16	4.397188E-18
6.410000E+03	3.253587E-16	4.429793E-18
6.420000E+03	3.255668E-16	4.459886E-18
6.430000E+03	3.255818E-16	4.487283E-18
6.440000E+03	3.254347E-16	4.512368E-18
6.450000E+03	3.251478E-16	4.535406E-18
6.460000E+03	3.247466E-16	4.556723E-18
6.470000E+03	3.242562E-16	4.576640E-18
6.480000E+03	3.236847E-16	4.595254E-18
6.490000E+03	3.230526E-16	4.612833E-18
6.500000E+03	3.223614E-16	4.629384E-18
6.510000E+03	3.216172E-16	4.644983E-18
6.520000E+03	3.208140E-16	4.659525E-18
6.530000E+03	3.199693E-16	4.673255E-18
6.540000E+03	3.190788E-16	4.686097E-18
6.550000E+03	3.181579E-16	4.698267E-18
6.560000E+03	3.172211E-16	4.709975E-18
6.570000E+03	3.162797E-16	4.721384E-18
6.580000E+03	3.153533E-16	4.732788E-18
6.590000E+03	3.144508E-16	4.744326E-18
6.600000E+03	3.135720E-16	4.755998E-18
6.610000E+03	3.127164E-16	4.767803E-18
6.620000E+03	3.118765E-16	4.779633E-18
6.630000E+03	3.110466E-16	4.791401E-18
6.640000E+03	3.102028E-16	4.802744E-18
6.650000E+03	3.093352E-16	4.813500E-18
6.660000E+03	3.084286E-16	4.823431E-18
6.670000E+03	3.074655E-16	4.832248E-18
6.680000E+03	3.064414E-16	4.839869E-18
6.690000E+03	3.053444E-16	4.846094E-18
6.700000E+03	3.041763E-16	4.850932E-18
6.710000E+03	3.029266E-16	4.854200E-18
6.720000E+03	3.016020E-16	4.855987E-18
6.730000E+03	3.002090E-16	4.856383E-18
6.740000E+03	2.987372E-16	4.855204E-18
6.750000E+03	2.971914E-16	4.852512E-18
6.760000E+03	2.955657E-16	4.848193E-18
6.770000E+03	2.938639E-16	4.842292E-18
6.780000E+03	2.920806E-16	4.834705E-18
6.790000E+03	2.902193E-16	4.825473E-18
6.800000E+03	2.882929E-16	4.814797E-18
6.810000E+03	2.863028E-16	4.802685E-18
6.820000E+03	2.842748E-16	4.789560E-18
6.830000E+03	2.822195E-16	4.775594E-18
6.840000E+03	2.801692E-16	4.761331E-18
6.850000E+03	2.781356E-16	4.746976E-18
6.860000E+03	2.761402E-16	4.732902E-18
6.870000E+03	2.742059E-16	4.719509E-18
6.880000E+03	2.723449E-16	4.707027E-18
6.890000E+03	2.705543E-16	4.695422E-18
6.900000E+03	2.688456E-16	4.684910E-18
6.910000E+03	2.672109E-16	4.675372E-18
6.920000E+03	2.656525E-16	4.666868E-18
6.930000E+03	2.641560E-16	4.659156E-18
6.940000E+03	2.627218E-16	4.652262E-18
6.950000E+03	2.613514E-16	4.646225E-18
6.960000E+03	2.600428E-16	4.641024E-18
6.970000E+03	2.588039E-16	4.636814E-18
6.980000E+03	2.576412E-16	4.633730E-18
6.990000E+03	2.565554E-16	4.631797E-18
7.000000E+03	2.555494E-16	4.631088E-18
7.010000E+03	2.546244E-16	4.631642E-18
7.020000E+03	2.537830E-16	4.633520E-18
7.030000E+03	2.530084E-16	4.636435E-18
7.040000E+03	2.523013E-16	4.640414E-18
7.050000E+03	2.516390E-16	4.645052E-18
7.060000E+03	2.510118E-16	4.650179E-18
7.070000E+03	2.504003E-16	4.655440E-18
7.080000E+03	2.497946E-16	4.660656E-18
7.090000E+03	2.491797E-16	4.665547E-18
7.100000E+03	2.485379E-16	4.669781E-18
7.110000E+03	2.478530E-16	4.673044E-18
7.120000E+03	2.471253E-16	4.675338E-18
7.130000E+03	2.463451E-16	4.676469E-18
7.140000E+03	2.455095E-16	4.676371E-18
7.150000E+03	2.446181E-16	4.675029E-18
7.160000E+03	2.436693E-16	4.672403E-18
7.170000E+03	2.426726E-16	4.668664E-18
7.180000E+03	2.416273E-16	4.663790E-18
7.190000E+03	2.405388E-16	4.657878E-18
7.200000E+03	2.394160E-16	4.651095E-18
7.210000E+03	2.382561E-16	4.643379E-18
7.220000E+03	2.370664E-16	4.634869E-18
7.230000E+03	2.358378E-16	4.625380E-18
7.240000E+03	2.345754E-16	4.615007E-18
7.250000E+03	2.332807E-16	4.603775E-18
7.260000E+03	2.319554E-16	4.591713E-18
7.270000E+03	2.306017E-16	4.578858E-18
7.280000E+03	2.292237E-16	4.565292E-18
7.290000E+03	2.278212E-16	4.551006E-18
7.300000E+03	2.264032E-16	4.536176E-18
7.310000E+03	2.249749E-16	4.520908E-18
7.320000E+03	2.235398E-16	4.505267E-18
7.330000E+03	2.220946E-16	4.489191E-18
7.340000E+03	2.206463E-16	4.472819E-18
7.350000E+03	2.192002E-16	4.456262E-18
7.360000E+03	2.177470E-16	4.439331E-18
7.370000E+03	2.162964E-16	4.422222E-18
7.380000E+03	2.148547E-16	4.405071E-18
7.390000E+03	2.134361E-16	4.388168E-18
7.400000E+03	2.120509E-16	4.371732E-18
7.410000E+03	2.107212E-16	4.356229E-18
7.420000E+03	2.094700E-16	4.342143E-18
7.430000E+03	2.083122E-16	4.329800E-18
7.440000E+03	2.072750E-16	4.319785E-18
7.450000E+03	2.063627E-16	4.312205E-18
7.460000E+03	2.055897E-16	4.307388E-18
7.470000E+03	2.049559E-16	4.305355E-18
7.480000E+03	2.044647E-16	4.306197E-18
7.490000E+03	2.041015E-16	4.309634E-18
7.500000E+03	2.038614E-16	4.315581E-18
7.510000E+03	2.037309E-16	4.323773E-18
7.520000E+03	2.036899E-16	4.333800E-18
7.530000E+03	2.037292E-16	4.345480E-18
7.540000E+03	2.038171E-16	4.358149E-18
7.550000E+03	2.039348E-16	4.371411E-18
7.560000E+03	2.040518E-16	4.384616E-18
7.570000E+03	2.041473E-16	4.397315E-18
7.580000E+03	2.041937E-16	4.408910E-18
7.590000E+03	2.041774E-16	4.419099E-18
7.600000E+03	2.040805E-16	4.427482E-18
7.610000E+03	2.038979E-16	4.433940E-18
7.620000E+03	2.036369E-16	4.438614E-18
7.630000E+03	2.033015E-16	4.441584E-18
7.640000E+03	2.029077E-16	4.443189E-18
7.650000E+03	2.024801E-16	4.443958E-18
7.660000E+03	2.020348E-16	4.444243E-18
7.670000E+03	2.015990E-16	4.444641E-18
7.680000E+03	2.011826E-16	4.445373E-18
7.690000E+03	2.008123E-16	4.447031E-18
7.700000E+03	2.005015E-16	4.449924E-18
7.710000E+03	2.002552E-16	4.454169E-18
7.720000E+03	2.000838E-16	4.460010E-18
7.730000E+03	1.999855E-16	4.467416E-18
7.740000E+03	1.999592E-16	4.476371E-18
7.750000E+03	2.000045E-16	4.486883E-18
7.760000E+03	2.001135E-16	4.498779E-18
