#wls	flux	fluxerr
1.600000E+03	2.179823E-16	9.863817E-21
1.640000E+03	2.327023E-16	1.052990E-20
1.680000E+03	2.466484E-16	1.116097E-20
1.720000E+03	2.591003E-16	1.172443E-20
1.760000E+03	2.693427E-16	1.218790E-20
1.800000E+03	2.765361E-16	1.251340E-20
1.840000E+03	2.799814E-16	1.266930E-20
1.880000E+03	2.793024E-16	1.263858E-20
1.920000E+03	2.745827E-16	1.242501E-20
1.960000E+03	2.669717E-16	1.208061E-20
2.000000E+03	2.593250E-16	1.173459E-20
2.040000E+03	2.576197E-16	1.165742E-20
2.080000E+03	2.721456E-16	1.231473E-20
2.120000E+03	3.133041E-16	1.417717E-20
2.160000E+03	3.812222E-16	1.725050E-20
2.200000E+03	4.686904E-16	2.120848E-20
2.240000E+03	5.656735E-16	2.559701E-20
2.280000E+03	6.603525E-16	2.988128E-20
2.320000E+03	7.404458E-16	3.350554E-20
2.360000E+03	7.955979E-16	3.600120E-20
2.400000E+03	8.188848E-16	3.705494E-20
2.440000E+03	8.082547E-16	3.657392E-20
2.480000E+03	7.675012E-16	3.472981E-20
2.520000E+03	7.065097E-16	3.196991E-20
2.560000E+03	6.429475E-16	2.909369E-20
2.600000E+03	6.066995E-16	2.745345E-20
2.640000E+03	6.369584E-16	2.882267E-20
2.680000E+03	7.335810E-16	3.319489E-20
2.720000E+03	8.662582E-16	3.919860E-20
2.760000E+03	1.012737E-15	4.582682E-20
2.800000E+03	1.158270E-15	5.241229E-20
2.840000E+03	1.292422E-15	5.848272E-20
2.880000E+03	1.408197E-15	6.372160E-20
2.920000E+03	1.501692E-15	6.795229E-20
2.960000E+03	1.571738E-15	7.112187E-20
3.000000E+03	1.619239E-15	7.327131E-20
3.010000E+03	1.627879E-15	7.366228E-20
3.020000E+03	1.635253E-15	7.399595E-20
3.030000E+03	1.641471E-15	7.427733E-20
3.040000E+03	1.646533E-15	7.450640E-20
3.050000E+03	1.650513E-15	7.468649E-20
3.060000E+03	1.653484E-15	7.482092E-20
3.070000E+03	1.655411E-15	7.490812E-20
3.080000E+03	1.656435E-15	7.495446E-20
3.090000E+03	1.656522E-15	7.495839E-20
3.100000E+03	1.655771E-15	7.492443E-20
3.110000E+03	1.654180E-15	7.485241E-20
3.120000E+03	1.651778E-15	7.474370E-20
3.130000E+03	1.648655E-15	7.460240E-20
3.140000E+03	1.644771E-15	7.442663E-20
3.150000E+03	1.640240E-15	7.422164E-20
3.160000E+03	1.634989E-15	7.398402E-20
3.170000E+03	1.629123E-15	7.371857E-20
3.180000E+03	1.622595E-15	7.342318E-20
3.190000E+03	1.615474E-15	7.310097E-20
3.200000E+03	1.607741E-15	7.275102E-20
3.210000E+03	1.599428E-15	7.237485E-20
3.220000E+03	1.590540E-15	7.197268E-20
3.230000E+03	1.581081E-15	7.154463E-20
3.240000E+03	1.571026E-15	7.108967E-20
3.250000E+03	1.560433E-15	7.061029E-20
3.260000E+03	1.549278E-15	7.010555E-20
3.270000E+03	1.537595E-15	6.957687E-20
3.280000E+03	1.525366E-15	6.902350E-20
3.290000E+03	1.512605E-15	6.844609E-20
3.300000E+03	1.499356E-15	6.784654E-20
3.310000E+03	1.485622E-15	6.722509E-20
3.320000E+03	1.471462E-15	6.658434E-20
3.330000E+03	1.456920E-15	6.592631E-20
3.340000E+03	1.442015E-15	6.525184E-20
3.350000E+03	1.426868E-15	6.456642E-20
3.360000E+03	1.411553E-15	6.387344E-20
3.370000E+03	1.396192E-15	6.317833E-20
3.380000E+03	1.380930E-15	6.248774E-20
3.390000E+03	1.365906E-15	6.180788E-20
3.400000E+03	1.351356E-15	6.114946E-20
3.410000E+03	1.337485E-15	6.052179E-20
3.420000E+03	1.324502E-15	5.993434E-20
3.430000E+03	1.312596E-15	5.939557E-20
3.440000E+03	1.301813E-15	5.890765E-20
3.450000E+03	1.291834E-15	5.845607E-20
3.460000E+03	1.281795E-15	5.800182E-20
3.470000E+03	1.270243E-15	5.747907E-20
3.480000E+03	1.256657E-15	5.686428E-20
3.490000E+03	1.242107E-15	5.620589E-20
3.500000E+03	1.228569E-15	5.559333E-20
3.510000E+03	1.217372E-15	5.508664E-20
3.520000E+03	1.209090E-15	5.471185E-20
3.530000E+03	1.203831E-15	5.447390E-20
3.540000E+03	1.201479E-15	5.436749E-20
3.550000E+03	1.201864E-15	5.438488E-20
3.560000E+03	1.204823E-15	5.451880E-20
3.570000E+03	1.210305E-15	5.476683E-20
3.580000E+03	1.218377E-15	5.513211E-20
3.590000E+03	1.229314E-15	5.562703E-20
3.600000E+03	1.243301E-15	5.625992E-20
3.610000E+03	1.259521E-15	5.699391E-20
3.620000E+03	1.276724E-15	5.777235E-20
3.630000E+03	1.293851E-15	5.854735E-20
3.640000E+03	1.310043E-15	5.928004E-20
3.650000E+03	1.324743E-15	5.994521E-20
3.660000E+03	1.337621E-15	6.052797E-20
3.670000E+03	1.348556E-15	6.102277E-20
3.680000E+03	1.357599E-15	6.143194E-20
3.690000E+03	1.364916E-15	6.176305E-20
3.700000E+03	1.370729E-15	6.202608E-20
3.710000E+03	1.375314E-15	6.223356E-20
3.720000E+03	1.378921E-15	6.239679E-20
3.730000E+03	1.381802E-15	6.252716E-20
3.740000E+03	1.384131E-15	6.263257E-20
3.750000E+03	1.386022E-15	6.271810E-20
3.760000E+03	1.387529E-15	6.278629E-20
3.770000E+03	1.388650E-15	6.283703E-20
3.780000E+03	1.389299E-15	6.286642E-20
3.790000E+03	1.389363E-15	6.286930E-20
3.800000E+03	1.388672E-15	6.283804E-20
3.810000E+03	1.387071E-15	6.276559E-20
3.820000E+03	1.384446E-15	6.264678E-20
3.830000E+03	1.380733E-15	6.247879E-20
3.840000E+03	1.375908E-15	6.226043E-20
3.850000E+03	1.370026E-15	6.199427E-20
3.860000E+03	1.363137E-15	6.168255E-20
3.870000E+03	1.355383E-15	6.133169E-20
3.880000E+03	1.346878E-15	6.094685E-20
3.890000E+03	1.337811E-15	6.053656E-20
3.900000E+03	1.328330E-15	6.010754E-20
3.910000E+03	1.318587E-15	5.966664E-20
3.920000E+03	1.308680E-15	5.921835E-20
3.930000E+03	1.298666E-15	5.876521E-20
3.940000E+03	1.288527E-15	5.830641E-20
3.950000E+03	1.278200E-15	5.783911E-20
3.960000E+03	1.267535E-15	5.735654E-20
3.970000E+03	1.256374E-15	5.685148E-20
3.980000E+03	1.244543E-15	5.631611E-20
3.990000E+03	1.231938E-15	5.574575E-20
4.000000E+03	1.218540E-15	5.513946E-20
4.002000E+03	1.108384E-15	5.015486E-20
4.004000E+03	1.108793E-15	5.017337E-20
4.006000E+03	1.107309E-15	5.010621E-20
4.008000E+03	1.105624E-15	5.003000E-20
4.010000E+03	1.103702E-15	4.994303E-20
4.012000E+03	1.101818E-15	4.985777E-20
4.014000E+03	1.100089E-15	4.977952E-20
4.016000E+03	1.096899E-15	4.963514E-20
4.018000E+03	1.092720E-15	4.944606E-20
4.020000E+03	1.089367E-15	4.929432E-20
4.022000E+03	1.086011E-15	4.914250E-20
4.024000E+03	1.083364E-15	4.902272E-20
4.026000E+03	1.079886E-15	4.886531E-20
4.028000E+03	1.076957E-15	4.873280E-20
4.030000E+03	1.073910E-15	4.859488E-20
4.032000E+03	1.070425E-15	4.843719E-20
4.034000E+03	1.067608E-15	4.830974E-20
4.036000E+03	1.064395E-15	4.816434E-20
4.038000E+03	1.061377E-15	4.802780E-20
4.040000E+03	1.059976E-15	4.796438E-20
4.042000E+03	1.058652E-15	4.790447E-20
4.044000E+03	1.057168E-15	4.783734E-20
4.046000E+03	1.054695E-15	4.772543E-20
4.048000E+03	1.051944E-15	4.760093E-20
4.050000E+03	1.049664E-15	4.749775E-20
4.052000E+03	1.047540E-15	4.740167E-20
4.054000E+03	1.045652E-15	4.731622E-20
4.056000E+03	1.043722E-15	4.722889E-20
4.058000E+03	1.042818E-15	4.718798E-20
4.060000E+03	1.042268E-15	4.716308E-20
4.062000E+03	1.041162E-15	4.711305E-20
4.064000E+03	1.039818E-15	4.705223E-20
4.066000E+03	1.039302E-15	4.702887E-20
4.068000E+03	1.038982E-15	4.701439E-20
4.070000E+03	1.037514E-15	4.694796E-20
4.072000E+03	1.036400E-15	4.689758E-20
4.074000E+03	1.036036E-15	4.688108E-20
4.076000E+03	1.036104E-15	4.688419E-20
4.078000E+03	1.034787E-15	4.682459E-20
4.080000E+03	1.034061E-15	4.679174E-20
4.082000E+03	1.034996E-15	4.683401E-20
4.084000E+03	1.036482E-15	4.690128E-20
4.086000E+03	1.036899E-15	4.692012E-20
4.088000E+03	1.037670E-15	4.695503E-20
4.090000E+03	1.037569E-15	4.695047E-20
4.092000E+03	1.038298E-15	4.698346E-20
4.094000E+03	1.038906E-15	4.701095E-20
4.096000E+03	1.039037E-15	4.701691E-20
4.098000E+03	1.039485E-15	4.703715E-20
4.100000E+03	1.039890E-15	4.705550E-20
4.102000E+03	1.041125E-15	4.711136E-20
4.104000E+03	1.043585E-15	4.722269E-20
4.106000E+03	1.044976E-15	4.728562E-20
4.108000E+03	1.045890E-15	4.732697E-20
4.110000E+03	1.046287E-15	4.734494E-20
4.112000E+03	1.047790E-15	4.741298E-20
4.114000E+03	1.048620E-15	4.745053E-20
4.116000E+03	1.048933E-15	4.746469E-20
4.118000E+03	1.049205E-15	4.747699E-20
4.120000E+03	1.049555E-15	4.749281E-20
4.122000E+03	1.049586E-15	4.749422E-20
4.124000E+03	1.048704E-15	4.745434E-20
4.126000E+03	1.049603E-15	4.749501E-20
4.128000E+03	1.049351E-15	4.748361E-20
4.130000E+03	1.048149E-15	4.742920E-20
4.132000E+03	1.047340E-15	4.739258E-20
4.134000E+03	1.047202E-15	4.738634E-20
4.136000E+03	1.048764E-15	4.745704E-20
4.138000E+03	1.050049E-15	4.751517E-20
4.140000E+03	1.049153E-15	4.747463E-20
4.142000E+03	1.047068E-15	4.738029E-20
4.144000E+03	1.046802E-15	4.736825E-20
4.146000E+03	1.048158E-15	4.742962E-20
4.148000E+03	1.047058E-15	4.737983E-20
4.150000E+03	1.044173E-15	4.724930E-20
4.152000E+03	1.038515E-15	4.699328E-20
4.154000E+03	1.034597E-15	4.681598E-20
4.156000E+03	1.033886E-15	4.678379E-20
4.158000E+03	1.035231E-15	4.684466E-20
4.160000E+03	1.034832E-15	4.682662E-20
4.162000E+03	1.031819E-15	4.669025E-20
4.164000E+03	1.028486E-15	4.653944E-20
4.166000E+03	1.028003E-15	4.651758E-20
4.168000E+03	1.028152E-15	4.652433E-20
4.170000E+03	1.028773E-15	4.655245E-20
4.172000E+03	1.028641E-15	4.654648E-20
4.174000E+03	1.028389E-15	4.653507E-20
4.176000E+03	1.027462E-15	4.649309E-20
4.178000E+03	1.024552E-15	4.636144E-20
4.180000E+03	1.024412E-15	4.635510E-20
4.182000E+03	1.025261E-15	4.639352E-20
4.184000E+03	1.027177E-15	4.648023E-20
4.186000E+03	1.027983E-15	4.651669E-20
4.188000E+03	1.027717E-15	4.650464E-20
4.190000E+03	1.025787E-15	4.641731E-20
4.192000E+03	1.024489E-15	4.635857E-20
4.194000E+03	1.024020E-15	4.633736E-20
4.196000E+03	1.022876E-15	4.628558E-20
4.198000E+03	1.021374E-15	4.621763E-20
4.200000E+03	1.020306E-15	4.616932E-20
4.202000E+03	1.018642E-15	4.609402E-20
4.204000E+03	1.019788E-15	4.614584E-20
4.206000E+03	1.019110E-15	4.611519E-20
4.208000E+03	1.018550E-15	4.608983E-20
4.210000E+03	1.015494E-15	4.595156E-20
4.212000E+03	1.013663E-15	4.586870E-20
4.214000E+03	1.012583E-15	4.581981E-20
4.216000E+03	1.012529E-15	4.581739E-20
4.218000E+03	1.011643E-15	4.577731E-20
4.220000E+03	1.009094E-15	4.566193E-20
4.222000E+03	1.010023E-15	4.570401E-20
4.224000E+03	1.012059E-15	4.579612E-20
4.226000E+03	1.011087E-15	4.575213E-20
4.228000E+03	1.010468E-15	4.572413E-20
4.230000E+03	1.008741E-15	4.564597E-20
4.232000E+03	1.009740E-15	4.569120E-20
4.234000E+03	1.011884E-15	4.578821E-20
4.236000E+03	1.012405E-15	4.581178E-20
4.238000E+03	1.012607E-15	4.582091E-20
4.240000E+03	1.013677E-15	4.586934E-20
4.242000E+03	1.015378E-15	4.594630E-20
4.244000E+03	1.015258E-15	4.594088E-20
4.246000E+03	1.014978E-15	4.592819E-20
4.248000E+03	1.017186E-15	4.602813E-20
4.250000E+03	1.018601E-15	4.609217E-20
4.252000E+03	1.017722E-15	4.605238E-20
4.254000E+03	1.016604E-15	4.600179E-20
4.256000E+03	1.017381E-15	4.603696E-20
4.258000E+03	1.019143E-15	4.611667E-20
4.260000E+03	1.019600E-15	4.613734E-20
4.262000E+03	1.021081E-15	4.620436E-20
4.264000E+03	1.023547E-15	4.631595E-20
4.266000E+03	1.025379E-15	4.639885E-20
4.268000E+03	1.026181E-15	4.643516E-20
4.270000E+03	1.024377E-15	4.635349E-20
4.272000E+03	1.023635E-15	4.631994E-20
4.274000E+03	1.025103E-15	4.638634E-20
4.276000E+03	1.026687E-15	4.645803E-20
4.278000E+03	1.026334E-15	4.644207E-20
4.280000E+03	1.027124E-15	4.647780E-20
4.282000E+03	1.030791E-15	4.664376E-20
4.284000E+03	1.033785E-15	4.677924E-20
4.286000E+03	1.036027E-15	4.688070E-20
4.288000E+03	1.038226E-15	4.698021E-20
4.290000E+03	1.039635E-15	4.704395E-20
4.292000E+03	1.040646E-15	4.708969E-20
4.294000E+03	1.041852E-15	4.714425E-20
4.296000E+03	1.042780E-15	4.718624E-20
4.298000E+03	1.043271E-15	4.720848E-20
4.300000E+03	1.044627E-15	4.726984E-20
4.302000E+03	1.046217E-15	4.734180E-20
4.304000E+03	1.045992E-15	4.733161E-20
4.306000E+03	1.045647E-15	4.731599E-20
4.308000E+03	1.046954E-15	4.737515E-20
4.310000E+03	1.049046E-15	4.746978E-20
4.312000E+03	1.050151E-15	4.751980E-20
4.314000E+03	1.050977E-15	4.755718E-20
4.316000E+03	1.051447E-15	4.757843E-20
4.318000E+03	1.051953E-15	4.760134E-20
4.320000E+03	1.052260E-15	4.761524E-20
4.322000E+03	1.053471E-15	4.767002E-20
4.324000E+03	1.055977E-15	4.778340E-20
4.326000E+03	1.057613E-15	4.785745E-20
4.328000E+03	1.059089E-15	4.792425E-20
4.330000E+03	1.059580E-15	4.794648E-20
4.332000E+03	1.057748E-15	4.786356E-20
4.334000E+03	1.054853E-15	4.773257E-20
4.336000E+03	1.054079E-15	4.769753E-20
4.338000E+03	1.056367E-15	4.780107E-20
4.340000E+03	1.058102E-15	4.787957E-20
4.342000E+03	1.058537E-15	4.789928E-20
4.344000E+03	1.057596E-15	4.785669E-20
4.346000E+03	1.055749E-15	4.777310E-20
4.348000E+03	1.056924E-15	4.782626E-20
4.350000E+03	1.058958E-15	4.791831E-20
4.352000E+03	1.058910E-15	4.791613E-20
4.354000E+03	1.058231E-15	4.788541E-20
4.356000E+03	1.058569E-15	4.790071E-20
4.358000E+03	1.059650E-15	4.794965E-20
4.360000E+03	1.059670E-15	4.795052E-20
4.362000E+03	1.060432E-15	4.798503E-20
4.364000E+03	1.062171E-15	4.806369E-20
4.366000E+03	1.062417E-15	4.807485E-20
4.368000E+03	1.062426E-15	4.807525E-20
4.370000E+03	1.062236E-15	4.806665E-20
4.372000E+03	1.061926E-15	4.805264E-20
4.374000E+03	1.060870E-15	4.800483E-20
4.376000E+03	1.060438E-15	4.798529E-20
4.378000E+03	1.060629E-15	4.799395E-20
4.380000E+03	1.060310E-15	4.797948E-20
4.382000E+03	1.061083E-15	4.801448E-20
4.384000E+03	1.061227E-15	4.802100E-20
4.386000E+03	1.060196E-15	4.797434E-20
4.388000E+03	1.060452E-15	4.798594E-20
4.390000E+03	1.058283E-15	4.788779E-20
4.392000E+03	1.055800E-15	4.777542E-20
4.394000E+03	1.053354E-15	4.766474E-20
4.396000E+03	1.053445E-15	4.766886E-20
4.398000E+03	1.053729E-15	4.768170E-20
4.400000E+03	1.052644E-15	4.763259E-20
4.402000E+03	1.049723E-15	4.750042E-20
4.404000E+03	1.047932E-15	4.741938E-20
4.406000E+03	1.048635E-15	4.745118E-20
4.408000E+03	1.047112E-15	4.738228E-20
4.410000E+03	1.044574E-15	4.726743E-20
4.412000E+03	1.043789E-15	4.723191E-20
4.414000E+03	1.042650E-15	4.718039E-20
4.416000E+03	1.042913E-15	4.719226E-20
4.418000E+03	1.041302E-15	4.711938E-20
4.420000E+03	1.037822E-15	4.696189E-20
4.422000E+03	1.035818E-15	4.687124E-20
4.424000E+03	1.035058E-15	4.683682E-20
4.426000E+03	1.033789E-15	4.677939E-20
4.428000E+03	1.031623E-15	4.668138E-20
4.430000E+03	1.030114E-15	4.661311E-20
4.432000E+03	1.028992E-15	4.656233E-20
4.434000E+03	1.026817E-15	4.646393E-20
4.436000E+03	1.024445E-15	4.635660E-20
4.438000E+03	1.023157E-15	4.629832E-20
4.440000E+03	1.022137E-15	4.625215E-20
4.442000E+03	1.020493E-15	4.617775E-20
4.444000E+03	1.017952E-15	4.606279E-20
4.446000E+03	1.016610E-15	4.600205E-20
4.448000E+03	1.013170E-15	4.584640E-20
4.450000E+03	1.009651E-15	4.568714E-20
4.452000E+03	1.007057E-15	4.556979E-20
4.454000E+03	1.004190E-15	4.544003E-20
4.456000E+03	1.002752E-15	4.537497E-20
4.458000E+03	1.002857E-15	4.537974E-20
4.460000E+03	1.001681E-15	4.532650E-20
4.462000E+03	1.001506E-15	4.531858E-20
4.464000E+03	1.003065E-15	4.538913E-20
4.466000E+03	1.004463E-15	4.545242E-20
4.490000E+03	9.986983E-16	4.519154E-20
4.492000E+03	9.979900E-16	4.515949E-20
4.494000E+03	9.979690E-16	4.515854E-20
4.496000E+03	9.977122E-16	4.514692E-20
4.498000E+03	9.976044E-16	4.514204E-20
4.500000E+03	9.969942E-16	4.511442E-20
4.502000E+03	9.964561E-16	4.509008E-20
4.504000E+03	9.952235E-16	4.503430E-20
4.506000E+03	9.940632E-16	4.498180E-20
4.508000E+03	9.924789E-16	4.491011E-20
4.510000E+03	9.909303E-16	4.484003E-20
4.512000E+03	9.907546E-16	4.483208E-20
4.514000E+03	9.909575E-16	4.484126E-20
4.516000E+03	9.895874E-16	4.477927E-20
4.518000E+03	9.880247E-16	4.470855E-20
4.520000E+03	9.867252E-16	4.464975E-20
4.522000E+03	9.857659E-16	4.460634E-20
4.524000E+03	9.849173E-16	4.456794E-20
4.526000E+03	9.845607E-16	4.455181E-20
4.528000E+03	9.848858E-16	4.456652E-20
4.530000E+03	9.848249E-16	4.456376E-20
4.532000E+03	9.833516E-16	4.449709E-20
4.534000E+03	9.821795E-16	4.444406E-20
4.536000E+03	9.818406E-16	4.442872E-20
4.538000E+03	9.810417E-16	4.439257E-20
4.540000E+03	9.805809E-16	4.437172E-20
4.542000E+03	9.796985E-16	4.433179E-20
4.544000E+03	9.789644E-16	4.429857E-20
4.546000E+03	9.779993E-16	4.425490E-20
4.548000E+03	9.762351E-16	4.417507E-20
4.550000E+03	9.745063E-16	4.409684E-20
4.552000E+03	9.719045E-16	4.397911E-20
4.554000E+03	9.706632E-16	4.392294E-20
4.556000E+03	9.699104E-16	4.388887E-20
4.558000E+03	9.686252E-16	4.383072E-20
4.560000E+03	9.671107E-16	4.376218E-20
4.562000E+03	9.673296E-16	4.377209E-20
4.564000E+03	9.679212E-16	4.379886E-20
4.566000E+03	9.667361E-16	4.374523E-20
4.568000E+03	9.650585E-16	4.366932E-20
4.570000E+03	9.641316E-16	4.362738E-20
4.572000E+03	9.634274E-16	4.359551E-20
4.574000E+03	9.625694E-16	4.355669E-20
4.576000E+03	9.617835E-16	4.352113E-20
4.578000E+03	9.607314E-16	4.347352E-20
4.580000E+03	9.594138E-16	4.341390E-20
4.582000E+03	9.591439E-16	4.340168E-20
4.584000E+03	9.584953E-16	4.337234E-20
4.586000E+03	9.579933E-16	4.334962E-20
4.588000E+03	9.576376E-16	4.333352E-20
4.590000E+03	9.558565E-16	4.325293E-20
4.592000E+03	9.548215E-16	4.320609E-20
4.594000E+03	9.541947E-16	4.317773E-20
4.596000E+03	9.531913E-16	4.313232E-20
4.598000E+03	9.517374E-16	4.306653E-20
4.600000E+03	9.515119E-16	4.305633E-20
4.602000E+03	9.512827E-16	4.304596E-20
4.604000E+03	9.504913E-16	4.301015E-20
4.606000E+03	9.491758E-16	4.295063E-20
4.608000E+03	9.479699E-16	4.289606E-20
4.610000E+03	9.465015E-16	4.282961E-20
4.612000E+03	9.451054E-16	4.276644E-20
4.614000E+03	9.440784E-16	4.271996E-20
4.616000E+03	9.427522E-16	4.265995E-20
4.618000E+03	9.413870E-16	4.259818E-20
4.620000E+03	9.398346E-16	4.252793E-20
4.622000E+03	9.383546E-16	4.246096E-20
4.624000E+03	9.364290E-16	4.237382E-20
4.626000E+03	9.345024E-16	4.228665E-20
4.628000E+03	9.335348E-16	4.224286E-20
4.630000E+03	9.328969E-16	4.221400E-20
4.632000E+03	9.316292E-16	4.215663E-20
4.634000E+03	9.282595E-16	4.200415E-20
4.636000E+03	9.260323E-16	4.190337E-20
4.638000E+03	9.246140E-16	4.183919E-20
4.640000E+03	9.229368E-16	4.176330E-20
4.642000E+03	9.200461E-16	4.163249E-20
4.644000E+03	9.175964E-16	4.152164E-20
4.646000E+03	9.155136E-16	4.142740E-20
4.648000E+03	9.138336E-16	4.135137E-20
4.650000E+03	9.119693E-16	4.126701E-20
4.652000E+03	9.099211E-16	4.117433E-20
4.654000E+03	9.071778E-16	4.105019E-20
4.656000E+03	9.049466E-16	4.094923E-20
4.658000E+03	9.032995E-16	4.087470E-20
4.660000E+03	9.018339E-16	4.080838E-20
4.662000E+03	9.005857E-16	4.075190E-20
4.664000E+03	9.002468E-16	4.073657E-20
4.666000E+03	8.995045E-16	4.070297E-20
4.668000E+03	8.981415E-16	4.064130E-20
4.670000E+03	8.960868E-16	4.054832E-20
4.672000E+03	8.940680E-16	4.045697E-20
4.674000E+03	8.923394E-16	4.037875E-20
4.676000E+03	8.911177E-16	4.032347E-20
4.678000E+03	8.893512E-16	4.024353E-20
4.680000E+03	8.875117E-16	4.016030E-20
4.682000E+03	8.858165E-16	4.008359E-20
4.684000E+03	8.832533E-16	3.996760E-20
4.686000E+03	8.820992E-16	3.991538E-20
4.688000E+03	8.804747E-16	3.984187E-20
4.690000E+03	8.788857E-16	3.976996E-20
4.692000E+03	8.774040E-16	3.970292E-20
4.694000E+03	8.753096E-16	3.960814E-20
4.696000E+03	8.737189E-16	3.953617E-20
4.698000E+03	8.719120E-16	3.945440E-20
4.700000E+03	8.699613E-16	3.936613E-20
4.702000E+03	8.683695E-16	3.929410E-20
4.704000E+03	8.669204E-16	3.922853E-20
4.706000E+03	8.660435E-16	3.918885E-20
4.708000E+03	8.652367E-16	3.915234E-20
4.710000E+03	8.639989E-16	3.909633E-20
4.712000E+03	8.628316E-16	3.904351E-20
4.714000E+03	8.618417E-16	3.899872E-20
4.716000E+03	8.603868E-16	3.893288E-20
4.718000E+03	8.596081E-16	3.889765E-20
4.720000E+03	8.586854E-16	3.885589E-20
4.722000E+03	8.567298E-16	3.876740E-20
4.724000E+03	8.542771E-16	3.865642E-20
4.726000E+03	8.515416E-16	3.853263E-20
4.728000E+03	8.496238E-16	3.844585E-20
4.730000E+03	8.473874E-16	3.834465E-20
4.732000E+03	8.446916E-16	3.822267E-20
4.734000E+03	8.428467E-16	3.813918E-20
4.736000E+03	8.411435E-16	3.806212E-20
4.738000E+03	8.387694E-16	3.795469E-20
4.740000E+03	8.363967E-16	3.784732E-20
4.742000E+03	8.346246E-16	3.776713E-20
4.744000E+03	8.331345E-16	3.769970E-20
4.746000E+03	8.317499E-16	3.763705E-20
4.748000E+03	8.298727E-16	3.755210E-20
4.750000E+03	8.273287E-16	3.743699E-20
4.752000E+03	8.246461E-16	3.731560E-20
4.754000E+03	8.220709E-16	3.719907E-20
4.756000E+03	8.200930E-16	3.710957E-20
4.758000E+03	8.183260E-16	3.702961E-20
4.760000E+03	8.165945E-16	3.695126E-20
4.762000E+03	8.144792E-16	3.685554E-20
4.764000E+03	8.116671E-16	3.672829E-20
4.766000E+03	8.095200E-16	3.663113E-20
4.768000E+03	8.068516E-16	3.651039E-20
4.770000E+03	8.046728E-16	3.641180E-20
4.772000E+03	8.031562E-16	3.634317E-20
4.774000E+03	8.006670E-16	3.623053E-20
