#wls	flux	fluxerr
1.600000E+03	2.250859E-17	2.491851E-18
1.640000E+03	2.120753E-17	2.339243E-18
1.680000E+03	2.006179E-17	2.204559E-18
1.720000E+03	1.909084E-17	2.089772E-18
1.760000E+03	1.831656E-17	1.997069E-18
1.800000E+03	1.776131E-17	1.928641E-18
1.840000E+03	1.744764E-17	1.886650E-18
1.880000E+03	1.740749E-17	1.874212E-18
1.920000E+03	1.767622E-17	1.894733E-18
1.960000E+03	1.830555E-17	1.953280E-18
2.000000E+03	1.936443E-17	2.056623E-18
2.040000E+03	2.094606E-17	2.213934E-18
2.080000E+03	2.317416E-17	2.437367E-18
2.120000E+03	2.622405E-17	2.744178E-18
2.160000E+03	3.032004E-17	3.156292E-18
2.200000E+03	3.577282E-17	3.704019E-18
2.240000E+03	4.296011E-17	4.423785E-18
2.280000E+03	5.236231E-17	5.361549E-18
2.320000E+03	6.452505E-17	6.568638E-18
2.360000E+03	8.004443E-17	8.099985E-18
2.400000E+03	9.944952E-17	1.000209E-17
2.440000E+03	1.231182E-16	1.230474E-17
2.480000E+03	1.510568E-16	1.499952E-17
2.520000E+03	1.827499E-16	1.802622E-17
2.560000E+03	2.170601E-16	2.126466E-17
2.600000E+03	2.521694E-16	2.453132E-17
2.640000E+03	2.858843E-16	2.761122E-17
2.680000E+03	3.159691E-16	3.029154E-17
2.720000E+03	3.406365E-16	3.240870E-17
2.760000E+03	3.587162E-16	3.386298E-17
2.800000E+03	3.698735E-16	3.463689E-17
2.840000E+03	3.744764E-16	3.477978E-17
2.880000E+03	3.733865E-16	3.438593E-17
2.920000E+03	3.677776E-16	3.357588E-17
2.960000E+03	3.590143E-16	3.248417E-17
3.000000E+03	3.484375E-16	3.123908E-17
3.010000E+03	3.456552E-16	3.091740E-17
3.020000E+03	3.428609E-16	3.059551E-17
3.030000E+03	3.400677E-16	3.027459E-17
3.040000E+03	3.372881E-16	2.995574E-17
3.050000E+03	3.345346E-16	2.964008E-17
3.060000E+03	3.318314E-16	2.932974E-17
3.070000E+03	3.291892E-16	2.902565E-17
3.080000E+03	3.266303E-16	2.872971E-17
3.090000E+03	3.241523E-16	2.844169E-17
3.100000E+03	3.217765E-16	2.816338E-17
3.110000E+03	3.195227E-16	2.789648E-17
3.120000E+03	3.173879E-16	2.764064E-17
3.130000E+03	3.153911E-16	2.739744E-17
3.140000E+03	3.135502E-16	2.716835E-17
3.150000E+03	3.118617E-16	2.695296E-17
3.160000E+03	3.103529E-16	2.675353E-17
3.170000E+03	3.090291E-16	2.657041E-17
3.180000E+03	3.078862E-16	2.640311E-17
3.190000E+03	3.069487E-16	2.625363E-17
3.200000E+03	3.062209E-16	2.612218E-17
3.210000E+03	3.057065E-16	2.600895E-17
3.220000E+03	3.054084E-16	2.591404E-17
3.230000E+03	3.053469E-16	2.583901E-17
3.240000E+03	3.055222E-16	2.578373E-17
3.250000E+03	3.059256E-16	2.574730E-17
3.260000E+03	3.065725E-16	2.573085E-17
3.270000E+03	3.074595E-16	2.573393E-17
3.280000E+03	3.085815E-16	2.575595E-17
3.290000E+03	3.099317E-16	2.579616E-17
3.300000E+03	3.115179E-16	2.585506E-17
3.310000E+03	3.133207E-16	2.593088E-17
3.320000E+03	3.153355E-16	2.602306E-17
3.330000E+03	3.175470E-16	2.613022E-17
3.340000E+03	3.199462E-16	2.625145E-17
3.350000E+03	3.225067E-16	2.638446E-17
3.360000E+03	3.252160E-16	2.652811E-17
3.370000E+03	3.280448E-16	2.667990E-17
3.380000E+03	3.309857E-16	2.683914E-17
3.390000E+03	3.340080E-16	2.700327E-17
3.400000E+03	3.370889E-16	2.717037E-17
3.410000E+03	3.401988E-16	2.733802E-17
3.420000E+03	3.433235E-16	2.750506E-17
3.430000E+03	3.464369E-16	2.766938E-17
3.440000E+03	3.495152E-16	2.782909E-17
3.450000E+03	3.525456E-16	2.798320E-17
3.460000E+03	3.555191E-16	2.813103E-17
3.470000E+03	3.584108E-16	2.827064E-17
3.480000E+03	3.612228E-16	2.840225E-17
3.490000E+03	3.639596E-16	2.852628E-17
3.500000E+03	3.666243E-16	2.864303E-17
3.510000E+03	3.692290E-16	2.875346E-17
3.520000E+03	3.717723E-16	2.885754E-17
3.530000E+03	3.742708E-16	2.895656E-17
3.540000E+03	3.767179E-16	2.905008E-17
3.550000E+03	3.791151E-16	2.913822E-17
3.560000E+03	3.814517E-16	2.922020E-17
3.570000E+03	3.837047E-16	2.929432E-17
3.580000E+03	3.858583E-16	2.935943E-17
3.590000E+03	3.878856E-16	2.941356E-17
3.600000E+03	3.897503E-16	2.945407E-17
3.610000E+03	3.914261E-16	2.947910E-17
3.620000E+03	3.928795E-16	2.948628E-17
3.630000E+03	3.940828E-16	2.947372E-17
3.640000E+03	3.950142E-16	2.943999E-17
3.650000E+03	3.956481E-16	2.938338E-17
3.660000E+03	3.959606E-16	2.930238E-17
3.670000E+03	3.959420E-16	2.919652E-17
3.680000E+03	3.955806E-16	2.906522E-17
3.690000E+03	3.948639E-16	2.890782E-17
3.700000E+03	3.937887E-16	2.872439E-17
3.710000E+03	3.923577E-16	2.851541E-17
3.720000E+03	3.905823E-16	2.828200E-17
3.730000E+03	3.884688E-16	2.802488E-17
3.740000E+03	3.860322E-16	2.774544E-17
3.750000E+03	3.832962E-16	2.744561E-17
3.760000E+03	3.802814E-16	2.712714E-17
3.770000E+03	3.770064E-16	2.679157E-17
3.780000E+03	3.735009E-16	2.644123E-17
3.790000E+03	3.697903E-16	2.607810E-17
3.800000E+03	3.659054E-16	2.570453E-17
3.810000E+03	3.618643E-16	2.532194E-17
3.820000E+03	3.577024E-16	2.493293E-17
3.830000E+03	3.534472E-16	2.453952E-17
3.840000E+03	3.491220E-16	2.414341E-17
3.850000E+03	3.447629E-16	2.374716E-17
3.860000E+03	3.403944E-16	2.335249E-17
3.870000E+03	3.360420E-16	2.296114E-17
3.880000E+03	3.317460E-16	2.257588E-17
3.890000E+03	3.275287E-16	2.219817E-17
3.900000E+03	3.234267E-16	2.183043E-17
3.910000E+03	3.194620E-16	2.147406E-17
3.920000E+03	3.156704E-16	2.113133E-17
3.930000E+03	3.120763E-16	2.080375E-17
3.940000E+03	3.087139E-16	2.049342E-17
3.950000E+03	3.056034E-16	2.020151E-17
3.960000E+03	3.027746E-16	1.992976E-17
3.970000E+03	3.002567E-16	1.967987E-17
3.980000E+03	2.980748E-16	1.945321E-17
3.990000E+03	2.962503E-16	1.925090E-17
4.000000E+03	2.948093E-16	1.907434E-17
4.010000E+03	2.937765E-16	1.892480E-17
4.020000E+03	2.931677E-16	1.880296E-17
4.030000E+03	2.929997E-16	1.870953E-17
4.040000E+03	2.932884E-16	1.864516E-17
4.050000E+03	2.940439E-16	1.861011E-17
4.060000E+03	2.952721E-16	1.860436E-17
4.070000E+03	2.969757E-16	1.862767E-17
4.080000E+03	2.991563E-16	1.867976E-17
4.090000E+03	3.018054E-16	1.875969E-17
4.100000E+03	3.049139E-16	1.886652E-17
4.110000E+03	3.084711E-16	1.899919E-17
4.120000E+03	3.124564E-16	1.915607E-17
4.130000E+03	3.168510E-16	1.933564E-17
4.140000E+03	3.216269E-16	1.953588E-17
4.150000E+03	3.267585E-16	1.975492E-17
4.160000E+03	3.322125E-16	1.999044E-17
4.170000E+03	3.379572E-16	2.024031E-17
4.180000E+03	3.439611E-16	2.050239E-17
4.190000E+03	3.501944E-16	2.077471E-17
4.200000E+03	3.566304E-16	2.105551E-17
4.210000E+03	3.632407E-16	2.134296E-17
4.220000E+03	3.700134E-16	2.163622E-17
4.230000E+03	3.769346E-16	2.193438E-17
4.240000E+03	3.840076E-16	2.223750E-17
4.250000E+03	3.912425E-16	2.254606E-17
4.260000E+03	3.986653E-16	2.286143E-17
4.270000E+03	4.063026E-16	2.318498E-17
4.280000E+03	4.141995E-16	2.351912E-17
4.290000E+03	4.224108E-16	2.386674E-17
4.300000E+03	4.309991E-16	2.423111E-17
4.310000E+03	4.400192E-16	2.461503E-17
4.320000E+03	4.495428E-16	2.502213E-17
4.330000E+03	4.596253E-16	2.545509E-17
4.340000E+03	4.703222E-16	2.591654E-17
4.350000E+03	4.816662E-16	2.640777E-17
4.360000E+03	4.936786E-16	2.692947E-17
4.370000E+03	5.063765E-16	2.748203E-17
4.380000E+03	5.198080E-16	2.806753E-17
4.390000E+03	5.339947E-16	2.868657E-17
4.400000E+03	5.490008E-16	2.934200E-17
4.410000E+03	5.648888E-16	3.003652E-17
4.420000E+03	5.816997E-16	3.077165E-17
4.430000E+03	5.994376E-16	3.154690E-17
4.440000E+03	6.180661E-16	3.235967E-17
4.450000E+03	6.374885E-16	3.320429E-17
4.460000E+03	6.575858E-16	3.407402E-17
4.470000E+03	6.781847E-16	3.495947E-17
4.480000E+03	6.990580E-16	3.584866E-17
4.490000E+03	7.199602E-16	3.672895E-17
4.500000E+03	7.406048E-16	3.758583E-17
4.510000E+03	7.606773E-16	3.840374E-17
4.520000E+03	7.798680E-16	3.916762E-17
4.530000E+03	7.978657E-16	3.986268E-17
4.540000E+03	8.143720E-16	4.047506E-17
4.550000E+03	8.291305E-16	4.099328E-17
4.560000E+03	8.419267E-16	4.140819E-17
4.570000E+03	8.526146E-16	4.171418E-17
4.580000E+03	8.611017E-16	4.190840E-17
4.590000E+03	8.673931E-16	4.199280E-17
4.600000E+03	8.715359E-16	4.197132E-17
4.610000E+03	8.736861E-16	4.185308E-17
4.620000E+03	8.740125E-16	4.164763E-17
4.630000E+03	8.727804E-16	4.136891E-17
4.640000E+03	8.702491E-16	4.103032E-17
4.650000E+03	8.667278E-16	4.064730E-17
4.660000E+03	8.624965E-16	4.023364E-17
4.670000E+03	8.578556E-16	3.980379E-17
4.680000E+03	8.530657E-16	3.937006E-17
4.690000E+03	8.483471E-16	3.894265E-17
4.700000E+03	8.438883E-16	3.853009E-17
4.710000E+03	8.398279E-16	3.813847E-17
4.720000E+03	8.362526E-16	3.777138E-17
4.730000E+03	8.332218E-16	3.743113E-17
4.740000E+03	8.307312E-16	3.711711E-17
4.750000E+03	8.287698E-16	3.682844E-17
4.760000E+03	8.272623E-16	3.656138E-17
4.770000E+03	8.261348E-16	3.631235E-17
4.780000E+03	8.252803E-16	3.607640E-17
4.790000E+03	8.245634E-16	3.584744E-17
4.800000E+03	8.238482E-16	3.561949E-17
4.810000E+03	8.229808E-16	3.538594E-17
4.820000E+03	8.218114E-16	3.514049E-17
4.830000E+03	8.201784E-16	3.487649E-17
4.840000E+03	8.179476E-16	3.458858E-17
4.850000E+03	8.149972E-16	3.427208E-17
4.860000E+03	8.112481E-16	3.392418E-17
4.870000E+03	8.066240E-16	3.354228E-17
4.880000E+03	8.011236E-16	3.312693E-17
4.890000E+03	7.947455E-16	3.267869E-17
4.900000E+03	7.875552E-16	3.220084E-17
4.910000E+03	7.796284E-16	3.169702E-17
4.920000E+03	7.710898E-16	3.117279E-17
4.930000E+03	7.620559E-16	3.063323E-17
4.940000E+03	7.526936E-16	3.008535E-17
4.950000E+03	7.431341E-16	2.953460E-17
4.960000E+03	7.335537E-16	2.898805E-17
4.970000E+03	7.240966E-16	2.845140E-17
4.980000E+03	7.149137E-16	2.793043E-17
4.990000E+03	7.061247E-16	2.742963E-17
5.000000E+03	6.978626E-16	2.695385E-17
5.010000E+03	6.902310E-16	2.650672E-17
5.020000E+03	6.833095E-16	2.609088E-17
5.030000E+03	6.771726E-16	2.570868E-17
5.040000E+03	6.718629E-16	2.536123E-17
5.050000E+03	6.674176E-16	2.504939E-17
5.060000E+03	6.638501E-16	2.477313E-17
5.070000E+03	6.611583E-16	2.453182E-17
5.080000E+03	6.593207E-16	2.432414E-17
5.090000E+03	6.583188E-16	2.414889E-17
5.100000E+03	6.581205E-16	2.400441E-17
5.110000E+03	6.586836E-16	2.388871E-17
5.120000E+03	6.599769E-16	2.380023E-17
5.130000E+03	6.619498E-16	2.373676E-17
5.140000E+03	6.645837E-16	2.369729E-17
5.150000E+03	6.678210E-16	2.367943E-17
5.160000E+03	6.716342E-16	2.368192E-17
5.170000E+03	6.759734E-16	2.370275E-17
5.180000E+03	6.807834E-16	2.373976E-17
5.190000E+03	6.860227E-16	2.379133E-17
5.200000E+03	6.916176E-16	2.385476E-17
5.210000E+03	6.975022E-16	2.392769E-17
5.220000E+03	7.036140E-16	2.400793E-17
5.230000E+03	7.098761E-16	2.409286E-17
5.240000E+03	7.162199E-16	2.418019E-17
5.250000E+03	7.225804E-16	2.426781E-17
5.260000E+03	7.288969E-16	2.435382E-17
5.270000E+03	7.351060E-16	2.443625E-17
5.280000E+03	7.411617E-16	2.451376E-17
5.290000E+03	7.470043E-16	2.458461E-17
5.300000E+03	7.525801E-16	2.464727E-17
5.310000E+03	7.578241E-16	2.469988E-17
5.320000E+03	7.626812E-16	2.474095E-17
5.330000E+03	7.670837E-16	2.476861E-17
5.340000E+03	7.709454E-16	2.478041E-17
5.350000E+03	7.742023E-16	2.477468E-17
5.360000E+03	7.767878E-16	2.474967E-17
5.370000E+03	7.786381E-16	2.470376E-17
5.380000E+03	7.797234E-16	2.463640E-17
5.390000E+03	7.800155E-16	2.454711E-17
5.400000E+03	7.795419E-16	2.443713E-17
5.410000E+03	7.783536E-16	2.430843E-17
5.420000E+03	7.765620E-16	2.416478E-17
5.430000E+03	7.743056E-16	2.401074E-17
5.440000E+03	7.717753E-16	2.385240E-17
5.450000E+03	7.690538E-16	2.369242E-17
5.460000E+03	7.662804E-16	2.353515E-17
5.470000E+03	7.636548E-16	2.338672E-17
5.480000E+03	7.614670E-16	2.325585E-17
5.490000E+03	7.600896E-16	2.315368E-17
5.500000E+03	7.597327E-16	2.308632E-17
5.510000E+03	7.599441E-16	2.303973E-17
5.520000E+03	7.602181E-16	2.299843E-17
5.530000E+03	7.601766E-16	2.295092E-17
5.540000E+03	7.595348E-16	2.288859E-17
5.550000E+03	7.581028E-16	2.280575E-17
5.560000E+03	7.557767E-16	2.269928E-17
5.570000E+03	7.525348E-16	2.256858E-17
5.580000E+03	7.484014E-16	2.241437E-17
5.590000E+03	7.434473E-16	2.223875E-17
5.600000E+03	7.378055E-16	2.204565E-17
5.610000E+03	7.315815E-16	2.183815E-17
5.620000E+03	7.249323E-16	2.162084E-17
5.630000E+03	7.179744E-16	2.139708E-17
5.640000E+03	7.108291E-16	2.117036E-17
5.650000E+03	7.036103E-16	2.094395E-17
5.660000E+03	6.964073E-16	2.072037E-17
5.670000E+03	6.892918E-16	2.050161E-17
5.680000E+03	6.823182E-16	2.028917E-17
5.690000E+03	6.755247E-16	2.008405E-17
5.700000E+03	6.689358E-16	1.988686E-17
5.710000E+03	6.625645E-16	1.969789E-17
5.720000E+03	6.564140E-16	1.951710E-17
5.730000E+03	6.504871E-16	1.934450E-17
5.740000E+03	6.447744E-16	1.917971E-17
5.750000E+03	6.392556E-16	1.902204E-17
5.760000E+03	6.339162E-16	1.887098E-17
5.770000E+03	6.287540E-16	1.872638E-17
5.780000E+03	6.237408E-16	1.858736E-17
5.790000E+03	6.188779E-16	1.845387E-17
5.800000E+03	6.141425E-16	1.832517E-17
5.810000E+03	6.095433E-16	1.820148E-17
5.820000E+03	6.050733E-16	1.808252E-17
5.830000E+03	6.007439E-16	1.796861E-17
5.840000E+03	5.965643E-16	1.785996E-17
5.850000E+03	5.925410E-16	1.775673E-17
5.860000E+03	5.886955E-16	1.765955E-17
5.870000E+03	5.850499E-16	1.756904E-17
5.880000E+03	5.816046E-16	1.748520E-17
5.890000E+03	5.783890E-16	1.740890E-17
5.900000E+03	5.753939E-16	1.733986E-17
5.910000E+03	5.726160E-16	1.727796E-17
5.920000E+03	5.700565E-16	1.722326E-17
5.930000E+03	5.676887E-16	1.717493E-17
5.940000E+03	5.654836E-16	1.713210E-17
5.950000E+03	5.634114E-16	1.709388E-17
5.960000E+03	5.614229E-16	1.705877E-17
5.970000E+03	5.594768E-16	1.702552E-17
5.980000E+03	5.575295E-16	1.699278E-17
5.990000E+03	5.555168E-16	1.695858E-17
6.000000E+03	5.534027E-16	1.692182E-17
6.010000E+03	5.511365E-16	1.688091E-17
6.020000E+03	5.486938E-16	1.683508E-17
6.030000E+03	5.460279E-16	1.678285E-17
6.040000E+03	5.431436E-16	1.672433E-17
6.050000E+03	5.400340E-16	1.665926E-17
6.060000E+03	5.367142E-16	1.658808E-17
6.070000E+03	5.332155E-16	1.651171E-17
6.080000E+03	5.295840E-16	1.643153E-17
6.090000E+03	5.258861E-16	1.634959E-17
6.100000E+03	5.221924E-16	1.626807E-17
6.110000E+03	5.185879E-16	1.618962E-17
6.120000E+03	5.151479E-16	1.611661E-17
6.130000E+03	5.119671E-16	1.605203E-17
6.140000E+03	5.091344E-16	1.599874E-17
6.150000E+03	5.067236E-16	1.595914E-17
6.160000E+03	5.048133E-16	1.593580E-17
6.170000E+03	5.034577E-16	1.593055E-17
6.180000E+03	5.026505E-16	1.594333E-17
6.190000E+03	5.023721E-16	1.597364E-17
6.200000E+03	5.025616E-16	1.601970E-17
6.210000E+03	5.031335E-16	1.607888E-17
6.220000E+03	5.039708E-16	1.614750E-17
6.230000E+03	5.049447E-16	1.622144E-17
6.240000E+03	5.058778E-16	1.629498E-17
6.250000E+03	5.067003E-16	1.636581E-17
6.260000E+03	5.074946E-16	1.643653E-17
6.270000E+03	5.083507E-16	1.651000E-17
6.280000E+03	5.093248E-16	1.658803E-17
6.290000E+03	5.104611E-16	1.667205E-17
6.300000E+03	5.117873E-16	1.676297E-17
6.310000E+03	5.133237E-16	1.686146E-17
6.320000E+03	5.150714E-16	1.696759E-17
6.330000E+03	5.170151E-16	1.708086E-17
6.340000E+03	5.191453E-16	1.720098E-17
6.350000E+03	5.214395E-16	1.732721E-17
6.360000E+03	5.238711E-16	1.745867E-17
6.370000E+03	5.264108E-16	1.759439E-17
6.380000E+03	5.290347E-16	1.773356E-17
6.390000E+03	5.317043E-16	1.787486E-17
6.400000E+03	5.343879E-16	1.801722E-17
6.410000E+03	5.370549E-16	1.815954E-17
6.420000E+03	5.396835E-16	1.830107E-17
6.430000E+03	5.422312E-16	1.844029E-17
6.440000E+03	5.446803E-16	1.857655E-17
6.450000E+03	5.470078E-16	1.870899E-17
6.460000E+03	5.491936E-16	1.883686E-17
6.470000E+03	5.512047E-16	1.895894E-17
6.480000E+03	5.530418E-16	1.907518E-17
6.490000E+03	5.546773E-16	1.918452E-17
6.500000E+03	5.561018E-16	1.928657E-17
6.510000E+03	5.573164E-16	1.938126E-17
6.520000E+03	5.583012E-16	1.946781E-17
6.530000E+03	5.590620E-16	1.954633E-17
6.540000E+03	5.595994E-16	1.961675E-17
6.550000E+03	5.598994E-16	1.967849E-17
6.560000E+03	5.599821E-16	1.973217E-17
6.570000E+03	5.598367E-16	1.977734E-17
6.580000E+03	5.594865E-16	1.981473E-17
6.590000E+03	5.589227E-16	1.984395E-17
6.600000E+03	5.581622E-16	1.986554E-17
6.610000E+03	5.572143E-16	1.987976E-17
6.620000E+03	5.560891E-16	1.988690E-17
6.630000E+03	5.547969E-16	1.988729E-17
6.640000E+03	5.533406E-16	1.988098E-17
6.650000E+03	5.517402E-16	1.986863E-17
6.660000E+03	5.500161E-16	1.985095E-17
6.670000E+03	5.481644E-16	1.982774E-17
6.680000E+03	5.462062E-16	1.979976E-17
6.690000E+03	5.441550E-16	1.976747E-17
6.700000E+03	5.420242E-16	1.973132E-17
6.710000E+03	5.398352E-16	1.969209E-17
6.720000E+03	5.375842E-16	1.964962E-17
6.730000E+03	5.352994E-16	1.960495E-17
6.740000E+03	5.329831E-16	1.955814E-17
6.750000E+03	5.306522E-16	1.950984E-17
6.760000E+03	5.283051E-16	1.945998E-17
6.770000E+03	5.259458E-16	1.940872E-17
6.780000E+03	5.235848E-16	1.935645E-17
6.790000E+03	5.212210E-16	1.930315E-17
6.800000E+03	5.188430E-16	1.924840E-17
6.810000E+03	5.164542E-16	1.919235E-17
6.820000E+03	5.140388E-16	1.913442E-17
6.830000E+03	5.116053E-16	1.907493E-17
6.840000E+03	5.091275E-16	1.901293E-17
6.850000E+03	5.066034E-16	1.894835E-17
6.860000E+03	5.040150E-16	1.888052E-17
6.870000E+03	5.013688E-16	1.880970E-17
6.880000E+03	4.986478E-16	1.873526E-17
6.890000E+03	4.958364E-16	1.865663E-17
6.900000E+03	4.929452E-16	1.857421E-17
6.910000E+03	4.899542E-16	1.848726E-17
6.920000E+03	4.868782E-16	1.839635E-17
6.930000E+03	4.837018E-16	1.830092E-17
6.940000E+03	4.804448E-16	1.820171E-17
6.950000E+03	4.771042E-16	1.809863E-17
6.960000E+03	4.736792E-16	1.799168E-17
6.970000E+03	4.702026E-16	1.788211E-17
6.980000E+03	4.666594E-16	1.776937E-17
6.990000E+03	4.630679E-16	1.765418E-17
7.000000E+03	4.594460E-16	1.753726E-17
7.010000E+03	4.557873E-16	1.741837E-17
7.020000E+03	4.521172E-16	1.729852E-17
7.030000E+03	4.484364E-16	1.717777E-17
7.040000E+03	4.447611E-16	1.705677E-17
7.050000E+03	4.410913E-16	1.693554E-17
7.060000E+03	4.374347E-16	1.681442E-17
7.070000E+03	4.337993E-16	1.669374E-17
7.080000E+03	4.301934E-16	1.657386E-17
7.090000E+03	4.266340E-16	1.645548E-17
7.100000E+03	4.231315E-16	1.633902E-17
7.110000E+03	4.196897E-16	1.622467E-17
7.120000E+03	4.163218E-16	1.611299E-17
7.130000E+03	4.130420E-16	1.600456E-17
7.140000E+03	4.098813E-16	1.590063E-17
7.150000E+03	4.068325E-16	1.580096E-17
7.160000E+03	4.039269E-16	1.570681E-17
7.170000E+03	4.011795E-16	1.561883E-17
7.180000E+03	3.986038E-16	1.553758E-17
7.190000E+03	3.962031E-16	1.546326E-17
7.200000E+03	3.939933E-16	1.539652E-17
7.210000E+03	3.919785E-16	1.533761E-17
7.220000E+03	3.901589E-16	1.528659E-17
7.230000E+03	3.885231E-16	1.524307E-17
7.240000E+03	3.870780E-16	1.520737E-17
7.250000E+03	3.858030E-16	1.517877E-17
7.260000E+03	3.846887E-16	1.515694E-17
7.270000E+03	3.837062E-16	1.514081E-17
7.280000E+03	3.828303E-16	1.512944E-17
7.290000E+03	3.820481E-16	1.512238E-17
7.300000E+03	3.813128E-16	1.511783E-17
7.310000E+03	3.806071E-16	1.511513E-17
7.320000E+03	3.798895E-16	1.511269E-17
7.330000E+03	3.791347E-16	1.510954E-17
7.340000E+03	3.783192E-16	1.510475E-17
7.350000E+03	3.774072E-16	1.509692E-17
7.360000E+03	3.763911E-16	1.508576E-17
7.370000E+03	3.752448E-16	1.507024E-17
7.380000E+03	3.739650E-16	1.505021E-17
7.390000E+03	3.725543E-16	1.502579E-17
7.400000E+03	3.710153E-16	1.499707E-17
7.410000E+03	3.693643E-16	1.496469E-17
7.420000E+03	3.676161E-16	1.492928E-17
7.430000E+03	3.657991E-16	1.489195E-17
7.440000E+03	3.639218E-16	1.485309E-17
7.450000E+03	3.620124E-16	1.481382E-17
7.460000E+03	3.601010E-16	1.477540E-17
7.470000E+03	3.582118E-16	1.473885E-17
7.480000E+03	3.563687E-16	1.470517E-17
7.490000E+03	3.545960E-16	1.467539E-17
7.500000E+03	3.529243E-16	1.465084E-17
7.510000E+03	3.513826E-16	1.463278E-17
7.520000E+03	3.499972E-16	1.462236E-17
7.530000E+03	3.487757E-16	1.462000E-17
7.540000E+03	3.477448E-16	1.462689E-17
7.550000E+03	3.469186E-16	1.464374E-17
7.560000E+03	3.462975E-16	1.467067E-17
7.570000E+03	3.458839E-16	1.470786E-17
7.580000E+03	3.456732E-16	1.475518E-17
7.590000E+03	3.456626E-16	1.481259E-17
7.600000E+03	3.458197E-16	1.487877E-17
7.610000E+03	3.461299E-16	1.495314E-17
7.620000E+03	3.465646E-16	1.503452E-17
7.630000E+03	3.471480E-16	1.512402E-17
7.640000E+03	3.478783E-16	1.522162E-17
7.650000E+03	3.487735E-16	1.532818E-17
7.660000E+03	3.498317E-16	1.544368E-17
7.670000E+03	3.510627E-16	1.556865E-17
7.680000E+03	3.524646E-16	1.570310E-17
7.690000E+03	3.540309E-16	1.584682E-17
7.700000E+03	3.557427E-16	1.599905E-17
7.710000E+03	3.575932E-16	1.615956E-17
7.720000E+03	3.595636E-16	1.632760E-17
7.730000E+03	3.616308E-16	1.650216E-17
7.740000E+03	3.637687E-16	1.668212E-17
7.750000E+03	3.659393E-16	1.686575E-17
7.760000E+03	3.681279E-16	1.705240E-17
