#wls	flux	fluxerr
1.600000E+03	1.238419E-17	1.269070E-18
1.640000E+03	1.222406E-17	1.244847E-18
1.680000E+03	1.213774E-17	1.228121E-18
1.720000E+03	1.213759E-17	1.219991E-18
1.760000E+03	1.223141E-17	1.221062E-18
1.800000E+03	1.243079E-17	1.232283E-18
1.840000E+03	1.275571E-17	1.255389E-18
1.880000E+03	1.322134E-17	1.291577E-18
1.920000E+03	1.384860E-17	1.342544E-18
1.960000E+03	1.467208E-17	1.411224E-18
2.000000E+03	1.571944E-17	1.499769E-18
2.040000E+03	1.703686E-17	1.611977E-18
2.080000E+03	1.867766E-17	1.752145E-18
2.120000E+03	2.069983E-17	1.924801E-18
2.160000E+03	2.317750E-17	2.135739E-18
2.200000E+03	2.619662E-17	2.391537E-18
2.240000E+03	2.984584E-17	2.698678E-18
2.280000E+03	3.422267E-17	3.064070E-18
2.320000E+03	3.941377E-17	3.493250E-18
2.360000E+03	4.550171E-17	3.991010E-18
2.400000E+03	5.253657E-17	4.558937E-18
2.440000E+03	6.051348E-17	5.193634E-18
2.480000E+03	6.937184E-17	5.886910E-18
2.520000E+03	7.894882E-17	6.622157E-18
2.560000E+03	8.899292E-17	7.375997E-18
2.600000E+03	9.918238E-17	8.120266E-18
2.640000E+03	1.091489E-16	8.824331E-18
2.680000E+03	1.185349E-16	9.459948E-18
2.720000E+03	1.271037E-16	1.000995E-17
2.760000E+03	1.346688E-16	1.046213E-17
2.800000E+03	1.411865E-16	1.081613E-17
2.840000E+03	1.466314E-16	1.107327E-17
2.880000E+03	1.510789E-16	1.124255E-17
2.920000E+03	1.545982E-16	1.133232E-17
2.960000E+03	1.573247E-16	1.135543E-17
3.000000E+03	1.594028E-16	1.132489E-17
3.010000E+03	1.598504E-16	1.131122E-17
3.020000E+03	1.602554E-16	1.129420E-17
3.030000E+03	1.606434E-16	1.127569E-17
3.040000E+03	1.610043E-16	1.125498E-17
3.050000E+03	1.613396E-16	1.123221E-17
3.060000E+03	1.616625E-16	1.120833E-17
3.070000E+03	1.619627E-16	1.118261E-17
3.080000E+03	1.622525E-16	1.115595E-17
3.090000E+03	1.625218E-16	1.112765E-17
3.100000E+03	1.627824E-16	1.109854E-17
3.110000E+03	1.630347E-16	1.106866E-17
3.120000E+03	1.632791E-16	1.103805E-17
3.130000E+03	1.635155E-16	1.100670E-17
3.140000E+03	1.637330E-16	1.097390E-17
3.150000E+03	1.639530E-16	1.094110E-17
3.160000E+03	1.641637E-16	1.090751E-17
3.170000E+03	1.643645E-16	1.087310E-17
3.180000E+03	1.645648E-16	1.083850E-17
3.190000E+03	1.647527E-16	1.080294E-17
3.200000E+03	1.649368E-16	1.076700E-17
3.210000E+03	1.651152E-16	1.073055E-17
3.220000E+03	1.652857E-16	1.069346E-17
3.230000E+03	1.654359E-16	1.065495E-17
3.240000E+03	1.655829E-16	1.061613E-17
3.250000E+03	1.657238E-16	1.057682E-17
3.260000E+03	1.658453E-16	1.053619E-17
3.270000E+03	1.659538E-16	1.049466E-17
3.280000E+03	1.660359E-16	1.045140E-17
3.290000E+03	1.661067E-16	1.040739E-17
3.300000E+03	1.661524E-16	1.036179E-17
3.310000E+03	1.661780E-16	1.031492E-17
3.320000E+03	1.661695E-16	1.026594E-17
3.330000E+03	1.661404E-16	1.021572E-17
3.340000E+03	1.660762E-16	1.016340E-17
3.350000E+03	1.659720E-16	1.010870E-17
3.360000E+03	1.658399E-16	1.005239E-17
3.370000E+03	1.656652E-16	9.993641E-18
3.380000E+03	1.654423E-16	9.932133E-18
3.390000E+03	1.651822E-16	9.868580E-18
3.400000E+03	1.648704E-16	9.802149E-18
3.410000E+03	1.645008E-16	9.732535E-18
3.420000E+03	1.640916E-16	9.660861E-18
3.430000E+03	1.636206E-16	9.585861E-18
3.440000E+03	1.630975E-16	9.508163E-18
3.450000E+03	1.625092E-16	9.427049E-18
3.460000E+03	1.618733E-16	9.343607E-18
3.470000E+03	1.611779E-16	9.257180E-18
3.480000E+03	1.604342E-16	9.168457E-18
3.490000E+03	1.596323E-16	9.076912E-18
3.500000E+03	1.587913E-16	8.983683E-18
3.510000E+03	1.579033E-16	8.888337E-18
3.520000E+03	1.569808E-16	8.791625E-18
3.530000E+03	1.560233E-16	8.693544E-18
3.540000E+03	1.550372E-16	8.594471E-18
3.550000E+03	1.540160E-16	8.494071E-18
3.560000E+03	1.529666E-16	8.392744E-18
3.570000E+03	1.518833E-16	8.290210E-18
3.580000E+03	1.507618E-16	8.186255E-18
3.590000E+03	1.496096E-16	8.081310E-18
3.600000E+03	1.484176E-16	7.974916E-18
3.610000E+03	1.471885E-16	7.867244E-18
3.620000E+03	1.459203E-16	7.758222E-18
3.630000E+03	1.446167E-16	7.648072E-18
3.640000E+03	1.432771E-16	7.536786E-18
3.650000E+03	1.419057E-16	7.424620E-18
3.660000E+03	1.404982E-16	7.311376E-18
3.670000E+03	1.390693E-16	7.197832E-18
3.680000E+03	1.376110E-16	7.083603E-18
3.690000E+03	1.361336E-16	6.969233E-18
3.700000E+03	1.346351E-16	6.854641E-18
3.710000E+03	1.331260E-16	6.740365E-18
3.720000E+03	1.316087E-16	6.626547E-18
3.730000E+03	1.300827E-16	6.513152E-18
3.740000E+03	1.285620E-16	6.400896E-18
3.750000E+03	1.270498E-16	6.289924E-18
3.760000E+03	1.255459E-16	6.180222E-18
3.770000E+03	1.240575E-16	6.072135E-18
3.780000E+03	1.225946E-16	5.966134E-18
3.790000E+03	1.211576E-16	5.862217E-18
3.800000E+03	1.197563E-16	5.760831E-18
3.810000E+03	1.183911E-16	5.661968E-18
3.820000E+03	1.170716E-16	5.566053E-18
3.830000E+03	1.158013E-16	5.473208E-18
3.840000E+03	1.145835E-16	5.383555E-18
3.850000E+03	1.134244E-16	5.297338E-18
3.860000E+03	1.123302E-16	5.214787E-18
3.870000E+03	1.113062E-16	5.136102E-18
3.880000E+03	1.103534E-16	5.061267E-18
3.890000E+03	1.094797E-16	4.990581E-18
3.900000E+03	1.086881E-16	4.924113E-18
3.910000E+03	1.079836E-16	4.862031E-18
3.920000E+03	1.073716E-16	4.804490E-18
3.930000E+03	1.068525E-16	4.751439E-18
3.940000E+03	1.064335E-16	4.703117E-18
3.950000E+03	1.061170E-16	4.659551E-18
3.960000E+03	1.059057E-16	4.620769E-18
3.970000E+03	1.058084E-16	4.587070E-18
3.980000E+03	1.058233E-16	4.558277E-18
3.990000E+03	1.059548E-16	4.534496E-18
4.000000E+03	1.062091E-16	4.515890E-18
4.010000E+03	1.065885E-16	4.502458E-18
4.020000E+03	1.070930E-16	4.494097E-18
4.030000E+03	1.077307E-16	4.491041E-18
4.040000E+03	1.085031E-16	4.493252E-18
4.050000E+03	1.094103E-16	4.500620E-18
4.060000E+03	1.104594E-16	4.513332E-18
4.070000E+03	1.116500E-16	4.531258E-18
4.080000E+03	1.129853E-16	4.554408E-18
4.090000E+03	1.144662E-16	4.582715E-18
4.100000E+03	1.160973E-16	4.616241E-18
4.110000E+03	1.178790E-16	4.654887E-18
4.120000E+03	1.198115E-16	4.698546E-18
4.130000E+03	1.218984E-16	4.747240E-18
4.140000E+03	1.241370E-16	4.800751E-18
4.150000E+03	1.265324E-16	4.859156E-18
4.160000E+03	1.290788E-16	4.922124E-18
4.170000E+03	1.317804E-16	4.989697E-18
4.180000E+03	1.346325E-16	5.061586E-18
4.190000E+03	1.376378E-16	5.137789E-18
4.200000E+03	1.407886E-16	5.217906E-18
4.210000E+03	1.440863E-16	5.301896E-18
4.220000E+03	1.475277E-16	5.389532E-18
4.230000E+03	1.511065E-16	5.480498E-18
4.240000E+03	1.548178E-16	5.574524E-18
4.250000E+03	1.586553E-16	5.671306E-18
4.260000E+03	1.626168E-16	5.770687E-18
4.270000E+03	1.666895E-16	5.872143E-18
4.280000E+03	1.708663E-16	5.975369E-18
4.290000E+03	1.751393E-16	6.080031E-18
4.300000E+03	1.794991E-16	6.185768E-18
4.310000E+03	1.839305E-16	6.292018E-18
4.320000E+03	1.884243E-16	6.398450E-18
4.330000E+03	1.929683E-16	6.504637E-18
4.340000E+03	1.975495E-16	6.610141E-18
4.350000E+03	2.021517E-16	6.714439E-18
4.360000E+03	2.067671E-16	6.817292E-18
4.370000E+03	2.113826E-16	6.918303E-18
4.380000E+03	2.159862E-16	7.017123E-18
4.390000E+03	2.205699E-16	7.113541E-18
4.400000E+03	2.251236E-16	7.207299E-18
4.410000E+03	2.296420E-16	7.298284E-18
4.420000E+03	2.341173E-16	7.386331E-18
4.430000E+03	2.385430E-16	7.471306E-18
4.440000E+03	2.429063E-16	7.552897E-18
4.450000E+03	2.472045E-16	7.631107E-18
4.460000E+03	2.514186E-16	7.705448E-18
4.470000E+03	2.555455E-16	7.775934E-18
4.480000E+03	2.595662E-16	7.842087E-18
4.490000E+03	2.634674E-16	7.903631E-18
4.500000E+03	2.672432E-16	7.960504E-18
4.510000E+03	2.708741E-16	8.012254E-18
4.520000E+03	2.743512E-16	8.058727E-18
4.530000E+03	2.776635E-16	8.099684E-18
4.540000E+03	2.807969E-16	8.134810E-18
4.550000E+03	2.837459E-16	8.164038E-18
4.560000E+03	2.864992E-16	8.187136E-18
4.570000E+03	2.890544E-16	8.204130E-18
4.580000E+03	2.914037E-16	8.214893E-18
4.590000E+03	2.935482E-16	8.219545E-18
4.600000E+03	2.954872E-16	8.218158E-18
4.610000E+03	2.972217E-16	8.210845E-18
4.620000E+03	2.987583E-16	8.197865E-18
4.630000E+03	3.000972E-16	8.179305E-18
4.640000E+03	3.012476E-16	8.155485E-18
4.650000E+03	3.022157E-16	8.126637E-18
4.660000E+03	3.030118E-16	8.093104E-18
4.670000E+03	3.036469E-16	8.055229E-18
4.680000E+03	3.041282E-16	8.013252E-18
4.690000E+03	3.044696E-16	7.967583E-18
4.700000E+03	3.046811E-16	7.918519E-18
4.710000E+03	3.047719E-16	7.866328E-18
4.720000E+03	3.047534E-16	7.811335E-18
4.730000E+03	3.046329E-16	7.753744E-18
4.740000E+03	3.044266E-16	7.693984E-18
4.750000E+03	3.041387E-16	7.632175E-18
4.760000E+03	3.037829E-16	7.568666E-18
4.770000E+03	3.033613E-16	7.503514E-18
4.780000E+03	3.028850E-16	7.436994E-18
4.790000E+03	3.023540E-16	7.369111E-18
4.800000E+03	3.017612E-16	7.299689E-18
4.810000E+03	3.011056E-16	7.228714E-18
4.820000E+03	3.003893E-16	7.156245E-18
4.830000E+03	2.996080E-16	7.082186E-18
4.840000E+03	2.987544E-16	7.006384E-18
4.850000E+03	2.978314E-16	6.928922E-18
4.860000E+03	2.968363E-16	6.849760E-18
4.870000E+03	2.957703E-16	6.768950E-18
4.880000E+03	2.946391E-16	6.686643E-18
4.890000E+03	2.934396E-16	6.602795E-18
4.900000E+03	2.921795E-16	6.517605E-18
4.910000E+03	2.908615E-16	6.431159E-18
4.920000E+03	2.894984E-16	6.343764E-18
4.930000E+03	2.880917E-16	6.255471E-18
4.940000E+03	2.866500E-16	6.166491E-18
4.950000E+03	2.851884E-16	6.077163E-18
4.960000E+03	2.837137E-16	5.987642E-18
4.970000E+03	2.822358E-16	5.898144E-18
4.980000E+03	2.807648E-16	5.808881E-18
4.990000E+03	2.793132E-16	5.720116E-18
5.000000E+03	2.778879E-16	5.631977E-18
5.010000E+03	2.764979E-16	5.544639E-18
5.020000E+03	2.751546E-16	5.458314E-18
5.030000E+03	2.738685E-16	5.373188E-18
5.040000E+03	2.726403E-16	5.289253E-18
5.050000E+03	2.714788E-16	5.206651E-18
5.060000E+03	2.703887E-16	5.125443E-18
5.070000E+03	2.693735E-16	5.045666E-18
5.080000E+03	2.684387E-16	4.967387E-18
5.090000E+03	2.675855E-16	4.890597E-18
5.100000E+03	2.668116E-16	4.815219E-18
5.110000E+03	2.661163E-16	4.741211E-18
5.120000E+03	2.655007E-16	4.668564E-18
5.130000E+03	2.649621E-16	4.597206E-18
5.140000E+03	2.644971E-16	4.527050E-18
5.150000E+03	2.640986E-16	4.457963E-18
5.160000E+03	2.637670E-16	4.389938E-18
5.170000E+03	2.634912E-16	4.322784E-18
5.180000E+03	2.632674E-16	4.256444E-18
5.190000E+03	2.630889E-16	4.190816E-18
5.200000E+03	2.629510E-16	4.125847E-18
5.210000E+03	2.628410E-16	4.061361E-18
5.220000E+03	2.627535E-16	3.997315E-18
5.230000E+03	2.626806E-16	3.933637E-18
5.240000E+03	2.626172E-16	3.870307E-18
5.250000E+03	2.625503E-16	3.807200E-18
5.260000E+03	2.624751E-16	3.744327E-18
5.270000E+03	2.623846E-16	3.681679E-18
5.280000E+03	2.622723E-16	3.619266E-18
5.290000E+03	2.621303E-16	3.557086E-18
5.300000E+03	2.619590E-16	3.495268E-18
5.310000E+03	2.617498E-16	3.433824E-18
5.320000E+03	2.615005E-16	3.372862E-18
5.330000E+03	2.612129E-16	3.312552E-18
5.340000E+03	2.608881E-16	3.253053E-18
5.350000E+03	2.605259E-16	3.194520E-18
5.360000E+03	2.601309E-16	3.137163E-18
5.370000E+03	2.597091E-16	3.081220E-18
5.380000E+03	2.592717E-16	3.026977E-18
5.390000E+03	2.588231E-16	2.974649E-18
5.400000E+03	2.583777E-16	2.924558E-18
5.410000E+03	2.579488E-16	2.877007E-18
5.420000E+03	2.575509E-16	2.832308E-18
5.430000E+03	2.571968E-16	2.790746E-18
5.440000E+03	2.569054E-16	2.752666E-18
5.450000E+03	2.566899E-16	2.718342E-18
5.460000E+03	2.565659E-16	2.688062E-18
5.470000E+03	2.565469E-16	2.662092E-18
5.480000E+03	2.566469E-16	2.640688E-18
5.490000E+03	2.568718E-16	2.624022E-18
5.500000E+03	2.572270E-16	2.612252E-18
5.510000E+03	2.577166E-16	2.605495E-18
5.520000E+03	2.583334E-16	2.603597E-18
5.530000E+03	2.590764E-16	2.606402E-18
5.540000E+03	2.599362E-16	2.613666E-18
5.550000E+03	2.608979E-16	2.625077E-18
5.560000E+03	2.619465E-16	2.640325E-18
5.570000E+03	2.630707E-16	2.659126E-18
5.580000E+03	2.642476E-16	2.681073E-18
5.590000E+03	2.654643E-16	2.705862E-18
5.600000E+03	2.667002E-16	2.733099E-18
5.610000E+03	2.679385E-16	2.762426E-18
5.620000E+03	2.691659E-16	2.793520E-18
5.630000E+03	2.703683E-16	2.826044E-18
5.640000E+03	2.715336E-16	2.859683E-18
5.650000E+03	2.726513E-16	2.894136E-18
5.660000E+03	2.737130E-16	2.929128E-18
5.670000E+03	2.747125E-16	2.964408E-18
5.680000E+03	2.756452E-16	2.999750E-18
5.690000E+03	2.765112E-16	3.034979E-18
5.700000E+03	2.773093E-16	3.069917E-18
5.710000E+03	2.780371E-16	3.104381E-18
5.720000E+03	2.786989E-16	3.138267E-18
5.730000E+03	2.792973E-16	3.171464E-18
5.740000E+03	2.798356E-16	3.203880E-18
5.750000E+03	2.803181E-16	3.235442E-18
5.760000E+03	2.807467E-16	3.266059E-18
5.770000E+03	2.811320E-16	3.295754E-18
5.780000E+03	2.814767E-16	3.324468E-18
5.790000E+03	2.817865E-16	3.352186E-18
5.800000E+03	2.820670E-16	3.378902E-18
5.810000E+03	2.823270E-16	3.404656E-18
5.820000E+03	2.825662E-16	3.429393E-18
5.830000E+03	2.827960E-16	3.453202E-18
5.840000E+03	2.830161E-16	3.476042E-18
5.850000E+03	2.832372E-16	3.498014E-18
5.860000E+03	2.834614E-16	3.519120E-18
5.870000E+03	2.836903E-16	3.539361E-18
5.880000E+03	2.839337E-16	3.558852E-18
5.890000E+03	2.841896E-16	3.577561E-18
5.900000E+03	2.844640E-16	3.595567E-18
5.910000E+03	2.847599E-16	3.612912E-18
5.920000E+03	2.850764E-16	3.629600E-18
5.930000E+03	2.854184E-16	3.645709E-18
5.940000E+03	2.857843E-16	3.661242E-18
5.950000E+03	2.861719E-16	3.676196E-18
5.960000E+03	2.865877E-16	3.690687E-18
5.970000E+03	2.870287E-16	3.704715E-18
5.980000E+03	2.874885E-16	3.718237E-18
5.990000E+03	2.879757E-16	3.731409E-18
6.000000E+03	2.884804E-16	3.744157E-18
6.010000E+03	2.890076E-16	3.756599E-18
6.020000E+03	2.895503E-16	3.768707E-18
6.030000E+03	2.901104E-16	3.780570E-18
6.040000E+03	2.906841E-16	3.792209E-18
6.050000E+03	2.912733E-16	3.803725E-18
6.060000E+03	2.918742E-16	3.815151E-18
6.070000E+03	2.924896E-16	3.826607E-18
6.080000E+03	2.931128E-16	3.838098E-18
6.090000E+03	2.937530E-16	3.849840E-18
6.100000E+03	2.944041E-16	3.861855E-18
6.110000E+03	2.950663E-16	3.874252E-18
6.120000E+03	2.957496E-16	3.887272E-18
6.130000E+03	2.964483E-16	3.900955E-18
6.140000E+03	2.971695E-16	3.915516E-18
6.150000E+03	2.979141E-16	3.931090E-18
6.160000E+03	2.986863E-16	3.947858E-18
6.170000E+03	2.994905E-16	3.966012E-18
6.180000E+03	3.003312E-16	3.985744E-18
6.190000E+03	3.012064E-16	4.007168E-18
6.200000E+03	3.021244E-16	4.030532E-18
6.210000E+03	3.030801E-16	4.055913E-18
6.220000E+03	3.040719E-16	4.083431E-18
6.230000E+03	3.051048E-16	4.113297E-18
6.240000E+03	3.061769E-16	4.145632E-18
6.250000E+03	3.072862E-16	4.180550E-18
6.260000E+03	3.084302E-16	4.218163E-18
6.270000E+03	3.096166E-16	4.258709E-18
6.280000E+03	3.108357E-16	4.302109E-18
6.290000E+03	3.120946E-16	4.348415E-18
6.300000E+03	3.133900E-16	4.397526E-18
6.310000E+03	3.147216E-16	4.449377E-18
6.320000E+03	3.160884E-16	4.503893E-18
6.330000E+03	3.174856E-16	4.560934E-18
6.340000E+03	3.189146E-16	4.620450E-18
6.350000E+03	3.203691E-16	4.682278E-18
6.360000E+03	3.218495E-16	4.746342E-18
6.370000E+03	3.233442E-16	4.812392E-18
6.380000E+03	3.248520E-16	4.880325E-18
6.390000E+03	3.263600E-16	4.949858E-18
6.400000E+03	3.278658E-16	5.020863E-18
6.410000E+03	3.293588E-16	5.093082E-18
6.420000E+03	3.308284E-16	5.166248E-18
6.430000E+03	3.322628E-16	5.240075E-18
6.440000E+03	3.336507E-16	5.314270E-18
6.450000E+03	3.349800E-16	5.388526E-18
6.460000E+03	3.362424E-16	5.462589E-18
6.470000E+03	3.374222E-16	5.536078E-18
6.480000E+03	3.385268E-16	5.608990E-18
6.490000E+03	3.395491E-16	5.681077E-18
6.500000E+03	3.404855E-16	5.752158E-18
6.510000E+03	3.413455E-16	5.822268E-18
6.520000E+03	3.421149E-16	5.891042E-18
6.530000E+03	3.428001E-16	5.958471E-18
6.540000E+03	3.434002E-16	6.024419E-18
6.550000E+03	3.439104E-16	6.088689E-18
6.560000E+03	3.443267E-16	6.151092E-18
6.570000E+03	3.446497E-16	6.211528E-18
6.580000E+03	3.448804E-16	6.269906E-18
6.590000E+03	3.450123E-16	6.325999E-18
6.600000E+03	3.450518E-16	6.379822E-18
6.610000E+03	3.449931E-16	6.431168E-18
6.620000E+03	3.448354E-16	6.479924E-18
6.630000E+03	3.445865E-16	6.526144E-18
6.640000E+03	3.442379E-16	6.569579E-18
6.650000E+03	3.437985E-16	6.610313E-18
6.660000E+03	3.432647E-16	6.648197E-18
6.670000E+03	3.426418E-16	6.683261E-18
6.680000E+03	3.419313E-16	6.715461E-18
6.690000E+03	3.411302E-16	6.744676E-18
6.700000E+03	3.402493E-16	6.771053E-18
6.710000E+03	3.392816E-16	6.794402E-18
6.720000E+03	3.382382E-16	6.814892E-18
6.730000E+03	3.371167E-16	6.832429E-18
6.740000E+03	3.359241E-16	6.847112E-18
6.750000E+03	3.346536E-16	6.858766E-18
6.760000E+03	3.333209E-16	6.867683E-18
6.770000E+03	3.319196E-16	6.873700E-18
6.780000E+03	3.304519E-16	6.876838E-18
6.790000E+03	3.289288E-16	6.877312E-18
6.800000E+03	3.273395E-16	6.874876E-18
6.810000E+03	3.256994E-16	6.869840E-18
6.820000E+03	3.240016E-16	6.862059E-18
6.830000E+03	3.222575E-16	6.851764E-18
6.840000E+03	3.204557E-16	6.838716E-18
6.850000E+03	3.186118E-16	6.823249E-18
6.860000E+03	3.167237E-16	6.805325E-18
6.870000E+03	3.147894E-16	6.784912E-18
6.880000E+03	3.128156E-16	6.762167E-18
6.890000E+03	3.108050E-16	6.737165E-18
6.900000E+03	3.087560E-16	6.709889E-18
6.910000E+03	3.066801E-16	6.680612E-18
6.920000E+03	3.045718E-16	6.649236E-18
6.930000E+03	3.024384E-16	6.615952E-18
6.940000E+03	3.002794E-16	6.580775E-18
6.950000E+03	2.981023E-16	6.543904E-18
6.960000E+03	2.959109E-16	6.505456E-18
6.970000E+03	2.937093E-16	6.465556E-18
6.980000E+03	2.914971E-16	6.424233E-18
6.990000E+03	2.892785E-16	6.381623E-18
7.000000E+03	2.870622E-16	6.337954E-18
7.010000E+03	2.848522E-16	6.293363E-18
7.020000E+03	2.826490E-16	6.247899E-18
7.030000E+03	2.804571E-16	6.201711E-18
7.040000E+03	2.782850E-16	6.155034E-18
7.050000E+03	2.761333E-16	6.107926E-18
7.060000E+03	2.740063E-16	6.060530E-18
7.070000E+03	2.719087E-16	6.012999E-18
7.080000E+03	2.698446E-16	5.965473E-18
7.090000E+03	2.678223E-16	5.918185E-18
7.100000E+03	2.658381E-16	5.871100E-18
7.110000E+03	2.638996E-16	5.824440E-18
7.120000E+03	2.620107E-16	5.778338E-18
7.130000E+03	2.601748E-16	5.732919E-18
7.140000E+03	2.583949E-16	5.688301E-18
7.150000E+03	2.566698E-16	5.644508E-18
7.160000E+03	2.550058E-16	5.601730E-18
7.170000E+03	2.534009E-16	5.559972E-18
7.180000E+03	2.518605E-16	5.519405E-18
7.190000E+03	2.503814E-16	5.480014E-18
7.200000E+03	2.489644E-16	5.441862E-18
7.210000E+03	2.476090E-16	5.405000E-18
7.220000E+03	2.463187E-16	5.369552E-18
7.230000E+03	2.450843E-16	5.335377E-18
7.240000E+03	2.439119E-16	5.302664E-18
7.250000E+03	2.427917E-16	5.271257E-18
7.260000E+03	2.417248E-16	5.241240E-18
7.270000E+03	2.407044E-16	5.212525E-18
7.280000E+03	2.397310E-16	5.185186E-18
7.290000E+03	2.388010E-16	5.159212E-18
7.300000E+03	2.379029E-16	5.134422E-18
7.310000E+03	2.370408E-16	5.110965E-18
7.320000E+03	2.362106E-16	5.088829E-18
7.330000E+03	2.354012E-16	5.067845E-18
7.340000E+03	2.346131E-16	5.048090E-18
7.350000E+03	2.338428E-16	5.029568E-18
7.360000E+03	2.330878E-16	5.012297E-18
7.370000E+03	2.323418E-16	4.996217E-18
7.380000E+03	2.316068E-16	4.981446E-18
7.390000E+03	2.308815E-16	4.968030E-18
7.400000E+03	2.301613E-16	4.955946E-18
7.410000E+03	2.294462E-16	4.945267E-18
7.420000E+03	2.287364E-16	4.936072E-18
7.430000E+03	2.280292E-16	4.928375E-18
7.440000E+03	2.273295E-16	4.922354E-18
7.450000E+03	2.266354E-16	4.918036E-18
7.460000E+03	2.259565E-16	4.915701E-18
7.470000E+03	2.252875E-16	4.915299E-18
7.480000E+03	2.246383E-16	4.917113E-18
7.490000E+03	2.240040E-16	4.921100E-18
7.500000E+03	2.233941E-16	4.927534E-18
7.510000E+03	2.228110E-16	4.936526E-18
7.520000E+03	2.222528E-16	4.948097E-18
7.530000E+03	2.217210E-16	4.962338E-18
7.540000E+03	2.212203E-16	4.979412E-18
7.550000E+03	2.207478E-16	4.999288E-18
7.560000E+03	2.203072E-16	5.022028E-18
7.570000E+03	2.198944E-16	5.047502E-18
7.580000E+03	2.195124E-16	5.075740E-18
7.590000E+03	2.191564E-16	5.106592E-18
7.600000E+03	2.188323E-16	5.140159E-18
7.610000E+03	2.185316E-16	5.176195E-18
7.620000E+03	2.182563E-16	5.214712E-18
7.630000E+03	2.180014E-16	5.255540E-18
7.640000E+03	2.177729E-16	5.298786E-18
7.650000E+03	2.175618E-16	5.344186E-18
7.660000E+03	2.173739E-16	5.391839E-18
7.670000E+03	2.171998E-16	5.441468E-18
7.680000E+03	2.170410E-16	5.493061E-18
7.690000E+03	2.168948E-16	5.546508E-18
7.700000E+03	2.167620E-16	5.601777E-18
7.710000E+03	2.166312E-16	5.658530E-18
7.720000E+03	2.165024E-16	5.716708E-18
7.730000E+03	2.163712E-16	5.776145E-18
7.740000E+03	2.162327E-16	5.836649E-18
7.750000E+03	2.160857E-16	5.898127E-18
7.760000E+03	2.159172E-16	5.960163E-18
