#wls	flux	fluxerr
1.600000E+03	4.327796E-17	1.257846E-18
1.640000E+03	4.190611E-17	1.216084E-18
1.680000E+03	4.062008E-17	1.176880E-18
1.720000E+03	3.941649E-17	1.140129E-18
1.760000E+03	3.830032E-17	1.105967E-18
1.800000E+03	3.727356E-17	1.074440E-18
1.840000E+03	3.634041E-17	1.045660E-18
1.880000E+03	3.550251E-17	1.019662E-18
1.920000E+03	3.475945E-17	9.964212E-19
1.960000E+03	3.411726E-17	9.760967E-19
2.000000E+03	3.357568E-17	9.586661E-19
2.040000E+03	3.313872E-17	9.442272E-19
2.080000E+03	3.280676E-17	9.327732E-19
2.120000E+03	3.258605E-17	9.244631E-19
2.160000E+03	3.247774E-17	9.193081E-19
2.200000E+03	3.248706E-17	9.174339E-19
2.240000E+03	3.261645E-17	9.188845E-19
2.280000E+03	3.287248E-17	9.238187E-19
2.320000E+03	3.326260E-17	9.324159E-19
2.360000E+03	3.379213E-17	9.447934E-19
2.400000E+03	3.447106E-17	9.611945E-19
2.440000E+03	3.530950E-17	9.818621E-19
2.480000E+03	3.632139E-17	1.007139E-18
2.520000E+03	3.751847E-17	1.037302E-18
2.560000E+03	3.892409E-17	1.072942E-18
2.600000E+03	4.055770E-17	1.114529E-18
2.640000E+03	4.244906E-17	1.162811E-18
2.680000E+03	4.463303E-17	1.218657E-18
2.720000E+03	4.715482E-17	1.283203E-18
2.760000E+03	5.006656E-17	1.357753E-18
2.800000E+03	5.343732E-17	1.444041E-18
2.840000E+03	5.735079E-17	1.544163E-18
2.880000E+03	6.191100E-17	1.660722E-18
2.920000E+03	6.724720E-17	1.796939E-18
2.960000E+03	7.351960E-17	1.956799E-18
3.000000E+03	8.092654E-17	2.145214E-18
3.010000E+03	8.298117E-17	2.197409E-18
3.020000E+03	8.512918E-17	2.251948E-18
3.030000E+03	8.736955E-17	2.308796E-18
3.040000E+03	8.971283E-17	2.368222E-18
3.050000E+03	9.215823E-17	2.430197E-18
3.060000E+03	9.471407E-17	2.494928E-18
3.070000E+03	9.738581E-17	2.562549E-18
3.080000E+03	1.001796E-16	2.633211E-18
3.090000E+03	1.031014E-16	2.707059E-18
3.100000E+03	1.061578E-16	2.784253E-18
3.110000E+03	1.093523E-16	2.864870E-18
3.120000E+03	1.126987E-16	2.949261E-18
3.130000E+03	1.161978E-16	3.037427E-18
3.140000E+03	1.198607E-16	3.129646E-18
3.150000E+03	1.236958E-16	3.226122E-18
3.160000E+03	1.277117E-16	3.327058E-18
3.170000E+03	1.319174E-16	3.432673E-18
3.180000E+03	1.363225E-16	3.543196E-18
3.190000E+03	1.409325E-16	3.658748E-18
3.200000E+03	1.457661E-16	3.779797E-18
3.210000E+03	1.508255E-16	3.906373E-18
3.220000E+03	1.561259E-16	4.038849E-18
3.230000E+03	1.616793E-16	4.177506E-18
3.240000E+03	1.674973E-16	4.322623E-18
3.250000E+03	1.735930E-16	4.474503E-18
3.260000E+03	1.799737E-16	4.633311E-18
3.270000E+03	1.866635E-16	4.799631E-18
3.280000E+03	1.936655E-16	4.973513E-18
3.290000E+03	2.009993E-16	5.155426E-18
3.300000E+03	2.086796E-16	5.345711E-18
3.310000E+03	2.167219E-16	5.544726E-18
3.320000E+03	2.251354E-16	5.752667E-18
3.330000E+03	2.339486E-16	5.970220E-18
3.340000E+03	2.431649E-16	6.197430E-18
3.350000E+03	2.528075E-16	6.434838E-18
3.360000E+03	2.628933E-16	6.682833E-18
3.370000E+03	2.734397E-16	6.941802E-18
3.380000E+03	2.844564E-16	7.211942E-18
3.390000E+03	2.959764E-16	7.494034E-18
3.400000E+03	3.080018E-16	7.788074E-18
3.410000E+03	3.205583E-16	8.094652E-18
3.420000E+03	3.336547E-16	8.413931E-18
3.430000E+03	3.473262E-16	8.746736E-18
3.440000E+03	3.615727E-16	9.092993E-18
3.450000E+03	3.764203E-16	9.453292E-18
3.460000E+03	3.918860E-16	9.827989E-18
3.470000E+03	4.079760E-16	1.021717E-17
3.480000E+03	4.247272E-16	1.062167E-17
3.490000E+03	4.421334E-16	1.104127E-17
3.500000E+03	4.602200E-16	1.147652E-17
3.510000E+03	4.789886E-16	1.192737E-17
3.520000E+03	4.984634E-16	1.239435E-17
3.530000E+03	5.186561E-16	1.287765E-17
3.540000E+03	5.395768E-16	1.337744E-17
3.550000E+03	5.612207E-16	1.389350E-17
3.560000E+03	5.836079E-16	1.442625E-17
3.570000E+03	6.067440E-16	1.497573E-17
3.580000E+03	6.306173E-16	1.554154E-17
3.590000E+03	6.552435E-16	1.612399E-17
3.600000E+03	6.806218E-16	1.672296E-17
3.610000E+03	7.067490E-16	1.733827E-17
3.620000E+03	7.336013E-16	1.796923E-17
3.630000E+03	7.611683E-16	1.861549E-17
3.640000E+03	7.894549E-16	1.927708E-17
3.650000E+03	8.184458E-16	1.995353E-17
3.660000E+03	8.481221E-16	2.064427E-17
3.670000E+03	8.784404E-16	2.134816E-17
3.680000E+03	9.093937E-16	2.206493E-17
3.690000E+03	9.409280E-16	2.279319E-17
3.700000E+03	9.730304E-16	2.353254E-17
3.710000E+03	1.005635E-15	2.428131E-17
3.720000E+03	1.038720E-15	2.503887E-17
3.730000E+03	1.072209E-15	2.580333E-17
3.740000E+03	1.106070E-15	2.657386E-17
3.750000E+03	1.140241E-15	2.734886E-17
3.760000E+03	1.174600E-15	2.812543E-17
3.770000E+03	1.209153E-15	2.890360E-17
3.780000E+03	1.243763E-15	2.968010E-17
3.790000E+03	1.278344E-15	3.045285E-17
3.800000E+03	1.312831E-15	3.122027E-17
3.810000E+03	1.347095E-15	3.197931E-17
3.820000E+03	1.381060E-15	3.272816E-17
3.830000E+03	1.414587E-15	3.346356E-17
3.840000E+03	1.447558E-15	3.418275E-17
3.850000E+03	1.479883E-15	3.488368E-17
3.860000E+03	1.511408E-15	3.556278E-17
3.870000E+03	1.542039E-15	3.621791E-17
3.880000E+03	1.571613E-15	3.684537E-17
3.890000E+03	1.600001E-15	3.744227E-17
3.900000E+03	1.627110E-15	3.800653E-17
3.910000E+03	1.652779E-15	3.853458E-17
3.920000E+03	1.676887E-15	3.902378E-17
3.930000E+03	1.699320E-15	3.947165E-17
3.940000E+03	1.720005E-15	3.987673E-17
3.950000E+03	1.738814E-15	4.023625E-17
3.960000E+03	1.755665E-15	4.054857E-17
3.970000E+03	1.770490E-15	4.081240E-17
3.980000E+03	1.783281E-15	4.102775E-17
3.990000E+03	1.793973E-15	4.119346E-17
4.000000E+03	1.802564E-15	4.130973E-17
4.010000E+03	1.809075E-15	4.137732E-17
4.020000E+03	1.813552E-15	4.139757E-17
4.030000E+03	1.816069E-15	4.137242E-17
4.040000E+03	1.816758E-15	4.130517E-17
4.050000E+03	1.815674E-15	4.119727E-17
4.060000E+03	1.813030E-15	4.105385E-17
4.070000E+03	1.808922E-15	4.087725E-17
4.080000E+03	1.803601E-15	4.067336E-17
4.090000E+03	1.797225E-15	4.044589E-17
4.100000E+03	1.789961E-15	4.019876E-17
4.110000E+03	1.782085E-15	3.993828E-17
4.120000E+03	1.773768E-15	3.966836E-17
4.130000E+03	1.765181E-15	3.939289E-17
4.140000E+03	1.756587E-15	3.911776E-17
4.150000E+03	1.748108E-15	3.884571E-17
4.160000E+03	1.739988E-15	3.858212E-17
4.170000E+03	1.732327E-15	3.832918E-17
4.180000E+03	1.725314E-15	3.809098E-17
4.190000E+03	1.719093E-15	3.787059E-17
4.200000E+03	1.713797E-15	3.767085E-17
4.210000E+03	1.709520E-15	3.749369E-17
4.220000E+03	1.706445E-15	3.734297E-17
4.230000E+03	1.704630E-15	3.721976E-17
4.240000E+03	1.704222E-15	3.712712E-17
4.250000E+03	1.705314E-15	3.706685E-17
4.260000E+03	1.708099E-15	3.704290E-17
4.270000E+03	1.712654E-15	3.705667E-17
4.280000E+03	1.719130E-15	3.711121E-17
4.290000E+03	1.727754E-15	3.721109E-17
4.300000E+03	1.738648E-15	3.735859E-17
4.310000E+03	1.752005E-15	3.755754E-17
4.320000E+03	1.768097E-15	3.781336E-17
4.330000E+03	1.787053E-15	3.812840E-17
4.340000E+03	1.809198E-15	3.850912E-17
4.350000E+03	1.834706E-15	3.895873E-17
4.360000E+03	1.863812E-15	3.948167E-17
4.370000E+03	1.896771E-15	4.008279E-17
4.380000E+03	1.933794E-15	4.076595E-17
4.390000E+03	1.975026E-15	4.153351E-17
4.400000E+03	2.020600E-15	4.238763E-17
4.410000E+03	2.070622E-15	4.332983E-17
4.420000E+03	2.125046E-15	4.435848E-17
4.430000E+03	2.183797E-15	4.547123E-17
4.440000E+03	2.246593E-15	4.666161E-17
4.450000E+03	2.313073E-15	4.792144E-17
4.460000E+03	2.382581E-15	4.923660E-17
4.470000E+03	2.454458E-15	5.059297E-17
4.480000E+03	2.527596E-15	5.196740E-17
4.490000E+03	2.600875E-15	5.333670E-17
4.500000E+03	2.672859E-15	5.467143E-17
4.510000E+03	2.741990E-15	5.594001E-17
4.520000E+03	2.806602E-15	5.710898E-17
4.530000E+03	2.865049E-15	5.814561E-17
4.540000E+03	2.915647E-15	5.901683E-17
4.550000E+03	2.956915E-15	5.969394E-17
4.560000E+03	2.987623E-15	6.015371E-17
4.570000E+03	3.006880E-15	6.037993E-17
4.580000E+03	3.014247E-15	6.036564E-17
4.590000E+03	3.009578E-15	6.010986E-17
4.600000E+03	2.993357E-15	5.962420E-17
4.610000E+03	2.966334E-15	5.892543E-17
4.620000E+03	2.929655E-15	5.803803E-17
4.630000E+03	2.884687E-15	5.699056E-17
4.640000E+03	2.833107E-15	5.581750E-17
4.650000E+03	2.776536E-15	5.455173E-17
4.660000E+03	2.716631E-15	5.322660E-17
4.670000E+03	2.654970E-15	5.187350E-17
4.680000E+03	2.592954E-15	5.052002E-17
4.690000E+03	2.531926E-15	4.919235E-17
4.700000E+03	2.472916E-15	4.791028E-17
4.710000E+03	2.416748E-15	4.668946E-17
4.720000E+03	2.364130E-15	4.554302E-17
4.730000E+03	2.315542E-15	4.447968E-17
4.740000E+03	2.271336E-15	4.350549E-17
4.750000E+03	2.231577E-15	4.262099E-17
4.760000E+03	2.196412E-15	4.182828E-17
4.770000E+03	2.165752E-15	4.112489E-17
4.780000E+03	2.139419E-15	4.050675E-17
4.790000E+03	2.117236E-15	3.996977E-17
4.800000E+03	2.098938E-15	3.950834E-17
4.810000E+03	2.084193E-15	3.911556E-17
4.820000E+03	2.072701E-15	3.878524E-17
4.830000E+03	2.064117E-15	3.851040E-17
4.840000E+03	2.058082E-15	3.828393E-17
4.850000E+03	2.054214E-15	3.809831E-17
4.860000E+03	2.052194E-15	3.794728E-17
4.870000E+03	2.051693E-15	3.782449E-17
4.880000E+03	2.052371E-15	3.772345E-17
4.890000E+03	2.053981E-15	3.763944E-17
4.900000E+03	2.056282E-15	3.756791E-17
4.910000E+03	2.059049E-15	3.750467E-17
4.920000E+03	2.062168E-15	3.744759E-17
4.930000E+03	2.065526E-15	3.739455E-17
4.940000E+03	2.069130E-15	3.734567E-17
4.950000E+03	2.072998E-15	3.730123E-17
4.960000E+03	2.077276E-15	3.726384E-17
4.970000E+03	2.082149E-15	3.723673E-17
4.980000E+03	2.087842E-15	3.722384E-17
4.990000E+03	2.094666E-15	3.723058E-17
5.000000E+03	2.103016E-15	3.726376E-17
5.010000E+03	2.113263E-15	3.732970E-17
5.020000E+03	2.125857E-15	3.743604E-17
5.030000E+03	2.141221E-15	3.758983E-17
5.040000E+03	2.159694E-15	3.779658E-17
5.050000E+03	2.181723E-15	3.806357E-17
5.060000E+03	2.207502E-15	3.839365E-17
5.070000E+03	2.237315E-15	3.879114E-17
5.080000E+03	2.271146E-15	3.925514E-17
5.090000E+03	2.308997E-15	3.978506E-17
5.100000E+03	2.350618E-15	4.037600E-17
5.110000E+03	2.395659E-15	4.102137E-17
5.120000E+03	2.443532E-15	4.171063E-17
5.130000E+03	2.493508E-15	4.243097E-17
5.140000E+03	2.544740E-15	4.316773E-17
5.150000E+03	2.596182E-15	4.390304E-17
5.160000E+03	2.646764E-15	4.461891E-17
5.170000E+03	2.695308E-15	4.529569E-17
5.180000E+03	2.740682E-15	4.591482E-17
5.190000E+03	2.781834E-15	4.645928E-17
5.200000E+03	2.817885E-15	4.691511E-17
5.210000E+03	2.848064E-15	4.727036E-17
5.220000E+03	2.871895E-15	4.751813E-17
5.230000E+03	2.889020E-15	4.765352E-17
5.240000E+03	2.899469E-15	4.767808E-17
5.250000E+03	2.903398E-15	4.759544E-17
5.260000E+03	2.901063E-15	4.741078E-17
5.270000E+03	2.893004E-15	4.713387E-17
5.280000E+03	2.879726E-15	4.677383E-17
5.290000E+03	2.861858E-15	4.634158E-17
5.300000E+03	2.839913E-15	4.584616E-17
5.310000E+03	2.814541E-15	4.529858E-17
5.320000E+03	2.786268E-15	4.470781E-17
5.330000E+03	2.755493E-15	4.408067E-17
5.340000E+03	2.722707E-15	4.342533E-17
5.350000E+03	2.688231E-15	4.274716E-17
5.360000E+03	2.652362E-15	4.205114E-17
5.370000E+03	2.615380E-15	4.134183E-17
5.380000E+03	2.577406E-15	4.062133E-17
5.390000E+03	2.538659E-15	3.989317E-17
5.400000E+03	2.499242E-15	3.915904E-17
5.410000E+03	2.459156E-15	3.841906E-17
5.420000E+03	2.418502E-15	3.767484E-17
5.430000E+03	2.377256E-15	3.692608E-17
5.440000E+03	2.335407E-15	3.617263E-17
5.450000E+03	2.292929E-15	3.541415E-17
5.460000E+03	2.249822E-15	3.465071E-17
5.470000E+03	2.206031E-15	3.388149E-17
5.480000E+03	2.161550E-15	3.310643E-17
5.490000E+03	2.116427E-15	3.232635E-17
5.500000E+03	2.070676E-15	3.154147E-17
5.510000E+03	2.024468E-15	3.075440E-17
5.520000E+03	1.977961E-15	2.996750E-17
5.530000E+03	1.931299E-15	2.918292E-17
5.540000E+03	1.884752E-15	2.840469E-17
5.550000E+03	1.838531E-15	2.763586E-17
5.560000E+03	1.792886E-15	2.688011E-17
5.570000E+03	1.748074E-15	2.614112E-17
5.580000E+03	1.704378E-15	2.542293E-17
5.590000E+03	1.662026E-15	2.472876E-17
5.600000E+03	1.621286E-15	2.406238E-17
5.610000E+03	1.582348E-15	2.342637E-17
5.620000E+03	1.545473E-15	2.282431E-17
5.630000E+03	1.510840E-15	2.225855E-17
5.640000E+03	1.478648E-15	2.173174E-17
5.650000E+03	1.449020E-15	2.124538E-17
5.660000E+03	1.422133E-15	2.080175E-17
5.670000E+03	1.398107E-15	2.040225E-17
5.680000E+03	1.377007E-15	2.004752E-17
5.690000E+03	1.358948E-15	1.973890E-17
5.700000E+03	1.343977E-15	1.947673E-17
5.710000E+03	1.332152E-15	1.926152E-17
5.720000E+03	1.323479E-15	1.909304E-17
5.730000E+03	1.317966E-15	1.897105E-17
5.740000E+03	1.315611E-15	1.889523E-17
5.750000E+03	1.316361E-15	1.886450E-17
5.760000E+03	1.320153E-15	1.887766E-17
5.770000E+03	1.326916E-15	1.893342E-17
5.780000E+03	1.336517E-15	1.902960E-17
5.790000E+03	1.348809E-15	1.916385E-17
5.800000E+03	1.363629E-15	1.933364E-17
5.810000E+03	1.380747E-15	1.953549E-17
5.820000E+03	1.399935E-15	1.976597E-17
5.830000E+03	1.420895E-15	2.002074E-17
5.840000E+03	1.443321E-15	2.029534E-17
5.850000E+03	1.466904E-15	2.058533E-17
5.860000E+03	1.491283E-15	2.088555E-17
5.870000E+03	1.516133E-15	2.119143E-17
5.880000E+03	1.541102E-15	2.149803E-17
5.890000E+03	1.565883E-15	2.180108E-17
5.900000E+03	1.590253E-15	2.209753E-17
5.910000E+03	1.613948E-15	2.238372E-17
5.920000E+03	1.636880E-15	2.265856E-17
5.930000E+03	1.659009E-15	2.292154E-17
5.940000E+03	1.680375E-15	2.317328E-17
5.950000E+03	1.701144E-15	2.341617E-17
5.960000E+03	1.721614E-15	2.365434E-17
5.970000E+03	1.742170E-15	2.389309E-17
5.980000E+03	1.763277E-15	2.413883E-17
5.990000E+03	1.785521E-15	2.439951E-17
6.000000E+03	1.809622E-15	2.468490E-17
6.010000E+03	1.836264E-15	2.500418E-17
6.020000E+03	1.866341E-15	2.536936E-17
6.030000E+03	1.900698E-15	2.579164E-17
6.040000E+03	1.940279E-15	2.628357E-17
6.050000E+03	1.986113E-15	2.685871E-17
6.060000E+03	2.039257E-15	2.753094E-17
6.070000E+03	2.100815E-15	2.831467E-17
6.080000E+03	2.171911E-15	2.922451E-17
6.090000E+03	2.253736E-15	3.027585E-17
6.100000E+03	2.347569E-15	3.148523E-17
6.110000E+03	2.454587E-15	3.286767E-17
6.120000E+03	2.576012E-15	3.443875E-17
6.130000E+03	2.713085E-15	3.621419E-17
6.140000E+03	2.866811E-15	3.820652E-17
6.150000E+03	3.038128E-15	4.042728E-17
6.160000E+03	3.227677E-15	4.288404E-17
6.170000E+03	3.435686E-15	4.557887E-17
6.180000E+03	3.661973E-15	4.850840E-17
6.190000E+03	3.905685E-15	5.166043E-17
6.200000E+03	4.165142E-15	5.501195E-17
6.210000E+03	4.437921E-15	5.853030E-17
6.220000E+03	4.720383E-15	6.216701E-17
6.230000E+03	5.007998E-15	6.586218E-17
6.240000E+03	5.295145E-15	6.954194E-17
6.250000E+03	5.575267E-15	7.312056E-17
6.260000E+03	5.841004E-15	7.650225E-17
6.270000E+03	6.084795E-15	7.958911E-17
6.280000E+03	6.298750E-15	8.227941E-17
6.290000E+03	6.475640E-15	8.448060E-17
6.300000E+03	6.609085E-15	8.611157E-17
6.310000E+03	6.694085E-15	8.710957E-17
6.320000E+03	6.727405E-15	8.743501E-17
6.330000E+03	6.707835E-15	8.707473E-17
6.340000E+03	6.636288E-15	8.604306E-17
6.350000E+03	6.515638E-15	8.437963E-17
6.360000E+03	6.350824E-15	8.215045E-17
6.370000E+03	6.147964E-15	7.943644E-17
6.380000E+03	5.914234E-15	7.633173E-17
6.390000E+03	5.657221E-15	7.293525E-17
6.400000E+03	5.384732E-15	6.934834E-17
6.410000E+03	5.103938E-15	6.566363E-17
6.420000E+03	4.821281E-15	6.196403E-17
6.430000E+03	4.542437E-15	5.832222E-17
6.440000E+03	4.271812E-15	5.479434E-17
6.450000E+03	4.012790E-15	5.142319E-17
6.460000E+03	3.767727E-15	4.823827E-17
6.470000E+03	3.538065E-15	4.525731E-17
6.480000E+03	3.324493E-15	4.248831E-17
6.490000E+03	3.127149E-15	3.993226E-17
6.500000E+03	2.945618E-15	3.758311E-17
6.510000E+03	2.779375E-15	3.543349E-17
6.520000E+03	2.627591E-15	3.347218E-17
6.530000E+03	2.489316E-15	3.168651E-17
6.540000E+03	2.363363E-15	3.006084E-17
6.550000E+03	2.248383E-15	2.857756E-17
6.560000E+03	2.143098E-15	2.722003E-17
6.570000E+03	2.046331E-15	2.597293E-17
6.580000E+03	1.957095E-15	2.482346E-17
6.590000E+03	1.874545E-15	2.376064E-17
6.600000E+03	1.797943E-15	2.277487E-17
6.610000E+03	1.726668E-15	2.185809E-17
6.620000E+03	1.660132E-15	2.100267E-17
6.630000E+03	1.597858E-15	2.020242E-17
6.640000E+03	1.539372E-15	1.945121E-17
6.650000E+03	1.484342E-15	1.874472E-17
6.660000E+03	1.432434E-15	1.807863E-17
6.670000E+03	1.383411E-15	1.744983E-17
6.680000E+03	1.337044E-15	1.685536E-17
6.690000E+03	1.293181E-15	1.629321E-17
6.700000E+03	1.251724E-15	1.576208E-17
6.710000E+03	1.212585E-15	1.526079E-17
6.720000E+03	1.175724E-15	1.478875E-17
6.730000E+03	1.141139E-15	1.434589E-17
6.740000E+03	1.108818E-15	1.393199E-17
6.750000E+03	1.078790E-15	1.354736E-17
6.760000E+03	1.051061E-15	1.319201E-17
6.770000E+03	1.025655E-15	1.286620E-17
6.780000E+03	1.002608E-15	1.257030E-17
6.790000E+03	9.819257E-16	1.230434E-17
6.800000E+03	9.636354E-16	1.206860E-17
6.810000E+03	9.477333E-16	1.186299E-17
6.820000E+03	9.342366E-16	1.168766E-17
6.830000E+03	9.231313E-16	1.154239E-17
6.840000E+03	9.144246E-16	1.142720E-17
6.850000E+03	9.080947E-16	1.134177E-17
6.860000E+03	9.041405E-16	1.128603E-17
6.870000E+03	9.025332E-16	1.125958E-17
6.880000E+03	9.032659E-16	1.126225E-17
6.890000E+03	9.063165E-16	1.129374E-17
6.900000E+03	9.116486E-16	1.135352E-17
6.910000E+03	9.192363E-16	1.144122E-17
6.920000E+03	9.290659E-16	1.155661E-17
6.930000E+03	9.411119E-16	1.169931E-17
6.940000E+03	9.553371E-16	1.186881E-17
6.950000E+03	9.717334E-16	1.206495E-17
6.960000E+03	9.902714E-16	1.228730E-17
6.970000E+03	1.010955E-15	1.253584E-17
6.980000E+03	1.033781E-15	1.281049E-17
6.990000E+03	1.058745E-15	1.311111E-17
7.000000E+03	1.085882E-15	1.343807E-17
7.010000E+03	1.115226E-15	1.379174E-17
7.020000E+03	1.146815E-15	1.417251E-17
7.030000E+03	1.180741E-15	1.458143E-17
7.040000E+03	1.217085E-15	1.501944E-17
7.050000E+03	1.256009E-15	1.548846E-17
7.060000E+03	1.297618E-15	1.598966E-17
7.070000E+03	1.342154E-15	1.652598E-17
7.080000E+03	1.389795E-15	1.709947E-17
7.090000E+03	1.440799E-15	1.771320E-17
7.100000E+03	1.495415E-15	1.837012E-17
7.110000E+03	1.553869E-15	1.907287E-17
7.120000E+03	1.616403E-15	1.982429E-17
7.130000E+03	1.683192E-15	2.062636E-17
7.140000E+03	1.754328E-15	2.148005E-17
7.150000E+03	1.829765E-15	2.238465E-17
7.160000E+03	1.909356E-15	2.333819E-17
7.170000E+03	1.992740E-15	2.433611E-17
7.180000E+03	2.079311E-15	2.537086E-17
7.190000E+03	2.168308E-15	2.643302E-17
7.200000E+03	2.258591E-15	2.750861E-17
7.210000E+03	2.348864E-15	2.858179E-17
7.220000E+03	2.437535E-15	2.963315E-17
7.230000E+03	2.522894E-15	3.064199E-17
7.240000E+03	2.603116E-15	3.158624E-17
7.250000E+03	2.676223E-15	3.244209E-17
7.260000E+03	2.740358E-15	3.318729E-17
7.270000E+03	2.793891E-15	3.380241E-17
7.280000E+03	2.835266E-15	3.426904E-17
7.290000E+03	2.863354E-15	3.457397E-17
7.300000E+03	2.877349E-15	3.470798E-17
7.310000E+03	2.876837E-15	3.466661E-17
7.320000E+03	2.861814E-15	3.445035E-17
7.330000E+03	2.832620E-15	3.406385E-17
7.340000E+03	2.790041E-15	3.351712E-17
7.350000E+03	2.735135E-15	3.282337E-17
7.360000E+03	2.669226E-15	3.199896E-17
7.370000E+03	2.593834E-15	3.106256E-17
7.380000E+03	2.510588E-15	3.003401E-17
7.390000E+03	2.421303E-15	2.893534E-17
7.400000E+03	2.327662E-15	2.778690E-17
7.410000E+03	2.231424E-15	2.660985E-17
7.420000E+03	2.134215E-15	2.542369E-17
7.430000E+03	2.037539E-15	2.424636E-17
7.440000E+03	1.942732E-15	2.309374E-17
7.450000E+03	1.850923E-15	2.197918E-17
7.460000E+03	1.763127E-15	2.091462E-17
7.470000E+03	1.680056E-15	1.990834E-17
7.480000E+03	1.602313E-15	1.896731E-17
7.490000E+03	1.530304E-15	1.809615E-17
7.500000E+03	1.464280E-15	1.729759E-17
7.510000E+03	1.404363E-15	1.657287E-17
7.520000E+03	1.350549E-15	1.592171E-17
7.530000E+03	1.302814E-15	1.534360E-17
7.540000E+03	1.260989E-15	1.483635E-17
7.550000E+03	1.224925E-15	1.439799E-17
7.560000E+03	1.194423E-15	1.402600E-17
7.570000E+03	1.169269E-15	1.371766E-17
7.580000E+03	1.149243E-15	1.347023E-17
7.590000E+03	1.134120E-15	1.328090E-17
7.600000E+03	1.123681E-15	1.314697E-17
7.610000E+03	1.117686E-15	1.306551E-17
7.620000E+03	1.115950E-15	1.303422E-17
7.630000E+03	1.118213E-15	1.304997E-17
7.640000E+03	1.124274E-15	1.311030E-17
7.650000E+03	1.133847E-15	1.321183E-17
7.660000E+03	1.146677E-15	1.335150E-17
7.670000E+03	1.162464E-15	1.352580E-17
7.680000E+03	1.180877E-15	1.373081E-17
7.690000E+03	1.201556E-15	1.396237E-17
7.700000E+03	1.224092E-15	1.421569E-17
7.710000E+03	1.248106E-15	1.448641E-17
7.720000E+03	1.273132E-15	1.476915E-17
7.730000E+03	1.298778E-15	1.505940E-17
7.740000E+03	1.324582E-15	1.535187E-17
7.750000E+03	1.350168E-15	1.564226E-17
7.760000E+03	1.375202E-15	1.592677E-17
