#wls	flux	fluxerr
1.600000E+03	4.454036E-17	1.293971E-18
1.640000E+03	4.315939E-17	1.251929E-18
1.680000E+03	4.185965E-17	1.212311E-18
1.720000E+03	4.064380E-17	1.175185E-18
1.760000E+03	3.951685E-17	1.140687E-18
1.800000E+03	3.847844E-17	1.108799E-18
1.840000E+03	3.753543E-17	1.079707E-18
1.880000E+03	3.668728E-17	1.053383E-18
1.920000E+03	3.593598E-17	1.029873E-18
1.960000E+03	3.528560E-17	1.009278E-18
2.000000E+03	3.473810E-17	9.916404E-19
2.040000E+03	3.429564E-17	9.770048E-19
2.080000E+03	3.396067E-17	9.654232E-19
2.120000E+03	3.373778E-17	9.570073E-19
2.160000E+03	3.362835E-17	9.517747E-19
2.200000E+03	3.363786E-17	9.498587E-19
2.240000E+03	3.376898E-17	9.513093E-19
2.280000E+03	3.403190E-17	9.563872E-19
2.320000E+03	3.442771E-17	9.650932E-19
2.360000E+03	3.496709E-17	9.776940E-19
2.400000E+03	3.565877E-17	9.943985E-19
2.440000E+03	3.651340E-17	1.015463E-18
2.480000E+03	3.754382E-17	1.041201E-18
2.520000E+03	3.876569E-17	1.071997E-18
2.560000E+03	4.019816E-17	1.108324E-18
2.600000E+03	4.186644E-17	1.150814E-18
2.640000E+03	4.379958E-17	1.200190E-18
2.680000E+03	4.603343E-17	1.257351E-18
2.720000E+03	4.861043E-17	1.323356E-18
2.760000E+03	5.158915E-17	1.399682E-18
2.800000E+03	5.503364E-17	1.487929E-18
2.840000E+03	5.903195E-17	1.590309E-18
2.880000E+03	6.368830E-17	1.709431E-18
2.920000E+03	6.912665E-17	1.848378E-18
2.960000E+03	7.551001E-17	2.011210E-18
3.000000E+03	8.303092E-17	2.202694E-18
3.010000E+03	8.511545E-17	2.255696E-18
3.020000E+03	8.729066E-17	2.310973E-18
3.030000E+03	8.956106E-17	2.368635E-18
3.040000E+03	9.192833E-17	2.428719E-18
3.050000E+03	9.440336E-17	2.491502E-18
3.060000E+03	9.698519E-17	2.556948E-18
3.070000E+03	9.968245E-17	2.625275E-18
3.080000E+03	1.024973E-16	2.696530E-18
3.090000E+03	1.054391E-16	2.770945E-18
3.100000E+03	1.085141E-16	2.848673E-18
3.110000E+03	1.117287E-16	2.929870E-18
3.120000E+03	1.150901E-16	3.014708E-18
3.130000E+03	1.186014E-16	3.103260E-18
3.140000E+03	1.222740E-16	3.195801E-18
3.150000E+03	1.261155E-16	3.292522E-18
3.160000E+03	1.301343E-16	3.393618E-18
3.170000E+03	1.343349E-16	3.499192E-18
3.180000E+03	1.387301E-16	3.609558E-18
3.190000E+03	1.433292E-16	3.724940E-18
3.200000E+03	1.481420E-16	3.845567E-18
3.210000E+03	1.531738E-16	3.971561E-18
3.220000E+03	1.584396E-16	4.103284E-18
3.230000E+03	1.639502E-16	4.240992E-18
3.240000E+03	1.697120E-16	4.384825E-18
3.250000E+03	1.757412E-16	4.535177E-18
3.260000E+03	1.820500E-16	4.692332E-18
3.270000E+03	1.886509E-16	4.856584E-18
3.280000E+03	1.955511E-16	5.028084E-18
3.290000E+03	2.027690E-16	5.207278E-18
3.300000E+03	2.103184E-16	5.394483E-18
3.310000E+03	2.182130E-16	5.590016E-18
3.320000E+03	2.264610E-16	5.794047E-18
3.330000E+03	2.350828E-16	6.007062E-18
3.340000E+03	2.440865E-16	6.229225E-18
3.350000E+03	2.535009E-16	6.461228E-18
3.360000E+03	2.633271E-16	6.703058E-18
3.370000E+03	2.735804E-16	6.955052E-18
3.380000E+03	2.842912E-16	7.217938E-18
3.390000E+03	2.954601E-16	7.491679E-18
3.400000E+03	3.071021E-16	7.776604E-18
3.410000E+03	3.192496E-16	8.073479E-18
3.420000E+03	3.319015E-16	8.382219E-18
3.430000E+03	3.450728E-16	8.703141E-18
3.440000E+03	3.587876E-16	9.036793E-18
3.450000E+03	3.730612E-16	9.383502E-18
3.460000E+03	3.879088E-16	9.743577E-18
3.470000E+03	4.033342E-16	1.011705E-17
3.480000E+03	4.193615E-16	1.050446E-17
3.490000E+03	4.359927E-16	1.090578E-17
3.500000E+03	4.532514E-16	1.132152E-17
3.510000E+03	4.711494E-16	1.175192E-17
3.520000E+03	4.896855E-16	1.219685E-17
3.530000E+03	5.088814E-16	1.265678E-17
3.540000E+03	5.287327E-16	1.313152E-17
3.550000E+03	5.492596E-16	1.362150E-17
3.560000E+03	5.704541E-16	1.412642E-17
3.570000E+03	5.923346E-16	1.464666E-17
3.580000E+03	6.149042E-16	1.518220E-17
3.590000E+03	6.381486E-16	1.573261E-17
3.600000E+03	6.620820E-16	1.629816E-17
3.610000E+03	6.866850E-16	1.687826E-17
3.620000E+03	7.119687E-16	1.747311E-17
3.630000E+03	7.379077E-16	1.808199E-17
3.640000E+03	7.645091E-16	1.870500E-17
3.650000E+03	7.917411E-16	1.934125E-17
3.660000E+03	8.196059E-16	1.999073E-17
3.670000E+03	8.480643E-16	2.065238E-17
3.680000E+03	8.771130E-16	2.132605E-17
3.690000E+03	9.067044E-16	2.201049E-17
3.700000E+03	9.368065E-16	2.270485E-17
3.710000E+03	9.674065E-16	2.340874E-17
3.720000E+03	9.984652E-16	2.412115E-17
3.730000E+03	1.029891E-15	2.483978E-17
3.740000E+03	1.061705E-15	2.556508E-17
3.750000E+03	1.093780E-15	2.629395E-17
3.760000E+03	1.126106E-15	2.702608E-17
3.770000E+03	1.158615E-15	2.775981E-17
3.780000E+03	1.191210E-15	2.849277E-17
3.790000E+03	1.223813E-15	2.922306E-17
3.800000E+03	1.256337E-15	2.994861E-17
3.810000E+03	1.288721E-15	3.066791E-17
3.820000E+03	1.320837E-15	3.137800E-17
3.830000E+03	1.352615E-15	3.207715E-17
3.840000E+03	1.383915E-15	3.276214E-17
3.850000E+03	1.414622E-15	3.343026E-17
3.860000E+03	1.444618E-15	3.407879E-17
3.870000E+03	1.473812E-15	3.470563E-17
3.880000E+03	1.502047E-15	3.530723E-17
3.890000E+03	1.529196E-15	3.588067E-17
3.900000E+03	1.555129E-15	3.642308E-17
3.910000E+03	1.579755E-15	3.693242E-17
3.920000E+03	1.602916E-15	3.740517E-17
3.930000E+03	1.624492E-15	3.783873E-17
3.940000E+03	1.644370E-15	3.823065E-17
3.950000E+03	1.662448E-15	3.857879E-17
3.960000E+03	1.678668E-15	3.888202E-17
3.970000E+03	1.692885E-15	3.913720E-17
3.980000E+03	1.705110E-15	3.934489E-17
3.990000E+03	1.715270E-15	3.950362E-17
4.000000E+03	1.723351E-15	3.961336E-17
4.010000E+03	1.729363E-15	3.967460E-17
4.020000E+03	1.733344E-15	3.968850E-17
4.030000E+03	1.735362E-15	3.965686E-17
4.040000E+03	1.735545E-15	3.958288E-17
4.050000E+03	1.733945E-15	3.946802E-17
4.060000E+03	1.730779E-15	3.931740E-17
4.070000E+03	1.726145E-15	3.913348E-17
4.080000E+03	1.720264E-15	3.892147E-17
4.090000E+03	1.713371E-15	3.868685E-17
4.100000E+03	1.705606E-15	3.843291E-17
4.110000E+03	1.697215E-15	3.816531E-17
4.120000E+03	1.688411E-15	3.788894E-17
4.130000E+03	1.679436E-15	3.760925E-17
4.140000E+03	1.670422E-15	3.732926E-17
4.150000E+03	1.661592E-15	3.705391E-17
4.160000E+03	1.653122E-15	3.678714E-17
4.170000E+03	1.645142E-15	3.653175E-17
4.180000E+03	1.637864E-15	3.629239E-17
4.190000E+03	1.631356E-15	3.607050E-17
4.200000E+03	1.625773E-15	3.586935E-17
4.210000E+03	1.621227E-15	3.569130E-17
4.220000E+03	1.617823E-15	3.553850E-17
4.230000E+03	1.615663E-15	3.541303E-17
4.240000E+03	1.614823E-15	3.531638E-17
4.250000E+03	1.615441E-15	3.525137E-17
4.260000E+03	1.617638E-15	3.522041E-17
4.270000E+03	1.621546E-15	3.522614E-17
4.280000E+03	1.627283E-15	3.527089E-17
4.290000E+03	1.635050E-15	3.535871E-17
4.300000E+03	1.645003E-15	3.549269E-17
4.310000E+03	1.657417E-15	3.567839E-17
4.320000E+03	1.672432E-15	3.591847E-17
4.330000E+03	1.690389E-15	3.621986E-17
4.340000E+03	1.711500E-15	3.658659E-17
4.350000E+03	1.736075E-15	3.702484E-17
4.360000E+03	1.764373E-15	3.753958E-17
4.370000E+03	1.796714E-15	3.813704E-17
4.380000E+03	1.833349E-15	3.882189E-17
4.390000E+03	1.874568E-15	3.959961E-17
4.400000E+03	1.920597E-15	4.047424E-17
4.410000E+03	1.971572E-15	4.144789E-17
4.420000E+03	2.027584E-15	4.252170E-17
4.430000E+03	2.088654E-15	4.369530E-17
4.440000E+03	2.154594E-15	4.496398E-17
4.450000E+03	2.225115E-15	4.632097E-17
4.460000E+03	2.299647E-15	4.775368E-17
4.470000E+03	2.377453E-15	4.924619E-17
4.480000E+03	2.457408E-15	5.077474E-17
4.490000E+03	2.538312E-15	5.231422E-17
4.500000E+03	2.618488E-15	5.382999E-17
4.510000E+03	2.696101E-15	5.528454E-17
4.520000E+03	2.769146E-15	5.663720E-17
4.530000E+03	2.835581E-15	5.784705E-17
4.540000E+03	2.893262E-15	5.887146E-17
4.550000E+03	2.940456E-15	5.967664E-17
4.560000E+03	2.975442E-15	6.022941E-17
4.570000E+03	2.997172E-15	6.051054E-17
4.580000E+03	3.004969E-15	6.050851E-17
4.590000E+03	2.998773E-15	6.022431E-17
4.600000E+03	2.979142E-15	5.967140E-17
4.610000E+03	2.947012E-15	5.887062E-17
4.620000E+03	2.903948E-15	5.785518E-17
4.630000E+03	2.851693E-15	5.666145E-17
4.640000E+03	2.792229E-15	5.533024E-17
4.650000E+03	2.727603E-15	5.390316E-17
4.660000E+03	2.659814E-15	5.242048E-17
4.670000E+03	2.590762E-15	5.092008E-17
4.680000E+03	2.522021E-15	4.943302E-17
4.690000E+03	2.455082E-15	4.798845E-17
4.700000E+03	2.391060E-15	4.660779E-17
4.710000E+03	2.330814E-15	4.530732E-17
4.720000E+03	2.275077E-15	4.410063E-17
4.730000E+03	2.224251E-15	4.299479E-17
4.740000E+03	2.178587E-15	4.199386E-17
4.750000E+03	2.138143E-15	4.109812E-17
4.760000E+03	2.102948E-15	4.030728E-17
4.770000E+03	2.072817E-15	3.961698E-17
4.780000E+03	2.047487E-15	3.902140E-17
4.790000E+03	2.026724E-15	3.851529E-17
4.800000E+03	2.010119E-15	3.809017E-17
4.810000E+03	1.997350E-15	3.773930E-17
4.820000E+03	1.987952E-15	3.745329E-17
4.830000E+03	1.981535E-15	3.722428E-17
4.840000E+03	1.977678E-15	3.704393E-17
4.850000E+03	1.975964E-15	3.690398E-17
4.860000E+03	1.975985E-15	3.679653E-17
4.870000E+03	1.977352E-15	3.671408E-17
4.880000E+03	1.979672E-15	3.664915E-17
4.890000E+03	1.982647E-15	3.659607E-17
4.900000E+03	1.985989E-15	3.654947E-17
4.910000E+03	1.989462E-15	3.650495E-17
4.920000E+03	1.992888E-15	3.645924E-17
4.930000E+03	1.996127E-15	3.640981E-17
4.940000E+03	1.999205E-15	3.635719E-17
4.950000E+03	2.002076E-15	3.630056E-17
4.960000E+03	2.004962E-15	3.624400E-17
4.970000E+03	2.008021E-15	3.619034E-17
4.980000E+03	2.011614E-15	3.614607E-17
4.990000E+03	2.016035E-15	3.611639E-17
5.000000E+03	2.021826E-15	3.611084E-17
5.010000E+03	2.029433E-15	3.613716E-17
5.020000E+03	2.039428E-15	3.620522E-17
5.030000E+03	2.052361E-15	3.632438E-17
5.040000E+03	2.068734E-15	3.650306E-17
5.050000E+03	2.089065E-15	3.674981E-17
5.060000E+03	2.113732E-15	3.707065E-17
5.070000E+03	2.143066E-15	3.747071E-17
5.080000E+03	2.177232E-15	3.795214E-17
5.090000E+03	2.216201E-15	3.851366E-17
5.100000E+03	2.259815E-15	3.915184E-17
5.110000E+03	2.307681E-15	3.985915E-17
5.120000E+03	2.359150E-15	4.062380E-17
5.130000E+03	2.413425E-15	4.143156E-17
5.140000E+03	2.469430E-15	4.226364E-17
5.150000E+03	2.525985E-15	4.309966E-17
5.160000E+03	2.581746E-15	4.391673E-17
5.170000E+03	2.635269E-15	4.469052E-17
5.180000E+03	2.685199E-15	4.539851E-17
5.190000E+03	2.730206E-15	4.601894E-17
5.200000E+03	2.769221E-15	4.653460E-17
5.210000E+03	2.801348E-15	4.693147E-17
5.220000E+03	2.826071E-15	4.720201E-17
5.230000E+03	2.843105E-15	4.734267E-17
5.240000E+03	2.852552E-15	4.735633E-17
5.250000E+03	2.854697E-15	4.724888E-17
5.260000E+03	2.850110E-15	4.703085E-17
5.270000E+03	2.839420E-15	4.671362E-17
5.280000E+03	2.823412E-15	4.631099E-17
5.290000E+03	2.802844E-15	4.583614E-17
5.300000E+03	2.778408E-15	4.530103E-17
5.310000E+03	2.750775E-15	4.471716E-17
5.320000E+03	2.720580E-15	4.409526E-17
5.330000E+03	2.688296E-15	4.344335E-17
5.340000E+03	2.654394E-15	4.276930E-17
5.350000E+03	2.619188E-15	4.207839E-17
5.360000E+03	2.583003E-15	4.137598E-17
5.370000E+03	2.546018E-15	4.066508E-17
5.380000E+03	2.508437E-15	3.994900E-17
5.390000E+03	2.470331E-15	3.922897E-17
5.400000E+03	2.431796E-15	3.850653E-17
5.410000E+03	2.392814E-15	3.778145E-17
5.420000E+03	2.353391E-15	3.705386E-17
5.430000E+03	2.313436E-15	3.632234E-17
5.440000E+03	2.272893E-15	3.558610E-17
5.450000E+03	2.231630E-15	3.484308E-17
5.460000E+03	2.189541E-15	3.409173E-17
5.470000E+03	2.146570E-15	3.333123E-17
5.480000E+03	2.102623E-15	3.256021E-17
5.490000E+03	2.057717E-15	3.177901E-17
5.500000E+03	2.011894E-15	3.098833E-17
5.510000E+03	1.965206E-15	3.018905E-17
5.520000E+03	1.917902E-15	2.938500E-17
5.530000E+03	1.870123E-15	2.857833E-17
5.540000E+03	1.822179E-15	2.777377E-17
5.550000E+03	1.774359E-15	2.697562E-17
5.560000E+03	1.726942E-15	2.618806E-17
5.570000E+03	1.680265E-15	2.541606E-17
5.580000E+03	1.634615E-15	2.466379E-17
5.590000E+03	1.590292E-15	2.393560E-17
5.600000E+03	1.547606E-15	2.323592E-17
5.610000E+03	1.506819E-15	2.256846E-17
5.620000E+03	1.468158E-15	2.193630E-17
5.630000E+03	1.431841E-15	2.134243E-17
5.640000E+03	1.398081E-15	2.078973E-17
5.650000E+03	1.367032E-15	2.028014E-17
5.660000E+03	1.338857E-15	1.981576E-17
5.670000E+03	1.313678E-15	1.939806E-17
5.680000E+03	1.291583E-15	1.902798E-17
5.690000E+03	1.272652E-15	1.870637E-17
5.700000E+03	1.256965E-15	1.843403E-17
5.710000E+03	1.244549E-15	1.821104E-17
5.720000E+03	1.235445E-15	1.803763E-17
5.730000E+03	1.229659E-15	1.791358E-17
5.740000E+03	1.227142E-15	1.783782E-17
5.750000E+03	1.227907E-15	1.781022E-17
5.760000E+03	1.231859E-15	1.782910E-17
5.770000E+03	1.238909E-15	1.789287E-17
5.780000E+03	1.248951E-15	1.799971E-17
5.790000E+03	1.261833E-15	1.814718E-17
5.800000E+03	1.277342E-15	1.833196E-17
5.810000E+03	1.295261E-15	1.855072E-17
5.820000E+03	1.315298E-15	1.879908E-17
5.830000E+03	1.337152E-15	1.907258E-17
5.840000E+03	1.360469E-15	1.936602E-17
5.850000E+03	1.384844E-15	1.967355E-17
5.860000E+03	1.409866E-15	1.998927E-17
5.870000E+03	1.435134E-15	2.030747E-17
5.880000E+03	1.460239E-15	2.062235E-17
5.890000E+03	1.484770E-15	2.092817E-17
5.900000E+03	1.508409E-15	2.122050E-17
5.910000E+03	1.530882E-15	2.149558E-17
5.920000E+03	1.551981E-15	2.175062E-17
5.930000E+03	1.571648E-15	2.198492E-17
5.940000E+03	1.589919E-15	2.219912E-17
5.950000E+03	1.606940E-15	2.239537E-17
5.960000E+03	1.623026E-15	2.257814E-17
5.970000E+03	1.638575E-15	2.275305E-17
5.980000E+03	1.654149E-15	2.292794E-17
5.990000E+03	1.670392E-15	2.311173E-17
6.000000E+03	1.688024E-15	2.331431E-17
6.010000E+03	1.707912E-15	2.354757E-17
6.020000E+03	1.730884E-15	2.382274E-17
6.030000E+03	1.757967E-15	2.415370E-17
6.040000E+03	1.790131E-15	2.455352E-17
6.050000E+03	1.828473E-15	2.503685E-17
6.060000E+03	1.874122E-15	2.561875E-17
6.070000E+03	1.928267E-15	2.631495E-17
6.080000E+03	1.992129E-15	2.714155E-17
6.090000E+03	2.067041E-15	2.811607E-17
6.100000E+03	2.154371E-15	2.925641E-17
6.110000E+03	2.255505E-15	3.058059E-17
6.120000E+03	2.371945E-15	3.210812E-17
6.130000E+03	2.505074E-15	3.385679E-17
6.140000E+03	2.656315E-15	3.584483E-17
6.150000E+03	2.826898E-15	3.808777E-17
6.160000E+03	3.017947E-15	4.059964E-17
6.170000E+03	3.230090E-15	4.338778E-17
6.180000E+03	3.463580E-15	4.645444E-17
6.190000E+03	3.717964E-15	4.979245E-17
6.200000E+03	3.991940E-15	5.338334E-17
6.210000E+03	4.283173E-15	5.719498E-17
6.220000E+03	4.588134E-15	6.117955E-17
6.230000E+03	4.901932E-15	6.527137E-17
6.240000E+03	5.218542E-15	6.939008E-17
6.250000E+03	5.530439E-15	7.343586E-17
6.260000E+03	5.829271E-15	7.729846E-17
6.270000E+03	6.106025E-15	8.085949E-17
6.280000E+03	6.351250E-15	8.399537E-17
6.290000E+03	6.556118E-15	8.659137E-17
6.300000E+03	6.712732E-15	8.854561E-17
6.310000E+03	6.814821E-15	8.977807E-17
6.320000E+03	6.858256E-15	9.023728E-17
6.330000E+03	6.841406E-15	8.990476E-17
6.340000E+03	6.765198E-15	8.879559E-17
6.350000E+03	6.633384E-15	8.696178E-17
6.360000E+03	6.451684E-15	8.448072E-17
6.370000E+03	6.227659E-15	8.145349E-17
6.380000E+03	5.970019E-15	7.799561E-17
6.390000E+03	5.687979E-15	7.422861E-17
6.400000E+03	5.390652E-15	7.027210E-17
6.410000E+03	5.086521E-15	6.623697E-17
6.420000E+03	4.783054E-15	6.222039E-17
6.430000E+03	4.486510E-15	5.830338E-17
6.440000E+03	4.201574E-15	5.454626E-17
6.450000E+03	3.931753E-15	5.099379E-17
6.460000E+03	3.679274E-15	4.767401E-17
6.470000E+03	3.445116E-15	4.459871E-17
6.480000E+03	3.229570E-15	4.177078E-17
6.490000E+03	3.032118E-15	3.918262E-17
6.500000E+03	2.851838E-15	3.682148E-17
6.510000E+03	2.687562E-15	3.467155E-17
6.520000E+03	2.538083E-15	3.271657E-17
6.530000E+03	2.402151E-15	3.093983E-17
6.540000E+03	2.278498E-15	2.932447E-17
6.550000E+03	2.165558E-15	2.784987E-17
6.560000E+03	2.062054E-15	2.649918E-17
6.570000E+03	1.966921E-15	2.525838E-17
6.580000E+03	1.879272E-15	2.411578E-17
6.590000E+03	1.798279E-15	2.306046E-17
6.600000E+03	1.723225E-15	2.208300E-17
6.610000E+03	1.653466E-15	2.117495E-17
6.620000E+03	1.588445E-15	2.032898E-17
6.630000E+03	1.527602E-15	1.953776E-17
6.640000E+03	1.470542E-15	1.879610E-17
6.650000E+03	1.416806E-15	1.809801E-17
6.660000E+03	1.366099E-15	1.743959E-17
6.670000E+03	1.318124E-15	1.681699E-17
6.680000E+03	1.272671E-15	1.622739E-17
6.690000E+03	1.229595E-15	1.566891E-17
6.700000E+03	1.188761E-15	1.513970E-17
6.710000E+03	1.150154E-15	1.463954E-17
6.720000E+03	1.113703E-15	1.416745E-17
6.730000E+03	1.079444E-15	1.372381E-17
6.740000E+03	1.047398E-15	1.330884E-17
6.750000E+03	1.017583E-15	1.292270E-17
6.760000E+03	9.900390E-16	1.256583E-17
6.770000E+03	9.648024E-16	1.223865E-17
6.780000E+03	9.419204E-16	1.194169E-17
6.790000E+03	9.214197E-16	1.167524E-17
6.800000E+03	9.032941E-16	1.143915E-17
6.810000E+03	8.875944E-16	1.123401E-17
6.820000E+03	8.742887E-16	1.105936E-17
6.830000E+03	8.634015E-16	1.091546E-17
6.840000E+03	8.549270E-16	1.080217E-17
6.850000E+03	8.488432E-16	1.071916E-17
6.860000E+03	8.451363E-16	1.066619E-17
6.870000E+03	8.438003E-16	1.064314E-17
6.880000E+03	8.448142E-16	1.064969E-17
6.890000E+03	8.481408E-16	1.068530E-17
6.900000E+03	8.537521E-16	1.074958E-17
6.910000E+03	8.616287E-16	1.084221E-17
6.920000E+03	8.717255E-16	1.096257E-17
6.930000E+03	8.840214E-16	1.111035E-17
6.940000E+03	8.984837E-16	1.128506E-17
6.950000E+03	9.150702E-16	1.148613E-17
6.960000E+03	9.337555E-16	1.171317E-17
6.970000E+03	9.545471E-16	1.196622E-17
6.980000E+03	9.773941E-16	1.224458E-17
6.990000E+03	1.002322E-15	1.254852E-17
7.000000E+03	1.029344E-15	1.287811E-17
7.010000E+03	1.058485E-15	1.323362E-17
7.020000E+03	1.089776E-15	1.361539E-17
7.030000E+03	1.123284E-15	1.402415E-17
7.040000E+03	1.159127E-15	1.446130E-17
7.050000E+03	1.197435E-15	1.492842E-17
7.060000E+03	1.238387E-15	1.542762E-17
7.070000E+03	1.282182E-15	1.596131E-17
7.080000E+03	1.329083E-15	1.653267E-17
7.090000E+03	1.379435E-15	1.714585E-17
7.100000E+03	1.433532E-15	1.780441E-17
7.110000E+03	1.491724E-15	1.851256E-17
7.120000E+03	1.554376E-15	1.927468E-17
7.130000E+03	1.621792E-15	2.009439E-17
7.140000E+03	1.694206E-15	2.097440E-17
7.150000E+03	1.771702E-15	2.191559E-17
7.160000E+03	1.854249E-15	2.291740E-17
7.170000E+03	1.941551E-15	2.397597E-17
7.180000E+03	2.033132E-15	2.508525E-17
7.190000E+03	2.128104E-15	2.623415E-17
7.200000E+03	2.225313E-15	2.740830E-17
7.210000E+03	2.323311E-15	2.858980E-17
7.220000E+03	2.420327E-15	2.975680E-17
7.230000E+03	2.514336E-15	3.088445E-17
7.240000E+03	2.603145E-15	3.194592E-17
7.250000E+03	2.684460E-15	3.291325E-17
7.260000E+03	2.756118E-15	3.376018E-17
7.270000E+03	2.816052E-15	3.446174E-17
7.280000E+03	2.862611E-15	3.499815E-17
7.290000E+03	2.894353E-15	3.535228E-17
7.300000E+03	2.910409E-15	3.551405E-17
7.310000E+03	2.910298E-15	3.547817E-17
7.320000E+03	2.894098E-15	3.524616E-17
7.330000E+03	2.862336E-15	3.482506E-17
7.340000E+03	2.815772E-15	3.422468E-17
7.350000E+03	2.755767E-15	3.346209E-17
7.360000E+03	2.683754E-15	3.255520E-17
7.370000E+03	2.601505E-15	3.152596E-17
7.380000E+03	2.510898E-15	3.039749E-17
7.390000E+03	2.413888E-15	2.919376E-17
7.400000E+03	2.312441E-15	2.793879E-17
7.410000E+03	2.208441E-15	2.665548E-17
7.420000E+03	2.103732E-15	2.536620E-17
7.430000E+03	1.999973E-15	2.409096E-17
7.440000E+03	1.898601E-15	2.284703E-17
7.450000E+03	1.800924E-15	2.165004E-17
7.460000E+03	1.707908E-15	2.051148E-17
7.470000E+03	1.620371E-15	1.944100E-17
7.480000E+03	1.538888E-15	1.844528E-17
7.490000E+03	1.463831E-15	1.752857E-17
7.500000E+03	1.395381E-15	1.669280E-17
7.510000E+03	1.333620E-15	1.593872E-17
7.520000E+03	1.278495E-15	1.526546E-17
7.530000E+03	1.229867E-15	1.467114E-17
7.540000E+03	1.187541E-15	1.415319E-17
7.550000E+03	1.151283E-15	1.370863E-17
7.560000E+03	1.120822E-15	1.333403E-17
7.570000E+03	1.095916E-15	1.302632E-17
7.580000E+03	1.076323E-15	1.278247E-17
7.590000E+03	1.061742E-15	1.259875E-17
7.600000E+03	1.051982E-15	1.247274E-17
7.610000E+03	1.046798E-15	1.240141E-17
7.620000E+03	1.045946E-15	1.238175E-17
7.630000E+03	1.049234E-15	1.241139E-17
7.640000E+03	1.056395E-15	1.248710E-17
7.650000E+03	1.067194E-15	1.260601E-17
7.660000E+03	1.081356E-15	1.276482E-17
7.670000E+03	1.098569E-15	1.295980E-17
7.680000E+03	1.118463E-15	1.318658E-17
7.690000E+03	1.140681E-15	1.344092E-17
7.700000E+03	1.164751E-15	1.371728E-17
7.710000E+03	1.190225E-15	1.401037E-17
7.720000E+03	1.216610E-15	1.431447E-17
7.730000E+03	1.243412E-15	1.462379E-17
7.740000E+03	1.270147E-15	1.493270E-17
7.750000E+03	1.296367E-15	1.523601E-17
7.760000E+03	1.321652E-15	1.552884E-17
