#wls	flux	fluxerr
1.591042E+03	1.943069E-01	1.351210E-04
1.630818E+03	2.003646E-01	1.393322E-04
1.670595E+03	2.056535E-01	1.430084E-04
1.710371E+03	2.100193E-01	1.460422E-04
1.750147E+03	2.133162E-01	1.483321E-04
1.789923E+03	2.154182E-01	1.497907E-04
1.829699E+03	2.162312E-01	1.503525E-04
1.869475E+03	2.157202E-01	1.499930E-04
1.909251E+03	2.139340E-01	1.487466E-04
1.949027E+03	2.110560E-01	1.467408E-04
1.988803E+03	2.074835E-01	1.442523E-04
2.028579E+03	2.040097E-01	1.418328E-04
2.068355E+03	2.026384E-01	1.408758E-04
2.108131E+03	2.066347E-01	1.436514E-04
2.147907E+03	2.129347E-01	1.480294E-04
2.187683E+03	2.195031E-01	1.525949E-04
2.227459E+03	2.252563E-01	1.565944E-04
2.267235E+03	2.298486E-01	1.597882E-04
2.307012E+03	2.329318E-01	1.619340E-04
2.346788E+03	2.344790E-01	1.630126E-04
2.386564E+03	2.347229E-01	1.631853E-04
2.426340E+03	2.338411E-01	1.625752E-04
2.466116E+03	2.320542E-01	1.613355E-04
2.505892E+03	2.296782E-01	1.596861E-04
2.545668E+03	2.271546E-01	1.579340E-04
2.585444E+03	2.250003E-01	1.564389E-04
2.625220E+03	2.239537E-01	1.557143E-04
2.664996E+03	2.237896E-01	1.556032E-04
2.704772E+03	2.238350E-01	1.556378E-04
2.744548E+03	2.236674E-01	1.555240E-04
2.784324E+03	2.230179E-01	1.550747E-04
2.824100E+03	2.217790E-01	1.542151E-04
2.863876E+03	2.199531E-01	1.529469E-04
2.903652E+03	2.176038E-01	1.513142E-04
2.943428E+03	2.148194E-01	1.493785E-04
2.983205E+03	2.116993E-01	1.472089E-04
2.993149E+03	2.108768E-01	1.466368E-04
3.003093E+03	2.100409E-01	1.460555E-04
3.013037E+03	2.091925E-01	1.454654E-04
3.022981E+03	2.083314E-01	1.448664E-04
3.032925E+03	2.074599E-01	1.442601E-04
3.042869E+03	2.065792E-01	1.436475E-04
3.052813E+03	2.056892E-01	1.430283E-04
3.062757E+03	2.047920E-01	1.424041E-04
3.072701E+03	2.038878E-01	1.417750E-04
3.082645E+03	2.029764E-01	1.411409E-04
3.092589E+03	2.020605E-01	1.405036E-04
3.102533E+03	2.011386E-01	1.398621E-04
3.112477E+03	2.002119E-01	1.392172E-04
3.122421E+03	1.992818E-01	1.385699E-04
3.132365E+03	1.983471E-01	1.379194E-04
3.142309E+03	1.974093E-01	1.372667E-04
3.152253E+03	1.964684E-01	1.366118E-04
3.162197E+03	1.955243E-01	1.359547E-04
3.172141E+03	1.945770E-01	1.352953E-04
3.182085E+03	1.936271E-01	1.346340E-04
3.192029E+03	1.926744E-01	1.339708E-04
3.201973E+03	1.917188E-01	1.333055E-04
3.211917E+03	1.907608E-01	1.326385E-04
3.221861E+03	1.898009E-01	1.319702E-04
3.231805E+03	1.888374E-01	1.312994E-04
3.241749E+03	1.878724E-01	1.306274E-04
3.251693E+03	1.869046E-01	1.299534E-04
3.261637E+03	1.859337E-01	1.292774E-04
3.271581E+03	1.849609E-01	1.285999E-04
3.281525E+03	1.839853E-01	1.279205E-04
3.291469E+03	1.830062E-01	1.272386E-04
3.301413E+03	1.820230E-01	1.265538E-04
3.311357E+03	1.810344E-01	1.258653E-04
3.321301E+03	1.800382E-01	1.251715E-04
3.331245E+03	1.790308E-01	1.244698E-04
3.341189E+03	1.780076E-01	1.237572E-04
3.351133E+03	1.769635E-01	1.230300E-04
3.361077E+03	1.758914E-01	1.222833E-04
3.371021E+03	1.747830E-01	1.215114E-04
3.380965E+03	1.736323E-01	1.207101E-04
3.390909E+03	1.724315E-01	1.198739E-04
3.400853E+03	1.711769E-01	1.190004E-04
3.410797E+03	1.698648E-01	1.180869E-04
3.420741E+03	1.684945E-01	1.171330E-04
3.430685E+03	1.670703E-01	1.161417E-04
3.440629E+03	1.655945E-01	1.151145E-04
3.450573E+03	1.640740E-01	1.140562E-04
3.460517E+03	1.625169E-01	1.129726E-04
3.470461E+03	1.609332E-01	1.118705E-04
3.480405E+03	1.593376E-01	1.107602E-04
3.490349E+03	1.577479E-01	1.096541E-04
3.500293E+03	1.561880E-01	1.085689E-04
3.510237E+03	1.546885E-01	1.075257E-04
3.520181E+03	1.532878E-01	1.065512E-04
3.530125E+03	1.520328E-01	1.056781E-04
3.540069E+03	1.509775E-01	1.049439E-04
3.550013E+03	1.501803E-01	1.043893E-04
3.559957E+03	1.496957E-01	1.040521E-04
3.569901E+03	1.495631E-01	1.039595E-04
3.579845E+03	1.497880E-01	1.041156E-04
3.589789E+03	1.503575E-01	1.045113E-04
3.599734E+03	1.512256E-01	1.051145E-04
3.609678E+03	1.523201E-01	1.058752E-04
3.619622E+03	1.535552E-01	1.067336E-04
3.629566E+03	1.548406E-01	1.076270E-04
3.639510E+03	1.560892E-01	1.084948E-04
3.649454E+03	1.572161E-01	1.092780E-04
3.659398E+03	1.581459E-01	1.099242E-04
3.669342E+03	1.588127E-01	1.103875E-04
3.679286E+03	1.591639E-01	1.106314E-04
3.689230E+03	1.591629E-01	1.106305E-04
3.699174E+03	1.587915E-01	1.103721E-04
3.709118E+03	1.580518E-01	1.098576E-04
3.719062E+03	1.569629E-01	1.091003E-04
3.729006E+03	1.555600E-01	1.081247E-04
3.738950E+03	1.538909E-01	1.069640E-04
3.748894E+03	1.520117E-01	1.056572E-04
3.758838E+03	1.499811E-01	1.042450E-04
3.768782E+03	1.478580E-01	1.027685E-04
3.778726E+03	1.457004E-01	1.012679E-04
3.788670E+03	1.435623E-01	9.978080E-05
3.789178E+03	1.272930E-01	8.847302E-05
3.791471E+03	1.273113E-01	8.848554E-05
3.793763E+03	1.272866E-01	8.846810E-05
3.796056E+03	1.272375E-01	8.843374E-05
3.798349E+03	1.271811E-01	8.839432E-05
3.800641E+03	1.271003E-01	8.833790E-05
3.802934E+03	1.269750E-01	8.825057E-05
3.805228E+03	1.268266E-01	8.814720E-05
3.807520E+03	1.267098E-01	8.806572E-05
3.809813E+03	1.265326E-01	8.794230E-05
3.812106E+03	1.263725E-01	8.783076E-05
3.814398E+03	1.261521E-01	8.767726E-05
3.816691E+03	1.258899E-01	8.749478E-05
3.818984E+03	1.256004E-01	8.729327E-05
3.821276E+03	1.252964E-01	8.708169E-05
3.823569E+03	1.249994E-01	8.687496E-05
3.825862E+03	1.247368E-01	8.669214E-05
3.828154E+03	1.244209E-01	8.647230E-05
3.830448E+03	1.241365E-01	8.627431E-05
3.832741E+03	1.238548E-01	8.607820E-05
3.835033E+03	1.236046E-01	8.590399E-05
3.837326E+03	1.234176E-01	8.577365E-05
3.839619E+03	1.233238E-01	8.570814E-05
3.841911E+03	1.232630E-01	8.566553E-05
3.844204E+03	1.231992E-01	8.562086E-05
3.846497E+03	1.231455E-01	8.558318E-05
3.848790E+03	1.230543E-01	8.551943E-05
3.851082E+03	1.228753E-01	8.539465E-05
3.853375E+03	1.226531E-01	8.523983E-05
3.855669E+03	1.225832E-01	8.519088E-05
3.857961E+03	1.226945E-01	8.526780E-05
3.860254E+03	1.229007E-01	8.541072E-05
3.862547E+03	1.231342E-01	8.557259E-05
3.864839E+03	1.233504E-01	8.572244E-05
3.867132E+03	1.234400E-01	8.578428E-05
3.869425E+03	1.233958E-01	8.575309E-05
3.871717E+03	1.233860E-01	8.574583E-05
3.874010E+03	1.234222E-01	8.577054E-05
3.876303E+03	1.234468E-01	8.578719E-05
3.878596E+03	1.234339E-01	8.577779E-05
3.880889E+03	1.234383E-01	8.578034E-05
3.883182E+03	1.234944E-01	8.581891E-05
3.885474E+03	1.234641E-01	8.579732E-05
3.887767E+03	1.234438E-01	8.578272E-05
3.890060E+03	1.234882E-01	8.581310E-05
3.892352E+03	1.235686E-01	8.586847E-05
3.894645E+03	1.237196E-01	8.597288E-05
3.896938E+03	1.238705E-01	8.607724E-05
3.899230E+03	1.239479E-01	8.613050E-05
3.901523E+03	1.239387E-01	8.612358E-05
3.903817E+03	1.237810E-01	8.601346E-05
3.906109E+03	1.235338E-01	8.584112E-05
3.908402E+03	1.232706E-01	8.565767E-05
3.910695E+03	1.230664E-01	8.551523E-05
3.912987E+03	1.228015E-01	8.533057E-05
3.915280E+03	1.225336E-01	8.514386E-05
3.917573E+03	1.222916E-01	8.497508E-05
3.919865E+03	1.220075E-01	8.477710E-05
3.922158E+03	1.217435E-01	8.459308E-05
3.924451E+03	1.214708E-01	8.440298E-05
3.926744E+03	1.212643E-01	8.425889E-05
3.929037E+03	1.211356E-01	8.416887E-05
3.931330E+03	1.209462E-01	8.403664E-05
3.933623E+03	1.207452E-01	8.389631E-05
3.935915E+03	1.205368E-01	8.375086E-05
3.938208E+03	1.202661E-01	8.356219E-05
3.940501E+03	1.199997E-01	8.337644E-05
3.942793E+03	1.197939E-01	8.323276E-05
3.945086E+03	1.196268E-01	8.311604E-05
3.947379E+03	1.195002E-01	8.302738E-05
3.949671E+03	1.193575E-01	8.292758E-05
3.951964E+03	1.192162E-01	8.282871E-05
3.954258E+03	1.191499E-01	8.278197E-05
3.956550E+03	1.190719E-01	8.272710E-05
3.958843E+03	1.189982E-01	8.267518E-05
3.961136E+03	1.188984E-01	8.260513E-05
3.963428E+03	1.187985E-01	8.253499E-05
3.965721E+03	1.186927E-01	8.246075E-05
3.968014E+03	1.186345E-01	8.241958E-05
3.970306E+03	1.186167E-01	8.240646E-05
3.972599E+03	1.186306E-01	8.241540E-05
3.974892E+03	1.186054E-01	8.239710E-05
3.977184E+03	1.186495E-01	8.242702E-05
3.979478E+03	1.186921E-01	8.245582E-05
3.981771E+03	1.188113E-01	8.253784E-05
3.984063E+03	1.190071E-01	8.267304E-05
3.986356E+03	1.191985E-01	8.280524E-05
3.988649E+03	1.193247E-01	8.289210E-05
3.990941E+03	1.194277E-01	8.296284E-05
3.993234E+03	1.194915E-01	8.300634E-05
3.995527E+03	1.195249E-01	8.302870E-05
3.997819E+03	1.195857E-01	8.307006E-05
4.000112E+03	1.197666E-01	8.319487E-05
4.002405E+03	1.201211E-01	8.344027E-05
4.004698E+03	1.205436E-01	8.373288E-05
4.006991E+03	1.209357E-01	8.400435E-05
4.009284E+03	1.212611E-01	8.422949E-05
4.011576E+03	1.215329E-01	8.441741E-05
4.013869E+03	1.217786E-01	8.458711E-05
4.016162E+03	1.220546E-01	8.477793E-05
4.018455E+03	1.223682E-01	8.499481E-05
4.020747E+03	1.226310E-01	8.517644E-05
4.023040E+03	1.228677E-01	8.533989E-05
4.025332E+03	1.230696E-01	8.547915E-05
4.027625E+03	1.232497E-01	8.560322E-05
4.029919E+03	1.233919E-01	8.570106E-05
4.032211E+03	1.234906E-01	8.576860E-05
4.034504E+03	1.237023E-01	8.591462E-05
4.036797E+03	1.240080E-01	8.612595E-05
4.039089E+03	1.242253E-01	8.627583E-05
4.041382E+03	1.243860E-01	8.638641E-05
4.043675E+03	1.245451E-01	8.649586E-05
4.045968E+03	1.246548E-01	8.657102E-05
4.048260E+03	1.247035E-01	8.660377E-05
4.050553E+03	1.247115E-01	8.660826E-05
4.052846E+03	1.247614E-01	8.664185E-05
4.055139E+03	1.248561E-01	8.670654E-05
4.057432E+03	1.249333E-01	8.675910E-05
4.059725E+03	1.249858E-01	8.679443E-05
4.062017E+03	1.250468E-01	8.683569E-05
4.064310E+03	1.250656E-01	8.684766E-05
4.066603E+03	1.250509E-01	8.683635E-05
4.068895E+03	1.251072E-01	8.687434E-05
4.071188E+03	1.251590E-01	8.690916E-05
4.073481E+03	1.251918E-01	8.693081E-05
4.075773E+03	1.252259E-01	8.695334E-05
4.078066E+03	1.252323E-01	8.695665E-05
4.080360E+03	1.252183E-01	8.694575E-05
4.082652E+03	1.251141E-01	8.687225E-05
4.084945E+03	1.249662E-01	8.676844E-05
4.087238E+03	1.248966E-01	8.671890E-05
4.089530E+03	1.248543E-01	8.668837E-05
4.091823E+03	1.248003E-01	8.664973E-05
4.094116E+03	1.246968E-01	8.657666E-05
4.096408E+03	1.245220E-01	8.645411E-05
4.098701E+03	1.243368E-01	8.632438E-05
4.100994E+03	1.242067E-01	8.623283E-05
4.103286E+03	1.240575E-01	8.612807E-05
4.105580E+03	1.238660E-01	8.599395E-05
4.107873E+03	1.236671E-01	8.585466E-05
4.110166E+03	1.234419E-01	8.569714E-05
4.112458E+03	1.232311E-01	8.554954E-05
4.114751E+03	1.230897E-01	8.545020E-05
4.117043E+03	1.229554E-01	8.535578E-05
4.119336E+03	1.227774E-01	8.523100E-05
4.121629E+03	1.225688E-01	8.508494E-05
4.123922E+03	1.223425E-01	8.492666E-05
4.126214E+03	1.221073E-01	8.476218E-05
4.128508E+03	1.219010E-01	8.461777E-05
4.130800E+03	1.216930E-01	8.447216E-05
4.133093E+03	1.214616E-01	8.431034E-05
4.135386E+03	1.212576E-01	8.416753E-05
4.137679E+03	1.210694E-01	8.403570E-05
4.139971E+03	1.208433E-01	8.387751E-05
4.142264E+03	1.206503E-01	8.374241E-05
4.144557E+03	1.204761E-01	8.362024E-05
4.146849E+03	1.202798E-01	8.348284E-05
4.149142E+03	1.200616E-01	8.333018E-05
4.151435E+03	1.198548E-01	8.318546E-05
4.153728E+03	1.196377E-01	8.303355E-05
4.156021E+03	1.193593E-01	8.283917E-05
4.158314E+03	1.190532E-01	8.262549E-05
4.160606E+03	1.187585E-01	8.241977E-05
4.162899E+03	1.184403E-01	8.219777E-05
4.165192E+03	1.180667E-01	8.193730E-05
4.167484E+03	1.176610E-01	8.165459E-05
4.169777E+03	1.172492E-01	8.136768E-05
4.172070E+03	1.167923E-01	8.104942E-05
4.174362E+03	1.163264E-01	8.072496E-05
4.176655E+03	1.159024E-01	8.042962E-05
4.178949E+03	1.154680E-01	8.012705E-05
4.181241E+03	1.150509E-01	7.983647E-05
4.183534E+03	1.145639E-01	7.949740E-05
4.185827E+03	1.140302E-01	7.912599E-05
4.188119E+03	1.135777E-01	7.881084E-05
4.190412E+03	1.131859E-01	7.853791E-05
4.192705E+03	1.127590E-01	7.824062E-05
4.194997E+03	1.123131E-01	7.793016E-05
4.197290E+03	1.119236E-01	7.765885E-05
4.199583E+03	1.115441E-01	7.739448E-05
4.201876E+03	1.111541E-01	7.712289E-05
4.204169E+03	1.107727E-01	7.685724E-05
4.206462E+03	1.104783E-01	7.665192E-05
4.208754E+03	1.102532E-01	7.649479E-05
4.211047E+03	1.099975E-01	7.631636E-05
4.213340E+03	1.097691E-01	7.615697E-05
4.215633E+03	1.096204E-01	7.605280E-05
4.217925E+03	1.094902E-01	7.596155E-05
4.220218E+03	1.094122E-01	7.590644E-05
4.222510E+03	1.094122E-01	7.590556E-05
4.224803E+03	1.094773E-01	7.594977E-05
4.227096E+03	1.095914E-01	7.602807E-05
4.229390E+03	1.097126E-01	7.611125E-05
4.231682E+03	1.098465E-01	7.620327E-05
4.233975E+03	1.100281E-01	7.632832E-05
4.236268E+03	1.102122E-01	7.645519E-05
4.238560E+03	1.103844E-01	7.657384E-05
4.240853E+03	1.105578E-01	7.669330E-05
4.243146E+03	1.107714E-01	7.684067E-05
4.245438E+03	1.109805E-01	7.698488E-05
4.247731E+03	1.112501E-01	7.717111E-05
4.250024E+03	1.115164E-01	7.735511E-05
4.252316E+03	1.117476E-01	7.751471E-05
4.254610E+03	1.119596E-01	7.766105E-05
4.256903E+03	1.121916E-01	7.782125E-05
4.259195E+03	1.124740E-01	7.801640E-05
4.261488E+03	1.127863E-01	7.823240E-05
4.263781E+03	1.130607E-01	7.842207E-05
4.266073E+03	1.133129E-01	7.859638E-05
4.268366E+03	1.135647E-01	7.877041E-05
4.270659E+03	1.137742E-01	7.891511E-05
4.272951E+03	1.139731E-01	7.905250E-05
4.275244E+03	1.141686E-01	7.918759E-05
4.277537E+03	1.143349E-01	7.930241E-05
4.279830E+03	1.144703E-01	7.939585E-05
4.282123E+03	1.145938E-01	7.948098E-05
4.284416E+03	1.146705E-01	7.953377E-05
4.286708E+03	1.147019E-01	7.955515E-05
4.289001E+03	1.147184E-01	7.956625E-05
4.291294E+03	1.147144E-01	7.956310E-05
4.293587E+03	1.146709E-01	7.953257E-05
4.295879E+03	1.145531E-01	7.945064E-05
4.298172E+03	1.143960E-01	7.934141E-05
4.300464E+03	1.142125E-01	7.921391E-05
4.302757E+03	1.140083E-01	7.907214E-05
4.305051E+03	1.138170E-01	7.893924E-05
4.307343E+03	1.136078E-01	7.879404E-05
4.309636E+03	1.133231E-01	7.859655E-05
4.311929E+03	1.129976E-01	7.837076E-05
4.314222E+03	1.126935E-01	7.815984E-05
4.316514E+03	1.124165E-01	7.796776E-05
4.318807E+03	1.120959E-01	7.774542E-05
4.321099E+03	1.117879E-01	7.753196E-05
4.323392E+03	1.115418E-01	7.736138E-05
4.325685E+03	1.112491E-01	7.715854E-05
4.327978E+03	1.109460E-01	7.694852E-05
4.330271E+03	1.106686E-01	7.675638E-05
4.332564E+03	1.104111E-01	7.657807E-05
4.334857E+03	1.101953E-01	7.642864E-05
4.337149E+03	1.100410E-01	7.632199E-05
4.339442E+03	1.098591E-01	7.619619E-05
4.341735E+03	1.097029E-01	7.608819E-05
4.344027E+03	1.096068E-01	7.602196E-05
4.346320E+03	1.094715E-01	7.592858E-05
4.348613E+03	1.093633E-01	7.585398E-05
4.350905E+03	1.093513E-01	7.584614E-05
4.353198E+03	1.093864E-01	7.587103E-05
4.355492E+03	1.094370E-01	7.590670E-05
4.357784E+03	1.095175E-01	7.596305E-05
4.360077E+03	1.096134E-01	7.603019E-05
4.362370E+03	1.097161E-01	7.610202E-05
4.364662E+03	1.098371E-01	7.618661E-05
4.366955E+03	1.099692E-01	7.627891E-05
4.369248E+03	1.100377E-01	7.632707E-05
4.371540E+03	1.100584E-01	7.634213E-05
4.373833E+03	1.100169E-01	7.631406E-05
4.376126E+03	1.098918E-01	7.622806E-05
4.378419E+03	1.097133E-01	7.610499E-05
4.380712E+03	1.095088E-01	7.596388E-05
4.383005E+03	1.092380E-01	7.577685E-05
4.385297E+03	1.089499E-01	7.557779E-05
4.387590E+03	1.086745E-01	7.538754E-05
4.389883E+03	1.083229E-01	7.514452E-05
4.392176E+03	1.079297E-01	7.487256E-05
4.394468E+03	1.075135E-01	7.458471E-05
4.396761E+03	1.070557E-01	7.426796E-05
4.399053E+03	1.065677E-01	7.393033E-05
4.401346E+03	1.060841E-01	7.359570E-05
4.403640E+03	1.056520E-01	7.329682E-05
4.405933E+03	1.052671E-01	7.303071E-05
4.408225E+03	1.048722E-01	7.275762E-05
4.410518E+03	1.045073E-01	7.250538E-05
4.412810E+03	1.042067E-01	7.229775E-05
4.415103E+03	1.039503E-01	7.212081E-05
4.417396E+03	1.037210E-01	7.196266E-05
4.419689E+03	1.034873E-01	7.180146E-05
4.421981E+03	1.032678E-01	7.165011E-05
4.424274E+03	1.031038E-01	7.153732E-05
4.426567E+03	1.029925E-01	7.146109E-05
4.428860E+03	1.029311E-01	7.141941E-05
4.431153E+03	1.029165E-01	7.141024E-05
4.433446E+03	1.029387E-01	7.142664E-05
4.435738E+03	1.029720E-01	7.145079E-05
4.438031E+03	1.030665E-01	7.151733E-05
4.440324E+03	1.031891E-01	7.160342E-05
4.442616E+03	1.033257E-01	7.169919E-05
4.444909E+03	1.035045E-01	7.182434E-05
4.447202E+03	1.037643E-01	7.200562E-05
4.449494E+03	1.040990E-01	7.223890E-05
4.451787E+03	1.043963E-01	7.244629E-05
4.454081E+03	1.046335E-01	7.261190E-05
4.456373E+03	1.048461E-01	7.276053E-05
4.458666E+03	1.050612E-01	7.291086E-05
4.460959E+03	1.053030E-01	7.307968E-05
4.463251E+03	1.055585E-01	7.325809E-05
4.465544E+03	1.057370E-01	7.338307E-05
4.467837E+03	1.058911E-01	7.349107E-05
4.470129E+03	1.060775E-01	7.362152E-05
4.472422E+03	1.061686E-01	7.368579E-05
4.474715E+03	1.061814E-01	7.369580E-05
4.477007E+03	1.061884E-01	7.370171E-05
4.479301E+03	1.061909E-01	7.370453E-05
4.481594E+03	1.061564E-01	7.368170E-05
4.483887E+03	1.060482E-01	7.360767E-05
4.486179E+03	1.059243E-01	7.352273E-05
4.488472E+03	1.058130E-01	7.344658E-05
4.490764E+03	1.057030E-01	7.337132E-05
4.493057E+03	1.055477E-01	7.326460E-05
4.495350E+03	1.054390E-01	7.319018E-05
4.497643E+03	1.053725E-01	7.314510E-05
4.499935E+03	1.052875E-01	7.308717E-05
4.502228E+03	1.052066E-01	7.303212E-05
4.504522E+03	1.051581E-01	7.299948E-05
4.506814E+03	1.051108E-01	7.296773E-05
4.509107E+03	1.050677E-01	7.293882E-05
4.511400E+03	1.050046E-01	7.289607E-05
4.513692E+03	1.048781E-01	7.280930E-05
4.515985E+03	1.047683E-01	7.273418E-05
4.518278E+03	1.046783E-01	7.267271E-05
4.520570E+03	1.045797E-01	7.260528E-05
4.522863E+03	1.045358E-01	7.257583E-05
4.525156E+03	1.045030E-01	7.255411E-05
4.527448E+03	1.043788E-01	7.246890E-05
4.529742E+03	1.042335E-01	7.236902E-05
4.532035E+03	1.041316E-01	7.229930E-05
4.534327E+03	1.040465E-01	7.224122E-05
4.536620E+03	1.039304E-01	7.216167E-05
4.538913E+03	1.038479E-01	7.210539E-05
4.541205E+03	1.037668E-01	7.205004E-05
4.543498E+03	1.036884E-01	7.199660E-05
4.545791E+03	1.035874E-01	7.192748E-05
4.548083E+03	1.035144E-01	7.187780E-05
4.550376E+03	1.034679E-01	7.184648E-05
4.552669E+03	1.033990E-01	7.179956E-05
4.554962E+03	1.033089E-01	7.173798E-05
4.557255E+03	1.032523E-01	7.169966E-05
4.559548E+03	1.032013E-01	7.166516E-05
4.561840E+03	1.031501E-01	7.163059E-05
4.564133E+03	1.030667E-01	7.157362E-05
4.566426E+03	1.029456E-01	7.149044E-05
4.568718E+03	1.028523E-01	7.142661E-05
4.571011E+03	1.028064E-01	7.139563E-05
4.573304E+03	1.027479E-01	7.135590E-05
4.575597E+03	1.026878E-01	7.131512E-05
4.577889E+03	1.026556E-01	7.129363E-05
4.580183E+03	1.026246E-01	7.127300E-05
4.582476E+03	1.026102E-01	7.126389E-05
4.584768E+03	1.026068E-01	7.126243E-05
4.587061E+03	1.025685E-01	7.123672E-05
4.589353E+03	1.025232E-01	7.120614E-05
4.591646E+03	1.025111E-01	7.119862E-05
4.593939E+03	1.025434E-01	7.122191E-05
4.596232E+03	1.025533E-01	7.122962E-05
4.598524E+03	1.024909E-01	7.118718E-05
4.600817E+03	1.024216E-01	7.113986E-05
4.603110E+03	1.024021E-01	7.112712E-05
4.605403E+03	1.023755E-01	7.110951E-05
4.607696E+03	1.023502E-01	7.109276E-05
4.609989E+03	1.023566E-01	7.109806E-05
4.612281E+03	1.023229E-01	7.107543E-05
4.614574E+03	1.022544E-01	7.102869E-05
4.616867E+03	1.021749E-01	7.097424E-05
4.619159E+03	1.020373E-01	7.087943E-05
4.621452E+03	1.018348E-01	7.073956E-05
4.623745E+03	1.016420E-01	7.060641E-05
4.626037E+03	1.014493E-01	7.047333E-05
4.628330E+03	1.012056E-01	7.030483E-05
4.630624E+03	1.009648E-01	7.013826E-05
4.632916E+03	1.007613E-01	6.999766E-05
4.635209E+03	1.005372E-01	6.984272E-05
4.637502E+03	1.003201E-01	6.969261E-05
4.639794E+03	1.000948E-01	6.953684E-05
4.642087E+03	9.988475E-02	6.939162E-05
4.644380E+03	9.963631E-02	6.921973E-05
4.646672E+03	9.936734E-02	6.903356E-05
4.648965E+03	9.909579E-02	6.884560E-05
4.651258E+03	9.882571E-02	6.865865E-05
4.653551E+03	9.856135E-02	6.847566E-05
4.655844E+03	9.830255E-02	6.829653E-05
4.658137E+03	9.802610E-02	6.810511E-05
4.660429E+03	9.773608E-02	6.790427E-05
4.662722E+03	9.749552E-02	6.773777E-05
4.665015E+03	9.720995E-02	6.754000E-05
4.667307E+03	9.692590E-02	6.734327E-05
4.669600E+03	9.663379E-02	6.714093E-05
4.671893E+03	9.623795E-02	6.686651E-05
4.674186E+03	9.583424E-02	6.658662E-05
4.676478E+03	9.547444E-02	6.633721E-05
4.678772E+03	9.513269E-02	6.610035E-05
4.681064E+03	9.475702E-02	6.583989E-05
4.683357E+03	9.436663E-02	6.556921E-05
4.685650E+03	9.398199E-02	6.530251E-05
4.687943E+03	9.358393E-02	6.502647E-05
4.690235E+03	9.317940E-02	6.474593E-05
4.692528E+03	9.278873E-02	6.447500E-05
