#wls	flux	fluxerr
1.591042E+03	8.114114E-05	6.739806E-06
1.630818E+03	8.322474E-05	6.885377E-06
1.670595E+03	8.534182E-05	7.031613E-06
1.710371E+03	8.748355E-05	7.177688E-06
1.750147E+03	8.963957E-05	7.322661E-06
1.789923E+03	9.182603E-05	7.467760E-06
1.829699E+03	9.397427E-05	7.607318E-06
1.869475E+03	9.612567E-05	7.744640E-06
1.909251E+03	9.826494E-05	7.878423E-06
1.949027E+03	1.003182E-04	8.002710E-06
1.988803E+03	1.023242E-04	8.120610E-06
2.028579E+03	1.042647E-04	8.230657E-06
2.068355E+03	1.060911E-04	8.329056E-06
2.108131E+03	1.077839E-04	8.414357E-06
2.147907E+03	1.093816E-04	8.489659E-06
2.187683E+03	1.107784E-04	8.546869E-06
2.227459E+03	1.120437E-04	8.591520E-06
2.267235E+03	1.131037E-04	8.618119E-06
2.307012E+03	1.140018E-04	8.630209E-06
2.346788E+03	1.146699E-04	8.622864E-06
2.386564E+03	1.151290E-04	8.597963E-06
2.426340E+03	1.153751E-04	8.555509E-06
2.466116E+03	1.154353E-04	8.497818E-06
2.505892E+03	1.152605E-04	8.421582E-06
2.545668E+03	1.149133E-04	8.331736E-06
2.585444E+03	1.144070E-04	8.229516E-06
2.625220E+03	1.137342E-04	8.114699E-06
2.664996E+03	1.129434E-04	7.991007E-06
2.704772E+03	1.120377E-04	7.858909E-06
2.744548E+03	1.110955E-04	7.724088E-06
2.784324E+03	1.101053E-04	7.585862E-06
2.824100E+03	1.091506E-04	7.450053E-06
2.863876E+03	1.082506E-04	7.317927E-06
2.903652E+03	1.074508E-04	7.192473E-06
2.943428E+03	1.068204E-04	7.078116E-06
2.983205E+03	1.063927E-04	6.976728E-06
2.993149E+03	1.063393E-04	6.954793E-06
3.003093E+03	1.062805E-04	6.932450E-06
3.013037E+03	1.062555E-04	6.912257E-06
3.022981E+03	1.062464E-04	6.893034E-06
3.032925E+03	1.062731E-04	6.876060E-06
3.042869E+03	1.062991E-04	6.858957E-06
3.052813E+03	1.063632E-04	6.844229E-06
3.062757E+03	1.064663E-04	6.831911E-06
3.072701E+03	1.065727E-04	6.819698E-06
3.082645E+03	1.067206E-04	6.810030E-06
3.092589E+03	1.068931E-04	6.801804E-06
3.102533E+03	1.070917E-04	6.795100E-06
3.112477E+03	1.073178E-04	6.790003E-06
3.122421E+03	1.075913E-04	6.787746E-06
3.132365E+03	1.078957E-04	6.787264E-06
3.142309E+03	1.082327E-04	6.788649E-06
3.152253E+03	1.086222E-04	6.793133E-06
3.162197E+03	1.090483E-04	6.799685E-06
3.172141E+03	1.095130E-04	6.808416E-06
3.182085E+03	1.100184E-04	6.819440E-06
3.192029E+03	1.105850E-04	6.833989E-06
3.201973E+03	1.111973E-04	6.851076E-06
3.211917E+03	1.118579E-04	6.870840E-06
3.221861E+03	1.125876E-04	6.894528E-06
3.231805E+03	1.133715E-04	6.921189E-06
3.241749E+03	1.142130E-04	6.950991E-06
3.251693E+03	1.151151E-04	6.984098E-06
3.261637E+03	1.160999E-04	7.021804E-06
3.271581E+03	1.171533E-04	7.063205E-06
3.281525E+03	1.182793E-04	7.108511E-06
3.291469E+03	1.195008E-04	7.159053E-06
3.301413E+03	1.208045E-04	7.213972E-06
3.311357E+03	1.221955E-04	7.273529E-06
3.321301E+03	1.236981E-04	7.339113E-06
3.331245E+03	1.252996E-04	7.409911E-06
3.341189E+03	1.270066E-04	7.486253E-06
3.351133E+03	1.288259E-04	7.568475E-06
3.361077E+03	1.307843E-04	7.658076E-06
3.371021E+03	1.328901E-04	7.755462E-06
3.380965E+03	1.351132E-04	7.858796E-06
3.390909E+03	1.375019E-04	7.970809E-06
3.400853E+03	1.400467E-04	8.090851E-06
3.410797E+03	1.427787E-04	8.220617E-06
3.420741E+03	1.456684E-04	8.358313E-06
3.430685E+03	1.487906E-04	8.508115E-06
3.440629E+03	1.520962E-04	8.667081E-06
3.450573E+03	1.556415E-04	8.838308E-06
3.460517E+03	1.594205E-04	9.021312E-06
3.470461E+03	1.634720E-04	9.218139E-06
3.480405E+03	1.677911E-04	9.428353E-06
3.490349E+03	1.723962E-04	9.652817E-06
3.500293E+03	1.773304E-04	9.893771E-06
3.510237E+03	1.825908E-04	1.015086E-05
3.520181E+03	1.881988E-04	1.042507E-05
3.530125E+03	1.942022E-04	1.071883E-05
3.540069E+03	2.005994E-04	1.103181E-05
3.550013E+03	2.074140E-04	1.136508E-05
3.559957E+03	2.146978E-04	1.172122E-05
3.569901E+03	2.224484E-04	1.209981E-05
3.579845E+03	2.306897E-04	1.250187E-05
3.589789E+03	2.394758E-04	1.293002E-05
3.599734E+03	2.488004E-04	1.338362E-05
3.609678E+03	2.587182E-04	1.386527E-05
3.619622E+03	2.692186E-04	1.437405E-05
3.629566E+03	2.803205E-04	1.491063E-05
3.639510E+03	2.920772E-04	1.547747E-05
3.649454E+03	3.044692E-04	1.607316E-05
3.659398E+03	3.175477E-04	1.670004E-05
3.669342E+03	3.312854E-04	1.735625E-05
3.679286E+03	3.456879E-04	1.804172E-05
3.689230E+03	3.607572E-04	1.875618E-05
3.699174E+03	3.765362E-04	1.950144E-05
3.709118E+03	3.930226E-04	2.027701E-05
3.719062E+03	4.101121E-04	2.107712E-05
3.729006E+03	4.279337E-04	2.190803E-05
3.738950E+03	4.463176E-04	2.276069E-05
3.748894E+03	4.653379E-04	2.363855E-05
3.758838E+03	4.849085E-04	2.453693E-05
3.768782E+03	5.050462E-04	2.545636E-05
3.778726E+03	5.256490E-04	2.639146E-05
3.788670E+03	5.467257E-04	2.734242E-05
3.798614E+03	5.680952E-04	2.829999E-05
3.808558E+03	5.898871E-04	2.927050E-05
3.818502E+03	6.118417E-04	3.024091E-05
3.828446E+03	6.340247E-04	3.121443E-05
3.838390E+03	6.563720E-04	3.218785E-05
3.848334E+03	6.786711E-04	3.315076E-05
3.858278E+03	7.010786E-04	3.411089E-05
3.868222E+03	7.233060E-04	3.505427E-05
3.878166E+03	7.454486E-04	3.598570E-05
3.888110E+03	7.673756E-04	3.689900E-05
3.898054E+03	7.891207E-04	3.779602E-05
3.907998E+03	8.105586E-04	3.867097E-05
3.917942E+03	8.317359E-04	3.952633E-05
3.927886E+03	8.525326E-04	4.035668E-05
3.937830E+03	8.729155E-04	4.116076E-05
3.947774E+03	8.928537E-04	4.193747E-05
3.957718E+03	9.124143E-04	4.269029E-05
3.967662E+03	9.315784E-04	4.341867E-05
3.977606E+03	9.502313E-04	4.411760E-05
3.987550E+03	9.683543E-04	4.478664E-05
3.997494E+03	9.859293E-04	4.542533E-05
4.007438E+03	1.003034E-03	4.603766E-05
4.017382E+03	1.019545E-03	4.661840E-05
4.027326E+03	1.035529E-03	4.717097E-05
4.037270E+03	1.050838E-03	4.768908E-05
4.047214E+03	1.065509E-03	4.817490E-05
4.057158E+03	1.079256E-03	4.861597E-05
4.067102E+03	1.092190E-03	4.901788E-05
4.077046E+03	1.104207E-03	4.937649E-05
4.086990E+03	1.115094E-03	4.968296E-05
4.096934E+03	1.124754E-03	4.993357E-05
4.106878E+03	1.133214E-03	5.013031E-05
4.116822E+03	1.140221E-03	5.026265E-05
4.126766E+03	1.146090E-03	5.034530E-05
4.136710E+03	1.150559E-03	5.036730E-05
4.146654E+03	1.153940E-03	5.034311E-05
4.156598E+03	1.156388E-03	5.028003E-05
4.166542E+03	1.157894E-03	5.017811E-05
4.176486E+03	1.158900E-03	5.005698E-05
4.186430E+03	1.159660E-03	4.992789E-05
4.196374E+03	1.160233E-03	4.979355E-05
4.206318E+03	1.161086E-03	4.967406E-05
4.216262E+03	1.162363E-03	4.957553E-05
4.226206E+03	1.164384E-03	4.951155E-05
4.236150E+03	1.167235E-03	4.948552E-05
4.246094E+03	1.171058E-03	4.950326E-05
4.256039E+03	1.176052E-03	4.957288E-05
4.265983E+03	1.182158E-03	4.969162E-05
4.275927E+03	1.189364E-03	4.985873E-05
4.285871E+03	1.197600E-03	5.007101E-05
4.295815E+03	1.206837E-03	5.032714E-05
4.305759E+03	1.216792E-03	5.061516E-05
4.315703E+03	1.227234E-03	5.092539E-05
4.325647E+03	1.237985E-03	5.125060E-05
4.335591E+03	1.248642E-03	5.157418E-05
4.345535E+03	1.258887E-03	5.188328E-05
4.355479E+03	1.268427E-03	5.216613E-05
4.365423E+03	1.277175E-03	5.241954E-05
4.375367E+03	1.285052E-03	5.264063E-05
4.385311E+03	1.292293E-03	5.283945E-05
4.395255E+03	1.299253E-03	5.303078E-05
4.405199E+03	1.306432E-03	5.323513E-05
4.415143E+03	1.314132E-03	5.346502E-05
4.425087E+03	1.322745E-03	5.373644E-05
4.435031E+03	1.332633E-03	5.406400E-05
4.444975E+03	1.344208E-03	5.446436E-05
4.454919E+03	1.357510E-03	5.493895E-05
4.464863E+03	1.372905E-03	5.550243E-05
4.474807E+03	1.390357E-03	5.615319E-05
4.484751E+03	1.409929E-03	5.689366E-05
4.494695E+03	1.431254E-03	5.770902E-05
4.504639E+03	1.454265E-03	5.859657E-05
4.514583E+03	1.478456E-03	5.953603E-05
4.524527E+03	1.503309E-03	6.050665E-05
4.534471E+03	1.528199E-03	6.148346E-05
4.544415E+03	1.552411E-03	6.243790E-05
4.554359E+03	1.575285E-03	6.334367E-05
4.564303E+03	1.595805E-03	6.416012E-05
4.574247E+03	1.613434E-03	6.486583E-05
4.584191E+03	1.627375E-03	6.542886E-05
4.594135E+03	1.637069E-03	6.582683E-05
4.604079E+03	1.642127E-03	6.604404E-05
4.614023E+03	1.642357E-03	6.607263E-05
4.623967E+03	1.637778E-03	6.591304E-05
4.633911E+03	1.628722E-03	6.557839E-05
4.643855E+03	1.615379E-03	6.507588E-05
4.653799E+03	1.598542E-03	6.443699E-05
4.663743E+03	1.578799E-03	6.368493E-05
4.673687E+03	1.556833E-03	6.284679E-05
4.683631E+03	1.533691E-03	6.196437E-05
4.693575E+03	1.510118E-03	6.106740E-05
4.703519E+03	1.486944E-03	6.018916E-05
4.713463E+03	1.464955E-03	5.936129E-05
4.723407E+03	1.444771E-03	5.860878E-05
4.733351E+03	1.427205E-03	5.796470E-05
4.743295E+03	1.412678E-03	5.744634E-05
4.753239E+03	1.401588E-03	5.707014E-05
4.763183E+03	1.394204E-03	5.684749E-05
4.773127E+03	1.390658E-03	5.678427E-05
4.783071E+03	1.390943E-03	5.688078E-05
4.793015E+03	1.394916E-03	5.713185E-05
4.802959E+03	1.402305E-03	5.752690E-05
4.812903E+03	1.412713E-03	5.805036E-05
4.822847E+03	1.425645E-03	5.868245E-05
4.832791E+03	1.440437E-03	5.939633E-05
4.842735E+03	1.456635E-03	6.017373E-05
4.852679E+03	1.473499E-03	6.098439E-05
4.862623E+03	1.490294E-03	6.179803E-05
4.872567E+03	1.506592E-03	6.259686E-05
4.882511E+03	1.521664E-03	6.335051E-05
4.892455E+03	1.535132E-03	6.404289E-05
4.902399E+03	1.546618E-03	6.465785E-05
4.912344E+03	1.555841E-03	6.518305E-05
4.922288E+03	1.562614E-03	6.561011E-05
4.932232E+03	1.566843E-03	6.593431E-05
4.942176E+03	1.568515E-03	6.615439E-05
4.952120E+03	1.567601E-03	6.626831E-05
4.962064E+03	1.564316E-03	6.628442E-05
4.972008E+03	1.558929E-03	6.621334E-05
4.981952E+03	1.551488E-03	6.605643E-05
4.991896E+03	1.542274E-03	6.582493E-05
5.001840E+03	1.531785E-03	6.553954E-05
5.011784E+03	1.520300E-03	6.521172E-05
5.021728E+03	1.508140E-03	6.485478E-05
5.031672E+03	1.495821E-03	6.449074E-05
5.041616E+03	1.483787E-03	6.413861E-05
5.051560E+03	1.472391E-03	6.381367E-05
5.061504E+03	1.462200E-03	6.354069E-05
5.071448E+03	1.453398E-03	6.332805E-05
5.081392E+03	1.446341E-03	6.319174E-05
5.091336E+03	1.441136E-03	6.313696E-05
5.101280E+03	1.438027E-03	6.317501E-05
5.111224E+03	1.436837E-03	6.329890E-05
5.121168E+03	1.437526E-03	6.350749E-05
5.131112E+03	1.439809E-03	6.378882E-05
5.141056E+03	1.443557E-03	6.413774E-05
5.151000E+03	1.448279E-03	6.453292E-05
5.160944E+03	1.453609E-03	6.495842E-05
5.170888E+03	1.459332E-03	6.540479E-05
5.180832E+03	1.464939E-03	6.584930E-05
5.190776E+03	1.470190E-03	6.628110E-05
5.200720E+03	1.474734E-03	6.668420E-05
5.210664E+03	1.478431E-03	6.705192E-05
5.220608E+03	1.481113E-03	6.737632E-05
5.230552E+03	1.482588E-03	6.764815E-05
5.240496E+03	1.482859E-03	6.786708E-05
5.250440E+03	1.481888E-03	6.803084E-05
5.260384E+03	1.479668E-03	6.813855E-05
5.270328E+03	1.476064E-03	6.818349E-05
5.280272E+03	1.471343E-03	6.817732E-05
5.290216E+03	1.465411E-03	6.811520E-05
5.300160E+03	1.458418E-03	6.800362E-05
5.310104E+03	1.450389E-03	6.784316E-05
5.320048E+03	1.441514E-03	6.764225E-05
5.329992E+03	1.431927E-03	6.740686E-05
5.339936E+03	1.421713E-03	6.714061E-05
5.349880E+03	1.411114E-03	6.685459E-05
5.359824E+03	1.400239E-03	6.655381E-05
5.369768E+03	1.389341E-03	6.625019E-05
5.379712E+03	1.378600E-03	6.595221E-05
5.389656E+03	1.368119E-03	6.566493E-05
5.399600E+03	1.358058E-03	6.539609E-05
5.409544E+03	1.348626E-03	6.515595E-05
5.419488E+03	1.339946E-03	6.495078E-05
5.429432E+03	1.332057E-03	6.478278E-05
5.439376E+03	1.325107E-03	6.465951E-05
5.449320E+03	1.319080E-03	6.458065E-05
5.459264E+03	1.314037E-03	6.454961E-05
5.469208E+03	1.309817E-03	6.455887E-05
5.479152E+03	1.306269E-03	6.460132E-05
5.489096E+03	1.303040E-03	6.465973E-05
5.499040E+03	1.299865E-03	6.472105E-05
5.508984E+03	1.296349E-03	6.476545E-05
5.518928E+03	1.292224E-03	6.477930E-05
5.528872E+03	1.287117E-03	6.474350E-05
5.538816E+03	1.280749E-03	6.464339E-05
5.548760E+03	1.272941E-03	6.446918E-05
5.558704E+03	1.263498E-03	6.421016E-05
5.568649E+03	1.252222E-03	6.385534E-05
5.578593E+03	1.239089E-03	6.340248E-05
5.588537E+03	1.224015E-03	6.284623E-05
5.598481E+03	1.207032E-03	6.218713E-05
5.608425E+03	1.188279E-03	6.143127E-05
5.618369E+03	1.167831E-03	6.058159E-05
5.628313E+03	1.145917E-03	5.964897E-05
5.638257E+03	1.122698E-03	5.864100E-05
5.648201E+03	1.098479E-03	5.757286E-05
5.658145E+03	1.073497E-03	5.645648E-05
5.668089E+03	1.048077E-03	5.530849E-05
5.678033E+03	1.022623E-03	5.415000E-05
5.687977E+03	9.974742E-04	5.299895E-05
5.697921E+03	9.730852E-04	5.187968E-05
5.707865E+03	9.498370E-04	5.081292E-05
5.717809E+03	9.281607E-04	4.982242E-05
5.727753E+03	9.085228E-04	4.893409E-05
5.737697E+03	8.913227E-04	4.817060E-05
5.747641E+03	8.768486E-04	4.754890E-05
5.757585E+03	8.655003E-04	4.709218E-05
5.767529E+03	8.575362E-04	4.681624E-05
5.777473E+03	8.531101E-04	4.673137E-05
5.787417E+03	8.523351E-04	4.684569E-05
5.797361E+03	8.552394E-04	4.716277E-05
5.807305E+03	8.617980E-04	4.768322E-05
5.817249E+03	8.718536E-04	4.840034E-05
5.827193E+03	8.850758E-04	4.929762E-05
5.837137E+03	9.011929E-04	5.036163E-05
5.847081E+03	9.197715E-04	5.156965E-05
5.857025E+03	9.402586E-04	5.289193E-05
5.866969E+03	9.620836E-04	5.429731E-05
5.876913E+03	9.846400E-04	5.575217E-05
5.886857E+03	1.007358E-03	5.722451E-05
5.896801E+03	1.029605E-03	5.867839E-05
5.906745E+03	1.050888E-03	6.008530E-05
5.916689E+03	1.070705E-03	6.141591E-05
5.926633E+03	1.088695E-03	6.264864E-05
5.936577E+03	1.104662E-03	6.377111E-05
5.946521E+03	1.118434E-03	6.477219E-05
5.956465E+03	1.130002E-03	6.565018E-05
5.966409E+03	1.139520E-03	6.641276E-05
5.976353E+03	1.147138E-03	6.706757E-05
5.986297E+03	1.153182E-03	6.763265E-05
5.996241E+03	1.157890E-03	6.812116E-05
6.006185E+03	1.161734E-03	6.856017E-05
6.016129E+03	1.165105E-03	6.897237E-05
6.026073E+03	1.168342E-03	6.937757E-05
6.036017E+03	1.171817E-03	6.979777E-05
6.045961E+03	1.175868E-03	7.025344E-05
6.055905E+03	1.180848E-03	7.076590E-05
6.065849E+03	1.186965E-03	7.134824E-05
6.075793E+03	1.194485E-03	7.201697E-05
6.085737E+03	1.203477E-03	7.277711E-05
6.095681E+03	1.214228E-03	7.364682E-05
6.105625E+03	1.226687E-03	7.462392E-05
6.115569E+03	1.241033E-03	7.572023E-05
6.125513E+03	1.257271E-03	7.693704E-05
6.135457E+03	1.275498E-03	7.828131E-05
6.145401E+03	1.295641E-03	7.974965E-05
6.155345E+03	1.317898E-03	8.135515E-05
6.165289E+03	1.342134E-03	8.309059E-05
6.175233E+03	1.368492E-03	8.496589E-05
6.185177E+03	1.396946E-03	8.698051E-05
6.195121E+03	1.427584E-03	8.914105E-05
6.205065E+03	1.460379E-03	9.144682E-05
6.215009E+03	1.495359E-03	9.390082E-05
6.224954E+03	1.532623E-03	9.651024E-05
6.234898E+03	1.572157E-03	9.927547E-05
6.244842E+03	1.614032E-03	1.022020E-04
6.254786E+03	1.658423E-03	1.053022E-04
6.264730E+03	1.705422E-03	1.085832E-04
6.274674E+03	1.755324E-03	1.120649E-04
6.284618E+03	1.808283E-03	1.157589E-04
6.294562E+03	1.864831E-03	1.197006E-04
6.304506E+03	1.925444E-03	1.239225E-04
6.314450E+03	1.990602E-03	1.284576E-04
6.324394E+03	2.060942E-03	1.333492E-04
6.334338E+03	2.137252E-03	1.386511E-04
6.344282E+03	2.220206E-03	1.444100E-04
6.354226E+03	2.310591E-03	1.506805E-04
6.364170E+03	2.409312E-03	1.575254E-04
6.374114E+03	2.517066E-03	1.649944E-04
6.384058E+03	2.634599E-03	1.731409E-04
6.394002E+03	2.762687E-03	1.820208E-04
6.403946E+03	2.901863E-03	1.916743E-04
6.413890E+03	3.052194E-03	2.021113E-04
6.423834E+03	3.213914E-03	2.133524E-04
6.433778E+03	3.386586E-03	2.253740E-04
6.443722E+03	3.569038E-03	2.381031E-04
6.453666E+03	3.759481E-03	2.514244E-04
6.463610E+03	3.955385E-03	2.651721E-04
6.473554E+03	4.152892E-03	2.790890E-04
6.483498E+03	4.347219E-03	2.928534E-04
6.493442E+03	4.532741E-03	3.060837E-04
6.503386E+03	4.702601E-03	3.183109E-04
6.513330E+03	4.849801E-03	3.290524E-04
6.523274E+03	4.966977E-03	3.377964E-04
6.533218E+03	5.047851E-03	3.441001E-04
6.543162E+03	5.087063E-03	3.475799E-04
6.553106E+03	5.081354E-03	3.479926E-04
6.563050E+03	5.029944E-03	3.452634E-04
6.572994E+03	4.934013E-03	3.394520E-04
6.582938E+03	4.797389E-03	3.308016E-04
6.592882E+03	4.625330E-03	3.196567E-04
6.602826E+03	4.424779E-03	3.064820E-04
6.612770E+03	4.202963E-03	2.917664E-04
6.622714E+03	3.967550E-03	2.760339E-04
6.632658E+03	3.725427E-03	2.597587E-04
6.642602E+03	3.482867E-03	2.433768E-04
6.652546E+03	3.245257E-03	2.272656E-04
6.662490E+03	3.016711E-03	2.117163E-04
6.672434E+03	2.800131E-03	1.969380E-04
6.682378E+03	2.597569E-03	1.830807E-04
6.692322E+03	2.410316E-03	1.702424E-04
6.702266E+03	2.238741E-03	1.584566E-04
6.712210E+03	2.082875E-03	1.477326E-04
6.722154E+03	1.942240E-03	1.380438E-04
6.732098E+03	1.815929E-03	1.293326E-04
6.742042E+03	1.703263E-03	1.215571E-04
6.751986E+03	1.603078E-03	1.146402E-04
6.761930E+03	1.514336E-03	1.085132E-04
6.771874E+03	1.436078E-03	1.031122E-04
6.781818E+03	1.367255E-03	9.836673E-05
6.791762E+03	1.307005E-03	9.421869E-05
6.801706E+03	1.254480E-03	9.061051E-05
6.811650E+03	1.208856E-03	8.748610E-05
6.821594E+03	1.169448E-03	8.479877E-05
6.831538E+03	1.135742E-03	8.251386E-05
6.841482E+03	1.107051E-03	8.058382E-05
6.851426E+03	1.082994E-03	7.898304E-05
6.861370E+03	1.063149E-03	7.768262E-05
6.871314E+03	1.047101E-03	7.665402E-05
6.881259E+03	1.034567E-03	7.587810E-05
6.891203E+03	1.025258E-03	7.533501E-05
6.901147E+03	1.018871E-03	7.500381E-05
6.911091E+03	1.015174E-03	7.486862E-05
6.921035E+03	1.014001E-03	7.491826E-05
6.930979E+03	1.015161E-03	7.513957E-05
6.940923E+03	1.018436E-03	7.551737E-05
6.950867E+03	1.023708E-03	7.604369E-05
6.960811E+03	1.030826E-03	7.670819E-05
6.970755E+03	1.039608E-03	7.749782E-05
6.980699E+03	1.049967E-03	7.840691E-05
6.990643E+03	1.061738E-03	7.942362E-05
7.000587E+03	1.074857E-03	8.054368E-05
7.010531E+03	1.089178E-03	8.175659E-05
7.020475E+03	1.104706E-03	8.306332E-05
7.030419E+03	1.121224E-03	8.444776E-05
7.040363E+03	1.138813E-03	8.591652E-05
7.050307E+03	1.157326E-03	8.745877E-05
7.060251E+03	1.176722E-03	8.907181E-05
7.070195E+03	1.197075E-03	9.076139E-05
7.080139E+03	1.218205E-03	9.251436E-05
7.090083E+03	1.240250E-03	9.434137E-05
7.100027E+03	1.263084E-03	9.623305E-05
7.109971E+03	1.286731E-03	9.819158E-05
7.119915E+03	1.311152E-03	1.002141E-04
7.129859E+03	1.336231E-03	1.022922E-04
7.139803E+03	1.361944E-03	1.044241E-04
7.149747E+03	1.388122E-03	1.065969E-04
7.159691E+03	1.414676E-03	1.088040E-04
7.169635E+03	1.441425E-03	1.110315E-04
7.179579E+03	1.468138E-03	1.132616E-04
7.189523E+03	1.494473E-03	1.154679E-04
7.199467E+03	1.520167E-03	1.176297E-04
7.209411E+03	1.544776E-03	1.197124E-04
7.219355E+03	1.567945E-03	1.216882E-04
7.229299E+03	1.589221E-03	1.235210E-04
7.239243E+03	1.608122E-03	1.251730E-04
7.249187E+03	1.624092E-03	1.265997E-04
7.259131E+03	1.636732E-03	1.277690E-04
7.269075E+03	1.645610E-03	1.286461E-04
7.279019E+03	1.650283E-03	1.291950E-04
7.288963E+03	1.650539E-03	1.293976E-04
7.298907E+03	1.646199E-03	1.292384E-04
7.308851E+03	1.637196E-03	1.287106E-04
7.318795E+03	1.623510E-03	1.278112E-04
7.328739E+03	1.605390E-03	1.265584E-04
7.338683E+03	1.583124E-03	1.249733E-04
7.348627E+03	1.557023E-03	1.230794E-04
7.358571E+03	1.527693E-03	1.209234E-04
7.368515E+03	1.495514E-03	1.185344E-04
7.378459E+03	1.461048E-03	1.159562E-04
7.388403E+03	1.425006E-03	1.132447E-04
7.398347E+03	1.387827E-03	1.104344E-04
7.408291E+03	1.350137E-03	1.075748E-04
7.418235E+03	1.312398E-03	1.047027E-04
7.428179E+03	1.275218E-03	1.018668E-04
7.438123E+03	1.238919E-03	9.909298E-05
7.448067E+03	1.203949E-03	9.641759E-05
7.458011E+03	1.170649E-03	9.386828E-05
7.467955E+03	1.139252E-03	9.146446E-05
7.477899E+03	1.110053E-03	8.923041E-05
7.487843E+03	1.083243E-03	8.718220E-05
7.497787E+03	1.058970E-03	8.533256E-05
7.507731E+03	1.037344E-03	8.369103E-05
7.517675E+03	1.018386E-03	8.226031E-05
7.527620E+03	1.002186E-03	8.104833E-05
7.537564E+03	9.887529E-04	8.005670E-05
7.547508E+03	9.780193E-04	7.928079E-05
7.557452E+03	9.700321E-04	7.872518E-05
7.567396E+03	9.646249E-04	7.837715E-05
7.577340E+03	9.617442E-04	7.823309E-05
7.587284E+03	9.612615E-04	7.828324E-05
7.597228E+03	9.630202E-04	7.851551E-05
7.607172E+03	9.667887E-04	7.891162E-05
7.617116E+03	9.723987E-04	7.945836E-05
7.627060E+03	9.796100E-04	8.013660E-05
7.637004E+03	9.881598E-04	8.092522E-05
7.646948E+03	9.977674E-04	8.180157E-05
7.656892E+03	1.008090E-03	8.273779E-05
7.666836E+03	1.018879E-03	8.371357E-05
7.676780E+03	1.029837E-03	8.470472E-05
7.686724E+03	1.040685E-03	8.568811E-05
7.696668E+03	1.051157E-03	8.664183E-05
7.706612E+03	1.060963E-03	8.754193E-05
7.716556E+03	1.070001E-03	8.837972E-05
