#wls	flux	fluxerr
1.591042E+03	4.510990E-05	1.193908E-05
1.630818E+03	4.559227E-05	1.200926E-05
1.670595E+03	4.607535E-05	1.207682E-05
1.710371E+03	4.653744E-05	1.213601E-05
1.750147E+03	4.697545E-05	1.218603E-05
1.789923E+03	4.740509E-05	1.223095E-05
1.829699E+03	4.780434E-05	1.226506E-05
1.869475E+03	4.817003E-05	1.228762E-05
1.909251E+03	4.851802E-05	1.230270E-05
1.949027E+03	4.882646E-05	1.230481E-05
1.988803E+03	4.909269E-05	1.229339E-05
2.028579E+03	4.933307E-05	1.227264E-05
2.068355E+03	4.952673E-05	1.223747E-05
2.108131E+03	4.969073E-05	1.219222E-05
2.147907E+03	4.980530E-05	1.213218E-05
2.187683E+03	4.988839E-05	1.206190E-05
2.227459E+03	4.992177E-05	1.197712E-05
2.267235E+03	4.990655E-05	1.187835E-05
2.307012E+03	4.986257E-05	1.177051E-05
2.346788E+03	4.977454E-05	1.165015E-05
2.386564E+03	4.966380E-05	1.152247E-05
2.426340E+03	4.951742E-05	1.138461E-05
2.466116E+03	4.934138E-05	1.123815E-05
2.505892E+03	4.915954E-05	1.108865E-05
2.545668E+03	4.897948E-05	1.093784E-05
2.585444E+03	4.879359E-05	1.078402E-05
2.625220E+03	4.862862E-05	1.063308E-05
2.664996E+03	4.846403E-05	1.048042E-05
2.704772E+03	4.836091E-05	1.033911E-05
2.744548E+03	4.830181E-05	1.020499E-05
2.784324E+03	4.830320E-05	1.008116E-05
2.824100E+03	4.839878E-05	9.974081E-06
2.863876E+03	4.860881E-05	9.887091E-06
2.903652E+03	4.894122E-05	9.820820E-06
2.943428E+03	4.942260E-05	9.779453E-06
2.983205E+03	5.009859E-05	9.770563E-06
2.993149E+03	5.029586E-05	9.772791E-06
3.003093E+03	5.052238E-05	9.780222E-06
3.013037E+03	5.074829E-05	9.787030E-06
3.022981E+03	5.098949E-05	9.796268E-06
3.032925E+03	5.126203E-05	9.810972E-06
3.042869E+03	5.153591E-05	9.825352E-06
3.052813E+03	5.184267E-05	9.845392E-06
3.062757E+03	5.215223E-05	9.865323E-06
3.072701E+03	5.249638E-05	9.891127E-06
3.082645E+03	5.286051E-05	9.919982E-06
3.092589E+03	5.322979E-05	9.949069E-06
3.102533E+03	5.363654E-05	9.984385E-06
3.112477E+03	5.406609E-05	1.002312E-05
3.122421E+03	5.450348E-05	1.006247E-05
3.132365E+03	5.498166E-05	1.010845E-05
3.142309E+03	5.548584E-05	1.015827E-05
3.152253E+03	5.601723E-05	1.021207E-05
3.162197E+03	5.656063E-05	1.026704E-05
3.172141E+03	5.715003E-05	1.032928E-05
3.182085E+03	5.777052E-05	1.039599E-05
3.192029E+03	5.842349E-05	1.046735E-05
3.201973E+03	5.911045E-05	1.054354E-05
3.211917E+03	5.983295E-05	1.062475E-05
3.221861E+03	6.059264E-05	1.071118E-05
3.231805E+03	6.139124E-05	1.080304E-05
3.241749E+03	6.223054E-05	1.090053E-05
3.251693E+03	6.313033E-05	1.100701E-05
3.261637E+03	6.405702E-05	1.111649E-05
3.271581E+03	6.503038E-05	1.123231E-05
3.281525E+03	6.605259E-05	1.135473E-05
3.291469E+03	6.712594E-05	1.148400E-05
3.301413E+03	6.827192E-05	1.162364E-05
3.311357E+03	6.945511E-05	1.176748E-05
3.321301E+03	7.069698E-05	1.191902E-05
3.331245E+03	7.202027E-05	1.208193E-05
3.341189E+03	7.338821E-05	1.224985E-05
3.351133E+03	7.482348E-05	1.242642E-05
3.361077E+03	7.635025E-05	1.261546E-05
3.371021E+03	7.793014E-05	1.281041E-05
3.380965E+03	7.960908E-05	1.301864E-05
3.390909E+03	8.136962E-05	1.323704E-05
3.400853E+03	8.319290E-05	1.346235E-05
3.410797E+03	8.512784E-05	1.370225E-05
3.420741E+03	8.713254E-05	1.394973E-05
3.430685E+03	8.925814E-05	1.421276E-05
3.440629E+03	9.148588E-05	1.448802E-05
3.450573E+03	9.379502E-05	1.477197E-05
3.460517E+03	9.624044E-05	1.507297E-05
3.470461E+03	9.880214E-05	1.538755E-05
3.480405E+03	1.014853E-04	1.571617E-05
3.490349E+03	1.042952E-04	1.605931E-05
3.500293E+03	1.072372E-04	1.641744E-05
3.510237E+03	1.102875E-04	1.678658E-05
3.520181E+03	1.135096E-04	1.717600E-05
3.530125E+03	1.168806E-04	1.758182E-05
3.540069E+03	1.204066E-04	1.800452E-05
3.550013E+03	1.240934E-04	1.844453E-05
3.559957E+03	1.279473E-04	1.890231E-05
3.569901E+03	1.319745E-04	1.937832E-05
3.579845E+03	1.362164E-04	1.987812E-05
3.589789E+03	1.406096E-04	2.039191E-05
3.599734E+03	1.451947E-04	2.092510E-05
3.609678E+03	1.499781E-04	2.147808E-05
3.619622E+03	1.549659E-04	2.205115E-05
3.629566E+03	1.601642E-04	2.264461E-05
3.639510E+03	1.656214E-04	2.326466E-05
3.649454E+03	1.712599E-04	2.389975E-05
3.659398E+03	1.771265E-04	2.455586E-05
3.669342E+03	1.832732E-04	2.523950E-05
3.679286E+03	1.896137E-04	2.593808E-05
3.689230E+03	1.961979E-04	2.665785E-05
3.699174E+03	2.030816E-04	2.740566E-05
3.709118E+03	2.101683E-04	2.816773E-05
3.719062E+03	2.175658E-04	2.895786E-05
3.729006E+03	2.251702E-04	2.976143E-05
3.738950E+03	2.330951E-04	3.059281E-05
3.748894E+03	2.412284E-04	3.143649E-05
3.758838E+03	2.496898E-04	3.230740E-05
3.768782E+03	2.583585E-04	3.318912E-05
3.778726E+03	2.673608E-04	3.409720E-05
3.788670E+03	2.765663E-04	3.501424E-05
3.798614E+03	2.861080E-04	3.595641E-05
3.808558E+03	2.959180E-04	3.691434E-05
3.818502E+03	3.059191E-04	3.787780E-05
3.828446E+03	3.162548E-04	3.886390E-05
3.838390E+03	3.268484E-04	3.986245E-05
3.848334E+03	3.376947E-04	4.087217E-05
3.858278E+03	3.487033E-04	4.188156E-05
3.868222E+03	3.600333E-04	4.290924E-05
3.878166E+03	3.715950E-04	4.394380E-05
3.888110E+03	3.833797E-04	4.498369E-05
3.898054E+03	3.953778E-04	4.602731E-05
3.907998E+03	4.075791E-04	4.707301E-05
3.917942E+03	4.198722E-04	4.810762E-05
3.927886E+03	4.324424E-04	4.915211E-05
3.937830E+03	4.451798E-04	5.019352E-05
3.947774E+03	4.580709E-04	5.123005E-05
3.957718E+03	4.711017E-04	5.225996E-05
3.967662E+03	4.842578E-04	5.328150E-05
3.977606E+03	4.975241E-04	5.429292E-05
3.987550E+03	5.108850E-04	5.529250E-05
3.997494E+03	5.243247E-04	5.627856E-05
4.007438E+03	5.378272E-04	5.724949E-05
4.017382E+03	5.513759E-04	5.820370E-05
4.027326E+03	5.649546E-04	5.913969E-05
4.037270E+03	5.785468E-04	6.005604E-05
4.047214E+03	5.921359E-04	6.095138E-05
4.057158E+03	6.058447E-04	6.183866E-05
4.067102E+03	6.193817E-04	6.268850E-05
4.077046E+03	6.328674E-04	6.351387E-05
4.086990E+03	6.462862E-04	6.431383E-05
4.096934E+03	6.596229E-04	6.508756E-05
4.106878E+03	6.728630E-04	6.583433E-05
4.116822E+03	6.859920E-04	6.655355E-05
4.126766E+03	6.991537E-04	6.725988E-05
4.136710E+03	7.120226E-04	6.792280E-05
4.146654E+03	7.247413E-04	6.855711E-05
4.156598E+03	7.372974E-04	6.916264E-05
4.166542E+03	7.498467E-04	6.975495E-05
4.176486E+03	7.620465E-04	7.030314E-05
4.186430E+03	7.740510E-04	7.082281E-05
4.196374E+03	7.858500E-04	7.131424E-05
4.206318E+03	7.976125E-04	7.179384E-05
4.216262E+03	8.089774E-04	7.223025E-05
4.226206E+03	8.201119E-04	7.263993E-05
4.236150E+03	8.311903E-04	7.303952E-05
4.246094E+03	8.418439E-04	7.339783E-05
4.256039E+03	8.522452E-04	7.373153E-05
4.265983E+03	8.623901E-04	7.404164E-05
4.275927E+03	8.724621E-04	7.434520E-05
4.285871E+03	8.820806E-04	7.461106E-05
4.295815E+03	8.914296E-04	7.485644E-05
4.305759E+03	9.007006E-04	7.509875E-05
4.315703E+03	9.095059E-04	7.530696E-05
4.325647E+03	9.180389E-04	7.549872E-05
4.335591E+03	9.264985E-04	7.569169E-05
4.345535E+03	9.344932E-04	7.585517E-05
4.355479E+03	9.422236E-04	7.600702E-05
4.365423E+03	9.498964E-04	7.616517E-05
4.375367E+03	9.571065E-04	7.629835E-05
4.385311E+03	9.640441E-04	7.642324E-05
4.395255E+03	9.709044E-04	7.655650E-05
4.405199E+03	9.772694E-04	7.666638E-05
4.415143E+03	9.833348E-04	7.676963E-05
4.425087E+03	9.893015E-04	7.688309E-05
4.435031E+03	9.947490E-04	7.697517E-05
4.444975E+03	9.998794E-04	7.706278E-05
4.454919E+03	1.004899E-03	7.716257E-05
4.464863E+03	1.009385E-03	7.724243E-05
4.474807E+03	1.013546E-03	7.731857E-05
4.484751E+03	1.017590E-03	7.740712E-05
4.494695E+03	1.021097E-03	7.747608E-05
4.504639E+03	1.024277E-03	7.754160E-05
4.514583E+03	1.027342E-03	7.761971E-05
4.524527E+03	1.029874E-03	7.767863E-05
4.534471E+03	1.032086E-03	7.773434E-05
4.544415E+03	1.033983E-03	7.778702E-05
4.554359E+03	1.035779E-03	7.785261E-05
4.564303E+03	1.037061E-03	7.789959E-05
4.574247E+03	1.038045E-03	7.794401E-05
4.584191E+03	1.038743E-03	7.798616E-05
4.594135E+03	1.039370E-03	7.804198E-05
4.604079E+03	1.039520E-03	7.808031E-05
4.614023E+03	1.039415E-03	7.811739E-05
4.623967E+03	1.039067E-03	7.815354E-05
4.633911E+03	1.038489E-03	7.818928E-05
4.643855E+03	1.037903E-03	7.824062E-05
4.653799E+03	1.036910E-03	7.827702E-05
4.663743E+03	1.035732E-03	7.831457E-05
4.673687E+03	1.034384E-03	7.835386E-05
4.683631E+03	1.032885E-03	7.839556E-05
4.693575E+03	1.031248E-03	7.844019E-05
4.703519E+03	1.029491E-03	7.848838E-05
4.713463E+03	1.027627E-03	7.854072E-05
4.723407E+03	1.025672E-03	7.859774E-05
4.733351E+03	1.023638E-03	7.865990E-05
4.743295E+03	1.021541E-03	7.872773E-05
4.753239E+03	1.019390E-03	7.880150E-05
4.763183E+03	1.017198E-03	7.888164E-05
4.773127E+03	1.014973E-03	7.896836E-05
4.783071E+03	1.012723E-03	7.906181E-05
4.793015E+03	1.010457E-03	7.916221E-05
4.802959E+03	1.008179E-03	7.926946E-05
4.812903E+03	1.005895E-03	7.938360E-05
4.822847E+03	1.003416E-03	7.948930E-05
4.832791E+03	1.001128E-03	7.961675E-05
4.842735E+03	9.988417E-04	7.975061E-05
4.852679E+03	9.965554E-04	7.989043E-05
4.862623E+03	9.940813E-04	8.002079E-05
4.872567E+03	9.917962E-04	8.017163E-05
4.882511E+03	9.895098E-04	8.032745E-05
4.892455E+03	9.870336E-04	8.047258E-05
4.902399E+03	9.847387E-04	8.063697E-05
4.912344E+03	9.824357E-04	8.080500E-05
4.922288E+03	9.799390E-04	8.096109E-05
4.932232E+03	9.776143E-04	8.113518E-05
4.942176E+03	9.750935E-04	8.129658E-05
4.952120E+03	9.727391E-04	8.147524E-05
4.962064E+03	9.701858E-04	8.164045E-05
4.972008E+03	9.676154E-04	8.180719E-05
4.981952E+03	9.652046E-04	8.199031E-05
4.991896E+03	9.625936E-04	8.215917E-05
5.001840E+03	9.599624E-04	8.232883E-05
5.011784E+03	9.574866E-04	8.251430E-05
5.021728E+03	9.548112E-04	8.268493E-05
5.031672E+03	9.521137E-04	8.285584E-05
5.041616E+03	9.493937E-04	8.302690E-05
5.051560E+03	9.466509E-04	8.319797E-05
5.061504E+03	9.438849E-04	8.336893E-05
5.071448E+03	9.410945E-04	8.353962E-05
5.081392E+03	9.382788E-04	8.370987E-05
5.091336E+03	9.354367E-04	8.387953E-05
5.101280E+03	9.325671E-04	8.404844E-05
5.111224E+03	9.296680E-04	8.421636E-05
5.121168E+03	9.267369E-04	8.438303E-05
5.131112E+03	9.237722E-04	8.454825E-05
5.141056E+03	9.207705E-04	8.471167E-05
5.151000E+03	9.175640E-04	8.485773E-05
5.160944E+03	9.144804E-04	8.501661E-05
5.170888E+03	9.113499E-04	8.517264E-05
5.180832E+03	9.080064E-04	8.531019E-05
5.190776E+03	9.047719E-04	8.545937E-05
5.200720E+03	9.013184E-04	8.558922E-05
5.210664E+03	8.979642E-04	8.572986E-05
5.220608E+03	8.943843E-04	8.585025E-05
5.230552E+03	8.908929E-04	8.598044E-05
5.240496E+03	8.871703E-04	8.608955E-05
5.250440E+03	8.833707E-04	8.619233E-05
5.260384E+03	8.794903E-04	8.628830E-05
5.270328E+03	8.756806E-04	8.639233E-05
5.280272E+03	8.716271E-04	8.647337E-05
5.290216E+03	8.674823E-04	8.654627E-05
5.300160E+03	8.632424E-04	8.661055E-05
5.310104E+03	8.589047E-04	8.666579E-05
5.320048E+03	8.544662E-04	8.671156E-05
5.329992E+03	8.499234E-04	8.674735E-05
5.339936E+03	8.452726E-04	8.677264E-05
5.349880E+03	8.403652E-04	8.677191E-05
5.359824E+03	8.354921E-04	8.677492E-05
5.369768E+03	8.305020E-04	8.676594E-05
5.379712E+03	8.252501E-04	8.672954E-05
5.389656E+03	8.200200E-04	8.669524E-05
5.399600E+03	8.146657E-04	8.664752E-05
5.409544E+03	8.090450E-04	8.657083E-05
5.419488E+03	8.032980E-04	8.647945E-05
5.429432E+03	7.975611E-04	8.638764E-05
5.439376E+03	7.915592E-04	8.626513E-05
5.449320E+03	7.854323E-04	8.612647E-05
5.459264E+03	7.793167E-04	8.598617E-05
5.469208E+03	7.729506E-04	8.581490E-05
5.479152E+03	7.664769E-04	8.562783E-05
5.489096E+03	7.599058E-04	8.542562E-05
5.499040E+03	7.532495E-04	8.520915E-05
5.508984E+03	7.465198E-04	8.497935E-05
5.518928E+03	7.397324E-04	8.473759E-05
5.528872E+03	7.327757E-04	8.447062E-05
5.538816E+03	7.259157E-04	8.420868E-05
5.548760E+03	7.190414E-04	8.393879E-05
5.558704E+03	7.120470E-04	8.364825E-05
5.568649E+03	7.051904E-04	8.336705E-05
5.578593E+03	6.982476E-04	8.306862E-05
5.588537E+03	6.914686E-04	8.278248E-05
5.598481E+03	6.846360E-04	8.248261E-05
5.608425E+03	6.779940E-04	8.219828E-05
5.618369E+03	6.713282E-04	8.190357E-05
5.628313E+03	6.647681E-04	8.161413E-05
5.638257E+03	6.583264E-04	8.133162E-05
5.648201E+03	6.520156E-04	8.105767E-05
5.658145E+03	6.458486E-04	8.079402E-05
5.668089E+03	6.398371E-04	8.054235E-05
5.678033E+03	6.339912E-04	8.030412E-05
5.687977E+03	6.283222E-04	8.008102E-05
5.697921E+03	6.227345E-04	7.986109E-05
5.707865E+03	6.174464E-04	7.967252E-05
5.717809E+03	6.123595E-04	7.950315E-05
5.727753E+03	6.073804E-04	7.934113E-05
5.737697E+03	6.027167E-04	7.921387E-05
5.747641E+03	5.981725E-04	7.909614E-05
5.757585E+03	5.938518E-04	7.900193E-05
5.767529E+03	5.898543E-04	7.894504E-05
5.777473E+03	5.859858E-04	7.890000E-05
5.787417E+03	5.823448E-04	7.888037E-05
5.797361E+03	5.789306E-04	7.888653E-05
5.807305E+03	5.757417E-04	7.891873E-05
5.817249E+03	5.727756E-04	7.897710E-05
5.827193E+03	5.700293E-04	7.906169E-05
5.837137E+03	5.674989E-04	7.917243E-05
5.847081E+03	5.650875E-04	7.929618E-05
5.857025E+03	5.629759E-04	7.945866E-05
5.866969E+03	5.610658E-04	7.964661E-05
5.876913E+03	5.592606E-04	7.984665E-05
5.886857E+03	5.577376E-04	8.008446E-05
5.896801E+03	5.563090E-04	8.033353E-05
5.906745E+03	5.550606E-04	8.060650E-05
5.916689E+03	5.539868E-04	8.090297E-05
5.926633E+03	5.531723E-04	8.123574E-05
5.936577E+03	5.524324E-04	8.157811E-05
5.946521E+03	5.518528E-04	8.194293E-05
5.956465E+03	5.514294E-04	8.232996E-05
5.966409E+03	5.511587E-04	8.273901E-05
5.976353E+03	5.509486E-04	8.315649E-05
5.986297E+03	5.509750E-04	8.360920E-05
5.996241E+03	5.511466E-04	8.408377E-05
6.006185E+03	5.513730E-04	8.456661E-05
6.016129E+03	5.518312E-04	8.508512E-05
6.026073E+03	5.523424E-04	8.561214E-05
6.036017E+03	5.530849E-04	8.617548E-05
6.045961E+03	5.538803E-04	8.674776E-05
6.055905E+03	5.548182E-04	8.734318E-05
6.065849E+03	5.558993E-04	8.796213E-05
6.075793E+03	5.571243E-04	8.860505E-05
6.085737E+03	5.584941E-04	8.927238E-05
6.095681E+03	5.600096E-04	8.996459E-05
6.105625E+03	5.616716E-04	9.068210E-05
6.115569E+03	5.634808E-04	9.142536E-05
6.125513E+03	5.654376E-04	9.219474E-05
6.135457E+03	5.674515E-04	9.297572E-05
6.145401E+03	5.697039E-04	9.379826E-05
6.155345E+03	5.720120E-04	9.463267E-05
6.165289E+03	5.745577E-04	9.550924E-05
6.175233E+03	5.771560E-04	9.639764E-05
6.185177E+03	5.798964E-04	9.731295E-05
6.195121E+03	5.828692E-04	9.827069E-05
6.205065E+03	5.858856E-04	9.923937E-05
6.215009E+03	5.890338E-04	1.002341E-04
6.224954E+03	5.923091E-04	1.012543E-04
6.234898E+03	5.957059E-04	1.022993E-04
6.244842E+03	5.991220E-04	1.033517E-04
6.254786E+03	6.027405E-04	1.044432E-04
6.264730E+03	6.064577E-04	1.055562E-04
6.274674E+03	6.101674E-04	1.066723E-04
6.284618E+03	6.140523E-04	1.078235E-04
6.294562E+03	6.179061E-04	1.089739E-04
6.304506E+03	6.219117E-04	1.101556E-04
6.314450E+03	6.258580E-04	1.113314E-04
6.324394E+03	6.298277E-04	1.125160E-04
6.334338E+03	6.338040E-04	1.137063E-04
6.344282E+03	6.377687E-04	1.148990E-04
6.354226E+03	6.417023E-04	1.160905E-04
6.364170E+03	6.455838E-04	1.172768E-04
6.374114E+03	6.493910E-04	1.184538E-04
6.384058E+03	6.530996E-04	1.196168E-04
6.394002E+03	6.566851E-04	1.207611E-04
6.403946E+03	6.600162E-04	1.218620E-04
6.413890E+03	6.632742E-04	1.229525E-04
6.423834E+03	6.662216E-04	1.239884E-04
6.433778E+03	6.690398E-04	1.250026E-04
6.443722E+03	6.714891E-04	1.259500E-04
6.453666E+03	6.736458E-04	1.268442E-04
6.463610E+03	6.754832E-04	1.276792E-04
6.473554E+03	6.769737E-04	1.284493E-04
6.483498E+03	6.782004E-04	1.291694E-04
6.493442E+03	6.788204E-04	1.297735E-04
6.503386E+03	6.791352E-04	1.303180E-04
6.513330E+03	6.790236E-04	1.307789E-04
6.523274E+03	6.784730E-04	1.311530E-04
6.533218E+03	6.774757E-04	1.314377E-04
6.543162E+03	6.759210E-04	1.316105E-04
6.553106E+03	6.740235E-04	1.317123E-04
6.563050E+03	6.715749E-04	1.317014E-04
6.572994E+03	6.686901E-04	1.315994E-04
6.582938E+03	6.654868E-04	1.314285E-04
6.592882E+03	6.617711E-04	1.311498E-04
6.602826E+03	6.576687E-04	1.307872E-04
6.612770E+03	6.532032E-04	1.303446E-04
6.622714E+03	6.484015E-04	1.298267E-04
6.632658E+03	6.432931E-04	1.292388E-04
6.642602E+03	6.379103E-04	1.285868E-04
6.652546E+03	6.322873E-04	1.278771E-04
6.662490E+03	6.263610E-04	1.270965E-04
6.672434E+03	6.203675E-04	1.262925E-04
6.682378E+03	6.142448E-04	1.254524E-04
6.692322E+03	6.079350E-04	1.245639E-04
6.702266E+03	6.016692E-04	1.236745E-04
6.712210E+03	5.952937E-04	1.227524E-04
6.722154E+03	5.889411E-04	1.218250E-04
6.732098E+03	5.826466E-04	1.208996E-04
6.742042E+03	5.765348E-04	1.200025E-04
6.751986E+03	5.704540E-04	1.191022E-04
6.761930E+03	5.645262E-04	1.182245E-04
6.771874E+03	5.586902E-04	1.173568E-04
6.781818E+03	5.531486E-04	1.165421E-04
6.791762E+03	5.478351E-04	1.157670E-04
6.801706E+03	5.427696E-04	1.150361E-04
6.811650E+03	5.378851E-04	1.143357E-04
6.821594E+03	5.333680E-04	1.137060E-04
6.831538E+03	5.291456E-04	1.131321E-04
6.841482E+03	5.251458E-04	1.125991E-04
6.851426E+03	5.214619E-04	1.121276E-04
6.861370E+03	5.181828E-04	1.117373E-04
6.871314E+03	5.151487E-04	1.113945E-04
6.881259E+03	5.124455E-04	1.111182E-04
6.891203E+03	5.100748E-04	1.109094E-04
6.901147E+03	5.080366E-04	1.107688E-04
6.911091E+03	5.063295E-04	1.106966E-04
6.921035E+03	5.049510E-04	1.106928E-04
6.930979E+03	5.038972E-04	1.107574E-04
6.940923E+03	5.031632E-04	1.108896E-04
6.950867E+03	5.026631E-04	1.110712E-04
6.960811E+03	5.025498E-04	1.113364E-04
6.970755E+03	5.027357E-04	1.116664E-04
6.980699E+03	5.031320E-04	1.120420E-04
6.990643E+03	5.038092E-04	1.124793E-04
7.000587E+03	5.048373E-04	1.129943E-04
7.010531E+03	5.060451E-04	1.135494E-04
7.020475E+03	5.075010E-04	1.141601E-04
7.030419E+03	5.092742E-04	1.148424E-04
7.040363E+03	5.111899E-04	1.155575E-04
7.050307E+03	5.133157E-04	1.163207E-04
7.060251E+03	5.156378E-04	1.171294E-04
7.070195E+03	5.181422E-04	1.179806E-04
7.080139E+03	5.207308E-04	1.188522E-04
7.090083E+03	5.235546E-04	1.197789E-04
7.100027E+03	5.265156E-04	1.207386E-04
7.109971E+03	5.295980E-04	1.217278E-04
7.119915E+03	5.327008E-04	1.227234E-04
7.129859E+03	5.359781E-04	1.237610E-04
7.139803E+03	5.392425E-04	1.247976E-04
7.149747E+03	5.426506E-04	1.258693E-04
7.159691E+03	5.460128E-04	1.269323E-04
7.169635E+03	5.494002E-04	1.280031E-04
7.179579E+03	5.527974E-04	1.290781E-04
7.189523E+03	5.562791E-04	1.301748E-04
7.199467E+03	5.596529E-04	1.312481E-04
7.209411E+03	5.629942E-04	1.323155E-04
7.219355E+03	5.662905E-04	1.333742E-04
7.229299E+03	5.695302E-04	1.344211E-04
7.239243E+03	5.727030E-04	1.354539E-04
7.249187E+03	5.757067E-04	1.364480E-04
7.259131E+03	5.787187E-04	1.374455E-04
7.269075E+03	5.816404E-04	1.384228E-04
7.279019E+03	5.843724E-04	1.393561E-04
7.288963E+03	5.870998E-04	1.402893E-04
7.298907E+03	5.897273E-04	1.411996E-04
7.308851E+03	5.921589E-04	1.420637E-04
7.318795E+03	5.944914E-04	1.429046E-04
7.328739E+03	5.968253E-04	1.437465E-04
7.338683E+03	5.989726E-04	1.445439E-04
7.348627E+03	6.010365E-04	1.453215E-04
7.358571E+03	6.030252E-04	1.460811E-04
7.368515E+03	6.050472E-04	1.468490E-04
7.378459E+03	6.069170E-04	1.475801E-04
7.388403E+03	6.087452E-04	1.483011E-04
7.398347E+03	6.105449E-04	1.490152E-04
7.408291E+03	6.123307E-04	1.497259E-04
7.418235E+03	6.140172E-04	1.504122E-04
7.428179E+03	6.158206E-04	1.511270E-04
7.438123E+03	6.176570E-04	1.518499E-04
7.448067E+03	6.195427E-04	1.525850E-04
7.458011E+03	6.213921E-04	1.533111E-04
7.467955E+03	6.234252E-04	1.540825E-04
7.477899E+03	6.254535E-04	1.548529E-04
7.487843E+03	6.276983E-04	1.556771E-04
7.497787E+03	6.299681E-04	1.565078E-04
7.507731E+03	6.324847E-04	1.574002E-04
7.517675E+03	6.350536E-04	1.583061E-04
7.527620E+03	6.377912E-04	1.592546E-04
7.537564E+03	6.408151E-04	1.602754E-04
7.547508E+03	6.439243E-04	1.613185E-04
7.557452E+03	6.472338E-04	1.624127E-04
7.567396E+03	6.507514E-04	1.635603E-04
7.577340E+03	6.544838E-04	1.647632E-04
7.587284E+03	6.584364E-04	1.660229E-04
7.597228E+03	6.626130E-04	1.673408E-04
7.607172E+03	6.670161E-04	1.687176E-04
7.617116E+03	6.716466E-04	1.701539E-04
7.627060E+03	6.763913E-04	1.716211E-04
7.637004E+03	6.814727E-04	1.731759E-04
7.646948E+03	6.867754E-04	1.747893E-04
7.656892E+03	6.922946E-04	1.764603E-04
7.666836E+03	6.979065E-04	1.781576E-04
7.676780E+03	7.038360E-04	1.799386E-04
7.686724E+03	7.098383E-04	1.817411E-04
7.696668E+03	7.161397E-04	1.836230E-04
7.706612E+03	7.224879E-04	1.855200E-04
7.716556E+03	7.289880E-04	1.874591E-04
