#wls	flux	fluxerr
1.600000E+03	7.556842E-18	5.340929E-18
1.640000E+03	7.571742E-18	5.349981E-18
1.680000E+03	7.587194E-18	5.359248E-18
1.720000E+03	7.604639E-18	5.369727E-18
1.760000E+03	7.624214E-18	5.381496E-18
1.800000E+03	7.646079E-18	5.394643E-18
1.840000E+03	7.669097E-18	5.408342E-18
1.880000E+03	7.696090E-18	5.424555E-18
1.920000E+03	7.725967E-18	5.442483E-18
1.960000E+03	7.757663E-18	5.461343E-18
2.000000E+03	7.794078E-18	5.483141E-18
2.040000E+03	7.834205E-18	5.507127E-18
2.080000E+03	7.878383E-18	5.533498E-18
2.120000E+03	7.926986E-18	5.562469E-18
2.160000E+03	7.980430E-18	5.594279E-18
2.200000E+03	8.039172E-18	5.629191E-18
2.240000E+03	8.105046E-18	5.668427E-18
2.280000E+03	8.177288E-18	5.711379E-18
2.320000E+03	8.257851E-18	5.759333E-18
2.360000E+03	8.346080E-18	5.811743E-18
2.400000E+03	8.444070E-18	5.869971E-18
2.440000E+03	8.551297E-18	5.933542E-18
2.480000E+03	8.668651E-18	6.002953E-18
2.520000E+03	8.798496E-18	6.079706E-18
2.560000E+03	8.941939E-18	6.164406E-18
2.600000E+03	9.100196E-18	6.257713E-18
2.640000E+03	9.273166E-18	6.359359E-18
2.680000E+03	9.463707E-18	6.471081E-18
2.720000E+03	9.673414E-18	6.593711E-18
2.760000E+03	9.904038E-18	6.728150E-18
2.800000E+03	1.015597E-17	6.874331E-18
2.840000E+03	1.043432E-17	7.035338E-18
2.880000E+03	1.073830E-17	7.210204E-18
2.920000E+03	1.107355E-17	7.402224E-18
2.960000E+03	1.143960E-17	7.610512E-18
3.000000E+03	1.184273E-17	7.838594E-18
3.010000E+03	1.194932E-17	7.898632E-18
3.020000E+03	1.205816E-17	7.959808E-18
3.030000E+03	1.216932E-17	8.022142E-18
3.040000E+03	1.228283E-17	8.085655E-18
3.050000E+03	1.240051E-17	8.151525E-18
3.060000E+03	1.252069E-17	8.218631E-18
3.070000E+03	1.264163E-17	8.285822E-18
3.080000E+03	1.276694E-17	8.355456E-18
3.090000E+03	1.289491E-17	8.426390E-18
3.100000E+03	1.302561E-17	8.498647E-18
3.110000E+03	1.315908E-17	8.572249E-18
3.120000E+03	1.329726E-17	8.648425E-18
3.130000E+03	1.343650E-17	8.724791E-18
3.140000E+03	1.358060E-17	8.803791E-18
3.150000E+03	1.372777E-17	8.884242E-18
3.160000E+03	1.387807E-17	8.966166E-18
3.170000E+03	1.403158E-17	9.049585E-18
3.180000E+03	1.418836E-17	9.134522E-18
3.190000E+03	1.434849E-17	9.221000E-18
3.200000E+03	1.451403E-17	9.310315E-18
3.210000E+03	1.468110E-17	9.399950E-18
3.220000E+03	1.485376E-17	9.492485E-18
3.230000E+03	1.503012E-17	9.586666E-18
3.240000E+03	1.520818E-17	9.681205E-18
3.250000E+03	1.539422E-17	9.780058E-18
3.260000E+03	1.558214E-17	9.879311E-18
3.270000E+03	1.577408E-17	9.980295E-18
3.280000E+03	1.597227E-17	1.008438E-17
3.290000E+03	1.617254E-17	1.018890E-17
3.300000E+03	1.637929E-17	1.029658E-17
3.310000E+03	1.659047E-17	1.040609E-17
3.320000E+03	1.680618E-17	1.051744E-17
3.330000E+03	1.702651E-17	1.063066E-17
3.340000E+03	1.725157E-17	1.074575E-17
3.350000E+03	1.748145E-17	1.086274E-17
3.360000E+03	1.771859E-17	1.098307E-17
3.370000E+03	1.795846E-17	1.110389E-17
3.380000E+03	1.820586E-17	1.122810E-17
3.390000E+03	1.845856E-17	1.135428E-17
3.400000E+03	1.871669E-17	1.148241E-17
3.410000E+03	1.898035E-17	1.161252E-17
3.420000E+03	1.924967E-17	1.174461E-17
3.430000E+03	1.952477E-17	1.187867E-17
3.440000E+03	1.980831E-17	1.201624E-17
3.450000E+03	2.009536E-17	1.215426E-17
3.460000E+03	2.039116E-17	1.229581E-17
3.470000E+03	2.069331E-17	1.243935E-17
3.480000E+03	2.100193E-17	1.258485E-17
3.490000E+03	2.131717E-17	1.273230E-17
3.500000E+03	2.163915E-17	1.288169E-17
3.510000E+03	2.196803E-17	1.303298E-17
3.520000E+03	2.230674E-17	1.318782E-17
3.530000E+03	2.264986E-17	1.334286E-17
3.540000E+03	2.300318E-17	1.350140E-17
3.550000E+03	2.336114E-17	1.366004E-17
3.560000E+03	2.372967E-17	1.382212E-17
3.570000E+03	2.410606E-17	1.398590E-17
3.580000E+03	2.449046E-17	1.415132E-17
3.590000E+03	2.488304E-17	1.431833E-17
3.600000E+03	2.528396E-17	1.448684E-17
3.610000E+03	2.569652E-17	1.465857E-17
3.620000E+03	2.611465E-17	1.482987E-17
3.630000E+03	2.654161E-17	1.500241E-17
3.640000E+03	2.698086E-17	1.517794E-17
3.650000E+03	2.742937E-17	1.535454E-17
3.660000E+03	2.788732E-17	1.553208E-17
3.670000E+03	2.835148E-17	1.570854E-17
3.680000E+03	2.882880E-17	1.588756E-17
3.690000E+03	2.931609E-17	1.606709E-17
3.700000E+03	2.981709E-17	1.624891E-17
3.710000E+03	3.032492E-17	1.642899E-17
3.720000E+03	3.084325E-17	1.660906E-17
3.730000E+03	3.137598E-17	1.679091E-17
3.740000E+03	3.191593E-17	1.697035E-17
3.750000E+03	3.247073E-17	1.715115E-17
3.760000E+03	3.303299E-17	1.732903E-17
3.770000E+03	3.361058E-17	1.750779E-17
3.780000E+03	3.419984E-17	1.768512E-17
3.790000E+03	3.479690E-17	1.785864E-17
3.800000E+03	3.540996E-17	1.803218E-17
3.810000E+03	3.603519E-17	1.820333E-17
3.820000E+03	3.667274E-17	1.837172E-17
3.830000E+03	3.732276E-17	1.853699E-17
3.840000E+03	3.798974E-17	1.870086E-17
3.850000E+03	3.866518E-17	1.885863E-17
3.860000E+03	3.935347E-17	1.901198E-17
3.870000E+03	4.005472E-17	1.916042E-17
3.880000E+03	4.077364E-17	1.930564E-17
3.890000E+03	4.150116E-17	1.944273E-17
3.900000E+03	4.224661E-17	1.957552E-17
3.910000E+03	4.300062E-17	1.969900E-17
3.920000E+03	4.377278E-17	1.981696E-17
3.930000E+03	4.455335E-17	1.992432E-17
3.940000E+03	4.535219E-17	2.002483E-17
3.950000E+03	4.615921E-17	2.011330E-17
3.960000E+03	4.698448E-17	2.019344E-17
3.970000E+03	4.782283E-17	2.026222E-17
3.980000E+03	4.867409E-17	2.031880E-17
3.990000E+03	4.953262E-17	2.036009E-17
4.000000E+03	5.040896E-17	2.038965E-17
4.010000E+03	5.129743E-17	2.040431E-17
4.020000E+03	5.219769E-17	2.040307E-17
4.030000E+03	5.310355E-17	2.038272E-17
4.040000E+03	5.402597E-17	2.034665E-17
4.050000E+03	5.495872E-17	2.029155E-17
4.060000E+03	5.590119E-17	2.021631E-17
4.070000E+03	5.685269E-17	2.011980E-17
4.080000E+03	5.781245E-17	2.000084E-17
4.090000E+03	5.877334E-17	1.985612E-17
4.100000E+03	5.974690E-17	1.968871E-17
4.110000E+03	6.072591E-17	1.949524E-17
4.120000E+03	6.170928E-17	1.927448E-17
4.130000E+03	6.268918E-17	1.902320E-17
4.140000E+03	6.367750E-17	1.874422E-17
4.150000E+03	6.466635E-17	1.843429E-17
4.160000E+03	6.565428E-17	1.809222E-17
4.170000E+03	6.663282E-17	1.771503E-17
4.180000E+03	6.761424E-17	1.730534E-17
4.190000E+03	6.859005E-17	1.686022E-17
4.200000E+03	6.955139E-17	1.637699E-17
4.210000E+03	7.051093E-17	1.585821E-17
4.220000E+03	7.145252E-17	1.529977E-17
4.230000E+03	7.238920E-17	1.470423E-17
4.240000E+03	7.330463E-17	1.406798E-17
4.250000E+03	7.420474E-17	1.339225E-17
4.260000E+03	7.509592E-17	1.267820E-17
4.270000E+03	7.596184E-17	1.192325E-17
4.280000E+03	7.680925E-17	1.112918E-17
4.290000E+03	7.763762E-17	1.029676E-17
4.300000E+03	7.844677E-17	9.427322E-18
4.310000E+03	7.923688E-17	8.522982E-18
4.320000E+03	8.000858E-17	7.587112E-18
4.330000E+03	8.076293E-17	6.625248E-18
4.340000E+03	8.149325E-17	5.646434E-18
4.350000E+03	8.221762E-17	4.669891E-18
4.360000E+03	8.292998E-17	3.731959E-18
4.370000E+03	8.362410E-17	2.915354E-18
4.380000E+03	8.431821E-17	2.401626E-18
4.390000E+03	8.499659E-17	2.434503E-18
4.400000E+03	8.566737E-17	3.017344E-18
4.410000E+03	8.632921E-17	3.918184E-18
4.420000E+03	8.697994E-17	4.966388E-18
4.430000E+03	8.761686E-17	6.082708E-18
4.440000E+03	8.823716E-17	7.230767E-18
4.450000E+03	8.883807E-17	8.392012E-18
4.460000E+03	8.940842E-17	9.554861E-18
4.470000E+03	8.996338E-17	1.071425E-17
4.480000E+03	9.048380E-17	1.186344E-17
4.490000E+03	9.097702E-17	1.299978E-17
4.500000E+03	9.145091E-17	1.412180E-17
4.510000E+03	9.188735E-17	1.522455E-17
4.520000E+03	9.228608E-17	1.630577E-17
4.530000E+03	9.266494E-17	1.736684E-17
4.540000E+03	9.301554E-17	1.840491E-17
4.550000E+03	9.332969E-17	1.941693E-17
4.560000E+03	9.362606E-17	2.040554E-17
4.570000E+03	9.388798E-17	2.136614E-17
4.580000E+03	9.412558E-17	2.229994E-17
4.590000E+03	9.434025E-17	2.320646E-17
4.600000E+03	9.453344E-17	2.408533E-17
4.610000E+03	9.469778E-17	2.493398E-17
4.620000E+03	9.485266E-17	2.575693E-17
4.630000E+03	9.498188E-17	2.654939E-17
4.640000E+03	9.509596E-17	2.731379E-17
4.650000E+03	9.519651E-17	2.805031E-17
4.660000E+03	9.528514E-17	2.875918E-17
4.670000E+03	9.536341E-17	2.944070E-17
4.680000E+03	9.543285E-17	3.009522E-17
4.690000E+03	9.548613E-17	3.072030E-17
4.700000E+03	9.553356E-17	3.131911E-17
4.710000E+03	9.558535E-17	3.189507E-17
4.720000E+03	9.561642E-17	3.243983E-17
4.730000E+03	9.565451E-17	3.296274E-17
4.740000E+03	9.569204E-17	3.346137E-17
4.750000E+03	9.572144E-17	3.393313E-17
4.760000E+03	9.576138E-17	3.438474E-17
4.770000E+03	9.579543E-17	3.481046E-17
4.780000E+03	9.583337E-17	3.521392E-17
4.790000E+03	9.586745E-17	3.559239E-17
4.800000E+03	9.591606E-17	3.595282E-17
4.810000E+03	9.596263E-17	3.628919E-17
4.820000E+03	9.601670E-17	3.660518E-17
4.830000E+03	9.607906E-17	3.690126E-17
4.840000E+03	9.615044E-17	3.717782E-17
4.850000E+03	9.623153E-17	3.743527E-17
4.860000E+03	9.631432E-17	3.767059E-17
4.870000E+03	9.641675E-17	3.789086E-17
4.880000E+03	9.652209E-17	3.808963E-17
4.890000E+03	9.663953E-17	3.827054E-17
4.900000E+03	9.676094E-17	3.843043E-17
4.910000E+03	9.690408E-17	3.857638E-17
4.920000E+03	9.705211E-17	3.870170E-17
4.930000E+03	9.722273E-17	3.881344E-17
4.940000E+03	9.739902E-17	3.890483E-17
4.950000E+03	9.758134E-17	3.897595E-17
4.960000E+03	9.778733E-17	3.903378E-17
4.970000E+03	9.799996E-17	3.907144E-17
4.980000E+03	9.823685E-17	3.909583E-17
4.990000E+03	9.848090E-17	3.910002E-17
5.000000E+03	9.873230E-17	3.908395E-17
5.010000E+03	9.900865E-17	3.905442E-17
5.020000E+03	9.929270E-17	3.900443E-17
5.030000E+03	9.960205E-17	3.894067E-17
5.040000E+03	9.991934E-17	3.885612E-17
5.050000E+03	1.002534E-16	3.875398E-17
5.060000E+03	1.005955E-16	3.863064E-17
5.070000E+03	1.009633E-16	3.849260E-17
5.080000E+03	1.013391E-16	3.833282E-17
5.090000E+03	1.017318E-16	3.815437E-17
5.100000E+03	1.021412E-16	3.795691E-17
5.110000E+03	1.025673E-16	3.774009E-17
5.120000E+03	1.030010E-16	3.750028E-17
5.130000E+03	1.034600E-16	3.724364E-17
5.140000E+03	1.039263E-16	3.696329E-17
5.150000E+03	1.044084E-16	3.666211E-17
5.160000E+03	1.048970E-16	3.633657E-17
5.170000E+03	1.054100E-16	3.599261E-17
5.180000E+03	1.059286E-16	3.562362E-17
5.190000E+03	1.064616E-16	3.523243E-17
5.200000E+03	1.070084E-16	3.481875E-17
5.210000E+03	1.075684E-16	3.438233E-17
5.220000E+03	1.081411E-16	3.392300E-17
5.230000E+03	1.087162E-16	3.343779E-17
5.240000E+03	1.093025E-16	3.292966E-17
5.250000E+03	1.098989E-16	3.239874E-17
5.260000E+03	1.105045E-16	3.184529E-17
5.270000E+03	1.111183E-16	3.126976E-17
5.280000E+03	1.117296E-16	3.067018E-17
5.290000E+03	1.123467E-16	3.005016E-17
5.300000E+03	1.129682E-16	2.941090E-17
5.310000E+03	1.135928E-16	2.875393E-17
5.320000E+03	1.142190E-16	2.808118E-17
5.330000E+03	1.148353E-16	2.739269E-17
5.340000E+03	1.154597E-16	2.669613E-17
5.350000E+03	1.160706E-16	2.599042E-17
5.360000E+03	1.166761E-16	2.528215E-17
5.370000E+03	1.172741E-16	2.457633E-17
5.380000E+03	1.178526E-16	2.387686E-17
5.390000E+03	1.184295E-16	2.319472E-17
5.400000E+03	1.189825E-16	2.253377E-17
5.410000E+03	1.195194E-16	2.190495E-17
5.420000E+03	1.200380E-16	2.131812E-17
5.430000E+03	1.205260E-16	2.078227E-17
5.440000E+03	1.210014E-16	2.031226E-17
5.450000E+03	1.214418E-16	1.991611E-17
5.460000E+03	1.218657E-16	1.960834E-17
5.470000E+03	1.222508E-16	1.939564E-17
5.480000E+03	1.225956E-16	1.928617E-17
5.490000E+03	1.229198E-16	1.928863E-17
5.500000E+03	1.232128E-16	1.940351E-17
5.510000E+03	1.234642E-16	1.962776E-17
5.520000E+03	1.236853E-16	1.995830E-17
5.530000E+03	1.238772E-16	2.038777E-17
5.540000E+03	1.240416E-16	2.090693E-17
5.550000E+03	1.241802E-16	2.150540E-17
5.560000E+03	1.242844E-16	2.217050E-17
5.570000E+03	1.243774E-16	2.289519E-17
5.580000E+03	1.244402E-16	2.366544E-17
5.590000E+03	1.244855E-16	2.447363E-17
5.600000E+03	1.245155E-16	2.531111E-17
5.610000E+03	1.245323E-16	2.617019E-17
5.620000E+03	1.245277E-16	2.704182E-17
5.630000E+03	1.245247E-16	2.792454E-17
5.640000E+03	1.245044E-16	2.880864E-17
5.650000E+03	1.244792E-16	2.969200E-17
5.660000E+03	1.244512E-16	3.057091E-17
5.670000E+03	1.244222E-16	3.144221E-17
5.680000E+03	1.243835E-16	3.230056E-17
5.690000E+03	1.243577E-16	3.314911E-17
5.700000E+03	1.243254E-16	3.398053E-17
5.710000E+03	1.243093E-16	3.479896E-17
5.720000E+03	1.242897E-16	3.559743E-17
5.730000E+03	1.242785E-16	3.637780E-17
5.740000E+03	1.242770E-16	3.713929E-17
5.750000E+03	1.242760E-16	3.787814E-17
5.760000E+03	1.242975E-16	3.860017E-17
5.770000E+03	1.243215E-16	3.929862E-17
5.780000E+03	1.243701E-16	3.997978E-17
5.790000E+03	1.244232E-16	4.063685E-17
5.800000E+03	1.244921E-16	4.127301E-17
5.810000E+03	1.245777E-16	4.188820E-17
5.820000E+03	1.246805E-16	4.248243E-17
5.830000E+03	1.247909E-16	4.305208E-17
5.840000E+03	1.249303E-16	4.360435E-17
5.850000E+03	1.250785E-16	4.413201E-17
5.860000E+03	1.252568E-16	4.464244E-17
5.870000E+03	1.254448E-16	4.512825E-17
5.880000E+03	1.256534E-16	4.559315E-17
5.890000E+03	1.258829E-16	4.603714E-17
5.900000E+03	1.261338E-16	4.646022E-17
5.910000E+03	1.264063E-16	4.686234E-17
5.920000E+03	1.266902E-16	4.723948E-17
5.930000E+03	1.270068E-16	4.759943E-17
5.940000E+03	1.273352E-16	4.793413E-17
5.950000E+03	1.276860E-16	4.824738E-17
5.960000E+03	1.280704E-16	4.854305E-17
5.970000E+03	1.284668E-16	4.881281E-17
5.980000E+03	1.288862E-16	4.906043E-17
5.990000E+03	1.293178E-16	4.928148E-17
6.000000E+03	1.297833E-16	4.948384E-17
6.010000E+03	1.302718E-16	4.966301E-17
6.020000E+03	1.307725E-16	4.981439E-17
6.030000E+03	1.313071E-16	4.994583E-17
6.040000E+03	1.318537E-16	5.004846E-17
6.050000E+03	1.324343E-16	5.013008E-17
6.060000E+03	1.330264E-16	5.018170E-17
6.070000E+03	1.336411E-16	5.020685E-17
6.080000E+03	1.342782E-16	5.020482E-17
6.090000E+03	1.349374E-16	5.017489E-17
6.100000E+03	1.356184E-16	5.011625E-17
6.110000E+03	1.363095E-16	5.002388E-17
6.120000E+03	1.370332E-16	4.990531E-17
6.130000E+03	1.377776E-16	4.975540E-17
6.140000E+03	1.385307E-16	4.956905E-17
6.150000E+03	1.393152E-16	4.935358E-17
6.160000E+03	1.401070E-16	4.909968E-17
6.170000E+03	1.409173E-16	4.881043E-17
6.180000E+03	1.417452E-16	4.848477E-17
6.190000E+03	1.425899E-16	4.812158E-17
6.200000E+03	1.434627E-16	4.772375E-17
6.210000E+03	1.443263E-16	4.727811E-17
6.220000E+03	1.452158E-16	4.679557E-17
6.230000E+03	1.461179E-16	4.627098E-17
6.240000E+03	1.470315E-16	4.570326E-17
6.250000E+03	1.479549E-16	4.509133E-17
6.260000E+03	1.488742E-16	4.443043E-17
6.270000E+03	1.498127E-16	4.372719E-17
6.280000E+03	1.507432E-16	4.297333E-17
6.290000E+03	1.516892E-16	4.217546E-17
6.300000E+03	1.526230E-16	4.132585E-17
6.310000E+03	1.535550E-16	4.042781E-17
6.320000E+03	1.544826E-16	3.948125E-17
6.330000E+03	1.554165E-16	3.848963E-17
6.340000E+03	1.563274E-16	3.744700E-17
6.350000E+03	1.572255E-16	3.635776E-17
6.360000E+03	1.581075E-16	3.522355E-17
6.370000E+03	1.589701E-16	3.404670E-17
6.380000E+03	1.597961E-16	3.282763E-17
6.390000E+03	1.606087E-16	3.157621E-17
6.400000E+03	1.613908E-16	3.029504E-17
6.410000E+03	1.621383E-16	2.899115E-17
6.420000E+03	1.628333E-16	2.767111E-17
6.430000E+03	1.634993E-16	2.635094E-17
6.440000E+03	1.641044E-16	2.504009E-17
6.450000E+03	1.646724E-16	2.376025E-17
6.460000E+03	1.651713E-16	2.252854E-17
6.470000E+03	1.656253E-16	2.137443E-17
6.480000E+03	1.660027E-16	2.032423E-17
6.490000E+03	1.663142E-16	1.941373E-17
6.500000E+03	1.665712E-16	1.868056E-17
6.510000E+03	1.667429E-16	1.815650E-17
6.520000E+03	1.668417E-16	1.787240E-17
6.530000E+03	1.668667E-16	1.784643E-17
6.540000E+03	1.668177E-16	1.808181E-17
6.550000E+03	1.666953E-16	1.856619E-17
6.560000E+03	1.665010E-16	1.927457E-17
6.570000E+03	1.662369E-16	2.017431E-17
6.580000E+03	1.659057E-16	2.123015E-17
6.590000E+03	1.655104E-16	2.240792E-17
6.600000E+03	1.650544E-16	2.367676E-17
6.610000E+03	1.645415E-16	2.501004E-17
6.620000E+03	1.639616E-16	2.638317E-17
6.630000E+03	1.633466E-16	2.778213E-17
6.640000E+03	1.626867E-16	2.918987E-17
6.650000E+03	1.619719E-16	3.059176E-17
6.660000E+03	1.612342E-16	3.198330E-17
6.670000E+03	1.604635E-16	3.335439E-17
6.680000E+03	1.596500E-16	3.469607E-17
6.690000E+03	1.588249E-16	3.600953E-17
6.700000E+03	1.579644E-16	3.728517E-17
6.710000E+03	1.570857E-16	3.852332E-17
6.720000E+03	1.562053E-16	3.972548E-17
6.730000E+03	1.552995E-16	4.088366E-17
6.740000E+03	1.543847E-16	4.200035E-17
6.750000E+03	1.534766E-16	4.307888E-17
6.760000E+03	1.525515E-16	4.411189E-17
6.770000E+03	1.516249E-16	4.510323E-17
6.780000E+03	1.506990E-16	4.605335E-17
6.790000E+03	1.497888E-16	4.696695E-17
6.800000E+03	1.488703E-16	4.783680E-17
6.810000E+03	1.479582E-16	4.866778E-17
6.820000E+03	1.470541E-16	4.946089E-17
6.830000E+03	1.461594E-16	5.021720E-17
6.840000E+03	1.452757E-16	5.093783E-17
6.850000E+03	1.444039E-16	5.162395E-17
6.860000E+03	1.435454E-16	5.227675E-17
6.870000E+03	1.427011E-16	5.289741E-17
6.880000E+03	1.418597E-16	5.348251E-17
6.890000E+03	1.410466E-16	5.404246E-17
6.900000E+03	1.402503E-16	5.457387E-17
6.910000E+03	1.394715E-16	5.507791E-17
6.920000E+03	1.387108E-16	5.555572E-17
6.930000E+03	1.379567E-16	5.600359E-17
6.940000E+03	1.372338E-16	5.643228E-17
6.950000E+03	1.365186E-16	5.683312E-17
6.960000E+03	1.358353E-16	5.721697E-17
6.970000E+03	1.351723E-16	5.757995E-17
6.980000E+03	1.345183E-16	5.791799E-17
6.990000E+03	1.338968E-16	5.824206E-17
7.000000E+03	1.332849E-16	5.854297E-17
7.010000E+03	1.326944E-16	5.882662E-17
7.020000E+03	1.321370E-16	5.909900E-17
7.030000E+03	1.315898E-16	5.935062E-17
7.040000E+03	1.310644E-16	5.958738E-17
7.050000E+03	1.305724E-16	5.981521E-17
7.060000E+03	1.300910E-16	6.002438E-17
7.070000E+03	1.296316E-16	6.022075E-17
7.080000E+03	1.291944E-16	6.040493E-17
7.090000E+03	1.287794E-16	6.057752E-17
7.100000E+03	1.283978E-16	6.074438E-17
7.110000E+03	1.280272E-16	6.089541E-17
7.120000E+03	1.276789E-16	6.103641E-17
7.130000E+03	1.273529E-16	6.116782E-17
7.140000E+03	1.270379E-16	6.128470E-17
7.150000E+03	1.267565E-16	6.139819E-17
7.160000E+03	1.264973E-16	6.150328E-17
7.170000E+03	1.262604E-16	6.160032E-17
7.180000E+03	1.260458E-16	6.168962E-17
7.190000E+03	1.258424E-16	6.176600E-17
7.200000E+03	1.256724E-16	6.184060E-17
7.210000E+03	1.255247E-16	6.190821E-17
7.220000E+03	1.253882E-16	6.196357E-17
7.230000E+03	1.252851E-16	6.201776E-17
7.240000E+03	1.251934E-16	6.205999E-17
7.250000E+03	1.251350E-16	6.210135E-17
7.260000E+03	1.250880E-16	6.213094E-17
7.270000E+03	1.250633E-16	6.215432E-17
7.280000E+03	1.250722E-16	6.217703E-17
7.290000E+03	1.250925E-16	6.218808E-17
7.300000E+03	1.251352E-16	6.219295E-17
7.310000E+03	1.252005E-16	6.219160E-17
7.320000E+03	1.252884E-16	6.218397E-17
7.330000E+03	1.253989E-16	6.216996E-17
7.340000E+03	1.255321E-16	6.214943E-17
7.350000E+03	1.256880E-16	6.212224E-17
7.360000E+03	1.258666E-16	6.208819E-17
7.370000E+03	1.260680E-16	6.204708E-17
7.380000E+03	1.262922E-16	6.199865E-17
7.390000E+03	1.265280E-16	6.193709E-17
7.400000E+03	1.267979E-16	6.187316E-17
7.410000E+03	1.270907E-16	6.180097E-17
7.420000E+03	1.273951E-16	6.171461E-17
7.430000E+03	1.277337E-16	6.162473E-17
7.440000E+03	1.280838E-16	6.151981E-17
7.450000E+03	1.284566E-16	6.140490E-17
7.460000E+03	1.288638E-16	6.128495E-17
7.470000E+03	1.292821E-16	6.114839E-17
7.480000E+03	1.297230E-16	6.100010E-17
7.490000E+03	1.301863E-16	6.083944E-17
7.500000E+03	1.306720E-16	6.066569E-17
7.510000E+03	1.311797E-16	6.047811E-17
7.520000E+03	1.317094E-16	6.027590E-17
7.530000E+03	1.322607E-16	6.005821E-17
7.540000E+03	1.328334E-16	5.982417E-17
7.550000E+03	1.334149E-16	5.956744E-17
7.560000E+03	1.340291E-16	5.929783E-17
7.570000E+03	1.346511E-16	5.900355E-17
7.580000E+03	1.353049E-16	5.869421E-17
7.590000E+03	1.359653E-16	5.835803E-17
7.600000E+03	1.366563E-16	5.800443E-17
7.610000E+03	1.373524E-16	5.762161E-17
7.620000E+03	1.380651E-16	5.721359E-17
7.630000E+03	1.387934E-16	5.677905E-17
7.640000E+03	1.395363E-16	5.631661E-17
7.650000E+03	1.402927E-16	5.582487E-17
7.660000E+03	1.410613E-16	5.530237E-17
7.670000E+03	1.418407E-16	5.474765E-17
7.680000E+03	1.426294E-16	5.415917E-17
7.690000E+03	1.434258E-16	5.353542E-17
7.700000E+03	1.442149E-16	5.286999E-17
7.710000E+03	1.450210E-16	5.217107E-17
7.720000E+03	1.458155E-16	5.142749E-17
7.730000E+03	1.466229E-16	5.064721E-17
7.740000E+03	1.474138E-16	4.981934E-17
7.750000E+03	1.481989E-16	4.894713E-17
7.760000E+03	1.489754E-16	4.802917E-17
