#wls	flux	fluxerr
1.600000E+03	4.729761E-18	3.346847E-18
1.640000E+03	4.739099E-18	3.353052E-18
1.680000E+03	4.750097E-18	3.360385E-18
1.720000E+03	4.762010E-18	3.368313E-18
1.760000E+03	4.774938E-18	3.376903E-18
1.800000E+03	4.788993E-18	3.386226E-18
1.840000E+03	4.805144E-18	3.396962E-18
1.880000E+03	4.822681E-18	3.408599E-18
1.920000E+03	4.841748E-18	3.421233E-18
1.960000E+03	4.862504E-18	3.434965E-18
2.000000E+03	4.885979E-18	3.450513E-18
2.040000E+03	4.911511E-18	3.467396E-18
2.080000E+03	4.939303E-18	3.485748E-18
2.120000E+03	4.969581E-18	3.505710E-18
2.160000E+03	5.003460E-18	3.528054E-18
2.200000E+03	5.040343E-18	3.552339E-18
2.240000E+03	5.080519E-18	3.578749E-18
2.280000E+03	5.125193E-18	3.608110E-18
2.320000E+03	5.173833E-18	3.640017E-18
2.360000E+03	5.226816E-18	3.674707E-18
2.400000E+03	5.284550E-18	3.712432E-18
2.440000E+03	5.348407E-18	3.754115E-18
2.480000E+03	5.417972E-18	3.799418E-18
2.520000E+03	5.494727E-18	3.849328E-18
2.560000E+03	5.577383E-18	3.902879E-18
2.600000E+03	5.668487E-18	3.961784E-18
2.640000E+03	5.767804E-18	4.025796E-18
2.680000E+03	5.877116E-18	4.096061E-18
2.720000E+03	5.996313E-18	4.172389E-18
2.760000E+03	6.126345E-18	4.255311E-18
2.800000E+03	6.269321E-18	4.346135E-18
2.840000E+03	6.424300E-18	4.444026E-18
2.880000E+03	6.594712E-18	4.551144E-18
2.920000E+03	6.782063E-18	4.668267E-18
2.960000E+03	6.985689E-18	4.794633E-18
3.000000E+03	7.209666E-18	4.932681E-18
3.010000E+03	7.269192E-18	4.969209E-18
3.020000E+03	7.330078E-18	5.006493E-18
3.030000E+03	7.392359E-18	5.044548E-18
3.040000E+03	7.454825E-18	5.082543E-18
3.050000E+03	7.519990E-18	5.122180E-18
3.060000E+03	7.586656E-18	5.162637E-18
3.070000E+03	7.654861E-18	5.203927E-18
3.080000E+03	7.724645E-18	5.246069E-18
3.090000E+03	7.796047E-18	5.289078E-18
3.100000E+03	7.869109E-18	5.332972E-18
3.110000E+03	7.943872E-18	5.377768E-18
3.120000E+03	8.019050E-18	5.422584E-18
3.130000E+03	8.097337E-18	5.469230E-18
3.140000E+03	8.177458E-18	5.516830E-18
3.150000E+03	8.259463E-18	5.565403E-18
3.160000E+03	8.343398E-18	5.614968E-18
3.170000E+03	8.429315E-18	5.665542E-18
3.180000E+03	8.517264E-18	5.717145E-18
3.190000E+03	8.607298E-18	5.769795E-18
3.200000E+03	8.700907E-18	5.824472E-18
3.210000E+03	8.795290E-18	5.879282E-18
3.220000E+03	8.891926E-18	5.935197E-18
3.230000E+03	8.990873E-18	5.992235E-18
3.240000E+03	9.092193E-18	6.050417E-18
3.250000E+03	9.195948E-18	6.109762E-18
3.260000E+03	9.302201E-18	6.170289E-18
3.270000E+03	9.411019E-18	6.232018E-18
3.280000E+03	9.524031E-18	6.296001E-18
3.290000E+03	9.638200E-18	6.360201E-18
3.300000E+03	9.755143E-18	6.425660E-18
3.310000E+03	9.874933E-18	6.492399E-18
3.320000E+03	9.997645E-18	6.560435E-18
3.330000E+03	1.012501E-17	6.630871E-18
3.340000E+03	1.025382E-17	6.701568E-18
3.350000E+03	1.038580E-17	6.773617E-18
3.360000E+03	1.052102E-17	6.847036E-18
3.370000E+03	1.066131E-17	6.922971E-18
3.380000E+03	1.080330E-17	6.999192E-18
3.390000E+03	1.094881E-17	7.076832E-18
3.400000E+03	1.109972E-17	7.157071E-18
3.410000E+03	1.125256E-17	7.237605E-18
3.420000E+03	1.140920E-17	7.319602E-18
3.430000E+03	1.157161E-17	7.404275E-18
3.440000E+03	1.173618E-17	7.489243E-18
3.450000E+03	1.190485E-17	7.575707E-18
3.460000E+03	1.207971E-17	7.664917E-18
3.470000E+03	1.225696E-17	7.754409E-18
3.480000E+03	1.243866E-17	7.845417E-18
3.490000E+03	1.262695E-17	7.939228E-18
3.500000E+03	1.281792E-17	8.033292E-18
3.510000E+03	1.301579E-17	8.130189E-18
3.520000E+03	1.321652E-17	8.227305E-18
3.530000E+03	1.342446E-17	8.327277E-18
3.540000E+03	1.363546E-17	8.427426E-18
3.550000E+03	1.385177E-17	8.529068E-18
3.560000E+03	1.407580E-17	8.633577E-18
3.570000E+03	1.430320E-17	8.738174E-18
3.580000E+03	1.453866E-17	8.845632E-18
3.590000E+03	1.477769E-17	8.953098E-18
3.600000E+03	1.502516E-17	9.063401E-18
3.610000E+03	1.527642E-17	9.173616E-18
3.620000E+03	1.553649E-17	9.286629E-18
3.630000E+03	1.580059E-17	9.399434E-18
3.640000E+03	1.607388E-17	9.514976E-18
3.650000E+03	1.635142E-17	9.630170E-18
3.660000E+03	1.663857E-17	9.748015E-18
3.670000E+03	1.693019E-17	9.865345E-18
3.680000E+03	1.723183E-17	9.985213E-18
3.690000E+03	1.753819E-17	1.010437E-17
3.700000E+03	1.785498E-17	1.022592E-17
3.710000E+03	1.817672E-17	1.034652E-17
3.720000E+03	1.850931E-17	1.046934E-17
3.730000E+03	1.884709E-17	1.059095E-17
3.740000E+03	1.919615E-17	1.071456E-17
3.750000E+03	1.955372E-17	1.083836E-17
3.760000E+03	1.991680E-17	1.096045E-17
3.770000E+03	2.029181E-17	1.108414E-17
3.780000E+03	2.067254E-17	1.120574E-17
3.790000E+03	2.106563E-17	1.132859E-17
3.800000E+03	2.146462E-17	1.144892E-17
3.810000E+03	2.187639E-17	1.157011E-17
3.820000E+03	2.229423E-17	1.168827E-17
3.830000E+03	2.272524E-17	1.180683E-17
3.840000E+03	2.316246E-17	1.192181E-17
3.850000E+03	2.361323E-17	1.203665E-17
3.860000E+03	2.407411E-17	1.214919E-17
3.870000E+03	2.454131E-17	1.225717E-17
3.880000E+03	2.502260E-17	1.236408E-17
3.890000E+03	2.551025E-17	1.246568E-17
3.900000E+03	2.601229E-17	1.256549E-17
3.910000E+03	2.652067E-17	1.265916E-17
3.920000E+03	2.704367E-17	1.275022E-17
3.930000E+03	2.757293E-17	1.283422E-17
3.940000E+03	2.811700E-17	1.291470E-17
3.950000E+03	2.866715E-17	1.298712E-17
3.960000E+03	2.923224E-17	1.305500E-17
3.970000E+03	2.980314E-17	1.311373E-17
3.980000E+03	3.038902E-17	1.316680E-17
3.990000E+03	3.098036E-17	1.320953E-17
4.000000E+03	3.158660E-17	1.324540E-17
4.010000E+03	3.219783E-17	1.326963E-17
4.020000E+03	3.282379E-17	1.328568E-17
4.030000E+03	3.345414E-17	1.328872E-17
4.040000E+03	3.409893E-17	1.328216E-17
4.050000E+03	3.474736E-17	1.326114E-17
4.060000E+03	3.540979E-17	1.322901E-17
4.070000E+03	3.607496E-17	1.318089E-17
4.080000E+03	3.675356E-17	1.312006E-17
4.090000E+03	3.743383E-17	1.304163E-17
4.100000E+03	3.812088E-17	1.294684E-17
4.110000E+03	3.882016E-17	1.283682E-17
4.120000E+03	3.951919E-17	1.270675E-17
4.130000E+03	4.022946E-17	1.255971E-17
4.140000E+03	4.093794E-17	1.239097E-17
4.150000E+03	4.165005E-17	1.220163E-17
4.160000E+03	4.237153E-17	1.199271E-17
4.170000E+03	4.308861E-17	1.175965E-17
4.180000E+03	4.381361E-17	1.150531E-17
4.190000E+03	4.453224E-17	1.122532E-17
4.200000E+03	4.525022E-17	1.092076E-17
4.210000E+03	4.597362E-17	1.059255E-17
4.220000E+03	4.668744E-17	1.023674E-17
4.230000E+03	4.739760E-17	9.854428E-18
4.240000E+03	4.810307E-17	9.445123E-18
4.250000E+03	4.881027E-17	9.009808E-18
4.260000E+03	4.950330E-17	8.545380E-18
4.270000E+03	5.018850E-17	8.053181E-18
4.280000E+03	5.086484E-17	7.533320E-18
4.290000E+03	5.153922E-17	6.987262E-18
4.300000E+03	5.219504E-17	6.413599E-18
4.310000E+03	5.283919E-17	5.814927E-18
4.320000E+03	5.347087E-17	5.193691E-18
4.330000E+03	5.408933E-17	4.554047E-18
4.340000E+03	5.469391E-17	3.903311E-18
4.350000E+03	5.529247E-17	3.255620E-18
4.360000E+03	5.586775E-17	2.637269E-18
4.370000E+03	5.642763E-17	2.107233E-18
4.380000E+03	5.697169E-17	1.782429E-18
4.390000E+03	5.749950E-17	1.807320E-18
4.400000E+03	5.801057E-17	2.185492E-18
4.410000E+03	5.850440E-17	2.781804E-18
4.420000E+03	5.898046E-17	3.486448E-18
4.430000E+03	5.943825E-17	4.243765E-18
4.440000E+03	5.987732E-17	5.026814E-18
4.450000E+03	6.029730E-17	5.821473E-18
4.460000E+03	6.069794E-17	6.619558E-18
4.470000E+03	6.107908E-17	7.415861E-18
4.480000E+03	6.144070E-17	8.206794E-18
4.490000E+03	6.178286E-17	8.989720E-18
4.500000E+03	6.209638E-17	9.761130E-18
4.510000E+03	6.240025E-17	1.052222E-17
4.520000E+03	6.268552E-17	1.127030E-17
4.530000E+03	6.295266E-17	1.200424E-17
4.540000E+03	6.320220E-17	1.272310E-17
4.550000E+03	6.342521E-17	1.342405E-17
4.560000E+03	6.364141E-17	1.411036E-17
4.570000E+03	6.384199E-17	1.477955E-17
4.580000E+03	6.402771E-17	1.543114E-17
4.590000E+03	6.418971E-17	1.606234E-17
4.600000E+03	6.434806E-17	1.667758E-17
4.610000E+03	6.449397E-17	1.727431E-17
4.620000E+03	6.461859E-17	1.784967E-17
4.630000E+03	6.474214E-17	1.840885E-17
4.640000E+03	6.484610E-17	1.894634E-17
4.650000E+03	6.495072E-17	1.946776E-17
4.660000E+03	6.503744E-17	1.996739E-17
4.670000E+03	6.512655E-17	2.045121E-17
4.680000E+03	6.519943E-17	2.091331E-17
4.690000E+03	6.527638E-17	2.136001E-17
4.700000E+03	6.533872E-17	2.178518E-17
4.710000E+03	6.540675E-17	2.219545E-17
4.720000E+03	6.546174E-17	2.258450E-17
4.730000E+03	6.552397E-17	2.295921E-17
4.740000E+03	6.557465E-17	2.331307E-17
4.750000E+03	6.562426E-17	2.364969E-17
4.760000E+03	6.567351E-17	2.396935E-17
4.770000E+03	6.573284E-17	2.427591E-17
4.780000E+03	6.578335E-17	2.456249E-17
4.790000E+03	6.583544E-17	2.483290E-17
4.800000E+03	6.588972E-17	2.508742E-17
4.810000E+03	6.595656E-17	2.533006E-17
4.820000E+03	6.601694E-17	2.555359E-17
4.830000E+03	6.608117E-17	2.576197E-17
4.840000E+03	6.614977E-17	2.595543E-17
4.850000E+03	6.622320E-17	2.613419E-17
4.860000E+03	6.630195E-17	2.629844E-17
4.870000E+03	6.638643E-17	2.644836E-17
4.880000E+03	6.647706E-17	2.658412E-17
4.890000E+03	6.657422E-17	2.670586E-17
4.900000E+03	6.667828E-17	2.681370E-17
4.910000E+03	6.678958E-17	2.690775E-17
4.920000E+03	6.690843E-17	2.698809E-17
4.930000E+03	6.703512E-17	2.705477E-17
4.940000E+03	6.716993E-17	2.710782E-17
4.950000E+03	6.730316E-17	2.714325E-17
4.960000E+03	6.745489E-17	2.716905E-17
4.970000E+03	6.761541E-17	2.718117E-17
4.980000E+03	6.778488E-17	2.717955E-17
4.990000E+03	6.795345E-17	2.716008E-17
5.000000E+03	6.814125E-17	2.713067E-17
5.010000E+03	6.833841E-17	2.708714E-17
5.020000E+03	6.853491E-17	2.702536E-17
5.030000E+03	6.875096E-17	2.695308E-17
5.040000E+03	6.897655E-17	2.686609E-17
5.050000E+03	6.920151E-17	2.676020E-17
5.060000E+03	6.944614E-17	2.664302E-17
5.070000E+03	6.969005E-17	2.650641E-17
5.080000E+03	6.995359E-17	2.635783E-17
5.090000E+03	7.021620E-17	2.618918E-17
5.100000E+03	7.049832E-17	2.600781E-17
5.110000E+03	7.077918E-17	2.580564E-17
5.120000E+03	7.106893E-17	2.558613E-17
5.130000E+03	7.137783E-17	2.535255E-17
5.140000E+03	7.168480E-17	2.509698E-17
5.150000E+03	7.200002E-17	2.482271E-17
5.160000E+03	7.232322E-17	2.452926E-17
5.170000E+03	7.266475E-17	2.421969E-17
5.180000E+03	7.300306E-17	2.388635E-17
5.190000E+03	7.334841E-17	2.353234E-17
5.200000E+03	7.370042E-17	2.315715E-17
5.210000E+03	7.405870E-17	2.276027E-17
5.220000E+03	7.442283E-17	2.234120E-17
5.230000E+03	7.480328E-17	2.190265E-17
5.240000E+03	7.517779E-17	2.143768E-17
5.250000E+03	7.555672E-17	2.094910E-17
5.260000E+03	7.593957E-17	2.043649E-17
5.270000E+03	7.632579E-17	1.989948E-17
5.280000E+03	7.671482E-17	1.933773E-17
5.290000E+03	7.709483E-17	1.874823E-17
5.300000E+03	7.748765E-17	1.813637E-17
5.310000E+03	7.788149E-17	1.749924E-17
5.320000E+03	7.827571E-17	1.683687E-17
5.330000E+03	7.866968E-17	1.614945E-17
5.340000E+03	7.906275E-17	1.543739E-17
5.350000E+03	7.944273E-17	1.469919E-17
5.360000E+03	7.983205E-17	1.394024E-17
5.370000E+03	8.021857E-17	1.315970E-17
5.380000E+03	8.058995E-17	1.235781E-17
5.390000E+03	8.096900E-17	1.154112E-17
5.400000E+03	8.134348E-17	1.071169E-17
5.410000E+03	8.170098E-17	9.873687E-18
5.420000E+03	8.206473E-17	9.038093E-18
5.430000E+03	8.241049E-17	8.213654E-18
5.440000E+03	8.276180E-17	7.419619E-18
5.450000E+03	8.309434E-17	6.678135E-18
5.460000E+03	8.343199E-17	6.026291E-18
5.470000E+03	8.375037E-17	5.509673E-18
5.480000E+03	8.407367E-17	5.185948E-18
5.490000E+03	8.437742E-17	5.102629E-18
5.500000E+03	8.467372E-17	5.279134E-18
5.510000E+03	8.497480E-17	5.693796E-18
5.520000E+03	8.525593E-17	6.296053E-18
5.530000E+03	8.552936E-17	7.033940E-18
5.540000E+03	8.580755E-17	7.865001E-18
5.550000E+03	8.606571E-17	8.755059E-18
5.560000E+03	8.631643E-17	9.682664E-18
5.570000E+03	8.655993E-17	1.063218E-17
5.580000E+03	8.679652E-17	1.159264E-17
5.590000E+03	8.703918E-17	1.255803E-17
5.600000E+03	8.726314E-17	1.351915E-17
5.610000E+03	8.748147E-17	1.447345E-17
5.620000E+03	8.769468E-17	1.541775E-17
5.630000E+03	8.790334E-17	1.634960E-17
5.640000E+03	8.810803E-17	1.726712E-17
5.650000E+03	8.830939E-17	1.816885E-17
5.660000E+03	8.850804E-17	1.905361E-17
5.670000E+03	8.870464E-17	1.992053E-17
5.680000E+03	8.889986E-17	2.076887E-17
5.690000E+03	8.909436E-17	2.159810E-17
5.700000E+03	8.927592E-17	2.240456E-17
5.710000E+03	8.947101E-17	2.319428E-17
5.720000E+03	8.966741E-17	2.396392E-17
5.730000E+03	8.986579E-17	2.471331E-17
5.740000E+03	9.006680E-17	2.544236E-17
5.750000E+03	9.025805E-17	2.614721E-17
5.760000E+03	9.046624E-17	2.683533E-17
5.770000E+03	9.067896E-17	2.750304E-17
5.780000E+03	9.089681E-17	2.815039E-17
5.790000E+03	9.110722E-17	2.877326E-17
5.800000E+03	9.133705E-17	2.937996E-17
5.810000E+03	9.156048E-17	2.996216E-17
5.820000E+03	9.180445E-17	3.052852E-17
5.830000E+03	9.205625E-17	3.107487E-17
5.840000E+03	9.230304E-17	3.159672E-17
5.850000E+03	9.257189E-17	3.210319E-17
5.860000E+03	9.283650E-17	3.258513E-17
5.870000E+03	9.312406E-17	3.305193E-17
5.880000E+03	9.340805E-17	3.349412E-17
5.890000E+03	9.371576E-17	3.392132E-17
5.900000E+03	9.402046E-17	3.432378E-17
5.910000E+03	9.433590E-17	3.470628E-17
5.920000E+03	9.467600E-17	3.507384E-17
5.930000E+03	9.501365E-17	3.541625E-17
5.940000E+03	9.536265E-17	3.573842E-17
5.950000E+03	9.573695E-17	3.604539E-17
5.960000E+03	9.610905E-17	3.632658E-17
5.970000E+03	9.649278E-17	3.658692E-17
5.980000E+03	9.690214E-17	3.683148E-17
5.990000E+03	9.730918E-17	3.704933E-17
6.000000E+03	9.772777E-17	3.724542E-17
6.010000E+03	9.815780E-17	3.741936E-17
6.020000E+03	9.859911E-17	3.757073E-17
6.030000E+03	9.906581E-17	3.770450E-17
6.040000E+03	9.952912E-17	3.780932E-17
6.050000E+03	1.000030E-16	3.789004E-17
6.060000E+03	1.004870E-16	3.794610E-17
6.070000E+03	1.009808E-16	3.797686E-17
6.080000E+03	1.014840E-16	3.798167E-17
6.090000E+03	1.019960E-16	3.795982E-17
6.100000E+03	1.025163E-16	3.791057E-17
6.110000E+03	1.030442E-16	3.783316E-17
6.120000E+03	1.035791E-16	3.772678E-17
6.130000E+03	1.041203E-16	3.759059E-17
6.140000E+03	1.046668E-16	3.742373E-17
6.150000E+03	1.052179E-16	3.722530E-17
6.160000E+03	1.057726E-16	3.699438E-17
6.170000E+03	1.063299E-16	3.673005E-17
6.180000E+03	1.068888E-16	3.643136E-17
6.190000E+03	1.074481E-16	3.609733E-17
6.200000E+03	1.079910E-16	3.572186E-17
6.210000E+03	1.085474E-16	3.531433E-17
6.220000E+03	1.091004E-16	3.486859E-17
6.230000E+03	1.096486E-16	3.438367E-17
6.240000E+03	1.101906E-16	3.385863E-17
6.250000E+03	1.107089E-16	3.328777E-17
6.260000E+03	1.112337E-16	3.267989E-17
6.270000E+03	1.117476E-16	3.202928E-17
6.280000E+03	1.122488E-16	3.133514E-17
6.290000E+03	1.127193E-16	3.059233E-17
6.300000E+03	1.131898E-16	2.980911E-17
6.310000E+03	1.136425E-16	2.898038E-17
6.320000E+03	1.140588E-16	2.810158E-17
6.330000E+03	1.144700E-16	2.718054E-17
6.340000E+03	1.148411E-16	2.620899E-17
6.350000E+03	1.152034E-16	2.519448E-17
6.360000E+03	1.155386E-16	2.413303E-17
6.370000E+03	1.158283E-16	2.302140E-17
6.380000E+03	1.161041E-16	2.186666E-17
6.390000E+03	1.163308E-16	2.066276E-17
6.400000E+03	1.165405E-16	1.941648E-17
6.410000E+03	1.166982E-16	1.812285E-17
6.420000E+03	1.168360E-16	1.678841E-17
6.430000E+03	1.169192E-16	1.540951E-17
6.440000E+03	1.169805E-16	1.399262E-17
6.450000E+03	1.169849E-16	1.253586E-17
6.460000E+03	1.169489E-16	1.104471E-17
6.470000E+03	1.168884E-16	9.525220E-18
6.480000E+03	1.167693E-16	7.981827E-18
6.490000E+03	1.166249E-16	6.430201E-18
6.500000E+03	1.164211E-16	4.895639E-18
6.510000E+03	1.161746E-16	3.449880E-18
6.520000E+03	1.159021E-16	2.323668E-18
6.530000E+03	1.155701E-16	2.141949E-18
6.540000E+03	1.151957E-16	3.070768E-18
6.550000E+03	1.147960E-16	4.439808E-18
6.560000E+03	1.143387E-16	5.923470E-18
6.570000E+03	1.138413E-16	7.426645E-18
6.580000E+03	1.133047E-16	8.915266E-18
6.590000E+03	1.127464E-16	1.037579E-17
6.600000E+03	1.121347E-16	1.179765E-17
6.610000E+03	1.114874E-16	1.317770E-17
6.620000E+03	1.108058E-16	1.451319E-17
6.630000E+03	1.100913E-16	1.580237E-17
6.640000E+03	1.093614E-16	1.704656E-17
6.650000E+03	1.085859E-16	1.824031E-17
6.660000E+03	1.077826E-16	1.938552E-17
6.670000E+03	1.069534E-16	2.048205E-17
6.680000E+03	1.061001E-16	2.153001E-17
6.690000E+03	1.052247E-16	2.252964E-17
6.700000E+03	1.043292E-16	2.348137E-17
6.710000E+03	1.034157E-16	2.438578E-17
6.720000E+03	1.024862E-16	2.524356E-17
6.730000E+03	1.015425E-16	2.605551E-17
6.740000E+03	1.006014E-16	2.682642E-17
6.750000E+03	9.963544E-17	2.754961E-17
6.760000E+03	9.866122E-17	2.822994E-17
6.770000E+03	9.768061E-17	2.886853E-17
6.780000E+03	9.669537E-17	2.946657E-17
6.790000E+03	9.569335E-17	3.002095E-17
6.800000E+03	9.470411E-17	3.054159E-17
6.810000E+03	9.371518E-17	3.102550E-17
6.820000E+03	9.272808E-17	3.147402E-17
6.830000E+03	9.174422E-17	3.188848E-17
6.840000E+03	9.076496E-17	3.227025E-17
6.850000E+03	8.979155E-17	3.262066E-17
6.860000E+03	8.882520E-17	3.294107E-17
6.870000E+03	8.786703E-17	3.323281E-17
6.880000E+03	8.691806E-17	3.349721E-17
6.890000E+03	8.596678E-17	3.373067E-17
6.900000E+03	8.503922E-17	3.394426E-17
6.910000E+03	8.412356E-17	3.413435E-17
6.920000E+03	8.322059E-17	3.430220E-17
6.930000E+03	8.233099E-17	3.444901E-17
6.940000E+03	8.144356E-17	3.457090E-17
6.950000E+03	8.058269E-17	3.467908E-17
6.960000E+03	7.973695E-17	3.476962E-17
6.970000E+03	7.890681E-17	3.484361E-17
6.980000E+03	7.808131E-17	3.489698E-17
6.990000E+03	7.728368E-17	3.494089E-17
7.000000E+03	7.650277E-17	3.497122E-17
7.010000E+03	7.573887E-17	3.498889E-17
7.020000E+03	7.498128E-17	3.498968E-17
7.030000E+03	7.425219E-17	3.498462E-17
7.040000E+03	7.354073E-17	3.496943E-17
7.050000E+03	7.283642E-17	3.493977E-17
7.060000E+03	7.216071E-17	3.490657E-17
7.070000E+03	7.149254E-17	3.486034E-17
7.080000E+03	7.085290E-17	3.481191E-17
7.090000E+03	7.023132E-17	3.475682E-17
7.100000E+03	6.961763E-17	3.469058E-17
7.110000E+03	6.903223E-17	3.462389E-17
7.120000E+03	6.845485E-17	3.454716E-17
7.130000E+03	6.790550E-17	3.447097E-17
7.140000E+03	6.736421E-17	3.438571E-17
7.150000E+03	6.685065E-17	3.430187E-17
7.160000E+03	6.634510E-17	3.420981E-17
7.170000E+03	6.586694E-17	3.411991E-17
7.180000E+03	6.539670E-17	3.402254E-17
7.190000E+03	6.495344E-17	3.392797E-17
7.200000E+03	6.451797E-17	3.382657E-17
7.210000E+03	6.410907E-17	3.372851E-17
7.220000E+03	6.370775E-17	3.362415E-17
7.230000E+03	6.333256E-17	3.352358E-17
7.240000E+03	6.296474E-17	3.341715E-17
7.250000E+03	6.261341E-17	3.330998E-17
7.260000E+03	6.228750E-17	3.320708E-17
7.270000E+03	6.196855E-17	3.309884E-17
7.280000E+03	6.166551E-17	3.299026E-17
7.290000E+03	6.138717E-17	3.288625E-17
7.300000E+03	6.111529E-17	3.277725E-17
7.310000E+03	6.085870E-17	3.266813E-17
7.320000E+03	6.062605E-17	3.256374E-17
7.330000E+03	6.039931E-17	3.245451E-17
7.340000E+03	6.018718E-17	3.234525E-17
7.350000E+03	5.999822E-17	3.224070E-17
7.360000E+03	5.981455E-17	3.213134E-17
7.370000E+03	5.964477E-17	3.202188E-17
7.380000E+03	5.948860E-17	3.191229E-17
7.390000E+03	5.934580E-17	3.180248E-17
7.400000E+03	5.922480E-17	3.169704E-17
7.410000E+03	5.910790E-17	3.158655E-17
7.420000E+03	5.900354E-17	3.147556E-17
7.430000E+03	5.891142E-17	3.136398E-17
7.440000E+03	5.883126E-17	3.125165E-17
7.450000E+03	5.876273E-17	3.113846E-17
7.460000E+03	5.871416E-17	3.102880E-17
7.470000E+03	5.866794E-17	3.091337E-17
7.480000E+03	5.863236E-17	3.079657E-17
7.490000E+03	5.860707E-17	3.067823E-17
7.500000E+03	5.859170E-17	3.055816E-17
7.510000E+03	5.858586E-17	3.043616E-17
7.520000E+03	5.858917E-17	3.031202E-17
7.530000E+03	5.860120E-17	3.018553E-17
7.540000E+03	5.862152E-17	3.005648E-17
7.550000E+03	5.864970E-17	2.992466E-17
7.560000E+03	5.868525E-17	2.978982E-17
7.570000E+03	5.872769E-17	2.965176E-17
7.580000E+03	5.877652E-17	2.951025E-17
7.590000E+03	5.883121E-17	2.936506E-17
7.600000E+03	5.889122E-17	2.921598E-17
7.610000E+03	5.895596E-17	2.906278E-17
7.620000E+03	5.902484E-17	2.890527E-17
7.630000E+03	5.909726E-17	2.874323E-17
7.640000E+03	5.916381E-17	2.857225E-17
7.650000E+03	5.924132E-17	2.840064E-17
7.660000E+03	5.932035E-17	2.822397E-17
7.670000E+03	5.940020E-17	2.804212E-17
7.680000E+03	5.948013E-17	2.785495E-17
7.690000E+03	5.955936E-17	2.766236E-17
7.700000E+03	5.962827E-17	2.746022E-17
7.710000E+03	5.970372E-17	2.725665E-17
7.720000E+03	5.977603E-17	2.704755E-17
7.730000E+03	5.984437E-17	2.683294E-17
7.740000E+03	5.990783E-17	2.661288E-17
7.750000E+03	5.995664E-17	2.638358E-17
7.760000E+03	6.000766E-17	2.615306E-17
