#wls	flux	fluxerr
1.600000E+03	3.209922E-18	2.272645E-18
1.640000E+03	3.217185E-18	2.277666E-18
1.680000E+03	3.224516E-18	2.282720E-18
1.720000E+03	3.233134E-18	2.288669E-18
1.760000E+03	3.242526E-18	2.295146E-18
1.800000E+03	3.252761E-18	2.302200E-18
1.840000E+03	3.263917E-18	2.309883E-18
1.880000E+03	3.276077E-18	2.318250E-18
1.920000E+03	3.289331E-18	2.327360E-18
1.960000E+03	3.303776E-18	2.337281E-18
2.000000E+03	3.319518E-18	2.348081E-18
2.040000E+03	3.336671E-18	2.359837E-18
2.080000E+03	3.355360E-18	2.372632E-18
2.120000E+03	3.376323E-18	2.386980E-18
2.160000E+03	3.398502E-18	2.402126E-18
2.200000E+03	3.422656E-18	2.418598E-18
2.240000E+03	3.449575E-18	2.436943E-18
2.280000E+03	3.478216E-18	2.456415E-18
2.320000E+03	3.510024E-18	2.478020E-18
2.360000E+03	3.543973E-18	2.501016E-18
2.400000E+03	3.581565E-18	2.526448E-18
2.440000E+03	3.622440E-18	2.554038E-18
2.480000E+03	3.666888E-18	2.583968E-18
2.520000E+03	3.714565E-18	2.615965E-18
2.560000E+03	3.767136E-18	2.651169E-18
2.600000E+03	3.824329E-18	2.689348E-18
2.640000E+03	3.886564E-18	2.730750E-18
2.680000E+03	3.954304E-18	2.775644E-18
2.720000E+03	4.028774E-18	2.824826E-18
2.760000E+03	4.109118E-18	2.877618E-18
2.800000E+03	4.196663E-18	2.934856E-18
2.840000E+03	4.292095E-18	2.996913E-18
2.880000E+03	4.396178E-18	3.064192E-18
2.920000E+03	4.510559E-18	3.137685E-18
2.960000E+03	4.634601E-18	3.216766E-18
3.000000E+03	4.770977E-18	3.303068E-18
3.010000E+03	4.806157E-18	3.325161E-18
3.020000E+03	4.842995E-18	3.348297E-18
3.030000E+03	4.880666E-18	3.371902E-18
3.040000E+03	4.919192E-18	3.395985E-18
3.050000E+03	4.958592E-18	3.420556E-18
3.060000E+03	4.998890E-18	3.445624E-18
3.070000E+03	5.040108E-18	3.471198E-18
3.080000E+03	5.082268E-18	3.497289E-18
3.090000E+03	5.124489E-18	3.523283E-18
3.100000E+03	5.168600E-18	3.550433E-18
3.110000E+03	5.213727E-18	3.578129E-18
3.120000E+03	5.259895E-18	3.606383E-18
3.130000E+03	5.307133E-18	3.635204E-18
3.140000E+03	5.355466E-18	3.664605E-18
3.150000E+03	5.404923E-18	3.694595E-18
3.160000E+03	5.455533E-18	3.725185E-18
3.170000E+03	5.507326E-18	3.756387E-18
3.180000E+03	5.559351E-18	3.787544E-18
3.190000E+03	5.613593E-18	3.819997E-18
3.200000E+03	5.669112E-18	3.853096E-18
3.210000E+03	5.725941E-18	3.886852E-18
3.220000E+03	5.784114E-18	3.921276E-18
3.230000E+03	5.843667E-18	3.956380E-18
3.240000E+03	5.904635E-18	3.992176E-18
3.250000E+03	5.967057E-18	4.028676E-18
3.260000E+03	6.030970E-18	4.065891E-18
3.270000E+03	6.096414E-18	4.103833E-18
3.280000E+03	6.163428E-18	4.142514E-18
3.290000E+03	6.230958E-18	4.181209E-18
3.300000E+03	6.301229E-18	4.221396E-18
3.310000E+03	6.373199E-18	4.262357E-18
3.320000E+03	6.446914E-18	4.304103E-18
3.330000E+03	6.522419E-18	4.346646E-18
3.340000E+03	6.599763E-18	4.389997E-18
3.350000E+03	6.678996E-18	4.434167E-18
3.360000E+03	6.760166E-18	4.479167E-18
3.370000E+03	6.843327E-18	4.525007E-18
3.380000E+03	6.928531E-18	4.571699E-18
3.390000E+03	7.015834E-18	4.619251E-18
3.400000E+03	7.105292E-18	4.667674E-18
3.410000E+03	7.196962E-18	4.716976E-18
3.420000E+03	7.290903E-18	4.767167E-18
3.430000E+03	7.387178E-18	4.818254E-18
3.440000E+03	7.484532E-18	4.869389E-18
3.450000E+03	7.585644E-18	4.922282E-18
3.460000E+03	7.689281E-18	4.976092E-18
3.470000E+03	7.795510E-18	5.030824E-18
3.480000E+03	7.904402E-18	5.086483E-18
3.490000E+03	8.016026E-18	5.143073E-18
3.500000E+03	8.130457E-18	5.200594E-18
3.510000E+03	8.247768E-18	5.259050E-18
3.520000E+03	8.368037E-18	5.318440E-18
3.530000E+03	8.491341E-18	5.378762E-18
3.540000E+03	8.617761E-18	5.440014E-18
3.550000E+03	8.747379E-18	5.502191E-18
3.560000E+03	8.880280E-18	5.565287E-18
3.570000E+03	9.016549E-18	5.629294E-18
3.580000E+03	9.156274E-18	5.694202E-18
3.590000E+03	9.299545E-18	5.759998E-18
3.600000E+03	9.446453E-18	5.826668E-18
3.610000E+03	9.597093E-18	5.894194E-18
3.620000E+03	9.749851E-18	5.961513E-18
3.630000E+03	9.908214E-18	6.030677E-18
3.640000E+03	1.007060E-17	6.100630E-18
3.650000E+03	1.023711E-17	6.171341E-18
3.660000E+03	1.040784E-17	6.242777E-18
3.670000E+03	1.058291E-17	6.314901E-18
3.680000E+03	1.076241E-17	6.387674E-18
3.690000E+03	1.094646E-17	6.461050E-18
3.700000E+03	1.113516E-17	6.534979E-18
3.710000E+03	1.132862E-17	6.609406E-18
3.720000E+03	1.152696E-17	6.684272E-18
3.730000E+03	1.173029E-17	6.759512E-18
3.740000E+03	1.193872E-17	6.835053E-18
3.750000E+03	1.215237E-17	6.910820E-18
3.760000E+03	1.237135E-17	6.986727E-18
3.770000E+03	1.259578E-17	7.062684E-18
3.780000E+03	1.282578E-17	7.138592E-18
3.790000E+03	1.306146E-17	7.214346E-18
3.800000E+03	1.330293E-17	7.289832E-18
3.810000E+03	1.355032E-17	7.364926E-18
3.820000E+03	1.380133E-17	7.438198E-18
3.830000E+03	1.406085E-17	7.512092E-18
3.840000E+03	1.432662E-17	7.585171E-18
3.850000E+03	1.459876E-17	7.657274E-18
3.860000E+03	1.487737E-17	7.728228E-18
3.870000E+03	1.516257E-17	7.797850E-18
3.880000E+03	1.545445E-17	7.865944E-18
3.890000E+03	1.575311E-17	7.932303E-18
3.900000E+03	1.605866E-17	7.996706E-18
3.910000E+03	1.637117E-17	8.058921E-18
3.920000E+03	1.669074E-17	8.118699E-18
3.930000E+03	1.701744E-17	8.175780E-18
3.940000E+03	1.735136E-17	8.229888E-18
3.950000E+03	1.769254E-17	8.280732E-18
3.960000E+03	1.804106E-17	8.328006E-18
3.970000E+03	1.839695E-17	8.371389E-18
3.980000E+03	1.875699E-17	8.409078E-18
3.990000E+03	1.912768E-17	8.443644E-18
4.000000E+03	1.950582E-17	8.473259E-18
4.010000E+03	1.989142E-17	8.497537E-18
4.020000E+03	2.028446E-17	8.516075E-18
4.030000E+03	2.068491E-17	8.528455E-18
4.040000E+03	2.109274E-17	8.534242E-18
4.050000E+03	2.150788E-17	8.532985E-18
4.060000E+03	2.193023E-17	8.524219E-18
4.070000E+03	2.235971E-17	8.507464E-18
4.080000E+03	2.279618E-17	8.482226E-18
4.090000E+03	2.323950E-17	8.448001E-18
4.100000E+03	2.368948E-17	8.404270E-18
4.110000E+03	2.414172E-17	8.349058E-18
4.120000E+03	2.460431E-17	8.284745E-18
4.130000E+03	2.507286E-17	8.209335E-18
4.140000E+03	2.554706E-17	8.122289E-18
4.150000E+03	2.602659E-17	8.023075E-18
4.160000E+03	2.651106E-17	7.911165E-18
4.170000E+03	2.700006E-17	7.786049E-18
4.180000E+03	2.749314E-17	7.647235E-18
4.190000E+03	2.798977E-17	7.494263E-18
4.200000E+03	2.848446E-17	7.325444E-18
4.210000E+03	2.898640E-17	7.142988E-18
4.220000E+03	2.949007E-17	6.945305E-18
4.230000E+03	2.999474E-17	6.732202E-18
4.240000E+03	3.049961E-17	6.503612E-18
4.250000E+03	3.100382E-17	6.259633E-18
4.260000E+03	3.150644E-17	6.000584E-18
4.270000E+03	3.200646E-17	5.727073E-18
4.280000E+03	3.249714E-17	5.439161E-18
4.290000E+03	3.298847E-17	5.140322E-18
4.300000E+03	3.347363E-17	4.831835E-18
4.310000E+03	3.395125E-17	4.516997E-18
4.320000E+03	3.441983E-17	4.200539E-18
4.330000E+03	3.487781E-17	3.889195E-18
4.340000E+03	3.532354E-17	3.592435E-18
4.350000E+03	3.574910E-17	3.322682E-18
4.360000E+03	3.616508E-17	3.098106E-18
4.370000E+03	3.656373E-17	2.938233E-18
4.380000E+03	3.694362E-17	2.863074E-18
4.390000E+03	3.730369E-17	2.886638E-18
4.400000E+03	3.764332E-17	3.011551E-18
4.410000E+03	3.795584E-17	3.227956E-18
4.420000E+03	3.825463E-17	3.520349E-18
4.430000E+03	3.853378E-17	3.870130E-18
4.440000E+03	3.879406E-17	4.261292E-18
4.450000E+03	3.903635E-17	4.681076E-18
4.460000E+03	3.926154E-17	5.119794E-18
4.470000E+03	3.946374E-17	5.569259E-18
4.480000E+03	3.965747E-17	6.025933E-18
4.490000E+03	3.983683E-17	6.484889E-18
4.500000E+03	4.000268E-17	6.943058E-18
4.510000E+03	4.015587E-17	7.398079E-18
4.520000E+03	4.029026E-17	7.846763E-18
4.530000E+03	4.042054E-17	8.290304E-18
4.540000E+03	4.054055E-17	8.726290E-18
4.550000E+03	4.065102E-17	9.153818E-18
4.560000E+03	4.074565E-17	9.570520E-18
4.570000E+03	4.083919E-17	9.979068E-18
4.580000E+03	4.092531E-17	1.037744E-17
4.590000E+03	4.100467E-17	1.076528E-17
4.600000E+03	4.107791E-17	1.114235E-17
4.610000E+03	4.113856E-17	1.150646E-17
4.620000E+03	4.120140E-17	1.186140E-17
4.630000E+03	4.125993E-17	1.220517E-17
4.640000E+03	4.131472E-17	1.253773E-17
4.650000E+03	4.135918E-17	1.285687E-17
4.660000E+03	4.140811E-17	1.316700E-17
4.670000E+03	4.145490E-17	1.346602E-17
4.680000E+03	4.149288E-17	1.375163E-17
4.690000E+03	4.153684E-17	1.402864E-17
4.700000E+03	4.158010E-17	1.429483E-17
4.710000E+03	4.162310E-17	1.455034E-17
4.720000E+03	4.165909E-17	1.479276E-17
4.730000E+03	4.170285E-17	1.502727E-17
4.740000E+03	4.174760E-17	1.525154E-17
4.750000E+03	4.178653E-17	1.546304E-17
4.760000E+03	4.183440E-17	1.566721E-17
4.770000E+03	4.188436E-17	1.586160E-17
4.780000E+03	4.193677E-17	1.604634E-17
4.790000E+03	4.198471E-17	1.621879E-17
4.800000E+03	4.204295E-17	1.638464E-17
4.810000E+03	4.210457E-17	1.654128E-17
4.820000E+03	4.216260E-17	1.668595E-17
4.830000E+03	4.223180E-17	1.682449E-17
4.840000E+03	4.230519E-17	1.695418E-17
4.850000E+03	4.237573E-17	1.707216E-17
4.860000E+03	4.245821E-17	1.718439E-17
4.870000E+03	4.253827E-17	1.728505E-17
4.880000E+03	4.263072E-17	1.738013E-17
4.890000E+03	4.272846E-17	1.746674E-17
4.900000E+03	4.282431E-17	1.754188E-17
4.910000E+03	4.293315E-17	1.761161E-17
4.920000E+03	4.304779E-17	1.767294E-17
4.930000E+03	4.316095E-17	1.772280E-17
4.940000E+03	4.328760E-17	1.776726E-17
4.950000E+03	4.341300E-17	1.780019E-17
4.960000E+03	4.355214E-17	1.782764E-17
4.970000E+03	4.369770E-17	1.784649E-17
4.980000E+03	4.384223E-17	1.785359E-17
4.990000E+03	4.400084E-17	1.785497E-17
5.000000E+03	4.415851E-17	1.784437E-17
5.010000E+03	4.433041E-17	1.782779E-17
5.020000E+03	4.450905E-17	1.780201E-17
5.030000E+03	4.468675E-17	1.776380E-17
5.040000E+03	4.487886E-17	1.771909E-17
5.050000E+03	4.506998E-17	1.766158E-17
5.060000E+03	4.527555E-17	1.759713E-17
5.070000E+03	4.548002E-17	1.751944E-17
5.080000E+03	4.569893E-17	1.743430E-17
5.090000E+03	4.591657E-17	1.733543E-17
5.100000E+03	4.614857E-17	1.722852E-17
5.110000E+03	4.638702E-17	1.711028E-17
5.120000E+03	4.662381E-17	1.697749E-17
5.130000E+03	4.687477E-17	1.683568E-17
5.140000E+03	4.712372E-17	1.667870E-17
5.150000E+03	4.738663E-17	1.651197E-17
5.160000E+03	4.764712E-17	1.632943E-17
5.170000E+03	4.792129E-17	1.613637E-17
5.180000E+03	4.819254E-17	1.592686E-17
5.190000E+03	4.847712E-17	1.570601E-17
5.200000E+03	4.875822E-17	1.546804E-17
5.210000E+03	4.905224E-17	1.521793E-17
5.220000E+03	4.934211E-17	1.495005E-17
5.230000E+03	4.964441E-17	1.466921E-17
5.240000E+03	4.994184E-17	1.437001E-17
5.250000E+03	5.024252E-17	1.405469E-17
5.260000E+03	5.055475E-17	1.372529E-17
5.270000E+03	5.086086E-17	1.337679E-17
5.280000E+03	5.117785E-17	1.301359E-17
5.290000E+03	5.148782E-17	1.263100E-17
5.300000E+03	5.180792E-17	1.223328E-17
5.310000E+03	5.212002E-17	1.181611E-17
5.320000E+03	5.244148E-17	1.138366E-17
5.330000E+03	5.275391E-17	1.093212E-17
5.340000E+03	5.306579E-17	1.046383E-17
5.350000E+03	5.338579E-17	9.981004E-18
5.360000E+03	5.369521E-17	9.480895E-18
5.370000E+03	5.401195E-17	8.967917E-18
5.380000E+03	5.431713E-17	8.440429E-18
5.390000E+03	5.461952E-17	7.902174E-18
5.400000E+03	5.492815E-17	7.357356E-18
5.410000E+03	5.522393E-17	6.807468E-18
5.420000E+03	5.552542E-17	6.260711E-18
5.430000E+03	5.581344E-17	5.723035E-18
5.440000E+03	5.609726E-17	5.207274E-18
5.450000E+03	5.638647E-17	4.730799E-18
5.460000E+03	5.666179E-17	4.314861E-18
5.470000E+03	5.693288E-17	3.990136E-18
5.480000E+03	5.720964E-17	3.790894E-18
5.490000E+03	5.747263E-17	3.744290E-18
5.500000E+03	5.773157E-17	3.861933E-18
5.510000E+03	5.799622E-17	4.132460E-18
5.520000E+03	5.824653E-17	4.526759E-18
5.530000E+03	5.849212E-17	5.014105E-18
5.540000E+03	5.874281E-17	5.568182E-18
5.550000E+03	5.897842E-17	6.166247E-18
5.560000E+03	5.920890E-17	6.793913E-18
5.570000E+03	5.944443E-17	7.441534E-18
5.580000E+03	5.966480E-17	8.098830E-18
5.590000E+03	5.988032E-17	8.761250E-18
5.600000E+03	6.009121E-17	9.424565E-18
5.610000E+03	6.030805E-17	1.008732E-17
5.620000E+03	6.051058E-17	1.074374E-17
5.630000E+03	6.070944E-17	1.139354E-17
5.640000E+03	6.091542E-17	1.203729E-17
5.650000E+03	6.110816E-17	1.266982E-17
5.660000E+03	6.129847E-17	1.329211E-17
5.670000E+03	6.148679E-17	1.390341E-17
5.680000E+03	6.168414E-17	1.450558E-17
5.690000E+03	6.186991E-17	1.509328E-17
5.700000E+03	6.205509E-17	1.566847E-17
5.710000E+03	6.224014E-17	1.623084E-17
5.720000E+03	6.243620E-17	1.678301E-17
5.730000E+03	6.262241E-17	1.731911E-17
5.740000E+03	6.280987E-17	1.784177E-17
5.750000E+03	6.299900E-17	1.835087E-17
5.760000E+03	6.319025E-17	1.884631E-17
5.770000E+03	6.339486E-17	1.933133E-17
5.780000E+03	6.359159E-17	1.979934E-17
5.790000E+03	6.379164E-17	2.025355E-17
5.800000E+03	6.399537E-17	2.069391E-17
5.810000E+03	6.420315E-17	2.112042E-17
5.820000E+03	6.442630E-17	2.153672E-17
5.830000E+03	6.464318E-17	2.193552E-17
5.840000E+03	6.486505E-17	2.232041E-17
5.850000E+03	6.509218E-17	2.269136E-17
5.860000E+03	6.532483E-17	2.304834E-17
5.870000E+03	6.556324E-17	2.339131E-17
5.880000E+03	6.581886E-17	2.372427E-17
5.890000E+03	6.606943E-17	2.403910E-17
5.900000E+03	6.632632E-17	2.433971E-17
5.910000E+03	6.658966E-17	2.462601E-17
5.920000E+03	6.685957E-17	2.489789E-17
5.930000E+03	6.713614E-17	2.515519E-17
5.940000E+03	6.741942E-17	2.539777E-17
5.950000E+03	6.772100E-17	2.562982E-17
5.960000E+03	6.801782E-17	2.584242E-17
5.970000E+03	6.832135E-17	2.603968E-17
5.980000E+03	6.863154E-17	2.622135E-17
5.990000E+03	6.894828E-17	2.638716E-17
6.000000E+03	6.927147E-17	2.653680E-17
6.010000E+03	6.960092E-17	2.666993E-17
6.020000E+03	6.993646E-17	2.678621E-17
6.030000E+03	7.027784E-17	2.688525E-17
6.040000E+03	7.062479E-17	2.696665E-17
6.050000E+03	7.097701E-17	2.702996E-17
6.060000E+03	7.134633E-17	2.707936E-17
6.070000E+03	7.170804E-17	2.710510E-17
6.080000E+03	7.207384E-17	2.711130E-17
6.090000E+03	7.244325E-17	2.709742E-17
6.100000E+03	7.281574E-17	2.706290E-17
6.110000E+03	7.319075E-17	2.700717E-17
6.120000E+03	7.356765E-17	2.692964E-17
6.130000E+03	7.394579E-17	2.682968E-17
6.140000E+03	7.432444E-17	2.670667E-17
6.150000E+03	7.470285E-17	2.655996E-17
6.160000E+03	7.508021E-17	2.638892E-17
6.170000E+03	7.545564E-17	2.619287E-17
6.180000E+03	7.582823E-17	2.597117E-17
6.190000E+03	7.619703E-17	2.572315E-17
6.200000E+03	7.656101E-17	2.544816E-17
6.210000E+03	7.691911E-17	2.514555E-17
6.220000E+03	7.727022E-17	2.481469E-17
6.230000E+03	7.761319E-17	2.445498E-17
6.240000E+03	7.794681E-17	2.406582E-17
6.250000E+03	7.826984E-17	2.364666E-17
6.260000E+03	7.858099E-17	2.319698E-17
6.270000E+03	7.887896E-17	2.271630E-17
6.280000E+03	7.916240E-17	2.220421E-17
6.290000E+03	7.942994E-17	2.166032E-17
6.300000E+03	7.968021E-17	2.108434E-17
6.310000E+03	7.991180E-17	2.047604E-17
6.320000E+03	8.012334E-17	1.983525E-17
6.330000E+03	8.031344E-17	1.916192E-17
6.340000E+03	8.048075E-17	1.845608E-17
6.350000E+03	8.062395E-17	1.771785E-17
6.360000E+03	8.074178E-17	1.694749E-17
6.370000E+03	8.083303E-17	1.614536E-17
6.380000E+03	8.089659E-17	1.531197E-17
6.390000E+03	8.093145E-17	1.444795E-17
6.400000E+03	8.092290E-17	1.355178E-17
6.410000E+03	8.089784E-17	1.262923E-17
6.420000E+03	8.084187E-17	1.167899E-17
6.430000E+03	8.075458E-17	1.070247E-17
6.440000E+03	8.063578E-17	9.701366E-18
6.450000E+03	8.048544E-17	8.677814E-18
6.460000E+03	8.030376E-17	7.634571E-18
6.470000E+03	8.009112E-17	6.575465E-18
6.480000E+03	7.984808E-17	5.506325E-18
6.490000E+03	7.957532E-17	4.437230E-18
6.500000E+03	7.927362E-17	3.388715E-18
6.510000E+03	7.893032E-17	2.411934E-18
6.520000E+03	7.857323E-17	1.667010E-18
6.530000E+03	7.818947E-17	1.546599E-18
6.540000E+03	7.777949E-17	2.146382E-18
6.550000E+03	7.734345E-17	3.048928E-18
6.560000E+03	7.688139E-17	4.034622E-18
6.570000E+03	7.639333E-17	5.034492E-18
6.580000E+03	7.587929E-17	6.023391E-18
6.590000E+03	7.532654E-17	6.988955E-18
6.600000E+03	7.476117E-17	7.927655E-18
6.610000E+03	7.417063E-17	8.835168E-18
6.620000E+03	7.355551E-17	9.709471E-18
6.630000E+03	7.291655E-17	1.054927E-17
6.640000E+03	7.225470E-17	1.135375E-17
6.650000E+03	7.155880E-17	1.212034E-17
6.660000E+03	7.085464E-17	1.285281E-17
6.670000E+03	7.013122E-17	1.354915E-17
6.680000E+03	6.938996E-17	1.420947E-17
6.690000E+03	6.863235E-17	1.483402E-17
6.700000E+03	6.785994E-17	1.542318E-17
6.710000E+03	6.706283E-17	1.597469E-17
6.720000E+03	6.626567E-17	1.649451E-17
6.730000E+03	6.545844E-17	1.698066E-17
6.740000E+03	6.464270E-17	1.743390E-17
6.750000E+03	6.382000E-17	1.785502E-17
6.760000E+03	6.298106E-17	1.824178E-17
6.770000E+03	6.214901E-17	1.860126E-17
6.780000E+03	6.131433E-17	1.893137E-17
6.790000E+03	6.047838E-17	1.923310E-17
6.800000E+03	5.964242E-17	1.950746E-17
6.810000E+03	5.879764E-17	1.975211E-17
6.820000E+03	5.796541E-17	1.997482E-17
6.830000E+03	5.713663E-17	2.017330E-17
6.840000E+03	5.631232E-17	2.034860E-17
6.850000E+03	5.548392E-17	2.049829E-17
6.860000E+03	5.467145E-17	2.063038E-17
6.870000E+03	5.386609E-17	2.074245E-17
6.880000E+03	5.306858E-17	2.083550E-17
6.890000E+03	5.227068E-17	2.090698E-17
6.900000E+03	5.149103E-17	2.096500E-17
6.910000E+03	5.072112E-17	2.100696E-17
6.920000E+03	4.996147E-17	2.103380E-17
6.930000E+03	4.920412E-17	2.104283E-17
6.940000E+03	4.846644E-17	2.104213E-17
6.950000E+03	4.774023E-17	2.102895E-17
6.960000E+03	4.702583E-17	2.100413E-17
6.970000E+03	4.631557E-17	2.096487E-17
6.980000E+03	4.562565E-17	2.091910E-17
6.990000E+03	4.494821E-17	2.086398E-17
7.000000E+03	4.427583E-17	2.079665E-17
7.010000E+03	4.362390E-17	2.072490E-17
7.020000E+03	4.298480E-17	2.064580E-17
7.030000E+03	4.235136E-17	2.055645E-17
7.040000E+03	4.173820E-17	2.046448E-17
7.050000E+03	4.113797E-17	2.036691E-17
7.060000E+03	4.055066E-17	2.026425E-17
7.070000E+03	3.996937E-17	2.015355E-17
7.080000E+03	3.940783E-17	2.004219E-17
7.090000E+03	3.885902E-17	1.992716E-17
7.100000E+03	3.831629E-17	1.980547E-17
7.110000E+03	3.779273E-17	1.968431E-17
7.120000E+03	3.728156E-17	1.956064E-17
7.130000E+03	3.677636E-17	1.943147E-17
7.140000E+03	3.628965E-17	1.930380E-17
7.150000E+03	3.581488E-17	1.917459E-17
7.160000E+03	3.534584E-17	1.904084E-17
7.170000E+03	3.489454E-17	1.890936E-17
7.180000E+03	3.445465E-17	1.877712E-17
7.190000E+03	3.402017E-17	1.864113E-17
7.200000E+03	3.360263E-17	1.850802E-17
7.210000E+03	3.319591E-17	1.837475E-17
7.220000E+03	3.279421E-17	1.823839E-17
7.230000E+03	3.240862E-17	1.810535E-17
7.240000E+03	3.202775E-17	1.796957E-17
7.250000E+03	3.166244E-17	1.783734E-17
7.260000E+03	3.130690E-17	1.770570E-17
7.270000E+03	3.095564E-17	1.757173E-17
7.280000E+03	3.061909E-17	1.744159E-17
7.290000E+03	3.029167E-17	1.731232E-17
7.300000E+03	2.996804E-17	1.718106E-17
7.310000E+03	2.965831E-17	1.705379E-17
7.320000E+03	2.935202E-17	1.692470E-17
7.330000E+03	2.905908E-17	1.679965E-17
7.340000E+03	2.877420E-17	1.667579E-17
7.350000E+03	2.849226E-17	1.655029E-17
7.360000E+03	2.822288E-17	1.642890E-17
7.370000E+03	2.795612E-17	1.630597E-17
7.380000E+03	2.770139E-17	1.618714E-17
7.390000E+03	2.745364E-17	1.606960E-17
7.400000E+03	2.720801E-17	1.595062E-17
7.410000E+03	2.697366E-17	1.583570E-17
7.420000E+03	2.674108E-17	1.571939E-17
7.430000E+03	2.651929E-17	1.560709E-17
7.440000E+03	2.629895E-17	1.549341E-17
7.450000E+03	2.608891E-17	1.538368E-17
7.460000E+03	2.588442E-17	1.527521E-17
7.470000E+03	2.568089E-17	1.516538E-17
7.480000E+03	2.548697E-17	1.505938E-17
7.490000E+03	2.529367E-17	1.495200E-17
7.500000E+03	2.510952E-17	1.484838E-17
7.510000E+03	2.492568E-17	1.474336E-17
7.520000E+03	2.475055E-17	1.464201E-17
7.530000E+03	2.457541E-17	1.453924E-17
7.540000E+03	2.440855E-17	1.444004E-17
7.550000E+03	2.424552E-17	1.434185E-17
7.560000E+03	2.408203E-17	1.424220E-17
7.570000E+03	2.392617E-17	1.414597E-17
7.580000E+03	2.376954E-17	1.404825E-17
7.590000E+03	2.362014E-17	1.395384E-17
7.600000E+03	2.346967E-17	1.385790E-17
7.610000E+03	2.332604E-17	1.376517E-17
7.620000E+03	2.318103E-17	1.367089E-17
7.630000E+03	2.304248E-17	1.357972E-17
7.640000E+03	2.290227E-17	1.348695E-17
7.650000E+03	2.276814E-17	1.339720E-17
7.660000E+03	2.263207E-17	1.330582E-17
7.670000E+03	2.250171E-17	1.321738E-17
7.680000E+03	2.236915E-17	1.312727E-17
7.690000E+03	2.224195E-17	1.304001E-17
7.700000E+03	2.211229E-17	1.295106E-17
7.710000E+03	2.198764E-17	1.286487E-17
7.720000E+03	2.186028E-17	1.277697E-17
7.730000E+03	2.173760E-17	1.269176E-17
7.740000E+03	2.161198E-17	1.260482E-17
7.750000E+03	2.149074E-17	1.252050E-17
7.760000E+03	2.136632E-17	1.243444E-17
