#wls	flux	fluxerr
1.600000E+03	2.970373E-18	2.103178E-18
1.640000E+03	2.976779E-18	2.107617E-18
1.680000E+03	2.983782E-18	2.112466E-18
1.720000E+03	2.991974E-18	2.118145E-18
1.760000E+03	3.000339E-18	2.123930E-18
1.800000E+03	3.010017E-18	2.130628E-18
1.840000E+03	3.019998E-18	2.137520E-18
1.880000E+03	3.031438E-18	2.145425E-18
1.920000E+03	3.043332E-18	2.153625E-18
1.960000E+03	3.056857E-18	2.162953E-18
2.000000E+03	3.071012E-18	2.172694E-18
2.040000E+03	3.087000E-18	2.183697E-18
2.080000E+03	3.104382E-18	2.195646E-18
2.120000E+03	3.122719E-18	2.208225E-18
2.160000E+03	3.143258E-18	2.222308E-18
2.200000E+03	3.165584E-18	2.237595E-18
2.240000E+03	3.189850E-18	2.254185E-18
2.280000E+03	3.216223E-18	2.272186E-18
2.320000E+03	3.244884E-18	2.291715E-18
2.360000E+03	3.276031E-18	2.312897E-18
2.400000E+03	3.309880E-18	2.335868E-18
2.440000E+03	3.346664E-18	2.360776E-18
2.480000E+03	3.386641E-18	2.387779E-18
2.520000E+03	3.430090E-18	2.417049E-18
2.560000E+03	3.477318E-18	2.448774E-18
2.600000E+03	3.528661E-18	2.483153E-18
2.640000E+03	3.585129E-18	2.520856E-18
2.680000E+03	3.645857E-18	2.561227E-18
2.720000E+03	3.711922E-18	2.604963E-18
2.760000E+03	3.784491E-18	2.652817E-18
2.800000E+03	3.862771E-18	2.704150E-18
2.840000E+03	3.948023E-18	2.759752E-18
2.880000E+03	4.041634E-18	2.820477E-18
2.920000E+03	4.142916E-18	2.885709E-18
2.960000E+03	4.254148E-18	2.956875E-18
3.000000E+03	4.374743E-18	3.033374E-18
3.010000E+03	4.406978E-18	3.053738E-18
3.020000E+03	4.439929E-18	3.074508E-18
3.030000E+03	4.472819E-18	3.095142E-18
3.040000E+03	4.507251E-18	3.116744E-18
3.050000E+03	4.542452E-18	3.138776E-18
3.060000E+03	4.577629E-18	3.160685E-18
3.070000E+03	4.614422E-18	3.183598E-18
3.080000E+03	4.652044E-18	3.206966E-18
3.090000E+03	4.689681E-18	3.230224E-18
3.100000E+03	4.729016E-18	3.254524E-18
3.110000E+03	4.769242E-18	3.279305E-18
3.120000E+03	4.809527E-18	3.303990E-18
3.130000E+03	4.851598E-18	3.329756E-18
3.140000E+03	4.893759E-18	3.355435E-18
3.150000E+03	4.937766E-18	3.382224E-18
3.160000E+03	4.982783E-18	3.409539E-18
3.170000E+03	5.027943E-18	3.436781E-18
3.180000E+03	5.075048E-18	3.465175E-18
3.190000E+03	5.123241E-18	3.494124E-18
3.200000E+03	5.171632E-18	3.523014E-18
3.210000E+03	5.222077E-18	3.553100E-18
3.220000E+03	5.273696E-18	3.583771E-18
3.230000E+03	5.325573E-18	3.614396E-18
3.240000E+03	5.379621E-18	3.646262E-18
3.250000E+03	5.434935E-18	3.678743E-18
3.260000E+03	5.491548E-18	3.711850E-18
3.270000E+03	5.548510E-18	3.744927E-18
3.280000E+03	5.607813E-18	3.779308E-18
3.290000E+03	5.668518E-18	3.814344E-18
3.300000E+03	5.729647E-18	3.849363E-18
3.310000E+03	5.793257E-18	3.885733E-18
3.320000E+03	5.858381E-18	3.922788E-18
3.330000E+03	5.924010E-18	3.959835E-18
3.340000E+03	5.992272E-18	3.998281E-18
3.350000E+03	6.062170E-18	4.037440E-18
3.360000E+03	6.132661E-18	4.076599E-18
3.370000E+03	6.205948E-18	4.117205E-18
3.380000E+03	6.281004E-18	4.158550E-18
3.390000E+03	6.356749E-18	4.199900E-18
3.400000E+03	6.435468E-18	4.242742E-18
3.410000E+03	6.516097E-18	4.286348E-18
3.420000E+03	6.597519E-18	4.329959E-18
3.430000E+03	6.682107E-18	4.375106E-18
3.440000E+03	6.768759E-18	4.421038E-18
3.450000E+03	6.857530E-18	4.467759E-18
3.460000E+03	6.947246E-18	4.514477E-18
3.470000E+03	7.040406E-18	4.562785E-18
3.480000E+03	7.135855E-18	4.611895E-18
3.490000E+03	7.232374E-18	4.660987E-18
3.500000E+03	7.332564E-18	4.711703E-18
3.510000E+03	7.435227E-18	4.763227E-18
3.520000E+03	7.539093E-18	4.814709E-18
3.530000E+03	7.646876E-18	4.867841E-18
3.540000E+03	7.757328E-18	4.921777E-18
3.550000E+03	7.870517E-18	4.976515E-18
3.560000E+03	7.985102E-18	5.031160E-18
3.570000E+03	8.103958E-18	5.087473E-18
3.580000E+03	8.225766E-18	5.144567E-18
3.590000E+03	8.349126E-18	5.201513E-18
3.600000E+03	8.477043E-18	5.260125E-18
3.610000E+03	8.608140E-18	5.319482E-18
3.620000E+03	8.740954E-18	5.378615E-18
3.630000E+03	8.878629E-18	5.439397E-18
3.640000E+03	9.019727E-18	5.500865E-18
3.650000E+03	9.164331E-18	5.562996E-18
3.660000E+03	9.310884E-18	5.624770E-18
3.670000E+03	9.462732E-18	5.688132E-18
3.680000E+03	9.618345E-18	5.752065E-18
3.690000E+03	9.776087E-18	5.815508E-18
3.700000E+03	9.939469E-18	5.880459E-18
3.710000E+03	1.010689E-17	5.945861E-18
3.720000E+03	1.027662E-17	6.010602E-18
3.730000E+03	1.045235E-17	6.076741E-18
3.740000E+03	1.063240E-17	6.143169E-18
3.750000E+03	1.081494E-17	6.208729E-18
3.760000E+03	1.100387E-17	6.275532E-18
3.770000E+03	1.119739E-17	6.342419E-18
3.780000E+03	1.139560E-17	6.409313E-18
3.790000E+03	1.159655E-17	6.474985E-18
3.800000E+03	1.180440E-17	6.541616E-18
3.810000E+03	1.201722E-17	6.607977E-18
3.820000E+03	1.223295E-17	6.672786E-18
3.830000E+03	1.245597E-17	6.738271E-18
3.840000E+03	1.268423E-17	6.803147E-18
3.850000E+03	1.291557E-17	6.866076E-18
3.860000E+03	1.315457E-17	6.929328E-18
3.870000E+03	1.339909E-17	6.991560E-18
3.880000E+03	1.364921E-17	7.052616E-18
3.890000E+03	1.390255E-17	7.111083E-18
3.900000E+03	1.416406E-17	7.169279E-18
3.910000E+03	1.443139E-17	7.225780E-18
3.920000E+03	1.470203E-17	7.279112E-18
3.930000E+03	1.498116E-17	7.331623E-18
3.940000E+03	1.526631E-17	7.381829E-18
3.950000E+03	1.555478E-17	7.428198E-18
3.960000E+03	1.585203E-17	7.473100E-18
3.970000E+03	1.615542E-17	7.514991E-18
3.980000E+03	1.646208E-17	7.552285E-18
3.990000E+03	1.677776E-17	7.587366E-18
4.000000E+03	1.709961E-17	7.618633E-18
4.010000E+03	1.742458E-17	7.644455E-18
4.020000E+03	1.775871E-17	7.667218E-18
4.030000E+03	1.809895E-17	7.685276E-18
4.040000E+03	1.844203E-17	7.696962E-18
4.050000E+03	1.879430E-17	7.704658E-18
4.060000E+03	1.915249E-17	7.706686E-18
4.070000E+03	1.951308E-17	7.701360E-18
4.080000E+03	1.988274E-17	7.691054E-18
4.090000E+03	2.025795E-17	7.674080E-18
4.100000E+03	2.063493E-17	7.648762E-18
4.110000E+03	2.102067E-17	7.617467E-18
4.120000E+03	2.141139E-17	7.578530E-18
4.130000E+03	2.180301E-17	7.530330E-18
4.140000E+03	2.220284E-17	7.475239E-18
4.150000E+03	2.260681E-17	7.411672E-18
4.160000E+03	2.301054E-17	7.338126E-18
4.170000E+03	2.342164E-17	7.257015E-18
4.180000E+03	2.383573E-17	7.166921E-18
4.190000E+03	2.424809E-17	7.066559E-18
4.200000E+03	2.466664E-17	6.958463E-18
4.210000E+03	2.508666E-17	6.841519E-18
4.220000E+03	2.550307E-17	6.714820E-18
4.230000E+03	2.592410E-17	6.581169E-18
4.240000E+03	2.634465E-17	6.439974E-18
4.250000E+03	2.675929E-17	6.290962E-18
4.260000E+03	2.717653E-17	6.137460E-18
4.270000E+03	2.759092E-17	5.979738E-18
4.280000E+03	2.799666E-17	5.818539E-18
4.290000E+03	2.840258E-17	5.658098E-18
4.300000E+03	2.879784E-17	5.499034E-18
4.310000E+03	2.919147E-17	5.346417E-18
4.320000E+03	2.957751E-17	5.202876E-18
4.330000E+03	2.994972E-17	5.071615E-18
4.340000E+03	3.031756E-17	4.958897E-18
4.350000E+03	3.067493E-17	4.868483E-18
4.360000E+03	3.101552E-17	4.804144E-18
4.370000E+03	3.134936E-17	4.771785E-18
4.380000E+03	3.166486E-17	4.773160E-18
4.390000E+03	3.197250E-17	4.812262E-18
4.400000E+03	3.226639E-17	4.889235E-18
4.410000E+03	3.254055E-17	5.002772E-18
4.420000E+03	3.280622E-17	5.152867E-18
4.430000E+03	3.305196E-17	5.334960E-18
4.440000E+03	3.328945E-17	5.547398E-18
4.450000E+03	3.351319E-17	5.785418E-18
4.460000E+03	3.371764E-17	6.044005E-18
4.470000E+03	3.391497E-17	6.321377E-18
4.480000E+03	3.409386E-17	6.611774E-18
4.490000E+03	3.426674E-17	6.914186E-18
4.500000E+03	3.442824E-17	7.224596E-18
4.510000E+03	3.457292E-17	7.539128E-18
4.520000E+03	3.471347E-17	7.858143E-18
4.530000E+03	3.483838E-17	8.177033E-18
4.540000E+03	3.496045E-17	8.496964E-18
4.550000E+03	3.506810E-17	8.813627E-18
4.560000E+03	3.517418E-17	9.128864E-18
4.570000E+03	3.527320E-17	9.440192E-18
4.580000E+03	3.535956E-17	9.745072E-18
4.590000E+03	3.544619E-17	1.004615E-17
4.600000E+03	3.552130E-17	1.033941E-17
4.610000E+03	3.559783E-17	1.062791E-17
4.620000E+03	3.566390E-17	1.090761E-17
4.630000E+03	3.573248E-17	1.118197E-17
4.640000E+03	3.579786E-17	1.144887E-17
4.650000E+03	3.585428E-17	1.170609E-17
4.660000E+03	3.591472E-17	1.195753E-17
4.670000E+03	3.596710E-17	1.219895E-17
4.680000E+03	3.602443E-17	1.243451E-17
4.690000E+03	3.607456E-17	1.265988E-17
4.700000E+03	3.613049E-17	1.287943E-17
4.710000E+03	3.618002E-17	1.308872E-17
4.720000E+03	3.623616E-17	1.329231E-17
4.730000E+03	3.628663E-17	1.348564E-17
4.740000E+03	3.634445E-17	1.367345E-17
4.750000E+03	3.639729E-17	1.385106E-17
4.760000E+03	3.645816E-17	1.402334E-17
4.770000E+03	3.651469E-17	1.418552E-17
4.780000E+03	3.657989E-17	1.434259E-17
4.790000E+03	3.664131E-17	1.448965E-17
4.800000E+03	3.671201E-17	1.463182E-17
4.810000E+03	3.677946E-17	1.476408E-17
4.820000E+03	3.685673E-17	1.489165E-17
4.830000E+03	3.693123E-17	1.500942E-17
4.840000E+03	3.701605E-17	1.512266E-17
4.850000E+03	3.709855E-17	1.522617E-17
4.860000E+03	3.719184E-17	1.532530E-17
4.870000E+03	3.728318E-17	1.541475E-17
4.880000E+03	3.738576E-17	1.549992E-17
4.890000E+03	3.748674E-17	1.557544E-17
4.900000E+03	3.759934E-17	1.564673E-17
4.910000E+03	3.771065E-17	1.570834E-17
4.920000E+03	3.783395E-17	1.576573E-17
4.930000E+03	3.795623E-17	1.581339E-17
4.940000E+03	3.809083E-17	1.585677E-17
4.950000E+03	3.822462E-17	1.589031E-17
4.960000E+03	3.836435E-17	1.591669E-17
4.970000E+03	3.851683E-17	1.593861E-17
4.980000E+03	3.866876E-17	1.595044E-17
4.990000E+03	3.883370E-17	1.595761E-17
5.000000E+03	3.899822E-17	1.595444E-17
5.010000E+03	3.917595E-17	1.594635E-17
5.020000E+03	3.935334E-17	1.592762E-17
5.030000E+03	3.953724E-17	1.590088E-17
5.040000E+03	3.973461E-17	1.586869E-17
5.050000E+03	3.993167E-17	1.582532E-17
5.060000E+03	4.014232E-17	1.577608E-17
5.070000E+03	4.035264E-17	1.571524E-17
5.080000E+03	4.057662E-17	1.564802E-17
5.090000E+03	4.080018E-17	1.556870E-17
5.100000E+03	4.103031E-17	1.547976E-17
5.110000E+03	4.127414E-17	1.538356E-17
5.120000E+03	4.151731E-17	1.527445E-17
5.130000E+03	4.176690E-17	1.515479E-17
5.140000E+03	4.203011E-17	1.502688E-17
5.150000E+03	4.229229E-17	1.488512E-17
5.160000E+03	4.256798E-17	1.473437E-17
5.170000E+03	4.284229E-17	1.456910E-17
5.180000E+03	4.312243E-17	1.439155E-17
5.190000E+03	4.341578E-17	1.420381E-17
5.200000E+03	4.370710E-17	1.400052E-17
5.210000E+03	4.400368E-17	1.378382E-17
5.220000E+03	4.431299E-17	1.355568E-17
5.230000E+03	4.461942E-17	1.331098E-17
5.240000E+03	4.493816E-17	1.305401E-17
5.250000E+03	4.525334E-17	1.277985E-17
5.260000E+03	4.557239E-17	1.249046E-17
5.270000E+03	4.590291E-17	1.218767E-17
5.280000E+03	4.622865E-17	1.186690E-17
5.290000E+03	4.655710E-17	1.153009E-17
5.300000E+03	4.689596E-17	1.117900E-17
5.310000E+03	4.722852E-17	1.080959E-17
5.320000E+03	4.756238E-17	1.042381E-17
5.330000E+03	4.789698E-17	1.002178E-17
5.340000E+03	4.824013E-17	9.605384E-18
5.350000E+03	4.857453E-17	9.171631E-18
5.360000E+03	4.890786E-17	8.722918E-18
5.370000E+03	4.924800E-17	8.261652E-18
5.380000E+03	4.957720E-17	7.786275E-18
5.390000E+03	4.990323E-17	7.300267E-18
5.400000E+03	5.023407E-17	6.807561E-18
5.410000E+03	5.055155E-17	6.309563E-18
5.420000E+03	5.086357E-17	5.812966E-18
5.430000E+03	5.116936E-17	5.325437E-18
5.440000E+03	5.147712E-17	4.858694E-18
5.450000E+03	5.176830E-17	4.426289E-18
5.460000E+03	5.205114E-17	4.050146E-18
5.470000E+03	5.233414E-17	3.757855E-18
5.480000E+03	5.259869E-17	3.578127E-18
5.490000E+03	5.285345E-17	3.536889E-18
5.500000E+03	5.309821E-17	3.643875E-18
5.510000E+03	5.334216E-17	3.889324E-18
5.520000E+03	5.356694E-17	4.247508E-18
5.530000E+03	5.378199E-17	4.691039E-18
5.540000E+03	5.398763E-17	5.195216E-18
5.550000E+03	5.418431E-17	5.740819E-18
5.560000E+03	5.438194E-17	6.314805E-18
5.570000E+03	5.456227E-17	6.904872E-18
5.580000E+03	5.473528E-17	7.504633E-18
5.590000E+03	5.490161E-17	8.108697E-18
5.600000E+03	5.507147E-17	8.714585E-18
5.610000E+03	5.522644E-17	9.316381E-18
5.620000E+03	5.537670E-17	9.913209E-18
5.630000E+03	5.552291E-17	1.050331E-17
5.640000E+03	5.566570E-17	1.108532E-17
5.650000E+03	5.581541E-17	1.166020E-17
5.660000E+03	5.595330E-17	1.222315E-17
5.670000E+03	5.608964E-17	1.277545E-17
5.680000E+03	5.622502E-17	1.331657E-17
5.690000E+03	5.636001E-17	1.384611E-17
5.700000E+03	5.650494E-17	1.436626E-17
5.710000E+03	5.664079E-17	1.487188E-17
5.720000E+03	5.677785E-17	1.536520E-17
5.730000E+03	5.691659E-17	1.584610E-17
5.740000E+03	5.705750E-17	1.631448E-17
5.750000E+03	5.720103E-17	1.677031E-17
5.760000E+03	5.735756E-17	1.721653E-17
5.770000E+03	5.750764E-17	1.764725E-17
5.780000E+03	5.766159E-17	1.806538E-17
5.790000E+03	5.781978E-17	1.847095E-17
5.800000E+03	5.798257E-17	1.886397E-17
5.810000E+03	5.815029E-17	1.924448E-17
5.820000E+03	5.833338E-17	1.961592E-17
5.830000E+03	5.851194E-17	1.997156E-17
5.840000E+03	5.869633E-17	2.031478E-17
5.850000E+03	5.888681E-17	2.064558E-17
5.860000E+03	5.908362E-17	2.096397E-17
5.870000E+03	5.928697E-17	2.126996E-17
5.880000E+03	5.949706E-17	2.156353E-17
5.890000E+03	5.971408E-17	2.184464E-17
5.900000E+03	5.993817E-17	2.211325E-17
5.910000E+03	6.017990E-17	2.237318E-17
5.920000E+03	6.041856E-17	2.261662E-17
5.930000E+03	6.066464E-17	2.284732E-17
5.940000E+03	6.091819E-17	2.306514E-17
5.950000E+03	6.117927E-17	2.326994E-17
5.960000E+03	6.144788E-17	2.346156E-17
5.970000E+03	6.172403E-17	2.363981E-17
5.980000E+03	6.200767E-17	2.380446E-17
5.990000E+03	6.229875E-17	2.395529E-17
6.000000E+03	6.259718E-17	2.409202E-17
6.010000E+03	6.291374E-17	2.421855E-17
6.020000E+03	6.322654E-17	2.432621E-17
6.030000E+03	6.354625E-17	2.441882E-17
6.040000E+03	6.387265E-17	2.449602E-17
6.050000E+03	6.420550E-17	2.455740E-17
6.060000E+03	6.454452E-17	2.460254E-17
6.070000E+03	6.488940E-17	2.463101E-17
6.080000E+03	6.523978E-17	2.464232E-17
6.090000E+03	6.559528E-17	2.463598E-17
6.100000E+03	6.595545E-17	2.461148E-17
6.110000E+03	6.631982E-17	2.456826E-17
6.120000E+03	6.668788E-17	2.450577E-17
6.130000E+03	6.705907E-17	2.442343E-17
6.140000E+03	6.743277E-17	2.432062E-17
6.150000E+03	6.780834E-17	2.419674E-17
6.160000E+03	6.818506E-17	2.405116E-17
6.170000E+03	6.856218E-17	2.388323E-17
6.180000E+03	6.893889E-17	2.369230E-17
6.190000E+03	6.931434E-17	2.347773E-17
6.200000E+03	6.968762E-17	2.323884E-17
6.210000E+03	7.005775E-17	2.297500E-17
6.220000E+03	7.042372E-17	2.268555E-17
6.230000E+03	7.078444E-17	2.236985E-17
6.240000E+03	7.113878E-17	2.202728E-17
6.250000E+03	7.148556E-17	2.165725E-17
6.260000E+03	7.182352E-17	2.125918E-17
6.270000E+03	7.215137E-17	2.083253E-17
6.280000E+03	7.246776E-17	2.037681E-17
6.290000E+03	7.277129E-17	1.989156E-17
6.300000E+03	7.306049E-17	1.937638E-17
6.310000E+03	7.333389E-17	1.883093E-17
6.320000E+03	7.358992E-17	1.825495E-17
6.330000E+03	7.382703E-17	1.764824E-17
6.340000E+03	7.404361E-17	1.701072E-17
6.350000E+03	7.423803E-17	1.634237E-17
6.360000E+03	7.440865E-17	1.564329E-17
6.370000E+03	7.455383E-17	1.491372E-17
6.380000E+03	7.467195E-17	1.415400E-17
6.390000E+03	7.476142E-17	1.336462E-17
6.400000E+03	7.482068E-17	1.254626E-17
6.410000E+03	7.484827E-17	1.169974E-17
6.420000E+03	7.484283E-17	1.082612E-17
6.430000E+03	7.480315E-17	9.926712E-18
6.440000E+03	7.472821E-17	9.003143E-18
6.450000E+03	7.461725E-17	8.057486E-18
6.460000E+03	7.446981E-17	7.092469E-18
6.470000E+03	7.427299E-17	6.110834E-18
6.480000E+03	7.405301E-17	5.120640E-18
6.490000E+03	7.379799E-17	4.130529E-18
6.500000E+03	7.350959E-17	3.160355E-18
6.510000E+03	7.319009E-17	2.259211E-18
6.520000E+03	7.284208E-17	1.575269E-18
6.530000E+03	7.246772E-17	1.463728E-18
6.540000E+03	7.206767E-17	2.010288E-18
6.550000E+03	7.164092E-17	2.839637E-18
6.560000E+03	7.118582E-17	3.748144E-18
6.570000E+03	7.070097E-17	4.670256E-18
6.580000E+03	7.018556E-17	5.581732E-18
6.590000E+03	6.962739E-17	6.470555E-18
6.600000E+03	6.905115E-17	7.333145E-18
6.610000E+03	6.844560E-17	8.165267E-18
6.620000E+03	6.781202E-17	8.964919E-18
6.630000E+03	6.715199E-17	9.730845E-18
6.640000E+03	6.646727E-17	1.046228E-17
6.650000E+03	6.575976E-17	1.115878E-17
6.660000E+03	6.503144E-17	1.182021E-17
6.670000E+03	6.428431E-17	1.244658E-17
6.680000E+03	6.350940E-17	1.303587E-17
6.690000E+03	6.273087E-17	1.359284E-17
6.700000E+03	6.193955E-17	1.411584E-17
6.710000E+03	6.113734E-17	1.460544E-17
6.720000E+03	6.032612E-17	1.506234E-17
6.730000E+03	5.950766E-17	1.548729E-17
6.740000E+03	5.868366E-17	1.588114E-17
6.750000E+03	5.784573E-17	1.624196E-17
6.760000E+03	5.701560E-17	1.657626E-17
6.770000E+03	5.618456E-17	1.688226E-17
6.780000E+03	5.535396E-17	1.716097E-17
6.790000E+03	5.452510E-17	1.741342E-17
6.800000E+03	5.369916E-17	1.764065E-17
6.810000E+03	5.286809E-17	1.784062E-17
6.820000E+03	5.205140E-17	1.802055E-17
6.830000E+03	5.124072E-17	1.817843E-17
6.840000E+03	5.043693E-17	1.831530E-17
6.850000E+03	4.964082E-17	1.843221E-17
6.860000E+03	4.885313E-17	1.853017E-17
6.870000E+03	4.806617E-17	1.860697E-17
6.880000E+03	4.729735E-17	1.867002E-17
6.890000E+03	4.653872E-17	1.871707E-17
6.900000E+03	4.579076E-17	1.874907E-17
6.910000E+03	4.505389E-17	1.876691E-17
6.920000E+03	4.432079E-17	1.876822E-17
6.930000E+03	4.360726E-17	1.876036E-17
6.940000E+03	4.290577E-17	1.874091E-17
6.950000E+03	4.221654E-17	1.871064E-17
6.960000E+03	4.153976E-17	1.867032E-17
6.970000E+03	4.086849E-17	1.861744E-17
6.980000E+03	4.021713E-17	1.855917E-17
6.990000E+03	3.957855E-17	1.849294E-17
7.000000E+03	3.895281E-17	1.841939E-17
7.010000E+03	3.833992E-17	1.833910E-17
7.020000E+03	3.773334E-17	1.824951E-17
7.030000E+03	3.714623E-17	1.815749E-17
7.040000E+03	3.657188E-17	1.806038E-17
7.050000E+03	3.601024E-17	1.795868E-17
7.060000E+03	3.545506E-17	1.784974E-17
7.070000E+03	3.491863E-17	1.774022E-17
7.080000E+03	3.439459E-17	1.762741E-17
7.090000E+03	3.388280E-17	1.751170E-17
7.100000E+03	3.338311E-17	1.739344E-17
7.110000E+03	3.288967E-17	1.726998E-17
7.120000E+03	3.241381E-17	1.714766E-17
7.130000E+03	3.194956E-17	1.702375E-17
7.140000E+03	3.149674E-17	1.689853E-17
7.150000E+03	3.104976E-17	1.676934E-17
7.160000E+03	3.061931E-17	1.664228E-17
7.170000E+03	3.019970E-17	1.651462E-17
7.180000E+03	2.979074E-17	1.638658E-17
7.190000E+03	2.938711E-17	1.625552E-17
7.200000E+03	2.899890E-17	1.612728E-17
7.210000E+03	2.862070E-17	1.599918E-17
7.220000E+03	2.824741E-17	1.586862E-17
7.230000E+03	2.788868E-17	1.574125E-17
7.240000E+03	2.753934E-17	1.561443E-17
7.250000E+03	2.719917E-17	1.548826E-17
7.260000E+03	2.686329E-17	1.536019E-17
7.270000E+03	2.654087E-17	1.523564E-17
7.280000E+03	2.622699E-17	1.511203E-17
7.290000E+03	2.592142E-17	1.498942E-17
7.300000E+03	2.561952E-17	1.486528E-17
7.310000E+03	2.533002E-17	1.474487E-17
7.320000E+03	2.504821E-17	1.462563E-17
7.330000E+03	2.476959E-17	1.450507E-17
7.340000E+03	2.450261E-17	1.438831E-17
7.350000E+03	2.424271E-17	1.427281E-17
7.360000E+03	2.398552E-17	1.415616E-17
7.370000E+03	2.373924E-17	1.404329E-17
7.380000E+03	2.349945E-17	1.393176E-17
7.390000E+03	2.326597E-17	1.382157E-17
7.400000E+03	2.303459E-17	1.371034E-17
7.410000E+03	2.281318E-17	1.360285E-17
7.420000E+03	2.259751E-17	1.349671E-17
7.430000E+03	2.238351E-17	1.338957E-17
7.440000E+03	2.217881E-17	1.328611E-17
7.450000E+03	2.197932E-17	1.318396E-17
7.460000E+03	2.178106E-17	1.308084E-17
7.470000E+03	2.159147E-17	1.298130E-17
7.480000E+03	2.140657E-17	1.288303E-17
7.490000E+03	2.122249E-17	1.278378E-17
7.500000E+03	2.104649E-17	1.268800E-17
7.510000E+03	2.087467E-17	1.259342E-17
7.520000E+03	2.070328E-17	1.249785E-17
7.530000E+03	2.053939E-17	1.240561E-17
7.540000E+03	2.037921E-17	1.231451E-17
7.550000E+03	2.021908E-17	1.222238E-17
7.560000E+03	2.006590E-17	1.213346E-17
7.570000E+03	1.991599E-17	1.204558E-17
7.580000E+03	1.976575E-17	1.195664E-17
7.590000E+03	1.962196E-17	1.187078E-17
7.600000E+03	1.948099E-17	1.178588E-17
7.610000E+03	1.933936E-17	1.169986E-17
7.620000E+03	1.920367E-17	1.161680E-17
7.630000E+03	1.906709E-17	1.153260E-17
7.640000E+03	1.893615E-17	1.145125E-17
7.650000E+03	1.880738E-17	1.137072E-17
7.660000E+03	1.867739E-17	1.128901E-17
7.670000E+03	1.855259E-17	1.121003E-17
7.680000E+03	1.842959E-17	1.113178E-17
7.690000E+03	1.830508E-17	1.105231E-17
7.700000E+03	1.818534E-17	1.097545E-17
7.710000E+03	1.806390E-17	1.089735E-17
7.720000E+03	1.794697E-17	1.082178E-17
7.730000E+03	1.783128E-17	1.074682E-17
7.740000E+03	1.771363E-17	1.067057E-17
7.750000E+03	1.760011E-17	1.059676E-17
7.760000E+03	1.748447E-17	1.052164E-17
