#wls	flux	fluxerr
1.575579E+03	2.051778E-17	1.005867E-18
1.614968E+03	2.127335E-17	1.037725E-18
1.654357E+03	2.194081E-17	1.064806E-18
1.693747E+03	2.251654E-17	1.086987E-18
1.733136E+03	2.298177E-17	1.103422E-18
1.772526E+03	2.332142E-17	1.113468E-18
1.811915E+03	2.348828E-17	1.114976E-18
1.851305E+03	2.343776E-17	1.105978E-18
1.890694E+03	2.311893E-17	1.084267E-18
1.930084E+03	2.249158E-17	1.048206E-18
1.969473E+03	2.155229E-17	9.979197E-19
2.008863E+03	2.037605E-17	9.371576E-19
2.048252E+03	1.914793E-17	8.746148E-19
2.087642E+03	1.815794E-17	8.235187E-19
2.127031E+03	1.773945E-17	7.986666E-19
2.166420E+03	1.816242E-17	8.115608E-19
2.205810E+03	1.955698E-17	8.671053E-19
2.245199E+03	2.190441E-17	9.634332E-19
2.284589E+03	2.507527E-17	1.093830E-18
2.323978E+03	2.889000E-17	1.249558E-18
2.363368E+03	3.317477E-17	1.422359E-18
2.402757E+03	3.779366E-17	1.605817E-18
2.442147E+03	4.264716E-17	1.795240E-18
2.481536E+03	4.767966E-17	1.987912E-18
2.520926E+03	5.286025E-17	2.182210E-18
2.560315E+03	5.817054E-17	2.377068E-18
2.599705E+03	6.358415E-17	2.571117E-18
2.639094E+03	6.908659E-17	2.763503E-18
2.678484E+03	7.464390E-17	2.952624E-18
2.717873E+03	8.022211E-17	3.136929E-18
2.757262E+03	8.575493E-17	3.313683E-18
2.796652E+03	9.117975E-17	3.480413E-18
2.836041E+03	9.639385E-17	3.633257E-18
2.875431E+03	1.012956E-16	3.768600E-18
2.914820E+03	1.058041E-16	3.883807E-18
2.954210E+03	1.098216E-16	3.975803E-18
2.964057E+03	1.107476E-16	3.995193E-18
2.973904E+03	1.116352E-16	4.012904E-18
2.983752E+03	1.124899E-16	4.029148E-18
2.993599E+03	1.133106E-16	4.043902E-18
3.003447E+03	1.140968E-16	4.057152E-18
3.013294E+03	1.148412E-16	4.068660E-18
3.023141E+03	1.155566E-16	4.078885E-18
3.032989E+03	1.162516E-16	4.088144E-18
3.042836E+03	1.168921E-16	4.095250E-18
3.052683E+03	1.175331E-16	4.102146E-18
3.062531E+03	1.181713E-16	4.108707E-18
3.072378E+03	1.188035E-16	4.114832E-18
3.082226E+03	1.194274E-16	4.120438E-18
3.092073E+03	1.200410E-16	4.125462E-18
3.101920E+03	1.206430E-16	4.129858E-18
3.111768E+03	1.212384E-16	4.133807E-18
3.121615E+03	1.218267E-16	4.137289E-18
3.131462E+03	1.224017E-16	4.140096E-18
3.141310E+03	1.229754E-16	4.142644E-18
3.151157E+03	1.235424E-16	4.144743E-18
3.161004E+03	1.241033E-16	4.146420E-18
3.170852E+03	1.246648E-16	4.147901E-18
3.180699E+03	1.252335E-16	4.149405E-18
3.190547E+03	1.257990E-16	4.150577E-18
3.200394E+03	1.263735E-16	4.151827E-18
3.210241E+03	1.269523E-16	4.152994E-18
3.220089E+03	1.275472E-16	4.154461E-18
3.229936E+03	1.281532E-16	4.156056E-18
3.239783E+03	1.287705E-16	4.157784E-18
3.249631E+03	1.294046E-16	4.159815E-18
3.259478E+03	1.300553E-16	4.162134E-18
3.269325E+03	1.307274E-16	4.164888E-18
3.279173E+03	1.314148E-16	4.167871E-18
3.289020E+03	1.321271E-16	4.171383E-18
3.298868E+03	1.328578E-16	4.175208E-18
3.308715E+03	1.336111E-16	4.179465E-18
3.318562E+03	1.343804E-16	4.183944E-18
3.328410E+03	1.351801E-16	4.189078E-18
3.338257E+03	1.359988E-16	4.194503E-18
3.348104E+03	1.368406E-16	4.200341E-18
3.357952E+03	1.377098E-16	4.206707E-18
3.367799E+03	1.386057E-16	4.213570E-18
3.377646E+03	1.395279E-16	4.220905E-18
3.387494E+03	1.404807E-16	4.228830E-18
3.397341E+03	1.414636E-16	4.237315E-18
3.407189E+03	1.424805E-16	4.246463E-18
3.417036E+03	1.435209E-16	4.255946E-18
3.426883E+03	1.445971E-16	4.266118E-18
3.436731E+03	1.457020E-16	4.276752E-18
3.446578E+03	1.468324E-16	4.287745E-18
3.456425E+03	1.479887E-16	4.299094E-18
3.466273E+03	1.491613E-16	4.310507E-18
3.476120E+03	1.503483E-16	4.321928E-18
3.485968E+03	1.515382E-16	4.333015E-18
3.495815E+03	1.527229E-16	4.343543E-18
3.505662E+03	1.538855E-16	4.353030E-18
3.515510E+03	1.550218E-16	4.361373E-18
3.525357E+03	1.561198E-16	4.368246E-18
3.535204E+03	1.571647E-16	4.373255E-18
3.545052E+03	1.581520E-16	4.376304E-18
3.554899E+03	1.590759E-16	4.377256E-18
3.564746E+03	1.599374E-16	4.376173E-18
3.574594E+03	1.607329E-16	4.372982E-18
3.584441E+03	1.614695E-16	4.367912E-18
3.594289E+03	1.621537E-16	4.361162E-18
3.604136E+03	1.627980E-16	4.353095E-18
3.613983E+03	1.634100E-16	4.343930E-18
3.623831E+03	1.640137E-16	4.334323E-18
3.633678E+03	1.646163E-16	4.324463E-18
3.643525E+03	1.652369E-16	4.314855E-18
3.653373E+03	1.658988E-16	4.306094E-18
3.663220E+03	1.666144E-16	4.298486E-18
3.673067E+03	1.674031E-16	4.292501E-18
3.682915E+03	1.682866E-16	4.288662E-18
3.692762E+03	1.692750E-16	4.287179E-18
3.702610E+03	1.703834E-16	4.288388E-18
3.712457E+03	1.716246E-16	4.292555E-18
3.722304E+03	1.730088E-16	4.299868E-18
3.732152E+03	1.745392E-16	4.310346E-18
3.741999E+03	1.762191E-16	4.323998E-18
3.751846E+03	1.780439E-16	4.340649E-18
3.761694E+03	1.800117E-16	4.360185E-18
3.771541E+03	1.821096E-16	4.382231E-18
3.781388E+03	1.843244E-16	4.406412E-18
3.791236E+03	1.866333E-16	4.432135E-18
3.801083E+03	1.890244E-16	4.459079E-18
3.810931E+03	1.914753E-16	4.486684E-18
3.820778E+03	1.939673E-16	4.514492E-18
3.830625E+03	1.964769E-16	4.541943E-18
3.840473E+03	1.989963E-16	4.568855E-18
3.850320E+03	2.015080E-16	4.594830E-18
3.860167E+03	2.040084E-16	4.619797E-18
3.870015E+03	2.064914E-16	4.643628E-18
3.879862E+03	2.089547E-16	4.666286E-18
3.889710E+03	2.114090E-16	4.688027E-18
3.899557E+03	2.138514E-16	4.708794E-18
3.909404E+03	2.162964E-16	4.728921E-18
3.919252E+03	2.187496E-16	4.748533E-18
3.929099E+03	2.212161E-16	4.767744E-18
3.938946E+03	2.237063E-16	4.786781E-18
3.948794E+03	2.262194E-16	4.805623E-18
3.958641E+03	2.287662E-16	4.824497E-18
3.968488E+03	2.313426E-16	4.843311E-18
3.978336E+03	2.339499E-16	4.862091E-18
3.988183E+03	2.365916E-16	4.880903E-18
3.998031E+03	2.392605E-16	4.899595E-18
4.007878E+03	2.419582E-16	4.918198E-18
4.017725E+03	2.446785E-16	4.936591E-18
4.027573E+03	2.474173E-16	4.954688E-18
4.037420E+03	2.501682E-16	4.972372E-18
4.047267E+03	2.529227E-16	4.989482E-18
4.057115E+03	2.556629E-16	5.005680E-18
4.066962E+03	2.583823E-16	5.020862E-18
4.076809E+03	2.610592E-16	5.034633E-18
4.086657E+03	2.636814E-16	5.046797E-18
4.096504E+03	2.662279E-16	5.056991E-18
4.106352E+03	2.686906E-16	5.065114E-18
4.116199E+03	2.710625E-16	5.071090E-18
4.126046E+03	2.733401E-16	5.074909E-18
4.135894E+03	2.755276E-16	5.076706E-18
4.145741E+03	2.776490E-16	5.076977E-18
4.155588E+03	2.797210E-16	5.076069E-18
4.165436E+03	2.817874E-16	5.074810E-18
4.175283E+03	2.838876E-16	5.073930E-18
4.185130E+03	2.860799E-16	5.074463E-18
4.194978E+03	2.884220E-16	5.077412E-18
4.204825E+03	2.909830E-16	5.083944E-18
4.214673E+03	2.938269E-16	5.095107E-18
4.224520E+03	2.970169E-16	5.111899E-18
4.234367E+03	3.006265E-16	5.135473E-18
4.244215E+03	3.047025E-16	5.166486E-18
4.254062E+03	3.093010E-16	5.205739E-18
4.263909E+03	3.144614E-16	5.253732E-18
4.273757E+03	3.202162E-16	5.310833E-18
4.283604E+03	3.265868E-16	5.377221E-18
4.293452E+03	3.335763E-16	5.452771E-18
4.303299E+03	3.411940E-16	5.537471E-18
4.313146E+03	3.494322E-16	5.631027E-18
4.322994E+03	3.582883E-16	5.733253E-18
4.332841E+03	3.677564E-16	5.843907E-18
4.342688E+03	3.778315E-16	5.962780E-18
4.352536E+03	3.884904E-16	6.089386E-18
4.362383E+03	3.997023E-16	6.223142E-18
4.372230E+03	4.113921E-16	6.362799E-18
4.382078E+03	4.234641E-16	6.506832E-18
4.391925E+03	4.357751E-16	6.653035E-18
4.401773E+03	4.481582E-16	6.798904E-18
4.411620E+03	4.604139E-16	6.941511E-18
4.421467E+03	4.723285E-16	7.077768E-18
4.431315E+03	4.836627E-16	7.204261E-18
4.441162E+03	4.941996E-16	7.317976E-18
4.451009E+03	5.037194E-16	7.415931E-18
4.460857E+03	5.120262E-16	7.495547E-18
4.470704E+03	5.189679E-16	7.554933E-18
4.480551E+03	5.244225E-16	7.592666E-18
4.490399E+03	5.283115E-16	7.607969E-18
4.500246E+03	5.306161E-16	7.600928E-18
4.510094E+03	5.313388E-16	7.571918E-18
4.519941E+03	5.305551E-16	7.522333E-18
4.529788E+03	5.283493E-16	7.453653E-18
4.539636E+03	5.248556E-16	7.368020E-18
4.549483E+03	5.202267E-16	7.267788E-18
4.559330E+03	5.146404E-16	7.155606E-18
4.569178E+03	5.082671E-16	7.033970E-18
4.579025E+03	5.013004E-16	6.905640E-18
4.588872E+03	4.939269E-16	6.773235E-18
4.598720E+03	4.863229E-16	6.639180E-18
4.608567E+03	4.786586E-16	6.505773E-18
4.618415E+03	4.710913E-16	6.375102E-18
4.628262E+03	4.637575E-16	6.248938E-18
4.638109E+03	4.567719E-16	6.128731E-18
4.647957E+03	4.502234E-16	6.015563E-18
4.657804E+03	4.441765E-16	5.910178E-18
4.667651E+03	4.386657E-16	5.812910E-18
4.677499E+03	4.337075E-16	5.723852E-18
4.687346E+03	4.292860E-16	5.642674E-18
4.697194E+03	4.253653E-16	5.568789E-18
4.707041E+03	4.219005E-16	5.501505E-18
4.716888E+03	4.188288E-16	5.439909E-18
4.726736E+03	4.160877E-16	5.383108E-18
4.736583E+03	4.136092E-16	5.330152E-18
4.746430E+03	4.113413E-16	5.280313E-18
4.756278E+03	4.092398E-16	5.232974E-18
4.766125E+03	4.072713E-16	5.187669E-18
4.775972E+03	4.054236E-16	5.144201E-18
4.785820E+03	4.036978E-16	5.102554E-18
4.795667E+03	4.021171E-16	5.062986E-18
4.805515E+03	4.007141E-16	5.025871E-18
4.815362E+03	3.995500E-16	4.991933E-18
4.825209E+03	3.986892E-16	4.961929E-18
4.835057E+03	3.982142E-16	4.936826E-18
4.844904E+03	3.982238E-16	4.917778E-18
4.854751E+03	3.988158E-16	4.905909E-18
4.864599E+03	4.001162E-16	4.902673E-18
4.874446E+03	4.022332E-16	4.909277E-18
4.884293E+03	4.053015E-16	4.927237E-18
4.894141E+03	4.094302E-16	4.957731E-18
4.903988E+03	4.147433E-16	5.002094E-18
4.913836E+03	4.213459E-16	5.061415E-18
4.923683E+03	4.293249E-16	5.136540E-18
4.933530E+03	4.387522E-16	5.228127E-18
4.943378E+03	4.496789E-16	5.336565E-18
4.953225E+03	4.621361E-16	5.462003E-18
4.963072E+03	4.761217E-16	5.604193E-18
4.972920E+03	4.916109E-16	5.762619E-18
4.982767E+03	5.085594E-16	5.936546E-18
4.992614E+03	5.268866E-16	6.124825E-18
5.002462E+03	5.464944E-16	6.326123E-18
5.012309E+03	5.672633E-16	6.538881E-18
5.022157E+03	5.890548E-16	6.761345E-18
5.032004E+03	6.117153E-16	6.991624E-18
5.041851E+03	6.350873E-16	7.227810E-18
5.051699E+03	6.589868E-16	7.467731E-18
5.061546E+03	6.832453E-16	7.709431E-18
5.071393E+03	7.076984E-16	7.951037E-18
5.081241E+03	7.321651E-16	8.190524E-18
5.091088E+03	7.564926E-16	8.426224E-18
5.100935E+03	7.805246E-16	8.656464E-18
5.110783E+03	8.041271E-16	8.879853E-18
5.120630E+03	8.271680E-16	9.095048E-18
5.130478E+03	8.495086E-16	9.300668E-18
5.140325E+03	8.710268E-16	9.495542E-18
5.150172E+03	8.915773E-16	9.678273E-18
5.160020E+03	9.110199E-16	9.847553E-18
5.169867E+03	9.291721E-16	1.000164E-17
5.179714E+03	9.458599E-16	1.013894E-17
5.189562E+03	9.608909E-16	1.025766E-17
5.199409E+03	9.740291E-16	1.035560E-17
5.209257E+03	9.850599E-16	1.043083E-17
5.219104E+03	9.937516E-16	1.048125E-17
5.228951E+03	9.998975E-16	1.050508E-17
5.238799E+03	1.003333E-15	1.050098E-17
5.248646E+03	1.003922E-15	1.046795E-17
5.258493E+03	1.001602E-15	1.040573E-17
5.268341E+03	9.963773E-16	1.031477E-17
5.278188E+03	9.883586E-16	1.019658E-17
5.288035E+03	9.777270E-16	1.005336E-17
5.297883E+03	9.647728E-16	9.888388E-18
5.307730E+03	9.498374E-16	9.705400E-18
5.317578E+03	9.333575E-16	9.509035E-18
5.327425E+03	9.158083E-16	9.304255E-18
5.337272E+03	8.976929E-16	9.096232E-18
5.347120E+03	8.795187E-16	8.890115E-18
5.356967E+03	8.617971E-16	8.691036E-18
5.366814E+03	8.450362E-16	8.504042E-18
5.376662E+03	8.296975E-16	8.333671E-18
5.386509E+03	8.162366E-16	8.184379E-18
5.396356E+03	8.050421E-16	8.059933E-18
5.406204E+03	7.963631E-16	7.962702E-18
5.416051E+03	7.902173E-16	7.892751E-18
5.425899E+03	7.863463E-16	7.847338E-18
5.435746E+03	7.842977E-16	7.821808E-18
5.445593E+03	7.835917E-16	7.811265E-18
5.455441E+03	7.837396E-16	7.810755E-18
5.465288E+03	7.843327E-16	7.816132E-18
5.475135E+03	7.850218E-16	7.823852E-18
5.484983E+03	7.855318E-16	7.831110E-18
5.494830E+03	7.856640E-16	7.835858E-18
5.504677E+03	7.853002E-16	7.836844E-18
5.514525E+03	7.843718E-16	7.833308E-18
5.524372E+03	7.828790E-16	7.825166E-18
5.534220E+03	7.808839E-16	7.812953E-18
5.544067E+03	7.784579E-16	7.797297E-18
5.553914E+03	7.757299E-16	7.779403E-18
5.563762E+03	7.728146E-16	7.760339E-18
5.573609E+03	7.698645E-16	7.741561E-18
5.583456E+03	7.670132E-16	7.724342E-18
5.593304E+03	7.643751E-16	7.709777E-18
5.603151E+03	7.620622E-16	7.698940E-18
5.612999E+03	7.601530E-16	7.692582E-18
5.622846E+03	7.587282E-16	7.691484E-18
5.632693E+03	7.578213E-16	7.695955E-18
5.642541E+03	7.574831E-16	7.706488E-18
5.652388E+03	7.577369E-16	7.723303E-18
5.662235E+03	7.585808E-16	7.746364E-18
5.672083E+03	7.600328E-16	7.775844E-18
5.681930E+03	7.620817E-16	7.811621E-18
5.691777E+03	7.646985E-16	7.853390E-18
5.701625E+03	7.678349E-16	7.900646E-18
5.711472E+03	7.714121E-16	7.952570E-18
5.721320E+03	7.753569E-16	8.008395E-18
5.731167E+03	7.795485E-16	8.066855E-18
5.741014E+03	7.838891E-16	8.126916E-18
5.750862E+03	7.882540E-16	8.187259E-18
5.760709E+03	7.925388E-16	8.246766E-18
5.770556E+03	7.966271E-16	8.304190E-18
5.780404E+03	8.004290E-16	8.358552E-18
5.790251E+03	8.038399E-16	8.408715E-18
5.800098E+03	8.067759E-16	8.453754E-18
5.809946E+03	8.091427E-16	8.492631E-18
5.819793E+03	8.108347E-16	8.524187E-18
5.829641E+03	8.117631E-16	8.547436E-18
5.839488E+03	8.118429E-16	8.561429E-18
5.849335E+03	8.109784E-16	8.565102E-18
5.859183E+03	8.091217E-16	8.557897E-18
5.869030E+03	8.062587E-16	8.539616E-18
5.878877E+03	8.023910E-16	8.510228E-18
5.888725E+03	7.975987E-16	8.470546E-18
5.898572E+03	7.919721E-16	8.421495E-18
5.908419E+03	7.856766E-16	8.364814E-18
5.918267E+03	7.788853E-16	8.302332E-18
5.928114E+03	7.717930E-16	8.236126E-18
5.937962E+03	7.646264E-16	8.168622E-18
5.947809E+03	7.576133E-16	8.102273E-18
5.957656E+03	7.509441E-16	8.039142E-18
5.967504E+03	7.448369E-16	7.981600E-18
5.977351E+03	7.394663E-16	7.931556E-18
5.987198E+03	7.349920E-16	7.890770E-18
5.997046E+03	7.315378E-16	7.860624E-18
6.006893E+03	7.292139E-16	7.842351E-18
6.016741E+03	7.280736E-16	7.836583E-18
6.026588E+03	7.281505E-16	7.843733E-18
6.036435E+03	7.294522E-16	7.863942E-18
6.046283E+03	7.319182E-16	7.896614E-18
6.056130E+03	7.355058E-16	7.941340E-18
6.065977E+03	7.401026E-16	7.996967E-18
6.075825E+03	7.455929E-16	8.062294E-18
6.085672E+03	7.518618E-16	8.136134E-18
6.095519E+03	7.587743E-16	8.217078E-18
6.105367E+03	7.661961E-16	8.303724E-18
6.115214E+03	7.740037E-16	8.394786E-18
6.125062E+03	7.820967E-16	8.489227E-18
6.134909E+03	7.903929E-16	8.586211E-18
6.144756E+03	7.988083E-16	8.684876E-18
6.154604E+03	8.073074E-16	8.784895E-18
6.164451E+03	8.158029E-16	8.885377E-18
6.174298E+03	8.242590E-16	8.985990E-18
6.184146E+03	8.326001E-16	9.085969E-18
6.193993E+03	8.407185E-16	9.184202E-18
6.203840E+03	8.485000E-16	9.279501E-18
6.213688E+03	8.557888E-16	9.370216E-18
6.223535E+03	8.624360E-16	9.454768E-18
6.233383E+03	8.682396E-16	9.530987E-18
6.243230E+03	8.730259E-16	9.596999E-18
6.253077E+03	8.766177E-16	9.650878E-18
6.262925E+03	8.788544E-16	9.690862E-18
6.272772E+03	8.795923E-16	9.715361E-18
6.282619E+03	8.787342E-16	9.723275E-18
6.292467E+03	8.762225E-16	9.713929E-18
6.302314E+03	8.720381E-16	9.687051E-18
6.312161E+03	8.662348E-16	9.643169E-18
6.322009E+03	8.588790E-16	9.582942E-18
6.331856E+03	8.501494E-16	9.508270E-18
6.341704E+03	8.402284E-16	9.421104E-18
6.351551E+03	8.293917E-16	9.324444E-18
6.361398E+03	8.179344E-16	9.221531E-18
6.371246E+03	8.062250E-16	9.116422E-18
6.381093E+03	7.946488E-16	9.013358E-18
6.390940E+03	7.836422E-16	8.917207E-18
6.400788E+03	7.736762E-16	8.833306E-18
6.410635E+03	7.652610E-16	8.767521E-18
6.420483E+03	7.588682E-16	8.725368E-18
6.430330E+03	7.548634E-16	8.711236E-18
6.440177E+03	7.532373E-16	8.725251E-18
6.450025E+03	7.536735E-16	8.763985E-18
6.459872E+03	7.556673E-16	8.821768E-18
6.469719E+03	7.587093E-16	8.892796E-18
6.479567E+03	7.623626E-16	8.972031E-18
6.489414E+03	7.662546E-16	9.055111E-18
6.499261E+03	7.700874E-16	9.138492E-18
6.509109E+03	7.736378E-16	9.219461E-18
6.518956E+03	7.767311E-16	9.295838E-18
6.528804E+03	7.792434E-16	9.366014E-18
6.538651E+03	7.811039E-16	9.428998E-18
6.548498E+03	7.822616E-16	9.484019E-18
6.558346E+03	7.827154E-16	9.530901E-18
6.568193E+03	7.824806E-16	9.569672E-18
6.578040E+03	7.816043E-16	9.600746E-18
6.587888E+03	7.801141E-16	9.624312E-18
6.597735E+03	7.780910E-16	9.641226E-18
6.607582E+03	7.755984E-16	9.652141E-18
6.617430E+03	7.726902E-16	9.657608E-18
6.627277E+03	7.694407E-16	9.658447E-18
6.637125E+03	7.659085E-16	9.655298E-18
6.646972E+03	7.621491E-16	9.648775E-18
6.656819E+03	7.582031E-16	9.639319E-18
6.666667E+03	7.541402E-16	9.627751E-18
6.676514E+03	7.499847E-16	9.614328E-18
6.686361E+03	7.458037E-16	9.599867E-18
6.696209E+03	7.416197E-16	9.584618E-18
6.706056E+03	7.374990E-16	9.569414E-18
6.715903E+03	7.334731E-16	9.554645E-18
6.725751E+03	7.295808E-16	9.540806E-18
6.735598E+03	7.258560E-16	9.528337E-18
6.745446E+03	7.223333E-16	9.517695E-18
6.755293E+03	7.190072E-16	9.508811E-18
6.765140E+03	7.159044E-16	9.502050E-18
6.774988E+03	7.130087E-16	9.497207E-18
6.784835E+03	7.103091E-16	9.494140E-18
6.794682E+03	7.077873E-16	9.492617E-18
6.804530E+03	7.054329E-16	9.492498E-18
6.814377E+03	7.032039E-16	9.493227E-18
6.824225E+03	7.011020E-16	9.494822E-18
6.834072E+03	6.991000E-16	9.496915E-18
6.843919E+03	6.971773E-16	9.499224E-18
6.853767E+03	6.953493E-16	9.501955E-18
6.863614E+03	6.936090E-16	9.505008E-18
6.873461E+03	6.919669E-16	9.508526E-18
6.883309E+03	6.904435E-16	9.512791E-18
6.893156E+03	6.890561E-16	9.518042E-18
6.903003E+03	6.878606E-16	9.525056E-18
6.912851E+03	6.868827E-16	9.534202E-18
6.922698E+03	6.861480E-16	9.545844E-18
6.932546E+03	6.856985E-16	9.560581E-18
6.942393E+03	6.855540E-16	9.578706E-18
6.952240E+03	6.857232E-16	9.600356E-18
6.962088E+03	6.861871E-16	9.625279E-18
6.971935E+03	6.869314E-16	9.653287E-18
6.981782E+03	6.879171E-16	9.683839E-18
6.991630E+03	6.890884E-16	9.716153E-18
7.001477E+03	6.903666E-16	9.749120E-18
7.011324E+03	6.916870E-16	9.781818E-18
7.021172E+03	6.929540E-16	9.812883E-18
7.031019E+03	6.940926E-16	9.841242E-18
7.040867E+03	6.950170E-16	9.865659E-18
7.050714E+03	6.956423E-16	9.884908E-18
7.060561E+03	6.958785E-16	9.897691E-18
7.070409E+03	6.956540E-16	9.902970E-18
7.080256E+03	6.949311E-16	9.900189E-18
7.090103E+03	6.936361E-16	9.888284E-18
7.099951E+03	6.917327E-16	9.866727E-18
7.109798E+03	6.892243E-16	9.835559E-18
7.119645E+03	6.860826E-16	9.794378E-18
7.129493E+03	6.823466E-16	9.743744E-18
7.139340E+03	6.780242E-16	9.683783E-18
7.149188E+03	6.731769E-16	9.615390E-18
7.159035E+03	6.678694E-16	9.539509E-18
7.168882E+03	6.621906E-16	9.457441E-18
7.178730E+03	6.562124E-16	9.370241E-18
7.188577E+03	6.500220E-16	9.279187E-18
7.198424E+03	6.437050E-16	9.185537E-18
7.208272E+03	6.373555E-16	9.090666E-18
7.218119E+03	6.310462E-16	8.995649E-18
7.227967E+03	6.248329E-16	8.901311E-18
7.237814E+03	6.187864E-16	8.808694E-18
7.247661E+03	6.129583E-16	8.718559E-18
7.257509E+03	6.073972E-16	8.631623E-18
7.267356E+03	6.021466E-16	8.548528E-18
7.277203E+03	5.972596E-16	8.470045E-18
7.287051E+03	5.927655E-16	8.396605E-18
7.296898E+03	5.887059E-16	8.328807E-18
7.306745E+03	5.851411E-16	8.267513E-18
7.316593E+03	5.820927E-16	8.213027E-18
7.326440E+03	5.796261E-16	8.166267E-18
7.336288E+03	5.777773E-16	8.127732E-18
7.346135E+03	5.765851E-16	8.097952E-18
7.355982E+03	5.761010E-16	8.077628E-18
7.365830E+03	5.763868E-16	8.067601E-18
7.375677E+03	5.774704E-16	8.068223E-18
7.385524E+03	5.793950E-16	8.080062E-18
7.395372E+03	5.822073E-16	8.103722E-18
7.405219E+03	5.859101E-16	8.139190E-18
7.415066E+03	5.905369E-16	8.186881E-18
7.424914E+03	5.960639E-16	8.246406E-18
7.434761E+03	6.024719E-16	8.317445E-18
7.444609E+03	6.097525E-16	8.399826E-18
7.454456E+03	6.178235E-16	8.492366E-18
7.464303E+03	6.266361E-16	8.594352E-18
7.474151E+03	6.361296E-16	8.704913E-18
7.483998E+03	6.461994E-16	8.822588E-18
7.493845E+03	6.567815E-16	8.946488E-18
7.503693E+03	6.677588E-16	9.075012E-18
7.513540E+03	6.790389E-16	9.206914E-18
7.523387E+03	6.905551E-16	9.341311E-18
7.533235E+03	7.021915E-16	9.476668E-18
7.543082E+03	7.138617E-16	9.611870E-18
7.552930E+03	7.254971E-16	9.746058E-18
7.562777E+03	7.370046E-16	9.878053E-18
7.572624E+03	7.483233E-16	1.000713E-17
7.582472E+03	7.593653E-16	1.013221E-17
7.592319E+03	7.700612E-16	1.025248E-17
7.602166E+03	7.803560E-16	1.036734E-17
7.612014E+03	7.901688E-16	1.047583E-17
7.621861E+03	7.994492E-16	1.057743E-17
7.631709E+03	8.080996E-16	1.067100E-17
7.641556E+03	8.160841E-16	1.075622E-17
