#wls	flux	fluxerr
1.575579E+03	1.990051E-18	1.521994E-19
1.614968E+03	2.061242E-18	1.574723E-19
1.654357E+03	2.124078E-18	1.620914E-19
1.693747E+03	2.177654E-18	1.659894E-19
1.733136E+03	2.220902E-18	1.690870E-19
1.772526E+03	2.251884E-18	1.712393E-19
1.811915E+03	2.266088E-18	1.721066E-19
1.851305E+03	2.259097E-18	1.713585E-19
1.890694E+03	2.225864E-18	1.686187E-19
1.930084E+03	2.162450E-18	1.635971E-19
1.969473E+03	2.068563E-18	1.562811E-19
2.008863E+03	1.951602E-18	1.472388E-19
2.048252E+03	1.829197E-18	1.378066E-19
2.087642E+03	1.729175E-18	1.300804E-19
2.127031E+03	1.683194E-18	1.264314E-19
2.166420E+03	1.715776E-18	1.286808E-19
2.205810E+03	1.838773E-18	1.376883E-19
2.245199E+03	2.048820E-18	1.531695E-19
2.284589E+03	2.332854E-18	1.741160E-19
2.323978E+03	2.673649E-18	1.992146E-19
2.363368E+03	3.054791E-18	2.272199E-19
2.402757E+03	3.463984E-18	2.572001E-19
2.442147E+03	3.894277E-18	2.886252E-19
2.481536E+03	4.342896E-18	3.212779E-19
2.520926E+03	4.809344E-18	3.551095E-19
2.560315E+03	5.296352E-18	3.903096E-19
2.599705E+03	5.806314E-18	4.270408E-19
2.639094E+03	6.342835E-18	4.655530E-19
2.678484E+03	6.909715E-18	5.061072E-19
2.717873E+03	7.511704E-18	5.490314E-19
2.757262E+03	8.152481E-18	5.945714E-19
2.796652E+03	8.834235E-18	6.428618E-19
2.836041E+03	9.562060E-18	6.942457E-19
2.875431E+03	1.033988E-17	7.489772E-19
2.914820E+03	1.117167E-17	8.073101E-19
2.954210E+03	1.206063E-17	8.694396E-19
2.964057E+03	1.229213E-17	8.855844E-19
2.973904E+03	1.252816E-17	9.020317E-19
2.983752E+03	1.276881E-17	9.187885E-19
2.993599E+03	1.301422E-17	9.358625E-19
3.003447E+03	1.326309E-17	9.531607E-19
3.013294E+03	1.351842E-17	9.708978E-19
3.023141E+03	1.377754E-17	9.888807E-19
3.032989E+03	1.404317E-17	1.007304E-18
3.042836E+03	1.431446E-17	1.026106E-18
3.052683E+03	1.459391E-17	1.045465E-18
3.062531E+03	1.488447E-17	1.065589E-18
3.072378E+03	1.518470E-17	1.086376E-18
3.082226E+03	1.549471E-17	1.107830E-18
3.092073E+03	1.581467E-17	1.129963E-18
3.101920E+03	1.614639E-17	1.152903E-18
3.111768E+03	1.648866E-17	1.176561E-18
3.121615E+03	1.684185E-17	1.200961E-18
3.131462E+03	1.720803E-17	1.226249E-18
3.141310E+03	1.758777E-17	1.252464E-18
3.151157E+03	1.798004E-17	1.279531E-18
3.161004E+03	1.838717E-17	1.307613E-18
3.170852E+03	1.880989E-17	1.336759E-18
3.180699E+03	1.924899E-17	1.367023E-18
3.190547E+03	1.970356E-17	1.398338E-18
3.200394E+03	2.017615E-17	1.430882E-18
3.210241E+03	2.066938E-17	1.464838E-18
3.220089E+03	2.118057E-17	1.500012E-18
3.229936E+03	2.171413E-17	1.536714E-18
3.239783E+03	2.226906E-17	1.574870E-18
3.249631E+03	2.284798E-17	1.614660E-18
3.259478E+03	2.344782E-17	1.655864E-18
3.269325E+03	2.407483E-17	1.698919E-18
3.279173E+03	2.472377E-17	1.743452E-18
3.289020E+03	2.540081E-17	1.789893E-18
3.298868E+03	2.610225E-17	1.837978E-18
3.308715E+03	2.683017E-17	1.887849E-18
3.318562E+03	2.758447E-17	1.939492E-18
3.328410E+03	2.836489E-17	1.992887E-18
3.338257E+03	2.917094E-17	2.047994E-18
3.348104E+03	3.000416E-17	2.104915E-18
3.357952E+03	3.085937E-17	2.163285E-18
3.367799E+03	3.173989E-17	2.223330E-18
3.377646E+03	3.264448E-17	2.284961E-18
3.387494E+03	3.356956E-17	2.347920E-18
3.397341E+03	3.451572E-17	2.412248E-18
3.407189E+03	3.547895E-17	2.477658E-18
3.417036E+03	3.646196E-17	2.544338E-18
3.426883E+03	3.745802E-17	2.611814E-18
3.436731E+03	3.846972E-17	2.680263E-18
3.446578E+03	3.949239E-17	2.749357E-18
3.456425E+03	4.052368E-17	2.818931E-18
3.466273E+03	4.156365E-17	2.888986E-18
3.476120E+03	4.260992E-17	2.959356E-18
3.485968E+03	4.365747E-17	3.029690E-18
3.495815E+03	4.470648E-17	3.100000E-18
3.505662E+03	4.575456E-17	3.170118E-18
3.515510E+03	4.679948E-17	3.239892E-18
3.525357E+03	4.783911E-17	3.309172E-18
3.535204E+03	4.887414E-17	3.378007E-18
3.545052E+03	4.990019E-17	3.446095E-18
3.554899E+03	5.091578E-17	3.513335E-18
3.564746E+03	5.192511E-17	3.580016E-18
3.574594E+03	5.292200E-17	3.645716E-18
3.584441E+03	5.390870E-17	3.710587E-18
3.594289E+03	5.488779E-17	3.774812E-18
3.604136E+03	5.585425E-17	3.838044E-18
3.613983E+03	5.681424E-17	3.900709E-18
3.623831E+03	5.776880E-17	3.962878E-18
3.633678E+03	5.871675E-17	4.024471E-18
3.643525E+03	5.966518E-17	4.085974E-18
3.653373E+03	6.061059E-17	4.147148E-18
3.663220E+03	6.155777E-17	4.208318E-18
3.673067E+03	6.250869E-17	4.269620E-18
3.682915E+03	6.346799E-17	4.331369E-18
3.692762E+03	6.443460E-17	4.393490E-18
3.702610E+03	6.541246E-17	4.456249E-18
3.712457E+03	6.640232E-17	4.519695E-18
3.722304E+03	6.740157E-17	4.583648E-18
3.732152E+03	6.841493E-17	4.648426E-18
3.741999E+03	6.943816E-17	4.713738E-18
3.751846E+03	7.046885E-17	4.779420E-18
3.761694E+03	7.150360E-17	4.845237E-18
3.771541E+03	7.254065E-17	4.911071E-18
3.781388E+03	7.357207E-17	4.976384E-18
3.791236E+03	7.459425E-17	5.040932E-18
3.801083E+03	7.560275E-17	5.104416E-18
3.810931E+03	7.658468E-17	5.165970E-18
3.820778E+03	7.753450E-17	5.225225E-18
3.830625E+03	7.844370E-17	5.281613E-18
3.840473E+03	7.930370E-17	5.334564E-18
3.850320E+03	8.010857E-17	5.383688E-18
3.860167E+03	8.084764E-17	5.428280E-18
3.870015E+03	8.151332E-17	5.467842E-18
3.879862E+03	8.210130E-17	5.502100E-18
3.889710E+03	8.260318E-17	5.530504E-18
3.899557E+03	8.301655E-17	5.552911E-18
3.909404E+03	8.333775E-17	5.569091E-18
3.919252E+03	8.356196E-17	5.578743E-18
3.929099E+03	8.369037E-17	5.581962E-18
3.938946E+03	8.372087E-17	5.578628E-18
3.948794E+03	8.365702E-17	5.568995E-18
3.958641E+03	8.350129E-17	5.553248E-18
3.968488E+03	8.325512E-17	5.531498E-18
3.978336E+03	8.292508E-17	5.504201E-18
3.988183E+03	8.251245E-17	5.471457E-18
3.998031E+03	8.202932E-17	5.434085E-18
4.007878E+03	8.147625E-17	5.392135E-18
4.017725E+03	8.086425E-17	5.346349E-18
4.027573E+03	8.019679E-17	5.296969E-18
4.037420E+03	7.948518E-17	5.244751E-18
4.047267E+03	7.873341E-17	5.189969E-18
4.057115E+03	7.794927E-17	5.133144E-18
4.066962E+03	7.714217E-17	5.074901E-18
4.076809E+03	7.631635E-17	5.015524E-18
4.086657E+03	7.548259E-17	4.955726E-18
4.096504E+03	7.464501E-17	4.895778E-18
4.106352E+03	7.380939E-17	4.836061E-18
4.116199E+03	7.298580E-17	4.777233E-18
4.126046E+03	7.217823E-17	4.719555E-18
4.135894E+03	7.139351E-17	4.663468E-18
4.145741E+03	7.063827E-17	4.609402E-18
4.155588E+03	6.991780E-17	4.557696E-18
4.165436E+03	6.923854E-17	4.508763E-18
4.175283E+03	6.860572E-17	4.462935E-18
4.185130E+03	6.802447E-17	4.420537E-18
4.194978E+03	6.750113E-17	4.381970E-18
4.204825E+03	6.704195E-17	4.347627E-18
4.214673E+03	6.665070E-17	4.317742E-18
4.224520E+03	6.633345E-17	4.292692E-18
4.234367E+03	6.609594E-17	4.272833E-18
4.244215E+03	6.594041E-17	4.258296E-18
4.254062E+03	6.587315E-17	4.249469E-18
4.263909E+03	6.589662E-17	4.246493E-18
4.273757E+03	6.601475E-17	4.249602E-18
4.283604E+03	6.622855E-17	4.258843E-18
4.293452E+03	6.653904E-17	4.274261E-18
4.303299E+03	6.694520E-17	4.295771E-18
4.313146E+03	6.744806E-17	4.323420E-18
4.322994E+03	6.804384E-17	4.356947E-18
4.332841E+03	6.873409E-17	4.396430E-18
4.342688E+03	6.951967E-17	4.441906E-18
4.352536E+03	7.040235E-17	4.493468E-18
4.362383E+03	7.138076E-17	4.551010E-18
4.372230E+03	7.245482E-17	4.614506E-18
4.382078E+03	7.362064E-17	4.683688E-18
4.391925E+03	7.487460E-17	4.758309E-18
4.401773E+03	7.621126E-17	4.838005E-18
4.411620E+03	7.762354E-17	4.922309E-18
4.421467E+03	7.910390E-17	5.010728E-18
4.431315E+03	8.064125E-17	5.102546E-18
4.441162E+03	8.222643E-17	5.197174E-18
4.451009E+03	8.384609E-17	5.293757E-18
4.460857E+03	8.548814E-17	5.391528E-18
4.470704E+03	8.713888E-17	5.489617E-18
4.480551E+03	8.878431E-17	5.587144E-18
4.490399E+03	9.041172E-17	5.683309E-18
4.500246E+03	9.200760E-17	5.777268E-18
4.510094E+03	9.355924E-17	5.868231E-18
4.519941E+03	9.505615E-17	5.955550E-18
4.529788E+03	9.648816E-17	6.038602E-18
4.539636E+03	9.784554E-17	6.116789E-18
4.549483E+03	9.912391E-17	6.189856E-18
4.559330E+03	1.003186E-16	6.257530E-18
4.569178E+03	1.014270E-16	6.319662E-18
4.579025E+03	1.024486E-16	6.376234E-18
4.588872E+03	1.033857E-16	6.427425E-18
4.598720E+03	1.042429E-16	6.473517E-18
4.608567E+03	1.050233E-16	6.514739E-18
4.618415E+03	1.057354E-16	6.551620E-18
4.628262E+03	1.063872E-16	6.584672E-18
4.638109E+03	1.069836E-16	6.614214E-18
4.647957E+03	1.075371E-16	6.641028E-18
4.657804E+03	1.080528E-16	6.665446E-18
4.667651E+03	1.085393E-16	6.687993E-18
4.677499E+03	1.090043E-16	6.709162E-18
4.687346E+03	1.094527E-16	6.729245E-18
4.697194E+03	1.098892E-16	6.748549E-18
4.707041E+03	1.103153E-16	6.767160E-18
4.716888E+03	1.107350E-16	6.785333E-18
4.726736E+03	1.111513E-16	6.803247E-18
4.736583E+03	1.115662E-16	6.821022E-18
4.746430E+03	1.119793E-16	6.838647E-18
4.756278E+03	1.123911E-16	6.856143E-18
4.766125E+03	1.127986E-16	6.873338E-18
4.775972E+03	1.132001E-16	6.890117E-18
4.785820E+03	1.135932E-16	6.906349E-18
4.795667E+03	1.139746E-16	6.921825E-18
4.805515E+03	1.143433E-16	6.936499E-18
4.815362E+03	1.146964E-16	6.950191E-18
4.825209E+03	1.150338E-16	6.962896E-18
4.835057E+03	1.153534E-16	6.974496E-18
4.844904E+03	1.156550E-16	6.984985E-18
4.854751E+03	1.159403E-16	6.994466E-18
4.864599E+03	1.162091E-16	7.002932E-18
4.874446E+03	1.164643E-16	7.010566E-18
4.884293E+03	1.167082E-16	7.017498E-18
4.894141E+03	1.169432E-16	7.023892E-18
4.903988E+03	1.171725E-16	7.029928E-18
4.913836E+03	1.174004E-16	7.035875E-18
4.923683E+03	1.176301E-16	7.041920E-18
4.933530E+03	1.178648E-16	7.048261E-18
4.943378E+03	1.181088E-16	7.055145E-18
4.953225E+03	1.183621E-16	7.062583E-18
4.963072E+03	1.186306E-16	7.070922E-18
4.972920E+03	1.189148E-16	7.080184E-18
4.982767E+03	1.192157E-16	7.090427E-18
4.992614E+03	1.195346E-16	7.101732E-18
5.002462E+03	1.198698E-16	7.113999E-18
5.012309E+03	1.202212E-16	7.127211E-18
5.022157E+03	1.205867E-16	7.141243E-18
5.032004E+03	1.209644E-16	7.155985E-18
5.041851E+03	1.213493E-16	7.171138E-18
5.051699E+03	1.217381E-16	7.186506E-18
5.061546E+03	1.221242E-16	7.201707E-18
5.071393E+03	1.225031E-16	7.216468E-18
5.081241E+03	1.228683E-16	7.230417E-18
5.091088E+03	1.232131E-16	7.243161E-18
5.100935E+03	1.235317E-16	7.254365E-18
5.110783E+03	1.238145E-16	7.263472E-18
5.120630E+03	1.240570E-16	7.270224E-18
5.130478E+03	1.242497E-16	7.274078E-18
5.140325E+03	1.243888E-16	7.274813E-18
5.150172E+03	1.244683E-16	7.272099E-18
5.160020E+03	1.244804E-16	7.265491E-18
5.169867E+03	1.244234E-16	7.254900E-18
5.179714E+03	1.242926E-16	7.240068E-18
5.189562E+03	1.240859E-16	7.220885E-18
5.199409E+03	1.238036E-16	7.197377E-18
5.209257E+03	1.234434E-16	7.169433E-18
5.219104E+03	1.230083E-16	7.137239E-18
5.228951E+03	1.225026E-16	7.101055E-18
5.238799E+03	1.219271E-16	7.060942E-18
5.248646E+03	1.212913E-16	7.017455E-18
5.258493E+03	1.205996E-16	6.970873E-18
5.268341E+03	1.198617E-16	6.921750E-18
5.278188E+03	1.190868E-16	6.870632E-18
5.288035E+03	1.182827E-16	6.817973E-18
5.297883E+03	1.174626E-16	6.764543E-18
5.307730E+03	1.166381E-16	6.711000E-18
5.317578E+03	1.158183E-16	6.657880E-18
5.327425E+03	1.150183E-16	6.606046E-18
5.337272E+03	1.142471E-16	6.556004E-18
5.347120E+03	1.135162E-16	6.508417E-18
5.356967E+03	1.128361E-16	6.463876E-18
5.366814E+03	1.122155E-16	6.422878E-18
5.376662E+03	1.116616E-16	6.385818E-18
5.386509E+03	1.111791E-16	6.352960E-18
5.396356E+03	1.107732E-16	6.324590E-18
5.406204E+03	1.104442E-16	6.300706E-18
5.416051E+03	1.101937E-16	6.281403E-18
5.425899E+03	1.100181E-16	6.266447E-18
5.435746E+03	1.099180E-16	6.255876E-18
5.445593E+03	1.098867E-16	6.249286E-18
5.455441E+03	1.099198E-16	6.246428E-18
5.465288E+03	1.100117E-16	6.246972E-18
5.475135E+03	1.101524E-16	6.250346E-18
5.484983E+03	1.103356E-16	6.256185E-18
5.494830E+03	1.105537E-16	6.264047E-18
5.504677E+03	1.107991E-16	6.273506E-18
5.514525E+03	1.110623E-16	6.284020E-18
5.524372E+03	1.113390E-16	6.295344E-18
5.534220E+03	1.116222E-16	6.307080E-18
5.544067E+03	1.119081E-16	6.319012E-18
5.553914E+03	1.121913E-16	6.330838E-18
5.563762E+03	1.124696E-16	6.342434E-18
5.573609E+03	1.127392E-16	6.353591E-18
5.583456E+03	1.129994E-16	6.364266E-18
5.593304E+03	1.132478E-16	6.374327E-18
5.603151E+03	1.134858E-16	6.383853E-18
5.612999E+03	1.137107E-16	6.392695E-18
5.622846E+03	1.139247E-16	6.400975E-18
5.632693E+03	1.141254E-16	6.408567E-18
5.642541E+03	1.143153E-16	6.415610E-18
5.652388E+03	1.144935E-16	6.422056E-18
5.662235E+03	1.146612E-16	6.427973E-18
5.672083E+03	1.148175E-16	6.433306E-18
5.681930E+03	1.149623E-16	6.438059E-18
5.691777E+03	1.150966E-16	6.442290E-18
5.701625E+03	1.152191E-16	6.445922E-18
5.711472E+03	1.153306E-16	6.449005E-18
5.721320E+03	1.154306E-16	6.451509E-18
5.731167E+03	1.155175E-16	6.453349E-18
5.741014E+03	1.155919E-16	6.454558E-18
5.750862E+03	1.156532E-16	6.455104E-18
5.760709E+03	1.156997E-16	6.454898E-18
5.770556E+03	1.157309E-16	6.453909E-18
5.780404E+03	1.157488E-16	6.452251E-18
5.790251E+03	1.157507E-16	6.449780E-18
5.800098E+03	1.157366E-16	6.446485E-18
5.809946E+03	1.157076E-16	6.442439E-18
5.819793E+03	1.156626E-16	6.437583E-18
5.829641E+03	1.156033E-16	6.432006E-18
5.839488E+03	1.155277E-16	6.425599E-18
5.849335E+03	1.154388E-16	6.418533E-18
5.859183E+03	1.153360E-16	6.410777E-18
5.869030E+03	1.152202E-16	6.402379E-18
5.878877E+03	1.150910E-16	6.393318E-18
5.888725E+03	1.149504E-16	6.383705E-18
5.898572E+03	1.147980E-16	6.373524E-18
5.908419E+03	1.146358E-16	6.362876E-18
5.918267E+03	1.144620E-16	6.351676E-18
5.928114E+03	1.142784E-16	6.340012E-18
5.937962E+03	1.140842E-16	6.327851E-18
5.947809E+03	1.138799E-16	6.315208E-18
5.957656E+03	1.136643E-16	6.302030E-18
5.967504E+03	1.134388E-16	6.288390E-18
5.977351E+03	1.132023E-16	6.274224E-18
5.987198E+03	1.129536E-16	6.259469E-18
5.997046E+03	1.126926E-16	6.244123E-18
6.006893E+03	1.124183E-16	6.228122E-18
6.016741E+03	1.121305E-16	6.211468E-18
6.026588E+03	1.118296E-16	6.194169E-18
6.036435E+03	1.115133E-16	6.176114E-18
6.046283E+03	1.111834E-16	6.157385E-18
6.056130E+03	1.108402E-16	6.138016E-18
6.065977E+03	1.104823E-16	6.117917E-18
6.075825E+03	1.101115E-16	6.097196E-18
6.085672E+03	1.097289E-16	6.075905E-18
6.095519E+03	1.093342E-16	6.054038E-18
6.105367E+03	1.089308E-16	6.031770E-18
6.115214E+03	1.085194E-16	6.009153E-18
6.125062E+03	1.081011E-16	5.986239E-18
6.134909E+03	1.076765E-16	5.963064E-18
6.144756E+03	1.072473E-16	5.939718E-18
6.154604E+03	1.068137E-16	5.916214E-18
6.164451E+03	1.063756E-16	5.892551E-18
6.174298E+03	1.059327E-16	5.868710E-18
6.184146E+03	1.054856E-16	5.844717E-18
6.193993E+03	1.050343E-16	5.820578E-18
6.203840E+03	1.045767E-16	5.796171E-18
6.213688E+03	1.041124E-16	5.771482E-18
6.223535E+03	1.036390E-16	5.746371E-18
6.233383E+03	1.031572E-16	5.720877E-18
6.243230E+03	1.026647E-16	5.694866E-18
6.253077E+03	1.021603E-16	5.668281E-18
6.262925E+03	1.016435E-16	5.641086E-18
6.272772E+03	1.011150E-16	5.613321E-18
6.282619E+03	1.005733E-16	5.584904E-18
6.292467E+03	1.000216E-16	5.556006E-18
6.302314E+03	9.946093E-17	5.526686E-18
6.312161E+03	9.889414E-17	5.497101E-18
6.322009E+03	9.832495E-17	5.467457E-18
6.331856E+03	9.775702E-17	5.437955E-18
6.341704E+03	9.719562E-17	5.408889E-18
6.351551E+03	9.664669E-17	5.380588E-18
6.361398E+03	9.611638E-17	5.353396E-18
6.371246E+03	9.561094E-17	5.327661E-18
6.381093E+03	9.513518E-17	5.303652E-18
6.390940E+03	9.469408E-17	5.281649E-18
6.400788E+03	9.429028E-17	5.261800E-18
6.410635E+03	9.392772E-17	5.244327E-18
6.420483E+03	9.360671E-17	5.229247E-18
6.430330E+03	9.332485E-17	5.216428E-18
6.440177E+03	9.308575E-17	5.206075E-18
6.450025E+03	9.289044E-17	5.198245E-18
6.459872E+03	9.274248E-17	5.193143E-18
6.469719E+03	9.264101E-17	5.190721E-18
6.479567E+03	9.258504E-17	5.190929E-18
6.489414E+03	9.257219E-17	5.193635E-18
6.499261E+03	9.259792E-17	5.198590E-18
6.509109E+03	9.265795E-17	5.205555E-18
6.518956E+03	9.274668E-17	5.214218E-18
6.528804E+03	9.285958E-17	5.224328E-18
6.538651E+03	9.299123E-17	5.235581E-18
6.548498E+03	9.313771E-17	5.247757E-18
6.558346E+03	9.329362E-17	5.260553E-18
6.568193E+03	9.345716E-17	5.273868E-18
6.578040E+03	9.362415E-17	5.287465E-18
6.587888E+03	9.379315E-17	5.301264E-18
6.597735E+03	9.396324E-17	5.315211E-18
6.607582E+03	9.413109E-17	5.329116E-18
6.617430E+03	9.429906E-17	5.343114E-18
6.627277E+03	9.446473E-17	5.357065E-18
6.637125E+03	9.462937E-17	5.371041E-18
6.646972E+03	9.479447E-17	5.385125E-18
6.656819E+03	9.495984E-17	5.399305E-18
6.666667E+03	9.512637E-17	5.413632E-18
6.676514E+03	9.529646E-17	5.428241E-18
6.686361E+03	9.547248E-17	5.443268E-18
6.696209E+03	9.565367E-17	5.458667E-18
6.706056E+03	9.584255E-17	5.474585E-18
6.715903E+03	9.604176E-17	5.491172E-18
6.725751E+03	9.625160E-17	5.508446E-18
6.735598E+03	9.647341E-17	5.526485E-18
6.745446E+03	9.670970E-17	5.545434E-18
6.755293E+03	9.696049E-17	5.565296E-18
6.765140E+03	9.722928E-17	5.586274E-18
6.774988E+03	9.751358E-17	5.608226E-18
6.784835E+03	9.781778E-17	5.631407E-18
6.794682E+03	9.814154E-17	5.655802E-18
6.804530E+03	9.848439E-17	5.681385E-18
6.814377E+03	9.884805E-17	5.708259E-18
6.824225E+03	9.923314E-17	5.736462E-18
6.834072E+03	9.964120E-17	5.766087E-18
6.843919E+03	1.000702E-16	5.797023E-18
6.853767E+03	1.005217E-16	5.829358E-18
6.863614E+03	1.009959E-16	5.863111E-18
6.873461E+03	1.014931E-16	5.898297E-18
6.883309E+03	1.020133E-16	5.934930E-18
6.893156E+03	1.025554E-16	5.972949E-18
6.903003E+03	1.031221E-16	6.012506E-18
6.912851E+03	1.037120E-16	6.053530E-18
6.922698E+03	1.043238E-16	6.095945E-18
6.932546E+03	1.049586E-16	6.139824E-18
6.942393E+03	1.056160E-16	6.185149E-18
6.952240E+03	1.062957E-16	6.231902E-18
6.962088E+03	1.069972E-16	6.280054E-18
6.971935E+03	1.077182E-16	6.329486E-18
6.981782E+03	1.084580E-16	6.380146E-18
6.991630E+03	1.092165E-16	6.432045E-18
7.001477E+03	1.099925E-16	6.485106E-18
7.011324E+03	1.107815E-16	6.539072E-18
7.021172E+03	1.115844E-16	6.593994E-18
7.031019E+03	1.123978E-16	6.649672E-18
7.040867E+03	1.132189E-16	6.705954E-18
7.050714E+03	1.140454E-16	6.762692E-18
7.060561E+03	1.148743E-16	6.819710E-18
7.070409E+03	1.157023E-16	6.876821E-18
7.080256E+03	1.165248E-16	6.933744E-18
7.090103E+03	1.173382E-16	6.990261E-18
7.099951E+03	1.181404E-16	7.046248E-18
7.109798E+03	1.189276E-16	7.101477E-18
7.119645E+03	1.196931E-16	7.155539E-18
7.129493E+03	1.204344E-16	7.208288E-18
7.139340E+03	1.211479E-16	7.259492E-18
7.149188E+03	1.218299E-16	7.308925E-18
7.159035E+03	1.224753E-16	7.356279E-18
7.168882E+03	1.230807E-16	7.401336E-18
7.178730E+03	1.236447E-16	7.444007E-18
7.188577E+03	1.241615E-16	7.483927E-18
7.198424E+03	1.246303E-16	7.521042E-18
7.208272E+03	1.250492E-16	7.555227E-18
7.218119E+03	1.254138E-16	7.586200E-18
7.227967E+03	1.257265E-16	7.614100E-18
7.237814E+03	1.259841E-16	7.638713E-18
7.247661E+03	1.261869E-16	7.660054E-18
7.257509E+03	1.263348E-16	7.678097E-18
7.267356E+03	1.264312E-16	7.693041E-18
7.277203E+03	1.264755E-16	7.704833E-18
7.287051E+03	1.264694E-16	7.713567E-18
7.296898E+03	1.264184E-16	7.719570E-18
7.306745E+03	1.263238E-16	7.722910E-18
7.316593E+03	1.261891E-16	7.723786E-18
7.326440E+03	1.260196E-16	7.722520E-18
7.336288E+03	1.258229E-16	7.719561E-18
7.346135E+03	1.256063E-16	7.715367E-18
7.355982E+03	1.253762E-16	7.710310E-18
7.365830E+03	1.251400E-16	7.704853E-18
7.375677E+03	1.249037E-16	7.699356E-18
7.385524E+03	1.246744E-16	7.694259E-18
7.395372E+03	1.244557E-16	7.689784E-18
7.405219E+03	1.242553E-16	7.686417E-18
7.415066E+03	1.240756E-16	7.684306E-18
7.424914E+03	1.239217E-16	7.683764E-18
7.434761E+03	1.237960E-16	7.684954E-18
7.444609E+03	1.237019E-16	7.688086E-18
7.454456E+03	1.236369E-16	7.693018E-18
7.464303E+03	1.236043E-16	7.699958E-18
7.474151E+03	1.236016E-16	7.708753E-18
7.483998E+03	1.236285E-16	7.719396E-18
7.493845E+03	1.236825E-16	7.731733E-18
7.503693E+03	1.237601E-16	7.745547E-18
7.513540E+03	1.238553E-16	7.760480E-18
7.523387E+03	1.239667E-16	7.776432E-18
7.533235E+03	1.240869E-16	7.792953E-18
7.543082E+03	1.242116E-16	7.809769E-18
7.552930E+03	1.243310E-16	7.826260E-18
7.562777E+03	1.244415E-16	7.842203E-18
7.572624E+03	1.245360E-16	7.857150E-18
7.582472E+03	1.246057E-16	7.870532E-18
7.592319E+03	1.246449E-16	7.881997E-18
7.602166E+03	1.246449E-16	7.890973E-18
7.612014E+03	1.246005E-16	7.897123E-18
7.621861E+03	1.245031E-16	7.899898E-18
7.631709E+03	1.243482E-16	7.899001E-18
7.641556E+03	1.241300E-16	7.894049E-18
