#wls	flux	fluxerr
1.575579E+03	1.410866E-18	4.154734E-20
1.614968E+03	1.461524E-18	4.295115E-20
1.654357E+03	1.505907E-18	4.416250E-20
1.693747E+03	1.543608E-18	4.517042E-20
1.733136E+03	1.573597E-18	4.594584E-20
1.772526E+03	1.594473E-18	4.644923E-20
1.811915E+03	1.603340E-18	4.659819E-20
1.851305E+03	1.596813E-18	4.629684E-20
1.890694E+03	1.571387E-18	4.544705E-20
1.930084E+03	1.524378E-18	4.397555E-20
1.969473E+03	1.455721E-18	4.188540E-20
2.008863E+03	1.370760E-18	3.933518E-20
2.048252E+03	1.281812E-18	3.668158E-20
2.087642E+03	1.208665E-18	3.449066E-20
2.127031E+03	1.173131E-18	3.337957E-20
2.166420E+03	1.191998E-18	3.381541E-20
2.205810E+03	1.272930E-18	3.600094E-20
2.245199E+03	1.412927E-18	3.983493E-20
2.284589E+03	1.602257E-18	4.502724E-20
2.323978E+03	1.827886E-18	5.119813E-20
2.363368E+03	2.078214E-18	5.801219E-20
2.402757E+03	2.344456E-18	6.521632E-20
2.442147E+03	2.621250E-18	7.265545E-20
2.481536E+03	2.906519E-18	8.026721E-20
2.520926E+03	3.199434E-18	8.802415E-20
2.560315E+03	3.501306E-18	9.595780E-20
2.599705E+03	3.814372E-18	1.041242E-19
2.639094E+03	4.140313E-18	1.125631E-19
2.678484E+03	4.481526E-18	1.213327E-19
2.717873E+03	4.841889E-18	1.305299E-19
2.757262E+03	5.222974E-18	1.401875E-19
2.796652E+03	5.629834E-18	1.504304E-19
2.836041E+03	6.064324E-18	1.612954E-19
2.875431E+03	6.530630E-18	1.728799E-19
2.914820E+03	7.033370E-18	1.852901E-19
2.954210E+03	7.576715E-18	1.986174E-19
2.964057E+03	7.719186E-18	2.020978E-19
2.973904E+03	7.865011E-18	2.056553E-19
2.983752E+03	8.013327E-18	2.092669E-19
2.993599E+03	8.165160E-18	2.129591E-19
3.003447E+03	8.319630E-18	2.167084E-19
3.013294E+03	8.477782E-18	2.205419E-19
3.023141E+03	8.638711E-18	2.244355E-19
3.032989E+03	8.804173E-18	2.284344E-19
3.042836E+03	8.972665E-18	2.324991E-19
3.052683E+03	9.146466E-18	2.366883E-19
3.062531E+03	9.326487E-18	2.410247E-19
3.072378E+03	9.511543E-18	2.454772E-19
3.082226E+03	9.702604E-18	2.500700E-19
3.092073E+03	9.898479E-18	2.547719E-19
3.101920E+03	1.010019E-17	2.596085E-19
3.111768E+03	1.030654E-17	2.645482E-19
3.121615E+03	1.051975E-17	2.696478E-19
3.131462E+03	1.073630E-17	2.748158E-19
3.141310E+03	1.095966E-17	2.801408E-19
3.151157E+03	1.118742E-17	2.855602E-19
3.161004E+03	1.141951E-17	2.910718E-19
3.170852E+03	1.165837E-17	2.967372E-19
3.180699E+03	1.190023E-17	3.024596E-19
3.190547E+03	1.214886E-17	3.083343E-19
3.200394E+03	1.240169E-17	3.142954E-19
3.210241E+03	1.266000E-17	3.203746E-19
3.220089E+03	1.292245E-17	3.265371E-19
3.229936E+03	1.319037E-17	3.328160E-19
3.239783E+03	1.346375E-17	3.392106E-19
3.249631E+03	1.374262E-17	3.457206E-19
3.259478E+03	1.402554E-17	3.523093E-19
3.269325E+03	1.431393E-17	3.590116E-19
3.279173E+03	1.460633E-17	3.657900E-19
3.289020E+03	1.490417E-17	3.726799E-19
3.298868E+03	1.520745E-17	3.796808E-19
3.308715E+03	1.551620E-17	3.867922E-19
3.318562E+03	1.582885E-17	3.939743E-19
3.328410E+03	1.614691E-17	4.012643E-19
3.338257E+03	1.647039E-17	4.086615E-19
3.348104E+03	1.679764E-17	4.161245E-19
3.357952E+03	1.713025E-17	4.236915E-19
3.367799E+03	1.746818E-17	4.313614E-19
3.377646E+03	1.780974E-17	4.390912E-19
3.387494E+03	1.815826E-17	4.469624E-19
3.397341E+03	1.851029E-17	4.548896E-19
3.407189E+03	1.886750E-17	4.629127E-19
3.417036E+03	1.922805E-17	4.709863E-19
3.426883E+03	1.959365E-17	4.791512E-19
3.436731E+03	1.996422E-17	4.874053E-19
3.446578E+03	2.033973E-17	4.957464E-19
3.456425E+03	2.072009E-17	5.041721E-19
3.466273E+03	2.110335E-17	5.126340E-19
3.476120E+03	2.149127E-17	5.211743E-19
3.485968E+03	2.188377E-17	5.297904E-19
3.495815E+03	2.227881E-17	5.384322E-19
3.505662E+03	2.267819E-17	5.471428E-19
3.515510E+03	2.308183E-17	5.559194E-19
3.525357E+03	2.348961E-17	5.647584E-19
3.535204E+03	2.390142E-17	5.736567E-19
3.545052E+03	2.431508E-17	5.825611E-19
3.554899E+03	2.473249E-17	5.915167E-19
3.564746E+03	2.515350E-17	6.005199E-19
3.574594E+03	2.557801E-17	6.095667E-19
3.584441E+03	2.600371E-17	6.186022E-19
3.594289E+03	2.643257E-17	6.276728E-19
3.604136E+03	2.686443E-17	6.367742E-19
3.613983E+03	2.729917E-17	6.459025E-19
3.623831E+03	2.773436E-17	6.550007E-19
3.633678E+03	2.817432E-17	6.641695E-19
3.643525E+03	2.861439E-17	6.732988E-19
3.653373E+03	2.905433E-17	6.823833E-19
3.663220E+03	2.949856E-17	6.915257E-19
3.673067E+03	2.994228E-17	7.006136E-19
3.682915E+03	3.038763E-17	7.096966E-19
3.692762E+03	3.083443E-17	7.187701E-19
3.702610E+03	3.128011E-17	7.277743E-19
3.712457E+03	3.172686E-17	7.367597E-19
3.722304E+03	3.217449E-17	7.457219E-19
3.732152E+03	3.262284E-17	7.546567E-19
3.741999E+03	3.306928E-17	7.635034E-19
3.751846E+03	3.351606E-17	7.723140E-19
3.761694E+03	3.396301E-17	7.810844E-19
3.771541E+03	3.440750E-17	7.897538E-19
3.781388E+03	3.485181E-17	7.983751E-19
3.791236E+03	3.529583E-17	8.069455E-19
3.801083E+03	3.573686E-17	8.154031E-19
3.810931E+03	3.617727E-17	8.238027E-19
3.820778E+03	3.661700E-17	8.321425E-19
3.830625E+03	3.705585E-17	8.404183E-19
3.840473E+03	3.749126E-17	8.485720E-19
3.850320E+03	3.792300E-17	8.565987E-19
3.860167E+03	3.835366E-17	8.645574E-19
3.870015E+03	3.878315E-17	8.724464E-19
3.879862E+03	3.921150E-17	8.802661E-19
3.889710E+03	3.963596E-17	8.879550E-19
3.899557E+03	4.005659E-17	8.955151E-19
3.909404E+03	4.047601E-17	9.030054E-19
3.919252E+03	4.089427E-17	9.104270E-19
3.929099E+03	4.130873E-17	9.177215E-19
3.938946E+03	4.172213E-17	9.249501E-19
3.948794E+03	4.213194E-17	9.320569E-19
3.958641E+03	4.253817E-17	9.390428E-19
3.968488E+03	4.294369E-17	9.459712E-19
3.978336E+03	4.334863E-17	9.528456E-19
3.988183E+03	4.375044E-17	9.596096E-19
3.998031E+03	4.414928E-17	9.662674E-19
4.007878E+03	4.454802E-17	9.728822E-19
4.017725E+03	4.494415E-17	9.793995E-19
4.027573E+03	4.533781E-17	9.858223E-19
4.037420E+03	4.573193E-17	9.922147E-19
4.047267E+03	4.612397E-17	9.985220E-19
4.057115E+03	4.651410E-17	1.004748E-18
4.066962E+03	4.690520E-17	1.010955E-18
4.076809E+03	4.729193E-17	1.017028E-18
4.086657E+03	4.767991E-17	1.023089E-18
4.096504E+03	4.806923E-17	1.029140E-18
4.106352E+03	4.845443E-17	1.035062E-18
4.116199E+03	4.884102E-17	1.040976E-18
4.126046E+03	4.922621E-17	1.046821E-18
4.135894E+03	4.960708E-17	1.052536E-18
4.145741E+03	4.998905E-17	1.058236E-18
4.155588E+03	5.037192E-17	1.063916E-18
4.165436E+03	5.074974E-17	1.069453E-18
4.175283E+03	5.112491E-17	1.074896E-18
4.185130E+03	5.149692E-17	1.080236E-18
4.194978E+03	5.186518E-17	1.085461E-18
4.204825E+03	5.222898E-17	1.090557E-18
4.214673E+03	5.258755E-17	1.095509E-18
4.224520E+03	5.294003E-17	1.100300E-18
4.234367E+03	5.328544E-17	1.104909E-18
4.244215E+03	5.362271E-17	1.109318E-18
4.254062E+03	5.394799E-17	1.113447E-18
4.263909E+03	5.426578E-17	1.117392E-18
4.273757E+03	5.456939E-17	1.121015E-18
4.283604E+03	5.486063E-17	1.124357E-18
4.293452E+03	5.513576E-17	1.127343E-18
4.303299E+03	5.539971E-17	1.130076E-18
4.313146E+03	5.564626E-17	1.132432E-18
4.322994E+03	5.587791E-17	1.134463E-18
4.332841E+03	5.609173E-17	1.136114E-18
4.342688E+03	5.629069E-17	1.137446E-18
4.352536E+03	5.647519E-17	1.138471E-18
4.362383E+03	5.664298E-17	1.139145E-18
4.372230E+03	5.679764E-17	1.139542E-18
4.382078E+03	5.693737E-17	1.139629E-18
4.391925E+03	5.706592E-17	1.139483E-18
4.401773E+03	5.718169E-17	1.139073E-18
4.411620E+03	5.728853E-17	1.138478E-18
4.421467E+03	5.738485E-17	1.137668E-18
4.431315E+03	5.747444E-17	1.136719E-18
4.441162E+03	5.755569E-17	1.135601E-18
4.451009E+03	5.763228E-17	1.134387E-18
4.460857E+03	5.769970E-17	1.132990E-18
4.470704E+03	5.776697E-17	1.131588E-18
4.480551E+03	5.782680E-17	1.130038E-18
4.490399E+03	5.788528E-17	1.128460E-18
4.500246E+03	5.794035E-17	1.126815E-18
4.510094E+03	5.799262E-17	1.125116E-18
4.519941E+03	5.804523E-17	1.123423E-18
4.529788E+03	5.809606E-17	1.121695E-18
4.539636E+03	5.814551E-17	1.119941E-18
4.549483E+03	5.819392E-17	1.118168E-18
4.559330E+03	5.824426E-17	1.116433E-18
4.569178E+03	5.829417E-17	1.114691E-18
4.579025E+03	5.834132E-17	1.112897E-18
4.588872E+03	5.839114E-17	1.111156E-18
4.598720E+03	5.844378E-17	1.109469E-18
4.608567E+03	5.849427E-17	1.107744E-18
4.618415E+03	5.854543E-17	1.106033E-18
4.628262E+03	5.859983E-17	1.104385E-18
4.638109E+03	5.865258E-17	1.102709E-18
4.647957E+03	5.870887E-17	1.101101E-18
4.657804E+03	5.876375E-17	1.099469E-18
4.667651E+03	5.882238E-17	1.097911E-18
4.677499E+03	5.888232E-17	1.096379E-18
4.687346E+03	5.894368E-17	1.094876E-18
4.697194E+03	5.900403E-17	1.093358E-18
4.707041E+03	5.906851E-17	1.091920E-18
4.716888E+03	5.913467E-17	1.090516E-18
4.726736E+03	5.920262E-17	1.089148E-18
4.736583E+03	5.927240E-17	1.087818E-18
4.746430E+03	5.934171E-17	1.086483E-18
4.756278E+03	5.941546E-17	1.085233E-18
4.766125E+03	5.949136E-17	1.084027E-18
4.775972E+03	5.956946E-17	1.082865E-18
4.785820E+03	5.964737E-17	1.081704E-18
4.795667E+03	5.973011E-17	1.080635E-18
4.805515E+03	5.981526E-17	1.079615E-18
4.815362E+03	5.990046E-17	1.078601E-18
4.825209E+03	5.999071E-17	1.077683E-18
4.835057E+03	6.008110E-17	1.076773E-18
4.844904E+03	6.017668E-17	1.075962E-18
4.854751E+03	6.027258E-17	1.075162E-18
4.864599E+03	6.037126E-17	1.074419E-18
4.874446E+03	6.047527E-17	1.073776E-18
4.884293E+03	6.057977E-17	1.073149E-18
4.894141E+03	6.068717E-17	1.072581E-18
4.903988E+03	6.079758E-17	1.072073E-18
4.913836E+03	6.091096E-17	1.071625E-18
4.923683E+03	6.102737E-17	1.071238E-18
4.933530E+03	6.114679E-17	1.070912E-18
4.943378E+03	6.126923E-17	1.070647E-18
4.953225E+03	6.139465E-17	1.070444E-18
4.963072E+03	6.152307E-17	1.070302E-18
4.972920E+03	6.165446E-17	1.070221E-18
4.982767E+03	6.178632E-17	1.070158E-18
4.992614E+03	6.192339E-17	1.070197E-18
5.002462E+03	6.206329E-17	1.070294E-18
5.012309E+03	6.220345E-17	1.070408E-18
5.022157E+03	6.234865E-17	1.070621E-18
5.032004E+03	6.249632E-17	1.070888E-18
5.041851E+03	6.264392E-17	1.071167E-18
5.051699E+03	6.279616E-17	1.071540E-18
5.061546E+03	6.294805E-17	1.071920E-18
5.071393E+03	6.310425E-17	1.072388E-18
5.081241E+03	6.325967E-17	1.072859E-18
5.091088E+03	6.341895E-17	1.073411E-18
5.100935E+03	6.357704E-17	1.073960E-18
5.110783E+03	6.373847E-17	1.074582E-18
5.120630E+03	6.389815E-17	1.075194E-18
5.130478E+03	6.406056E-17	1.075871E-18
5.140325E+03	6.422055E-17	1.076527E-18
5.150172E+03	6.438252E-17	1.077237E-18
5.160020E+03	6.454128E-17	1.077916E-18
5.169867E+03	6.470116E-17	1.078636E-18
5.179714E+03	6.485936E-17	1.079352E-18
5.189562E+03	6.501281E-17	1.080013E-18
5.199409E+03	6.516590E-17	1.080695E-18
5.209257E+03	6.531552E-17	1.081346E-18
5.219104E+03	6.546104E-17	1.081957E-18
5.228951E+03	6.560176E-17	1.082518E-18
5.238799E+03	6.573689E-17	1.083018E-18
5.248646E+03	6.586568E-17	1.083445E-18
5.258493E+03	6.598722E-17	1.083785E-18
5.268341E+03	6.610309E-17	1.084067E-18
5.278188E+03	6.620733E-17	1.084194E-18
5.288035E+03	6.630389E-17	1.084233E-18
5.297883E+03	6.638665E-17	1.084084E-18
5.307730E+03	6.645945E-17	1.083812E-18
5.317578E+03	6.651859E-17	1.083359E-18
5.327425E+03	6.656279E-17	1.082706E-18
5.337272E+03	6.659062E-17	1.081830E-18
5.347120E+03	6.660326E-17	1.080753E-18
5.356967E+03	6.659426E-17	1.079373E-18
5.366814E+03	6.656708E-17	1.077746E-18
5.376662E+03	6.651781E-17	1.075811E-18
5.386509E+03	6.644501E-17	1.073546E-18
5.396356E+03	6.634751E-17	1.070932E-18
5.406204E+03	6.622688E-17	1.067995E-18
5.416051E+03	6.607813E-17	1.064656E-18
5.425899E+03	6.590701E-17	1.061006E-18
5.435746E+03	6.571236E-17	1.057028E-18
5.445593E+03	6.549840E-17	1.052790E-18
5.455441E+03	6.526214E-17	1.048243E-18
5.465288E+03	6.501023E-17	1.043494E-18
5.475135E+03	6.474207E-17	1.038533E-18
5.484983E+03	6.446181E-17	1.033426E-18
5.494830E+03	6.416630E-17	1.028122E-18
5.504677E+03	6.386196E-17	1.022723E-18
5.514525E+03	6.354781E-17	1.017213E-18
5.524372E+03	6.322769E-17	1.011652E-18
5.534220E+03	6.290053E-17	1.006023E-18
5.544067E+03	6.256754E-17	1.000343E-18
5.553914E+03	6.222986E-17	9.946311E-19
5.563762E+03	6.189086E-17	9.889389E-19
5.573609E+03	6.154921E-17	9.832447E-19
5.583456E+03	6.120578E-17	9.775614E-19
5.593304E+03	6.086374E-17	9.719384E-19
5.603151E+03	6.052149E-17	9.663496E-19
5.612999E+03	6.018194E-17	9.608403E-19
5.622846E+03	5.984356E-17	9.553851E-19
5.632693E+03	5.950684E-17	9.499909E-19
5.642541E+03	5.917453E-17	9.447010E-19
5.652388E+03	5.884486E-17	9.394858E-19
5.662235E+03	5.852040E-17	9.343858E-19
5.672083E+03	5.819939E-17	9.293721E-19
5.681930E+03	5.788208E-17	9.244477E-19
5.691777E+03	5.757091E-17	9.196508E-19
5.701625E+03	5.726406E-17	9.149517E-19
5.711472E+03	5.696372E-17	9.103848E-19
5.721320E+03	5.666808E-17	9.059204E-19
5.731167E+03	5.637934E-17	9.015928E-19
5.741014E+03	5.609552E-17	8.973700E-19
5.750862E+03	5.581877E-17	8.932858E-19
5.760709E+03	5.554721E-17	8.893096E-19
5.770556E+03	5.528285E-17	8.854728E-19
5.780404E+03	5.502581E-17	8.817771E-19
5.790251E+03	5.477201E-17	8.781566E-19
5.800098E+03	5.452757E-17	8.747090E-19
5.809946E+03	5.428848E-17	8.713697E-19
5.819793E+03	5.405464E-17	8.681365E-19
5.829641E+03	5.382819E-17	8.650436E-19
5.839488E+03	5.360896E-17	8.620878E-19
5.849335E+03	5.339506E-17	8.592387E-19
5.859183E+03	5.318833E-17	8.565256E-19
5.869030E+03	5.298679E-17	8.539162E-19
5.878877E+03	5.279238E-17	8.514417E-19
5.888725E+03	5.260306E-17	8.490690E-19
5.898572E+03	5.242269E-17	8.468604E-19
5.908419E+03	5.224534E-17	8.447197E-19
5.918267E+03	5.207679E-17	8.427406E-19
5.928114E+03	5.191310E-17	8.408589E-19
5.937962E+03	5.175610E-17	8.391046E-19
5.947809E+03	5.160380E-17	8.374451E-19
5.957656E+03	5.145803E-17	8.359102E-19
5.967504E+03	5.131871E-17	8.344986E-19
5.977351E+03	5.118381E-17	8.331774E-19
5.987198E+03	5.105517E-17	8.319764E-19
5.997046E+03	5.093267E-17	8.308939E-19
6.006893E+03	5.081430E-17	8.298972E-19
6.016741E+03	5.070185E-17	8.290155E-19
6.026588E+03	5.059521E-17	8.282471E-19
6.036435E+03	5.049424E-17	8.275902E-19
6.046283E+03	5.039692E-17	8.270114E-19
6.056130E+03	5.030501E-17	8.265400E-19
6.065977E+03	5.021836E-17	8.261735E-19
6.075825E+03	5.013492E-17	8.258785E-19
6.085672E+03	5.005832E-17	8.257149E-19
6.095519E+03	4.998460E-17	8.256177E-19
6.105367E+03	4.991546E-17	8.256153E-19
6.115214E+03	4.984884E-17	8.256735E-19
6.125062E+03	4.978642E-17	8.258203E-19
6.134909E+03	4.972986E-17	8.260838E-19
6.144756E+03	4.967329E-17	8.263665E-19
6.154604E+03	4.962212E-17	8.267585E-19
6.164451E+03	4.957422E-17	8.272247E-19
6.174298E+03	4.952744E-17	8.277295E-19
6.184146E+03	4.948338E-17	8.282996E-19
6.193993E+03	4.944176E-17	8.289305E-19
6.203840E+03	4.940226E-17	8.296172E-19
6.213688E+03	4.936458E-17	8.303547E-19
6.223535E+03	4.932648E-17	8.311055E-19
6.233383E+03	4.929140E-17	8.319276E-19
6.243230E+03	4.925521E-17	8.327513E-19
6.253077E+03	4.921941E-17	8.336021E-19
6.262925E+03	4.918362E-17	8.344737E-19
6.272772E+03	4.914743E-17	8.353591E-19
6.282619E+03	4.911045E-17	8.362515E-19
6.292467E+03	4.907035E-17	8.371113E-19
6.302314E+03	4.903048E-17	8.379955E-19
6.312161E+03	4.898664E-17	8.388320E-19
6.322009E+03	4.894214E-17	8.396776E-19
6.331856E+03	4.889276E-17	8.404593E-19
6.341704E+03	4.883992E-17	8.412014E-19
6.351551E+03	4.878316E-17	8.418948E-19
6.361398E+03	4.872199E-17	8.425302E-19
6.371246E+03	4.865595E-17	8.430986E-19
6.381093E+03	4.858458E-17	8.435908E-19
6.390940E+03	4.850743E-17	8.439982E-19
6.400788E+03	4.842416E-17	8.443132E-19
6.410635E+03	4.833449E-17	8.445303E-19
6.420483E+03	4.823834E-17	8.446462E-19
6.430330E+03	4.813387E-17	8.446276E-19
6.440177E+03	4.802491E-17	8.445402E-19
6.450025E+03	4.790963E-17	8.443510E-19
6.459872E+03	4.778822E-17	8.440618E-19
6.469719E+03	4.766103E-17	8.436774E-19
6.479567E+03	4.752663E-17	8.431715E-19
6.489414E+03	4.738927E-17	8.426180E-19
6.499261E+03	4.724765E-17	8.419928E-19
6.509109E+03	4.710230E-17	8.413046E-19
6.518956E+03	4.695378E-17	8.405621E-19
6.528804E+03	4.680262E-17	8.397740E-19
6.538651E+03	4.664750E-17	8.389158E-19
6.548498E+03	4.649261E-17	8.380618E-19
6.558346E+03	4.633660E-17	8.371874E-19
6.568193E+03	4.618177E-17	8.363332E-19
6.578040E+03	4.602490E-17	8.354407E-19
6.587888E+03	4.586827E-17	8.345506E-19
6.597735E+03	4.571229E-17	8.336698E-19
6.607582E+03	4.555736E-17	8.328053E-19
6.617430E+03	4.540566E-17	8.319968E-19
6.627277E+03	4.525393E-17	8.311842E-19
6.637125E+03	4.510611E-17	8.304399E-19
6.646972E+03	4.495892E-17	8.297031E-19
6.656819E+03	4.481625E-17	8.290455E-19
6.666667E+03	4.467657E-17	8.284391E-19
6.676514E+03	4.454014E-17	8.278886E-19
6.686361E+03	4.440720E-17	8.273984E-19
6.696209E+03	4.427795E-17	8.269726E-19
6.706056E+03	4.415260E-17	8.266151E-19
6.715903E+03	4.403133E-17	8.263294E-19
6.725751E+03	4.391430E-17	8.261188E-19
6.735598E+03	4.380164E-17	8.259860E-19
6.745446E+03	4.369527E-17	8.259674E-19
6.755293E+03	4.359175E-17	8.259986E-19
6.765140E+03	4.349471E-17	8.261484E-19
6.774988E+03	4.340247E-17	8.263856E-19
6.784835E+03	4.331510E-17	8.267118E-19
6.794682E+03	4.323266E-17	8.271285E-19
6.804530E+03	4.315520E-17	8.276369E-19
6.814377E+03	4.308273E-17	8.282380E-19
6.824225E+03	4.301530E-17	8.289329E-19
6.834072E+03	4.295290E-17	8.297220E-19
6.843919E+03	4.289553E-17	8.306058E-19
6.853767E+03	4.284493E-17	8.316184E-19
6.863614E+03	4.279760E-17	8.326924E-19
6.873461E+03	4.275699E-17	8.338954E-19
6.883309E+03	4.272133E-17	8.351934E-19
6.893156E+03	4.268882E-17	8.365516E-19
6.903003E+03	4.266290E-17	8.380381E-19
6.912851E+03	4.264178E-17	8.396180E-19
6.922698E+03	4.262538E-17	8.412904E-19
6.932546E+03	4.261364E-17	8.430544E-19
6.942393E+03	4.260647E-17	8.449090E-19
6.952240E+03	4.260380E-17	8.468530E-19
6.962088E+03	4.260554E-17	8.488851E-19
6.971935E+03	4.261160E-17	8.510040E-19
6.981782E+03	4.262188E-17	8.532079E-19
6.991630E+03	4.263803E-17	8.555309E-19
7.001477E+03	4.265645E-17	8.579007E-19
7.011324E+03	4.267878E-17	8.603506E-19
7.021172E+03	4.270490E-17	8.628789E-19
7.031019E+03	4.273648E-17	8.655195E-19
7.040867E+03	4.276987E-17	8.681989E-19
7.050714E+03	4.280671E-17	8.709508E-19
7.060561E+03	4.284690E-17	8.737732E-19
7.070409E+03	4.289031E-17	8.766639E-19
7.080256E+03	4.293861E-17	8.796576E-19
7.090103E+03	4.298810E-17	8.826788E-19
7.099951E+03	4.304046E-17	8.857619E-19
7.109798E+03	4.309557E-17	8.889048E-19
7.119645E+03	4.315330E-17	8.921052E-19
7.129493E+03	4.321355E-17	8.953611E-19
7.139340E+03	4.327619E-17	8.986700E-19
7.149188E+03	4.334111E-17	9.020300E-19
7.159035E+03	4.340820E-17	9.054389E-19
7.168882E+03	4.347552E-17	9.088562E-19
7.178730E+03	4.354660E-17	9.123562E-19
7.188577E+03	4.361770E-17	9.158601E-19
7.198424E+03	4.369235E-17	9.194428E-19
7.208272E+03	4.376679E-17	9.230248E-19
7.218119E+03	4.384275E-17	9.266428E-19
7.227967E+03	4.392012E-17	9.302946E-19
7.237814E+03	4.399882E-17	9.339784E-19
7.247661E+03	4.407687E-17	9.376524E-19
7.257509E+03	4.415791E-17	9.413939E-19
7.267356E+03	4.423811E-17	9.451212E-19
7.277203E+03	4.432110E-17	9.489123E-19
7.287051E+03	4.440307E-17	9.526851E-19
7.296898E+03	4.448387E-17	9.564367E-19
7.306745E+03	4.456721E-17	9.602464E-19
7.316593E+03	4.465109E-17	9.640715E-19
7.326440E+03	4.473352E-17	9.678689E-19
7.336288E+03	4.481629E-17	9.716772E-19
7.346135E+03	4.489931E-17	9.754942E-19
7.355982E+03	4.498054E-17	9.792755E-19
7.365830E+03	4.506373E-17	9.831028E-19
7.375677E+03	4.514491E-17	9.868892E-19
7.385524E+03	4.522590E-17	9.906744E-19
7.395372E+03	4.530463E-17	9.944129E-19
7.405219E+03	4.538487E-17	9.981871E-19
7.415066E+03	4.546261E-17	1.001909E-18
7.424914E+03	4.553965E-17	1.005617E-18
7.434761E+03	4.561388E-17	1.009266E-18
7.444609E+03	4.568715E-17	1.012896E-18
7.454456E+03	4.575930E-17	1.016502E-18
7.464303E+03	4.583019E-17	1.020082E-18
7.474151E+03	4.589766E-17	1.023587E-18
7.483998E+03	4.596355E-17	1.027058E-18
7.493845E+03	4.602769E-17	1.030491E-18
7.503693E+03	4.608993E-17	1.033882E-18
7.513540E+03	4.614807E-17	1.037181E-18
7.523387E+03	4.620194E-17	1.040384E-18
7.533235E+03	4.625539E-17	1.043578E-18
7.543082E+03	4.630421E-17	1.046667E-18
7.552930E+03	4.635022E-17	1.049691E-18
7.562777E+03	4.639121E-17	1.052600E-18
7.572624E+03	4.642905E-17	1.055437E-18
7.582472E+03	4.646353E-17	1.058195E-18
7.592319E+03	4.649243E-17	1.060824E-18
7.602166E+03	4.651762E-17	1.063365E-18
7.612014E+03	4.653684E-17	1.065767E-18
7.621861E+03	4.655405E-17	1.068119E-18
7.631709E+03	4.656285E-17	1.070275E-18
7.641556E+03	4.656929E-17	1.072372E-18
