#wls	flux	fluxerr
1.575579E+03	6.314576E-19	2.073584E-20
1.614968E+03	6.501993E-19	2.129972E-20
1.654357E+03	6.655702E-19	2.174918E-20
1.693747E+03	6.775469E-19	2.208415E-20
1.733136E+03	6.857235E-19	2.229221E-20
1.772526E+03	6.894405E-19	2.235286E-20
1.811915E+03	6.875435E-19	2.222991E-20
1.851305E+03	6.787247E-19	2.188267E-20
1.890694E+03	6.616964E-19	2.127169E-20
1.930084E+03	6.357020E-19	2.037510E-20
1.969473E+03	6.008933E-19	1.920050E-20
2.008863E+03	5.595870E-19	1.782448E-20
2.048252E+03	5.173388E-19	1.642566E-20
2.087642E+03	4.819666E-19	1.525200E-20
2.127031E+03	4.619737E-19	1.456973E-20
2.166420E+03	4.632660E-19	1.455967E-20
2.205810E+03	4.879694E-19	1.528134E-20
2.245199E+03	5.338505E-19	1.665699E-20
2.284589E+03	5.963785E-19	1.853815E-20
2.323978E+03	6.699079E-19	2.074369E-20
2.363368E+03	7.495001E-19	2.311674E-20
2.402757E+03	8.315722E-19	2.554442E-20
2.442147E+03	9.141241E-19	2.796395E-20
2.481536E+03	9.958229E-19	3.033390E-20
2.520926E+03	1.076748E-18	3.265634E-20
2.560315E+03	1.156955E-18	3.493257E-20
2.599705E+03	1.236918E-18	3.717655E-20
2.639094E+03	1.317251E-18	3.940603E-20
2.678484E+03	1.398873E-18	4.164754E-20
2.717873E+03	1.482015E-18	4.390678E-20
2.757262E+03	1.567900E-18	4.621838E-20
2.796652E+03	1.657021E-18	4.859490E-20
2.836041E+03	1.749830E-18	5.104736E-20
2.875431E+03	1.847702E-18	5.361321E-20
2.914820E+03	1.951514E-18	5.631457E-20
2.954210E+03	2.061489E-18	5.915422E-20
2.964057E+03	2.090105E-18	5.988986E-20
2.973904E+03	2.119200E-18	6.063653E-20
2.983752E+03	2.148791E-18	6.139460E-20
2.993599E+03	2.178894E-18	6.216447E-20
3.003447E+03	2.209905E-18	6.295737E-20
3.013294E+03	2.241086E-18	6.375216E-20
3.023141E+03	2.272830E-18	6.455997E-20
3.032989E+03	2.305333E-18	6.538626E-20
3.042836E+03	2.338190E-18	6.621947E-20
3.052683E+03	2.372261E-18	6.708387E-20
3.062531E+03	2.407502E-18	6.797801E-20
3.072378E+03	2.444292E-18	6.891244E-20
3.082226E+03	2.481764E-18	6.986250E-20
3.092073E+03	2.520300E-18	7.083886E-20
3.101920E+03	2.559872E-18	7.184061E-20
3.111768E+03	2.600460E-18	7.286696E-20
3.121615E+03	2.642497E-18	7.392991E-20
3.131462E+03	2.685068E-18	7.500371E-20
3.141310E+03	2.728608E-18	7.610040E-20
3.151157E+03	2.773109E-18	7.721959E-20
3.161004E+03	2.818564E-18	7.836096E-20
3.170852E+03	2.865461E-18	7.953791E-20
3.180699E+03	2.912830E-18	8.072331E-20
3.190547E+03	2.961155E-18	8.193052E-20
3.200394E+03	3.010442E-18	8.315954E-20
3.210241E+03	3.061223E-18	8.442488E-20
3.220089E+03	3.112473E-18	8.569812E-20
3.229936E+03	3.164719E-18	8.699366E-20
3.239783E+03	3.218528E-18	8.832687E-20
3.249631E+03	3.272829E-18	8.966822E-20
3.259478E+03	3.328184E-18	9.103297E-20
3.269325E+03	3.384617E-18	9.242160E-20
3.279173E+03	3.442738E-18	9.385062E-20
3.289020E+03	3.501416E-18	9.528892E-20
3.298868E+03	3.561256E-18	9.675289E-20
3.308715E+03	3.622906E-18	9.825994E-20
3.318562E+03	3.685180E-18	9.977765E-20
3.328410E+03	3.748721E-18	1.013233E-19
3.338257E+03	3.814219E-18	1.029153E-19
3.348104E+03	3.880426E-18	1.045197E-19
3.357952E+03	3.948024E-18	1.061548E-19
3.367799E+03	4.017737E-18	1.078398E-19
3.377646E+03	4.088269E-18	1.095397E-19
3.387494E+03	4.160330E-18	1.112732E-19
3.397341E+03	4.234696E-18	1.130609E-19
3.407189E+03	4.309997E-18	1.148659E-19
3.417036E+03	4.386992E-18	1.167082E-19
3.426883E+03	4.466492E-18	1.186091E-19
3.436731E+03	4.547064E-18	1.205303E-19
3.446578E+03	4.630296E-18	1.225136E-19
3.456425E+03	4.714695E-18	1.245191E-19
3.466273E+03	4.801097E-18	1.265687E-19
3.476120E+03	4.890399E-18	1.286857E-19
3.485968E+03	4.981034E-18	1.308286E-19
3.495815E+03	5.073883E-18	1.330200E-19
3.505662E+03	5.169892E-18	1.352846E-19
3.515510E+03	5.267413E-18	1.375787E-19
3.525357E+03	5.368279E-18	1.399499E-19
3.535204E+03	5.470785E-18	1.423534E-19
3.545052E+03	5.575898E-18	1.448138E-19
3.554899E+03	5.684659E-18	1.473580E-19
3.564746E+03	5.795257E-18	1.499384E-19
3.574594E+03	5.909721E-18	1.526072E-19
3.584441E+03	6.026167E-18	1.553151E-19
3.594289E+03	6.145661E-18	1.580894E-19
3.604136E+03	6.269358E-18	1.609591E-19
3.613983E+03	6.395265E-18	1.638726E-19
3.623831E+03	6.525607E-18	1.668865E-19
3.633678E+03	6.658319E-18	1.699473E-19
3.643525E+03	6.794574E-18	1.730845E-19
3.653373E+03	6.935642E-18	1.763300E-19
3.663220E+03	7.079324E-18	1.796271E-19
3.673067E+03	7.228077E-18	1.830378E-19
3.682915E+03	7.379614E-18	1.865033E-19
3.692762E+03	7.535231E-18	1.900560E-19
3.702610E+03	7.696326E-18	1.937304E-19
3.712457E+03	7.860465E-18	1.974646E-19
3.722304E+03	8.030364E-18	2.013262E-19
3.732152E+03	8.203473E-18	2.052505E-19
3.741999E+03	8.382628E-18	2.093078E-19
3.751846E+03	8.565172E-18	2.134311E-19
3.761694E+03	8.752587E-18	2.176566E-19
3.771541E+03	8.946477E-18	2.220234E-19
3.781388E+03	9.144002E-18	2.264603E-19
3.791236E+03	9.348298E-18	2.310441E-19
3.801083E+03	9.556386E-18	2.357004E-19
3.810931E+03	9.769902E-18	2.404689E-19
3.820778E+03	9.990612E-18	2.453922E-19
3.830625E+03	1.021533E-17	2.503910E-19
3.840473E+03	1.044751E-17	2.555496E-19
3.850320E+03	1.068383E-17	2.607852E-19
3.860167E+03	1.092607E-17	2.661409E-19
3.870015E+03	1.117616E-17	2.716628E-19
3.879862E+03	1.143051E-17	2.772627E-19
3.889710E+03	1.169102E-17	2.829857E-19
3.899557E+03	1.195973E-17	2.888804E-19
3.909404E+03	1.223276E-17	2.948521E-19
3.919252E+03	1.251418E-17	3.009981E-19
3.929099E+03	1.279992E-17	3.072194E-19
3.938946E+03	1.309202E-17	3.135644E-19
3.948794E+03	1.339272E-17	3.200856E-19
3.958641E+03	1.369761E-17	3.266769E-19
3.968488E+03	1.400886E-17	3.333890E-19
3.978336E+03	1.432878E-17	3.402762E-19
3.988183E+03	1.465263E-17	3.472249E-19
3.998031E+03	1.498265E-17	3.542877E-19
4.007878E+03	1.532127E-17	3.615211E-19
4.017725E+03	1.566337E-17	3.688030E-19
4.027573E+03	1.601127E-17	3.761880E-19
4.037420E+03	1.636749E-17	3.837345E-19
4.047267E+03	1.672649E-17	3.913116E-19
4.057115E+03	1.709069E-17	3.989752E-19
4.066962E+03	1.746268E-17	4.067858E-19
4.076809E+03	1.783648E-17	4.146029E-19
4.086657E+03	1.821456E-17	4.224840E-19
4.096504E+03	1.859961E-17	4.304909E-19
4.106352E+03	1.898515E-17	4.384730E-19
4.116199E+03	1.937372E-17	4.464892E-19
4.126046E+03	1.976482E-17	4.545276E-19
4.135894E+03	2.016122E-17	4.626517E-19
4.145741E+03	2.055573E-17	4.706966E-19
4.155588E+03	2.095097E-17	4.787225E-19
4.165436E+03	2.134973E-17	4.867933E-19
4.175283E+03	2.174431E-17	4.947335E-19
4.185130E+03	2.213733E-17	5.026036E-19
4.194978E+03	2.252792E-17	5.103845E-19
4.204825E+03	2.291514E-17	5.180557E-19
4.214673E+03	2.330183E-17	5.256819E-19
4.224520E+03	2.367936E-17	5.330695E-19
4.234367E+03	2.405039E-17	5.402795E-19
4.244215E+03	2.441375E-17	5.472876E-19
4.254062E+03	2.476823E-17	5.540678E-19
4.263909E+03	2.511668E-17	5.606855E-19
4.273757E+03	2.544959E-17	5.669302E-19
4.283604E+03	2.576963E-17	5.728635E-19
4.293452E+03	2.607533E-17	5.784553E-19
4.303299E+03	2.636511E-17	5.836729E-19
4.313146E+03	2.663744E-17	5.884849E-19
4.322994E+03	2.689543E-17	5.929630E-19
4.332841E+03	2.712980E-17	5.969052E-19
4.342688E+03	2.734509E-17	6.004147E-19
4.352536E+03	2.754184E-17	6.035065E-19
4.362383E+03	2.772068E-17	6.061969E-19
4.372230E+03	2.788224E-17	6.085025E-19
4.382078E+03	2.802711E-17	6.104390E-19
4.391925E+03	2.815594E-17	6.120224E-19
4.401773E+03	2.826934E-17	6.132687E-19
4.411620E+03	2.836799E-17	6.141941E-19
4.421467E+03	2.845254E-17	6.148150E-19
4.431315E+03	2.852368E-17	6.151476E-19
4.441162E+03	2.858209E-17	6.152086E-19
4.451009E+03	2.862846E-17	6.150142E-19
4.460857E+03	2.866347E-17	6.145805E-19
4.470704E+03	2.868778E-17	6.139233E-19
4.480551E+03	2.870208E-17	6.130583E-19
4.490399E+03	2.870702E-17	6.120005E-19
4.500246E+03	2.870324E-17	6.107648E-19
4.510094E+03	2.869138E-17	6.093656E-19
4.519941E+03	2.867205E-17	6.078170E-19
4.529788E+03	2.864585E-17	6.061322E-19
4.539636E+03	2.861337E-17	6.043246E-19
4.549483E+03	2.857516E-17	6.024065E-19
4.559330E+03	2.853179E-17	6.003902E-19
4.569178E+03	2.848376E-17	5.982872E-19
4.579025E+03	2.843160E-17	5.961085E-19
4.588872E+03	2.837119E-17	5.937689E-19
4.598720E+03	2.831222E-17	5.914711E-19
4.608567E+03	2.825052E-17	5.891282E-19
4.618415E+03	2.818652E-17	5.867495E-19
4.628262E+03	2.812065E-17	5.843437E-19
4.638109E+03	2.805329E-17	5.819192E-19
4.647957E+03	2.798029E-17	5.793901E-19
4.657804E+03	2.791107E-17	5.769515E-19
4.667651E+03	2.784143E-17	5.745164E-19
4.677499E+03	2.777169E-17	5.720912E-19
4.687346E+03	2.769768E-17	5.695902E-19
4.697194E+03	2.762864E-17	5.672034E-19
4.707041E+03	2.756034E-17	5.648439E-19
4.716888E+03	2.749305E-17	5.625165E-19
4.726736E+03	2.742256E-17	5.601356E-19
4.736583E+03	2.735796E-17	5.578866E-19
4.746430E+03	2.729502E-17	5.556826E-19
4.756278E+03	2.722952E-17	5.534378E-19
4.766125E+03	2.717043E-17	5.513345E-19
4.775972E+03	2.711351E-17	5.492860E-19
4.785820E+03	2.705454E-17	5.472069E-19
4.795667E+03	2.700238E-17	5.452761E-19
4.805515E+03	2.695278E-17	5.434073E-19
4.815362E+03	2.690151E-17	5.415152E-19
4.825209E+03	2.685734E-17	5.397759E-19
4.835057E+03	2.681169E-17	5.380170E-19
4.844904E+03	2.677326E-17	5.364126E-19
4.854751E+03	2.673350E-17	5.347912E-19
4.864599E+03	2.670104E-17	5.333254E-19
4.874446E+03	2.666735E-17	5.318442E-19
4.884293E+03	2.664102E-17	5.305189E-19
4.894141E+03	2.661350E-17	5.291788E-19
4.903988E+03	2.659335E-17	5.279941E-19
4.913836E+03	2.657202E-17	5.267947E-19
4.923683E+03	2.655804E-17	5.257496E-19
4.933530E+03	2.654285E-17	5.246890E-19
4.943378E+03	2.653496E-17	5.237810E-19
4.953225E+03	2.652579E-17	5.228561E-19
4.963072E+03	2.651958E-17	5.219976E-19
4.972920E+03	2.652050E-17	5.212878E-19
4.982767E+03	2.652000E-17	5.205580E-19
4.992614E+03	2.652226E-17	5.198905E-19
5.002462E+03	2.653145E-17	5.193668E-19
5.012309E+03	2.653899E-17	5.188187E-19
5.022157E+03	2.654904E-17	5.183277E-19
5.032004E+03	2.656575E-17	5.179746E-19
5.041851E+03	2.658053E-17	5.175917E-19
5.051699E+03	2.659750E-17	5.172596E-19
5.061546E+03	2.662083E-17	5.170591E-19
5.071393E+03	2.664187E-17	5.168221E-19
5.081241E+03	2.666476E-17	5.166291E-19
5.091088E+03	2.668937E-17	5.164777E-19
5.100935E+03	2.671557E-17	5.163654E-19
5.110783E+03	2.674749E-17	5.163721E-19
5.120630E+03	2.677645E-17	5.163300E-19
5.130478E+03	2.680658E-17	5.163192E-19
5.140325E+03	2.683773E-17	5.163367E-19
5.150172E+03	2.686975E-17	5.163800E-19
5.160020E+03	2.690247E-17	5.164460E-19
5.169867E+03	2.694006E-17	5.166145E-19
5.179714E+03	2.697375E-17	5.167176E-19
5.189562E+03	2.700767E-17	5.168349E-19
5.199409E+03	2.704166E-17	5.169633E-19
5.209257E+03	2.707554E-17	5.170998E-19
5.219104E+03	2.710915E-17	5.172413E-19
5.228951E+03	2.714229E-17	5.173847E-19
5.238799E+03	2.717481E-17	5.175268E-19
5.248646E+03	2.720649E-17	5.176642E-19
5.258493E+03	2.723717E-17	5.177938E-19
5.268341E+03	2.726664E-17	5.179119E-19
5.278188E+03	2.729470E-17	5.180152E-19
5.288035E+03	2.732116E-17	5.181004E-19
5.297883E+03	2.734582E-17	5.181639E-19
5.307730E+03	2.736849E-17	5.182023E-19
5.317578E+03	2.738899E-17	5.182127E-19
5.327425E+03	2.740715E-17	5.181923E-19
5.337272E+03	2.741848E-17	5.180565E-19
5.347120E+03	2.743161E-17	5.179686E-19
5.356967E+03	2.744213E-17	5.178455E-19
5.366814E+03	2.745004E-17	5.176879E-19
5.376662E+03	2.745543E-17	5.174974E-19
5.386509E+03	2.745840E-17	5.172764E-19
5.396356E+03	2.745471E-17	5.169452E-19
5.406204E+03	2.745321E-17	5.166702E-19
5.416051E+03	2.744954E-17	5.163695E-19
5.425899E+03	2.744364E-17	5.160416E-19
5.435746E+03	2.743537E-17	5.156840E-19
5.445593E+03	2.742022E-17	5.152116E-19
5.455441E+03	2.740680E-17	5.147862E-19
5.465288E+03	2.739066E-17	5.143242E-19
5.475135E+03	2.736745E-17	5.137436E-19
5.484983E+03	2.734591E-17	5.132084E-19
5.494830E+03	2.732178E-17	5.126386E-19
5.504677E+03	2.729085E-17	5.119550E-19
5.514525E+03	2.726194E-17	5.113231E-19
5.524372E+03	2.723089E-17	5.106645E-19
5.534220E+03	2.719355E-17	5.099012E-19
5.544067E+03	2.715875E-17	5.091986E-19
5.553914E+03	2.712233E-17	5.084789E-19
5.563762E+03	2.708019E-17	5.076646E-19
5.573609E+03	2.704109E-17	5.069202E-19
5.583456E+03	2.699663E-17	5.060876E-19
5.593304E+03	2.695554E-17	5.053306E-19
5.603151E+03	2.690942E-17	5.044915E-19
5.612999E+03	2.686698E-17	5.037335E-19
5.622846E+03	2.681984E-17	5.028991E-19
5.632693E+03	2.677667E-17	5.021508E-19
5.642541E+03	2.672910E-17	5.013317E-19
5.652388E+03	2.668578E-17	5.006036E-19
5.662235E+03	2.663835E-17	4.998098E-19
5.672083E+03	2.659543E-17	4.991115E-19
5.681930E+03	2.654869E-17	4.983525E-19
5.691777E+03	2.650669E-17	4.976934E-19
5.701625E+03	2.646113E-17	4.969783E-19
5.711472E+03	2.642055E-17	4.963670E-19
5.721320E+03	2.637666E-17	4.957043E-19
5.731167E+03	2.633377E-17	4.950706E-19
5.741014E+03	2.629616E-17	4.945466E-19
5.750862E+03	2.625558E-17	4.939770E-19
5.760709E+03	2.621630E-17	4.934419E-19
5.770556E+03	2.618257E-17	4.930213E-19
5.780404E+03	2.614616E-17	4.925603E-19
5.790251E+03	2.611131E-17	4.921384E-19
5.800098E+03	2.608221E-17	4.918350E-19
5.809946E+03	2.605068E-17	4.914954E-19
5.819793E+03	2.602089E-17	4.911986E-19
5.829641E+03	2.599290E-17	4.909456E-19
5.839488E+03	2.597088E-17	4.908150E-19
5.849335E+03	2.594663E-17	4.906521E-19
5.859183E+03	2.592429E-17	4.905350E-19
5.869030E+03	2.590390E-17	4.904645E-19
5.878877E+03	2.588956E-17	4.905186E-19
5.888725E+03	2.587308E-17	4.905419E-19
5.898572E+03	2.585857E-17	4.906122E-19
5.908419E+03	2.584602E-17	4.907296E-19
5.918267E+03	2.583540E-17	4.908938E-19
5.928114E+03	2.583080E-17	4.911822E-19
5.937962E+03	2.582399E-17	4.914387E-19
5.947809E+03	2.581903E-17	4.917405E-19
5.957656E+03	2.581587E-17	4.920868E-19
5.967504E+03	2.581446E-17	4.924767E-19
5.977351E+03	2.581474E-17	4.929090E-19
5.987198E+03	2.581663E-17	4.933826E-19
5.997046E+03	2.582005E-17	4.938960E-19
6.006893E+03	2.582493E-17	4.944478E-19
6.016741E+03	2.583116E-17	4.950362E-19
6.026588E+03	2.583865E-17	4.956595E-19
6.036435E+03	2.585138E-17	4.963943E-19
6.046283E+03	2.586106E-17	4.970815E-19
6.056130E+03	2.587164E-17	4.977973E-19
6.065977E+03	2.588301E-17	4.985393E-19
6.075825E+03	2.589502E-17	4.993051E-19
6.085672E+03	2.590754E-17	5.000920E-19
6.095519E+03	2.592042E-17	5.008973E-19
6.105367E+03	2.592938E-17	5.016386E-19
6.115214E+03	2.594250E-17	5.024719E-19
6.125062E+03	2.595550E-17	5.033145E-19
6.134909E+03	2.596821E-17	5.041635E-19
6.144756E+03	2.598046E-17	5.050154E-19
6.154604E+03	2.599206E-17	5.058667E-19
6.164451E+03	2.600284E-17	5.067141E-19
6.174298E+03	2.601261E-17	5.075538E-19
6.184146E+03	2.602117E-17	5.083822E-19
6.193993E+03	2.602835E-17	5.091957E-19
6.203840E+03	2.603392E-17	5.099900E-19
6.213688E+03	2.603358E-17	5.106807E-19
6.223535E+03	2.603537E-17	5.114252E-19
6.233383E+03	2.603495E-17	5.121386E-19
6.243230E+03	2.603212E-17	5.128166E-19
6.253077E+03	2.602667E-17	5.134551E-19
6.262925E+03	2.601837E-17	5.140495E-19
6.272772E+03	2.600290E-17	5.145141E-19
6.282619E+03	2.598827E-17	5.150070E-19
6.292467E+03	2.597014E-17	5.154423E-19
6.302314E+03	2.594830E-17	5.158155E-19
6.312161E+03	2.592251E-17	5.161216E-19
6.322009E+03	2.588847E-17	5.162746E-19
6.331856E+03	2.585419E-17	5.164335E-19
6.341704E+03	2.581537E-17	5.165122E-19
6.351551E+03	2.577185E-17	5.165067E-19
6.361398E+03	2.571944E-17	5.163317E-19
6.371246E+03	2.566620E-17	5.161487E-19
6.381093E+03	2.560802E-17	5.158741E-19
6.390940E+03	2.554088E-17	5.154261E-19
6.400788E+03	2.547298E-17	5.149689E-19
6.410635E+03	2.540038E-17	5.144226E-19
6.420483E+03	2.531920E-17	5.137075E-19
6.430330E+03	2.523759E-17	5.129880E-19
6.440177E+03	2.515158E-17	5.121828E-19
6.450025E+03	2.505722E-17	5.112105E-19
6.459872E+03	2.496245E-17	5.102322E-19
6.469719E+03	2.486325E-17	5.091652E-19
6.479567E+03	2.475573E-17	5.079287E-19
6.489414E+03	2.464783E-17	5.066845E-19
6.499261E+03	2.453572E-17	5.053537E-19
6.509109E+03	2.441570E-17	5.038589E-19
6.518956E+03	2.429575E-17	5.023638E-19
6.528804E+03	2.416841E-17	5.007135E-19
6.538651E+03	2.404161E-17	4.990716E-19
6.548498E+03	2.390801E-17	4.972848E-19
6.558346E+03	2.377547E-17	4.955162E-19
6.568193E+03	2.364049E-17	4.936921E-19
6.578040E+03	2.349960E-17	4.917395E-19
6.587888E+03	2.336058E-17	4.898203E-19
6.597735E+03	2.321624E-17	4.877837E-19
6.607582E+03	2.307426E-17	4.857901E-19
6.617430E+03	2.292754E-17	4.836898E-19
6.627277E+03	2.278363E-17	4.816416E-19
6.637125E+03	2.263552E-17	4.794970E-19
6.646972E+03	2.249064E-17	4.774132E-19
6.656819E+03	2.234207E-17	4.752427E-19
6.666667E+03	2.219716E-17	4.731415E-19
6.676514E+03	2.204902E-17	4.709630E-19
6.686361E+03	2.190142E-17	4.687870E-19
6.696209E+03	2.175803E-17	4.666918E-19
6.706056E+03	2.161209E-17	4.645329E-19
6.715903E+03	2.147068E-17	4.624620E-19
6.725751E+03	2.132714E-17	4.603358E-19
6.735598E+03	2.118845E-17	4.583047E-19
6.745446E+03	2.104801E-17	4.562263E-19
6.755293E+03	2.090938E-17	4.541771E-19
6.765140E+03	2.077602E-17	4.522328E-19
6.774988E+03	2.064143E-17	4.502522E-19
6.784835E+03	2.051237E-17	4.483824E-19
6.794682E+03	2.038241E-17	4.464834E-19
6.804530E+03	2.025497E-17	4.446298E-19
6.814377E+03	2.013337E-17	4.428951E-19
6.824225E+03	2.001130E-17	4.411408E-19
6.834072E+03	1.989211E-17	4.394403E-19
6.843919E+03	1.977903E-17	4.378658E-19
6.853767E+03	1.966586E-17	4.362804E-19
6.863614E+03	1.955585E-17	4.347560E-19
6.873461E+03	1.945220E-17	4.333643E-19
6.883309E+03	1.934876E-17	4.319691E-19
6.893156E+03	1.924874E-17	4.306416E-19
6.903003E+03	1.915221E-17	4.293840E-19
6.912851E+03	1.906225E-17	4.282661E-19
6.922698E+03	1.897287E-17	4.271534E-19
6.932546E+03	1.888715E-17	4.261158E-19
6.942393E+03	1.880816E-17	4.252226E-19
6.952240E+03	1.872993E-17	4.243401E-19
6.962088E+03	1.865552E-17	4.235373E-19
6.971935E+03	1.858497E-17	4.228158E-19
6.981782E+03	1.852127E-17	4.222441E-19
6.991630E+03	1.845854E-17	4.216889E-19
7.001477E+03	1.839978E-17	4.212187E-19
7.011324E+03	1.834501E-17	4.208345E-19
7.021172E+03	1.829425E-17	4.205376E-19
7.031019E+03	1.825044E-17	4.203960E-19
7.040867E+03	1.820777E-17	4.202765E-19
7.050714E+03	1.816918E-17	4.202471E-19
7.060561E+03	1.813467E-17	4.203084E-19
7.070409E+03	1.810427E-17	4.204616E-19
7.080256E+03	1.807796E-17	4.207071E-19
7.090103E+03	1.805578E-17	4.210457E-19
7.099951E+03	1.804058E-17	4.215453E-19
7.109798E+03	1.802663E-17	4.220720E-19
7.119645E+03	1.801680E-17	4.226936E-19
7.129493E+03	1.801109E-17	4.234105E-19
7.139340E+03	1.800948E-17	4.242231E-19
7.149188E+03	1.801199E-17	4.251319E-19
7.159035E+03	1.801859E-17	4.261371E-19
7.168882E+03	1.802927E-17	4.272390E-19
7.178730E+03	1.804404E-17	4.284379E-19
7.188577E+03	1.806574E-17	4.298025E-19
7.198424E+03	1.808860E-17	4.311959E-19
7.208272E+03	1.811548E-17	4.326866E-19
7.218119E+03	1.814635E-17	4.342744E-19
7.227967E+03	1.818119E-17	4.359593E-19
7.237814E+03	1.821997E-17	4.377412E-19
7.247661E+03	1.826265E-17	4.396196E-19
7.257509E+03	1.830921E-17	4.415944E-19
7.267356E+03	1.835961E-17	4.436651E-19
7.277203E+03	1.841378E-17	4.458310E-19
7.287051E+03	1.847171E-17	4.480917E-19
7.296898E+03	1.853333E-17	4.504464E-19
7.306745E+03	1.859859E-17	4.528942E-19
7.316593E+03	1.866743E-17	4.554341E-19
7.326440E+03	1.873978E-17	4.580650E-19
7.336288E+03	1.881558E-17	4.607859E-19
7.346135E+03	1.889477E-17	4.635953E-19
7.355982E+03	1.897724E-17	4.664915E-19
7.365830E+03	1.906292E-17	4.694730E-19
7.375677E+03	1.914865E-17	4.724622E-19
7.385524E+03	1.924046E-17	4.756080E-19
7.395372E+03	1.933519E-17	4.788331E-19
7.405219E+03	1.943271E-17	4.821348E-19
7.415066E+03	1.953292E-17	4.855107E-19
7.424914E+03	1.963570E-17	4.889582E-19
7.434761E+03	1.974089E-17	4.924738E-19
7.444609E+03	1.984838E-17	4.960546E-19
7.454456E+03	1.995799E-17	4.996970E-19
7.464303E+03	2.006957E-17	5.033971E-19
7.474151E+03	2.017972E-17	5.070697E-19
7.483998E+03	2.029473E-17	5.108729E-19
7.493845E+03	2.041117E-17	5.147210E-19
7.503693E+03	2.052885E-17	5.186095E-19
7.513540E+03	2.064758E-17	5.225332E-19
7.523387E+03	2.076712E-17	5.264866E-19
7.533235E+03	2.088390E-17	5.303790E-19
7.543082E+03	2.100440E-17	5.343746E-19
7.552930E+03	2.112500E-17	5.383820E-19
7.562777E+03	2.124547E-17	5.423951E-19
7.572624E+03	2.136554E-17	5.464070E-19
7.582472E+03	2.148147E-17	5.503219E-19
7.592319E+03	2.159990E-17	5.543093E-19
7.602166E+03	2.171707E-17	5.582734E-19
7.612014E+03	2.183270E-17	5.622063E-19
7.621861E+03	2.194294E-17	5.660088E-19
7.631709E+03	2.205453E-17	5.698539E-19
7.641556E+03	2.216362E-17	5.736429E-19
