#wls	flux	fluxerr
1.575579E+03	6.627807E-19	2.105141E-20
1.614968E+03	6.824403E-19	2.162751E-20
1.654357E+03	6.986937E-19	2.209189E-20
1.693747E+03	7.113968E-19	2.244063E-20
1.733136E+03	7.199946E-19	2.265697E-20
1.772526E+03	7.240478E-19	2.272799E-20
1.811915E+03	7.222153E-19	2.261270E-20
1.851305E+03	7.131192E-19	2.226949E-20
1.890694E+03	6.954007E-19	2.165784E-20
1.930084E+03	6.681390E-19	2.075142E-20
1.969473E+03	6.317292E-19	1.956505E-20
2.008863E+03	5.884752E-19	1.817250E-20
2.048252E+03	5.442131E-19	1.675556E-20
2.087642E+03	5.071670E-19	1.556719E-20
2.127031E+03	4.862072E-19	1.487699E-20
2.166420E+03	4.878256E-19	1.487844E-20
2.205810E+03	5.139379E-19	1.562307E-20
2.245199E+03	5.625759E-19	1.704365E-20
2.284589E+03	6.287197E-19	1.898133E-20
2.323978E+03	7.065299E-19	2.125443E-20
2.363368E+03	7.908133E-19	2.370298E-20
2.402757E+03	8.779529E-19	2.621621E-20
2.442147E+03	9.655507E-19	2.872121E-20
2.481536E+03	1.052525E-18	3.118511E-20
2.520926E+03	1.138609E-18	3.359958E-20
2.560315E+03	1.224029E-18	3.597097E-20
2.599705E+03	1.309519E-18	3.832032E-20
2.639094E+03	1.395287E-18	4.065303E-20
2.678484E+03	1.482520E-18	4.300274E-20
2.717873E+03	1.571741E-18	4.538333E-20
2.757262E+03	1.663718E-18	4.781537E-20
2.796652E+03	1.759537E-18	5.032813E-20
2.836041E+03	1.859416E-18	5.292549E-20
2.875431E+03	1.964818E-18	5.564640E-20
2.914820E+03	2.076324E-18	5.850408E-20
2.954210E+03	2.194877E-18	6.152146E-20
2.964057E+03	2.225924E-18	6.230890E-20
2.973904E+03	2.257110E-18	6.309758E-20
2.983752E+03	2.289219E-18	6.390932E-20
2.993599E+03	2.321492E-18	6.472287E-20
3.003447E+03	2.354733E-18	6.556056E-20
3.013294E+03	2.388570E-18	6.641194E-20
3.023141E+03	2.422609E-18	6.726598E-20
3.032989E+03	2.457879E-18	6.815117E-20
3.042836E+03	2.493118E-18	6.903240E-20
3.052683E+03	2.530086E-18	6.995835E-20
3.062531E+03	2.568317E-18	7.091590E-20
3.072378E+03	2.607326E-18	7.189155E-20
3.082226E+03	2.647956E-18	7.290838E-20
3.092073E+03	2.689737E-18	7.395328E-20
3.101920E+03	2.732179E-18	7.501262E-20
3.111768E+03	2.776178E-18	7.611087E-20
3.121615E+03	2.821258E-18	7.723479E-20
3.131462E+03	2.866915E-18	7.837050E-20
3.141310E+03	2.914104E-18	7.954391E-20
3.151157E+03	2.962335E-18	8.074152E-20
3.161004E+03	3.011603E-18	8.196304E-20
3.170852E+03	3.061389E-18	8.319417E-20
3.180699E+03	3.112720E-18	8.446274E-20
3.190547E+03	3.165090E-18	8.575484E-20
3.200394E+03	3.218507E-18	8.707047E-20
3.210241E+03	3.272426E-18	8.839486E-20
3.220089E+03	3.327957E-18	8.975777E-20
3.229936E+03	3.384571E-18	9.114479E-20
3.239783E+03	3.442285E-18	9.255620E-20
3.249631E+03	3.500530E-18	9.397656E-20
3.259478E+03	3.560497E-18	9.543772E-20
3.269325E+03	3.621637E-18	9.692475E-20
3.279173E+03	3.683969E-18	9.843798E-20
3.289020E+03	3.747529E-18	9.997818E-20
3.298868E+03	3.812347E-18	1.015460E-19
3.308715E+03	3.877810E-18	1.031249E-19
3.318562E+03	3.945244E-18	1.047500E-19
3.328410E+03	4.014047E-18	1.064052E-19
3.338257E+03	4.084262E-18	1.080912E-19
3.348104E+03	4.155932E-18	1.098091E-19
3.357952E+03	4.229105E-18	1.115599E-19
3.367799E+03	4.303830E-18	1.133447E-19
3.377646E+03	4.379420E-18	1.151451E-19
3.387494E+03	4.457388E-18	1.170008E-19
3.397341E+03	4.537060E-18	1.188938E-19
3.407189E+03	4.618497E-18	1.208254E-19
3.417036E+03	4.701760E-18	1.227969E-19
3.426883E+03	4.786910E-18	1.248097E-19
3.436731E+03	4.874006E-18	1.268651E-19
3.446578E+03	4.963115E-18	1.289644E-19
3.456425E+03	5.054312E-18	1.311093E-19
3.466273E+03	5.147655E-18	1.333011E-19
3.476120E+03	5.242351E-18	1.355188E-19
3.485968E+03	5.340206E-18	1.378090E-19
3.495815E+03	5.440431E-18	1.401509E-19
3.505662E+03	5.543108E-18	1.425461E-19
3.515510E+03	5.648320E-18	1.449965E-19
3.525357E+03	5.756147E-18	1.475038E-19
3.535204E+03	5.866674E-18	1.500697E-19
3.545052E+03	5.979989E-18	1.526960E-19
3.554899E+03	6.096178E-18	1.553847E-19
3.564746E+03	6.215339E-18	1.581377E-19
3.574594E+03	6.337555E-18	1.609568E-19
3.584441E+03	6.462928E-18	1.638440E-19
3.594289E+03	6.591552E-18	1.668012E-19
3.604136E+03	6.723529E-18	1.698307E-19
3.613983E+03	6.858958E-18	1.729343E-19
3.623831E+03	6.997940E-18	1.761142E-19
3.633678E+03	7.140584E-18	1.793726E-19
3.643525E+03	7.286988E-18	1.827112E-19
3.653373E+03	7.437270E-18	1.861327E-19
3.663220E+03	7.591530E-18	1.896388E-19
3.673067E+03	7.749885E-18	1.932320E-19
3.682915E+03	7.912443E-18	1.969143E-19
3.692762E+03	8.079312E-18	2.006879E-19
3.702610E+03	8.250617E-18	2.045551E-19
3.712457E+03	8.425076E-18	2.084836E-19
3.722304E+03	8.605550E-18	2.125435E-19
3.732152E+03	8.790794E-18	2.167035E-19
3.741999E+03	8.980927E-18	2.209656E-19
3.751846E+03	9.176061E-18	2.253319E-19
3.761694E+03	9.376304E-18	2.298044E-19
3.771541E+03	9.581778E-18	2.343852E-19
3.781388E+03	9.792584E-18	2.390761E-19
3.791236E+03	1.000884E-17	2.438792E-19
3.801083E+03	1.023064E-17	2.487961E-19
3.810931E+03	1.045810E-17	2.538286E-19
3.820778E+03	1.069131E-17	2.589782E-19
3.830625E+03	1.093037E-17	2.642465E-19
3.840473E+03	1.117536E-17	2.696349E-19
3.850320E+03	1.142639E-17	2.751444E-19
3.860167E+03	1.168352E-17	2.807763E-19
3.870015E+03	1.194683E-17	2.865313E-19
3.879862E+03	1.221637E-17	2.924101E-19
3.889710E+03	1.249222E-17	2.984132E-19
3.899557E+03	1.277441E-17	3.045408E-19
3.909404E+03	1.306298E-17	3.107928E-19
3.919252E+03	1.335794E-17	3.171688E-19
3.929099E+03	1.365932E-17	3.236682E-19
3.938946E+03	1.396483E-17	3.302364E-19
3.948794E+03	1.427895E-17	3.369783E-19
3.958641E+03	1.459941E-17	3.438396E-19
3.968488E+03	1.492618E-17	3.508182E-19
3.978336E+03	1.525916E-17	3.579113E-19
3.988183E+03	1.559828E-17	3.651161E-19
3.998031E+03	1.594339E-17	3.724288E-19
4.007878E+03	1.629437E-17	3.798454E-19
4.017725E+03	1.665105E-17	3.873612E-19
4.027573E+03	1.701322E-17	3.949710E-19
4.037420E+03	1.737785E-17	4.026036E-19
4.047267E+03	1.775026E-17	4.103816E-19
4.057115E+03	1.812740E-17	4.182338E-19
4.066962E+03	1.850894E-17	4.261523E-19
4.076809E+03	1.889452E-17	4.341281E-19
4.086657E+03	1.928375E-17	4.421517E-19
4.096504E+03	1.967620E-17	4.502129E-19
4.106352E+03	2.006812E-17	4.582262E-19
4.116199E+03	2.046544E-17	4.663265E-19
4.126046E+03	2.086439E-17	4.744279E-19
4.135894E+03	2.126438E-17	4.825165E-19
4.145741E+03	2.166474E-17	4.905774E-19
4.155588E+03	2.206120E-17	4.985144E-19
4.165436E+03	2.246006E-17	5.064703E-19
4.175283E+03	2.285703E-17	5.143481E-19
4.185130E+03	2.325123E-17	5.221291E-19
4.194978E+03	2.364178E-17	5.297936E-19
4.204825E+03	2.402384E-17	5.372348E-19
4.214673E+03	2.440409E-17	5.446028E-19
4.224520E+03	2.477770E-17	5.517905E-19
4.234367E+03	2.513955E-17	5.586855E-19
4.244215E+03	2.549659E-17	5.654437E-19
4.254062E+03	2.584376E-17	5.719543E-19
4.263909E+03	2.618002E-17	5.781960E-19
4.273757E+03	2.650021E-17	5.840564E-19
4.283604E+03	2.681198E-17	5.897069E-19
4.293452E+03	2.711063E-17	5.950452E-19
4.303299E+03	2.739162E-17	5.999745E-19
4.313146E+03	2.766406E-17	6.046962E-19
4.322994E+03	2.792448E-17	6.091361E-19
4.332841E+03	2.816794E-17	6.131890E-19
4.342688E+03	2.840177E-17	6.170163E-19
4.352536E+03	2.861575E-17	6.203981E-19
4.362383E+03	2.881827E-17	6.235192E-19
4.372230E+03	2.900450E-17	6.262766E-19
4.382078E+03	2.916975E-17	6.285720E-19
4.391925E+03	2.932350E-17	6.306120E-19
4.401773E+03	2.945677E-17	6.322057E-19
4.411620E+03	2.957941E-17	6.335665E-19
4.421467E+03	2.968254E-17	6.345061E-19
4.431315E+03	2.977619E-17	6.352409E-19
4.441162E+03	2.985150E-17	6.355836E-19
4.451009E+03	2.991860E-17	6.357518E-19
4.460857E+03	2.996863E-17	6.355585E-19
4.470704E+03	3.001175E-17	6.352214E-19
4.480551E+03	3.003910E-17	6.345536E-19
4.490399E+03	3.006088E-17	6.337722E-19
4.500246E+03	3.006816E-17	6.326905E-19
4.510094E+03	3.006638E-17	6.314239E-19
4.519941E+03	3.006095E-17	6.300871E-19
4.529788E+03	3.004292E-17	6.284934E-19
4.539636E+03	3.002246E-17	6.268564E-19
4.549483E+03	2.999062E-17	6.249902E-19
4.559330E+03	2.995275E-17	6.230073E-19
4.569178E+03	2.991416E-17	6.210184E-19
4.579025E+03	2.986591E-17	6.188385E-19
4.588872E+03	2.981326E-17	6.165777E-19
4.598720E+03	2.975675E-17	6.142471E-19
4.608567E+03	2.970155E-17	6.119542E-19
4.618415E+03	2.963873E-17	6.095150E-19
4.628262E+03	2.957347E-17	6.070363E-19
4.638109E+03	2.950618E-17	6.045274E-19
4.647957E+03	2.944195E-17	6.020921E-19
4.657804E+03	2.937185E-17	5.995480E-19
4.667651E+03	2.930093E-17	5.969984E-19
4.677499E+03	2.922953E-17	5.944506E-19
4.687346E+03	2.915801E-17	5.919116E-19
4.697194E+03	2.909126E-17	5.894810E-19
4.707041E+03	2.902041E-17	5.869783E-19
4.716888E+03	2.895034E-17	5.845026E-19
4.726736E+03	2.888130E-17	5.820592E-19
4.736583E+03	2.881356E-17	5.796531E-19
4.746430E+03	2.874735E-17	5.772887E-19
4.756278E+03	2.868287E-17	5.749701E-19
4.766125E+03	2.862032E-17	5.727011E-19
4.775972E+03	2.855990E-17	5.704853E-19
4.785820E+03	2.850176E-17	5.683257E-19
4.795667E+03	2.844607E-17	5.662252E-19
4.805515E+03	2.839295E-17	5.641863E-19
4.815362E+03	2.834254E-17	5.622113E-19
4.825209E+03	2.829494E-17	5.603020E-19
4.835057E+03	2.825025E-17	5.584603E-19
4.844904E+03	2.820856E-17	5.566874E-19
4.854751E+03	2.816994E-17	5.549846E-19
4.864599E+03	2.813444E-17	5.533529E-19
4.874446E+03	2.809773E-17	5.517064E-19
4.884293E+03	2.806864E-17	5.502189E-19
4.894141E+03	2.804279E-17	5.488039E-19
4.903988E+03	2.802020E-17	5.474615E-19
4.913836E+03	2.800089E-17	5.461917E-19
4.923683E+03	2.798045E-17	5.449087E-19
4.933530E+03	2.796764E-17	5.437829E-19
4.943378E+03	2.795806E-17	5.427283E-19
4.953225E+03	2.795168E-17	5.417439E-19
4.963072E+03	2.794407E-17	5.407442E-19
4.972920E+03	2.794395E-17	5.398975E-19
4.982767E+03	2.794688E-17	5.391178E-19
4.992614E+03	2.794842E-17	5.383194E-19
5.002462E+03	2.795724E-17	5.376694E-19
5.012309E+03	2.796889E-17	5.370817E-19
5.022157E+03	2.797891E-17	5.364709E-19
5.032004E+03	2.799596E-17	5.360028E-19
5.041851E+03	2.801119E-17	5.355079E-19
5.051699E+03	2.803323E-17	5.351514E-19
5.061546E+03	2.805760E-17	5.348476E-19
5.071393E+03	2.807981E-17	5.345106E-19
5.081241E+03	2.810850E-17	5.343052E-19
5.091088E+03	2.813477E-17	5.340621E-19
5.100935E+03	2.816725E-17	5.339456E-19
5.110783E+03	2.819705E-17	5.337867E-19
5.120630E+03	2.822839E-17	5.336659E-19
5.130478E+03	2.826556E-17	5.336640E-19
5.140325E+03	2.829958E-17	5.336118E-19
5.150172E+03	2.833913E-17	5.336730E-19
5.160020E+03	2.837524E-17	5.336786E-19
5.169867E+03	2.841215E-17	5.337091E-19
5.179714E+03	2.845414E-17	5.338447E-19
5.189562E+03	2.849220E-17	5.339165E-19
5.199409E+03	2.853058E-17	5.340046E-19
5.209257E+03	2.857356E-17	5.341894E-19
5.219104E+03	2.861209E-17	5.343017E-19
5.228951E+03	2.865043E-17	5.344216E-19
5.238799E+03	2.868842E-17	5.345461E-19
5.248646E+03	2.873031E-17	5.347549E-19
5.258493E+03	2.876699E-17	5.348786E-19
5.268341E+03	2.880271E-17	5.349967E-19
5.278188E+03	2.883725E-17	5.351055E-19
5.288035E+03	2.887037E-17	5.352009E-19
5.297883E+03	2.890182E-17	5.352785E-19
5.307730E+03	2.893581E-17	5.354166E-19
5.317578E+03	2.896306E-17	5.354438E-19
5.327425E+03	2.898773E-17	5.354375E-19
5.337272E+03	2.900948E-17	5.353919E-19
5.347120E+03	2.902795E-17	5.353009E-19
5.356967E+03	2.904281E-17	5.351586E-19
5.366814E+03	2.905377E-17	5.349602E-19
5.376662E+03	2.906062E-17	5.347023E-19
5.386509E+03	2.906334E-17	5.343845E-19
5.396356E+03	2.906209E-17	5.340106E-19
5.406204E+03	2.905737E-17	5.335895E-19
5.416051E+03	2.904957E-17	5.331282E-19
5.425899E+03	2.903814E-17	5.326167E-19
5.435746E+03	2.902264E-17	5.320468E-19
5.445593E+03	2.900293E-17	5.314158E-19
5.455441E+03	2.897458E-17	5.306426E-19
5.465288E+03	2.894679E-17	5.298958E-19
5.475135E+03	2.891535E-17	5.290981E-19
5.484983E+03	2.888061E-17	5.282557E-19
5.494830E+03	2.884289E-17	5.273744E-19
5.504677E+03	2.880252E-17	5.264601E-19
5.514525E+03	2.875536E-17	5.254368E-19
5.524372E+03	2.871058E-17	5.244724E-19
5.534220E+03	2.866400E-17	5.234898E-19
5.544067E+03	2.861584E-17	5.224932E-19
5.553914E+03	2.856192E-17	5.214058E-19
5.563762E+03	2.851126E-17	5.203924E-19
5.573609E+03	2.845963E-17	5.193756E-19
5.583456E+03	2.840282E-17	5.182782E-19
5.593304E+03	2.834978E-17	5.172633E-19
5.603151E+03	2.829629E-17	5.162538E-19
5.612999E+03	2.823811E-17	5.151722E-19
5.622846E+03	2.818415E-17	5.141808E-19
5.632693E+03	2.812582E-17	5.131228E-19
5.642541E+03	2.807198E-17	5.121596E-19
5.652388E+03	2.801840E-17	5.112138E-19
5.662235E+03	2.796090E-17	5.102091E-19
5.672083E+03	2.790826E-17	5.093056E-19
5.681930E+03	2.785199E-17	5.083477E-19
5.691777E+03	2.780081E-17	5.074951E-19
5.701625E+03	2.774625E-17	5.065927E-19
5.711472E+03	2.769702E-17	5.057994E-19
5.721320E+03	2.764467E-17	5.049607E-19
5.731167E+03	2.759785E-17	5.042345E-19
5.741014E+03	2.754813E-17	5.034669E-19
5.750862E+03	2.749989E-17	5.027376E-19
5.760709E+03	2.745747E-17	5.021257E-19
5.770556E+03	2.741246E-17	5.014778E-19
5.780404E+03	2.737342E-17	5.009500E-19
5.790251E+03	2.733198E-17	5.003892E-19
5.800098E+03	2.729243E-17	4.998741E-19
5.809946E+03	2.725906E-17	4.994828E-19
5.819793E+03	2.722349E-17	4.990620E-19
5.829641E+03	2.718999E-17	4.986899E-19
5.839488E+03	2.715862E-17	4.983675E-19
5.849335E+03	2.713359E-17	4.981722E-19
5.859183E+03	2.710656E-17	4.979507E-19
5.869030E+03	2.708174E-17	4.977804E-19
5.878877E+03	2.706332E-17	4.977385E-19
5.888725E+03	2.704296E-17	4.976716E-19
5.898572E+03	2.702483E-17	4.976563E-19
5.908419E+03	2.700893E-17	4.976927E-19
5.918267E+03	2.699525E-17	4.977806E-19
5.928114E+03	2.698374E-17	4.979195E-19
5.937962E+03	2.697856E-17	4.981859E-19
5.947809E+03	2.697133E-17	4.984254E-19
5.957656E+03	2.696617E-17	4.987139E-19
5.967504E+03	2.696302E-17	4.990507E-19
5.977351E+03	2.696182E-17	4.994346E-19
5.987198E+03	2.696250E-17	4.998644E-19
5.997046E+03	2.696498E-17	5.003388E-19
6.006893E+03	2.696918E-17	5.008562E-19
6.016741E+03	2.697499E-17	5.014150E-19
6.026588E+03	2.698232E-17	5.020136E-19
6.036435E+03	2.699105E-17	5.026497E-19
6.046283E+03	2.700108E-17	5.033216E-19
6.056130E+03	2.701228E-17	5.040271E-19
6.065977E+03	2.702450E-17	5.047636E-19
6.075825E+03	2.703763E-17	5.055290E-19
6.085672E+03	2.705152E-17	5.063205E-19
6.095519E+03	2.706601E-17	5.071355E-19
6.105367E+03	2.708095E-17	5.079711E-19
6.115214E+03	2.709619E-17	5.088246E-19
6.125062E+03	2.711155E-17	5.096928E-19
6.134909E+03	2.712686E-17	5.105726E-19
6.144756E+03	2.714195E-17	5.114609E-19
6.154604E+03	2.715664E-17	5.123542E-19
6.164451E+03	2.717074E-17	5.132491E-19
6.174298E+03	2.718407E-17	5.141423E-19
6.184146E+03	2.719223E-17	5.149504E-19
6.193993E+03	2.720343E-17	5.158288E-19
6.203840E+03	2.721327E-17	5.166944E-19
6.213688E+03	2.722156E-17	5.175433E-19
6.223535E+03	2.722807E-17	5.183716E-19
6.233383E+03	2.722843E-17	5.190953E-19
6.243230E+03	2.723080E-17	5.198702E-19
6.253077E+03	2.723078E-17	5.206124E-19
6.262925E+03	2.722814E-17	5.213174E-19
6.272772E+03	2.721846E-17	5.219001E-19
6.282619E+03	2.720991E-17	5.225170E-19
6.292467E+03	2.719804E-17	5.230827E-19
6.302314E+03	2.718260E-17	5.235921E-19
6.312161E+03	2.715912E-17	5.239588E-19
6.322009E+03	2.713572E-17	5.243391E-19
6.331856E+03	2.710790E-17	5.246457E-19
6.341704E+03	2.707116E-17	5.247908E-19
6.351551E+03	2.703354E-17	5.249296E-19
6.361398E+03	2.699053E-17	5.249736E-19
6.371246E+03	2.693764E-17	5.248346E-19
6.381093E+03	2.688291E-17	5.246682E-19
6.390940E+03	2.682196E-17	5.243882E-19
6.400788E+03	2.675053E-17	5.239105E-19
6.410635E+03	2.667701E-17	5.233979E-19
6.420483E+03	2.659347E-17	5.226943E-19
6.430330E+03	2.650880E-17	5.219732E-19
6.440177E+03	2.641910E-17	5.211571E-19
6.450025E+03	2.631975E-17	5.201539E-19
6.459872E+03	2.621863E-17	5.191181E-19
6.469719E+03	2.610758E-17	5.178877E-19
6.479567E+03	2.599491E-17	5.166258E-19
6.489414E+03	2.587287E-17	5.151780E-19
6.499261E+03	2.574989E-17	5.137109E-19
6.509109E+03	2.561839E-17	5.120726E-19
6.518956E+03	2.548676E-17	5.104297E-19
6.528804E+03	2.534752E-17	5.086316E-19
6.538651E+03	2.520891E-17	5.068432E-19
6.548498E+03	2.506350E-17	5.049141E-19
6.558346E+03	2.491942E-17	5.030073E-19
6.568193E+03	2.476926E-17	5.009731E-19
6.578040E+03	2.461722E-17	4.988953E-19
6.587888E+03	2.446738E-17	4.968561E-19
6.597735E+03	2.431241E-17	4.947068E-19
6.607582E+03	2.416015E-17	4.926057E-19
6.617430E+03	2.400334E-17	4.904049E-19
6.627277E+03	2.384600E-17	4.881855E-19
6.637125E+03	2.369203E-17	4.860275E-19
6.646972E+03	2.353430E-17	4.837844E-19
6.656819E+03	2.337673E-17	4.815360E-19
6.666667E+03	2.322313E-17	4.793609E-19
6.676514E+03	2.306649E-17	4.771143E-19
6.686361E+03	2.291063E-17	4.748748E-19
6.696209E+03	2.275929E-17	4.727197E-19
6.706056E+03	2.260557E-17	4.705059E-19
6.715903E+03	2.245320E-17	4.683109E-19
6.725751E+03	2.230584E-17	4.662105E-19
6.735598E+03	2.215669E-17	4.640635E-19
6.745446E+03	2.200943E-17	4.619461E-19
6.755293E+03	2.186759E-17	4.599328E-19
6.765140E+03	2.172452E-17	4.578839E-19
6.774988E+03	2.158378E-17	4.558744E-19
6.784835E+03	2.144552E-17	4.539075E-19
6.794682E+03	2.130986E-17	4.519860E-19
6.804530E+03	2.118023E-17	4.501826E-19
6.814377E+03	2.105014E-17	4.483601E-19
6.824225E+03	2.092302E-17	4.465915E-19
6.834072E+03	2.079900E-17	4.448795E-19
6.843919E+03	2.067815E-17	4.432262E-19
6.853767E+03	2.056376E-17	4.417026E-19
6.863614E+03	2.044955E-17	4.401739E-19
6.873461E+03	2.033880E-17	4.387108E-19
6.883309E+03	2.023159E-17	4.373157E-19
6.893156E+03	2.012799E-17	4.359903E-19
6.903003E+03	2.002808E-17	4.347367E-19
6.912851E+03	1.993193E-17	4.335567E-19
6.922698E+03	1.984266E-17	4.325190E-19
6.932546E+03	1.975418E-17	4.314911E-19
6.942393E+03	1.966961E-17	4.305417E-19
6.952240E+03	1.958902E-17	4.296722E-19
6.962088E+03	1.951244E-17	4.288843E-19
6.971935E+03	1.943992E-17	4.281792E-19
6.981782E+03	1.937149E-17	4.275581E-19
6.991630E+03	1.930718E-17	4.270224E-19
7.001477E+03	1.924704E-17	4.265731E-19
7.011324E+03	1.919107E-17	4.262114E-19
7.021172E+03	1.913930E-17	4.259381E-19
7.031019E+03	1.909177E-17	4.257546E-19
7.040867E+03	1.904848E-17	4.256615E-19
7.050714E+03	1.900945E-17	4.256596E-19
7.060561E+03	1.897470E-17	4.257501E-19
7.070409E+03	1.894423E-17	4.259334E-19
7.080256E+03	1.891805E-17	4.262104E-19
7.090103E+03	1.889617E-17	4.265817E-19
7.099951E+03	1.887859E-17	4.270478E-19
7.109798E+03	1.886531E-17	4.276094E-19
7.119645E+03	1.885634E-17	4.282672E-19
7.129493E+03	1.885167E-17	4.290213E-19
7.139340E+03	1.885129E-17	4.298724E-19
7.149188E+03	1.885520E-17	4.308207E-19
7.159035E+03	1.886045E-17	4.317995E-19
7.168882E+03	1.887290E-17	4.329431E-19
7.178730E+03	1.888961E-17	4.341849E-19
7.188577E+03	1.891055E-17	4.355249E-19
7.198424E+03	1.893570E-17	4.369632E-19
7.208272E+03	1.896505E-17	4.384998E-19
7.218119E+03	1.899858E-17	4.401349E-19
7.227967E+03	1.903624E-17	4.418680E-19
7.237814E+03	1.907504E-17	4.436301E-19
7.247661E+03	1.912090E-17	4.455590E-19
7.257509E+03	1.917080E-17	4.475853E-19
7.267356E+03	1.922469E-17	4.497085E-19
7.277203E+03	1.928256E-17	4.519283E-19
7.287051E+03	1.934132E-17	4.541733E-19
7.296898E+03	1.940695E-17	4.565838E-19
7.306745E+03	1.947639E-17	4.590888E-19
7.316593E+03	1.954957E-17	4.616871E-19
7.326440E+03	1.962337E-17	4.643051E-19
7.336288E+03	1.970384E-17	4.670865E-19
7.346135E+03	1.978784E-17	4.699577E-19
7.355982E+03	1.987530E-17	4.729170E-19
7.365830E+03	1.996300E-17	4.758886E-19
7.375677E+03	2.005709E-17	4.790189E-19
7.385524E+03	2.015435E-17	4.822322E-19
7.395372E+03	2.025152E-17	4.854500E-19
7.405219E+03	2.035479E-17	4.888217E-19
7.415066E+03	2.046090E-17	4.922690E-19
7.424914E+03	2.056649E-17	4.957117E-19
7.434761E+03	2.067786E-17	4.993015E-19
7.444609E+03	2.079164E-17	5.029579E-19
7.454456E+03	2.090442E-17	5.065983E-19
7.464303E+03	2.102257E-17	5.103771E-19
7.474151E+03	2.114265E-17	5.142117E-19
7.483998E+03	2.126116E-17	5.180166E-19
7.493845E+03	2.138455E-17	5.219492E-19
7.503693E+03	2.150592E-17	5.258416E-19
7.513540E+03	2.163181E-17	5.298533E-19
7.523387E+03	2.175522E-17	5.338133E-19
7.533235E+03	2.188273E-17	5.378828E-19
7.543082E+03	2.201072E-17	5.419734E-19
7.552930E+03	2.213544E-17	5.459925E-19
7.562777E+03	2.226357E-17	5.501050E-19
7.572624E+03	2.238788E-17	5.541319E-19
7.582472E+03	2.251510E-17	5.582398E-19
7.592319E+03	2.263788E-17	5.622463E-19
7.602166E+03	2.276303E-17	5.663205E-19
7.612014E+03	2.288311E-17	5.702769E-19
7.621861E+03	2.300497E-17	5.742864E-19
7.631709E+03	2.312107E-17	5.781604E-19
7.641556E+03	2.323836E-17	5.820718E-19
