#wls	flux	fluxerr
1.584158E+03	1.474010E-02	5.454431E-07
1.623762E+03	1.526731E-02	5.649519E-07
1.663366E+03	1.584269E-02	5.862432E-07
1.702970E+03	1.646902E-02	6.094200E-07
1.742574E+03	1.715289E-02	6.347260E-07
1.782178E+03	1.789781E-02	6.622910E-07
1.821782E+03	1.871306E-02	6.924585E-07
1.861386E+03	1.960128E-02	7.253259E-07
1.900990E+03	2.057472E-02	7.613472E-07
1.940594E+03	2.163899E-02	8.007296E-07
1.980198E+03	2.280213E-02	8.437703E-07
2.019802E+03	2.407478E-02	8.908635E-07
2.059406E+03	2.546848E-02	9.424360E-07
2.099010E+03	2.699354E-02	9.988691E-07
2.138614E+03	2.865889E-02	1.060494E-06
2.178218E+03	3.048484E-02	1.128061E-06
2.217822E+03	3.248870E-02	1.202212E-06
2.257426E+03	3.471143E-02	1.284462E-06
2.297030E+03	3.716943E-02	1.375417E-06
2.336634E+03	3.987956E-02	1.475703E-06
2.376238E+03	4.286613E-02	1.586218E-06
2.415842E+03	4.615146E-02	1.707788E-06
2.455446E+03	4.977035E-02	1.841702E-06
2.495050E+03	5.374721E-02	1.988861E-06
2.534653E+03	5.811267E-02	2.150400E-06
2.574257E+03	6.288650E-02	2.327051E-06
2.613861E+03	6.808897E-02	2.519563E-06
2.653465E+03	7.372757E-02	2.728214E-06
2.693069E+03	7.980240E-02	2.953006E-06
2.732673E+03	8.629404E-02	3.193222E-06
2.772277E+03	9.315590E-02	3.447138E-06
2.811881E+03	1.003255E-01	3.712440E-06
2.851485E+03	1.076984E-01	3.985267E-06
2.891089E+03	1.151638E-01	4.261518E-06
2.930693E+03	1.226367E-01	4.538044E-06
2.970297E+03	1.300056E-01	4.810721E-06
2.980198E+03	1.318180E-01	4.877785E-06
2.990099E+03	1.336130E-01	4.944207E-06
3.000000E+03	1.353869E-01	5.009850E-06
3.009901E+03	1.371425E-01	5.074814E-06
3.019802E+03	1.388726E-01	5.138836E-06
3.029703E+03	1.405765E-01	5.201887E-06
3.039604E+03	1.422502E-01	5.263821E-06
3.049505E+03	1.438929E-01	5.324604E-06
3.059406E+03	1.455003E-01	5.384087E-06
3.069307E+03	1.470717E-01	5.442233E-06
3.079208E+03	1.486028E-01	5.498890E-06
3.089109E+03	1.500895E-01	5.553903E-06
3.099010E+03	1.515310E-01	5.607243E-06
3.108911E+03	1.529231E-01	5.658758E-06
3.118812E+03	1.542683E-01	5.708534E-06
3.128713E+03	1.555564E-01	5.756200E-06
3.138614E+03	1.567900E-01	5.801849E-06
3.148515E+03	1.579656E-01	5.845350E-06
3.158416E+03	1.590829E-01	5.886693E-06
3.168317E+03	1.601358E-01	5.925654E-06
3.178218E+03	1.611275E-01	5.962352E-06
3.188119E+03	1.620555E-01	5.996691E-06
3.198020E+03	1.629147E-01	6.028485E-06
3.207921E+03	1.637092E-01	6.057884E-06
3.217822E+03	1.644404E-01	6.084941E-06
3.227723E+03	1.651017E-01	6.109411E-06
3.237624E+03	1.656983E-01	6.131487E-06
3.247525E+03	1.662302E-01	6.151170E-06
3.257426E+03	1.666980E-01	6.168481E-06
3.267327E+03	1.671030E-01	6.183466E-06
3.277228E+03	1.674494E-01	6.196286E-06
3.287129E+03	1.677397E-01	6.207028E-06
3.297030E+03	1.679768E-01	6.215800E-06
3.306931E+03	1.681643E-01	6.222737E-06
3.316832E+03	1.683063E-01	6.227995E-06
3.326733E+03	1.684103E-01	6.231841E-06
3.336634E+03	1.684791E-01	6.234386E-06
3.346535E+03	1.685187E-01	6.235853E-06
3.356436E+03	1.685358E-01	6.236484E-06
3.366337E+03	1.685372E-01	6.236535E-06
3.376238E+03	1.685302E-01	6.236278E-06
3.386139E+03	1.685204E-01	6.235916E-06
3.396040E+03	1.685135E-01	6.235661E-06
3.405941E+03	1.685196E-01	6.235884E-06
3.415842E+03	1.685442E-01	6.236794E-06
3.425743E+03	1.685908E-01	6.238517E-06
3.435644E+03	1.686664E-01	6.241315E-06
3.445545E+03	1.687753E-01	6.245344E-06
3.455446E+03	1.689188E-01	6.250655E-06
3.465347E+03	1.690972E-01	6.257256E-06
3.475248E+03	1.693129E-01	6.265240E-06
3.485149E+03	1.695575E-01	6.274290E-06
3.495050E+03	1.698280E-01	6.284300E-06
3.504950E+03	1.701105E-01	6.294752E-06
3.514851E+03	1.703910E-01	6.305132E-06
3.524752E+03	1.706538E-01	6.314856E-06
3.534653E+03	1.708798E-01	6.323217E-06
3.544554E+03	1.710499E-01	6.329514E-06
3.554455E+03	1.711407E-01	6.332874E-06
3.564356E+03	1.711396E-01	6.332831E-06
3.574257E+03	1.710626E-01	6.329983E-06
3.584158E+03	1.709292E-01	6.325044E-06
3.594059E+03	1.707584E-01	6.318726E-06
3.603960E+03	1.705692E-01	6.311722E-06
3.613861E+03	1.703810E-01	6.304758E-06
3.623762E+03	1.702079E-01	6.298354E-06
3.633663E+03	1.700647E-01	6.293055E-06
3.643564E+03	1.699623E-01	6.289267E-06
3.653465E+03	1.699111E-01	6.287370E-06
3.663366E+03	1.699179E-01	6.287622E-06
3.673267E+03	1.699897E-01	6.290279E-06
3.683168E+03	1.701321E-01	6.295547E-06
3.693069E+03	1.703482E-01	6.303542E-06
3.702970E+03	1.706418E-01	6.314409E-06
3.712871E+03	1.710165E-01	6.328272E-06
3.722772E+03	1.714723E-01	6.345140E-06
3.732673E+03	1.720151E-01	6.365225E-06
3.742574E+03	1.726436E-01	6.388481E-06
3.752475E+03	1.733648E-01	6.415168E-06
3.762376E+03	1.753263E-01	6.487752E-06
3.765387E+03	1.757597E-01	6.503788E-06
3.768399E+03	1.761419E-01	6.517933E-06
3.771410E+03	1.760850E-01	6.515826E-06
3.774422E+03	1.766016E-01	6.534943E-06
3.777433E+03	1.768864E-01	6.545483E-06
3.780445E+03	1.772026E-01	6.557181E-06
3.783455E+03	1.776880E-01	6.575144E-06
3.786466E+03	1.784621E-01	6.603787E-06
3.789478E+03	1.788744E-01	6.619044E-06
3.792489E+03	1.795938E-01	6.645663E-06
3.795501E+03	1.800736E-01	6.663420E-06
3.798512E+03	1.809133E-01	6.694491E-06
3.801523E+03	1.817388E-01	6.725037E-06
3.804535E+03	1.825421E-01	6.754765E-06
3.807546E+03	1.833101E-01	6.783183E-06
3.810557E+03	1.840375E-01	6.810099E-06
3.813568E+03	1.847137E-01	6.835120E-06
3.816579E+03	1.853308E-01	6.857954E-06
3.819591E+03	1.858835E-01	6.878408E-06
3.822602E+03	1.863641E-01	6.896191E-06
3.825614E+03	1.867672E-01	6.911108E-06
3.828625E+03	1.870903E-01	6.923064E-06
3.831636E+03	1.873361E-01	6.932160E-06
3.834648E+03	1.875760E-01	6.941037E-06
3.837658E+03	1.877625E-01	6.947937E-06
3.840670E+03	1.884366E-01	6.972883E-06
3.843681E+03	1.888434E-01	6.987935E-06
3.846693E+03	1.890411E-01	6.995249E-06
3.849704E+03	1.889241E-01	6.990922E-06
3.852715E+03	1.893210E-01	7.005607E-06
3.855727E+03	1.897777E-01	7.022508E-06
3.858738E+03	1.900097E-01	7.031091E-06
3.861750E+03	1.904700E-01	7.048125E-06
3.864760E+03	1.905242E-01	7.050129E-06
3.867771E+03	1.910277E-01	7.068763E-06
3.870783E+03	1.915016E-01	7.086297E-06
3.873794E+03	1.917351E-01	7.094938E-06
3.876806E+03	1.920259E-01	7.105698E-06
3.879817E+03	1.919666E-01	7.103505E-06
3.882828E+03	1.919016E-01	7.101098E-06
3.885840E+03	1.916495E-01	7.091770E-06
3.888850E+03	1.918670E-01	7.099817E-06
3.891862E+03	1.925954E-01	7.126770E-06
3.894873E+03	1.931364E-01	7.146791E-06
3.897884E+03	1.935637E-01	7.162604E-06
3.900896E+03	1.938724E-01	7.174025E-06
3.903907E+03	1.944423E-01	7.195114E-06
3.906919E+03	1.949062E-01	7.212280E-06
3.909930E+03	1.951260E-01	7.220414E-06
3.912941E+03	1.951357E-01	7.220773E-06
3.915952E+03	1.949198E-01	7.212783E-06
3.918963E+03	1.951768E-01	7.222295E-06
3.921975E+03	1.947483E-01	7.206438E-06
3.924986E+03	1.945756E-01	7.200046E-06
3.927998E+03	1.942066E-01	7.186392E-06
3.931009E+03	1.937487E-01	7.169446E-06
3.934020E+03	1.933791E-01	7.155772E-06
3.937032E+03	1.930954E-01	7.145273E-06
3.940043E+03	1.929808E-01	7.141033E-06
3.943054E+03	1.930040E-01	7.141892E-06
3.946065E+03	1.929768E-01	7.140885E-06
3.949076E+03	1.929935E-01	7.141503E-06
3.952088E+03	1.928846E-01	7.137473E-06
3.955099E+03	1.929132E-01	7.138529E-06
3.958111E+03	1.926289E-01	7.128011E-06
3.961122E+03	1.922248E-01	7.113058E-06
3.964133E+03	1.920854E-01	7.107900E-06
3.967145E+03	1.919302E-01	7.102155E-06
3.970155E+03	1.918911E-01	7.100707E-06
3.973167E+03	1.919475E-01	7.102794E-06
3.976178E+03	1.921949E-01	7.111950E-06
3.979189E+03	1.926075E-01	7.127217E-06
3.982201E+03	1.928016E-01	7.134399E-06
3.985212E+03	1.928834E-01	7.137426E-06
3.988224E+03	1.931482E-01	7.147224E-06
3.991235E+03	1.931896E-01	7.148758E-06
3.994247E+03	1.935330E-01	7.161466E-06
3.997257E+03	1.935394E-01	7.161702E-06
4.000268E+03	1.934496E-01	7.158377E-06
4.003280E+03	1.936922E-01	7.167354E-06
4.006291E+03	1.937789E-01	7.170565E-06
4.009303E+03	1.934111E-01	7.156952E-06
4.012314E+03	1.932311E-01	7.150293E-06
4.015326E+03	1.932105E-01	7.149530E-06
4.018337E+03	1.933023E-01	7.152928E-06
4.021348E+03	1.934631E-01	7.158878E-06
4.024359E+03	1.934583E-01	7.158701E-06
4.027370E+03	1.936868E-01	7.167155E-06
4.030382E+03	1.940018E-01	7.178813E-06
4.033393E+03	1.943287E-01	7.190907E-06
4.036404E+03	1.946494E-01	7.202774E-06
4.039416E+03	1.949484E-01	7.213837E-06
4.042427E+03	1.952105E-01	7.223536E-06
4.045439E+03	1.954229E-01	7.231396E-06
4.048450E+03	1.955755E-01	7.237042E-06
4.051460E+03	1.958859E-01	7.248528E-06
4.054472E+03	1.961721E-01	7.259120E-06
4.057483E+03	1.958841E-01	7.248462E-06
4.060495E+03	1.953222E-01	7.227669E-06
4.063506E+03	1.946961E-01	7.204503E-06
4.066517E+03	1.941364E-01	7.183789E-06
4.069529E+03	1.934259E-01	7.157500E-06
4.072540E+03	1.925011E-01	7.123278E-06
4.075551E+03	1.918699E-01	7.099920E-06
4.078562E+03	1.916054E-01	7.090135E-06
4.081574E+03	1.910554E-01	7.069781E-06
4.084585E+03	1.910702E-01	7.070331E-06
4.087596E+03	1.906596E-01	7.055135E-06
4.090608E+03	1.906197E-01	7.053658E-06
4.093619E+03	1.905409E-01	7.050743E-06
4.096630E+03	1.904818E-01	7.048556E-06
4.099642E+03	1.902749E-01	7.040898E-06
4.102652E+03	1.897907E-01	7.022981E-06
4.105664E+03	1.896155E-01	7.016499E-06
4.108675E+03	1.894600E-01	7.010747E-06
4.111687E+03	1.892938E-01	7.004596E-06
4.114698E+03	1.893446E-01	7.006475E-06
4.117709E+03	1.898092E-01	7.023668E-06
4.120721E+03	1.901461E-01	7.036133E-06
4.123732E+03	1.906383E-01	7.054347E-06
4.126744E+03	1.912222E-01	7.075953E-06
4.129754E+03	1.917240E-01	7.094522E-06
4.132765E+03	1.922469E-01	7.113872E-06
4.135777E+03	1.928439E-01	7.135961E-06
4.138788E+03	1.933509E-01	7.154724E-06
4.141800E+03	1.934688E-01	7.159086E-06
4.144811E+03	1.933998E-01	7.156530E-06
4.147823E+03	1.935937E-01	7.163707E-06
4.150834E+03	1.933042E-01	7.152993E-06
4.153845E+03	1.932399E-01	7.150615E-06
4.156856E+03	1.932978E-01	7.152758E-06
4.159867E+03	1.934848E-01	7.159676E-06
4.162879E+03	1.936681E-01	7.166460E-06
4.165890E+03	1.939203E-01	7.175793E-06
4.168901E+03	1.944063E-01	7.193775E-06
4.171913E+03	1.950206E-01	7.216506E-06
4.174924E+03	1.957029E-01	7.241754E-06
4.177936E+03	1.960912E-01	7.256124E-06
4.180947E+03	1.967971E-01	7.282243E-06
4.183957E+03	1.973540E-01	7.302853E-06
4.186969E+03	1.977769E-01	7.318500E-06
4.189980E+03	1.986039E-01	7.349104E-06
4.192992E+03	1.997294E-01	7.390752E-06
4.196003E+03	2.009044E-01	7.434230E-06
4.199015E+03	2.019994E-01	7.474749E-06
4.202026E+03	2.026477E-01	7.498739E-06
4.205037E+03	2.031003E-01	7.515486E-06
4.208049E+03	2.036974E-01	7.537583E-06
4.211059E+03	2.044732E-01	7.566287E-06
4.214071E+03	2.047021E-01	7.574758E-06
4.217082E+03	2.052164E-01	7.593788E-06
4.220093E+03	2.056941E-01	7.611466E-06
4.223105E+03	2.061377E-01	7.627881E-06
4.226116E+03	2.064042E-01	7.637744E-06
4.229128E+03	2.066813E-01	7.647997E-06
4.232139E+03	2.069223E-01	7.656915E-06
4.235150E+03	2.074052E-01	7.674785E-06
4.238161E+03	2.077238E-01	7.686571E-06
4.241172E+03	2.079153E-01	7.693659E-06
4.244184E+03	2.080413E-01	7.698322E-06
4.247195E+03	2.085385E-01	7.716720E-06
4.250206E+03	2.090432E-01	7.735395E-06
4.253218E+03	2.091957E-01	7.741038E-06
4.256229E+03	2.096596E-01	7.758203E-06
4.259241E+03	2.102631E-01	7.780534E-06
4.262251E+03	2.110520E-01	7.809728E-06
4.265263E+03	2.116164E-01	7.830612E-06
4.268274E+03	2.124998E-01	7.863300E-06
4.271285E+03	2.133997E-01	7.896602E-06
4.274297E+03	2.140948E-01	7.922323E-06
4.277308E+03	2.149206E-01	7.952879E-06
4.280320E+03	2.157022E-01	7.981803E-06
4.283331E+03	2.160803E-01	7.995793E-06
4.286342E+03	2.164562E-01	8.009703E-06
4.289353E+03	2.166241E-01	8.015915E-06
4.292364E+03	2.169108E-01	8.026525E-06
4.295376E+03	2.171955E-01	8.037061E-06
4.298387E+03	2.174514E-01	8.046529E-06
4.301398E+03	2.171019E-01	8.033594E-06
4.304410E+03	2.170140E-01	8.030343E-06
4.307421E+03	2.168114E-01	8.022847E-06
4.310433E+03	2.165786E-01	8.014233E-06
4.313444E+03	2.165080E-01	8.011619E-06
4.316454E+03	2.162366E-01	8.001576E-06
4.319466E+03	2.157838E-01	7.984821E-06
4.322477E+03	2.153517E-01	7.968833E-06
4.325489E+03	2.149427E-01	7.953697E-06
4.328500E+03	2.140422E-01	7.920376E-06
4.331512E+03	2.132063E-01	7.889442E-06
4.334523E+03	2.128406E-01	7.875912E-06
4.337534E+03	2.127171E-01	7.871341E-06
4.340546E+03	2.122419E-01	7.853755E-06
4.343556E+03	2.119991E-01	7.844771E-06
4.346568E+03	2.115363E-01	7.827647E-06
4.349579E+03	2.110441E-01	7.809432E-06
4.352590E+03	2.108454E-01	7.802081E-06
4.355602E+03	2.106358E-01	7.794324E-06
4.358613E+03	2.103160E-01	7.782492E-06
4.361625E+03	2.104537E-01	7.787587E-06
4.364636E+03	2.103037E-01	7.782037E-06
4.367647E+03	2.099186E-01	7.767784E-06
4.370658E+03	2.095135E-01	7.752796E-06
4.373669E+03	2.089405E-01	7.731594E-06
4.376681E+03	2.081271E-01	7.701493E-06
4.379692E+03	2.072223E-01	7.668010E-06
4.382703E+03	2.062401E-01	7.631666E-06
4.385715E+03	2.050194E-01	7.586496E-06
4.388726E+03	2.040290E-01	7.549847E-06
4.391738E+03	2.031469E-01	7.517205E-06
4.394749E+03	2.019916E-01	7.474456E-06
4.397760E+03	2.008725E-01	7.433045E-06
4.400771E+03	1.998031E-01	7.393472E-06
4.403782E+03	1.986182E-01	7.349626E-06
4.406794E+03	1.974902E-01	7.307886E-06
4.409805E+03	1.962402E-01	7.261634E-06
4.412817E+03	1.952929E-01	7.226578E-06
4.415828E+03	1.946428E-01	7.202523E-06
4.418839E+03	1.940896E-01	7.182052E-06
4.421850E+03	1.936540E-01	7.165933E-06
4.424861E+03	1.933726E-01	7.155518E-06
4.427873E+03	1.934726E-01	7.159219E-06
4.430884E+03	1.936122E-01	7.164384E-06
4.433895E+03	1.939015E-01	7.175090E-06
4.436907E+03	1.943607E-01	7.192082E-06
4.439918E+03	1.949363E-01	7.213380E-06
4.442930E+03	1.954652E-01	7.232954E-06
4.445941E+03	1.957510E-01	7.243530E-06
4.448951E+03	1.961281E-01	7.257485E-06
4.451963E+03	1.965254E-01	7.272185E-06
4.454974E+03	1.970294E-01	7.290833E-06
4.457986E+03	1.975350E-01	7.309543E-06
4.460997E+03	1.978626E-01	7.321666E-06
4.464009E+03	1.981582E-01	7.332606E-06
4.467020E+03	1.984198E-01	7.342286E-06
4.470031E+03	1.982830E-01	7.337224E-06
4.473043E+03	1.980071E-01	7.327012E-06
4.476053E+03	1.978046E-01	7.319518E-06
4.479065E+03	1.975538E-01	7.310239E-06
4.482076E+03	1.973877E-01	7.304092E-06
4.485087E+03	1.967505E-01	7.280513E-06
4.488099E+03	1.962280E-01	7.261180E-06
4.491110E+03	1.956359E-01	7.239267E-06
4.494122E+03	1.952228E-01	7.223984E-06
4.497133E+03	1.947109E-01	7.205039E-06
4.500144E+03	1.943708E-01	7.192455E-06
4.503155E+03	1.941169E-01	7.183059E-06
4.506166E+03	1.943072E-01	7.190101E-06
4.509178E+03	1.941774E-01	7.185300E-06
4.512189E+03	1.940489E-01	7.180543E-06
4.515200E+03	1.941695E-01	7.185006E-06
4.518212E+03	1.939694E-01	7.177601E-06
4.521223E+03	1.936204E-01	7.164686E-06
4.524235E+03	1.933677E-01	7.155337E-06
4.527246E+03	1.931959E-01	7.148978E-06
4.530257E+03	1.928445E-01	7.135978E-06
4.533268E+03	1.926181E-01	7.127598E-06
4.536279E+03	1.926318E-01	7.128104E-06
4.539291E+03	1.926003E-01	7.126938E-06
4.542302E+03	1.925671E-01	7.125710E-06
4.545314E+03	1.920193E-01	7.105439E-06
4.548325E+03	1.914039E-01	7.082669E-06
4.551337E+03	1.907518E-01	7.058539E-06
4.554348E+03	1.900306E-01	7.031849E-06
4.557358E+03	1.895792E-01	7.015146E-06
4.560370E+03	1.890148E-01	6.994261E-06
4.563381E+03	1.881974E-01	6.964014E-06
4.566392E+03	1.875343E-01	6.939479E-06
4.569404E+03	1.869581E-01	6.918154E-06
4.572415E+03	1.864509E-01	6.899389E-06
4.575427E+03	1.855374E-01	6.865584E-06
4.578438E+03	1.849150E-01	6.842553E-06
4.581450E+03	1.843702E-01	6.822394E-06
4.584460E+03	1.839690E-01	6.807547E-06
4.587471E+03	1.834500E-01	6.788341E-06
4.590483E+03	1.827561E-01	6.762664E-06
4.593494E+03	1.820863E-01	6.737880E-06
4.596506E+03	1.814107E-01	6.712881E-06
4.599517E+03	1.808993E-01	6.693956E-06
4.602528E+03	1.805809E-01	6.682176E-06
4.605540E+03	1.802790E-01	6.671003E-06
4.608550E+03	1.798349E-01	6.654570E-06
4.611562E+03	1.793612E-01	6.637042E-06
4.614573E+03	1.790350E-01	6.624970E-06
4.617585E+03	1.787546E-01	6.614594E-06
4.620596E+03	1.786100E-01	6.609246E-06
4.623607E+03	1.783890E-01	6.601066E-06
4.626619E+03	1.782529E-01	6.596031E-06
4.629630E+03	1.779800E-01	6.585932E-06
4.632641E+03	1.777461E-01	6.577277E-06
4.635652E+03	1.774698E-01	6.567052E-06
4.638663E+03	1.773322E-01	6.561959E-06
4.641675E+03	1.771125E-01	6.553831E-06
4.644686E+03	1.771987E-01	6.557020E-06
4.647698E+03	1.771093E-01	6.553713E-06
4.650709E+03	1.773779E-01	6.563652E-06
4.653720E+03	1.772566E-01	6.559163E-06
4.656732E+03	1.772391E-01	6.558515E-06
4.659743E+03	1.772694E-01	6.559635E-06
4.662754E+03	1.772508E-01	6.558948E-06
4.665765E+03	1.770711E-01	6.552297E-06
4.668777E+03	1.768577E-01	6.544402E-06
4.671788E+03	1.766925E-01	6.538288E-06
4.674799E+03	1.765425E-01	6.532740E-06
4.677811E+03	1.763265E-01	6.524746E-06
4.680822E+03	1.759737E-01	6.511692E-06
4.683834E+03	1.755113E-01	6.494579E-06
4.686845E+03	1.752087E-01	6.483381E-06
4.689855E+03	1.747966E-01	6.468133E-06
4.692867E+03	1.745477E-01	6.458922E-06
4.695878E+03	1.743685E-01	6.452292E-06
4.698890E+03	1.743009E-01	6.449791E-06
4.701901E+03	1.741520E-01	6.444279E-06
4.704912E+03	1.739420E-01	6.436511E-06
4.707924E+03	1.738632E-01	6.433592E-06
4.710935E+03	1.739665E-01	6.437416E-06
4.713947E+03	1.739625E-01	6.437269E-06
4.716957E+03	1.738400E-01	6.432735E-06
4.719968E+03	1.736728E-01	6.426549E-06
4.722980E+03	1.738986E-01	6.434903E-06
4.725991E+03	1.739720E-01	6.437618E-06
4.729003E+03	1.742369E-01	6.447420E-06
4.732014E+03	1.743833E-01	6.452837E-06
4.735026E+03	1.743038E-01	6.449897E-06
4.738037E+03	1.741428E-01	6.443941E-06
4.741048E+03	1.741572E-01	6.444473E-06
4.744059E+03	1.747248E-01	6.465476E-06
4.747070E+03	1.752518E-01	6.484978E-06
4.750082E+03	1.754700E-01	6.493052E-06
4.753093E+03	1.757190E-01	6.502265E-06
4.756104E+03	1.760917E-01	6.516056E-06
4.759116E+03	1.764790E-01	6.530388E-06
4.762127E+03	1.768847E-01	6.545401E-06
4.765139E+03	1.771545E-01	6.555385E-06
4.768150E+03	1.773893E-01	6.564071E-06
4.771160E+03	1.776371E-01	6.573241E-06
4.774172E+03	1.781433E-01	6.591971E-06
4.777183E+03	1.785180E-01	6.605837E-06
4.780195E+03	1.787830E-01	6.615642E-06
4.783206E+03	1.790894E-01	6.626983E-06
4.786217E+03	1.793059E-01	6.634992E-06
4.789229E+03	1.795809E-01	6.645168E-06
4.792240E+03	1.796981E-01	6.649507E-06
4.795251E+03	1.799232E-01	6.657836E-06
4.798262E+03	1.799989E-01	6.660638E-06
4.801274E+03	1.802030E-01	6.668188E-06
4.804285E+03	1.804857E-01	6.678651E-06
4.807296E+03	1.808674E-01	6.692773E-06
4.810308E+03	1.811338E-01	6.702633E-06
4.813319E+03	1.816054E-01	6.720083E-06
4.816331E+03	1.820103E-01	6.735067E-06
4.819342E+03	1.823212E-01	6.746570E-06
4.822352E+03	1.823898E-01	6.749110E-06
4.825364E+03	1.822603E-01	6.744318E-06
4.828375E+03	1.823725E-01	6.748468E-06
4.831387E+03	1.824404E-01	6.750981E-06
4.834398E+03	1.823759E-01	6.748594E-06
4.837409E+03	1.823085E-01	6.746101E-06
4.840421E+03	1.823925E-01	6.749208E-06
4.843432E+03	1.824437E-01	6.751103E-06
4.846444E+03	1.824916E-01	6.752876E-06
4.849454E+03	1.826074E-01	6.757161E-06
4.852465E+03	1.828435E-01	6.765898E-06
4.855477E+03	1.828230E-01	6.765137E-06
4.858488E+03	1.827286E-01	6.761647E-06
4.861500E+03	1.825791E-01	6.756115E-06
4.864511E+03	1.824109E-01	6.749891E-06
4.867523E+03	1.822241E-01	6.742979E-06
4.870534E+03	1.820729E-01	6.737381E-06
4.873545E+03	1.820287E-01	6.735748E-06
4.876556E+03	1.819477E-01	6.732750E-06
4.879567E+03	1.817228E-01	6.724425E-06
4.882579E+03	1.817117E-01	6.724015E-06
4.885590E+03	1.818242E-01	6.728177E-06
4.888601E+03	1.820061E-01	6.734910E-06
4.891613E+03	1.819377E-01	6.732380E-06
4.894624E+03	1.819216E-01	6.731783E-06
4.897636E+03	1.820280E-01	6.735721E-06
4.900647E+03	1.820800E-01	6.737643E-06
4.903657E+03	1.820425E-01	6.736258E-06
4.906669E+03	1.820393E-01	6.736137E-06
4.909680E+03	1.820348E-01	6.735973E-06
4.912692E+03	1.822392E-01	6.743535E-06
4.915703E+03	1.822321E-01	6.743273E-06
4.918714E+03	1.822762E-01	6.744904E-06
4.921726E+03	1.820409E-01	6.736196E-06
4.924737E+03	1.817534E-01	6.725557E-06
4.927749E+03	1.814140E-01	6.712999E-06
4.930759E+03	1.810577E-01	6.699814E-06
4.933771E+03	1.806672E-01	6.685366E-06
4.936782E+03	1.802946E-01	6.671576E-06
4.939793E+03	1.799395E-01	6.658439E-06
4.942805E+03	1.796020E-01	6.645950E-06
4.945816E+03	1.793162E-01	6.635373E-06
4.948828E+03	1.790987E-01	6.627326E-06
4.951839E+03	1.789833E-01	6.623056E-06
4.954850E+03	1.788844E-01	6.619394E-06
