#wls	flux	fluxerr
1.584158E+03	9.687907E-05	0.000000E+00
1.623762E+03	9.724081E-05	0.000000E+00
1.663366E+03	9.763423E-05	0.000000E+00
1.702970E+03	9.802508E-05	0.000000E+00
1.742574E+03	9.844852E-05	0.000000E+00
1.782178E+03	9.888759E-05	0.000000E+00
1.821782E+03	9.936030E-05	0.000000E+00
1.861386E+03	9.983178E-05	0.000000E+00
1.900990E+03	1.003377E-04	0.000000E+00
1.940594E+03	1.008430E-04	0.000000E+00
1.980198E+03	1.013834E-04	0.000000E+00
2.019802E+03	1.019414E-04	0.000000E+00
2.059406E+03	1.025355E-04	0.000000E+00
2.099010E+03	1.031295E-04	0.000000E+00
2.138614E+03	1.037601E-04	0.000000E+00
2.178218E+03	1.044091E-04	0.000000E+00
2.217822E+03	1.050768E-04	0.000000E+00
2.257426E+03	1.057816E-04	0.000000E+00
2.297030E+03	1.064867E-04	0.000000E+00
2.336634E+03	1.072293E-04	0.000000E+00
2.376238E+03	1.079908E-04	0.000000E+00
2.415842E+03	1.087713E-04	0.000000E+00
2.455446E+03	1.095898E-04	0.000000E+00
2.495050E+03	1.104083E-04	0.000000E+00
2.534653E+03	1.112652E-04	0.000000E+00
2.574257E+03	1.121414E-04	0.000000E+00
2.613861E+03	1.130567E-04	0.000000E+00
2.653465E+03	1.139725E-04	0.000000E+00
2.693069E+03	1.149283E-04	0.000000E+00
2.732673E+03	1.159052E-04	0.000000E+00
2.772277E+03	1.169038E-04	0.000000E+00
2.811881E+03	1.179251E-04	0.000000E+00
2.851485E+03	1.189907E-04	0.000000E+00
2.891089E+03	1.200819E-04	0.000000E+00
2.930693E+03	1.212006E-04	0.000000E+00
2.970297E+03	1.223489E-04	0.000000E+00
2.980198E+03	1.226461E-04	0.000000E+00
2.990099E+03	1.229245E-04	0.000000E+00
3.000000E+03	1.232259E-04	0.000000E+00
3.009901E+03	1.235294E-04	0.000000E+00
3.019802E+03	1.238352E-04	0.000000E+00
3.029703E+03	1.241433E-04	0.000000E+00
3.039604E+03	1.244537E-04	0.000000E+00
3.049505E+03	1.247664E-04	0.000000E+00
3.059406E+03	1.250605E-04	0.000000E+00
3.069307E+03	1.253782E-04	0.000000E+00
3.079208E+03	1.256985E-04	0.000000E+00
3.089109E+03	1.260214E-04	0.000000E+00
3.099010E+03	1.263471E-04	0.000000E+00
3.108911E+03	1.266755E-04	0.000000E+00
3.118812E+03	1.270068E-04	0.000000E+00
3.128713E+03	1.273410E-04	0.000000E+00
3.138614E+03	1.276782E-04	0.000000E+00
3.148515E+03	1.280185E-04	0.000000E+00
3.158416E+03	1.283621E-04	0.000000E+00
3.168317E+03	1.287088E-04	0.000000E+00
3.178218E+03	1.290589E-04	0.000000E+00
3.188119E+03	1.294125E-04	0.000000E+00
3.198020E+03	1.297696E-04	0.000000E+00
3.207921E+03	1.301304E-04	0.000000E+00
3.217822E+03	1.304949E-04	0.000000E+00
3.227723E+03	1.308633E-04	0.000000E+00
3.237624E+03	1.312356E-04	0.000000E+00
3.247525E+03	1.316120E-04	0.000000E+00
3.257426E+03	1.319925E-04	0.000000E+00
3.267327E+03	1.323996E-04	0.000000E+00
3.277228E+03	1.327890E-04	0.000000E+00
3.287129E+03	1.331829E-04	0.000000E+00
3.297030E+03	1.335815E-04	0.000000E+00
3.306931E+03	1.339849E-04	0.000000E+00
3.316832E+03	1.343933E-04	0.000000E+00
3.326733E+03	1.348067E-04	0.000000E+00
3.336634E+03	1.352254E-04	0.000000E+00
3.346535E+03	1.356721E-04	0.000000E+00
3.356436E+03	1.361018E-04	0.000000E+00
3.366337E+03	1.365372E-04	0.000000E+00
3.376238E+03	1.369784E-04	0.000000E+00
3.386139E+03	1.374257E-04	0.000000E+00
3.396040E+03	1.379021E-04	0.000000E+00
3.405941E+03	1.383620E-04	0.000000E+00
3.415842E+03	1.388284E-04	0.000000E+00
3.425743E+03	1.393015E-04	0.000000E+00
3.435644E+03	1.397816E-04	0.000000E+00
3.445545E+03	1.402920E-04	0.000000E+00
3.455446E+03	1.407866E-04	0.000000E+00
3.465347E+03	1.412887E-04	0.000000E+00
3.475248E+03	1.417985E-04	0.000000E+00
3.485149E+03	1.423163E-04	0.000000E+00
3.495050E+03	1.428658E-04	0.000000E+00
3.504950E+03	1.434002E-04	0.000000E+00
3.514851E+03	1.439432E-04	0.000000E+00
3.524752E+03	1.444950E-04	0.000000E+00
3.534653E+03	1.450799E-04	0.000000E+00
3.544554E+03	1.456502E-04	0.000000E+00
3.554455E+03	1.462302E-04	0.000000E+00
3.564356E+03	1.468443E-04	0.000000E+00
3.574257E+03	1.474443E-04	0.000000E+00
3.584158E+03	1.480548E-04	0.000000E+00
3.594059E+03	1.486759E-04	0.000000E+00
3.603960E+03	1.493327E-04	0.000000E+00
3.613861E+03	1.499762E-04	0.000000E+00
3.623762E+03	1.506313E-04	0.000000E+00
3.633663E+03	1.513232E-04	0.000000E+00
3.643564E+03	1.520026E-04	0.000000E+00
3.653465E+03	1.526945E-04	0.000000E+00
3.663366E+03	1.533993E-04	0.000000E+00
3.673267E+03	1.541426E-04	0.000000E+00
3.683168E+03	1.548744E-04	0.000000E+00
3.693069E+03	1.556201E-04	0.000000E+00
3.702970E+03	1.564058E-04	0.000000E+00
3.712871E+03	1.571806E-04	0.000000E+00
3.722772E+03	1.579707E-04	0.000000E+00
3.732673E+03	1.588022E-04	0.000000E+00
3.742574E+03	1.596238E-04	0.000000E+00
3.752475E+03	1.604617E-04	0.000000E+00
3.762376E+03	1.613165E-04	0.000000E+00
3.772277E+03	1.622149E-04	0.000000E+00
3.782178E+03	1.631048E-04	0.000000E+00
3.792079E+03	1.640129E-04	0.000000E+00
3.801980E+03	1.649665E-04	0.000000E+00
3.811881E+03	1.659125E-04	0.000000E+00
3.821782E+03	1.668782E-04	0.000000E+00
3.831683E+03	1.678914E-04	0.000000E+00
3.841584E+03	1.688983E-04	0.000000E+00
3.851485E+03	1.699265E-04	0.000000E+00
3.861386E+03	1.709765E-04	0.000000E+00
3.871287E+03	1.720770E-04	0.000000E+00
3.881188E+03	1.731727E-04	0.000000E+00
3.891089E+03	1.742922E-04	0.000000E+00
3.900990E+03	1.754644E-04	0.000000E+00
3.910891E+03	1.766333E-04	0.000000E+00
3.920792E+03	1.778280E-04	0.000000E+00
3.930693E+03	1.790489E-04	0.000000E+00
3.940594E+03	1.803261E-04	0.000000E+00
3.950495E+03	1.816022E-04	0.000000E+00
3.960396E+03	1.829068E-04	0.000000E+00
3.970297E+03	1.842408E-04	0.000000E+00
3.980198E+03	1.856348E-04	0.000000E+00
3.990099E+03	1.870300E-04	0.000000E+00
4.000000E+03	1.884571E-04	0.000000E+00
4.009901E+03	1.899169E-04	0.000000E+00
4.019802E+03	1.914409E-04	0.000000E+00
4.029703E+03	1.929690E-04	0.000000E+00
4.039604E+03	1.945325E-04	0.000000E+00
4.049505E+03	1.961324E-04	0.000000E+00
4.059406E+03	1.977697E-04	0.000000E+00
4.069307E+03	1.994775E-04	0.000000E+00
4.079208E+03	2.011930E-04	0.000000E+00
4.089109E+03	2.029492E-04	0.000000E+00
4.099010E+03	2.047472E-04	0.000000E+00
4.108911E+03	2.065881E-04	0.000000E+00
4.118812E+03	2.084732E-04	0.000000E+00
4.128713E+03	2.104372E-04	0.000000E+00
4.138614E+03	2.124146E-04	0.000000E+00
4.148515E+03	2.144399E-04	0.000000E+00
4.158416E+03	2.165145E-04	0.000000E+00
4.168317E+03	2.186399E-04	0.000000E+00
4.178218E+03	2.208174E-04	0.000000E+00
4.188119E+03	2.230485E-04	0.000000E+00
4.198020E+03	2.253348E-04	0.000000E+00
4.207921E+03	2.276778E-04	0.000000E+00
4.217822E+03	2.301158E-04	0.000000E+00
4.227723E+03	2.325776E-04	0.000000E+00
4.237624E+03	2.351011E-04	0.000000E+00
4.247525E+03	2.376881E-04	0.000000E+00
4.257426E+03	2.403406E-04	0.000000E+00
4.267327E+03	2.430602E-04	0.000000E+00
4.277228E+03	2.458491E-04	0.000000E+00
4.287129E+03	2.487091E-04	0.000000E+00
4.297030E+03	2.516424E-04	0.000000E+00
4.306931E+03	2.546511E-04	0.000000E+00
4.316832E+03	2.577374E-04	0.000000E+00
4.326733E+03	2.609034E-04	0.000000E+00
4.336634E+03	2.641516E-04	0.000000E+00
4.346535E+03	2.674845E-04	0.000000E+00
4.356436E+03	2.708617E-04	0.000000E+00
4.366337E+03	2.743705E-04	0.000000E+00
4.376238E+03	2.779718E-04	0.000000E+00
4.386139E+03	2.816676E-04	0.000000E+00
4.396040E+03	2.854614E-04	0.000000E+00
4.405941E+03	2.893555E-04	0.000000E+00
4.415842E+03	2.933531E-04	0.000000E+00
4.425743E+03	2.974575E-04	0.000000E+00
4.435644E+03	3.016236E-04	0.000000E+00
4.445545E+03	3.059497E-04	0.000000E+00
4.455446E+03	3.103917E-04	0.000000E+00
4.465347E+03	3.149534E-04	0.000000E+00
4.475248E+03	3.196380E-04	0.000000E+00
4.485149E+03	3.243981E-04	0.000000E+00
4.495050E+03	3.293389E-04	0.000000E+00
4.504950E+03	3.344135E-04	0.000000E+00
4.514851E+03	3.395728E-04	0.000000E+00
4.524752E+03	3.449265E-04	0.000000E+00
4.534653E+03	3.504264E-04	0.000000E+00
4.544554E+03	3.560203E-04	0.000000E+00
4.554455E+03	3.618240E-04	0.000000E+00
4.564356E+03	3.677863E-04	0.000000E+00
4.574257E+03	3.738534E-04	0.000000E+00
4.584158E+03	3.801461E-04	0.000000E+00
4.594059E+03	3.866112E-04	0.000000E+00
4.603960E+03	3.931926E-04	0.000000E+00
4.613861E+03	4.000166E-04	0.000000E+00
4.623762E+03	4.069645E-04	0.000000E+00
4.633663E+03	4.141676E-04	0.000000E+00
4.643564E+03	4.215025E-04	0.000000E+00
4.653465E+03	4.291049E-04	0.000000E+00
4.663366E+03	4.368476E-04	0.000000E+00
4.673267E+03	4.448713E-04	0.000000E+00
4.683168E+03	4.530436E-04	0.000000E+00
4.693069E+03	4.615103E-04	0.000000E+00
4.702970E+03	4.701344E-04	0.000000E+00
4.712871E+03	4.789924E-04	0.000000E+00
4.722772E+03	4.881660E-04	0.000000E+00
4.732673E+03	4.975099E-04	0.000000E+00
4.742574E+03	5.071050E-04	0.000000E+00
4.752475E+03	5.170373E-04	0.000000E+00
4.762376E+03	5.271532E-04	0.000000E+00
4.772277E+03	5.375375E-04	0.000000E+00
4.782178E+03	5.482811E-04	0.000000E+00
4.792079E+03	5.592209E-04	0.000000E+00
4.801980E+03	5.704463E-04	0.000000E+00
4.811881E+03	5.819627E-04	0.000000E+00
4.821782E+03	5.938673E-04	0.000000E+00
4.831683E+03	6.059834E-04	0.000000E+00
4.841584E+03	6.184062E-04	0.000000E+00
4.851485E+03	6.311404E-04	0.000000E+00
4.861386E+03	6.441911E-04	0.000000E+00
4.871287E+03	6.575623E-04	0.000000E+00
4.881188E+03	6.712582E-04	0.000000E+00
4.891089E+03	6.852823E-04	0.000000E+00
4.900990E+03	6.997465E-04	0.000000E+00
4.910891E+03	7.144392E-04	0.000000E+00
4.920792E+03	7.294690E-04	0.000000E+00
4.930693E+03	7.448373E-04	0.000000E+00
4.940594E+03	7.605459E-04	0.000000E+00
4.950495E+03	7.765950E-04	0.000000E+00
4.960396E+03	7.929843E-04	0.000000E+00
4.970297E+03	8.095879E-04	0.000000E+00
4.980198E+03	8.266515E-04	0.000000E+00
4.990099E+03	8.440500E-04	0.000000E+00
5.000000E+03	8.617791E-04	0.000000E+00
5.009901E+03	8.798344E-04	0.000000E+00
5.019802E+03	8.982091E-04	0.000000E+00
5.029703E+03	9.168965E-04	0.000000E+00
5.039604E+03	9.357433E-04	0.000000E+00
5.049505E+03	9.550250E-04	0.000000E+00
5.059406E+03	9.745881E-04	0.000000E+00
5.069307E+03	9.944192E-04	0.000000E+00
5.079208E+03	1.014347E-03	0.000000E+00
5.089109E+03	1.034664E-03	0.000000E+00
5.099010E+03	1.055198E-03	0.000000E+00
5.108911E+03	1.075928E-03	0.000000E+00
5.118812E+03	1.096662E-03	0.000000E+00
5.128713E+03	1.117708E-03	0.000000E+00
5.138614E+03	1.138698E-03	0.000000E+00
5.148515E+03	1.159949E-03	0.000000E+00
5.158416E+03	1.181256E-03	0.000000E+00
5.168317E+03	1.202399E-03	0.000000E+00
5.178218E+03	1.223705E-03	0.000000E+00
5.188119E+03	1.244762E-03	0.000000E+00
5.198020E+03	1.265905E-03	0.000000E+00
5.207921E+03	1.286702E-03	0.000000E+00
5.217822E+03	1.307495E-03	0.000000E+00
5.227723E+03	1.327833E-03	0.000000E+00
5.237624E+03	1.347860E-03	0.000000E+00
5.247525E+03	1.367726E-03	0.000000E+00
5.257426E+03	1.386956E-03	0.000000E+00
5.267327E+03	1.405907E-03	0.000000E+00
5.277228E+03	1.424085E-03	0.000000E+00
5.287129E+03	1.441635E-03	0.000000E+00
5.297030E+03	1.458710E-03	0.000000E+00
5.306931E+03	1.474793E-03	0.000000E+00
5.316832E+03	1.490030E-03	0.000000E+00
5.326733E+03	1.504346E-03	0.000000E+00
5.336634E+03	1.517897E-03	0.000000E+00
5.346535E+03	1.530143E-03	0.000000E+00
5.356436E+03	1.541239E-03	0.000000E+00
5.366337E+03	1.551108E-03	0.000000E+00
5.376238E+03	1.559678E-03	0.000000E+00
5.386139E+03	1.567119E-03	0.000000E+00
5.396040E+03	1.572887E-03	0.000000E+00
5.405941E+03	1.577160E-03	0.000000E+00
5.415842E+03	1.579888E-03	0.000000E+00
5.425743E+03	1.581027E-03	0.000000E+00
5.435644E+03	1.580545E-03	0.000000E+00
5.445545E+03	1.578433E-03	0.000000E+00
5.455446E+03	1.574714E-03	0.000000E+00
5.465347E+03	1.569430E-03	0.000000E+00
5.475248E+03	1.562633E-03	0.000000E+00
5.485149E+03	1.554383E-03	0.000000E+00
5.495050E+03	1.544746E-03	0.000000E+00
5.504950E+03	1.533796E-03	0.000000E+00
5.514851E+03	1.521607E-03	0.000000E+00
5.524752E+03	1.508258E-03	0.000000E+00
5.534653E+03	1.493601E-03	0.000000E+00
5.544554E+03	1.478174E-03	0.000000E+00
5.554455E+03	1.461828E-03	0.000000E+00
5.564356E+03	1.444640E-03	0.000000E+00
5.574257E+03	1.426690E-03	0.000000E+00
5.584158E+03	1.408051E-03	0.000000E+00
5.594059E+03	1.388588E-03	0.000000E+00
5.603960E+03	1.368796E-03	0.000000E+00
5.613861E+03	1.348530E-03	0.000000E+00
5.623762E+03	1.327654E-03	0.000000E+00
5.633663E+03	1.306637E-03	0.000000E+00
5.643564E+03	1.285335E-03	0.000000E+00
5.653465E+03	1.263612E-03	0.000000E+00
5.663366E+03	1.241910E-03	0.000000E+00
5.673267E+03	1.220083E-03	0.000000E+00
5.683168E+03	1.197997E-03	0.000000E+00
5.693069E+03	1.176065E-03	0.000000E+00
5.702970E+03	1.154142E-03	0.000000E+00
5.712871E+03	1.132094E-03	0.000000E+00
5.722772E+03	1.110306E-03	0.000000E+00
5.732673E+03	1.088469E-03	0.000000E+00
5.742574E+03	1.066949E-03	0.000000E+00
5.752475E+03	1.045444E-03	0.000000E+00
5.762376E+03	1.024301E-03	0.000000E+00
5.772277E+03	1.003230E-03	0.000000E+00
5.782178E+03	9.825576E-04	0.000000E+00
5.792079E+03	9.620016E-04	0.000000E+00
5.801980E+03	9.417309E-04	0.000000E+00
5.811881E+03	9.219000E-04	0.000000E+00
5.821782E+03	9.022382E-04	0.000000E+00
5.831683E+03	8.830341E-04	0.000000E+00
5.841584E+03	8.640253E-04	0.000000E+00
5.851485E+03	8.453572E-04	0.000000E+00
5.861386E+03	8.271619E-04	0.000000E+00
5.871287E+03	8.091903E-04	0.000000E+00
5.881188E+03	7.915748E-04	0.000000E+00
5.891089E+03	7.743183E-04	0.000000E+00
5.900990E+03	7.575379E-04	0.000000E+00
5.910891E+03	7.410013E-04	0.000000E+00
5.920792E+03	7.248266E-04	0.000000E+00
5.930693E+03	7.090126E-04	0.000000E+00
5.940594E+03	6.936635E-04	0.000000E+00
5.950495E+03	6.785639E-04	0.000000E+00
5.960396E+03	6.638186E-04	0.000000E+00
5.970297E+03	6.494245E-04	0.000000E+00
5.980198E+03	6.353777E-04	0.000000E+00
5.990099E+03	6.216737E-04	0.000000E+00
6.000000E+03	6.084013E-04	0.000000E+00
6.009901E+03	5.953677E-04	0.000000E+00
6.019802E+03	5.826627E-04	0.000000E+00
6.029703E+03	5.702808E-04	0.000000E+00
6.039604E+03	5.582163E-04	0.000000E+00
6.049505E+03	5.464633E-04	0.000000E+00
6.059406E+03	5.350157E-04	0.000000E+00
6.069307E+03	5.238680E-04	0.000000E+00
6.079208E+03	5.130134E-04	0.000000E+00
6.089109E+03	5.024457E-04	0.000000E+00
6.099010E+03	4.921591E-04	0.000000E+00
6.108911E+03	4.821466E-04	0.000000E+00
6.118812E+03	4.724024E-04	0.000000E+00
6.128713E+03	4.629201E-04	0.000000E+00
6.138614E+03	4.536932E-04	0.000000E+00
6.148515E+03	4.447155E-04	0.000000E+00
6.158416E+03	4.359146E-04	0.000000E+00
6.168317E+03	4.274184E-04	0.000000E+00
6.178218E+03	4.191529E-04	0.000000E+00
6.188119E+03	4.111119E-04	0.000000E+00
6.198020E+03	4.032901E-04	0.000000E+00
6.207921E+03	3.956814E-04	0.000000E+00
6.217822E+03	3.882800E-04	0.000000E+00
6.227723E+03	3.810223E-04	0.000000E+00
6.237624E+03	3.740201E-04	0.000000E+00
6.247525E+03	3.672084E-04	0.000000E+00
6.257426E+03	3.605822E-04	0.000000E+00
6.267327E+03	3.540826E-04	0.000000E+00
6.277228E+03	3.478129E-04	0.000000E+00
6.287129E+03	3.417135E-04	0.000000E+00
6.297030E+03	3.357796E-04	0.000000E+00
6.306931E+03	3.299561E-04	0.000000E+00
6.316832E+03	3.243395E-04	0.000000E+00
6.326733E+03	3.188748E-04	0.000000E+00
6.336634E+03	3.135094E-04	0.000000E+00
6.346535E+03	3.083355E-04	0.000000E+00
6.356436E+03	3.033002E-04	0.000000E+00
6.366337E+03	2.983543E-04	0.000000E+00
6.376238E+03	2.935852E-04	0.000000E+00
6.386139E+03	2.889431E-04	0.000000E+00
6.396040E+03	2.843809E-04	0.000000E+00
6.405941E+03	2.799821E-04	0.000000E+00
6.415842E+03	2.756576E-04	0.000000E+00
6.425743E+03	2.714883E-04	0.000000E+00
6.435644E+03	2.673879E-04	0.000000E+00
6.445545E+03	2.634346E-04	0.000000E+00
6.455446E+03	2.595844E-04	0.000000E+00
6.465347E+03	2.557953E-04	0.000000E+00
6.475248E+03	2.521427E-04	0.000000E+00
6.485149E+03	2.485465E-04	0.000000E+00
6.495050E+03	2.450801E-04	0.000000E+00
6.504950E+03	2.416656E-04	0.000000E+00
6.514851E+03	2.383746E-04	0.000000E+00
6.524752E+03	2.351314E-04	0.000000E+00
6.534653E+03	2.319703E-04	0.000000E+00
6.544554E+03	2.289239E-04	0.000000E+00
6.554455E+03	2.259196E-04	0.000000E+00
6.564356E+03	2.230244E-04	0.000000E+00
6.574257E+03	2.201678E-04	0.000000E+00
6.584158E+03	2.174153E-04	0.000000E+00
6.594059E+03	2.146981E-04	0.000000E+00
6.603960E+03	2.120478E-04	0.000000E+00
6.613861E+03	2.094944E-04	0.000000E+00
6.623762E+03	2.069718E-04	0.000000E+00
6.633663E+03	2.045105E-04	0.000000E+00
6.643564E+03	2.021396E-04	0.000000E+00
6.653465E+03	1.997954E-04	0.000000E+00
6.663366E+03	1.975075E-04	0.000000E+00
6.673267E+03	1.953040E-04	0.000000E+00
6.683168E+03	1.931236E-04	0.000000E+00
6.693069E+03	1.909948E-04	0.000000E+00
6.702970E+03	1.889163E-04	0.000000E+00
6.712871E+03	1.869151E-04	0.000000E+00
6.722772E+03	1.849326E-04	0.000000E+00
6.732673E+03	1.829963E-04	0.000000E+00
6.742574E+03	1.811049E-04	0.000000E+00
6.752475E+03	1.792846E-04	0.000000E+00
6.762376E+03	1.774792E-04	0.000000E+00
6.772277E+03	1.757151E-04	0.000000E+00
6.782178E+03	1.739913E-04	0.000000E+00
6.792079E+03	1.723067E-04	0.000000E+00
6.801980E+03	1.706862E-04	0.000000E+00
6.811881E+03	1.690766E-04	0.000000E+00
6.821782E+03	1.675032E-04	0.000000E+00
6.831683E+03	1.659650E-04	0.000000E+00
6.841584E+03	1.644610E-04	0.000000E+00
6.851485E+03	1.629905E-04	0.000000E+00
6.861386E+03	1.615526E-04	0.000000E+00
6.871287E+03	1.601708E-04	0.000000E+00
6.881188E+03	1.587952E-04	0.000000E+00
6.891089E+03	1.574498E-04	0.000000E+00
6.900990E+03	1.561337E-04	0.000000E+00
6.910891E+03	1.548462E-04	0.000000E+00
6.920792E+03	1.535867E-04	0.000000E+00
6.930693E+03	1.523544E-04	0.000000E+00
6.940594E+03	1.511487E-04	0.000000E+00
6.950495E+03	1.499689E-04	0.000000E+00
6.960396E+03	1.488144E-04	0.000000E+00
6.970297E+03	1.476846E-04	0.000000E+00
6.980198E+03	1.465788E-04	0.000000E+00
6.990099E+03	1.454966E-04	0.000000E+00
7.000000E+03	1.444374E-04	0.000000E+00
7.009901E+03	1.434005E-04	0.000000E+00
7.019802E+03	1.423856E-04	0.000000E+00
7.029703E+03	1.413921E-04	0.000000E+00
7.039604E+03	1.404195E-04	0.000000E+00
7.049505E+03	1.394674E-04	0.000000E+00
7.059406E+03	1.385352E-04	0.000000E+00
7.069307E+03	1.376014E-04	0.000000E+00
7.079208E+03	1.367081E-04	0.000000E+00
7.089109E+03	1.358333E-04	0.000000E+00
7.099010E+03	1.349769E-04	0.000000E+00
7.108911E+03	1.341383E-04	0.000000E+00
7.118812E+03	1.333172E-04	0.000000E+00
7.128713E+03	1.325132E-04	0.000000E+00
7.138614E+03	1.317260E-04	0.000000E+00
7.148515E+03	1.309350E-04	0.000000E+00
7.158416E+03	1.301803E-04	0.000000E+00
7.168317E+03	1.294414E-04	0.000000E+00
7.178218E+03	1.287179E-04	0.000000E+00
7.188119E+03	1.280095E-04	0.000000E+00
7.198020E+03	1.272962E-04	0.000000E+00
7.207921E+03	1.266172E-04	0.000000E+00
7.217822E+03	1.259523E-04	0.000000E+00
7.227723E+03	1.253014E-04	0.000000E+00
7.237624E+03	1.246450E-04	0.000000E+00
7.247525E+03	1.240212E-04	0.000000E+00
7.257426E+03	1.234105E-04	0.000000E+00
7.267327E+03	1.228128E-04	0.000000E+00
7.277228E+03	1.222088E-04	0.000000E+00
7.287129E+03	1.216362E-04	0.000000E+00
7.297030E+03	1.210757E-04	0.000000E+00
7.306931E+03	1.205086E-04	0.000000E+00
7.316832E+03	1.199719E-04	0.000000E+00
7.326733E+03	1.194467E-04	0.000000E+00
7.336634E+03	1.189145E-04	0.000000E+00
7.346535E+03	1.184118E-04	0.000000E+00
7.356436E+03	1.179200E-04	0.000000E+00
7.366337E+03	1.174208E-04	0.000000E+00
7.376238E+03	1.169503E-04	0.000000E+00
7.386139E+03	1.164722E-04	0.000000E+00
7.396040E+03	1.160223E-04	0.000000E+00
7.405941E+03	1.155824E-04	0.000000E+00
7.415842E+03	1.151345E-04	0.000000E+00
7.425743E+03	1.147142E-04	0.000000E+00
7.435644E+03	1.142857E-04	0.000000E+00
7.445545E+03	1.138842E-04	0.000000E+00
7.455446E+03	1.134744E-04	0.000000E+00
7.465347E+03	1.130912E-04	0.000000E+00
7.475248E+03	1.126995E-04	0.000000E+00
7.485149E+03	1.123340E-04	0.000000E+00
7.495050E+03	1.119598E-04	0.000000E+00
7.504950E+03	1.116114E-04	0.000000E+00
7.514851E+03	1.112542E-04	0.000000E+00
7.524752E+03	1.109224E-04	0.000000E+00
7.534653E+03	1.105815E-04	0.000000E+00
7.544554E+03	1.102658E-04	0.000000E+00
7.554455E+03	1.099408E-04	0.000000E+00
7.564356E+03	1.096406E-04	0.000000E+00
7.574257E+03	1.093310E-04	0.000000E+00
7.584158E+03	1.090290E-04	0.000000E+00
7.594059E+03	1.087513E-04	0.000000E+00
7.603960E+03	1.084639E-04	0.000000E+00
7.613861E+03	1.082006E-04	0.000000E+00
7.623762E+03	1.079275E-04	0.000000E+00
7.633663E+03	1.076614E-04	0.000000E+00
7.643564E+03	1.074188E-04	0.000000E+00
7.653465E+03	1.071662E-04	0.000000E+00
7.663366E+03	1.069204E-04	0.000000E+00
7.673267E+03	1.066976E-04	0.000000E+00
7.683168E+03	1.064647E-04	0.000000E+00
