#wls	flux	fluxerr
1.600000E+03	2.910823E-15	1.735740E-16
1.640000E+03	2.757076E-15	1.629364E-16
1.680000E+03	2.610140E-15	1.528446E-16
1.720000E+03	2.471487E-15	1.433765E-16
1.760000E+03	2.342259E-15	1.345871E-16
1.800000E+03	2.223046E-15	1.264972E-16
1.840000E+03	2.113872E-15	1.190943E-16
1.880000E+03	2.014056E-15	1.123256E-16
1.920000E+03	1.922433E-15	1.061131E-16
1.960000E+03	1.837682E-15	1.003725E-16
2.000000E+03	1.759416E-15	9.507279E-17
2.040000E+03	1.690217E-15	9.034225E-17
2.080000E+03	1.638780E-15	8.662602E-17
2.120000E+03	1.613818E-15	8.434930E-17
2.160000E+03	1.606783E-15	8.302427E-17
2.200000E+03	1.612951E-15	8.237841E-17
2.240000E+03	1.638276E-15	8.268894E-17
2.280000E+03	1.694434E-15	8.450394E-17
2.320000E+03	1.782129E-15	8.780229E-17
2.360000E+03	1.892567E-15	9.209870E-17
2.400000E+03	2.018633E-15	9.700921E-17
2.440000E+03	2.155370E-15	1.022696E-16
2.480000E+03	2.299313E-15	1.076975E-16
2.520000E+03	2.448761E-15	1.132004E-16
2.560000E+03	2.606216E-15	1.188819E-16
2.600000E+03	2.784081E-15	1.252850E-16
2.640000E+03	3.007349E-15	1.334814E-16
2.680000E+03	3.277066E-15	1.434330E-16
2.720000E+03	3.572764E-15	1.541709E-16
2.760000E+03	3.880402E-15	1.650504E-16
2.800000E+03	4.192120E-15	1.757214E-16
2.840000E+03	4.503666E-15	1.860026E-16
2.880000E+03	4.812473E-15	1.957916E-16
2.920000E+03	5.116930E-15	2.050291E-16
2.960000E+03	5.415858E-15	2.136770E-16
3.000000E+03	5.708428E-15	2.217142E-16
3.010000E+03	5.780498E-15	2.236265E-16
3.020000E+03	5.852087E-15	2.254985E-16
3.030000E+03	5.923215E-15	2.273311E-16
3.040000E+03	5.993868E-15	2.291241E-16
3.050000E+03	6.064032E-15	2.308772E-16
3.060000E+03	6.133690E-15	2.325900E-16
3.070000E+03	6.202791E-15	2.342609E-16
3.080000E+03	6.271344E-15	2.358904E-16
3.090000E+03	6.339326E-15	2.374781E-16
3.100000E+03	6.406710E-15	2.390232E-16
3.110000E+03	6.473427E-15	2.405236E-16
3.120000E+03	6.539515E-15	2.419808E-16
3.130000E+03	6.604860E-15	2.433913E-16
3.140000E+03	6.669453E-15	2.447549E-16
3.150000E+03	6.733206E-15	2.460689E-16
3.160000E+03	6.796138E-15	2.473344E-16
3.170000E+03	6.858112E-15	2.485470E-16
3.180000E+03	6.919099E-15	2.497061E-16
3.190000E+03	6.979026E-15	2.508097E-16
3.200000E+03	7.037814E-15	2.518554E-16
3.210000E+03	7.095339E-15	2.528395E-16
3.220000E+03	7.151547E-15	2.537607E-16
3.230000E+03	7.206344E-15	2.546164E-16
3.240000E+03	7.259629E-15	2.554039E-16
3.250000E+03	7.311293E-15	2.561201E-16
3.260000E+03	7.361227E-15	2.567620E-16
3.270000E+03	7.409272E-15	2.573251E-16
3.280000E+03	7.455352E-15	2.578077E-16
3.290000E+03	7.499346E-15	2.582066E-16
3.300000E+03	7.541130E-15	2.585187E-16
3.310000E+03	7.580583E-15	2.587410E-16
3.320000E+03	7.617542E-15	2.588691E-16
3.330000E+03	7.651976E-15	2.589033E-16
3.340000E+03	7.683689E-15	2.588382E-16
3.350000E+03	7.712625E-15	2.586734E-16
3.360000E+03	7.738699E-15	2.584073E-16
3.370000E+03	7.761848E-15	2.580393E-16
3.380000E+03	7.781989E-15	2.575681E-16
3.390000E+03	7.799210E-15	2.569982E-16
3.400000E+03	7.813462E-15	2.563293E-16
3.410000E+03	7.824934E-15	2.555691E-16
3.420000E+03	7.833703E-15	2.547214E-16
3.430000E+03	7.840062E-15	2.537972E-16
3.440000E+03	7.844354E-15	2.528086E-16
3.450000E+03	7.847046E-15	2.517718E-16
3.460000E+03	7.848699E-15	2.507054E-16
3.470000E+03	7.850253E-15	2.496401E-16
3.480000E+03	7.852915E-15	2.486142E-16
3.490000E+03	7.858346E-15	2.476799E-16
3.500000E+03	7.868409E-15	2.468945E-16
3.510000E+03	7.884326E-15	2.462945E-16
3.520000E+03	7.906703E-15	2.458963E-16
3.530000E+03	7.935296E-15	2.456896E-16
3.540000E+03	7.969317E-15	2.456476E-16
3.550000E+03	8.007608E-15	2.457326E-16
3.560000E+03	8.049302E-15	2.459162E-16
3.570000E+03	8.093915E-15	2.461826E-16
3.580000E+03	8.141501E-15	2.465320E-16
3.590000E+03	8.192568E-15	2.469788E-16
3.600000E+03	8.247863E-15	2.475440E-16
3.610000E+03	8.308072E-15	2.482464E-16
3.620000E+03	8.373571E-15	2.490955E-16
3.630000E+03	8.444286E-15	2.500870E-16
3.640000E+03	8.519696E-15	2.512037E-16
3.650000E+03	8.598964E-15	2.524192E-16
3.660000E+03	8.681212E-15	2.537066E-16
3.670000E+03	8.765552E-15	2.550390E-16
3.680000E+03	8.851601E-15	2.564048E-16
3.690000E+03	8.939364E-15	2.578035E-16
3.700000E+03	9.029314E-15	2.592483E-16
3.710000E+03	9.122037E-15	2.607554E-16
3.720000E+03	9.218402E-15	2.623487E-16
3.730000E+03	9.318879E-15	2.640403E-16
3.740000E+03	9.423741E-15	2.658366E-16
3.750000E+03	9.532481E-15	2.677222E-16
3.760000E+03	9.643912E-15	2.696627E-16
3.770000E+03	9.756044E-15	2.716021E-16
3.780000E+03	9.866088E-15	2.734630E-16
3.790000E+03	9.970607E-15	2.751518E-16
3.800000E+03	1.006548E-14	2.765577E-16
3.810000E+03	1.014658E-14	2.775716E-16
3.820000E+03	1.020987E-14	2.780887E-16
3.830000E+03	1.025213E-14	2.780286E-16
3.840000E+03	1.027157E-14	2.773507E-16
3.850000E+03	1.026806E-14	2.760594E-16
3.860000E+03	1.024367E-14	2.742188E-16
3.870000E+03	1.020206E-14	2.719336E-16
3.880000E+03	1.014809E-14	2.693390E-16
3.890000E+03	1.008718E-14	2.665825E-16
3.900000E+03	1.002432E-14	2.637978E-16
3.910000E+03	9.963748E-15	2.610969E-16
3.920000E+03	9.908550E-15	2.585594E-16
3.930000E+03	9.860610E-15	2.562327E-16
3.940000E+03	9.820542E-15	2.541306E-16
3.950000E+03	9.788075E-15	2.522435E-16
3.960000E+03	9.762298E-15	2.505461E-16
3.970000E+03	9.741721E-15	2.489981E-16
3.980000E+03	9.724701E-15	2.475566E-16
3.990000E+03	9.709700E-15	2.461817E-16
4.000000E+03	9.695367E-15	2.448389E-16
4.010000E+03	9.681027E-15	2.435115E-16
4.020000E+03	9.666611E-15	2.421979E-16
4.030000E+03	9.652815E-15	2.409160E-16
4.040000E+03	9.640779E-15	2.396942E-16
4.050000E+03	9.631400E-15	2.385547E-16
4.060000E+03	9.624741E-15	2.374986E-16
4.070000E+03	9.619846E-15	2.365021E-16
4.080000E+03	9.614890E-15	2.355205E-16
4.090000E+03	9.607485E-15	2.344958E-16
4.100000E+03	9.595523E-15	2.333779E-16
4.110000E+03	9.577477E-15	2.321314E-16
4.120000E+03	9.552671E-15	2.307419E-16
4.130000E+03	9.521490E-15	2.292207E-16
4.140000E+03	9.485306E-15	2.276026E-16
4.150000E+03	9.446129E-15	2.259371E-16
4.160000E+03	9.406349E-15	2.242821E-16
4.170000E+03	9.368269E-15	2.226929E-16
4.180000E+03	9.333829E-15	2.212153E-16
4.190000E+03	9.304386E-15	2.198809E-16
4.200000E+03	9.280246E-15	2.186962E-16
4.210000E+03	9.261229E-15	2.176562E-16
4.220000E+03	9.246692E-15	2.167454E-16
4.230000E+03	9.236273E-15	2.159549E-16
4.240000E+03	9.229783E-15	2.152798E-16
4.250000E+03	9.227697E-15	2.147312E-16
4.260000E+03	9.230514E-15	2.143204E-16
4.270000E+03	9.238479E-15	2.140528E-16
4.280000E+03	9.250543E-15	2.139040E-16
4.290000E+03	9.264362E-15	2.138199E-16
4.300000E+03	9.275855E-15	2.137069E-16
4.310000E+03	9.279330E-15	2.134350E-16
4.320000E+03	9.267805E-15	2.128452E-16
4.330000E+03	9.233599E-15	2.117634E-16
4.340000E+03	9.169268E-15	2.100209E-16
4.350000E+03	9.069051E-15	2.074879E-16
4.360000E+03	8.931274E-15	2.041274E-16
4.370000E+03	8.762041E-15	2.000797E-16
4.380000E+03	8.575254E-15	1.956621E-16
4.390000E+03	8.386933E-15	1.912387E-16
4.400000E+03	8.208611E-15	1.870703E-16
4.410000E+03	8.046148E-15	1.832882E-16
4.420000E+03	7.901574E-15	1.799363E-16
4.430000E+03	7.774925E-15	1.770135E-16
4.440000E+03	7.665416E-15	1.745003E-16
4.450000E+03	7.571747E-15	1.723656E-16
4.460000E+03	7.492285E-15	1.705711E-16
4.470000E+03	7.425461E-15	1.690802E-16
4.480000E+03	7.369878E-15	1.678603E-16
4.490000E+03	7.324465E-15	1.668863E-16
4.500000E+03	7.288278E-15	1.661364E-16
4.510000E+03	7.260877E-15	1.656000E-16
4.520000E+03	7.241628E-15	1.652623E-16
4.530000E+03	7.230173E-15	1.651151E-16
4.540000E+03	7.225865E-15	1.651434E-16
4.550000E+03	7.227936E-15	1.653296E-16
4.560000E+03	7.235221E-15	1.656469E-16
4.570000E+03	7.246348E-15	1.660638E-16
4.580000E+03	7.259562E-15	1.665400E-16
4.590000E+03	7.272998E-15	1.670325E-16
4.600000E+03	7.284573E-15	1.674930E-16
4.610000E+03	7.292341E-15	1.678763E-16
4.620000E+03	7.294429E-15	1.681386E-16
4.630000E+03	7.289435E-15	1.682465E-16
4.640000E+03	7.276357E-15	1.681760E-16
4.650000E+03	7.254946E-15	1.679201E-16
4.660000E+03	7.225559E-15	1.674858E-16
4.670000E+03	7.189076E-15	1.668924E-16
4.680000E+03	7.146938E-15	1.661722E-16
4.690000E+03	7.100545E-15	1.653568E-16
4.700000E+03	7.051494E-15	1.644825E-16
4.710000E+03	7.001582E-15	1.635907E-16
4.720000E+03	6.952579E-15	1.627222E-16
4.730000E+03	6.906680E-15	1.619283E-16
4.740000E+03	6.866268E-15	1.612650E-16
4.750000E+03	6.833903E-15	1.607929E-16
4.760000E+03	6.812179E-15	1.605739E-16
4.770000E+03	6.803862E-15	1.606744E-16
4.780000E+03	6.811308E-15	1.611518E-16
4.790000E+03	6.836505E-15	1.620551E-16
4.800000E+03	6.880033E-15	1.634003E-16
4.810000E+03	6.940870E-15	1.651657E-16
4.820000E+03	7.015603E-15	1.672721E-16
4.830000E+03	7.098971E-15	1.695960E-16
4.840000E+03	7.184033E-15	1.719723E-16
4.850000E+03	7.263146E-15	1.742181E-16
4.860000E+03	7.329045E-15	1.761579E-16
4.870000E+03	7.375313E-15	1.776352E-16
4.880000E+03	7.397355E-15	1.785363E-16
4.890000E+03	7.392554E-15	1.787942E-16
4.900000E+03	7.360893E-15	1.784043E-16
4.910000E+03	7.304429E-15	1.774124E-16
4.920000E+03	7.227182E-15	1.759125E-16
4.930000E+03	7.134508E-15	1.740318E-16
4.940000E+03	7.032470E-15	1.719160E-16
4.950000E+03	6.926943E-15	1.697074E-16
4.960000E+03	6.823219E-15	1.675352E-16
4.970000E+03	6.725287E-15	1.654978E-16
4.980000E+03	6.635724E-15	1.636596E-16
4.990000E+03	6.555563E-15	1.620473E-16
5.000000E+03	6.484542E-15	1.606562E-16
5.010000E+03	6.421028E-15	1.594469E-16
5.020000E+03	6.363034E-15	1.583715E-16
5.030000E+03	6.308352E-15	1.573757E-16
5.040000E+03	6.255150E-15	1.564143E-16
5.050000E+03	6.202619E-15	1.554673E-16
5.060000E+03	6.151108E-15	1.545437E-16
5.070000E+03	6.102460E-15	1.536900E-16
5.080000E+03	6.059591E-15	1.529803E-16
5.090000E+03	6.026120E-15	1.525075E-16
5.100000E+03	6.005356E-15	1.523572E-16
5.110000E+03	5.999391E-15	1.525851E-16
5.120000E+03	6.008673E-15	1.532057E-16
5.130000E+03	6.031693E-15	1.541835E-16
5.140000E+03	6.065334E-15	1.554414E-16
5.150000E+03	6.105359E-15	1.568729E-16
5.160000E+03	6.147226E-15	1.583627E-16
5.170000E+03	6.186553E-15	1.597981E-16
5.180000E+03	6.219605E-15	1.610823E-16
5.190000E+03	6.243834E-15	1.621481E-16
5.200000E+03	6.257588E-15	1.629508E-16
5.210000E+03	6.260475E-15	1.634783E-16
5.220000E+03	6.252981E-15	1.637411E-16
5.230000E+03	6.236308E-15	1.637687E-16
5.240000E+03	6.212053E-15	1.636014E-16
5.250000E+03	6.182179E-15	1.632893E-16
5.260000E+03	6.148429E-15	1.628775E-16
5.270000E+03	6.112318E-15	1.624054E-16
5.280000E+03	6.075234E-15	1.619096E-16
5.290000E+03	6.038001E-15	1.614119E-16
5.300000E+03	6.001354E-15	1.609321E-16
5.310000E+03	5.965838E-15	1.604851E-16
5.320000E+03	5.931741E-15	1.600790E-16
5.330000E+03	5.899569E-15	1.597280E-16
5.340000E+03	5.869612E-15	1.594406E-16
5.350000E+03	5.842387E-15	1.592314E-16
5.360000E+03	5.818132E-15	1.591079E-16
5.370000E+03	5.796828E-15	1.590705E-16
5.380000E+03	5.778158E-15	1.591115E-16
5.390000E+03	5.760929E-15	1.591987E-16
5.400000E+03	5.743103E-15	1.592761E-16
5.410000E+03	5.721679E-15	1.592602E-16
5.420000E+03	5.693020E-15	1.590482E-16
5.430000E+03	5.653952E-15	1.585485E-16
5.440000E+03	5.603499E-15	1.577300E-16
5.450000E+03	5.544214E-15	1.566606E-16
5.460000E+03	5.481088E-15	1.554787E-16
5.470000E+03	5.419285E-15	1.543295E-16
5.480000E+03	5.363329E-15	1.533421E-16
5.490000E+03	5.316194E-15	1.526036E-16
5.500000E+03	5.279042E-15	1.521500E-16
5.510000E+03	5.250649E-15	1.519490E-16
5.520000E+03	5.228394E-15	1.519272E-16
5.530000E+03	5.209086E-15	1.519933E-16
5.540000E+03	5.189597E-15	1.520564E-16
5.550000E+03	5.167133E-15	1.520341E-16
5.560000E+03	5.139756E-15	1.518677E-16
5.570000E+03	5.106543E-15	1.515276E-16
5.580000E+03	5.067664E-15	1.510164E-16
5.590000E+03	5.024052E-15	1.503596E-16
5.600000E+03	4.977263E-15	1.496017E-16
5.610000E+03	4.929128E-15	1.487965E-16
5.620000E+03	4.881197E-15	1.479900E-16
5.630000E+03	4.834875E-15	1.472248E-16
5.640000E+03	4.790972E-15	1.465260E-16
5.650000E+03	4.749698E-15	1.459008E-16
5.660000E+03	4.711075E-15	1.453506E-16
5.670000E+03	4.674708E-15	1.448639E-16
5.680000E+03	4.640221E-15	1.444297E-16
5.690000E+03	4.607143E-15	1.440339E-16
5.700000E+03	4.575371E-15	1.436735E-16
5.710000E+03	4.544902E-15	1.433487E-16
5.720000E+03	4.515819E-15	1.430625E-16
5.730000E+03	4.488549E-15	1.428290E-16
5.740000E+03	4.463435E-15	1.426596E-16
5.750000E+03	4.440884E-15	1.425681E-16
5.760000E+03	4.421083E-15	1.425615E-16
5.770000E+03	4.404060E-15	1.426416E-16
5.780000E+03	4.389579E-15	1.428020E-16
5.790000E+03	4.377161E-15	1.430277E-16
5.800000E+03	4.365964E-15	1.432920E-16
5.810000E+03	4.355033E-15	1.435638E-16
5.820000E+03	4.343454E-15	1.438128E-16
5.830000E+03	4.330381E-15	1.440105E-16
5.840000E+03	4.315353E-15	1.441406E-16
5.850000E+03	4.298374E-15	1.442024E-16
5.860000E+03	4.279766E-15	1.442057E-16
5.870000E+03	4.260242E-15	1.441738E-16
5.880000E+03	4.240702E-15	1.441368E-16
5.890000E+03	4.222111E-15	1.441276E-16
5.900000E+03	4.205185E-15	1.441709E-16
5.910000E+03	4.190486E-15	1.442868E-16
5.920000E+03	4.178102E-15	1.444792E-16
5.930000E+03	4.168011E-15	1.447482E-16
5.940000E+03	4.159823E-15	1.450813E-16
5.950000E+03	4.152858E-15	1.454554E-16
5.960000E+03	4.146577E-15	1.458519E-16
5.970000E+03	4.140314E-15	1.462476E-16
5.980000E+03	4.133631E-15	1.466270E-16
5.990000E+03	4.126098E-15	1.469743E-16
6.000000E+03	4.117649E-15	1.472868E-16
6.010000E+03	4.108236E-15	1.475623E-16
6.020000E+03	4.097798E-15	1.477981E-16
6.030000E+03	4.086569E-15	1.480023E-16
6.040000E+03	4.074734E-15	1.481809E-16
6.050000E+03	4.062694E-15	1.483485E-16
6.060000E+03	4.050795E-15	1.485176E-16
6.070000E+03	4.039632E-15	1.487100E-16
6.080000E+03	4.029649E-15	1.489425E-16
6.090000E+03	4.021010E-15	1.492216E-16
6.100000E+03	4.013825E-15	1.495520E-16
6.110000E+03	4.007740E-15	1.499210E-16
6.120000E+03	4.002193E-15	1.503081E-16
6.130000E+03	3.996539E-15	1.506890E-16
6.140000E+03	3.990053E-15	1.510363E-16
6.150000E+03	3.982248E-15	1.513311E-16
6.160000E+03	3.972935E-15	1.515655E-16
6.170000E+03	3.962310E-15	1.517462E-16
6.180000E+03	3.950721E-15	1.518862E-16
6.190000E+03	3.938695E-15	1.520053E-16
6.200000E+03	3.926713E-15	1.521219E-16
6.210000E+03	3.915054E-15	1.522469E-16
6.220000E+03	3.903746E-15	1.523815E-16
6.230000E+03	3.892387E-15	1.525100E-16
6.240000E+03	3.880360E-15	1.526082E-16
6.250000E+03	3.866983E-15	1.526488E-16
6.260000E+03	3.851447E-15	1.525992E-16
6.270000E+03	3.833356E-15	1.524426E-16
6.280000E+03	3.812492E-15	1.521694E-16
6.290000E+03	3.789176E-15	1.517911E-16
6.300000E+03	3.764023E-15	1.513312E-16
6.310000E+03	3.738265E-15	1.508389E-16
6.320000E+03	3.713231E-15	1.503676E-16
6.330000E+03	3.690362E-15	1.499762E-16
6.340000E+03	3.670930E-15	1.497175E-16
6.350000E+03	3.655895E-15	1.496324E-16
6.360000E+03	3.645903E-15	1.497493E-16
6.370000E+03	3.641141E-15	1.500780E-16
6.380000E+03	3.641546E-15	1.506183E-16
6.390000E+03	3.646796E-15	1.513588E-16
6.400000E+03	3.656337E-15	1.522789E-16
6.410000E+03	3.669507E-15	1.533524E-16
6.420000E+03	3.685396E-15	1.545428E-16
6.430000E+03	3.703348E-15	1.558237E-16
6.440000E+03	3.722699E-15	1.571677E-16
6.450000E+03	3.743093E-15	1.585604E-16
6.460000E+03	3.764535E-15	1.600024E-16
6.470000E+03	3.787166E-15	1.615000E-16
6.480000E+03	3.811595E-15	1.630798E-16
6.490000E+03	3.838302E-15	1.647631E-16
6.500000E+03	3.867905E-15	1.665774E-16
6.510000E+03	3.900509E-15	1.685284E-16
6.520000E+03	3.935666E-15	1.705979E-16
6.530000E+03	3.971996E-15	1.727268E-16
6.540000E+03	4.006859E-15	1.748005E-16
6.550000E+03	4.036617E-15	1.766590E-16
6.560000E+03	4.057177E-15	1.781204E-16
6.570000E+03	4.065183E-15	1.790331E-16
6.580000E+03	4.057969E-15	1.792741E-16
6.590000E+03	4.034312E-15	1.787828E-16
6.600000E+03	3.994076E-15	1.775464E-16
6.610000E+03	3.938427E-15	1.756102E-16
6.620000E+03	3.869624E-15	1.730689E-16
6.630000E+03	3.790756E-15	1.700557E-16
6.640000E+03	3.705413E-15	1.667282E-16
6.650000E+03	3.617347E-15	1.632532E-16
6.660000E+03	3.529852E-15	1.597789E-16
6.670000E+03	3.445824E-15	1.564368E-16
6.680000E+03	3.367406E-15	1.533262E-16
6.690000E+03	3.295835E-15	1.505059E-16
6.700000E+03	3.231913E-15	1.480154E-16
6.710000E+03	3.175687E-15	1.458599E-16
6.720000E+03	3.126983E-15	1.440346E-16
6.730000E+03	3.085068E-15	1.425087E-16
6.740000E+03	3.049179E-15	1.412496E-16
6.750000E+03	3.018287E-15	1.402117E-16
6.760000E+03	2.991392E-15	1.393506E-16
6.770000E+03	2.967772E-15	1.386340E-16
6.780000E+03	2.946713E-15	1.380298E-16
6.790000E+03	2.927698E-15	1.375149E-16
6.800000E+03	2.910282E-15	1.370690E-16
6.810000E+03	2.894261E-15	1.366830E-16
6.820000E+03	2.879354E-15	1.363443E-16
6.830000E+03	2.865390E-15	1.360452E-16
6.840000E+03	2.852185E-15	1.357773E-16
6.850000E+03	2.839710E-15	1.355395E-16
6.860000E+03	2.827804E-15	1.353244E-16
6.870000E+03	2.816384E-15	1.351281E-16
6.880000E+03	2.805375E-15	1.349475E-16
6.890000E+03	2.794921E-15	1.347894E-16
6.900000E+03	2.785011E-15	1.346537E-16
6.910000E+03	2.775838E-15	1.345499E-16
6.920000E+03	2.767356E-15	1.344760E-16
6.930000E+03	2.759656E-15	1.344367E-16
6.940000E+03	2.752564E-15	1.344239E-16
6.950000E+03	2.746055E-15	1.344365E-16
6.960000E+03	2.739889E-15	1.344630E-16
6.970000E+03	2.733984E-15	1.344995E-16
6.980000E+03	2.728242E-15	1.345412E-16
6.990000E+03	2.722615E-15	1.345859E-16
7.000000E+03	2.717104E-15	1.346336E-16
7.010000E+03	2.711745E-15	1.346863E-16
7.020000E+03	2.706588E-15	1.347463E-16
7.030000E+03	2.701672E-15	1.348158E-16
7.040000E+03	2.696987E-15	1.348945E-16
7.050000E+03	2.692401E-15	1.349757E-16
7.060000E+03	2.687831E-15	1.350552E-16
7.070000E+03	2.682854E-15	1.351119E-16
7.080000E+03	2.677059E-15	1.351249E-16
7.090000E+03	2.669869E-15	1.350647E-16
7.100000E+03	2.660688E-15	1.349005E-16
7.110000E+03	2.649049E-15	1.346082E-16
7.120000E+03	2.634776E-15	1.341778E-16
7.130000E+03	2.618071E-15	1.336189E-16
7.140000E+03	2.599461E-15	1.329576E-16
7.150000E+03	2.579880E-15	1.322411E-16
7.160000E+03	2.560167E-15	1.315123E-16
7.170000E+03	2.541264E-15	1.308197E-16
7.180000E+03	2.523884E-15	1.302004E-16
7.190000E+03	2.508501E-15	1.296794E-16
7.200000E+03	2.495275E-15	1.292656E-16
7.210000E+03	2.484295E-15	1.289645E-16
7.220000E+03	2.475298E-15	1.287630E-16
7.230000E+03	2.468099E-15	1.286523E-16
7.240000E+03	2.462480E-15	1.286214E-16
7.250000E+03	2.458297E-15	1.286635E-16
7.260000E+03	2.455443E-15	1.287733E-16
7.270000E+03	2.454012E-15	1.289562E-16
7.280000E+03	2.453880E-15	1.292063E-16
7.290000E+03	2.454963E-15	1.295193E-16
7.300000E+03	2.456939E-15	1.298789E-16
7.310000E+03	2.459294E-15	1.302579E-16
7.320000E+03	2.461331E-15	1.306195E-16
7.330000E+03	2.462452E-15	1.309319E-16
7.340000E+03	2.462135E-15	1.311669E-16
7.350000E+03	2.460083E-15	1.313084E-16
7.360000E+03	2.456276E-15	1.313546E-16
7.370000E+03	2.450916E-15	1.313160E-16
7.380000E+03	2.444525E-15	1.312200E-16
7.390000E+03	2.437697E-15	1.310984E-16
7.400000E+03	2.431017E-15	1.309825E-16
7.410000E+03	2.424883E-15	1.308939E-16
7.420000E+03	2.419537E-15	1.308459E-16
7.430000E+03	2.414868E-15	1.308328E-16
7.440000E+03	2.410488E-15	1.308335E-16
7.450000E+03	2.405813E-15	1.308167E-16
7.460000E+03	2.400112E-15	1.307422E-16
7.470000E+03	2.392749E-15	1.305752E-16
7.480000E+03	2.383052E-15	1.302785E-16
7.490000E+03	2.370662E-15	1.298317E-16
7.500000E+03	2.355252E-15	1.292161E-16
7.510000E+03	2.336966E-15	1.284388E-16
7.520000E+03	2.316243E-15	1.275232E-16
7.530000E+03	2.293774E-15	1.265068E-16
7.540000E+03	2.270556E-15	1.254440E-16
7.550000E+03	2.247596E-15	1.243905E-16
7.560000E+03	2.225769E-15	1.233949E-16
7.570000E+03	2.205856E-15	1.225009E-16
7.580000E+03	2.188322E-15	1.217350E-16
7.590000E+03	2.173372E-15	1.211093E-16
7.600000E+03	2.160953E-15	1.206216E-16
7.610000E+03	2.150966E-15	1.202671E-16
7.620000E+03	2.143213E-15	1.200354E-16
7.630000E+03	2.137447E-15	1.199133E-16
7.640000E+03	2.133572E-15	1.198961E-16
7.650000E+03	2.131499E-15	1.199792E-16
7.660000E+03	2.131119E-15	1.201571E-16
7.670000E+03	2.132410E-15	1.204290E-16
7.680000E+03	2.135226E-15	1.207870E-16
7.690000E+03	2.139243E-15	1.212133E-16
7.700000E+03	2.144110E-15	1.216885E-16
7.710000E+03	2.149330E-15	1.221843E-16
7.720000E+03	2.154326E-15	1.226681E-16
7.730000E+03	2.158679E-15	1.231160E-16
7.740000E+03	2.162033E-15	1.235075E-16
7.750000E+03	2.164118E-15	1.238267E-16
7.760000E+03	2.164914E-15	1.240724E-16
