#wls	flux	fluxerr
1.600000E+03	1.547913E-18	2.695939E-19
1.640000E+03	1.446604E-18	2.518479E-19
1.680000E+03	1.354107E-18	2.356465E-19
1.720000E+03	1.270492E-18	2.210002E-19
1.760000E+03	1.195703E-18	2.078980E-19
1.800000E+03	1.129595E-18	1.963131E-19
1.840000E+03	1.072130E-18	1.862372E-19
1.880000E+03	1.023151E-18	1.776413E-19
1.920000E+03	9.826336E-19	1.705194E-19
1.960000E+03	9.505311E-19	1.648614E-19
2.000000E+03	9.268161E-19	1.606604E-19
2.040000E+03	9.115895E-19	1.579317E-19
2.080000E+03	9.051421E-19	1.567233E-19
2.120000E+03	9.076539E-19	1.570636E-19
2.160000E+03	9.197117E-19	1.590512E-19
2.200000E+03	9.418189E-19	1.627698E-19
2.240000E+03	9.747180E-19	1.683440E-19
2.280000E+03	1.019350E-18	1.759321E-19
2.320000E+03	1.076755E-18	1.857088E-19
2.360000E+03	1.148039E-18	1.978593E-19
2.400000E+03	1.234516E-18	2.126040E-19
2.440000E+03	1.337445E-18	2.301522E-19
2.480000E+03	1.458229E-18	2.507376E-19
2.520000E+03	1.598117E-18	2.745656E-19
2.560000E+03	1.758446E-18	3.018560E-19
2.600000E+03	1.940411E-18	3.328029E-19
2.640000E+03	2.145019E-18	3.675666E-19
2.680000E+03	2.373404E-18	4.063279E-19
2.720000E+03	2.626434E-18	4.492210E-19
2.760000E+03	2.905210E-18	4.964185E-19
2.800000E+03	3.210590E-18	5.480500E-19
2.840000E+03	3.543781E-18	6.043033E-19
2.880000E+03	3.905951E-18	6.653576E-19
2.920000E+03	4.298180E-18	7.313759E-19
2.960000E+03	4.722131E-18	8.026182E-19
3.000000E+03	5.179301E-18	8.793137E-19
3.010000E+03	5.299125E-18	8.993946E-19
3.020000E+03	5.420938E-18	9.197993E-19
3.030000E+03	5.545322E-18	9.406264E-19
3.040000E+03	5.672054E-18	9.618372E-19
3.050000E+03	5.800884E-18	9.833892E-19
3.060000E+03	5.932442E-18	1.005389E-18
3.070000E+03	6.066189E-18	1.027743E-18
3.080000E+03	6.202784E-18	1.050565E-18
3.090000E+03	6.341989E-18	1.073812E-18
3.100000E+03	6.483538E-18	1.097440E-18
3.110000E+03	6.628148E-18	1.121568E-18
3.120000E+03	6.775225E-18	1.146097E-18
3.130000E+03	6.925175E-18	1.171094E-18
3.140000E+03	7.078437E-18	1.196632E-18
3.150000E+03	7.234387E-18	1.222606E-18
3.160000E+03	7.393467E-18	1.249089E-18
3.170000E+03	7.556157E-18	1.276162E-18
3.180000E+03	7.721800E-18	1.303714E-18
3.190000E+03	7.890879E-18	1.331824E-18
3.200000E+03	8.063916E-18	1.360582E-18
3.210000E+03	8.240220E-18	1.389868E-18
3.220000E+03	8.420314E-18	1.419771E-18
3.230000E+03	8.604330E-18	1.450312E-18
3.240000E+03	8.792397E-18	1.481512E-18
3.250000E+03	8.984660E-18	1.513394E-18
3.260000E+03	9.181268E-18	1.545983E-18
3.270000E+03	9.382349E-18	1.579299E-18
3.280000E+03	9.588060E-18	1.613368E-18
3.290000E+03	9.798555E-18	1.648214E-18
3.300000E+03	1.001399E-17	1.683863E-18
3.310000E+03	1.023450E-17	1.720336E-18
3.320000E+03	1.046024E-17	1.757658E-18
3.330000E+03	1.069134E-17	1.795851E-18
3.340000E+03	1.092795E-17	1.834937E-18
3.350000E+03	1.117020E-17	1.874937E-18
3.360000E+03	1.141818E-17	1.915866E-18
3.370000E+03	1.167140E-17	1.957640E-18
3.380000E+03	1.193112E-17	2.000467E-18
3.390000E+03	1.219681E-17	2.044261E-18
3.400000E+03	1.246849E-17	2.089021E-18
3.410000E+03	1.274552E-17	2.134638E-18
3.420000E+03	1.302914E-17	2.181319E-18
3.430000E+03	1.331864E-17	2.228944E-18
3.440000E+03	1.361321E-17	2.277376E-18
3.450000E+03	1.391408E-17	2.326819E-18
3.460000E+03	1.421962E-17	2.377000E-18
3.470000E+03	1.453104E-17	2.428119E-18
3.480000E+03	1.484660E-17	2.479884E-18
3.490000E+03	1.516753E-17	2.532500E-18
3.500000E+03	1.549203E-17	2.585664E-18
3.510000E+03	1.582146E-17	2.639604E-18
3.520000E+03	1.615420E-17	2.694045E-18
3.530000E+03	1.649119E-17	2.749146E-18
3.540000E+03	1.683382E-17	2.805135E-18
3.550000E+03	1.718131E-17	2.861882E-18
3.560000E+03	1.753580E-17	2.919744E-18
3.570000E+03	1.789985E-17	2.979141E-18
3.580000E+03	1.827336E-17	3.040056E-18
3.590000E+03	1.865880E-17	3.102896E-18
3.600000E+03	1.905725E-17	3.167841E-18
3.610000E+03	1.946912E-17	3.234954E-18
3.620000E+03	1.989387E-17	3.304143E-18
3.630000E+03	2.033106E-17	3.375328E-18
3.640000E+03	2.077623E-17	3.447771E-18
3.650000E+03	2.122736E-17	3.521133E-18
3.660000E+03	2.168116E-17	3.594866E-18
3.670000E+03	2.213453E-17	3.668455E-18
3.680000E+03	2.258506E-17	3.741501E-18
3.690000E+03	2.303135E-17	3.813774E-18
3.700000E+03	2.347329E-17	3.885253E-18
3.710000E+03	2.391073E-17	3.955914E-18
3.720000E+03	2.434820E-17	4.026510E-18
3.730000E+03	2.478721E-17	4.097289E-18
3.740000E+03	2.523070E-17	4.168733E-18
3.750000E+03	2.568132E-17	4.241281E-18
3.760000E+03	2.614121E-17	4.315282E-18
3.770000E+03	2.661038E-17	4.390740E-18
3.780000E+03	2.709217E-17	4.468197E-18
3.790000E+03	2.758519E-17	4.547425E-18
3.800000E+03	2.808749E-17	4.628099E-18
3.810000E+03	2.860125E-17	4.710572E-18
3.820000E+03	2.912441E-17	4.794506E-18
3.830000E+03	2.965516E-17	4.879599E-18
3.840000E+03	3.019681E-17	4.966393E-18
3.850000E+03	3.074735E-17	5.054555E-18
3.860000E+03	3.131187E-17	5.144917E-18
3.870000E+03	3.189020E-17	5.237450E-18
3.880000E+03	3.248963E-17	5.333344E-18
3.890000E+03	3.311195E-17	5.432890E-18
3.900000E+03	3.376649E-17	5.537610E-18
3.910000E+03	3.445641E-17	5.648015E-18
3.920000E+03	3.519208E-17	5.765795E-18
3.930000E+03	3.597652E-17	5.891431E-18
3.940000E+03	3.681715E-17	6.026128E-18
3.950000E+03	3.771996E-17	6.170850E-18
3.960000E+03	3.868278E-17	6.325224E-18
3.970000E+03	3.970587E-17	6.489281E-18
3.980000E+03	4.078359E-17	6.662083E-18
3.990000E+03	4.190764E-17	6.842259E-18
4.000000E+03	4.305809E-17	7.026545E-18
4.010000E+03	4.421627E-17	7.211890E-18
4.020000E+03	4.535716E-17	7.394209E-18
4.030000E+03	4.645302E-17	7.568988E-18
4.040000E+03	4.747557E-17	7.731631E-18
4.050000E+03	4.839828E-17	7.877837E-18
4.060000E+03	4.919845E-17	8.003937E-18
4.070000E+03	4.985867E-17	8.107132E-18
4.080000E+03	5.036747E-17	8.185592E-18
4.090000E+03	5.071916E-17	8.238430E-18
4.100000E+03	5.091302E-17	8.265571E-18
4.110000E+03	5.095249E-17	8.267612E-18
4.120000E+03	5.084456E-17	8.245726E-18
4.130000E+03	5.059966E-17	8.201644E-18
4.140000E+03	5.023208E-17	8.137715E-18
4.150000E+03	4.976021E-17	8.056950E-18
4.160000E+03	4.920361E-17	7.962541E-18
4.170000E+03	4.859174E-17	7.859275E-18
4.180000E+03	4.794637E-17	7.750689E-18
4.190000E+03	4.728944E-17	7.640336E-18
4.200000E+03	4.663615E-17	7.530672E-18
4.210000E+03	4.600367E-17	7.424470E-18
4.220000E+03	4.539702E-17	7.322535E-18
4.230000E+03	4.481802E-17	7.225153E-18
4.240000E+03	4.427414E-17	7.133523E-18
4.250000E+03	4.376409E-17	7.047424E-18
4.260000E+03	4.329726E-17	6.968364E-18
4.270000E+03	4.287792E-17	6.897014E-18
4.280000E+03	4.251138E-17	6.834218E-18
4.290000E+03	4.220960E-17	6.781884E-18
4.300000E+03	4.197453E-17	6.740306E-18
4.310000E+03	4.181249E-17	6.710481E-18
4.320000E+03	4.172702E-17	6.692960E-18
4.330000E+03	4.171212E-17	6.686756E-18
4.340000E+03	4.176763E-17	6.691827E-18
4.350000E+03	4.188237E-17	6.706362E-18
4.360000E+03	4.205003E-17	6.729336E-18
4.370000E+03	4.226353E-17	6.759602E-18
4.380000E+03	4.250926E-17	6.794971E-18
4.390000E+03	4.278088E-17	6.834423E-18
4.400000E+03	4.307110E-17	6.876786E-18
4.410000E+03	4.337630E-17	6.921476E-18
4.420000E+03	4.368749E-17	6.967057E-18
4.430000E+03	4.400363E-17	7.013360E-18
4.440000E+03	4.432237E-17	7.060011E-18
4.450000E+03	4.464213E-17	7.106756E-18
4.460000E+03	4.496206E-17	7.153460E-18
4.470000E+03	4.528445E-17	7.200488E-18
4.480000E+03	4.560547E-17	7.247231E-18
4.490000E+03	4.592935E-17	7.294359E-18
4.500000E+03	4.625888E-17	7.342317E-18
4.510000E+03	4.659746E-17	7.391640E-18
4.520000E+03	4.694858E-17	7.442881E-18
4.530000E+03	4.731526E-17	7.496513E-18
4.540000E+03	4.769688E-17	7.552436E-18
4.550000E+03	4.809870E-17	7.611475E-18
4.560000E+03	4.851651E-17	7.672963E-18
4.570000E+03	4.894654E-17	7.736296E-18
4.580000E+03	4.938296E-17	7.800551E-18
4.590000E+03	4.981826E-17	7.864539E-18
4.600000E+03	5.024362E-17	7.926872E-18
4.610000E+03	5.064687E-17	7.985633E-18
4.620000E+03	5.102367E-17	8.040145E-18
4.630000E+03	5.136237E-17	8.088579E-18
4.640000E+03	5.165526E-17	8.129734E-18
4.650000E+03	5.189388E-17	8.162295E-18
4.660000E+03	5.208021E-17	8.186586E-18
4.670000E+03	5.221017E-17	8.201984E-18
4.680000E+03	5.228112E-17	8.208089E-18
4.690000E+03	5.229942E-17	8.205918E-18
4.700000E+03	5.226114E-17	8.194869E-18
4.710000E+03	5.217450E-17	8.176248E-18
4.720000E+03	5.204187E-17	8.150440E-18
4.730000E+03	5.186905E-17	8.118367E-18
4.740000E+03	5.167381E-17	8.082821E-18
4.750000E+03	5.146635E-17	8.045401E-18
4.760000E+03	5.126983E-17	8.009731E-18
4.770000E+03	5.109693E-17	7.977788E-18
4.780000E+03	5.096692E-17	7.952573E-18
4.790000E+03	5.089585E-17	7.936575E-18
4.800000E+03	5.088739E-17	7.930350E-18
4.810000E+03	5.095101E-17	7.935355E-18
4.820000E+03	5.108037E-17	7.950583E-18
4.830000E+03	5.127227E-17	7.975518E-18
4.840000E+03	5.151917E-17	8.008970E-18
4.850000E+03	5.180172E-17	8.047918E-18
4.860000E+03	5.210594E-17	8.090179E-18
4.870000E+03	5.241354E-17	8.132914E-18
4.880000E+03	5.270878E-17	8.173677E-18
4.890000E+03	5.296881E-17	8.208934E-18
4.900000E+03	5.318207E-17	8.236904E-18
4.910000E+03	5.333883E-17	8.256095E-18
4.920000E+03	5.343530E-17	8.265937E-18
4.930000E+03	5.347418E-17	8.266866E-18
4.940000E+03	5.346404E-17	8.260224E-18
4.950000E+03	5.342033E-17	8.248407E-18
4.960000E+03	5.335151E-17	8.232735E-18
4.970000E+03	5.327370E-17	8.215700E-18
4.980000E+03	5.319762E-17	8.198957E-18
4.990000E+03	5.313051E-17	8.183620E-18
5.000000E+03	5.307574E-17	8.170209E-18
5.010000E+03	5.303303E-17	8.158673E-18
5.020000E+03	5.299903E-17	8.148500E-18
5.030000E+03	5.296876E-17	8.138917E-18
5.040000E+03	5.293474E-17	8.128780E-18
5.050000E+03	5.290042E-17	8.118616E-18
5.060000E+03	5.286481E-17	8.108277E-18
5.070000E+03	5.283418E-17	8.098722E-18
5.080000E+03	5.281816E-17	8.091427E-18
5.090000E+03	5.282741E-17	8.088020E-18
5.100000E+03	5.287055E-17	8.089815E-18
5.110000E+03	5.294841E-17	8.096929E-18
5.120000E+03	5.306373E-17	8.109772E-18
5.130000E+03	5.320439E-17	8.126485E-18
5.140000E+03	5.335655E-17	8.144947E-18
5.150000E+03	5.350161E-17	8.162319E-18
5.160000E+03	5.363065E-17	8.177243E-18
5.170000E+03	5.372963E-17	8.187586E-18
5.180000E+03	5.378953E-17	8.191982E-18
5.190000E+03	5.381545E-17	8.191218E-18
5.200000E+03	5.380596E-17	8.185087E-18
5.210000E+03	5.377502E-17	8.175721E-18
5.220000E+03	5.373040E-17	8.164306E-18
5.230000E+03	5.368078E-17	8.152165E-18
5.240000E+03	5.364301E-17	8.141857E-18
5.250000E+03	5.362080E-17	8.133942E-18
5.260000E+03	5.362676E-17	8.130330E-18
5.270000E+03	5.365884E-17	8.130703E-18
5.280000E+03	5.372313E-17	8.135977E-18
5.290000E+03	5.381095E-17	8.144831E-18
5.300000E+03	5.392250E-17	8.157292E-18
5.310000E+03	5.404466E-17	8.171369E-18
5.320000E+03	5.417236E-17	8.186294E-18
5.330000E+03	5.430101E-17	8.201377E-18
5.340000E+03	5.441875E-17	8.214823E-18
5.350000E+03	5.452719E-17	8.226883E-18
5.360000E+03	5.461779E-17	8.236269E-18
5.370000E+03	5.469141E-17	8.243118E-18
5.380000E+03	5.474826E-17	8.247466E-18
5.390000E+03	5.477795E-17	8.247753E-18
5.400000E+03	5.477676E-17	8.243425E-18
5.410000E+03	5.473624E-17	8.233219E-18
5.420000E+03	5.465046E-17	8.216257E-18
5.430000E+03	5.450624E-17	8.190563E-18
5.440000E+03	5.430324E-17	8.156104E-18
5.450000E+03	5.404446E-17	8.113340E-18
5.460000E+03	5.374064E-17	8.063896E-18
5.470000E+03	5.341017E-17	8.010542E-18
5.480000E+03	5.308003E-17	7.957324E-18
5.490000E+03	5.277009E-17	7.907223E-18
5.500000E+03	5.250528E-17	7.863965E-18
5.510000E+03	5.230006E-17	7.829706E-18
5.520000E+03	5.216035E-17	7.805319E-18
5.530000E+03	5.208433E-17	7.790517E-18
5.540000E+03	5.206389E-17	7.784077E-18
5.550000E+03	5.208661E-17	7.784130E-18
5.560000E+03	5.213812E-17	7.788520E-18
5.570000E+03	5.220441E-17	7.795152E-18
5.580000E+03	5.227425E-17	7.802345E-18
5.590000E+03	5.234090E-17	7.809093E-18
5.600000E+03	5.240333E-17	7.815243E-18
5.610000E+03	5.246645E-17	7.821530E-18
5.620000E+03	5.254027E-17	7.829442E-18
5.630000E+03	5.263790E-17	7.840930E-18
5.640000E+03	5.277246E-17	7.857946E-18
5.650000E+03	5.295373E-17	7.881939E-18
5.660000E+03	5.318201E-17	7.912944E-18
5.670000E+03	5.345743E-17	7.950974E-18
5.680000E+03	5.376187E-17	7.993330E-18
5.690000E+03	5.407173E-17	8.036495E-18
5.700000E+03	5.435797E-17	8.076157E-18
5.710000E+03	5.458766E-17	8.107430E-18
5.720000E+03	5.474071E-17	8.127338E-18
5.730000E+03	5.479608E-17	8.132774E-18
5.740000E+03	5.474601E-17	8.122599E-18
5.750000E+03	5.458997E-17	8.096749E-18
5.760000E+03	5.434402E-17	8.057623E-18
5.770000E+03	5.401899E-17	8.006837E-18
5.780000E+03	5.362858E-17	7.946432E-18
5.790000E+03	5.318098E-17	7.877629E-18
5.800000E+03	5.269032E-17	7.802529E-18
5.810000E+03	5.215828E-17	7.721384E-18
5.820000E+03	5.160076E-17	7.636551E-18
5.830000E+03	5.103065E-17	7.549942E-18
5.840000E+03	5.046746E-17	7.464439E-18
5.850000E+03	4.994339E-17	7.384805E-18
5.860000E+03	4.947983E-17	7.314193E-18
5.870000E+03	4.910513E-17	7.256784E-18
5.880000E+03	4.883210E-17	7.214461E-18
5.890000E+03	4.866460E-17	7.187779E-18
5.900000E+03	4.860512E-17	7.177095E-18
5.910000E+03	4.863659E-17	7.179873E-18
5.920000E+03	4.874502E-17	7.194041E-18
5.930000E+03	4.889972E-17	7.215058E-18
5.940000E+03	4.907713E-17	7.239449E-18
5.950000E+03	4.924246E-17	7.262078E-18
5.960000E+03	4.937252E-17	7.279528E-18
5.970000E+03	4.945180E-17	7.289516E-18
5.980000E+03	4.946712E-17	7.290106E-18
5.990000E+03	4.942693E-17	7.282549E-18
6.000000E+03	4.933653E-17	7.267633E-18
6.010000E+03	4.921275E-17	7.247838E-18
6.020000E+03	4.907157E-17	7.225522E-18
6.030000E+03	4.891802E-17	7.201426E-18
6.040000E+03	4.876237E-17	7.177063E-18
6.050000E+03	4.861302E-17	7.153669E-18
6.060000E+03	4.846929E-17	7.131143E-18
6.070000E+03	4.833800E-17	7.110488E-18
6.080000E+03	4.822462E-17	7.092506E-18
6.090000E+03	4.812429E-17	7.076481E-18
6.100000E+03	4.803703E-17	7.062414E-18
6.110000E+03	4.795684E-17	7.049426E-18
6.120000E+03	4.787807E-17	7.036680E-18
6.130000E+03	4.778614E-17	7.022038E-18
6.140000E+03	4.767520E-17	7.004640E-18
6.150000E+03	4.753849E-17	6.983492E-18
6.160000E+03	4.737162E-17	6.957953E-18
6.170000E+03	4.717568E-17	6.928186E-18
6.180000E+03	4.694711E-17	6.893666E-18
6.190000E+03	4.669359E-17	6.855525E-18
6.200000E+03	4.642305E-17	6.814927E-18
6.210000E+03	4.614502E-17	6.773271E-18
6.220000E+03	4.586897E-17	6.731949E-18
6.230000E+03	4.560524E-17	6.692475E-18
6.240000E+03	4.535364E-17	6.654822E-18
6.250000E+03	4.511844E-17	6.619614E-18
6.260000E+03	4.489852E-17	6.586687E-18
6.270000E+03	4.469086E-17	6.555597E-18
6.280000E+03	4.449203E-17	6.525839E-18
6.290000E+03	4.429965E-17	6.497063E-18
6.300000E+03	4.411377E-17	6.469277E-18
6.310000E+03	4.393766E-17	6.442961E-18
6.320000E+03	4.377798E-17	6.419090E-18
6.330000E+03	4.364411E-17	6.399036E-18
6.340000E+03	4.354690E-17	6.384392E-18
6.350000E+03	4.349745E-17	6.376783E-18
6.360000E+03	4.350576E-17	6.377675E-18
6.370000E+03	4.357979E-17	6.388233E-18
6.380000E+03	4.372463E-17	6.409201E-18
6.390000E+03	4.394190E-17	6.440816E-18
6.400000E+03	4.422937E-17	6.482754E-18
6.410000E+03	4.458096E-17	6.534118E-18
6.420000E+03	4.498703E-17	6.593501E-18
6.430000E+03	4.543257E-17	6.658700E-18
6.440000E+03	4.590846E-17	6.728381E-18
6.450000E+03	4.639764E-17	6.800044E-18
6.460000E+03	4.688711E-17	6.871786E-18
6.470000E+03	4.736768E-17	6.942260E-18
6.480000E+03	4.783585E-17	7.010957E-18
6.490000E+03	4.829453E-17	7.078302E-18
6.500000E+03	4.875129E-17	7.145406E-18
6.510000E+03	4.921146E-17	7.213052E-18
6.520000E+03	4.968420E-17	7.282580E-18
6.530000E+03	5.016205E-17	7.352898E-18
6.540000E+03	5.063101E-17	7.421958E-18
6.550000E+03	5.106979E-17	7.486634E-18
6.560000E+03	5.145045E-17	7.542833E-18
6.570000E+03	5.175422E-17	7.587802E-18
6.580000E+03	5.195764E-17	7.618097E-18
6.590000E+03	5.204704E-17	7.631713E-18
6.600000E+03	5.201460E-17	7.627499E-18
6.610000E+03	5.187123E-17	7.607050E-18
6.620000E+03	5.162865E-17	7.572081E-18
6.630000E+03	5.131007E-17	7.525991E-18
6.640000E+03	5.094191E-17	7.472652E-18
6.650000E+03	5.056209E-17	7.417624E-18
6.660000E+03	5.019854E-17	7.365004E-18
6.670000E+03	4.987460E-17	7.318214E-18
6.680000E+03	4.961524E-17	7.280920E-18
6.690000E+03	4.942932E-17	7.254427E-18
6.700000E+03	4.931893E-17	7.239040E-18
6.710000E+03	4.928909E-17	7.235502E-18
6.720000E+03	4.933197E-17	7.242666E-18
6.730000E+03	4.943600E-17	7.258837E-18
6.740000E+03	4.959460E-17	7.283051E-18
6.750000E+03	4.978898E-17	7.312553E-18
6.760000E+03	4.999634E-17	7.343994E-18
6.770000E+03	5.019848E-17	7.374701E-18
6.780000E+03	5.036230E-17	7.399812E-18
6.790000E+03	5.046500E-17	7.415971E-18
6.800000E+03	5.047739E-17	7.418885E-18
6.810000E+03	5.037758E-17	7.405331E-18
6.820000E+03	5.016451E-17	7.375143E-18
6.830000E+03	4.984063E-17	7.328676E-18
6.840000E+03	4.943486E-17	7.270173E-18
6.850000E+03	4.897603E-17	7.203866E-18
6.860000E+03	4.850990E-17	7.136485E-18
6.870000E+03	4.806939E-17	7.072870E-18
6.880000E+03	4.769074E-17	7.018358E-18
6.890000E+03	4.738919E-17	6.975193E-18
6.900000E+03	4.716516E-17	6.943444E-18
6.910000E+03	4.701296E-17	6.922279E-18
6.920000E+03	4.690448E-17	6.907563E-18
6.930000E+03	4.681607E-17	6.895815E-18
6.940000E+03	4.671287E-17	6.881899E-18
6.950000E+03	4.657672E-17	6.863140E-18
6.960000E+03	4.638921E-17	6.836821E-18
6.970000E+03	4.615546E-17	6.803693E-18
6.980000E+03	4.588130E-17	6.764607E-18
6.990000E+03	4.558793E-17	6.722690E-18
7.000000E+03	4.529828E-17	6.681319E-18
7.010000E+03	4.502423E-17	6.642249E-18
7.020000E+03	4.478208E-17	6.607883E-18
7.030000E+03	4.457048E-17	6.578025E-18
7.040000E+03	4.439187E-17	6.553038E-18
7.050000E+03	4.423290E-17	6.530953E-18
7.060000E+03	4.408422E-17	6.510394E-18
7.070000E+03	4.393451E-17	6.489684E-18
7.080000E+03	4.376453E-17	6.465985E-18
7.090000E+03	4.356719E-17	6.438243E-18
7.100000E+03	4.332877E-17	6.404430E-18
7.110000E+03	4.305092E-17	6.364784E-18
7.120000E+03	4.273110E-17	6.318926E-18
7.130000E+03	4.238015E-17	6.268452E-18
7.140000E+03	4.201325E-17	6.215609E-18
7.150000E+03	4.164062E-17	6.161903E-18
7.160000E+03	4.128016E-17	6.109984E-18
7.170000E+03	4.094817E-17	6.062267E-18
7.180000E+03	4.065085E-17	6.019671E-18
7.190000E+03	4.039846E-17	5.983720E-18
7.200000E+03	4.019808E-17	5.955466E-18
7.210000E+03	4.004709E-17	5.934529E-18
7.220000E+03	3.995053E-17	5.921658E-18
7.230000E+03	3.990264E-17	5.916006E-18
7.240000E+03	3.990383E-17	5.917639E-18
7.250000E+03	3.995117E-17	5.926127E-18
7.260000E+03	4.004271E-17	5.941188E-18
7.270000E+03	4.016747E-17	5.961195E-18
7.280000E+03	4.031892E-17	5.985184E-18
7.290000E+03	4.048742E-17	6.011724E-18
7.300000E+03	4.065315E-17	6.037876E-18
7.310000E+03	4.080141E-17	6.061454E-18
7.320000E+03	4.091733E-17	6.080249E-18
7.330000E+03	4.098112E-17	6.091314E-18
7.340000E+03	4.098508E-17	6.093497E-18
7.350000E+03	4.092809E-17	6.086627E-18
7.360000E+03	4.080904E-17	6.070530E-18
7.370000E+03	4.064070E-17	6.047100E-18
7.380000E+03	4.043804E-17	6.018557E-18
7.390000E+03	4.022042E-17	5.987782E-18
7.400000E+03	3.999918E-17	5.956458E-18
7.410000E+03	3.978980E-17	5.926893E-18
7.420000E+03	3.960086E-17	5.900366E-18
7.430000E+03	3.943857E-17	5.877804E-18
7.440000E+03	3.929789E-17	5.858460E-18
7.450000E+03	3.917775E-17	5.842177E-18
7.460000E+03	3.907239E-17	5.828098E-18
7.470000E+03	3.897622E-17	5.815390E-18
7.480000E+03	3.887399E-17	5.801780E-18
7.490000E+03	3.875429E-17	5.785561E-18
7.500000E+03	3.860009E-17	5.764191E-18
7.510000E+03	3.839491E-17	5.735201E-18
7.520000E+03	3.811697E-17	5.695332E-18
7.530000E+03	3.775810E-17	5.643351E-18
7.540000E+03	3.731916E-17	5.579379E-18
7.550000E+03	3.681698E-17	5.505920E-18
7.560000E+03	3.627431E-17	5.426369E-18
7.570000E+03	3.572934E-17	5.346435E-18
7.580000E+03	3.522181E-17	5.272065E-18
7.590000E+03	3.479072E-17	5.209105E-18
7.600000E+03	3.447306E-17	5.163104E-18
7.610000E+03	3.429317E-17	5.137723E-18
7.620000E+03	3.427358E-17	5.136358E-18
7.630000E+03	3.442494E-17	5.160627E-18
7.640000E+03	3.474623E-17	5.210403E-18
7.650000E+03	3.522492E-17	5.283828E-18
7.660000E+03	3.582719E-17	5.375850E-18
7.670000E+03	3.651132E-17	5.480227E-18
7.680000E+03	3.722278E-17	5.588782E-18
7.690000E+03	3.790282E-17	5.692697E-18
7.700000E+03	3.849910E-17	5.784104E-18
7.710000E+03	3.896436E-17	5.855889E-18
7.720000E+03	3.927614E-17	5.904658E-18
7.730000E+03	3.942936E-17	5.929624E-18
7.740000E+03	3.943636E-17	5.932620E-18
7.750000E+03	3.932141E-17	5.917278E-18
7.760000E+03	3.911681E-17	5.888442E-18
