#wls	flux	fluxerr
1.600000E+03	1.907569E-18	4.636693E-19
1.640000E+03	1.851648E-18	4.499360E-19
1.680000E+03	1.801840E-18	4.376920E-19
1.720000E+03	1.758487E-18	4.270198E-19
1.760000E+03	1.721438E-18	4.178809E-19
1.800000E+03	1.691060E-18	4.103631E-19
1.840000E+03	1.667728E-18	4.045559E-19
1.880000E+03	1.651368E-18	4.004396E-19
1.920000E+03	1.642424E-18	3.981199E-19
1.960000E+03	1.641224E-18	3.976743E-19
2.000000E+03	1.648156E-18	3.991942E-19
2.040000E+03	1.663672E-18	4.027869E-19
2.080000E+03	1.688304E-18	4.085782E-19
2.120000E+03	1.722674E-18	4.167155E-19
2.160000E+03	1.767505E-18	4.273703E-19
2.200000E+03	1.823636E-18	4.407414E-19
2.240000E+03	1.892031E-18	4.570575E-19
2.280000E+03	1.973799E-18	4.765811E-19
2.320000E+03	2.070004E-18	4.995639E-19
2.360000E+03	2.182461E-18	5.264375E-19
2.400000E+03	2.312602E-18	5.575402E-19
2.440000E+03	2.462018E-18	5.932469E-19
2.480000E+03	2.633203E-18	6.341497E-19
2.520000E+03	2.828225E-18	6.807359E-19
2.560000E+03	3.049342E-18	7.335368E-19
2.600000E+03	3.299941E-18	7.933538E-19
2.640000E+03	3.582551E-18	8.607787E-19
2.680000E+03	3.901282E-18	9.367822E-19
2.720000E+03	4.259226E-18	1.022086E-18
2.760000E+03	4.660870E-18	1.117745E-18
2.800000E+03	5.111208E-18	1.224930E-18
2.840000E+03	5.614152E-18	1.344550E-18
2.880000E+03	6.175291E-18	1.477911E-18
2.920000E+03	6.799962E-18	1.626254E-18
2.960000E+03	7.493586E-18	1.790834E-18
3.000000E+03	8.262199E-18	1.973048E-18
3.010000E+03	8.465747E-18	2.021274E-18
3.020000E+03	8.675095E-18	2.070864E-18
3.030000E+03	8.889528E-18	2.121647E-18
3.040000E+03	9.109105E-18	2.173635E-18
3.050000E+03	9.332991E-18	2.226629E-18
3.060000E+03	9.562985E-18	2.281057E-18
3.070000E+03	9.798268E-18	2.336722E-18
3.080000E+03	1.003887E-17	2.393630E-18
3.090000E+03	1.028384E-17	2.451555E-18
3.100000E+03	1.053512E-17	2.510960E-18
3.110000E+03	1.079178E-17	2.571617E-18
3.120000E+03	1.105379E-17	2.633525E-18
3.130000E+03	1.132009E-17	2.696423E-18
3.140000E+03	1.159275E-17	2.760809E-18
3.150000E+03	1.187069E-17	2.826423E-18
3.160000E+03	1.215385E-17	2.893249E-18
3.170000E+03	1.244097E-17	2.960987E-18
3.180000E+03	1.273430E-17	3.030169E-18
3.190000E+03	1.303257E-17	3.100496E-18
3.200000E+03	1.333565E-17	3.171935E-18
3.210000E+03	1.364210E-17	3.244139E-18
3.220000E+03	1.395429E-17	3.317676E-18
3.230000E+03	1.427078E-17	3.392196E-18
3.240000E+03	1.459133E-17	3.467647E-18
3.250000E+03	1.491427E-17	3.543631E-18
3.260000E+03	1.524214E-17	3.620747E-18
3.270000E+03	1.557324E-17	3.698592E-18
3.280000E+03	1.590573E-17	3.776728E-18
3.290000E+03	1.624222E-17	3.855777E-18
3.300000E+03	1.658085E-17	3.935293E-18
3.310000E+03	1.691958E-17	4.014791E-18
3.320000E+03	1.726112E-17	4.094916E-18
3.330000E+03	1.760340E-17	4.175177E-18
3.340000E+03	1.794589E-17	4.255446E-18
3.350000E+03	1.828630E-17	4.335179E-18
3.360000E+03	1.862747E-17	4.415050E-18
3.370000E+03	1.896705E-17	4.494504E-18
3.380000E+03	1.930256E-17	4.572951E-18
3.390000E+03	1.963693E-17	4.651085E-18
3.400000E+03	1.996764E-17	4.728310E-18
3.410000E+03	2.029199E-17	4.803988E-18
3.420000E+03	2.061303E-17	4.878841E-18
3.430000E+03	2.092806E-17	4.952230E-18
3.440000E+03	2.123422E-17	5.023478E-18
3.450000E+03	2.153466E-17	5.093335E-18
3.460000E+03	2.182654E-17	5.161125E-18
3.470000E+03	2.210684E-17	5.226141E-18
3.480000E+03	2.237887E-17	5.289163E-18
3.490000E+03	2.263963E-17	5.349485E-18
3.500000E+03	2.288606E-17	5.406385E-18
3.510000E+03	2.312158E-17	5.460672E-18
3.520000E+03	2.334313E-17	5.511629E-18
3.530000E+03	2.354760E-17	5.558522E-18
3.540000E+03	2.373859E-17	5.602202E-18
3.550000E+03	2.391305E-17	5.641950E-18
3.560000E+03	2.406786E-17	5.677039E-18
3.570000E+03	2.420683E-17	5.708367E-18
3.580000E+03	2.432696E-17	5.735229E-18
3.590000E+03	2.442524E-17	5.756921E-18
3.600000E+03	2.450570E-17	5.774396E-18
3.610000E+03	2.456313E-17	5.786428E-18
3.620000E+03	2.460172E-17	5.794008E-18
3.630000E+03	2.461873E-17	5.796495E-18
3.640000E+03	2.461148E-17	5.793263E-18
3.650000E+03	2.458441E-17	5.785364E-18
3.660000E+03	2.453505E-17	5.772215E-18
3.670000E+03	2.446102E-17	5.753262E-18
3.680000E+03	2.436702E-17	5.729617E-18
3.690000E+03	2.424856E-17	5.700229E-18
3.700000E+03	2.411054E-17	5.666250E-18
3.710000E+03	2.395099E-17	5.627224E-18
3.720000E+03	2.376812E-17	5.582734E-18
3.730000E+03	2.356704E-17	5.533984E-18
3.740000E+03	2.334613E-17	5.480600E-18
3.750000E+03	2.310395E-17	5.422247E-18
3.760000E+03	2.284579E-17	5.360170E-18
3.770000E+03	2.256823E-17	5.293567E-18
3.780000E+03	2.227658E-17	5.223693E-18
3.790000E+03	2.196978E-17	5.150298E-18
3.800000E+03	2.164690E-17	5.073170E-18
3.810000E+03	2.131330E-17	4.993568E-18
3.820000E+03	2.096614E-17	4.910827E-18
3.830000E+03	2.061071E-17	4.826191E-18
3.840000E+03	2.024436E-17	4.739041E-18
3.850000E+03	1.987228E-17	4.650595E-18
3.860000E+03	1.949383E-17	4.560703E-18
3.870000E+03	1.910849E-17	4.469245E-18
3.880000E+03	1.872121E-17	4.377382E-18
3.890000E+03	1.832966E-17	4.284568E-18
3.900000E+03	1.793858E-17	4.191913E-18
3.910000E+03	1.754570E-17	4.098888E-18
3.920000E+03	1.715554E-17	4.006548E-18
3.930000E+03	1.676747E-17	3.914744E-18
3.940000E+03	1.638093E-17	3.823350E-18
3.950000E+03	1.600006E-17	3.733327E-18
3.960000E+03	1.562265E-17	3.644161E-18
3.970000E+03	1.525255E-17	3.556747E-18
3.980000E+03	1.488755E-17	3.470573E-18
3.990000E+03	1.453123E-17	3.386467E-18
4.000000E+03	1.418138E-17	3.303918E-18
4.010000E+03	1.384130E-17	3.223691E-18
4.020000E+03	1.350879E-17	3.145272E-18
4.030000E+03	1.318687E-17	3.069363E-18
4.040000E+03	1.287459E-17	2.995739E-18
4.050000E+03	1.257103E-17	2.924186E-18
4.060000E+03	1.227886E-17	2.855323E-18
4.070000E+03	1.199588E-17	2.788638E-18
4.080000E+03	1.172455E-17	2.724696E-18
4.090000E+03	1.146267E-17	2.662988E-18
4.100000E+03	1.121250E-17	2.604035E-18
4.110000E+03	1.097185E-17	2.547328E-18
4.120000E+03	1.074281E-17	2.493347E-18
4.130000E+03	1.052320E-17	2.441588E-18
4.140000E+03	1.031495E-17	2.392492E-18
4.150000E+03	1.011590E-17	2.345559E-18
4.160000E+03	9.927835E-18	2.301200E-18
4.170000E+03	9.748627E-18	2.258919E-18
4.180000E+03	9.579926E-18	2.219097E-18
4.190000E+03	9.419632E-18	2.181246E-18
4.200000E+03	9.269292E-18	2.145721E-18
4.210000E+03	9.126837E-18	2.112041E-18
4.220000E+03	8.993719E-18	2.080541E-18
4.230000E+03	8.867896E-18	2.050747E-18
4.240000E+03	8.750755E-18	2.022978E-18
4.250000E+03	8.640286E-18	1.996766E-18
4.260000E+03	8.537815E-18	1.972417E-18
4.270000E+03	8.441366E-18	1.949474E-18
4.280000E+03	8.352224E-18	1.928230E-18
4.290000E+03	8.268455E-18	1.908239E-18
4.300000E+03	8.191313E-18	1.889788E-18
4.310000E+03	8.118898E-18	1.872438E-18
4.320000E+03	8.052454E-18	1.856474E-18
4.330000E+03	7.990129E-18	1.841468E-18
4.340000E+03	7.933154E-18	1.827703E-18
4.350000E+03	7.879726E-18	1.814762E-18
4.360000E+03	7.830340E-18	1.802759E-18
4.370000E+03	7.785480E-18	1.791804E-18
4.380000E+03	7.743418E-18	1.781498E-18
4.390000E+03	7.705423E-18	1.772133E-18
4.400000E+03	7.669812E-18	1.763320E-18
4.410000E+03	7.637878E-18	1.755357E-18
4.420000E+03	7.607997E-18	1.747869E-18
4.430000E+03	7.581487E-18	1.741159E-18
4.440000E+03	7.556784E-18	1.734867E-18
4.450000E+03	7.535236E-18	1.729301E-18
4.460000E+03	7.515328E-18	1.724114E-18
4.470000E+03	7.497729E-18	1.719458E-18
4.480000E+03	7.483122E-18	1.715490E-18
4.490000E+03	7.470067E-18	1.711879E-18
4.500000E+03	7.459991E-18	1.708951E-18
4.510000E+03	7.451507E-18	1.706388E-18
4.520000E+03	7.446070E-18	1.704522E-18
4.530000E+03	7.442323E-18	1.703044E-18
4.540000E+03	7.441053E-18	1.702131E-18
4.550000E+03	7.443048E-18	1.701964E-18
4.560000E+03	7.446990E-18	1.702240E-18
4.570000E+03	7.454410E-18	1.703310E-18
4.580000E+03	7.463994E-18	1.704871E-18
4.590000E+03	7.477291E-18	1.707277E-18
4.600000E+03	7.492999E-18	1.710231E-18
4.610000E+03	7.511958E-18	1.713923E-18
4.620000E+03	7.535012E-18	1.718544E-18
4.630000E+03	7.560858E-18	1.723797E-18
4.640000E+03	7.591051E-18	1.730036E-18
4.650000E+03	7.624273E-18	1.736959E-18
4.660000E+03	7.661354E-18	1.744753E-18
4.670000E+03	7.703137E-18	1.753612E-18
4.680000E+03	7.748247E-18	1.763219E-18
4.690000E+03	7.798251E-18	1.773931E-18
4.700000E+03	7.851735E-18	1.785425E-18
4.710000E+03	7.909506E-18	1.797884E-18
4.720000E+03	7.972374E-18	1.811491E-18
4.730000E+03	8.038864E-18	1.825908E-18
4.740000E+03	8.110528E-18	1.841488E-18
4.750000E+03	8.185836E-18	1.857883E-18
4.760000E+03	8.265567E-18	1.875267E-18
4.770000E+03	8.350503E-18	1.893818E-18
4.780000E+03	8.439041E-18	1.913170E-18
4.790000E+03	8.531944E-18	1.933495E-18
4.800000E+03	8.630014E-18	1.954975E-18
4.810000E+03	8.731567E-18	1.977226E-18
4.820000E+03	8.837387E-18	2.000425E-18
4.830000E+03	8.948294E-18	2.024756E-18
4.840000E+03	9.062559E-18	2.049828E-18
4.850000E+03	9.181882E-18	2.076023E-18
4.860000E+03	9.304498E-18	2.102941E-18
4.870000E+03	9.431273E-18	2.130778E-18
4.880000E+03	9.563132E-18	2.159741E-18
4.890000E+03	9.698290E-18	2.189427E-18
4.900000E+03	9.837689E-18	2.220045E-18
4.910000E+03	9.982354E-18	2.251828E-18
4.920000E+03	1.013048E-17	2.284365E-18
4.930000E+03	1.028310E-17	2.317892E-18
4.940000E+03	1.044136E-17	2.352662E-18
4.950000E+03	1.060342E-17	2.388261E-18
4.960000E+03	1.077043E-17	2.424949E-18
4.970000E+03	1.094364E-17	2.463001E-18
4.980000E+03	1.112116E-17	2.501996E-18
4.990000E+03	1.130425E-17	2.542211E-18
5.000000E+03	1.149422E-17	2.583944E-18
5.010000E+03	1.168913E-17	2.626754E-18
5.020000E+03	1.189028E-17	2.670935E-18
5.030000E+03	1.209907E-17	2.716796E-18
5.040000E+03	1.231340E-17	2.763867E-18
5.050000E+03	1.253462E-17	2.812447E-18
5.060000E+03	1.276412E-17	2.862848E-18
5.070000E+03	1.299962E-17	2.914558E-18
5.080000E+03	1.324244E-17	2.967869E-18
5.090000E+03	1.349394E-17	3.023085E-18
5.100000E+03	1.375158E-17	3.079633E-18
5.110000E+03	1.401659E-17	3.137790E-18
5.120000E+03	1.428886E-17	3.197530E-18
5.130000E+03	1.456963E-17	3.259126E-18
5.140000E+03	1.485588E-17	3.321903E-18
5.150000E+03	1.514864E-17	3.386091E-18
5.160000E+03	1.544899E-17	3.451925E-18
5.170000E+03	1.575344E-17	3.518631E-18
5.180000E+03	1.606284E-17	3.586392E-18
5.190000E+03	1.637800E-17	3.655391E-18
5.200000E+03	1.669495E-17	3.724739E-18
5.210000E+03	1.701424E-17	3.794560E-18
5.220000E+03	1.733475E-17	3.864603E-18
5.230000E+03	1.765689E-17	3.934962E-18
5.240000E+03	1.797591E-17	4.004577E-18
5.250000E+03	1.829190E-17	4.073469E-18
5.260000E+03	1.860493E-17	4.141655E-18
5.270000E+03	1.890960E-17	4.207933E-18
5.280000E+03	1.920562E-17	4.272245E-18
5.290000E+03	1.949081E-17	4.334105E-18
5.300000E+03	1.976473E-17	4.393420E-18
5.310000E+03	2.002113E-17	4.448803E-18
5.320000E+03	2.025927E-17	4.500094E-18
5.330000E+03	2.047641E-17	4.546692E-18
5.340000E+03	2.067170E-17	4.588413E-18
5.350000E+03	2.083829E-17	4.623741E-18
5.360000E+03	2.097520E-17	4.652467E-18
5.370000E+03	2.107949E-17	4.673947E-18
5.380000E+03	2.115030E-17	4.687995E-18
5.390000E+03	2.118076E-17	4.693101E-18
5.400000E+03	2.117024E-17	4.689135E-18
5.410000E+03	2.111634E-17	4.675572E-18
5.420000E+03	2.101894E-17	4.652398E-18
5.430000E+03	2.087224E-17	4.618339E-18
5.440000E+03	2.067697E-17	4.573568E-18
5.450000E+03	2.043237E-17	4.517926E-18
5.460000E+03	2.014023E-17	4.451823E-18
5.470000E+03	1.979722E-17	4.374533E-18
5.480000E+03	1.940665E-17	4.286795E-18
5.490000E+03	1.897069E-17	4.189100E-18
5.500000E+03	1.849473E-17	4.082645E-18
5.510000E+03	1.798118E-17	3.967973E-18
5.520000E+03	1.743853E-17	3.846965E-18
5.530000E+03	1.687352E-17	3.721109E-18
5.540000E+03	1.629276E-17	3.591868E-18
5.550000E+03	1.570406E-17	3.460969E-18
5.560000E+03	1.511024E-17	3.329029E-18
5.570000E+03	1.451821E-17	3.197573E-18
5.580000E+03	1.393275E-17	3.067653E-18
5.590000E+03	1.335931E-17	2.940463E-18
5.600000E+03	1.279880E-17	2.816206E-18
5.610000E+03	1.225553E-17	2.695821E-18
5.620000E+03	1.173186E-17	2.579827E-18
5.630000E+03	1.122966E-17	2.468626E-18
5.640000E+03	1.075132E-17	2.362742E-18
5.650000E+03	1.029568E-17	2.261913E-18
5.660000E+03	9.864374E-18	2.166495E-18
5.670000E+03	9.457655E-18	2.076535E-18
5.680000E+03	9.075489E-18	1.992022E-18
5.690000E+03	8.718454E-18	1.913078E-18
5.700000E+03	8.384402E-18	1.839224E-18
5.710000E+03	8.073624E-18	1.770522E-18
5.720000E+03	7.785428E-18	1.706813E-18
5.730000E+03	7.519051E-18	1.647926E-18
5.740000E+03	7.273666E-18	1.593675E-18
5.750000E+03	7.049110E-18	1.544021E-18
5.760000E+03	6.843153E-18	1.498470E-18
5.770000E+03	6.655644E-18	1.456986E-18
5.780000E+03	6.485756E-18	1.419385E-18
5.790000E+03	6.332687E-18	1.385486E-18
5.800000E+03	6.196279E-18	1.355253E-18
5.810000E+03	6.074608E-18	1.328261E-18
5.820000E+03	5.967622E-18	1.304496E-18
5.830000E+03	5.874705E-18	1.283820E-18
5.840000E+03	5.795300E-18	1.266110E-18
5.850000E+03	5.728907E-18	1.251253E-18
5.860000E+03	5.675626E-18	1.239268E-18
5.870000E+03	5.633980E-18	1.229832E-18
5.880000E+03	5.604187E-18	1.222989E-18
5.890000E+03	5.585979E-18	1.218678E-18
5.900000E+03	5.579139E-18	1.216851E-18
5.910000E+03	5.583511E-18	1.217471E-18
5.920000E+03	5.598989E-18	1.220513E-18
5.930000E+03	5.626061E-18	1.226081E-18
5.940000E+03	5.663644E-18	1.233938E-18
5.950000E+03	5.712329E-18	1.244209E-18
5.960000E+03	5.772204E-18	1.256913E-18
5.970000E+03	5.843414E-18	1.272080E-18
5.980000E+03	5.926142E-18	1.289746E-18
5.990000E+03	6.020613E-18	1.309960E-18
6.000000E+03	6.127675E-18	1.332903E-18
6.010000E+03	6.246460E-18	1.358385E-18
6.020000E+03	6.377873E-18	1.386601E-18
6.030000E+03	6.522270E-18	1.417626E-18
6.040000E+03	6.680031E-18	1.451540E-18
6.050000E+03	6.851557E-18	1.488428E-18
6.060000E+03	7.037258E-18	1.528378E-18
6.070000E+03	7.238252E-18	1.571630E-18
6.080000E+03	7.453587E-18	1.617974E-18
6.090000E+03	7.684359E-18	1.667647E-18
6.100000E+03	7.930974E-18	1.720735E-18
6.110000E+03	8.193818E-18	1.777318E-18
6.120000E+03	8.473245E-18	1.837471E-18
6.130000E+03	8.769572E-18	1.901261E-18
6.140000E+03	9.083066E-18	1.968742E-18
6.150000E+03	9.413934E-18	2.039957E-18
6.160000E+03	9.763257E-18	2.115139E-18
6.170000E+03	1.012923E-17	2.193893E-18
6.180000E+03	1.051273E-17	2.276406E-18
6.190000E+03	1.091358E-17	2.362640E-18
6.200000E+03	1.133152E-17	2.452533E-18
6.210000E+03	1.176610E-17	2.545989E-18
6.220000E+03	1.221677E-17	2.642885E-18
6.230000E+03	1.268278E-17	2.743055E-18
6.240000E+03	1.316319E-17	2.846298E-18
6.250000E+03	1.365688E-17	2.952368E-18
6.260000E+03	1.416389E-17	3.061271E-18
6.270000E+03	1.467995E-17	3.172085E-18
6.280000E+03	1.520459E-17	3.284707E-18
6.290000E+03	1.573576E-17	3.398693E-18
6.300000E+03	1.627116E-17	3.513547E-18
6.310000E+03	1.680823E-17	3.628716E-18
6.320000E+03	1.734414E-17	3.743590E-18
6.330000E+03	1.787581E-17	3.857504E-18
6.340000E+03	1.839991E-17	3.969743E-18
6.350000E+03	1.891287E-17	4.079536E-18
6.360000E+03	1.941088E-17	4.186066E-18
6.370000E+03	1.988996E-17	4.288476E-18
6.380000E+03	2.034792E-17	4.386298E-18
6.390000E+03	2.077659E-17	4.477773E-18
6.400000E+03	2.117352E-17	4.562382E-18
6.410000E+03	2.153435E-17	4.639186E-18
6.420000E+03	2.185474E-17	4.707259E-18
6.430000E+03	2.213049E-17	4.765700E-18
6.440000E+03	2.235758E-17	4.813651E-18
6.450000E+03	2.253229E-17	4.850317E-18
6.460000E+03	2.265127E-17	4.874983E-18
6.470000E+03	2.271163E-17	4.887038E-18
6.480000E+03	2.271106E-17	4.885990E-18
6.490000E+03	2.264791E-17	4.871492E-18
6.500000E+03	2.252127E-17	4.843358E-18
6.510000E+03	2.233109E-17	4.801582E-18
6.520000E+03	2.207821E-17	4.746353E-18
6.530000E+03	2.176445E-17	4.678069E-18
6.540000E+03	2.139342E-17	4.597513E-18
6.550000E+03	2.097281E-17	4.506344E-18
6.560000E+03	2.050481E-17	4.405036E-18
6.570000E+03	1.999815E-17	4.295471E-18
6.580000E+03	1.945966E-17	4.179115E-18
6.590000E+03	1.889612E-17	4.057431E-18
6.600000E+03	1.831415E-17	3.931842E-18
6.610000E+03	1.772009E-17	3.803706E-18
6.620000E+03	1.711984E-17	3.674293E-18
6.630000E+03	1.651886E-17	3.544773E-18
6.640000E+03	1.592208E-17	3.416204E-18
6.650000E+03	1.533389E-17	3.289523E-18
6.660000E+03	1.475810E-17	3.165551E-18
6.670000E+03	1.419799E-17	3.044986E-18
6.680000E+03	1.365632E-17	2.928416E-18
6.690000E+03	1.313530E-17	2.816317E-18
6.700000E+03	1.263673E-17	2.709067E-18
6.710000E+03	1.216193E-17	2.606949E-18
6.720000E+03	1.171188E-17	2.510168E-18
6.730000E+03	1.128718E-17	2.418853E-18
6.740000E+03	1.088817E-17	2.333070E-18
6.750000E+03	1.051492E-17	2.252833E-18
6.760000E+03	1.016729E-17	2.178111E-18
6.770000E+03	9.844972E-18	2.108833E-18
6.780000E+03	9.547526E-18	2.044903E-18
6.790000E+03	9.274393E-18	1.986199E-18
6.800000E+03	9.024941E-18	1.932584E-18
6.810000E+03	8.798483E-18	1.883908E-18
6.820000E+03	8.594296E-18	1.840015E-18
6.830000E+03	8.411638E-18	1.800744E-18
6.840000E+03	8.249765E-18	1.765934E-18
6.850000E+03	8.107944E-18	1.735427E-18
6.860000E+03	7.985456E-18	1.709068E-18
6.870000E+03	7.881605E-18	1.686706E-18
6.880000E+03	7.795726E-18	1.668198E-18
6.890000E+03	7.727189E-18	1.653409E-18
6.900000E+03	7.675393E-18	1.642207E-18
6.910000E+03	7.639778E-18	1.634474E-18
6.920000E+03	7.619817E-18	1.630095E-18
6.930000E+03	7.615019E-18	1.628964E-18
6.940000E+03	7.624925E-18	1.630982E-18
6.950000E+03	7.649112E-18	1.636060E-18
6.960000E+03	7.687188E-18	1.644111E-18
6.970000E+03	7.738784E-18	1.655057E-18
6.980000E+03	7.803562E-18	1.668826E-18
6.990000E+03	7.881207E-18	1.685349E-18
7.000000E+03	7.971422E-18	1.704562E-18
7.010000E+03	8.073929E-18	1.726407E-18
7.020000E+03	8.188468E-18	1.750826E-18
7.030000E+03	8.314784E-18	1.777767E-18
7.040000E+03	8.452641E-18	1.807177E-18
7.050000E+03	8.601796E-18	1.839005E-18
7.060000E+03	8.762023E-18	1.873203E-18
7.070000E+03	8.933078E-18	1.909719E-18
7.080000E+03	9.114725E-18	1.948501E-18
7.090000E+03	9.306711E-18	1.989497E-18
7.100000E+03	9.508770E-18	2.032649E-18
7.110000E+03	9.720619E-18	2.077898E-18
7.120000E+03	9.941949E-18	2.125177E-18
7.130000E+03	1.017243E-17	2.174415E-18
7.140000E+03	1.041168E-17	2.225535E-18
7.150000E+03	1.065827E-17	2.278226E-18
7.160000E+03	1.091380E-17	2.332833E-18
7.170000E+03	1.117675E-17	2.389033E-18
7.180000E+03	1.144659E-17	2.446711E-18
7.190000E+03	1.172272E-17	2.505739E-18
7.200000E+03	1.200447E-17	2.565977E-18
7.210000E+03	1.229114E-17	2.627273E-18
7.220000E+03	1.258196E-17	2.689463E-18
7.230000E+03	1.287609E-17	2.752372E-18
7.240000E+03	1.317266E-17	2.815810E-18
7.250000E+03	1.347072E-17	2.879577E-18
7.260000E+03	1.376931E-17	2.943466E-18
7.270000E+03	1.406738E-17	3.007256E-18
7.280000E+03	1.436389E-17	3.070724E-18
7.290000E+03	1.465776E-17	3.133639E-18
7.300000E+03	1.494790E-17	3.195769E-18
7.310000E+03	1.523321E-17	3.256880E-18
7.320000E+03	1.551262E-17	3.316742E-18
7.330000E+03	1.578508E-17	3.375132E-18
7.340000E+03	1.604800E-17	3.431498E-18
7.350000E+03	1.630355E-17	3.486301E-18
7.360000E+03	1.654929E-17	3.539023E-18
7.370000E+03	1.678441E-17	3.589491E-18
7.380000E+03	1.700823E-17	3.637555E-18
7.390000E+03	1.722012E-17	3.683086E-18
7.400000E+03	1.741958E-17	3.725975E-18
7.410000E+03	1.760627E-17	3.766147E-18
7.420000E+03	1.777994E-17	3.803552E-18
7.430000E+03	1.794047E-17	3.838163E-18
7.440000E+03	1.808789E-17	3.869986E-18
7.450000E+03	1.822233E-17	3.899047E-18
7.460000E+03	1.834406E-17	3.925408E-18
7.470000E+03	1.845166E-17	3.948760E-18
7.480000E+03	1.854922E-17	3.969982E-18
7.490000E+03	1.863554E-17	3.988814E-18
7.500000E+03	1.871124E-17	4.005390E-18
7.510000E+03	1.877710E-17	4.019876E-18
7.520000E+03	1.883387E-17	4.032434E-18
7.530000E+03	1.888237E-17	4.043237E-18
7.540000E+03	1.892346E-17	4.052469E-18
7.550000E+03	1.895795E-17	4.060304E-18
7.560000E+03	1.898668E-17	4.066923E-18
7.570000E+03	1.901046E-17	4.072497E-18
7.580000E+03	1.902818E-17	4.076788E-18
7.590000E+03	1.904425E-17	4.080745E-18
7.600000E+03	1.905748E-17	4.084107E-18
7.610000E+03	1.906843E-17	4.086999E-18
7.620000E+03	1.907760E-17	4.089525E-18
7.630000E+03	1.908541E-17	4.091776E-18
7.640000E+03	1.909213E-17	4.093811E-18
7.650000E+03	1.909804E-17	4.095690E-18
7.660000E+03	1.910327E-17	4.097439E-18
7.670000E+03	1.910789E-17	4.099076E-18
7.680000E+03	1.910997E-17	4.100187E-18
7.690000E+03	1.911323E-17	4.101566E-18
7.700000E+03	1.911559E-17	4.102772E-18
7.710000E+03	1.911684E-17	4.103758E-18
7.720000E+03	1.911675E-17	4.104473E-18
7.730000E+03	1.911499E-17	4.104851E-18
7.740000E+03	1.911127E-17	4.104825E-18
7.750000E+03	1.910522E-17	4.104316E-18
7.760000E+03	1.909463E-17	4.102853E-18
