#wls	flux	fluxerr
1.577598E+03	3.651465E-04	1.026316E-04
1.617038E+03	3.866908E-04	1.082302E-04
1.656478E+03	4.105493E-04	1.144122E-04
1.695918E+03	4.369182E-04	1.212215E-04
1.735358E+03	4.661797E-04	1.287522E-04
1.774798E+03	4.985736E-04	1.370566E-04
1.814238E+03	5.344430E-04	1.462138E-04
1.853678E+03	5.742466E-04	1.563316E-04
1.893118E+03	6.182755E-04	1.674696E-04
1.932558E+03	6.669683E-04	1.797245E-04
1.971998E+03	7.206613E-04	1.931625E-04
2.011438E+03	7.797724E-04	2.078688E-04
2.050878E+03	8.444543E-04	2.238547E-04
2.090317E+03	9.148156E-04	2.411178E-04
2.129757E+03	9.907649E-04	2.596020E-04
2.169197E+03	1.071691E-03	2.791149E-04
2.208637E+03	1.156601E-03	2.993687E-04
2.248077E+03	1.244384E-03	3.200500E-04
2.287517E+03	1.333761E-03	3.408101E-04
2.326957E+03	1.423746E-03	3.613818E-04
2.366397E+03	1.512685E-03	3.813368E-04
2.405837E+03	1.598210E-03	4.000792E-04
2.445277E+03	1.677377E-03	4.168873E-04
2.484717E+03	1.746095E-03	4.307789E-04
2.524157E+03	1.799975E-03	4.407297E-04
2.563597E+03	1.834780E-03	4.457883E-04
2.603037E+03	1.847958E-03	4.454442E-04
2.642477E+03	1.839539E-03	4.398284E-04
2.681917E+03	1.812263E-03	4.297177E-04
2.721357E+03	1.770306E-03	4.162089E-04
2.760797E+03	1.718123E-03	4.004331E-04
2.800237E+03	1.659868E-03	3.834178E-04
2.839677E+03	1.599238E-03	3.660528E-04
2.879117E+03	1.539396E-03	3.490766E-04
2.918556E+03	1.483075E-03	3.331033E-04
2.957996E+03	1.432589E-03	3.186310E-04
2.967856E+03	1.421157E-03	3.153051E-04
2.977716E+03	1.410210E-03	3.120969E-04
2.987576E+03	1.399834E-03	3.090243E-04
2.997436E+03	1.390017E-03	3.060839E-04
3.007296E+03	1.380808E-03	3.032859E-04
3.017156E+03	1.372257E-03	3.006398E-04
3.027016E+03	1.364323E-03	2.981360E-04
3.036876E+03	1.357114E-03	2.957967E-04
3.046736E+03	1.350592E-03	2.936128E-04
3.056596E+03	1.344834E-03	2.915996E-04
3.066456E+03	1.339833E-03	2.897545E-04
3.076316E+03	1.335612E-03	2.880814E-04
3.086176E+03	1.332249E-03	2.865954E-04
3.096036E+03	1.329716E-03	2.852893E-04
3.105896E+03	1.328117E-03	2.841837E-04
3.115756E+03	1.327404E-03	2.832672E-04
3.125616E+03	1.327684E-03	2.825606E-04
3.135476E+03	1.328939E-03	2.820588E-04
3.145336E+03	1.331254E-03	2.817777E-04
3.155196E+03	1.334640E-03	2.817181E-04
3.165056E+03	1.339161E-03	2.818916E-04
3.174916E+03	1.344858E-03	2.823047E-04
3.184776E+03	1.351775E-03	2.829644E-04
3.194636E+03	1.359932E-03	2.838732E-04
3.204496E+03	1.369423E-03	2.850478E-04
3.214356E+03	1.380269E-03	2.864908E-04
3.224216E+03	1.392538E-03	2.882137E-04
3.234076E+03	1.406253E-03	2.902183E-04
3.243936E+03	1.421452E-03	2.925104E-04
3.253796E+03	1.438192E-03	2.950986E-04
3.263656E+03	1.456478E-03	2.979813E-04
3.273516E+03	1.476347E-03	3.011632E-04
3.283376E+03	1.497802E-03	3.046419E-04
3.293236E+03	1.520784E-03	3.084027E-04
3.303096E+03	1.545300E-03	3.124442E-04
3.312956E+03	1.571267E-03	3.167469E-04
3.322816E+03	1.598596E-03	3.212901E-04
3.332676E+03	1.627165E-03	3.260468E-04
3.342536E+03	1.656772E-03	3.309743E-04
3.352396E+03	1.687267E-03	3.360410E-04
3.362256E+03	1.718397E-03	3.411949E-04
3.372116E+03	1.749877E-03	3.463780E-04
3.381976E+03	1.781411E-03	3.515318E-04
3.391836E+03	1.812688E-03	3.565945E-04
3.401696E+03	1.843340E-03	3.614944E-04
3.411556E+03	1.873070E-03	3.661749E-04
3.421416E+03	1.901538E-03	3.705709E-04
3.431276E+03	1.928479E-03	3.746336E-04
3.441136E+03	1.953659E-03	3.783202E-04
3.450996E+03	1.976898E-03	3.815995E-04
3.460856E+03	1.998086E-03	3.844536E-04
3.470716E+03	2.017175E-03	3.868772E-04
3.480576E+03	2.034152E-03	3.888719E-04
3.490436E+03	2.049052E-03	3.904480E-04
3.500296E+03	2.061950E-03	3.916239E-04
3.510156E+03	2.072886E-03	3.924108E-04
3.520016E+03	2.081868E-03	3.928140E-04
3.529876E+03	2.088822E-03	3.928232E-04
3.539736E+03	2.093698E-03	3.924328E-04
3.549596E+03	2.096406E-03	3.916300E-04
3.559456E+03	2.096894E-03	3.904093E-04
3.569316E+03	2.095048E-03	3.887534E-04
3.579176E+03	2.090805E-03	3.866554E-04
3.589036E+03	2.084070E-03	3.841024E-04
3.598896E+03	2.074855E-03	3.811010E-04
3.608756E+03	2.063213E-03	3.776658E-04
3.618616E+03	2.049281E-03	3.738263E-04
3.628476E+03	2.033316E-03	3.696338E-04
3.638336E+03	2.015690E-03	3.651595E-04
3.648196E+03	1.996878E-03	3.604926E-04
3.658056E+03	1.977519E-03	3.557498E-04
3.667916E+03	1.958326E-03	3.510604E-04
3.677776E+03	1.940167E-03	3.465791E-04
3.687636E+03	1.923950E-03	3.424657E-04
3.697496E+03	1.910634E-03	3.388866E-04
3.707356E+03	1.901221E-03	3.360134E-04
3.717216E+03	1.896726E-03	3.340175E-04
3.727076E+03	1.898107E-03	3.330578E-04
3.736936E+03	1.906316E-03	3.332895E-04
3.746796E+03	1.922215E-03	3.348497E-04
3.756655E+03	1.946615E-03	3.378649E-04
3.766515E+03	1.980265E-03	3.424481E-04
3.776375E+03	2.023822E-03	3.486950E-04
3.786235E+03	2.077799E-03	3.566747E-04
3.796095E+03	2.142626E-03	3.664412E-04
3.805955E+03	2.218506E-03	3.780081E-04
3.815815E+03	2.305529E-03	3.913698E-04
3.825675E+03	2.403464E-03	4.064658E-04
3.835535E+03	2.511896E-03	4.232056E-04
3.845395E+03	2.630027E-03	4.414351E-04
3.855255E+03	2.756761E-03	4.609526E-04
3.865115E+03	2.890636E-03	4.814981E-04
3.874975E+03	3.029877E-03	5.027637E-04
3.884835E+03	3.172395E-03	5.243938E-04
3.894695E+03	3.315914E-03	5.460075E-04
3.904555E+03	3.457962E-03	5.671973E-04
3.914415E+03	3.596082E-03	5.875651E-04
3.924275E+03	3.727909E-03	6.067331E-04
3.934135E+03	3.851371E-03	6.243779E-04
3.943995E+03	3.964683E-03	6.402274E-04
3.953855E+03	4.066510E-03	6.540861E-04
3.963715E+03	4.156004E-03	6.658405E-04
3.973575E+03	4.232910E-03	6.754736E-04
3.983435E+03	4.297368E-03	6.830315E-04
3.993295E+03	4.350076E-03	6.886489E-04
4.003155E+03	4.392009E-03	6.925019E-04
4.013015E+03	4.424488E-03	6.948188E-04
4.022875E+03	4.449027E-03	6.958543E-04
4.032735E+03	4.467196E-03	6.958685E-04
4.042595E+03	4.480565E-03	6.951171E-04
4.052455E+03	4.490624E-03	6.938396E-04
4.062315E+03	4.498783E-03	6.922594E-04
4.072175E+03	4.506159E-03	6.905515E-04
4.082035E+03	4.513713E-03	6.888641E-04
4.091895E+03	4.522100E-03	6.872968E-04
4.101755E+03	4.531809E-03	6.859218E-04
4.111615E+03	4.543107E-03	6.847775E-04
4.121475E+03	4.556010E-03	6.838635E-04
4.131335E+03	4.570454E-03	6.831670E-04
4.141195E+03	4.586214E-03	6.826522E-04
4.151055E+03	4.603064E-03	6.822831E-04
4.160915E+03	4.620697E-03	6.820127E-04
4.170775E+03	4.638888E-03	6.818066E-04
4.180635E+03	4.657350E-03	6.816222E-04
4.190495E+03	4.675857E-03	6.814263E-04
4.200355E+03	4.694158E-03	6.811823E-04
4.210215E+03	4.712051E-03	6.808620E-04
4.220075E+03	4.729223E-03	6.804213E-04
4.229935E+03	4.745338E-03	6.798137E-04
4.239795E+03	4.759953E-03	6.789781E-04
4.249655E+03	4.772557E-03	6.778450E-04
4.259515E+03	4.782632E-03	6.763452E-04
4.269375E+03	4.789661E-03	6.744109E-04
4.279235E+03	4.793133E-03	6.719763E-04
4.289095E+03	4.792683E-03	6.689968E-04
4.298955E+03	4.788093E-03	6.654500E-04
4.308815E+03	4.779457E-03	6.613563E-04
4.318675E+03	4.767137E-03	6.567735E-04
4.328535E+03	4.751991E-03	6.518258E-04
4.338395E+03	4.735355E-03	6.467010E-04
4.348255E+03	4.719133E-03	6.416605E-04
4.358115E+03	4.705298E-03	6.369704E-04
4.367975E+03	4.695814E-03	6.328908E-04
4.377835E+03	4.692300E-03	6.296309E-04
4.387695E+03	4.696064E-03	6.273543E-04
4.397555E+03	4.708052E-03	6.261739E-04
4.407415E+03	4.728715E-03	6.261347E-04
4.417275E+03	4.758059E-03	6.272216E-04
4.427135E+03	4.795605E-03	6.293567E-04
4.436995E+03	4.840529E-03	6.324178E-04
4.446855E+03	4.891567E-03	6.362272E-04
4.456715E+03	4.947157E-03	6.405721E-04
4.466575E+03	5.005477E-03	6.452096E-04
4.476435E+03	5.064422E-03	6.498649E-04
4.486295E+03	5.121893E-03	6.542685E-04
4.496155E+03	5.175666E-03	6.581405E-04
4.506015E+03	5.223604E-03	6.612166E-04
4.515875E+03	5.263616E-03	6.632434E-04
4.525735E+03	5.293957E-03	6.640156E-04
4.535595E+03	5.313039E-03	6.633517E-04
4.545455E+03	5.319761E-03	6.611342E-04
4.555315E+03	5.313270E-03	6.572787E-04
4.565175E+03	5.293212E-03	6.517643E-04
4.575035E+03	5.259589E-03	6.446144E-04
4.584894E+03	5.212875E-03	6.359098E-04
4.594754E+03	5.153739E-03	6.257540E-04
4.604614E+03	5.083263E-03	6.142989E-04
4.614474E+03	5.002666E-03	6.017104E-04
4.624334E+03	4.913327E-03	5.881703E-04
4.634194E+03	4.816834E-03	5.738828E-04
4.644054E+03	4.714703E-03	5.590396E-04
4.653914E+03	4.608576E-03	5.438438E-04
4.663774E+03	4.500011E-03	5.284848E-04
4.673634E+03	4.390630E-03	5.131563E-04
4.683494E+03	4.281888E-03	4.980286E-04
4.693354E+03	4.175284E-03	4.832741E-04
4.703214E+03	4.072142E-03	4.690414E-04
4.713074E+03	3.973738E-03	4.554706E-04
4.722934E+03	3.881111E-03	4.426723E-04
4.732794E+03	3.795168E-03	4.307394E-04
4.742654E+03	3.716637E-03	4.197429E-04
4.752514E+03	3.646048E-03	4.097297E-04
4.762374E+03	3.583725E-03	4.007228E-04
4.772234E+03	3.529779E-03	3.927204E-04
4.782094E+03	3.484188E-03	3.857061E-04
4.791954E+03	3.446709E-03	3.796393E-04
4.801814E+03	3.416895E-03	3.744575E-04
4.811674E+03	3.394153E-03	3.700832E-04
4.821534E+03	3.377769E-03	3.664273E-04
4.831394E+03	3.366795E-03	3.633771E-04
4.841254E+03	3.360307E-03	3.608246E-04
4.851114E+03	3.357218E-03	3.586465E-04
4.860974E+03	3.356438E-03	3.567213E-04
4.870834E+03	3.356988E-03	3.549421E-04
4.880694E+03	3.357979E-03	3.532134E-04
4.890554E+03	3.358663E-03	3.514565E-04
4.900414E+03	3.358588E-03	3.496251E-04
4.910274E+03	3.357455E-03	3.476898E-04
4.920134E+03	3.355360E-03	3.456623E-04
4.929994E+03	3.352535E-03	3.435685E-04
4.939854E+03	3.349419E-03	3.414544E-04
4.949714E+03	3.346654E-03	3.393860E-04
4.959574E+03	3.344893E-03	3.374290E-04
4.969434E+03	3.344836E-03	3.356524E-04
4.979294E+03	3.347133E-03	3.341187E-04
4.989154E+03	3.352348E-03	3.328805E-04
4.999014E+03	3.360894E-03	3.319746E-04
5.008874E+03	3.373115E-03	3.314301E-04
5.018734E+03	3.389159E-03	3.312562E-04
5.028594E+03	3.409089E-03	3.314537E-04
5.038454E+03	3.432820E-03	3.320092E-04
5.048314E+03	3.460244E-03	3.329071E-04
5.058174E+03	3.491074E-03	3.341152E-04
5.068034E+03	3.525088E-03	3.356079E-04
5.077894E+03	3.561858E-03	3.373410E-04
5.087754E+03	3.601000E-03	3.392753E-04
5.097614E+03	3.641998E-03	3.413599E-04
5.107474E+03	3.684261E-03	3.435381E-04
5.117334E+03	3.727225E-03	3.457570E-04
5.127194E+03	3.770181E-03	3.479515E-04
5.137054E+03	3.812434E-03	3.500590E-04
5.146914E+03	3.853257E-03	3.520155E-04
5.156774E+03	3.891890E-03	3.537553E-04
5.166634E+03	3.927635E-03	3.552198E-04
5.176494E+03	3.959805E-03	3.563523E-04
5.186354E+03	3.987867E-03	3.571114E-04
5.196214E+03	4.011298E-03	3.574574E-04
5.206074E+03	4.029726E-03	3.573645E-04
5.215934E+03	4.042889E-03	3.568174E-04
5.225794E+03	4.050592E-03	3.558069E-04
5.235654E+03	4.052792E-03	3.543371E-04
5.245514E+03	4.049538E-03	3.524200E-04
5.255374E+03	4.040951E-03	3.500736E-04
5.265234E+03	4.027169E-03	3.473170E-04
5.275094E+03	4.008450E-03	3.441788E-04
5.284954E+03	3.985027E-03	3.406854E-04
5.294814E+03	3.957147E-03	3.368633E-04
5.304674E+03	3.925034E-03	3.327365E-04
5.314534E+03	3.889036E-03	3.283393E-04
5.324394E+03	3.849424E-03	3.236983E-04
5.334254E+03	3.806643E-03	3.188543E-04
5.344114E+03	3.761083E-03	3.138428E-04
5.353974E+03	3.713295E-03	3.087118E-04
5.363834E+03	3.663880E-03	3.035126E-04
5.373694E+03	3.613557E-03	2.983054E-04
5.383554E+03	3.562962E-03	2.931427E-04
5.393414E+03	3.512690E-03	2.880725E-04
5.403274E+03	3.463224E-03	2.831334E-04
5.413134E+03	3.414956E-03	2.783550E-04
5.422993E+03	3.368056E-03	2.737480E-04
5.432853E+03	3.322656E-03	2.693202E-04
5.442713E+03	3.278720E-03	2.650656E-04
5.452573E+03	3.236104E-03	2.609698E-04
5.462433E+03	3.194629E-03	2.570157E-04
5.472293E+03	3.154177E-03	2.531913E-04
5.482153E+03	3.114694E-03	2.494902E-04
5.492013E+03	3.076335E-03	2.459223E-04
5.501873E+03	3.039329E-03	2.425038E-04
5.511733E+03	3.004204E-03	2.392745E-04
5.521593E+03	2.971522E-03	2.362769E-04
5.531453E+03	2.942058E-03	2.335701E-04
5.541313E+03	2.916662E-03	2.312188E-04
5.551173E+03	2.896114E-03	2.292823E-04
5.561033E+03	2.881307E-03	2.278288E-04
5.570893E+03	2.872932E-03	2.269100E-04
5.580753E+03	2.871548E-03	2.265678E-04
5.590613E+03	2.877664E-03	2.268400E-04
5.600473E+03	2.891457E-03	2.277386E-04
5.610333E+03	2.912987E-03	2.292667E-04
5.620193E+03	2.942114E-03	2.314119E-04
5.630053E+03	2.978476E-03	2.341448E-04
5.639913E+03	3.021540E-03	2.374230E-04
5.649773E+03	3.070626E-03	2.411928E-04
5.659633E+03	3.124977E-03	2.453947E-04
5.669493E+03	3.183762E-03	2.499639E-04
5.679353E+03	3.246008E-03	2.548245E-04
5.689213E+03	3.310906E-03	2.599138E-04
5.699073E+03	3.377485E-03	2.651561E-04
5.708933E+03	3.444947E-03	2.704899E-04
5.718793E+03	3.512419E-03	2.758474E-04
5.728653E+03	3.579136E-03	2.811691E-04
5.738513E+03	3.644328E-03	2.863955E-04
5.748373E+03	3.707270E-03	2.914700E-04
5.758233E+03	3.767195E-03	2.963329E-04
5.768093E+03	3.823389E-03	3.009281E-04
5.777953E+03	3.875213E-03	3.052053E-04
5.787813E+03	3.922091E-03	3.091191E-04
5.797673E+03	3.963397E-03	3.126196E-04
5.807533E+03	3.998769E-03	3.156775E-04
5.817393E+03	4.027846E-03	3.182634E-04
5.827253E+03	4.050480E-03	3.203643E-04
5.837113E+03	4.066602E-03	3.219733E-04
5.846973E+03	4.076232E-03	3.230905E-04
5.856833E+03	4.079579E-03	3.237306E-04
5.866693E+03	4.076884E-03	3.239109E-04
5.876553E+03	4.068405E-03	3.236498E-04
5.886413E+03	4.054570E-03	3.229796E-04
5.896273E+03	4.035635E-03	3.219184E-04
5.906133E+03	4.011991E-03	3.204956E-04
5.915993E+03	3.983974E-03	3.187358E-04
5.925853E+03	3.951861E-03	3.166592E-04
5.935713E+03	3.915997E-03	3.142914E-04
5.945573E+03	3.876563E-03	3.116450E-04
5.955433E+03	3.833908E-03	3.087460E-04
5.965293E+03	3.788161E-03	3.056030E-04
5.975153E+03	3.739577E-03	3.022345E-04
5.985013E+03	3.688295E-03	2.986498E-04
5.994873E+03	3.634496E-03	2.948617E-04
6.004733E+03	3.578335E-03	2.908809E-04
6.014593E+03	3.519981E-03	2.867194E-04
6.024453E+03	3.459755E-03	2.824014E-04
6.034313E+03	3.397853E-03	2.779412E-04
6.044173E+03	3.334707E-03	2.733726E-04
6.054033E+03	3.270680E-03	2.687239E-04
6.063893E+03	3.206244E-03	2.640323E-04
6.073753E+03	3.141731E-03	2.593234E-04
6.083613E+03	3.077647E-03	2.546375E-04
6.093473E+03	3.014306E-03	2.499995E-04
6.103333E+03	2.952055E-03	2.454370E-04
6.113193E+03	2.891154E-03	2.409713E-04
6.123053E+03	2.831986E-03	2.366339E-04
6.132913E+03	2.774962E-03	2.324590E-04
6.142773E+03	2.720496E-03	2.284819E-04
6.152633E+03	2.668965E-03	2.247347E-04
6.162493E+03	2.620435E-03	2.212241E-04
6.172353E+03	2.574900E-03	2.179508E-04
6.182213E+03	2.532103E-03	2.148941E-04
6.192073E+03	2.491964E-03	2.120482E-04
6.201933E+03	2.454399E-03	2.094071E-04
6.211793E+03	2.419229E-03	2.069567E-04
6.221653E+03	2.386357E-03	2.046896E-04
6.231513E+03	2.355617E-03	2.025926E-04
6.241373E+03	2.326815E-03	2.006500E-04
6.251232E+03	2.299675E-03	1.988387E-04
6.261092E+03	2.273989E-03	1.971415E-04
6.270952E+03	2.249536E-03	1.955398E-04
6.280812E+03	2.226139E-03	1.940185E-04
6.290672E+03	2.203641E-03	1.925644E-04
6.300532E+03	2.181946E-03	1.911693E-04
6.310392E+03	2.161015E-03	1.898302E-04
6.320252E+03	2.140893E-03	1.885511E-04
6.330112E+03	2.121629E-03	1.873367E-04
6.339972E+03	2.103236E-03	1.861885E-04
6.349832E+03	2.085908E-03	1.851242E-04
6.359692E+03	2.069739E-03	1.841526E-04
6.369552E+03	2.054821E-03	1.832823E-04
6.379412E+03	2.041236E-03	1.825217E-04
6.389272E+03	2.028931E-03	1.818664E-04
6.399132E+03	2.017895E-03	1.813162E-04
6.408992E+03	2.008012E-03	1.808615E-04
6.418852E+03	1.999158E-03	1.804915E-04
6.428712E+03	1.991084E-03	1.801844E-04
6.438572E+03	1.983679E-03	1.799303E-04
6.448432E+03	1.976664E-03	1.797042E-04
6.458292E+03	1.969856E-03	1.794897E-04
6.468152E+03	1.963053E-03	1.792681E-04
6.478012E+03	1.956037E-03	1.790196E-04
6.487872E+03	1.948676E-03	1.787319E-04
6.497732E+03	1.940835E-03	1.783923E-04
6.507592E+03	1.932373E-03	1.779874E-04
6.517452E+03	1.923206E-03	1.775091E-04
6.527312E+03	1.913273E-03	1.769514E-04
6.537172E+03	1.902564E-03	1.763129E-04
6.547032E+03	1.890991E-03	1.755850E-04
6.556892E+03	1.878576E-03	1.747693E-04
6.566752E+03	1.865320E-03	1.738656E-04
6.576612E+03	1.851210E-03	1.728723E-04
6.586472E+03	1.836310E-03	1.717949E-04
6.596332E+03	1.820637E-03	1.706349E-04
6.606192E+03	1.804295E-03	1.694016E-04
6.616052E+03	1.787313E-03	1.680977E-04
6.625912E+03	1.769837E-03	1.667366E-04
6.635772E+03	1.752034E-03	1.653342E-04
6.645632E+03	1.733997E-03	1.638992E-04
6.655492E+03	1.715928E-03	1.624508E-04
6.665352E+03	1.697976E-03	1.610033E-04
6.675212E+03	1.680355E-03	1.595774E-04
6.685072E+03	1.663216E-03	1.581876E-04
6.694932E+03	1.646730E-03	1.568507E-04
6.704792E+03	1.631081E-03	1.555848E-04
6.714652E+03	1.616347E-03	1.543977E-04
6.724512E+03	1.602695E-03	1.533061E-04
6.734372E+03	1.590153E-03	1.523131E-04
6.744232E+03	1.578832E-03	1.514303E-04
6.754092E+03	1.568702E-03	1.506552E-04
6.763952E+03	1.559765E-03	1.499888E-04
6.773812E+03	1.552029E-03	1.494323E-04
6.783672E+03	1.545449E-03	1.489821E-04
6.793532E+03	1.539913E-03	1.486279E-04
6.803392E+03	1.535411E-03	1.483693E-04
6.813252E+03	1.531843E-03	1.481972E-04
6.823112E+03	1.529163E-03	1.481075E-04
6.832972E+03	1.527246E-03	1.480886E-04
6.842832E+03	1.526056E-03	1.481374E-04
6.852692E+03	1.525536E-03	1.482490E-04
6.862552E+03	1.525609E-03	1.484159E-04
6.872412E+03	1.526259E-03	1.486371E-04
6.882272E+03	1.527446E-03	1.489092E-04
6.892132E+03	1.529101E-03	1.492257E-04
6.901992E+03	1.531182E-03	1.495827E-04
6.911852E+03	1.533638E-03	1.499758E-04
6.921712E+03	1.536445E-03	1.504028E-04
6.931572E+03	1.539476E-03	1.508516E-04
6.941432E+03	1.542718E-03	1.513213E-04
6.951292E+03	1.546030E-03	1.517982E-04
6.961152E+03	1.549356E-03	1.522772E-04
6.971012E+03	1.552579E-03	1.527469E-04
6.980872E+03	1.555644E-03	1.532023E-04
6.990732E+03	1.558471E-03	1.536356E-04
7.000592E+03	1.560959E-03	1.540371E-04
7.010452E+03	1.563015E-03	1.543978E-04
7.020312E+03	1.564657E-03	1.547195E-04
7.030172E+03	1.565821E-03	1.549962E-04
7.040032E+03	1.566490E-03	1.552263E-04
7.049892E+03	1.566663E-03	1.554098E-04
7.059752E+03	1.566321E-03	1.555451E-04
7.069612E+03	1.565525E-03	1.556383E-04
7.079472E+03	1.564281E-03	1.556902E-04
7.089331E+03	1.562634E-03	1.557054E-04
7.099191E+03	1.560671E-03	1.556928E-04
7.109051E+03	1.558411E-03	1.556545E-04
7.118911E+03	1.555942E-03	1.555994E-04
7.128771E+03	1.553244E-03	1.555260E-04
7.138631E+03	1.550395E-03	1.554421E-04
7.148491E+03	1.547429E-03	1.553515E-04
7.158351E+03	1.544377E-03	1.552575E-04
7.168211E+03	1.541262E-03	1.551628E-04
7.178071E+03	1.538103E-03	1.550695E-04
7.187931E+03	1.534884E-03	1.549764E-04
7.197791E+03	1.531650E-03	1.548883E-04
7.207651E+03	1.528413E-03	1.548066E-04
7.217511E+03	1.525179E-03	1.547323E-04
7.227371E+03	1.521917E-03	1.546627E-04
7.237231E+03	1.518660E-03	1.546013E-04
7.247091E+03	1.515435E-03	1.545512E-04
7.256951E+03	1.512165E-03	1.545048E-04
7.266811E+03	1.508870E-03	1.544646E-04
7.276671E+03	1.505536E-03	1.544293E-04
7.286531E+03	1.502180E-03	1.544010E-04
7.296391E+03	1.498755E-03	1.543751E-04
7.306251E+03	1.495281E-03	1.543538E-04
7.316111E+03	1.491777E-03	1.543396E-04
7.325971E+03	1.488199E-03	1.543279E-04
7.335831E+03	1.484598E-03	1.543245E-04
7.345691E+03	1.480891E-03	1.543207E-04
7.355551E+03	1.477090E-03	1.543181E-04
7.365411E+03	1.473133E-03	1.543105E-04
7.375271E+03	1.469025E-03	1.542982E-04
7.385131E+03	1.464661E-03	1.542705E-04
7.394991E+03	1.460040E-03	1.542273E-04
7.404851E+03	1.455134E-03	1.541654E-04
7.414711E+03	1.449886E-03	1.540788E-04
7.424571E+03	1.444363E-03	1.539744E-04
7.434431E+03	1.438519E-03	1.538473E-04
7.444291E+03	1.432443E-03	1.537065E-04
7.454151E+03	1.426193E-03	1.535577E-04
7.464011E+03	1.419936E-03	1.534185E-04
7.473871E+03	1.413819E-03	1.533042E-04
7.483731E+03	1.408096E-03	1.532424E-04
7.493591E+03	1.402989E-03	1.532573E-04
7.503451E+03	1.398763E-03	1.533782E-04
7.513311E+03	1.395641E-03	1.536307E-04
7.523171E+03	1.393638E-03	1.540172E-04
7.533031E+03	1.392707E-03	1.545340E-04
7.542891E+03	1.392817E-03	1.551785E-04
7.552751E+03	1.393866E-03	1.559407E-04
7.562611E+03	1.395825E-03	1.568183E-04
7.572471E+03	1.398558E-03	1.577970E-04
7.582331E+03	1.402063E-03	1.588776E-04
7.592191E+03	1.406261E-03	1.600522E-04
7.602051E+03	1.411033E-03	1.613079E-04
7.611911E+03	1.416321E-03	1.626388E-04
7.621771E+03	1.421989E-03	1.640299E-04
7.631631E+03	1.427930E-03	1.654693E-04
7.641491E+03	1.434067E-03	1.669483E-04
7.651351E+03	1.440284E-03	1.684537E-04
