#wls	flux	fluxerr
1.577598E+03	1.644758E-03	1.170856E-04
1.617038E+03	1.733581E-03	1.229932E-04
1.656478E+03	1.831312E-03	1.294780E-04
1.695918E+03	1.939081E-03	1.366113E-04
1.735358E+03	2.057698E-03	1.444405E-04
1.774798E+03	2.188871E-03	1.530744E-04
1.814238E+03	2.333352E-03	1.625531E-04
1.853678E+03	2.492799E-03	1.729782E-04
1.893118E+03	2.668489E-03	1.844226E-04
1.932558E+03	2.861942E-03	1.969738E-04
1.971998E+03	3.074413E-03	2.106990E-04
2.011438E+03	3.307304E-03	2.256727E-04
2.050878E+03	3.561573E-03	2.419373E-04
2.090317E+03	3.838133E-03	2.595296E-04
2.129757E+03	4.136853E-03	2.784147E-04
2.169197E+03	4.457471E-03	2.985476E-04
2.208637E+03	4.798490E-03	3.198007E-04
2.248077E+03	5.158108E-03	3.420271E-04
2.287517E+03	5.533330E-03	3.650028E-04
2.326957E+03	5.918886E-03	3.883581E-04
2.366397E+03	6.308068E-03	4.116361E-04
2.405837E+03	6.690900E-03	4.341773E-04
2.445277E+03	7.053901E-03	4.551105E-04
2.484717E+03	7.379600E-03	4.733295E-04
2.524157E+03	7.646078E-03	4.874720E-04
2.563597E+03	7.829817E-03	4.961106E-04
2.603037E+03	7.912487E-03	4.981847E-04
2.642477E+03	7.894275E-03	4.938253E-04
2.681917E+03	7.792876E-03	4.842555E-04
2.721357E+03	7.630014E-03	4.709215E-04
2.760797E+03	7.425943E-03	4.551459E-04
2.800237E+03	7.197951E-03	4.380383E-04
2.839677E+03	6.960601E-03	4.205146E-04
2.879117E+03	6.727854E-03	4.034297E-04
2.918556E+03	6.512514E-03	3.875445E-04
2.957996E+03	6.326217E-03	3.735270E-04
2.967856E+03	6.285322E-03	3.703775E-04
2.977716E+03	6.247160E-03	3.673957E-04
2.987576E+03	6.211502E-03	3.645671E-04
2.997436E+03	6.178876E-03	3.619219E-04
3.007296E+03	6.149206E-03	3.594546E-04
3.017156E+03	6.122572E-03	3.571688E-04
3.027016E+03	6.099201E-03	3.550768E-04
3.036876E+03	6.079304E-03	3.531896E-04
3.046736E+03	6.062837E-03	3.515036E-04
3.056596E+03	6.050156E-03	3.500380E-04
3.066456E+03	6.041232E-03	3.487899E-04
3.076316E+03	6.036297E-03	3.477712E-04
3.086176E+03	6.035590E-03	3.469944E-04
3.096036E+03	6.039238E-03	3.464651E-04
3.105896E+03	6.047268E-03	3.461833E-04
3.115756E+03	6.060179E-03	3.461759E-04
3.125616E+03	6.077914E-03	3.464377E-04
3.135476E+03	6.100887E-03	3.469907E-04
3.145336E+03	6.129305E-03	3.478445E-04
3.155196E+03	6.163396E-03	3.490100E-04
3.165056E+03	6.203409E-03	3.504992E-04
3.174916E+03	6.249843E-03	3.523379E-04
3.184776E+03	6.302893E-03	3.545346E-04
3.194636E+03	6.362882E-03	3.571049E-04
3.204496E+03	6.430291E-03	3.600730E-04
3.214356E+03	6.505603E-03	3.634630E-04
3.224216E+03	6.589136E-03	3.672897E-04
3.234076E+03	6.681432E-03	3.715799E-04
3.243936E+03	6.782939E-03	3.763549E-04
3.253796E+03	6.894236E-03	3.816433E-04
3.263656E+03	7.015661E-03	3.874598E-04
3.273516E+03	7.147651E-03	3.938244E-04
3.283376E+03	7.290793E-03	4.007652E-04
3.293236E+03	7.445187E-03	4.082832E-04
3.303096E+03	7.611135E-03	4.163905E-04
3.312956E+03	7.788789E-03	4.250904E-04
3.322816E+03	7.977784E-03	4.343586E-04
3.332676E+03	8.177931E-03	4.441800E-04
3.342536E+03	8.388289E-03	4.544991E-04
3.352396E+03	8.607741E-03	4.652513E-04
3.362256E+03	8.834841E-03	4.763547E-04
3.372116E+03	9.067409E-03	4.876890E-04
3.381976E+03	9.302866E-03	4.991135E-04
3.391836E+03	9.537935E-03	5.104512E-04
3.401696E+03	9.769320E-03	5.215262E-04
3.411556E+03	9.993333E-03	5.321436E-04
3.421416E+03	1.020622E-02	5.421066E-04
3.431276E+03	1.040482E-02	5.512521E-04
3.441136E+03	1.058633E-02	5.594376E-04
3.450996E+03	1.074890E-02	5.665721E-04
3.460856E+03	1.089166E-02	5.726178E-04
3.470716E+03	1.101450E-02	5.775775E-04
3.480576E+03	1.111826E-02	5.815021E-04
3.490436E+03	1.120430E-02	5.844708E-04
3.500296E+03	1.127411E-02	5.865684E-04
3.510156E+03	1.132895E-02	5.878671E-04
3.520016E+03	1.136953E-02	5.884092E-04
3.529876E+03	1.139579E-02	5.881980E-04
3.539736E+03	1.140716E-02	5.872100E-04
3.549596E+03	1.140289E-02	5.854129E-04
3.559456E+03	1.138154E-02	5.827393E-04
3.569316E+03	1.134168E-02	5.791238E-04
3.579176E+03	1.128202E-02	5.745077E-04
3.589036E+03	1.120082E-02	5.688111E-04
3.598896E+03	1.109645E-02	5.619613E-04
3.608756E+03	1.096749E-02	5.538954E-04
3.618616E+03	1.081307E-02	5.445809E-04
3.628476E+03	1.063316E-02	5.340261E-04
3.638336E+03	1.042886E-02	5.222982E-04
3.648196E+03	1.020325E-02	5.095607E-04
3.658056E+03	9.960655E-03	4.960382E-04
3.667916E+03	9.707393E-03	4.820521E-04
3.677776E+03	9.450993E-03	4.679799E-04
3.687636E+03	9.200026E-03	4.542463E-04
3.697496E+03	8.963402E-03	4.412878E-04
3.707356E+03	8.749984E-03	4.295337E-04
3.717216E+03	8.568294E-03	4.193912E-04
3.727076E+03	8.425968E-03	4.112197E-04
3.736936E+03	8.329855E-03	4.053356E-04
3.746796E+03	8.285830E-03	4.020042E-04
3.756655E+03	8.299276E-03	4.014635E-04
3.766515E+03	8.374657E-03	4.039040E-04
3.776375E+03	8.516080E-03	4.094965E-04
3.786235E+03	8.726877E-03	4.183720E-04
3.796095E+03	9.010008E-03	4.306419E-04
3.805955E+03	9.367209E-03	4.463572E-04
3.815815E+03	9.799391E-03	4.655289E-04
3.825675E+03	1.030568E-02	4.880824E-04
3.835535E+03	1.088312E-02	5.138460E-04
3.845395E+03	1.152632E-02	5.425344E-04
3.855255E+03	1.222693E-02	5.737265E-04
3.865115E+03	1.297336E-02	6.068546E-04
3.874975E+03	1.375066E-02	6.412012E-04
3.884835E+03	1.454088E-02	6.759178E-04
3.894695E+03	1.532400E-02	7.100710E-04
3.904555E+03	1.607874E-02	7.426801E-04
3.914415E+03	1.678363E-02	7.727692E-04
3.924275E+03	1.741960E-02	7.994844E-04
3.934135E+03	1.797045E-02	8.221151E-04
3.943995E+03	1.842461E-02	8.401713E-04
3.953855E+03	1.877543E-02	8.533929E-04
3.963715E+03	1.902193E-02	8.617812E-04
3.973575E+03	1.916832E-02	8.655735E-04
3.983435E+03	1.922269E-02	8.651777E-04
3.993295E+03	1.919666E-02	8.611563E-04
4.003155E+03	1.910387E-02	8.541551E-04
4.013015E+03	1.895919E-02	8.448669E-04
4.022875E+03	1.877753E-02	8.339767E-04
4.032735E+03	1.857333E-02	8.221410E-04
4.042595E+03	1.835974E-02	8.099494E-04
4.052455E+03	1.814823E-02	7.979115E-04
4.062315E+03	1.794840E-02	7.864469E-04
4.072175E+03	1.776757E-02	7.758694E-04
4.082035E+03	1.761029E-02	7.663697E-04
4.091895E+03	1.747902E-02	7.580440E-04
4.101755E+03	1.737342E-02	7.508653E-04
4.111615E+03	1.729125E-02	7.447266E-04
4.121475E+03	1.722861E-02	7.394500E-04
4.131335E+03	1.718047E-02	7.348113E-04
4.141195E+03	1.714145E-02	7.305754E-04
4.151055E+03	1.710678E-02	7.265355E-04
4.160915E+03	1.707262E-02	7.225271E-04
4.170775E+03	1.703671E-02	7.184550E-04
4.180635E+03	1.699834E-02	7.142905E-04
4.190495E+03	1.695799E-02	7.100547E-04
4.200355E+03	1.691683E-02	7.057975E-04
4.210215E+03	1.687671E-02	7.015963E-04
4.220075E+03	1.683844E-02	6.974845E-04
4.229935E+03	1.680198E-02	6.934600E-04
4.239795E+03	1.676561E-02	6.894509E-04
4.249655E+03	1.672644E-02	6.853388E-04
4.259515E+03	1.667996E-02	6.809420E-04
4.269375E+03	1.662083E-02	6.760459E-04
4.279235E+03	1.654359E-02	6.704349E-04
4.289095E+03	1.644322E-02	6.639154E-04
4.298955E+03	1.631659E-02	6.563713E-04
4.308815E+03	1.616248E-02	6.477659E-04
4.318675E+03	1.598344E-02	6.382136E-04
4.328535E+03	1.578649E-02	6.280038E-04
4.338395E+03	1.558303E-02	6.175971E-04
4.348255E+03	1.538822E-02	6.075940E-04
4.358115E+03	1.521817E-02	5.986250E-04
4.367975E+03	1.508777E-02	5.912618E-04
4.377835E+03	1.500955E-02	5.859766E-04
4.387695E+03	1.499226E-02	5.830856E-04
4.397555E+03	1.504106E-02	5.827622E-04
4.407415E+03	1.515750E-02	5.850367E-04
4.417275E+03	1.534028E-02	5.898293E-04
4.427135E+03	1.558510E-02	5.969459E-04
4.436995E+03	1.588503E-02	6.060948E-04
4.446855E+03	1.623166E-02	6.169316E-04
4.456715E+03	1.661451E-02	6.290396E-04
4.466575E+03	1.702184E-02	6.419603E-04
4.476435E+03	1.744094E-02	6.552047E-04
4.486295E+03	1.785808E-02	6.682546E-04
4.496155E+03	1.825898E-02	6.805785E-04
4.506015E+03	1.862959E-02	6.916619E-04
4.515875E+03	1.895672E-02	7.010307E-04
4.525735E+03	1.922840E-02	7.082633E-04
4.535595E+03	1.943433E-02	7.130057E-04
4.545455E+03	1.956730E-02	7.150244E-04
4.555315E+03	1.962268E-02	7.141817E-04
4.565175E+03	1.959843E-02	7.104389E-04
4.575035E+03	1.949595E-02	7.038808E-04
4.584894E+03	1.931904E-02	6.946783E-04
4.594754E+03	1.907342E-02	6.830688E-04
4.604614E+03	1.876670E-02	6.693544E-04
4.614474E+03	1.840677E-02	6.538410E-04
4.624334E+03	1.800192E-02	6.368457E-04
4.634194E+03	1.756003E-02	6.186656E-04
4.644054E+03	1.708873E-02	5.995843E-04
4.653914E+03	1.659507E-02	5.798610E-04
4.663774E+03	1.608653E-02	5.597653E-04
4.673634E+03	1.557040E-02	5.395561E-04
4.683494E+03	1.505489E-02	5.195205E-04
4.693354E+03	1.454786E-02	4.999276E-04
4.703214E+03	1.405755E-02	4.810558E-04
4.713074E+03	1.359189E-02	4.631676E-04
4.722934E+03	1.315752E-02	4.464783E-04
4.732794E+03	1.276028E-02	4.311710E-04
4.742654E+03	1.240415E-02	4.173639E-04
4.752514E+03	1.209224E-02	4.051431E-04
4.762374E+03	1.182623E-02	3.945456E-04
4.772234E+03	1.160668E-02	3.855710E-04
4.782094E+03	1.143352E-02	3.781966E-04
4.791954E+03	1.130587E-02	3.723738E-04
4.801814E+03	1.122165E-02	3.680153E-04
4.811674E+03	1.117806E-02	3.650111E-04
4.821534E+03	1.117103E-02	3.632119E-04
4.831394E+03	1.119475E-02	3.624143E-04
4.841254E+03	1.124221E-02	3.623802E-04
4.851114E+03	1.130501E-02	3.628298E-04
4.860974E+03	1.137387E-02	3.634605E-04
4.870834E+03	1.143931E-02	3.639686E-04
4.880694E+03	1.149247E-02	3.640753E-04
4.890554E+03	1.152638E-02	3.635661E-04
4.900414E+03	1.153636E-02	3.623021E-04
4.910274E+03	1.152091E-02	3.602467E-04
4.920134E+03	1.148171E-02	3.574631E-04
4.929994E+03	1.142331E-02	3.541018E-04
4.939854E+03	1.135236E-02	3.503762E-04
4.949714E+03	1.127667E-02	3.465314E-04
4.959574E+03	1.120409E-02	3.428099E-04
4.969434E+03	1.114181E-02	3.394296E-04
4.979294E+03	1.109563E-02	3.365626E-04
4.989154E+03	1.106964E-02	3.343262E-04
4.999014E+03	1.106613E-02	3.327816E-04
5.008874E+03	1.108584E-02	3.319425E-04
5.018734E+03	1.112806E-02	3.317796E-04
5.028594E+03	1.119179E-02	3.322543E-04
5.038454E+03	1.127544E-02	3.333127E-04
5.048314E+03	1.137723E-02	3.348953E-04
5.058174E+03	1.149581E-02	3.369558E-04
5.068034E+03	1.163011E-02	3.394584E-04
5.077894E+03	1.177913E-02	3.423685E-04
5.087754E+03	1.194152E-02	3.456430E-04
5.097614E+03	1.211597E-02	3.492402E-04
5.107474E+03	1.230067E-02	3.531047E-04
5.117334E+03	1.249278E-02	3.571532E-04
5.127194E+03	1.268905E-02	3.612915E-04
5.137054E+03	1.288565E-02	3.654109E-04
5.146914E+03	1.307849E-02	3.693974E-04
5.156774E+03	1.326309E-02	3.731278E-04
5.166634E+03	1.343527E-02	3.764884E-04
5.176494E+03	1.359103E-02	3.793737E-04
5.186354E+03	1.372724E-02	3.817032E-04
5.196214E+03	1.384133E-02	3.834133E-04
5.206074E+03	1.393139E-02	3.844595E-04
5.215934E+03	1.399661E-02	3.848280E-04
5.225794E+03	1.403673E-02	3.845205E-04
5.235654E+03	1.405242E-02	3.835638E-04
5.245514E+03	1.404519E-02	3.820067E-04
5.255374E+03	1.401674E-02	3.799032E-04
5.265234E+03	1.396921E-02	3.773169E-04
5.275094E+03	1.390465E-02	3.743092E-04
5.284954E+03	1.382473E-02	3.709297E-04
5.294814E+03	1.373049E-02	3.672105E-04
5.304674E+03	1.362217E-02	3.631620E-04
5.314534E+03	1.349924E-02	3.587735E-04
5.324394E+03	1.336044E-02	3.540151E-04
5.334254E+03	1.320447E-02	3.488561E-04
5.344114E+03	1.303055E-02	3.432792E-04
5.353974E+03	1.283866E-02	3.372876E-04
5.363834E+03	1.263059E-02	3.309314E-04
5.373694E+03	1.241006E-02	3.243103E-04
5.383554E+03	1.218306E-02	3.175817E-04
5.393414E+03	1.195653E-02	3.109259E-04
5.403274E+03	1.173786E-02	3.045327E-04
5.413134E+03	1.153208E-02	2.985288E-04
5.422993E+03	1.134157E-02	2.929715E-04
5.432853E+03	1.116500E-02	2.878223E-04
5.442713E+03	1.099800E-02	2.829645E-04
5.452573E+03	1.083469E-02	2.782444E-04
5.462433E+03	1.066902E-02	2.735047E-04
5.472293E+03	1.049614E-02	2.686199E-04
5.482153E+03	1.031296E-02	2.635108E-04
5.492013E+03	1.011855E-02	2.581527E-04
5.501873E+03	9.914031E-03	2.525744E-04
5.511733E+03	9.702721E-03	2.468594E-04
5.521593E+03	9.489693E-03	2.411357E-04
5.531453E+03	9.281332E-03	2.355636E-04
5.541313E+03	9.084720E-03	2.303208E-04
5.551173E+03	8.907215E-03	2.255910E-04
5.561033E+03	8.755864E-03	2.215497E-04
5.570893E+03	8.636618E-03	2.183442E-04
5.580753E+03	8.554097E-03	2.160881E-04
5.590613E+03	8.511612E-03	2.148621E-04
5.600473E+03	8.510578E-03	2.146992E-04
5.610333E+03	8.550521E-03	2.155851E-04
5.620193E+03	8.629637E-03	2.174725E-04
5.630053E+03	8.744732E-03	2.202796E-04
5.639913E+03	8.891313E-03	2.238925E-04
5.649773E+03	9.064224E-03	2.281811E-04
5.659633E+03	9.258034E-03	2.330086E-04
5.669493E+03	9.467162E-03	2.382349E-04
5.679353E+03	9.686772E-03	2.437388E-04
5.689213E+03	9.912373E-03	2.494083E-04
5.699073E+03	1.014070E-02	2.551618E-04
5.708933E+03	1.036932E-02	2.609387E-04
5.718793E+03	1.059662E-02	2.666993E-04
5.728653E+03	1.082116E-02	2.724081E-04
5.738513E+03	1.104166E-02	2.780338E-04
5.748373E+03	1.125634E-02	2.835316E-04
5.758233E+03	1.146258E-02	2.888364E-04
5.768093E+03	1.165747E-02	2.938749E-04
5.777953E+03	1.183723E-02	2.985521E-04
5.787813E+03	1.199822E-02	3.027759E-04
5.797673E+03	1.213683E-02	3.064551E-04
5.807533E+03	1.225045E-02	3.095225E-04
5.817393E+03	1.233733E-02	3.119333E-04
5.827253E+03	1.239687E-02	3.136708E-04
5.837113E+03	1.242975E-02	3.147510E-04
5.846973E+03	1.243723E-02	3.152035E-04
5.856833E+03	1.242181E-02	3.150907E-04
5.866693E+03	1.238612E-02	3.144770E-04
5.876553E+03	1.233280E-02	3.134281E-04
5.886413E+03	1.226409E-02	3.119991E-04
5.896273E+03	1.218207E-02	3.102415E-04
5.906133E+03	1.208837E-02	3.081956E-04
5.915993E+03	1.198388E-02	3.058821E-04
5.925853E+03	1.186989E-02	3.033331E-04
5.935713E+03	1.174735E-02	3.005711E-04
5.945573E+03	1.161755E-02	2.976281E-04
5.955433E+03	1.148137E-02	2.945255E-04
5.965293E+03	1.134006E-02	2.912940E-04
5.975153E+03	1.119412E-02	2.879456E-04
5.985013E+03	1.104330E-02	2.844729E-04
5.994873E+03	1.088686E-02	2.808555E-04
6.004733E+03	1.072375E-02	2.770653E-04
6.014593E+03	1.055256E-02	2.730644E-04
6.024453E+03	1.037256E-02	2.688321E-04
6.034313E+03	1.018355E-02	2.643617E-04
6.044173E+03	9.986712E-03	2.596825E-04
6.054033E+03	9.784421E-03	2.548542E-04
6.063893E+03	9.579760E-03	2.499562E-04
6.073753E+03	9.376610E-03	2.450888E-04
6.083613E+03	9.178956E-03	2.403555E-04
6.093473E+03	8.989907E-03	2.358376E-04
6.103333E+03	8.811492E-03	2.315889E-04
6.113193E+03	8.643946E-03	2.276162E-04
6.123053E+03	8.485986E-03	2.238865E-04
6.132913E+03	8.334989E-03	2.203311E-04
6.142773E+03	8.188146E-03	2.168762E-04
6.152633E+03	8.043729E-03	2.134757E-04
6.162493E+03	7.901717E-03	2.101289E-04
6.172353E+03	7.764180E-03	2.068908E-04
6.182213E+03	7.634451E-03	2.038506E-04
6.192073E+03	7.515797E-03	2.010964E-04
6.201933E+03	7.410376E-03	1.986874E-04
6.211793E+03	7.318928E-03	1.966454E-04
6.221653E+03	7.241092E-03	1.949625E-04
6.231513E+03	7.174890E-03	1.935874E-04
6.241373E+03	7.118190E-03	1.924641E-04
6.251232E+03	7.068035E-03	1.915137E-04
6.261092E+03	7.021684E-03	1.906628E-04
6.270952E+03	6.976937E-03	1.898518E-04
6.280812E+03	6.931876E-03	1.890284E-04
6.290672E+03	6.885404E-03	1.881625E-04
6.300532E+03	6.837203E-03	1.872447E-04
6.310392E+03	6.787812E-03	1.862895E-04
6.320252E+03	6.738099E-03	1.853202E-04
6.330112E+03	6.689300E-03	1.843706E-04
6.339972E+03	6.642991E-03	1.834844E-04
6.349832E+03	6.600765E-03	1.827058E-04
6.359692E+03	6.564049E-03	1.820749E-04
6.369552E+03	6.533808E-03	1.816195E-04
6.379412E+03	6.510672E-03	1.813581E-04
6.389272E+03	6.494766E-03	1.812953E-04
6.399132E+03	6.485842E-03	1.814253E-04
6.408992E+03	6.483129E-03	1.817275E-04
6.418852E+03	6.485519E-03	1.821719E-04
6.428712E+03	6.491872E-03	1.827271E-04
6.438572E+03	6.500613E-03	1.833493E-04
6.448432E+03	6.510449E-03	1.840021E-04
6.458292E+03	6.519929E-03	1.846448E-04
6.468152E+03	6.527959E-03	1.852460E-04
6.478012E+03	6.533426E-03	1.857737E-04
6.487872E+03	6.535571E-03	1.862058E-04
6.497732E+03	6.533884E-03	1.865272E-04
6.507592E+03	6.528196E-03	1.867321E-04
6.517452E+03	6.518200E-03	1.868112E-04
6.527312E+03	6.504126E-03	1.867703E-04
6.537172E+03	6.485912E-03	1.866068E-04
6.547032E+03	6.463570E-03	1.863205E-04
6.556892E+03	6.437120E-03	1.859111E-04
6.566752E+03	6.406170E-03	1.853667E-04
6.576612E+03	6.370682E-03	1.846853E-04
6.586472E+03	6.330285E-03	1.838556E-04
6.596332E+03	6.284766E-03	1.828705E-04
6.606192E+03	6.234155E-03	1.817302E-04
6.616052E+03	6.178448E-03	1.804337E-04
6.625912E+03	6.117984E-03	1.789902E-04
6.635772E+03	6.053332E-03	1.774157E-04
6.645632E+03	5.985388E-03	1.757360E-04
6.655492E+03	5.915027E-03	1.739762E-04
6.665352E+03	5.843363E-03	1.721691E-04
6.675212E+03	5.771683E-03	1.703524E-04
6.685072E+03	5.701086E-03	1.685587E-04
6.694932E+03	5.632724E-03	1.668224E-04
6.704792E+03	5.567750E-03	1.651782E-04
6.714652E+03	5.506858E-03	1.636473E-04
6.724512E+03	5.450969E-03	1.622578E-04
6.734372E+03	5.400587E-03	1.610255E-04
6.744232E+03	5.355812E-03	1.599545E-04
6.754092E+03	5.316923E-03	1.590539E-04
6.763952E+03	5.283702E-03	1.583183E-04
6.773812E+03	5.255856E-03	1.577396E-04
6.783672E+03	5.232945E-03	1.573056E-04
6.793532E+03	5.214433E-03	1.570009E-04
6.803392E+03	5.199815E-03	1.568110E-04
6.813252E+03	5.188301E-03	1.567128E-04
6.823112E+03	5.179538E-03	1.566960E-04
6.832972E+03	5.172873E-03	1.567414E-04
6.842832E+03	5.168167E-03	1.568452E-04
6.852692E+03	5.165033E-03	1.569960E-04
6.862552E+03	5.163610E-03	1.571983E-04
6.872412E+03	5.163748E-03	1.574479E-04
6.882272E+03	5.165659E-03	1.577516E-04
6.892132E+03	5.169462E-03	1.581135E-04
6.901992E+03	5.175135E-03	1.585332E-04
6.911852E+03	5.182859E-03	1.590167E-04
6.921712E+03	5.192288E-03	1.595538E-04
6.931572E+03	5.203128E-03	1.601358E-04
6.941432E+03	5.215056E-03	1.607531E-04
6.951292E+03	5.227540E-03	1.613896E-04
6.961152E+03	5.239887E-03	1.620240E-04
6.971012E+03	5.251500E-03	1.626381E-04
6.980872E+03	5.261910E-03	1.632172E-04
6.990732E+03	5.270509E-03	1.637426E-04
7.000592E+03	5.276886E-03	1.642013E-04
7.010452E+03	5.280709E-03	1.645828E-04
7.020312E+03	5.281851E-03	1.648829E-04
7.030172E+03	5.279953E-03	1.650902E-04
7.040032E+03	5.275181E-03	1.652095E-04
7.049892E+03	5.267364E-03	1.652352E-04
7.059752E+03	5.256762E-03	1.651753E-04
7.069612E+03	5.243631E-03	1.650375E-04
7.079472E+03	5.228320E-03	1.648324E-04
7.089331E+03	5.211159E-03	1.645705E-04
7.099191E+03	5.192721E-03	1.642696E-04
7.109051E+03	5.173477E-03	1.639445E-04
7.118911E+03	5.153721E-03	1.636048E-04
7.128771E+03	5.133762E-03	1.632602E-04
7.138631E+03	5.113898E-03	1.629203E-04
7.148491E+03	5.094085E-03	1.625840E-04
7.158351E+03	5.074294E-03	1.622503E-04
7.168211E+03	5.054565E-03	1.619208E-04
7.178071E+03	5.034714E-03	1.615897E-04
7.187931E+03	5.014721E-03	1.612565E-04
7.197791E+03	4.994838E-03	1.609294E-04
7.207651E+03	4.974828E-03	1.606008E-04
7.217511E+03	4.955125E-03	1.602850E-04
7.227371E+03	4.935589E-03	1.599775E-04
7.237231E+03	4.916458E-03	1.596864E-04
7.247091E+03	4.897569E-03	1.594064E-04
7.256951E+03	4.878914E-03	1.591376E-04
7.266811E+03	4.860452E-03	1.588786E-04
7.276671E+03	4.841915E-03	1.586210E-04
7.286531E+03	4.823524E-03	1.583720E-04
7.296391E+03	4.805123E-03	1.581267E-04
7.306251E+03	4.786734E-03	1.578859E-04
7.316111E+03	4.768903E-03	1.576678E-04
7.325971E+03	4.751438E-03	1.574662E-04
7.335831E+03	4.734852E-03	1.572984E-04
7.345691E+03	4.719304E-03	1.571701E-04
7.355551E+03	4.704689E-03	1.570780E-04
7.365411E+03	4.690930E-03	1.570200E-04
7.375271E+03	4.677947E-03	1.569936E-04
7.385131E+03	4.665423E-03	1.569885E-04
7.394991E+03	4.653014E-03	1.569935E-04
7.404851E+03	4.640162E-03	1.569896E-04
7.414711E+03	4.626249E-03	1.569559E-04
7.424571E+03	4.610767E-03	1.568750E-04
7.434431E+03	4.593287E-03	1.567316E-04
7.444291E+03	4.573423E-03	1.565116E-04
7.454151E+03	4.551234E-03	1.562161E-04
7.464011E+03	4.526687E-03	1.558431E-04
7.473871E+03	4.500437E-03	1.554141E-04
7.483731E+03	4.472976E-03	1.549453E-04
7.493591E+03	4.444952E-03	1.544587E-04
7.503451E+03	4.417316E-03	1.539869E-04
7.513311E+03	4.390850E-03	1.535571E-04
7.523171E+03	4.366527E-03	1.532035E-04
7.533031E+03	4.345125E-03	1.529541E-04
7.542891E+03	4.327112E-03	1.528262E-04
7.552751E+03	4.312937E-03	1.528366E-04
7.562611E+03	4.302597E-03	1.529864E-04
7.572471E+03	4.296114E-03	1.532775E-04
7.582331E+03	4.293259E-03	1.537031E-04
7.592191E+03	4.293619E-03	1.542495E-04
7.602051E+03	4.296966E-03	1.549094E-04
7.611911E+03	4.302944E-03	1.556711E-04
7.621771E+03	4.311171E-03	1.565216E-04
7.631631E+03	4.321249E-03	1.574472E-04
7.641491E+03	4.332746E-03	1.584326E-04
7.651351E+03	4.345207E-03	1.594616E-04
