#wls	flux	fluxerr
1.577598E+03	8.328473E-04	4.156493E-05
1.617038E+03	8.395665E-04	4.183778E-05
1.656478E+03	8.461999E-04	4.210370E-05
1.695918E+03	8.531489E-04	4.238261E-05
1.735358E+03	8.600858E-04	4.265809E-05
1.774798E+03	8.671150E-04	4.293524E-05
1.814238E+03	8.740460E-04	4.320454E-05
1.853678E+03	8.809789E-04	4.347087E-05
1.893118E+03	8.880125E-04	4.373901E-05
1.932558E+03	8.947991E-04	4.399177E-05
1.971998E+03	9.015824E-04	4.424108E-05
2.011438E+03	9.081599E-04	4.447693E-05
2.050878E+03	9.144785E-04	4.469673E-05
2.090317E+03	9.206342E-04	4.490512E-05
2.129757E+03	9.265779E-04	4.509969E-05
2.169197E+03	9.322634E-04	4.527819E-05
2.208637E+03	9.375017E-04	4.543144E-05
2.248077E+03	9.425557E-04	4.557222E-05
2.287517E+03	9.472521E-04	4.569216E-05
2.326957E+03	9.515768E-04	4.579063E-05
2.366397E+03	9.558194E-04	4.588157E-05
2.405837E+03	9.596981E-04	4.595145E-05
2.445277E+03	9.633854E-04	4.600857E-05
2.484717E+03	9.669254E-04	4.605504E-05
2.524157E+03	9.705220E-04	4.610051E-05
2.563597E+03	9.742570E-04	4.614878E-05
2.603037E+03	9.780962E-04	4.619812E-05
2.642477E+03	9.824484E-04	4.626765E-05
2.681917E+03	9.873333E-04	4.635801E-05
2.721357E+03	9.930750E-04	4.648407E-05
2.760797E+03	9.998960E-04	4.665575E-05
2.800237E+03	1.008060E-03	4.688473E-05
2.839677E+03	1.017873E-03	4.718452E-05
2.879117E+03	1.029827E-03	4.757695E-05
2.918556E+03	1.044471E-03	4.808612E-05
2.957996E+03	1.062161E-03	4.872692E-05
2.967856E+03	1.067046E-03	4.890689E-05
2.977716E+03	1.072240E-03	4.910035E-05
2.987576E+03	1.077751E-03	4.930768E-05
2.997436E+03	1.083460E-03	4.952339E-05
3.007296E+03	1.089508E-03	4.975387E-05
3.017156E+03	1.095775E-03	4.999362E-05
3.027016E+03	1.102403E-03	5.024907E-05
3.036876E+03	1.109274E-03	5.051475E-05
3.046736E+03	1.116398E-03	5.079118E-05
3.056596E+03	1.124049E-03	5.109070E-05
3.066456E+03	1.131848E-03	5.139603E-05
3.076316E+03	1.140200E-03	5.172555E-05
3.086176E+03	1.148724E-03	5.206188E-05
3.096036E+03	1.157827E-03	5.242348E-05
3.105896E+03	1.167260E-03	5.279895E-05
3.115756E+03	1.177036E-03	5.318880E-05
3.125616E+03	1.187300E-03	5.359959E-05
3.135476E+03	1.198065E-03	5.403182E-05
3.145336E+03	1.209211E-03	5.448002E-05
3.155196E+03	1.220886E-03	5.495073E-05
3.165056E+03	1.232967E-03	5.543838E-05
3.174916E+03	1.245600E-03	5.594950E-05
3.184776E+03	1.258661E-03	5.647842E-05
3.194636E+03	1.272297E-03	5.703163E-05
3.204496E+03	1.286519E-03	5.760955E-05
3.214356E+03	1.301197E-03	5.820627E-05
3.224216E+03	1.316476E-03	5.882822E-05
3.234076E+03	1.332363E-03	5.947560E-05
3.243936E+03	1.348721E-03	6.014221E-05
3.253796E+03	1.365692E-03	6.083432E-05
3.263656E+03	1.383134E-03	6.154547E-05
3.273516E+03	1.401185E-03	6.228176E-05
3.283376E+03	1.419840E-03	6.304286E-05
3.293236E+03	1.438945E-03	6.382180E-05
3.303096E+03	1.458632E-03	6.462439E-05
3.312956E+03	1.478736E-03	6.544323E-05
3.322816E+03	1.499535E-03	6.629050E-05
3.332676E+03	1.520552E-03	6.714510E-05
3.342536E+03	1.542212E-03	6.802564E-05
3.352396E+03	1.564175E-03	6.891710E-05
3.362256E+03	1.586556E-03	6.982443E-05
3.372116E+03	1.609153E-03	7.073873E-05
3.381976E+03	1.632231E-03	7.167154E-05
3.391836E+03	1.655263E-03	7.259969E-05
3.401696E+03	1.678663E-03	7.354134E-05
3.411556E+03	1.702051E-03	7.447970E-05
3.421416E+03	1.725518E-03	7.541879E-05
3.431276E+03	1.748829E-03	7.634835E-05
3.441136E+03	1.772237E-03	7.727942E-05
3.450996E+03	1.795338E-03	7.819432E-05
3.460856E+03	1.818051E-03	7.908958E-05
3.470716E+03	1.840631E-03	7.997636E-05
3.480576E+03	1.862666E-03	8.083675E-05
3.490436E+03	1.884078E-03	8.166746E-05
3.500296E+03	1.905134E-03	8.248017E-05
3.510156E+03	1.925428E-03	8.325732E-05
3.520016E+03	1.944898E-03	8.399634E-05
3.529876E+03	1.963836E-03	8.470997E-05
3.539736E+03	1.981857E-03	8.538166E-05
3.549596E+03	1.999103E-03	8.601770E-05
3.559456E+03	2.015385E-03	8.661007E-05
3.569316E+03	2.031049E-03	8.717380E-05
3.579176E+03	2.045765E-03	8.769478E-05
3.589036E+03	2.059567E-03	8.817459E-05
3.598896E+03	2.072855E-03	8.863056E-05
3.608756E+03	2.085354E-03	8.905101E-05
3.618616E+03	2.097159E-03	8.944006E-05
3.628476E+03	2.108731E-03	8.981747E-05
3.638336E+03	2.119856E-03	9.017420E-05
3.648196E+03	2.130689E-03	9.051689E-05
3.658056E+03	2.141748E-03	9.086754E-05
3.667916E+03	2.152877E-03	9.121953E-05
3.677776E+03	2.164454E-03	9.158884E-05
3.687636E+03	2.176527E-03	9.197741E-05
3.697496E+03	2.189500E-03	9.240220E-05
3.707356E+03	2.203615E-03	9.287321E-05
3.717216E+03	2.219119E-03	9.340072E-05
3.727076E+03	2.236095E-03	9.398794E-05
3.736936E+03	2.254801E-03	9.464538E-05
3.746796E+03	2.275835E-03	9.539791E-05
3.756655E+03	2.299109E-03	9.624137E-05
3.766515E+03	2.324872E-03	9.718576E-05
3.776375E+03	2.353713E-03	9.825532E-05
3.786235E+03	2.385519E-03	9.944469E-05
3.796095E+03	2.420510E-03	1.007625E-04
3.805955E+03	2.459069E-03	1.022242E-04
3.815815E+03	2.501390E-03	1.038371E-04
3.825675E+03	2.547464E-03	1.056002E-04
3.835535E+03	2.597625E-03	1.075266E-04
3.845395E+03	2.651814E-03	1.096132E-04
3.855255E+03	2.710319E-03	1.118711E-04
3.865115E+03	2.773021E-03	1.142946E-04
3.874975E+03	2.840155E-03	1.168926E-04
3.884835E+03	2.911731E-03	1.196647E-04
3.894695E+03	2.987523E-03	1.226008E-04
3.904555E+03	3.067460E-03	1.256972E-04
3.914415E+03	3.151645E-03	1.289573E-04
3.924275E+03	3.239942E-03	1.323749E-04
3.934135E+03	3.331731E-03	1.359237E-04
3.943995E+03	3.427453E-03	1.396211E-04
3.953855E+03	3.526175E-03	1.434285E-04
3.963715E+03	3.628296E-03	1.473614E-04
3.973575E+03	3.732787E-03	1.513774E-04
3.983435E+03	3.839767E-03	1.554809E-04
3.993295E+03	3.948615E-03	1.596463E-04
4.003155E+03	4.059189E-03	1.638674E-04
4.013015E+03	4.170823E-03	1.681172E-04
4.022875E+03	4.283097E-03	1.723783E-04
4.032735E+03	4.395866E-03	1.766450E-04
4.042595E+03	4.508442E-03	1.808893E-04
4.052455E+03	4.620423E-03	1.850954E-04
4.062315E+03	4.731420E-03	1.892475E-04
4.072175E+03	4.841367E-03	1.933433E-04
4.082035E+03	4.949640E-03	1.973581E-04
4.091895E+03	5.055929E-03	2.012797E-04
4.101755E+03	5.159968E-03	2.050981E-04
4.111615E+03	5.261523E-03	2.088042E-04
4.121475E+03	5.360718E-03	2.124036E-04
4.131335E+03	5.456771E-03	2.158655E-04
4.141195E+03	5.550211E-03	2.192116E-04
4.151055E+03	5.640652E-03	2.224271E-04
4.160915E+03	5.727727E-03	2.254980E-04
4.170775E+03	5.812114E-03	2.284518E-04
4.180635E+03	5.893522E-03	2.312774E-04
4.190495E+03	5.972038E-03	2.339788E-04
4.200355E+03	6.047780E-03	2.365613E-04
4.210215E+03	6.120892E-03	2.390308E-04
4.220075E+03	6.191200E-03	2.413813E-04
4.229935E+03	6.259596E-03	2.436479E-04
4.239795E+03	6.325612E-03	2.458128E-04
4.249655E+03	6.390184E-03	2.479128E-04
4.259515E+03	6.452877E-03	2.499314E-04
4.269375E+03	6.514301E-03	2.518924E-04
4.279235E+03	6.574746E-03	2.538074E-04
4.289095E+03	6.634134E-03	2.556735E-04
4.298955E+03	6.693458E-03	2.575292E-04
4.308815E+03	6.752284E-03	2.593578E-04
4.318675E+03	6.811226E-03	2.611830E-04
4.328535E+03	6.870178E-03	2.630006E-04
4.338395E+03	6.929726E-03	2.648332E-04
4.348255E+03	6.990075E-03	2.666885E-04
4.358115E+03	7.051421E-03	2.685738E-04
4.367975E+03	7.113542E-03	2.704804E-04
4.377835E+03	7.176558E-03	2.724128E-04
4.387695E+03	7.241289E-03	2.744020E-04
4.397555E+03	7.307051E-03	2.764217E-04
4.407415E+03	7.373852E-03	2.784721E-04
4.417275E+03	7.442036E-03	2.805660E-04
4.427135E+03	7.511169E-03	2.826867E-04
4.436995E+03	7.581519E-03	2.848443E-04
4.446855E+03	7.652564E-03	2.870189E-04
4.456715E+03	7.724493E-03	2.892176E-04
4.466575E+03	7.796696E-03	2.914172E-04
4.476435E+03	7.869292E-03	2.936223E-04
4.486295E+03	7.941591E-03	2.958070E-04
4.496155E+03	8.013254E-03	2.979589E-04
4.506015E+03	8.083903E-03	3.000639E-04
4.515875E+03	8.153541E-03	3.021225E-04
4.525735E+03	8.221744E-03	3.041191E-04
4.535595E+03	8.287309E-03	3.060096E-04
4.545455E+03	8.350581E-03	3.078073E-04
4.555315E+03	8.410733E-03	3.094822E-04
4.565175E+03	8.467736E-03	3.110337E-04
4.575035E+03	8.520782E-03	3.124330E-04
4.584894E+03	8.569101E-03	3.136526E-04
4.594754E+03	8.613537E-03	3.147242E-04
4.604614E+03	8.652596E-03	3.155942E-04
4.614474E+03	8.686825E-03	3.162835E-04
4.624334E+03	8.715242E-03	3.167573E-04
4.634194E+03	8.738515E-03	3.170411E-04
4.644054E+03	8.756198E-03	3.171197E-04
4.653914E+03	8.768313E-03	3.169949E-04
4.663774E+03	8.775367E-03	3.166862E-04
4.673634E+03	8.776743E-03	3.161723E-04
4.683494E+03	8.773495E-03	3.154923E-04
4.693354E+03	8.765574E-03	3.146453E-04
4.703214E+03	8.753388E-03	3.136467E-04
4.713074E+03	8.737038E-03	3.125012E-04
4.722934E+03	8.718228E-03	3.112702E-04
4.732794E+03	8.696395E-03	3.099343E-04
4.742654E+03	8.672580E-03	3.085311E-04
4.752514E+03	8.647453E-03	3.070847E-04
4.762374E+03	8.622096E-03	3.056339E-04
4.772234E+03	8.596471E-03	3.041772E-04
4.782094E+03	8.571671E-03	3.027534E-04
4.791954E+03	8.548772E-03	3.014003E-04
4.801814E+03	8.528084E-03	3.001285E-04
4.811674E+03	8.509893E-03	2.989475E-04
4.821534E+03	8.495538E-03	2.979039E-04
4.831394E+03	8.485216E-03	2.970039E-04
4.841254E+03	8.479059E-03	2.962514E-04
4.851114E+03	8.478233E-03	2.956862E-04
4.860974E+03	8.482740E-03	2.953075E-04
4.870834E+03	8.492868E-03	2.951242E-04
4.880694E+03	8.508840E-03	2.951431E-04
4.890554E+03	8.530789E-03	2.953677E-04
4.900414E+03	8.558792E-03	2.957996E-04
4.910274E+03	8.592835E-03	2.964371E-04
4.920134E+03	8.632842E-03	2.972767E-04
4.929994E+03	8.678680E-03	2.983126E-04
4.939854E+03	8.730148E-03	2.995369E-04
4.949714E+03	8.787009E-03	3.009404E-04
4.959574E+03	8.848971E-03	3.025124E-04
4.969434E+03	8.916085E-03	3.042536E-04
4.979294E+03	8.987282E-03	3.061266E-04
4.989154E+03	9.062577E-03	3.081315E-04
4.999014E+03	9.141621E-03	3.102554E-04
5.008874E+03	9.224445E-03	3.124991E-04
5.018734E+03	9.309968E-03	3.148252E-04
5.028594E+03	9.398641E-03	3.172486E-04
5.038454E+03	9.489431E-03	3.197340E-04
5.048314E+03	9.582862E-03	3.222987E-04
5.058174E+03	9.677953E-03	3.249094E-04
5.068034E+03	9.775325E-03	3.275867E-04
5.077894E+03	9.874461E-03	3.303131E-04
5.087754E+03	9.975267E-03	3.330852E-04
5.097614E+03	1.007769E-02	3.359008E-04
5.107474E+03	1.018170E-02	3.387592E-04
5.117334E+03	1.028729E-02	3.416597E-04
5.127194E+03	1.039448E-02	3.446028E-04
5.137054E+03	1.050328E-02	3.475890E-04
5.146914E+03	1.061414E-02	3.506328E-04
5.156774E+03	1.072625E-02	3.537070E-04
5.166634E+03	1.084046E-02	3.568397E-04
5.176494E+03	1.095589E-02	3.600023E-04
5.186354E+03	1.107338E-02	3.632214E-04
5.196214E+03	1.119241E-02	3.664806E-04
5.206074E+03	1.131287E-02	3.697757E-04
5.215934E+03	1.143459E-02	3.731013E-04
5.225794E+03	1.155781E-02	3.764651E-04
5.235654E+03	1.168134E-02	3.798285E-04
5.245514E+03	1.180575E-02	3.832101E-04
5.255374E+03	1.192971E-02	3.865664E-04
5.265234E+03	1.205364E-02	3.899120E-04
5.275094E+03	1.217652E-02	3.932139E-04
5.284954E+03	1.229819E-02	3.964670E-04
5.294814E+03	1.241694E-02	3.996172E-04
5.304674E+03	1.253293E-02	4.026700E-04
5.314534E+03	1.264428E-02	4.055661E-04
5.324394E+03	1.275099E-02	4.083061E-04
5.334254E+03	1.285200E-02	4.108575E-04
5.344114E+03	1.294519E-02	4.131533E-04
5.353974E+03	1.303035E-02	4.151888E-04
5.363834E+03	1.310522E-02	4.168930E-04
5.373694E+03	1.317002E-02	4.182753E-04
5.383554E+03	1.322191E-02	4.192469E-04
5.393414E+03	1.326009E-02	4.197850E-04
5.403274E+03	1.328384E-02	4.198690E-04
5.413134E+03	1.329165E-02	4.194533E-04
5.422993E+03	1.328341E-02	4.185375E-04
5.432853E+03	1.325803E-02	4.170893E-04
5.442713E+03	1.321687E-02	4.151540E-04
5.452573E+03	1.315997E-02	4.127350E-04
5.462433E+03	1.308853E-02	4.098720E-04
5.472293E+03	1.300231E-02	4.065596E-04
5.482153E+03	1.290368E-02	4.028740E-04
5.492013E+03	1.279209E-02	3.987993E-04
5.501873E+03	1.266954E-02	3.943994E-04
5.511733E+03	1.253662E-02	3.896940E-04
5.521593E+03	1.239447E-02	3.847200E-04
5.531453E+03	1.224478E-02	3.795304E-04
5.541313E+03	1.208831E-02	3.741499E-04
5.551173E+03	1.192635E-02	3.686190E-04
5.561033E+03	1.176069E-02	3.629933E-04
5.570893E+03	1.159221E-02	3.573001E-04
5.580753E+03	1.142268E-02	3.515943E-04
5.590613E+03	1.125300E-02	3.459033E-04
5.600473E+03	1.108448E-02	3.402670E-04
5.610333E+03	1.091881E-02	3.347370E-04
5.620193E+03	1.075719E-02	3.293499E-04
5.630053E+03	1.059996E-02	3.241145E-04
5.639913E+03	1.044902E-02	3.190886E-04
5.649773E+03	1.030534E-02	3.143010E-04
5.659633E+03	1.016942E-02	3.097656E-04
5.669493E+03	1.004205E-02	3.055054E-04
5.679353E+03	9.924303E-03	3.015520E-04
5.689213E+03	9.816736E-03	2.979211E-04
5.699073E+03	9.719042E-03	2.946020E-04
5.708933E+03	9.632694E-03	2.916381E-04
5.718793E+03	9.557152E-03	2.890119E-04
5.728653E+03	9.492533E-03	2.867256E-04
5.738513E+03	9.439199E-03	2.847889E-04
5.748373E+03	9.396665E-03	2.831859E-04
5.758233E+03	9.365082E-03	2.819202E-04
5.768093E+03	9.344134E-03	2.809810E-04
5.777953E+03	9.333047E-03	2.803440E-04
5.787813E+03	9.331330E-03	2.799937E-04
5.797673E+03	9.338784E-03	2.799231E-04
5.807533E+03	9.354763E-03	2.801120E-04
5.817393E+03	9.378207E-03	2.805281E-04
5.827253E+03	9.408738E-03	2.811594E-04
5.837113E+03	9.445577E-03	2.819822E-04
5.846973E+03	9.487542E-03	2.829607E-04
5.856833E+03	9.533811E-03	2.840701E-04
5.866693E+03	9.584300E-03	2.853075E-04
5.876553E+03	9.637458E-03	2.866268E-04
5.886413E+03	9.692486E-03	2.880040E-04
5.896273E+03	9.749003E-03	2.894278E-04
5.906133E+03	9.806292E-03	2.908770E-04
5.915993E+03	9.863701E-03	2.923323E-04
5.925853E+03	9.920242E-03	2.937647E-04
5.935713E+03	9.975375E-03	2.951583E-04
5.945573E+03	1.002940E-02	2.965223E-04
5.955433E+03	1.008116E-02	2.978225E-04
5.965293E+03	1.013070E-02	2.990609E-04
5.975153E+03	1.017736E-02	3.002183E-04
5.985013E+03	1.022136E-02	3.013011E-04
5.994873E+03	1.026255E-02	3.023054E-04
6.004733E+03	1.030084E-02	3.032290E-04
6.014593E+03	1.033577E-02	3.040589E-04
6.024453E+03	1.036776E-02	3.048069E-04
6.034313E+03	1.039679E-02	3.054737E-04
6.044173E+03	1.042250E-02	3.060483E-04
6.054033E+03	1.044534E-02	3.065442E-04
6.063893E+03	1.046532E-02	3.069625E-04
6.073753E+03	1.048248E-02	3.073043E-04
6.083613E+03	1.049683E-02	3.075699E-04
6.093473E+03	1.050793E-02	3.077469E-04
6.103333E+03	1.051614E-02	3.078460E-04
6.113193E+03	1.052136E-02	3.078640E-04
6.123053E+03	1.052302E-02	3.077843E-04
6.132913E+03	1.052173E-02	3.076250E-04
6.142773E+03	1.051636E-02	3.073530E-04
6.152633E+03	1.050708E-02	3.069730E-04
6.162493E+03	1.049373E-02	3.064809E-04
6.172353E+03	1.047597E-02	3.058659E-04
6.182213E+03	1.045471E-02	3.051554E-04
6.192073E+03	1.042922E-02	3.043276E-04
6.201933E+03	1.039993E-02	3.033954E-04
6.211793E+03	1.036685E-02	3.023586E-04
6.221653E+03	1.032997E-02	3.012169E-04
6.231513E+03	1.028926E-02	2.999694E-04
6.241373E+03	1.024428E-02	2.986033E-04
6.251232E+03	1.019545E-02	2.971307E-04
6.261092E+03	1.014318E-02	2.955634E-04
6.270952E+03	1.008669E-02	2.938785E-04
6.280812E+03	1.002643E-02	2.920890E-04
6.290672E+03	9.962472E-03	2.901971E-04
6.300532E+03	9.894913E-03	2.882052E-04
6.310392E+03	9.823479E-03	2.861053E-04
6.320252E+03	9.749100E-03	2.839243E-04
6.330112E+03	9.671139E-03	2.816435E-04
6.339972E+03	9.590561E-03	2.792908E-04
6.349832E+03	9.506776E-03	2.768489E-04
6.359692E+03	9.420757E-03	2.743459E-04
6.369552E+03	9.331953E-03	2.717656E-04
6.379412E+03	9.240965E-03	2.691254E-04
6.389272E+03	9.148018E-03	2.664316E-04
6.399132E+03	9.053345E-03	2.636908E-04
6.408992E+03	8.957168E-03	2.609093E-04
6.418852E+03	8.859708E-03	2.580933E-04
6.428712E+03	8.761194E-03	2.552494E-04
6.438572E+03	8.661834E-03	2.523835E-04
6.448432E+03	8.561839E-03	2.495015E-04
6.458292E+03	8.461400E-03	2.466088E-04
6.468152E+03	8.360715E-03	2.437111E-04
6.478012E+03	8.259951E-03	2.408130E-04
6.487872E+03	8.159278E-03	2.379194E-04
6.497732E+03	8.058847E-03	2.350346E-04
6.507592E+03	7.958797E-03	2.321624E-04
6.517452E+03	7.859252E-03	2.293063E-04
6.527312E+03	7.760331E-03	2.264698E-04
6.537172E+03	7.662136E-03	2.236556E-04
6.547032E+03	7.564755E-03	2.208662E-04
6.556892E+03	7.468273E-03	2.181040E-04
6.566752E+03	7.372765E-03	2.153711E-04
6.576612E+03	7.278298E-03	2.126695E-04
6.586472E+03	7.184944E-03	2.100009E-04
6.596332E+03	7.092766E-03	2.073674E-04
6.606192E+03	7.001827E-03	2.047705E-04
6.616052E+03	6.912481E-03	2.022207E-04
6.625912E+03	6.824233E-03	1.997034E-04
6.635772E+03	6.737449E-03	1.972292E-04
6.645632E+03	6.652495E-03	1.948088E-04
6.655492E+03	6.568924E-03	1.924291E-04
6.665352E+03	6.487386E-03	1.901091E-04
6.675212E+03	6.407476E-03	1.878369E-04
6.685072E+03	6.329858E-03	1.856320E-04
6.694932E+03	6.254406E-03	1.834907E-04
6.704792E+03	6.181289E-03	1.814179E-04
6.714652E+03	6.110403E-03	1.794106E-04
6.724512E+03	6.042448E-03	1.774894E-04
6.734372E+03	5.977337E-03	1.756517E-04
6.744232E+03	5.915501E-03	1.739104E-04
6.754092E+03	5.856629E-03	1.722563E-04
6.763952E+03	5.801144E-03	1.707020E-04
6.773812E+03	5.749230E-03	1.692530E-04
6.783672E+03	5.701292E-03	1.679212E-04
6.793532E+03	5.657012E-03	1.666976E-04
6.803392E+03	5.616778E-03	1.655935E-04
6.813252E+03	5.580963E-03	1.646202E-04
6.823112E+03	5.549444E-03	1.637743E-04
6.832972E+03	5.522094E-03	1.630522E-04
6.842832E+03	5.499459E-03	1.624701E-04
6.852692E+03	5.481365E-03	1.620232E-04
6.862552E+03	5.467856E-03	1.617129E-04
6.872412E+03	5.458943E-03	1.615398E-04
6.882272E+03	5.454618E-03	1.615040E-04
6.892132E+03	5.454854E-03	1.616049E-04
6.901992E+03	5.459594E-03	1.618409E-04
6.911852E+03	5.468763E-03	1.622103E-04
6.921712E+03	5.482260E-03	1.627102E-04
6.931572E+03	5.500208E-03	1.633445E-04
6.941432E+03	5.522000E-03	1.640956E-04
6.951292E+03	5.547710E-03	1.649659E-04
6.961152E+03	5.577423E-03	1.659581E-04
6.971012E+03	5.610473E-03	1.670528E-04
6.980872E+03	5.646923E-03	1.682521E-04
6.990732E+03	5.686824E-03	1.695577E-04
7.000592E+03	5.729497E-03	1.709498E-04
7.010452E+03	5.775249E-03	1.724377E-04
7.020312E+03	5.823391E-03	1.740011E-04
7.030172E+03	5.874257E-03	1.756503E-04
7.040032E+03	5.927159E-03	1.773649E-04
7.049892E+03	5.982192E-03	1.791480E-04
7.059752E+03	6.039476E-03	1.810035E-04
7.069612E+03	6.098346E-03	1.829116E-04
7.079472E+03	6.159209E-03	1.848849E-04
7.089331E+03	6.221423E-03	1.869043E-04
7.099191E+03	6.285139E-03	1.889746E-04
7.109051E+03	6.350274E-03	1.910934E-04
7.118911E+03	6.417015E-03	1.932667E-04
7.128771E+03	6.484719E-03	1.954754E-04
7.138631E+03	6.553580E-03	1.977255E-04
7.148491E+03	6.623520E-03	2.000148E-04
7.158351E+03	6.694443E-03	2.023408E-04
7.168211E+03	6.766254E-03	2.047008E-04
7.178071E+03	6.838555E-03	2.070830E-04
7.187931E+03	6.911820E-03	2.095019E-04
7.197791E+03	6.985634E-03	2.119452E-04
7.207651E+03	7.059536E-03	2.143991E-04
7.217511E+03	7.133684E-03	2.168687E-04
7.227371E+03	7.207906E-03	2.193488E-04
7.237231E+03	7.282338E-03	2.218438E-04
7.247091E+03	7.356142E-03	2.243284E-04
7.256951E+03	7.429105E-03	2.267961E-04
7.266811E+03	7.501658E-03	2.292603E-04
7.276671E+03	7.573246E-03	2.317041E-04
7.286531E+03	7.643288E-03	2.341098E-04
7.296391E+03	7.711882E-03	2.364805E-04
7.306251E+03	7.778770E-03	2.388083E-04
7.316111E+03	7.843710E-03	2.410858E-04
7.325971E+03	7.906448E-03	2.433050E-04
7.335831E+03	7.966386E-03	2.454476E-04
7.345691E+03	8.023623E-03	2.475165E-04
7.355551E+03	8.077920E-03	2.495041E-04
7.365411E+03	8.129049E-03	2.514033E-04
7.375271E+03	8.176776E-03	2.532066E-04
7.385131E+03	8.220525E-03	2.548959E-04
7.394991E+03	8.260440E-03	2.564754E-04
7.404851E+03	8.296336E-03	2.579389E-04
7.414711E+03	8.328034E-03	2.592807E-04
7.424571E+03	8.354975E-03	2.604828E-04
7.434431E+03	8.377393E-03	2.615521E-04
7.444291E+03	8.395142E-03	2.624836E-04
7.454151E+03	8.408094E-03	2.632727E-04
7.464011E+03	8.415747E-03	2.639030E-04
7.473871E+03	8.418762E-03	2.643946E-04
7.483731E+03	8.415860E-03	2.647064E-04
7.493591E+03	8.408069E-03	2.648699E-04
7.503451E+03	8.394540E-03	2.648575E-04
7.513311E+03	8.375704E-03	2.646817E-04
7.523171E+03	8.351834E-03	2.643503E-04
7.533031E+03	8.322961E-03	2.638634E-04
7.542891E+03	8.289903E-03	2.632461E-04
7.552751E+03	8.253075E-03	2.625106E-04
7.562611E+03	8.212465E-03	2.616559E-04
7.572471E+03	8.168787E-03	2.607039E-04
7.582331E+03	8.122338E-03	2.596636E-04
7.592191E+03	8.073018E-03	2.585310E-04
7.602051E+03	8.021790E-03	2.573364E-04
7.611911E+03	7.967737E-03	2.560498E-04
7.621771E+03	7.912125E-03	2.547113E-04
7.631631E+03	7.854336E-03	2.533006E-04
7.641491E+03	7.794452E-03	2.518197E-04
7.651351E+03	7.733237E-03	2.502928E-04
