#wls	flux	fluxerr
1.576355E+03	6.437696E-04	2.264087E-05
1.615764E+03	6.747141E-04	2.359902E-05
1.655172E+03	7.041400E-04	2.448928E-05
1.694581E+03	7.315877E-04	2.529621E-05
1.733990E+03	7.566622E-04	2.600701E-05
1.773399E+03	7.777944E-04	2.656915E-05
1.812808E+03	7.934325E-04	2.693209E-05
1.852217E+03	8.014512E-04	2.702746E-05
1.891626E+03	7.999021E-04	2.679485E-05
1.931034E+03	7.874393E-04	2.619593E-05
1.970443E+03	7.650300E-04	2.527033E-05
2.009852E+03	7.374802E-04	2.418296E-05
2.049261E+03	7.142532E-04	2.324590E-05
2.088670E+03	7.082592E-04	2.287321E-05
2.128079E+03	7.318185E-04	2.344670E-05
2.167488E+03	7.926787E-04	2.518946E-05
2.206897E+03	8.927301E-04	2.813081E-05
2.246305E+03	1.029258E-03	3.215291E-05
2.285714E+03	1.196813E-03	3.705506E-05
2.325123E+03	1.390095E-03	4.264599E-05
2.364532E+03	1.604997E-03	4.877583E-05
2.403941E+03	1.839311E-03	5.535578E-05
2.443350E+03	2.092399E-03	6.234574E-05
2.482759E+03	2.364739E-03	6.973862E-05
2.522167E+03	2.657789E-03	7.755473E-05
2.561576E+03	2.973430E-03	8.582405E-05
2.600985E+03	3.313212E-03	9.456396E-05
2.640394E+03	3.679432E-03	1.038103E-04
2.679803E+03	4.073540E-03	1.135711E-04
2.719212E+03	4.496764E-03	1.238459E-04
2.758621E+03	4.949394E-03	1.346059E-04
2.798030E+03	5.431747E-03	1.458217E-04
2.837438E+03	5.943239E-03	1.574389E-04
2.876847E+03	6.483433E-03	1.694070E-04
2.916256E+03	7.051685E-03	1.816697E-04
2.955665E+03	7.646423E-03	1.941479E-04
2.965517E+03	7.798912E-03	1.972882E-04
2.975369E+03	7.952712E-03	2.004303E-04
2.985222E+03	8.107899E-03	2.035757E-04
2.995074E+03	8.264515E-03	2.067249E-04
3.004926E+03	8.423388E-03	2.098979E-04
3.014778E+03	8.585166E-03	2.131102E-04
3.024631E+03	8.749461E-03	2.163510E-04
3.034483E+03	8.916117E-03	2.196158E-04
3.044335E+03	9.084738E-03	2.228940E-04
3.054187E+03	9.255398E-03	2.261866E-04
3.064039E+03	9.427210E-03	2.294714E-04
3.073892E+03	9.600477E-03	2.327553E-04
3.083744E+03	9.774298E-03	2.360159E-04
3.093596E+03	9.948958E-03	2.392598E-04
3.103448E+03	1.012354E-02	2.424647E-04
3.113300E+03	1.029809E-02	2.456313E-04
3.123153E+03	1.047237E-02	2.487544E-04
3.133005E+03	1.064570E-02	2.518174E-04
3.142857E+03	1.081809E-02	2.548208E-04
3.152709E+03	1.098882E-02	2.577480E-04
3.162562E+03	1.115766E-02	2.605938E-04
3.172414E+03	1.132435E-02	2.633530E-04
3.182266E+03	1.148843E-02	2.660150E-04
3.192118E+03	1.164963E-02	2.685748E-04
3.201970E+03	1.180749E-02	2.710219E-04
3.211823E+03	1.196151E-02	2.733466E-04
3.221675E+03	1.211146E-02	2.755444E-04
3.231527E+03	1.225689E-02	2.776061E-04
3.241379E+03	1.239735E-02	2.795230E-04
3.251232E+03	1.253264E-02	2.812922E-04
3.261084E+03	1.266235E-02	2.829061E-04
3.270936E+03	1.278634E-02	2.843629E-04
3.280788E+03	1.290380E-02	2.856470E-04
3.290640E+03	1.301489E-02	2.867631E-04
3.300493E+03	1.311887E-02	2.876979E-04
3.310345E+03	1.321620E-02	2.884628E-04
3.320197E+03	1.330603E-02	2.890418E-04
3.330049E+03	1.338824E-02	2.894346E-04
3.339901E+03	1.346316E-02	2.896505E-04
3.349754E+03	1.353010E-02	2.896773E-04
3.359606E+03	1.358905E-02	2.895174E-04
3.369458E+03	1.364006E-02	2.891740E-04
3.379310E+03	1.368300E-02	2.886472E-04
3.389163E+03	1.371783E-02	2.879386E-04
3.399015E+03	1.374440E-02	2.870479E-04
3.408867E+03	1.376310E-02	2.859856E-04
3.418719E+03	1.377388E-02	2.847534E-04
3.428571E+03	1.377763E-02	2.833723E-04
3.438424E+03	1.377438E-02	2.818451E-04
3.448276E+03	1.376548E-02	2.802015E-04
3.458128E+03	1.375163E-02	2.784575E-04
3.467980E+03	1.373413E-02	2.766415E-04
3.477833E+03	1.371440E-02	2.747825E-04
3.487685E+03	1.369435E-02	2.729200E-04
3.497537E+03	1.367545E-02	2.710831E-04
3.507389E+03	1.365977E-02	2.693122E-04
3.517241E+03	1.364928E-02	2.676451E-04
3.527094E+03	1.364605E-02	2.661208E-04
3.536946E+03	1.365176E-02	2.647694E-04
3.546798E+03	1.366691E-02	2.635978E-04
3.556650E+03	1.368897E-02	2.625546E-04
3.566502E+03	1.371510E-02	2.615836E-04
3.576355E+03	1.374246E-02	2.606296E-04
3.586207E+03	1.376813E-02	2.596372E-04
3.596059E+03	1.378951E-02	2.585583E-04
3.605911E+03	1.380438E-02	2.573530E-04
3.615764E+03	1.381071E-02	2.559856E-04
3.625616E+03	1.380724E-02	2.544360E-04
3.635468E+03	1.379252E-02	2.526807E-04
3.645320E+03	1.376646E-02	2.507221E-04
3.655172E+03	1.372914E-02	2.485651E-04
3.665025E+03	1.368183E-02	2.462362E-04
3.674877E+03	1.362655E-02	2.437750E-04
3.684729E+03	1.356611E-02	2.412343E-04
3.694581E+03	1.350447E-02	2.386856E-04
3.704433E+03	1.344618E-02	2.362094E-04
3.714286E+03	1.339646E-02	2.338960E-04
3.724138E+03	1.336069E-02	2.318359E-04
3.733990E+03	1.334440E-02	2.301202E-04
3.743842E+03	1.335282E-02	2.288323E-04
3.753695E+03	1.339105E-02	2.280511E-04
3.763547E+03	1.346346E-02	2.278414E-04
3.773399E+03	1.357400E-02	2.282587E-04
3.783251E+03	1.372603E-02	2.293468E-04
3.793103E+03	1.392196E-02	2.311329E-04
3.802956E+03	1.416408E-02	2.336407E-04
3.812808E+03	1.445310E-02	2.368674E-04
3.822660E+03	1.478908E-02	2.407994E-04
3.832512E+03	1.517124E-02	2.454090E-04
3.842365E+03	1.559682E-02	2.506379E-04
3.852217E+03	1.606231E-02	2.564165E-04
3.862069E+03	1.656216E-02	2.626446E-04
3.871921E+03	1.708950E-02	2.692035E-04
3.881773E+03	1.763599E-02	2.759547E-04
3.891626E+03	1.819150E-02	2.827354E-04
3.901478E+03	1.874483E-02	2.893702E-04
3.911330E+03	1.928394E-02	2.956761E-04
3.921182E+03	1.979596E-02	3.014624E-04
3.931034E+03	2.026880E-02	3.065553E-04
3.940887E+03	2.069042E-02	3.107869E-04
3.950739E+03	2.105091E-02	3.140262E-04
3.960591E+03	2.134233E-02	3.161752E-04
3.970443E+03	2.155948E-02	3.171793E-04
3.980296E+03	2.170051E-02	3.170351E-04
3.990148E+03	2.176637E-02	3.157804E-04
4.000000E+03	2.176125E-02	3.134987E-04
4.009852E+03	2.169151E-02	3.103033E-04
4.019704E+03	2.156538E-02	3.063308E-04
4.029557E+03	2.139160E-02	3.017219E-04
4.039409E+03	2.117963E-02	2.966236E-04
4.049261E+03	2.093858E-02	2.911739E-04
4.059113E+03	2.067717E-02	2.855022E-04
4.068966E+03	2.040358E-02	2.797266E-04
4.078818E+03	2.012536E-02	2.739533E-04
4.088670E+03	1.984936E-02	2.682763E-04
4.098522E+03	1.958190E-02	2.627798E-04
4.108374E+03	1.932825E-02	2.575315E-04
4.118227E+03	1.909331E-02	2.525922E-04
4.128079E+03	1.888096E-02	2.480075E-04
4.137931E+03	1.869488E-02	2.438192E-04
4.147783E+03	1.853742E-02	2.400505E-04
4.157635E+03	1.841097E-02	2.367241E-04
4.167488E+03	1.831641E-02	2.338429E-04
4.177340E+03	1.825421E-02	2.314046E-04
4.187192E+03	1.822414E-02	2.293980E-04
4.197044E+03	1.822468E-02	2.277957E-04
4.206897E+03	1.825363E-02	2.265629E-04
4.216749E+03	1.830799E-02	2.256560E-04
4.226601E+03	1.838355E-02	2.250173E-04
4.236453E+03	1.847498E-02	2.245775E-04
4.246305E+03	1.857582E-02	2.242556E-04
4.256158E+03	1.867853E-02	2.239596E-04
4.266010E+03	1.877405E-02	2.235819E-04
4.275862E+03	1.885279E-02	2.230120E-04
4.285714E+03	1.890392E-02	2.221274E-04
4.295567E+03	1.891705E-02	2.208142E-04
4.305419E+03	1.888096E-02	2.189516E-04
4.315271E+03	1.878630E-02	2.164431E-04
4.325123E+03	1.862650E-02	2.132265E-04
4.334975E+03	1.840989E-02	2.094102E-04
4.344828E+03	1.815880E-02	2.052583E-04
4.354680E+03	1.789504E-02	2.010222E-04
4.364532E+03	1.763946E-02	1.969365E-04
4.374384E+03	1.741027E-02	1.932006E-04
4.384236E+03	1.722279E-02	1.899775E-04
4.394089E+03	1.708906E-02	1.873899E-04
4.403941E+03	1.701818E-02	1.855263E-04
4.413793E+03	1.701653E-02	1.844436E-04
4.423645E+03	1.708761E-02	1.841664E-04
4.433498E+03	1.723259E-02	1.846944E-04
4.443350E+03	1.745027E-02	1.860021E-04
4.453202E+03	1.773741E-02	1.880431E-04
4.463054E+03	1.808791E-02	1.907423E-04
4.472906E+03	1.849349E-02	1.940036E-04
4.482759E+03	1.894321E-02	1.977056E-04
4.492611E+03	1.942377E-02	2.017046E-04
4.502463E+03	1.991940E-02	2.058350E-04
4.512315E+03	2.041257E-02	2.099161E-04
4.522167E+03	2.088439E-02	2.137570E-04
4.532020E+03	2.131585E-02	2.171693E-04
4.541872E+03	2.168883E-02	2.199765E-04
4.551724E+03	2.198784E-02	2.220319E-04
4.561576E+03	2.220038E-02	2.232212E-04
4.571429E+03	2.231965E-02	2.234882E-04
4.581281E+03	2.234364E-02	2.228253E-04
4.591133E+03	2.227673E-02	2.212879E-04
4.600985E+03	2.212815E-02	2.189776E-04
4.610837E+03	2.191248E-02	2.160472E-04
4.620690E+03	2.164662E-02	2.126691E-04
4.630542E+03	2.134952E-02	2.090333E-04
4.640394E+03	2.103946E-02	2.053202E-04
4.650246E+03	2.073296E-02	2.016905E-04
4.660099E+03	2.044010E-02	1.982405E-04
4.669951E+03	2.016093E-02	1.949684E-04
4.679803E+03	1.989282E-02	1.918459E-04
4.689655E+03	1.963226E-02	1.888364E-04
4.699507E+03	1.937543E-02	1.859011E-04
4.709360E+03	1.911972E-02	1.830130E-04
4.719212E+03	1.886356E-02	1.801551E-04
4.729064E+03	1.860712E-02	1.773278E-04
4.738916E+03	1.835217E-02	1.745460E-04
4.748768E+03	1.810183E-02	1.718379E-04
4.758621E+03	1.786053E-02	1.692437E-04
4.768473E+03	1.763323E-02	1.668085E-04
4.778325E+03	1.742564E-02	1.645841E-04
4.788177E+03	1.724379E-02	1.626253E-04
4.798030E+03	1.709395E-02	1.609890E-04
4.807882E+03	1.698187E-02	1.597270E-04
4.817734E+03	1.691313E-02	1.588894E-04
4.827586E+03	1.689214E-02	1.585156E-04
4.837438E+03	1.692235E-02	1.586355E-04
4.847291E+03	1.700581E-02	1.592668E-04
4.857143E+03	1.714267E-02	1.604088E-04
4.866995E+03	1.733099E-02	1.620420E-04
4.876847E+03	1.756657E-02	1.641260E-04
4.886700E+03	1.784292E-02	1.665991E-04
4.896552E+03	1.815105E-02	1.693767E-04
4.906404E+03	1.848040E-02	1.723600E-04
4.916256E+03	1.881839E-02	1.754315E-04
4.926108E+03	1.915101E-02	1.784607E-04
4.935961E+03	1.946449E-02	1.813195E-04
4.945813E+03	1.974580E-02	1.838869E-04
4.955665E+03	1.998346E-02	1.860561E-04
4.965517E+03	2.016823E-02	1.877416E-04
4.975369E+03	2.029504E-02	1.888962E-04
4.985222E+03	2.036210E-02	1.895035E-04
4.995074E+03	2.037196E-02	1.895869E-04
5.004926E+03	2.033044E-02	1.892005E-04
5.014778E+03	2.024661E-02	1.884284E-04
5.024631E+03	2.013191E-02	1.873766E-04
5.034483E+03	1.999835E-02	1.861565E-04
5.044335E+03	1.985884E-02	1.848880E-04
5.054187E+03	1.972495E-02	1.836784E-04
5.064039E+03	1.960699E-02	1.826233E-04
5.073892E+03	1.951332E-02	1.818007E-04
5.083744E+03	1.945001E-02	1.812671E-04
5.093596E+03	1.942161E-02	1.810650E-04
5.103448E+03	1.943001E-02	1.812123E-04
5.113300E+03	1.947605E-02	1.817171E-04
5.123153E+03	1.955891E-02	1.825722E-04
5.133005E+03	1.967697E-02	1.837631E-04
5.142857E+03	1.982813E-02	1.852709E-04
5.152709E+03	2.000948E-02	1.870687E-04
5.162562E+03	2.021793E-02	1.891285E-04
5.172414E+03	2.045012E-02	1.914196E-04
5.182266E+03	2.070232E-02	1.939076E-04
5.192118E+03	2.097006E-02	1.965517E-04
5.201970E+03	2.124866E-02	1.993083E-04
5.211823E+03	2.153220E-02	2.021226E-04
5.221675E+03	2.181407E-02	2.049331E-04
5.231527E+03	2.208701E-02	2.076720E-04
5.241379E+03	2.234241E-02	2.102586E-04
5.251232E+03	2.257193E-02	2.126141E-04
5.261084E+03	2.276666E-02	2.146547E-04
5.270936E+03	2.291871E-02	2.163051E-04
5.280788E+03	2.302091E-02	2.174970E-04
5.290640E+03	2.306732E-02	2.181729E-04
5.300493E+03	2.305475E-02	2.183009E-04
5.310345E+03	2.298243E-02	2.178711E-04
5.320197E+03	2.285236E-02	2.169000E-04
5.330049E+03	2.266964E-02	2.154330E-04
5.339901E+03	2.244315E-02	2.135523E-04
5.349754E+03	2.218360E-02	2.113575E-04
5.359606E+03	2.190506E-02	2.089806E-04
5.369458E+03	2.162287E-02	2.065670E-04
5.379310E+03	2.135385E-02	2.042766E-04
5.389163E+03	2.111480E-02	2.022704E-04
5.399015E+03	2.092123E-02	2.006975E-04
5.408867E+03	2.078604E-02	1.996831E-04
5.418719E+03	2.071520E-02	1.992867E-04
5.428571E+03	2.070018E-02	1.994284E-04
5.438424E+03	2.072785E-02	1.999833E-04
5.448276E+03	2.078302E-02	2.008059E-04
5.458128E+03	2.085053E-02	2.017505E-04
5.467980E+03	2.091529E-02	2.026710E-04
5.477833E+03	2.096378E-02	2.034358E-04
5.487685E+03	2.098483E-02	2.039351E-04
5.497537E+03	2.096978E-02	2.040834E-04
5.507389E+03	2.091178E-02	2.038120E-04
5.517241E+03	2.080614E-02	2.030731E-04
5.527094E+03	2.064976E-02	2.018343E-04
5.536946E+03	2.044091E-02	2.000761E-04
5.546798E+03	2.017901E-02	1.977906E-04
5.556650E+03	1.986480E-02	1.949827E-04
5.566502E+03	1.950052E-02	1.916721E-04
5.576355E+03	1.909010E-02	1.878957E-04
5.586207E+03	1.864016E-02	1.837164E-04
5.596059E+03	1.815930E-02	1.792180E-04
5.605911E+03	1.765894E-02	1.745118E-04
5.615764E+03	1.715226E-02	1.697279E-04
5.625616E+03	1.665363E-02	1.650083E-04
5.635468E+03	1.617833E-02	1.605053E-04
5.645320E+03	1.574117E-02	1.563668E-04
5.655172E+03	1.535568E-02	1.527292E-04
5.665025E+03	1.503407E-02	1.497161E-04
5.674877E+03	1.478628E-02	1.474291E-04
5.684729E+03	1.461980E-02	1.459458E-04
5.694581E+03	1.454007E-02	1.453237E-04
5.704433E+03	1.455021E-02	1.455971E-04
5.714286E+03	1.465052E-02	1.467723E-04
5.724138E+03	1.483955E-02	1.488379E-04
5.733990E+03	1.511347E-02	1.517586E-04
5.743842E+03	1.546572E-02	1.554715E-04
5.753695E+03	1.588740E-02	1.598896E-04
5.763547E+03	1.636724E-02	1.649015E-04
5.773399E+03	1.689136E-02	1.703696E-04
5.783251E+03	1.744381E-02	1.761341E-04
5.793103E+03	1.800706E-02	1.820188E-04
5.802956E+03	1.856285E-02	1.878394E-04
5.812808E+03	1.909331E-02	1.934148E-04
5.822660E+03	1.958160E-02	1.985737E-04
5.832512E+03	2.001278E-02	2.031632E-04
5.842365E+03	2.037556E-02	2.070668E-04
5.852217E+03	2.066137E-02	2.101957E-04
5.862069E+03	2.086602E-02	2.125049E-04
5.871921E+03	2.098789E-02	2.139756E-04
5.881773E+03	2.102955E-02	2.146317E-04
5.891626E+03	2.099578E-02	2.145195E-04
5.901478E+03	2.089339E-02	2.137069E-04
5.911330E+03	2.073090E-02	2.122790E-04
5.921182E+03	2.051740E-02	2.103273E-04
5.931034E+03	2.026255E-02	2.079494E-04
5.940887E+03	1.997559E-02	2.052392E-04
5.950739E+03	1.966530E-02	2.022859E-04
5.960591E+03	1.934015E-02	1.991764E-04
5.970443E+03	1.900716E-02	1.959825E-04
5.980296E+03	1.867229E-02	1.927657E-04
5.990148E+03	1.834062E-02	1.895786E-04
6.000000E+03	1.801611E-02	1.864622E-04
6.009852E+03	1.770162E-02	1.834468E-04
6.019704E+03	1.739904E-02	1.805523E-04
6.029557E+03	1.710910E-02	1.777870E-04
6.039409E+03	1.683222E-02	1.751556E-04
6.049261E+03	1.656811E-02	1.726560E-04
6.059113E+03	1.631543E-02	1.702747E-04
6.068966E+03	1.607297E-02	1.679995E-04
6.078818E+03	1.583820E-02	1.658046E-04
6.088670E+03	1.560749E-02	1.636521E-04
6.098522E+03	1.537634E-02	1.614951E-04
6.108374E+03	1.514530E-02	1.593387E-04
6.118227E+03	1.492131E-02	1.572551E-04
6.128079E+03	1.471113E-02	1.553154E-04
6.137931E+03	1.451957E-02	1.535707E-04
6.147783E+03	1.435019E-02	1.520591E-04
6.157635E+03	1.420600E-02	1.508132E-04
6.167488E+03	1.408858E-02	1.498511E-04
6.177340E+03	1.399952E-02	1.491904E-04
6.187192E+03	1.393944E-02	1.488393E-04
6.197044E+03	1.390881E-02	1.488042E-04
6.206897E+03	1.390716E-02	1.490813E-04
6.216749E+03	1.393336E-02	1.496602E-04
6.226601E+03	1.398572E-02	1.505241E-04
6.236453E+03	1.406187E-02	1.516486E-04
6.246305E+03	1.415779E-02	1.529917E-04
6.256158E+03	1.426880E-02	1.545035E-04
6.266010E+03	1.438893E-02	1.561200E-04
6.275862E+03	1.451127E-02	1.577663E-04
6.285714E+03	1.462850E-02	1.593625E-04
6.295567E+03	1.473243E-02	1.608184E-04
6.305419E+03	1.481608E-02	1.620566E-04
6.315271E+03	1.487292E-02	1.630038E-04
6.325123E+03	1.489873E-02	1.636114E-04
6.334975E+03	1.489017E-02	1.638404E-04
6.344828E+03	1.484681E-02	1.636837E-04
6.354680E+03	1.476918E-02	1.631443E-04
6.364532E+03	1.466091E-02	1.622601E-04
6.374384E+03	1.452611E-02	1.610744E-04
6.384236E+03	1.437172E-02	1.596624E-04
6.394089E+03	1.420474E-02	1.581009E-04
6.403941E+03	1.403363E-02	1.564829E-04
6.413793E+03	1.386669E-02	1.549009E-04
6.423645E+03	1.371229E-02	1.534489E-04
6.433498E+03	1.357825E-02	1.522150E-04
6.443350E+03	1.347147E-02	1.512778E-04
6.453202E+03	1.339768E-02	1.507035E-04
6.463054E+03	1.336113E-02	1.505414E-04
6.472906E+03	1.336490E-02	1.508284E-04
6.482759E+03	1.341072E-02	1.515861E-04
6.492611E+03	1.349879E-02	1.528188E-04
6.502463E+03	1.362871E-02	1.545238E-04
6.512315E+03	1.379778E-02	1.566725E-04
6.522167E+03	1.400324E-02	1.592350E-04
6.532020E+03	1.424056E-02	1.621614E-04
6.541872E+03	1.450443E-02	1.653918E-04
6.551724E+03	1.478830E-02	1.688526E-04
6.561576E+03	1.508555E-02	1.724683E-04
6.571429E+03	1.538795E-02	1.761450E-04
6.581281E+03	1.568734E-02	1.797887E-04
6.591133E+03	1.597567E-02	1.833067E-04
6.600985E+03	1.624485E-02	1.866050E-04
6.610837E+03	1.648697E-02	1.895915E-04
6.620690E+03	1.669543E-02	1.921888E-04
6.630542E+03	1.686407E-02	1.943244E-04
6.640394E+03	1.698823E-02	1.959428E-04
6.650246E+03	1.706489E-02	1.970078E-04
6.660099E+03	1.709196E-02	1.974933E-04
6.669951E+03	1.706912E-02	1.973943E-04
6.679803E+03	1.699784E-02	1.967264E-04
6.689655E+03	1.688069E-02	1.955180E-04
6.699507E+03	1.672086E-02	1.938053E-04
6.709360E+03	1.652375E-02	1.916500E-04
6.719212E+03	1.629499E-02	1.891169E-04
6.729064E+03	1.604056E-02	1.862753E-04
6.738916E+03	1.576747E-02	1.832064E-04
6.748768E+03	1.548244E-02	1.799885E-04
6.758621E+03	1.519286E-02	1.767079E-04
6.768473E+03	1.490555E-02	1.734441E-04
6.778325E+03	1.462756E-02	1.702801E-04
6.788177E+03	1.436526E-02	1.672904E-04
6.798030E+03	1.412415E-02	1.645398E-04
6.807882E+03	1.390944E-02	1.620898E-04
6.817734E+03	1.372520E-02	1.599885E-04
6.827586E+03	1.357454E-02	1.582729E-04
6.837438E+03	1.345935E-02	1.569656E-04
6.847291E+03	1.338125E-02	1.560861E-04
6.857143E+03	1.333984E-02	1.556303E-04
6.866995E+03	1.333470E-02	1.555938E-04
6.876847E+03	1.336338E-02	1.559485E-04
6.886700E+03	1.342344E-02	1.566662E-04
6.896552E+03	1.351073E-02	1.576990E-04
6.906404E+03	1.362027E-02	1.589887E-04
6.916256E+03	1.374707E-02	1.604778E-04
6.926108E+03	1.388517E-02	1.620966E-04
6.935961E+03	1.402774E-02	1.637658E-04
6.945813E+03	1.416899E-02	1.654182E-04
6.955665E+03	1.430292E-02	1.669838E-04
6.965517E+03	1.442382E-02	1.683965E-04
6.975369E+03	1.452713E-02	1.696031E-04
6.985222E+03	1.460992E-02	1.705702E-04
6.995074E+03	1.466940E-02	1.712654E-04
7.004926E+03	1.470463E-02	1.716783E-04
7.014778E+03	1.471655E-02	1.718201E-04
7.024631E+03	1.470643E-02	1.717061E-04
7.034483E+03	1.467653E-02	1.713634E-04
7.044335E+03	1.463080E-02	1.708383E-04
7.054187E+03	1.457279E-02	1.701727E-04
7.064039E+03	1.450683E-02	1.694177E-04
7.073892E+03	1.443655E-02	1.686162E-04
7.083744E+03	1.436554E-02	1.678104E-04
7.093596E+03	1.429710E-02	1.670394E-04
7.103448E+03	1.423360E-02	1.663313E-04
7.113300E+03	1.417668E-02	1.657060E-04
7.123153E+03	1.412732E-02	1.651752E-04
7.133005E+03	1.408552E-02	1.647397E-04
7.142857E+03	1.405163E-02	1.644039E-04
7.152709E+03	1.402457E-02	1.641561E-04
7.162562E+03	1.400344E-02	1.639862E-04
7.172414E+03	1.398603E-02	1.638690E-04
7.182266E+03	1.397098E-02	1.637892E-04
7.192118E+03	1.395604E-02	1.637212E-04
7.201970E+03	1.393813E-02	1.636290E-04
7.211823E+03	1.391521E-02	1.634896E-04
7.221675E+03	1.388439E-02	1.632691E-04
7.231527E+03	1.384292E-02	1.629355E-04
7.241379E+03	1.378903E-02	1.624682E-04
7.251232E+03	1.372087E-02	1.618455E-04
7.261084E+03	1.363727E-02	1.610531E-04
7.270936E+03	1.353804E-02	1.600888E-04
7.280788E+03	1.342344E-02	1.589550E-04
7.290640E+03	1.329468E-02	1.576656E-04
7.300493E+03	1.315297E-02	1.562344E-04
7.310345E+03	1.300037E-02	1.546851E-04
7.320197E+03	1.283993E-02	1.530536E-04
7.330049E+03	1.267448E-02	1.513730E-04
7.339901E+03	1.250766E-02	1.496864E-04
7.349754E+03	1.234377E-02	1.480452E-04
7.359606E+03	1.218587E-02	1.464860E-04
7.369458E+03	1.203726E-02	1.450491E-04
7.379310E+03	1.190101E-02	1.437721E-04
7.389163E+03	1.177888E-02	1.426774E-04
7.399015E+03	1.167147E-02	1.417734E-04
7.408867E+03	1.157774E-02	1.410491E-04
7.418719E+03	1.149208E-02	1.404371E-04
7.428571E+03	1.140947E-02	1.398770E-04
7.438424E+03	1.132501E-02	1.393087E-04
7.448276E+03	1.123463E-02	1.386820E-04
7.458128E+03	1.113542E-02	1.379594E-04
7.467980E+03	1.102602E-02	1.371224E-04
7.477833E+03	1.090564E-02	1.361585E-04
7.487685E+03	1.077582E-02	1.350845E-04
7.497537E+03	1.063815E-02	1.339180E-04
7.507389E+03	1.049619E-02	1.327015E-04
7.517241E+03	1.035305E-02	1.314729E-04
7.527094E+03	1.021302E-02	1.302857E-04
7.536946E+03	1.008031E-02	1.291930E-04
7.546798E+03	9.958724E-03	1.282444E-04
7.556650E+03	9.852354E-03	1.274939E-04
7.566502E+03	9.764575E-03	1.269873E-04
7.576355E+03	9.698192E-03	1.267642E-04
7.586207E+03	9.655098E-03	1.268530E-04
7.596059E+03	9.636698E-03	1.272766E-04
7.605911E+03	9.643862E-03	1.280511E-04
7.615764E+03	9.676427E-03	1.291794E-04
7.625616E+03	9.733456E-03	1.306543E-04
7.635468E+03	9.813277E-03	1.324585E-04
7.645320E+03	9.913293E-03	1.345618E-04
