#wls	flux	fluxerr
1.576355E+03	3.781943E-04	2.536688E-06
1.615764E+03	3.913500E-04	2.624925E-06
1.655172E+03	4.030486E-04	2.703389E-06
1.694581E+03	4.132014E-04	2.771484E-06
1.733990E+03	4.213797E-04	2.826336E-06
1.773399E+03	4.270840E-04	2.864593E-06
1.812808E+03	4.293830E-04	2.880010E-06
1.852217E+03	4.274270E-04	2.866888E-06
1.891626E+03	4.203680E-04	2.819538E-06
1.931034E+03	4.078145E-04	2.735335E-06
1.970443E+03	3.904973E-04	2.619181E-06
2.009852E+03	3.710946E-04	2.489039E-06
2.049261E+03	3.544714E-04	2.377540E-06
2.088670E+03	3.467635E-04	2.325839E-06
2.128079E+03	3.535258E-04	2.371193E-06
2.167488E+03	3.778785E-04	2.534530E-06
2.206897E+03	4.199031E-04	2.816398E-06
2.246305E+03	4.773764E-04	3.201883E-06
2.285714E+03	5.470602E-04	3.669266E-06
2.325123E+03	6.258842E-04	4.197954E-06
2.364532E+03	7.115995E-04	4.772863E-06
2.403941E+03	8.029076E-04	5.385282E-06
2.443350E+03	8.991115E-04	6.030538E-06
2.482759E+03	1.000200E-03	6.708552E-06
2.522167E+03	1.106490E-03	7.421459E-06
2.561576E+03	1.218474E-03	8.172554E-06
2.600985E+03	1.336466E-03	8.963940E-06
2.640394E+03	1.461096E-03	9.799846E-06
2.679803E+03	1.592692E-03	1.068248E-05
2.719212E+03	1.731723E-03	1.161497E-05
2.758621E+03	1.878095E-03	1.259671E-05
2.798030E+03	2.031908E-03	1.362835E-05
2.837438E+03	2.192411E-03	1.470486E-05
2.876847E+03	2.358775E-03	1.582067E-05
2.916256E+03	2.530377E-03	1.697162E-05
2.955665E+03	2.705657E-03	1.814724E-05
2.965517E+03	2.750026E-03	1.844483E-05
2.975369E+03	2.794422E-03	1.874259E-05
2.985222E+03	2.838961E-03	1.904132E-05
2.995074E+03	2.883671E-03	1.934119E-05
3.004926E+03	2.928768E-03	1.964366E-05
3.014778E+03	2.974316E-03	1.994915E-05
3.024631E+03	3.020522E-03	2.025906E-05
3.034483E+03	3.067258E-03	2.057252E-05
3.044335E+03	3.114059E-03	2.088642E-05
3.054187E+03	3.161133E-03	2.120215E-05
3.064039E+03	3.208354E-03	2.151885E-05
3.073892E+03	3.255589E-03	2.183566E-05
3.083744E+03	3.302709E-03	2.215170E-05
3.093596E+03	3.349578E-03	2.246606E-05
3.103448E+03	3.396063E-03	2.277783E-05
3.113300E+03	3.442196E-03	2.308725E-05
3.123153E+03	3.487841E-03	2.339339E-05
3.133005E+03	3.532683E-03	2.369414E-05
3.142857E+03	3.576921E-03	2.399085E-05
3.152709E+03	3.620238E-03	2.428138E-05
3.162562E+03	3.662482E-03	2.456471E-05
3.172414E+03	3.703673E-03	2.484098E-05
3.182266E+03	3.743827E-03	2.511029E-05
3.192118E+03	3.782442E-03	2.536929E-05
3.201970E+03	3.819698E-03	2.561916E-05
3.211823E+03	3.855261E-03	2.585768E-05
3.221675E+03	3.889304E-03	2.608601E-05
3.231527E+03	3.921485E-03	2.630184E-05
3.241379E+03	3.951635E-03	2.650405E-05
3.251232E+03	3.979748E-03	2.669261E-05
3.261084E+03	4.005647E-03	2.686631E-05
3.270936E+03	4.029328E-03	2.702514E-05
3.280788E+03	4.050449E-03	2.716680E-05
3.290640E+03	4.069168E-03	2.729234E-05
3.300493E+03	4.085152E-03	2.739954E-05
3.310345E+03	4.098401E-03	2.748840E-05
3.320197E+03	4.108604E-03	2.755683E-05
3.330049E+03	4.116091E-03	2.760704E-05
3.339901E+03	4.120420E-03	2.763607E-05
3.349754E+03	4.121642E-03	2.764426E-05
3.359606E+03	4.119818E-03	2.763202E-05
3.369458E+03	4.114896E-03	2.759900E-05
3.379310E+03	4.106855E-03	2.754507E-05
3.389163E+03	4.095866E-03	2.747136E-05
3.399015E+03	4.082002E-03	2.737837E-05
3.408867E+03	4.065537E-03	2.726793E-05
3.418719E+03	4.046409E-03	2.713963E-05
3.428571E+03	4.025303E-03	2.699807E-05
3.438424E+03	4.002459E-03	2.684485E-05
3.448276E+03	3.978350E-03	2.668314E-05
3.458128E+03	3.953673E-03	2.651763E-05
3.467980E+03	3.928992E-03	2.635209E-05
3.477833E+03	3.905224E-03	2.619267E-05
3.487685E+03	3.883152E-03	2.604462E-05
3.497537E+03	3.863758E-03	2.591455E-05
3.507389E+03	3.847862E-03	2.580793E-05
3.517241E+03	3.836579E-03	2.573225E-05
3.527094E+03	3.830688E-03	2.569273E-05
3.536946E+03	3.830609E-03	2.569220E-05
3.546798E+03	3.836557E-03	2.573208E-05
3.556650E+03	3.848154E-03	2.580986E-05
3.566502E+03	3.864789E-03	2.592143E-05
3.576355E+03	3.885474E-03	2.606017E-05
3.586207E+03	3.909361E-03	2.622037E-05
3.596059E+03	3.935539E-03	2.639594E-05
3.605911E+03	3.963295E-03	2.658210E-05
3.615764E+03	3.991863E-03	2.677371E-05
3.625616E+03	4.021008E-03	2.696918E-05
3.635468E+03	4.050197E-03	2.716495E-05
3.645320E+03	4.079346E-03	2.736045E-05
3.655172E+03	4.108617E-03	2.755677E-05
3.665025E+03	4.138066E-03	2.775428E-05
3.674877E+03	4.168071E-03	2.795552E-05
3.684729E+03	4.199221E-03	2.816444E-05
3.694581E+03	4.231972E-03	2.838410E-05
3.704433E+03	4.267045E-03	2.861933E-05
3.714286E+03	4.305244E-03	2.887553E-05
3.724138E+03	4.347441E-03	2.915854E-05
3.733990E+03	4.394468E-03	2.947395E-05
3.743842E+03	4.447274E-03	2.982812E-05
3.753695E+03	4.506742E-03	3.022698E-05
3.763547E+03	4.573928E-03	3.067759E-05
3.773399E+03	4.649720E-03	3.118593E-05
3.783251E+03	4.735075E-03	3.175840E-05
3.793103E+03	4.830767E-03	3.240021E-05
3.802956E+03	4.937891E-03	3.311869E-05
3.812808E+03	5.057269E-03	3.391936E-05
3.822660E+03	5.189801E-03	3.480826E-05
3.832512E+03	5.336199E-03	3.579015E-05
3.842365E+03	5.497534E-03	3.687223E-05
3.852217E+03	5.674535E-03	3.805937E-05
3.862069E+03	5.868225E-03	3.935846E-05
3.863458E+03	3.737394E-03	2.506687E-05
3.864906E+03	3.867265E-03	2.593793E-05
3.866355E+03	3.993919E-03	2.678740E-05
3.867803E+03	4.110176E-03	2.756714E-05
3.869251E+03	4.249238E-03	2.849984E-05
3.870700E+03	4.385547E-03	2.941406E-05
3.872148E+03	4.504273E-03	3.021036E-05
3.873596E+03	4.630130E-03	3.105449E-05
3.875044E+03	4.788825E-03	3.211887E-05
3.876493E+03	4.936112E-03	3.310673E-05
3.877941E+03	5.050316E-03	3.387269E-05
3.879389E+03	5.210249E-03	3.494537E-05
3.880837E+03	5.309406E-03	3.561043E-05
3.882286E+03	5.416017E-03	3.632546E-05
3.883734E+03	5.531934E-03	3.710293E-05
3.885182E+03	5.663635E-03	3.798625E-05
3.886631E+03	5.722444E-03	3.838068E-05
3.888079E+03	5.798853E-03	3.889316E-05
3.889527E+03	5.909526E-03	3.963545E-05
3.890975E+03	5.992068E-03	4.018906E-05
3.892424E+03	6.099187E-03	4.090751E-05
3.893872E+03	6.186948E-03	4.149613E-05
3.895320E+03	6.286343E-03	4.216277E-05
3.896768E+03	6.353394E-03	4.261249E-05
3.898217E+03	6.399647E-03	4.292271E-05
3.899665E+03	6.428325E-03	4.311505E-05
3.901113E+03	6.520068E-03	4.373038E-05
3.902562E+03	6.575244E-03	4.410044E-05
3.904010E+03	6.565976E-03	4.403828E-05
3.905458E+03	6.589653E-03	4.419708E-05
3.906906E+03	6.617060E-03	4.438090E-05
3.908355E+03	6.698356E-03	4.492615E-05
3.909803E+03	6.815947E-03	4.571484E-05
3.911251E+03	6.905738E-03	4.631707E-05
3.912700E+03	6.916564E-03	4.638968E-05
3.914148E+03	6.987390E-03	4.686471E-05
3.915596E+03	7.052218E-03	4.729952E-05
3.917044E+03	7.066833E-03	4.739754E-05
3.918493E+03	7.105202E-03	4.765489E-05
3.919941E+03	7.150119E-03	4.795614E-05
3.921389E+03	7.156866E-03	4.800139E-05
3.922837E+03	7.162221E-03	4.803731E-05
3.924286E+03	7.244972E-03	4.859232E-05
3.925734E+03	7.347372E-03	4.927912E-05
3.927182E+03	7.408322E-03	4.968792E-05
3.928631E+03	7.450180E-03	4.996866E-05
3.930079E+03	7.516348E-03	5.041245E-05
3.931527E+03	7.590037E-03	5.090668E-05
3.932975E+03	7.667984E-03	5.142948E-05
3.934424E+03	7.786651E-03	5.222538E-05
3.935872E+03	7.874545E-03	5.281489E-05
3.937320E+03	7.933972E-03	5.321346E-05
3.938768E+03	7.975195E-03	5.348995E-05
3.940217E+03	8.022064E-03	5.380430E-05
3.941665E+03	8.083015E-03	5.421310E-05
3.943113E+03	8.136983E-03	5.457506E-05
3.944562E+03	8.215826E-03	5.510386E-05
3.946010E+03	8.301757E-03	5.568021E-05
3.947458E+03	8.376029E-03	5.617835E-05
3.948906E+03	8.463019E-03	5.676180E-05
3.950355E+03	8.535058E-03	5.724496E-05
3.951803E+03	8.551287E-03	5.735381E-05
3.953251E+03	8.583496E-03	5.756984E-05
3.954700E+03	8.626534E-03	5.785849E-05
3.956148E+03	8.687459E-03	5.826712E-05
3.957596E+03	8.828815E-03	5.921519E-05
3.959044E+03	8.971685E-03	6.017343E-05
3.960493E+03	9.050210E-03	6.070009E-05
3.961941E+03	9.144792E-03	6.133446E-05
3.963389E+03	9.268160E-03	6.216190E-05
3.964837E+03	9.385968E-03	6.295204E-05
3.966286E+03	9.454395E-03	6.341098E-05
3.967734E+03	9.502606E-03	6.373433E-05
3.969182E+03	9.559338E-03	6.411483E-05
3.970631E+03	9.634507E-03	6.461899E-05
3.972079E+03	9.692745E-03	6.500959E-05
3.973527E+03	9.786424E-03	6.563790E-05
3.974975E+03	9.887254E-03	6.631417E-05
3.976424E+03	9.973988E-03	6.689590E-05
3.977872E+03	1.005559E-02	6.744319E-05
3.979320E+03	1.014056E-02	6.801308E-05
3.980768E+03	1.020715E-02	6.845970E-05
3.982217E+03	1.025770E-02	6.879879E-05
3.983665E+03	1.028322E-02	6.896992E-05
3.985113E+03	1.034946E-02	6.941422E-05
3.986562E+03	1.046879E-02	7.021454E-05
3.988010E+03	1.055552E-02	7.079624E-05
3.989458E+03	1.057644E-02	7.093657E-05
3.990906E+03	1.058553E-02	7.099752E-05
3.992355E+03	1.058846E-02	7.101716E-05
3.993803E+03	1.055249E-02	7.077592E-05
3.995251E+03	1.052077E-02	7.056314E-05
3.996700E+03	1.055786E-02	7.081190E-05
3.998148E+03	1.054558E-02	7.072958E-05
3.999596E+03	1.056513E-02	7.086069E-05
4.001044E+03	1.053669E-02	7.066995E-05
4.002493E+03	1.046306E-02	7.017613E-05
4.003941E+03	1.045407E-02	7.011578E-05
4.005389E+03	1.048503E-02	7.032344E-05
4.006837E+03	1.045652E-02	7.013221E-05
4.008286E+03	1.037942E-02	6.961511E-05
4.009734E+03	1.032894E-02	6.927652E-05
4.011182E+03	1.029462E-02	6.904635E-05
4.012631E+03	1.024454E-02	6.871049E-05
4.014079E+03	1.019968E-02	6.840958E-05
4.015527E+03	1.018579E-02	6.831639E-05
4.016975E+03	1.013275E-02	6.796069E-05
4.018424E+03	1.004674E-02	6.738381E-05
4.019872E+03	1.001367E-02	6.716202E-05
4.021320E+03	9.980578E-03	6.694006E-05
4.022768E+03	9.919743E-03	6.653203E-05
4.024217E+03	9.852169E-03	6.607881E-05
4.025665E+03	9.741024E-03	6.533336E-05
4.027113E+03	9.637452E-03	6.463869E-05
4.028562E+03	9.558689E-03	6.411043E-05
4.030010E+03	9.473644E-03	6.354003E-05
4.031458E+03	9.388057E-03	6.296599E-05
4.032906E+03	9.338341E-03	6.263255E-05
4.034355E+03	9.282356E-03	6.225705E-05
4.035803E+03	9.184135E-03	6.159828E-05
4.037251E+03	9.082484E-03	6.091650E-05
4.038700E+03	8.976437E-03	6.020524E-05
4.040148E+03	8.887112E-03	5.960613E-05
4.041596E+03	8.810686E-03	5.909354E-05
4.043044E+03	8.708261E-03	5.840657E-05
4.044493E+03	8.597111E-03	5.766109E-05
4.045941E+03	8.456073E-03	5.671514E-05
4.047389E+03	8.308197E-03	5.572333E-05
4.048837E+03	8.206395E-03	5.504053E-05
4.050286E+03	8.146386E-03	5.463806E-05
4.051734E+03	8.086334E-03	5.423528E-05
4.053182E+03	8.041166E-03	5.393234E-05
4.054631E+03	7.979100E-03	5.351606E-05
4.056079E+03	7.868790E-03	5.277621E-05
4.057527E+03	7.751166E-03	5.198729E-05
4.058975E+03	7.671558E-03	5.145336E-05
4.060424E+03	7.631456E-03	5.118440E-05
4.061872E+03	7.605323E-03	5.100912E-05
4.063320E+03	7.571926E-03	5.078513E-05
4.064768E+03	7.497927E-03	5.028881E-05
4.066217E+03	7.414690E-03	4.973054E-05
4.067665E+03	7.403419E-03	4.965494E-05
4.069113E+03	7.461776E-03	5.004634E-05
4.070562E+03	7.499857E-03	5.030175E-05
4.072010E+03	7.492475E-03	5.025224E-05
4.073458E+03	7.497674E-03	5.028711E-05
4.074906E+03	7.501421E-03	5.031224E-05
4.076355E+03	7.511470E-03	5.037964E-05
4.077803E+03	7.532672E-03	5.052184E-05
4.079251E+03	7.538374E-03	5.056008E-05
4.080700E+03	7.559599E-03	5.070244E-05
4.082148E+03	7.611893E-03	5.105317E-05
4.083596E+03	7.650633E-03	5.131300E-05
4.085044E+03	7.688431E-03	5.156651E-05
4.086493E+03	7.717997E-03	5.176481E-05
4.087941E+03	7.740295E-03	5.191437E-05
4.089389E+03	7.767470E-03	5.209662E-05
4.090837E+03	7.783965E-03	5.220726E-05
4.092286E+03	7.823335E-03	5.247132E-05
4.093734E+03	7.872953E-03	5.280411E-05
4.095182E+03	7.863702E-03	5.274206E-05
4.096631E+03	7.833499E-03	5.253948E-05
4.098079E+03	7.869532E-03	5.278116E-05
4.099527E+03	7.895842E-03	5.295762E-05
4.100975E+03	7.904618E-03	5.301647E-05
4.102424E+03	7.896816E-03	5.296415E-05
4.103872E+03	7.847049E-03	5.263036E-05
4.105320E+03	7.801635E-03	5.232576E-05
4.106768E+03	7.808919E-03	5.237461E-05
4.108217E+03	7.831348E-03	5.252505E-05
4.109665E+03	7.773170E-03	5.213485E-05
4.111113E+03	7.655311E-03	5.134436E-05
4.112562E+03	7.595554E-03	5.094357E-05
4.114010E+03	7.583201E-03	5.086072E-05
4.115458E+03	7.554688E-03	5.066948E-05
4.116906E+03	7.500209E-03	5.030408E-05
4.118355E+03	7.484864E-03	5.020116E-05
4.119803E+03	7.480774E-03	5.017373E-05
4.121251E+03	7.443355E-03	4.992276E-05
4.122700E+03	7.438753E-03	4.989189E-05
4.124148E+03	7.417472E-03	4.974916E-05
4.125596E+03	7.359867E-03	4.936280E-05
4.127044E+03	7.317433E-03	4.907819E-05
4.128493E+03	7.270056E-03	4.876044E-05
4.129941E+03	7.243272E-03	4.858079E-05
4.131389E+03	7.212534E-03	4.837463E-05
4.132837E+03	7.142943E-03	4.790788E-05
4.134286E+03	7.075264E-03	4.745396E-05
4.135734E+03	7.056233E-03	4.732631E-05
4.137182E+03	7.025375E-03	4.711935E-05
4.138631E+03	6.944283E-03	4.657547E-05
4.140079E+03	6.885290E-03	4.617979E-05
4.141527E+03	6.859255E-03	4.600517E-05
4.142975E+03	6.803140E-03	4.562881E-05
4.144424E+03	6.750925E-03	4.527861E-05
4.145872E+03	6.679438E-03	4.479914E-05
4.147320E+03	6.633056E-03	4.448805E-05
4.148768E+03	6.640926E-03	4.454084E-05
4.150217E+03	6.635966E-03	4.450757E-05
4.151665E+03	6.545556E-03	4.390118E-05
4.153113E+03	6.453101E-03	4.328109E-05
4.154562E+03	6.400610E-03	4.292903E-05
4.156010E+03	6.333247E-03	4.247722E-05
4.157458E+03	6.258413E-03	4.197531E-05
4.158906E+03	6.203811E-03	4.160909E-05
4.160355E+03	6.168965E-03	4.137538E-05
4.161803E+03	6.106857E-03	4.095882E-05
4.163251E+03	6.097210E-03	4.089411E-05
4.164700E+03	6.112825E-03	4.099884E-05
4.166148E+03	6.076897E-03	4.075787E-05
4.167596E+03	6.039949E-03	4.051006E-05
4.169044E+03	6.020830E-03	4.038183E-05
4.170493E+03	5.998222E-03	4.023019E-05
4.171941E+03	6.011337E-03	4.031816E-05
4.173389E+03	6.051778E-03	4.058939E-05
4.174837E+03	6.083301E-03	4.080082E-05
4.176286E+03	6.081051E-03	4.078573E-05
4.177734E+03	6.047478E-03	4.056055E-05
4.179182E+03	6.016365E-03	4.035188E-05
4.180631E+03	5.999654E-03	4.023980E-05
4.182079E+03	6.005826E-03	4.028119E-05
4.183527E+03	5.996066E-03	4.021573E-05
4.184975E+03	5.989287E-03	4.017026E-05
4.186424E+03	5.987980E-03	4.016150E-05
4.187872E+03	5.993650E-03	4.019952E-05
4.189320E+03	5.976884E-03	4.008707E-05
4.190768E+03	5.925687E-03	3.974369E-05
4.192217E+03	5.926345E-03	3.974810E-05
4.193665E+03	5.942974E-03	3.985963E-05
4.195113E+03	5.931152E-03	3.978034E-05
4.196562E+03	5.880855E-03	3.944300E-05
4.198010E+03	5.845510E-03	3.920594E-05
4.199458E+03	5.810139E-03	3.896870E-05
4.200906E+03	5.793241E-03	3.885537E-05
4.202355E+03	5.814850E-03	3.900030E-05
4.203803E+03	5.823460E-03	3.905805E-05
4.205251E+03	5.792526E-03	3.885057E-05
4.206700E+03	5.732022E-03	3.844477E-05
4.208148E+03	5.671974E-03	3.804202E-05
4.209596E+03	5.645958E-03	3.786753E-05
4.211044E+03	5.642980E-03	3.784756E-05
4.212493E+03	5.636991E-03	3.780739E-05
4.213941E+03	5.631498E-03	3.777055E-05
4.215389E+03	5.633526E-03	3.778415E-05
4.216837E+03	5.639069E-03	3.782133E-05
4.218286E+03	5.662191E-03	3.797641E-05
4.219734E+03	5.696883E-03	3.820909E-05
4.221182E+03	5.723054E-03	3.838462E-05
4.222631E+03	5.748739E-03	3.855689E-05
4.224079E+03	5.796570E-03	3.887769E-05
4.225527E+03	5.819781E-03	3.903336E-05
4.226975E+03	5.850555E-03	3.923977E-05
4.228424E+03	5.909042E-03	3.963203E-05
4.229872E+03	5.974114E-03	4.006847E-05
4.231320E+03	6.024116E-03	4.040384E-05
4.232768E+03	6.048445E-03	4.056701E-05
4.234217E+03	6.100523E-03	4.091630E-05
4.235665E+03	6.155155E-03	4.128272E-05
4.237113E+03	6.196201E-03	4.155802E-05
4.238562E+03	6.236265E-03	4.182672E-05
4.240010E+03	6.253632E-03	4.194320E-05
4.241458E+03	6.273535E-03	4.207669E-05
4.242906E+03	6.288396E-03	4.217637E-05
4.244355E+03	6.287596E-03	4.217099E-05
4.245803E+03	6.303479E-03	4.227752E-05
4.247251E+03	6.319371E-03	4.238411E-05
4.248700E+03	6.354499E-03	4.261971E-05
4.250148E+03	6.378009E-03	4.277740E-05
4.251596E+03	6.386846E-03	4.283667E-05
4.253044E+03	6.388596E-03	4.284840E-05
4.254493E+03	6.353860E-03	4.261543E-05
4.255941E+03	6.331263E-03	4.246386E-05
4.257389E+03	6.345663E-03	4.256045E-05
4.258837E+03	6.382898E-03	4.281018E-05
4.260286E+03	6.394785E-03	4.288991E-05
4.261734E+03	6.367591E-03	4.270751E-05
4.263182E+03	6.330725E-03	4.246026E-05
4.264631E+03	6.309578E-03	4.231842E-05
4.266079E+03	6.312806E-03	4.234007E-05
4.267527E+03	6.304341E-03	4.228330E-05
4.268975E+03	6.296885E-03	4.223329E-05
4.270424E+03	6.295525E-03	4.222417E-05
4.271872E+03	6.286018E-03	4.216040E-05
4.273320E+03	6.281594E-03	4.213073E-05
4.274768E+03	6.289893E-03	4.218639E-05
4.276217E+03	6.320101E-03	4.238899E-05
4.277665E+03	6.332491E-03	4.247209E-05
4.279113E+03	6.328063E-03	4.244240E-05
4.280562E+03	6.323630E-03	4.241266E-05
4.282010E+03	6.274812E-03	4.208524E-05
4.283458E+03	6.226468E-03	4.176099E-05
4.284906E+03	6.231686E-03	4.179599E-05
4.286355E+03	6.231797E-03	4.179673E-05
4.287803E+03	6.182357E-03	4.146513E-05
4.289251E+03	6.145655E-03	4.121898E-05
4.290700E+03	6.137549E-03	4.116461E-05
4.292148E+03	6.145798E-03	4.121994E-05
4.293596E+03	6.133077E-03	4.113461E-05
4.295044E+03	6.067640E-03	4.069572E-05
4.296493E+03	5.990895E-03	4.018099E-05
4.297941E+03	5.964785E-03	4.000588E-05
4.299389E+03	5.956070E-03	3.994743E-05
4.300837E+03	5.924801E-03	3.973770E-05
4.302286E+03	5.879157E-03	3.943157E-05
4.303734E+03	5.846295E-03	3.921116E-05
4.305182E+03	5.829823E-03	3.910068E-05
4.306631E+03	5.788707E-03	3.882491E-05
4.308079E+03	5.754233E-03	3.859370E-05
4.309527E+03	5.739245E-03	3.849317E-05
4.310975E+03	5.706778E-03	3.827542E-05
4.312424E+03	5.673260E-03	3.805061E-05
4.313872E+03	5.644856E-03	3.786010E-05
4.315320E+03	5.592780E-03	3.751083E-05
4.316768E+03	5.551980E-03	3.723718E-05
4.318217E+03	5.541503E-03	3.716691E-05
4.319665E+03	5.492934E-03	3.684115E-05
4.321113E+03	5.433516E-03	3.644264E-05
4.322562E+03	5.397231E-03	3.619928E-05
4.324010E+03	5.407799E-03	3.627015E-05
4.325458E+03	5.442593E-03	3.650352E-05
4.326906E+03	5.446991E-03	3.653301E-05
4.328355E+03	5.447781E-03	3.653831E-05
4.329803E+03	5.452177E-03	3.656780E-05
4.331251E+03	5.463283E-03	3.664229E-05
4.332700E+03	5.481621E-03	3.676527E-05
4.334148E+03	5.460205E-03	3.662164E-05
4.335596E+03	5.443422E-03	3.650907E-05
4.337044E+03	5.430758E-03	3.642414E-05
4.338493E+03	5.399991E-03	3.621778E-05
4.339941E+03	5.383161E-03	3.610490E-05
4.341389E+03	5.378732E-03	3.607520E-05
4.342837E+03	5.397063E-03	3.619814E-05
4.344286E+03	5.413849E-03	3.631073E-05
4.345734E+03	5.443070E-03	3.650671E-05
4.347182E+03	5.472824E-03	3.670627E-05
4.348631E+03	5.453893E-03	3.657930E-05
4.350079E+03	5.405408E-03	3.625410E-05
4.351527E+03	5.395251E-03	3.618599E-05
4.352975E+03	5.406865E-03	3.626388E-05
4.354424E+03	5.410702E-03	3.628961E-05
4.355872E+03	5.408311E-03	3.627358E-05
4.357320E+03	5.422527E-03	3.636892E-05
4.358768E+03	5.462713E-03	3.663845E-05
4.360217E+03	5.506037E-03	3.692902E-05
4.361665E+03	5.531201E-03	3.709780E-05
4.363113E+03	5.561575E-03	3.730152E-05
4.364562E+03	5.597163E-03	3.754021E-05
4.366010E+03	5.624451E-03	3.772323E-05
4.367458E+03	5.676205E-03	3.807034E-05
4.368906E+03	5.732153E-03	3.844558E-05
4.370355E+03	5.748046E-03	3.855218E-05
4.371803E+03	5.774361E-03	3.872867E-05
4.373251E+03	5.800171E-03	3.890177E-05
4.374700E+03	5.802019E-03	3.891417E-05
4.376148E+03	5.794484E-03	3.886363E-05
4.377596E+03	5.819269E-03	3.902986E-05
4.379044E+03	5.872756E-03	3.938860E-05
4.380493E+03	5.892878E-03	3.952356E-05
4.381941E+03	5.901005E-03	3.957807E-05
4.383389E+03	5.922709E-03	3.972363E-05
4.384837E+03	5.939198E-03	3.983423E-05
4.386286E+03	5.926439E-03	3.974865E-05
4.387734E+03	5.938232E-03	3.982774E-05
4.389182E+03	5.966232E-03	4.001554E-05
4.390631E+03	5.976466E-03	4.008418E-05
4.392079E+03	5.984612E-03	4.013882E-05
4.393527E+03	5.984387E-03	4.013730E-05
4.394975E+03	5.982586E-03	4.012523E-05
4.396424E+03	5.986017E-03	4.014824E-05
4.397872E+03	5.989447E-03	4.017124E-05
4.399320E+03	5.985015E-03	4.014152E-05
4.400768E+03	5.969572E-03	4.003794E-05
4.402217E+03	5.965125E-03	4.000811E-05
4.403665E+03	5.964341E-03	4.000285E-05
4.405113E+03	5.967224E-03	4.002219E-05
4.406562E+03	5.960137E-03	3.997466E-05
4.408010E+03	5.953565E-03	3.993058E-05
4.409458E+03	5.987414E-03	4.015760E-05
4.410906E+03	6.014975E-03	4.034246E-05
4.412355E+03	6.013132E-03	4.033009E-05
4.413803E+03	6.009181E-03	4.030359E-05
4.415251E+03	6.002068E-03	4.025588E-05
4.416700E+03	5.998629E-03	4.023281E-05
4.418148E+03	5.997288E-03	4.022382E-05
