#wls	flux	fluxerr
1.576355E+03	3.114918E-04	1.976259E-06
1.615764E+03	3.217625E-04	2.041421E-06
1.655172E+03	3.308120E-04	2.098836E-06
1.694581E+03	3.384726E-04	2.147438E-06
1.733990E+03	3.445023E-04	2.185692E-06
1.773399E+03	3.484571E-04	2.210783E-06
1.812808E+03	3.495903E-04	2.217972E-06
1.852217E+03	3.472898E-04	2.203376E-06
1.891626E+03	3.407886E-04	2.162129E-06
1.931034E+03	3.298093E-04	2.092470E-06
1.970443E+03	3.150808E-04	1.999025E-06
2.009852E+03	2.987422E-04	1.895365E-06
2.049261E+03	2.846379E-04	1.805880E-06
2.088670E+03	2.777233E-04	1.762010E-06
2.128079E+03	2.824311E-04	1.791878E-06
2.167488E+03	3.011302E-04	1.910513E-06
2.206897E+03	3.337000E-04	2.117152E-06
2.246305E+03	3.783563E-04	2.400472E-06
2.285714E+03	4.323511E-04	2.743040E-06
2.325123E+03	4.931187E-04	3.128578E-06
2.364532E+03	5.588814E-04	3.545806E-06
2.403941E+03	6.283668E-04	3.986654E-06
2.443350E+03	7.011057E-04	4.448142E-06
2.482759E+03	7.769835E-04	4.929546E-06
2.522167E+03	8.561310E-04	5.431693E-06
2.561576E+03	9.387991E-04	5.956177E-06
2.600985E+03	1.025377E-03	6.505464E-06
2.640394E+03	1.116255E-03	7.082034E-06
2.679803E+03	1.211564E-03	7.686719E-06
2.719212E+03	1.311672E-03	8.321851E-06
2.758621E+03	1.416747E-03	8.988493E-06
2.798030E+03	1.526697E-03	9.686064E-06
2.837438E+03	1.641110E-03	1.041195E-05
2.876847E+03	1.759195E-03	1.116113E-05
2.916256E+03	1.880395E-03	1.193008E-05
2.955665E+03	2.003428E-03	1.271065E-05
2.965517E+03	2.034402E-03	1.290717E-05
2.975369E+03	2.065465E-03	1.310425E-05
2.985222E+03	2.096446E-03	1.330080E-05
2.995074E+03	2.127511E-03	1.349789E-05
3.004926E+03	2.158821E-03	1.369654E-05
3.014778E+03	2.190410E-03	1.389695E-05
3.024631E+03	2.222473E-03	1.410037E-05
3.034483E+03	2.254631E-03	1.430439E-05
3.044335E+03	2.287086E-03	1.451030E-05
3.054187E+03	2.319453E-03	1.471565E-05
3.064039E+03	2.351941E-03	1.492177E-05
3.073892E+03	2.384457E-03	1.512807E-05
3.083744E+03	2.416765E-03	1.533304E-05
3.093596E+03	2.448775E-03	1.553613E-05
3.103448E+03	2.480545E-03	1.573769E-05
3.113300E+03	2.511980E-03	1.593713E-05
3.123153E+03	2.542989E-03	1.613386E-05
3.133005E+03	2.573480E-03	1.632731E-05
3.142857E+03	2.603355E-03	1.651685E-05
3.152709E+03	2.632518E-03	1.670187E-05
3.162562E+03	2.661020E-03	1.688270E-05
3.172414E+03	2.688614E-03	1.705777E-05
3.182266E+03	2.715497E-03	1.722832E-05
3.192118E+03	2.741264E-03	1.739180E-05
3.201970E+03	2.766111E-03	1.754944E-05
3.211823E+03	2.789634E-03	1.769868E-05
3.221675E+03	2.812169E-03	1.784165E-05
3.231527E+03	2.833311E-03	1.797579E-05
3.241379E+03	2.853095E-03	1.810130E-05
3.251232E+03	2.871410E-03	1.821750E-05
3.261084E+03	2.888286E-03	1.832457E-05
3.270936E+03	2.903465E-03	1.842087E-05
3.280788E+03	2.916981E-03	1.850662E-05
3.290640E+03	2.928860E-03	1.858198E-05
3.300493E+03	2.938848E-03	1.864535E-05
3.310345E+03	2.946978E-03	1.869693E-05
3.320197E+03	2.953147E-03	1.873607E-05
3.330049E+03	2.957394E-03	1.876302E-05
3.339901E+03	2.959625E-03	1.877717E-05
3.349754E+03	2.959759E-03	1.877802E-05
3.359606E+03	2.957865E-03	1.876600E-05
3.369458E+03	2.953888E-03	1.874077E-05
3.379310E+03	2.947925E-03	1.870294E-05
3.389163E+03	2.939969E-03	1.865246E-05
3.399015E+03	2.930162E-03	1.859024E-05
3.408867E+03	2.918680E-03	1.851739E-05
3.418719E+03	2.905608E-03	1.843446E-05
3.428571E+03	2.891203E-03	1.834306E-05
3.438424E+03	2.875652E-03	1.824440E-05
3.448276E+03	2.859429E-03	1.814147E-05
3.458128E+03	2.842841E-03	1.803624E-05
3.467980E+03	2.826389E-03	1.793185E-05
3.477833E+03	2.810543E-03	1.783132E-05
3.487685E+03	2.795972E-03	1.773888E-05
3.497537E+03	2.783232E-03	1.765804E-05
3.507389E+03	2.773157E-03	1.759412E-05
3.517241E+03	2.766330E-03	1.755081E-05
3.527094E+03	2.763486E-03	1.753277E-05
3.536946E+03	2.765083E-03	1.754290E-05
3.546798E+03	2.771388E-03	1.758290E-05
3.556650E+03	2.781873E-03	1.764942E-05
3.566502E+03	2.796170E-03	1.774012E-05
3.576355E+03	2.813359E-03	1.784918E-05
3.586207E+03	2.832884E-03	1.797305E-05
3.596059E+03	2.853999E-03	1.810702E-05
3.605911E+03	2.876244E-03	1.824815E-05
3.615764E+03	2.899193E-03	1.839375E-05
3.625616E+03	2.922706E-03	1.854292E-05
3.635468E+03	2.946435E-03	1.869347E-05
3.645320E+03	2.970469E-03	1.884595E-05
3.655172E+03	2.994841E-03	1.900058E-05
3.665025E+03	3.019681E-03	1.915817E-05
3.674877E+03	3.045287E-03	1.932062E-05
3.684729E+03	3.072034E-03	1.949032E-05
3.694581E+03	3.100290E-03	1.966959E-05
3.704433E+03	3.130480E-03	1.986113E-05
3.714286E+03	3.163159E-03	2.006846E-05
3.724138E+03	3.198996E-03	2.029582E-05
3.733990E+03	3.238392E-03	2.054577E-05
3.743842E+03	3.282074E-03	2.082290E-05
3.753695E+03	3.330709E-03	2.113146E-05
3.763547E+03	3.384903E-03	2.147529E-05
3.773399E+03	3.445345E-03	2.185876E-05
3.783251E+03	3.512652E-03	2.228579E-05
3.793103E+03	3.587527E-03	2.276082E-05
3.802956E+03	3.670596E-03	2.328784E-05
3.812808E+03	3.762645E-03	2.387184E-05
3.822660E+03	3.864247E-03	2.451645E-05
3.832512E+03	3.976220E-03	2.522685E-05
3.842365E+03	4.099256E-03	2.600745E-05
3.852217E+03	4.234156E-03	2.686331E-05
3.862069E+03	4.381677E-03	2.779924E-05
3.871921E+03	4.542621E-03	2.882034E-05
3.881773E+03	4.717305E-03	2.992862E-05
3.891626E+03	4.905290E-03	3.112127E-05
3.901478E+03	5.105171E-03	3.238940E-05
3.909458E+03	4.419609E-03	2.803990E-05
3.910906E+03	4.438712E-03	2.816110E-05
3.912355E+03	4.489550E-03	2.848363E-05
3.913803E+03	4.525113E-03	2.870926E-05
3.915251E+03	4.560965E-03	2.893672E-05
3.916700E+03	4.603561E-03	2.920697E-05
3.918148E+03	4.637645E-03	2.942321E-05
3.919596E+03	4.638280E-03	2.942724E-05
3.921044E+03	4.693030E-03	2.977460E-05
3.922493E+03	4.760296E-03	3.020136E-05
3.923941E+03	4.818074E-03	3.056793E-05
3.925389E+03	4.835380E-03	3.067773E-05
3.926837E+03	4.781898E-03	3.033842E-05
3.928286E+03	4.774417E-03	3.029095E-05
3.929734E+03	4.781129E-03	3.033353E-05
3.931182E+03	4.786341E-03	3.036660E-05
3.932631E+03	4.769624E-03	3.026054E-05
3.934079E+03	4.771233E-03	3.027075E-05
3.935527E+03	4.808491E-03	3.050713E-05
3.936975E+03	4.862360E-03	3.084890E-05
3.938424E+03	4.906959E-03	3.113186E-05
3.939872E+03	4.990100E-03	3.165934E-05
3.941320E+03	5.049417E-03	3.203567E-05
3.942768E+03	5.124733E-03	3.251350E-05
3.944217E+03	5.240627E-03	3.324879E-05
3.945665E+03	5.310489E-03	3.369202E-05
3.947113E+03	5.412544E-03	3.433950E-05
3.948562E+03	5.484564E-03	3.479643E-05
3.950010E+03	5.593539E-03	3.548781E-05
3.951458E+03	5.706941E-03	3.620728E-05
3.952906E+03	5.789557E-03	3.673144E-05
3.954355E+03	5.898906E-03	3.742519E-05
3.955803E+03	6.006892E-03	3.811030E-05
3.957251E+03	6.043854E-03	3.834480E-05
3.958700E+03	6.054869E-03	3.841469E-05
3.960148E+03	6.160336E-03	3.908381E-05
3.961596E+03	6.313518E-03	4.005567E-05
3.963044E+03	6.442000E-03	4.087081E-05
3.964493E+03	6.542984E-03	4.151150E-05
3.965941E+03	6.650056E-03	4.219081E-05
3.967389E+03	6.776835E-03	4.299515E-05
3.968837E+03	6.822408E-03	4.328428E-05
3.970286E+03	6.866031E-03	4.356105E-05
3.971734E+03	6.961949E-03	4.416959E-05
3.973182E+03	7.077134E-03	4.490037E-05
3.974631E+03	7.177181E-03	4.553512E-05
3.976079E+03	7.255450E-03	4.603169E-05
3.977527E+03	7.358956E-03	4.668837E-05
3.978975E+03	7.438683E-03	4.719419E-05
3.980424E+03	7.490621E-03	4.752371E-05
3.981872E+03	7.618882E-03	4.833745E-05
3.983320E+03	7.753215E-03	4.918972E-05
3.984768E+03	7.806666E-03	4.952883E-05
3.986217E+03	7.928559E-03	5.030217E-05
3.987665E+03	8.060510E-03	5.113933E-05
3.989113E+03	8.142057E-03	5.165670E-05
3.990562E+03	8.130585E-03	5.158391E-05
3.992010E+03	8.169653E-03	5.183178E-05
3.993458E+03	8.250007E-03	5.234158E-05
3.994906E+03	8.316442E-03	5.276307E-05
3.996355E+03	8.358293E-03	5.302859E-05
3.997803E+03	8.360208E-03	5.304074E-05
3.999251E+03	8.343464E-03	5.293451E-05
4.000700E+03	8.348709E-03	5.296779E-05
4.002148E+03	8.333949E-03	5.287414E-05
4.003596E+03	8.394571E-03	5.325876E-05
4.005044E+03	8.448565E-03	5.360131E-05
4.006493E+03	8.446514E-03	5.358830E-05
4.007941E+03	8.434442E-03	5.351171E-05
4.009389E+03	8.431049E-03	5.349018E-05
4.010837E+03	8.388878E-03	5.322264E-05
4.012286E+03	8.349351E-03	5.297186E-05
4.013734E+03	8.357293E-03	5.302224E-05
4.015182E+03	8.328432E-03	5.283914E-05
4.016631E+03	8.292853E-03	5.261341E-05
4.018079E+03	8.270640E-03	5.247248E-05
4.019527E+03	8.277895E-03	5.251851E-05
4.020975E+03	8.225494E-03	5.218606E-05
4.022424E+03	8.160984E-03	5.177677E-05
4.023872E+03	8.116548E-03	5.149485E-05
4.025320E+03	8.074090E-03	5.122548E-05
4.026768E+03	8.095381E-03	5.136056E-05
4.028217E+03	8.085791E-03	5.129972E-05
4.029665E+03	7.994223E-03	5.071877E-05
4.031113E+03	7.876368E-03	4.997105E-05
4.032562E+03	7.771870E-03	4.930807E-05
4.034010E+03	7.727158E-03	4.902440E-05
4.035458E+03	7.683756E-03	4.874904E-05
4.036906E+03	7.628205E-03	4.839659E-05
4.038355E+03	7.494483E-03	4.754820E-05
4.039803E+03	7.379523E-03	4.681885E-05
4.041251E+03	7.325805E-03	4.647804E-05
4.042700E+03	7.213383E-03	4.576479E-05
4.044148E+03	7.096152E-03	4.502102E-05
4.045596E+03	7.025390E-03	4.457207E-05
4.047044E+03	6.928918E-03	4.396002E-05
4.048493E+03	6.834397E-03	4.336034E-05
4.049941E+03	6.751354E-03	4.283347E-05
4.051389E+03	6.730018E-03	4.269811E-05
4.052837E+03	6.783649E-03	4.303837E-05
4.054286E+03	6.779558E-03	4.301241E-05
4.055734E+03	6.708608E-03	4.256227E-05
4.057182E+03	6.652766E-03	4.220799E-05
4.058631E+03	6.564236E-03	4.164632E-05
4.060079E+03	6.456737E-03	4.096430E-05
4.061527E+03	6.374906E-03	4.044513E-05
4.062975E+03	6.348606E-03	4.027827E-05
4.064424E+03	6.310143E-03	4.003424E-05
4.065872E+03	6.229649E-03	3.952356E-05
4.067320E+03	6.106258E-03	3.874071E-05
4.068768E+03	6.000628E-03	3.807055E-05
4.070217E+03	5.974058E-03	3.790198E-05
4.071665E+03	5.978457E-03	3.792988E-05
4.073113E+03	6.008014E-03	3.811740E-05
4.074562E+03	6.009775E-03	3.812858E-05
4.076010E+03	6.033925E-03	3.828180E-05
4.077458E+03	6.042640E-03	3.833709E-05
4.078906E+03	6.009552E-03	3.812716E-05
4.080355E+03	6.016423E-03	3.817076E-05
4.081803E+03	6.098401E-03	3.869086E-05
4.083251E+03	6.133470E-03	3.891335E-05
4.084700E+03	6.128872E-03	3.888418E-05
4.086148E+03	6.131570E-03	3.890129E-05
4.087596E+03	6.098842E-03	3.869366E-05
4.089044E+03	6.079474E-03	3.857077E-05
4.090493E+03	6.098753E-03	3.869309E-05
4.091941E+03	6.127134E-03	3.887316E-05
4.093389E+03	6.123544E-03	3.885038E-05
4.094837E+03	6.091363E-03	3.864620E-05
4.096286E+03	6.082279E-03	3.858857E-05
4.097734E+03	6.026235E-03	3.823300E-05
4.099182E+03	5.994111E-03	3.802920E-05
4.100631E+03	6.004979E-03	3.809815E-05
4.102079E+03	6.048473E-03	3.837409E-05
4.103527E+03	6.059850E-03	3.844628E-05
4.104975E+03	6.006631E-03	3.810863E-05
4.106424E+03	5.992201E-03	3.801708E-05
4.107872E+03	5.976387E-03	3.791675E-05
4.109320E+03	5.942362E-03	3.770088E-05
4.110768E+03	5.917240E-03	3.754149E-05
4.112217E+03	5.861862E-03	3.719015E-05
4.113665E+03	5.835724E-03	3.702432E-05
4.115113E+03	5.806194E-03	3.683697E-05
4.116562E+03	5.728136E-03	3.634174E-05
4.118010E+03	5.694892E-03	3.613082E-05
4.119458E+03	5.671741E-03	3.598394E-05
4.120906E+03	5.651119E-03	3.585310E-05
4.122355E+03	5.621797E-03	3.566708E-05
4.123803E+03	5.617269E-03	3.563835E-05
4.125251E+03	5.617288E-03	3.563847E-05
4.126700E+03	5.564528E-03	3.530374E-05
4.128148E+03	5.566526E-03	3.531641E-05
4.129596E+03	5.488294E-03	3.482008E-05
4.131044E+03	5.444879E-03	3.454463E-05
4.132493E+03	5.421331E-03	3.439524E-05
4.133941E+03	5.418501E-03	3.437728E-05
4.135389E+03	5.425765E-03	3.442336E-05
4.136837E+03	5.381770E-03	3.414424E-05
4.138286E+03	5.307908E-03	3.367563E-05
4.139734E+03	5.227687E-03	3.316667E-05
4.141182E+03	5.198450E-03	3.298118E-05
4.142631E+03	5.170573E-03	3.280432E-05
4.144079E+03	5.149053E-03	3.266778E-05
4.145527E+03	5.115376E-03	3.245413E-05
4.146975E+03	5.085421E-03	3.226407E-05
4.148424E+03	5.050233E-03	3.204083E-05
4.149872E+03	5.039179E-03	3.197070E-05
4.151320E+03	4.992067E-03	3.167180E-05
4.152768E+03	4.929490E-03	3.127479E-05
4.154217E+03	4.910517E-03	3.115441E-05
4.155665E+03	4.894310E-03	3.105159E-05
4.157113E+03	4.832523E-03	3.065958E-05
4.158562E+03	4.809101E-03	3.051098E-05
4.160010E+03	4.775913E-03	3.030042E-05
4.161458E+03	4.727165E-03	2.999115E-05
4.162906E+03	4.630510E-03	2.937793E-05
4.164355E+03	4.615959E-03	2.928561E-05
4.165803E+03	4.641561E-03	2.944804E-05
4.167251E+03	4.668160E-03	2.961679E-05
4.168700E+03	4.641181E-03	2.944563E-05
4.170148E+03	4.600495E-03	2.918750E-05
4.171596E+03	4.611043E-03	2.925442E-05
4.173044E+03	4.580722E-03	2.906205E-05
4.174493E+03	4.553872E-03	2.889170E-05
4.175941E+03	4.577205E-03	2.903973E-05
4.177389E+03	4.544663E-03	2.883327E-05
4.178837E+03	4.510835E-03	2.861865E-05
4.180286E+03	4.491191E-03	2.849403E-05
4.181734E+03	4.513270E-03	2.863411E-05
4.183182E+03	4.496972E-03	2.853070E-05
4.184631E+03	4.457740E-03	2.828180E-05
4.186079E+03	4.457462E-03	2.828004E-05
4.187527E+03	4.462724E-03	2.831342E-05
4.188975E+03	4.434658E-03	2.813535E-05
4.190424E+03	4.441104E-03	2.817625E-05
4.191872E+03	4.480074E-03	2.842349E-05
4.193320E+03	4.472420E-03	2.837493E-05
4.194768E+03	4.439950E-03	2.816893E-05
4.196217E+03	4.345368E-03	2.756886E-05
4.197665E+03	4.268648E-03	2.708212E-05
4.199113E+03	4.199043E-03	2.664052E-05
4.200562E+03	4.111362E-03	2.608423E-05
4.202010E+03	4.093749E-03	2.597248E-05
4.203458E+03	4.081758E-03	2.589641E-05
4.204906E+03	4.027752E-03	2.555377E-05
4.206355E+03	4.007124E-03	2.542289E-05
4.207803E+03	3.963553E-03	2.514646E-05
4.209251E+03	3.900119E-03	2.474401E-05
4.210700E+03	3.884423E-03	2.464443E-05
4.212148E+03	3.892581E-03	2.469619E-05
4.213596E+03	3.891703E-03	2.469062E-05
4.215044E+03	3.884815E-03	2.464691E-05
4.216493E+03	3.848651E-03	2.441748E-05
4.217941E+03	3.844145E-03	2.438889E-05
4.219389E+03	3.833122E-03	2.431895E-05
4.220837E+03	3.857341E-03	2.447261E-05
4.222286E+03	3.927035E-03	2.491478E-05
4.223734E+03	3.962071E-03	2.513706E-05
4.225182E+03	3.936193E-03	2.497288E-05
4.226631E+03	3.943681E-03	2.502039E-05
4.228079E+03	4.011102E-03	2.544813E-05
4.229527E+03	4.044873E-03	2.566239E-05
4.230975E+03	4.061069E-03	2.576515E-05
4.232424E+03	4.085086E-03	2.591752E-05
4.233872E+03	4.090225E-03	2.595013E-05
4.235320E+03	4.086201E-03	2.592460E-05
4.236768E+03	4.089354E-03	2.594460E-05
4.238217E+03	4.111776E-03	2.608685E-05
4.239665E+03	4.129592E-03	2.619989E-05
4.241113E+03	4.176031E-03	2.649451E-05
4.242562E+03	4.205487E-03	2.668139E-05
4.244010E+03	4.204837E-03	2.667727E-05
4.245458E+03	4.180459E-03	2.652261E-05
4.246906E+03	4.173240E-03	2.647681E-05
4.248355E+03	4.203661E-03	2.666981E-05
4.249803E+03	4.205215E-03	2.667967E-05
4.251251E+03	4.224253E-03	2.680045E-05
4.252700E+03	4.218388E-03	2.676324E-05
4.254148E+03	4.205021E-03	2.667843E-05
4.255596E+03	4.254438E-03	2.699196E-05
4.257044E+03	4.243072E-03	2.691985E-05
4.258493E+03	4.227475E-03	2.682089E-05
4.259941E+03	4.277169E-03	2.713617E-05
4.261389E+03	4.253055E-03	2.698318E-05
4.262837E+03	4.257913E-03	2.701401E-05
4.264286E+03	4.268716E-03	2.708255E-05
4.265734E+03	4.302305E-03	2.729565E-05
4.267182E+03	4.349392E-03	2.759439E-05
4.268631E+03	4.328336E-03	2.746080E-05
4.270079E+03	4.317372E-03	2.739124E-05
4.271527E+03	4.336247E-03	2.751099E-05
4.272975E+03	4.381761E-03	2.779975E-05
4.274424E+03	4.391121E-03	2.785913E-05
4.275872E+03	4.417006E-03	2.802335E-05
4.277320E+03	4.436299E-03	2.814576E-05
4.278768E+03	4.370783E-03	2.773010E-05
4.280217E+03	4.381943E-03	2.780091E-05
4.281665E+03	4.404477E-03	2.794387E-05
4.283113E+03	4.415799E-03	2.801570E-05
4.284562E+03	4.419929E-03	2.804190E-05
4.286010E+03	4.414770E-03	2.800917E-05
4.287458E+03	4.429057E-03	2.809981E-05
4.288906E+03	4.469734E-03	2.835788E-05
4.290355E+03	4.461553E-03	2.830598E-05
4.291803E+03	4.463607E-03	2.831901E-05
4.293251E+03	4.453538E-03	2.825513E-05
4.294700E+03	4.461939E-03	2.830843E-05
4.296148E+03	4.470922E-03	2.836542E-05
4.297596E+03	4.461850E-03	2.830787E-05
4.299044E+03	4.446409E-03	2.820990E-05
4.300493E+03	4.422281E-03	2.805682E-05
4.301941E+03	4.402037E-03	2.792839E-05
4.303389E+03	4.391036E-03	2.785859E-05
4.304837E+03	4.381112E-03	2.779563E-05
4.306286E+03	4.382256E-03	2.780289E-05
4.307734E+03	4.344214E-03	2.756153E-05
4.309182E+03	4.284257E-03	2.718114E-05
4.310631E+03	4.215049E-03	2.674205E-05
4.312079E+03	4.201115E-03	2.665365E-05
4.313527E+03	4.198846E-03	2.663926E-05
4.314975E+03	4.152162E-03	2.634307E-05
4.316424E+03	4.087802E-03	2.593475E-05
4.317872E+03	4.024917E-03	2.553578E-05
4.319320E+03	4.000560E-03	2.538124E-05
4.320768E+03	3.999727E-03	2.537596E-05
4.322217E+03	3.973594E-03	2.521016E-05
4.323665E+03	3.948530E-03	2.505114E-05
4.325113E+03	3.921479E-03	2.487952E-05
4.326562E+03	3.904889E-03	2.477427E-05
4.328010E+03	3.843942E-03	2.438759E-05
4.329458E+03	3.756799E-03	2.383472E-05
4.330906E+03	3.687152E-03	2.339285E-05
4.332355E+03	3.673139E-03	2.330395E-05
4.333803E+03	3.648613E-03	2.314834E-05
4.335251E+03	3.579353E-03	2.270893E-05
4.336700E+03	3.556302E-03	2.256269E-05
4.338148E+03	3.536958E-03	2.243996E-05
4.339596E+03	3.529574E-03	2.239311E-05
4.341044E+03	3.483682E-03	2.210195E-05
4.342493E+03	3.471591E-03	2.202524E-05
4.343941E+03	3.491658E-03	2.215255E-05
4.345389E+03	3.471512E-03	2.202474E-05
4.346837E+03	3.443231E-03	2.184531E-05
4.348286E+03	3.474719E-03	2.204509E-05
4.349734E+03	3.509160E-03	2.226359E-05
4.351182E+03	3.510225E-03	2.227035E-05
4.352631E+03	3.514365E-03	2.229662E-05
4.354079E+03	3.531627E-03	2.240614E-05
4.355527E+03	3.559458E-03	2.258270E-05
4.356975E+03	3.588336E-03	2.276592E-05
4.358424E+03	3.612608E-03	2.291991E-05
4.359872E+03	3.640714E-03	2.309823E-05
4.361320E+03	3.663404E-03	2.324218E-05
4.362768E+03	3.694043E-03	2.343657E-05
4.364217E+03	3.717208E-03	2.358354E-05
4.365665E+03	3.715246E-03	2.357109E-05
4.367113E+03	3.739605E-03	2.372564E-05
4.368562E+03	3.785389E-03	2.401611E-05
4.370010E+03	3.804122E-03	2.413496E-05
4.371458E+03	3.818450E-03	2.422586E-05
4.372906E+03	3.840151E-03	2.436354E-05
4.374355E+03	3.879397E-03	2.461253E-05
4.375803E+03	3.931051E-03	2.494025E-05
4.377251E+03	3.976620E-03	2.522936E-05
4.378700E+03	4.035347E-03	2.560194E-05
4.380148E+03	4.056121E-03	2.573375E-05
4.381596E+03	4.091667E-03	2.595926E-05
4.383044E+03	4.143996E-03	2.629126E-05
4.384493E+03	4.187053E-03	2.656443E-05
4.385941E+03	4.201621E-03	2.665686E-05
4.387389E+03	4.230462E-03	2.683983E-05
4.388837E+03	4.282536E-03	2.717022E-05
4.390286E+03	4.327173E-03	2.745341E-05
4.391734E+03	4.341729E-03	2.754576E-05
4.393182E+03	4.368874E-03	2.771798E-05
4.394631E+03	4.385450E-03	2.782315E-05
4.396079E+03	4.419587E-03	2.803972E-05
4.397527E+03	4.447746E-03	2.821838E-05
4.398975E+03	4.431081E-03	2.811264E-05
4.400424E+03	4.427600E-03	2.809056E-05
4.401872E+03	4.424854E-03	2.807314E-05
4.403320E+03	4.410754E-03	2.798369E-05
4.404768E+03	4.460542E-03	2.829956E-05
4.406217E+03	4.487644E-03	2.847151E-05
4.407665E+03	4.517066E-03	2.865817E-05
4.409113E+03	4.528823E-03	2.873276E-05
4.410562E+03	4.492276E-03	2.850089E-05
4.412010E+03	4.481424E-03	2.843205E-05
4.413458E+03	4.511246E-03	2.862125E-05
4.414906E+03	4.540043E-03	2.880395E-05
4.416355E+03	4.560746E-03	2.893529E-05
4.417803E+03	4.536045E-03	2.877858E-05
4.419251E+03	4.505590E-03	2.858536E-05
4.420700E+03	4.500068E-03	2.855033E-05
4.422148E+03	4.532552E-03	2.875642E-05
4.423596E+03	4.493258E-03	2.850712E-05
4.425044E+03	4.467358E-03	2.834280E-05
4.426493E+03	4.472922E-03	2.837810E-05
4.427941E+03	4.467442E-03	2.834333E-05
4.429389E+03	4.474871E-03	2.839047E-05
4.430837E+03	4.498583E-03	2.854090E-05
4.432286E+03	4.485179E-03	2.845586E-05
4.433734E+03	4.471612E-03	2.836979E-05
4.435182E+03	4.502965E-03	2.856870E-05
4.436631E+03	4.519827E-03	2.867569E-05
4.438079E+03	4.516425E-03	2.865411E-05
4.439527E+03	4.511445E-03	2.862251E-05
4.440975E+03	4.490814E-03	2.849162E-05
4.442424E+03	4.479603E-03	2.842049E-05
4.443872E+03	4.513776E-03	2.863730E-05
4.445320E+03	4.539950E-03	2.880336E-05
4.446768E+03	4.562843E-03	2.894860E-05
4.448217E+03	4.579373E-03	2.905347E-05
4.449665E+03	4.563206E-03	2.895090E-05
4.451113E+03	4.577264E-03	2.904009E-05
4.452562E+03	4.606942E-03	2.922838E-05
4.454010E+03	4.640992E-03	2.944441E-05
4.455458E+03	4.644191E-03	2.946470E-05
4.456906E+03	4.683153E-03	2.971190E-05
4.458355E+03	4.703874E-03	2.984336E-05
