#wls	flux	fluxerr
1.576355E+03	5.349932E-04	1.796839E-05
1.615764E+03	5.576131E-04	1.862353E-05
1.655172E+03	5.785019E-04	1.921022E-05
1.694581E+03	5.975409E-04	1.972522E-05
1.733990E+03	6.141605E-04	2.015064E-05
1.773399E+03	6.274415E-04	2.045770E-05
1.812808E+03	6.360037E-04	2.060354E-05
1.852217E+03	6.383357E-04	2.054232E-05
1.891626E+03	6.329736E-04	2.023119E-05
1.931034E+03	6.191753E-04	1.965168E-05
1.970443E+03	5.978815E-04	1.883927E-05
2.009852E+03	5.728524E-04	1.791696E-05
2.049261E+03	5.517280E-04	1.712485E-05
2.088670E+03	5.441397E-04	1.675702E-05
2.128079E+03	5.593398E-04	1.708632E-05
2.167488E+03	6.029326E-04	1.826533E-05
2.206897E+03	6.758556E-04	2.029992E-05
2.246305E+03	7.754495E-04	2.308708E-05
2.285714E+03	8.973748E-04	2.647612E-05
2.325123E+03	1.037391E-03	3.032320E-05
2.364532E+03	1.192390E-03	3.452126E-05
2.403941E+03	1.360603E-03	3.900459E-05
2.443350E+03	1.541454E-03	4.374291E-05
2.482759E+03	1.735329E-03	4.873323E-05
2.522167E+03	1.943149E-03	5.398654E-05
2.561576E+03	2.165838E-03	5.951239E-05
2.600985E+03	2.405108E-03	6.534019E-05
2.640394E+03	2.661787E-03	7.147299E-05
2.679803E+03	2.937296E-03	7.792803E-05
2.719212E+03	3.232521E-03	8.470621E-05
2.758621E+03	3.547988E-03	9.179738E-05
2.798030E+03	3.883729E-03	9.917763E-05
2.837438E+03	4.239712E-03	1.068208E-04
2.876847E+03	4.615145E-03	1.146815E-04
2.916256E+03	5.009273E-03	1.227159E-04
2.955665E+03	5.420820E-03	1.308684E-04
2.965517E+03	5.526288E-03	1.329188E-04
2.975369E+03	5.632598E-03	1.349689E-04
2.985222E+03	5.739852E-03	1.370207E-04
2.995074E+03	5.848297E-03	1.390798E-04
3.004926E+03	5.957933E-03	1.411458E-04
3.014778E+03	6.069854E-03	1.432442E-04
3.024631E+03	6.183577E-03	1.453628E-04
3.034483E+03	6.298825E-03	1.474945E-04
3.044335E+03	6.415315E-03	1.496324E-04
3.054187E+03	6.533194E-03	1.517794E-04
3.064039E+03	6.652171E-03	1.539283E-04
3.073892E+03	6.771734E-03	1.560669E-04
3.083744E+03	6.892014E-03	1.581980E-04
3.093596E+03	7.012699E-03	1.603142E-04
3.103448E+03	7.133474E-03	1.624081E-04
3.113300E+03	7.254011E-03	1.644722E-04
3.123153E+03	7.374414E-03	1.665089E-04
3.133005E+03	7.493904E-03	1.685005E-04
3.142857E+03	7.612787E-03	1.704542E-04
3.152709E+03	7.730485E-03	1.723572E-04
3.162562E+03	7.846851E-03	1.742064E-04
3.172414E+03	7.961726E-03	1.759988E-04
3.182266E+03	8.074511E-03	1.777214E-04
3.192118E+03	8.185038E-03	1.793712E-04
3.201970E+03	8.292910E-03	1.809402E-04
3.211823E+03	8.398164E-03	1.824297E-04
3.221675E+03	8.500181E-03	1.838273E-04
3.231527E+03	8.598773E-03	1.851296E-04
3.241379E+03	8.693538E-03	1.863292E-04
3.251232E+03	8.784290E-03	1.874230E-04
3.261084E+03	8.870634E-03	1.884039E-04
3.270936E+03	8.952185E-03	1.892651E-04
3.280788E+03	9.028574E-03	1.900000E-04
3.290640E+03	9.099649E-03	1.906071E-04
3.300493E+03	9.165070E-03	1.910809E-04
3.310345E+03	9.224526E-03	1.914165E-04
3.320197E+03	9.277535E-03	1.916057E-04
3.330049E+03	9.324240E-03	1.916535E-04
3.339901E+03	9.364045E-03	1.915496E-04
3.349754E+03	9.396796E-03	1.912928E-04
3.359606E+03	9.422584E-03	1.908871E-04
3.369458E+03	9.441012E-03	1.903266E-04
3.379310E+03	9.452147E-03	1.896150E-04
3.389163E+03	9.456153E-03	1.887577E-04
3.399015E+03	9.452973E-03	1.877557E-04
3.408867E+03	9.442876E-03	1.866166E-04
3.418719E+03	9.426463E-03	1.853543E-04
3.428571E+03	9.404188E-03	1.839796E-04
3.438424E+03	9.376712E-03	1.825072E-04
3.448276E+03	9.345075E-03	1.809590E-04
3.458128E+03	9.310527E-03	1.793602E-04
3.467980E+03	9.274376E-03	1.777370E-04
3.477833E+03	9.238139E-03	1.761187E-04
3.487685E+03	9.203511E-03	1.745377E-04
3.497537E+03	9.172474E-03	1.730309E-04
3.507389E+03	9.146674E-03	1.716282E-04
3.517241E+03	9.128303E-03	1.703690E-04
3.527094E+03	9.118953E-03	1.692806E-04
3.536946E+03	9.119951E-03	1.683851E-04
3.546798E+03	9.131453E-03	1.676821E-04
3.556650E+03	9.152392E-03	1.671491E-04
3.566502E+03	9.181033E-03	1.667519E-04
3.576355E+03	9.215194E-03	1.664487E-04
3.586207E+03	9.252763E-03	1.662000E-04
3.596059E+03	9.291610E-03	1.659667E-04
3.605911E+03	9.330161E-03	1.657206E-04
3.615764E+03	9.366636E-03	1.654302E-04
3.625616E+03	9.400061E-03	1.650792E-04
3.635468E+03	9.429723E-03	1.646562E-04
3.645320E+03	9.455100E-03	1.641531E-04
3.655172E+03	9.476478E-03	1.635764E-04
3.665025E+03	9.494494E-03	1.629381E-04
3.674877E+03	9.510150E-03	1.622564E-04
3.684729E+03	9.525130E-03	1.615606E-04
3.694581E+03	9.541408E-03	1.608844E-04
3.704433E+03	9.561322E-03	1.602665E-04
3.714286E+03	9.587481E-03	1.597493E-04
3.724138E+03	9.622683E-03	1.593776E-04
3.733990E+03	9.669939E-03	1.591981E-04
3.743842E+03	9.732166E-03	1.592551E-04
3.753695E+03	9.812330E-03	1.595925E-04
3.763547E+03	9.912950E-03	1.602457E-04
3.773399E+03	1.003690E-02	1.612550E-04
3.783251E+03	1.018642E-02	1.626492E-04
3.793103E+03	1.036356E-02	1.644535E-04
3.802956E+03	1.057018E-02	1.666893E-04
3.812808E+03	1.080780E-02	1.693717E-04
3.822660E+03	1.107728E-02	1.725052E-04
3.832512E+03	1.137924E-02	1.760902E-04
3.842365E+03	1.171370E-02	1.801178E-04
3.852217E+03	1.207975E-02	1.845649E-04
3.862069E+03	1.247588E-02	1.893994E-04
3.871921E+03	1.289943E-02	1.945728E-04
3.881773E+03	1.334669E-02	2.000222E-04
3.891626E+03	1.381254E-02	2.056647E-04
3.901478E+03	1.429061E-02	2.114011E-04
3.911330E+03	1.477293E-02	2.171115E-04
3.921182E+03	1.525048E-02	2.226633E-04
3.931034E+03	1.571372E-02	2.279203E-04
3.940887E+03	1.615166E-02	2.327287E-04
3.950739E+03	1.655394E-02	2.369484E-04
3.960591E+03	1.691040E-02	2.404453E-04
3.970443E+03	1.721209E-02	2.431071E-04
3.980296E+03	1.745148E-02	2.448440E-04
3.990148E+03	1.762345E-02	2.456028E-04
4.000000E+03	1.772574E-02	2.453719E-04
4.009852E+03	1.775894E-02	2.441792E-04
4.019704E+03	1.772594E-02	2.420838E-04
4.029557E+03	1.763275E-02	2.391860E-04
4.039409E+03	1.748688E-02	2.356038E-04
4.049261E+03	1.729751E-02	2.314745E-04
4.059113E+03	1.707417E-02	2.269370E-04
4.068966E+03	1.682687E-02	2.221324E-04
4.078818E+03	1.656509E-02	2.171916E-04
4.088670E+03	1.629772E-02	2.122340E-04
4.098522E+03	1.603267E-02	2.073635E-04
4.108374E+03	1.577726E-02	2.026734E-04
4.118227E+03	1.553767E-02	1.982398E-04
4.128079E+03	1.531952E-02	1.941296E-04
4.137931E+03	1.512722E-02	1.903928E-04
4.147783E+03	1.496489E-02	1.870740E-04
4.157635E+03	1.483562E-02	1.842043E-04
4.167488E+03	1.474198E-02	1.818067E-04
4.177340E+03	1.468563E-02	1.798931E-04
4.187192E+03	1.466748E-02	1.784651E-04
4.197044E+03	1.468765E-02	1.775155E-04
4.206897E+03	1.474501E-02	1.770215E-04
4.216749E+03	1.483734E-02	1.769484E-04
4.226601E+03	1.496106E-02	1.772460E-04
4.236453E+03	1.511072E-02	1.778435E-04
4.246305E+03	1.527949E-02	1.786559E-04
4.256158E+03	1.545830E-02	1.795743E-04
4.266010E+03	1.563583E-02	1.804667E-04
4.275862E+03	1.579935E-02	1.811885E-04
4.285714E+03	1.593426E-02	1.815774E-04
4.295567E+03	1.602505E-02	1.814649E-04
4.305419E+03	1.605681E-02	1.806933E-04
4.315271E+03	1.601774E-02	1.791440E-04
4.325123E+03	1.590278E-02	1.767756E-04
4.334975E+03	1.571873E-02	1.736782E-04
4.344828E+03	1.548344E-02	1.700612E-04
4.354680E+03	1.521917E-02	1.661769E-04
4.364532E+03	1.494855E-02	1.622757E-04
4.374384E+03	1.469181E-02	1.585761E-04
4.384236E+03	1.446631E-02	1.552609E-04
4.394089E+03	1.428595E-02	1.524720E-04
4.403941E+03	1.416138E-02	1.503136E-04
4.413793E+03	1.410038E-02	1.488578E-04
4.423645E+03	1.410828E-02	1.481493E-04
4.433498E+03	1.418843E-02	1.482116E-04
4.443350E+03	1.434164E-02	1.490414E-04
4.453202E+03	1.456702E-02	1.506185E-04
4.463054E+03	1.486119E-02	1.528974E-04
4.472906E+03	1.521891E-02	1.558151E-04
4.482759E+03	1.563208E-02	1.592807E-04
4.492611E+03	1.608982E-02	1.631773E-04
4.502463E+03	1.657889E-02	1.673668E-04
4.512315E+03	1.708385E-02	1.716912E-04
4.522167E+03	1.758673E-02	1.759707E-04
4.532020E+03	1.806920E-02	1.800245E-04
4.541872E+03	1.851194E-02	1.836659E-04
4.551724E+03	1.889727E-02	1.867263E-04
4.561576E+03	1.921012E-02	1.890664E-04
4.571429E+03	1.943886E-02	1.905814E-04
4.581281E+03	1.957728E-02	1.912216E-04
4.591133E+03	1.962527E-02	1.909962E-04
4.600985E+03	1.958939E-02	1.899787E-04
4.610837E+03	1.948204E-02	1.882975E-04
4.620690E+03	1.932200E-02	1.861404E-04
4.630542E+03	1.913197E-02	1.837299E-04
4.640394E+03	1.893574E-02	1.812956E-04
4.650246E+03	1.875396E-02	1.790348E-04
4.660099E+03	1.859599E-02	1.770345E-04
4.669951E+03	1.845729E-02	1.752497E-04
4.679803E+03	1.832660E-02	1.735713E-04
4.689655E+03	1.819211E-02	1.718870E-04
4.699507E+03	1.804406E-02	1.701046E-04
4.709360E+03	1.787559E-02	1.681591E-04
4.719212E+03	1.768323E-02	1.660181E-04
4.729064E+03	1.746589E-02	1.636713E-04
4.738916E+03	1.722632E-02	1.611444E-04
4.748768E+03	1.696901E-02	1.584790E-04
4.758621E+03	1.670114E-02	1.557414E-04
4.768473E+03	1.643148E-02	1.530123E-04
4.778325E+03	1.617023E-02	1.503852E-04
4.788177E+03	1.592800E-02	1.479571E-04
4.798030E+03	1.571589E-02	1.458290E-04
4.807882E+03	1.554453E-02	1.440976E-04
4.817734E+03	1.542396E-02	1.428536E-04
4.827586E+03	1.536295E-02	1.421762E-04
4.837438E+03	1.536889E-02	1.421318E-04
4.847291E+03	1.544750E-02	1.427716E-04
4.857143E+03	1.560283E-02	1.441315E-04
4.866995E+03	1.583596E-02	1.462201E-04
4.876847E+03	1.614563E-02	1.490251E-04
4.886700E+03	1.652678E-02	1.524991E-04
4.896552E+03	1.697003E-02	1.565556E-04
4.906404E+03	1.746174E-02	1.610686E-04
4.916256E+03	1.798330E-02	1.658671E-04
4.926108E+03	1.851202E-02	1.707420E-04
4.935961E+03	1.902162E-02	1.754516E-04
4.945813E+03	1.948473E-02	1.797438E-04
4.955665E+03	1.987535E-02	1.833790E-04
4.965517E+03	2.017132E-02	1.861526E-04
4.975369E+03	2.035693E-02	1.879190E-04
4.985222E+03	2.042548E-02	1.886153E-04
4.995074E+03	2.037958E-02	1.882645E-04
5.004926E+03	2.023074E-02	1.869711E-04
5.014778E+03	1.999827E-02	1.849121E-04
5.024631E+03	1.970611E-02	1.823072E-04
5.034483E+03	1.938011E-02	1.793942E-04
5.044335E+03	1.904505E-02	1.764015E-04
5.054187E+03	1.872287E-02	1.735317E-04
5.064039E+03	1.843125E-02	1.709482E-04
5.073892E+03	1.818267E-02	1.687673E-04
5.083744E+03	1.798455E-02	1.670583E-04
5.093596E+03	1.784019E-02	1.658524E-04
5.103448E+03	1.774946E-02	1.651496E-04
5.113300E+03	1.770990E-02	1.649279E-04
5.123153E+03	1.771752E-02	1.651515E-04
5.133005E+03	1.776846E-02	1.657853E-04
5.142857E+03	1.785851E-02	1.667913E-04
5.152709E+03	1.798478E-02	1.681435E-04
5.162562E+03	1.814504E-02	1.698224E-04
5.172414E+03	1.833815E-02	1.718182E-04
5.182266E+03	1.856351E-02	1.741267E-04
5.192118E+03	1.882040E-02	1.767424E-04
5.201970E+03	1.910782E-02	1.796571E-04
5.211823E+03	1.942334E-02	1.828495E-04
5.221675E+03	1.976230E-02	1.862770E-04
5.231527E+03	2.011856E-02	1.898827E-04
5.241379E+03	2.048275E-02	1.935793E-04
5.251232E+03	2.084377E-02	1.972627E-04
5.261084E+03	2.118819E-02	2.008057E-04
5.270936E+03	2.150153E-02	2.040710E-04
5.280788E+03	2.176886E-02	2.069156E-04
5.290640E+03	2.197678E-02	2.092108E-04
5.300493E+03	2.211317E-02	2.108385E-04
5.310345E+03	2.217038E-02	2.117225E-04
5.320197E+03	2.214540E-02	2.118300E-04
5.330049E+03	2.204113E-02	2.111842E-04
5.339901E+03	2.186649E-02	2.098665E-04
5.349754E+03	2.163680E-02	2.080199E-04
5.359606E+03	2.137283E-02	2.058409E-04
5.369458E+03	2.109965E-02	2.035692E-04
5.379310E+03	2.084551E-02	2.014766E-04
5.389163E+03	2.063972E-02	1.998473E-04
5.399015E+03	2.051014E-02	1.989535E-04
5.408867E+03	2.047870E-02	1.990117E-04
5.418719E+03	2.055221E-02	2.000932E-04
5.428571E+03	2.071559E-02	2.020561E-04
5.438424E+03	2.094164E-02	2.046390E-04
5.448276E+03	2.119842E-02	2.075323E-04
5.458128E+03	2.145553E-02	2.104393E-04
5.467980E+03	2.168616E-02	2.130961E-04
5.477833E+03	2.186824E-02	2.152837E-04
5.487685E+03	2.198699E-02	2.168532E-04
5.497537E+03	2.203442E-02	2.177221E-04
5.507389E+03	2.200788E-02	2.178597E-04
5.517241E+03	2.190966E-02	2.172845E-04
5.527094E+03	2.174418E-02	2.160363E-04
5.536946E+03	2.151521E-02	2.141486E-04
5.546798E+03	2.122589E-02	2.116491E-04
5.556650E+03	2.087680E-02	2.085402E-04
5.566502E+03	2.046642E-02	2.048036E-04
5.576355E+03	1.999382E-02	2.004263E-04
5.586207E+03	1.945920E-02	1.954072E-04
5.596059E+03	1.886621E-02	1.897798E-04
5.605911E+03	1.822402E-02	1.836336E-04
5.615764E+03	1.754722E-02	1.771133E-04
5.625616E+03	1.685605E-02	1.704221E-04
5.635468E+03	1.617434E-02	1.638008E-04
5.645320E+03	1.552760E-02	1.575088E-04
5.655172E+03	1.494063E-02	1.518003E-04
5.665025E+03	1.443582E-02	1.469062E-04
5.674877E+03	1.403121E-02	1.430145E-04
5.684729E+03	1.374100E-02	1.402752E-04
5.694581E+03	1.357453E-02	1.387896E-04
5.704433E+03	1.353732E-02	1.386200E-04
5.714286E+03	1.363152E-02	1.397944E-04
5.724138E+03	1.385592E-02	1.423067E-04
5.733990E+03	1.420622E-02	1.461182E-04
5.743842E+03	1.467477E-02	1.511559E-04
5.753695E+03	1.525031E-02	1.573086E-04
5.763547E+03	1.591762E-02	1.644235E-04
5.773399E+03	1.665761E-02	1.723071E-04
5.783251E+03	1.744723E-02	1.807233E-04
5.793103E+03	1.826012E-02	1.894006E-04
5.802956E+03	1.906835E-02	1.980496E-04
5.812808E+03	1.984347E-02	2.063741E-04
5.822660E+03	2.055880E-02	2.140946E-04
5.832512E+03	2.119070E-02	2.209621E-04
5.842365E+03	2.172114E-02	2.267848E-04
5.852217E+03	2.213812E-02	2.314333E-04
5.862069E+03	2.243634E-02	2.348475E-04
5.871921E+03	2.261702E-02	2.370358E-04
5.881773E+03	2.268635E-02	2.380585E-04
5.891626E+03	2.265402E-02	2.380134E-04
5.901478E+03	2.253274E-02	2.370305E-04
5.911330E+03	2.233541E-02	2.352424E-04
5.921182E+03	2.207540E-02	2.327874E-04
5.931034E+03	2.176524E-02	2.297959E-04
5.940887E+03	2.141667E-02	2.263902E-04
5.950739E+03	2.104085E-02	2.226871E-04
5.960591E+03	2.064805E-02	2.187950E-04
5.970443E+03	2.024696E-02	2.148052E-04
5.980296E+03	1.984622E-02	2.108099E-04
5.990148E+03	1.945281E-02	2.068833E-04
6.000000E+03	1.907253E-02	2.030877E-04
6.009852E+03	1.870936E-02	1.994661E-04
6.019704E+03	1.836584E-02	1.960467E-04
6.029557E+03	1.804253E-02	1.928363E-04
6.039409E+03	1.773955E-02	1.898371E-04
6.049261E+03	1.745546E-02	1.870348E-04
6.059113E+03	1.718853E-02	1.844115E-04
6.068966E+03	1.693799E-02	1.819601E-04
6.078818E+03	1.670309E-02	1.796732E-04
6.088670E+03	1.648496E-02	1.775636E-04
6.098522E+03	1.628436E-02	1.756405E-04
6.108374E+03	1.610208E-02	1.739130E-04
6.118227E+03	1.593694E-02	1.723685E-04
6.128079E+03	1.578704E-02	1.709870E-04
6.137931E+03	1.565031E-02	1.697461E-04
6.147783E+03	1.552440E-02	1.686206E-04
6.157635E+03	1.540688E-02	1.675843E-04
6.167488E+03	1.529624E-02	1.666206E-04
6.177340E+03	1.519082E-02	1.657115E-04
6.187192E+03	1.509109E-02	1.648619E-04
6.197044E+03	1.499859E-02	1.640886E-04
6.206897E+03	1.491644E-02	1.634259E-04
6.216749E+03	1.484796E-02	1.629103E-04
6.226601E+03	1.479629E-02	1.625768E-04
6.236453E+03	1.476424E-02	1.624567E-04
6.246305E+03	1.475233E-02	1.625564E-04
6.256158E+03	1.475967E-02	1.628668E-04
6.266010E+03	1.478400E-02	1.633634E-04
6.275862E+03	1.482073E-02	1.639960E-04
6.285714E+03	1.486476E-02	1.647084E-04
6.295567E+03	1.491000E-02	1.654329E-04
6.305419E+03	1.495082E-02	1.661070E-04
6.315271E+03	1.498105E-02	1.666613E-04
6.325123E+03	1.499568E-02	1.670396E-04
6.334975E+03	1.499030E-02	1.671913E-04
6.344828E+03	1.496094E-02	1.670714E-04
6.354680E+03	1.490556E-02	1.666557E-04
6.364532E+03	1.482272E-02	1.659268E-04
6.374384E+03	1.471260E-02	1.648857E-04
6.384236E+03	1.457686E-02	1.635496E-04
6.394089E+03	1.441940E-02	1.619612E-04
6.403941E+03	1.424558E-02	1.601803E-04
6.413793E+03	1.406298E-02	1.582914E-04
6.423645E+03	1.388007E-02	1.563896E-04
6.433498E+03	1.370714E-02	1.545910E-04
6.443350E+03	1.355428E-02	1.530100E-04
6.453202E+03	1.343137E-02	1.517588E-04
6.463054E+03	1.334785E-02	1.509450E-04
6.472906E+03	1.331137E-02	1.506566E-04
6.482759E+03	1.332828E-02	1.509664E-04
6.492611E+03	1.340247E-02	1.519201E-04
6.502463E+03	1.353591E-02	1.535411E-04
6.512315E+03	1.372856E-02	1.558302E-04
6.522167E+03	1.397756E-02	1.587558E-04
6.532020E+03	1.427874E-02	1.622714E-04
6.541872E+03	1.462532E-02	1.663002E-04
6.551724E+03	1.500888E-02	1.707470E-04
6.561576E+03	1.541945E-02	1.754983E-04
6.571429E+03	1.584612E-02	1.804294E-04
6.581281E+03	1.627644E-02	1.853982E-04
6.591133E+03	1.669837E-02	1.902670E-04
6.600985E+03	1.710012E-02	1.949006E-04
6.610837E+03	1.747007E-02	1.991656E-04
6.620690E+03	1.779771E-02	2.029415E-04
6.630542E+03	1.807492E-02	2.061349E-04
6.640394E+03	1.829485E-02	2.086668E-04
6.650246E+03	1.845203E-02	2.104747E-04
6.660099E+03	1.854424E-02	2.115325E-04
6.669951E+03	1.857031E-02	2.118269E-04
6.679803E+03	1.853121E-02	2.113691E-04
6.689655E+03	1.842979E-02	2.101917E-04
6.699507E+03	1.826965E-02	2.083362E-04
6.709360E+03	1.805608E-02	2.058638E-04
6.719212E+03	1.779475E-02	2.028395E-04
6.729064E+03	1.749270E-02	1.993444E-04
6.738916E+03	1.715705E-02	1.954609E-04
6.748768E+03	1.679618E-02	1.912849E-04
6.758621E+03	1.641864E-02	1.869151E-04
6.768473E+03	1.603316E-02	1.824513E-04
6.778325E+03	1.564922E-02	1.780023E-04
6.788177E+03	1.527583E-02	1.736711E-04
6.798030E+03	1.492252E-02	1.695665E-04
6.807882E+03	1.459735E-02	1.657801E-04
6.817734E+03	1.430837E-02	1.624036E-04
6.827586E+03	1.406242E-02	1.595141E-04
6.837438E+03	1.386507E-02	1.571746E-04
6.847291E+03	1.372052E-02	1.554317E-04
6.857143E+03	1.363138E-02	1.543143E-04
6.866995E+03	1.359859E-02	1.538321E-04
6.876847E+03	1.362136E-02	1.539749E-04
6.886700E+03	1.369688E-02	1.547099E-04
6.896552E+03	1.382131E-02	1.559926E-04
6.906404E+03	1.398841E-02	1.577516E-04
6.916256E+03	1.419063E-02	1.599009E-04
6.926108E+03	1.441942E-02	1.623433E-04
6.935961E+03	1.466444E-02	1.649621E-04
6.945813E+03	1.491588E-02	1.676469E-04
6.955665E+03	1.516307E-02	1.702779E-04
6.965517E+03	1.539609E-02	1.727445E-04
6.975369E+03	1.560607E-02	1.749477E-04
6.985222E+03	1.578594E-02	1.768097E-04
6.995074E+03	1.592996E-02	1.782676E-04
7.004926E+03	1.603516E-02	1.792897E-04
7.014778E+03	1.610025E-02	1.798632E-04
7.024631E+03	1.612643E-02	1.800031E-04
7.034483E+03	1.611717E-02	1.797500E-04
7.044335E+03	1.607726E-02	1.791587E-04
7.054187E+03	1.601229E-02	1.782926E-04
7.064039E+03	1.592906E-02	1.772288E-04
7.073892E+03	1.583384E-02	1.760379E-04
7.083744E+03	1.573315E-02	1.747931E-04
7.093596E+03	1.563245E-02	1.735557E-04
7.103448E+03	1.553626E-02	1.723763E-04
7.113300E+03	1.544802E-02	1.712935E-04
7.123153E+03	1.537011E-02	1.703340E-04
7.133005E+03	1.530362E-02	1.695102E-04
7.142857E+03	1.524966E-02	1.688346E-04
7.152709E+03	1.520763E-02	1.683011E-04
7.162562E+03	1.517652E-02	1.678990E-04
7.172414E+03	1.515498E-02	1.676136E-04
7.182266E+03	1.514040E-02	1.674169E-04
7.192118E+03	1.513022E-02	1.672808E-04
7.201970E+03	1.512103E-02	1.671686E-04
7.211823E+03	1.510903E-02	1.670389E-04
7.221675E+03	1.509020E-02	1.668477E-04
7.231527E+03	1.506081E-02	1.665546E-04
7.241379E+03	1.501673E-02	1.661146E-04
7.251232E+03	1.495531E-02	1.654985E-04
7.261084E+03	1.487431E-02	1.646820E-04
7.270936E+03	1.477149E-02	1.636405E-04
7.280788E+03	1.464731E-02	1.623787E-04
7.290640E+03	1.450242E-02	1.609039E-04
7.300493E+03	1.433898E-02	1.592395E-04
7.310345E+03	1.415990E-02	1.574173E-04
7.320197E+03	1.396944E-02	1.554841E-04
7.330049E+03	1.377205E-02	1.534889E-04
7.339901E+03	1.357265E-02	1.514863E-04
7.349754E+03	1.337764E-02	1.495472E-04
7.359606E+03	1.319284E-02	1.477368E-04
7.369458E+03	1.302468E-02	1.461276E-04
7.379310E+03	1.287845E-02	1.447797E-04
7.389163E+03	1.275889E-02	1.437481E-04
7.399015E+03	1.266757E-02	1.430522E-04
7.408867E+03	1.260091E-02	1.426539E-04
7.418719E+03	1.255160E-02	1.424725E-04
7.428571E+03	1.250934E-02	1.423924E-04
7.438424E+03	1.246376E-02	1.422962E-04
7.448276E+03	1.240587E-02	1.420810E-04
7.458128E+03	1.232816E-02	1.416590E-04
7.467980E+03	1.222597E-02	1.409740E-04
7.477833E+03	1.209742E-02	1.400002E-04
7.487685E+03	1.194329E-02	1.387422E-04
7.497537E+03	1.176671E-02	1.372318E-04
7.507389E+03	1.157271E-02	1.355236E-04
7.517241E+03	1.136776E-02	1.336896E-04
7.527094E+03	1.115926E-02	1.318140E-04
7.536946E+03	1.095509E-02	1.299882E-04
7.546798E+03	1.076313E-02	1.283053E-04
7.556650E+03	1.059087E-02	1.268556E-04
7.566502E+03	1.044527E-02	1.257253E-04
7.576355E+03	1.033149E-02	1.249799E-04
7.586207E+03	1.025435E-02	1.246832E-04
7.596059E+03	1.021623E-02	1.248702E-04
7.605911E+03	1.021899E-02	1.255705E-04
7.615764E+03	1.026220E-02	1.267868E-04
7.625616E+03	1.034452E-02	1.285101E-04
7.635468E+03	1.046274E-02	1.307082E-04
7.645320E+03	1.061272E-02	1.333369E-04
