#wls	flux	fluxerr
1.576355E+03	1.379315E-04	4.754423E-06
1.615764E+03	1.415987E-04	4.854500E-06
1.655172E+03	1.446327E-04	4.931107E-06
1.694581E+03	1.469965E-04	4.983320E-06
1.733990E+03	1.485984E-04	5.008400E-06
1.773399E+03	1.492444E-04	5.000282E-06
1.812808E+03	1.486328E-04	4.949485E-06
1.852217E+03	1.465209E-04	4.848755E-06
1.891626E+03	1.426218E-04	4.689607E-06
1.931034E+03	1.368993E-04	4.472040E-06
1.970443E+03	1.296454E-04	4.206769E-06
2.009852E+03	1.217704E-04	3.924207E-06
2.049261E+03	1.148841E-04	3.676372E-06
2.088670E+03	1.109201E-04	3.524106E-06
2.128079E+03	1.115252E-04	3.517382E-06
2.167488E+03	1.174799E-04	3.677444E-06
2.206897E+03	1.285128E-04	3.992013E-06
2.246305E+03	1.437479E-04	4.430334E-06
2.285714E+03	1.619039E-04	4.950027E-06
2.325123E+03	1.819283E-04	5.516847E-06
2.364532E+03	2.029899E-04	6.104218E-06
2.403941E+03	2.245639E-04	6.695533E-06
2.443350E+03	2.464852E-04	7.285337E-06
2.482759E+03	2.685665E-04	7.867714E-06
2.522167E+03	2.909100E-04	8.445351E-06
2.561576E+03	3.135934E-04	9.020132E-06
2.600985E+03	3.366130E-04	9.591558E-06
2.640394E+03	3.601565E-04	1.016454E-05
2.679803E+03	3.842582E-04	1.073953E-05
2.719212E+03	4.089850E-04	1.131785E-05
2.758621E+03	4.343271E-04	1.189866E-05
2.798030E+03	4.603061E-04	1.248202E-05
2.837438E+03	4.869851E-04	1.306911E-05
2.876847E+03	5.142130E-04	1.365537E-05
2.916256E+03	5.420668E-04	1.424244E-05
2.955665E+03	5.706096E-04	1.483158E-05
2.965517E+03	5.778424E-04	1.497887E-05
2.975369E+03	5.850750E-04	1.512513E-05
2.985222E+03	5.924474E-04	1.527399E-05
2.995074E+03	5.998315E-04	1.542212E-05
3.004926E+03	6.073518E-04	1.557272E-05
3.014778E+03	6.150651E-04	1.572722E-05
3.024631E+03	6.228809E-04	1.588327E-05
3.034483E+03	6.309286E-04	1.604414E-05
3.044335E+03	6.390455E-04	1.620567E-05
3.054187E+03	6.473647E-04	1.637121E-05
3.064039E+03	6.557228E-04	1.653661E-05
3.073892E+03	6.642564E-04	1.670529E-05
3.083744E+03	6.728776E-04	1.687503E-05
3.093596E+03	6.815740E-04	1.704550E-05
3.103448E+03	6.903335E-04	1.721638E-05
3.113300E+03	6.992220E-04	1.738932E-05
3.123153E+03	7.082300E-04	1.756406E-05
3.133005E+03	7.172692E-04	1.773839E-05
3.142857E+03	7.263294E-04	1.791207E-05
3.152709E+03	7.355590E-04	1.808875E-05
3.162562E+03	7.447908E-04	1.826431E-05
3.172414E+03	7.540955E-04	1.844047E-05
3.182266E+03	7.634643E-04	1.861703E-05
3.192118E+03	7.729699E-04	1.879574E-05
3.201970E+03	7.825237E-04	1.897444E-05
3.211823E+03	7.921174E-04	1.915294E-05
3.221675E+03	8.017426E-04	1.933102E-05
3.231527E+03	8.115546E-04	1.951244E-05
3.241379E+03	8.213820E-04	1.969305E-05
3.251232E+03	8.312984E-04	1.987462E-05
3.261084E+03	8.412951E-04	2.005694E-05
3.270936E+03	8.514460E-04	2.024176E-05
3.280788E+03	8.616594E-04	2.042690E-05
3.290640E+03	8.719246E-04	2.061211E-05
3.300493E+03	8.823144E-04	2.079909E-05
3.310345E+03	8.928173E-04	2.098758E-05
3.320197E+03	9.035037E-04	2.117922E-05
3.330049E+03	9.141931E-04	2.136976E-05
3.339901E+03	9.250364E-04	2.156275E-05
3.349754E+03	9.360159E-04	2.175775E-05
3.359606E+03	9.470276E-04	2.195235E-05
3.369458E+03	9.582157E-04	2.214990E-05
3.379310E+03	9.694692E-04	2.234781E-05
3.389163E+03	9.807566E-04	2.254538E-05
3.399015E+03	9.922078E-04	2.274559E-05
3.408867E+03	1.003612E-03	2.294362E-05
3.418719E+03	1.015001E-03	2.314022E-05
3.428571E+03	1.026312E-03	2.333399E-05
3.438424E+03	1.037554E-03	2.352515E-05
3.448276E+03	1.048636E-03	2.371170E-05
3.458128E+03	1.059447E-03	2.389121E-05
3.467980E+03	1.069856E-03	2.406075E-05
3.477833E+03	1.079697E-03	2.421675E-05
3.487685E+03	1.088850E-03	2.435661E-05
3.497537E+03	1.096987E-03	2.447317E-05
3.507389E+03	1.103962E-03	2.456342E-05
3.517241E+03	1.109263E-03	2.461616E-05
3.527094E+03	1.112660E-03	2.462666E-05
3.536946E+03	1.113765E-03	2.458668E-05
3.546798E+03	1.112593E-03	2.449699E-05
3.556650E+03	1.109334E-03	2.436211E-05
3.566502E+03	1.104488E-03	2.419341E-05
3.576355E+03	1.098497E-03	2.400078E-05
3.586207E+03	1.091756E-03	2.379300E-05
3.596059E+03	1.084671E-03	2.357899E-05
3.605911E+03	1.077397E-03	2.336217E-05
3.615764E+03	1.070309E-03	2.315065E-05
3.625616E+03	1.063554E-03	2.294756E-05
3.635468E+03	1.057377E-03	2.275811E-05
3.645320E+03	1.051883E-03	2.258441E-05
3.655172E+03	1.047222E-03	2.242957E-05
3.665025E+03	1.043588E-03	2.229759E-05
3.674877E+03	1.041107E-03	2.219098E-05
3.684729E+03	1.039899E-03	2.211211E-05
3.694581E+03	1.040031E-03	2.206219E-05
3.704433E+03	1.041621E-03	2.204349E-05
3.714286E+03	1.044836E-03	2.205931E-05
3.724138E+03	1.049789E-03	2.211182E-05
3.733990E+03	1.056598E-03	2.220320E-05
3.743842E+03	1.065286E-03	2.233367E-05
3.753695E+03	1.076119E-03	2.250851E-05
3.763547E+03	1.089080E-03	2.272704E-05
3.773399E+03	1.104388E-03	2.299356E-05
3.783251E+03	1.122173E-03	2.331040E-05
3.793103E+03	1.142471E-03	2.367797E-05
3.802956E+03	1.165456E-03	2.409951E-05
3.812808E+03	1.191295E-03	2.457813E-05
3.822660E+03	1.220012E-03	2.511391E-05
3.832512E+03	1.251706E-03	2.570850E-05
3.842365E+03	1.286551E-03	2.636506E-05
3.852217E+03	1.324457E-03	2.708134E-05
3.862069E+03	1.365531E-03	2.785915E-05
3.871921E+03	1.409691E-03	2.869637E-05
3.881773E+03	1.456840E-03	2.959066E-05
3.891626E+03	1.506759E-03	3.053720E-05
3.901478E+03	1.559245E-03	3.153150E-05
3.911330E+03	1.613899E-03	3.256522E-05
3.921182E+03	1.670324E-03	3.363012E-05
3.931034E+03	1.727869E-03	3.471289E-05
3.940887E+03	1.785888E-03	3.580045E-05
3.950739E+03	1.843710E-03	3.687935E-05
3.960591E+03	1.900497E-03	3.793290E-05
3.970443E+03	1.955443E-03	3.894521E-05
3.980296E+03	2.007750E-03	3.990070E-05
3.990148E+03	2.056617E-03	4.078380E-05
4.000000E+03	2.101449E-03	4.158322E-05
4.009852E+03	2.141617E-03	4.228706E-05
4.019704E+03	2.176768E-03	4.288897E-05
4.029557E+03	2.206790E-03	4.338738E-05
4.039409E+03	2.231709E-03	4.378348E-05
4.049261E+03	2.251636E-03	4.408006E-05
4.059113E+03	2.266972E-03	4.428559E-05
4.068966E+03	2.278329E-03	4.441257E-05
4.078818E+03	2.286336E-03	4.447372E-05
4.088670E+03	2.291710E-03	4.448340E-05
4.098522E+03	2.295346E-03	4.445924E-05
4.108374E+03	2.298100E-03	4.441801E-05
4.118227E+03	2.300737E-03	4.437455E-05
4.128079E+03	2.304148E-03	4.434604E-05
4.137931E+03	2.309133E-03	4.434773E-05
4.147783E+03	2.316331E-03	4.439166E-05
4.157635E+03	2.326505E-03	4.449218E-05
4.167488E+03	2.340172E-03	4.465876E-05
4.177340E+03	2.357743E-03	4.489881E-05
4.187192E+03	2.379593E-03	4.521900E-05
4.197044E+03	2.405802E-03	4.562032E-05
4.206897E+03	2.436465E-03	4.610404E-05
4.216749E+03	2.471284E-03	4.666404E-05
4.226601E+03	2.509827E-03	4.729165E-05
4.236453E+03	2.551452E-03	4.797437E-05
4.246305E+03	2.595153E-03	4.869298E-05
4.256158E+03	2.639692E-03	4.942408E-05
4.266010E+03	2.683579E-03	5.013969E-05
4.275862E+03	2.725078E-03	5.080759E-05
4.285714E+03	2.762405E-03	5.139486E-05
4.295567E+03	2.793839E-03	5.187005E-05
4.305419E+03	2.817952E-03	5.220744E-05
4.315271E+03	2.833592E-03	5.238655E-05
4.325123E+03	2.840540E-03	5.240438E-05
4.334975E+03	2.839100E-03	5.226754E-05
4.344828E+03	2.830357E-03	5.199694E-05
4.354680E+03	2.816137E-03	5.162691E-05
4.364532E+03	2.798463E-03	5.119509E-05
4.374384E+03	2.779658E-03	5.074430E-05
4.384236E+03	2.761975E-03	5.031572E-05
4.394089E+03	2.747460E-03	4.994638E-05
4.403941E+03	2.737904E-03	4.966844E-05
4.413793E+03	2.734933E-03	4.951077E-05
4.423645E+03	2.739698E-03	4.949338E-05
4.433498E+03	2.753135E-03	4.963227E-05
4.443350E+03	2.775923E-03	4.993870E-05
4.453202E+03	2.808340E-03	5.041659E-05
4.463054E+03	2.850536E-03	5.106758E-05
4.472906E+03	2.902173E-03	5.188453E-05
4.482759E+03	2.962865E-03	5.285951E-05
4.492611E+03	3.031675E-03	5.397487E-05
4.502463E+03	3.107534E-03	5.521072E-05
4.512315E+03	3.189005E-03	5.654085E-05
4.522167E+03	3.274473E-03	5.793610E-05
4.532020E+03	3.362086E-03	5.936335E-05
4.541872E+03	3.449758E-03	6.078564E-05
4.551724E+03	3.535503E-03	6.216811E-05
4.561576E+03	3.617308E-03	6.347565E-05
4.571429E+03	3.693434E-03	6.467831E-05
4.581281E+03	3.762295E-03	6.574899E-05
4.591133E+03	3.822879E-03	6.667088E-05
4.600985E+03	3.874441E-03	6.743195E-05
4.610837E+03	3.916811E-03	6.803022E-05
4.620690E+03	3.950325E-03	6.847253E-05
4.630542E+03	3.975578E-03	6.877015E-05
4.640394E+03	3.993420E-03	6.893865E-05
4.650246E+03	4.004677E-03	6.899307E-05
4.660099E+03	4.009882E-03	6.894326E-05
4.669951E+03	4.009092E-03	6.879086E-05
4.679803E+03	4.002233E-03	6.853527E-05
4.689655E+03	3.989046E-03	6.817266E-05
4.699507E+03	3.969293E-03	6.769967E-05
4.709360E+03	3.943021E-03	6.711778E-05
4.719212E+03	3.910500E-03	6.643221E-05
4.729064E+03	3.872331E-03	6.565383E-05
4.738916E+03	3.829471E-03	6.479936E-05
4.748768E+03	3.783227E-03	6.389138E-05
4.758621E+03	3.735275E-03	6.295841E-05
4.768473E+03	3.687418E-03	6.203101E-05
4.778325E+03	3.641760E-03	6.114446E-05
4.788177E+03	3.600601E-03	6.033705E-05
4.798030E+03	3.566108E-03	5.964461E-05
4.807882E+03	3.540492E-03	5.910330E-05
4.817734E+03	3.525925E-03	5.874845E-05
4.827586E+03	3.524273E-03	5.861001E-05
4.837438E+03	3.537194E-03	5.871427E-05
4.847291E+03	3.566081E-03	5.908289E-05
4.857143E+03	3.611870E-03	5.972990E-05
4.866995E+03	3.675124E-03	6.066297E-05
4.876847E+03	3.755855E-03	6.188076E-05
4.886700E+03	3.853344E-03	6.336982E-05
4.896552E+03	3.966186E-03	6.510559E-05
4.906404E+03	4.092034E-03	6.704827E-05
4.916256E+03	4.227769E-03	6.914570E-05
4.926108E+03	4.369297E-03	7.133019E-05
4.935961E+03	4.511704E-03	7.352120E-05
4.945813E+03	4.649648E-03	7.563178E-05
4.955665E+03	4.777625E-03	7.757301E-05
4.965517E+03	4.890287E-03	7.925911E-05
4.975369E+03	4.983339E-03	8.062196E-05
4.985222E+03	5.053487E-03	8.161010E-05
4.995074E+03	5.099165E-03	8.220030E-05
5.004926E+03	5.120466E-03	8.239616E-05
5.014778E+03	5.119085E-03	8.222701E-05
5.024631E+03	5.098097E-03	8.174413E-05
5.034483E+03	5.061368E-03	8.101100E-05
5.044335E+03	5.013295E-03	8.009925E-05
5.054187E+03	4.958234E-03	7.907928E-05
5.064039E+03	4.900126E-03	7.801439E-05
5.073892E+03	4.842497E-03	7.696087E-05
5.083744E+03	4.788014E-03	7.596096E-05
5.093596E+03	4.738685E-03	7.504618E-05
5.103448E+03	4.695864E-03	7.423748E-05
5.113300E+03	4.660417E-03	7.354800E-05
5.123153E+03	4.632650E-03	7.298191E-05
5.133005E+03	4.612855E-03	7.254316E-05
5.142857E+03	4.600924E-03	7.222943E-05
5.152709E+03	4.596817E-03	7.203940E-05
5.162562E+03	4.600542E-03	7.197259E-05
5.172414E+03	4.612107E-03	7.202848E-05
5.182266E+03	4.631484E-03	7.220601E-05
5.192118E+03	4.658721E-03	7.250532E-05
5.201970E+03	4.693686E-03	7.292373E-05
5.211823E+03	4.736227E-03	7.345830E-05
5.221675E+03	4.785776E-03	7.409965E-05
5.231527E+03	4.841571E-03	7.483546E-05
5.241379E+03	4.902632E-03	7.565019E-05
5.251232E+03	4.967450E-03	7.652019E-05
5.261084E+03	5.034371E-03	7.741977E-05
5.270936E+03	5.101417E-03	7.831847E-05
5.280788E+03	5.166608E-03	7.918597E-05
5.290640E+03	5.228016E-03	7.999296E-05
5.300493E+03	5.283727E-03	8.071055E-05
5.310345E+03	5.332567E-03	8.132134E-05
5.320197E+03	5.373709E-03	8.181328E-05
5.330049E+03	5.407327E-03	8.218969E-05
5.339901E+03	5.434217E-03	8.246325E-05
5.349754E+03	5.456434E-03	8.266561E-05
5.359606E+03	5.476678E-03	8.283793E-05
5.369458E+03	5.498356E-03	8.303180E-05
5.379310E+03	5.525412E-03	8.330655E-05
5.389163E+03	5.561817E-03	8.372156E-05
5.399015E+03	5.611134E-03	8.432968E-05
5.408867E+03	5.676096E-03	8.517098E-05
5.418719E+03	5.757609E-03	8.625792E-05
5.428571E+03	5.854314E-03	8.756902E-05
5.438424E+03	5.963048E-03	8.905597E-05
5.448276E+03	6.079259E-03	9.065008E-05
5.458128E+03	6.197941E-03	9.227630E-05
5.467980E+03	6.313708E-03	9.385445E-05
5.477833E+03	6.421233E-03	9.530566E-05
5.487685E+03	6.516031E-03	9.656407E-05
5.497537E+03	6.594323E-03	9.757465E-05
5.507389E+03	6.653472E-03	9.829957E-05
5.517241E+03	6.691927E-03	9.871725E-05
5.527094E+03	6.709166E-03	9.882143E-05
5.536946E+03	6.705237E-03	9.861424E-05
5.546798E+03	6.680726E-03	9.810566E-05
5.556650E+03	6.636207E-03	9.730550E-05
5.566502E+03	6.572336E-03	9.622467E-05
5.576355E+03	6.489596E-03	9.487149E-05
5.586207E+03	6.388660E-03	9.325700E-05
5.596059E+03	6.270702E-03	9.139948E-05
5.605911E+03	6.137609E-03	8.932746E-05
5.615764E+03	5.992204E-03	8.708293E-05
5.625616E+03	5.838716E-03	8.472801E-05
5.635468E+03	5.682256E-03	8.233723E-05
5.645320E+03	5.528829E-03	7.999765E-05
5.655172E+03	5.384651E-03	7.779882E-05
5.665025E+03	5.256087E-03	7.583201E-05
5.674877E+03	5.148919E-03	7.417946E-05
5.684729E+03	5.068294E-03	7.291391E-05
5.694581E+03	5.018485E-03	7.209509E-05
5.704433E+03	5.003043E-03	7.177208E-05
5.714286E+03	5.024469E-03	7.197863E-05
5.724138E+03	5.084550E-03	7.273815E-05
5.733990E+03	5.184112E-03	7.406017E-05
5.743842E+03	5.323127E-03	7.594207E-05
5.753695E+03	5.500401E-03	7.836465E-05
5.763547E+03	5.713639E-03	8.129314E-05
5.773399E+03	5.959038E-03	8.467163E-05
5.783251E+03	6.231596E-03	8.842753E-05
5.793103E+03	6.524661E-03	9.246527E-05
5.802956E+03	6.830463E-03	9.667399E-05
5.812808E+03	7.140158E-03	1.009283E-04
5.822660E+03	7.444205E-03	1.050935E-04
5.832512E+03	7.733095E-03	1.090362E-04
5.842365E+03	7.997562E-03	1.126270E-04
5.852217E+03	8.229684E-03	1.157561E-04
5.862069E+03	8.422776E-03	1.183315E-04
5.871921E+03	8.572309E-03	1.202919E-04
5.881773E+03	8.675666E-03	1.216029E-04
5.891626E+03	8.732378E-03	1.222604E-04
5.901478E+03	8.743861E-03	1.222867E-04
5.911330E+03	8.713119E-03	1.217259E-04
5.921182E+03	8.644322E-03	1.206381E-04
5.931034E+03	8.542606E-03	1.190968E-04
5.940887E+03	8.413659E-03	1.171824E-04
5.950739E+03	8.263430E-03	1.149790E-04
5.960591E+03	8.097780E-03	1.125687E-04
5.970443E+03	7.922443E-03	1.100317E-04
5.980296E+03	7.742751E-03	1.074422E-04
5.990148E+03	7.563419E-03	1.048657E-04
6.000000E+03	7.388566E-03	1.023590E-04
6.009852E+03	7.221482E-03	9.996742E-05
6.019704E+03	7.064748E-03	9.772622E-05
6.029557E+03	6.919864E-03	9.565570E-05
6.039409E+03	6.787770E-03	9.376839E-05
6.049261E+03	6.668408E-03	9.206300E-05
6.059113E+03	6.561434E-03	9.053439E-05
6.068966E+03	6.466197E-03	8.917318E-05
6.078818E+03	6.382087E-03	8.797066E-05
6.088670E+03	6.308801E-03	8.692235E-05
6.098522E+03	6.246087E-03	8.602456E-05
6.108374E+03	6.193559E-03	8.527178E-05
6.118227E+03	6.150723E-03	8.465706E-05
6.128079E+03	6.116953E-03	8.417151E-05
6.137931E+03	6.091361E-03	8.380269E-05
6.147783E+03	6.072906E-03	8.353598E-05
6.157635E+03	6.060415E-03	8.335506E-05
6.167488E+03	6.052476E-03	8.324035E-05
6.177340E+03	6.047845E-03	8.317459E-05
6.187192E+03	6.045205E-03	8.313950E-05
6.197044E+03	6.043543E-03	8.312104E-05
6.206897E+03	6.042080E-03	8.310837E-05
6.216749E+03	6.040215E-03	8.309308E-05
6.226601E+03	6.037580E-03	8.306999E-05
6.236453E+03	6.033781E-03	8.303355E-05
6.246305E+03	6.028662E-03	8.298147E-05
6.256158E+03	6.021672E-03	8.290602E-05
6.266010E+03	6.012424E-03	8.280172E-05
6.275862E+03	6.000086E-03	8.265698E-05
6.285714E+03	5.983913E-03	8.246133E-05
6.295567E+03	5.963216E-03	8.220511E-05
6.305419E+03	5.937207E-03	8.187726E-05
6.315271E+03	5.905370E-03	8.147043E-05
6.325123E+03	5.867325E-03	8.097913E-05
6.334975E+03	5.822932E-03	8.040124E-05
6.344828E+03	5.772160E-03	7.973603E-05
6.354680E+03	5.715171E-03	7.898550E-05
6.364532E+03	5.652141E-03	7.815184E-05
6.374384E+03	5.583526E-03	7.724110E-05
6.384236E+03	5.509935E-03	7.626147E-05
6.394089E+03	5.432216E-03	7.522448E-05
6.403941E+03	5.351769E-03	7.414930E-05
6.413793E+03	5.270255E-03	7.305879E-05
6.423645E+03	5.189968E-03	7.198467E-05
6.433498E+03	5.113455E-03	7.096218E-05
6.443350E+03	5.043719E-03	7.003302E-05
6.453202E+03	4.983887E-03	6.924071E-05
6.463054E+03	4.937111E-03	6.862923E-05
6.472906E+03	4.906410E-03	6.824080E-05
6.482759E+03	4.894388E-03	6.811196E-05
6.492611E+03	4.903073E-03	6.827136E-05
6.502463E+03	4.933959E-03	6.874023E-05
6.512315E+03	4.987819E-03	6.952983E-05
6.522167E+03	5.064480E-03	7.063822E-05
6.532020E+03	5.163206E-03	7.205565E-05
6.541872E+03	5.282379E-03	7.375996E-05
6.551724E+03	5.419642E-03	7.571865E-05
6.561576E+03	5.571962E-03	7.788969E-05
6.571429E+03	5.735722E-03	8.022278E-05
6.581281E+03	5.906821E-03	8.266073E-05
6.591133E+03	6.080903E-03	8.514264E-05
6.600985E+03	6.253356E-03	8.760390E-05
6.610837E+03	6.419499E-03	8.997880E-05
6.620690E+03	6.575041E-03	9.220694E-05
6.630542E+03	6.715825E-03	9.422971E-05
6.640394E+03	6.838261E-03	9.599635E-05
6.650246E+03	6.939466E-03	9.746589E-05
6.660099E+03	7.017190E-03	9.860626E-05
6.669951E+03	7.069848E-03	9.939462E-05
6.679803E+03	7.096785E-03	9.982125E-05
6.689655E+03	7.097983E-03	9.988534E-05
6.699507E+03	7.074107E-03	9.959576E-05
6.709360E+03	7.026509E-03	9.897105E-05
6.719212E+03	6.956907E-03	9.803501E-05
6.729064E+03	6.867574E-03	9.681926E-05
6.738916E+03	6.761176E-03	9.536111E-05
6.748768E+03	6.640804E-03	9.370389E-05
6.758621E+03	6.509765E-03	9.189407E-05
6.768473E+03	6.371516E-03	8.998036E-05
6.778325E+03	6.229844E-03	8.801619E-05
6.788177E+03	6.088553E-03	8.605532E-05
6.798030E+03	5.951382E-03	8.415068E-05
6.807882E+03	5.822145E-03	8.235639E-05
6.817734E+03	5.704403E-03	8.072301E-05
6.827586E+03	5.601389E-03	7.929657E-05
6.837438E+03	5.516109E-03	7.811997E-05
6.847291E+03	5.451072E-03	7.722907E-05
6.857143E+03	5.408269E-03	7.665250E-05
6.866995E+03	5.389124E-03	7.641089E-05
6.876847E+03	5.394362E-03	7.651495E-05
6.886700E+03	5.424102E-03	7.696683E-05
6.896552E+03	5.477888E-03	7.776055E-05
6.906404E+03	5.554275E-03	7.887607E-05
6.916256E+03	5.651235E-03	8.028502E-05
6.926108E+03	5.766069E-03	8.194950E-05
6.935961E+03	5.895533E-03	8.382379E-05
6.945813E+03	6.035762E-03	8.585331E-05
6.955665E+03	6.182599E-03	8.797922E-05
6.965517E+03	6.331730E-03	9.014036E-05
6.975369E+03	6.478860E-03	9.227581E-05
6.985222E+03	6.619947E-03	9.432805E-05
6.995074E+03	6.751305E-03	9.624466E-05
7.004926E+03	6.869963E-03	9.798325E-05
7.014778E+03	6.973818E-03	9.951374E-05
7.024631E+03	7.061388E-03	1.008149E-04
7.034483E+03	7.132457E-03	1.018834E-04
7.044335E+03	7.187333E-03	1.027236E-04
7.054187E+03	7.227267E-03	1.033531E-04
7.064039E+03	7.254130E-03	1.037985E-04
7.073892E+03	7.270283E-03	1.040935E-04
7.083744E+03	7.278007E-03	1.042707E-04
7.093596E+03	7.279747E-03	1.043651E-04
7.103448E+03	7.277755E-03	1.044089E-04
7.113300E+03	7.273971E-03	1.044301E-04
7.123153E+03	7.269836E-03	1.044495E-04
7.133005E+03	7.266462E-03	1.044833E-04
7.142857E+03	7.264531E-03	1.045414E-04
7.152709E+03	7.264326E-03	1.046282E-04
7.162562E+03	7.265580E-03	1.047401E-04
7.172414E+03	7.267885E-03	1.048714E-04
7.182266E+03	7.270629E-03	1.050136E-04
7.192118E+03	7.272678E-03	1.051504E-04
7.201970E+03	7.272855E-03	1.052651E-04
7.211823E+03	7.269821E-03	1.053382E-04
7.221675E+03	7.262115E-03	1.053488E-04
7.231527E+03	7.248052E-03	1.052721E-04
7.241379E+03	7.226167E-03	1.050868E-04
7.251232E+03	7.195123E-03	1.047732E-04
7.261084E+03	7.153814E-03	1.043147E-04
7.270936E+03	7.101381E-03	1.036982E-04
7.280788E+03	7.037396E-03	1.029168E-04
7.290640E+03	6.962013E-03	1.019722E-04
7.300493E+03	6.875921E-03	1.008736E-04
7.310345E+03	6.780350E-03	9.963820E-05
7.320197E+03	6.676953E-03	9.828971E-05
7.330049E+03	6.567837E-03	9.685839E-05
7.339901E+03	6.455721E-03	9.538383E-05
7.349754E+03	6.343326E-03	9.390587E-05
7.359606E+03	6.233664E-03	9.246900E-05
7.369458E+03	6.129636E-03	9.111639E-05
7.379310E+03	6.033908E-03	8.988808E-05
7.389163E+03	5.948703E-03	8.881790E-05
7.399015E+03	5.875121E-03	8.792325E-05
7.408867E+03	5.812577E-03	8.719642E-05
7.418719E+03	5.758865E-03	8.660537E-05
7.428571E+03	5.710833E-03	8.610350E-05
7.438424E+03	5.665210E-03	8.564200E-05
7.448276E+03	5.618805E-03	8.517274E-05
7.458128E+03	5.569103E-03	8.465735E-05
7.467980E+03	5.514005E-03	8.406336E-05
7.477833E+03	5.452294E-03	8.337133E-05
7.487685E+03	5.383488E-03	8.257270E-05
7.497537E+03	5.307983E-03	8.167216E-05
7.507389E+03	5.226810E-03	8.068424E-05
7.517241E+03	5.141783E-03	7.963569E-05
7.527094E+03	5.055420E-03	7.856457E-05
7.536946E+03	4.970480E-03	7.751327E-05
7.546798E+03	4.890126E-03	7.653102E-05
7.556650E+03	4.817405E-03	7.566602E-05
7.566502E+03	4.755579E-03	7.497061E-05
7.576355E+03	4.707294E-03	7.448820E-05
7.586207E+03	4.674960E-03	7.425916E-05
7.596059E+03	4.660393E-03	7.431512E-05
7.605911E+03	4.664737E-03	7.467754E-05
7.615764E+03	4.688697E-03	7.536118E-05
7.625616E+03	4.732056E-03	7.636630E-05
7.635468E+03	4.794204E-03	7.768681E-05
7.645320E+03	4.873645E-03	7.930220E-05
