#wls	flux	fluxerr
1.576355E+03	1.074047E-04	6.710538E-06
1.615764E+03	1.103093E-04	6.833104E-06
1.655172E+03	1.127642E-04	6.923852E-06
1.694581E+03	1.146767E-04	6.977796E-06
1.733990E+03	1.159951E-04	6.992668E-06
1.773399E+03	1.165452E-04	6.959018E-06
1.812808E+03	1.161337E-04	6.866733E-06
1.852217E+03	1.145265E-04	6.703807E-06
1.891626E+03	1.115196E-04	6.460583E-06
1.931034E+03	1.070641E-04	6.136900E-06
1.970443E+03	1.013904E-04	5.748611E-06
2.009852E+03	9.521369E-05	5.338259E-06
2.049261E+03	8.979687E-05	4.976984E-06
2.088670E+03	8.665307E-05	4.746367E-06
2.128079E+03	8.706695E-05	4.711595E-06
2.167488E+03	9.160767E-05	4.896050E-06
2.206897E+03	1.000977E-04	5.281981E-06
2.246305E+03	1.117859E-04	5.822044E-06
2.285714E+03	1.257135E-04	6.460123E-06
2.325123E+03	1.410109E-04	7.147172E-06
2.364532E+03	1.570175E-04	7.846987E-06
2.403941E+03	1.733741E-04	8.540064E-06
2.443350E+03	1.899294E-04	9.218049E-06
2.482759E+03	2.065693E-04	9.874817E-06
2.522167E+03	2.233106E-04	1.051081E-05
2.561576E+03	2.402879E-04	1.113189E-05
2.600985E+03	2.575043E-04	1.173761E-05
2.640394E+03	2.750784E-04	1.233275E-05
2.679803E+03	2.930868E-04	1.291996E-05
2.719212E+03	3.115986E-04	1.350142E-05
2.758621E+03	3.306727E-04	1.407873E-05
2.798030E+03	3.503573E-04	1.465304E-05
2.837438E+03	3.707418E-04	1.522715E-05
2.876847E+03	3.918582E-04	1.580143E-05
2.916256E+03	4.138957E-04	1.638258E-05
2.955665E+03	4.368816E-04	1.697065E-05
2.965517E+03	4.428187E-04	1.712030E-05
2.975369E+03	4.487800E-04	1.726895E-05
2.985222E+03	4.548838E-04	1.742114E-05
2.995074E+03	4.610242E-04	1.757279E-05
3.004926E+03	4.673036E-04	1.772780E-05
3.014778E+03	4.738281E-04	1.789011E-05
3.024631E+03	4.804662E-04	1.805468E-05
3.034483E+03	4.873294E-04	1.822566E-05
3.044335E+03	4.942855E-04	1.839803E-05
3.054187E+03	5.014493E-04	1.857604E-05
3.064039E+03	5.088142E-04	1.875935E-05
3.073892E+03	5.162472E-04	1.894303E-05
3.083744E+03	5.238675E-04	1.913144E-05
3.093596E+03	5.316706E-04	1.932434E-05
3.103448E+03	5.395868E-04	1.951917E-05
3.113300E+03	5.476109E-04	1.971573E-05
3.123153E+03	5.558697E-04	1.991856E-05
3.133005E+03	5.642288E-04	2.012278E-05
3.142857E+03	5.727512E-04	2.033064E-05
3.152709E+03	5.813671E-04	2.053965E-05
3.162562E+03	5.902090E-04	2.075446E-05
3.172414E+03	5.992084E-04	2.097264E-05
3.182266E+03	6.083642E-04	2.119413E-05
3.192118E+03	6.177446E-04	2.142127E-05
3.201970E+03	6.272807E-04	2.165166E-05
3.211823E+03	6.369723E-04	2.188527E-05
3.221675E+03	6.468893E-04	2.212450E-05
3.231527E+03	6.569621E-04	2.236695E-05
3.241379E+03	6.673332E-04	2.261745E-05
3.251232E+03	6.778616E-04	2.287120E-05
3.261084E+03	6.886194E-04	2.313062E-05
3.270936E+03	6.996796E-04	2.339814E-05
3.280788E+03	7.108983E-04	2.366894E-05
3.290640E+03	7.224933E-04	2.395026E-05
3.300493E+03	7.342454E-04	2.423480E-05
3.310345E+03	7.463728E-04	2.452976E-05
3.320197E+03	7.587256E-04	2.483021E-05
3.330049E+03	7.713727E-04	2.513840E-05
3.339901E+03	7.843068E-04	2.545409E-05
3.349754E+03	7.975927E-04	2.577939E-05
3.359606E+03	8.111413E-04	2.611141E-05
3.369458E+03	8.249329E-04	2.644956E-05
3.379310E+03	8.390176E-04	2.679548E-05
3.389163E+03	8.533623E-04	2.714814E-05
3.399015E+03	8.679234E-04	2.750623E-05
3.408867E+03	8.826461E-04	2.786807E-05
3.418719E+03	8.975372E-04	2.823400E-05
3.428571E+03	9.124320E-04	2.859893E-05
3.438424E+03	9.272980E-04	2.896204E-05
3.448276E+03	9.419229E-04	2.931687E-05
3.458128E+03	9.562958E-04	2.966335E-05
3.467980E+03	9.700613E-04	2.999073E-05
3.477833E+03	9.831348E-04	3.029676E-05
3.487685E+03	9.952342E-04	3.057313E-05
3.497537E+03	1.005958E-03	3.080802E-05
3.507389E+03	1.015024E-03	3.099329E-05
3.517241E+03	1.021969E-03	3.111547E-05
3.527094E+03	1.026553E-03	3.116789E-05
3.536946E+03	1.028398E-03	3.113987E-05
3.546798E+03	1.027237E-03	3.102404E-05
3.556650E+03	1.023647E-03	3.083853E-05
3.566502E+03	1.017930E-03	3.059296E-05
3.576355E+03	1.010606E-03	3.030332E-05
3.586207E+03	1.002107E-03	2.998274E-05
3.596059E+03	9.928323E-04	2.964325E-05
3.605911E+03	9.832019E-04	2.929734E-05
3.615764E+03	9.734653E-04	2.895236E-05
3.625616E+03	9.639529E-04	2.861799E-05
3.635468E+03	9.548941E-04	2.830085E-05
3.645320E+03	9.464317E-04	2.800496E-05
3.655172E+03	9.388464E-04	2.773839E-05
3.665025E+03	9.321768E-04	2.750205E-05
3.674877E+03	9.266574E-04	2.730262E-05
3.684729E+03	9.223492E-04	2.714165E-05
3.694581E+03	9.193565E-04	2.702197E-05
3.704433E+03	9.178212E-04	2.694755E-05
3.714286E+03	9.178299E-04	2.692070E-05
3.724138E+03	9.194202E-04	2.694234E-05
3.733990E+03	9.227195E-04	2.701601E-05
3.743842E+03	9.278066E-04	2.714385E-05
3.753695E+03	9.347597E-04	2.732801E-05
3.763547E+03	9.436566E-04	2.757061E-05
3.773399E+03	9.545739E-04	2.787378E-05
3.783251E+03	9.675444E-04	2.823838E-05
3.793103E+03	9.827255E-04	2.866892E-05
3.802956E+03	1.000143E-03	2.916608E-05
3.812808E+03	1.019856E-03	2.973158E-05
3.822660E+03	1.041918E-03	3.036690E-05
3.832512E+03	1.066366E-03	3.107311E-05
3.842365E+03	1.093220E-03	3.185082E-05
3.852217E+03	1.122477E-03	3.269997E-05
3.862069E+03	1.154108E-03	3.361973E-05
3.871921E+03	1.188092E-03	3.460955E-05
3.881773E+03	1.224241E-03	3.566400E-05
3.891626E+03	1.262407E-03	3.677886E-05
3.901478E+03	1.302481E-03	3.795104E-05
3.911330E+03	1.344130E-03	3.917089E-05
3.921182E+03	1.387098E-03	4.043102E-05
3.931034E+03	1.430989E-03	4.172001E-05
3.940887E+03	1.475455E-03	4.302772E-05
3.950739E+03	1.520016E-03	4.434025E-05
3.960591E+03	1.564216E-03	4.564429E-05
3.970443E+03	1.607541E-03	4.692485E-05
3.980296E+03	1.649629E-03	4.817135E-05
3.990148E+03	1.689908E-03	4.936705E-05
4.000000E+03	1.728142E-03	5.050498E-05
4.009852E+03	1.763874E-03	5.157166E-05
4.019704E+03	1.796922E-03	5.256167E-05
4.029557E+03	1.827152E-03	5.347095E-05
4.039409E+03	1.854532E-03	5.429834E-05
4.049261E+03	1.879039E-03	5.504304E-05
4.059113E+03	1.900893E-03	5.571131E-05
4.068966E+03	1.920361E-03	5.631079E-05
4.078818E+03	1.937790E-03	5.685148E-05
4.088670E+03	1.953496E-03	5.734249E-05
4.098522E+03	1.967988E-03	5.779860E-05
4.108374E+03	1.981706E-03	5.823264E-05
4.118227E+03	1.995154E-03	5.865928E-05
4.128079E+03	2.008781E-03	5.909164E-05
4.137931E+03	2.023105E-03	5.954492E-05
4.147783E+03	2.038511E-03	6.003041E-05
4.157635E+03	2.055340E-03	6.055811E-05
4.167488E+03	2.073904E-03	6.113723E-05
4.177340E+03	2.094435E-03	6.177459E-05
4.187192E+03	2.117025E-03	6.247296E-05
4.197044E+03	2.141670E-03	6.323218E-05
4.206897E+03	2.168322E-03	6.405085E-05
4.216749E+03	2.196690E-03	6.492037E-05
4.226601E+03	2.226475E-03	6.583192E-05
4.236453E+03	2.257122E-03	6.676900E-05
4.246305E+03	2.288089E-03	6.771553E-05
4.256158E+03	2.318605E-03	6.864859E-05
4.266010E+03	2.347954E-03	6.954687E-05
4.275862E+03	2.375277E-03	7.038479E-05
4.285714E+03	2.399873E-03	7.114137E-05
4.295567E+03	2.421015E-03	7.179486E-05
4.305419E+03	2.438270E-03	7.233222E-05
4.315271E+03	2.451344E-03	7.274455E-05
4.325123E+03	2.460218E-03	7.303108E-05
4.334975E+03	2.465174E-03	7.319997E-05
4.344828E+03	2.466746E-03	7.326699E-05
4.354680E+03	2.465673E-03	7.325387E-05
4.364532E+03	2.462874E-03	7.318790E-05
4.374384E+03	2.459466E-03	7.310218E-05
4.384236E+03	2.456532E-03	7.302884E-05
4.394089E+03	2.455129E-03	7.299934E-05
4.403941E+03	2.456278E-03	7.304399E-05
4.413793E+03	2.460916E-03	7.319065E-05
4.423645E+03	2.469721E-03	7.345951E-05
4.433498E+03	2.483313E-03	7.386899E-05
4.443350E+03	2.502102E-03	7.443122E-05
4.453202E+03	2.526267E-03	7.515154E-05
4.463054E+03	2.555879E-03	7.603194E-05
4.472906E+03	2.590709E-03	7.706557E-05
4.482759E+03	2.630492E-03	7.824435E-05
4.492611E+03	2.674673E-03	7.955165E-05
4.502463E+03	2.722526E-03	8.096577E-05
4.512315E+03	2.773294E-03	8.246401E-05
4.522167E+03	2.825941E-03	8.401537E-05
4.532020E+03	2.879458E-03	8.558969E-05
4.541872E+03	2.932748E-03	8.715425E-05
4.551724E+03	2.984674E-03	8.867507E-05
4.561576E+03	3.034188E-03	9.012097E-05
4.571429E+03	3.080425E-03	9.146617E-05
4.581281E+03	3.122470E-03	9.268348E-05
4.591133E+03	3.159758E-03	9.375615E-05
4.600985E+03	3.191933E-03	9.467367E-05
4.610837E+03	3.218736E-03	9.542851E-05
4.620690E+03	3.240247E-03	9.602311E-05
4.630542E+03	3.256638E-03	9.646278E-05
4.640394E+03	3.268265E-03	9.675821E-05
4.650246E+03	3.275582E-03	9.692304E-05
4.660099E+03	3.278855E-03	9.696536E-05
4.669951E+03	3.278079E-03	9.688517E-05
4.679803E+03	3.273074E-03	9.667745E-05
4.689655E+03	3.263927E-03	9.634498E-05
4.699507E+03	3.250700E-03	9.588986E-05
4.709360E+03	3.233575E-03	9.531778E-05
4.719212E+03	3.212963E-03	9.464115E-05
4.729064E+03	3.189398E-03	9.387597E-05
4.738916E+03	3.163622E-03	9.304437E-05
4.748768E+03	3.136533E-03	9.217292E-05
4.758621E+03	3.109127E-03	9.129113E-05
4.768473E+03	3.082517E-03	9.043168E-05
4.778325E+03	3.057963E-03	8.963156E-05
4.788177E+03	3.036717E-03	8.892733E-05
4.798030E+03	3.019960E-03	8.835328E-05
4.807882E+03	3.008898E-03	8.794431E-05
4.817734E+03	3.004640E-03	8.773234E-05
4.827586E+03	3.008174E-03	8.774554E-05
4.837438E+03	3.020288E-03	8.800618E-05
4.847291E+03	3.041570E-03	8.853052E-05
4.857143E+03	3.072369E-03	8.932779E-05
4.866995E+03	3.112826E-03	9.040104E-05
4.876847E+03	3.162707E-03	9.174245E-05
4.886700E+03	3.221393E-03	9.333299E-05
4.896552E+03	3.287970E-03	9.514514E-05
4.906404E+03	3.361109E-03	9.713945E-05
4.916256E+03	3.439137E-03	9.926676E-05
4.926108E+03	3.520024E-03	1.014678E-04
4.935961E+03	3.601468E-03	1.036758E-04
4.945813E+03	3.681020E-03	1.058200E-04
4.955665E+03	3.756210E-03	1.078297E-04
4.965517E+03	3.824756E-03	1.096396E-04
4.975369E+03	3.884646E-03	1.111929E-04
4.985222E+03	3.934320E-03	1.124460E-04
4.995074E+03	3.972741E-03	1.133704E-04
5.004926E+03	3.999629E-03	1.139596E-04
5.014778E+03	4.015192E-03	1.142210E-04
5.024631E+03	4.020248E-03	1.141793E-04
5.034483E+03	4.016115E-03	1.138734E-04
5.044335E+03	4.004298E-03	1.133471E-04
5.054187E+03	3.986701E-03	1.126555E-04
5.064039E+03	3.965047E-03	1.118480E-04
5.073892E+03	3.941117E-03	1.109755E-04
5.083744E+03	3.916448E-03	1.100817E-04
5.093596E+03	3.892454E-03	1.092062E-04
5.103448E+03	3.870229E-03	1.083799E-04
5.113300E+03	3.850758E-03	1.076301E-04
5.123153E+03	3.834656E-03	1.069734E-04
5.133005E+03	3.822466E-03	1.064247E-04
5.142857E+03	3.814502E-03	1.059920E-04
5.152709E+03	3.811073E-03	1.056832E-04
5.162562E+03	3.812222E-03	1.054989E-04
5.172414E+03	3.818032E-03	1.054406E-04
5.182266E+03	3.828422E-03	1.055053E-04
5.192118E+03	3.843348E-03	1.056910E-04
5.201970E+03	3.862518E-03	1.059890E-04
5.211823E+03	3.885620E-03	1.063900E-04
5.221675E+03	3.912281E-03	1.068831E-04
5.231527E+03	3.941974E-03	1.074533E-04
5.241379E+03	3.974031E-03	1.080819E-04
5.251232E+03	4.007774E-03	1.087500E-04
5.261084E+03	4.042389E-03	1.094354E-04
5.270936E+03	4.077126E-03	1.101177E-04
5.280788E+03	4.111183E-03	1.107752E-04
5.290640E+03	4.143910E-03	1.113906E-04
5.300493E+03	4.174814E-03	1.119510E-04
5.310345E+03	4.203674E-03	1.124509E-04
5.320197E+03	4.230470E-03	1.128903E-04
5.330049E+03	4.255497E-03	1.132773E-04
5.339901E+03	4.279509E-03	1.136325E-04
5.349754E+03	4.303443E-03	1.139810E-04
5.359606E+03	4.328487E-03	1.143540E-04
5.369458E+03	4.356139E-03	1.147909E-04
5.379310E+03	4.387766E-03	1.153269E-04
5.389163E+03	4.424775E-03	1.159981E-04
5.399015E+03	4.468236E-03	1.168315E-04
5.408867E+03	4.518941E-03	1.178462E-04
5.418719E+03	4.576912E-03	1.190413E-04
5.428571E+03	4.641571E-03	1.204003E-04
5.438424E+03	4.711622E-03	1.218881E-04
5.448276E+03	4.785237E-03	1.234566E-04
5.458128E+03	4.860133E-03	1.250461E-04
5.467980E+03	4.933932E-03	1.265952E-04
5.477833E+03	5.003978E-03	1.280364E-04
5.487685E+03	5.067787E-03	1.293068E-04
5.497537E+03	5.123093E-03	1.303503E-04
5.507389E+03	5.168002E-03	1.311206E-04
5.517241E+03	5.200919E-03	1.315796E-04
5.527094E+03	5.220730E-03	1.317018E-04
5.536946E+03	5.226748E-03	1.314729E-04
5.546798E+03	5.218707E-03	1.308893E-04
5.556650E+03	5.196721E-03	1.299570E-04
5.566502E+03	5.161270E-03	1.286911E-04
5.576355E+03	5.113199E-03	1.271157E-04
5.586207E+03	5.053667E-03	1.252625E-04
5.596059E+03	4.984374E-03	1.231761E-04
5.605911E+03	4.907217E-03	1.209055E-04
5.615764E+03	4.824637E-03	1.185126E-04
5.625616E+03	4.739372E-03	1.160658E-04
5.635468E+03	4.654401E-03	1.136385E-04
5.645320E+03	4.572917E-03	1.113086E-04
5.655172E+03	4.498213E-03	1.091552E-04
5.665025E+03	4.433418E-03	1.072527E-04
5.674877E+03	4.381510E-03	1.056707E-04
5.684729E+03	4.345229E-03	1.044725E-04
5.694581E+03	4.326820E-03	1.037085E-04
5.704433E+03	4.328211E-03	1.034208E-04
5.714286E+03	4.350960E-03	1.036423E-04
5.724138E+03	4.395932E-03	1.043890E-04
5.733990E+03	4.463741E-03	1.056706E-04
5.743842E+03	4.554177E-03	1.074773E-04
5.753695E+03	4.666605E-03	1.097895E-04
5.763547E+03	4.799681E-03	1.125710E-04
5.773399E+03	4.951314E-03	1.157689E-04
5.783251E+03	5.118783E-03	1.193159E-04
5.793103E+03	5.298594E-03	1.231279E-04
5.802956E+03	5.486485E-03	1.271040E-04
5.812808E+03	5.677779E-03	1.311349E-04
5.822660E+03	5.867355E-03	1.351025E-04
5.832512E+03	6.049908E-03	1.388860E-04
5.842365E+03	6.220090E-03	1.423650E-04
5.852217E+03	6.373125E-03	1.454338E-04
5.862069E+03	6.504665E-03	1.479975E-04
5.871921E+03	6.611185E-03	1.499811E-04
5.881773E+03	6.690282E-03	1.513358E-04
5.891626E+03	6.740583E-03	1.520365E-04
5.901478E+03	6.761744E-03	1.520817E-04
5.911330E+03	6.754481E-03	1.514933E-04
5.921182E+03	6.720632E-03	1.503181E-04
5.931034E+03	6.662614E-03	1.486152E-04
5.940887E+03	6.583491E-03	1.464574E-04
5.950739E+03	6.486654E-03	1.439237E-04
5.960591E+03	6.375879E-03	1.411007E-04
5.970443E+03	6.254711E-03	1.380692E-04
5.980296E+03	6.126754E-03	1.349099E-04
5.990148E+03	5.995358E-03	1.316975E-04
6.000000E+03	5.863349E-03	1.284941E-04
6.009852E+03	5.733397E-03	1.253580E-04
6.019704E+03	5.607622E-03	1.223348E-04
6.029557E+03	5.487739E-03	1.194609E-04
6.039409E+03	5.375128E-03	1.167653E-04
6.049261E+03	5.270799E-03	1.142684E-04
6.059113E+03	5.175514E-03	1.119856E-04
6.068966E+03	5.090019E-03	1.099313E-04
6.078818E+03	5.014751E-03	1.081138E-04
6.088670E+03	4.950262E-03	1.065435E-04
6.098522E+03	4.896938E-03	1.052275E-04
6.108374E+03	4.854587E-03	1.041603E-04
6.118227E+03	4.821977E-03	1.033145E-04
6.128079E+03	4.797763E-03	1.026601E-04
6.137931E+03	4.780880E-03	1.021730E-04
6.147783E+03	4.770111E-03	1.018264E-04
6.157635E+03	4.764366E-03	1.015961E-04
6.167488E+03	4.762539E-03	1.014578E-04
6.177340E+03	4.763670E-03	1.013905E-04
6.187192E+03	4.766803E-03	1.013733E-04
6.197044E+03	4.771011E-03	1.013862E-04
6.206897E+03	4.775498E-03	1.014118E-04
6.216749E+03	4.779603E-03	1.014356E-04
6.226601E+03	4.782648E-03	1.014431E-04
6.236453E+03	4.784131E-03	1.014233E-04
6.246305E+03	4.783562E-03	1.013655E-04
6.256158E+03	4.780453E-03	1.012590E-04
6.266010E+03	4.774504E-03	1.010972E-04
6.275862E+03	4.765272E-03	1.008704E-04
6.285714E+03	4.752547E-03	1.005739E-04
6.295567E+03	4.736040E-03	1.002012E-04
6.305419E+03	4.715582E-03	9.974846E-05
6.315271E+03	4.691087E-03	9.921349E-05
6.325123E+03	4.662614E-03	9.859722E-05
6.334975E+03	4.630270E-03	9.790159E-05
6.344828E+03	4.594265E-03	9.713071E-05
6.354680E+03	4.554919E-03	9.629098E-05
6.364532E+03	4.512710E-03	9.539221E-05
6.374384E+03	4.468232E-03	9.444665E-05
6.384236E+03	4.422172E-03	9.346848E-05
6.394089E+03	4.375442E-03	9.247671E-05
6.403941E+03	4.328969E-03	9.149063E-05
6.413793E+03	4.283916E-03	9.053459E-05
6.423645E+03	4.241449E-03	8.963296E-05
6.433498E+03	4.202982E-03	8.881536E-05
6.443350E+03	4.169898E-03	8.811083E-05
6.453202E+03	4.143694E-03	8.755074E-05
6.463054E+03	4.125807E-03	8.716521E-05
6.472906E+03	4.117484E-03	8.698036E-05
6.482759E+03	4.119914E-03	8.702106E-05
6.492611E+03	4.133966E-03	8.730535E-05
6.502463E+03	4.160216E-03	8.784508E-05
6.512315E+03	4.198950E-03	8.864596E-05
6.522167E+03	4.250092E-03	8.970594E-05
6.532020E+03	4.313140E-03	9.101402E-05
6.541872E+03	4.387193E-03	9.255072E-05
6.551724E+03	4.470977E-03	9.428862E-05
6.561576E+03	4.562944E-03	9.619459E-05
6.571429E+03	4.661021E-03	9.822438E-05
6.581281E+03	4.763064E-03	1.003323E-04
6.591133E+03	4.866556E-03	1.024649E-04
6.600985E+03	4.968956E-03	1.045681E-04
6.610837E+03	5.067624E-03	1.065862E-04
6.620690E+03	5.159978E-03	1.084646E-04
6.630542E+03	5.243636E-03	1.101531E-04
6.640394E+03	5.316285E-03	1.116030E-04
6.650246E+03	5.376170E-03	1.127779E-04
6.660099E+03	5.421751E-03	1.136456E-04
6.669951E+03	5.452041E-03	1.141861E-04
6.679803E+03	5.466404E-03	1.143865E-04
6.689655E+03	5.464800E-03	1.142469E-04
6.699507E+03	5.447580E-03	1.137755E-04
6.709360E+03	5.415482E-03	1.129886E-04
6.719212E+03	5.369753E-03	1.119132E-04
6.729064E+03	5.311992E-03	1.105836E-04
6.738916E+03	5.243843E-03	1.090352E-04
6.748768E+03	5.167547E-03	1.073153E-04
6.758621E+03	5.085279E-03	1.054700E-04
6.768473E+03	4.999318E-03	1.035473E-04
6.778325E+03	4.912179E-03	1.015998E-04
6.788177E+03	4.826134E-03	9.967477E-05
6.798030E+03	4.743562E-03	9.782160E-05
6.807882E+03	4.666670E-03	9.608569E-05
6.817734E+03	4.597507E-03	9.450890E-05
6.827586E+03	4.537917E-03	9.312859E-05
6.837438E+03	4.489448E-03	9.197577E-05
6.847291E+03	4.453493E-03	9.107799E-05
6.857143E+03	4.431088E-03	9.045523E-05
6.866995E+03	4.422903E-03	9.011985E-05
6.876847E+03	4.429378E-03	9.007926E-05
6.886700E+03	4.450558E-03	9.033284E-05
6.896552E+03	4.486014E-03	9.087020E-05
6.906404E+03	4.535235E-03	9.167937E-05
6.916256E+03	4.597026E-03	9.273458E-05
6.926108E+03	4.670128E-03	9.400895E-05
6.935961E+03	4.752748E-03	9.546505E-05
6.945813E+03	4.843060E-03	9.706511E-05
6.955665E+03	4.938801E-03	9.876293E-05
6.965517E+03	5.037758E-03	1.005137E-04
6.975369E+03	5.137620E-03	1.022712E-04
6.985222E+03	5.236076E-03	1.039894E-04
6.995074E+03	5.331034E-03	1.056274E-04
7.004926E+03	5.420722E-03	1.071509E-04
7.014778E+03	5.503505E-03	1.085286E-04
7.024631E+03	5.578394E-03	1.097424E-04
7.034483E+03	5.644495E-03	1.107762E-04
7.044335E+03	5.701745E-03	1.116305E-04
7.054187E+03	5.750057E-03	1.123053E-04
7.064039E+03	5.790042E-03	1.128141E-04
7.073892E+03	5.822297E-03	1.131705E-04
7.083744E+03	5.847820E-03	1.133952E-04
7.093596E+03	5.867555E-03	1.135081E-04
7.103448E+03	5.882607E-03	1.135318E-04
7.113300E+03	5.893797E-03	1.134835E-04
7.123153E+03	5.902114E-03	1.133832E-04
7.133005E+03	5.908019E-03	1.132408E-04
7.142857E+03	5.912211E-03	1.130707E-04
7.152709E+03	5.914744E-03	1.128747E-04
7.162562E+03	5.915753E-03	1.126564E-04
7.172414E+03	5.915026E-03	1.124124E-04
7.182266E+03	5.912388E-03	1.121406E-04
7.192118E+03	5.907130E-03	1.118282E-04
7.201970E+03	5.898710E-03	1.114663E-04
7.211823E+03	5.886421E-03	1.110423E-04
7.221675E+03	5.869504E-03	1.105431E-04
7.231527E+03	5.847198E-03	1.099555E-04
7.241379E+03	5.818723E-03	1.092660E-04
7.251232E+03	5.783472E-03	1.084643E-04
7.261084E+03	5.741006E-03	1.075432E-04
7.270936E+03	5.691083E-03	1.064992E-04
7.280788E+03	5.633714E-03	1.053333E-04
7.290640E+03	5.569257E-03	1.040528E-04
7.300493E+03	5.498148E-03	1.026666E-04
7.310345E+03	5.421318E-03	1.011923E-04
7.320197E+03	5.339908E-03	9.965129E-05
7.330049E+03	5.255210E-03	9.806784E-05
7.339901E+03	5.168910E-03	9.647327E-05
7.349754E+03	5.082547E-03	9.489609E-05
7.359606E+03	4.997908E-03	9.336945E-05
7.369458E+03	4.916618E-03	9.192352E-05
7.379310E+03	4.840370E-03	9.058984E-05
7.389163E+03	4.770356E-03	8.939075E-05
7.399015E+03	4.707854E-03	8.835041E-05
7.408867E+03	4.652716E-03	8.746650E-05
7.418719E+03	4.603616E-03	8.671457E-05
7.428571E+03	4.559002E-03	8.606595E-05
7.438424E+03	4.517272E-03	8.549077E-05
7.448276E+03	4.477064E-03	8.496355E-05
7.458128E+03	4.437216E-03	8.446230E-05
7.467980E+03	4.396687E-03	8.396714E-05
7.477833E+03	4.354941E-03	8.346741E-05
7.487685E+03	4.311746E-03	8.295814E-05
7.497537E+03	4.267305E-03	8.244202E-05
7.507389E+03	4.222053E-03	8.192610E-05
7.517241E+03	4.176807E-03	8.142502E-05
7.527094E+03	4.132695E-03	8.095978E-05
7.536946E+03	4.090939E-03	8.055365E-05
7.546798E+03	4.052988E-03	8.023502E-05
7.556650E+03	4.020277E-03	8.003265E-05
7.566502E+03	3.994205E-03	7.997543E-05
7.576355E+03	3.976004E-03	8.008965E-05
7.586207E+03	3.966890E-03	8.040211E-05
7.596059E+03	3.967692E-03	8.093259E-05
7.605911E+03	3.979026E-03	8.169713E-05
7.615764E+03	4.001208E-03	8.270622E-05
7.625616E+03	4.034251E-03	8.396446E-05
7.635468E+03	4.077848E-03	8.547001E-05
7.645320E+03	4.131448E-03	8.721596E-05
