#wls	flux	fluxerr
1.576355E+03	1.207930E-04	6.151498E-06
1.615764E+03	1.240754E-04	6.271935E-06
1.655172E+03	1.268054E-04	6.361328E-06
1.694581E+03	1.289500E-04	6.418604E-06
1.733990E+03	1.304275E-04	6.440369E-06
1.773399E+03	1.310667E-04	6.419010E-06
1.812808E+03	1.306009E-04	6.342569E-06
1.852217E+03	1.287912E-04	6.200928E-06
1.891626E+03	1.254320E-04	5.985992E-06
1.931034E+03	1.204425E-04	5.695983E-06
1.970443E+03	1.140808E-04	5.345217E-06
2.009852E+03	1.071710E-04	4.973869E-06
2.049261E+03	1.011113E-04	4.647082E-06
2.088670E+03	9.764320E-05	4.443072E-06
2.128079E+03	9.816247E-05	4.421234E-06
2.167488E+03	1.033553E-04	4.606619E-06
2.206897E+03	1.130328E-04	4.984234E-06
2.246305E+03	1.263387E-04	5.510197E-06
2.285714E+03	1.422214E-04	6.133723E-06
2.325123E+03	1.596815E-04	6.808208E-06
2.364532E+03	1.780339E-04	7.502230E-06
2.403941E+03	1.968201E-04	8.195151E-06
2.443350E+03	2.158295E-04	8.877458E-06
2.482759E+03	2.349991E-04	9.546092E-06
2.522167E+03	2.543520E-04	1.020161E-05
2.561576E+03	2.739552E-04	1.084629E-05
2.600985E+03	2.938929E-04	1.148299E-05
2.640394E+03	3.142518E-04	1.211456E-05
2.679803E+03	3.350625E-04	1.274155E-05
2.719212E+03	3.564398E-04	1.336772E-05
2.758621E+03	3.784402E-04	1.399445E-05
2.798030E+03	4.010485E-04	1.462053E-05
2.837438E+03	4.243418E-04	1.524817E-05
2.876847E+03	4.483283E-04	1.587708E-05
2.916256E+03	4.730603E-04	1.650865E-05
2.955665E+03	4.986435E-04	1.714613E-05
2.965517E+03	5.051914E-04	1.730702E-05
2.975369E+03	5.118187E-04	1.746915E-05
2.985222E+03	5.184600E-04	1.763028E-05
2.995074E+03	5.252589E-04	1.779527E-05
3.004926E+03	5.321323E-04	1.796129E-05
3.014778E+03	5.391967E-04	1.813224E-05
3.024631E+03	5.464384E-04	1.830761E-05
3.034483E+03	5.538444E-04	1.848693E-05
3.044335E+03	5.614024E-04	1.866975E-05
3.054187E+03	5.691699E-04	1.885793E-05
3.064039E+03	5.769989E-04	1.904654E-05
3.073892E+03	5.850172E-04	1.923980E-05
3.083744E+03	5.931468E-04	1.943508E-05
3.093596E+03	6.013784E-04	1.963209E-05
3.103448E+03	6.097747E-04	1.983286E-05
3.113300E+03	6.182575E-04	2.003481E-05
3.123153E+03	6.268915E-04	2.024004E-05
3.133005E+03	6.356707E-04	2.044834E-05
3.142857E+03	6.445169E-04	2.065718E-05
3.152709E+03	6.534969E-04	2.086870E-05
3.162562E+03	6.626803E-04	2.108512E-05
3.172414E+03	6.719149E-04	2.130157E-05
3.182266E+03	6.812700E-04	2.152026E-05
3.192118E+03	6.908169E-04	2.174344E-05
3.201970E+03	7.004774E-04	2.196863E-05
3.211823E+03	7.102477E-04	2.219572E-05
3.221675E+03	7.202005E-04	2.242699E-05
3.231527E+03	7.302568E-04	2.265996E-05
3.241379E+03	7.405671E-04	2.289931E-05
3.251232E+03	7.509748E-04	2.314018E-05
3.261084E+03	7.616319E-04	2.338726E-05
3.270936E+03	7.723795E-04	2.363565E-05
3.280788E+03	7.833703E-04	2.389005E-05
3.290640E+03	7.945221E-04	2.414794E-05
3.300493E+03	8.059087E-04	2.441157E-05
3.310345E+03	8.175251E-04	2.468077E-05
3.320197E+03	8.293649E-04	2.495535E-05
3.330049E+03	8.414198E-04	2.523506E-05
3.339901E+03	8.536792E-04	2.551959E-05
3.349754E+03	8.661303E-04	2.580856E-05
3.359606E+03	8.788373E-04	2.610392E-05
3.369458E+03	8.917803E-04	2.640507E-05
3.379310E+03	9.049341E-04	2.671127E-05
3.389163E+03	9.182676E-04	2.702165E-05
3.399015E+03	9.317415E-04	2.733508E-05
3.408867E+03	9.453876E-04	2.765254E-05
3.418719E+03	9.590646E-04	2.796996E-05
3.428571E+03	9.727775E-04	2.828755E-05
3.438424E+03	9.864325E-04	2.860270E-05
3.448276E+03	9.999139E-04	2.891216E-05
3.458128E+03	1.013158E-03	2.921424E-05
3.467980E+03	1.025909E-03	2.950168E-05
3.477833E+03	1.038028E-03	2.977078E-05
3.487685E+03	1.049250E-03	3.001420E-05
3.497537E+03	1.059260E-03	3.022316E-05
3.507389E+03	1.067685E-03	3.038746E-05
3.517241E+03	1.074116E-03	3.049589E-05
3.527094E+03	1.078222E-03	3.053956E-05
3.536946E+03	1.079698E-03	3.051034E-05
3.546798E+03	1.078487E-03	3.040721E-05
3.556650E+03	1.074839E-03	3.023775E-05
3.566502E+03	1.069189E-03	3.001458E-05
3.576355E+03	1.062015E-03	2.975147E-05
3.586207E+03	1.053843E-03	2.946327E-05
3.596059E+03	1.045011E-03	2.915951E-05
3.605911E+03	1.035935E-03	2.885181E-05
3.615764E+03	1.026850E-03	2.854663E-05
3.625616E+03	1.018133E-03	2.825439E-05
3.635468E+03	1.009936E-03	2.797914E-05
3.645320E+03	1.002444E-03	2.772586E-05
3.655172E+03	9.958180E-04	2.749883E-05
3.665025E+03	9.902018E-04	2.730181E-05
3.674877E+03	9.857757E-04	2.713959E-05
3.684729E+03	9.826019E-04	2.701368E-05
3.694581E+03	9.808405E-04	2.692828E-05
3.704433E+03	9.805425E-04	2.688458E-05
3.714286E+03	9.818569E-04	2.688646E-05
3.724138E+03	9.848320E-04	2.693506E-05
3.733990E+03	9.896121E-04	2.703411E-05
3.743842E+03	9.962925E-04	2.718604E-05
3.753695E+03	1.004924E-03	2.739205E-05
3.763547E+03	1.015650E-03	2.765587E-05
3.773399E+03	1.028570E-03	2.798000E-05
3.783251E+03	1.043779E-03	2.836694E-05
3.793103E+03	1.061332E-03	2.881792E-05
3.802956E+03	1.081321E-03	2.933534E-05
3.812808E+03	1.103921E-03	2.992383E-05
3.822660E+03	1.129078E-03	3.058173E-05
3.832512E+03	1.156944E-03	3.131304E-05
3.842365E+03	1.187563E-03	3.211886E-05
3.852217E+03	1.220909E-03	3.299835E-05
3.862069E+03	1.256968E-03	3.395105E-05
3.871921E+03	1.295685E-03	3.497537E-05
3.881773E+03	1.336956E-03	3.606844E-05
3.891626E+03	1.380621E-03	3.722588E-05
3.901478E+03	1.426456E-03	3.844160E-05
3.911330E+03	1.474118E-03	3.970636E-05
3.921182E+03	1.523241E-03	4.101027E-05
3.931034E+03	1.573437E-03	4.234288E-05
3.940887E+03	1.624155E-03	4.368938E-05
3.950739E+03	1.674838E-03	4.503484E-05
3.960591E+03	1.724892E-03	4.636333E-05
3.970443E+03	1.773657E-03	4.765716E-05
3.980296E+03	1.820532E-03	4.890026E-05
3.990148E+03	1.865009E-03	5.007904E-05
4.000000E+03	1.906488E-03	5.117750E-05
4.009852E+03	1.944622E-03	5.218637E-05
4.019704E+03	1.979071E-03	5.309662E-05
4.029557E+03	2.009735E-03	5.390562E-05
4.039409E+03	2.036499E-03	5.461035E-05
4.049261E+03	2.059543E-03	5.521569E-05
4.059113E+03	2.079132E-03	5.572876E-05
4.068966E+03	2.095545E-03	5.615709E-05
4.078818E+03	2.109376E-03	5.651658E-05
4.088670E+03	2.121039E-03	5.681832E-05
4.098522E+03	2.131257E-03	5.708168E-05
4.108374E+03	2.140635E-03	5.732284E-05
4.118227E+03	2.149795E-03	5.755839E-05
4.128079E+03	2.159434E-03	5.780700E-05
4.137931E+03	2.170131E-03	5.808405E-05
4.147783E+03	2.182416E-03	5.840370E-05
4.157635E+03	2.196848E-03	5.878083E-05
4.167488E+03	2.213760E-03	5.922430E-05
4.177340E+03	2.233538E-03	5.974434E-05
4.187192E+03	2.256399E-03	6.034668E-05
4.197044E+03	2.282343E-03	6.103125E-05
4.206897E+03	2.311354E-03	6.179753E-05
4.216749E+03	2.343164E-03	6.263826E-05
4.226601E+03	2.377371E-03	6.354263E-05
4.236453E+03	2.413340E-03	6.449359E-05
4.246305E+03	2.450339E-03	6.547148E-05
4.256158E+03	2.487326E-03	6.644845E-05
4.266010E+03	2.523260E-03	6.739658E-05
4.275862E+03	2.556875E-03	6.828206E-05
4.285714E+03	2.587086E-03	6.907591E-05
4.295567E+03	2.612729E-03	6.974700E-05
4.305419E+03	2.632942E-03	7.027241E-05
4.315271E+03	2.647153E-03	7.063686E-05
4.325123E+03	2.655330E-03	7.083961E-05
4.334975E+03	2.657668E-03	7.088586E-05
4.344828E+03	2.655017E-03	7.079844E-05
4.354680E+03	2.648477E-03	7.060663E-05
4.364532E+03	2.639411E-03	7.034690E-05
4.374384E+03	2.629470E-03	7.006323E-05
4.384236E+03	2.620171E-03	6.979604E-05
4.394089E+03	2.613083E-03	6.958708E-05
4.403941E+03	2.609603E-03	6.947347E-05
4.413793E+03	2.610858E-03	6.948512E-05
4.423645E+03	2.617844E-03	6.964831E-05
4.433498E+03	2.631361E-03	6.998421E-05
4.443350E+03	2.651861E-03	7.050458E-05
4.453202E+03	2.679673E-03	7.121794E-05
4.463054E+03	2.714814E-03	7.212447E-05
4.472906E+03	2.757101E-03	7.321904E-05
4.482759E+03	2.806074E-03	7.448912E-05
4.492611E+03	2.861116E-03	7.591806E-05
4.502463E+03	2.921307E-03	7.748115E-05
4.512315E+03	2.985558E-03	7.914930E-05
4.522167E+03	3.052643E-03	8.088972E-05
4.532020E+03	3.121077E-03	8.266292E-05
4.541872E+03	3.189374E-03	8.442937E-05
4.551724E+03	3.256082E-03	8.615061E-05
4.561576E+03	3.319766E-03	8.778861E-05
4.571429E+03	3.379040E-03	8.930679E-05
4.581281E+03	3.432861E-03	9.067772E-05
4.591133E+03	3.480463E-03	9.188131E-05
4.600985E+03	3.521208E-03	9.290096E-05
4.610837E+03	3.555052E-03	9.373581E-05
4.620690E+03	3.581992E-03	9.438602E-05
4.630542E+03	3.602448E-03	9.486296E-05
4.640394E+03	3.616951E-03	9.518095E-05
4.650246E+03	3.626040E-03	9.535441E-05
4.660099E+03	3.630018E-03	9.539164E-05
4.669951E+03	3.629021E-03	9.529641E-05
4.679803E+03	3.622935E-03	9.506609E-05
4.689655E+03	3.611677E-03	9.469878E-05
4.699507E+03	3.595205E-03	9.419372E-05
4.709360E+03	3.573756E-03	9.355746E-05
4.719212E+03	3.547683E-03	9.279958E-05
4.729064E+03	3.517493E-03	9.193363E-05
4.738916E+03	3.484098E-03	9.098381E-05
4.748768E+03	3.448569E-03	8.997829E-05
4.758621E+03	3.412188E-03	8.895070E-05
4.768473E+03	3.376416E-03	8.793921E-05
4.778325E+03	3.342871E-03	8.698592E-05
4.788177E+03	3.313208E-03	8.613375E-05
4.798030E+03	3.289122E-03	8.542648E-05
4.807882E+03	3.272223E-03	8.490546E-05
4.817734E+03	3.264021E-03	8.460928E-05
4.827586E+03	3.265909E-03	8.457332E-05
4.837438E+03	3.279032E-03	8.482642E-05
4.847291E+03	3.304248E-03	8.538984E-05
4.857143E+03	3.342261E-03	8.628067E-05
4.866995E+03	3.393219E-03	8.750166E-05
4.876847E+03	3.456968E-03	8.904763E-05
4.886700E+03	3.532871E-03	9.090100E-05
4.896552E+03	3.619720E-03	9.302956E-05
4.906404E+03	3.715727E-03	9.538628E-05
4.916256E+03	3.818526E-03	9.790956E-05
4.926108E+03	3.925207E-03	1.005241E-04
4.935961E+03	4.032465E-03	1.031447E-04
4.945813E+03	4.136716E-03	1.056798E-04
4.955665E+03	4.234188E-03	1.080331E-04
4.965517E+03	4.321511E-03	1.101192E-04
4.975369E+03	4.395728E-03	1.118639E-04
4.985222E+03	4.454585E-03	1.132110E-04
4.995074E+03	4.496868E-03	1.141311E-04
5.004926E+03	4.522382E-03	1.146209E-04
5.014778E+03	4.531788E-03	1.146990E-04
5.024631E+03	4.526796E-03	1.144102E-04
5.034483E+03	4.509618E-03	1.138118E-04
5.044335E+03	4.482958E-03	1.129735E-04
5.054187E+03	4.449607E-03	1.119665E-04
5.064039E+03	4.412237E-03	1.108587E-04
5.073892E+03	4.373363E-03	1.097139E-04
5.083744E+03	4.335147E-03	1.085863E-04
5.093596E+03	4.299211E-03	1.075166E-04
5.103448E+03	4.266916E-03	1.065385E-04
5.113300E+03	4.239213E-03	1.056754E-04
5.123153E+03	4.216755E-03	1.049430E-04
5.133005E+03	4.200001E-03	1.043521E-04
5.142857E+03	4.189113E-03	1.039061E-04
5.152709E+03	4.184318E-03	1.036099E-04
5.162562E+03	4.185633E-03	1.034633E-04
5.172414E+03	4.193072E-03	1.034656E-04
5.182266E+03	4.206637E-03	1.036163E-04
5.192118E+03	4.226128E-03	1.039097E-04
5.201970E+03	4.251431E-03	1.043421E-04
5.211823E+03	4.282172E-03	1.049037E-04
5.221675E+03	4.317915E-03	1.055829E-04
5.231527E+03	4.357907E-03	1.063608E-04
5.241379E+03	4.401394E-03	1.072184E-04
5.251232E+03	4.447309E-03	1.081292E-04
5.261084E+03	4.494490E-03	1.090647E-04
5.270936E+03	4.541688E-03	1.099945E-04
5.280788E+03	4.587645E-03	1.108882E-04
5.290640E+03	4.631204E-03	1.117180E-04
5.300493E+03	4.671450E-03	1.124623E-04
5.310345E+03	4.707650E-03	1.131038E-04
5.320197E+03	4.739681E-03	1.136404E-04
5.330049E+03	4.767737E-03	1.140773E-04
5.339901E+03	4.792743E-03	1.144372E-04
5.349754E+03	4.816033E-03	1.147524E-04
5.359606E+03	4.839410E-03	1.150659E-04
5.369458E+03	4.865190E-03	1.154328E-04
5.379310E+03	4.895729E-03	1.159083E-04
5.389163E+03	4.933324E-03	1.165461E-04
5.399015E+03	4.980086E-03	1.173948E-04
5.408867E+03	5.037307E-03	1.184833E-04
5.418719E+03	5.105274E-03	1.198168E-04
5.428571E+03	5.183196E-03	1.213750E-04
5.438424E+03	5.269196E-03	1.231125E-04
5.448276E+03	5.360447E-03	1.249620E-04
5.458128E+03	5.453668E-03	1.268464E-04
5.467980E+03	5.545138E-03	1.286790E-04
5.477833E+03	5.631354E-03	1.303789E-04
5.487685E+03	5.708902E-03	1.318681E-04
5.497537E+03	5.774858E-03	1.330807E-04
5.507389E+03	5.826956E-03	1.339663E-04
5.517241E+03	5.863446E-03	1.344872E-04
5.527094E+03	5.883329E-03	1.346230E-04
5.536946E+03	5.886036E-03	1.343635E-04
5.546798E+03	5.871497E-03	1.337100E-04
5.556650E+03	5.840041E-03	1.326729E-04
5.566502E+03	5.792156E-03	1.312660E-04
5.576355E+03	5.728663E-03	1.295109E-04
5.586207E+03	5.650716E-03	1.274361E-04
5.596059E+03	5.559899E-03	1.250799E-04
5.605911E+03	5.458400E-03	1.224935E-04
5.615764E+03	5.348858E-03	1.197379E-04
5.625616E+03	5.234744E-03	1.168921E-04
5.635468E+03	5.119854E-03	1.140415E-04
5.645320E+03	5.008510E-03	1.112823E-04
5.655172E+03	4.905149E-03	1.087125E-04
5.665025E+03	4.814091E-03	1.064262E-04
5.674877E+03	4.739494E-03	1.045131E-04
5.684729E+03	4.685000E-03	1.030508E-04
5.694581E+03	4.653818E-03	1.021062E-04
5.704433E+03	4.648433E-03	1.017302E-04
5.714286E+03	4.670904E-03	1.019633E-04
5.724138E+03	4.722505E-03	1.028287E-04
5.733990E+03	4.803831E-03	1.043349E-04
5.743842E+03	4.914846E-03	1.064760E-04
5.753695E+03	5.054656E-03	1.092283E-04
5.763547E+03	5.221436E-03	1.125476E-04
5.773399E+03	5.412451E-03	1.163712E-04
5.783251E+03	5.623954E-03	1.206150E-04
5.793103E+03	5.851152E-03	1.251734E-04
5.802956E+03	6.088503E-03	1.299261E-04
5.812808E+03	6.329494E-03	1.347331E-04
5.822660E+03	6.567226E-03	1.394477E-04
5.832512E+03	6.794638E-03	1.439216E-04
5.842365E+03	7.004888E-03	1.480120E-04
5.852217E+03	7.191737E-03	1.515908E-04
5.862069E+03	7.349838E-03	1.545494E-04
5.871921E+03	7.475165E-03	1.568084E-04
5.881773E+03	7.565186E-03	1.583201E-04
5.891626E+03	7.618656E-03	1.590641E-04
5.901478E+03	7.635990E-03	1.590549E-04
5.911330E+03	7.618841E-03	1.583323E-04
5.921182E+03	7.569815E-03	1.569556E-04
5.931034E+03	7.492665E-03	1.550070E-04
5.940887E+03	7.391525E-03	1.525759E-04
5.950739E+03	7.270947E-03	1.497593E-04
5.960591E+03	7.135602E-03	1.466559E-04
5.970443E+03	6.990008E-03	1.433601E-04
5.980296E+03	6.838624E-03	1.399645E-04
5.990148E+03	6.685318E-03	1.365485E-04
6.000000E+03	6.533459E-03	1.331810E-04
6.009852E+03	6.386042E-03	1.299224E-04
6.019704E+03	6.245331E-03	1.268180E-04
6.029557E+03	6.112949E-03	1.238997E-04
6.039409E+03	5.990148E-03	1.211917E-04
6.049261E+03	5.877625E-03	1.187067E-04
6.059113E+03	5.775704E-03	1.164501E-04
6.068966E+03	5.684708E-03	1.144271E-04
6.078818E+03	5.604745E-03	1.126386E-04
6.088670E+03	5.535918E-03	1.110856E-04
6.098522E+03	5.478223E-03	1.097669E-04
6.108374E+03	5.431431E-03	1.086768E-04
6.118227E+03	5.394621E-03	1.077960E-04
6.128079E+03	5.366841E-03	1.071045E-04
6.137931E+03	5.346919E-03	1.065780E-04
6.147783E+03	5.333703E-03	1.061926E-04
6.157635E+03	5.325938E-03	1.059226E-04
6.167488E+03	5.322565E-03	1.057465E-04
6.177340E+03	5.322358E-03	1.056393E-04
6.187192E+03	5.324311E-03	1.055807E-04
6.197044E+03	5.327468E-03	1.055515E-04
6.206897E+03	5.330946E-03	1.055339E-04
6.216749E+03	5.334038E-03	1.055137E-04
6.226601E+03	5.336245E-03	1.054808E-04
6.236453E+03	5.336995E-03	1.054237E-04
6.246305E+03	5.335796E-03	1.053327E-04
6.256158E+03	5.332227E-03	1.051992E-04
6.266010E+03	5.325791E-03	1.050132E-04
6.275862E+03	5.315984E-03	1.047648E-04
6.285714E+03	5.302361E-03	1.044450E-04
6.295567E+03	5.284396E-03	1.040434E-04
6.305419E+03	5.261813E-03	1.035544E-04
6.315271E+03	5.234321E-03	1.029721E-04
6.325123E+03	5.201702E-03	1.022921E-04
6.334975E+03	5.163985E-03	1.015149E-04
6.344828E+03	5.121324E-03	1.006434E-04
6.354680E+03	5.073905E-03	9.968097E-05
6.364532E+03	5.022105E-03	9.863497E-05
6.374384E+03	4.966459E-03	9.751573E-05
6.384236E+03	4.907736E-03	9.633819E-05
6.394089E+03	4.846817E-03	9.511941E-05
6.403941E+03	4.784872E-03	9.388223E-05
6.413793E+03	4.723430E-03	9.265645E-05
6.423645E+03	4.664176E-03	9.147490E-05
6.433498E+03	4.609005E-03	9.037456E-05
6.443350E+03	4.560071E-03	8.939742E-05
6.453202E+03	4.519495E-03	8.858487E-05
6.463054E+03	4.489371E-03	8.797769E-05
6.472906E+03	4.471642E-03	8.761373E-05
6.482759E+03	4.468056E-03	8.752693E-05
6.492611E+03	4.480009E-03	8.774441E-05
6.502463E+03	4.508380E-03	8.828308E-05
6.512315E+03	4.553606E-03	8.915118E-05
6.522167E+03	4.615701E-03	9.034870E-05
6.532020E+03	4.693986E-03	9.186202E-05
6.541872E+03	4.787334E-03	9.366878E-05
6.551724E+03	4.894038E-03	9.573524E-05
6.561576E+03	5.011838E-03	9.801690E-05
6.571429E+03	5.138197E-03	1.004639E-04
6.581281E+03	5.270042E-03	1.030158E-04
6.591133E+03	5.404150E-03	1.056094E-04
6.600985E+03	5.537073E-03	1.081771E-04
6.610837E+03	5.665328E-03	1.106508E-04
6.620690E+03	5.785530E-03	1.129643E-04
6.630542E+03	5.894514E-03	1.150558E-04
6.640394E+03	5.989456E-03	1.168702E-04
6.650246E+03	6.068047E-03	1.183627E-04
6.660099E+03	6.128431E-03	1.194972E-04
6.669951E+03	6.169333E-03	1.202493E-04
6.679803E+03	6.189984E-03	1.206042E-04
6.689655E+03	6.190428E-03	1.205633E-04
6.699507E+03	6.170994E-03	1.201335E-04
6.709360E+03	6.132805E-03	1.193370E-04
6.719212E+03	6.077177E-03	1.182001E-04
6.729064E+03	6.006121E-03	1.167623E-04
6.738916E+03	5.921853E-03	1.150672E-04
6.748768E+03	5.826736E-03	1.131612E-04
6.758621E+03	5.723634E-03	1.111003E-04
6.768473E+03	5.615372E-03	1.089397E-04
6.778325E+03	5.504995E-03	1.067387E-04
6.788177E+03	5.395445E-03	1.045546E-04
6.798030E+03	5.289694E-03	1.024450E-04
6.807882E+03	5.190657E-03	1.004664E-04
6.817734E+03	5.100958E-03	9.866942E-05
6.827586E+03	5.023100E-03	9.710224E-05
6.837438E+03	4.959173E-03	9.580497E-05
6.847291E+03	4.910982E-03	9.481207E-05
6.857143E+03	4.880014E-03	9.415169E-05
6.866995E+03	4.867202E-03	9.384131E-05
6.876847E+03	4.873095E-03	9.389090E-05
6.886700E+03	4.897754E-03	9.430101E-05
6.896552E+03	4.940750E-03	9.506273E-05
6.906404E+03	5.001148E-03	9.615744E-05
6.916256E+03	5.077517E-03	9.755707E-05
6.926108E+03	5.167952E-03	9.922453E-05
6.935961E+03	5.270123E-03	1.011147E-04
6.945813E+03	5.381274E-03	1.031743E-04
6.955665E+03	5.498514E-03	1.053479E-04
6.965517E+03	5.618677E-03	1.075748E-04
6.975369E+03	5.738639E-03	1.097954E-04
6.985222E+03	5.855479E-03	1.119539E-04
6.995074E+03	5.966337E-03	1.139963E-04
7.004926E+03	6.068962E-03	1.158800E-04
7.014778E+03	6.161546E-03	1.175711E-04
7.024631E+03	6.242786E-03	1.190456E-04
7.034483E+03	6.312081E-03	1.202927E-04
7.044335E+03	6.369421E-03	1.213130E-04
7.054187E+03	6.415362E-03	1.221178E-04
7.064039E+03	6.450818E-03	1.227254E-04
7.073892E+03	6.477207E-03	1.231632E-04
7.083744E+03	6.495901E-03	1.234581E-04
7.093596E+03	6.508650E-03	1.236439E-04
7.103448E+03	6.516750E-03	1.237456E-04
7.113300E+03	6.521745E-03	1.237931E-04
7.123153E+03	6.524706E-03	1.238071E-04
7.133005E+03	6.526515E-03	1.238048E-04
7.142857E+03	6.527682E-03	1.237961E-04
7.152709E+03	6.528427E-03	1.237858E-04
7.162562E+03	6.528926E-03	1.237774E-04
7.172414E+03	6.528769E-03	1.237637E-04
7.182266E+03	6.527394E-03	1.237343E-04
7.192118E+03	6.524276E-03	1.236798E-04
7.201970E+03	6.518319E-03	1.235796E-04
7.211823E+03	6.508700E-03	1.234187E-04
7.221675E+03	6.494213E-03	1.231744E-04
7.231527E+03	6.473864E-03	1.228283E-04
7.241379E+03	6.446560E-03	1.223597E-04
7.251232E+03	6.411329E-03	1.217503E-04
7.261084E+03	6.367627E-03	1.209900E-04
7.270936E+03	6.314787E-03	1.200658E-04
7.280788E+03	6.252851E-03	1.189785E-04
7.290640E+03	6.181919E-03	1.177295E-04
7.300493E+03	6.102793E-03	1.163339E-04
7.310345E+03	6.016428E-03	1.148092E-04
7.320197E+03	5.924228E-03	1.131818E-04
7.330049E+03	5.827919E-03	1.114842E-04
7.339901E+03	5.729487E-03	1.097538E-04
7.349754E+03	5.631168E-03	1.080332E-04
7.359606E+03	5.535071E-03	1.063624E-04
7.369458E+03	5.443557E-03	1.047870E-04
7.379310E+03	5.358530E-03	1.033438E-04
7.389163E+03	5.281763E-03	1.020674E-04
7.399015E+03	5.213989E-03	1.009728E-04
7.408867E+03	5.155022E-03	1.000573E-04
7.418719E+03	5.103297E-03	9.929150E-05
7.428571E+03	5.056739E-03	9.863572E-05
7.438424E+03	5.012983E-03	9.804446E-05
7.448276E+03	4.969996E-03	9.747820E-05
7.458128E+03	4.925805E-03	9.689818E-05
7.467980E+03	4.879130E-03	9.627881E-05
7.477833E+03	4.829077E-03	9.560179E-05
7.487685E+03	4.775232E-03	9.485789E-05
7.497537E+03	4.717873E-03	9.405119E-05
7.507389E+03	4.657796E-03	9.319613E-05
7.517241E+03	4.596154E-03	9.231454E-05
7.527094E+03	4.534566E-03	9.143790E-05
7.536946E+03	4.474938E-03	9.060408E-05
7.546798E+03	4.419472E-03	8.985757E-05
7.556650E+03	4.370198E-03	8.924020E-05
7.566502E+03	4.329248E-03	8.879668E-05
7.576355E+03	4.298519E-03	8.856784E-05
7.586207E+03	4.279696E-03	8.859089E-05
7.596059E+03	4.273942E-03	8.889310E-05
7.605911E+03	4.282242E-03	8.949863E-05
7.615764E+03	4.304984E-03	9.041972E-05
7.625616E+03	4.342150E-03	9.166040E-05
7.635468E+03	4.393333E-03	9.321666E-05
7.645320E+03	4.457574E-03	9.507268E-05
