#wls	flux	fluxerr
1.576355E+03	5.537981E-05	1.325882E-09
1.615764E+03	5.672654E-05	1.358125E-09
1.655172E+03	5.780743E-05	1.384004E-09
1.694581E+03	5.862029E-05	1.403465E-09
1.733990E+03	5.910772E-05	1.415135E-09
1.773399E+03	5.920578E-05	1.417482E-09
1.812808E+03	5.879764E-05	1.407711E-09
1.852217E+03	5.778102E-05	1.383371E-09
1.891626E+03	5.604933E-05	1.341912E-09
1.931034E+03	5.359739E-05	1.283208E-09
1.970443E+03	5.053999E-05	1.210009E-09
2.009852E+03	4.724261E-05	1.131064E-09
2.049261E+03	4.432699E-05	1.061260E-09
2.088670E+03	4.255004E-05	1.018717E-09
2.128079E+03	4.250659E-05	1.017676E-09
2.167488E+03	4.445123E-05	1.064234E-09
2.206897E+03	4.826877E-05	1.155632E-09
2.246305E+03	5.354395E-05	1.281928E-09
2.285714E+03	5.980504E-05	1.431829E-09
2.325123E+03	6.661875E-05	1.594960E-09
2.364532E+03	7.367456E-05	1.763888E-09
2.403941E+03	8.080152E-05	1.934518E-09
2.443350E+03	8.791548E-05	2.104838E-09
2.482759E+03	9.501104E-05	2.274717E-09
2.522167E+03	1.021227E-04	2.444982E-09
2.561576E+03	1.092891E-04	2.616557E-09
2.600985E+03	1.165741E-04	2.790970E-09
2.640394E+03	1.240461E-04	2.969861E-09
2.679803E+03	1.317748E-04	3.154899E-09
2.719212E+03	1.398302E-04	3.347759E-09
2.758621E+03	1.483030E-04	3.550610E-09
2.798030E+03	1.572429E-04	3.764646E-09
2.837438E+03	1.667636E-04	3.992586E-09
2.876847E+03	1.769380E-04	4.236177E-09
2.916256E+03	1.878620E-04	4.497716E-09
2.955665E+03	1.996323E-04	4.779516E-09
2.965517E+03	2.027286E-04	4.853646E-09
2.975369E+03	2.058708E-04	4.928876E-09
2.985222E+03	2.090840E-04	5.005804E-09
2.995074E+03	2.123743E-04	5.084580E-09
3.004926E+03	2.157374E-04	5.165098E-09
3.014778E+03	2.192449E-04	5.249073E-09
3.024631E+03	2.228423E-04	5.335201E-09
3.034483E+03	2.265503E-04	5.423976E-09
3.044335E+03	2.303908E-04	5.515922E-09
3.054187E+03	2.343086E-04	5.609721E-09
3.064039E+03	2.383260E-04	5.705905E-09
3.073892E+03	2.424655E-04	5.805011E-09
3.083744E+03	2.466717E-04	5.905713E-09
3.093596E+03	2.509936E-04	6.009186E-09
3.103448E+03	2.554019E-04	6.114728E-09
3.113300E+03	2.599201E-04	6.222902E-09
3.123153E+03	2.645183E-04	6.332990E-09
3.133005E+03	2.691930E-04	6.444908E-09
3.142857E+03	2.739679E-04	6.559227E-09
3.152709E+03	2.788399E-04	6.675870E-09
3.162562E+03	2.837775E-04	6.794086E-09
3.172414E+03	2.888325E-04	6.915110E-09
3.182266E+03	2.939166E-04	7.036831E-09
3.192118E+03	2.991094E-04	7.161155E-09
3.201970E+03	3.043779E-04	7.287291E-09
3.211823E+03	3.097164E-04	7.415103E-09
3.221675E+03	3.151190E-04	7.544451E-09
3.231527E+03	3.205790E-04	7.675171E-09
3.241379E+03	3.261179E-04	7.807782E-09
3.251232E+03	3.316696E-04	7.940697E-09
3.261084E+03	3.373127E-04	8.075803E-09
3.270936E+03	3.429792E-04	8.211467E-09
3.280788E+03	3.486581E-04	8.347429E-09
3.290640E+03	3.810554E-04	9.123071E-09
3.292562E+03	3.773172E-04	9.033574E-09
3.294483E+03	3.745565E-04	8.967479E-09
3.296404E+03	3.699840E-04	8.858005E-09
3.298325E+03	3.673991E-04	8.796117E-09
3.300246E+03	3.657262E-04	8.756066E-09
3.302167E+03	3.653913E-04	8.748049E-09
3.304089E+03	3.639254E-04	8.712953E-09
3.306010E+03	3.617966E-04	8.661986E-09
3.307931E+03	3.570212E-04	8.547656E-09
3.309852E+03	3.560866E-04	8.525280E-09
3.311773E+03	3.553868E-04	8.508525E-09
3.313695E+03	3.566027E-04	8.537635E-09
3.315616E+03	3.585316E-04	8.583816E-09
3.317537E+03	3.570738E-04	8.548913E-09
3.319458E+03	3.576306E-04	8.562246E-09
3.321379E+03	3.598753E-04	8.615987E-09
3.323300E+03	3.619819E-04	8.666422E-09
3.325222E+03	3.643308E-04	8.722659E-09
3.327143E+03	3.674229E-04	8.796688E-09
3.329064E+03	3.728821E-04	8.927390E-09
3.330985E+03	3.788534E-04	9.070353E-09
3.332906E+03	3.852189E-04	9.222751E-09
3.334828E+03	3.895638E-04	9.326777E-09
3.336749E+03	3.923137E-04	9.392612E-09
3.338670E+03	3.946377E-04	9.448254E-09
3.340591E+03	3.977102E-04	9.521813E-09
3.342512E+03	4.013891E-04	9.609892E-09
3.344433E+03	4.039941E-04	9.672261E-09
3.346355E+03	4.080239E-04	9.768741E-09
3.348276E+03	4.111228E-04	9.842932E-09
3.350197E+03	4.127577E-04	9.882075E-09
3.352118E+03	4.139859E-04	9.911479E-09
3.354039E+03	4.166420E-04	9.975070E-09
3.355961E+03	4.184333E-04	1.001796E-08
3.357882E+03	4.177358E-04	1.000126E-08
3.359803E+03	4.162137E-04	9.964816E-09
3.361724E+03	4.131369E-04	9.891152E-09
3.363645E+03	4.091319E-04	9.795267E-09
3.365567E+03	4.088614E-04	9.788790E-09
3.367488E+03	4.108525E-04	9.836460E-09
3.369409E+03	4.128968E-04	9.885405E-09
3.371330E+03	4.129228E-04	9.886026E-09
3.373251E+03	4.117784E-04	9.858628E-09
3.375172E+03	4.144171E-04	9.921804E-09
3.377094E+03	4.142262E-04	9.917231E-09
3.379015E+03	4.107073E-04	9.832985E-09
3.380936E+03	4.063244E-04	9.728051E-09
3.382857E+03	3.996037E-04	9.567146E-09
3.384778E+03	3.984413E-04	9.539318E-09
3.386700E+03	3.942551E-04	9.439092E-09
3.388621E+03	3.907492E-04	9.355157E-09
3.390542E+03	3.900435E-04	9.338261E-09
3.392463E+03	3.933297E-04	9.416937E-09
3.394384E+03	3.940571E-04	9.434352E-09
3.396305E+03	3.903164E-04	9.344794E-09
3.398227E+03	3.916367E-04	9.376405E-09
3.400148E+03	3.865008E-04	9.253443E-09
3.402069E+03	3.853930E-04	9.226919E-09
3.403990E+03	3.920955E-04	9.387389E-09
3.405911E+03	3.955357E-04	9.469752E-09
3.407833E+03	3.976166E-04	9.519572E-09
3.409754E+03	3.979113E-04	9.526628E-09
3.411675E+03	4.016192E-04	9.615401E-09
3.413596E+03	4.032163E-04	9.653638E-09
3.415517E+03	4.034199E-04	9.658511E-09
3.417438E+03	4.090961E-04	9.794409E-09
3.419360E+03	4.105081E-04	9.828216E-09
3.421281E+03	4.096454E-04	9.807560E-09
3.423202E+03	4.107364E-04	9.833681E-09
3.425123E+03	4.149167E-04	9.933765E-09
3.427044E+03	4.162433E-04	9.965524E-09
3.428966E+03	4.167939E-04	9.978707E-09
3.430887E+03	4.219278E-04	1.010162E-08
3.432808E+03	4.233691E-04	1.013613E-08
3.434729E+03	4.240827E-04	1.015321E-08
3.436650E+03	4.248238E-04	1.017096E-08
3.438571E+03	4.282979E-04	1.025413E-08
3.440493E+03	4.352733E-04	1.042113E-08
3.442414E+03	4.401110E-04	1.053695E-08
3.444335E+03	4.445288E-04	1.064272E-08
3.446256E+03	4.473067E-04	1.070923E-08
3.448177E+03	4.506507E-04	1.078929E-08
3.450099E+03	4.482510E-04	1.073184E-08
3.452020E+03	4.441651E-04	1.063402E-08
3.453941E+03	4.413209E-04	1.056592E-08
3.455862E+03	4.450852E-04	1.065604E-08
3.457783E+03	4.469413E-04	1.070048E-08
3.459704E+03	4.481626E-04	1.072972E-08
3.461626E+03	4.480039E-04	1.072592E-08
3.463547E+03	4.444596E-04	1.064107E-08
3.465468E+03	4.455307E-04	1.066671E-08
3.467389E+03	4.483535E-04	1.073429E-08
3.469310E+03	4.497680E-04	1.076816E-08
3.471232E+03	4.496403E-04	1.076510E-08
3.473153E+03	4.517321E-04	1.081518E-08
3.475074E+03	4.544496E-04	1.088024E-08
3.476995E+03	4.553382E-04	1.090152E-08
3.478916E+03	4.547282E-04	1.088691E-08
3.480837E+03	4.518627E-04	1.081831E-08
3.482759E+03	4.494066E-04	1.075951E-08
3.484680E+03	4.475952E-04	1.071614E-08
3.486601E+03	4.481994E-04	1.073060E-08
3.488522E+03	4.482072E-04	1.073079E-08
3.490443E+03	4.470687E-04	1.070353E-08
3.492365E+03	4.474164E-04	1.071186E-08
3.494286E+03	4.447864E-04	1.064889E-08
3.496207E+03	4.419943E-04	1.058204E-08
3.498128E+03	4.399559E-04	1.053324E-08
3.500049E+03	4.391727E-04	1.051449E-08
3.501970E+03	4.393865E-04	1.051961E-08
3.503892E+03	4.356053E-04	1.042908E-08
3.505813E+03	4.314212E-04	1.032891E-08
3.507734E+03	4.299950E-04	1.029476E-08
3.509655E+03	4.303344E-04	1.030289E-08
3.511576E+03	4.332384E-04	1.037241E-08
3.513498E+03	4.354097E-04	1.042440E-08
3.515419E+03	4.356274E-04	1.042961E-08
3.517340E+03	4.335662E-04	1.038026E-08
3.519261E+03	4.320584E-04	1.034416E-08
3.521182E+03	4.345886E-04	1.040474E-08
3.523103E+03	4.345440E-04	1.040367E-08
3.525025E+03	4.348202E-04	1.041029E-08
3.526946E+03	4.335505E-04	1.037989E-08
3.528867E+03	4.331603E-04	1.037054E-08
3.530788E+03	4.391099E-04	1.051299E-08
3.532709E+03	4.380849E-04	1.048845E-08
3.534631E+03	4.353419E-04	1.042277E-08
3.536552E+03	4.330762E-04	1.036853E-08
3.538473E+03	4.316662E-04	1.033477E-08
3.540394E+03	4.320841E-04	1.034478E-08
3.542315E+03	4.315338E-04	1.033160E-08
3.544236E+03	4.313068E-04	1.032617E-08
3.546158E+03	4.284860E-04	1.025863E-08
3.548079E+03	4.308813E-04	1.031598E-08
3.550000E+03	4.344491E-04	1.040140E-08
3.551921E+03	4.361552E-04	1.044225E-08
3.553842E+03	4.379210E-04	1.048452E-08
3.555764E+03	4.381147E-04	1.048916E-08
3.557685E+03	4.415241E-04	1.057079E-08
3.559606E+03	4.424888E-04	1.059388E-08
3.561527E+03	4.436757E-04	1.062230E-08
3.563448E+03	4.447301E-04	1.064754E-08
3.565369E+03	4.447203E-04	1.064731E-08
3.567291E+03	4.489889E-04	1.074951E-08
3.569212E+03	4.550546E-04	1.089473E-08
3.571133E+03	4.600381E-04	1.101404E-08
3.573054E+03	4.637972E-04	1.110404E-08
3.574975E+03	4.669060E-04	1.117847E-08
3.576897E+03	4.693340E-04	1.123660E-08
3.578818E+03	4.693651E-04	1.123734E-08
3.580739E+03	4.729126E-04	1.132228E-08
3.582660E+03	4.789933E-04	1.146786E-08
3.584581E+03	4.885058E-04	1.169560E-08
3.586502E+03	4.968227E-04	1.189472E-08
3.588424E+03	4.984004E-04	1.193249E-08
3.590345E+03	4.988131E-04	1.194237E-08
3.592266E+03	5.021307E-04	1.202180E-08
3.594187E+03	5.035861E-04	1.205665E-08
3.596108E+03	5.015762E-04	1.200853E-08
3.598030E+03	5.023363E-04	1.202673E-08
3.599951E+03	5.060749E-04	1.211623E-08
3.601872E+03	5.104997E-04	1.222217E-08
3.603793E+03	5.129115E-04	1.227991E-08
3.605714E+03	5.140346E-04	1.230680E-08
3.607635E+03	5.156136E-04	1.234461E-08
3.609557E+03	5.159261E-04	1.235209E-08
3.611478E+03	5.179957E-04	1.240164E-08
3.613399E+03	5.200721E-04	1.245135E-08
3.615320E+03	5.191463E-04	1.242918E-08
3.617241E+03	5.173091E-04	1.238520E-08
3.619163E+03	5.184285E-04	1.241200E-08
3.621084E+03	5.179269E-04	1.239999E-08
3.623005E+03	5.163683E-04	1.236267E-08
3.624926E+03	5.134047E-04	1.229172E-08
3.626847E+03	5.103190E-04	1.221784E-08
3.628768E+03	5.085442E-04	1.217535E-08
3.630690E+03	5.069086E-04	1.213619E-08
3.632611E+03	5.066785E-04	1.213069E-08
3.634532E+03	5.060453E-04	1.211553E-08
3.636453E+03	5.045167E-04	1.207893E-08
3.638374E+03	5.020308E-04	1.201941E-08
3.640296E+03	4.997408E-04	1.196459E-08
3.642217E+03	4.986329E-04	1.193806E-08
3.644138E+03	4.963325E-04	1.188298E-08
3.646059E+03	4.961185E-04	1.187786E-08
3.647980E+03	4.988154E-04	1.194243E-08
3.649901E+03	4.973233E-04	1.190671E-08
3.651823E+03	4.972286E-04	1.190444E-08
3.653744E+03	4.985672E-04	1.193649E-08
3.655665E+03	4.972747E-04	1.190554E-08
3.657586E+03	4.961842E-04	1.187944E-08
3.659507E+03	4.955611E-04	1.186452E-08
3.661429E+03	4.914942E-04	1.176715E-08
3.663350E+03	4.888300E-04	1.170336E-08
3.665271E+03	4.891682E-04	1.171146E-08
3.667192E+03	4.910742E-04	1.175709E-08
3.669113E+03	4.918916E-04	1.177666E-08
3.671034E+03	4.919410E-04	1.177785E-08
3.672956E+03	4.917832E-04	1.177407E-08
3.674877E+03	4.941236E-04	1.183010E-08
3.676798E+03	4.989140E-04	1.194479E-08
3.678719E+03	4.988573E-04	1.194343E-08
3.680640E+03	5.003844E-04	1.197999E-08
3.682562E+03	5.028742E-04	1.203960E-08
3.684483E+03	5.054923E-04	1.210228E-08
3.686404E+03	5.094997E-04	1.219823E-08
3.688325E+03	5.112652E-04	1.224050E-08
3.690246E+03	5.115008E-04	1.224614E-08
3.692167E+03	5.151459E-04	1.233341E-08
3.694089E+03	5.203435E-04	1.245784E-08
3.696010E+03	5.248620E-04	1.256603E-08
3.697931E+03	5.302134E-04	1.269415E-08
3.699852E+03	5.346108E-04	1.279943E-08
3.701773E+03	5.374721E-04	1.286793E-08
3.703695E+03	5.401600E-04	1.293228E-08
3.705616E+03	5.449613E-04	1.304723E-08
3.707537E+03	5.494117E-04	1.315379E-08
3.709458E+03	5.550702E-04	1.328926E-08
3.711379E+03	5.636279E-04	1.349414E-08
3.713300E+03	5.723055E-04	1.370190E-08
3.715222E+03	5.793512E-04	1.387058E-08
3.717143E+03	5.820157E-04	1.393438E-08
3.719064E+03	5.834860E-04	1.396958E-08
3.720985E+03	5.833853E-04	1.396717E-08
3.722906E+03	5.845225E-04	1.399439E-08
3.724828E+03	5.850435E-04	1.400687E-08
3.726749E+03	5.872739E-04	1.406027E-08
3.728670E+03	5.877389E-04	1.407140E-08
3.730591E+03	5.860560E-04	1.403111E-08
3.732512E+03	5.814659E-04	1.392121E-08
3.734433E+03	5.761417E-04	1.379374E-08
3.736355E+03	5.727409E-04	1.371232E-08
3.738276E+03	5.713357E-04	1.367868E-08
3.740197E+03	5.688579E-04	1.361936E-08
3.742118E+03	5.673785E-04	1.358394E-08
3.744039E+03	5.673123E-04	1.358235E-08
3.745961E+03	5.674353E-04	1.358530E-08
3.747882E+03	5.657878E-04	1.354585E-08
3.749803E+03	5.625511E-04	1.346836E-08
3.751724E+03	5.609214E-04	1.342934E-08
3.753645E+03	5.616694E-04	1.344725E-08
3.755567E+03	5.610191E-04	1.343168E-08
3.757488E+03	5.577201E-04	1.335270E-08
3.759409E+03	5.564220E-04	1.332162E-08
3.761330E+03	5.534237E-04	1.324984E-08
3.763251E+03	5.490690E-04	1.314558E-08
3.765172E+03	5.452452E-04	1.305403E-08
3.767094E+03	5.394468E-04	1.291521E-08
3.769015E+03	5.347879E-04	1.280367E-08
3.770936E+03	5.305968E-04	1.270333E-08
3.772857E+03	5.283304E-04	1.264907E-08
3.774778E+03	5.280630E-04	1.264266E-08
3.776700E+03	5.272108E-04	1.262226E-08
3.778621E+03	5.292137E-04	1.267021E-08
3.780542E+03	5.327199E-04	1.275416E-08
3.782463E+03	5.341844E-04	1.278922E-08
3.784384E+03	5.365349E-04	1.284549E-08
3.786305E+03	5.409536E-04	1.295128E-08
3.788227E+03	5.448628E-04	1.304488E-08
3.790148E+03	5.476036E-04	1.311050E-08
3.792069E+03	5.538052E-04	1.325897E-08
3.793990E+03	5.614107E-04	1.344106E-08
3.795911E+03	5.670298E-04	1.357559E-08
3.797833E+03	5.702224E-04	1.365203E-08
3.799754E+03	5.713731E-04	1.367958E-08
3.801675E+03	5.714331E-04	1.368101E-08
3.803596E+03	5.716255E-04	1.368562E-08
3.805517E+03	5.720176E-04	1.369501E-08
3.807438E+03	5.702440E-04	1.365254E-08
3.809360E+03	5.670614E-04	1.357634E-08
3.811281E+03	5.641344E-04	1.350627E-08
3.813202E+03	5.615317E-04	1.344395E-08
3.815123E+03	5.592550E-04	1.338945E-08
3.817044E+03	5.584155E-04	1.336935E-08
3.818966E+03	5.578081E-04	1.335481E-08
3.820887E+03	5.577040E-04	1.335231E-08
3.822808E+03	5.604718E-04	1.341858E-08
3.824729E+03	5.624361E-04	1.346561E-08
3.826650E+03	5.619983E-04	1.345513E-08
3.828571E+03	5.606748E-04	1.342344E-08
3.830493E+03	5.594820E-04	1.339488E-08
3.832414E+03	5.609780E-04	1.343070E-08
3.834335E+03	5.615904E-04	1.344536E-08
3.836256E+03	5.618276E-04	1.345104E-08
3.838177E+03	5.645330E-04	1.351581E-08
3.840099E+03	5.672129E-04	1.357997E-08
3.842020E+03	5.712772E-04	1.367728E-08
3.843941E+03	5.771471E-04	1.381781E-08
3.845862E+03	5.823811E-04	1.394312E-08
3.847783E+03	5.856614E-04	1.402166E-08
3.849704E+03	5.913428E-04	1.415768E-08
3.851626E+03	5.998547E-04	1.436147E-08
3.853547E+03	6.043629E-04	1.446940E-08
3.855468E+03	6.083638E-04	1.456519E-08
3.857389E+03	6.140874E-04	1.470222E-08
3.859310E+03	6.206694E-04	1.485980E-08
3.861232E+03	6.276939E-04	1.502798E-08
3.863153E+03	6.339706E-04	1.517826E-08
3.865074E+03	6.385468E-04	1.528782E-08
3.866995E+03	6.409556E-04	1.534549E-08
3.868916E+03	6.445710E-04	1.543205E-08
3.870837E+03	6.483040E-04	1.552142E-08
3.872759E+03	6.566505E-04	1.572125E-08
3.874680E+03	6.660537E-04	1.594638E-08
3.876601E+03	6.770879E-04	1.621055E-08
3.878522E+03	6.900108E-04	1.651995E-08
3.880443E+03	7.029432E-04	1.682957E-08
3.882365E+03	7.168850E-04	1.716336E-08
3.884286E+03	7.333083E-04	1.755656E-08
3.886207E+03	7.497893E-04	1.795114E-08
3.888128E+03	7.659334E-04	1.833765E-08
3.890049E+03	7.811628E-04	1.870227E-08
3.891970E+03	7.957249E-04	1.905091E-08
3.893892E+03	8.085690E-04	1.935842E-08
3.895813E+03	8.212047E-04	1.966094E-08
3.897734E+03	8.361307E-04	2.001829E-08
3.899655E+03	8.486770E-04	2.031867E-08
3.901576E+03	8.574852E-04	2.052955E-08
3.903498E+03	8.667971E-04	2.075249E-08
3.905419E+03	8.781114E-04	2.102337E-08
3.907340E+03	8.851507E-04	2.119190E-08
3.909261E+03	8.922503E-04	2.136188E-08
3.911182E+03	9.006210E-04	2.156229E-08
3.913103E+03	9.064103E-04	2.170089E-08
3.915025E+03	9.126973E-04	2.185141E-08
3.916946E+03	9.196690E-04	2.201832E-08
3.918867E+03	9.293990E-04	2.225128E-08
3.920788E+03	9.394214E-04	2.249123E-08
3.922709E+03	9.469927E-04	2.267250E-08
3.924631E+03	9.538460E-04	2.283658E-08
3.926552E+03	9.590838E-04	2.296198E-08
3.928473E+03	9.639655E-04	2.307885E-08
3.930394E+03	9.669944E-04	2.315137E-08
3.932315E+03	9.683847E-04	2.318466E-08
3.934236E+03	9.688024E-04	2.319466E-08
3.936158E+03	9.668525E-04	2.314797E-08
3.938079E+03	9.649681E-04	2.310286E-08
3.940000E+03	9.624710E-04	2.304307E-08
3.941921E+03	9.600380E-04	2.298482E-08
3.943842E+03	9.559281E-04	2.288643E-08
3.945764E+03	9.483503E-04	2.270500E-08
3.947685E+03	9.388051E-04	2.247647E-08
3.949606E+03	9.332562E-04	2.234362E-08
3.951527E+03	9.274175E-04	2.220384E-08
3.953448E+03	9.176591E-04	2.197020E-08
3.955369E+03	9.094312E-04	2.177322E-08
3.957291E+03	9.062689E-04	2.169751E-08
3.959212E+03	9.039377E-04	2.164169E-08
3.961133E+03	9.029034E-04	2.161693E-08
3.963054E+03	9.035975E-04	2.163355E-08
3.964975E+03	9.039053E-04	2.164092E-08
3.966897E+03	9.070360E-04	2.171587E-08
3.968818E+03	9.103306E-04	2.179475E-08
3.970739E+03	9.132077E-04	2.186363E-08
3.972660E+03	9.156258E-04	2.192152E-08
3.974581E+03	9.194922E-04	2.201409E-08
3.976502E+03	9.289927E-04	2.224155E-08
3.978424E+03	9.423197E-04	2.256062E-08
3.980345E+03	9.557322E-04	2.288174E-08
3.982266E+03	9.677386E-04	2.316919E-08
3.984187E+03	9.794325E-04	2.344916E-08
3.986108E+03	9.951464E-04	2.382537E-08
3.988030E+03	1.012652E-03	2.424449E-08
3.989951E+03	1.029785E-03	2.465467E-08
3.991872E+03	1.048126E-03	2.509379E-08
3.993793E+03	1.064587E-03	2.548789E-08
3.995714E+03	1.081742E-03	2.589860E-08
3.997635E+03	1.099116E-03	2.631456E-08
3.999557E+03	1.112958E-03	2.664597E-08
4.001478E+03	1.125848E-03	2.695457E-08
4.003399E+03	1.139984E-03	2.729301E-08
4.005320E+03	1.155814E-03	2.767202E-08
4.007241E+03	1.167759E-03	2.795798E-08
4.009163E+03	1.176077E-03	2.815715E-08
4.011084E+03	1.183777E-03	2.834149E-08
4.013005E+03	1.192836E-03	2.855838E-08
4.014926E+03	1.204396E-03	2.883514E-08
4.016847E+03	1.215223E-03	2.909436E-08
4.018768E+03	1.226249E-03	2.935834E-08
4.020690E+03	1.236742E-03	2.960955E-08
4.022611E+03	1.244698E-03	2.980004E-08
4.024532E+03	1.248223E-03	2.988443E-08
4.026453E+03	1.249136E-03	2.990628E-08
4.028374E+03	1.251074E-03	2.995267E-08
4.030296E+03	1.254289E-03	3.002964E-08
4.032217E+03	1.255329E-03	3.005454E-08
4.034138E+03	1.253810E-03	3.001818E-08
4.036059E+03	1.250131E-03	2.993011E-08
4.037980E+03	1.246642E-03	2.984657E-08
4.039901E+03	1.243385E-03	2.976858E-08
4.041823E+03	1.237284E-03	2.962253E-08
4.043744E+03	1.229824E-03	2.944393E-08
4.045665E+03	1.221748E-03	2.925058E-08
4.047586E+03	1.214265E-03	2.907143E-08
4.049507E+03	1.206374E-03	2.888249E-08
4.051429E+03	1.200463E-03	2.874096E-08
4.053350E+03	1.195156E-03	2.861391E-08
4.055271E+03	1.190204E-03	2.849536E-08
4.057192E+03	1.187550E-03	2.843183E-08
4.059113E+03	1.183192E-03	2.832748E-08
4.061034E+03	1.179449E-03	2.823786E-08
4.062956E+03	1.178063E-03	2.820468E-08
4.064877E+03	1.178197E-03	2.820790E-08
4.066798E+03	1.176114E-03	2.815803E-08
4.068719E+03	1.172185E-03	2.806396E-08
4.070640E+03	1.169391E-03	2.799706E-08
4.072562E+03	1.169622E-03	2.800260E-08
4.074483E+03	1.168649E-03	2.797930E-08
4.076404E+03	1.163801E-03	2.786322E-08
4.078325E+03	1.160308E-03	2.777959E-08
4.080246E+03	1.158911E-03	2.774615E-08
4.082167E+03	1.156122E-03	2.767938E-08
4.084089E+03	1.152842E-03	2.760086E-08
4.086010E+03	1.150067E-03	2.753441E-08
4.087931E+03	1.148884E-03	2.750610E-08
4.089852E+03	1.147432E-03	2.747133E-08
4.091773E+03	1.144575E-03	2.740292E-08
4.093695E+03	1.144717E-03	2.740634E-08
4.095616E+03	1.149978E-03	2.753227E-08
4.097537E+03	1.152402E-03	2.759032E-08
4.099458E+03	1.153689E-03	2.762114E-08
4.101379E+03	1.158762E-03	2.774259E-08
4.103300E+03	1.162923E-03	2.784221E-08
4.105222E+03	1.162898E-03	2.784162E-08
4.107143E+03	1.166056E-03	2.791721E-08
4.109064E+03	1.168644E-03	2.797917E-08
4.110985E+03	1.168882E-03	2.798488E-08
4.112906E+03	1.170141E-03	2.801502E-08
4.114828E+03	1.171980E-03	2.805904E-08
4.116749E+03	1.176813E-03	2.817475E-08
4.118670E+03	1.178617E-03	2.821794E-08
4.120591E+03	1.180153E-03	2.825473E-08
4.122512E+03	1.184835E-03	2.836682E-08
4.124433E+03	1.189484E-03	2.847813E-08
4.126355E+03	1.192929E-03	2.856060E-08
4.128276E+03	1.193672E-03	2.857839E-08
4.130197E+03	1.195816E-03	2.862971E-08
4.132118E+03	1.202405E-03	2.878746E-08
4.134039E+03	1.205834E-03	2.886957E-08
4.135961E+03	1.208908E-03	2.894316E-08
4.137882E+03	1.215406E-03	2.909873E-08
4.139803E+03	1.219366E-03	2.919355E-08
