#wls	flux	fluxerr
1.576355E+03	2.385785E-05	7.160498E-07
1.615764E+03	2.428718E-05	7.263708E-07
1.655172E+03	2.458763E-05	7.326973E-07
1.694581E+03	2.474606E-05	7.346776E-07
1.733990E+03	2.475395E-05	7.321046E-07
1.773399E+03	2.457828E-05	7.240557E-07
1.812808E+03	2.417575E-05	7.093244E-07
1.852217E+03	2.351096E-05	6.869598E-07
1.891626E+03	2.255036E-05	6.560858E-07
1.931034E+03	2.129922E-05	6.169729E-07
1.970443E+03	1.982019E-05	5.715482E-07
2.009852E+03	1.826709E-05	5.243284E-07
2.049261E+03	1.688100E-05	4.822432E-07
2.088670E+03	1.593926E-05	4.531202E-07
2.128079E+03	1.564530E-05	4.425360E-07
2.167488E+03	1.605800E-05	4.518730E-07
2.206897E+03	1.708627E-05	4.782680E-07
2.246305E+03	1.855501E-05	5.165616E-07
2.285714E+03	2.025633E-05	5.607827E-07
2.325123E+03	2.202291E-05	6.062002E-07
2.364532E+03	2.374195E-05	6.496777E-07
2.403941E+03	2.533958E-05	6.892119E-07
2.443350E+03	2.679023E-05	7.241542E-07
2.482759E+03	2.808770E-05	7.543974E-07
2.522167E+03	2.923831E-05	7.801750E-07
2.561576E+03	3.025421E-05	8.018738E-07
2.600985E+03	3.114960E-05	8.199286E-07
2.640394E+03	3.193883E-05	8.347709E-07
2.679803E+03	3.264076E-05	8.469402E-07
2.719212E+03	3.325792E-05	8.565439E-07
2.758621E+03	3.380738E-05	8.640610E-07
2.798030E+03	3.430600E-05	8.699527E-07
2.837438E+03	3.475434E-05	8.742592E-07
2.876847E+03	3.517452E-05	8.775585E-07
2.916256E+03	3.557298E-05	8.800240E-07
2.955665E+03	3.596231E-05	8.819748E-07
2.965517E+03	3.605758E-05	8.823670E-07
2.975369E+03	3.615851E-05	8.828793E-07
2.985222E+03	3.625434E-05	8.832490E-07
2.995074E+03	3.635726E-05	8.837730E-07
3.004926E+03	3.646531E-05	8.844024E-07
3.014778E+03	3.657661E-05	8.850912E-07
3.024631E+03	3.670131E-05	8.860837E-07
3.034483E+03	3.683316E-05	8.872270E-07
3.044335E+03	3.697154E-05	8.885048E-07
3.054187E+03	3.711589E-05	8.899031E-07
3.064039E+03	3.726576E-05	8.914096E-07
3.073892E+03	3.742079E-05	8.930149E-07
3.083744E+03	3.758070E-05	8.947115E-07
3.093596E+03	3.775090E-05	8.966269E-07
3.103448E+03	3.792003E-05	8.984899E-07
3.113300E+03	3.809930E-05	9.005660E-07
3.123153E+03	3.827738E-05	9.025861E-07
3.133005E+03	3.846568E-05	9.048187E-07
3.142857E+03	3.865296E-05	9.069981E-07
3.152709E+03	3.885078E-05	9.093954E-07
3.162562E+03	3.905368E-05	9.118809E-07
3.172414E+03	3.926194E-05	9.144602E-07
3.182266E+03	3.947010E-05	9.170057E-07
3.192118E+03	3.969008E-05	9.197933E-07
3.201970E+03	3.991653E-05	9.226974E-07
3.211823E+03	4.015580E-05	9.258631E-07
3.221675E+03	4.039670E-05	9.290308E-07
3.231527E+03	4.064559E-05	9.323460E-07
3.241379E+03	4.090313E-05	9.358222E-07
3.251232E+03	4.116989E-05	9.394711E-07
3.261084E+03	4.145260E-05	9.434440E-07
3.270936E+03	4.174003E-05	9.474829E-07
3.280788E+03	4.204496E-05	9.518764E-07
3.290640E+03	4.235613E-05	9.563671E-07
3.300493E+03	4.268656E-05	9.612470E-07
3.310345E+03	4.303111E-05	9.663971E-07
3.320197E+03	4.339075E-05	9.718363E-07
3.330049E+03	4.376029E-05	9.774458E-07
3.339901E+03	4.415322E-05	9.835248E-07
3.349754E+03	4.456449E-05	9.899561E-07
3.359606E+03	4.499528E-05	9.967627E-07
3.369458E+03	4.544687E-05	1.003969E-06
3.379310E+03	4.592059E-05	1.011601E-06
3.389163E+03	4.641781E-05	1.019684E-06
3.399015E+03	4.694661E-05	1.028390E-06
3.408867E+03	4.749542E-05	1.037462E-06
3.418719E+03	4.807240E-05	1.047073E-06
3.428571E+03	4.868608E-05	1.057402E-06
3.438424E+03	4.932470E-05	1.068189E-06
3.448276E+03	5.000392E-05	1.079767E-06
3.458128E+03	5.071181E-05	1.091870E-06
3.467980E+03	5.146454E-05	1.104842E-06
3.477833E+03	5.225006E-05	1.118414E-06
3.487685E+03	5.308506E-05	1.132939E-06
3.497537E+03	5.396475E-05	1.148302E-06
3.507389E+03	5.488400E-05	1.164389E-06
3.517241E+03	5.586032E-05	1.181561E-06
3.527094E+03	5.688880E-05	1.199703E-06
3.536946E+03	5.797202E-05	1.218861E-06
3.546798E+03	5.911255E-05	1.239077E-06
3.556650E+03	6.031300E-05	1.260395E-06
3.566502E+03	6.157596E-05	1.282858E-06
3.576355E+03	6.290404E-05	1.306508E-06
3.586207E+03	6.429991E-05	1.331387E-06
3.596059E+03	6.576624E-05	1.357539E-06
3.605911E+03	6.731492E-05	1.385193E-06
3.615764E+03	6.893074E-05	1.414022E-06
3.625616E+03	7.062551E-05	1.444255E-06
3.635468E+03	7.240224E-05	1.475938E-06
3.645320E+03	7.427402E-05	1.509322E-06
3.655172E+03	7.622436E-05	1.544054E-06
3.665025E+03	7.826631E-05	1.580384E-06
3.674877E+03	8.041405E-05	1.618578E-06
3.684729E+03	8.264996E-05	1.658264E-06
3.694581E+03	8.499952E-05	1.699934E-06
3.704433E+03	8.744423E-05	1.743199E-06
3.714286E+03	9.001096E-05	1.788574E-06
3.724138E+03	9.268028E-05	1.835651E-06
3.733990E+03	9.548059E-05	1.884973E-06
3.743842E+03	9.840434E-05	1.936365E-06
3.753695E+03	1.014427E-04	1.989632E-06
3.763547E+03	1.046264E-04	2.045356E-06
3.773399E+03	1.079333E-04	2.103074E-06
3.783251E+03	1.113959E-04	2.163399E-06
3.793103E+03	1.150056E-04	2.226131E-06
3.802956E+03	1.187671E-04	2.291340E-06
3.812808E+03	1.226699E-04	2.358791E-06
3.822660E+03	1.267504E-04	2.429160E-06
3.832512E+03	1.309984E-04	2.502219E-06
3.842365E+03	1.354192E-04	2.578040E-06
3.852217E+03	1.400001E-04	2.656351E-06
3.862069E+03	1.447820E-04	2.737897E-06
3.871921E+03	1.497527E-04	2.822414E-06
3.881773E+03	1.549177E-04	2.909969E-06
3.891626E+03	1.602821E-04	3.000629E-06
3.901478E+03	1.658300E-04	3.094062E-06
3.911330E+03	1.716083E-04	3.191108E-06
3.921182E+03	1.776014E-04	3.291440E-06
3.931034E+03	1.838143E-04	3.395116E-06
3.940887E+03	1.902516E-04	3.502182E-06
3.950739E+03	1.968930E-04	3.612231E-06
3.960591E+03	2.037914E-04	3.726198E-06
3.970443E+03	2.109269E-04	3.843681E-06
3.980296E+03	2.183030E-04	3.964705E-06
3.990148E+03	2.259229E-04	4.089291E-06
4.000000E+03	2.337601E-04	4.216925E-06
4.009852E+03	2.418744E-04	4.348653E-06
4.019704E+03	2.502393E-04	4.483955E-06
4.029557E+03	2.588560E-04	4.622818E-06
4.039409E+03	2.676917E-04	4.764626E-06
4.049261E+03	2.768117E-04	4.910508E-06
4.059113E+03	2.861829E-04	5.059839E-06
4.068966E+03	2.957670E-04	5.211913E-06
4.078818E+03	3.056336E-04	5.367928E-06
4.088670E+03	3.157436E-04	5.527165E-06
4.098522E+03	3.260523E-04	5.688816E-06
4.108374E+03	3.366335E-04	5.854146E-06
4.118227E+03	3.473991E-04	6.021597E-06
4.128079E+03	3.584251E-04	6.192471E-06
4.137931E+03	3.696163E-04	6.365102E-06
4.147783E+03	3.810520E-04	6.540839E-06
4.157635E+03	3.926290E-04	6.717902E-06
4.167488E+03	4.044294E-04	6.897683E-06
4.177340E+03	4.163423E-04	7.078288E-06
4.187192E+03	4.284008E-04	7.260281E-06
4.197044E+03	4.406421E-04	7.444289E-06
4.206897E+03	4.529437E-04	7.628248E-06
4.216749E+03	4.653393E-04	7.812738E-06
4.226601E+03	4.778091E-04	7.997443E-06
4.236453E+03	4.903329E-04	8.182041E-06
4.246305E+03	5.028893E-04	8.366196E-06
4.256158E+03	5.154564E-04	8.549570E-06
4.266010E+03	5.280114E-04	8.731816E-06
4.275862E+03	5.405310E-04	8.912583E-06
4.285714E+03	5.529916E-04	9.091520E-06
4.295567E+03	5.653697E-04	9.268286E-06
4.305419E+03	5.776418E-04	9.442538E-06
4.315271E+03	5.897850E-04	9.613955E-06
4.325123E+03	6.017060E-04	9.781072E-06
4.334975E+03	6.135260E-04	9.945919E-06
4.344828E+03	6.250826E-04	1.010592E-05
4.354680E+03	6.365056E-04	1.026324E-05
4.364532E+03	6.476309E-04	1.041530E-05
4.374384E+03	6.585959E-04	1.056436E-05
4.384236E+03	6.692346E-04	1.070784E-05
4.394089E+03	6.796124E-04	1.084685E-05
4.403941E+03	6.898000E-04	1.098258E-05
4.413793E+03	6.996289E-04	1.111243E-05
4.423645E+03	7.091720E-04	1.123762E-05
4.433498E+03	7.184231E-04	1.135813E-05
4.443350E+03	7.273780E-04	1.147395E-05
4.453202E+03	7.360334E-04	1.158510E-05
4.463054E+03	7.443011E-04	1.169027E-05
4.472906E+03	7.523516E-04	1.179218E-05
4.482759E+03	7.601002E-04	1.188955E-05
4.492611E+03	7.674593E-04	1.198107E-05
4.502463E+03	7.746077E-04	1.206958E-05
4.512315E+03	7.813712E-04	1.215240E-05
4.522167E+03	7.879334E-04	1.223244E-05
4.532020E+03	7.941190E-04	1.230701E-05
4.541872E+03	8.000243E-04	1.237765E-05
4.551724E+03	8.056563E-04	1.244451E-05
4.561576E+03	8.110232E-04	1.250775E-05
4.571429E+03	8.161337E-04	1.256753E-05
4.581281E+03	8.209972E-04	1.262403E-05
4.591133E+03	8.256241E-04	1.267743E-05
4.600985E+03	8.299308E-04	1.272649E-05
4.610837E+03	8.341169E-04	1.277429E-05
4.620690E+03	8.381004E-04	1.281959E-05
4.630542E+03	8.417980E-04	1.286113E-05
4.640394E+03	8.453167E-04	1.290059E-05
4.650246E+03	8.487642E-04	1.293961E-05
4.660099E+03	8.519604E-04	1.297546E-05
4.669951E+03	8.550112E-04	1.300977E-05
4.679803E+03	8.579263E-04	1.304271E-05
4.689655E+03	8.607152E-04	1.307442E-05
4.699507E+03	8.633870E-04	1.310506E-05
4.709360E+03	8.658543E-04	1.313332E-05
4.719212E+03	8.683205E-04	1.316227E-05
4.729064E+03	8.706982E-04	1.319062E-05
4.738916E+03	8.728997E-04	1.321702E-05
4.748768E+03	8.750324E-04	1.324313E-05
4.758621E+03	8.772039E-04	1.327056E-05
4.768473E+03	8.792290E-04	1.329653E-05
4.778325E+03	8.812157E-04	1.332267E-05
4.788177E+03	8.831739E-04	1.334913E-05
4.798030E+03	8.851143E-04	1.337608E-05
4.807882E+03	8.870467E-04	1.340368E-05
4.817734E+03	8.888832E-04	1.343058E-05
4.827586E+03	8.908304E-04	1.345991E-05
4.837438E+03	8.927012E-04	1.348882E-05
4.847291E+03	8.947025E-04	1.352044E-05
4.857143E+03	8.966466E-04	1.355192E-05
4.866995E+03	8.986408E-04	1.358488E-05
4.876847E+03	9.006942E-04	1.361943E-05
4.886700E+03	9.028155E-04	1.365571E-05
4.896552E+03	9.050126E-04	1.369383E-05
4.906404E+03	9.072935E-04	1.373390E-05
4.916256E+03	9.096659E-04	1.377603E-05
4.926108E+03	9.120364E-04	1.381880E-05
4.935961E+03	9.146117E-04	1.386533E-05
4.945813E+03	9.171978E-04	1.391268E-05
4.955665E+03	9.199001E-04	1.396244E-05
4.965517E+03	9.228248E-04	1.401622E-05
4.975369E+03	9.257757E-04	1.407103E-05
4.985222E+03	9.288571E-04	1.412846E-05
4.995074E+03	9.319718E-04	1.418702E-05
5.004926E+03	9.353258E-04	1.424985E-05
5.014778E+03	9.388202E-04	1.431543E-05
5.024631E+03	9.423555E-04	1.438225E-05
5.034483E+03	9.461377E-04	1.445345E-05
5.044335E+03	9.499631E-04	1.452592E-05
5.054187E+03	9.540378E-04	1.460281E-05
5.064039E+03	9.581559E-04	1.468097E-05
5.073892E+03	9.624199E-04	1.476197E-05
5.083744E+03	9.668285E-04	1.484579E-05
5.093596E+03	9.713805E-04	1.493241E-05
5.103448E+03	9.759681E-04	1.502018E-05
5.113300E+03	9.807986E-04	1.511229E-05
5.123153E+03	9.856573E-04	1.520543E-05
5.133005E+03	9.907523E-04	1.530281E-05
5.142857E+03	9.958658E-04	1.540108E-05
5.152709E+03	1.001098E-03	1.550178E-05
5.162562E+03	1.006552E-03	1.560651E-05
5.172414E+03	1.012005E-03	1.571182E-05
5.182266E+03	1.017556E-03	1.581925E-05
5.192118E+03	1.023088E-03	1.592698E-05
5.201970E+03	1.028812E-03	1.603828E-05
5.211823E+03	1.034607E-03	1.615130E-05
5.221675E+03	1.040353E-03	1.626414E-05
5.231527E+03	1.046262E-03	1.638012E-05
5.241379E+03	1.052100E-03	1.649555E-05
5.251232E+03	1.057964E-03	1.661200E-05
5.261084E+03	1.063845E-03	1.672928E-05
5.270936E+03	1.069842E-03	1.684898E-05
5.280788E+03	1.075601E-03	1.696549E-05
5.290640E+03	1.081452E-03	1.708402E-05
5.300493E+03	1.087266E-03	1.720254E-05
5.310345E+03	1.093032E-03	1.732083E-05
5.320197E+03	1.098619E-03	1.743685E-05
5.330049E+03	1.104246E-03	1.755406E-05
5.339901E+03	1.109669E-03	1.766854E-05
5.349754E+03	1.114992E-03	1.778194E-05
5.359606E+03	1.120322E-03	1.789597E-05
5.369458E+03	1.125411E-03	1.800667E-05
5.379310E+03	1.130370E-03	1.811575E-05
5.389163E+03	1.135189E-03	1.822306E-05
5.399015E+03	1.139740E-03	1.832654E-05
5.408867E+03	1.144260E-03	1.842995E-05
5.418719E+03	1.148623E-03	1.853127E-05
5.428571E+03	1.152705E-03	1.862848E-05
5.438424E+03	1.156748E-03	1.872545E-05
5.448276E+03	1.160508E-03	1.881824E-05
5.458128E+03	1.164109E-03	1.890881E-05
5.467980E+03	1.167553E-03	1.899720E-05
5.477833E+03	1.170969E-03	1.908547E-05
5.487685E+03	1.174115E-03	1.916968E-05
5.497537E+03	1.176996E-03	1.924987E-05
5.507389E+03	1.179867E-03	1.933021E-05
5.517241E+03	1.182612E-03	1.940878E-05
5.527094E+03	1.185240E-03	1.948572E-05
5.536946E+03	1.187635E-03	1.955908E-05
5.546798E+03	1.190055E-03	1.963313E-05
5.556650E+03	1.192259E-03	1.970387E-05
5.566502E+03	1.194383E-03	1.977352E-05
5.576355E+03	1.196562E-03	1.984430E-05
5.586207E+03	1.198552E-03	1.991221E-05
5.596059E+03	1.200490E-03	1.997945E-05
5.605911E+03	1.202383E-03	2.004616E-05
5.615764E+03	1.204241E-03	2.011250E-05
5.625616E+03	1.206071E-03	2.017858E-05
5.635468E+03	1.207753E-03	2.024238E-05
5.645320E+03	1.209549E-03	2.030829E-05
5.655172E+03	1.211338E-03	2.037428E-05
5.665025E+03	1.212998E-03	2.043828E-05
5.674877E+03	1.214788E-03	2.050468E-05
5.684729E+03	1.216458E-03	2.056922E-05
5.694581E+03	1.218138E-03	2.063414E-05
5.704433E+03	1.219830E-03	2.069945E-05
5.714286E+03	1.221666E-03	2.076739E-05
5.724138E+03	1.223389E-03	2.083359E-05
5.733990E+03	1.225128E-03	2.090025E-05
5.743842E+03	1.226881E-03	2.096735E-05
5.753695E+03	1.228518E-03	2.103265E-05
5.763547E+03	1.230294E-03	2.110054E-05
5.773399E+03	1.232078E-03	2.116873E-05
5.783251E+03	1.233864E-03	2.123716E-05
5.793103E+03	1.235517E-03	2.130351E-05
5.802956E+03	1.237292E-03	2.137215E-05
5.812808E+03	1.238922E-03	2.143847E-05
5.822660E+03	1.240527E-03	2.150457E-05
5.832512E+03	1.242232E-03	2.157259E-05
5.842365E+03	1.243766E-03	2.163783E-05
5.852217E+03	1.245249E-03	2.170238E-05
5.862069E+03	1.246670E-03	2.176605E-05
5.871921E+03	1.248019E-03	2.182864E-05
5.881773E+03	1.249282E-03	2.188993E-05
5.891626E+03	1.250449E-03	2.194971E-05
5.901478E+03	1.251506E-03	2.200774E-05
5.911330E+03	1.252439E-03	2.206377E-05
5.921182E+03	1.253235E-03	2.211756E-05
5.931034E+03	1.253748E-03	2.216653E-05
5.940887E+03	1.254227E-03	2.221505E-05
5.950739E+03	1.254527E-03	2.226054E-05
5.960591E+03	1.254501E-03	2.230040E-05
5.970443E+03	1.254399E-03	2.233904E-05
5.980296E+03	1.253944E-03	2.237150E-05
5.990148E+03	1.253255E-03	2.239990E-05
6.000000E+03	1.252449E-03	2.242633E-05
6.009852E+03	1.251253E-03	2.244584E-05
6.019704E+03	1.249787E-03	2.246059E-05
6.029557E+03	1.248042E-03	2.247035E-05
6.039409E+03	1.246007E-03	2.247496E-05
6.049261E+03	1.243676E-03	2.247426E-05
6.059113E+03	1.241045E-03	2.246813E-05
6.068966E+03	1.238108E-03	2.245645E-05
6.078818E+03	1.234863E-03	2.243918E-05
6.088670E+03	1.231311E-03	2.241627E-05
6.098522E+03	1.227455E-03	2.238777E-05
6.108374E+03	1.223170E-03	2.235136E-05
6.118227E+03	1.218723E-03	2.231186E-05
6.128079E+03	1.213996E-03	2.226709E-05
6.137931E+03	1.208874E-03	2.221490E-05
6.147783E+03	1.203625E-03	2.216020E-05
6.157635E+03	1.198013E-03	2.209857E-05
6.167488E+03	1.192307E-03	2.203496E-05
6.177340E+03	1.186273E-03	2.196502E-05
6.187192E+03	1.180056E-03	2.189140E-05
6.197044E+03	1.173800E-03	2.181672E-05
6.206897E+03	1.167275E-03	2.173672E-05
6.216749E+03	1.160625E-03	2.165406E-05
6.226601E+03	1.153872E-03	2.156908E-05
6.236453E+03	1.147155E-03	2.148441E-05
6.246305E+03	1.140250E-03	2.139584E-05
6.256158E+03	1.133300E-03	2.130601E-05
6.266010E+03	1.126322E-03	2.121524E-05
6.275862E+03	1.119335E-03	2.112387E-05
6.285714E+03	1.112355E-03	2.103223E-05
6.295567E+03	1.105401E-03	2.094063E-05
6.305419E+03	1.098488E-03	2.084937E-05
6.315271E+03	1.091516E-03	2.075655E-05
6.325123E+03	1.084731E-03	2.066685E-05
6.334975E+03	1.078031E-03	2.057832E-05
6.344828E+03	1.071428E-03	2.049123E-05
6.354680E+03	1.064824E-03	2.040366E-05
6.364532E+03	1.058454E-03	2.032016E-05
6.374384E+03	1.052217E-03	2.023879E-05
6.384236E+03	1.046013E-03	2.015760E-05
6.394089E+03	1.040071E-03	2.008109E-05
6.403941E+03	1.034181E-03	2.000515E-05
6.413793E+03	1.028570E-03	1.993421E-05
6.423645E+03	1.023027E-03	1.986420E-05
6.433498E+03	1.017776E-03	1.979949E-05
6.443350E+03	1.012607E-03	1.973600E-05
6.453202E+03	1.007635E-03	1.967599E-05
6.463054E+03	1.002971E-03	1.962165E-05
6.472906E+03	9.984065E-04	1.956893E-05
6.482759E+03	9.940535E-04	1.952003E-05
6.492611E+03	9.899158E-04	1.947504E-05
6.502463E+03	9.861023E-04	1.943614E-05
6.512315E+03	9.824064E-04	1.939928E-05
6.522167E+03	9.789365E-04	1.936661E-05
6.532020E+03	9.756952E-04	1.933822E-05
6.541872E+03	9.726860E-04	1.931418E-05
6.551724E+03	9.699107E-04	1.929457E-05
6.561576E+03	9.673721E-04	1.927946E-05
6.571429E+03	9.650722E-04	1.926891E-05
6.581281E+03	9.630134E-04	1.926301E-05
6.591133E+03	9.611971E-04	1.926180E-05
6.600985E+03	9.596253E-04	1.926534E-05
6.610837E+03	9.582997E-04	1.927371E-05
6.620690E+03	9.572222E-04	1.928695E-05
6.630542E+03	9.562920E-04	1.930307E-05
6.640394E+03	9.557147E-04	1.932623E-05
6.650246E+03	9.553892E-04	1.935444E-05
6.660099E+03	9.553173E-04	1.938774E-05
6.669951E+03	9.553980E-04	1.942411E-05
6.679803E+03	9.558365E-04	1.946776E-05
6.689655E+03	9.565318E-04	1.951665E-05
6.699507E+03	9.573824E-04	1.956874E-05
6.709360E+03	9.585941E-04	1.962825E-05
6.719212E+03	9.599621E-04	1.969104E-05
6.729064E+03	9.616931E-04	1.976135E-05
6.738916E+03	9.635815E-04	1.983501E-05
6.748768E+03	9.658340E-04	1.991628E-05
6.758621E+03	9.682440E-04	2.000095E-05
6.768473E+03	9.710190E-04	2.009331E-05
6.778325E+03	9.739512E-04	2.018910E-05
6.788177E+03	9.771439E-04	2.029049E-05
6.798030E+03	9.807018E-04	2.039968E-05
6.807882E+03	9.844144E-04	2.051232E-05
6.817734E+03	9.883852E-04	2.063059E-05
6.827586E+03	9.927201E-04	2.075674E-05
6.837438E+03	9.972041E-04	2.088629E-05
6.847291E+03	1.001942E-03	2.102147E-05
6.857143E+03	1.006932E-03	2.116226E-05
6.866995E+03	1.012170E-03	2.130861E-05
6.876847E+03	1.017654E-03	2.146051E-05
6.886700E+03	1.023492E-03	2.162024E-05
6.896552E+03	1.029458E-03	2.178309E-05
6.906404E+03	1.035658E-03	2.195132E-05
6.916256E+03	1.042089E-03	2.212485E-05
6.926108E+03	1.048743E-03	2.230358E-05
6.935961E+03	1.055615E-03	2.248741E-05
6.945813E+03	1.062698E-03	2.267623E-05
6.955665E+03	1.069870E-03	2.286743E-05
6.965517E+03	1.077352E-03	2.306578E-05
6.975369E+03	1.085021E-03	2.326866E-05
6.985222E+03	1.092868E-03	2.347590E-05
6.995074E+03	1.100882E-03	2.368728E-05
7.004926E+03	1.108931E-03	2.390001E-05
7.014778E+03	1.117244E-03	2.411898E-05
7.024631E+03	1.125687E-03	2.434138E-05
7.034483E+03	1.134124E-03	2.456424E-05
7.044335E+03	1.142786E-03	2.479257E-05
7.054187E+03	1.151532E-03	2.502338E-05
7.064039E+03	1.160222E-03	2.525359E-05
7.073892E+03	1.169087E-03	2.548825E-05
7.083744E+03	1.177856E-03	2.572145E-05
7.093596E+03	1.186762E-03	2.595832E-05
7.103448E+03	1.195528E-03	2.619277E-05
7.113300E+03	1.204390E-03	2.642996E-05
7.123153E+03	1.213064E-03	2.666367E-05
7.133005E+03	1.221653E-03	2.689619E-05
7.142857E+03	1.230266E-03	2.712988E-05
7.152709E+03	1.238610E-03	2.735826E-05
7.162562E+03	1.246788E-03	2.758363E-05
7.172414E+03	1.254771E-03	2.780532E-05
7.182266E+03	1.262668E-03	2.802570E-05
7.192118E+03	1.270172E-03	2.823796E-05
7.201970E+03	1.277388E-03	2.844443E-05
7.211823E+03	1.284284E-03	2.864432E-05
7.221675E+03	1.290827E-03	2.883688E-05
7.231527E+03	1.296983E-03	2.902133E-05
7.241379E+03	1.302718E-03	2.919686E-05
7.251232E+03	1.307998E-03	2.936268E-05
7.261084E+03	1.312790E-03	2.951798E-05
7.270936E+03	1.317061E-03	2.966197E-05
7.280788E+03	1.320631E-03	2.979057E-05
7.290640E+03	1.323761E-03	2.990955E-05
7.300493E+03	1.326273E-03	3.001489E-05
7.310345E+03	1.328138E-03	3.010586E-05
7.320197E+03	1.329184E-03	3.017847E-05
7.330049E+03	1.329677E-03	3.023868E-05
7.339901E+03	1.329448E-03	3.028260E-05
7.349754E+03	1.328330E-03	3.030636E-05
7.359606E+03	1.326601E-03	3.031616E-05
7.369458E+03	1.323953E-03	3.030495E-05
7.379310E+03	1.320671E-03	3.027913E-05
7.389163E+03	1.316457E-03	3.023181E-05
7.399015E+03	1.311605E-03	3.016962E-05
7.408867E+03	1.305829E-03	3.008595E-05
7.418719E+03	1.299291E-03	2.998436E-05
7.428571E+03	1.292151E-03	2.986855E-05
7.438424E+03	1.284147E-03	2.973229E-05
7.448276E+03	1.275448E-03	2.957946E-05
7.458128E+03	1.266085E-03	2.941067E-05
7.467980E+03	1.256090E-03	2.922657E-05
7.477833E+03	1.245497E-03	2.902789E-05
7.487685E+03	1.234342E-03	2.881538E-05
7.497537E+03	1.222662E-03	2.858984E-05
7.507389E+03	1.210494E-03	2.835208E-05
7.517241E+03	1.197876E-03	2.810292E-05
7.527094E+03	1.184848E-03	2.784323E-05
7.536946E+03	1.171446E-03	2.757381E-05
7.546798E+03	1.157709E-03	2.729553E-05
7.556650E+03	1.143545E-03	2.700620E-05
7.566502E+03	1.129249E-03	2.671270E-05
7.576355E+03	1.114726E-03	2.641277E-05
7.586207E+03	1.099888E-03	2.610428E-05
7.596059E+03	1.085014E-03	2.579386E-05
7.605911E+03	1.069893E-03	2.547641E-05
7.615764E+03	1.054796E-03	2.515841E-05
7.625616E+03	1.039512E-03	2.483482E-05
7.635468E+03	1.024306E-03	2.451191E-05
7.645320E+03	1.008970E-03	2.418475E-05
