#wls	flux	fluxerr
1.576355E+03	1.297236E-05	5.265339E-07
1.615764E+03	1.317291E-05	5.325452E-07
1.655172E+03	1.330317E-05	5.356085E-07
1.694581E+03	1.335426E-05	5.354001E-07
1.733990E+03	1.332478E-05	5.319026E-07
1.773399E+03	1.319542E-05	5.243904E-07
1.812808E+03	1.294392E-05	5.120367E-07
1.852217E+03	1.255498E-05	4.943084E-07
1.891626E+03	1.201184E-05	4.706293E-07
1.931034E+03	1.131657E-05	4.411755E-07
1.970443E+03	1.050572E-05	4.074620E-07
2.009852E+03	9.657894E-06	3.726014E-07
2.049261E+03	8.904260E-06	3.416606E-07
2.088670E+03	8.390013E-06	3.201306E-07
2.128079E+03	8.217534E-06	3.117482E-07
2.167488E+03	8.418829E-06	3.174977E-07
2.206897E+03	8.943039E-06	3.352178E-07
2.246305E+03	9.697975E-06	3.612439E-07
2.285714E+03	1.057682E-05	3.914484E-07
2.325123E+03	1.149178E-05	4.225003E-07
2.364532E+03	1.238351E-05	4.521909E-07
2.403941E+03	1.321932E-05	4.793374E-07
2.443350E+03	1.398597E-05	5.034919E-07
2.482759E+03	1.468491E-05	5.247467E-07
2.522167E+03	1.531641E-05	5.431541E-07
2.561576E+03	1.589422E-05	5.592407E-07
2.600985E+03	1.642234E-05	5.731815E-07
2.640394E+03	1.691618E-05	5.855418E-07
2.679803E+03	1.738225E-05	5.965667E-07
2.719212E+03	1.782958E-05	6.065786E-07
2.758621E+03	1.826679E-05	6.158780E-07
2.798030E+03	1.870234E-05	6.247487E-07
2.837438E+03	1.914466E-05	6.334640E-07
2.876847E+03	1.960233E-05	6.422910E-07
2.916256E+03	2.008428E-05	6.514972E-07
2.955665E+03	2.060360E-05	6.614715E-07
2.965517E+03	2.073811E-05	6.640428E-07
2.975369E+03	2.087552E-05	6.666768E-07
2.985222E+03	2.101969E-05	6.694955E-07
2.995074E+03	2.116400E-05	6.722869E-07
3.004926E+03	2.131423E-05	6.752338E-07
3.014778E+03	2.147633E-05	6.785225E-07
3.024631E+03	2.164241E-05	6.819014E-07
3.034483E+03	2.181964E-05	6.855946E-07
3.044335E+03	2.200016E-05	6.893525E-07
3.054187E+03	2.218748E-05	6.932841E-07
3.064039E+03	2.238531E-05	6.975028E-07
3.073892E+03	2.258574E-05	7.017600E-07
3.083744E+03	2.279250E-05	7.061706E-07
3.093596E+03	2.300956E-05	7.108550E-07
3.103448E+03	2.322890E-05	7.155635E-07
3.113300E+03	2.345858E-05	7.205425E-07
3.123153E+03	2.369049E-05	7.255412E-07
3.133005E+03	2.392876E-05	7.306847E-07
3.142857E+03	2.417770E-05	7.361023E-07
3.152709E+03	2.442908E-05	7.415412E-07
3.162562E+03	2.469152E-05	7.472611E-07
3.172414E+03	2.495664E-05	7.530064E-07
3.182266E+03	2.523333E-05	7.590433E-07
3.192118E+03	2.551310E-05	7.651137E-07
3.201970E+03	2.580055E-05	7.713542E-07
3.211823E+03	2.610051E-05	7.779066E-07
3.221675E+03	2.640428E-05	7.845087E-07
3.231527E+03	2.672133E-05	7.914392E-07
3.241379E+03	2.704281E-05	7.984338E-07
3.251232E+03	2.737844E-05	8.057762E-07
3.261084E+03	2.771919E-05	8.131978E-07
3.270936E+03	2.807507E-05	8.209895E-07
3.280788E+03	2.843684E-05	8.288775E-07
3.290640E+03	2.881481E-05	8.371595E-07
3.300493E+03	2.919956E-05	8.455577E-07
3.310345E+03	2.959655E-05	8.542278E-07
3.320197E+03	3.001152E-05	8.633311E-07
3.330049E+03	3.043472E-05	8.725827E-07
3.339901E+03	3.087727E-05	8.822973E-07
3.349754E+03	3.132912E-05	8.921835E-07
3.359606E+03	3.180175E-05	9.025639E-07
3.369458E+03	3.228486E-05	9.131410E-07
3.379310E+03	3.279029E-05	9.242452E-07
3.389163E+03	3.330749E-05	9.355732E-07
3.399015E+03	3.384866E-05	9.474632E-07
3.408867E+03	3.440297E-05	9.596057E-07
3.418719E+03	3.498304E-05	9.723474E-07
3.428571E+03	3.557773E-05	9.853718E-07
3.438424E+03	3.620011E-05	9.990351E-07
3.448276E+03	3.683864E-05	1.013012E-06
3.458128E+03	3.750693E-05	1.027670E-06
3.467980E+03	3.819307E-05	1.042674E-06
3.477833E+03	3.891117E-05	1.058404E-06
3.487685E+03	3.964890E-05	1.074515E-06
3.497537E+03	4.042093E-05	1.091398E-06
3.507389E+03	4.121453E-05	1.108699E-06
3.517241E+03	4.204494E-05	1.126820E-06
3.527094E+03	4.289894E-05	1.145398E-06
3.536946E+03	4.379244E-05	1.164847E-06
3.546798E+03	4.471170E-05	1.184792E-06
3.556650E+03	4.567327E-05	1.205663E-06
3.566502E+03	4.666292E-05	1.227071E-06
3.576355E+03	4.769791E-05	1.249460E-06
3.586207E+03	4.876342E-05	1.272430E-06
3.596059E+03	4.987747E-05	1.296441E-06
3.605911E+03	5.102458E-05	1.321076E-06
3.615764E+03	5.222365E-05	1.346812E-06
3.625616E+03	5.345848E-05	1.373219E-06
3.635468E+03	5.474887E-05	1.400792E-06
3.645320E+03	5.607783E-05	1.429081E-06
3.655172E+03	5.746613E-05	1.458602E-06
3.665025E+03	5.889598E-05	1.488887E-06
3.674877E+03	6.038914E-05	1.520472E-06
3.684729E+03	6.192691E-05	1.552869E-06
3.694581E+03	6.353216E-05	1.586635E-06
3.704433E+03	6.518521E-05	1.621263E-06
3.714286E+03	6.691009E-05	1.657331E-06
3.724138E+03	6.868603E-05	1.694309E-06
3.733990E+03	7.053832E-05	1.732800E-06
3.743842E+03	7.244504E-05	1.772248E-06
3.753695E+03	7.443273E-05	1.813283E-06
3.763547E+03	7.647829E-05	1.855321E-06
3.773399E+03	7.860961E-05	1.899019E-06
3.783251E+03	8.080220E-05	1.943764E-06
3.793103E+03	8.308546E-05	1.990244E-06
3.802956E+03	8.543337E-05	2.037811E-06
3.812808E+03	8.787691E-05	2.087183E-06
3.822660E+03	9.038845E-05	2.137681E-06
3.832512E+03	9.300060E-05	2.190054E-06
3.842365E+03	9.568397E-05	2.243585E-06
3.852217E+03	9.847288E-05	2.299058E-06
3.862069E+03	1.013361E-04	2.355715E-06
3.871921E+03	1.043097E-04	2.414375E-06
3.881773E+03	1.073603E-04	2.474240E-06
3.891626E+03	1.105261E-04	2.536162E-06
3.901478E+03	1.137714E-04	2.599301E-06
3.911330E+03	1.171362E-04	2.664547E-06
3.921182E+03	1.205826E-04	2.731009E-06
3.931034E+03	1.241527E-04	2.799617E-06
3.940887E+03	1.278059E-04	2.869433E-06
3.950739E+03	1.315864E-04	2.941423E-06
3.960591E+03	1.354510E-04	3.014596E-06
3.970443E+03	1.394461E-04	3.089962E-06
3.980296E+03	1.435254E-04	3.166471E-06
3.990148E+03	1.477377E-04	3.245177E-06
4.000000E+03	1.520336E-04	3.324970E-06
4.009852E+03	1.564641E-04	3.406949E-06
4.019704E+03	1.609765E-04	3.489940E-06
4.029557E+03	1.655962E-04	3.574480E-06
4.039409E+03	1.703513E-04	3.661155E-06
4.049261E+03	1.751838E-04	3.748694E-06
4.059113E+03	1.801508E-04	3.838307E-06
4.068966E+03	1.851904E-04	3.928658E-06
4.078818E+03	1.903628E-04	4.021011E-06
4.088670E+03	1.956014E-04	4.113947E-06
4.098522E+03	2.009695E-04	4.208785E-06
4.108374E+03	2.063963E-04	4.304034E-06
4.118227E+03	2.119115E-04	4.400310E-06
4.128079E+03	2.175483E-04	4.498297E-06
4.137931E+03	2.232291E-04	4.596382E-06
4.147783E+03	2.290244E-04	4.696023E-06
4.157635E+03	2.348520E-04	4.795529E-06
4.167488E+03	2.407442E-04	4.895574E-06
4.177340E+03	2.467370E-04	4.996892E-06
4.187192E+03	2.527411E-04	5.097681E-06
4.197044E+03	2.588343E-04	5.199529E-06
4.206897E+03	2.649229E-04	5.300560E-06
4.216749E+03	2.710418E-04	5.401503E-06
4.226601E+03	2.772300E-04	5.503149E-06
4.236453E+03	2.833863E-04	5.603510E-06
4.246305E+03	2.895965E-04	5.704317E-06
4.256158E+03	2.957549E-04	5.803510E-06
4.266010E+03	3.018999E-04	5.901884E-06
4.275862E+03	3.080742E-04	6.000308E-06
4.285714E+03	3.141646E-04	6.096608E-06
4.295567E+03	3.202125E-04	6.191641E-06
4.305419E+03	3.262637E-04	6.286329E-06
4.315271E+03	3.321998E-04	6.378436E-06
4.325123E+03	3.380668E-04	6.468901E-06
4.334975E+03	3.439155E-04	6.558741E-06
4.344828E+03	3.496231E-04	6.645665E-06
4.354680E+03	3.552405E-04	6.730700E-06
4.364532E+03	3.608238E-04	6.814959E-06
4.374384E+03	3.662474E-04	6.896122E-06
4.384236E+03	3.715676E-04	6.975314E-06
4.394089E+03	3.767811E-04	7.052528E-06
4.403941E+03	3.819495E-04	7.128971E-06
4.413793E+03	3.869430E-04	7.202270E-06
4.423645E+03	3.918227E-04	7.273630E-06
4.433498E+03	3.966549E-04	7.344332E-06
4.443350E+03	4.013052E-04	7.411939E-06
4.453202E+03	4.058398E-04	7.477733E-06
4.463054E+03	4.102589E-04	7.541758E-06
4.472906E+03	4.146327E-04	7.605344E-06
4.482759E+03	4.188238E-04	7.666003E-06
4.492611E+03	4.229029E-04	7.725071E-06
4.502463E+03	4.268723E-04	7.782625E-06
4.512315E+03	4.308076E-04	7.840071E-06
4.522167E+03	4.345676E-04	7.894869E-06
4.532020E+03	4.382278E-04	7.948426E-06
4.541872E+03	4.417933E-04	8.000860E-06
4.551724E+03	4.452689E-04	8.052286E-06
4.561576E+03	4.487358E-04	8.104193E-06
4.571429E+03	4.520499E-04	8.154002E-06
4.581281E+03	4.552930E-04	8.203211E-06
4.591133E+03	4.584727E-04	8.251979E-06
4.600985E+03	4.615967E-04	8.300463E-06
4.610837E+03	4.646739E-04	8.348839E-06
4.620690E+03	4.677127E-04	8.397276E-06
4.630542E+03	4.708011E-04	8.447367E-06
4.640394E+03	4.737895E-04	8.496442E-06
4.650246E+03	4.767637E-04	8.546055E-06
4.660099E+03	4.797279E-04	8.596297E-06
4.669951E+03	4.826844E-04	8.647222E-06
4.679803E+03	4.856331E-04	8.698837E-06
4.689655E+03	4.885727E-04	8.751136E-06
4.699507E+03	4.915014E-04	8.804098E-06
4.709360E+03	4.945003E-04	8.859184E-06
4.719212E+03	4.974020E-04	8.913413E-06
4.729064E+03	5.002871E-04	8.968235E-06
4.738916E+03	5.031538E-04	9.023633E-06
4.748768E+03	5.060011E-04	9.079597E-06
4.758621E+03	5.088273E-04	9.136108E-06
4.768473E+03	5.116320E-04	9.193166E-06
4.778325E+03	5.144140E-04	9.250763E-06
4.788177E+03	5.171732E-04	9.308901E-06
4.798030E+03	5.199090E-04	9.367582E-06
4.807882E+03	5.226214E-04	9.426812E-06
4.817734E+03	5.253101E-04	9.486588E-06
4.827586E+03	5.279753E-04	9.546913E-06
4.837438E+03	5.306171E-04	9.607780E-06
4.847291E+03	5.332358E-04	9.669185E-06
4.857143E+03	5.358317E-04	9.731130E-06
4.866995E+03	5.384050E-04	9.793610E-06
4.876847E+03	5.409562E-04	9.856625E-06
4.886700E+03	5.434856E-04	9.920170E-06
4.896552E+03	5.459939E-04	9.984252E-06
4.906404E+03	5.484813E-04	1.004886E-05
4.916256E+03	5.509482E-04	1.011400E-05
4.926108E+03	5.533027E-04	1.017796E-05
4.935961E+03	5.557296E-04	1.024413E-05
4.945813E+03	5.581376E-04	1.031082E-05
4.955665E+03	5.605265E-04	1.037803E-05
4.965517E+03	5.628970E-04	1.044574E-05
4.975369E+03	5.652496E-04	1.051395E-05
4.985222E+03	5.675842E-04	1.058266E-05
4.995074E+03	5.699010E-04	1.065186E-05
5.004926E+03	5.722006E-04	1.072154E-05
5.014778E+03	5.743867E-04	1.078988E-05
5.024631E+03	5.766515E-04	1.086047E-05
5.034483E+03	5.788990E-04	1.093151E-05
5.044335E+03	5.811296E-04	1.100298E-05
5.054187E+03	5.833429E-04	1.107487E-05
5.064039E+03	5.854413E-04	1.114531E-05
5.073892E+03	5.876201E-04	1.121799E-05
5.083744E+03	5.897811E-04	1.129104E-05
5.093596E+03	5.919246E-04	1.136445E-05
5.103448E+03	5.940501E-04	1.143820E-05
5.113300E+03	5.960580E-04	1.151035E-05
5.123153E+03	5.981465E-04	1.158470E-05
5.133005E+03	6.002163E-04	1.165934E-05
5.142857E+03	6.022667E-04	1.173423E-05
5.152709E+03	6.041967E-04	1.180739E-05
5.162562E+03	6.062072E-04	1.188273E-05
5.172414E+03	6.081969E-04	1.195825E-05
5.182266E+03	6.101656E-04	1.203394E-05
5.192118E+03	6.120111E-04	1.210776E-05
5.201970E+03	6.139360E-04	1.218371E-05
5.211823E+03	6.158384E-04	1.225975E-05
5.221675E+03	6.176152E-04	1.233381E-05
5.231527E+03	6.194708E-04	1.240996E-05
5.241379E+03	6.213028E-04	1.248615E-05
5.251232E+03	6.230067E-04	1.256024E-05
5.261084E+03	6.247893E-04	1.263640E-05
5.270936E+03	6.265468E-04	1.271252E-05
5.280788E+03	6.281745E-04	1.278645E-05
5.290640E+03	6.298808E-04	1.286243E-05
5.300493E+03	6.314563E-04	1.293615E-05
5.310345E+03	6.331110E-04	1.301192E-05
5.320197E+03	6.347397E-04	1.308755E-05
5.330049E+03	6.362372E-04	1.316087E-05
5.339901E+03	6.378149E-04	1.323623E-05
5.349754E+03	6.392613E-04	1.330923E-05
5.359606E+03	6.407893E-04	1.338428E-05
5.369458E+03	6.421871E-04	1.345695E-05
5.379310E+03	6.436684E-04	1.353170E-05
5.389163E+03	6.451277E-04	1.360631E-05
5.399015E+03	6.464586E-04	1.367852E-05
5.408867E+03	6.478758E-04	1.375285E-05
5.418719E+03	6.491645E-04	1.382474E-05
5.428571E+03	6.505389E-04	1.389873E-05
5.438424E+03	6.517806E-04	1.397015E-05
5.448276E+03	6.531041E-04	1.404358E-05
5.458128E+03	6.542902E-04	1.411430E-05
5.467980E+03	6.555541E-04	1.418693E-05
5.477833E+03	6.566760E-04	1.425671E-05
5.487685E+03	6.577627E-04	1.432593E-05
5.497537E+03	6.589217E-04	1.439692E-05
5.507389E+03	6.599329E-04	1.446487E-05
5.517241E+03	6.610137E-04	1.453453E-05
5.527094E+03	6.619435E-04	1.460103E-05
5.536946E+03	6.629402E-04	1.466917E-05
5.546798E+03	6.637831E-04	1.473404E-05
5.556650E+03	6.645811E-04	1.479804E-05
5.566502E+03	6.654436E-04	1.486361E-05
5.576355E+03	6.661486E-04	1.492576E-05
5.586207E+03	6.669166E-04	1.498943E-05
5.596059E+03	6.675255E-04	1.504961E-05
5.605911E+03	6.680853E-04	1.510876E-05
5.615764E+03	6.687063E-04	1.516936E-05
5.625616E+03	6.691658E-04	1.522635E-05
5.635468E+03	6.695748E-04	1.528223E-05
5.645320E+03	6.700436E-04	1.533952E-05
5.655172E+03	6.703496E-04	1.539310E-05
5.665025E+03	6.706036E-04	1.544550E-05
5.674877E+03	6.709163E-04	1.549926E-05
5.684729E+03	6.710652E-04	1.554923E-05
5.694581E+03	6.711615E-04	1.559797E-05
5.704433E+03	6.713160E-04	1.564803E-05
5.714286E+03	6.713058E-04	1.569423E-05
5.724138E+03	6.712425E-04	1.573914E-05
5.733990E+03	6.711259E-04	1.578274E-05
5.743842E+03	6.710671E-04	1.582764E-05
5.753695E+03	6.708439E-04	1.586860E-05
5.763547E+03	6.705673E-04	1.590821E-05
5.773399E+03	6.702375E-04	1.594648E-05
5.783251E+03	6.699659E-04	1.598603E-05
5.793103E+03	6.695302E-04	1.602158E-05
5.802956E+03	6.690421E-04	1.605576E-05
5.812808E+03	6.685019E-04	1.608856E-05
5.822660E+03	6.679100E-04	1.612000E-05
5.832512E+03	6.673771E-04	1.615273E-05
5.842365E+03	6.666829E-04	1.618142E-05
5.852217E+03	6.659385E-04	1.620875E-05
5.862069E+03	6.651444E-04	1.623472E-05
5.871921E+03	6.643017E-04	1.625933E-05
5.881773E+03	6.634114E-04	1.628262E-05
5.891626E+03	6.625837E-04	1.630728E-05
5.901478E+03	6.616004E-04	1.632794E-05
5.911330E+03	6.605725E-04	1.634732E-05
5.921182E+03	6.595013E-04	1.636544E-05
5.931034E+03	6.583887E-04	1.638235E-05
5.940887E+03	6.572361E-04	1.639806E-05
5.950739E+03	6.560451E-04	1.641261E-05
5.960591E+03	6.548182E-04	1.642607E-05
5.970443E+03	6.536658E-04	1.644120E-05
5.980296E+03	6.523734E-04	1.645261E-05
5.990148E+03	6.510522E-04	1.646308E-05
6.000000E+03	6.497055E-04	1.647269E-05
6.009852E+03	6.483363E-04	1.648152E-05
6.019704E+03	6.469483E-04	1.648966E-05
6.029557E+03	6.455451E-04	1.649720E-05
6.039409E+03	6.441312E-04	1.650426E-05
6.049261E+03	6.427109E-04	1.651094E-05
6.059113E+03	6.412891E-04	1.651737E-05
6.068966E+03	6.398710E-04	1.652369E-05
6.078818E+03	6.384611E-04	1.653001E-05
6.088670E+03	6.370645E-04	1.653648E-05
6.098522E+03	6.356845E-04	1.654318E-05
6.108374E+03	6.343236E-04	1.655019E-05
6.118227E+03	6.329807E-04	1.655749E-05
6.128079E+03	6.316550E-04	1.656504E-05
6.137931E+03	6.303439E-04	1.657279E-05
6.147783E+03	6.290456E-04	1.658068E-05
6.157635E+03	6.277582E-04	1.658867E-05
6.167488E+03	6.264801E-04	1.659671E-05
6.177340E+03	6.252101E-04	1.660476E-05
6.187192E+03	6.239475E-04	1.661282E-05
6.197044E+03	6.226917E-04	1.662086E-05
6.206897E+03	6.214423E-04	1.662888E-05
6.216749E+03	6.201996E-04	1.663686E-05
6.226601E+03	6.189638E-04	1.664483E-05
6.236453E+03	6.177357E-04	1.665280E-05
6.246305E+03	6.164137E-04	1.665803E-05
6.256158E+03	6.152032E-04	1.666606E-05
6.266010E+03	6.140034E-04	1.667417E-05
6.275862E+03	6.128151E-04	1.668238E-05
6.285714E+03	6.116401E-04	1.669075E-05
6.295567E+03	6.104797E-04	1.669931E-05
6.305419E+03	6.093356E-04	1.670810E-05
6.315271E+03	6.082093E-04	1.671717E-05
6.325123E+03	6.071030E-04	1.672659E-05
6.334975E+03	6.059176E-04	1.673361E-05
6.344828E+03	6.048564E-04	1.674386E-05
6.354680E+03	6.038204E-04	1.675459E-05
6.364532E+03	6.028118E-04	1.676589E-05
6.374384E+03	6.018321E-04	1.677779E-05
6.384236E+03	6.008836E-04	1.679036E-05
6.394089E+03	5.998688E-04	1.680088E-05
6.403941E+03	5.989882E-04	1.681497E-05
6.413793E+03	5.981445E-04	1.682990E-05
6.423645E+03	5.973397E-04	1.684574E-05
6.433498E+03	5.965750E-04	1.686254E-05
6.443350E+03	5.957542E-04	1.687757E-05
6.453202E+03	5.950760E-04	1.689646E-05
6.463054E+03	5.944440E-04	1.691650E-05
6.472906E+03	5.938592E-04	1.693772E-05
6.482759E+03	5.933235E-04	1.696019E-05
6.492611E+03	5.927400E-04	1.698113E-05
6.502463E+03	5.923072E-04	1.700624E-05
6.512315E+03	5.919279E-04	1.703275E-05
6.522167E+03	5.916034E-04	1.706071E-05
6.532020E+03	5.912371E-04	1.708732E-05
6.541872E+03	5.910262E-04	1.711831E-05
6.551724E+03	5.908738E-04	1.715087E-05
6.561576E+03	5.907811E-04	1.718506E-05
6.571429E+03	5.906507E-04	1.721805E-05
6.581281E+03	5.906800E-04	1.725560E-05
6.591133E+03	5.907711E-04	1.729487E-05
6.600985E+03	5.908272E-04	1.733303E-05
6.610837E+03	5.910448E-04	1.737585E-05
6.620690E+03	5.913261E-04	1.742048E-05
6.630542E+03	5.915738E-04	1.746406E-05
6.640394E+03	5.919843E-04	1.751239E-05
6.650246E+03	5.924598E-04	1.756260E-05
6.660099E+03	5.929014E-04	1.761177E-05
6.669951E+03	5.935066E-04	1.766577E-05
6.679803E+03	5.941763E-04	1.772167E-05
6.689655E+03	5.948121E-04	1.777654E-05
6.699507E+03	5.956103E-04	1.783625E-05
6.709360E+03	5.964723E-04	1.789788E-05
6.719212E+03	5.972981E-04	1.795843E-05
6.729064E+03	5.982852E-04	1.802384E-05
6.738916E+03	5.993337E-04	1.809112E-05
6.748768E+03	6.003431E-04	1.815725E-05
6.758621E+03	6.015110E-04	1.822820E-05
6.768473E+03	6.027370E-04	1.830096E-05
6.778325E+03	6.039193E-04	1.837245E-05
6.788177E+03	6.052563E-04	1.844868E-05
6.798030E+03	6.065461E-04	1.852354E-05
6.807882E+03	6.079876E-04	1.860310E-05
6.817734E+03	6.094784E-04	1.868424E-05
6.827586E+03	6.109151E-04	1.876380E-05
6.837438E+03	6.124975E-04	1.884791E-05
6.847291E+03	6.140201E-04	1.893026E-05
6.857143E+03	6.156842E-04	1.901707E-05
6.866995E+03	6.172824E-04	1.910194E-05
6.876847E+03	6.190164E-04	1.919111E-05
6.886700E+03	6.207810E-04	1.928134E-05
6.896552E+03	6.224693E-04	1.936930E-05
6.906404E+03	6.242841E-04	1.946131E-05
6.916256E+03	6.260149E-04	1.955081E-05
6.926108E+03	6.278653E-04	1.964415E-05
6.935961E+03	6.296227E-04	1.973470E-05
6.945813E+03	6.314923E-04	1.982889E-05
6.955665E+03	6.332595E-04	1.991997E-05
6.965517E+03	6.351305E-04	2.001444E-05
6.975369E+03	6.368894E-04	2.010549E-05
6.985222E+03	6.387424E-04	2.019963E-05
6.995074E+03	6.404728E-04	2.029001E-05
7.004926E+03	6.422878E-04	2.038318E-05
7.014778E+03	6.439687E-04	2.047221E-05
7.024631E+03	6.457243E-04	2.056372E-05
7.034483E+03	6.473337E-04	2.065068E-05
7.044335E+03	6.490066E-04	2.073977E-05
7.054187E+03	6.505210E-04	2.082390E-05
7.064039E+03	6.520879E-04	2.090979E-05
7.073892E+03	6.534835E-04	2.099028E-05
7.083744E+03	6.549193E-04	2.107214E-05
7.093596E+03	6.561715E-04	2.114817E-05
7.103448E+03	6.573422E-04	2.122163E-05
7.113300E+03	6.585346E-04	2.129586E-05
7.123153E+03	6.595239E-04	2.136356E-05
7.133005E+03	6.605224E-04	2.143161E-05
7.142857E+03	6.613045E-04	2.149266E-05
7.152709E+03	6.620840E-04	2.155365E-05
7.162562E+03	6.626342E-04	2.160719E-05
7.172414E+03	6.630593E-04	2.165664E-05
7.182266E+03	6.634640E-04	2.170541E-05
7.192118E+03	6.636213E-04	2.174606E-05
7.201970E+03	6.637466E-04	2.178563E-05
7.211823E+03	6.636139E-04	2.181667E-05
7.221675E+03	6.633280E-04	2.184261E-05
7.231527E+03	6.629954E-04	2.186692E-05
7.241379E+03	6.623899E-04	2.188214E-05
7.251232E+03	6.617285E-04	2.189541E-05
7.261084E+03	6.607869E-04	2.189927E-05
7.270936E+03	6.596721E-04	2.189724E-05
7.280788E+03	6.584914E-04	2.189287E-05
7.290640E+03	6.570220E-04	2.187872E-05
7.300493E+03	6.553731E-04	2.185840E-05
7.310345E+03	6.536521E-04	2.183546E-05
7.320197E+03	6.516403E-04	2.180259E-05
7.330049E+03	6.494473E-04	2.176340E-05
7.339901E+03	6.471818E-04	2.172152E-05
7.349754E+03	6.446295E-04	2.166974E-05
7.359606E+03	6.419005E-04	2.161172E-05
7.369458E+03	6.391046E-04	2.155115E-05
7.379310E+03	6.360318E-04	2.148091E-05
7.389163E+03	6.327927E-04	2.140470E-05
7.399015E+03	6.294960E-04	2.132620E-05
7.408867E+03	6.259337E-04	2.123833E-05
7.418719E+03	6.222126E-04	2.114468E-05
7.428571E+03	6.183341E-04	2.104526E-05
7.438424E+03	6.144026E-04	2.094362E-05
7.448276E+03	6.102137E-04	2.083276E-05
7.458128E+03	6.058734E-04	2.071628E-05
7.467980E+03	6.013849E-04	2.059424E-05
7.477833E+03	5.968517E-04	2.047018E-05
7.487685E+03	5.920779E-04	2.033737E-05
7.497537E+03	5.871693E-04	2.019939E-05
7.507389E+03	5.821312E-04	2.005642E-05
7.517241E+03	5.770662E-04	1.991198E-05
7.527094E+03	5.717860E-04	1.975954E-05
7.536946E+03	5.663953E-04	1.960270E-05
7.546798E+03	5.609002E-04	1.944165E-05
7.556650E+03	5.554013E-04	1.927988E-05
7.566502E+03	5.497185E-04	1.911111E-05
7.576355E+03	5.439533E-04	1.893886E-05
7.586207E+03	5.381129E-04	1.876335E-05
7.596059E+03	5.322939E-04	1.858796E-05
7.605911E+03	5.263244E-04	1.840666E-05
7.615764E+03	5.203017E-04	1.822286E-05
7.625616E+03	5.142333E-04	1.803680E-05
7.635468E+03	5.081263E-04	1.784872E-05
7.645320E+03	5.019878E-04	1.765887E-05
