#wls	flux	fluxerr
1.585257E+03	3.718810E-17	1.671268E-18
1.624889E+03	4.012179E-17	1.786103E-18
1.664520E+03	4.305435E-17	1.898179E-18
1.704151E+03	4.593160E-17	2.005095E-18
1.743783E+03	4.869104E-17	2.104188E-18
1.783414E+03	5.120908E-17	2.190298E-18
1.823046E+03	5.332026E-17	2.256722E-18
1.862677E+03	5.483106E-17	2.295890E-18
1.902309E+03	5.552752E-17	2.299752E-18
1.941940E+03	5.525514E-17	2.263102E-18
1.981571E+03	5.401319E-17	2.187265E-18
2.021203E+03	5.207158E-17	2.084421E-18
2.060834E+03	5.007698E-17	1.981165E-18
2.100466E+03	4.891234E-17	1.912123E-18
2.140097E+03	4.945943E-17	1.910208E-18
2.179729E+03	5.223778E-17	1.992843E-18
2.219360E+03	5.731682E-17	2.159501E-18
2.258991E+03	6.442040E-17	2.396670E-18
2.298623E+03	7.310311E-17	2.685151E-18
2.338254E+03	8.294725E-17	3.007601E-18
2.377886E+03	9.367826E-17	3.352593E-18
2.417517E+03	1.052203E-16	3.716253E-18
2.457149E+03	1.176647E-16	4.100685E-18
2.496780E+03	1.312288E-16	4.512195E-18
2.536411E+03	1.462221E-16	4.959834E-18
2.576043E+03	1.630161E-16	5.454188E-18
2.615674E+03	1.820144E-16	6.006278E-18
2.655306E+03	2.036511E-16	6.627449E-18
2.694937E+03	2.283412E-16	7.327736E-18
2.734569E+03	2.564942E-16	8.116365E-18
2.774200E+03	2.884404E-16	8.999520E-18
2.813831E+03	3.243932E-16	9.979375E-18
2.853463E+03	3.644640E-16	1.105471E-17
2.893094E+03	4.086190E-16	1.221982E-17
2.932726E+03	4.567673E-16	1.346752E-17
2.972357E+03	5.085842E-16	1.478411E-17
2.982265E+03	5.220542E-16	1.512193E-17
2.992173E+03	5.357003E-16	1.546224E-17
3.002081E+03	5.495148E-16	1.580478E-17
3.011989E+03	5.634864E-16	1.614921E-17
3.021896E+03	5.776311E-16	1.649593E-17
3.031804E+03	5.919941E-16	1.684620E-17
3.041712E+03	6.065171E-16	1.719832E-17
3.051620E+03	6.212039E-16	1.755236E-17
3.061528E+03	6.360375E-16	1.790782E-17
3.071436E+03	6.509562E-16	1.826293E-17
3.081344E+03	6.659387E-16	1.861709E-17
3.091251E+03	6.809184E-16	1.896846E-17
3.101159E+03	6.958695E-16	1.931634E-17
3.111067E+03	7.107193E-16	1.965873E-17
3.120975E+03	7.254228E-16	1.999446E-17
3.130883E+03	7.399317E-16	2.032226E-17
3.140791E+03	7.541658E-16	2.064001E-17
3.150699E+03	7.680868E-16	2.094676E-17
3.160606E+03	7.816239E-16	2.124072E-17
3.170514E+03	7.947041E-16	2.152003E-17
3.180422E+03	8.072673E-16	2.178323E-17
3.190330E+03	8.192351E-16	2.202837E-17
3.200238E+03	8.305428E-16	2.225392E-17
3.210146E+03	8.411088E-16	2.245790E-17
3.220054E+03	8.508501E-16	2.263833E-17
3.229961E+03	8.596994E-16	2.279369E-17
3.239869E+03	8.675912E-16	2.292251E-17
3.249777E+03	8.744370E-16	2.302274E-17
3.259685E+03	8.801754E-16	2.309308E-17
3.269593E+03	8.847838E-16	2.313327E-17
3.279501E+03	8.882100E-16	2.314226E-17
3.289409E+03	8.904453E-16	2.312017E-17
3.299316E+03	8.914789E-16	2.306705E-17
3.309224E+03	8.913026E-16	2.298302E-17
3.319132E+03	8.899499E-16	2.286928E-17
3.329040E+03	8.874690E-16	2.272738E-17
3.338948E+03	8.838843E-16	2.255825E-17
3.348856E+03	8.792773E-16	2.236426E-17
3.358763E+03	8.737262E-16	2.214765E-17
3.368671E+03	8.673164E-16	2.191083E-17
3.378579E+03	8.601114E-16	2.165561E-17
3.388487E+03	8.522166E-16	2.138485E-17
3.398395E+03	8.436814E-16	2.109995E-17
3.408303E+03	8.345544E-16	2.080227E-17
3.418211E+03	8.248897E-16	2.049327E-17
3.428118E+03	8.146842E-16	2.017299E-17
3.438026E+03	8.039566E-16	1.984200E-17
3.447934E+03	7.927128E-16	1.950053E-17
3.457842E+03	7.809631E-16	1.914893E-17
3.467750E+03	7.687436E-16	1.878819E-17
3.477658E+03	7.561185E-16	1.841994E-17
3.487566E+03	7.431553E-16	1.804589E-17
3.497473E+03	7.299851E-16	1.766926E-17
3.507381E+03	7.167314E-16	1.729306E-17
3.517289E+03	7.035051E-16	1.691994E-17
3.527197E+03	6.904220E-16	1.655265E-17
3.537105E+03	6.775908E-16	1.619373E-17
3.547013E+03	6.650841E-16	1.584481E-17
3.556921E+03	6.529602E-16	1.550720E-17
3.566828E+03	6.412647E-16	1.518186E-17
3.576736E+03	6.300149E-16	1.486908E-17
3.586644E+03	6.192364E-16	1.456935E-17
3.596552E+03	6.089172E-16	1.428226E-17
3.606460E+03	5.990394E-16	1.400728E-17
3.616368E+03	5.895377E-16	1.374276E-17
3.626276E+03	5.803361E-16	1.348686E-17
3.636183E+03	5.713483E-16	1.323748E-17
3.646091E+03	5.624756E-16	1.299230E-17
3.655999E+03	5.536548E-16	1.274982E-17
3.665907E+03	5.448521E-16	1.250923E-17
3.675815E+03	5.361056E-16	1.227140E-17
3.685723E+03	5.275329E-16	1.203898E-17
3.695631E+03	5.193171E-16	1.181609E-17
3.705538E+03	5.117162E-16	1.160851E-17
3.715446E+03	5.050320E-16	1.142292E-17
3.725354E+03	4.995944E-16	1.126657E-17
3.735262E+03	4.957356E-16	1.114667E-17
3.745170E+03	4.937616E-16	1.106977E-17
3.755078E+03	4.939507E-16	1.104171E-17
3.764986E+03	4.965118E-16	1.106674E-17
3.774893E+03	5.015902E-16	1.114761E-17
3.784801E+03	5.092699E-16	1.128572E-17
3.794709E+03	5.195460E-16	1.148048E-17
3.804617E+03	5.323313E-16	1.172948E-17
3.814525E+03	5.474381E-16	1.202816E-17
3.824433E+03	5.645854E-16	1.236995E-17
3.834341E+03	5.833861E-16	1.274604E-17
3.844248E+03	6.033842E-16	1.314624E-17
3.854156E+03	6.240770E-16	1.355943E-17
3.864064E+03	6.449332E-16	1.397402E-17
3.873972E+03	6.654269E-16	1.437867E-17
3.883880E+03	6.850626E-16	1.476280E-17
3.893788E+03	7.033874E-16	1.511687E-17
3.903696E+03	7.199785E-16	1.543209E-17
3.913603E+03	7.344764E-16	1.570112E-17
3.923511E+03	7.465311E-16	1.591689E-17
3.933419E+03	7.558470E-16	1.607355E-17
3.943327E+03	7.621292E-16	1.616535E-17
3.953235E+03	7.651437E-16	1.618785E-17
3.963143E+03	7.647405E-16	1.613845E-17
3.973051E+03	7.608986E-16	1.601725E-17
3.982958E+03	7.537098E-16	1.582674E-17
3.992866E+03	7.434391E-16	1.557299E-17
4.002774E+03	7.304633E-16	1.526434E-17
4.012682E+03	7.152761E-16	1.491148E-17
4.022590E+03	6.984080E-16	1.452573E-17
4.032498E+03	6.804018E-16	1.411860E-17
4.042406E+03	6.617548E-16	1.370050E-17
4.052313E+03	6.429355E-16	1.328117E-17
4.062221E+03	6.243306E-16	1.286857E-17
4.072129E+03	6.062771E-16	1.246957E-17
4.082037E+03	5.890811E-16	1.209033E-17
4.091945E+03	5.730234E-16	1.173647E-17
4.101853E+03	5.583599E-16	1.141303E-17
4.111761E+03	5.453238E-16	1.112456E-17
4.121668E+03	5.340955E-16	1.087452E-17
4.131576E+03	5.248200E-16	1.066562E-17
4.141484E+03	5.175621E-16	1.049893E-17
4.151392E+03	5.122986E-16	1.037375E-17
4.161300E+03	5.089223E-16	1.028769E-17
4.171208E+03	5.072131E-16	1.023610E-17
4.181116E+03	5.068589E-16	1.021256E-17
4.191023E+03	5.074592E-16	1.020887E-17
4.200931E+03	5.085917E-16	1.021648E-17
4.210839E+03	5.098205E-16	1.022662E-17
4.220747E+03	5.107397E-16	1.023117E-17
4.230655E+03	5.110020E-16	1.022322E-17
4.240563E+03	5.103542E-16	1.019777E-17
4.250471E+03	5.086443E-16	1.015188E-17
4.260378E+03	5.058463E-16	1.008510E-17
4.270286E+03	5.020500E-16	9.999270E-18
4.280194E+03	4.974622E-16	9.898532E-18
4.290102E+03	4.923355E-16	9.787917E-18
4.300010E+03	4.869713E-16	9.673404E-18
4.309918E+03	4.816878E-16	9.561279E-18
4.319826E+03	4.767864E-16	9.457485E-18
4.329733E+03	4.725596E-16	9.367764E-18
4.339641E+03	4.692556E-16	9.296981E-18
4.349549E+03	4.670760E-16	9.249065E-18
4.359457E+03	4.661641E-16	9.226797E-18
4.369365E+03	4.665893E-16	9.231493E-18
4.379273E+03	4.683568E-16	9.263212E-18
4.389181E+03	4.714120E-16	9.320835E-18
4.399088E+03	4.756534E-16	9.402323E-18
4.408996E+03	4.809432E-16	9.504933E-18
4.418904E+03	4.871344E-16	9.625743E-18
4.428812E+03	4.940709E-16	9.761664E-18
4.438720E+03	5.015319E-16	9.908325E-18
4.448628E+03	5.092590E-16	1.006062E-17
4.458536E+03	5.169252E-16	1.021210E-17
4.468443E+03	5.241568E-16	1.035538E-17
4.478351E+03	5.305288E-16	1.048205E-17
4.488259E+03	5.356085E-16	1.058355E-17
4.498167E+03	5.389759E-16	1.065159E-17
4.508075E+03	5.402749E-16	1.067909E-17
4.517983E+03	5.392512E-16	1.066099E-17
4.527891E+03	5.357698E-16	1.059457E-17
4.537798E+03	5.298587E-16	1.048034E-17
4.547706E+03	5.216686E-16	1.032123E-17
4.557614E+03	5.114888E-16	1.012288E-17
4.567522E+03	4.997043E-16	9.892862E-18
4.577430E+03	4.867727E-16	9.640182E-18
4.587338E+03	4.731961E-16	9.374731E-18
4.597246E+03	4.594921E-16	9.106730E-18
4.607153E+03	4.461466E-16	8.845783E-18
4.617061E+03	4.335996E-16	8.600605E-18
4.626969E+03	4.222025E-16	8.378167E-18
4.636877E+03	4.122012E-16	8.183361E-18
4.646785E+03	4.037474E-16	8.019223E-18
4.656693E+03	3.968747E-16	7.886448E-18
4.666601E+03	3.915321E-16	7.784054E-18
4.676508E+03	3.875879E-16	7.709456E-18
4.686416E+03	3.848415E-16	7.658697E-18
4.696324E+03	3.830618E-16	7.627202E-18
4.706232E+03	3.820109E-16	7.610256E-18
4.716140E+03	3.814912E-16	7.603938E-18
4.726048E+03	3.813466E-16	7.605148E-18
4.735956E+03	3.814861E-16	7.612074E-18
4.745863E+03	3.818805E-16	7.624142E-18
4.755771E+03	3.825540E-16	7.641843E-18
4.765679E+03	3.835560E-16	7.666165E-18
4.775587E+03	3.849299E-16	7.697989E-18
4.785495E+03	3.867293E-16	7.738397E-18
4.795403E+03	3.889873E-16	7.788065E-18
4.805311E+03	3.917313E-16	7.847555E-18
4.815218E+03	3.949484E-16	7.916626E-18
4.825126E+03	3.986137E-16	7.994796E-18
4.835034E+03	4.026454E-16	8.080438E-18
4.844942E+03	4.069188E-16	8.171063E-18
4.854850E+03	4.112759E-16	8.263505E-18
4.864758E+03	4.155174E-16	8.353761E-18
4.874666E+03	4.194211E-16	8.437361E-18
4.884573E+03	4.227604E-16	8.509733E-18
4.894481E+03	4.253406E-16	8.566936E-18
4.904389E+03	4.270221E-16	8.606132E-18
4.914297E+03	4.277583E-16	8.626348E-18
4.924205E+03	4.276479E-16	8.629547E-18
4.934113E+03	4.268836E-16	8.619588E-18
4.944021E+03	4.257685E-16	8.602571E-18
4.953928E+03	4.246525E-16	8.585566E-18
4.963836E+03	4.239052E-16	8.576048E-18
4.973744E+03	4.238576E-16	8.580738E-18
4.983652E+03	4.247798E-16	8.605144E-18
4.993560E+03	4.268365E-16	8.652645E-18
5.003468E+03	4.300988E-16	8.724738E-18
5.013376E+03	4.345359E-16	8.820856E-18
5.023283E+03	4.400226E-16	8.938513E-18
5.033191E+03	4.463635E-16	9.073792E-18
5.043099E+03	4.533447E-16	9.222392E-18
5.053007E+03	4.607232E-16	9.379406E-18
5.062915E+03	4.682842E-16	9.540487E-18
5.072823E+03	4.758479E-16	9.701994E-18
5.082731E+03	4.832772E-16	9.861146E-18
5.092638E+03	4.904670E-16	1.001581E-17
5.102546E+03	4.973454E-16	1.016451E-17
5.112454E+03	5.038503E-16	1.030599E-17
5.122362E+03	5.099017E-16	1.043860E-17
5.132270E+03	5.153839E-16	1.055997E-17
5.142178E+03	5.201480E-16	1.066704E-17
5.152086E+03	5.240262E-16	1.075633E-17
5.161993E+03	5.268421E-16	1.082420E-17
5.171901E+03	5.284427E-16	1.086744E-17
5.181809E+03	5.287261E-16	1.088391E-17
5.191717E+03	5.276449E-16	1.087257E-17
5.201625E+03	5.252322E-16	1.083401E-17
5.211533E+03	5.215880E-16	1.077024E-17
5.221441E+03	5.168972E-16	1.068499E-17
5.231348E+03	5.113715E-16	1.058258E-17
5.241256E+03	5.052519E-16	1.046796E-17
5.251164E+03	4.987677E-16	1.034583E-17
5.261072E+03	4.921077E-16	1.022008E-17
5.270980E+03	4.854357E-16	1.009412E-17
5.280888E+03	4.788412E-16	9.969787E-18
5.290796E+03	4.723731E-16	9.848119E-18
5.300703E+03	4.660495E-16	9.729498E-18
5.310611E+03	4.598700E-16	9.613921E-18
5.320519E+03	4.538229E-16	9.501152E-18
5.330427E+03	4.479099E-16	9.391238E-18
5.340335E+03	4.421330E-16	9.284225E-18
5.350243E+03	4.365082E-16	9.180459E-18
5.360151E+03	4.310423E-16	9.080088E-18
5.370058E+03	4.257411E-16	8.983238E-18
5.379966E+03	4.205972E-16	8.889759E-18
5.389874E+03	4.156041E-16	8.799510E-18
5.399782E+03	4.107201E-16	8.711594E-18
5.409690E+03	4.059168E-16	8.625392E-18
5.419598E+03	4.011746E-16	8.540471E-18
5.429506E+03	3.964842E-16	8.456613E-18
5.439413E+03	3.918350E-16	8.373576E-18
5.449321E+03	3.872313E-16	8.291429E-18
5.459229E+03	3.826789E-16	8.210282E-18
5.469137E+03	3.781842E-16	8.130255E-18
5.479045E+03	3.737521E-16	8.051438E-18
5.488953E+03	3.693781E-16	7.973723E-18
5.498861E+03	3.650515E-16	7.896866E-18
5.508768E+03	3.607661E-16	7.820717E-18
5.518676E+03	3.564929E-16	7.744635E-18
5.528584E+03	3.522052E-16	7.668018E-18
5.538492E+03	3.478732E-16	7.590200E-18
5.548400E+03	3.434719E-16	7.510610E-18
5.558308E+03	3.389752E-16	7.428649E-18
5.568216E+03	3.343876E-16	7.344386E-18
5.578123E+03	3.297404E-16	7.258481E-18
5.588031E+03	3.251031E-16	7.172444E-18
5.597939E+03	3.206062E-16	7.089147E-18
5.607847E+03	3.164318E-16	7.012633E-18
5.617755E+03	3.128149E-16	6.948158E-18
5.627663E+03	3.100099E-16	6.901458E-18
5.637571E+03	3.082956E-16	6.878865E-18
5.647478E+03	3.079295E-16	6.886293E-18
5.657386E+03	3.091161E-16	6.928521E-18
5.667294E+03	3.119996E-16	7.009020E-18
5.677202E+03	3.166211E-16	7.128963E-18
5.687110E+03	3.229091E-16	7.286993E-18
5.697018E+03	3.306429E-16	7.478370E-18
5.706926E+03	3.394615E-16	7.695117E-18
5.716833E+03	3.488783E-16	7.926339E-18
5.726741E+03	3.583020E-16	8.158654E-18
5.736649E+03	3.670921E-16	8.377432E-18
5.746557E+03	3.746613E-16	8.569133E-18
5.756465E+03	3.805548E-16	8.723137E-18
5.766373E+03	3.844829E-16	8.832521E-18
5.776281E+03	3.863653E-16	8.895130E-18
5.786188E+03	3.863178E-16	8.913319E-18
5.796096E+03	3.845957E-16	8.892692E-18
5.806004E+03	3.815408E-16	8.840915E-18
5.815912E+03	3.775107E-16	8.766089E-18
5.825820E+03	3.728421E-16	8.675897E-18
5.835728E+03	3.678181E-16	8.576846E-18
5.845636E+03	3.626698E-16	8.474282E-18
5.855543E+03	3.575572E-16	8.371932E-18
5.865451E+03	3.525827E-16	8.272201E-18
5.875359E+03	3.478138E-16	8.176694E-18
5.885267E+03	3.432817E-16	8.086181E-18
5.895175E+03	3.390034E-16	8.001086E-18
5.905083E+03	3.349739E-16	7.921334E-18
5.914991E+03	3.312021E-16	7.847168E-18
5.924898E+03	3.276778E-16	7.778378E-18
5.934806E+03	3.243939E-16	7.714830E-18
5.944714E+03	3.213465E-16	7.656465E-18
5.954622E+03	3.185285E-16	7.603145E-18
5.964530E+03	3.159348E-16	7.554775E-18
5.974438E+03	3.135577E-16	7.511200E-18
5.984346E+03	3.113896E-16	7.472267E-18
5.994253E+03	3.094058E-16	7.437407E-18
6.004161E+03	3.075637E-16	7.405614E-18
6.014069E+03	3.058138E-16	7.375716E-18
6.023977E+03	3.040810E-16	7.345906E-18
6.033885E+03	3.022729E-16	7.313951E-18
6.043793E+03	3.002927E-16	7.277498E-18
6.053701E+03	2.980224E-16	7.233661E-18
6.063608E+03	2.953605E-16	7.179942E-18
6.073516E+03	2.922099E-16	7.113937E-18
6.083424E+03	2.884968E-16	7.033799E-18
6.093332E+03	2.841777E-16	6.938410E-18
6.103240E+03	2.792450E-16	6.827525E-18
6.113148E+03	2.737460E-16	6.702247E-18
6.123056E+03	2.677663E-16	6.564632E-18
6.132963E+03	2.614509E-16	6.418196E-18
6.142871E+03	2.549699E-16	6.267104E-18
6.152779E+03	2.485424E-16	6.116745E-18
6.162687E+03	2.423924E-16	5.972654E-18
6.172595E+03	2.367653E-16	5.840921E-18
6.182503E+03	2.319082E-16	5.727707E-18
6.192411E+03	2.280472E-16	5.638677E-18
6.202318E+03	2.253933E-16	5.579146E-18
6.212226E+03	2.241418E-16	5.554056E-18
6.222134E+03	2.244607E-16	5.567687E-18
6.232042E+03	2.265172E-16	5.624307E-18
6.241950E+03	2.304576E-16	5.727678E-18
6.251858E+03	2.364205E-16	5.881371E-18
6.261766E+03	2.445162E-16	6.088264E-18
6.271673E+03	2.548319E-16	6.350650E-18
6.281581E+03	2.673891E-16	6.669190E-18
6.291489E+03	2.821225E-16	7.042360E-18
6.301397E+03	2.988432E-16	7.465542E-18
6.311305E+03	3.172220E-16	7.930581E-18
6.321213E+03	3.367403E-16	8.424554E-18
6.331121E+03	3.567214E-16	8.930535E-18
6.341028E+03	3.763514E-16	9.428112E-18
6.350936E+03	3.947315E-16	9.894689E-18
6.360844E+03	4.109996E-16	1.030854E-17
6.370752E+03	4.244022E-16	1.065063E-17
6.380660E+03	4.344490E-16	1.090848E-17
6.390568E+03	4.409227E-16	1.107648E-17
6.400476E+03	4.439493E-16	1.115763E-17
6.410383E+03	4.439288E-16	1.116187E-17
6.420291E+03	4.414903E-16	1.110492E-17
6.430199E+03	4.373996E-16	1.100597E-17
6.440107E+03	4.324344E-16	1.088457E-17
6.450015E+03	4.273071E-16	1.075864E-17
6.459923E+03	4.226189E-16	1.064332E-17
6.469831E+03	4.187811E-16	1.054899E-17
6.479738E+03	4.159916E-16	1.048067E-17
6.489646E+03	4.142798E-16	1.043911E-17
6.499554E+03	4.134794E-16	1.042013E-17
6.509462E+03	4.133210E-16	1.041695E-17
6.519370E+03	4.134863E-16	1.042155E-17
6.529278E+03	4.136400E-16	1.042548E-17
6.539186E+03	4.134876E-16	1.042131E-17
6.549093E+03	4.128083E-16	1.040348E-17
6.559001E+03	4.114496E-16	1.036814E-17
6.568909E+03	4.093747E-16	1.031438E-17
6.578817E+03	4.066049E-16	1.024275E-17
6.588725E+03	4.032262E-16	1.015542E-17
6.598633E+03	3.993862E-16	1.005613E-17
6.608541E+03	3.952227E-16	9.948373E-18
6.618448E+03	3.908948E-16	9.836162E-18
6.628356E+03	3.865170E-16	9.722399E-18
6.638264E+03	3.822004E-16	9.609884E-18
6.648172E+03	3.779983E-16	9.499974E-18
6.658080E+03	3.739308E-16	9.393176E-18
6.667988E+03	3.700084E-16	9.289761E-18
6.677896E+03	3.661978E-16	9.188901E-18
6.687803E+03	3.624555E-16	9.089510E-18
6.697711E+03	3.587290E-16	8.990279E-18
6.707619E+03	3.549609E-16	8.889782E-18
6.717527E+03	3.511042E-16	8.786856E-18
6.727435E+03	3.471045E-16	8.680157E-18
6.737343E+03	3.429499E-16	8.569406E-18
6.747251E+03	3.386350E-16	8.454493E-18
6.757158E+03	3.341942E-16	8.336296E-18
6.767066E+03	3.297019E-16	8.216696E-18
6.776974E+03	3.252470E-16	8.097919E-18
6.786882E+03	3.209365E-16	7.982641E-18
6.796790E+03	3.168789E-16	7.873561E-18
6.806698E+03	3.131797E-16	7.773287E-18
6.816606E+03	3.099138E-16	7.683662E-18
6.826513E+03	3.071333E-16	7.605953E-18
6.836421E+03	3.048541E-16	7.540517E-18
6.846329E+03	3.030503E-16	7.486683E-18
6.856237E+03	3.016376E-16	7.442330E-18
6.866145E+03	3.004776E-16	7.404020E-18
6.876053E+03	2.994273E-16	7.368214E-18
6.885961E+03	2.983138E-16	7.330657E-18
6.895868E+03	2.969798E-16	7.287503E-18
6.905776E+03	2.952823E-16	7.235276E-18
6.915684E+03	2.931246E-16	7.171657E-18
6.925592E+03	2.904617E-16	7.095604E-18
6.935500E+03	2.872843E-16	7.006962E-18
6.945408E+03	2.836401E-16	6.906957E-18
6.955316E+03	2.796020E-16	6.797431E-18
6.965223E+03	2.752728E-16	6.680943E-18
6.975131E+03	2.707748E-16	6.560500E-18
6.985039E+03	2.662235E-16	6.438938E-18
6.994947E+03	2.617360E-16	6.319098E-18
7.004855E+03	2.574227E-16	6.203650E-18
7.014763E+03	2.533671E-16	6.094595E-18
7.024671E+03	2.496425E-16	5.993669E-18
7.034578E+03	2.462888E-16	5.901795E-18
7.044486E+03	2.433322E-16	5.819561E-18
7.054394E+03	2.407655E-16	5.746747E-18
7.064302E+03	2.385650E-16	5.682748E-18
7.074210E+03	2.366947E-16	5.626659E-18
7.084118E+03	2.351013E-16	5.577178E-18
7.094026E+03	2.337205E-16	5.532751E-18
7.103933E+03	2.324920E-16	5.491927E-18
7.113841E+03	2.313707E-16	5.453628E-18
7.123749E+03	2.302976E-16	5.416457E-18
7.133657E+03	2.292548E-16	5.379994E-18
7.143565E+03	2.282080E-16	5.343437E-18
7.153473E+03	2.271638E-16	5.306949E-18
7.163381E+03	2.261138E-16	5.270344E-18
7.173288E+03	2.250700E-16	5.233905E-18
7.183196E+03	2.240418E-16	5.197857E-18
7.193104E+03	2.230348E-16	5.162339E-18
7.203012E+03	2.220640E-16	5.127696E-18
7.212920E+03	2.211381E-16	5.094136E-18
7.222828E+03	2.202578E-16	5.061672E-18
7.232736E+03	2.194290E-16	5.030438E-18
7.242643E+03	2.186464E-16	5.000315E-18
7.252551E+03	2.178997E-16	4.971065E-18
7.262459E+03	2.171692E-16	4.942246E-18
7.272367E+03	2.164425E-16	4.913580E-18
7.282275E+03	2.157012E-16	4.884656E-18
7.292183E+03	2.149233E-16	4.854990E-18
7.302091E+03	2.140948E-16	4.824282E-18
7.311998E+03	2.132104E-16	4.792427E-18
7.321906E+03	2.122589E-16	4.759194E-18
7.331814E+03	2.112429E-16	4.724658E-18
7.341722E+03	2.101574E-16	4.688730E-18
7.351630E+03	2.090071E-16	4.651534E-18
7.361538E+03	2.077900E-16	4.613045E-18
7.371446E+03	2.065007E-16	4.573162E-18
7.381353E+03	2.051332E-16	4.531773E-18
7.391261E+03	2.036659E-16	4.488425E-18
7.401169E+03	2.020826E-16	4.442782E-18
7.411077E+03	2.003596E-16	4.394353E-18
7.420985E+03	1.984722E-16	4.342627E-18
7.430893E+03	1.963966E-16	4.287116E-18
7.440801E+03	1.941070E-16	4.227295E-18
7.450708E+03	1.915985E-16	4.163097E-18
7.460616E+03	1.888632E-16	4.094386E-18
7.470524E+03	1.859396E-16	4.022030E-18
7.480432E+03	1.828799E-16	3.947191E-18
7.490340E+03	1.797753E-16	3.871851E-18
7.500248E+03	1.767241E-16	3.798131E-18
7.510156E+03	1.738230E-16	3.728100E-18
7.520063E+03	1.711745E-16	3.663932E-18
7.529971E+03	1.688639E-16	3.607418E-18
7.539879E+03	1.669702E-16	3.560201E-18
7.549787E+03	1.655638E-16	3.523735E-18
7.559695E+03	1.646919E-16	3.498965E-18
7.569603E+03	1.643865E-16	3.486521E-18
7.579511E+03	1.646535E-16	3.486476E-18
7.589418E+03	1.654648E-16	3.498185E-18
7.599326E+03	1.667336E-16	3.519780E-18
7.609234E+03	1.683557E-16	3.549038E-18
7.619142E+03	1.701974E-16	3.583134E-18
7.629050E+03	1.721282E-16	3.619325E-18
7.638958E+03	1.740280E-16	3.655108E-18
7.648866E+03	1.758001E-16	3.688477E-18
7.658773E+03	1.773794E-16	3.718100E-18
7.668681E+03	1.787343E-16	3.743348E-18
7.678589E+03	1.798484E-16	3.763912E-18
7.688497E+03	1.807099E-16	3.779576E-18
