#wls	flux	fluxerr
1.585257E+03	7.649217E-18	1.311240E-18
1.624889E+03	7.875398E-18	1.341727E-18
1.664520E+03	8.054741E-18	1.363604E-18
1.704151E+03	8.180197E-18	1.375820E-18
1.743783E+03	8.247103E-18	1.377762E-18
1.783414E+03	8.242881E-18	1.367532E-18
1.823046E+03	8.154437E-18	1.343217E-18
1.862677E+03	7.965620E-18	1.302478E-18
1.902309E+03	7.667201E-18	1.244196E-18
1.941940E+03	7.258966E-18	1.168764E-18
1.981571E+03	6.762988E-18	1.080156E-18
2.021203E+03	6.230808E-18	9.869173E-19
2.060834E+03	5.744312E-18	9.020943E-19
2.100466E+03	5.401147E-18	8.407425E-19
2.140097E+03	5.274596E-18	8.136004E-19
2.179729E+03	5.393653E-18	8.241908E-19
2.219360E+03	5.736459E-18	8.681315E-19
2.258991E+03	6.252250E-18	9.367951E-19
2.298623E+03	6.876951E-18	1.019851E-18
2.338254E+03	7.560690E-18	1.109418E-18
2.377886E+03	8.268216E-18	1.200040E-18
2.417517E+03	8.983588E-18	1.289245E-18
2.457149E+03	9.706376E-18	1.376864E-18
2.496780E+03	1.044347E-17	1.463757E-18
2.536411E+03	1.120620E-17	1.551345E-18
2.576043E+03	1.200715E-17	1.641145E-18
2.615674E+03	1.285791E-17	1.734441E-18
2.655306E+03	1.376959E-17	1.832362E-18
2.694937E+03	1.474741E-17	1.935173E-18
2.734569E+03	1.579164E-17	2.042450E-18
2.774200E+03	1.690205E-17	2.153693E-18
2.813831E+03	1.806782E-17	2.267060E-18
2.853463E+03	1.927169E-17	2.379994E-18
2.893094E+03	2.049892E-17	2.490372E-18
2.932726E+03	2.172416E-17	2.594922E-18
2.972357E+03	2.292090E-17	2.690445E-18
2.982265E+03	2.321282E-17	2.712597E-18
2.992173E+03	2.350043E-17	2.733898E-18
3.002081E+03	2.378315E-17	2.754291E-18
3.011989E+03	2.406092E-17	2.773772E-18
3.021896E+03	2.433491E-17	2.792484E-18
3.031804E+03	2.461018E-17	2.811007E-18
3.041712E+03	2.488105E-17	2.828696E-18
3.051620E+03	2.514894E-17	2.845714E-18
3.061528E+03	2.541601E-17	2.862309E-18
3.071436E+03	2.567801E-17	2.878006E-18
3.081344E+03	2.593725E-17	2.893069E-18
3.091251E+03	2.618958E-17	2.907042E-18
3.101159E+03	2.643750E-17	2.920209E-18
3.111067E+03	2.668027E-17	2.932498E-18
3.120975E+03	2.691397E-17	2.943485E-18
3.130883E+03	2.714459E-17	2.953839E-18
3.140791E+03	2.736508E-17	2.962800E-18
3.150699E+03	2.757832E-17	2.970692E-18
3.160606E+03	2.778398E-17	2.977495E-18
3.170514E+03	2.798183E-17	2.983193E-18
3.180422E+03	2.817495E-17	2.988128E-18
3.190330E+03	2.836000E-17	2.991954E-18
3.200238E+03	2.853699E-17	2.994685E-18
3.210146E+03	2.870599E-17	2.996342E-18
3.220054E+03	2.887037E-17	2.997288E-18
3.229961E+03	2.903032E-17	2.997551E-18
3.239869E+03	2.918290E-17	2.996837E-18
3.249777E+03	2.933165E-17	2.995517E-18
3.259685E+03	2.947691E-17	2.993636E-18
3.269593E+03	2.961908E-17	2.991238E-18
3.279501E+03	2.975861E-17	2.988375E-18
3.289409E+03	2.989596E-17	2.985096E-18
3.299316E+03	3.003468E-17	2.981759E-18
3.309224E+03	3.016911E-17	2.977803E-18
3.319132E+03	3.030888E-17	2.974179E-18
3.329040E+03	3.044834E-17	2.970330E-18
3.338948E+03	3.058798E-17	2.966303E-18
3.348856E+03	3.073413E-17	2.962708E-18
3.358763E+03	3.088123E-17	2.959002E-18
3.368671E+03	3.103548E-17	2.955773E-18
3.378579E+03	3.119132E-17	2.952484E-18
3.388487E+03	3.135478E-17	2.949701E-18
3.398395E+03	3.152601E-17	2.947424E-18
3.408303E+03	3.170232E-17	2.945390E-18
3.418211E+03	3.188665E-17	2.943862E-18
3.428118E+03	3.207903E-17	2.942831E-18
3.438026E+03	3.227674E-17	2.942034E-18
3.447934E+03	3.248518E-17	2.941951E-18
3.457842E+03	3.270410E-17	2.942544E-18
3.467750E+03	3.292785E-17	2.943288E-18
3.477658E+03	3.316412E-17	2.944860E-18
3.487566E+03	3.340722E-17	2.946735E-18
3.497473E+03	3.365944E-17	2.949102E-18
3.507381E+03	3.392039E-17	2.951914E-18
3.517289E+03	3.418973E-17	2.955125E-18
3.527197E+03	3.446716E-17	2.958696E-18
3.537105E+03	3.475495E-17	2.962806E-18
3.547013E+03	3.505285E-17	2.967418E-18
3.556921E+03	3.536074E-17	2.972503E-18
3.566828E+03	3.567858E-17	2.978042E-18
3.576736E+03	3.600652E-17	2.984032E-18
3.586644E+03	3.634488E-17	2.990482E-18
3.596552E+03	3.669659E-17	2.997612E-18
3.606460E+03	3.705997E-17	3.005267E-18
3.616368E+03	3.743846E-17	3.013702E-18
3.626276E+03	3.783566E-17	3.023180E-18
3.636183E+03	3.824852E-17	3.033428E-18
3.646091E+03	3.868366E-17	3.044942E-18
3.655999E+03	3.914108E-17	3.057682E-18
3.665907E+03	3.962576E-17	3.071999E-18
3.675815E+03	4.014070E-17	3.088076E-18
3.685723E+03	4.068929E-17	3.106121E-18
3.695631E+03	4.127529E-17	3.126361E-18
3.705538E+03	4.190270E-17	3.149035E-18
3.715446E+03	4.257812E-17	3.174563E-18
3.725354E+03	4.330385E-17	3.203035E-18
3.735262E+03	4.408913E-17	3.235041E-18
3.745170E+03	4.493439E-17	3.270514E-18
3.755078E+03	4.584676E-17	3.309865E-18
3.764986E+03	4.683124E-17	3.353340E-18
3.774893E+03	4.789481E-17	3.401312E-18
3.784801E+03	4.904204E-17	3.453971E-18
3.794709E+03	5.027285E-17	3.511169E-18
3.804617E+03	5.159776E-17	3.573497E-18
3.814525E+03	5.301775E-17	3.640865E-18
3.824433E+03	5.453317E-17	3.713140E-18
3.834341E+03	5.615024E-17	3.790586E-18
3.844248E+03	5.786510E-17	3.872778E-18
3.854156E+03	5.968191E-17	3.959836E-18
3.864064E+03	6.159898E-17	4.051485E-18
3.873972E+03	6.360845E-17	4.147054E-18
3.883880E+03	6.571044E-17	4.246409E-18
3.893788E+03	6.789879E-17	4.349015E-18
3.903696E+03	7.016335E-17	4.454098E-18
3.913603E+03	7.249729E-17	4.561122E-18
3.923511E+03	7.488999E-17	4.669327E-18
3.933419E+03	7.732699E-17	4.777748E-18
3.943327E+03	7.979525E-17	4.885536E-18
3.953235E+03	8.228632E-17	4.992155E-18
3.963143E+03	8.477841E-17	5.096287E-18
3.973051E+03	8.726282E-17	5.197443E-18
3.982958E+03	8.972614E-17	5.294877E-18
3.992866E+03	9.215314E-17	5.387769E-18
4.002774E+03	9.453270E-17	5.475569E-18
4.012682E+03	9.685525E-17	5.557841E-18
4.022590E+03	9.911332E-17	5.634292E-18
4.032498E+03	1.013016E-16	5.704765E-18
4.042406E+03	1.034144E-16	5.769091E-18
4.052313E+03	1.054538E-16	5.827550E-18
4.062221E+03	1.074189E-16	5.880243E-18
4.072129E+03	1.093106E-16	5.927386E-18
4.082037E+03	1.111377E-16	5.969599E-18
4.091945E+03	1.129051E-16	6.007286E-18
4.101853E+03	1.146217E-16	6.041057E-18
4.111761E+03	1.162976E-16	6.071559E-18
4.121668E+03	1.179385E-16	6.099185E-18
4.131576E+03	1.195582E-16	6.124751E-18
4.141484E+03	1.211655E-16	6.148776E-18
4.151392E+03	1.227715E-16	6.171887E-18
4.161300E+03	1.243840E-16	6.194523E-18
4.171208E+03	1.260098E-16	6.217070E-18
4.181116E+03	1.276574E-16	6.239970E-18
4.191023E+03	1.293335E-16	6.263578E-18
4.200931E+03	1.310381E-16	6.287910E-18
4.210839E+03	1.327741E-16	6.313134E-18
4.220747E+03	1.345403E-16	6.339202E-18
4.230655E+03	1.363352E-16	6.366079E-18
4.240563E+03	1.381502E-16	6.393396E-18
4.250471E+03	1.399821E-16	6.421043E-18
4.260378E+03	1.418150E-16	6.448352E-18
4.270286E+03	1.436388E-16	6.474935E-18
4.280194E+03	1.454416E-16	6.500344E-18
4.290102E+03	1.472052E-16	6.523873E-18
4.300010E+03	1.489165E-16	6.545054E-18
4.309918E+03	1.505588E-16	6.563293E-18
4.319826E+03	1.521242E-16	6.578394E-18
4.329733E+03	1.536196E-16	6.590797E-18
4.339641E+03	1.550647E-16	6.601488E-18
4.349549E+03	1.564850E-16	6.611655E-18
4.359457E+03	1.579191E-16	6.623008E-18
4.369365E+03	1.593965E-16	6.636825E-18
4.379273E+03	1.609442E-16	6.654232E-18
4.389181E+03	1.625826E-16	6.676011E-18
4.399088E+03	1.643245E-16	6.702592E-18
4.408996E+03	1.661719E-16	6.733954E-18
4.418904E+03	1.681254E-16	6.770031E-18
4.428812E+03	1.701725E-16	6.810220E-18
4.438720E+03	1.722977E-16	6.853820E-18
4.448628E+03	1.744761E-16	6.899770E-18
4.458536E+03	1.766718E-16	6.946600E-18
4.468443E+03	1.788565E-16	6.993165E-18
4.478351E+03	1.809862E-16	7.037731E-18
4.488259E+03	1.830249E-16	7.078905E-18
4.498167E+03	1.849261E-16	7.114914E-18
4.508075E+03	1.866518E-16	7.144346E-18
4.517983E+03	1.881666E-16	7.165900E-18
4.527891E+03	1.894358E-16	7.178335E-18
4.537798E+03	1.904298E-16	7.180606E-18
4.547706E+03	1.911238E-16	7.171876E-18
4.557614E+03	1.915014E-16	7.151626E-18
4.567522E+03	1.915495E-16	7.119469E-18
4.577430E+03	1.912606E-16	7.075231E-18
4.587338E+03	1.906352E-16	7.019027E-18
4.597246E+03	1.896759E-16	6.951057E-18
4.607153E+03	1.883922E-16	6.871764E-18
4.617061E+03	1.867971E-16	6.781716E-18
4.626969E+03	1.849024E-16	6.681433E-18
4.636877E+03	1.827279E-16	6.571708E-18
4.646785E+03	1.802960E-16	6.453426E-18
4.656693E+03	1.776321E-16	6.327572E-18
4.666601E+03	1.747606E-16	6.195074E-18
4.676508E+03	1.717157E-16	6.057203E-18
4.686416E+03	1.685287E-16	5.915105E-18
4.696324E+03	1.652408E-16	5.770265E-18
4.706232E+03	1.618906E-16	5.624048E-18
4.716140E+03	1.585238E-16	5.478046E-18
4.726048E+03	1.551870E-16	5.333848E-18
4.735956E+03	1.519282E-16	5.193072E-18
4.745863E+03	1.488003E-16	5.057460E-18
4.755771E+03	1.458486E-16	4.928463E-18
4.765679E+03	1.431242E-16	4.807691E-18
4.775587E+03	1.406725E-16	4.696523E-18
4.785495E+03	1.385358E-16	4.596194E-18
4.795403E+03	1.367527E-16	4.507774E-18
4.805311E+03	1.353572E-16	4.432147E-18
4.815218E+03	1.343800E-16	4.370052E-18
4.825126E+03	1.338449E-16	4.321963E-18
4.835034E+03	1.337702E-16	4.288144E-18
4.844942E+03	1.341693E-16	4.268677E-18
4.854850E+03	1.350444E-16	4.263259E-18
4.864758E+03	1.363965E-16	4.271531E-18
4.874666E+03	1.382155E-16	4.292769E-18
4.884573E+03	1.404820E-16	4.325965E-18
4.894481E+03	1.431683E-16	4.369854E-18
4.904389E+03	1.462316E-16	4.422723E-18
4.914297E+03	1.496238E-16	4.482744E-18
4.924205E+03	1.532826E-16	4.547703E-18
4.934113E+03	1.571335E-16	4.615081E-18
4.944021E+03	1.610976E-16	4.682319E-18
4.953928E+03	1.650817E-16	4.746536E-18
4.963836E+03	1.689953E-16	4.805046E-18
4.973744E+03	1.727422E-16	4.855106E-18
4.983652E+03	1.762310E-16	4.894256E-18
4.993560E+03	1.793800E-16	4.920425E-18
5.003468E+03	1.821153E-16	4.931881E-18
5.013376E+03	1.843820E-16	4.927525E-18
5.023283E+03	1.861410E-16	4.906769E-18
5.033191E+03	1.873700E-16	4.869547E-18
5.043099E+03	1.880697E-16	4.816441E-18
5.053007E+03	1.882571E-16	4.748465E-18
5.062915E+03	1.879649E-16	4.667025E-18
5.072823E+03	1.872387E-16	4.573816E-18
5.082731E+03	1.861338E-16	4.470715E-18
5.092638E+03	1.847116E-16	4.359669E-18
5.102546E+03	1.830363E-16	4.242609E-18
5.112454E+03	1.811718E-16	4.121362E-18
5.122362E+03	1.791794E-16	3.997602E-18
5.132270E+03	1.771159E-16	3.872806E-18
5.142178E+03	1.750323E-16	3.748229E-18
5.152086E+03	1.729732E-16	3.624910E-18
5.161993E+03	1.709766E-16	3.503666E-18
5.171901E+03	1.690737E-16	3.385118E-18
5.181809E+03	1.672899E-16	3.269708E-18
5.191717E+03	1.656462E-16	3.157753E-18
5.201625E+03	1.641539E-16	3.049345E-18
5.211533E+03	1.628247E-16	2.944567E-18
5.221441E+03	1.616652E-16	2.843388E-18
5.231348E+03	1.606788E-16	2.745717E-18
5.241256E+03	1.598646E-16	2.651390E-18
5.251164E+03	1.592245E-16	2.560302E-18
5.261072E+03	1.587527E-16	2.472229E-18
5.270980E+03	1.584465E-16	2.387032E-18
5.280888E+03	1.582997E-16	2.304540E-18
5.290796E+03	1.583084E-16	2.224658E-18
5.300703E+03	1.584672E-16	2.147311E-18
5.310611E+03	1.587689E-16	2.072454E-18
5.320519E+03	1.592102E-16	2.000152E-18
5.330427E+03	1.597845E-16	1.930502E-18
5.340335E+03	1.604875E-16	1.863711E-18
5.350243E+03	1.613169E-16	1.800101E-18
5.360151E+03	1.622673E-16	1.740067E-18
5.370058E+03	1.633338E-16	1.684129E-18
5.379966E+03	1.645175E-16	1.632999E-18
5.389874E+03	1.658171E-16	1.587497E-18
5.399782E+03	1.672343E-16	1.548599E-18
5.409690E+03	1.687754E-16	1.517439E-18
5.419598E+03	1.704361E-16	1.495140E-18
5.429506E+03	1.722075E-16	1.482831E-18
5.439413E+03	1.740726E-16	1.481550E-18
5.449321E+03	1.760012E-16	1.492122E-18
5.459229E+03	1.779494E-16	1.515034E-18
5.469137E+03	1.798646E-16	1.550108E-18
5.479045E+03	1.816886E-16	1.596608E-18
5.488953E+03	1.833538E-16	1.653394E-18
5.498861E+03	1.848014E-16	1.719109E-18
5.508768E+03	1.859674E-16	1.792107E-18
5.518676E+03	1.868007E-16	1.870672E-18
5.528584E+03	1.872576E-16	1.953025E-18
5.538492E+03	1.873140E-16	2.037506E-18
5.548400E+03	1.869549E-16	2.122524E-18
5.558308E+03	1.861879E-16	2.206764E-18
5.568216E+03	1.850388E-16	2.289190E-18
5.578123E+03	1.835449E-16	2.369030E-18
5.588031E+03	1.817667E-16	2.445958E-18
5.597939E+03	1.797710E-16	2.519935E-18
5.607847E+03	1.776426E-16	2.591390E-18
5.617755E+03	1.754668E-16	2.661013E-18
5.627663E+03	1.733400E-16	2.729924E-18
5.637571E+03	1.713532E-16	2.799421E-18
5.647478E+03	1.696003E-16	2.871117E-18
5.657386E+03	1.681693E-16	2.946777E-18
5.667294E+03	1.671415E-16	3.028289E-18
5.677202E+03	1.665888E-16	3.117582E-18
5.687110E+03	1.665768E-16	3.216657E-18
5.697018E+03	1.671582E-16	3.327426E-18
5.706926E+03	1.683776E-16	3.451772E-18
5.716833E+03	1.702635E-16	3.591347E-18
5.726741E+03	1.728381E-16	3.747734E-18
5.736649E+03	1.761056E-16	3.922163E-18
5.746557E+03	1.800570E-16	4.115567E-18
5.756465E+03	1.846677E-16	4.328473E-18
5.766373E+03	1.898938E-16	4.560890E-18
5.776281E+03	1.956775E-16	4.812354E-18
5.786188E+03	2.019383E-16	5.081697E-18
5.796096E+03	2.085795E-16	5.367129E-18
5.806004E+03	2.154892E-16	5.666235E-18
5.815912E+03	2.225344E-16	5.975769E-18
5.825820E+03	2.295767E-16	6.292031E-18
5.835728E+03	2.364679E-16	6.610746E-18
5.845636E+03	2.430559E-16	6.927193E-18
5.855543E+03	2.491938E-16	7.236491E-18
5.865451E+03	2.547468E-16	7.533798E-18
5.875359E+03	2.595877E-16	7.814243E-18
5.885267E+03	2.636191E-16	8.073606E-18
5.895175E+03	2.667548E-16	8.307849E-18
5.905083E+03	2.689503E-16	8.514094E-18
5.914991E+03	2.701733E-16	8.689804E-18
5.924898E+03	2.704317E-16	8.833716E-18
5.934806E+03	2.697511E-16	8.945210E-18
5.944714E+03	2.681826E-16	9.024608E-18
5.954622E+03	2.657940E-16	9.072927E-18
5.964530E+03	2.626726E-16	9.092034E-18
5.974438E+03	2.589138E-16	9.084263E-18
5.984346E+03	2.546160E-16	9.052269E-18
5.994253E+03	2.498795E-16	8.998974E-18
6.004161E+03	2.448097E-16	8.927698E-18
6.014069E+03	2.394976E-16	8.841425E-18
6.023977E+03	2.340338E-16	8.743308E-18
6.033885E+03	2.284958E-16	8.636168E-18
6.043793E+03	2.229537E-16	8.522686E-18
6.053701E+03	2.174682E-16	8.405296E-18
6.063608E+03	2.120880E-16	8.286074E-18
6.073516E+03	2.068555E-16	8.166926E-18
6.083424E+03	2.018056E-16	8.049511E-18
6.093332E+03	1.969662E-16	7.935278E-18
6.103240E+03	1.923585E-16	7.825426E-18
6.113148E+03	1.880053E-16	7.721251E-18
6.123056E+03	1.839231E-16	7.623806E-18
6.132963E+03	1.801265E-16	7.534101E-18
6.142871E+03	1.766268E-16	7.452995E-18
6.152779E+03	1.734422E-16	7.381661E-18
6.162687E+03	1.705864E-16	7.321091E-18
6.172595E+03	1.680760E-16	7.272408E-18
6.182503E+03	1.659302E-16	7.236861E-18
6.192411E+03	1.641654E-16	7.215596E-18
6.202318E+03	1.628035E-16	7.209999E-18
6.212226E+03	1.618610E-16	7.221235E-18
6.222134E+03	1.613565E-16	7.250578E-18
6.232042E+03	1.613068E-16	7.299221E-18
6.241950E+03	1.617243E-16	7.368165E-18
6.251858E+03	1.626178E-16	7.458241E-18
6.261766E+03	1.639914E-16	7.570059E-18
6.271673E+03	1.658468E-16	7.704112E-18
6.281581E+03	1.681729E-16	7.860267E-18
6.291489E+03	1.709577E-16	8.038340E-18
6.301397E+03	1.741784E-16	8.237586E-18
6.311305E+03	1.778019E-16	8.456743E-18
6.321213E+03	1.817943E-16	8.694454E-18
6.331121E+03	1.861050E-16	8.948517E-18
6.341028E+03	1.906821E-16	9.216605E-18
6.350936E+03	1.954687E-16	9.496083E-18
6.360844E+03	2.004035E-16	9.784036E-18
6.370752E+03	2.054244E-16	1.007745E-17
6.380660E+03	2.104743E-16	1.037350E-17
6.390568E+03	2.155019E-16	1.066959E-17
6.400476E+03	2.204642E-16	1.096349E-17
6.410383E+03	2.253271E-16	1.125337E-17
6.420291E+03	2.300714E-16	1.153815E-17
6.430199E+03	2.346944E-16	1.181756E-17
6.440107E+03	2.392008E-16	1.209167E-17
6.450015E+03	2.436157E-16	1.236164E-17
6.459923E+03	2.479630E-16	1.262857E-17
6.469831E+03	2.522801E-16	1.289423E-17
6.479738E+03	2.566064E-16	1.316055E-17
6.489646E+03	2.609648E-16	1.342864E-17
6.499554E+03	2.653847E-16	1.369994E-17
6.509462E+03	2.698786E-16	1.397503E-17
6.519370E+03	2.744473E-16	1.425392E-17
6.529278E+03	2.790869E-16	1.453632E-17
6.539186E+03	2.837686E-16	1.482069E-17
6.549093E+03	2.884495E-16	1.510468E-17
6.559001E+03	2.930704E-16	1.538511E-17
6.568909E+03	2.975575E-16	1.565797E-17
6.578817E+03	3.018288E-16	1.591877E-17
6.588725E+03	3.057877E-16	1.616225E-17
6.598633E+03	3.093377E-16	1.638311E-17
6.608541E+03	3.123872E-16	1.657626E-17
6.618448E+03	3.148476E-16	1.673678E-17
6.628356E+03	3.166374E-16	1.686009E-17
6.638264E+03	3.177003E-16	1.694297E-17
6.648172E+03	3.179837E-16	1.698238E-17
6.658080E+03	3.174655E-16	1.697695E-17
6.667988E+03	3.161414E-16	1.692627E-17
6.677896E+03	3.140290E-16	1.683114E-17
6.687803E+03	3.111668E-16	1.669351E-17
6.697711E+03	3.076172E-16	1.651666E-17
6.707619E+03	3.034532E-16	1.630448E-17
6.717527E+03	2.987703E-16	1.606211E-17
6.727435E+03	2.936700E-16	1.579502E-17
6.737343E+03	2.882663E-16	1.550941E-17
6.747251E+03	2.826854E-16	1.521217E-17
6.757158E+03	2.770429E-16	1.490959E-17
6.767066E+03	2.714598E-16	1.460829E-17
6.776974E+03	2.660586E-16	1.431498E-17
6.786882E+03	2.609423E-16	1.403527E-17
6.796790E+03	2.562132E-16	1.377477E-17
6.806698E+03	2.519586E-16	1.353821E-17
6.816606E+03	2.482526E-16	1.332961E-17
6.826513E+03	2.451547E-16	1.315217E-17
6.836421E+03	2.427093E-16	1.300825E-17
6.846329E+03	2.409426E-16	1.289918E-17
6.856237E+03	2.398737E-16	1.282588E-17
6.866145E+03	2.394946E-16	1.278783E-17
6.876053E+03	2.397938E-16	1.278423E-17
6.885961E+03	2.407334E-16	1.281289E-17
6.895868E+03	2.422728E-16	1.287147E-17
6.905776E+03	2.443468E-16	1.295627E-17
6.915684E+03	2.468867E-16	1.306344E-17
6.925592E+03	2.498107E-16	1.318845E-17
6.935500E+03	2.530293E-16	1.332637E-17
6.945408E+03	2.564447E-16	1.347186E-17
6.955316E+03	2.599662E-16	1.362001E-17
6.965223E+03	2.634929E-16	1.376541E-17
6.975131E+03	2.669351E-16	1.390330E-17
6.985039E+03	2.702186E-16	1.402977E-17
6.994947E+03	2.732650E-16	1.414077E-17
7.004855E+03	2.760299E-16	1.423404E-17
7.014763E+03	2.784646E-16	1.430716E-17
7.024671E+03	2.805535E-16	1.435946E-17
7.034578E+03	2.822897E-16	1.439073E-17
7.044486E+03	2.836734E-16	1.440115E-17
7.054394E+03	2.847299E-16	1.439217E-17
7.064302E+03	2.854831E-16	1.436518E-17
7.074210E+03	2.859653E-16	1.432200E-17
7.084118E+03	2.862078E-16	1.426433E-17
7.094026E+03	2.862515E-16	1.419437E-17
7.103933E+03	2.861197E-16	1.411343E-17
7.113841E+03	2.858445E-16	1.402319E-17
7.123749E+03	2.854335E-16	1.392415E-17
7.133657E+03	2.849075E-16	1.381745E-17
7.143565E+03	2.842623E-16	1.370296E-17
7.153473E+03	2.834929E-16	1.358057E-17
7.163381E+03	2.825913E-16	1.345003E-17
7.173288E+03	2.815373E-16	1.331052E-17
7.183196E+03	2.803104E-16	1.316123E-17
7.193104E+03	2.788913E-16	1.300148E-17
7.203012E+03	2.772502E-16	1.283008E-17
7.212920E+03	2.753724E-16	1.264664E-17
7.222828E+03	2.732352E-16	1.245042E-17
7.232736E+03	2.708205E-16	1.224091E-17
7.242643E+03	2.681248E-16	1.201834E-17
7.252551E+03	2.651365E-16	1.178255E-17
7.262459E+03	2.618596E-16	1.153414E-17
7.272367E+03	2.583000E-16	1.127378E-17
7.282275E+03	2.544687E-16	1.100237E-17
7.292183E+03	2.503804E-16	1.072098E-17
7.302091E+03	2.460507E-16	1.043068E-17
7.311998E+03	2.415043E-16	1.013292E-17
7.321906E+03	2.367648E-16	9.829081E-18
7.331814E+03	2.318572E-16	9.520568E-18
7.341722E+03	2.268079E-16	9.208796E-18
7.351630E+03	2.216409E-16	8.895056E-18
7.361538E+03	2.163896E-16	8.580969E-18
7.371446E+03	2.110822E-16	8.267889E-18
7.381353E+03	2.057445E-16	7.957033E-18
7.391261E+03	2.004087E-16	7.649811E-18
7.401169E+03	1.950999E-16	7.347297E-18
7.411077E+03	1.898518E-16	7.050839E-18
7.420985E+03	1.846961E-16	6.761637E-18
7.430893E+03	1.796627E-16	6.480757E-18
7.440801E+03	1.747868E-16	6.209379E-18
7.450708E+03	1.700989E-16	5.948434E-18
7.460616E+03	1.656333E-16	5.698917E-18
7.470524E+03	1.614190E-16	5.461543E-18
7.480432E+03	1.574858E-16	5.236982E-18
7.490340E+03	1.538612E-16	5.025744E-18
7.500248E+03	1.505701E-16	4.828172E-18
7.510156E+03	1.476360E-16	4.644499E-18
7.520063E+03	1.450732E-16	4.474582E-18
7.529971E+03	1.428993E-16	4.318344E-18
7.539879E+03	1.411220E-16	4.175339E-18
7.549787E+03	1.397466E-16	4.045009E-18
7.559695E+03	1.387732E-16	3.926623E-18
7.569603E+03	1.381992E-16	3.819351E-18
7.579511E+03	1.380116E-16	3.722067E-18
7.589418E+03	1.381978E-16	3.633674E-18
7.599326E+03	1.387408E-16	3.552972E-18
7.609234E+03	1.396152E-16	3.478585E-18
7.619142E+03	1.407915E-16	3.409088E-18
7.629050E+03	1.422421E-16	3.343167E-18
7.638958E+03	1.439326E-16	3.279416E-18
7.648866E+03	1.458221E-16	3.216377E-18
7.658773E+03	1.478757E-16	3.152821E-18
7.668681E+03	1.500496E-16	3.087439E-18
7.678589E+03	1.523077E-16	3.019191E-18
7.688497E+03	1.546106E-16	2.947081E-18
