#wls	flux	fluxerr
1.585257E+03	1.246860E-18	4.739848E-19
1.624889E+03	1.290568E-18	4.864087E-19
1.664520E+03	1.327760E-18	4.960318E-19
1.704151E+03	1.358096E-18	5.027861E-19
1.743783E+03	1.380338E-18	5.062801E-19
1.783414E+03	1.392325E-18	5.058065E-19
1.823046E+03	1.391629E-18	5.005975E-19
1.862677E+03	1.375132E-18	4.896773E-19
1.902309E+03	1.340845E-18	4.725192E-19
1.941940E+03	1.287625E-18	4.489281E-19
1.981571E+03	1.218147E-18	4.200494E-19
2.021203E+03	1.141014E-18	3.890161E-19
2.060834E+03	1.070944E-18	3.608920E-19
2.100466E+03	1.026091E-18	3.416515E-19
2.140097E+03	1.022055E-18	3.361301E-19
2.179729E+03	1.066979E-18	3.464714E-19
2.219360E+03	1.159355E-18	3.715731E-19
2.258991E+03	1.291037E-18	4.082395E-19
2.298623E+03	1.451513E-18	4.526597E-19
2.338254E+03	1.630448E-18	5.012478E-19
2.377886E+03	1.820729E-18	5.515683E-19
2.417517E+03	2.018440E-18	6.022615E-19
2.457149E+03	2.221940E-18	6.527044E-19
2.496780E+03	2.431638E-18	7.028954E-19
2.536411E+03	2.648636E-18	7.530191E-19
2.576043E+03	2.875334E-18	8.036010E-19
2.615674E+03	3.113598E-18	8.549702E-19
2.655306E+03	3.365705E-18	9.075266E-19
2.694937E+03	3.634347E-18	9.617315E-19
2.734569E+03	3.921140E-18	1.017708E-18
2.774200E+03	4.227961E-18	1.075607E-18
2.813831E+03	4.557638E-18	1.135774E-18
2.853463E+03	4.911839E-18	1.198205E-18
2.893094E+03	5.292105E-18	1.262827E-18
2.932726E+03	5.700563E-18	1.329662E-18
2.972357E+03	6.139504E-18	1.398723E-18
2.982265E+03	6.254991E-18	1.416494E-18
2.992173E+03	6.372149E-18	1.434306E-18
3.002081E+03	6.490989E-18	1.452153E-18
3.011989E+03	6.613064E-18	1.470372E-18
3.021896E+03	6.737485E-18	1.488753E-18
3.031804E+03	6.865659E-18	1.507594E-18
3.041712E+03	6.997108E-18	1.526774E-18
3.051620E+03	7.132432E-18	1.546409E-18
3.061528E+03	7.271541E-18	1.566462E-18
3.071436E+03	7.414350E-18	1.586899E-18
3.081344E+03	7.560789E-18	1.607688E-18
3.091251E+03	7.710798E-18	1.628800E-18
3.101159E+03	7.865094E-18	1.650370E-18
3.111067E+03	8.022115E-18	1.672054E-18
3.120975E+03	8.183376E-18	1.694152E-18
3.130883E+03	8.348882E-18	1.716646E-18
3.140791E+03	8.517062E-18	1.739198E-18
3.150699E+03	8.689509E-18	1.762118E-18
3.160606E+03	8.866263E-18	1.785394E-18
3.170514E+03	9.046566E-18	1.808856E-18
3.180422E+03	9.231284E-18	1.832661E-18
3.190330E+03	9.419666E-18	1.856640E-18
3.200238E+03	9.613466E-18	1.881120E-18
3.210146E+03	9.811118E-18	1.905772E-18
3.220054E+03	1.001357E-17	1.930764E-18
3.229961E+03	1.022011E-17	1.955934E-18
3.239869E+03	1.043259E-17	1.981620E-18
3.249777E+03	1.065033E-17	2.007665E-18
3.259685E+03	1.087351E-17	2.034080E-18
3.269593E+03	1.110322E-17	2.061044E-18
3.279501E+03	1.133789E-17	2.088237E-18
3.289409E+03	1.157955E-17	2.116011E-18
3.299316E+03	1.182756E-17	2.144215E-18
3.309224E+03	1.208311E-17	2.173038E-18
3.319132E+03	1.234651E-17	2.202501E-18
3.329040E+03	1.261714E-17	2.232461E-18
3.338948E+03	1.289629E-17	2.263110E-18
3.348856E+03	1.318431E-17	2.294474E-18
3.358763E+03	1.348063E-17	2.326415E-18
3.368671E+03	1.378759E-17	2.359296E-18
3.378579E+03	1.410466E-17	2.392983E-18
3.388487E+03	1.443229E-17	2.427505E-18
3.398395E+03	1.477196E-17	2.463066E-18
3.408303E+03	1.512217E-17	2.499362E-18
3.418211E+03	1.548649E-17	2.536932E-18
3.428118E+03	1.586344E-17	2.575477E-18
3.438026E+03	1.625358E-17	2.615031E-18
3.447934E+03	1.665960E-17	2.655966E-18
3.457842E+03	1.708003E-17	2.697981E-18
3.467750E+03	1.751657E-17	2.741279E-18
3.477658E+03	1.796989E-17	2.785895E-18
3.487566E+03	1.844178E-17	2.832034E-18
3.497473E+03	1.893190E-17	2.879559E-18
3.507381E+03	1.944097E-17	2.928507E-18
3.517289E+03	1.997093E-17	2.979080E-18
3.527197E+03	2.052261E-17	3.031316E-18
3.537105E+03	2.109571E-17	3.085077E-18
3.547013E+03	2.169346E-17	3.140739E-18
3.556921E+03	2.231441E-17	3.197991E-18
3.566828E+03	2.296065E-17	3.257030E-18
3.576736E+03	2.363437E-17	3.318059E-18
3.586644E+03	2.433534E-17	3.380928E-18
3.596552E+03	2.506581E-17	3.445833E-18
3.606460E+03	2.582558E-17	3.512625E-18
3.616368E+03	2.661700E-17	3.581496E-18
3.626276E+03	2.744116E-17	3.652460E-18
3.636183E+03	2.829923E-17	3.725537E-18
3.646091E+03	2.919368E-17	3.800909E-18
3.655999E+03	3.012297E-17	3.878227E-18
3.665907E+03	3.109101E-17	3.957848E-18
3.675815E+03	3.209897E-17	4.039761E-18
3.685723E+03	3.314658E-17	4.123773E-18
3.695631E+03	3.423642E-17	4.210039E-18
3.705538E+03	3.536955E-17	4.298522E-18
3.715446E+03	3.654700E-17	4.389171E-18
3.725354E+03	3.776973E-17	4.481929E-18
3.735262E+03	3.903854E-17	4.576710E-18
3.745170E+03	4.035568E-17	4.673599E-18
3.755078E+03	4.172179E-17	4.772482E-18
3.764986E+03	4.313557E-17	4.873024E-18
3.774893E+03	4.460038E-17	4.975425E-18
3.784801E+03	4.611267E-17	5.079101E-18
3.794709E+03	4.767358E-17	5.184006E-18
3.804617E+03	4.928210E-17	5.289856E-18
3.814525E+03	5.093853E-17	5.396516E-18
3.824433E+03	5.263915E-17	5.503432E-18
3.834341E+03	5.438312E-17	5.610371E-18
3.844248E+03	5.616716E-17	5.716862E-18
3.854156E+03	5.798536E-17	5.822189E-18
3.864064E+03	5.983466E-17	5.925954E-18
3.873972E+03	6.170934E-17	6.027523E-18
3.883880E+03	6.360266E-17	6.126196E-18
3.893788E+03	6.550699E-17	6.221229E-18
3.903696E+03	6.741378E-17	6.311838E-18
3.913603E+03	6.931555E-17	6.397386E-18
3.923511E+03	7.120002E-17	6.476843E-18
3.933419E+03	7.305615E-17	6.549360E-18
3.943327E+03	7.487448E-17	6.614286E-18
3.953235E+03	7.664108E-17	6.670633E-18
3.963143E+03	7.834412E-17	6.717668E-18
3.973051E+03	7.997420E-17	6.754925E-18
3.982958E+03	8.152065E-17	6.781880E-18
3.992866E+03	8.297194E-17	6.797994E-18
4.002774E+03	8.432038E-17	6.803093E-18
4.012682E+03	8.556279E-17	6.797397E-18
4.022590E+03	8.669441E-17	6.781017E-18
4.032498E+03	8.771534E-17	6.754458E-18
4.042406E+03	8.863068E-17	6.718597E-18
4.052313E+03	8.944370E-17	6.674149E-18
4.062221E+03	9.015942E-17	6.621936E-18
4.072129E+03	9.079032E-17	6.563292E-18
4.082037E+03	9.134086E-17	6.498918E-18
4.091945E+03	9.182168E-17	6.429925E-18
4.101853E+03	9.223876E-17	6.357050E-18
4.111761E+03	9.259965E-17	6.281110E-18
4.121668E+03	9.291132E-17	6.202844E-18
4.131576E+03	9.317839E-17	6.122807E-18
4.141484E+03	9.340889E-17	6.041754E-18
4.151392E+03	9.360478E-17	5.960018E-18
4.161300E+03	9.377315E-17	5.878244E-18
4.171208E+03	9.391660E-17	5.796772E-18
4.181116E+03	9.403698E-17	5.715884E-18
4.191023E+03	9.413838E-17	5.635990E-18
4.200931E+03	9.421848E-17	5.557106E-18
4.210839E+03	9.427733E-17	5.479392E-18
4.220747E+03	9.431389E-17	5.402944E-18
4.230655E+03	9.432306E-17	5.327629E-18
4.240563E+03	9.430296E-17	5.253506E-18
4.250471E+03	9.424995E-17	5.180537E-18
4.260378E+03	9.416251E-17	5.108804E-18
4.270286E+03	9.403663E-17	5.038251E-18
4.280194E+03	9.387225E-17	4.969033E-18
4.290102E+03	9.366762E-17	4.901203E-18
4.300010E+03	9.342555E-17	4.835043E-18
4.309918E+03	9.314856E-17	4.770802E-18
4.319826E+03	9.284583E-17	4.709043E-18
4.329733E+03	9.253625E-17	4.650789E-18
4.339641E+03	9.224396E-17	4.597277E-18
4.349549E+03	9.200198E-17	4.550134E-18
4.359457E+03	9.184612E-17	4.511031E-18
4.369365E+03	9.180608E-17	4.481197E-18
4.379273E+03	9.191298E-17	4.461896E-18
4.389181E+03	9.218753E-17	4.453878E-18
4.399088E+03	9.264745E-17	4.457755E-18
4.408996E+03	9.330662E-17	4.473971E-18
4.418904E+03	9.416756E-17	4.502444E-18
4.428812E+03	9.523279E-17	4.543120E-18
4.438720E+03	9.649495E-17	4.595499E-18
4.448628E+03	9.794145E-17	4.658851E-18
4.458536E+03	9.955755E-17	4.732369E-18
4.468443E+03	1.013255E-16	4.815115E-18
4.478351E+03	1.032225E-16	4.905925E-18
4.488259E+03	1.052274E-16	5.003710E-18
4.498167E+03	1.073163E-16	5.107252E-18
4.508075E+03	1.094709E-16	5.215595E-18
4.517983E+03	1.116667E-16	5.327473E-18
4.527891E+03	1.138833E-16	5.441816E-18
4.537798E+03	1.161008E-16	5.557545E-18
4.547706E+03	1.182957E-16	5.673412E-18
4.557614E+03	1.204487E-16	5.788336E-18
4.567522E+03	1.225367E-16	5.901051E-18
4.577430E+03	1.245347E-16	6.010182E-18
4.587338E+03	1.264201E-16	6.114450E-18
4.597246E+03	1.281699E-16	6.212533E-18
4.607153E+03	1.297583E-16	6.302982E-18
4.617061E+03	1.311567E-16	6.384189E-18
4.626969E+03	1.323376E-16	6.454587E-18
4.636877E+03	1.332699E-16	6.512432E-18
4.646785E+03	1.339190E-16	6.555809E-18
4.656693E+03	1.342513E-16	6.582852E-18
4.666601E+03	1.342363E-16	6.591850E-18
4.676508E+03	1.338435E-16	6.581108E-18
4.686416E+03	1.330554E-16	6.549581E-18
4.696324E+03	1.318612E-16	6.496598E-18
4.706232E+03	1.302684E-16	6.422403E-18
4.716140E+03	1.283020E-16	6.328153E-18
4.726048E+03	1.260014E-16	6.215744E-18
4.735956E+03	1.234227E-16	6.087949E-18
4.745863E+03	1.206371E-16	5.948298E-18
4.755771E+03	1.177227E-16	5.800705E-18
4.765679E+03	1.147682E-16	5.649603E-18
4.775587E+03	1.118621E-16	5.499434E-18
4.785495E+03	1.090929E-16	5.354604E-18
4.795403E+03	1.065486E-16	5.219476E-18
4.805311E+03	1.043101E-16	5.098015E-18
4.815218E+03	1.024543E-16	4.993944E-18
4.825126E+03	1.010491E-16	4.910465E-18
4.835034E+03	1.001550E-16	4.850343E-18
4.844942E+03	9.982597E-17	4.815945E-18
4.854850E+03	1.001089E-16	4.809191E-18
4.864758E+03	1.010374E-16	4.831267E-18
4.874666E+03	1.026385E-16	4.882941E-18
4.884573E+03	1.049234E-16	4.964138E-18
4.894481E+03	1.078875E-16	5.073939E-18
4.904389E+03	1.115027E-16	5.210251E-18
4.914297E+03	1.157181E-16	5.369876E-18
4.924205E+03	1.204539E-16	5.548271E-18
4.934113E+03	1.255956E-16	5.739358E-18
4.944021E+03	1.310047E-16	5.936073E-18
4.953928E+03	1.365093E-16	6.130018E-18
4.963836E+03	1.419210E-16	6.312339E-18
4.973744E+03	1.470410E-16	6.474027E-18
4.983652E+03	1.516752E-16	6.606683E-18
4.993560E+03	1.556445E-16	6.702963E-18
5.003468E+03	1.588046E-16	6.757435E-18
5.013376E+03	1.610524E-16	6.766803E-18
5.023283E+03	1.623352E-16	6.730189E-18
5.033191E+03	1.626524E-16	6.649095E-18
5.043099E+03	1.620526E-16	6.527138E-18
5.053007E+03	1.606266E-16	6.369608E-18
5.062915E+03	1.584980E-16	6.182966E-18
5.072823E+03	1.558078E-16	5.974123E-18
5.082731E+03	1.527039E-16	5.749961E-18
5.092638E+03	1.493293E-16	5.516827E-18
5.102546E+03	1.458186E-16	5.280408E-18
5.112454E+03	1.422894E-16	5.045416E-18
5.122362E+03	1.388353E-16	4.815392E-18
5.132270E+03	1.355347E-16	4.593061E-18
5.142178E+03	1.324470E-16	4.380261E-18
5.152086E+03	1.296122E-16	4.177988E-18
5.161993E+03	1.270579E-16	3.986685E-18
5.171901E+03	1.248000E-16	3.806316E-18
5.181809E+03	1.228465E-16	3.636525E-18
5.191717E+03	1.211942E-16	3.476578E-18
5.201625E+03	1.198389E-16	3.325692E-18
5.211533E+03	1.187670E-16	3.182826E-18
5.221441E+03	1.179622E-16	3.046901E-18
5.231348E+03	1.173997E-16	2.916680E-18
5.241256E+03	1.170542E-16	2.791006E-18
5.251164E+03	1.168959E-16	2.668723E-18
5.261072E+03	1.168924E-16	2.548758E-18
5.270980E+03	1.170106E-16	2.430189E-18
5.280888E+03	1.172173E-16	2.312272E-18
5.290796E+03	1.174824E-16	2.194540E-18
5.300703E+03	1.177818E-16	2.076843E-18
5.310611E+03	1.180933E-16	1.959299E-18
5.320519E+03	1.184070E-16	1.842483E-18
5.330427E+03	1.187162E-16	1.727285E-18
5.340335E+03	1.190302E-16	1.615145E-18
5.350243E+03	1.193660E-16	1.507961E-18
5.360151E+03	1.197506E-16	1.408200E-18
5.370058E+03	1.202262E-16	1.319037E-18
5.379966E+03	1.208377E-16	1.244262E-18
5.389874E+03	1.216392E-16	1.188324E-18
5.399782E+03	1.226861E-16	1.155996E-18
5.409690E+03	1.240316E-16	1.151808E-18
5.419598E+03	1.257201E-16	1.179196E-18
5.429506E+03	1.277847E-16	1.239249E-18
5.439413E+03	1.302342E-16	1.330973E-18
5.449321E+03	1.330330E-16	1.452078E-18
5.459229E+03	1.360968E-16	1.599433E-18
5.469137E+03	1.393036E-16	1.769411E-18
5.479045E+03	1.425029E-16	1.957948E-18
5.488953E+03	1.455388E-16	2.160695E-18
5.498861E+03	1.482585E-16	2.373009E-18
5.508768E+03	1.505202E-16	2.589990E-18
5.518676E+03	1.522001E-16	2.806584E-18
5.528584E+03	1.532024E-16	3.017810E-18
5.538492E+03	1.534625E-16	3.218965E-18
5.548400E+03	1.529414E-16	3.405676E-18
5.558308E+03	1.516388E-16	3.574337E-18
5.568216E+03	1.495814E-16	3.722085E-18
5.578123E+03	1.468224E-16	3.846942E-18
5.588031E+03	1.434432E-16	3.948044E-18
5.597939E+03	1.395403E-16	4.025447E-18
5.607847E+03	1.352285E-16	4.080318E-18
5.617755E+03	1.306324E-16	4.114787E-18
5.627663E+03	1.258836E-16	4.131913E-18
5.637571E+03	1.211146E-16	4.135527E-18
5.647478E+03	1.164590E-16	4.130223E-18
5.657386E+03	1.120390E-16	4.120905E-18
5.667294E+03	1.079677E-16	4.112795E-18
5.677202E+03	1.043417E-16	4.111061E-18
5.687110E+03	1.012429E-16	4.120787E-18
5.697018E+03	9.873820E-17	4.146837E-18
5.706926E+03	9.687646E-17	4.193644E-18
5.716833E+03	9.569375E-17	4.265300E-18
5.726741E+03	9.521135E-17	4.365384E-18
5.736649E+03	9.543745E-17	4.496942E-18
5.746557E+03	9.637055E-17	4.662568E-18
5.756465E+03	9.799697E-17	4.864209E-18
5.766373E+03	1.002902E-16	5.103060E-18
5.776281E+03	1.032131E-16	5.379598E-18
5.786188E+03	1.067122E-16	5.693210E-18
5.796096E+03	1.107209E-16	6.042270E-18
5.806004E+03	1.151554E-16	6.423842E-18
5.815912E+03	1.199148E-16	6.833578E-18
5.825820E+03	1.248847E-16	7.265834E-18
5.835728E+03	1.299400E-16	7.713769E-18
5.845636E+03	1.349434E-16	8.169215E-18
5.855543E+03	1.397606E-16	8.623517E-18
5.865451E+03	1.442545E-16	9.067243E-18
5.875359E+03	1.483014E-16	9.491201E-18
5.885267E+03	1.517921E-16	9.886582E-18
5.895175E+03	1.546358E-16	1.024536E-17
5.905083E+03	1.567682E-16	1.056090E-17
5.914991E+03	1.581517E-16	1.082816E-17
5.924898E+03	1.587771E-16	1.104397E-17
5.934806E+03	1.586605E-16	1.120694E-17
5.944714E+03	1.578443E-16	1.131769E-17
5.954622E+03	1.563920E-16	1.137861E-17
5.964530E+03	1.543833E-16	1.139361E-17
5.974438E+03	1.519060E-16	1.136755E-17
5.984346E+03	1.490597E-16	1.130662E-17
5.994253E+03	1.459375E-16	1.121692E-17
6.004161E+03	1.426363E-16	1.110527E-17
6.014069E+03	1.392393E-16	1.097778E-17
6.023977E+03	1.358277E-16	1.084076E-17
6.033885E+03	1.324666E-16	1.069955E-17
6.043793E+03	1.292117E-16	1.055895E-17
6.053701E+03	1.261104E-16	1.042330E-17
6.063608E+03	1.231963E-16	1.029593E-17
6.073516E+03	1.204962E-16	1.017972E-17
6.083424E+03	1.180286E-16	1.007695E-17
6.093332E+03	1.158037E-16	9.989178E-18
6.103240E+03	1.138255E-16	9.917494E-18
6.113148E+03	1.120964E-16	9.862810E-18
6.123056E+03	1.106109E-16	9.825341E-18
6.132963E+03	1.093600E-16	9.804944E-18
6.142871E+03	1.083340E-16	9.801371E-18
6.152779E+03	1.075202E-16	9.814040E-18
6.162687E+03	1.069042E-16	9.842156E-18
6.172595E+03	1.064706E-16	9.884795E-18
6.182503E+03	1.062051E-16	9.941028E-18
6.192411E+03	1.060929E-16	1.000987E-17
6.202318E+03	1.061177E-16	1.009009E-17
6.212226E+03	1.062673E-16	1.018082E-17
6.222134E+03	1.065267E-16	1.028088E-17
6.232042E+03	1.068829E-16	1.038921E-17
6.241950E+03	1.073272E-16	1.050515E-17
6.251858E+03	1.078453E-16	1.062741E-17
6.261766E+03	1.084285E-16	1.075529E-17
6.271673E+03	1.090667E-16	1.088785E-17
6.281581E+03	1.097499E-16	1.102417E-17
6.291489E+03	1.104682E-16	1.116328E-17
6.301397E+03	1.112102E-16	1.130408E-17
6.311305E+03	1.119683E-16	1.144575E-17
6.321213E+03	1.127311E-16	1.158716E-17
6.331121E+03	1.134889E-16	1.172724E-17
6.341028E+03	1.142323E-16	1.186497E-17
6.350936E+03	1.149516E-16	1.199929E-17
6.360844E+03	1.156419E-16	1.212960E-17
6.370752E+03	1.162947E-16	1.225494E-17
6.380660E+03	1.169058E-16	1.237476E-17
6.390568E+03	1.174725E-16	1.248868E-17
6.400476E+03	1.179949E-16	1.259664E-17
6.410383E+03	1.184728E-16	1.269851E-17
6.420291E+03	1.189070E-16	1.279430E-17
6.430199E+03	1.193027E-16	1.288449E-17
6.440107E+03	1.196649E-16	1.296956E-17
6.450015E+03	1.199999E-16	1.305013E-17
6.459923E+03	1.203140E-16	1.312684E-17
6.469831E+03	1.206142E-16	1.320042E-17
6.479738E+03	1.209081E-16	1.327167E-17
6.489646E+03	1.212012E-16	1.334116E-17
6.499554E+03	1.214972E-16	1.340930E-17
6.509462E+03	1.218004E-16	1.347654E-17
6.519370E+03	1.221100E-16	1.354279E-17
6.529278E+03	1.224209E-16	1.360745E-17
6.539186E+03	1.227306E-16	1.367023E-17
6.549093E+03	1.230280E-16	1.372989E-17
6.559001E+03	1.233012E-16	1.378506E-17
6.568909E+03	1.235386E-16	1.383442E-17
6.578817E+03	1.237217E-16	1.387586E-17
6.588725E+03	1.238384E-16	1.390796E-17
6.598633E+03	1.238720E-16	1.392883E-17
6.608541E+03	1.238059E-16	1.393656E-17
6.618448E+03	1.236261E-16	1.392952E-17
6.628356E+03	1.233256E-16	1.390691E-17
6.638264E+03	1.228920E-16	1.386730E-17
6.648172E+03	1.223252E-16	1.381066E-17
6.658080E+03	1.216231E-16	1.373677E-17
6.667988E+03	1.207897E-16	1.364607E-17
6.677896E+03	1.198342E-16	1.353965E-17
6.687803E+03	1.187690E-16	1.341894E-17
6.697711E+03	1.176099E-16	1.328577E-17
6.707619E+03	1.163764E-16	1.314241E-17
6.717527E+03	1.150922E-16	1.299160E-17
6.727435E+03	1.137809E-16	1.283605E-17
6.737343E+03	1.124706E-16	1.267902E-17
6.747251E+03	1.111894E-16	1.252371E-17
6.757158E+03	1.099651E-16	1.237333E-17
6.767066E+03	1.088299E-16	1.223150E-17
6.776974E+03	1.078116E-16	1.210139E-17
6.786882E+03	1.069392E-16	1.198623E-17
6.796790E+03	1.062421E-16	1.188929E-17
6.806698E+03	1.057457E-16	1.181334E-17
6.816606E+03	1.054769E-16	1.176128E-17
6.826513E+03	1.054580E-16	1.173547E-17
6.836421E+03	1.057107E-16	1.173816E-17
6.846329E+03	1.062572E-16	1.177158E-17
6.856237E+03	1.071117E-16	1.183706E-17
6.866145E+03	1.082894E-16	1.193599E-17
6.876053E+03	1.097998E-16	1.206905E-17
6.885961E+03	1.116512E-16	1.223680E-17
6.895868E+03	1.138465E-16	1.243912E-17
6.905776E+03	1.163840E-16	1.267539E-17
6.915684E+03	1.192572E-16	1.294443E-17
6.925592E+03	1.224528E-16	1.324426E-17
6.935500E+03	1.259545E-16	1.357262E-17
6.945408E+03	1.297371E-16	1.392626E-17
6.955316E+03	1.337744E-16	1.430186E-17
6.965223E+03	1.380284E-16	1.469484E-17
6.975131E+03	1.424597E-16	1.510054E-17
6.985039E+03	1.470274E-16	1.551418E-17
6.994947E+03	1.516870E-16	1.593067E-17
7.004855E+03	1.563917E-16	1.634476E-17
7.014763E+03	1.610978E-16	1.675160E-17
7.024671E+03	1.657642E-16	1.714674E-17
7.034578E+03	1.703566E-16	1.752646E-17
7.044486E+03	1.748415E-16	1.788726E-17
7.054394E+03	1.791934E-16	1.822652E-17
7.064302E+03	1.833909E-16	1.854209E-17
7.074210E+03	1.874262E-16	1.883327E-17
7.084118E+03	1.912873E-16	1.909899E-17
7.094026E+03	1.949726E-16	1.933921E-17
7.103933E+03	1.984865E-16	1.955456E-17
7.113841E+03	2.018342E-16	1.974573E-17
7.123749E+03	2.050168E-16	1.991299E-17
7.133657E+03	2.080429E-16	2.005736E-17
7.143565E+03	2.109137E-16	2.017919E-17
7.153473E+03	2.136358E-16	2.027927E-17
7.163381E+03	2.161968E-16	2.035667E-17
7.173288E+03	2.185899E-16	2.041099E-17
7.183196E+03	2.207990E-16	2.044101E-17
7.193104E+03	2.227990E-16	2.044479E-17
7.203012E+03	2.245642E-16	2.042040E-17
7.212920E+03	2.260556E-16	2.036481E-17
7.222828E+03	2.272358E-16	2.027534E-17
7.232736E+03	2.280662E-16	2.014930E-17
7.242643E+03	2.285080E-16	1.998420E-17
7.252551E+03	2.285222E-16	1.977768E-17
7.262459E+03	2.280739E-16	1.952793E-17
7.272367E+03	2.271375E-16	1.923407E-17
7.282275E+03	2.256917E-16	1.889575E-17
7.292183E+03	2.237263E-16	1.851367E-17
7.302091E+03	2.212376E-16	1.808913E-17
7.311998E+03	2.182335E-16	1.762442E-17
7.321906E+03	2.147254E-16	1.712217E-17
7.331814E+03	2.107392E-16	1.658613E-17
7.341722E+03	2.063065E-16	1.602040E-17
7.351630E+03	2.014714E-16	1.543002E-17
7.361538E+03	1.962771E-16	1.481974E-17
7.371446E+03	1.907801E-16	1.419517E-17
7.381353E+03	1.850384E-16	1.356186E-17
7.391261E+03	1.791134E-16	1.292528E-17
7.401169E+03	1.730700E-16	1.229098E-17
7.411077E+03	1.669712E-16	1.166403E-17
7.420985E+03	1.608810E-16	1.104932E-17
7.430893E+03	1.548612E-16	1.045128E-17
7.440801E+03	1.489686E-16	9.873700E-18
7.450708E+03	1.432587E-16	9.320004E-18
7.460616E+03	1.377810E-16	8.792960E-18
7.470524E+03	1.325815E-16	8.294830E-18
7.480432E+03	1.277034E-16	7.827465E-18
7.490340E+03	1.231853E-16	7.392186E-18
7.500248E+03	1.190576E-16	6.989600E-18
7.510156E+03	1.153492E-16	6.620037E-18
7.520063E+03	1.120837E-16	6.283341E-18
7.529971E+03	1.092770E-16	5.978765E-18
7.539879E+03	1.069452E-16	5.705443E-18
7.549787E+03	1.050942E-16	5.461846E-18
7.559695E+03	1.037299E-16	5.246381E-18
7.569603E+03	1.028537E-16	5.057140E-18
7.579511E+03	1.024600E-16	4.891841E-18
7.589418E+03	1.025359E-16	4.747838E-18
7.599326E+03	1.030641E-16	4.622329E-18
7.609234E+03	1.040194E-16	4.512226E-18
7.619142E+03	1.053702E-16	4.414277E-18
7.629050E+03	1.070792E-16	4.325151E-18
7.638958E+03	1.091035E-16	4.241496E-18
7.648866E+03	1.113963E-16	4.160039E-18
7.658773E+03	1.139010E-16	4.077414E-18
7.668681E+03	1.165609E-16	3.990595E-18
7.678589E+03	1.193091E-16	3.896544E-18
7.688497E+03	1.220743E-16	3.792509E-18
