#wls	flux	fluxerr
1.585257E+03	4.332521E-18	4.361585E-21
1.624889E+03	4.444786E-18	4.474603E-21
1.664520E+03	4.531962E-18	4.562362E-21
1.704151E+03	4.591761E-18	4.622562E-21
1.743783E+03	4.621428E-18	4.652427E-21
1.783414E+03	4.615380E-18	4.646338E-21
1.823046E+03	4.564976E-18	4.595595E-21
1.862677E+03	4.463078E-18	4.493013E-21
1.902309E+03	4.303401E-18	4.332264E-21
1.941940E+03	4.085183E-18	4.112582E-21
1.981571E+03	3.819062E-18	3.844675E-21
2.021203E+03	3.533721E-18	3.557420E-21
2.060834E+03	3.275253E-18	3.297218E-21
2.100466E+03	3.097836E-18	3.118610E-21
2.140097E+03	3.045660E-18	3.066084E-21
2.179729E+03	3.136333E-18	3.157365E-21
2.219360E+03	3.361251E-18	3.383791E-21
2.258991E+03	3.690313E-18	3.715059E-21
2.298623E+03	4.089746E-18	4.117170E-21
2.338254E+03	4.528201E-18	4.558564E-21
2.377886E+03	4.982756E-18	5.016166E-21
2.417517E+03	5.442410E-18	5.478902E-21
2.457149E+03	5.901245E-18	5.940811E-21
2.496780E+03	6.361710E-18	6.404363E-21
2.536411E+03	6.825245E-18	6.871005E-21
2.576043E+03	7.296182E-18	7.345098E-21
2.615674E+03	7.779045E-18	7.831198E-21
2.655306E+03	8.277976E-18	8.333472E-21
2.694937E+03	8.797614E-18	8.856593E-21
2.734569E+03	9.339349E-18	9.401958E-21
2.774200E+03	9.904705E-18	9.971103E-21
2.813831E+03	1.049558E-17	1.056594E-20
2.853463E+03	1.111447E-17	1.118897E-20
2.893094E+03	1.175766E-17	1.183648E-20
2.932726E+03	1.242785E-17	1.251116E-20
2.972357E+03	1.312482E-17	1.321280E-20
2.982265E+03	1.330340E-17	1.339257E-20
2.992173E+03	1.348406E-17	1.357444E-20
3.002081E+03	1.366527E-17	1.375687E-20
3.011989E+03	1.384876E-17	1.394159E-20
3.021896E+03	1.403550E-17	1.412957E-20
3.031804E+03	1.422681E-17	1.432217E-20
3.041712E+03	1.442158E-17	1.451824E-20
3.051620E+03	1.462089E-17	1.471889E-20
3.061528E+03	1.482440E-17	1.492376E-20
3.071436E+03	1.503179E-17	1.513255E-20
3.081344E+03	1.524278E-17	1.534494E-20
3.091251E+03	1.545709E-17	1.556070E-20
3.101159E+03	1.567450E-17	1.577956E-20
3.111067E+03	1.589635E-17	1.600289E-20
3.120975E+03	1.612247E-17	1.623053E-20
3.130883E+03	1.634956E-17	1.645914E-20
3.140791E+03	1.658062E-17	1.669175E-20
3.150699E+03	1.681557E-17	1.692827E-20
3.160606E+03	1.705272E-17	1.716701E-20
3.170514E+03	1.729361E-17	1.740952E-20
3.180422E+03	1.753661E-17	1.765414E-20
3.190330E+03	1.778491E-17	1.790411E-20
3.200238E+03	1.803532E-17	1.815619E-20
3.210146E+03	1.828948E-17	1.841206E-20
3.220054E+03	1.854746E-17	1.867176E-20
3.229961E+03	1.880934E-17	1.893540E-20
3.239869E+03	1.907687E-17	1.920472E-20
3.249777E+03	1.934693E-17	1.947659E-20
3.259685E+03	1.962293E-17	1.975444E-20
3.269593E+03	1.990343E-17	2.003682E-20
3.279501E+03	2.019029E-17	2.032560E-20
3.289409E+03	2.048208E-17	2.061935E-20
3.299316E+03	2.078073E-17	2.092000E-20
3.309224E+03	2.108487E-17	2.122617E-20
3.319132E+03	2.139644E-17	2.153983E-20
3.329040E+03	2.171579E-17	2.186133E-20
3.338948E+03	2.204328E-17	2.219101E-20
3.348856E+03	2.237930E-17	2.252927E-20
3.358763E+03	2.272590E-17	2.287820E-20
3.368671E+03	2.308020E-17	2.323488E-20
3.378579E+03	2.344598E-17	2.360310E-20
3.388487E+03	2.382204E-17	2.398169E-20
3.398395E+03	2.421056E-17	2.437281E-20
3.408303E+03	2.461038E-17	2.477530E-20
3.418211E+03	2.502369E-17	2.519139E-20
3.428118E+03	2.545275E-17	2.562332E-20
3.438026E+03	2.589474E-17	2.606827E-20
3.447934E+03	2.635191E-17	2.652850E-20
3.457842E+03	2.682483E-17	2.700459E-20
3.467750E+03	2.731576E-17	2.749881E-20
3.477658E+03	2.782357E-17	2.801002E-20
3.487566E+03	2.834882E-17	2.853880E-20
3.497473E+03	2.889385E-17	2.908747E-20
3.507381E+03	2.945926E-17	2.965667E-20
3.517289E+03	3.004568E-17	3.024702E-20
3.527197E+03	3.065375E-17	3.085917E-20
3.537105E+03	3.128592E-17	3.149557E-20
3.547013E+03	3.193934E-17	3.215337E-20
3.556921E+03	3.261823E-17	3.283681E-20
3.566828E+03	3.332158E-17	3.354486E-20
3.576736E+03	3.405186E-17	3.428004E-20
3.586644E+03	3.480988E-17	3.504314E-20
3.596552E+03	3.559642E-17	3.583495E-20
3.606460E+03	3.641229E-17	3.665628E-20
3.616368E+03	3.725824E-17	3.750790E-20
3.626276E+03	3.813697E-17	3.839252E-20
3.636183E+03	3.904739E-17	3.930904E-20
3.646091E+03	3.999217E-17	4.026015E-20
3.655999E+03	4.097024E-17	4.124477E-20
3.665907E+03	4.198416E-17	4.226548E-20
3.675815E+03	4.303654E-17	4.332491E-20
3.685723E+03	4.412421E-17	4.441987E-20
3.695631E+03	4.525155E-17	4.555476E-20
3.705538E+03	4.641704E-17	4.672806E-20
3.715446E+03	4.762299E-17	4.794209E-20
3.725354E+03	4.886962E-17	4.919708E-20
3.735262E+03	5.015489E-17	5.049095E-20
3.745170E+03	5.148265E-17	5.182761E-20
3.755078E+03	5.284835E-17	5.320245E-20
3.764986E+03	5.425539E-17	5.461893E-20
3.774893E+03	5.570064E-17	5.607386E-20
3.784801E+03	5.718480E-17	5.756796E-20
3.794709E+03	5.870391E-17	5.909725E-20
3.804617E+03	6.025787E-17	6.066162E-20
3.814525E+03	6.184172E-17	6.225607E-20
3.824433E+03	6.345650E-17	6.388167E-20
3.834341E+03	6.509400E-17	6.553014E-20
3.844248E+03	6.675413E-17	6.720139E-20
3.854156E+03	6.842953E-17	6.888802E-20
3.864064E+03	7.011216E-17	7.058192E-20
3.873972E+03	7.180230E-17	7.228338E-20
3.883880E+03	7.348606E-17	7.397842E-20
3.893788E+03	7.516010E-17	7.566368E-20
3.903696E+03	7.681604E-17	7.733071E-20
3.913603E+03	7.844030E-17	7.896585E-20
3.921177E+03	7.902325E-17	7.955271E-20
3.923159E+03	8.007629E-17	8.061280E-20
3.925139E+03	8.093243E-17	8.147467E-20
3.927121E+03	8.125556E-17	8.179997E-20
3.929102E+03	8.205994E-17	8.260974E-20
3.931083E+03	8.314832E-17	8.370541E-20
3.933065E+03	8.408976E-17	8.465315E-20
3.935046E+03	8.472569E-17	8.529335E-20
3.937028E+03	8.506771E-17	8.563766E-20
3.939008E+03	8.507854E-17	8.564856E-20
3.940990E+03	8.580390E-17	8.637878E-20
3.942971E+03	8.597084E-17	8.654683E-20
3.944953E+03	8.592376E-17	8.649944E-20
3.946934E+03	8.633407E-17	8.691250E-20
3.948915E+03	8.646693E-17	8.704625E-20
3.950897E+03	8.676256E-17	8.734386E-20
3.952878E+03	8.719994E-17	8.778417E-20
3.954859E+03	8.756744E-17	8.815413E-20
3.956840E+03	8.796301E-17	8.855236E-20
3.958822E+03	8.846876E-17	8.906149E-20
3.960804E+03	8.915905E-17	8.975640E-20
3.962784E+03	8.997567E-17	9.057850E-20
3.964766E+03	9.071464E-17	9.132242E-20
3.966747E+03	9.205103E-17	9.266776E-20
3.968728E+03	9.331930E-17	9.394452E-20
3.970709E+03	9.438927E-17	9.502166E-20
3.972691E+03	9.535502E-17	9.599388E-20
3.974673E+03	9.540872E-17	9.604795E-20
3.976654E+03	9.692555E-17	9.757494E-20
3.978635E+03	9.801667E-17	9.867336E-20
3.980616E+03	9.745549E-17	9.810842E-20
3.982598E+03	9.812176E-17	9.877916E-20
3.984578E+03	9.938858E-17	1.000545E-19
3.986560E+03	1.001810E-16	1.008522E-19
3.988542E+03	1.007901E-16	1.014654E-19
3.990523E+03	1.011852E-16	1.018631E-19
3.992504E+03	1.019189E-16	1.026017E-19
3.994485E+03	1.025091E-16	1.031959E-19
3.996467E+03	1.035210E-16	1.042146E-19
3.998448E+03	1.056793E-16	1.063874E-19
4.000429E+03	1.055374E-16	1.062444E-19
4.002411E+03	1.062882E-16	1.070003E-19
4.004392E+03	1.058192E-16	1.065281E-19
4.006374E+03	1.070580E-16	1.077753E-19
4.008354E+03	1.068680E-16	1.075840E-19
4.010336E+03	1.063370E-16	1.070494E-19
4.012317E+03	1.059861E-16	1.066962E-19
4.014298E+03	1.064266E-16	1.071396E-19
4.016280E+03	1.065851E-16	1.072992E-19
4.018261E+03	1.058898E-16	1.065993E-19
4.020243E+03	1.060321E-16	1.067425E-19
4.022224E+03	1.052691E-16	1.059744E-19
4.024205E+03	1.052463E-16	1.059514E-19
4.026186E+03	1.049554E-16	1.056586E-19
4.028168E+03	1.047756E-16	1.054776E-19
4.030149E+03	1.038070E-16	1.045025E-19
4.032130E+03	1.028767E-16	1.035660E-19
4.034112E+03	1.019672E-16	1.026504E-19
4.036093E+03	1.013470E-16	1.020259E-19
4.038074E+03	1.006336E-16	1.013078E-19
4.040055E+03	1.002716E-16	1.009434E-19
4.042037E+03	1.002439E-16	1.009155E-19
4.044019E+03	9.888544E-17	9.954794E-20
4.045999E+03	9.846317E-17	9.912284E-20
4.047981E+03	9.687183E-17	9.752083E-20
4.049962E+03	9.592786E-17	9.657054E-20
4.051944E+03	9.456335E-17	9.519688E-20
4.053925E+03	9.396652E-17	9.459606E-20
4.055906E+03	9.306495E-17	9.368845E-20
4.057888E+03	9.169530E-17	9.230962E-20
4.059869E+03	9.151454E-17	9.212765E-20
4.061850E+03	9.055852E-17	9.116523E-20
4.063831E+03	8.900989E-17	8.960622E-20
4.065813E+03	8.841655E-17	8.900890E-20
4.067794E+03	8.751510E-17	8.810141E-20
4.069775E+03	8.642810E-17	8.700713E-20
4.071757E+03	8.591013E-17	8.648569E-20
4.073738E+03	8.639385E-17	8.697265E-20
4.075719E+03	8.653873E-17	8.711850E-20
4.077700E+03	8.654848E-17	8.712832E-20
4.079682E+03	8.675284E-17	8.733405E-20
4.081664E+03	8.727373E-17	8.785842E-20
4.083644E+03	8.781916E-17	8.840751E-20
4.085626E+03	8.851105E-17	8.910403E-20
4.087607E+03	8.879856E-17	8.939347E-20
4.089589E+03	8.967788E-17	9.027868E-20
4.091569E+03	9.034230E-17	9.094755E-20
4.093551E+03	9.128481E-17	9.189638E-20
4.095533E+03	9.223191E-17	9.284982E-20
4.097514E+03	9.248272E-17	9.310230E-20
4.099495E+03	9.317022E-17	9.379441E-20
4.101476E+03	9.388931E-17	9.451832E-20
4.103458E+03	9.461278E-17	9.524664E-20
4.105438E+03	9.554431E-17	9.618441E-20
4.107420E+03	9.674513E-17	9.739328E-20
4.109402E+03	9.746584E-17	9.811881E-20
4.111383E+03	9.807142E-17	9.872844E-20
4.113364E+03	9.823969E-17	9.889784E-20
4.115345E+03	9.882124E-17	9.948328E-20
4.117327E+03	9.910931E-17	9.977329E-20
4.119308E+03	9.965998E-17	1.003276E-19
4.121289E+03	1.001837E-16	1.008549E-19
4.123271E+03	1.002966E-16	1.009685E-19
4.125252E+03	1.005824E-16	1.012562E-19
4.127234E+03	1.011692E-16	1.018469E-19
4.129214E+03	1.010656E-16	1.017426E-19
4.131196E+03	1.007792E-16	1.014544E-19
4.133177E+03	1.006685E-16	1.013429E-19
4.135159E+03	1.002303E-16	1.009018E-19
4.137140E+03	9.987086E-17	1.005399E-19
4.139121E+03	9.998318E-17	1.006530E-19
4.141103E+03	9.933945E-17	1.000050E-19
4.143084E+03	9.891362E-17	9.957628E-20
4.145065E+03	9.859670E-17	9.925724E-20
4.147046E+03	9.801588E-17	9.867252E-20
4.149028E+03	9.796745E-17	9.862377E-20
4.151010E+03	9.761277E-17	9.826672E-20
4.152990E+03	9.706641E-17	9.771669E-20
4.154972E+03	9.638016E-17	9.702584E-20
4.156953E+03	9.586303E-17	9.650525E-20
4.158935E+03	9.522375E-17	9.586168E-20
4.160915E+03	9.447995E-17	9.511291E-20
4.162897E+03	9.427503E-17	9.490660E-20
4.164879E+03	9.403287E-17	9.466283E-20
4.166859E+03	9.308240E-17	9.370599E-20
4.168841E+03	9.232857E-17	9.294711E-20
4.170822E+03	9.160436E-17	9.221804E-20
4.172804E+03	9.111270E-17	9.172310E-20
4.174785E+03	9.084824E-17	9.145686E-20
4.176766E+03	9.040800E-17	9.101367E-20
4.178748E+03	9.050654E-17	9.111287E-20
4.180729E+03	9.065169E-17	9.125899E-20
4.182710E+03	9.038229E-17	9.098779E-20
4.184691E+03	8.983665E-17	9.043849E-20
4.186673E+03	8.956258E-17	9.016258E-20
4.188655E+03	8.929920E-17	8.989744E-20
4.190635E+03	8.946564E-17	9.006499E-20
4.192617E+03	8.945753E-17	9.005683E-20
4.194598E+03	8.971601E-17	9.031704E-20
4.196580E+03	8.980265E-17	9.040425E-20
4.198560E+03	8.971446E-17	9.031548E-20
4.200542E+03	9.016551E-17	9.076955E-20
4.202524E+03	9.065379E-17	9.126110E-20
4.204504E+03	9.084073E-17	9.144929E-20
4.206486E+03	9.105797E-17	9.166799E-20
4.208467E+03	9.151624E-17	9.212932E-20
4.210449E+03	9.245675E-17	9.307613E-20
4.212429E+03	9.320744E-17	9.383185E-20
4.214411E+03	9.340708E-17	9.403283E-20
4.216393E+03	9.342748E-17	9.405337E-20
4.218374E+03	9.378147E-17	9.440973E-20
4.220355E+03	9.421962E-17	9.485081E-20
4.222336E+03	9.439854E-17	9.503093E-20
4.224318E+03	9.454286E-17	9.517622E-20
4.226299E+03	9.511090E-17	9.574807E-20
4.228280E+03	9.499149E-17	9.562786E-20
4.230262E+03	9.489677E-17	9.553250E-20
4.232243E+03	9.524114E-17	9.587917E-20
4.234225E+03	9.558413E-17	9.622446E-20
4.236205E+03	9.568942E-17	9.633046E-20
4.238187E+03	9.584857E-17	9.649067E-20
4.240168E+03	9.567999E-17	9.632097E-20
4.242149E+03	9.528713E-17	9.592547E-20
4.244131E+03	9.545554E-17	9.609501E-20
4.246112E+03	9.498056E-17	9.561685E-20
4.248094E+03	9.450521E-17	9.513831E-20
4.250074E+03	9.382599E-17	9.445454E-20
4.252056E+03	9.318930E-17	9.381359E-20
4.254037E+03	9.271558E-17	9.333669E-20
4.256019E+03	9.237308E-17	9.299190E-20
4.258001E+03	9.190007E-17	9.251571E-20
4.259981E+03	9.119112E-17	9.180201E-20
4.261963E+03	9.050806E-17	9.111438E-20
4.263944E+03	9.000066E-17	9.060358E-20
4.265925E+03	8.933616E-17	8.993462E-20
4.267906E+03	8.852565E-17	8.911868E-20
4.269888E+03	8.783812E-17	8.842655E-20
4.271870E+03	8.733054E-17	8.791557E-20
4.273850E+03	8.694331E-17	8.752574E-20
4.275832E+03	8.669457E-17	8.727534E-20
4.277813E+03	8.626098E-17	8.683884E-20
4.279795E+03	8.593537E-17	8.651105E-20
4.281775E+03	8.537199E-17	8.594390E-20
4.283757E+03	8.461098E-17	8.517779E-20
4.285739E+03	8.404960E-17	8.461265E-20
4.287720E+03	8.373665E-17	8.429761E-20
4.289701E+03	8.324827E-17	8.380595E-20
4.291682E+03	8.287495E-17	8.343013E-20
4.293664E+03	8.216485E-17	8.271527E-20
4.295645E+03	8.173389E-17	8.228142E-20
4.297626E+03	8.180752E-17	8.235554E-20
4.299608E+03	8.166960E-17	8.221670E-20
4.301589E+03	8.114186E-17	8.168543E-20
4.303570E+03	8.076966E-17	8.131073E-20
4.305551E+03	8.082731E-17	8.136876E-20
4.307533E+03	8.058826E-17	8.112812E-20
4.309515E+03	8.012345E-17	8.066019E-20
4.311495E+03	7.985884E-17	8.039381E-20
4.313477E+03	7.968872E-17	8.022254E-20
4.315458E+03	7.954767E-17	8.008056E-20
4.317440E+03	7.920299E-17	7.973357E-20
4.319420E+03	7.892075E-17	7.944943E-20
4.321402E+03	7.846823E-17	7.899389E-20
4.323384E+03	7.814085E-17	7.866431E-20
4.325365E+03	7.769753E-17	7.821802E-20
4.327346E+03	7.748677E-17	7.800585E-20
4.329327E+03	7.757014E-17	7.808977E-20
4.331309E+03	7.745807E-17	7.797695E-20
4.333290E+03	7.686448E-17	7.737939E-20
4.335271E+03	7.657752E-17	7.709051E-20
4.337253E+03	7.631688E-17	7.682812E-20
4.339234E+03	7.580751E-17	7.631533E-20
4.341215E+03	7.502842E-17	7.553103E-20
4.343196E+03	7.455195E-17	7.505137E-20
4.345178E+03	7.431956E-17	7.481741E-20
4.347159E+03	7.382300E-17	7.431753E-20
4.349140E+03	7.280231E-17	7.329000E-20
4.351122E+03	7.171696E-17	7.219738E-20
4.353103E+03	7.069126E-17	7.116481E-20
4.355085E+03	6.994182E-17	7.041035E-20
4.357065E+03	6.910534E-17	6.956827E-20
4.359047E+03	6.833005E-17	6.878779E-20
4.361028E+03	6.771661E-17	6.817023E-20
4.363010E+03	6.669878E-17	6.714558E-20
4.364991E+03	6.593364E-17	6.637532E-20
4.366972E+03	6.523951E-17	6.567654E-20
4.368954E+03	6.485701E-17	6.529147E-20
4.370935E+03	6.453578E-17	6.496809E-20
4.372916E+03	6.413041E-17	6.456000E-20
4.374897E+03	6.360454E-17	6.403062E-20
4.376879E+03	6.332463E-17	6.374882E-20
4.378860E+03	6.274785E-17	6.316818E-20
4.380841E+03	6.227721E-17	6.269439E-20
4.382823E+03	6.217166E-17	6.258813E-20
4.384804E+03	6.241450E-17	6.283260E-20
4.386786E+03	6.259007E-17	6.300935E-20
4.388766E+03	6.267733E-17	6.309719E-20
4.390748E+03	6.284288E-17	6.326384E-20
4.392730E+03	6.326460E-17	6.368840E-20
4.394711E+03	6.395797E-17	6.438640E-20
4.396692E+03	6.428431E-17	6.471494E-20
4.398673E+03	6.483751E-17	6.527184E-20
4.400655E+03	6.537669E-17	6.581463E-20
4.402635E+03	6.621702E-17	6.666059E-20
4.404617E+03	6.710776E-17	6.755730E-20
4.406599E+03	6.800555E-17	6.846109E-20
4.408580E+03	6.902939E-17	6.949179E-20
4.410561E+03	6.999439E-17	7.046327E-20
4.412542E+03	7.112477E-17	7.160121E-20
4.414524E+03	7.228038E-17	7.276456E-20
4.416505E+03	7.333091E-17	7.382213E-20
4.418486E+03	7.450330E-17	7.500237E-20
4.420468E+03	7.548785E-17	7.599352E-20
4.422449E+03	7.658314E-17	7.709615E-20
4.424431E+03	7.780038E-17	7.832154E-20
4.426411E+03	7.886332E-17	7.939160E-20
4.428393E+03	8.028799E-17	8.082581E-20
4.430375E+03	8.199451E-17	8.254377E-20
4.432356E+03	8.320883E-17	8.376622E-20
4.434337E+03	8.426317E-17	8.482761E-20
4.436318E+03	8.539599E-17	8.596802E-20
4.438300E+03	8.667039E-17	8.725096E-20
4.440280E+03	8.798815E-17	8.857755E-20
4.442262E+03	8.930168E-17	8.989987E-20
4.444244E+03	9.052674E-17	9.113314E-20
4.446225E+03	9.173201E-17	9.234649E-20
4.448206E+03	9.282219E-17	9.344397E-20
4.450187E+03	9.415912E-17	9.478986E-20
4.452169E+03	9.551698E-17	9.615681E-20
4.454150E+03	9.664187E-17	9.728924E-20
4.456131E+03	9.781563E-17	9.847086E-20
4.458113E+03	9.887708E-17	9.953942E-20
4.460094E+03	1.000758E-16	1.007462E-19
4.462076E+03	1.010878E-16	1.017650E-19
4.464056E+03	1.020548E-16	1.027384E-19
4.466038E+03	1.031548E-16	1.038458E-19
4.468019E+03	1.041199E-16	1.048174E-19
4.470001E+03	1.050708E-16	1.057747E-19
4.471982E+03	1.058924E-16	1.066018E-19
4.473963E+03	1.063210E-16	1.070332E-19
4.475945E+03	1.068756E-16	1.075915E-19
4.477925E+03	1.073346E-16	1.080535E-19
4.479907E+03	1.075688E-16	1.082894E-19
4.481888E+03	1.077341E-16	1.084557E-19
4.483870E+03	1.080844E-16	1.088084E-19
4.485851E+03	1.085424E-16	1.092695E-19
4.487832E+03	1.085752E-16	1.093024E-19
4.489814E+03	1.085669E-16	1.092942E-19
4.491795E+03	1.087563E-16	1.094848E-19
4.493776E+03	1.090283E-16	1.097586E-19
4.495757E+03	1.090110E-16	1.097412E-19
4.497739E+03	1.088953E-16	1.096247E-19
4.499721E+03	1.089196E-16	1.096492E-19
4.501701E+03	1.092145E-16	1.099460E-19
4.503683E+03	1.094292E-16	1.101622E-19
4.505664E+03	1.092649E-16	1.099968E-19
4.507646E+03	1.091410E-16	1.098721E-19
4.509626E+03	1.090141E-16	1.097444E-19
4.511608E+03	1.087959E-16	1.095247E-19
4.513590E+03	1.088383E-16	1.095673E-19
4.515571E+03	1.088413E-16	1.095703E-19
4.517552E+03	1.088776E-16	1.096070E-19
4.519533E+03	1.089376E-16	1.096673E-19
4.521515E+03	1.092779E-16	1.100099E-19
4.523496E+03	1.095197E-16	1.102533E-19
4.525477E+03	1.095776E-16	1.103116E-19
4.527459E+03	1.097783E-16	1.105137E-19
4.529440E+03	1.101050E-16	1.108425E-19
4.531422E+03	1.104258E-16	1.111655E-19
4.533402E+03	1.107225E-16	1.114642E-19
4.535384E+03	1.109755E-16	1.117189E-19
4.537366E+03	1.113432E-16	1.120890E-19
4.539346E+03	1.118914E-16	1.126409E-19
4.541328E+03	1.126216E-16	1.133760E-19
4.543309E+03	1.130908E-16	1.138483E-19
4.545291E+03	1.133606E-16	1.141200E-19
4.547271E+03	1.137703E-16	1.145324E-19
4.549253E+03	1.141784E-16	1.149432E-19
4.551235E+03	1.147291E-16	1.154976E-19
4.553216E+03	1.152473E-16	1.160193E-19
4.555197E+03	1.156348E-16	1.164094E-19
4.557178E+03	1.159422E-16	1.167189E-19
4.559160E+03	1.164819E-16	1.172621E-19
4.561141E+03	1.171894E-16	1.179743E-19
4.563122E+03	1.176429E-16	1.184309E-19
4.565104E+03	1.178833E-16	1.186729E-19
4.567085E+03	1.183699E-16	1.191628E-19
4.569067E+03	1.188786E-16	1.196749E-19
4.571047E+03	1.193267E-16	1.201260E-19
4.573029E+03	1.198067E-16	1.206092E-19
4.575010E+03	1.202234E-16	1.210287E-19
4.576991E+03	1.206104E-16	1.214183E-19
4.578973E+03	1.211244E-16	1.219358E-19
4.580954E+03	1.215150E-16	1.223289E-19
4.582936E+03	1.217303E-16	1.225457E-19
4.584916E+03	1.217551E-16	1.225707E-19
4.586898E+03	1.218077E-16	1.226236E-19
4.588879E+03	1.221201E-16	1.229381E-19
4.590861E+03	1.221959E-16	1.230144E-19
4.592842E+03	1.220951E-16	1.229130E-19
4.594823E+03	1.218111E-16	1.226270E-19
4.596805E+03	1.217813E-16	1.225971E-19
4.598786E+03	1.216367E-16	1.224514E-19
4.600767E+03	1.214331E-16	1.222465E-19
4.602748E+03	1.210379E-16	1.218487E-19
4.604730E+03	1.206105E-16	1.214184E-19
4.606712E+03	1.201983E-16	1.210034E-19
4.608692E+03	1.198166E-16	1.206192E-19
4.610674E+03	1.194810E-16	1.202813E-19
4.612655E+03	1.191899E-16	1.199883E-19
4.614636E+03	1.187213E-16	1.195165E-19
4.616617E+03	1.184229E-16	1.192162E-19
4.618599E+03	1.181175E-16	1.189087E-19
4.620581E+03	1.179571E-16	1.187472E-19
4.622561E+03	1.178243E-16	1.186135E-19
4.624543E+03	1.177068E-16	1.184952E-19
4.626524E+03	1.176058E-16	1.183936E-19
4.628506E+03	1.174307E-16	1.182173E-19
4.630486E+03	1.170601E-16	1.178442E-19
4.632468E+03	1.168973E-16	1.176803E-19
4.634450E+03	1.170187E-16	1.178025E-19
4.636431E+03	1.173518E-16	1.181379E-19
4.638412E+03	1.176859E-16	1.184742E-19
4.640393E+03	1.180100E-16	1.188005E-19
4.642375E+03	1.183422E-16	1.191348E-19
4.644356E+03	1.187436E-16	1.195390E-19
4.646337E+03	1.191962E-16	1.199946E-19
4.648319E+03	1.197850E-16	1.205873E-19
4.650300E+03	1.202438E-16	1.210492E-19
4.652282E+03	1.209111E-16	1.217210E-19
4.654262E+03	1.216907E-16	1.225058E-19
4.656244E+03	1.224532E-16	1.232734E-19
4.658226E+03	1.233041E-16	1.241300E-19
4.660207E+03	1.242632E-16	1.250955E-19
4.662188E+03	1.252661E-16	1.261051E-19
4.664169E+03	1.261085E-16	1.269532E-19
4.666151E+03	1.271019E-16	1.279532E-19
4.668132E+03	1.281226E-16	1.289807E-19
4.670113E+03	1.290605E-16	1.299250E-19
4.672095E+03	1.299618E-16	1.308323E-19
4.674076E+03	1.310056E-16	1.318831E-19
