#wls	flux	fluxerr
1.585257E+03	1.033266E-18	4.132244E-19
1.624889E+03	1.070212E-18	4.243030E-19
1.664520E+03	1.102034E-18	4.330422E-19
1.704151E+03	1.128463E-18	4.393836E-19
1.743783E+03	1.148486E-18	4.429899E-19
1.783414E+03	1.160301E-18	4.432373E-19
1.823046E+03	1.161849E-18	4.394362E-19
1.862677E+03	1.150474E-18	4.307077E-19
1.902309E+03	1.124397E-18	4.165432E-19
1.941940E+03	1.082532E-18	3.967225E-19
1.981571E+03	1.026966E-18	3.721987E-19
2.021203E+03	9.647946E-19	3.456919E-19
2.060834E+03	9.082307E-19	3.216208E-19
2.100466E+03	8.730295E-19	3.054385E-19
2.140097E+03	8.725067E-19	3.014804E-19
2.179729E+03	9.137834E-19	3.117256E-19
2.219360E+03	9.960718E-19	3.353486E-19
2.258991E+03	1.112682E-18	3.695611E-19
2.298623E+03	1.254740E-18	4.109645E-19
2.338254E+03	1.413177E-18	4.562501E-19
2.377886E+03	1.581954E-18	5.032342E-19
2.417517E+03	1.757285E-18	5.505479E-19
2.457149E+03	1.937809E-18	5.976416E-19
2.496780E+03	2.123725E-18	6.444626E-19
2.536411E+03	2.315551E-18	6.910478E-19
2.576043E+03	2.514882E-18	7.377381E-19
2.615674E+03	2.723978E-18	7.850319E-19
2.655306E+03	2.944945E-18	8.333331E-19
2.694937E+03	3.179117E-18	8.827858E-19
2.734569E+03	3.428570E-18	9.337022E-19
2.774200E+03	3.696321E-18	9.865982E-19
2.813831E+03	3.984170E-18	1.041601E-18
2.853463E+03	4.294419E-18	1.098921E-18
2.893094E+03	4.629507E-18	1.158746E-18
2.932726E+03	4.993187E-18	1.221528E-18
2.972357E+03	5.387985E-18	1.287329E-18
2.982265E+03	5.491797E-18	1.304242E-18
2.992173E+03	5.598223E-18	1.321455E-18
3.002081E+03	5.706724E-18	1.338829E-18
3.011989E+03	5.817467E-18	1.356394E-18
3.021896E+03	5.932147E-18	1.374532E-18
3.031804E+03	6.049588E-18	1.392953E-18
3.041712E+03	6.170627E-18	1.411837E-18
3.051620E+03	6.295839E-18	1.431298E-18
3.061528E+03	6.424542E-18	1.451162E-18
3.071436E+03	6.557989E-18	1.471694E-18
3.081344E+03	6.694211E-18	1.492434E-18
3.091251E+03	6.835155E-18	1.513799E-18
3.101159E+03	6.979498E-18	1.535477E-18
3.111067E+03	7.127914E-18	1.557599E-18
3.120975E+03	7.279738E-18	1.580002E-18
3.130883E+03	7.436372E-18	1.602971E-18
3.140791E+03	7.597180E-18	1.626349E-18
3.150699E+03	7.761501E-18	1.649976E-18
3.160606E+03	7.930096E-18	1.673994E-18
3.170514E+03	8.103771E-18	1.698554E-18
3.180422E+03	8.281157E-18	1.723346E-18
3.190330E+03	8.463818E-18	1.748677E-18
3.200238E+03	8.650374E-18	1.774239E-18
3.210146E+03	8.842448E-18	1.800343E-18
3.220054E+03	9.039417E-18	1.826838E-18
3.229961E+03	9.241421E-18	1.853729E-18
3.239869E+03	9.449405E-18	1.881181E-18
3.249777E+03	9.662755E-18	1.909045E-18
3.259685E+03	9.881647E-18	1.937330E-18
3.269593E+03	1.010709E-17	1.966206E-18
3.279501E+03	1.033848E-17	1.995526E-18
3.289409E+03	1.057602E-17	2.025303E-18
3.299316E+03	1.082165E-17	2.055875E-18
3.309224E+03	1.107395E-17	2.086936E-18
3.319132E+03	1.133315E-17	2.118500E-18
3.329040E+03	1.160041E-17	2.150751E-18
3.338948E+03	1.187604E-17	2.183706E-18
3.348856E+03	1.216037E-17	2.217387E-18
3.358763E+03	1.245374E-17	2.251816E-18
3.368671E+03	1.275650E-17	2.287013E-18
3.378579E+03	1.306807E-17	2.322835E-18
3.388487E+03	1.339072E-17	2.359639E-18
3.398395E+03	1.372393E-17	2.397281E-18
3.408303E+03	1.406810E-17	2.435785E-18
3.418211E+03	1.442366E-17	2.475176E-18
3.428118E+03	1.479108E-17	2.515477E-18
3.438026E+03	1.517184E-17	2.556885E-18
3.447934E+03	1.556541E-17	2.599254E-18
3.457842E+03	1.597336E-17	2.642781E-18
3.467750E+03	1.639516E-17	2.687317E-18
3.477658E+03	1.683135E-17	2.732886E-18
3.487566E+03	1.728467E-17	2.779861E-18
3.497473E+03	1.775355E-17	2.827917E-18
3.507381E+03	1.823856E-17	2.877076E-18
3.517289E+03	1.874259E-17	2.927713E-18
3.527197E+03	1.926404E-17	2.979497E-18
3.537105E+03	1.980589E-17	3.032806E-18
3.547013E+03	2.036651E-17	3.087301E-18
3.556921E+03	2.094895E-17	3.143359E-18
3.566828E+03	2.155153E-17	3.200631E-18
3.576736E+03	2.217739E-17	3.259492E-18
3.586644E+03	2.282605E-17	3.319767E-18
3.596552E+03	2.349953E-17	3.381648E-18
3.606460E+03	2.419733E-17	3.444956E-18
3.616368E+03	2.492020E-17	3.509689E-18
3.626276E+03	2.567028E-17	3.576038E-18
3.636183E+03	2.644841E-17	3.644000E-18
3.646091E+03	2.725403E-17	3.713378E-18
3.655999E+03	2.808937E-17	3.784357E-18
3.665907E+03	2.895529E-17	3.856921E-18
3.675815E+03	2.985120E-17	3.930867E-18
3.685723E+03	3.078090E-17	4.006561E-18
3.695631E+03	3.174227E-17	4.083588E-18
3.705538E+03	3.273926E-17	4.162321E-18
3.715446E+03	3.377118E-17	4.242524E-18
3.725354E+03	3.483891E-17	4.324165E-18
3.735262E+03	3.594331E-17	4.407203E-18
3.745170E+03	3.708525E-17	4.491595E-18
3.755078E+03	3.826718E-17	4.577486E-18
3.764986E+03	3.948832E-17	4.664624E-18
3.774893E+03	4.074944E-17	4.752945E-18
3.784801E+03	4.205302E-17	4.842583E-18
3.794709E+03	4.339985E-17	4.933462E-18
3.804617E+03	4.478881E-17	5.025294E-18
3.814525E+03	4.622228E-17	5.118186E-18
3.824433E+03	4.769883E-17	5.211819E-18
3.834341E+03	4.922055E-17	5.306262E-18
3.844248E+03	5.078733E-17	5.401347E-18
3.854156E+03	5.239651E-17	5.496638E-18
3.864064E+03	5.404860E-17	5.592046E-18
3.873972E+03	5.574101E-17	5.687170E-18
3.883880E+03	5.746965E-17	5.781475E-18
3.893788E+03	5.922855E-17	5.874269E-18
3.903696E+03	6.100734E-17	5.964466E-18
3.913603E+03	6.279751E-17	6.051223E-18
3.923511E+03	6.458584E-17	6.133302E-18
3.933419E+03	6.635670E-17	6.209317E-18
3.943327E+03	6.809246E-17	6.277787E-18
3.953235E+03	6.977161E-17	6.336979E-18
3.963143E+03	7.137676E-17	6.385645E-18
3.973051E+03	7.288619E-17	6.422255E-18
3.982958E+03	7.428442E-17	6.445934E-18
3.992866E+03	7.555600E-17	6.455889E-18
4.002774E+03	7.668655E-17	6.451497E-18
4.012682E+03	7.767044E-17	6.432928E-18
4.022590E+03	7.850180E-17	6.400357E-18
4.032498E+03	7.918193E-17	6.354558E-18
4.042406E+03	7.971670E-17	6.296647E-18
4.052313E+03	8.011614E-17	6.228031E-18
4.062221E+03	8.039371E-17	6.150314E-18
4.072129E+03	8.056535E-17	6.065218E-18
4.082037E+03	8.064850E-17	5.974485E-18
4.091945E+03	8.065879E-17	5.879639E-18
4.101853E+03	8.061350E-17	5.782240E-18
4.111761E+03	8.052856E-17	5.683669E-18
4.121668E+03	8.042004E-17	5.585241E-18
4.131576E+03	8.029548E-17	5.487614E-18
4.141484E+03	8.016639E-17	5.391678E-18
4.151392E+03	8.003790E-17	5.297854E-18
4.161300E+03	7.991520E-17	5.206545E-18
4.171208E+03	7.980350E-17	5.118136E-18
4.181116E+03	7.970055E-17	5.032524E-18
4.191023E+03	7.960670E-17	4.949779E-18
4.200931E+03	7.952122E-17	4.869906E-18
4.210839E+03	7.944442E-17	4.792979E-18
4.220747E+03	7.937053E-17	4.718709E-18
4.230655E+03	7.929714E-17	4.647028E-18
4.240563E+03	7.922175E-17	4.577872E-18
4.250471E+03	7.914167E-17	4.511172E-18
4.260378E+03	7.905413E-17	4.446860E-18
4.270286E+03	7.895460E-17	4.384778E-18
4.280194E+03	7.883845E-17	4.324771E-18
4.290102E+03	7.870462E-17	4.266883E-18
4.300010E+03	7.854899E-17	4.210988E-18
4.309918E+03	7.837093E-17	4.157148E-18
4.319826E+03	7.817431E-17	4.105650E-18
4.329733E+03	7.796824E-17	4.057034E-18
4.339641E+03	7.777840E-17	4.012672E-18
4.349549E+03	7.763112E-17	3.973911E-18
4.359457E+03	7.755806E-17	3.942299E-18
4.369365E+03	7.759150E-17	3.919278E-18
4.379273E+03	7.775624E-17	3.905877E-18
4.389181E+03	7.807623E-17	3.903069E-18
4.399088E+03	7.857218E-17	3.911673E-18
4.408996E+03	7.925506E-17	3.932034E-18
4.418904E+03	8.013340E-17	3.964397E-18
4.428812E+03	8.121155E-17	4.008824E-18
4.438720E+03	8.248561E-17	4.064995E-18
4.448628E+03	8.394812E-17	4.132438E-18
4.458536E+03	8.558579E-17	4.210414E-18
4.468443E+03	8.738299E-17	4.298086E-18
4.478351E+03	8.932266E-17	4.394555E-18
4.488259E+03	9.138083E-17	4.498587E-18
4.498167E+03	9.353683E-17	4.609110E-18
4.508075E+03	9.576748E-17	4.724919E-18
4.517983E+03	9.804579E-17	4.844614E-18
4.527891E+03	1.003508E-16	4.967075E-18
4.537798E+03	1.026564E-16	5.090908E-18
4.547706E+03	1.049372E-16	5.214739E-18
4.557614E+03	1.071668E-16	5.337126E-18
4.567522E+03	1.093180E-16	5.456557E-18
4.577430E+03	1.113606E-16	5.571353E-18
4.587338E+03	1.132654E-16	5.679866E-18
4.597246E+03	1.150048E-16	5.780510E-18
4.607153E+03	1.165498E-16	5.871603E-18
4.617061E+03	1.178706E-16	5.951417E-18
4.626969E+03	1.189410E-16	6.018396E-18
4.636877E+03	1.197394E-16	6.071207E-18
4.646785E+03	1.202438E-16	6.108507E-18
4.656693E+03	1.204403E-16	6.129363E-18
4.666601E+03	1.203146E-16	6.132835E-18
4.676508E+03	1.198675E-16	6.118772E-18
4.686416E+03	1.190956E-16	6.086837E-18
4.696324E+03	1.180143E-16	6.037676E-18
4.706232E+03	1.166381E-16	5.971922E-18
4.716140E+03	1.149937E-16	5.890869E-18
4.726048E+03	1.131179E-16	5.796361E-18
4.735956E+03	1.110552E-16	5.690664E-18
4.745863E+03	1.088516E-16	5.576147E-18
4.755771E+03	1.065631E-16	5.455722E-18
4.765679E+03	1.042478E-16	5.332398E-18
4.775587E+03	1.019665E-16	5.209352E-18
4.785495E+03	9.977771E-17	5.089614E-18
4.795403E+03	9.774035E-17	4.976227E-18
4.805311E+03	9.591423E-17	4.872247E-18
4.815218E+03	9.435090E-17	4.780271E-18
4.825126E+03	9.310420E-17	4.702958E-18
4.835034E+03	9.221896E-17	4.642457E-18
4.844942E+03	9.174113E-17	4.600903E-18
4.854850E+03	9.170811E-17	4.579926E-18
4.864758E+03	9.215432E-17	4.580929E-18
4.874666E+03	9.310593E-17	4.604819E-18
4.884573E+03	9.458185E-17	4.652059E-18
4.894481E+03	9.658585E-17	4.722286E-18
4.904389E+03	9.911164E-17	4.814579E-18
4.914297E+03	1.021359E-16	4.927135E-18
4.924205E+03	1.056134E-16	5.057068E-18
4.934113E+03	1.094759E-16	5.200397E-18
4.944021E+03	1.136304E-16	5.352030E-18
4.953928E+03	1.179599E-16	5.505857E-18
4.963836E+03	1.223263E-16	5.654968E-18
4.973744E+03	1.265768E-16	5.792000E-18
4.983652E+03	1.305559E-16	5.909785E-18
4.993560E+03	1.341044E-16	6.001307E-18
5.003468E+03	1.370904E-16	6.061155E-18
5.013376E+03	1.394030E-16	6.085172E-18
5.023283E+03	1.409678E-16	6.071121E-18
5.033191E+03	1.417579E-16	6.019067E-18
5.043099E+03	1.417839E-16	5.930796E-18
5.053007E+03	1.410992E-16	5.809960E-18
5.062915E+03	1.397837E-16	5.661230E-18
5.072823E+03	1.379470E-16	5.490352E-18
5.082731E+03	1.357069E-16	5.303155E-18
5.092638E+03	1.331811E-16	5.105186E-18
5.102546E+03	1.304841E-16	4.901581E-18
5.112454E+03	1.277147E-16	4.696563E-18
5.122362E+03	1.249572E-16	4.493542E-18
5.132270E+03	1.222817E-16	4.295168E-18
5.142178E+03	1.197350E-16	4.103046E-18
5.152086E+03	1.173524E-16	3.918216E-18
5.161993E+03	1.151576E-16	3.741218E-18
5.171901E+03	1.131613E-16	3.572060E-18
5.181809E+03	1.113691E-16	3.410546E-18
5.191717E+03	1.097778E-16	3.256171E-18
5.201625E+03	1.083827E-16	3.108381E-18
5.211533E+03	1.071730E-16	2.966464E-18
5.221441E+03	1.061370E-16	2.829707E-18
5.231348E+03	1.052609E-16	2.697396E-18
5.241256E+03	1.045296E-16	2.568836E-18
5.251164E+03	1.039272E-16	2.443386E-18
5.261072E+03	1.034376E-16	2.320489E-18
5.270980E+03	1.030455E-16	2.199705E-18
5.280888E+03	1.027362E-16	2.080714E-18
5.290796E+03	1.025005E-16	1.963432E-18
5.300703E+03	1.023314E-16	1.847942E-18
5.310611E+03	1.022246E-16	1.734527E-18
5.320519E+03	1.021821E-16	1.623743E-18
5.330427E+03	1.022100E-16	1.516428E-18
5.340335E+03	1.023207E-16	1.413777E-18
5.350243E+03	1.025271E-16	1.317339E-18
5.360151E+03	1.028522E-16	1.229254E-18
5.370058E+03	1.033176E-16	1.152206E-18
5.379966E+03	1.039527E-16	1.089601E-18
5.389874E+03	1.047892E-16	1.045439E-18
5.399782E+03	1.058554E-16	1.023941E-18
5.409690E+03	1.071807E-16	1.028993E-18
5.419598E+03	1.087921E-16	1.063195E-18
5.429506E+03	1.107017E-16	1.126743E-18
5.439413E+03	1.129113E-16	1.218301E-18
5.449321E+03	1.154016E-16	1.335690E-18
5.459229E+03	1.181292E-16	1.476366E-18
5.469137E+03	1.210260E-16	1.637627E-18
5.479045E+03	1.239998E-16	1.816588E-18
5.488953E+03	1.269383E-16	2.010050E-18
5.498861E+03	1.297145E-16	2.214368E-18
5.508768E+03	1.321948E-16	2.425390E-18
5.518676E+03	1.342490E-16	2.638526E-18
5.528584E+03	1.357577E-16	2.848853E-18
5.538492E+03	1.366214E-16	3.051334E-18
5.548400E+03	1.367741E-16	3.241254E-18
5.558308E+03	1.361817E-16	3.414385E-18
5.568216E+03	1.348530E-16	3.567490E-18
5.578123E+03	1.328272E-16	3.698272E-18
5.588031E+03	1.301783E-16	3.805706E-18
5.597939E+03	1.270006E-16	3.889846E-18
5.607847E+03	1.234079E-16	3.951936E-18
5.617755E+03	1.195191E-16	3.994069E-18
5.627663E+03	1.154598E-16	4.019264E-18
5.637571E+03	1.113475E-16	4.030977E-18
5.647478E+03	1.072938E-16	4.033129E-18
5.657386E+03	1.034000E-16	4.029880E-18
5.667294E+03	9.975716E-17	4.025550E-18
5.677202E+03	9.644192E-17	4.024367E-18
5.687110E+03	9.351653E-17	4.030368E-18
5.697018E+03	9.103297E-17	4.047470E-18
5.706926E+03	8.902980E-17	4.079254E-18
5.716833E+03	8.753562E-17	4.129029E-18
5.726741E+03	8.656569E-17	4.199596E-18
5.736649E+03	8.613105E-17	4.293609E-18
5.746557E+03	8.623144E-17	4.413185E-18
5.756465E+03	8.685965E-17	4.560048E-18
5.766373E+03	8.800179E-17	4.735502E-18
5.776281E+03	8.963238E-17	4.940115E-18
5.786188E+03	9.171828E-17	5.173862E-18
5.796096E+03	9.421427E-17	5.435826E-18
5.806004E+03	9.706241E-17	5.724083E-18
5.815912E+03	1.001944E-16	6.035763E-18
5.825820E+03	1.035324E-16	6.367050E-18
5.835728E+03	1.069877E-16	6.713039E-18
5.845636E+03	1.104629E-16	7.067810E-18
5.855543E+03	1.138595E-16	7.424890E-18
5.865451E+03	1.170762E-16	7.777132E-18
5.875359E+03	1.200195E-16	8.117432E-18
5.885267E+03	1.226021E-16	8.438676E-18
5.895175E+03	1.247518E-16	8.734422E-18
5.905083E+03	1.264153E-16	8.999229E-18
5.914991E+03	1.275567E-16	9.228736E-18
5.924898E+03	1.281575E-16	9.419685E-18
5.934806E+03	1.282260E-16	9.570800E-18
5.944714E+03	1.277828E-16	9.681799E-18
5.954622E+03	1.268717E-16	9.754317E-18
5.964530E+03	1.255449E-16	9.790878E-18
5.974438E+03	1.238659E-16	9.795155E-18
5.984346E+03	1.219026E-16	9.771490E-18
5.994253E+03	1.197302E-16	9.725117E-18
6.004161E+03	1.174163E-16	9.661001E-18
6.014069E+03	1.150282E-16	9.584380E-18
6.023977E+03	1.126294E-16	9.500445E-18
6.033885E+03	1.102744E-16	9.413902E-18
6.043793E+03	1.080088E-16	9.328904E-18
6.053701E+03	1.058734E-16	9.249348E-18
6.063608E+03	1.038967E-16	9.178234E-18
6.073516E+03	1.021061E-16	9.118515E-18
6.083424E+03	1.005191E-16	9.072398E-18
6.093332E+03	9.914491E-17	9.041333E-18
6.103240E+03	9.799145E-17	9.026709E-18
6.113148E+03	9.706214E-17	9.029491E-18
6.123056E+03	9.635248E-17	9.049897E-18
6.132963E+03	9.585855E-17	9.088167E-18
6.142871E+03	9.557212E-17	9.144100E-18
6.152779E+03	9.548254E-17	9.217210E-18
6.162687E+03	9.557698E-17	9.306751E-18
6.172595E+03	9.584088E-17	9.411747E-18
6.182503E+03	9.625806E-17	9.530996E-18
6.192411E+03	9.680981E-17	9.662980E-18
6.202318E+03	9.747904E-17	9.806273E-18
6.212226E+03	9.824661E-17	9.959175E-18
6.222134E+03	9.909287E-17	1.011987E-17
6.232042E+03	9.999795E-17	1.028644E-17
6.241950E+03	1.009408E-16	1.045680E-17
6.251858E+03	1.019049E-16	1.062925E-17
6.261766E+03	1.028691E-16	1.080158E-17
6.271673E+03	1.038175E-16	1.097205E-17
6.281581E+03	1.047358E-16	1.113906E-17
6.291489E+03	1.056070E-16	1.130069E-17
6.301397E+03	1.064203E-16	1.145563E-17
6.311305E+03	1.071675E-16	1.160285E-17
6.321213E+03	1.078373E-16	1.174096E-17
6.331121E+03	1.084273E-16	1.186950E-17
6.341028E+03	1.089322E-16	1.198772E-17
6.350936E+03	1.093502E-16	1.209526E-17
6.360844E+03	1.096828E-16	1.219210E-17
6.370752E+03	1.099298E-16	1.227807E-17
6.380660E+03	1.100955E-16	1.235348E-17
6.390568E+03	1.101819E-16	1.241843E-17
6.400476E+03	1.101948E-16	1.247345E-17
6.410383E+03	1.101389E-16	1.251896E-17
6.420291E+03	1.100191E-16	1.255542E-17
6.430199E+03	1.098406E-16	1.258334E-17
6.440107E+03	1.096085E-16	1.260322E-17
6.450015E+03	1.093276E-16	1.261558E-17
6.459923E+03	1.090027E-16	1.262090E-17
6.469831E+03	1.086398E-16	1.261985E-17
6.479738E+03	1.082430E-16	1.261287E-17
6.489646E+03	1.078143E-16	1.260017E-17
6.499554E+03	1.073582E-16	1.258227E-17
6.509462E+03	1.068752E-16	1.255922E-17
6.519370E+03	1.063698E-16	1.253155E-17
6.529278E+03	1.058408E-16	1.249909E-17
6.539186E+03	1.052873E-16	1.246176E-17
6.549093E+03	1.047074E-16	1.241935E-17
6.559001E+03	1.040999E-16	1.237169E-17
6.568909E+03	1.034609E-16	1.231835E-17
6.578817E+03	1.027845E-16	1.225862E-17
6.588725E+03	1.020675E-16	1.219213E-17
6.598633E+03	1.013049E-16	1.211829E-17
6.608541E+03	1.004925E-16	1.203660E-17
6.618448E+03	9.962820E-17	1.194683E-17
6.628356E+03	9.870659E-17	1.184836E-17
6.638264E+03	9.773143E-17	1.174164E-17
6.648172E+03	9.669930E-17	1.162631E-17
6.658080E+03	9.561786E-17	1.150330E-17
6.667988E+03	9.448926E-17	1.137293E-17
6.677896E+03	9.332231E-17	1.123630E-17
6.687803E+03	9.212645E-17	1.109459E-17
6.697711E+03	9.091276E-17	1.094920E-17
6.707619E+03	8.969404E-17	1.080172E-17
6.717527E+03	8.848455E-17	1.065393E-17
6.727435E+03	8.730090E-17	1.050789E-17
6.737343E+03	8.615795E-17	1.036543E-17
6.747251E+03	8.507379E-17	1.022878E-17
6.757158E+03	8.406412E-17	1.009987E-17
6.767066E+03	8.314757E-17	9.980957E-18
6.776974E+03	8.233988E-17	9.873946E-18
6.786882E+03	8.165911E-17	9.780999E-18
6.796790E+03	8.112159E-17	9.704049E-18
6.806698E+03	8.074163E-17	9.644766E-18
6.816606E+03	8.053539E-17	9.605012E-18
6.826513E+03	8.051794E-17	9.586495E-18
6.836421E+03	8.069957E-17	9.590322E-18
6.846329E+03	8.109318E-17	9.617880E-18
6.856237E+03	8.170779E-17	9.670067E-18
6.866145E+03	8.255505E-17	9.748061E-18
6.876053E+03	8.364098E-17	9.852339E-18
6.885961E+03	8.497139E-17	9.983325E-18
6.895868E+03	8.654845E-17	1.014099E-17
6.905776E+03	8.837645E-17	1.032551E-17
6.915684E+03	9.045135E-17	1.053608E-17
6.925592E+03	9.277051E-17	1.077202E-17
6.935500E+03	9.532665E-17	1.103212E-17
6.945408E+03	9.810915E-17	1.131473E-17
6.955316E+03	1.011023E-16	1.161766E-17
6.965223E+03	1.042903E-16	1.193868E-17
6.975131E+03	1.076528E-16	1.227504E-17
6.985039E+03	1.111667E-16	1.262375E-17
6.994947E+03	1.148053E-16	1.298138E-17
7.004855E+03	1.185422E-16	1.334460E-17
7.014763E+03	1.223525E-16	1.371027E-17
7.024671E+03	1.262075E-16	1.407493E-17
7.034578E+03	1.300816E-16	1.443545E-17
7.044486E+03	1.339530E-16	1.478920E-17
7.054394E+03	1.377953E-16	1.513309E-17
7.064302E+03	1.415934E-16	1.546536E-17
7.074210E+03	1.453257E-16	1.578353E-17
7.084118E+03	1.489801E-16	1.608623E-17
7.094026E+03	1.525443E-16	1.637212E-17
7.103933E+03	1.560056E-16	1.663985E-17
7.113841E+03	1.593579E-16	1.688878E-17
7.123749E+03	1.625904E-16	1.711787E-17
7.133657E+03	1.656954E-16	1.732638E-17
7.143565E+03	1.686643E-16	1.751354E-17
7.153473E+03	1.714872E-16	1.767849E-17
7.163381E+03	1.741519E-16	1.782019E-17
7.173288E+03	1.766440E-16	1.793736E-17
7.183196E+03	1.789426E-16	1.802822E-17
7.193104E+03	1.810267E-16	1.809101E-17
7.203012E+03	1.828752E-16	1.812405E-17
7.212920E+03	1.844585E-16	1.812494E-17
7.222828E+03	1.857478E-16	1.809147E-17
7.232736E+03	1.867137E-16	1.802150E-17
7.242643E+03	1.873270E-16	1.791305E-17
7.252551E+03	1.875603E-16	1.776442E-17
7.262459E+03	1.873857E-16	1.757405E-17
7.272367E+03	1.867830E-16	1.734120E-17
7.282275E+03	1.857404E-16	1.706602E-17
7.292183E+03	1.842462E-16	1.674878E-17
7.302091E+03	1.823021E-16	1.639103E-17
7.311998E+03	1.799081E-16	1.599420E-17
7.321906E+03	1.770842E-16	1.556153E-17
7.331814E+03	1.738460E-16	1.509583E-17
7.341722E+03	1.702283E-16	1.460156E-17
7.351630E+03	1.662613E-16	1.408265E-17
7.361538E+03	1.619896E-16	1.354415E-17
7.371446E+03	1.574575E-16	1.299092E-17
7.381353E+03	1.527210E-16	1.242861E-17
7.391261E+03	1.478281E-16	1.186199E-17
7.401169E+03	1.428334E-16	1.129615E-17
7.411077E+03	1.377963E-16	1.073632E-17
7.420985E+03	1.327651E-16	1.018660E-17
7.430893E+03	1.277909E-16	9.651065E-18
7.440801E+03	1.229236E-16	9.133480E-18
7.450708E+03	1.182073E-16	8.636895E-18
7.460616E+03	1.136801E-16	8.163719E-18
7.470524E+03	1.093797E-16	7.716131E-18
7.480432E+03	1.053360E-16	7.295538E-18
7.490340E+03	1.015779E-16	6.903117E-18
7.500248E+03	9.812842E-17	6.539466E-18
7.510156E+03	9.500636E-17	6.204765E-18
7.520063E+03	9.222512E-17	5.898713E-18
7.529971E+03	8.979749E-17	5.620865E-18
7.539879E+03	8.772961E-17	5.370268E-18
7.549787E+03	8.602899E-17	5.145980E-18
7.559695E+03	8.469404E-17	4.946453E-18
7.569603E+03	8.372502E-17	4.770217E-18
7.579511E+03	8.311784E-17	4.615524E-18
7.589418E+03	8.286570E-17	4.480468E-18
7.599326E+03	8.295920E-17	4.363013E-18
7.609234E+03	8.338479E-17	4.260931E-18
7.619142E+03	8.413047E-17	4.172122E-18
7.629050E+03	8.517598E-17	4.094129E-18
7.638958E+03	8.650351E-17	4.024705E-18
7.648866E+03	8.808641E-17	3.961287E-18
7.658773E+03	8.989863E-17	3.901480E-18
7.668681E+03	9.190870E-17	3.842800E-18
7.678589E+03	9.408078E-17	3.782774E-18
7.688497E+03	9.637457E-17	3.718966E-18
