#wls	flux	fluxerr
1.585257E+03	1.056923E-18	4.196716E-19
1.624889E+03	1.094549E-18	4.308591E-19
1.664520E+03	1.126879E-18	4.396504E-19
1.704151E+03	1.153637E-18	4.459870E-19
1.743783E+03	1.173785E-18	4.495252E-19
1.783414E+03	1.185483E-18	4.496342E-19
1.823046E+03	1.186636E-18	4.456180E-19
1.862677E+03	1.174745E-18	4.366655E-19
1.902309E+03	1.147603E-18	4.221160E-19
1.941940E+03	1.104334E-18	4.018338E-19
1.981571E+03	1.047275E-18	3.768596E-19
2.021203E+03	9.833233E-19	3.498246E-19
2.060834E+03	9.252837E-19	3.253284E-19
2.100466E+03	8.888788E-19	3.087705E-19
2.140097E+03	8.879380E-19	3.046283E-19
2.179729E+03	9.293573E-19	3.147805E-19
2.219360E+03	1.012574E-18	3.384753E-19
2.258991E+03	1.130595E-18	3.728331E-19
2.298623E+03	1.274175E-18	4.143521E-19
2.338254E+03	1.434685E-18	4.598861E-19
2.377886E+03	1.605404E-18	5.070429E-19
2.417517E+03	1.782966E-18	5.545960E-19
2.457149E+03	1.965498E-18	6.018375E-19
2.496780E+03	2.153465E-18	6.487983E-19
2.536411E+03	2.348064E-18	6.957149E-19
2.576043E+03	2.550331E-18	7.427516E-19
2.615674E+03	2.762167E-18	7.902966E-19
2.655306E+03	2.986401E-18	8.389571E-19
2.694937E+03	3.223970E-18	8.887568E-19
2.734569E+03	3.477776E-18	9.402266E-19
2.774200E+03	3.749496E-18	9.935068E-19
2.813831E+03	4.042200E-18	1.049058E-18
2.853463E+03	4.356620E-18	1.106676E-18
2.893094E+03	4.697069E-18	1.167021E-18
2.932726E+03	5.065037E-18	1.229970E-18
2.972357E+03	5.463850E-18	1.295795E-18
2.982265E+03	5.569243E-18	1.312838E-18
2.992173E+03	5.676593E-18	1.330019E-18
3.002081E+03	5.785938E-18	1.347339E-18
3.011989E+03	5.898054E-18	1.364966E-18
3.021896E+03	6.013428E-18	1.383002E-18
3.031804E+03	6.132100E-18	1.401439E-18
3.041712E+03	6.254296E-18	1.420314E-18
3.051620E+03	6.380589E-18	1.439741E-18
3.061528E+03	6.510282E-18	1.459543E-18
3.071436E+03	6.643976E-18	1.479839E-18
3.081344E+03	6.781648E-18	1.500606E-18
3.091251E+03	6.922610E-18	1.521673E-18
3.101159E+03	7.068192E-18	1.543317E-18
3.111067E+03	7.217051E-18	1.565225E-18
3.120975E+03	7.369873E-18	1.587528E-18
3.130883E+03	7.527387E-18	1.610365E-18
3.140791E+03	7.688232E-18	1.633424E-18
3.150699E+03	7.853147E-18	1.656846E-18
3.160606E+03	8.022919E-18	1.680777E-18
3.170514E+03	8.196165E-18	1.704906E-18
3.180422E+03	8.374429E-18	1.729537E-18
3.190330E+03	8.557070E-18	1.754514E-18
3.200238E+03	8.744191E-18	1.779838E-18
3.210146E+03	8.936670E-18	1.805665E-18
3.220054E+03	9.133878E-18	1.831844E-18
3.229961E+03	9.335948E-18	1.858381E-18
3.239869E+03	9.543825E-18	1.885438E-18
3.249777E+03	9.757694E-18	1.913026E-18
3.259685E+03	9.976938E-18	1.940996E-18
3.269593E+03	1.020174E-17	1.969359E-18
3.279501E+03	1.043313E-17	1.998286E-18
3.289409E+03	1.067135E-17	2.027793E-18
3.299316E+03	1.091665E-17	2.057896E-18
3.309224E+03	1.116930E-17	2.088611E-18
3.319132E+03	1.142870E-17	2.119796E-18
3.329040E+03	1.169689E-17	2.151792E-18
3.338948E+03	1.197242E-17	2.184297E-18
3.348856E+03	1.225741E-17	2.217656E-18
3.358763E+03	1.255038E-17	2.251566E-18
3.368671E+03	1.285353E-17	2.286378E-18
3.378579E+03	1.316632E-17	2.321952E-18
3.388487E+03	1.349010E-17	2.358477E-18
3.398395E+03	1.382434E-17	2.395815E-18
3.408303E+03	1.416947E-17	2.433990E-18
3.418211E+03	1.452693E-17	2.473197E-18
3.428118E+03	1.489620E-17	2.513294E-18
3.438026E+03	1.527878E-17	2.554477E-18
3.447934E+03	1.567519E-17	2.596773E-18
3.457842E+03	1.608600E-17	2.640211E-18
3.467750E+03	1.651072E-17	2.684646E-18
3.477658E+03	1.695095E-17	2.730276E-18
3.487566E+03	1.740838E-17	2.777301E-18
3.497473E+03	1.788150E-17	2.825401E-18
3.507381E+03	1.837313E-17	2.874950E-18
3.517289E+03	1.888285E-17	2.925799E-18
3.527197E+03	1.941135E-17	2.977976E-18
3.537105E+03	1.996051E-17	3.031678E-18
3.547013E+03	2.052991E-17	3.086755E-18
3.556921E+03	2.112029E-17	3.143226E-18
3.566828E+03	2.173361E-17	3.201286E-18
3.576736E+03	2.237065E-17	3.260950E-18
3.586644E+03	2.303225E-17	3.322233E-18
3.596552E+03	2.371797E-17	3.384967E-18
3.606460E+03	2.443116E-17	3.449519E-18
3.616368E+03	2.517014E-17	3.515535E-18
3.626276E+03	2.593838E-17	3.583384E-18
3.636183E+03	2.673417E-17	3.652705E-18
3.646091E+03	2.756108E-17	3.723864E-18
3.655999E+03	2.842007E-17	3.796856E-18
3.665907E+03	2.931074E-17	3.871490E-18
3.675815E+03	3.023401E-17	3.947756E-18
3.685723E+03	3.119227E-17	4.025824E-18
3.695631E+03	3.218502E-17	4.105484E-18
3.705538E+03	3.321474E-17	4.186908E-18
3.715446E+03	3.428238E-17	4.270059E-18
3.725354E+03	3.538892E-17	4.354904E-18
3.735262E+03	3.653533E-17	4.441404E-18
3.745170E+03	3.772251E-17	4.529505E-18
3.755078E+03	3.895132E-17	4.619148E-18
3.764986E+03	4.022264E-17	4.710271E-18
3.774893E+03	4.153718E-17	4.802790E-18
3.784801E+03	4.289729E-17	4.896809E-18
3.794709E+03	4.430187E-17	4.992027E-18
3.804617E+03	4.575306E-17	5.088514E-18
3.814525E+03	4.724733E-17	5.185713E-18
3.824433E+03	4.879006E-17	5.284050E-18
3.834341E+03	5.037696E-17	5.382892E-18
3.844248E+03	5.200877E-17	5.482165E-18
3.854156E+03	5.368170E-17	5.581321E-18
3.864064E+03	5.539488E-17	5.680141E-18
3.873972E+03	5.714437E-17	5.778100E-18
3.883880E+03	5.892471E-17	5.874555E-18
3.893788E+03	6.072679E-17	5.968532E-18
3.903696E+03	6.254385E-17	6.059343E-18
3.913603E+03	6.436507E-17	6.145957E-18
3.923511E+03	6.617781E-17	6.227233E-18
3.933419E+03	6.796774E-17	6.301947E-18
3.943327E+03	6.971693E-17	6.368630E-18
3.953235E+03	7.141089E-17	6.426219E-18
3.963143E+03	7.303284E-17	6.473534E-18
3.973051E+03	7.456643E-17	6.509517E-18
3.982958E+03	7.599663E-17	6.533316E-18
3.992866E+03	7.730815E-17	6.544131E-18
4.002774E+03	7.849297E-17	6.541848E-18
4.012682E+03	7.954192E-17	6.526293E-18
4.022590E+03	8.045168E-17	6.497810E-18
4.032498E+03	8.122498E-17	6.457232E-18
4.042406E+03	8.186605E-17	6.405490E-18
4.052313E+03	8.237793E-17	6.343395E-18
4.062221E+03	8.277339E-17	6.272470E-18
4.072129E+03	8.306512E-17	6.194164E-18
4.082037E+03	8.326719E-17	6.109961E-18
4.091945E+03	8.339232E-17	6.021170E-18
4.101853E+03	8.345749E-17	5.929340E-18
4.111761E+03	8.347472E-17	5.835590E-18
4.121668E+03	8.345503E-17	5.740912E-18
4.131576E+03	8.341409E-17	5.646561E-18
4.141484E+03	8.335770E-17	5.553066E-18
4.151392E+03	8.329412E-17	5.461092E-18
4.161300E+03	8.322784E-17	5.371025E-18
4.171208E+03	8.316757E-17	5.283505E-18
4.181116E+03	8.311271E-17	5.198556E-18
4.191023E+03	8.306527E-17	5.116365E-18
4.200931E+03	8.302604E-17	5.037045E-18
4.210839E+03	8.299295E-17	4.960535E-18
4.220747E+03	8.296498E-17	4.886844E-18
4.230655E+03	8.293844E-17	4.815833E-18
4.240563E+03	8.291253E-17	4.747542E-18
4.250471E+03	8.288238E-17	4.681782E-18
4.260378E+03	8.284405E-17	4.618431E-18
4.270286E+03	8.278981E-17	4.557165E-18
4.280194E+03	8.271785E-17	4.498001E-18
4.290102E+03	8.261763E-17	4.440483E-18
4.300010E+03	8.248643E-17	4.384588E-18
4.309918E+03	8.231450E-17	4.329919E-18
4.319826E+03	8.209527E-17	4.276250E-18
4.329733E+03	8.183202E-17	4.223861E-18
4.339641E+03	8.155797E-17	4.174538E-18
4.349549E+03	8.131221E-17	4.130294E-18
4.359457E+03	8.112962E-17	4.092812E-18
4.369365E+03	8.104313E-17	4.063544E-18
4.379273E+03	8.108157E-17	4.043698E-18
4.389181E+03	8.126779E-17	4.034177E-18
4.399088E+03	8.162254E-17	4.035783E-18
4.408996E+03	8.215584E-17	4.048798E-18
4.418904E+03	8.287973E-17	4.073627E-18
4.428812E+03	8.379708E-17	4.110244E-18
4.438720E+03	8.490742E-17	4.158484E-18
4.448628E+03	8.620304E-17	4.217852E-18
4.458536E+03	8.767805E-17	4.287962E-18
4.468443E+03	8.931864E-17	4.368056E-18
4.478351E+03	9.110800E-17	4.457241E-18
4.488259E+03	9.302824E-17	4.554577E-18
4.498167E+03	9.506074E-17	4.659090E-18
4.508075E+03	9.718093E-17	4.769509E-18
4.517983E+03	9.936701E-17	4.884688E-18
4.527891E+03	1.015947E-16	5.003350E-18
4.537798E+03	1.038368E-16	5.124056E-18
4.547706E+03	1.060667E-16	5.245371E-18
4.557614E+03	1.082564E-16	5.365789E-18
4.567522E+03	1.103789E-16	5.483807E-18
4.577430E+03	1.124026E-16	5.597693E-18
4.587338E+03	1.142955E-16	5.705663E-18
4.597246E+03	1.160303E-16	5.806146E-18
4.607153E+03	1.175731E-16	5.897231E-18
4.617061E+03	1.188961E-16	5.977298E-18
4.626969E+03	1.199717E-16	6.044720E-18
4.636877E+03	1.207749E-16	6.097998E-18
4.646785E+03	1.212826E-16	6.135735E-18
4.656693E+03	1.214815E-16	6.157032E-18
4.666601E+03	1.213575E-16	6.160958E-18
4.676508E+03	1.209099E-16	6.147287E-18
4.686416E+03	1.201389E-16	6.115861E-18
4.696324E+03	1.190600E-16	6.067328E-18
4.706232E+03	1.176921E-16	6.002551E-18
4.716140E+03	1.160651E-16	5.922968E-18
4.726048E+03	1.142168E-16	5.830469E-18
4.735956E+03	1.121957E-16	5.727513E-18
4.745863E+03	1.100499E-16	5.616576E-18
4.755771E+03	1.078372E-16	5.500631E-18
4.765679E+03	1.056166E-16	5.382728E-18
4.775587E+03	1.034480E-16	5.265978E-18
4.785495E+03	1.013928E-16	5.153537E-18
4.795403E+03	9.950760E-17	5.048306E-18
4.805311E+03	9.784902E-17	4.953160E-18
4.815218E+03	9.646993E-17	4.870737E-18
4.825126E+03	9.541519E-17	4.803222E-18
4.835034E+03	9.473007E-17	4.752764E-18
4.844942E+03	9.445218E-17	4.721060E-18
4.854850E+03	9.461350E-17	4.709457E-18
4.864758E+03	9.523968E-17	4.718912E-18
4.874666E+03	9.635024E-17	4.750001E-18
4.884573E+03	9.795334E-17	4.802670E-18
4.894481E+03	1.000489E-16	4.876388E-18
4.904389E+03	1.026238E-16	4.969938E-18
4.914297E+03	1.056456E-16	5.081122E-18
4.924205E+03	1.090706E-16	5.207195E-18
4.934113E+03	1.128289E-16	5.344166E-18
4.944021E+03	1.168342E-16	5.487338E-18
4.953928E+03	1.209790E-16	5.631139E-18
4.963836E+03	1.251412E-16	5.769458E-18
4.973744E+03	1.291835E-16	5.895720E-18
4.983652E+03	1.329695E-16	6.003638E-18
4.993560E+03	1.363604E-16	6.087127E-18
5.003468E+03	1.392367E-16	6.141274E-18
5.013376E+03	1.414999E-16	6.162414E-18
5.023283E+03	1.430839E-16	6.148565E-18
5.033191E+03	1.439557E-16	6.099393E-18
5.043099E+03	1.441166E-16	6.016174E-18
5.053007E+03	1.436035E-16	5.901750E-18
5.062915E+03	1.424856E-16	5.760267E-18
5.072823E+03	1.408467E-16	5.596347E-18
5.082731E+03	1.387905E-16	5.415246E-18
5.092638E+03	1.364192E-16	5.221921E-18
5.102546E+03	1.338378E-16	5.021187E-18
5.112454E+03	1.311437E-16	4.817295E-18
5.122362E+03	1.284177E-16	4.613615E-18
5.132270E+03	1.257337E-16	4.413025E-18
5.142178E+03	1.231465E-16	4.217500E-18
5.152086E+03	1.206971E-16	4.028370E-18
5.161993E+03	1.184189E-16	3.846553E-18
5.171901E+03	1.163284E-16	3.672299E-18
5.181809E+03	1.144388E-16	3.505678E-18
5.191717E+03	1.127501E-16	3.346307E-18
5.201625E+03	1.112597E-16	3.193696E-18
5.211533E+03	1.099626E-16	3.047300E-18
5.221441E+03	1.088438E-16	2.906302E-18
5.231348E+03	1.078926E-16	2.770055E-18
5.241256E+03	1.070924E-16	2.637811E-18
5.251164E+03	1.064285E-16	2.508943E-18
5.261072E+03	1.058823E-16	2.382813E-18
5.270980E+03	1.054387E-16	2.258969E-18
5.280888E+03	1.050870E-16	2.137152E-18
5.290796E+03	1.048128E-16	2.017142E-18
5.300703E+03	1.046114E-16	1.899040E-18
5.310611E+03	1.044783E-16	1.783086E-18
5.320519E+03	1.044150E-16	1.669791E-18
5.330427E+03	1.044263E-16	1.559923E-18
5.340335E+03	1.045259E-16	1.454642E-18
5.350243E+03	1.047260E-16	1.355414E-18
5.360151E+03	1.050498E-16	1.264300E-18
5.370058E+03	1.055202E-16	1.183908E-18
5.379966E+03	1.061650E-16	1.117546E-18
5.389874E+03	1.070131E-16	1.069150E-18
5.399782E+03	1.080931E-16	1.043014E-18
5.409690E+03	1.094308E-16	1.043187E-18
5.419598E+03	1.110443E-16	1.072586E-18
5.429506E+03	1.129463E-16	1.131822E-18
5.439413E+03	1.151300E-16	1.219614E-18
5.449321E+03	1.175745E-16	1.333735E-18
5.459229E+03	1.202328E-16	1.471452E-18
5.469137E+03	1.230366E-16	1.629858E-18
5.479045E+03	1.258970E-16	1.805914E-18
5.488953E+03	1.287101E-16	1.996380E-18
5.498861E+03	1.313566E-16	2.197635E-18
5.508768E+03	1.337138E-16	2.405678E-18
5.518676E+03	1.356633E-16	2.616163E-18
5.528584E+03	1.370963E-16	2.824471E-18
5.538492E+03	1.379254E-16	3.025970E-18
5.548400E+03	1.380845E-16	3.216127E-18
5.558308E+03	1.375468E-16	3.391084E-18
5.568216E+03	1.363109E-16	3.547539E-18
5.578123E+03	1.344127E-16	3.683259E-18
5.588031E+03	1.319160E-16	3.797050E-18
5.597939E+03	1.289101E-16	3.888884E-18
5.607847E+03	1.254985E-16	3.959715E-18
5.617755E+03	1.217981E-16	4.011559E-18
5.627663E+03	1.179294E-16	4.047233E-18
5.637571E+03	1.140082E-16	4.070082E-18
5.647478E+03	1.101449E-16	4.083923E-18
5.657386E+03	1.064412E-16	4.092864E-18
5.667294E+03	1.029852E-16	4.101050E-18
5.677202E+03	9.985188E-17	4.112577E-18
5.687110E+03	9.710289E-17	4.131381E-18
5.697018E+03	9.478825E-17	4.161229E-18
5.706926E+03	9.294382E-17	4.205506E-18
5.716833E+03	9.159592E-17	4.267340E-18
5.726741E+03	9.076285E-17	4.349597E-18
5.736649E+03	9.045410E-17	4.454793E-18
5.746557E+03	9.066721E-17	4.584867E-18
5.756465E+03	9.139869E-17	4.741671E-18
5.766373E+03	9.263279E-17	4.926361E-18
5.776281E+03	9.434635E-17	5.139586E-18
5.786188E+03	9.650680E-17	5.381321E-18
5.796096E+03	9.907137E-17	5.650769E-18
5.806004E+03	1.019863E-16	5.946254E-18
5.815912E+03	1.051865E-16	6.265116E-18
5.825820E+03	1.085958E-16	6.603699E-18
5.835728E+03	1.121296E-16	6.957410E-18
5.845636E+03	1.156916E-16	7.320483E-18
5.855543E+03	1.191844E-16	7.686623E-18
5.865451E+03	1.225087E-16	8.048909E-18
5.875359E+03	1.255683E-16	8.400182E-18
5.885267E+03	1.282736E-16	8.733273E-18
5.895175E+03	1.305506E-16	9.041673E-18
5.905083E+03	1.323396E-16	9.319590E-18
5.914991E+03	1.335985E-16	9.562215E-18
5.924898E+03	1.343069E-16	9.766173E-18
5.934806E+03	1.344669E-16	9.929688E-18
5.944714E+03	1.340966E-16	1.005224E-17
5.954622E+03	1.332335E-16	1.013490E-17
5.964530E+03	1.319291E-16	1.018002E-17
5.974438E+03	1.302441E-16	1.019091E-17
5.984346E+03	1.282510E-16	1.017216E-17
5.994253E+03	1.260172E-16	1.012824E-17
6.004161E+03	1.236200E-16	1.006475E-17
6.014069E+03	1.211238E-16	9.986568E-18
6.023977E+03	1.185960E-16	9.899089E-18
6.033885E+03	1.160926E-16	9.807029E-18
6.043793E+03	1.136636E-16	9.714821E-18
6.053701E+03	1.113511E-16	9.626412E-18
6.063608E+03	1.091894E-16	9.545219E-18
6.073516E+03	1.072039E-16	9.474002E-18
6.083424E+03	1.054159E-16	9.415229E-18
6.093332E+03	1.038376E-16	9.370634E-18
6.103240E+03	1.024786E-16	9.341720E-18
6.113148E+03	1.013409E-16	9.329314E-18
6.123056E+03	1.004249E-16	9.334105E-18
6.132963E+03	9.972512E-17	9.356183E-18
6.142871E+03	9.923416E-17	9.395441E-18
6.152779E+03	9.894232E-17	9.451503E-18
6.162687E+03	9.883755E-17	9.523716E-18
6.172595E+03	9.890737E-17	9.611334E-18
6.182503E+03	9.913418E-17	9.713047E-18
6.192411E+03	9.950414E-17	9.827851E-18
6.202318E+03	9.999882E-17	9.954228E-18
6.212226E+03	1.005989E-16	1.009050E-17
6.222134E+03	1.012888E-16	1.023531E-17
6.232042E+03	1.020489E-16	1.038680E-17
6.241950E+03	1.028609E-16	1.054324E-17
6.251858E+03	1.037069E-16	1.070283E-17
6.261766E+03	1.045712E-16	1.086399E-17
6.271673E+03	1.054350E-16	1.102472E-17
6.281581E+03	1.062858E-16	1.118368E-17
6.291489E+03	1.071088E-16	1.133921E-17
6.301397E+03	1.078934E-16	1.149011E-17
6.311305E+03	1.086277E-16	1.163500E-17
6.321213E+03	1.093035E-16	1.177282E-17
6.331121E+03	1.099152E-16	1.190286E-17
6.341028E+03	1.104565E-16	1.202428E-17
6.350936E+03	1.109272E-16	1.213691E-17
6.360844E+03	1.113227E-16	1.224010E-17
6.370752E+03	1.116444E-16	1.233385E-17
6.380660E+03	1.118933E-16	1.241814E-17
6.390568E+03	1.120702E-16	1.249293E-17
6.400476E+03	1.121826E-16	1.255895E-17
6.410383E+03	1.122298E-16	1.261601E-17
6.420291E+03	1.122189E-16	1.266483E-17
6.430199E+03	1.121531E-16	1.270567E-17
6.440107E+03	1.120385E-16	1.273916E-17
6.450015E+03	1.118798E-16	1.276577E-17
6.459923E+03	1.116797E-16	1.278578E-17
6.469831E+03	1.114454E-16	1.279996E-17
6.479738E+03	1.111776E-16	1.280835E-17
6.489646E+03	1.108834E-16	1.281177E-17
6.499554E+03	1.105605E-16	1.280991E-17
6.509462E+03	1.102131E-16	1.280326E-17
6.519370E+03	1.098414E-16	1.279182E-17
6.529278E+03	1.094442E-16	1.277547E-17
6.539186E+03	1.090197E-16	1.275396E-17
6.549093E+03	1.085663E-16	1.272711E-17
6.559001E+03	1.080768E-16	1.269409E-17
6.568909E+03	1.075510E-16	1.265486E-17
6.578817E+03	1.069808E-16	1.260845E-17
6.588725E+03	1.063619E-16	1.255439E-17
6.598633E+03	1.056894E-16	1.249205E-17
6.608541E+03	1.049583E-16	1.242089E-17
6.618448E+03	1.041665E-16	1.234064E-17
6.628356E+03	1.033100E-16	1.225085E-17
6.638264E+03	1.023896E-16	1.215164E-17
6.648172E+03	1.014065E-16	1.204315E-17
6.658080E+03	1.003641E-16	1.192583E-17
6.667988E+03	9.926772E-17	1.180036E-17
6.677896E+03	9.812530E-17	1.166772E-17
6.687803E+03	9.694825E-17	1.152931E-17
6.697711E+03	9.574699E-17	1.138642E-17
6.707619E+03	9.453669E-17	1.124093E-17
6.717527E+03	9.333126E-17	1.109454E-17
6.727435E+03	9.214854E-17	1.094942E-17
6.737343E+03	9.100733E-17	1.080786E-17
6.747251E+03	8.992293E-17	1.067174E-17
6.757158E+03	8.891512E-17	1.054342E-17
6.767066E+03	8.800354E-17	1.042526E-17
6.776974E+03	8.720517E-17	1.031928E-17
6.786882E+03	8.653773E-17	1.022757E-17
6.796790E+03	8.601965E-17	1.015229E-17
6.806698E+03	8.566606E-17	1.009515E-17
6.816606E+03	8.549354E-17	1.005805E-17
6.826513E+03	8.551528E-17	1.004243E-17
6.836421E+03	8.574567E-17	1.004985E-17
6.846329E+03	8.619667E-17	1.008155E-17
6.856237E+03	8.687749E-17	1.013844E-17
6.866145E+03	8.779711E-17	1.022133E-17
6.876053E+03	8.896542E-17	1.033113E-17
6.885961E+03	9.038522E-17	1.046788E-17
6.895868E+03	9.206113E-17	1.063183E-17
6.905776E+03	9.399261E-17	1.082256E-17
6.915684E+03	9.617943E-17	1.103969E-17
6.925592E+03	9.861694E-17	1.128231E-17
6.935500E+03	1.012958E-16	1.154895E-17
6.945408E+03	1.042066E-16	1.183812E-17
6.955316E+03	1.073334E-16	1.214758E-17
6.965223E+03	1.106601E-16	1.247510E-17
6.975131E+03	1.141629E-16	1.281758E-17
6.985039E+03	1.178236E-16	1.317255E-17
6.994947E+03	1.216118E-16	1.353623E-17
7.004855E+03	1.255042E-16	1.390567E-17
7.014763E+03	1.294716E-16	1.427729E-17
7.024671E+03	1.334845E-16	1.464754E-17
7.034578E+03	1.375200E-16	1.501366E-17
7.044486E+03	1.415489E-16	1.537223E-17
7.054394E+03	1.455496E-16	1.572072E-17
7.064302E+03	1.494987E-16	1.605650E-17
7.074210E+03	1.533800E-16	1.637771E-17
7.084118E+03	1.571748E-16	1.668232E-17
7.094026E+03	1.608720E-16	1.696914E-17
7.103933E+03	1.644547E-16	1.723639E-17
7.113841E+03	1.679151E-16	1.748332E-17
7.123749E+03	1.712437E-16	1.770905E-17
7.133657E+03	1.744287E-16	1.791247E-17
7.143565E+03	1.774629E-16	1.809299E-17
7.153473E+03	1.803297E-16	1.824913E-17
7.163381E+03	1.830216E-16	1.838037E-17
7.173288E+03	1.855203E-16	1.848518E-17
7.183196E+03	1.878050E-16	1.856181E-17
7.193104E+03	1.898574E-16	1.860888E-17
7.203012E+03	1.916539E-16	1.862458E-17
7.212920E+03	1.931628E-16	1.860640E-17
7.222828E+03	1.943625E-16	1.855295E-17
7.232736E+03	1.952190E-16	1.846175E-17
7.242643E+03	1.957075E-16	1.833137E-17
7.252551E+03	1.958022E-16	1.816038E-17
7.262459E+03	1.954770E-16	1.794746E-17
7.272367E+03	1.947130E-16	1.769211E-17
7.282275E+03	1.934966E-16	1.739437E-17
7.292183E+03	1.918208E-16	1.705502E-17
7.302091E+03	1.896854E-16	1.667544E-17
7.311998E+03	1.870977E-16	1.625780E-17
7.321906E+03	1.840702E-16	1.580465E-17
7.331814E+03	1.806288E-16	1.531971E-17
7.341722E+03	1.768014E-16	1.480678E-17
7.351630E+03	1.726282E-16	1.427062E-17
7.361538E+03	1.681500E-16	1.371587E-17
7.371446E+03	1.634155E-16	1.314767E-17
7.381353E+03	1.584794E-16	1.257146E-17
7.391261E+03	1.533918E-16	1.199207E-17
7.401169E+03	1.482136E-16	1.141497E-17
7.411077E+03	1.429984E-16	1.084480E-17
7.420985E+03	1.378029E-16	1.028616E-17
7.430893E+03	1.326754E-16	9.742788E-18
7.440801E+03	1.276691E-16	9.218532E-18
7.450708E+03	1.228272E-16	8.716248E-18
7.460616E+03	1.181908E-16	8.238428E-18
7.470524E+03	1.137979E-16	7.787114E-18
7.480432E+03	1.096782E-16	7.363594E-18
7.490340E+03	1.058600E-16	6.968868E-18
7.500248E+03	1.023640E-16	6.603266E-18
7.510156E+03	9.920910E-17	6.266885E-18
7.520063E+03	9.640890E-17	5.959342E-18
7.529971E+03	9.397150E-17	5.679821E-18
7.539879E+03	9.190435E-17	5.427388E-18
7.549787E+03	9.021040E-17	5.200773E-18
7.559695E+03	8.888956E-17	4.998482E-18
7.569603E+03	8.793912E-17	4.818843E-18
7.579511E+03	8.735366E-17	4.660019E-18
7.589418E+03	8.712537E-17	4.520046E-18
7.599326E+03	8.724381E-17	4.396838E-18
7.609234E+03	8.769608E-17	4.288218E-18
7.619142E+03	8.846771E-17	4.191982E-18
7.629050E+03	8.953694E-17	4.105644E-18
7.638958E+03	9.088441E-17	4.026931E-18
7.648866E+03	9.248284E-17	3.953327E-18
7.658773E+03	9.430394E-17	3.882417E-18
7.668681E+03	9.631085E-17	3.811604E-18
7.678589E+03	9.846861E-17	3.738582E-18
7.688497E+03	1.007339E-16	3.660947E-18
