#wls	flux	fluxerr
1.585257E+03	8.396412E-19	3.380322E-19
1.624889E+03	8.709542E-19	3.476543E-19
1.664520E+03	8.986865E-19	3.555926E-19
1.704151E+03	9.220092E-19	3.615541E-19
1.743783E+03	9.405623E-19	3.654411E-19
1.783414E+03	9.528557E-19	3.667280E-19
1.823046E+03	9.568249E-19	3.646940E-19
1.862677E+03	9.503684E-19	3.586379E-19
1.902309E+03	9.318891E-19	3.480820E-19
1.941940E+03	9.001898E-19	3.327258E-19
1.981571E+03	8.569999E-19	3.133618E-19
2.021203E+03	8.079554E-19	2.921726E-19
2.060834E+03	7.633649E-19	2.729237E-19
2.100466E+03	7.362794E-19	2.601802E-19
2.140097E+03	7.382637E-19	2.577669E-19
2.179729E+03	7.756173E-19	2.674876E-19
2.219360E+03	8.478202E-19	2.887036E-19
2.258991E+03	9.495013E-19	3.191414E-19
2.298623E+03	1.072862E-18	3.558049E-19
2.338254E+03	1.210420E-18	3.959320E-19
2.377886E+03	1.356329E-18	4.374176E-19
2.417517E+03	1.507538E-18	4.791485E-19
2.457149E+03	1.662268E-18	5.204644E-19
2.496780E+03	1.820228E-18	5.611968E-19
2.536411E+03	1.982250E-18	6.015210E-19
2.576043E+03	2.149421E-18	6.416728E-19
2.615674E+03	2.322779E-18	6.818491E-19
2.655306E+03	2.504509E-18	7.225566E-19
2.694937E+03	2.695958E-18	7.640174E-19
2.734569E+03	2.898888E-18	8.065384E-19
2.774200E+03	3.115604E-18	8.505359E-19
2.813831E+03	3.347747E-18	8.961956E-19
2.853463E+03	3.597986E-18	9.439344E-19
2.893094E+03	3.869315E-18	9.941904E-19
2.932726E+03	4.164038E-18	1.047159E-18
2.972357E+03	4.485241E-18	1.103170E-18
2.982265E+03	4.569913E-18	1.117648E-18
2.992173E+03	4.656911E-18	1.132441E-18
3.002081E+03	4.745717E-18	1.147414E-18
3.011989E+03	4.837087E-18	1.162739E-18
3.021896E+03	4.930223E-18	1.178213E-18
3.031804E+03	5.027519E-18	1.194399E-18
3.041712E+03	5.126812E-18	1.210766E-18
3.051620E+03	5.229836E-18	1.227712E-18
3.061528E+03	5.336583E-18	1.245220E-18
3.071436E+03	5.445727E-18	1.262963E-18
3.081344E+03	5.558567E-18	1.281232E-18
3.091251E+03	5.675123E-18	1.300014E-18
3.101159E+03	5.794727E-18	1.319140E-18
3.111067E+03	5.917379E-18	1.338596E-18
3.120975E+03	6.043814E-18	1.358533E-18
3.130883E+03	6.173343E-18	1.378780E-18
3.140791E+03	6.305995E-18	1.399330E-18
3.150699E+03	6.442555E-18	1.420341E-18
3.160606E+03	6.582327E-18	1.441643E-18
3.170514E+03	6.726136E-18	1.463400E-18
3.180422E+03	6.873273E-18	1.485440E-18
3.190330E+03	7.023792E-18	1.507761E-18
3.200238E+03	7.178585E-18	1.530535E-18
3.210146E+03	7.336913E-18	1.553589E-18
3.220054E+03	7.499709E-18	1.577100E-18
3.229961E+03	7.666227E-18	1.600893E-18
3.239869E+03	7.836548E-18	1.624967E-18
3.249777E+03	8.011671E-18	1.649510E-18
3.259685E+03	8.190817E-18	1.674341E-18
3.269593E+03	8.375028E-18	1.699653E-18
3.279501E+03	8.563506E-18	1.725262E-18
3.289409E+03	8.757335E-18	1.751364E-18
3.299316E+03	8.955704E-18	1.777775E-18
3.309224E+03	9.158738E-18	1.804497E-18
3.319132E+03	9.367589E-18	1.831735E-18
3.329040E+03	9.582446E-18	1.859498E-18
3.338948E+03	9.801397E-18	1.887391E-18
3.348856E+03	1.002668E-17	1.915822E-18
3.358763E+03	1.025851E-17	1.944803E-18
3.368671E+03	1.049600E-17	1.974136E-18
3.378579E+03	1.074043E-17	2.004036E-18
3.388487E+03	1.098972E-17	2.034086E-18
3.398395E+03	1.124752E-17	2.064933E-18
3.408303E+03	1.151173E-17	2.096156E-18
3.418211E+03	1.178254E-17	2.127760E-18
3.428118E+03	1.206013E-17	2.159746E-18
3.438026E+03	1.234722E-17	2.192568E-18
3.447934E+03	1.264028E-17	2.225561E-18
3.457842E+03	1.294205E-17	2.259175E-18
3.467750E+03	1.325281E-17	2.293421E-18
3.477658E+03	1.357010E-17	2.327835E-18
3.487566E+03	1.389822E-17	2.363118E-18
3.497473E+03	1.423327E-17	2.398566E-18
3.507381E+03	1.457972E-17	2.434893E-18
3.517289E+03	1.493350E-17	2.471375E-18
3.527197E+03	1.529774E-17	2.508492E-18
3.537105E+03	1.567272E-17	2.546244E-18
3.547013E+03	1.605715E-17	2.584375E-18
3.556921E+03	1.645122E-17	2.622874E-18
3.566828E+03	1.685672E-17	2.661979E-18
3.576736E+03	1.727225E-17	2.701424E-18
3.586644E+03	1.769964E-17	2.741447E-18
3.596552E+03	1.813742E-17	2.781771E-18
3.606460E+03	1.858572E-17	2.822370E-18
3.616368E+03	1.904642E-17	2.863482E-18
3.626276E+03	1.951970E-17	2.905082E-18
3.636183E+03	2.000207E-17	2.946598E-18
3.646091E+03	2.049909E-17	2.988806E-18
3.655999E+03	2.100524E-17	3.030848E-18
3.665907E+03	2.152432E-17	3.073225E-18
3.675815E+03	2.205638E-17	3.115893E-18
3.685723E+03	2.259738E-17	3.158233E-18
3.695631E+03	2.315328E-17	3.201034E-18
3.705538E+03	2.371781E-17	3.243378E-18
3.715446E+03	2.429491E-17	3.285764E-18
3.725354E+03	2.488441E-17	3.328118E-18
3.735262E+03	2.548160E-17	3.369774E-18
3.745170E+03	2.609275E-17	3.411520E-18
3.755078E+03	2.671068E-17	3.452375E-18
3.764986E+03	2.733937E-17	3.492829E-18
3.774893E+03	2.797590E-17	3.532472E-18
3.784801E+03	2.862192E-17	3.571489E-18
3.794709E+03	2.927425E-17	3.609455E-18
3.804617E+03	2.993193E-17	3.646237E-18
3.814525E+03	3.059647E-17	3.682006E-18
3.824433E+03	3.126425E-17	3.716316E-18
3.834341E+03	3.193397E-17	3.749016E-18
3.844248E+03	3.260705E-17	3.780276E-18
3.854156E+03	3.327662E-17	3.809313E-18
3.864064E+03	3.394940E-17	3.836917E-18
3.873972E+03	3.461556E-17	3.862000E-18
3.883880E+03	3.527902E-17	3.885039E-18
3.893788E+03	3.593535E-17	3.905587E-18
3.903696E+03	3.658577E-17	3.923826E-18
3.913603E+03	3.722278E-17	3.939010E-18
3.923511E+03	3.785067E-17	3.951671E-18
3.933419E+03	3.846502E-17	3.961415E-18
3.943327E+03	3.906756E-17	3.968503E-18
3.953235E+03	3.965119E-17	3.972300E-18
3.963143E+03	4.022119E-17	3.973435E-18
3.973051E+03	4.077401E-17	3.971650E-18
3.982958E+03	4.131271E-17	3.967338E-18
3.992866E+03	4.183117E-17	3.960012E-18
4.002774E+03	4.233637E-17	3.950438E-18
4.012682E+03	4.282606E-17	3.938498E-18
4.022590E+03	4.330153E-17	3.924405E-18
4.032498E+03	4.376429E-17	3.908388E-18
4.042406E+03	4.421616E-17	3.890697E-18
4.052313E+03	4.466255E-17	3.871882E-18
4.062221E+03	4.509919E-17	3.851642E-18
4.072129E+03	4.553504E-17	3.830812E-18
4.082037E+03	4.596948E-17	3.809386E-18
4.091945E+03	4.640179E-17	3.787360E-18
4.101853E+03	4.684126E-17	3.765538E-18
4.111761E+03	4.728712E-17	3.743882E-18
4.121668E+03	4.774523E-17	3.722883E-18
4.131576E+03	4.821103E-17	3.702202E-18
4.141484E+03	4.868990E-17	3.682282E-18
4.151392E+03	4.918356E-17	3.663267E-18
4.161300E+03	4.969340E-17	3.645276E-18
4.171208E+03	5.022048E-17	3.628404E-18
4.181116E+03	5.076903E-17	3.612969E-18
4.191023E+03	5.133240E-17	3.598515E-18
4.200931E+03	5.191402E-17	3.585316E-18
4.210839E+03	5.251347E-17	3.573374E-18
4.220747E+03	5.312991E-17	3.562672E-18
4.230655E+03	5.376203E-17	3.553171E-18
4.240563E+03	5.440814E-17	3.544816E-18
4.250471E+03	5.506596E-17	3.537527E-18
4.260378E+03	5.572922E-17	3.530986E-18
4.270286E+03	5.640206E-17	3.525549E-18
4.280194E+03	5.707362E-17	3.520639E-18
4.290102E+03	5.774370E-17	3.516365E-18
4.300010E+03	5.840833E-17	3.512612E-18
4.309918E+03	5.906389E-17	3.509299E-18
4.319826E+03	5.970804E-17	3.506428E-18
4.329733E+03	6.033700E-17	3.503924E-18
4.339641E+03	6.096170E-17	3.502562E-18
4.349549E+03	6.158018E-17	3.502356E-18
4.359457E+03	6.220332E-17	3.504044E-18
4.369365E+03	6.283473E-17	3.507930E-18
4.379273E+03	6.348998E-17	3.514976E-18
4.389181E+03	6.416844E-17	3.525195E-18
4.399088E+03	6.487688E-17	3.538931E-18
4.408996E+03	6.562946E-17	3.556900E-18
4.418904E+03	6.642347E-17	3.578887E-18
4.428812E+03	6.726709E-17	3.605266E-18
4.438720E+03	6.816335E-17	3.636126E-18
4.448628E+03	6.910988E-17	3.671264E-18
4.458536E+03	7.011098E-17	3.710836E-18
4.468443E+03	7.116102E-17	3.754470E-18
4.478351E+03	7.226124E-17	3.802156E-18
4.488259E+03	7.340671E-17	3.853561E-18
4.498167E+03	7.458631E-17	3.908026E-18
4.508075E+03	7.579578E-17	3.965253E-18
4.517983E+03	7.702466E-17	4.024615E-18
4.527891E+03	7.825596E-17	4.085146E-18
4.537798E+03	7.948027E-17	4.146270E-18
4.547706E+03	8.067746E-17	4.206846E-18
4.557614E+03	8.183563E-17	4.266158E-18
4.567522E+03	8.293274E-17	4.322958E-18
4.577430E+03	8.395613E-17	4.376477E-18
4.587338E+03	8.488387E-17	4.425458E-18
4.597246E+03	8.570464E-17	4.469194E-18
4.607153E+03	8.640387E-17	4.506802E-18
4.617061E+03	8.695919E-17	4.536990E-18
4.626969E+03	8.737569E-17	4.559900E-18
4.636877E+03	8.763693E-17	4.574552E-18
4.646785E+03	8.774006E-17	4.580679E-18
4.656693E+03	8.769099E-17	4.578478E-18
4.666601E+03	8.748986E-17	4.567853E-18
4.676508E+03	8.715067E-17	4.549443E-18
4.686416E+03	8.668133E-17	4.523577E-18
4.696324E+03	8.610284E-17	4.491281E-18
4.706232E+03	8.542921E-17	4.453227E-18
4.716140E+03	8.468637E-17	4.410715E-18
4.726048E+03	8.388742E-17	4.364387E-18
4.735956E+03	8.306986E-17	4.316160E-18
4.745863E+03	8.224813E-17	4.266750E-18
4.755771E+03	8.144609E-17	4.217367E-18
4.765679E+03	8.069125E-17	4.169401E-18
4.775587E+03	8.000149E-17	4.123738E-18
4.785495E+03	7.939802E-17	4.081424E-18
4.795403E+03	7.890462E-17	4.043622E-18
4.805311E+03	7.853503E-17	4.010963E-18
4.815218E+03	7.830940E-17	3.984383E-18
4.825126E+03	7.823752E-17	3.964266E-18
4.835034E+03	7.833097E-17	3.951066E-18
4.844942E+03	7.860310E-17	3.945300E-18
4.854850E+03	7.905615E-17	3.946897E-18
4.864758E+03	7.969354E-17	3.955823E-18
4.874666E+03	8.051941E-17	3.972057E-18
4.884573E+03	8.152999E-17	3.995160E-18
4.894481E+03	8.270833E-17	4.024038E-18
4.904389E+03	8.404989E-17	4.058196E-18
4.914297E+03	8.553608E-17	4.096453E-18
4.924205E+03	8.713358E-17	4.136940E-18
4.934113E+03	8.882085E-17	4.178380E-18
4.944021E+03	9.056188E-17	4.218848E-18
4.953928E+03	9.231069E-17	4.256016E-18
4.963836E+03	9.402187E-17	4.287668E-18
4.973744E+03	9.565258E-17	4.311801E-18
4.983652E+03	9.715021E-17	4.326073E-18
4.993560E+03	9.846942E-17	4.328597E-18
5.003468E+03	9.957518E-17	4.318060E-18
5.013376E+03	1.004299E-16	4.293150E-18
5.023283E+03	1.010109E-16	4.253315E-18
5.033191E+03	1.013120E-16	4.198782E-18
5.043099E+03	1.013284E-16	4.129888E-18
5.053007E+03	1.010716E-16	4.047684E-18
5.062915E+03	1.005685E-16	3.953830E-18
5.072823E+03	9.984831E-17	3.850040E-18
5.082731E+03	9.893575E-17	3.737796E-18
5.092638E+03	9.787836E-17	3.619384E-18
5.102546E+03	9.671351E-17	3.496592E-18
5.112454E+03	9.546696E-17	3.370695E-18
5.122362E+03	9.418519E-17	3.243610E-18
5.132270E+03	9.288148E-17	3.115989E-18
5.142178E+03	9.158798E-17	2.989060E-18
5.152086E+03	9.031813E-17	2.863344E-18
5.161993E+03	8.909027E-17	2.739465E-18
5.171901E+03	8.790989E-17	2.617597E-18
5.181809E+03	8.678844E-17	2.498066E-18
5.191717E+03	8.572193E-17	2.380723E-18
5.201625E+03	8.472602E-17	2.265969E-18
5.211533E+03	8.378949E-17	2.153452E-18
5.221441E+03	8.292523E-17	2.043473E-18
5.231348E+03	8.212047E-17	1.935688E-18
5.241256E+03	8.138269E-17	1.830286E-18
5.251164E+03	8.070659E-17	1.727178E-18
5.261072E+03	8.009515E-17	1.626508E-18
5.270980E+03	7.954354E-17	1.528314E-18
5.280888E+03	7.905532E-17	1.432884E-18
5.290796E+03	7.862706E-17	1.340474E-18
5.300703E+03	7.826015E-17	1.251570E-18
5.310611E+03	7.796091E-17	1.166912E-18
5.320519E+03	7.773277E-17	1.087413E-18
5.330427E+03	7.757244E-17	1.014197E-18
5.340335E+03	7.749628E-17	9.490090E-19
5.350243E+03	7.749809E-17	8.936987E-19
5.360151E+03	7.759440E-17	8.507586E-19
5.370058E+03	7.777823E-17	8.226078E-19
5.379966E+03	7.806057E-17	8.117269E-19
5.389874E+03	7.844341E-17	8.198858E-19
5.399782E+03	7.892284E-17	8.474307E-19
5.409690E+03	7.949674E-17	8.933202E-19
5.419598E+03	8.016447E-17	9.558440E-19
5.429506E+03	8.091873E-17	1.032977E-18
5.439413E+03	8.174366E-17	1.122659E-18
5.449321E+03	8.261978E-17	1.222994E-18
5.459229E+03	8.352300E-17	1.332256E-18
5.469137E+03	8.441804E-17	1.448715E-18
5.479045E+03	8.526107E-17	1.570562E-18
5.488953E+03	8.600980E-17	1.695992E-18
5.498861E+03	8.662527E-17	1.823191E-18
5.508768E+03	8.706464E-17	1.950158E-18
5.518676E+03	8.728340E-17	2.074704E-18
5.528584E+03	8.725023E-17	2.194784E-18
5.538492E+03	8.693272E-17	2.308196E-18
5.548400E+03	8.631247E-17	2.412987E-18
5.558308E+03	8.539139E-17	2.507726E-18
5.568216E+03	8.416337E-17	2.590774E-18
5.578123E+03	8.266060E-17	2.661717E-18
5.588031E+03	8.090676E-17	2.720058E-18
5.597939E+03	7.894445E-17	2.766121E-18
5.607847E+03	7.682755E-17	2.800903E-18
5.617755E+03	7.461038E-17	2.825744E-18
5.627663E+03	7.234524E-17	2.842227E-18
5.637571E+03	7.009039E-17	2.852486E-18
5.647478E+03	6.789340E-17	2.858550E-18
5.657386E+03	6.580372E-17	2.862803E-18
5.667294E+03	6.386105E-17	2.867471E-18
5.677202E+03	6.209571E-17	2.874578E-18
5.687110E+03	6.053769E-17	2.886294E-18
5.697018E+03	5.920746E-17	2.904489E-18
5.706926E+03	5.811706E-17	2.930718E-18
5.716833E+03	5.727885E-17	2.966608E-18
5.726741E+03	5.669486E-17	3.013300E-18
5.736649E+03	5.636829E-17	3.071999E-18
5.746557E+03	5.629554E-17	3.143537E-18
5.756465E+03	5.646637E-17	3.228335E-18
5.766373E+03	5.687188E-17	3.326829E-18
5.776281E+03	5.749362E-17	3.438822E-18
5.786188E+03	5.831682E-17	3.564235E-18
5.796096E+03	5.931081E-17	3.701907E-18
5.806004E+03	6.044515E-17	3.850522E-18
5.815912E+03	6.169046E-17	4.008669E-18
5.825820E+03	6.300072E-17	4.173673E-18
5.835728E+03	6.433178E-17	4.342752E-18
5.845636E+03	6.564282E-17	4.513124E-18
5.855543E+03	6.687948E-17	4.680857E-18
5.865451E+03	6.799748E-17	4.842472E-18
5.875359E+03	6.894911E-17	4.994029E-18
5.885267E+03	6.969853E-17	5.132239E-18
5.895175E+03	7.021420E-17	5.253978E-18
5.905083E+03	7.047393E-17	5.356694E-18
5.914991E+03	7.046279E-17	5.438307E-18
5.924898E+03	7.018745E-17	5.498381E-18
5.934806E+03	6.964872E-17	5.536061E-18
5.944714E+03	6.887865E-17	5.553034E-18
5.954622E+03	6.790120E-17	5.550489E-18
5.964530E+03	6.676120E-17	5.531470E-18
5.974438E+03	6.549511E-17	5.498529E-18
5.984346E+03	6.414902E-17	5.455208E-18
5.994253E+03	6.277591E-17	5.405851E-18
6.004161E+03	6.141478E-17	5.353816E-18
6.014069E+03	6.011145E-17	5.303228E-18
6.023977E+03	5.890469E-17	5.257772E-18
6.033885E+03	5.782634E-17	5.220665E-18
6.043793E+03	5.690947E-17	5.195354E-18
6.053701E+03	5.618288E-17	5.185017E-18
6.063608E+03	5.566304E-17	5.191782E-18
6.073516E+03	5.536885E-17	5.218056E-18
6.083424E+03	5.532175E-17	5.266542E-18
6.093332E+03	5.552975E-17	5.338718E-18
6.103240E+03	5.600712E-17	5.436676E-18
6.113148E+03	5.676357E-17	5.562095E-18
6.123056E+03	5.780670E-17	5.716457E-18
6.132963E+03	5.914202E-17	5.901041E-18
6.142871E+03	6.076928E-17	6.116539E-18
6.152779E+03	6.269364E-17	6.364167E-18
6.162687E+03	6.490357E-17	6.643426E-18
6.172595E+03	6.739113E-17	6.954124E-18
6.182503E+03	7.013808E-17	7.294946E-18
6.192411E+03	7.311804E-17	7.663641E-18
6.202318E+03	7.629131E-17	8.056443E-18
6.212226E+03	7.961904E-17	8.469538E-18
6.222134E+03	8.303682E-17	8.896231E-18
6.232042E+03	8.648178E-17	9.329793E-18
6.241950E+03	8.987919E-17	9.762011E-18
6.251858E+03	9.314858E-17	1.018383E-17
6.261766E+03	9.620768E-17	1.058577E-17
6.271673E+03	9.897675E-17	1.095841E-17
6.281581E+03	1.013784E-16	1.129243E-17
6.291489E+03	1.033623E-16	1.158130E-17
6.301397E+03	1.048738E-16	1.181797E-17
6.311305E+03	1.058977E-16	1.199973E-17
6.321213E+03	1.064179E-16	1.212377E-17
6.331121E+03	1.064530E-16	1.219128E-17
6.341028E+03	1.060344E-16	1.220498E-17
6.350936E+03	1.052072E-16	1.216932E-17
6.360844E+03	1.040267E-16	1.209007E-17
6.370752E+03	1.025541E-16	1.197384E-17
6.380660E+03	1.008524E-16	1.182760E-17
6.390568E+03	9.897754E-17	1.165767E-17
6.400476E+03	9.699598E-17	1.147173E-17
6.410383E+03	9.494751E-17	1.127442E-17
6.420291E+03	9.288355E-17	1.107188E-17
6.430199E+03	9.082819E-17	1.086707E-17
6.440107E+03	8.881611E-17	1.066424E-17
6.450015E+03	8.685614E-17	1.046462E-17
6.459923E+03	8.496414E-17	1.027026E-17
6.469831E+03	8.315013E-17	1.008255E-17
6.479738E+03	8.140680E-17	9.900785E-18
6.489646E+03	7.973650E-17	9.725395E-18
6.499554E+03	7.813450E-17	9.555957E-18
6.509462E+03	7.659477E-17	9.391873E-18
6.519370E+03	7.511000E-17	9.232377E-18
6.529278E+03	7.367252E-17	9.076641E-18
6.539186E+03	7.227457E-17	8.923814E-18
6.549093E+03	7.090848E-17	8.773044E-18
6.559001E+03	6.956671E-17	8.623484E-18
6.568909E+03	6.824220E-17	8.474336E-18
6.578817E+03	6.692831E-17	8.324850E-18
6.588725E+03	6.561890E-17	8.174328E-18
6.598633E+03	6.430840E-17	8.022139E-18
6.608541E+03	6.299198E-17	7.867742E-18
6.618448E+03	6.166574E-17	7.710709E-18
6.628356E+03	6.032687E-17	7.550747E-18
6.638264E+03	5.897383E-17	7.387722E-18
6.648172E+03	5.760658E-17	7.221689E-18
6.658080E+03	5.622383E-17	7.052547E-18
6.667988E+03	5.483476E-17	6.881513E-18
6.677896E+03	5.344149E-17	6.708918E-18
6.687803E+03	5.205083E-17	6.535683E-18
6.697711E+03	5.067110E-17	6.362921E-18
6.707619E+03	4.931202E-17	6.191920E-18
6.717527E+03	4.798438E-17	6.024098E-18
6.727435E+03	4.669976E-17	5.860974E-18
6.737343E+03	4.546792E-17	5.703827E-18
6.747251E+03	4.430590E-17	5.554846E-18
6.757158E+03	4.322352E-17	5.415302E-18
6.767066E+03	4.223272E-17	5.286720E-18
6.776974E+03	4.134490E-17	5.170548E-18
6.786882E+03	4.057085E-17	5.068138E-18
6.796790E+03	3.992065E-17	4.980739E-18
6.806698E+03	3.940362E-17	4.909485E-18
6.816606E+03	3.902837E-17	4.855405E-18
6.826513E+03	3.880279E-17	4.819417E-18
6.836421E+03	3.873215E-17	4.802094E-18
6.846329E+03	3.882719E-17	4.804664E-18
6.856237E+03	3.909200E-17	4.827511E-18
6.866145E+03	3.953210E-17	4.871173E-18
6.876053E+03	4.015233E-17	4.936077E-18
6.885961E+03	4.095665E-17	5.022526E-18
6.895868E+03	4.194794E-17	5.130664E-18
6.905776E+03	4.312764E-17	5.260437E-18
6.915684E+03	4.449543E-17	5.411556E-18
6.925592E+03	4.604871E-17	5.583440E-18
6.935500E+03	4.778231E-17	5.775180E-18
6.945408E+03	4.968809E-17	5.985499E-18
6.955316E+03	5.175471E-17	6.212734E-18
6.965223E+03	5.396477E-17	6.454498E-18
6.975131E+03	5.630629E-17	6.709065E-18
6.985039E+03	5.875646E-17	6.973433E-18
6.994947E+03	6.129339E-17	7.244740E-18
7.004855E+03	6.389449E-17	7.520073E-18
7.014763E+03	6.653748E-17	7.796596E-18
7.024671E+03	6.919800E-17	8.071271E-18
7.034578E+03	7.186554E-17	8.342716E-18
7.044486E+03	7.452271E-17	8.608777E-18
7.054394E+03	7.715632E-17	8.867825E-18
7.064302E+03	7.977053E-17	9.120246E-18
7.074210E+03	8.236304E-17	9.365680E-18
7.084118E+03	8.493591E-17	9.604276E-18
7.094026E+03	8.750935E-17	9.838211E-18
7.103933E+03	9.008886E-17	1.006797E-17
7.113841E+03	9.270131E-17	1.029640E-17
7.123749E+03	9.535535E-17	1.052427E-17
7.133657E+03	9.807377E-17	1.075383E-17
7.143565E+03	1.008782E-16	1.098718E-17
7.153473E+03	1.037703E-16	1.122419E-17
7.163381E+03	1.067630E-16	1.146586E-17
7.173288E+03	1.098568E-16	1.171191E-17
7.183196E+03	1.130443E-16	1.196113E-17
7.193104E+03	1.163083E-16	1.221136E-17
7.203012E+03	1.196217E-16	1.245941E-17
7.212920E+03	1.229397E-16	1.270036E-17
7.222828E+03	1.262264E-16	1.293038E-17
7.232736E+03	1.294096E-16	1.314202E-17
7.242643E+03	1.324357E-16	1.333004E-17
7.252551E+03	1.352172E-16	1.348597E-17
7.262459E+03	1.376918E-16	1.360419E-17
7.272367E+03	1.397685E-16	1.367653E-17
7.282275E+03	1.413819E-16	1.369771E-17
7.292183E+03	1.424677E-16	1.366279E-17
7.302091E+03	1.429647E-16	1.356750E-17
7.311998E+03	1.428497E-16	1.341138E-17
7.321906E+03	1.420925E-16	1.319352E-17
7.331814E+03	1.406813E-16	1.291485E-17
7.341722E+03	1.386380E-16	1.257950E-17
7.351630E+03	1.360018E-16	1.219310E-17
7.361538E+03	1.328055E-16	1.176060E-17
7.371446E+03	1.291110E-16	1.128944E-17
7.381353E+03	1.250043E-16	1.078889E-17
7.391261E+03	1.205573E-16	1.026665E-17
7.401169E+03	1.158457E-16	9.730499E-18
7.411077E+03	1.109654E-16	9.189527E-18
7.420985E+03	1.059840E-16	8.650093E-18
7.430893E+03	1.009829E-16	8.119343E-18
7.440801E+03	9.602487E-17	7.602579E-18
7.450708E+03	9.118109E-17	7.105422E-18
7.460616E+03	8.649266E-17	6.630838E-18
7.470524E+03	8.201199E-17	6.182421E-18
7.480432E+03	7.776360E-17	5.761410E-18
7.490340E+03	7.377802E-17	5.369334E-18
7.500248E+03	7.006954E-17	5.006375E-18
7.510156E+03	6.665760E-17	4.672975E-18
7.520063E+03	6.354059E-17	4.367994E-18
7.529971E+03	6.072372E-17	4.090732E-18
7.539879E+03	5.820457E-17	3.839929E-18
7.549787E+03	5.597813E-17	3.614138E-18
7.559695E+03	5.403741E-17	3.411792E-18
7.569603E+03	5.237124E-17	3.231073E-18
7.579511E+03	5.097368E-17	3.070519E-18
7.589418E+03	4.983526E-17	2.928466E-18
7.599326E+03	4.894632E-17	2.803270E-18
7.609234E+03	4.829438E-17	2.693164E-18
7.619142E+03	4.787243E-17	2.596729E-18
7.629050E+03	4.767054E-17	2.512412E-18
7.638958E+03	4.767869E-17	2.438695E-18
7.648866E+03	4.788663E-17	2.374090E-18
7.658773E+03	4.828105E-17	2.317008E-18
7.668681E+03	4.885360E-17	2.266154E-18
7.678589E+03	4.959262E-17	2.220125E-18
7.688497E+03	5.048573E-17	2.177543E-18
