#wls	flux	fluxerr
1.585257E+03	8.950855E-19	3.590323E-19
1.624889E+03	9.282004E-19	3.691420E-19
1.664520E+03	9.574229E-19	3.774353E-19
1.704151E+03	9.820347E-19	3.836664E-19
1.743783E+03	1.001319E-18	3.876023E-19
1.783414E+03	1.014031E-18	3.888185E-19
1.823046E+03	1.017811E-18	3.864890E-19
1.862677E+03	1.010435E-18	3.798757E-19
1.902309E+03	9.902259E-19	3.684818E-19
1.941940E+03	9.560979E-19	3.520581E-19
1.981571E+03	9.097453E-19	3.313905E-19
2.021203E+03	8.571787E-19	3.087976E-19
2.060834E+03	8.094789E-19	2.883105E-19
2.100466E+03	7.803348E-19	2.746971E-19
2.140097E+03	7.819704E-19	2.719837E-19
2.179729E+03	8.211311E-19	2.820988E-19
2.219360E+03	8.970825E-19	3.043050E-19
2.258991E+03	1.004228E-18	3.362357E-19
2.298623E+03	1.133960E-18	3.746151E-19
2.338254E+03	1.278648E-18	4.166301E-19
2.377886E+03	1.432349E-18	4.601407E-19
2.417517E+03	1.591207E-18	5.037725E-19
2.457149E+03	1.753757E-18	5.469667E-19
2.496780E+03	1.919708E-18	5.895507E-19
2.536411E+03	2.089939E-18	6.317102E-19
2.576043E+03	2.264940E-18	6.734968E-19
2.615674E+03	2.447046E-18	7.154904E-19
2.655306E+03	2.637537E-18	7.579204E-19
2.694937E+03	2.838111E-18	8.011045E-19
2.734569E+03	3.050554E-18	8.453482E-19
2.774200E+03	3.277192E-18	8.910638E-19
2.813831E+03	3.519653E-18	9.384242E-19
2.853463E+03	3.781091E-18	9.879629E-19
2.893094E+03	4.063531E-18	1.039852E-18
2.932726E+03	4.370241E-18	1.094526E-18
2.972357E+03	4.704345E-18	1.152306E-18
2.982265E+03	4.792500E-18	1.167263E-18
2.992173E+03	4.882976E-18	1.182521E-18
3.002081E+03	4.975247E-18	1.197944E-18
3.011989E+03	5.070074E-18	1.213705E-18
3.021896E+03	5.167286E-18	1.229751E-18
3.031804E+03	5.267452E-18	1.246208E-18
3.041712E+03	5.370874E-18	1.263132E-18
3.051620E+03	5.477419E-18	1.280478E-18
3.061528E+03	5.587705E-18	1.298375E-18
3.071436E+03	5.701726E-18	1.316806E-18
3.081344E+03	5.818807E-18	1.335598E-18
3.091251E+03	5.938927E-18	1.354733E-18
3.101159E+03	6.062778E-18	1.374355E-18
3.111067E+03	6.189677E-18	1.394291E-18
3.120975E+03	6.320351E-18	1.414691E-18
3.130883E+03	6.454847E-18	1.435548E-18
3.140791E+03	6.592467E-18	1.456690E-18
3.150699E+03	6.733239E-18	1.478110E-18
3.160606E+03	6.877964E-18	1.499967E-18
3.170514E+03	7.026718E-18	1.522260E-18
3.180422E+03	7.178789E-18	1.544817E-18
3.190330E+03	7.334228E-18	1.567633E-18
3.200238E+03	7.494737E-18	1.591055E-18
3.210146E+03	7.657950E-18	1.614560E-18
3.220054E+03	7.826454E-18	1.638677E-18
3.229961E+03	7.997811E-18	1.662875E-18
3.239869E+03	8.174701E-18	1.687694E-18
3.249777E+03	8.355511E-18	1.712778E-18
3.259685E+03	8.540341E-18	1.738129E-18
3.269593E+03	8.731135E-18	1.764122E-18
3.279501E+03	8.925282E-18	1.790205E-18
3.289409E+03	9.125710E-18	1.816946E-18
3.299316E+03	9.329724E-18	1.843783E-18
3.309224E+03	9.540363E-18	1.871295E-18
3.319132E+03	9.755851E-18	1.899107E-18
3.329040E+03	9.977349E-18	1.927421E-18
3.338948E+03	1.020401E-17	1.956046E-18
3.348856E+03	1.043704E-17	1.985188E-18
3.358763E+03	1.067558E-17	2.014657E-18
3.368671E+03	1.092088E-17	2.044659E-18
3.378579E+03	1.117316E-17	2.075205E-18
3.388487E+03	1.143152E-17	2.106099E-18
3.398395E+03	1.169728E-17	2.137553E-18
3.408303E+03	1.197068E-17	2.169577E-18
3.418211E+03	1.225079E-17	2.201969E-18
3.428118E+03	1.253900E-17	2.234946E-18
3.438026E+03	1.283434E-17	2.268300E-18
3.447934E+03	1.313826E-17	2.302251E-18
3.457842E+03	1.345103E-17	2.336810E-18
3.467750E+03	1.377163E-17	2.371757E-18
3.477658E+03	1.410157E-17	2.407321E-18
3.487566E+03	1.443980E-17	2.443277E-18
3.497473E+03	1.478927E-17	2.480083E-18
3.507381E+03	1.514616E-17	2.517056E-18
3.517289E+03	1.551486E-17	2.554883E-18
3.527197E+03	1.589285E-17	2.593102E-18
3.537105E+03	1.628183E-17	2.631944E-18
3.547013E+03	1.668056E-17	2.671165E-18
3.556921E+03	1.709079E-17	2.710997E-18
3.566828E+03	1.751123E-17	2.751188E-18
3.576736E+03	1.794523E-17	2.792214E-18
3.586644E+03	1.838992E-17	2.833572E-18
3.596552E+03	1.884548E-17	2.875244E-18
3.606460E+03	1.931373E-17	2.917458E-18
3.616368E+03	1.979490E-17	2.960193E-18
3.626276E+03	2.028750E-17	3.003171E-18
3.636183E+03	2.079339E-17	3.046618E-18
3.646091E+03	2.131275E-17	3.090504E-18
3.655999E+03	2.184394E-17	3.134533E-18
3.665907E+03	2.238883E-17	3.178925E-18
3.675815E+03	2.294755E-17	3.223638E-18
3.685723E+03	2.351823E-17	3.268356E-18
3.695631E+03	2.410081E-17	3.313022E-18
3.705538E+03	2.469915E-17	3.358113E-18
3.715446E+03	2.530721E-17	3.402752E-18
3.725354E+03	2.593085E-17	3.447683E-18
3.735262E+03	2.656579E-17	3.492277E-18
3.745170E+03	2.721379E-17	3.536725E-18
3.755078E+03	2.787234E-17	3.580652E-18
3.764986E+03	2.854312E-17	3.624235E-18
3.774893E+03	2.922335E-17	3.667080E-18
3.784801E+03	2.991458E-17	3.709348E-18
3.794709E+03	3.061610E-17	3.750915E-18
3.804617E+03	3.132467E-17	3.791358E-18
3.814525E+03	3.203920E-17	3.830526E-18
3.824433E+03	3.276093E-17	3.868557E-18
3.834341E+03	3.348863E-17	3.905289E-18
3.844248E+03	3.421842E-17	3.940266E-18
3.854156E+03	3.495130E-17	3.973611E-18
3.864064E+03	3.568305E-17	4.004854E-18
3.873972E+03	3.641188E-17	4.033824E-18
3.883880E+03	3.713863E-17	4.060645E-18
3.893788E+03	3.786149E-17	4.085154E-18
3.903696E+03	3.857586E-17	4.106901E-18
3.913603E+03	3.928263E-17	4.126040E-18
3.923511E+03	3.997443E-17	4.141865E-18
3.933419E+03	4.065793E-17	4.155151E-18
3.943327E+03	4.132315E-17	4.164954E-18
3.953235E+03	4.197726E-17	4.172093E-18
3.963143E+03	4.261057E-17	4.175698E-18
3.973051E+03	4.322808E-17	4.176367E-18
3.982958E+03	4.382632E-17	4.173871E-18
3.992866E+03	4.440817E-17	4.168594E-18
4.002774E+03	4.497089E-17	4.160386E-18
4.012682E+03	4.551512E-17	4.149419E-18
4.022590E+03	4.604186E-17	4.135897E-18
4.032498E+03	4.655547E-17	4.120316E-18
4.042406E+03	4.705464E-17	4.102654E-18
4.052313E+03	4.754452E-17	4.083455E-18
4.062221E+03	4.802117E-17	4.062465E-18
4.072129E+03	4.849334E-17	4.040513E-18
4.082037E+03	4.896056E-17	4.017625E-18
4.091945E+03	4.942567E-17	3.994101E-18
4.101853E+03	4.989455E-17	3.970468E-18
4.111761E+03	5.036376E-17	3.946501E-18
4.121668E+03	5.084229E-17	3.922949E-18
4.131576E+03	5.132955E-17	3.899796E-18
4.141484E+03	5.182791E-17	3.877253E-18
4.151392E+03	5.233944E-17	3.855502E-18
4.161300E+03	5.286592E-17	3.834700E-18
4.171208E+03	5.340872E-17	3.814970E-18
4.181116E+03	5.396896E-17	3.796416E-18
4.191023E+03	5.455044E-17	3.779332E-18
4.200931E+03	5.514685E-17	3.763306E-18
4.210839E+03	5.576113E-17	3.748585E-18
4.220747E+03	5.639245E-17	3.735157E-18
4.230655E+03	5.703962E-17	3.722998E-18
4.240563E+03	5.770087E-17	3.712057E-18
4.250471E+03	5.837406E-17	3.702271E-18
4.260378E+03	5.905676E-17	3.693571E-18
4.270286E+03	5.974611E-17	3.685876E-18
4.280194E+03	6.043572E-17	3.678903E-18
4.290102E+03	6.112941E-17	3.673009E-18
4.300010E+03	6.181735E-17	3.667728E-18
4.309918E+03	6.250034E-17	3.663249E-18
4.319826E+03	6.317261E-17	3.659378E-18
4.329733E+03	6.384069E-17	3.656639E-18
4.339641E+03	6.450174E-17	3.655007E-18
4.349549E+03	6.516485E-17	3.655131E-18
4.359457E+03	6.583613E-17	3.657470E-18
4.369365E+03	6.651846E-17	3.662292E-18
4.379273E+03	6.722177E-17	3.670241E-18
4.389181E+03	6.794879E-17	3.681523E-18
4.399088E+03	6.871255E-17	3.696812E-18
4.408996E+03	6.950733E-17	3.715741E-18
4.418904E+03	7.034840E-17	3.739068E-18
4.428812E+03	7.123160E-17	3.766500E-18
4.438720E+03	7.215886E-17	3.798070E-18
4.448628E+03	7.313458E-17	3.833935E-18
4.458536E+03	7.415806E-17	3.873982E-18
4.468443E+03	7.522304E-17	3.917807E-18
4.478351E+03	7.632954E-17	3.965335E-18
4.488259E+03	7.746801E-17	4.015991E-18
4.498167E+03	7.863125E-17	4.069322E-18
4.508075E+03	7.981451E-17	4.125001E-18
4.517983E+03	8.100345E-17	4.182199E-18
4.527891E+03	8.219057E-17	4.240440E-18
4.537798E+03	8.335893E-17	4.298756E-18
4.547706E+03	8.449900E-17	4.356553E-18
4.557614E+03	8.559237E-17	4.412776E-18
4.567522E+03	8.662434E-17	4.466553E-18
4.577430E+03	8.758480E-17	4.517245E-18
4.587338E+03	8.845135E-17	4.563569E-18
4.597246E+03	8.922415E-17	4.605406E-18
4.607153E+03	8.987901E-17	4.641373E-18
4.617061E+03	9.041534E-17	4.671305E-18
4.626969E+03	9.082181E-17	4.694484E-18
4.636877E+03	9.109418E-17	4.710559E-18
4.646785E+03	9.123559E-17	4.719565E-18
4.656693E+03	9.124345E-17	4.721247E-18
4.666601E+03	9.112278E-17	4.715755E-18
4.676508E+03	9.088165E-17	4.703401E-18
4.686416E+03	9.053531E-17	4.684885E-18
4.696324E+03	9.009304E-17	4.660603E-18
4.706232E+03	8.956665E-17	4.631097E-18
4.716140E+03	8.898642E-17	4.597872E-18
4.726048E+03	8.835898E-17	4.561215E-18
4.735956E+03	8.770871E-17	4.522342E-18
4.745863E+03	8.706009E-17	4.482472E-18
4.755771E+03	8.642973E-17	4.442418E-18
4.765679E+03	8.583772E-17	4.403174E-18
4.775587E+03	8.530363E-17	4.365698E-18
4.785495E+03	8.484564E-17	4.330867E-18
4.795403E+03	8.448465E-17	4.299687E-18
4.805311E+03	8.422820E-17	4.272465E-18
4.815218E+03	8.409730E-17	4.250180E-18
4.825126E+03	8.409949E-17	4.233105E-18
4.835034E+03	8.424377E-17	4.221570E-18
4.844942E+03	8.453673E-17	4.215762E-18
4.854850E+03	8.498205E-17	4.215702E-18
4.864758E+03	8.558452E-17	4.221449E-18
4.874666E+03	8.633418E-17	4.232311E-18
4.884573E+03	8.723305E-17	4.248179E-18
4.894481E+03	8.826793E-17	4.268185E-18
4.904389E+03	8.942182E-17	4.291280E-18
4.914297E+03	9.068565E-17	4.316804E-18
4.924205E+03	9.203461E-17	4.343352E-18
4.934113E+03	9.344439E-17	4.369574E-18
4.944021E+03	9.489131E-17	4.394179E-18
4.953928E+03	9.633668E-17	4.415230E-18
4.963836E+03	9.775662E-17	4.431531E-18
4.973744E+03	9.910956E-17	4.441146E-18
4.983652E+03	1.003713E-16	4.443005E-18
4.993560E+03	1.015067E-16	4.435619E-18
5.003468E+03	1.024878E-16	4.417913E-18
5.013376E+03	1.032909E-16	4.389081E-18
5.023283E+03	1.038980E-16	4.348632E-18
5.033191E+03	1.042970E-16	4.296400E-18
5.043099E+03	1.044869E-16	4.232729E-18
5.053007E+03	1.044600E-16	4.157729E-18
5.062915E+03	1.042325E-16	4.072505E-18
5.072823E+03	1.038129E-16	3.977842E-18
5.082731E+03	1.032185E-16	3.874869E-18
5.092638E+03	1.024703E-16	3.764814E-18
5.102546E+03	1.015911E-16	3.648940E-18
5.112454E+03	1.006051E-16	3.528500E-18
5.122362E+03	9.954056E-17	3.404822E-18
5.132270E+03	9.841636E-17	3.278845E-18
5.142178E+03	9.725016E-17	3.151408E-18
5.152086E+03	9.606985E-17	3.023625E-18
5.161993E+03	9.488890E-17	2.896069E-18
5.171901E+03	9.372639E-17	2.769439E-18
5.181809E+03	9.258741E-17	2.643963E-18
5.191717E+03	9.149051E-17	2.520229E-18
5.201625E+03	9.044069E-17	2.398397E-18
5.211533E+03	8.944508E-17	2.278671E-18
5.221441E+03	8.850949E-17	2.161204E-18
5.231348E+03	8.763846E-17	2.046113E-18
5.241256E+03	8.683932E-17	1.933582E-18
5.251164E+03	8.610772E-17	1.823547E-18
5.261072E+03	8.545341E-17	1.716294E-18
5.270980E+03	8.487862E-17	1.611982E-18
5.280888E+03	8.437853E-17	1.510720E-18
5.290796E+03	8.396225E-17	1.412988E-18
5.300703E+03	8.362867E-17	1.319219E-18
5.310611E+03	8.338022E-17	1.230112E-18
5.320519E+03	8.321934E-17	1.146629E-18
5.330427E+03	8.314843E-17	1.070076E-18
5.340335E+03	8.317309E-17	1.002214E-18
5.350243E+03	8.329144E-17	9.451699E-19
5.360151E+03	8.350765E-17	9.015681E-19
5.370058E+03	8.381414E-17	8.741196E-19
5.379966E+03	8.421501E-17	8.654745E-19
5.389874E+03	8.470120E-17	8.773937E-19
5.399782E+03	8.526696E-17	9.100526E-19
5.409690E+03	8.589462E-17	9.620041E-19
5.419598E+03	8.656392E-17	1.031006E-18
5.429506E+03	8.724745E-17	1.114425E-18
5.439413E+03	8.791297E-17	1.209573E-18
5.449321E+03	8.852386E-17	1.313849E-18
5.459229E+03	8.907159E-17	1.425269E-18
5.469137E+03	8.955027E-17	1.542162E-18
5.479045E+03	8.994100E-17	1.662846E-18
5.488953E+03	9.022410E-17	1.785740E-18
5.498861E+03	9.038121E-17	1.909349E-18
5.508768E+03	9.038617E-17	2.032029E-18
5.518676E+03	9.021796E-17	2.152211E-18
5.528584E+03	8.986247E-17	2.268456E-18
5.538492E+03	8.930331E-17	2.379244E-18
5.548400E+03	8.853394E-17	2.483283E-18
5.558308E+03	8.755843E-17	2.579595E-18
5.568216E+03	8.638484E-17	2.667378E-18
5.578123E+03	8.502150E-17	2.745914E-18
5.588031E+03	8.350111E-17	2.815376E-18
5.597939E+03	8.184147E-17	2.875621E-18
5.607847E+03	8.008176E-17	2.927410E-18
5.617755E+03	7.825733E-17	2.971595E-18
5.627663E+03	7.640169E-17	3.009173E-18
5.637571E+03	7.455160E-17	3.041476E-18
5.647478E+03	7.274517E-17	3.070107E-18
5.657386E+03	7.101204E-17	3.096527E-18
5.667294E+03	6.938431E-17	3.122476E-18
5.677202E+03	6.788436E-17	3.149428E-18
5.687110E+03	6.653604E-17	3.179053E-18
5.697018E+03	6.535343E-17	3.212671E-18
5.706926E+03	6.435177E-17	3.251737E-18
5.716833E+03	6.353675E-17	3.297289E-18
5.726741E+03	6.291564E-17	3.350476E-18
5.736649E+03	6.248670E-17	3.411988E-18
5.746557E+03	6.224973E-17	3.482584E-18
5.756465E+03	6.219611E-17	3.562532E-18
5.766373E+03	6.231895E-17	3.652147E-18
5.776281E+03	6.260298E-17	3.751198E-18
5.786188E+03	6.303477E-17	3.859475E-18
5.796096E+03	6.359509E-17	3.976331E-18
5.806004E+03	6.425929E-17	4.100665E-18
5.815912E+03	6.500493E-17	4.231383E-18
5.825820E+03	6.580198E-17	4.366772E-18
5.835728E+03	6.662382E-17	4.505192E-18
5.845636E+03	6.744019E-17	4.644613E-18
5.855543E+03	6.821784E-17	4.782649E-18
5.865451E+03	6.892992E-17	4.917204E-18
5.875359E+03	6.954617E-17	5.045807E-18
5.885267E+03	7.004508E-17	5.166489E-18
5.895175E+03	7.040689E-17	5.277320E-18
5.905083E+03	7.061412E-17	5.376453E-18
5.914991E+03	7.066116E-17	5.462888E-18
5.924898E+03	7.054305E-17	5.535661E-18
5.934806E+03	7.027001E-17	5.595005E-18
5.944714E+03	6.984699E-17	5.640787E-18
5.954622E+03	6.929033E-17	5.673837E-18
5.964530E+03	6.862685E-17	5.695943E-18
5.974438E+03	6.787576E-17	5.708378E-18
5.984346E+03	6.706471E-17	5.713227E-18
5.994253E+03	6.622816E-17	5.713290E-18
6.004161E+03	6.539016E-17	5.710607E-18
6.014069E+03	6.457969E-17	5.707760E-18
6.023977E+03	6.382993E-17	5.707827E-18
6.033885E+03	6.316139E-17	5.712874E-18
6.043793E+03	6.260052E-17	5.725589E-18
6.053701E+03	6.216862E-17	5.748286E-18
6.063608E+03	6.188196E-17	5.782881E-18
6.073516E+03	6.176197E-17	5.831835E-18
6.083424E+03	6.181737E-17	5.896464E-18
6.093332E+03	6.205960E-17	5.978371E-18
6.103240E+03	6.250282E-17	6.079445E-18
6.113148E+03	6.314865E-17	6.200388E-18
6.123056E+03	6.400378E-17	6.342389E-18
6.132963E+03	6.506975E-17	6.506132E-18
6.142871E+03	6.634531E-17	6.692006E-18
6.152779E+03	6.782303E-17	6.899750E-18
6.162687E+03	6.949726E-17	7.129242E-18
6.172595E+03	7.135564E-17	7.379630E-18
6.182503E+03	7.338150E-17	7.649556E-18
6.192411E+03	7.555306E-17	7.937054E-18
6.202318E+03	7.784376E-17	8.239568E-18
6.212226E+03	8.021864E-17	8.553553E-18
6.222134E+03	8.264460E-17	8.875539E-18
6.232042E+03	8.508128E-17	9.201174E-18
6.241950E+03	8.748529E-17	9.525642E-18
6.251858E+03	8.981124E-17	9.843789E-18
6.261766E+03	9.200998E-17	1.014991E-17
6.271673E+03	9.404514E-17	1.043961E-17
6.281581E+03	9.586848E-17	1.070705E-17
6.291489E+03	9.744869E-17	1.094820E-17
6.301397E+03	9.876148E-17	1.115976E-17
6.311305E+03	9.977833E-17	1.133790E-17
6.321213E+03	1.004873E-16	1.148064E-17
6.331121E+03	1.008941E-16	1.158803E-17
6.341028E+03	1.010003E-16	1.165969E-17
6.350936E+03	1.008195E-16	1.169664E-17
6.360844E+03	1.003673E-16	1.170023E-17
6.370752E+03	9.967746E-17	1.167395E-17
6.380660E+03	9.876990E-17	1.161980E-17
6.390568E+03	9.767926E-17	1.154156E-17
6.400476E+03	9.644025E-17	1.144311E-17
6.410383E+03	9.507444E-17	1.132686E-17
6.420291E+03	9.361383E-17	1.119651E-17
6.430199E+03	9.208357E-17	1.105501E-17
6.440107E+03	9.050582E-17	1.090500E-17
6.450015E+03	8.889918E-17	1.074874E-17
6.459923E+03	8.727898E-17	1.058812E-17
6.469831E+03	8.565729E-17	1.042467E-17
6.479738E+03	8.404311E-17	1.025957E-17
6.489646E+03	8.244294E-17	1.009368E-17
6.499554E+03	8.086091E-17	9.927601E-18
6.509462E+03	7.929573E-17	9.761269E-18
6.519370E+03	7.775505E-17	9.595711E-18
6.529278E+03	7.623488E-17	9.430530E-18
6.539186E+03	7.473381E-17	9.265638E-18
6.549093E+03	7.325007E-17	9.100901E-18
6.559001E+03	7.178129E-17	8.936106E-18
6.568909E+03	7.032528E-17	8.771058E-18
6.578817E+03	6.887681E-17	8.605181E-18
6.588725E+03	6.743998E-17	8.439061E-18
6.598633E+03	6.601027E-17	8.272206E-18
6.608541E+03	6.458675E-17	8.104570E-18
6.618448E+03	6.316933E-17	7.936210E-18
6.628356E+03	6.175855E-17	7.767267E-18
6.638264E+03	6.035593E-17	7.597999E-18
6.648172E+03	5.896382E-17	7.428774E-18
6.658080E+03	5.758561E-17	7.260086E-18
6.667988E+03	5.622557E-17	7.092545E-18
6.677896E+03	5.489126E-17	6.927173E-18
6.687803E+03	5.358384E-17	6.764183E-18
6.697711E+03	5.231243E-17	6.604794E-18
6.707619E+03	5.108429E-17	6.449987E-18
6.717527E+03	4.990933E-17	6.301070E-18
6.727435E+03	4.879113E-17	6.158552E-18
6.737343E+03	4.774217E-17	6.024055E-18
6.747251E+03	4.676638E-17	5.898116E-18
6.757158E+03	4.587594E-17	5.782307E-18
6.767066E+03	4.507465E-17	5.677126E-18
6.776974E+03	4.437401E-17	5.584038E-18
6.786882E+03	4.377923E-17	5.503695E-18
6.796790E+03	4.329519E-17	5.436701E-18
6.806698E+03	4.293212E-17	5.384315E-18
6.816606E+03	4.269409E-17	5.347007E-18
6.826513E+03	4.258669E-17	5.325419E-18
6.836421E+03	4.261509E-17	5.320129E-18
6.846329E+03	4.278405E-17	5.331644E-18
6.856237E+03	4.309792E-17	5.360401E-18
6.866145E+03	4.356053E-17	5.406755E-18
6.876053E+03	4.417717E-17	5.471224E-18
6.885961E+03	4.494661E-17	5.553499E-18
6.895868E+03	4.587271E-17	5.653885E-18
6.905776E+03	4.695649E-17	5.772316E-18
6.915684E+03	4.820007E-17	5.908846E-18
6.925592E+03	4.959796E-17	6.062582E-18
6.935500E+03	5.114966E-17	6.233226E-18
6.945408E+03	5.285347E-17	6.420324E-18
6.955316E+03	5.469914E-17	6.622374E-18
6.965223E+03	5.668436E-17	6.838833E-18
6.975131E+03	5.879555E-17	7.067794E-18
6.985039E+03	6.102803E-17	7.308425E-18
6.994947E+03	6.336833E-17	7.558845E-18
7.004855E+03	6.580202E-17	7.817070E-18
7.014763E+03	6.832292E-17	8.082113E-18
7.024671E+03	7.091329E-17	8.351628E-18
7.034578E+03	7.356837E-17	8.624818E-18
7.044486E+03	7.627491E-17	8.899904E-18
7.054394E+03	7.902061E-17	9.175235E-18
7.064302E+03	8.180533E-17	9.450594E-18
7.074210E+03	8.461625E-17	9.724302E-18
7.084118E+03	8.745720E-17	9.996609E-18
7.094026E+03	9.031774E-17	1.026613E-17
7.103933E+03	9.320476E-17	1.053347E-17
7.113841E+03	9.610890E-17	1.079738E-17
7.123749E+03	9.903793E-17	1.105855E-17
7.133657E+03	1.019810E-16	1.131558E-17
7.143565E+03	1.049392E-16	1.156841E-17
7.153473E+03	1.079113E-16	1.181673E-17
7.163381E+03	1.108787E-16	1.205834E-17
7.173288E+03	1.138327E-16	1.229217E-17
7.183196E+03	1.167557E-16	1.251621E-17
7.193104E+03	1.196248E-16	1.272796E-17
7.203012E+03	1.224122E-16	1.292447E-17
7.212920E+03	1.250848E-16	1.310234E-17
7.222828E+03	1.275991E-16	1.325719E-17
7.232736E+03	1.299251E-16	1.338622E-17
7.242643E+03	1.320127E-16	1.348470E-17
7.252551E+03	1.338101E-16	1.354790E-17
7.262459E+03	1.352781E-16	1.357259E-17
7.272367E+03	1.363738E-16	1.355533E-17
7.282275E+03	1.370650E-16	1.349394E-17
7.292183E+03	1.373003E-16	1.338454E-17
7.302091E+03	1.370746E-16	1.322794E-17
7.311998E+03	1.363667E-16	1.302349E-17
7.321906E+03	1.351662E-16	1.277167E-17
7.331814E+03	1.334926E-16	1.247588E-17
7.341722E+03	1.313515E-16	1.213818E-17
7.351630E+03	1.287780E-16	1.176335E-17
7.361538E+03	1.258043E-16	1.135582E-17
7.371446E+03	1.224887E-16	1.092220E-17
7.381353E+03	1.188722E-16	1.046741E-17
7.391261E+03	1.150230E-16	9.998564E-18
7.401169E+03	1.109894E-16	9.520773E-18
7.411077E+03	1.068364E-16	9.040374E-18
7.420985E+03	1.026170E-16	8.562415E-18
7.430893E+03	9.839608E-17	8.092669E-18
7.440801E+03	9.421476E-17	7.634681E-18
7.450708E+03	9.012317E-17	7.192515E-18
7.460616E+03	8.615695E-17	6.768842E-18
7.470524E+03	8.235788E-17	6.366617E-18
7.480432E+03	7.874570E-17	5.986896E-18
7.490340E+03	7.534617E-17	5.631066E-18
7.500248E+03	7.217569E-17	5.299673E-18
7.510156E+03	6.924263E-17	4.992577E-18
7.520063E+03	6.656109E-17	4.709974E-18
7.529971E+03	6.412841E-17	4.450801E-18
7.539879E+03	6.194585E-17	4.214249E-18
7.549787E+03	6.001794E-17	3.999695E-18
7.559695E+03	5.833559E-17	3.805579E-18
7.569603E+03	5.689716E-17	3.630844E-18
7.579511E+03	5.569448E-17	3.474010E-18
7.589418E+03	5.472680E-17	3.334073E-18
7.599326E+03	5.398230E-17	3.209354E-18
7.609234E+03	5.345432E-17	3.098517E-18
7.619142E+03	5.314113E-17	3.000527E-18
7.629050E+03	5.303062E-17	2.913767E-18
7.638958E+03	5.311823E-17	2.837074E-18
7.648866E+03	5.339410E-17	2.769023E-18
7.658773E+03	5.385320E-17	2.708472E-18
7.668681E+03	5.448756E-17	2.654152E-18
7.678589E+03	5.528870E-17	2.604801E-18
7.688497E+03	5.624474E-17	2.559042E-18
