#wls	flux	fluxerr
1.585257E+03	1.683145E-18	2.273198E-20
1.624889E+03	1.728435E-18	2.330751E-20
1.664520E+03	1.765211E-18	2.376552E-20
1.704151E+03	1.793005E-18	2.410019E-20
1.743783E+03	1.810489E-18	2.429422E-20
1.783414E+03	1.815738E-18	2.432248E-20
1.823046E+03	1.804916E-18	2.413447E-20
1.862677E+03	1.774879E-18	2.368939E-20
1.902309E+03	1.722370E-18	2.294531E-20
1.941940E+03	1.647058E-18	2.189957E-20
1.981571E+03	1.551930E-18	2.059371E-20
2.021203E+03	1.448014E-18	1.917551E-20
2.060834E+03	1.353900E-18	1.789154E-20
2.100466E+03	1.292230E-18	1.703974E-20
2.140097E+03	1.282105E-18	1.686874E-20
2.179729E+03	1.332529E-18	1.749222E-20
2.219360E+03	1.440859E-18	1.887001E-20
2.258991E+03	1.595901E-18	2.085024E-20
2.298623E+03	1.783006E-18	2.323720E-20
2.338254E+03	1.988962E-18	2.585557E-20
2.377886E+03	2.203168E-18	2.856552E-20
2.417517E+03	2.420308E-18	3.129690E-20
2.457149E+03	2.637267E-18	3.400868E-20
2.496780E+03	2.853459E-18	3.669273E-20
2.536411E+03	3.069628E-18	3.935811E-20
2.576043E+03	3.287263E-18	4.202322E-20
2.615674E+03	3.508787E-18	4.471817E-20
2.655306E+03	3.735773E-18	4.746181E-20
2.694937E+03	3.971001E-18	5.028805E-20
2.734569E+03	4.216145E-18	5.321630E-20
2.774200E+03	4.473512E-18	5.627356E-20
2.813831E+03	4.746223E-18	5.949662E-20
2.853463E+03	5.036149E-18	6.290596E-20
2.893094E+03	5.346782E-18	6.654182E-20
2.932726E+03	5.680284E-18	7.042717E-20
2.972357E+03	6.039785E-18	7.459640E-20
2.982265E+03	6.134654E-18	7.569399E-20
2.992173E+03	6.230448E-18	7.680030E-20
3.002081E+03	6.329060E-18	7.793856E-20
3.011989E+03	6.429760E-18	7.909968E-20
3.021896E+03	6.533069E-18	8.028997E-20
3.031804E+03	6.639689E-18	8.151794E-20
3.041712E+03	6.749174E-18	8.277796E-20
3.051620E+03	6.862122E-18	8.407723E-20
3.061528E+03	6.979465E-18	8.542700E-20
3.071436E+03	7.099117E-18	8.680160E-20
3.081344E+03	7.223075E-18	8.822527E-20
3.091251E+03	7.349201E-18	8.967175E-20
3.101159E+03	7.479584E-18	9.116640E-20
3.111067E+03	7.613136E-18	9.269578E-20
3.120975E+03	7.749842E-18	9.425955E-20
3.130883E+03	7.888550E-18	9.584356E-20
3.140791E+03	8.032666E-18	9.748904E-20
3.150699E+03	8.178787E-18	9.915452E-20
3.160606E+03	8.328055E-18	1.008537E-19
3.170514E+03	8.480486E-18	1.025866E-19
3.180422E+03	8.637339E-18	1.043682E-19
3.190330E+03	8.796200E-18	1.061694E-19
3.200238E+03	8.959588E-18	1.080202E-19
3.210146E+03	9.125018E-18	1.098906E-19
3.220054E+03	9.295107E-18	1.118119E-19
3.229961E+03	9.468633E-18	1.137691E-19
3.239869E+03	9.645659E-18	1.157630E-19
3.249777E+03	9.826242E-18	1.177940E-19
3.259685E+03	1.001046E-17	1.198627E-19
3.269593E+03	1.019837E-17	1.219698E-19
3.279501E+03	1.039006E-17	1.241161E-19
3.289409E+03	1.058708E-17	1.263199E-19
3.299316E+03	1.078659E-17	1.285470E-19
3.309224E+03	1.099166E-17	1.308339E-19
3.319132E+03	1.119934E-17	1.331452E-19
3.329040E+03	1.141282E-17	1.355186E-19
3.338948E+03	1.163065E-17	1.379366E-19
3.348856E+03	1.185295E-17	1.404005E-19
3.358763E+03	1.207981E-17	1.429109E-19
3.368671E+03	1.231133E-17	1.454690E-19
3.378579E+03	1.254762E-17	1.480757E-19
3.388487E+03	1.278879E-17	1.507320E-19
3.398395E+03	1.303493E-17	1.534388E-19
3.408303E+03	1.328796E-17	1.562183E-19
3.418211E+03	1.354441E-17	1.590295E-19
3.428118E+03	1.380615E-17	1.618940E-19
3.438026E+03	1.407519E-17	1.648351E-19
3.447934E+03	1.434979E-17	1.678321E-19
3.457842E+03	1.462808E-17	1.708629E-19
3.467750E+03	1.491407E-17	1.739738E-19
3.477658E+03	1.520591E-17	1.771430E-19
3.487566E+03	1.550370E-17	1.803713E-19
3.497473E+03	1.580751E-17	1.836592E-19
3.507381E+03	1.611742E-17	1.870074E-19
3.517289E+03	1.643352E-17	1.904163E-19
3.527197E+03	1.675586E-17	1.938864E-19
3.537105E+03	1.708449E-17	1.974179E-19
3.547013E+03	1.742177E-17	2.010374E-19
3.556921E+03	1.776318E-17	2.046925E-19
3.566828E+03	1.811337E-17	2.084366E-19
3.576736E+03	1.846767E-17	2.122152E-19
3.586644E+03	1.883085E-17	2.160830E-19
3.596552E+03	1.919804E-17	2.199837E-19
3.606460E+03	1.957417E-17	2.239733E-19
3.616368E+03	1.995673E-17	2.280227E-19
3.626276E+03	2.034568E-17	2.321310E-19
3.636183E+03	2.074094E-17	2.362969E-19
3.646091E+03	2.113969E-17	2.404880E-19
3.655999E+03	2.154720E-17	2.447639E-19
3.665907E+03	2.196067E-17	2.490923E-19
3.675815E+03	2.238280E-17	2.535032E-19
3.685723E+03	2.280773E-17	2.579301E-19
3.695631E+03	2.323807E-17	2.624020E-19
3.705538E+03	2.367358E-17	2.669161E-19
3.715446E+03	2.411401E-17	2.714690E-19
3.725354E+03	2.456216E-17	2.760920E-19
3.735262E+03	2.501158E-17	2.807122E-19
3.745170E+03	2.546499E-17	2.853597E-19
3.755078E+03	2.592526E-17	2.900666E-19
3.764986E+03	2.638555E-17	2.947560E-19
3.774893E+03	2.685201E-17	2.994962E-19
3.784801E+03	2.731754E-17	3.042080E-19
3.794709E+03	2.778843E-17	3.089611E-19
3.804617E+03	2.825736E-17	3.136739E-19
3.814525E+03	2.873076E-17	3.184178E-19
3.824433E+03	2.920469E-17	3.231487E-19
3.834341E+03	2.967497E-17	3.278203E-19
3.844248E+03	3.014831E-17	3.325071E-19
3.854156E+03	3.062060E-17	3.371631E-19
3.864064E+03	3.109131E-17	3.417826E-19
3.873972E+03	3.155608E-17	3.463180E-19
3.883880E+03	3.202207E-17	3.508476E-19
3.893788E+03	3.248501E-17	3.553249E-19
3.903696E+03	3.294449E-17	3.597453E-19
3.913603E+03	3.340011E-17	3.641046E-19
3.923511E+03	3.384746E-17	3.683551E-19
3.933419E+03	3.429440E-17	3.725822E-19
3.943327E+03	3.473668E-17	3.767401E-19
3.953235E+03	3.517417E-17	3.808275E-19
3.963143E+03	3.560682E-17	3.848440E-19
3.973051E+03	3.603467E-17	3.887902E-19
3.982958E+03	3.645784E-17	3.926677E-19
3.992866E+03	3.687214E-17	3.964317E-19
4.002774E+03	3.728658E-17	4.001792E-19
4.012682E+03	3.769718E-17	4.038677E-19
4.022590E+03	3.810438E-17	4.075018E-19
4.032498E+03	3.850868E-17	4.110871E-19
4.042406E+03	3.891063E-17	4.146295E-19
4.052313E+03	3.930620E-17	4.180865E-19
4.062221E+03	3.970520E-17	4.215622E-19
4.072129E+03	4.010367E-17	4.250146E-19
4.082037E+03	4.050224E-17	4.284504E-19
4.091945E+03	4.090152E-17	4.318758E-19
4.101853E+03	4.129723E-17	4.352458E-19
4.111761E+03	4.169947E-17	4.386667E-19
4.121668E+03	4.210385E-17	4.420919E-19
4.131576E+03	4.250582E-17	4.454737E-19
4.141484E+03	4.291531E-17	4.489160E-19
4.151392E+03	4.332751E-17	4.523683E-19
4.161300E+03	4.373738E-17	4.557775E-19
4.171208E+03	4.415456E-17	4.592442E-19
4.181116E+03	4.456861E-17	4.626595E-19
4.191023E+03	4.498905E-17	4.661223E-19
4.200931E+03	4.540476E-17	4.695170E-19
4.210839E+03	4.581977E-17	4.728857E-19
4.220747E+03	4.623807E-17	4.762692E-19
4.230655E+03	4.664774E-17	4.795450E-19
4.240563E+03	4.705222E-17	4.827488E-19
4.250471E+03	4.744968E-17	4.858621E-19
4.260378E+03	4.783797E-17	4.888635E-19
4.270286E+03	4.822036E-17	4.917867E-19
4.280194E+03	4.858376E-17	4.944990E-19
4.290102E+03	4.893135E-17	4.970337E-19
4.300010E+03	4.925555E-17	4.993150E-19
4.309918E+03	4.956534E-17	5.014353E-19
4.319826E+03	4.985379E-17	5.033253E-19
4.329733E+03	5.012030E-17	5.049804E-19
4.339641E+03	5.036072E-17	5.063603E-19
4.349549E+03	5.058838E-17	5.076005E-19
4.359457E+03	5.079472E-17	5.086158E-19
4.369365E+03	5.099362E-17	5.095464E-19
4.379273E+03	5.117678E-17	5.103100E-19
4.389181E+03	5.135814E-17	5.110463E-19
4.399088E+03	5.152913E-17	5.116703E-19
4.408996E+03	5.169756E-17	5.122602E-19
4.418904E+03	5.186545E-17	5.128361E-19
4.428812E+03	5.203438E-17	5.134135E-19
4.438720E+03	5.220543E-17	5.140032E-19
4.448628E+03	5.237929E-17	5.146117E-19
4.458536E+03	5.255039E-17	5.151844E-19
4.468443E+03	5.272967E-17	5.158284E-19
4.478351E+03	5.290506E-17	5.164255E-19
4.488259E+03	5.308657E-17	5.170733E-19
4.498167E+03	5.326109E-17	5.176442E-19
4.508075E+03	5.343211E-17	5.181726E-19
4.517983E+03	5.360291E-17	5.186903E-19
4.527891E+03	5.375927E-17	5.190602E-19
4.537798E+03	5.390382E-17	5.193084E-19
4.547706E+03	5.403348E-17	5.194064E-19
4.557614E+03	5.413929E-17	5.192691E-19
4.567522E+03	5.422956E-17	5.189775E-19
4.577430E+03	5.428978E-17	5.183943E-19
4.587338E+03	5.432875E-17	5.176053E-19
4.597246E+03	5.433258E-17	5.164797E-19
4.607153E+03	5.431075E-17	5.151099E-19
4.617061E+03	5.425057E-17	5.133774E-19
4.626969E+03	5.415702E-17	5.113320E-19
4.636877E+03	5.403004E-17	5.089751E-19
4.646785E+03	5.386481E-17	5.062637E-19
4.656693E+03	5.367407E-17	5.033199E-19
4.666601E+03	5.345458E-17	5.001149E-19
4.676508E+03	5.320385E-17	4.966276E-19
4.686416E+03	5.293126E-17	4.929473E-19
4.696324E+03	5.264672E-17	4.891676E-19
4.706232E+03	5.234434E-17	4.852348E-19
4.716140E+03	5.203509E-17	4.812515E-19
4.726048E+03	5.172481E-17	4.772721E-19
4.735956E+03	5.141430E-17	4.733042E-19
4.745863E+03	5.112040E-17	4.695025E-19
4.755771E+03	5.083881E-17	4.658266E-19
4.765679E+03	5.058601E-17	4.624264E-19
4.775587E+03	5.035753E-17	4.592594E-19
4.785495E+03	5.016395E-17	4.564205E-19
4.795403E+03	5.001044E-17	4.539542E-19
4.805311E+03	4.990138E-17	4.518979E-19
4.815218E+03	4.984070E-17	4.502842E-19
4.825126E+03	4.982642E-17	4.490924E-19
4.835034E+03	4.987095E-17	4.484311E-19
4.844942E+03	4.996562E-17	4.482188E-19
4.854850E+03	5.011593E-17	4.485016E-19
4.864758E+03	5.032132E-17	4.492713E-19
4.874666E+03	5.058007E-17	4.505090E-19
4.884573E+03	5.088947E-17	4.521873E-19
4.894481E+03	5.124554E-17	4.542680E-19
4.904389E+03	5.163808E-17	4.566580E-19
4.914297E+03	5.207122E-17	4.593915E-19
4.924205E+03	5.252737E-17	4.623114E-19
4.934113E+03	5.300361E-17	4.653907E-19
4.944021E+03	5.349113E-17	4.685512E-19
4.953928E+03	5.398062E-17	4.717109E-19
4.963836E+03	5.446251E-17	4.747866E-19
4.973744E+03	5.492728E-17	4.776961E-19
4.983652E+03	5.536042E-17	4.803147E-19
4.993560E+03	5.576462E-17	4.826679E-19
5.003468E+03	5.612148E-17	4.845988E-19
5.013376E+03	5.643067E-17	4.861078E-19
5.023283E+03	5.668777E-17	4.871598E-19
5.033191E+03	5.689015E-17	4.877359E-19
5.043099E+03	5.703110E-17	4.877821E-19
5.053007E+03	5.712274E-17	4.874058E-19
5.062915E+03	5.715598E-17	4.865327E-19
5.072823E+03	5.714579E-17	4.852937E-19
5.082731E+03	5.708568E-17	4.836366E-19
5.092638E+03	5.698680E-17	4.816587E-19
5.102546E+03	5.685529E-17	4.794142E-19
5.112454E+03	5.669193E-17	4.769119E-19
5.122362E+03	5.651430E-17	4.743012E-19
5.132270E+03	5.631739E-17	4.715411E-19
5.142178E+03	5.611810E-17	4.687741E-19
5.152086E+03	5.591068E-17	4.659524E-19
5.161993E+03	5.570537E-17	4.631617E-19
5.171901E+03	5.550635E-17	4.604368E-19
5.181809E+03	5.531723E-17	4.578071E-19
5.191717E+03	5.513572E-17	4.552534E-19
5.201625E+03	5.497514E-17	4.528850E-19
5.211533E+03	5.482702E-17	4.506313E-19
5.221441E+03	5.470389E-17	4.485942E-19
5.231348E+03	5.459673E-17	4.466988E-19
5.241256E+03	5.451240E-17	4.450002E-19
5.251164E+03	5.445223E-17	4.435082E-19
5.261072E+03	5.441233E-17	4.421900E-19
5.270980E+03	5.440472E-17	4.411420E-19
5.280888E+03	5.442027E-17	4.402888E-19
5.290796E+03	5.447122E-17	4.397281E-19
5.300703E+03	5.454858E-17	4.393857E-19
5.310611E+03	5.465954E-17	4.393183E-19
5.320519E+03	5.480602E-17	4.395396E-19
5.330427E+03	5.498989E-17	4.400630E-19
5.340335E+03	5.521314E-17	4.409027E-19
5.350243E+03	5.547210E-17	4.420275E-19
5.360151E+03	5.577912E-17	4.435344E-19
5.370058E+03	5.612460E-17	4.453448E-19
5.379966E+03	5.651460E-17	4.475052E-19
5.389874E+03	5.694912E-17	4.500137E-19
5.399782E+03	5.742722E-17	4.528611E-19
5.409690E+03	5.794694E-17	4.560303E-19
5.419598E+03	5.850497E-17	4.594936E-19
5.429506E+03	5.909076E-17	4.631670E-19
5.439413E+03	5.970911E-17	4.670872E-19
5.449321E+03	6.034052E-17	4.711009E-19
5.459229E+03	6.098809E-17	4.752322E-19
5.469137E+03	6.163021E-17	4.793128E-19
5.479045E+03	6.226146E-17	4.833013E-19
5.488953E+03	6.286964E-17	4.871036E-19
5.498861E+03	6.343600E-17	4.905760E-19
5.508768E+03	6.396033E-17	4.937185E-19
5.518676E+03	6.442464E-17	4.963942E-19
5.528584E+03	6.481228E-17	4.984775E-19
5.538492E+03	6.512065E-17	4.999515E-19
5.548400E+03	6.534987E-17	5.008202E-19
5.558308E+03	6.548375E-17	5.009627E-19
5.568216E+03	6.552810E-17	5.004270E-19
5.578123E+03	6.548568E-17	4.992373E-19
5.588031E+03	6.535601E-17	4.973933E-19
5.597939E+03	6.516057E-17	4.950608E-19
5.607847E+03	6.490455E-17	4.922817E-19
5.617755E+03	6.459552E-17	4.891150E-19
5.627663E+03	6.425520E-17	4.857265E-19
5.637571E+03	6.390641E-17	4.822892E-19
5.647478E+03	6.355390E-17	4.788387E-19
5.657386E+03	6.322117E-17	4.755515E-19
5.667294E+03	6.292485E-17	4.725513E-19
5.677202E+03	6.268072E-17	4.699547E-19
5.687110E+03	6.249711E-17	4.678218E-19
5.697018E+03	6.239889E-17	4.663359E-19
5.706926E+03	6.239073E-17	4.655282E-19
5.716833E+03	6.247537E-17	4.654157E-19
5.726741E+03	6.266506E-17	4.660860E-19
5.736649E+03	6.296960E-17	4.676076E-19
5.746557E+03	6.337817E-17	4.698961E-19
5.756465E+03	6.389518E-17	4.729800E-19
5.766373E+03	6.451635E-17	4.768238E-19
5.776281E+03	6.523436E-17	4.813694E-19
5.786188E+03	6.603916E-17	4.865392E-19
5.796096E+03	6.691141E-17	4.921875E-19
5.806004E+03	6.784831E-17	4.982911E-19
5.815912E+03	6.881898E-17	5.046210E-19
5.825820E+03	6.981661E-17	5.111260E-19
5.835728E+03	7.080654E-17	5.175512E-19
5.845636E+03	7.177988E-17	5.238317E-19
5.855543E+03	7.270065E-17	5.297056E-19
5.865451E+03	7.355412E-17	5.350672E-19
5.875359E+03	7.432036E-17	5.397736E-19
5.885267E+03	7.498202E-17	5.437017E-19
5.895175E+03	7.552514E-17	5.467536E-19
5.905083E+03	7.593254E-17	5.488090E-19
5.914991E+03	7.621349E-17	5.499390E-19
5.924898E+03	7.636044E-17	5.500934E-19
5.934806E+03	7.637078E-17	5.492578E-19
5.944714E+03	7.626868E-17	5.476103E-19
5.954622E+03	7.605359E-17	5.451507E-19
5.964530E+03	7.575807E-17	5.421155E-19
5.974438E+03	7.538870E-17	5.385546E-19
5.984346E+03	7.497641E-17	5.346910E-19
5.994253E+03	7.454622E-17	5.307040E-19
6.004161E+03	7.412412E-17	5.267789E-19
6.014069E+03	7.373586E-17	5.230977E-19
6.023977E+03	7.340675E-17	5.198383E-19
6.033885E+03	7.316092E-17	5.171687E-19
6.043793E+03	7.302096E-17	5.152448E-19
6.053701E+03	7.300062E-17	5.141593E-19
6.063608E+03	7.313248E-17	5.141363E-19
6.073516E+03	7.342618E-17	5.152370E-19
6.083424E+03	7.388873E-17	5.175038E-19
6.093332E+03	7.454602E-17	5.211105E-19
6.103240E+03	7.539298E-17	5.260133E-19
6.113148E+03	7.644318E-17	5.322985E-19
6.123056E+03	7.770008E-17	5.399810E-19
6.132963E+03	7.917150E-17	5.491057E-19
6.142871E+03	8.083898E-17	5.595350E-19
6.152779E+03	8.270268E-17	5.712606E-19
6.162687E+03	8.475070E-17	5.841911E-19
6.172595E+03	8.696640E-17	5.982027E-19
6.182503E+03	8.932808E-17	6.131379E-19
6.192411E+03	9.180850E-17	6.288022E-19
6.202318E+03	9.437519E-17	6.449669E-19
6.212226E+03	9.698128E-17	6.613068E-19
6.222134E+03	9.960315E-17	6.776578E-19
6.232042E+03	1.021860E-16	6.936457E-19
6.241950E+03	1.046721E-16	7.088786E-19
6.251858E+03	1.070325E-16	7.231655E-19
6.261766E+03	1.091998E-16	7.360549E-19
6.271673E+03	1.111506E-16	7.473977E-19
6.281581E+03	1.128248E-16	7.567995E-19
6.291489E+03	1.142010E-16	7.641296E-19
6.301397E+03	1.152667E-16	7.693190E-19
6.311305E+03	1.159859E-16	7.721416E-19
6.321213E+03	1.163653E-16	7.726590E-19
6.331121E+03	1.164101E-16	7.709237E-19
6.341028E+03	1.161461E-16	7.671217E-19
6.350936E+03	1.155727E-16	7.612666E-19
6.360844E+03	1.147294E-16	7.536334E-19
6.370752E+03	1.136487E-16	7.444508E-19
6.380660E+03	1.123658E-16	7.339616E-19
6.390568E+03	1.109168E-16	7.224126E-19
6.400476E+03	1.093263E-16	7.099741E-19
6.410383E+03	1.076490E-16	6.970089E-19
6.420291E+03	1.059047E-16	6.836505E-19
6.430199E+03	1.041201E-16	6.700762E-19
6.440107E+03	1.023083E-16	6.563729E-19
6.450015E+03	1.005081E-16	6.427915E-19
6.459923E+03	9.872417E-17	6.293622E-19
6.469831E+03	9.695826E-17	6.160963E-19
6.479738E+03	9.523702E-17	6.031624E-19
6.489646E+03	9.354662E-17	5.904715E-19
6.499554E+03	9.190757E-17	5.781518E-19
6.509462E+03	9.030210E-17	5.660895E-19
6.519370E+03	8.874637E-17	5.543845E-19
6.529278E+03	8.722033E-17	5.429097E-19
6.539186E+03	8.572909E-17	5.316958E-19
6.549093E+03	8.427665E-17	5.207662E-19
6.559001E+03	8.284192E-17	5.099894E-19
6.568909E+03	8.142852E-17	4.993874E-19
6.578817E+03	8.003199E-17	4.889323E-19
6.588725E+03	7.865571E-17	4.786447E-19
6.598633E+03	7.728045E-17	4.684073E-19
6.608541E+03	7.591089E-17	4.582495E-19
6.618448E+03	7.454460E-17	4.481572E-19
6.628356E+03	7.318023E-17	4.381230E-19
6.638264E+03	7.181729E-17	4.281451E-19
6.648172E+03	7.045652E-17	4.182286E-19
6.658080E+03	6.909981E-17	4.083856E-19
6.667988E+03	6.775028E-17	3.986353E-19
6.677896E+03	6.641218E-17	3.890031E-19
6.687803E+03	6.508465E-17	3.794840E-19
6.697711E+03	6.378703E-17	3.701907E-19
6.707619E+03	6.252023E-17	3.611268E-19
6.717527E+03	6.129243E-17	3.523380E-19
6.727435E+03	6.010652E-17	3.438386E-19
6.737343E+03	5.898354E-17	3.357459E-19
6.747251E+03	5.792689E-17	3.280746E-19
6.757158E+03	5.694023E-17	3.208406E-19
6.767066E+03	5.604409E-17	3.141538E-19
6.776974E+03	5.524162E-17	3.080244E-19
6.786882E+03	5.453583E-17	3.024617E-19
6.796790E+03	5.394536E-17	2.975603E-19
6.806698E+03	5.346671E-17	2.932911E-19
6.816606E+03	5.311686E-17	2.897369E-19
6.826513E+03	5.289097E-17	2.868598E-19
6.836421E+03	5.279910E-17	2.847027E-19
6.846329E+03	5.285036E-17	2.833018E-19
6.856237E+03	5.303738E-17	2.826040E-19
6.866145E+03	5.336740E-17	2.826345E-19
6.876053E+03	5.384673E-17	2.834122E-19
6.885961E+03	5.446466E-17	2.848658E-19
6.895868E+03	5.522501E-17	2.870009E-19
6.905776E+03	5.612524E-17	2.897894E-19
6.915684E+03	5.716122E-17	2.931949E-19
6.925592E+03	5.832746E-17	2.971747E-19
6.935500E+03	5.962290E-17	3.017088E-19
6.945408E+03	6.102745E-17	3.066814E-19
6.955316E+03	6.253709E-17	3.120597E-19
6.965223E+03	6.414079E-17	3.177762E-19
6.975131E+03	6.582007E-17	3.237286E-19
6.985039E+03	6.757510E-17	3.299078E-19
6.994947E+03	6.938662E-17	3.362104E-19
7.004855E+03	7.124190E-17	3.425672E-19
7.014763E+03	7.312873E-17	3.489133E-19
7.024671E+03	7.503605E-17	3.551909E-19
7.034578E+03	7.694660E-17	3.613146E-19
7.044486E+03	7.886762E-17	3.673161E-19
7.054394E+03	8.078598E-17	3.731316E-19
7.064302E+03	8.269811E-17	3.787431E-19
7.074210E+03	8.459417E-17	3.841048E-19
7.084118E+03	8.649128E-17	3.892938E-19
7.094026E+03	8.837463E-17	3.942421E-19
7.103933E+03	9.026493E-17	3.990411E-19
7.113841E+03	9.214845E-17	4.036280E-19
7.123749E+03	9.404745E-17	4.080984E-19
7.133657E+03	9.594671E-17	4.123832E-19
7.143565E+03	9.785743E-17	4.165283E-19
7.153473E+03	9.978963E-17	4.205728E-19
7.163381E+03	1.017208E-16	4.244181E-19
7.173288E+03	1.036548E-16	4.280788E-19
7.183196E+03	1.055818E-16	4.315127E-19
7.193104E+03	1.074989E-16	4.347073E-19
7.203012E+03	1.093668E-16	4.375044E-19
7.212920E+03	1.111739E-16	4.398638E-19
7.222828E+03	1.128943E-16	4.416903E-19
7.232736E+03	1.144986E-16	4.428806E-19
7.242643E+03	1.159553E-16	4.433277E-19
7.252551E+03	1.172307E-16	4.429240E-19
7.262459E+03	1.182912E-16	4.415675E-19
7.272367E+03	1.191040E-16	4.391659E-19
7.282275E+03	1.196268E-16	4.355984E-19
7.292183E+03	1.198567E-16	4.308950E-19
7.302091E+03	1.197601E-16	4.249774E-19
7.311998E+03	1.193216E-16	4.178372E-19
7.321906E+03	1.185203E-16	4.094520E-19
7.331814E+03	1.173794E-16	3.999526E-19
7.341722E+03	1.158814E-16	3.893306E-19
7.351630E+03	1.140641E-16	3.777636E-19
7.361538E+03	1.119254E-16	3.652928E-19
7.371446E+03	1.095154E-16	3.521288E-19
7.381353E+03	1.068444E-16	3.383453E-19
7.391261E+03	1.039602E-16	3.241327E-19
7.401169E+03	1.009125E-16	3.096772E-19
7.411077E+03	9.772105E-17	2.950661E-19
7.420985E+03	9.443746E-17	2.804765E-19
7.430893E+03	9.110154E-17	2.660416E-19
7.440801E+03	8.775136E-17	2.518813E-19
7.450708E+03	8.442218E-17	2.381002E-19
7.460616E+03	8.114599E-17	2.247866E-19
7.470524E+03	7.795101E-17	2.120118E-19
7.480432E+03	7.486160E-17	1.998314E-19
7.490340E+03	7.189810E-17	1.882850E-19
7.500248E+03	6.907694E-17	1.773980E-19
7.510156E+03	6.640409E-17	1.671659E-19
7.520063E+03	6.390257E-17	1.576250E-19
7.529971E+03	6.157146E-17	1.487488E-19
7.539879E+03	5.940811E-17	1.405069E-19
7.549787E+03	5.742580E-17	1.329061E-19
7.559695E+03	5.561144E-17	1.258909E-19
7.569603E+03	5.397380E-17	1.194567E-19
7.579511E+03	5.249731E-17	1.135447E-19
7.589418E+03	5.118234E-17	1.081328E-19
7.599326E+03	5.002256E-17	1.031854E-19
7.609234E+03	4.901593E-17	9.867693E-20
7.619142E+03	4.814464E-17	9.455153E-20
7.629050E+03	4.740590E-17	9.078606E-20
7.638958E+03	4.679127E-17	8.734780E-20
7.648866E+03	4.629212E-17	8.420585E-20
7.658773E+03	4.589960E-17	8.133121E-20
7.668681E+03	4.560473E-17	7.869697E-20
7.678589E+03	4.539368E-17	7.627054E-20
7.688497E+03	4.526670E-17	7.404575E-20
