#wls	flux	fluxerr
1.599984E+03	5.285295E-11	2.339569E-13
1.639984E+03	5.500789E-11	2.421676E-13
1.679983E+03	5.688042E-11	2.490062E-13
1.719983E+03	5.841823E-11	2.542623E-13
1.759982E+03	5.956103E-11	2.576973E-13
1.799982E+03	6.021165E-11	2.589216E-13
1.839982E+03	6.025973E-11	2.575008E-13
1.879981E+03	5.959269E-11	2.530053E-13
1.919981E+03	5.811737E-11	2.451021E-13
1.959980E+03	5.580228E-11	2.337299E-13
1.999980E+03	5.274428E-11	2.193682E-13
2.039980E+03	4.923606E-11	2.032963E-13
2.079979E+03	4.577375E-11	1.875945E-13
2.119979E+03	4.293178E-11	1.746010E-13
2.159978E+03	4.110600E-11	1.658600E-13
2.199978E+03	4.030735E-11	1.613209E-13
2.239978E+03	4.017379E-11	1.594475E-13
2.279977E+03	4.018571E-11	1.581288E-13
2.319977E+03	3.995629E-11	1.558409E-13
2.359976E+03	3.927550E-11	1.517975E-13
2.399976E+03	3.817010E-11	1.461502E-13
2.439976E+03	3.690401E-11	1.399478E-13
2.479975E+03	3.591824E-11	1.348665E-13
2.519975E+03	3.574710E-11	1.328627E-13
2.559974E+03	3.694207E-11	1.358720E-13
2.599974E+03	4.006502E-11	1.457775E-13
2.639974E+03	4.559352E-11	1.640630E-13
2.679973E+03	5.353760E-11	1.904635E-13
2.719973E+03	6.300029E-11	2.215132E-13
2.759972E+03	7.222444E-11	2.509003E-13
2.799972E+03	7.933346E-11	2.721979E-13
2.839972E+03	8.320904E-11	2.818763E-13
2.879971E+03	8.380448E-11	2.801944E-13
2.919971E+03	8.184021E-11	2.699630E-13
2.959970E+03	7.836955E-11	2.549573E-13
2.999970E+03	7.444810E-11	2.387760E-13
3.009970E+03	7.349666E-11	2.348726E-13
3.019970E+03	7.257645E-11	2.310882E-13
3.029970E+03	7.169478E-11	2.274450E-13
3.039970E+03	7.085911E-11	2.239651E-13
3.049970E+03	7.007888E-11	2.206770E-13
3.059969E+03	6.936247E-11	2.176050E-13
3.069969E+03	6.871050E-11	2.147489E-13
3.079969E+03	6.812325E-11	2.121074E-13
3.089969E+03	6.759959E-11	2.096748E-13
3.099969E+03	6.713782E-11	2.074437E-13
3.109969E+03	6.673478E-11	2.054021E-13
3.119969E+03	6.638607E-11	2.035347E-13
3.129969E+03	6.608632E-11	2.018230E-13
3.139969E+03	6.582889E-11	2.002452E-13
3.149969E+03	6.560568E-11	1.987753E-13
3.159968E+03	6.540831E-11	1.973869E-13
3.169968E+03	6.522766E-11	1.960515E-13
3.179968E+03	6.505462E-11	1.947414E-13
3.189968E+03	6.488011E-11	1.934294E-13
3.199968E+03	6.469550E-11	1.920898E-13
3.209968E+03	6.449301E-11	1.907001E-13
3.219968E+03	6.426589E-11	1.892411E-13
3.229968E+03	6.400886E-11	1.876984E-13
3.239968E+03	6.371787E-11	1.860612E-13
3.249968E+03	6.339048E-11	1.843238E-13
3.259967E+03	6.302487E-11	1.824823E-13
3.269967E+03	6.262032E-11	1.805361E-13
3.279967E+03	6.217625E-11	1.784852E-13
3.289967E+03	6.169194E-11	1.763288E-13
3.299967E+03	6.116655E-11	1.740664E-13
3.309967E+03	6.059963E-11	1.716982E-13
3.319967E+03	5.999017E-11	1.692230E-13
3.329967E+03	5.933813E-11	1.666423E-13
3.339967E+03	5.864436E-11	1.639602E-13
3.349967E+03	5.791070E-11	1.611836E-13
3.359966E+03	5.713984E-11	1.583213E-13
3.369966E+03	5.633479E-11	1.553833E-13
3.379966E+03	5.549826E-11	1.523784E-13
3.389966E+03	5.463330E-11	1.493160E-13
3.399966E+03	5.374281E-11	1.462054E-13
3.409966E+03	5.283102E-11	1.430590E-13
3.419966E+03	5.190378E-11	1.398935E-13
3.429966E+03	5.096990E-11	1.367331E-13
3.439966E+03	5.004193E-11	1.336117E-13
3.449966E+03	4.913734E-11	1.305756E-13
3.459965E+03	4.827865E-11	1.276836E-13
3.469965E+03	4.749415E-11	1.250083E-13
3.479965E+03	4.681783E-11	1.226361E-13
3.489965E+03	4.628950E-11	1.206668E-13
3.499965E+03	4.595343E-11	1.192097E-13
3.509965E+03	4.585652E-11	1.183785E-13
3.519965E+03	4.604434E-11	1.182813E-13
3.529965E+03	4.655420E-11	1.190028E-13
3.539965E+03	4.740309E-11	1.205741E-13
3.549965E+03	4.856578E-11	1.229185E-13
3.559964E+03	4.994273E-11	1.257735E-13
3.569964E+03	5.131862E-11	1.285918E-13
3.579964E+03	5.232846E-11	1.304633E-13
3.589964E+03	5.250711E-11	1.302484E-13
3.599964E+03	5.155409E-11	1.272366E-13
3.609964E+03	4.966166E-11	1.219430E-13
3.619964E+03	4.728970E-11	1.155262E-13
3.629964E+03	4.483621E-11	1.089714E-13
3.639964E+03	4.254783E-11	1.028782E-13
3.649964E+03	4.054463E-11	9.752896E-14
3.659963E+03	3.886505E-11	9.300502E-14
3.669963E+03	3.750257E-11	8.927870E-14
3.679963E+03	3.642937E-11	8.627223E-14
3.689963E+03	3.561010E-11	8.389155E-14
3.699963E+03	3.500943E-11	8.204445E-14
3.709963E+03	3.459578E-11	8.064924E-14
3.719963E+03	3.434311E-11	7.963864E-14
3.729963E+03	3.423246E-11	7.896300E-14
3.739963E+03	3.425160E-11	7.858913E-14
3.749963E+03	3.439652E-11	7.850320E-14
3.759962E+03	3.467082E-11	7.870885E-14
3.769962E+03	3.508561E-11	7.922658E-14
3.779962E+03	3.565920E-11	8.009256E-14
3.789962E+03	3.641310E-11	8.134925E-14
3.799962E+03	3.736886E-11	8.303826E-14
3.809962E+03	3.854861E-11	8.520150E-14
3.819962E+03	3.996717E-11	8.786382E-14
3.829962E+03	4.161023E-11	9.098580E-14
3.839962E+03	4.344609E-11	9.449095E-14
3.849962E+03	4.542652E-11	9.826858E-14
3.859961E+03	4.747198E-11	1.021430E-13
3.869961E+03	4.947773E-11	1.058883E-13
3.879961E+03	5.133975E-11	1.092851E-13
3.889961E+03	5.299722E-11	1.122099E-13
3.899961E+03	5.440894E-11	1.145835E-13
3.909961E+03	5.556411E-11	1.163923E-13
3.919961E+03	5.653278E-11	1.177910E-13
3.929961E+03	5.742269E-11	1.190099E-13
3.939961E+03	5.834945E-11	1.202901E-13
3.949961E+03	5.942951E-11	1.218697E-13
3.959960E+03	6.077584E-11	1.239747E-13
3.969960E+03	6.246931E-11	1.267611E-13
3.979960E+03	6.451281E-11	1.302244E-13
3.989960E+03	6.685267E-11	1.342464E-13
3.999960E+03	6.938852E-11	1.386185E-13
4.009960E+03	7.196561E-11	1.430279E-13
4.019960E+03	7.436800E-11	1.470476E-13
4.029960E+03	7.635231E-11	1.502053E-13
4.039960E+03	7.771655E-11	1.521191E-13
4.049960E+03	7.827547E-11	1.524476E-13
4.059959E+03	7.789206E-11	1.509493E-13
4.069959E+03	7.656495E-11	1.476491E-13
4.079959E+03	7.436742E-11	1.427144E-13
4.089959E+03	7.144047E-11	1.364381E-13
4.099959E+03	6.802713E-11	1.293016E-13
4.109959E+03	6.439086E-11	1.218151E-13
4.119959E+03	6.078414E-11	1.144588E-13
4.129959E+03	5.746607E-11	1.077161E-13
4.139959E+03	5.466093E-11	1.019965E-13
4.149959E+03	5.253578E-11	9.759642E-14
4.159958E+03	5.119607E-11	9.469307E-14
4.169958E+03	5.073894E-11	9.344582E-14
4.179958E+03	5.124183E-11	9.397569E-14
4.189958E+03	5.267872E-11	9.621345E-14
4.199958E+03	5.500893E-11	1.000650E-13
4.209958E+03	5.818320E-11	1.054230E-13
4.219958E+03	6.206476E-11	1.120247E-13
4.229958E+03	6.643695E-11	1.194683E-13
4.239958E+03	7.104566E-11	1.272918E-13
4.249958E+03	7.566465E-11	1.350898E-13
4.259957E+03	8.003367E-11	1.424025E-13
4.269957E+03	8.388259E-11	1.487587E-13
4.279957E+03	8.706823E-11	1.539174E-13
4.289957E+03	8.945575E-11	1.576548E-13
4.299957E+03	9.089939E-11	1.597298E-13
4.309957E+03	9.139125E-11	1.601445E-13
4.319957E+03	9.091947E-11	1.588932E-13
4.329957E+03	8.946992E-11	1.559647E-13
4.339957E+03	8.720213E-11	1.516486E-13
4.349957E+03	8.430159E-11	1.462756E-13
4.359956E+03	8.103867E-11	1.403193E-13
4.369956E+03	7.797493E-11	1.347518E-13
4.379956E+03	7.575319E-11	1.306779E-13
4.389956E+03	7.500834E-11	1.291815E-13
4.399956E+03	7.573750E-11	1.302448E-13
4.409956E+03	7.719131E-11	1.325701E-13
4.419956E+03	7.874622E-11	1.350837E-13
4.429956E+03	8.021924E-11	1.374722E-13
4.439956E+03	8.159956E-11	1.397184E-13
4.449956E+03	8.288535E-11	1.418203E-13
4.459955E+03	8.409928E-11	1.438176E-13
4.469955E+03	8.521156E-11	1.456600E-13
4.479955E+03	8.613797E-11	1.472043E-13
4.489955E+03	8.681695E-11	1.483458E-13
4.499955E+03	8.713800E-11	1.488959E-13
4.509955E+03	8.694976E-11	1.485956E-13
4.519955E+03	8.615609E-11	1.472797E-13
4.529955E+03	8.466364E-11	1.447866E-13
4.539955E+03	8.238428E-11	1.409628E-13
4.549955E+03	7.930489E-11	1.357817E-13
4.559954E+03	7.546724E-11	1.293100E-13
4.569954E+03	7.098320E-11	1.217337E-13
4.579954E+03	6.607963E-11	1.134365E-13
4.589954E+03	6.103749E-11	1.048959E-13
4.599954E+03	5.613782E-11	9.659154E-14
4.609954E+03	5.163179E-11	8.895408E-14
4.619954E+03	4.775178E-11	8.238449E-14
4.629954E+03	4.467011E-11	7.718280E-14
4.639954E+03	4.244375E-11	7.345206E-14
4.649954E+03	4.113069E-11	7.129849E-14
4.659953E+03	4.079394E-11	7.083861E-14
4.669953E+03	4.142299E-11	7.206267E-14
4.679953E+03	4.302419E-11	7.499098E-14
4.689953E+03	4.563101E-11	7.969212E-14
4.699953E+03	4.921921E-11	8.613485E-14
4.709953E+03	5.371128E-11	9.419490E-14
4.719953E+03	5.897755E-11	1.036558E-13
4.729953E+03	6.485302E-11	1.142372E-13
4.739953E+03	7.105383E-11	1.254470E-13
4.749953E+03	7.719962E-11	1.366174E-13
4.759952E+03	8.301479E-11	1.472606E-13
4.769952E+03	8.823297E-11	1.568999E-13
4.779952E+03	9.259300E-11	1.650630E-13
4.789952E+03	9.598994E-11	1.715518E-13
4.799952E+03	9.840403E-11	1.763183E-13
4.809952E+03	9.986517E-11	1.794027E-13
4.819952E+03	1.004989E-10	1.810178E-13
4.829952E+03	1.004615E-10	1.814339E-13
4.839952E+03	9.990656E-11	1.809188E-13
4.849952E+03	9.898397E-11	1.797367E-13
4.859951E+03	9.783071E-11	1.781311E-13
4.869951E+03	9.655391E-11	1.762936E-13
4.879951E+03	9.522101E-11	1.743451E-13
4.889951E+03	9.386770E-11	1.723499E-13
4.899951E+03	9.251125E-11	1.703389E-13
4.909951E+03	9.114682E-11	1.683027E-13
4.919951E+03	8.974568E-11	1.661874E-13
4.929951E+03	8.827181E-11	1.639252E-13
4.939951E+03	8.671115E-11	1.614884E-13
4.949951E+03	8.505222E-11	1.588536E-13
4.959950E+03	8.328868E-11	1.560071E-13
4.969950E+03	8.146454E-11	1.530295E-13
4.979950E+03	7.963666E-11	1.500265E-13
4.989950E+03	7.786153E-11	1.471047E-13
4.999950E+03	7.619171E-11	1.443641E-13
5.009950E+03	7.468377E-11	1.419137E-13
5.019950E+03	7.338664E-11	1.398491E-13
5.029950E+03	7.231522E-11	1.382021E-13
5.039950E+03	7.147094E-11	1.369789E-13
5.049950E+03	7.085024E-11	1.361762E-13
5.059949E+03	7.044419E-11	1.357805E-13
5.069949E+03	7.022562E-11	1.357424E-13
5.079949E+03	7.015686E-11	1.359919E-13
5.089949E+03	7.021712E-11	1.364910E-13
5.099949E+03	7.037294E-11	1.371763E-13
5.109949E+03	7.058662E-11	1.379756E-13
5.119949E+03	7.083657E-11	1.388474E-13
5.129949E+03	7.110234E-11	1.397520E-13
5.139949E+03	7.136552E-11	1.406532E-13
5.149949E+03	7.162390E-11	1.415465E-13
5.159948E+03	7.187870E-11	1.424341E-13
5.169948E+03	7.211936E-11	1.432948E-13
5.179948E+03	7.230682E-11	1.440505E-13
5.189948E+03	7.239234E-11	1.446029E-13
5.199948E+03	7.233202E-11	1.448624E-13
5.209948E+03	7.209905E-11	1.447727E-13
5.219948E+03	7.167361E-11	1.442912E-13
5.229948E+03	7.105746E-11	1.434183E-13
5.239948E+03	7.030522E-11	1.422617E-13
5.249948E+03	6.947738E-11	1.409419E-13
5.259947E+03	6.861769E-11	1.395468E-13
5.269947E+03	6.776849E-11	1.381622E-13
5.279947E+03	6.695335E-11	1.368365E-13
5.289947E+03	6.617841E-11	1.355827E-13
5.299947E+03	6.542753E-11	1.343685E-13
5.309947E+03	6.467564E-11	1.331425E-13
5.319947E+03	6.391050E-11	1.318794E-13
5.329947E+03	6.313798E-11	1.305915E-13
5.339947E+03	6.237316E-11	1.293097E-13
5.349947E+03	6.162851E-11	1.280602E-13
5.359946E+03	6.091511E-11	1.268664E-13
5.369946E+03	6.024266E-11	1.257491E-13
5.379946E+03	5.961972E-11	1.247267E-13
5.389946E+03	5.904557E-11	1.237986E-13
5.399946E+03	5.852508E-11	1.229756E-13
5.409946E+03	5.807564E-11	1.222952E-13
5.419946E+03	5.772676E-11	1.218207E-13
5.429946E+03	5.751895E-11	1.216390E-13
5.439946E+03	5.747997E-11	1.218109E-13
5.449946E+03	5.761796E-11	1.223558E-13
5.459945E+03	5.792217E-11	1.232530E-13
5.469945E+03	5.832587E-11	1.243624E-13
5.479945E+03	5.863742E-11	1.252756E-13
5.489945E+03	5.862016E-11	1.254847E-13
5.499945E+03	5.814186E-11	1.247019E-13
5.509945E+03	5.733315E-11	1.232022E-13
5.519945E+03	5.636569E-11	1.213512E-13
5.529945E+03	5.538608E-11	1.194632E-13
5.539945E+03	5.447502E-11	1.177125E-13
5.549945E+03	5.367531E-11	1.161927E-13
5.559944E+03	5.300805E-11	1.149509E-13
5.569944E+03	5.247384E-11	1.139900E-13
5.579944E+03	5.205809E-11	1.132798E-13
5.589944E+03	5.174328E-11	1.127834E-13
5.599944E+03	5.152289E-11	1.124877E-13
5.609944E+03	5.138762E-11	1.123733E-13
5.619944E+03	5.132284E-11	1.124092E-13
5.629944E+03	5.131347E-11	1.125628E-13
5.639944E+03	5.134048E-11	1.127930E-13
5.649944E+03	5.138382E-11	1.130559E-13
5.659943E+03	5.142138E-11	1.133029E-13
5.669943E+03	5.143567E-11	1.134953E-13
5.679943E+03	5.141325E-11	1.136032E-13
5.689943E+03	5.134613E-11	1.136084E-13
5.699943E+03	5.123115E-11	1.135036E-13
5.709943E+03	5.107645E-11	1.133064E-13
5.719943E+03	5.090434E-11	1.130660E-13
5.729943E+03	5.074125E-11	1.128410E-13
5.739943E+03	5.060836E-11	1.126787E-13
5.749943E+03	5.051463E-11	1.125992E-13
5.759942E+03	5.046190E-11	1.126070E-13
5.769942E+03	5.044494E-11	1.126906E-13
5.779942E+03	5.045498E-11	1.128308E-13
5.789942E+03	5.047882E-11	1.129980E-13
5.799942E+03	5.050292E-11	1.131620E-13
5.809942E+03	5.051212E-11	1.132888E-13
5.819942E+03	5.049366E-11	1.133496E-13
5.829942E+03	5.043747E-11	1.133216E-13
5.839942E+03	5.033145E-11	1.131774E-13
5.849942E+03	5.017049E-11	1.129052E-13
5.859941E+03	4.996131E-11	1.125198E-13
5.869941E+03	4.971266E-11	1.120407E-13
5.879941E+03	4.944443E-11	1.115127E-13
5.889941E+03	4.918039E-11	1.109893E-13
5.899941E+03	4.893332E-11	1.104996E-13
5.909941E+03	4.871766E-11	1.100761E-13
5.919941E+03	4.854365E-11	1.097422E-13
5.929941E+03	4.840340E-11	1.094804E-13
5.939941E+03	4.828579E-11	1.092654E-13
5.949941E+03	4.818283E-11	1.090794E-13
5.959940E+03	4.808313E-11	1.088966E-13
5.969940E+03	4.797716E-11	1.086955E-13
5.979940E+03	4.785791E-11	1.084601E-13
5.989940E+03	4.770829E-11	1.081517E-13
5.999940E+03	4.751330E-11	1.077362E-13
6.009940E+03	4.725700E-11	1.071775E-13
6.019940E+03	4.692153E-11	1.064351E-13
6.029940E+03	4.648770E-11	1.054654E-13
6.039940E+03	4.594006E-11	1.042333E-13
6.049940E+03	4.526708E-11	1.027128E-13
6.059939E+03	4.446195E-11	1.008884E-13
6.069939E+03	4.351770E-11	9.874470E-14
6.079939E+03	4.243585E-11	9.628521E-14
6.089939E+03	4.122170E-11	9.352235E-14
6.099939E+03	3.988508E-11	9.047880E-14
6.109939E+03	3.843879E-11	8.718401E-14
6.119939E+03	3.690442E-11	8.368744E-14
6.129939E+03	3.531572E-11	8.006610E-14
6.139939E+03	3.370878E-11	7.640231E-14
6.149939E+03	3.213205E-11	7.280626E-14
6.159938E+03	3.063725E-11	6.939543E-14
6.169938E+03	2.926240E-11	6.625613E-14
6.179938E+03	2.805076E-11	6.348627E-14
6.189938E+03	2.704729E-11	6.118741E-14
6.199938E+03	2.627266E-11	5.940591E-14
6.209938E+03	2.575623E-11	5.820756E-14
6.219938E+03	2.552987E-11	5.766354E-14
6.229938E+03	2.559873E-11	5.778446E-14
6.239938E+03	2.597881E-11	5.860520E-14
6.249938E+03	2.670093E-11	6.019380E-14
6.259937E+03	2.777709E-11	6.257556E-14
6.269937E+03	2.923238E-11	6.580508E-14
6.279937E+03	3.110610E-11	6.996847E-14
6.289937E+03	3.341748E-11	7.510633E-14
6.299937E+03	3.618256E-11	8.125174E-14
6.309937E+03	3.942051E-11	8.844446E-14
6.319937E+03	4.313727E-11	9.669427E-14
6.329937E+03	4.731680E-11	1.059614E-13
6.339937E+03	5.193112E-11	1.161794E-13
6.349937E+03	5.696647E-11	1.273135E-13
6.359936E+03	6.237626E-11	1.392557E-13
6.369936E+03	6.805596E-11	1.517690E-13
6.379936E+03	7.388284E-11	1.645769E-13
6.389936E+03	7.964388E-11	1.772030E-13
6.399936E+03	8.503000E-11	1.889596E-13
6.409936E+03	8.976587E-11	1.992377E-13
6.419936E+03	9.352718E-11	2.073226E-13
6.429936E+03	9.594084E-11	2.123959E-13
6.439936E+03	9.674666E-11	2.138936E-13
6.449936E+03	9.575062E-11	2.114014E-13
6.459935E+03	9.289296E-11	2.048043E-13
6.469935E+03	8.842999E-11	1.946845E-13
6.479935E+03	8.276532E-11	1.819455E-13
6.489935E+03	7.645444E-11	1.678196E-13
6.499935E+03	7.028039E-11	1.540304E-13
6.509935E+03	6.495980E-11	1.421462E-13
6.519935E+03	6.116721E-11	1.336327E-13
6.529935E+03	5.966844E-11	1.301450E-13
6.539935E+03	6.053216E-11	1.318083E-13
6.549935E+03	6.303106E-11	1.370157E-13
6.559934E+03	6.656311E-11	1.444419E-13
6.569934E+03	7.059140E-11	1.529115E-13
6.579934E+03	7.458224E-11	1.612639E-13
6.589934E+03	7.818311E-11	1.687379E-13
6.599934E+03	8.113712E-11	1.747840E-13
6.609934E+03	8.325166E-11	1.789953E-13
6.619934E+03	8.448521E-11	1.812927E-13
6.629934E+03	8.487440E-11	1.817654E-13
6.639934E+03	8.450386E-11	1.806051E-13
6.649934E+03	8.351466E-11	1.781226E-13
6.659933E+03	8.205422E-11	1.746401E-13
6.669933E+03	8.026228E-11	1.704609E-13
6.679933E+03	7.826133E-11	1.658497E-13
6.689933E+03	7.615611E-11	1.610310E-13
6.699933E+03	7.401709E-11	1.561557E-13
6.709933E+03	7.190330E-11	1.513487E-13
6.719933E+03	6.985272E-11	1.466901E-13
6.729933E+03	6.788267E-11	1.422156E-13
6.739933E+03	6.600851E-11	1.379564E-13
6.749933E+03	6.423009E-11	1.339114E-13
6.759932E+03	6.254569E-11	1.300757E-13
6.769932E+03	6.095749E-11	1.264529E-13
6.779932E+03	5.946688E-11	1.230447E-13
6.789932E+03	5.806790E-11	1.198375E-13
6.799932E+03	5.676149E-11	1.168320E-13
6.809932E+03	5.554592E-11	1.140236E-13
6.819932E+03	5.441763E-11	1.114036E-13
6.829932E+03	5.337569E-11	1.089691E-13
6.839932E+03	5.241831E-11	1.067150E-13
6.849932E+03	5.154375E-11	1.046367E-13
6.859931E+03	5.075933E-11	1.027478E-13
6.869931E+03	5.007088E-11	1.010586E-13
6.879931E+03	4.948361E-11	9.957805E-14
6.889931E+03	4.899810E-11	9.830568E-14
6.899931E+03	4.861014E-11	9.723137E-14
6.909931E+03	4.831702E-11	9.634803E-14
6.919931E+03	4.810569E-11	9.562809E-14
6.929931E+03	4.796509E-11	9.504818E-14
6.939931E+03	4.787880E-11	9.457463E-14
6.949931E+03	4.783461E-11	9.418245E-14
6.959930E+03	4.781688E-11	9.384018E-14
6.969930E+03	4.781218E-11	9.352113E-14
6.979930E+03	4.781049E-11	9.320558E-14
6.989930E+03	4.780623E-11	9.288268E-14
6.999930E+03	4.779037E-11	9.253507E-14
7.009930E+03	4.775879E-11	9.215513E-14
7.019930E+03	4.770679E-11	9.173420E-14
7.029930E+03	4.762882E-11	9.126216E-14
7.039930E+03	4.752166E-11	9.073345E-14
7.049930E+03	4.738375E-11	9.014585E-14
7.059929E+03	4.721350E-11	8.949707E-14
7.069929E+03	4.700965E-11	8.878547E-14
7.079929E+03	4.677339E-11	8.801415E-14
7.089929E+03	4.650751E-11	8.718915E-14
7.099929E+03	4.621607E-11	8.631876E-14
7.109929E+03	4.590426E-11	8.541335E-14
7.119929E+03	4.557862E-11	8.448557E-14
7.129929E+03	4.524280E-11	8.354262E-14
7.139929E+03	4.490352E-11	8.259722E-14
7.149929E+03	4.456775E-11	8.166233E-14
7.159928E+03	4.423884E-11	8.074414E-14
7.169928E+03	4.392647E-11	7.986025E-14
7.179928E+03	4.363492E-11	7.901819E-14
7.189928E+03	4.336968E-11	7.822756E-14
7.199928E+03	4.313383E-11	7.749348E-14
7.209928E+03	4.293194E-11	7.682364E-14
7.219928E+03	4.276470E-11	7.621866E-14
7.229928E+03	4.263348E-11	7.568039E-14
7.239928E+03	4.254063E-11	7.521239E-14
7.249928E+03	4.248568E-11	7.481315E-14
7.259927E+03	4.246929E-11	7.448318E-14
7.269927E+03	4.249281E-11	7.422418E-14
7.279927E+03	4.255236E-11	7.402875E-14
7.289927E+03	4.264669E-11	7.389414E-14
7.299927E+03	4.277330E-11	7.381551E-14
7.309927E+03	4.292781E-11	7.378483E-14
7.319927E+03	4.310540E-11	7.379353E-14
7.329927E+03	4.330166E-11	7.383385E-14
7.339927E+03	4.351151E-11	7.389697E-14
7.349927E+03	4.373113E-11	7.397645E-14
7.359926E+03	4.395803E-11	7.406814E-14
7.369926E+03	4.418891E-11	7.416665E-14
7.379926E+03	4.441855E-11	7.426346E-14
7.389926E+03	4.464615E-11	7.435755E-14
7.399926E+03	4.486787E-11	7.444290E-14
7.409926E+03	4.508112E-11	7.451568E-14
7.419926E+03	4.528234E-11	7.457050E-14
7.429926E+03	4.547149E-11	7.460784E-14
7.439926E+03	4.564425E-11	7.462121E-14
7.449926E+03	4.579981E-11	7.460992E-14
7.459925E+03	4.593645E-11	7.457183E-14
7.469925E+03	4.605146E-11	7.450322E-14
7.479925E+03	4.614573E-11	7.440626E-14
7.489925E+03	4.621573E-11	7.427592E-14
7.499925E+03	4.626267E-11	7.411491E-14
7.509925E+03	4.628449E-11	7.392061E-14
7.519925E+03	4.628042E-11	7.369252E-14
7.529925E+03	4.625112E-11	7.343236E-14
7.539925E+03	4.619511E-11	7.313847E-14
7.549925E+03	4.611356E-11	7.281336E-14
7.559924E+03	4.600687E-11	7.245827E-14
7.569924E+03	4.587583E-11	7.207501E-14
7.579924E+03	4.572169E-11	7.166610E-14
7.589924E+03	4.554494E-11	7.123278E-14
7.599924E+03	4.534998E-11	7.078240E-14
7.609924E+03	4.513792E-11	7.031706E-14
7.619924E+03	4.491246E-11	6.984284E-14
7.629924E+03	4.467381E-11	6.936035E-14
7.639924E+03	4.442694E-11	6.887758E-14
7.649924E+03	4.417329E-11	6.839691E-14
7.659923E+03	4.391659E-11	6.792429E-14
7.669923E+03	4.365814E-11	6.746187E-14
7.679923E+03	4.340157E-11	6.701534E-14
7.689923E+03	4.314807E-11	6.658661E-14
7.699923E+03	4.289993E-11	6.617932E-14
7.709923E+03	4.266056E-11	6.579875E-14
7.719923E+03	4.243214E-11	6.544835E-14
7.729923E+03	4.221561E-11	6.512961E-14
7.739923E+03	4.201418E-11	6.484759E-14
7.749923E+03	4.182871E-11	6.460369E-14
7.759922E+03	4.166232E-11	6.440287E-14
