#wls	flux	fluxerr
1.599984E+03	5.717751E-13	3.620557E-14
1.639984E+03	5.689142E-13	3.579979E-14
1.679983E+03	5.642012E-13	3.527532E-14
1.719983E+03	5.581609E-13	3.466703E-14
1.759982E+03	5.502591E-13	3.394369E-14
1.799982E+03	5.408114E-13	3.312714E-14
1.839982E+03	5.286101E-13	3.214614E-14
1.879981E+03	5.135567E-13	3.099866E-14
1.919981E+03	4.953679E-13	2.967198E-14
1.959980E+03	4.735132E-13	2.813939E-14
1.999980E+03	4.489719E-13	2.646441E-14
2.039980E+03	4.241520E-13	2.479238E-14
2.079979E+03	4.028315E-13	2.334335E-14
2.119979E+03	3.901311E-13	2.240677E-14
2.159978E+03	3.901246E-13	2.220154E-14
2.199978E+03	4.049457E-13	2.282789E-14
2.239978E+03	4.335640E-13	2.420389E-14
2.279977E+03	4.735478E-13	2.617148E-14
2.319977E+03	5.216903E-13	2.853480E-14
2.359976E+03	5.763456E-13	3.118911E-14
2.399976E+03	6.360115E-13	3.404069E-14
2.439976E+03	7.006224E-13	3.707498E-14
2.479975E+03	7.702951E-13	4.028676E-14
2.519975E+03	8.459240E-13	4.371032E-14
2.559974E+03	9.285927E-13	4.738695E-14
2.599974E+03	1.019142E-12	5.134237E-14
2.639974E+03	1.118282E-12	5.559313E-14
2.679973E+03	1.226834E-12	6.015866E-14
2.719973E+03	1.345058E-12	6.502828E-14
2.759972E+03	1.473597E-12	7.020825E-14
2.799972E+03	1.611677E-12	7.563574E-14
2.839972E+03	1.758807E-12	8.126249E-14
2.879971E+03	1.914522E-12	8.704209E-14
2.919971E+03	2.076627E-12	9.285173E-14
2.959970E+03	2.244185E-12	9.862978E-14
2.999970E+03	2.414422E-12	1.042380E-13
3.009970E+03	2.457246E-12	1.056054E-13
3.019970E+03	2.500066E-12	1.069541E-13
3.029970E+03	2.542325E-12	1.082600E-13
3.039970E+03	2.585000E-12	1.095649E-13
3.049970E+03	2.627204E-12	1.108311E-13
3.059969E+03	2.670061E-12	1.121058E-13
3.069969E+03	2.712956E-12	1.133630E-13
3.079969E+03	2.755262E-12	1.145765E-13
3.089969E+03	2.797882E-12	1.157838E-13
3.099969E+03	2.840191E-12	1.169589E-13
3.109969E+03	2.882071E-12	1.180972E-13
3.119969E+03	2.923924E-12	1.192152E-13
3.129969E+03	2.964597E-12	1.202660E-13
3.139969E+03	3.005009E-12	1.212874E-13
3.149969E+03	3.045047E-12	1.222749E-13
3.159968E+03	3.083550E-12	1.231822E-13
3.169968E+03	3.121444E-12	1.240472E-13
3.179968E+03	3.158613E-12	1.248655E-13
3.189968E+03	3.194420E-12	1.256123E-13
3.199968E+03	3.228748E-12	1.262840E-13
3.209968E+03	3.262006E-12	1.268974E-13
3.219968E+03	3.294083E-12	1.274486E-13
3.229968E+03	3.324345E-12	1.279141E-13
3.239968E+03	3.353717E-12	1.283303E-13
3.249968E+03	3.381062E-12	1.286544E-13
3.259967E+03	3.406277E-12	1.288839E-13
3.269967E+03	3.430289E-12	1.290550E-13
3.279967E+03	3.452487E-12	1.291455E-13
3.289967E+03	3.472773E-12	1.291529E-13
3.299967E+03	3.491067E-12	1.290755E-13
3.309967E+03	3.507289E-12	1.289116E-13
3.319967E+03	3.521360E-12	1.286597E-13
3.329967E+03	3.533711E-12	1.283368E-13
3.339967E+03	3.543787E-12	1.279240E-13
3.349967E+03	3.552018E-12	1.274383E-13
3.359966E+03	3.557893E-12	1.268625E-13
3.369966E+03	3.561849E-12	1.262139E-13
3.379966E+03	3.563866E-12	1.254929E-13
3.389966E+03	3.563479E-12	1.246846E-13
3.399966E+03	3.561603E-12	1.238226E-13
3.409966E+03	3.557365E-12	1.228775E-13
3.419966E+03	3.551681E-12	1.218825E-13
3.429966E+03	3.544166E-12	1.208254E-13
3.439966E+03	3.535306E-12	1.197241E-13
3.449966E+03	3.524769E-12	1.185682E-13
3.459965E+03	3.512671E-12	1.173629E-13
3.469965E+03	3.499929E-12	1.161397E-13
3.479965E+03	3.485891E-12	1.148775E-13
3.489965E+03	3.471486E-12	1.136078E-13
3.499965E+03	3.456141E-12	1.123122E-13
3.509965E+03	3.440800E-12	1.110218E-13
3.519965E+03	3.425320E-12	1.097322E-13
3.529965E+03	3.410296E-12	1.084624E-13
3.539965E+03	3.395986E-12	1.072202E-13
3.549965E+03	3.382344E-12	1.060039E-13
3.559964E+03	3.370348E-12	1.048434E-13
3.569964E+03	3.359688E-12	1.037281E-13
3.579964E+03	3.351686E-12	1.026975E-13
3.589964E+03	3.345801E-12	1.017334E-13
3.599964E+03	3.343394E-12	1.008755E-13
3.609964E+03	3.344313E-12	1.001166E-13
3.619964E+03	3.349349E-12	9.947816E-14
3.629964E+03	3.359037E-12	9.897291E-14
3.639964E+03	3.374241E-12	9.862285E-14
3.649964E+03	3.395310E-12	9.843422E-14
3.659963E+03	3.423208E-12	9.843060E-14
3.669963E+03	3.458416E-12	9.862081E-14
3.679963E+03	3.502031E-12	9.903069E-14
3.689963E+03	3.555227E-12	9.968713E-14
3.699963E+03	3.618473E-12	1.005963E-13
3.709963E+03	3.693417E-12	1.017964E-13
3.719963E+03	3.781299E-12	1.033129E-13
3.729963E+03	3.883240E-12	1.051668E-13
3.739963E+03	4.001064E-12	1.073968E-13
3.749963E+03	4.136507E-12	1.100376E-13
3.759962E+03	4.291526E-12	1.131280E-13
3.769962E+03	4.468588E-12	1.167182E-13
3.779962E+03	4.669857E-12	1.208482E-13
3.789962E+03	4.898339E-12	1.255773E-13
3.799962E+03	5.157042E-12	1.309621E-13
3.809962E+03	5.448956E-12	1.370556E-13
3.819962E+03	5.778295E-12	1.439387E-13
3.829962E+03	6.148588E-12	1.516709E-13
3.839962E+03	6.564244E-12	1.603300E-13
3.849962E+03	7.029098E-12	1.699754E-13
3.859961E+03	7.548122E-12	1.806902E-13
3.869961E+03	8.124610E-12	1.925126E-13
3.879961E+03	8.762647E-12	2.054963E-13
3.889961E+03	9.465787E-12	2.196786E-13
3.899961E+03	1.023577E-11	2.350517E-13
3.909961E+03	1.107401E-11	2.515988E-13
3.919961E+03	1.197930E-11	2.692425E-13
3.929961E+03	1.294948E-11	2.878860E-13
3.939961E+03	1.398023E-11	3.073864E-13
3.949961E+03	1.506282E-11	3.275096E-13
3.959960E+03	1.618831E-11	3.480258E-13
3.969960E+03	1.734321E-11	3.686170E-13
3.979960E+03	1.851213E-11	3.889387E-13
3.989960E+03	1.967891E-11	4.086456E-13
3.999960E+03	2.082143E-11	4.272860E-13
4.009960E+03	2.192043E-11	4.444877E-13
4.019960E+03	2.295224E-11	4.598096E-13
4.029960E+03	2.389249E-11	4.728192E-13
4.039960E+03	2.471874E-11	4.831462E-13
4.049960E+03	2.541040E-11	4.904778E-13
4.059959E+03	2.594799E-11	4.945421E-13
4.069959E+03	2.632034E-11	4.952425E-13
4.079959E+03	2.652418E-11	4.926399E-13
4.089959E+03	2.656392E-11	4.869391E-13
4.099959E+03	2.645797E-11	4.785935E-13
4.109959E+03	2.623449E-11	4.682123E-13
4.119959E+03	2.592660E-11	4.564642E-13
4.129959E+03	2.557462E-11	4.441117E-13
4.139959E+03	2.521919E-11	4.318828E-13
4.149959E+03	2.489770E-11	4.204120E-13
4.159958E+03	2.464458E-11	4.102486E-13
4.169958E+03	2.448823E-11	4.018105E-13
4.179958E+03	2.445360E-11	3.954330E-13
4.189958E+03	2.456230E-11	3.913745E-13
4.199958E+03	2.483382E-11	3.898413E-13
4.209958E+03	2.528632E-11	3.910009E-13
4.219958E+03	2.593890E-11	3.950195E-13
4.229958E+03	2.681197E-11	4.020662E-13
4.239958E+03	2.792737E-11	4.123140E-13
4.249958E+03	2.931058E-11	4.259703E-13
4.259957E+03	3.098679E-11	4.432172E-13
4.269957E+03	3.298223E-11	4.642307E-13
4.279957E+03	3.531992E-11	4.891223E-13
4.289957E+03	3.801578E-11	5.178891E-13
4.299957E+03	4.107080E-11	5.503177E-13
4.309957E+03	4.446704E-11	5.859500E-13
4.319957E+03	4.815516E-11	6.239410E-13
4.329957E+03	5.205099E-11	6.630511E-13
4.339957E+03	5.602774E-11	7.015848E-13
4.349957E+03	5.991628E-11	7.374388E-13
4.359956E+03	6.351354E-11	7.682460E-13
4.369956E+03	6.660547E-11	7.916804E-13
4.379956E+03	6.898313E-11	8.056507E-13
4.389956E+03	7.048450E-11	8.087697E-13
4.399956E+03	7.109219E-11	8.014011E-13
4.409956E+03	7.093778E-11	7.855590E-13
4.419956E+03	7.021716E-11	7.638385E-13
4.429956E+03	6.915459E-11	7.389733E-13
4.439956E+03	6.798438E-11	7.136216E-13
4.449956E+03	6.692607E-11	6.901083E-13
4.459955E+03	6.617382E-11	6.703386E-13
4.469955E+03	6.589603E-11	6.558260E-13
4.479955E+03	6.622624E-11	6.476336E-13
4.489955E+03	6.727294E-11	6.465059E-13
4.499955E+03	6.912113E-11	6.529110E-13
4.509955E+03	7.183965E-11	6.671344E-13
4.519955E+03	7.548116E-11	6.892965E-13
4.529955E+03	8.007749E-11	7.193287E-13
4.539955E+03	8.563043E-11	7.569119E-13
4.549955E+03	9.209594E-11	8.013627E-13
4.559954E+03	9.938168E-11	8.516459E-13
4.569954E+03	1.073421E-10	9.063611E-13
4.579954E+03	1.157814E-10	9.637971E-13
4.589954E+03	1.244714E-10	1.022095E-12
4.599954E+03	1.331683E-10	1.079393E-12
4.609954E+03	1.416380E-10	1.134019E-12
4.619954E+03	1.496777E-10	1.184637E-12
4.629954E+03	1.570980E-10	1.230079E-12
4.639954E+03	1.637266E-10	1.269352E-12
4.649954E+03	1.694061E-10	1.301569E-12
4.659953E+03	1.740027E-10	1.325985E-12
4.669953E+03	1.773993E-10	1.341960E-12
4.679953E+03	1.795126E-10	1.349080E-12
4.689953E+03	1.803058E-10	1.347236E-12
4.699953E+03	1.797892E-10	1.336627E-12
4.709953E+03	1.780384E-10	1.317882E-12
4.719953E+03	1.751884E-10	1.292023E-12
4.729953E+03	1.714314E-10	1.260442E-12
4.739953E+03	1.670060E-10	1.224836E-12
4.749953E+03	1.621792E-10	1.187074E-12
4.759952E+03	1.572259E-10	1.149068E-12
4.769952E+03	1.524144E-10	1.112673E-12
4.779952E+03	1.479805E-10	1.079504E-12
4.789952E+03	1.441149E-10	1.050856E-12
4.799952E+03	1.409760E-10	1.027804E-12
4.809952E+03	1.386850E-10	1.011161E-12
4.819952E+03	1.373473E-10	1.001640E-12
4.829952E+03	1.370439E-10	9.997864E-13
4.839952E+03	1.378440E-10	1.006071E-12
4.849952E+03	1.398027E-10	1.020867E-12
4.859951E+03	1.429598E-10	1.044438E-12
4.869951E+03	1.473399E-10	1.076939E-12
4.879951E+03	1.529359E-10	1.118287E-12
4.889951E+03	1.596792E-10	1.167946E-12
4.899951E+03	1.673989E-10	1.224619E-12
4.909951E+03	1.757759E-10	1.285917E-12
4.919951E+03	1.843643E-10	1.348512E-12
4.929951E+03	1.926607E-10	1.408651E-12
4.939951E+03	2.001891E-10	1.462785E-12
4.949951E+03	2.065592E-10	1.508004E-12
4.959950E+03	2.115364E-10	1.542550E-12
4.969950E+03	2.150628E-10	1.565977E-12
4.979950E+03	2.171953E-10	1.578694E-12
4.989950E+03	2.179980E-10	1.581181E-12
4.999950E+03	2.174384E-10	1.573233E-12
5.009950E+03	2.154245E-10	1.554245E-12
5.019950E+03	2.118612E-10	1.523619E-12
5.029950E+03	2.066934E-10	1.481080E-12
5.039950E+03	1.999628E-10	1.427083E-12
5.049950E+03	1.918210E-10	1.362886E-12
5.059949E+03	1.825581E-10	1.290734E-12
5.069949E+03	1.725779E-10	1.213663E-12
5.079949E+03	1.623752E-10	1.135294E-12
5.089949E+03	1.524990E-10	1.059561E-12
5.099949E+03	1.434622E-10	9.900477E-13
5.109949E+03	1.356716E-10	9.295061E-13
5.119949E+03	1.294111E-10	8.797511E-13
5.129949E+03	1.248354E-10	8.416420E-13
5.139949E+03	1.219758E-10	8.151475E-13
5.149949E+03	1.207378E-10	7.993688E-13
5.159948E+03	1.209555E-10	7.929300E-13
5.169948E+03	1.224242E-10	7.942239E-13
5.179948E+03	1.249219E-10	8.015633E-13
5.189948E+03	1.282137E-10	8.132276E-13
5.199948E+03	1.320648E-10	8.275517E-13
5.209948E+03	1.362577E-10	8.430421E-13
5.219948E+03	1.406044E-10	8.584508E-13
5.229948E+03	1.449483E-10	8.727808E-13
5.239948E+03	1.491975E-10	8.854756E-13
5.249948E+03	1.533127E-10	8.963217E-13
5.259947E+03	1.573018E-10	9.053997E-13
5.269947E+03	1.612197E-10	9.130580E-13
5.279947E+03	1.651414E-10	9.197460E-13
5.289947E+03	1.691442E-10	9.259030E-13
5.299947E+03	1.732847E-10	9.318337E-13
5.309947E+03	1.775877E-10	9.376624E-13
5.319947E+03	1.820527E-10	9.433784E-13
5.329947E+03	1.866390E-10	9.487794E-13
5.339947E+03	1.912796E-10	9.535562E-13
5.349947E+03	1.958823E-10	9.573181E-13
5.359946E+03	2.003359E-10	9.596327E-13
5.369946E+03	2.045098E-10	9.600337E-13
5.379946E+03	2.082451E-10	9.579892E-13
5.389946E+03	2.113491E-10	9.528870E-13
5.399946E+03	2.136176E-10	9.441427E-13
5.409946E+03	2.148506E-10	9.312639E-13
5.419946E+03	2.148964E-10	9.140238E-13
5.429946E+03	2.136911E-10	8.925940E-13
5.439946E+03	2.113340E-10	8.678035E-13
5.449946E+03	2.081232E-10	8.412172E-13
5.459945E+03	2.045221E-10	8.149418E-13
5.469945E+03	2.011228E-10	7.914499E-13
5.479945E+03	1.986115E-10	7.734517E-13
5.489945E+03	1.977350E-10	7.637978E-13
5.499945E+03	1.989511E-10	7.641984E-13
5.509945E+03	2.018279E-10	7.730176E-13
5.519945E+03	2.057903E-10	7.881830E-13
5.529945E+03	2.102849E-10	8.076777E-13
5.539945E+03	2.147965E-10	8.295616E-13
5.549945E+03	2.188674E-10	8.520547E-13
5.559944E+03	2.221212E-10	8.735996E-13
5.569944E+03	2.243237E-10	8.930856E-13
5.579944E+03	2.254044E-10	9.099549E-13
5.589944E+03	2.254755E-10	9.243274E-13
5.599944E+03	2.248514E-10	9.371501E-13
5.609944E+03	2.239328E-10	9.497970E-13
5.619944E+03	2.231016E-10	9.636753E-13
5.629944E+03	2.226149E-10	9.797695E-13
5.639944E+03	2.225875E-10	9.985258E-13
5.649944E+03	2.229405E-10	1.019561E-12
5.659943E+03	2.234116E-10	1.041625E-12
5.669943E+03	2.236037E-10	1.062744E-12
5.679943E+03	2.231099E-10	1.080761E-12
5.689943E+03	2.215891E-10	1.093702E-12
5.699943E+03	2.188119E-10	1.100038E-12
5.709943E+03	2.147089E-10	1.098985E-12
5.719943E+03	2.093765E-10	1.090614E-12
5.729943E+03	2.030562E-10	1.075820E-12
5.739943E+03	1.960998E-10	1.056194E-12
5.749943E+03	1.889184E-10	1.033796E-12
5.759942E+03	1.819500E-10	1.010995E-12
5.769942E+03	1.756307E-10	9.903018E-13
5.779942E+03	1.703675E-10	9.742108E-13
5.789942E+03	1.665217E-10	9.650737E-13
5.799942E+03	1.643926E-10	9.649760E-13
5.809942E+03	1.642073E-10	9.756427E-13
5.819942E+03	1.661304E-10	9.984567E-13
5.829942E+03	1.702479E-10	1.034335E-12
5.839942E+03	1.765380E-10	1.083512E-12
5.849942E+03	1.848710E-10	1.145508E-12
5.859941E+03	1.949956E-10	1.219006E-12
5.869941E+03	2.065166E-10	1.301686E-12
5.879941E+03	2.188982E-10	1.390220E-12
5.889941E+03	2.314789E-10	1.480346E-12
5.899941E+03	2.435343E-10	1.567269E-12
5.909941E+03	2.543316E-10	1.646031E-12
5.919941E+03	2.632220E-10	1.712133E-12
5.929941E+03	2.697173E-10	1.762083E-12
5.939941E+03	2.735425E-10	1.793781E-12
5.949941E+03	2.746196E-10	1.806463E-12
5.959940E+03	2.730696E-10	1.800736E-12
5.969940E+03	2.691676E-10	1.778302E-12
5.979940E+03	2.633162E-10	1.741780E-12
5.989940E+03	2.559878E-10	1.694319E-12
5.999940E+03	2.476902E-10	1.639351E-12
6.009940E+03	2.389239E-10	1.580291E-12
6.019940E+03	2.301679E-10	1.520418E-12
6.029940E+03	2.218394E-10	1.462595E-12
6.039940E+03	2.142975E-10	1.409272E-12
6.049940E+03	2.078326E-10	1.362413E-12
6.059939E+03	2.026699E-10	1.323505E-12
6.069939E+03	1.989562E-10	1.293474E-12
6.079939E+03	1.967705E-10	1.272759E-12
6.089939E+03	1.961199E-10	1.261289E-12
6.099939E+03	1.969169E-10	1.258352E-12
6.109939E+03	1.989784E-10	1.262612E-12
6.119939E+03	2.020257E-10	1.272134E-12
6.129939E+03	2.057194E-10	1.284635E-12
6.139939E+03	2.096660E-10	1.297558E-12
6.149939E+03	2.134748E-10	1.308443E-12
6.159938E+03	2.168279E-10	1.315369E-12
6.169938E+03	2.195334E-10	1.317264E-12
6.179938E+03	2.215358E-10	1.313929E-12
6.189938E+03	2.228930E-10	1.305863E-12
6.199938E+03	2.237418E-10	1.294024E-12
6.209938E+03	2.242575E-10	1.279559E-12
6.219938E+03	2.245718E-10	1.263326E-12
6.229938E+03	2.247402E-10	1.245731E-12
6.239938E+03	2.247344E-10	1.226707E-12
6.249938E+03	2.244887E-10	1.206008E-12
6.259937E+03	2.239011E-10	1.183224E-12
6.269937E+03	2.228585E-10	1.157931E-12
6.279937E+03	2.212610E-10	1.129827E-12
6.289937E+03	2.190293E-10	1.098751E-12
6.299937E+03	2.161086E-10	1.064702E-12
6.309937E+03	2.124637E-10	1.027796E-12
6.319937E+03	2.080890E-10	9.883048E-13
6.329937E+03	2.030011E-10	9.465987E-13
6.339937E+03	1.972641E-10	9.032556E-13
6.349937E+03	1.909815E-10	8.589938E-13
6.359936E+03	1.843057E-10	8.146983E-13
6.369936E+03	1.774409E-10	7.714122E-13
6.379936E+03	1.706336E-10	7.302802E-13
6.389936E+03	1.641515E-10	6.924544E-13
6.399936E+03	1.582748E-10	6.590625E-13
6.409936E+03	1.532721E-10	6.311275E-13
6.419936E+03	1.493960E-10	6.095747E-13
6.429936E+03	1.468699E-10	5.952115E-13
6.439936E+03	1.458793E-10	5.887243E-13
6.449936E+03	1.465985E-10	5.908212E-13
6.459935E+03	1.491833E-10	6.022315E-13
6.469935E+03	1.537833E-10	6.237805E-13
6.479935E+03	1.605514E-10	6.563969E-13
6.489935E+03	1.696545E-10	7.011627E-13
6.499935E+03	1.812572E-10	7.593131E-13
6.509935E+03	1.955349E-10	8.322969E-13
6.519935E+03	2.126618E-10	9.217313E-13
6.529935E+03	2.328263E-10	1.029470E-12
6.539935E+03	2.558131E-10	1.155716E-12
6.549935E+03	2.806672E-10	1.297259E-12
6.559934E+03	3.061406E-10	1.449137E-12
6.569934E+03	3.308154E-10	1.604986E-12
6.579934E+03	3.532710E-10	1.757685E-12
6.589934E+03	3.723061E-10	1.900416E-12
6.599934E+03	3.870709E-10	2.027452E-12
6.609934E+03	3.970820E-10	2.134448E-12
6.619934E+03	4.022185E-10	2.218674E-12
6.629934E+03	4.027044E-10	2.279188E-12
6.639934E+03	3.989987E-10	2.316467E-12
6.649934E+03	3.917274E-10	2.332209E-12
6.659933E+03	3.816221E-10	2.329103E-12
6.669933E+03	3.694212E-10	2.310313E-12
6.679933E+03	3.558460E-10	2.279351E-12
6.689933E+03	3.415340E-10	2.239632E-12
6.699933E+03	3.270224E-10	2.194309E-12
6.709933E+03	3.127227E-10	2.146022E-12
6.719933E+03	2.989282E-10	2.096852E-12
6.729933E+03	2.858579E-10	2.048547E-12
6.739933E+03	2.736313E-10	2.002272E-12
6.749933E+03	2.623242E-10	1.958950E-12
6.759932E+03	2.519510E-10	1.919091E-12
6.769932E+03	2.425025E-10	1.883032E-12
6.779932E+03	2.339361E-10	1.850846E-12
6.789932E+03	2.262004E-10	1.822509E-12
6.799932E+03	2.192390E-10	1.797926E-12
6.809932E+03	2.129950E-10	1.776963E-12
6.819932E+03	2.074101E-10	1.759441E-12
6.829932E+03	2.024356E-10	1.745224E-12
6.839932E+03	1.980250E-10	1.734168E-12
6.849932E+03	1.941363E-10	1.726139E-12
6.859931E+03	1.907399E-10	1.721089E-12
6.869931E+03	1.878064E-10	1.718947E-12
6.879931E+03	1.853091E-10	1.719653E-12
6.889931E+03	1.832222E-10	1.723134E-12
6.899931E+03	1.815114E-10	1.729221E-12
6.909931E+03	1.801408E-10	1.737704E-12
6.919931E+03	1.790684E-10	1.748296E-12
6.929931E+03	1.782501E-10	1.760663E-12
6.939931E+03	1.776423E-10	1.774453E-12
6.949931E+03	1.772024E-10	1.789303E-12
6.959930E+03	1.768953E-10	1.804902E-12
6.969930E+03	1.766857E-10	1.820925E-12
6.979930E+03	1.765381E-10	1.837023E-12
6.989930E+03	1.764238E-10	1.852908E-12
6.999930E+03	1.763135E-10	1.868274E-12
7.009930E+03	1.761854E-10	1.882881E-12
7.019930E+03	1.760225E-10	1.896536E-12
7.029930E+03	1.758151E-10	1.909121E-12
7.039930E+03	1.755511E-10	1.920485E-12
7.049930E+03	1.752293E-10	1.930601E-12
7.059929E+03	1.748489E-10	1.939442E-12
7.069929E+03	1.744094E-10	1.946989E-12
7.079929E+03	1.739172E-10	1.953298E-12
7.089929E+03	1.733776E-10	1.958422E-12
7.099929E+03	1.728045E-10	1.962509E-12
7.109929E+03	1.722104E-10	1.965696E-12
7.119929E+03	1.716132E-10	1.968187E-12
7.129929E+03	1.710328E-10	1.970215E-12
7.139929E+03	1.704895E-10	1.972016E-12
7.149929E+03	1.700014E-10	1.973811E-12
7.159928E+03	1.695800E-10	1.975743E-12
7.169928E+03	1.692398E-10	1.977988E-12
7.179928E+03	1.689789E-10	1.980538E-12
7.189928E+03	1.688049E-10	1.983485E-12
7.199928E+03	1.687069E-10	1.986712E-12
7.209928E+03	1.686829E-10	1.990199E-12
7.219928E+03	1.687187E-10	1.993780E-12
7.229928E+03	1.688087E-10	1.997390E-12
7.239928E+03	1.689413E-10	2.000894E-12
7.249928E+03	1.691076E-10	2.004182E-12
7.259927E+03	1.693056E-10	2.007229E-12
7.269927E+03	1.695316E-10	2.009989E-12
7.279927E+03	1.697807E-10	2.012398E-12
7.289927E+03	1.700501E-10	2.014422E-12
7.299927E+03	1.703373E-10	2.016026E-12
7.309927E+03	1.706424E-10	2.017206E-12
7.319927E+03	1.709605E-10	2.017903E-12
7.329927E+03	1.712871E-10	2.018057E-12
7.339927E+03	1.716249E-10	2.017697E-12
7.349927E+03	1.719670E-10	2.016738E-12
7.359926E+03	1.723136E-10	2.015178E-12
7.369926E+03	1.726603E-10	2.012965E-12
7.379926E+03	1.730052E-10	2.010071E-12
7.389926E+03	1.733514E-10	2.006532E-12
7.399926E+03	1.736896E-10	2.002238E-12
7.409926E+03	1.740228E-10	1.997223E-12
7.419926E+03	1.743469E-10	1.991440E-12
7.429926E+03	1.746601E-10	1.984868E-12
7.439926E+03	1.749657E-10	1.977549E-12
7.449926E+03	1.752546E-10	1.969379E-12
7.459925E+03	1.755326E-10	1.960429E-12
7.469925E+03	1.757958E-10	1.950658E-12
7.479925E+03	1.760426E-10	1.940055E-12
7.489925E+03	1.762714E-10	1.928608E-12
7.499925E+03	1.764810E-10	1.916312E-12
7.509925E+03	1.766699E-10	1.903160E-12
7.519925E+03	1.768341E-10	1.889120E-12
7.529925E+03	1.769778E-10	1.874248E-12
7.539925E+03	1.770943E-10	1.858487E-12
7.549925E+03	1.771854E-10	1.841870E-12
7.559924E+03	1.772497E-10	1.824402E-12
7.569924E+03	1.772866E-10	1.806093E-12
7.579924E+03	1.772976E-10	1.786979E-12
7.589924E+03	1.772767E-10	1.767021E-12
7.599924E+03	1.772313E-10	1.746316E-12
7.609924E+03	1.771553E-10	1.724830E-12
7.619924E+03	1.770510E-10	1.702612E-12
7.629924E+03	1.769181E-10	1.679687E-12
7.639924E+03	1.767588E-10	1.656108E-12
7.649924E+03	1.765676E-10	1.631856E-12
7.659923E+03	1.763499E-10	1.607016E-12
7.669923E+03	1.761056E-10	1.581625E-12
7.679923E+03	1.758350E-10	1.555725E-12
7.689923E+03	1.755354E-10	1.529333E-12
7.699923E+03	1.752129E-10	1.502548E-12
7.709923E+03	1.748651E-10	1.475396E-12
7.719923E+03	1.744923E-10	1.447931E-12
7.729923E+03	1.740982E-10	1.420236E-12
7.739923E+03	1.736807E-10	1.392351E-12
7.749923E+03	1.732434E-10	1.364365E-12
7.759922E+03	1.727872E-10	1.336349E-12
