#wls	flux	fluxerr
1.599984E+03	5.785942E-13	4.966047E-14
1.639984E+03	5.736630E-13	4.894445E-14
1.679983E+03	5.667667E-13	4.806027E-14
1.719983E+03	5.584089E-13	4.705356E-14
1.759982E+03	5.485486E-13	4.592343E-14
1.799982E+03	5.365982E-13	4.462371E-14
1.839982E+03	5.222976E-13	4.313674E-14
1.879981E+03	5.051295E-13	4.142457E-14
1.919981E+03	4.846748E-13	3.945863E-14
1.959980E+03	4.610709E-13	3.725659E-14
1.999980E+03	4.349430E-13	3.487514E-14
2.039980E+03	4.086750E-13	3.250959E-14
2.079979E+03	3.859399E-13	3.045097E-14
2.119979E+03	3.717166E-13	2.908282E-14
2.159978E+03	3.697533E-13	2.867947E-14
2.199978E+03	3.817485E-13	2.934669E-14
2.239978E+03	4.065656E-13	3.096842E-14
2.279977E+03	4.417843E-13	3.333389E-14
2.319977E+03	4.846870E-13	3.621601E-14
2.359976E+03	5.334691E-13	3.946247E-14
2.399976E+03	5.868400E-13	4.296334E-14
2.439976E+03	6.452378E-13	4.673743E-14
2.479975E+03	7.087892E-13	5.077934E-14
2.519975E+03	7.787047E-13	5.515960E-14
2.559974E+03	8.559282E-13	5.992558E-14
2.599974E+03	9.413440E-13	6.511672E-14
2.639974E+03	1.036189E-12	7.079282E-14
2.679973E+03	1.140970E-12	7.695945E-14
2.719973E+03	1.255816E-12	8.359419E-14
2.759972E+03	1.381053E-12	9.068613E-14
2.799972E+03	1.516302E-12	9.817661E-14
2.839972E+03	1.660719E-12	1.059777E-13
2.879971E+03	1.812597E-12	1.139494E-13
2.919971E+03	1.971270E-12	1.220221E-13
2.959970E+03	2.133724E-12	1.299847E-13
2.999970E+03	2.298469E-12	1.377292E-13
3.009970E+03	2.339767E-12	1.396149E-13
3.019970E+03	2.380820E-12	1.414628E-13
3.029970E+03	2.421563E-12	1.432692E-13
3.039970E+03	2.462410E-12	1.450586E-13
3.049970E+03	2.503027E-12	1.468113E-13
3.059969E+03	2.543961E-12	1.485592E-13
3.069969E+03	2.584662E-12	1.502699E-13
3.079969E+03	2.625454E-12	1.519623E-13
3.089969E+03	2.666223E-12	1.536298E-13
3.099969E+03	2.706415E-12	1.552402E-13
3.109969E+03	2.746356E-12	1.568127E-13
3.119969E+03	2.785933E-12	1.583409E-13
3.129969E+03	2.824586E-12	1.597933E-13
3.139969E+03	2.863092E-12	1.612142E-13
3.149969E+03	2.900444E-12	1.625473E-13
3.159968E+03	2.936975E-12	1.638119E-13
3.169968E+03	2.973013E-12	1.650268E-13
3.179968E+03	3.007557E-12	1.661370E-13
3.189968E+03	3.041381E-12	1.671861E-13
3.199968E+03	3.073928E-12	1.681442E-13
3.209968E+03	3.105086E-12	1.690062E-13
3.219968E+03	3.135185E-12	1.697910E-13
3.229968E+03	3.163676E-12	1.704696E-13
3.239968E+03	3.190453E-12	1.710379E-13
3.249968E+03	3.215844E-12	1.715145E-13
3.259967E+03	3.239316E-12	1.718723E-13
3.269967E+03	3.261198E-12	1.721301E-13
3.279967E+03	3.281389E-12	1.722841E-13
3.289967E+03	3.299793E-12	1.723304E-13
3.299967E+03	3.315909E-12	1.722446E-13
3.309967E+03	3.330072E-12	1.720458E-13
3.319967E+03	3.342605E-12	1.717523E-13
3.329967E+03	3.352629E-12	1.713205E-13
3.339967E+03	3.360883E-12	1.707901E-13
3.349967E+03	3.366911E-12	1.701395E-13
3.359966E+03	3.370673E-12	1.693686E-13
3.369966E+03	3.372515E-12	1.684967E-13
3.379966E+03	3.372402E-12	1.675237E-13
3.389966E+03	3.369952E-12	1.664324E-13
3.399966E+03	3.365179E-12	1.652255E-13
3.409966E+03	3.358815E-12	1.639409E-13
3.419966E+03	3.350524E-12	1.625636E-13
3.429966E+03	3.340021E-12	1.610817E-13
3.439966E+03	3.328055E-12	1.595330E-13
3.449966E+03	3.314374E-12	1.579068E-13
3.459965E+03	3.299093E-12	1.562102E-13
3.469965E+03	3.282661E-12	1.544657E-13
3.479965E+03	3.265220E-12	1.526811E-13
3.489965E+03	3.246647E-12	1.508516E-13
3.499965E+03	3.227735E-12	1.490150E-13
3.509965E+03	3.208130E-12	1.471553E-13
3.519965E+03	3.188378E-12	1.452982E-13
3.529965E+03	3.169031E-12	1.434688E-13
3.539965E+03	3.150120E-12	1.416682E-13
3.549965E+03	3.132239E-12	1.399227E-13
3.559964E+03	3.115488E-12	1.382358E-13
3.569964E+03	3.100503E-12	1.366346E-13
3.579964E+03	3.087921E-12	1.351456E-13
3.589964E+03	3.077688E-12	1.337640E-13
3.599964E+03	3.070719E-12	1.325275E-13
3.609964E+03	3.067227E-12	1.314422E-13
3.619964E+03	3.067680E-12	1.305249E-13
3.629964E+03	3.073010E-12	1.298113E-13
3.639964E+03	3.083309E-12	1.293010E-13
3.649964E+03	3.099367E-12	1.290221E-13
3.659963E+03	3.122012E-12	1.290038E-13
3.669963E+03	3.151715E-12	1.292591E-13
3.679963E+03	3.189223E-12	1.298120E-13
3.689963E+03	3.235562E-12	1.306966E-13
3.699963E+03	3.291638E-12	1.319411E-13
3.709963E+03	3.358260E-12	1.335685E-13
3.719963E+03	3.436950E-12	1.356290E-13
3.729963E+03	3.528758E-12	1.381524E-13
3.739963E+03	3.635286E-12	1.411885E-13
3.749963E+03	3.757897E-12	1.447760E-13
3.759962E+03	3.898337E-12	1.489665E-13
3.769962E+03	4.058981E-12	1.538329E-13
3.779962E+03	4.241804E-12	1.594306E-13
3.789962E+03	4.449005E-12	1.658204E-13
3.799962E+03	4.683700E-12	1.730942E-13
3.809962E+03	4.948834E-12	1.813340E-13
3.819962E+03	5.247348E-12	1.906175E-13
3.829962E+03	5.582890E-12	2.010444E-13
3.839962E+03	5.958748E-12	2.126968E-13
3.849962E+03	6.379097E-12	2.256840E-13
3.859961E+03	6.847259E-12	2.400800E-13
3.869961E+03	7.366571E-12	2.559553E-13
3.879961E+03	7.940236E-12	2.733712E-13
3.889961E+03	8.570059E-12	2.923376E-13
3.899961E+03	9.257076E-12	3.128359E-13
3.909961E+03	1.000167E-11	3.348245E-13
3.919961E+03	1.080099E-11	3.581538E-13
3.929961E+03	1.165125E-11	3.826476E-13
3.939961E+03	1.254603E-11	4.080485E-13
3.949961E+03	1.347649E-11	4.340300E-13
3.959960E+03	1.443143E-11	4.602010E-13
3.969960E+03	1.539791E-11	4.861303E-13
3.979960E+03	1.635938E-11	5.112901E-13
3.989960E+03	1.729978E-11	5.351894E-13
3.999960E+03	1.820083E-11	5.572893E-13
4.009960E+03	1.904244E-11	5.770194E-13
4.019960E+03	1.980710E-11	5.939127E-13
4.029960E+03	2.047736E-11	6.075259E-13
4.039960E+03	2.103692E-11	6.174712E-13
4.049960E+03	2.147571E-11	6.235629E-13
4.059959E+03	2.178740E-11	6.257354E-13
4.069959E+03	2.197048E-11	6.240669E-13
4.079959E+03	2.203191E-11	6.188761E-13
4.089959E+03	2.198461E-11	6.106378E-13
4.099959E+03	2.184793E-11	5.999872E-13
4.109959E+03	2.164355E-11	5.875972E-13
4.119959E+03	2.139964E-11	5.742886E-13
4.129959E+03	2.114228E-11	5.607908E-13
4.139959E+03	2.090011E-11	5.478674E-13
4.149959E+03	2.069864E-11	5.361662E-13
4.159958E+03	2.056125E-11	5.262482E-13
4.169958E+03	2.050982E-11	5.186082E-13
4.179958E+03	2.056293E-11	5.136318E-13
4.189958E+03	2.073782E-11	5.116496E-13
4.199958E+03	2.105014E-11	5.129328E-13
4.209958E+03	2.151561E-11	5.177371E-13
4.219958E+03	2.215036E-11	5.263089E-13
4.229958E+03	2.297094E-11	5.388872E-13
4.239958E+03	2.399508E-11	5.557198E-13
4.249958E+03	2.524250E-11	5.770812E-13
4.259957E+03	2.673230E-11	6.032107E-13
4.269957E+03	2.848241E-11	6.343010E-13
4.279957E+03	3.050774E-11	6.704617E-13
4.289957E+03	3.281565E-11	7.116241E-13
4.299957E+03	3.540241E-11	7.574779E-13
4.309957E+03	3.824560E-11	8.073270E-13
4.319957E+03	4.130125E-11	8.600571E-13
4.329957E+03	4.449516E-11	9.139868E-13
4.339957E+03	4.772134E-11	9.668787E-13
4.349957E+03	5.084432E-11	1.016028E-12
4.359956E+03	5.370997E-11	1.058512E-12
4.369956E+03	5.616212E-11	1.091538E-12
4.379956E+03	5.806857E-11	1.112939E-12
4.389956E+03	5.934480E-11	1.121581E-12
4.399956E+03	5.997724E-11	1.117735E-12
4.409956E+03	6.003141E-11	1.103128E-12
4.419956E+03	5.963162E-11	1.080474E-12
4.429956E+03	5.893795E-11	1.052985E-12
4.439956E+03	5.812950E-11	1.024040E-12
4.449956E+03	5.737817E-11	9.967130E-13
4.459955E+03	5.684149E-11	9.736586E-13
4.469955E+03	5.665286E-11	9.569774E-13
4.479955E+03	5.692192E-11	9.482547E-13
4.489955E+03	5.774043E-11	9.486908E-13
4.499955E+03	5.918102E-11	9.591067E-13
4.509955E+03	6.130105E-11	9.800318E-13
4.519955E+03	6.414290E-11	1.011729E-12
4.529955E+03	6.773361E-11	1.054210E-12
4.539955E+03	7.207752E-11	1.107138E-12
4.549955E+03	7.715343E-11	1.169815E-12
4.559954E+03	8.290634E-11	1.241079E-12
4.569954E+03	8.924824E-11	1.319349E-12
4.579954E+03	9.605168E-11	1.402561E-12
4.589954E+03	1.031555E-10	1.488278E-12
4.599954E+03	1.103704E-10	1.573789E-12
4.609954E+03	1.174896E-10	1.656277E-12
4.619954E+03	1.242998E-10	1.732965E-12
4.629954E+03	1.305969E-10	1.801338E-12
4.639954E+03	1.361978E-10	1.859263E-12
4.649954E+03	1.409520E-10	1.905116E-12
4.659953E+03	1.447428E-10	1.937738E-12
4.669953E+03	1.475024E-10	1.956639E-12
4.679953E+03	1.492082E-10	1.961905E-12
4.689953E+03	1.498818E-10	1.954173E-12
4.699953E+03	1.495922E-10	1.934645E-12
4.709953E+03	1.484427E-10	1.904898E-12
4.719953E+03	1.465695E-10	1.866864E-12
4.729953E+03	1.441305E-10	1.822672E-12
4.739953E+03	1.412943E-10	1.774519E-12
4.749953E+03	1.382336E-10	1.724580E-12
4.759952E+03	1.351180E-10	1.674938E-12
4.769952E+03	1.321073E-10	1.627499E-12
4.779952E+03	1.293446E-10	1.583921E-12
4.789952E+03	1.269615E-10	1.545688E-12
4.799952E+03	1.250722E-10	1.514042E-12
4.809952E+03	1.237771E-10	1.490043E-12
4.819952E+03	1.231576E-10	1.474497E-12
4.829952E+03	1.232860E-10	1.468093E-12
4.839952E+03	1.242102E-10	1.471220E-12
4.849952E+03	1.259662E-10	1.484115E-12
4.859951E+03	1.285631E-10	1.506700E-12
4.869951E+03	1.319837E-10	1.538583E-12
4.879951E+03	1.361748E-10	1.578959E-12
4.889951E+03	1.410445E-10	1.626589E-12
4.899951E+03	1.464545E-10	1.679720E-12
4.909951E+03	1.522237E-10	1.736137E-12
4.919951E+03	1.581274E-10	1.793176E-12
4.929951E+03	1.639157E-10	1.847938E-12
4.939951E+03	1.693258E-10	1.897447E-12
4.949951E+03	1.740971E-10	1.938821E-12
4.959950E+03	1.779943E-10	1.969531E-12
4.969950E+03	1.808219E-10	1.987566E-12
4.979950E+03	1.824290E-10	1.991467E-12
4.989950E+03	1.827229E-10	1.980467E-12
4.999950E+03	1.816685E-10	1.954466E-12
5.009950E+03	1.792841E-10	1.913968E-12
5.019950E+03	1.756557E-10	1.860212E-12
5.029950E+03	1.709226E-10	1.794990E-12
5.039950E+03	1.652802E-10	1.720652E-12
5.049950E+03	1.589717E-10	1.639991E-12
5.059949E+03	1.522630E-10	1.555957E-12
5.069949E+03	1.454358E-10	1.471567E-12
5.079949E+03	1.387626E-10	1.389644E-12
5.089949E+03	1.324859E-10	1.312599E-12
5.099949E+03	1.268106E-10	1.242367E-12
5.109949E+03	1.218910E-10	1.180298E-12
5.119949E+03	1.178354E-10	1.127215E-12
5.129949E+03	1.147026E-10	1.083409E-12
5.139949E+03	1.125086E-10	1.048728E-12
5.149949E+03	1.112372E-10	1.022694E-12
5.159948E+03	1.108424E-10	1.004556E-12
5.169948E+03	1.112563E-10	9.933659E-13
5.179948E+03	1.123959E-10	9.880721E-13
5.189948E+03	1.141625E-10	9.875129E-13
5.199948E+03	1.164550E-10	9.905551E-13
5.209948E+03	1.191680E-10	9.960767E-13
5.219948E+03	1.222031E-10	1.003069E-12
5.229948E+03	1.254704E-10	1.010650E-12
5.239948E+03	1.288959E-10	1.018114E-12
5.249948E+03	1.324199E-10	1.024916E-12
5.259947E+03	1.360047E-10	1.030717E-12
5.269947E+03	1.396226E-10	1.035283E-12
5.279947E+03	1.432653E-10	1.038542E-12
5.289947E+03	1.469239E-10	1.040432E-12
5.299947E+03	1.505947E-10	1.040939E-12
5.309947E+03	1.542670E-10	1.040018E-12
5.319947E+03	1.579219E-10	1.037582E-12
5.329947E+03	1.615245E-10	1.033471E-12
5.339947E+03	1.650240E-10	1.027465E-12
5.349947E+03	1.683534E-10	1.019293E-12
5.359946E+03	1.714312E-10	1.008663E-12
5.369946E+03	1.741699E-10	9.953258E-13
5.379946E+03	1.764738E-10	9.790593E-13
5.389946E+03	1.782619E-10	9.598039E-13
5.399946E+03	1.794769E-10	9.376903E-13
5.409946E+03	1.800962E-10	9.130722E-13
5.419946E+03	1.801501E-10	8.865829E-13
5.429946E+03	1.797292E-10	8.591264E-13
5.439946E+03	1.789795E-10	8.318095E-13
5.449946E+03	1.780910E-10	8.058561E-13
5.459945E+03	1.772736E-10	7.824828E-13
5.469945E+03	1.767239E-10	7.627615E-13
5.479945E+03	1.765823E-10	7.474631E-13
5.489945E+03	1.768978E-10	7.369544E-13
5.499945E+03	1.776673E-10	7.314003E-13
5.509945E+03	1.789689E-10	7.313174E-13
5.519945E+03	1.808017E-10	7.369097E-13
5.529945E+03	1.830637E-10	7.479043E-13
5.539945E+03	1.855930E-10	7.636154E-13
5.549945E+03	1.882068E-10	7.832107E-13
5.559944E+03	1.907361E-10	8.058450E-13
5.569944E+03	1.930468E-10	8.307390E-13
5.579944E+03	1.950528E-10	8.572377E-13
5.589944E+03	1.967273E-10	8.848866E-13
5.599944E+03	1.980796E-10	9.133606E-13
5.609944E+03	1.991419E-10	9.424328E-13
5.619944E+03	1.999520E-10	9.719183E-13
5.629944E+03	2.005168E-10	1.001503E-12
5.639944E+03	2.008176E-10	1.030757E-12
5.649944E+03	2.007889E-10	1.059006E-12
5.659943E+03	2.003295E-10	1.085364E-12
5.669943E+03	1.993232E-10	1.108818E-12
5.679943E+03	1.976532E-10	1.128301E-12
5.689943E+03	1.952350E-10	1.142887E-12
5.699943E+03	1.920360E-10	1.151933E-12
5.709943E+03	1.880958E-10	1.155244E-12
5.719943E+03	1.835301E-10	1.153153E-12
5.729943E+03	1.785240E-10	1.146527E-12
5.739943E+03	1.733133E-10	1.136693E-12
5.749943E+03	1.681728E-10	1.125388E-12
5.759942E+03	1.633798E-10	1.114527E-12
5.769942E+03	1.592030E-10	1.106113E-12
5.779942E+03	1.558901E-10	1.102137E-12
5.789942E+03	1.536465E-10	1.104393E-12
5.799942E+03	1.526445E-10	1.114514E-12
5.809942E+03	1.530140E-10	1.133869E-12
5.819942E+03	1.548391E-10	1.163503E-12
5.829942E+03	1.581635E-10	1.204152E-12
5.839942E+03	1.629693E-10	1.256052E-12
5.849942E+03	1.691812E-10	1.318934E-12
5.859941E+03	1.766444E-10	1.391835E-12
5.869941E+03	1.851187E-10	1.473016E-12
5.879941E+03	1.942728E-10	1.559895E-12
5.889941E+03	2.036856E-10	1.649036E-12
5.899941E+03	2.128749E-10	1.736382E-12
5.909941E+03	2.213230E-10	1.817467E-12
5.919941E+03	2.285299E-10	1.887875E-12
5.929941E+03	2.340511E-10	1.943591E-12
5.939941E+03	2.375618E-10	1.981578E-12
5.949941E+03	2.388814E-10	2.000025E-12
5.959940E+03	2.379918E-10	1.998545E-12
5.969940E+03	2.350303E-10	1.978135E-12
5.979940E+03	2.302774E-10	1.941091E-12
5.989940E+03	2.241204E-10	1.890693E-12
5.999940E+03	2.170051E-10	1.830787E-12
6.009940E+03	2.093991E-10	1.765443E-12
6.019940E+03	2.017587E-10	1.698653E-12
6.029940E+03	1.944896E-10	1.633966E-12
6.039940E+03	1.879405E-10	1.574423E-12
6.049940E+03	1.823794E-10	1.522331E-12
6.059939E+03	1.779971E-10	1.479294E-12
6.069939E+03	1.749050E-10	1.446191E-12
6.079939E+03	1.731435E-10	1.423252E-12
6.089939E+03	1.726810E-10	1.410068E-12
6.099939E+03	1.734203E-10	1.405654E-12
6.109939E+03	1.752052E-10	1.408537E-12
6.119939E+03	1.778225E-10	1.416794E-12
6.129939E+03	1.810287E-10	1.428291E-12
6.139939E+03	1.845520E-10	1.440733E-12
6.149939E+03	1.881288E-10	1.451966E-12
6.159938E+03	1.915146E-10	1.460076E-12
6.169938E+03	1.945230E-10	1.463685E-12
6.179938E+03	1.970249E-10	1.461928E-12
6.189938E+03	1.989563E-10	1.454491E-12
6.199938E+03	2.003158E-10	1.441559E-12
6.209938E+03	2.011394E-10	1.423604E-12
6.219938E+03	2.014841E-10	1.401248E-12
6.229938E+03	2.014105E-10	1.375128E-12
6.239938E+03	2.009610E-10	1.345746E-12
6.249938E+03	2.001591E-10	1.313471E-12
6.259937E+03	1.989999E-10	1.278496E-12
6.269937E+03	1.974558E-10	1.240884E-12
6.279937E+03	1.954815E-10	1.200618E-12
6.289937E+03	1.930317E-10	1.157725E-12
6.299937E+03	1.900639E-10	1.112281E-12
6.309937E+03	1.865536E-10	1.064506E-12
6.319937E+03	1.825065E-10	1.014808E-12
6.329937E+03	1.779684E-10	9.638131E-13
6.339937E+03	1.730255E-10	9.123360E-13
6.349937E+03	1.678078E-10	8.613640E-13
6.359936E+03	1.624790E-10	8.119728E-13
6.369936E+03	1.572276E-10	7.652627E-13
6.379936E+03	1.522572E-10	7.223019E-13
6.389936E+03	1.477647E-10	6.840276E-13
6.399936E+03	1.439388E-10	6.512580E-13
6.409936E+03	1.409473E-10	6.246647E-13
6.419936E+03	1.389384E-10	6.048124E-13
6.429936E+03	1.380374E-10	5.921828E-13
6.439936E+03	1.383567E-10	5.872549E-13
6.449936E+03	1.399984E-10	5.905480E-13
6.459935E+03	1.430557E-10	6.026593E-13
6.469935E+03	1.476222E-10	6.243284E-13
6.479935E+03	1.537865E-10	6.563599E-13
6.489935E+03	1.616305E-10	6.995760E-13
6.499935E+03	1.712063E-10	7.548115E-13
6.509935E+03	1.825206E-10	8.228400E-13
6.519935E+03	1.954864E-10	9.041125E-13
6.529935E+03	2.098902E-10	9.985201E-13
6.539935E+03	2.254388E-10	1.105502E-12
6.549935E+03	2.418163E-10	1.224228E-12
6.559934E+03	2.585651E-10	1.352912E-12
6.569934E+03	2.751117E-10	1.488795E-12
6.579934E+03	2.907870E-10	1.628107E-12
6.589934E+03	3.049112E-10	1.766439E-12
6.599934E+03	3.168647E-10	1.899123E-12
6.609934E+03	3.261477E-10	2.021650E-12
6.619934E+03	3.324317E-10	2.130116E-12
6.629934E+03	3.355787E-10	2.221540E-12
6.639934E+03	3.356544E-10	2.294167E-12
6.649934E+03	3.328750E-10	2.347335E-12
6.659933E+03	3.275917E-10	2.381541E-12
6.669933E+03	3.202445E-10	2.398258E-12
6.679933E+03	3.112892E-10	2.399484E-12
6.689933E+03	3.011981E-10	2.387772E-12
6.699933E+03	2.903995E-10	2.365758E-12
6.709933E+03	2.792766E-10	2.336102E-12
6.719933E+03	2.681398E-10	2.301200E-12
6.729933E+03	2.572453E-10	2.263256E-12
6.739933E+03	2.467830E-10	2.224123E-12
6.749933E+03	2.368874E-10	2.185312E-12
6.759932E+03	2.276425E-10	2.147981E-12
6.769932E+03	2.190996E-10	2.113049E-12
6.779932E+03	2.112743E-10	2.081126E-12
6.789932E+03	2.041627E-10	2.052639E-12
6.799932E+03	1.977479E-10	2.027873E-12
6.809932E+03	1.919949E-10	2.006905E-12
6.819932E+03	1.868701E-10	1.989797E-12
6.829932E+03	1.823323E-10	1.976490E-12
6.839932E+03	1.783462E-10	1.966955E-12
6.849932E+03	1.748653E-10	1.961000E-12
6.859931E+03	1.718578E-10	1.958565E-12
6.869931E+03	1.692797E-10	1.959408E-12
6.879931E+03	1.670966E-10	1.963370E-12
6.889931E+03	1.652748E-10	1.970265E-12
6.899931E+03	1.637742E-10	1.979799E-12
6.909931E+03	1.625610E-10	1.991724E-12
6.919931E+03	1.615994E-10	2.005740E-12
6.929931E+03	1.608533E-10	2.021512E-12
6.939931E+03	1.602830E-10	2.038634E-12
6.949931E+03	1.598601E-10	2.056817E-12
6.959930E+03	1.595448E-10	2.075604E-12
6.969930E+03	1.593099E-10	2.094678E-12
6.979930E+03	1.591240E-10	2.113650E-12
6.989930E+03	1.589587E-10	2.132151E-12
6.999930E+03	1.587953E-10	2.149931E-12
7.009930E+03	1.586099E-10	2.166659E-12
7.019930E+03	1.583892E-10	2.182136E-12
7.029930E+03	1.581215E-10	2.196186E-12
7.039930E+03	1.577972E-10	2.208655E-12
7.049930E+03	1.574129E-10	2.219473E-12
7.059929E+03	1.569714E-10	2.228662E-12
7.069929E+03	1.564746E-10	2.236230E-12
7.079929E+03	1.559319E-10	2.242302E-12
7.089929E+03	1.553492E-10	2.246948E-12
7.099929E+03	1.547404E-10	2.250368E-12
7.109929E+03	1.541186E-10	2.252750E-12
7.119929E+03	1.534975E-10	2.254296E-12
7.129929E+03	1.528906E-10	2.255209E-12
7.139929E+03	1.523081E-10	2.255649E-12
7.149929E+03	1.517635E-10	2.255824E-12
7.159928E+03	1.512639E-10	2.255852E-12
7.169928E+03	1.508189E-10	2.255887E-12
7.179928E+03	1.504319E-10	2.255988E-12
7.189928E+03	1.501085E-10	2.256251E-12
7.199928E+03	1.498480E-10	2.256675E-12
7.209928E+03	1.496509E-10	2.257270E-12
7.219928E+03	1.495160E-10	2.258026E-12
7.229928E+03	1.494412E-10	2.258912E-12
7.239928E+03	1.494239E-10	2.259892E-12
7.249928E+03	1.494611E-10	2.260918E-12
7.259927E+03	1.495493E-10	2.261937E-12
7.269927E+03	1.496853E-10	2.262894E-12
7.279927E+03	1.498656E-10	2.263735E-12
7.289927E+03	1.500870E-10	2.264403E-12
7.299927E+03	1.503461E-10	2.264842E-12
7.309927E+03	1.506377E-10	2.264964E-12
7.319927E+03	1.509610E-10	2.264749E-12
7.329927E+03	1.513131E-10	2.264144E-12
7.339927E+03	1.516910E-10	2.263096E-12
7.349927E+03	1.520920E-10	2.261555E-12
7.359926E+03	1.525132E-10	2.259468E-12
7.369926E+03	1.529498E-10	2.256753E-12
7.379926E+03	1.534035E-10	2.253428E-12
7.389926E+03	1.538672E-10	2.249378E-12
7.399926E+03	1.543430E-10	2.244624E-12
7.409926E+03	1.548235E-10	2.239051E-12
7.419926E+03	1.553110E-10	2.232684E-12
7.429926E+03	1.557981E-10	2.225409E-12
7.439926E+03	1.562848E-10	2.217222E-12
7.449926E+03	1.567685E-10	2.208082E-12
7.459925E+03	1.572469E-10	2.197950E-12
7.469925E+03	1.577151E-10	2.186757E-12
7.479925E+03	1.581706E-10	2.174468E-12
7.489925E+03	1.586111E-10	2.161054E-12
7.499925E+03	1.590368E-10	2.146521E-12
7.509925E+03	1.594429E-10	2.130808E-12
7.519925E+03	1.598324E-10	2.113962E-12
7.529925E+03	1.602006E-10	2.095929E-12
7.539925E+03	1.605454E-10	2.076693E-12
7.549925E+03	1.608650E-10	2.056243E-12
7.559924E+03	1.611601E-10	2.034604E-12
7.569924E+03	1.614235E-10	2.011703E-12
7.579924E+03	1.616591E-10	1.987610E-12
7.589924E+03	1.618652E-10	1.962324E-12
7.599924E+03	1.620377E-10	1.935825E-12
7.609924E+03	1.621753E-10	1.908125E-12
7.619924E+03	1.622794E-10	1.879273E-12
7.629924E+03	1.623465E-10	1.849263E-12
7.639924E+03	1.623754E-10	1.818122E-12
7.649924E+03	1.623709E-10	1.785945E-12
7.659923E+03	1.623241E-10	1.752679E-12
7.669923E+03	1.622428E-10	1.718458E-12
7.679923E+03	1.621212E-10	1.683275E-12
7.689923E+03	1.619619E-10	1.647212E-12
7.699923E+03	1.617650E-10	1.610334E-12
7.709923E+03	1.615278E-10	1.572680E-12
7.719923E+03	1.612563E-10	1.534379E-12
7.729923E+03	1.609482E-10	1.495487E-12
7.739923E+03	1.606042E-10	1.456092E-12
7.749923E+03	1.602253E-10	1.416294E-12
7.759922E+03	1.598153E-10	1.376220E-12
