#wls	flux	fluxerr
1.599984E+03	4.995416E-13	5.133878E-14
1.639984E+03	5.045002E-13	5.151610E-14
1.679983E+03	5.083164E-13	5.156335E-14
1.719983E+03	5.106731E-13	5.145058E-14
1.759982E+03	5.116219E-13	5.118575E-14
1.799982E+03	5.107304E-13	5.072869E-14
1.839982E+03	5.074223E-13	5.002651E-14
1.879981E+03	5.010294E-13	4.901919E-14
1.919981E+03	4.909157E-13	4.765216E-14
1.959980E+03	4.769037E-13	4.591730E-14
1.999980E+03	4.593170E-13	4.385531E-14
2.039980E+03	4.405432E-13	4.170157E-14
2.079979E+03	4.245650E-13	3.983357E-14
2.119979E+03	4.167933E-13	3.874805E-14
2.159978E+03	4.220987E-13	3.887283E-14
2.199978E+03	4.429843E-13	4.040161E-14
2.239978E+03	4.786905E-13	4.322289E-14
2.279977E+03	5.264163E-13	4.704390E-14
2.319977E+03	5.827478E-13	5.152655E-14
2.359976E+03	6.447983E-13	5.639069E-14
2.399976E+03	7.107843E-13	6.146191E-14
2.439976E+03	7.795262E-13	6.662388E-14
2.479975E+03	8.505703E-13	7.182591E-14
2.519975E+03	9.239707E-13	7.706118E-14
2.559974E+03	9.995665E-13	8.230468E-14
2.599974E+03	1.077344E-12	8.754370E-14
2.639974E+03	1.157193E-12	9.275766E-14
2.679973E+03	1.239083E-12	9.793245E-14
2.719973E+03	1.322621E-12	1.030256E-13
2.759972E+03	1.406992E-12	1.079639E-13
2.799972E+03	1.491915E-12	1.127181E-13
2.839972E+03	1.576243E-12	1.171958E-13
2.879971E+03	1.659187E-12	1.213364E-13
2.919971E+03	1.739614E-12	1.250589E-13
2.959970E+03	1.816899E-12	1.283234E-13
2.999970E+03	1.889884E-12	1.310574E-13
3.009970E+03	1.907487E-12	1.316615E-13
3.019970E+03	1.924629E-12	1.322201E-13
3.029970E+03	1.941293E-12	1.327325E-13
3.039970E+03	1.957788E-12	1.332202E-13
3.049970E+03	1.974232E-12	1.336912E-13
3.059969E+03	1.990459E-12	1.341344E-13
3.069969E+03	2.006703E-12	1.345657E-13
3.079969E+03	2.022626E-12	1.349623E-13
3.089969E+03	2.038472E-12	1.353408E-13
3.099969E+03	2.054199E-12	1.356983E-13
3.109969E+03	2.069475E-12	1.360133E-13
3.119969E+03	2.084558E-12	1.363029E-13
3.129969E+03	2.099415E-12	1.365652E-13
3.139969E+03	2.114018E-12	1.367985E-13
3.149969E+03	2.128047E-12	1.369825E-13
3.159968E+03	2.141774E-12	1.371350E-13
3.169968E+03	2.155180E-12	1.372552E-13
3.179968E+03	2.168248E-12	1.373423E-13
3.189968E+03	2.180966E-12	1.373958E-13
3.199968E+03	2.193325E-12	1.374155E-13
3.209968E+03	2.205316E-12	1.374013E-13
3.219968E+03	2.216938E-12	1.373533E-13
3.229968E+03	2.227898E-12	1.372538E-13
3.239968E+03	2.239072E-12	1.371574E-13
3.249968E+03	2.249593E-12	1.370107E-13
3.259967E+03	2.259761E-12	1.368328E-13
3.269967E+03	2.269876E-12	1.366420E-13
3.279967E+03	2.279664E-12	1.364219E-13
3.289967E+03	2.289142E-12	1.361739E-13
3.299967E+03	2.298618E-12	1.359166E-13
3.309967E+03	2.307830E-12	1.356344E-13
3.319967E+03	2.316806E-12	1.353294E-13
3.329967E+03	2.325859E-12	1.350200E-13
3.339967E+03	2.334743E-12	1.346917E-13
3.349967E+03	2.344053E-12	1.343791E-13
3.359966E+03	2.352992E-12	1.340361E-13
3.369966E+03	2.362442E-12	1.337131E-13
3.379966E+03	2.371895E-12	1.333810E-13
3.389966E+03	2.381682E-12	1.330582E-13
3.399966E+03	2.391586E-12	1.327323E-13
3.409966E+03	2.402218E-12	1.324369E-13
3.419966E+03	2.413369E-12	1.321597E-13
3.429966E+03	2.424845E-12	1.318896E-13
3.439966E+03	2.437264E-12	1.316596E-13
3.449966E+03	2.450442E-12	1.314588E-13
3.459965E+03	2.464473E-12	1.312913E-13
3.469965E+03	2.479458E-12	1.311615E-13
3.479965E+03	2.495771E-12	1.310880E-13
3.489965E+03	2.513003E-12	1.310479E-13
3.499965E+03	2.532071E-12	1.310876E-13
3.509965E+03	2.552589E-12	1.311853E-13
3.519965E+03	2.574711E-12	1.313470E-13
3.529965E+03	2.598861E-12	1.315926E-13
3.539965E+03	2.624960E-12	1.319155E-13
3.549965E+03	2.653722E-12	1.323493E-13
3.559964E+03	2.684842E-12	1.328757E-13
3.569964E+03	2.718812E-12	1.335161E-13
3.579964E+03	2.755884E-12	1.342795E-13
3.589964E+03	2.796331E-12	1.351756E-13
3.599964E+03	2.840447E-12	1.362144E-13
3.609964E+03	2.888547E-12	1.374068E-13
3.619964E+03	2.941233E-12	1.387763E-13
3.629964E+03	2.998346E-12	1.403103E-13
3.639964E+03	3.060816E-12	1.420466E-13
3.649964E+03	3.129091E-12	1.439995E-13
3.659963E+03	3.203383E-12	1.461721E-13
3.669963E+03	3.284499E-12	1.485935E-13
3.679963E+03	3.372743E-12	1.512695E-13
3.689963E+03	3.469034E-12	1.542323E-13
3.699963E+03	3.574077E-12	1.575037E-13
3.709963E+03	3.688643E-12	1.611069E-13
3.719963E+03	3.813575E-12	1.650671E-13
3.729963E+03	3.949792E-12	1.694113E-13
3.739963E+03	4.098293E-12	1.741687E-13
3.749963E+03	4.260489E-12	1.793840E-13
3.759962E+03	4.436915E-12	1.850631E-13
3.769962E+03	4.629504E-12	1.912690E-13
3.779962E+03	4.839642E-12	1.980391E-13
3.789962E+03	5.068469E-12	2.053986E-13
3.799962E+03	5.317906E-12	2.134022E-13
3.809962E+03	5.589231E-12	2.220762E-13
3.819962E+03	5.884954E-12	2.314930E-13
3.829962E+03	6.206072E-12	2.416623E-13
3.839962E+03	6.555216E-12	2.526550E-13
3.849962E+03	6.933329E-12	2.644738E-13
3.859961E+03	7.343026E-12	2.771824E-13
3.869961E+03	7.784964E-12	2.907679E-13
3.879961E+03	8.262014E-12	3.052975E-13
3.889961E+03	8.773764E-12	3.207144E-13
3.899961E+03	9.321928E-12	3.370390E-13
3.909961E+03	9.906687E-12	3.542342E-13
3.919961E+03	1.052748E-11	3.722364E-13
3.929961E+03	1.118208E-11	3.909253E-13
3.939961E+03	1.186805E-11	4.101763E-13
3.949961E+03	1.258059E-11	4.297878E-13
3.959960E+03	1.331312E-11	4.495067E-13
3.969960E+03	1.405776E-11	4.690464E-13
3.979960E+03	1.480572E-11	4.881037E-13
3.989960E+03	1.554839E-11	5.063947E-13
3.999960E+03	1.627429E-11	5.235575E-13
4.009960E+03	1.697580E-11	5.393708E-13
4.019960E+03	1.763992E-11	5.534577E-13
4.029960E+03	1.825725E-11	5.655719E-13
4.039960E+03	1.881574E-11	5.754030E-13
4.049960E+03	1.930267E-11	5.826381E-13
4.059959E+03	1.970408E-11	5.869481E-13
4.069959E+03	2.000823E-11	5.880912E-13
4.079959E+03	2.020447E-11	5.858756E-13
4.089959E+03	2.028563E-11	5.802258E-13
4.099959E+03	2.025362E-11	5.713327E-13
4.109959E+03	2.011407E-11	5.594882E-13
4.119959E+03	1.988455E-11	5.453018E-13
4.129959E+03	1.958739E-11	5.294840E-13
4.139959E+03	1.925351E-11	5.129383E-13
4.149959E+03	1.891296E-11	4.964973E-13
4.159958E+03	1.859517E-11	4.809302E-13
4.169958E+03	1.832933E-11	4.669548E-13
4.179958E+03	1.813860E-11	4.550921E-13
4.189958E+03	1.804332E-11	4.457587E-13
4.199958E+03	1.805819E-11	4.392034E-13
4.209958E+03	1.819694E-11	4.356298E-13
4.219958E+03	1.847063E-11	4.351590E-13
4.229958E+03	1.888694E-11	4.378187E-13
4.239958E+03	1.945606E-11	4.436838E-13
4.249958E+03	2.018658E-11	4.527800E-13
4.259957E+03	2.108715E-11	4.651231E-13
4.269957E+03	2.216752E-11	4.807437E-13
4.279957E+03	2.343208E-11	4.995458E-13
4.289957E+03	2.488290E-11	5.213821E-13
4.299957E+03	2.651402E-11	5.459407E-13
4.309957E+03	2.830801E-11	5.726903E-13
4.319957E+03	3.023675E-11	6.009170E-13
4.329957E+03	3.225740E-11	6.296630E-13
4.339957E+03	3.431591E-11	6.578205E-13
4.349957E+03	3.634479E-11	6.841076E-13
4.359956E+03	3.826866E-11	7.071919E-13
4.369956E+03	4.000784E-11	7.257665E-13
4.379956E+03	4.149369E-11	7.388275E-13
4.389956E+03	4.267245E-11	7.457193E-13
4.399956E+03	4.352028E-11	7.463642E-13
4.409956E+03	4.404694E-11	7.412737E-13
4.419956E+03	4.428930E-11	7.313858E-13
4.429956E+03	4.430520E-11	7.179236E-13
4.439956E+03	4.416913E-11	7.022955E-13
4.449956E+03	4.396356E-11	6.859386E-13
4.459955E+03	4.377419E-11	6.702381E-13
4.469955E+03	4.368996E-11	6.565273E-13
4.479955E+03	4.380219E-11	6.460776E-13
4.489955E+03	4.420553E-11	6.401149E-13
4.499955E+03	4.499512E-11	6.397831E-13
4.509955E+03	4.627031E-11	6.462034E-13
4.519955E+03	4.812311E-11	6.603209E-13
4.529955E+03	5.063947E-11	6.829403E-13
4.539955E+03	5.386918E-11	7.143450E-13
4.549955E+03	5.781097E-11	7.541517E-13
4.559954E+03	6.240154E-11	8.012306E-13
4.569954E+03	6.752485E-11	8.538848E-13
4.579954E+03	7.302518E-11	9.100569E-13
4.589954E+03	7.870896E-11	9.673744E-13
4.599954E+03	8.437454E-11	1.023523E-12
4.609954E+03	8.983214E-11	1.076469E-12
4.619954E+03	9.491686E-11	1.124578E-12
4.629954E+03	9.949307E-11	1.166628E-12
4.639954E+03	1.034404E-10	1.201601E-12
4.649954E+03	1.066736E-10	1.228843E-12
4.659953E+03	1.091267E-10	1.247871E-12
4.669953E+03	1.107565E-10	1.258422E-12
4.679953E+03	1.115555E-10	1.260576E-12
4.689953E+03	1.115393E-10	1.254620E-12
4.699953E+03	1.107543E-10	1.241129E-12
4.709953E+03	1.092809E-10	1.221000E-12
4.719953E+03	1.072337E-10	1.195465E-12
4.729953E+03	1.047602E-10	1.166085E-12
4.739953E+03	1.020324E-10	1.134668E-12
4.749953E+03	9.924482E-11	1.103259E-12
4.759952E+03	9.660451E-11	1.074041E-12
4.769952E+03	9.431096E-11	1.049129E-12
4.779952E+03	9.253151E-11	1.030296E-12
4.789952E+03	9.140099E-11	1.018982E-12
4.799952E+03	9.101115E-11	1.016169E-12
4.809952E+03	9.141161E-11	1.022392E-12
4.819952E+03	9.260834E-11	1.037711E-12
4.829952E+03	9.456686E-11	1.061745E-12
4.839952E+03	9.722567E-11	1.093807E-12
4.849952E+03	1.004972E-10	1.132912E-12
4.859951E+03	1.042754E-10	1.177860E-12
4.869951E+03	1.084596E-10	1.227488E-12
4.879951E+03	1.129609E-10	1.280760E-12
4.889951E+03	1.177002E-10	1.336737E-12
4.899951E+03	1.225796E-10	1.394246E-12
4.909951E+03	1.274711E-10	1.451766E-12
4.919951E+03	1.322135E-10	1.507381E-12
4.929951E+03	1.366299E-10	1.558989E-12
4.939951E+03	1.405344E-10	1.604380E-12
4.949951E+03	1.437653E-10	1.641622E-12
4.959950E+03	1.462308E-10	1.669593E-12
4.969950E+03	1.479290E-10	1.688212E-12
4.979950E+03	1.489235E-10	1.698168E-12
4.989950E+03	1.492968E-10	1.700378E-12
4.999950E+03	1.491029E-10	1.695451E-12
5.009950E+03	1.483485E-10	1.683473E-12
5.019950E+03	1.469769E-10	1.663832E-12
5.029950E+03	1.448711E-10	1.635259E-12
5.039950E+03	1.419252E-10	1.596651E-12
5.049950E+03	1.381247E-10	1.547970E-12
5.059949E+03	1.335954E-10	1.490777E-12
5.069949E+03	1.285709E-10	1.427837E-12
5.079949E+03	1.233113E-10	1.362171E-12
5.089949E+03	1.180802E-10	1.296797E-12
5.099949E+03	1.131082E-10	1.234307E-12
5.109949E+03	1.085837E-10	1.176768E-12
5.119949E+03	1.046479E-10	1.125670E-12
5.129949E+03	1.014007E-10	1.082002E-12
5.139949E+03	9.889127E-11	1.046161E-12
5.149949E+03	9.712589E-11	1.018053E-12
5.159948E+03	9.607195E-11	9.971568E-13
5.169948E+03	9.566817E-11	9.826453E-13
5.179948E+03	9.582394E-11	9.734007E-13
5.189948E+03	9.642963E-11	9.681372E-13
5.199948E+03	9.738618E-11	9.657129E-13
5.209948E+03	9.860494E-11	9.651258E-13
5.219948E+03	1.000154E-10	9.655884E-13
5.229948E+03	1.015547E-10	9.664198E-13
5.239948E+03	1.031678E-10	9.670460E-13
5.249948E+03	1.048059E-10	9.669818E-13
5.259947E+03	1.064309E-10	9.658703E-13
5.269947E+03	1.080239E-10	9.635533E-13
5.279947E+03	1.095759E-10	9.599755E-13
5.289947E+03	1.110880E-10	9.551812E-13
5.299947E+03	1.125698E-10	9.492895E-13
5.309947E+03	1.140269E-10	9.423889E-13
5.319947E+03	1.154665E-10	9.345827E-13
5.329947E+03	1.168864E-10	9.259027E-13
5.339947E+03	1.182908E-10	9.164400E-13
5.349947E+03	1.196946E-10	9.063738E-13
5.359946E+03	1.211404E-10	8.960867E-13
5.369946E+03	1.226848E-10	8.860448E-13
5.379946E+03	1.243758E-10	8.766261E-13
5.389946E+03	1.262419E-10	8.680574E-13
5.399946E+03	1.282771E-10	8.603331E-13
5.409946E+03	1.304294E-10	8.531715E-13
5.419946E+03	1.325956E-10	8.460234E-13
5.429946E+03	1.346431E-10	8.382453E-13
5.439946E+03	1.364626E-10	8.294393E-13
5.449946E+03	1.380083E-10	8.196633E-13
5.459945E+03	1.393104E-10	8.094503E-13
5.469945E+03	1.404964E-10	7.998732E-13
5.479945E+03	1.417796E-10	7.924305E-13
5.489945E+03	1.433980E-10	7.886780E-13
5.499945E+03	1.455131E-10	7.897022E-13
5.509945E+03	1.481526E-10	7.958653E-13
5.519945E+03	1.512113E-10	8.068645E-13
5.529945E+03	1.544753E-10	8.218704E-13
5.539945E+03	1.576500E-10	8.396214E-13
5.549945E+03	1.604204E-10	8.585449E-13
5.559944E+03	1.625253E-10	8.771837E-13
5.569944E+03	1.638204E-10	8.945599E-13
5.579944E+03	1.642949E-10	9.102824E-13
5.589944E+03	1.640319E-10	9.243858E-13
5.599944E+03	1.631968E-10	9.373325E-13
5.609944E+03	1.619875E-10	9.498010E-13
5.619944E+03	1.605768E-10	9.623960E-13
5.629944E+03	1.590656E-10	9.753752E-13
5.639944E+03	1.574691E-10	9.885287E-13
5.649944E+03	1.557011E-10	1.001023E-12
5.659943E+03	1.535578E-10	1.011219E-12
5.669943E+03	1.507680E-10	1.016911E-12
5.679943E+03	1.470607E-10	1.015737E-12
5.689943E+03	1.422263E-10	1.005610E-12
5.699943E+03	1.361819E-10	9.852382E-13
5.709943E+03	1.290485E-10	9.548099E-13
5.719943E+03	1.211569E-10	9.162092E-13
5.729943E+03	1.129657E-10	8.725546E-13
5.739943E+03	1.049589E-10	8.274923E-13
5.749943E+03	9.758599E-11	7.847241E-13
5.759942E+03	9.121393E-11	7.475691E-13
5.769942E+03	8.610788E-11	7.187252E-13
5.779942E+03	8.245315E-11	7.003605E-13
5.789942E+03	8.039644E-11	6.943968E-13
5.799942E+03	8.009027E-11	7.028590E-13
5.809942E+03	8.171762E-11	7.280862E-13
5.819942E+03	8.551254E-11	7.729255E-13
5.829942E+03	9.172827E-11	8.404572E-13
5.839942E+03	1.005860E-10	9.335131E-13
5.849942E+03	1.122365E-10	1.054280E-12
5.859941E+03	1.267053E-10	1.203725E-12
5.869941E+03	1.437771E-10	1.380407E-12
5.879941E+03	1.629004E-10	1.579433E-12
5.889941E+03	1.831327E-10	1.791788E-12
5.899941E+03	2.031819E-10	2.004612E-12
5.909941E+03	2.215369E-10	2.202427E-12
5.919941E+03	2.367382E-10	2.369855E-12
5.929941E+03	2.477103E-10	2.495087E-12
5.939941E+03	2.539227E-10	2.571720E-12
5.949941E+03	2.554343E-10	2.599419E-12
5.959940E+03	2.528046E-10	2.583167E-12
5.969940E+03	2.469201E-10	2.531579E-12
5.979940E+03	2.387651E-10	2.454549E-12
5.989940E+03	2.292712E-10	2.361646E-12
5.999940E+03	2.192342E-10	2.261191E-12
6.009940E+03	2.092886E-10	2.159920E-12
6.019940E+03	1.999003E-10	2.062852E-12
6.029940E+03	1.913959E-10	1.973550E-12
6.039940E+03	1.839839E-10	1.894325E-12
6.049940E+03	1.777655E-10	1.826324E-12
6.059939E+03	1.727838E-10	1.770045E-12
6.069939E+03	1.690428E-10	1.725531E-12
6.079939E+03	1.665208E-10	1.692509E-12
6.089939E+03	1.651768E-10	1.670465E-12
6.099939E+03	1.649325E-10	1.658467E-12
6.109939E+03	1.656696E-10	1.655158E-12
6.119939E+03	1.672131E-10	1.658606E-12
6.129939E+03	1.693324E-10	1.666350E-12
6.139939E+03	1.717304E-10	1.675329E-12
6.149939E+03	1.740722E-10	1.682202E-12
6.159938E+03	1.760371E-10	1.683892E-12
6.169938E+03	1.773850E-10	1.678220E-12
6.179938E+03	1.779815E-10	1.664126E-12
6.189938E+03	1.778606E-10	1.642188E-12
6.199938E+03	1.772389E-10	1.614665E-12
6.209938E+03	1.764332E-10	1.584632E-12
6.219938E+03	1.757390E-10	1.554827E-12
6.229938E+03	1.753629E-10	1.527059E-12
6.239938E+03	1.754037E-10	1.502095E-12
6.249938E+03	1.758724E-10	1.479899E-12
6.259937E+03	1.766865E-10	1.459652E-12
6.269937E+03	1.777021E-10	1.440085E-12
6.279937E+03	1.787507E-10	1.419827E-12
6.289937E+03	1.796484E-10	1.397510E-12
6.299937E+03	1.802197E-10	1.371956E-12
6.309937E+03	1.802890E-10	1.342125E-12
6.319937E+03	1.797002E-10	1.307256E-12
6.329937E+03	1.783194E-10	1.266868E-12
6.339937E+03	1.760705E-10	1.220988E-12
6.349937E+03	1.729403E-10	1.170132E-12
6.359936E+03	1.689954E-10	1.115350E-12
6.369936E+03	1.643788E-10	1.058138E-12
6.379936E+03	1.593114E-10	1.000368E-12
6.389936E+03	1.540766E-10	9.441422E-13
6.399936E+03	1.490021E-10	8.916360E-13
6.409936E+03	1.444412E-10	8.449783E-13
6.419936E+03	1.407409E-10	8.060794E-13
6.429936E+03	1.382117E-10	7.765126E-13
6.439936E+03	1.371220E-10	7.575551E-13
6.449936E+03	1.377215E-10	7.503981E-13
6.459935E+03	1.402712E-10	7.563789E-13
6.469935E+03	1.450642E-10	7.771659E-13
6.479935E+03	1.524383E-10	8.149004E-13
6.489935E+03	1.627887E-10	8.723591E-13
6.499935E+03	1.765365E-10	9.528501E-13
6.509935E+03	1.940918E-10	1.059956E-12
6.519935E+03	2.157596E-10	1.197161E-12
6.529935E+03	2.415644E-10	1.366887E-12
6.539935E+03	2.710786E-10	1.569314E-12
6.549935E+03	3.032738E-10	1.801095E-12
6.559934E+03	3.364833E-10	2.054489E-12
6.569934E+03	3.684911E-10	2.317128E-12
6.579934E+03	3.968599E-10	2.573345E-12
6.589934E+03	4.194437E-10	2.807116E-12
6.599934E+03	4.347089E-10	3.004382E-12
6.609934E+03	4.418674E-10	3.154573E-12
6.619934E+03	4.409641E-10	3.252106E-12
6.629934E+03	4.327383E-10	3.296380E-12
6.639934E+03	4.184386E-10	3.291282E-12
6.649934E+03	3.996112E-10	3.244220E-12
6.659933E+03	3.778517E-10	3.164536E-12
6.669933E+03	3.546188E-10	3.062044E-12
6.679933E+03	3.311361E-10	2.946040E-12
6.689933E+03	3.083316E-10	2.824472E-12
6.699933E+03	2.868710E-10	2.703871E-12
6.709933E+03	2.671612E-10	2.589036E-12
6.719933E+03	2.494140E-10	2.483319E-12
6.729933E+03	2.336902E-10	2.388798E-12
6.739933E+03	2.199326E-10	2.306412E-12
6.749933E+03	2.080134E-10	2.236303E-12
6.759932E+03	1.977654E-10	2.178056E-12
6.769932E+03	1.890093E-10	2.130953E-12
6.779932E+03	1.815568E-10	2.093980E-12
6.789932E+03	1.752314E-10	2.066069E-12
6.799932E+03	1.698708E-10	2.046135E-12
6.809932E+03	1.653299E-10	2.033134E-12
6.819932E+03	1.614858E-10	2.026147E-12
6.829932E+03	1.582342E-10	2.024363E-12
6.839932E+03	1.554941E-10	2.027169E-12
6.849932E+03	1.532007E-10	2.034076E-12
6.859931E+03	1.513091E-10	2.044799E-12
6.869931E+03	1.497875E-10	2.059188E-12
6.879931E+03	1.486070E-10	2.077092E-12
6.889931E+03	1.477357E-10	2.098289E-12
6.899931E+03	1.471425E-10	2.122531E-12
6.909931E+03	1.467896E-10	2.149442E-12
6.919931E+03	1.466369E-10	2.178573E-12
6.929931E+03	1.466452E-10	2.209447E-12
6.939931E+03	1.467764E-10	2.241572E-12
6.949931E+03	1.469974E-10	2.274496E-12
6.959930E+03	1.472840E-10	2.307877E-12
6.969930E+03	1.476223E-10	2.341519E-12
6.979930E+03	1.480036E-10	2.375296E-12
6.989930E+03	1.484274E-10	2.409209E-12
6.999930E+03	1.488878E-10	2.443165E-12
7.009930E+03	1.493829E-10	2.477138E-12
7.019930E+03	1.498968E-10	2.510862E-12
7.029930E+03	1.504181E-10	2.544137E-12
7.039930E+03	1.509350E-10	2.576748E-12
7.049930E+03	1.514332E-10	2.608431E-12
7.059929E+03	1.519021E-10	2.638976E-12
7.069929E+03	1.523413E-10	2.668350E-12
7.079929E+03	1.527486E-10	2.696486E-12
7.089929E+03	1.531219E-10	2.723319E-12
7.099929E+03	1.534616E-10	2.748832E-12
7.109929E+03	1.537651E-10	2.772950E-12
7.119929E+03	1.540296E-10	2.795600E-12
7.129929E+03	1.542530E-10	2.816719E-12
7.139929E+03	1.544318E-10	2.836220E-12
7.149929E+03	1.545651E-10	2.854062E-12
7.159928E+03	1.546546E-10	2.870256E-12
7.169928E+03	1.546985E-10	2.884751E-12
7.179928E+03	1.546994E-10	2.897575E-12
7.189928E+03	1.546563E-10	2.908697E-12
7.199928E+03	1.545705E-10	2.918124E-12
7.209928E+03	1.544434E-10	2.925874E-12
7.219928E+03	1.542784E-10	2.931998E-12
7.229928E+03	1.540732E-10	2.936450E-12
7.239928E+03	1.538315E-10	2.939288E-12
7.249928E+03	1.535569E-10	2.940579E-12
7.259927E+03	1.532472E-10	2.940278E-12
7.269927E+03	1.529059E-10	2.938451E-12
7.279927E+03	1.525327E-10	2.935092E-12
7.289927E+03	1.521331E-10	2.930309E-12
7.299927E+03	1.517046E-10	2.924058E-12
7.309927E+03	1.512488E-10	2.916372E-12
7.319927E+03	1.507689E-10	2.907320E-12
7.329927E+03	1.502664E-10	2.896936E-12
7.339927E+03	1.497405E-10	2.885215E-12
7.349927E+03	1.491944E-10	2.872226E-12
7.359926E+03	1.486274E-10	2.857965E-12
7.369926E+03	1.480407E-10	2.842466E-12
7.379926E+03	1.474353E-10	2.825761E-12
7.389926E+03	1.468142E-10	2.807916E-12
7.399926E+03	1.461784E-10	2.788968E-12
7.409926E+03	1.455250E-10	2.768873E-12
7.419926E+03	1.448589E-10	2.747738E-12
7.429926E+03	1.441770E-10	2.725522E-12
7.439926E+03	1.434841E-10	2.702327E-12
7.449926E+03	1.427809E-10	2.678188E-12
7.459925E+03	1.420646E-10	2.653064E-12
7.469925E+03	1.413396E-10	2.627058E-12
7.479925E+03	1.406030E-10	2.600132E-12
7.489925E+03	1.398593E-10	2.572386E-12
7.499925E+03	1.391072E-10	2.543817E-12
7.509925E+03	1.383475E-10	2.514459E-12
7.519925E+03	1.375827E-10	2.484374E-12
7.529925E+03	1.368098E-10	2.453527E-12
7.539925E+03	1.360330E-10	2.422017E-12
7.549925E+03	1.352512E-10	2.389841E-12
7.559924E+03	1.344651E-10	2.357032E-12
7.569924E+03	1.336751E-10	2.323620E-12
7.579924E+03	1.328838E-10	2.289670E-12
7.589924E+03	1.320899E-10	2.255179E-12
7.599924E+03	1.312939E-10	2.220180E-12
7.609924E+03	1.304964E-10	2.184704E-12
7.619924E+03	1.297000E-10	2.148814E-12
7.629924E+03	1.289049E-10	2.112539E-12
7.639924E+03	1.281083E-10	2.075853E-12
7.649924E+03	1.273144E-10	2.038848E-12
7.659923E+03	1.265235E-10	2.001553E-12
7.669923E+03	1.257345E-10	1.963973E-12
7.679923E+03	1.249497E-10	1.926167E-12
7.689923E+03	1.241679E-10	1.888142E-12
7.699923E+03	1.233914E-10	1.849959E-12
7.709923E+03	1.226190E-10	1.811625E-12
7.719923E+03	1.218529E-10	1.773199E-12
7.729923E+03	1.210937E-10	1.734717E-12
7.739923E+03	1.203402E-10	1.696191E-12
7.749923E+03	1.195947E-10	1.657683E-12
7.759922E+03	1.188578E-10	1.619230E-12
