#wls	flux	fluxerr
1.597285E+03	2.406481E-16	4.790767E-18
1.637217E+03	2.443634E-16	4.850529E-18
1.677149E+03	2.475923E-16	4.899892E-18
1.717081E+03	2.502331E-16	4.936916E-18
1.757013E+03	2.523091E-16	4.962149E-18
1.796945E+03	2.535563E-16	4.970507E-18
1.836877E+03	2.538636E-16	4.959968E-18
1.876809E+03	2.529911E-16	4.926034E-18
1.916742E+03	2.506500E-16	4.863340E-18
1.956674E+03	2.467310E-16	4.770076E-18
1.996606E+03	2.413556E-16	4.648925E-18
2.036538E+03	2.350466E-16	4.510253E-18
2.076470E+03	2.288928E-16	4.375098E-18
2.116402E+03	2.245680E-16	4.275318E-18
2.156334E+03	2.234464E-16	4.236567E-18
2.196266E+03	2.260470E-16	4.267895E-18
2.236198E+03	2.318074E-16	4.357821E-18
2.276131E+03	2.394396E-16	4.481440E-18
2.316063E+03	2.475633E-16	4.612521E-18
2.355995E+03	2.552704E-16	4.734052E-18
2.395927E+03	2.619733E-16	4.835250E-18
2.435859E+03	2.673037E-16	4.909579E-18
2.475791E+03	2.713262E-16	4.958553E-18
2.515723E+03	2.739767E-16	4.981347E-18
2.555655E+03	2.753895E-16	4.980752E-18
2.595588E+03	2.756814E-16	4.959217E-18
2.635520E+03	2.750363E-16	4.920353E-18
2.675452E+03	2.736115E-16	4.867238E-18
2.715384E+03	2.716335E-16	4.804118E-18
2.755316E+03	2.692736E-16	4.734191E-18
2.795248E+03	2.668752E-16	4.663587E-18
2.835180E+03	2.647891E-16	4.598423E-18
2.875112E+03	2.633969E-16	4.545196E-18
2.915044E+03	2.632521E-16	4.513177E-18
2.954977E+03	2.650300E-16	4.513446E-18
2.994909E+03	2.695372E-16	4.558984E-18
3.004892E+03	2.712166E-16	4.579459E-18
3.014875E+03	2.731484E-16	4.604059E-18
3.024858E+03	2.753891E-16	4.633711E-18
3.034841E+03	2.778902E-16	4.667574E-18
3.044824E+03	2.807463E-16	4.707209E-18
3.054807E+03	2.839667E-16	4.752741E-18
3.064790E+03	2.876116E-16	4.805140E-18
3.074773E+03	2.916689E-16	4.864166E-18
3.084756E+03	2.961655E-16	4.930230E-18
3.094739E+03	3.011688E-16	5.004406E-18
3.104722E+03	3.067107E-16	5.087182E-18
3.114705E+03	3.127868E-16	5.178429E-18
3.124688E+03	3.194719E-16	5.279334E-18
3.134671E+03	3.267643E-16	5.389813E-18
3.144654E+03	3.347841E-16	5.511784E-18
3.154637E+03	3.434927E-16	5.644541E-18
3.164620E+03	3.529732E-16	5.789382E-18
3.174603E+03	3.632693E-16	5.946949E-18
3.184586E+03	3.744689E-16	6.118597E-18
3.194569E+03	3.865280E-16	6.303522E-18
3.204552E+03	3.995765E-16	6.503752E-18
3.214535E+03	4.136082E-16	6.719090E-18
3.224518E+03	4.286555E-16	6.949964E-18
3.234501E+03	4.447935E-16	7.197490E-18
3.244484E+03	4.619911E-16	7.461053E-18
3.254467E+03	4.803041E-16	7.741451E-18
3.264450E+03	4.997253E-16	8.038452E-18
3.274433E+03	5.201731E-16	8.350635E-18
3.284416E+03	5.417094E-16	8.678889E-18
3.294400E+03	5.641485E-16	9.020130E-18
3.304383E+03	5.874462E-16	9.373560E-18
3.314366E+03	6.115369E-16	9.738045E-18
3.324349E+03	6.362066E-16	1.011010E-17
3.334332E+03	6.612756E-16	1.048681E-17
3.344315E+03	6.866099E-16	1.086601E-17
3.354298E+03	7.119942E-16	1.124427E-17
3.364281E+03	7.371238E-16	1.161677E-17
3.374264E+03	7.618189E-16	1.198071E-17
3.384247E+03	7.858226E-16	1.233209E-17
3.394230E+03	8.088739E-16	1.266688E-17
3.404213E+03	8.307236E-16	1.298128E-17
3.414196E+03	8.512228E-16	1.327309E-17
3.424179E+03	8.701119E-16	1.353840E-17
3.434162E+03	8.872678E-16	1.377545E-17
3.444145E+03	9.027950E-16	1.398604E-17
3.454128E+03	9.165702E-16	1.416841E-17
3.464111E+03	9.287876E-16	1.432575E-17
3.474094E+03	9.397220E-16	1.446243E-17
3.484077E+03	9.495620E-16	1.458149E-17
3.494060E+03	9.586300E-16	1.468797E-17
3.504043E+03	9.672842E-16	1.478743E-17
3.514026E+03	9.760493E-16	1.488791E-17
3.524009E+03	9.851358E-16	1.499261E-17
3.533992E+03	9.949657E-16	1.510789E-17
3.543975E+03	1.005921E-15	1.523947E-17
3.553958E+03	1.018190E-15	1.539008E-17
3.563941E+03	1.031973E-15	1.556259E-17
3.573924E+03	1.047464E-15	1.575978E-17
3.583907E+03	1.064688E-15	1.598182E-17
3.593890E+03	1.083545E-15	1.622706E-17
3.603873E+03	1.103790E-15	1.649163E-17
3.613856E+03	1.125069E-15	1.677014E-17
3.623839E+03	1.146662E-15	1.705175E-17
3.633823E+03	1.167667E-15	1.732306E-17
3.643806E+03	1.187064E-15	1.756902E-17
3.653789E+03	1.203298E-15	1.776684E-17
3.663772E+03	1.214885E-15	1.789499E-17
3.673755E+03	1.220359E-15	1.793243E-17
3.683738E+03	1.218435E-15	1.786099E-17
3.693721E+03	1.208301E-15	1.766956E-17
3.703704E+03	1.190053E-15	1.736043E-17
3.713687E+03	1.164620E-15	1.694797E-17
3.723670E+03	1.133807E-15	1.645918E-17
3.733653E+03	1.100123E-15	1.593095E-17
3.743636E+03	1.066537E-15	1.540652E-17
3.753619E+03	1.036051E-15	1.492909E-17
3.763602E+03	1.011465E-15	1.453864E-17
3.773585E+03	9.954495E-16	1.427278E-17
3.783568E+03	9.901568E-16	1.416140E-17
3.793551E+03	9.976674E-16	1.423302E-17
3.803534E+03	1.019731E-15	1.451118E-17
3.813517E+03	1.058068E-15	1.501871E-17
3.823500E+03	1.114233E-15	1.577590E-17
3.833483E+03	1.189535E-15	1.679927E-17
3.843466E+03	1.284982E-15	1.810098E-17
3.853449E+03	1.400898E-15	1.968340E-17
3.863432E+03	1.536458E-15	2.153276E-17
3.873415E+03	1.689508E-15	2.361682E-17
3.883398E+03	1.856327E-15	2.588181E-17
3.893381E+03	2.031803E-15	2.825516E-17
3.903364E+03	2.209686E-15	3.064923E-17
3.913347E+03	2.383748E-15	3.297762E-17
3.923330E+03	2.548107E-15	3.515958E-17
3.933313E+03	2.698478E-15	3.713720E-17
3.943296E+03	2.832624E-15	3.888132E-17
3.953279E+03	2.949698E-15	4.038206E-17
3.963262E+03	3.050346E-15	4.165015E-17
3.973245E+03	3.135537E-15	4.270052E-17
3.983229E+03	3.205824E-15	4.354241E-17
3.993212E+03	3.260721E-15	4.417084E-17
4.003195E+03	3.298458E-15	4.456356E-17
4.013178E+03	3.316161E-15	4.468373E-17
4.023161E+03	3.310869E-15	4.449371E-17
4.033144E+03	3.280079E-15	4.396243E-17
4.043127E+03	3.223059E-15	4.308287E-17
4.053110E+03	3.141122E-15	4.187534E-17
4.063093E+03	3.038028E-15	4.039251E-17
4.073076E+03	2.919450E-15	3.871187E-17
4.083059E+03	2.792127E-15	3.692419E-17
4.093042E+03	2.662863E-15	3.512010E-17
4.103025E+03	2.537845E-15	3.338121E-17
4.113008E+03	2.422032E-15	3.177208E-17
4.122991E+03	2.318935E-15	3.033767E-17
4.132974E+03	2.230586E-15	2.910314E-17
4.142957E+03	2.158092E-15	2.808129E-17
4.152940E+03	2.101441E-15	2.727029E-17
4.162923E+03	2.060310E-15	2.666431E-17
4.172906E+03	2.033865E-15	2.625093E-17
4.182889E+03	2.021160E-15	2.601643E-17
4.192872E+03	2.021236E-15	2.594708E-17
4.202855E+03	2.032916E-15	2.602648E-17
4.212838E+03	2.054998E-15	2.623808E-17
4.222821E+03	2.086158E-15	2.656396E-17
4.232804E+03	2.124874E-15	2.698387E-17
4.242787E+03	2.169605E-15	2.747754E-17
4.252770E+03	2.218927E-15	2.802638E-17
4.262753E+03	2.271428E-15	2.861216E-17
4.272736E+03	2.325932E-15	2.921982E-17
4.282719E+03	2.381405E-15	2.983622E-17
4.292702E+03	2.436862E-15	3.044900E-17
4.302685E+03	2.491108E-15	3.104327E-17
4.312668E+03	2.542567E-15	3.159963E-17
4.322651E+03	2.589272E-15	3.209401E-17
4.332635E+03	2.628901E-15	3.249820E-17
4.342618E+03	2.658653E-15	3.277840E-17
4.352601E+03	2.675819E-15	3.290228E-17
4.362584E+03	2.677959E-15	3.284122E-17
4.372567E+03	2.663749E-15	3.258047E-17
4.382550E+03	2.634106E-15	3.213284E-17
4.392533E+03	2.593639E-15	3.155587E-17
4.402516E+03	2.550055E-15	3.094414E-17
4.412499E+03	2.512009E-15	3.040267E-17
4.422482E+03	2.487307E-15	3.002517E-17
4.432465E+03	2.482624E-15	2.989072E-17
4.442448E+03	2.503161E-15	3.005990E-17
4.452431E+03	2.552797E-15	3.057684E-17
4.462414E+03	2.634033E-15	3.146874E-17
4.472397E+03	2.747958E-15	3.274568E-17
4.482380E+03	2.893931E-15	3.439709E-17
4.492363E+03	3.069705E-15	3.639349E-17
4.502346E+03	3.271089E-15	3.868267E-17
4.512329E+03	3.492241E-15	4.119354E-17
4.522312E+03	3.725780E-15	4.383754E-17
4.532295E+03	3.963497E-15	4.651736E-17
4.542278E+03	4.196855E-15	4.913278E-17
4.552261E+03	4.417538E-15	5.158716E-17
4.562244E+03	4.618061E-15	5.379450E-17
4.572227E+03	4.791618E-15	5.567758E-17
4.582210E+03	4.932406E-15	5.717152E-17
4.592193E+03	5.035454E-15	5.822171E-17
4.602176E+03	5.096987E-15	5.878789E-17
4.612159E+03	5.114487E-15	5.884465E-17
4.622142E+03	5.087828E-15	5.839427E-17
4.632125E+03	5.019487E-15	5.746883E-17
4.642108E+03	4.914688E-15	5.613145E-17
4.652091E+03	4.781476E-15	5.447682E-17
4.662074E+03	4.629280E-15	5.261439E-17
4.672058E+03	4.468185E-15	5.066003E-17
4.682041E+03	4.307081E-15	4.871495E-17
4.692024E+03	4.152853E-15	4.685676E-17
4.702007E+03	4.010000E-15	4.513548E-17
4.711990E+03	3.880467E-15	4.357196E-17
4.721973E+03	3.764019E-15	4.216243E-17
4.731956E+03	3.659226E-15	4.088981E-17
4.741939E+03	3.563991E-15	3.972972E-17
4.751922E+03	3.476483E-15	3.866101E-17
4.761905E+03	3.395830E-15	3.767333E-17
4.771888E+03	3.322409E-15	3.677028E-17
4.781871E+03	3.257857E-15	3.596934E-17
4.791854E+03	3.204674E-15	3.529729E-17
4.801837E+03	3.165293E-15	3.477996E-17
4.811820E+03	3.141691E-15	3.443791E-17
4.821803E+03	3.134691E-15	3.427888E-17
4.831786E+03	3.143878E-15	3.429702E-17
4.841769E+03	3.167421E-15	3.447112E-17
4.851752E+03	3.202820E-15	3.477293E-17
4.861735E+03	3.247451E-15	3.517309E-17
4.871718E+03	3.299398E-15	3.565018E-17
4.881701E+03	3.357492E-15	3.619103E-17
4.891684E+03	3.421530E-15	3.679300E-17
4.901667E+03	3.491511E-15	3.745560E-17
4.911650E+03	3.567147E-15	3.817532E-17
4.921633E+03	3.646650E-15	3.893263E-17
4.931616E+03	3.726191E-15	3.968645E-17
4.941599E+03	3.799494E-15	4.037010E-17
4.951582E+03	3.858446E-15	4.089809E-17
4.961565E+03	3.894104E-15	4.117694E-17
4.971548E+03	3.898799E-15	4.112753E-17
4.981531E+03	3.868002E-15	4.070456E-17
4.991514E+03	3.802322E-15	3.991713E-17
5.001497E+03	3.707928E-15	3.883245E-17
5.011480E+03	3.595686E-15	3.756625E-17
5.021464E+03	3.479382E-15	3.626351E-17
5.031447E+03	3.373211E-15	3.507212E-17
5.041430E+03	3.289629E-15	3.412051E-17
5.051413E+03	3.237969E-15	3.350352E-17
5.061396E+03	3.223947E-15	3.327775E-17
5.071379E+03	3.249716E-15	3.346255E-17
5.081362E+03	3.313900E-15	3.404080E-17
5.091345E+03	3.412137E-15	3.496493E-17
5.101328E+03	3.537545E-15	3.616206E-17
5.111311E+03	3.681448E-15	3.754171E-17
5.121294E+03	3.834302E-15	3.900543E-17
5.131277E+03	3.986844E-15	4.045858E-17
5.141260E+03	4.131444E-15	4.182396E-17
5.151243E+03	4.262926E-15	4.304990E-17
5.161226E+03	4.378833E-15	4.411266E-17
5.171209E+03	4.479635E-15	4.501812E-17
5.181192E+03	4.568010E-15	4.579426E-17
5.191175E+03	4.648322E-15	4.648565E-17
5.201158E+03	4.725430E-15	4.714138E-17
5.211141E+03	4.803951E-15	4.780766E-17
5.221124E+03	4.887659E-15	4.852185E-17
5.231107E+03	4.978641E-15	4.930428E-17
5.241090E+03	5.077572E-15	5.016109E-17
5.251073E+03	5.183692E-15	5.108426E-17
5.261056E+03	5.295192E-15	5.205550E-17
5.271039E+03	5.409519E-15	5.304944E-17
5.281022E+03	5.523885E-15	5.403860E-17
5.291005E+03	5.635269E-15	5.499357E-17
5.300988E+03	5.740407E-15	5.588278E-17
5.310971E+03	5.835459E-15	5.666946E-17
5.320954E+03	5.915827E-15	5.730980E-17
5.330937E+03	5.975999E-15	5.775163E-17
5.340920E+03	6.009603E-15	5.793496E-17
5.350903E+03	6.010141E-15	5.779922E-17
5.360886E+03	5.972901E-15	5.730153E-17
5.370870E+03	5.896502E-15	5.643135E-17
5.380853E+03	5.784503E-15	5.522537E-17
5.390836E+03	5.646484E-15	5.377732E-17
5.400819E+03	5.497006E-15	5.222731E-17
5.410802E+03	5.354030E-15	5.074634E-17
5.420785E+03	5.235408E-15	4.950275E-17
5.430768E+03	5.156087E-15	4.863584E-17
5.440751E+03	5.126391E-15	4.824008E-17
5.450734E+03	5.151003E-15	4.835609E-17
5.460717E+03	5.229438E-15	4.897569E-17
5.470700E+03	5.356221E-15	5.004418E-17
5.480683E+03	5.520131E-15	5.145383E-17
5.490666E+03	5.700402E-15	5.300915E-17
5.500649E+03	5.865478E-15	5.441641E-17
5.510632E+03	5.983063E-15	5.537776E-17
5.520615E+03	6.032215E-15	5.570297E-17
5.530598E+03	6.009493E-15	5.536475E-17
5.540581E+03	5.927699E-15	5.448536E-17
5.550564E+03	5.809680E-15	5.327803E-17
5.560547E+03	5.680637E-15	5.197559E-17
5.570530E+03	5.561304E-15	5.076794E-17
5.580513E+03	5.463089E-15	4.975831E-17
5.590496E+03	5.386395E-15	4.894902E-17
5.600479E+03	5.320911E-15	4.824522E-17
5.610462E+03	5.247925E-15	4.747689E-17
5.620445E+03	5.143850E-15	4.643155E-17
5.630428E+03	4.986245E-15	4.490893E-17
5.640411E+03	4.760566E-15	4.278146E-17
5.650394E+03	4.465542E-15	4.004175E-17
5.660377E+03	4.114516E-15	3.681319E-17
5.670360E+03	3.732654E-15	3.332361E-17
5.680343E+03	3.350274E-15	2.984476E-17
5.690326E+03	2.995698E-15	2.662829E-17
5.700309E+03	2.690295E-15	2.386197E-17
5.710293E+03	2.447217E-15	2.165929E-17
5.720276E+03	2.272628E-15	2.007101E-17
5.730259E+03	2.168490E-15	1.911048E-17
5.740242E+03	2.135049E-15	1.877584E-17
5.750225E+03	2.172823E-15	1.906765E-17
5.760208E+03	2.283330E-15	1.999526E-17
5.770191E+03	2.468899E-15	2.157503E-17
5.780174E+03	2.731516E-15	2.382024E-17
5.790157E+03	3.070769E-15	2.672317E-17
5.800140E+03	3.481500E-15	3.023502E-17
5.810123E+03	3.951186E-15	3.424356E-17
5.820106E+03	4.458999E-15	3.856569E-17
5.830089E+03	4.976762E-15	4.295637E-17
5.840072E+03	5.472896E-15	4.714330E-17
5.850055E+03	5.917993E-15	5.087498E-17
5.860038E+03	6.290605E-15	5.397025E-17
5.870021E+03	6.580379E-15	5.634437E-17
5.880004E+03	6.787819E-15	5.800599E-17
5.889987E+03	6.921482E-15	5.903240E-17
5.899970E+03	6.994397E-15	5.953826E-17
5.909953E+03	7.020212E-15	5.964260E-17
5.919936E+03	7.010757E-15	5.944809E-17
5.929919E+03	6.974564E-15	5.902868E-17
5.939902E+03	6.916512E-15	5.842689E-17
5.949885E+03	6.838608E-15	5.766068E-17
5.959868E+03	6.740934E-15	5.673167E-17
5.969851E+03	6.623417E-15	5.564014E-17
5.979834E+03	6.486930E-15	5.439430E-17
5.989817E+03	6.334712E-15	5.302210E-17
5.999800E+03	6.172482E-15	5.157196E-17
6.009783E+03	6.008319E-15	5.011167E-17
6.019766E+03	5.851265E-15	4.871651E-17
6.029749E+03	5.710255E-15	4.746038E-17
6.039732E+03	5.592291E-15	4.640062E-17
6.049715E+03	5.501704E-15	4.557210E-17
6.059699E+03	5.439431E-15	4.498137E-17
6.069682E+03	5.402774E-15	4.460498E-17
6.079665E+03	5.386478E-15	4.439857E-17
6.089648E+03	5.383806E-15	4.430591E-17
6.099631E+03	5.388403E-15	4.427428E-17
6.109614E+03	5.395827E-15	4.426697E-17
6.119597E+03	5.404939E-15	4.427459E-17
6.129580E+03	5.418105E-15	4.431645E-17
6.139563E+03	5.439612E-15	4.442749E-17
6.149546E+03	5.473389E-15	4.463946E-17
6.159529E+03	5.521179E-15	4.496621E-17
6.169512E+03	5.581529E-15	4.539550E-17
6.179495E+03	5.649976E-15	4.589075E-17
6.189478E+03	5.720792E-15	4.640532E-17
6.199461E+03	5.789716E-15	4.690470E-17
6.209444E+03	5.857330E-15	4.739377E-17
6.219427E+03	5.930310E-15	4.792659E-17
6.229410E+03	6.016999E-15	4.857044E-17
6.239393E+03	6.117052E-15	4.932221E-17
6.249376E+03	6.217220E-15	5.007486E-17
6.259359E+03	6.299627E-15	5.068463E-17
6.269342E+03	6.349863E-15	5.103620E-17
6.279325E+03	6.359158E-15	5.105996E-17
6.289308E+03	6.325147E-15	5.073789E-17
6.299291E+03	6.251099E-15	5.009717E-17
6.309274E+03	6.144957E-15	4.920218E-17
6.319257E+03	6.018128E-15	4.814477E-17
6.329240E+03	5.883444E-15	4.702783E-17
6.339223E+03	5.753863E-15	4.595486E-17
6.349206E+03	5.640648E-15	4.501555E-17
6.359189E+03	5.552564E-15	4.427937E-17
6.369172E+03	5.495072E-15	4.378931E-17
6.379155E+03	5.470248E-15	4.356133E-17
6.389138E+03	5.476749E-15	4.358412E-17
6.399121E+03	5.509814E-15	4.381933E-17
6.409105E+03	5.561891E-15	4.420654E-17
6.419088E+03	5.622676E-15	4.466363E-17
6.429071E+03	5.680629E-15	4.509887E-17
6.439054E+03	5.724365E-15	4.542200E-17
6.449037E+03	5.744478E-15	4.555860E-17
6.459020E+03	5.735716E-15	4.546730E-17
6.469003E+03	5.697835E-15	4.514650E-17
6.478986E+03	5.635762E-15	4.463547E-17
6.488969E+03	5.558657E-15	4.400692E-17
6.498952E+03	5.478103E-15	4.335257E-17
6.508935E+03	5.405743E-15	4.276447E-17
6.518918E+03	5.350361E-15	4.231194E-17
6.528901E+03	5.314278E-15	4.201315E-17
6.538884E+03	5.293119E-15	4.183329E-17
6.548867E+03	5.279906E-15	4.171710E-17
6.558850E+03	5.267762E-15	4.161015E-17
6.568833E+03	5.251663E-15	4.147273E-17
6.578816E+03	5.228092E-15	4.127706E-17
6.588799E+03	5.195528E-15	4.101112E-17
6.598782E+03	5.153888E-15	4.067427E-17
6.608765E+03	5.103905E-15	4.027229E-17
6.618748E+03	5.047014E-15	3.981650E-17
6.628731E+03	4.984749E-15	3.931897E-17
6.638714E+03	4.918640E-15	3.879177E-17
6.648697E+03	4.849985E-15	3.824508E-17
6.658680E+03	4.780264E-15	3.769055E-17
6.668663E+03	4.711008E-15	3.714020E-17
6.678646E+03	4.643918E-15	3.660743E-17
6.688629E+03	4.580639E-15	3.610514E-17
6.698612E+03	4.522756E-15	3.564579E-17
6.708595E+03	4.471629E-15	3.524007E-17
6.718578E+03	4.428053E-15	3.489420E-17
6.728561E+03	4.392322E-15	3.461045E-17
6.738544E+03	4.363978E-15	3.438519E-17
6.748528E+03	4.341850E-15	3.420918E-17
6.758511E+03	4.324083E-15	3.406777E-17
6.768494E+03	4.308541E-15	3.394412E-17
6.778477E+03	4.292764E-15	3.381883E-17
6.788460E+03	4.274715E-15	3.367586E-17
6.798443E+03	4.252841E-15	3.350296E-17
6.808426E+03	4.226593E-15	3.329579E-17
6.818409E+03	4.196579E-15	3.305915E-17
6.828392E+03	4.164360E-15	3.280532E-17
6.838375E+03	4.132338E-15	3.255321E-17
6.848358E+03	4.103401E-15	3.232559E-17
6.858341E+03	4.080443E-15	3.214523E-17
6.868324E+03	4.065983E-15	3.203199E-17
6.878307E+03	4.061900E-15	3.200068E-17
6.888290E+03	4.069139E-15	3.205875E-17
6.898273E+03	4.087382E-15	3.220370E-17
6.908256E+03	4.114955E-15	3.242238E-17
6.918239E+03	4.149122E-15	3.269323E-17
6.928222E+03	4.186006E-15	3.298573E-17
6.938205E+03	4.221656E-15	3.326876E-17
6.948188E+03	4.252191E-15	3.351176E-17
6.958171E+03	4.274866E-15	3.369309E-17
6.968154E+03	4.288554E-15	3.380386E-17
6.978137E+03	4.293511E-15	3.384611E-17
6.988120E+03	4.291395E-15	3.383288E-17
6.998103E+03	4.284677E-15	3.378368E-17
7.008086E+03	4.275979E-15	3.371917E-17
7.018069E+03	4.267575E-15	3.365731E-17
7.028052E+03	4.261253E-15	3.361220E-17
7.038035E+03	4.258354E-15	3.359446E-17
7.048018E+03	4.259932E-15	3.361244E-17
7.058001E+03	4.267056E-15	3.367461E-17
7.067984E+03	4.281176E-15	3.379248E-17
7.077967E+03	4.304194E-15	3.398110E-17
7.087950E+03	4.338405E-15	3.425869E-17
7.097934E+03	4.385954E-15	3.464228E-17
7.107917E+03	4.448712E-15	3.514678E-17
7.117900E+03	4.527438E-15	3.577832E-17
7.127883E+03	4.621649E-15	3.653325E-17
7.137866E+03	4.729445E-15	3.739675E-17
7.147849E+03	4.847661E-15	3.834392E-17
7.157832E+03	4.972275E-15	3.934316E-17
7.167815E+03	5.099339E-15	4.036335E-17
7.177798E+03	5.225143E-15	4.137524E-17
7.187781E+03	5.346951E-15	4.235726E-17
7.197764E+03	5.462706E-15	4.329318E-17
7.207747E+03	5.570699E-15	4.416951E-17
7.217730E+03	5.669319E-15	4.497350E-17
7.227713E+03	5.756387E-15	4.568787E-17
7.237696E+03	5.828898E-15	4.628871E-17
7.247679E+03	5.883232E-15	4.674720E-17
7.257662E+03	5.915579E-15	4.703286E-17
7.267645E+03	5.922445E-15	4.711768E-17
7.277628E+03	5.901372E-15	4.698175E-17
7.287611E+03	5.852126E-15	4.662281E-17
7.297594E+03	5.776720E-15	4.605645E-17
7.307577E+03	5.679560E-15	4.531735E-17
7.317560E+03	5.567198E-15	4.445738E-17
7.327543E+03	5.447503E-15	4.353910E-17
7.337526E+03	5.328294E-15	4.262486E-17
7.347509E+03	5.216735E-15	4.177195E-17
7.357492E+03	5.118077E-15	4.102257E-17
7.367475E+03	5.035272E-15	4.040069E-17
7.377458E+03	4.968951E-15	3.991172E-17
7.387441E+03	4.917801E-15	3.954550E-17
7.397424E+03	4.878707E-15	3.927739E-17
7.407407E+03	4.847346E-15	3.907288E-17
7.417390E+03	4.819161E-15	3.889542E-17
7.427373E+03	4.789393E-15	3.870670E-17
7.437356E+03	4.754031E-15	3.847420E-17
7.447340E+03	4.709660E-15	3.817006E-17
7.457323E+03	4.654195E-15	3.777705E-17
7.467306E+03	4.586643E-15	3.728667E-17
7.477289E+03	4.507473E-15	3.670222E-17
7.487272E+03	4.418626E-15	3.603901E-17
7.497255E+03	4.323458E-15	3.532397E-17
7.507238E+03	4.226509E-15	3.459383E-17
7.517221E+03	4.133037E-15	3.389146E-17
7.527204E+03	4.048329E-15	3.326032E-17
7.537187E+03	3.977129E-15	3.273970E-17
7.547170E+03	3.922441E-15	3.235493E-17
7.557153E+03	3.885190E-15	3.211440E-17
7.567136E+03	3.863561E-15	3.200388E-17
7.577119E+03	3.853313E-15	3.198896E-17
7.587102E+03	3.848569E-15	3.202132E-17
7.597085E+03	3.844012E-15	3.205693E-17
7.607068E+03	3.838307E-15	3.208459E-17
7.617051E+03	3.835812E-15	3.214075E-17
7.627034E+03	3.844503E-15	3.229257E-17
7.637017E+03	3.872470E-15	3.260887E-17
7.647000E+03	3.925495E-15	3.313970E-17
7.656983E+03	4.005865E-15	3.390610E-17
7.666966E+03	4.112468E-15	3.490051E-17
7.676949E+03	4.240990E-15	3.608814E-17
7.686932E+03	4.384440E-15	3.741099E-17
7.696915E+03	4.534289E-15	3.879730E-17
7.706898E+03	4.680812E-15	4.016428E-17
7.716881E+03	4.814489E-15	4.142993E-17
7.726864E+03	4.926952E-15	4.252126E-17
7.736847E+03	5.011644E-15	4.338005E-17
7.746830E+03	5.064682E-15	4.397055E-17
