#wls	flux	fluxerr
1.597285E+03	7.955857E-17	2.501291E-18
1.637217E+03	8.108227E-17	2.542830E-18
1.677149E+03	8.245955E-17	2.579382E-18
1.717081E+03	8.370541E-17	2.611438E-18
1.757013E+03	8.478606E-17	2.637969E-18
1.796945E+03	8.563605E-17	2.656974E-18
1.836877E+03	8.623268E-17	2.667802E-18
1.876809E+03	8.645392E-17	2.666751E-18
1.916742E+03	8.624878E-17	2.652348E-18
1.956674E+03	8.554706E-17	2.622560E-18
1.996606E+03	8.437192E-17	2.578237E-18
2.036538E+03	8.291845E-17	2.525468E-18
2.076470E+03	8.158919E-17	2.476561E-18
2.116402E+03	8.096620E-17	2.449090E-18
2.156334E+03	8.158806E-17	2.459066E-18
2.196266E+03	8.372308E-17	2.514132E-18
2.236198E+03	8.721636E-17	2.609132E-18
2.276131E+03	9.169709E-17	2.732520E-18
2.316063E+03	9.671721E-17	2.870613E-18
2.355995E+03	1.019328E-16	3.013008E-18
2.395927E+03	1.071868E-16	3.154964E-18
2.435859E+03	1.124050E-16	3.294238E-18
2.475791E+03	1.175478E-16	3.429643E-18
2.515723E+03	1.226855E-16	3.563200E-18
2.555655E+03	1.278745E-16	3.696486E-18
2.595588E+03	1.331603E-16	3.830744E-18
2.635520E+03	1.386320E-16	3.968427E-18
2.675452E+03	1.443626E-16	4.111478E-18
2.715384E+03	1.504063E-16	4.261261E-18
2.755316E+03	1.568859E-16	4.421039E-18
2.795248E+03	1.638416E-16	4.591666E-18
2.835180E+03	1.714103E-16	4.776665E-18
2.875112E+03	1.796676E-16	4.977765E-18
2.915044E+03	1.887206E-16	5.197490E-18
2.954977E+03	1.987130E-16	5.439285E-18
2.994909E+03	2.097462E-16	5.705331E-18
3.004892E+03	2.126837E-16	5.776007E-18
3.014875E+03	2.156915E-16	5.848287E-18
3.024858E+03	2.188009E-16	5.923008E-18
3.034841E+03	2.219887E-16	5.999529E-18
3.044824E+03	2.252555E-16	6.077854E-18
3.054807E+03	2.286213E-16	6.158507E-18
3.064790E+03	2.320860E-16	6.241470E-18
3.074773E+03	2.356804E-16	6.327559E-18
3.084756E+03	2.393745E-16	6.415943E-18
3.094739E+03	2.431683E-16	6.506609E-18
3.104722E+03	2.470619E-16	6.599547E-18
3.114705E+03	2.510883E-16	6.695615E-18
3.124688E+03	2.552155E-16	6.793946E-18
3.134671E+03	2.594438E-16	6.894527E-18
3.144654E+03	2.637730E-16	6.997336E-18
3.154637E+03	2.682372E-16	7.103261E-18
3.164620E+03	2.727674E-16	7.210457E-18
3.174603E+03	2.774320E-16	7.320714E-18
3.184586E+03	2.822310E-16	7.434015E-18
3.194569E+03	2.870916E-16	7.548417E-18
3.204552E+03	2.920833E-16	7.665735E-18
3.214535E+03	2.971672E-16	7.784929E-18
3.224518E+03	3.023393E-16	7.905875E-18
3.234501E+03	3.075944E-16	8.028425E-18
3.244484E+03	3.129655E-16	8.153419E-18
3.254467E+03	3.184072E-16	8.279662E-18
3.264450E+03	3.239111E-16	8.406915E-18
3.274433E+03	3.294669E-16	8.534902E-18
3.284416E+03	3.351039E-16	8.664369E-18
3.294400E+03	3.407688E-16	8.793928E-18
3.304383E+03	3.464468E-16	8.923183E-18
3.314366E+03	3.521212E-16	9.051704E-18
3.324349E+03	3.578173E-16	9.180138E-18
3.334332E+03	3.634737E-16	9.306903E-18
3.344315E+03	3.690704E-16	9.431490E-18
3.354298E+03	3.745866E-16	9.553375E-18
3.364281E+03	3.800470E-16	9.673194E-18
3.374264E+03	3.853873E-16	9.789322E-18
3.384247E+03	3.905890E-16	9.901303E-18
3.394230E+03	3.956357E-16	1.000874E-17
3.404213E+03	4.005141E-16	1.011132E-17
3.414196E+03	4.052620E-16	1.021002E-17
3.424179E+03	4.098280E-16	1.030356E-17
3.434162E+03	4.142602E-16	1.039317E-17
3.444145E+03	4.184690E-16	1.047664E-17
3.454128E+03	4.225625E-16	1.055668E-17
3.464111E+03	4.265104E-16	1.063257E-17
3.474094E+03	4.303363E-16	1.070492E-17
3.484077E+03	4.340684E-16	1.077443E-17
3.494060E+03	4.377893E-16	1.084317E-17
3.504043E+03	4.414860E-16	1.091082E-17
3.514026E+03	4.451967E-16	1.097832E-17
3.524009E+03	4.489605E-16	1.104662E-17
3.533992E+03	4.528664E-16	1.111791E-17
3.543975E+03	4.569007E-16	1.119181E-17
3.553958E+03	4.610967E-16	1.126913E-17
3.563941E+03	4.654825E-16	1.135052E-17
3.573924E+03	4.701318E-16	1.143773E-17
3.583907E+03	4.749565E-16	1.152858E-17
3.593890E+03	4.800667E-16	1.162571E-17
3.603873E+03	4.854085E-16	1.172775E-17
3.613856E+03	4.910244E-16	1.183571E-17
3.623839E+03	4.967917E-16	1.194656E-17
3.633823E+03	5.027938E-16	1.206229E-17
3.643806E+03	5.089521E-16	1.218097E-17
3.653789E+03	5.152397E-16	1.230193E-17
3.663772E+03	5.216862E-16	1.242585E-17
3.673755E+03	5.281604E-16	1.254958E-17
3.683738E+03	5.347573E-16	1.267536E-17
3.693721E+03	5.414149E-16	1.280169E-17
3.703704E+03	5.481936E-16	1.293000E-17
3.713687E+03	5.549953E-16	1.305795E-17
3.723670E+03	5.619624E-16	1.318887E-17
3.733653E+03	5.690209E-16	1.332099E-17
3.743636E+03	5.763407E-16	1.345827E-17
3.753619E+03	5.839286E-16	1.360081E-17
3.763602E+03	5.919187E-16	1.375167E-17
3.773585E+03	6.002720E-16	1.390988E-17
3.783568E+03	6.091923E-16	1.408007E-17
3.793551E+03	6.187027E-16	1.426267E-17
3.803534E+03	6.288816E-16	1.445936E-17
3.813517E+03	6.397986E-16	1.467163E-17
3.823500E+03	6.515112E-16	1.490065E-17
3.833483E+03	6.641259E-16	1.514868E-17
3.843466E+03	6.775350E-16	1.541312E-17
3.853449E+03	6.918690E-16	1.569676E-17
3.863432E+03	7.070396E-16	1.599744E-17
3.873415E+03	7.229951E-16	1.631381E-17
3.883398E+03	7.396607E-16	1.664406E-17
3.893381E+03	7.570077E-16	1.698738E-17
3.903364E+03	7.747672E-16	1.733762E-17
3.913347E+03	7.929412E-16	1.769475E-17
3.923330E+03	8.112182E-16	1.805175E-17
3.933313E+03	8.295764E-16	1.840810E-17
3.943296E+03	8.477592E-16	1.875809E-17
3.953279E+03	8.655858E-16	1.909777E-17
3.963262E+03	8.828787E-16	1.942329E-17
3.973245E+03	8.994738E-16	1.973114E-17
3.983229E+03	9.153090E-16	2.002008E-17
3.993212E+03	9.300900E-16	2.028384E-17
4.003195E+03	9.438025E-16	2.052231E-17
4.013178E+03	9.564658E-16	2.073609E-17
4.023161E+03	9.678681E-16	2.092081E-17
4.033144E+03	9.781824E-16	2.108044E-17
4.043127E+03	9.873495E-16	2.121391E-17
4.053110E+03	9.953386E-16	2.132078E-17
4.063093E+03	1.002419E-15	2.140703E-17
4.073076E+03	1.008613E-15	2.147331E-17
4.083059E+03	1.014055E-15	2.152265E-17
4.093042E+03	1.018896E-15	2.155839E-17
4.103025E+03	1.023297E-15	2.158404E-17
4.113008E+03	1.027338E-15	2.160134E-17
4.122991E+03	1.031365E-15	2.161769E-17
4.132974E+03	1.035456E-15	2.163465E-17
4.142957E+03	1.039767E-15	2.165549E-17
4.152940E+03	1.044442E-15	2.168316E-17
4.162923E+03	1.049613E-15	2.172030E-17
4.172906E+03	1.055391E-15	2.176909E-17
4.182889E+03	1.061866E-15	2.183129E-17
4.192872E+03	1.069109E-15	2.190819E-17
4.202855E+03	1.077074E-15	2.199872E-17
4.212838E+03	1.085968E-15	2.210692E-17
4.222821E+03	1.095699E-15	2.223075E-17
4.232804E+03	1.106153E-15	2.236772E-17
4.242787E+03	1.117473E-15	2.252058E-17
4.252770E+03	1.129412E-15	2.268417E-17
4.262753E+03	1.142081E-15	2.286062E-17
4.272736E+03	1.155205E-15	2.304425E-17
4.282719E+03	1.168782E-15	2.323493E-17
4.292702E+03	1.182811E-15	2.343258E-17
4.302685E+03	1.197005E-15	2.363140E-17
4.312668E+03	1.211374E-15	2.383159E-17
4.322651E+03	1.225748E-15	2.402975E-17
4.332635E+03	1.240275E-15	2.422878E-17
4.342618E+03	1.254830E-15	2.442620E-17
4.352601E+03	1.269309E-15	2.462001E-17
4.362584E+03	1.283939E-15	2.481460E-17
4.372567E+03	1.298559E-15	2.500684E-17
4.382550E+03	1.313323E-15	2.519970E-17
4.392533E+03	1.328283E-15	2.539412E-17
4.402516E+03	1.343484E-15	2.559093E-17
4.412499E+03	1.358858E-15	2.578879E-17
4.422482E+03	1.374654E-15	2.599237E-17
4.432465E+03	1.390683E-15	2.619803E-17
4.442448E+03	1.407071E-15	2.640809E-17
4.452431E+03	1.423819E-15	2.662248E-17
4.462414E+03	1.440906E-15	2.684074E-17
4.472397E+03	1.458169E-15	2.705978E-17
4.482380E+03	1.475638E-15	2.728010E-17
4.492363E+03	1.493198E-15	2.749954E-17
4.502346E+03	1.510700E-15	2.771533E-17
4.512329E+03	1.527965E-15	2.792424E-17
4.522312E+03	1.544671E-15	2.812044E-17
4.532295E+03	1.560832E-15	2.830430E-17
4.542278E+03	1.575862E-15	2.846533E-17
4.552261E+03	1.589890E-15	2.860612E-17
4.562244E+03	1.602583E-15	2.872088E-17
4.572227E+03	1.613627E-15	2.880433E-17
4.582210E+03	1.622984E-15	2.885611E-17
4.592193E+03	1.630532E-15	2.887443E-17
4.602176E+03	1.636073E-15	2.885619E-17
4.612159E+03	1.639701E-15	2.880346E-17
4.622142E+03	1.641434E-15	2.871696E-17
4.632125E+03	1.641335E-15	2.859823E-17
4.642108E+03	1.639389E-15	2.844738E-17
4.652091E+03	1.635861E-15	2.826936E-17
4.662074E+03	1.630920E-15	2.806748E-17
4.672058E+03	1.624762E-15	2.784534E-17
4.682041E+03	1.617474E-15	2.760476E-17
4.692024E+03	1.609397E-15	2.735173E-17
4.702007E+03	1.600631E-15	2.708813E-17
4.711990E+03	1.591627E-15	2.682172E-17
4.721973E+03	1.582360E-15	2.655213E-17
4.731956E+03	1.573142E-15	2.628465E-17
4.741939E+03	1.564041E-15	2.602038E-17
4.751922E+03	1.555333E-15	2.576390E-17
4.761905E+03	1.547164E-15	2.551752E-17
4.771888E+03	1.539546E-15	2.528134E-17
4.781871E+03	1.532693E-15	2.505875E-17
4.791854E+03	1.526687E-15	2.485090E-17
4.801837E+03	1.521585E-15	2.465855E-17
4.811820E+03	1.517317E-15	2.448039E-17
4.821803E+03	1.513897E-15	2.431647E-17
4.831786E+03	1.511532E-15	2.416993E-17
4.841769E+03	1.509980E-15	2.403666E-17
4.851752E+03	1.509295E-15	2.391740E-17
4.861735E+03	1.509307E-15	2.380925E-17
4.871718E+03	1.510035E-15	2.371239E-17
4.881701E+03	1.511382E-15	2.362516E-17
4.891684E+03	1.513137E-15	2.354413E-17
4.901667E+03	1.515398E-15	2.347075E-17
4.911650E+03	1.517739E-15	2.339835E-17
4.921633E+03	1.520370E-15	2.333017E-17
4.931616E+03	1.522992E-15	2.326154E-17
4.941599E+03	1.525528E-15	2.319136E-17
4.951582E+03	1.528038E-15	2.312051E-17
4.961565E+03	1.530502E-15	2.304875E-17
4.971548E+03	1.532934E-15	2.297630E-17
4.981531E+03	1.535275E-15	2.290230E-17
4.991514E+03	1.537714E-15	2.282957E-17
5.001497E+03	1.540362E-15	2.275976E-17
5.011480E+03	1.543248E-15	2.269325E-17
5.021464E+03	1.546525E-15	2.263228E-17
5.031447E+03	1.550567E-15	2.258218E-17
5.041430E+03	1.555320E-15	2.254204E-17
5.051413E+03	1.561037E-15	2.251539E-17
5.061396E+03	1.567738E-15	2.250230E-17
5.071379E+03	1.575622E-15	2.250547E-17
5.081362E+03	1.584748E-15	2.252546E-17
5.091345E+03	1.595024E-15	2.256076E-17
5.101328E+03	1.606527E-15	2.261223E-17
5.111311E+03	1.619076E-15	2.267712E-17
5.121294E+03	1.632775E-15	2.275666E-17
5.131277E+03	1.647142E-15	2.284396E-17
5.141260E+03	1.662323E-15	2.294094E-17
5.151243E+03	1.677890E-15	2.304158E-17
5.161226E+03	1.693728E-15	2.314427E-17
5.171209E+03	1.709493E-15	2.324429E-17
5.181192E+03	1.725065E-15	2.334008E-17
5.191175E+03	1.740221E-15	2.342870E-17
5.201158E+03	1.754630E-15	2.350586E-17
5.211141E+03	1.768217E-15	2.357072E-17
5.221124E+03	1.780809E-15	2.362120E-17
5.231107E+03	1.792142E-15	2.365405E-17
5.241090E+03	1.802214E-15	2.366951E-17
5.251073E+03	1.810932E-15	2.366666E-17
5.261056E+03	1.818111E-15	2.364341E-17
5.271039E+03	1.823836E-15	2.360115E-17
5.281022E+03	1.828095E-15	2.354007E-17
5.291005E+03	1.830785E-15	2.345916E-17
5.300988E+03	1.832069E-15	2.336082E-17
5.310971E+03	1.832014E-15	2.324618E-17
5.320954E+03	1.830587E-15	2.311512E-17
5.330937E+03	1.828019E-15	2.297081E-17
5.340920E+03	1.824314E-15	2.281353E-17
5.350903E+03	1.819848E-15	2.264821E-17
5.360886E+03	1.814526E-15	2.247382E-17
5.370870E+03	1.808491E-15	2.229230E-17
5.380853E+03	1.802116E-15	2.210835E-17
5.390836E+03	1.795284E-15	2.192064E-17
5.400819E+03	1.788089E-15	2.173041E-17
5.410802E+03	1.780825E-15	2.154128E-17
5.420785E+03	1.773274E-15	2.135065E-17
5.430768E+03	1.765400E-15	2.115817E-17
5.440751E+03	1.757336E-15	2.096548E-17
5.450734E+03	1.748688E-15	2.076793E-17
5.460717E+03	1.739323E-15	2.056408E-17
5.470700E+03	1.728804E-15	2.034887E-17
5.480683E+03	1.716887E-15	2.011959E-17
5.490666E+03	1.703319E-15	1.987343E-17
5.500649E+03	1.688040E-15	1.960996E-17
5.510632E+03	1.670971E-15	1.932844E-17
5.520615E+03	1.652241E-15	1.903057E-17
5.530598E+03	1.631849E-15	1.871655E-17
5.540581E+03	1.609696E-15	1.838543E-17
5.550564E+03	1.585916E-15	1.803892E-17
5.560547E+03	1.560573E-15	1.767794E-17
5.570530E+03	1.533780E-15	1.730388E-17
5.580513E+03	1.505594E-15	1.691757E-17
5.590496E+03	1.476325E-15	1.652255E-17
5.600479E+03	1.446226E-15	1.612177E-17
5.610462E+03	1.415593E-15	1.571854E-17
5.620445E+03	1.384669E-15	1.531554E-17
5.630428E+03	1.353905E-15	1.491773E-17
5.640411E+03	1.323592E-15	1.452822E-17
5.650394E+03	1.294289E-15	1.415300E-17
5.660377E+03	1.266209E-15	1.379420E-17
5.670360E+03	1.239808E-15	1.345659E-17
5.680343E+03	1.215436E-15	1.314368E-17
5.690326E+03	1.193337E-15	1.285781E-17
5.700309E+03	1.173947E-15	1.260337E-17
5.710293E+03	1.157353E-15	1.238092E-17
5.720276E+03	1.143747E-15	1.219216E-17
5.730259E+03	1.133412E-15	1.203973E-17
5.740242E+03	1.126284E-15	1.192257E-17
5.750225E+03	1.122461E-15	1.184133E-17
5.760208E+03	1.121907E-15	1.179528E-17
5.770191E+03	1.124530E-15	1.178309E-17
5.780174E+03	1.130107E-15	1.180210E-17
5.790157E+03	1.138503E-15	1.185058E-17
5.800140E+03	1.149458E-15	1.192557E-17
5.810123E+03	1.162660E-15	1.202360E-17
5.820106E+03	1.177681E-15	1.214002E-17
5.830089E+03	1.194281E-15	1.227222E-17
5.840072E+03	1.211890E-15	1.241423E-17
5.850055E+03	1.230154E-15	1.256236E-17
5.860038E+03	1.248562E-15	1.271135E-17
5.870021E+03	1.266853E-15	1.285860E-17
5.880004E+03	1.284474E-15	1.299852E-17
5.889987E+03	1.301155E-15	1.312848E-17
5.899970E+03	1.316596E-15	1.324557E-17
5.909953E+03	1.330561E-15	1.334756E-17
5.919936E+03	1.342795E-15	1.343204E-17
5.929919E+03	1.353375E-15	1.349995E-17
5.939902E+03	1.362101E-15	1.354948E-17
5.949885E+03	1.369110E-15	1.358212E-17
5.959868E+03	1.374514E-15	1.359916E-17
5.969851E+03	1.378484E-15	1.360242E-17
5.979834E+03	1.381156E-15	1.359337E-17
5.989817E+03	1.382886E-15	1.357561E-17
5.999800E+03	1.384060E-15	1.355300E-17
6.009783E+03	1.384827E-15	1.352704E-17
6.019766E+03	1.385618E-15	1.350199E-17
6.029749E+03	1.386692E-15	1.348036E-17
6.039732E+03	1.388585E-15	1.346735E-17
6.049715E+03	1.391471E-15	1.346459E-17
6.059699E+03	1.395873E-15	1.347708E-17
6.069682E+03	1.401948E-15	1.350628E-17
6.079665E+03	1.410108E-15	1.355602E-17
6.089648E+03	1.420656E-15	1.362914E-17
6.099631E+03	1.433785E-15	1.372737E-17
6.109614E+03	1.449938E-15	1.385484E-17
6.119597E+03	1.469161E-15	1.401183E-17
6.129580E+03	1.491832E-15	1.420184E-17
6.139563E+03	1.517907E-15	1.442432E-17
6.149546E+03	1.547567E-15	1.468089E-17
6.159529E+03	1.580827E-15	1.497158E-17
6.169512E+03	1.617616E-15	1.529562E-17
6.179495E+03	1.657756E-15	1.565127E-17
6.189478E+03	1.700835E-15	1.603460E-17
6.199461E+03	1.746625E-15	1.644344E-17
6.209444E+03	1.794288E-15	1.686993E-17
6.219427E+03	1.843254E-15	1.730874E-17
6.229410E+03	1.892360E-15	1.774906E-17
6.239393E+03	1.940871E-15	1.818406E-17
6.249376E+03	1.988107E-15	1.860747E-17
6.259359E+03	2.033428E-15	1.901341E-17
6.269342E+03	2.076147E-15	1.939554E-17
6.279325E+03	2.115408E-15	1.974602E-17
6.289308E+03	2.150784E-15	2.006096E-17
6.299291E+03	2.181352E-15	2.033189E-17
6.309274E+03	2.206839E-15	2.055636E-17
6.319257E+03	2.226522E-15	2.072774E-17
6.329240E+03	2.240398E-15	2.084610E-17
6.339223E+03	2.248029E-15	2.090744E-17
6.349206E+03	2.249576E-15	2.091331E-17
6.359189E+03	2.245201E-15	2.086526E-17
6.369172E+03	2.235203E-15	2.076607E-17
6.379155E+03	2.219989E-15	2.061953E-17
6.389138E+03	2.200053E-15	2.043023E-17
6.399121E+03	2.175807E-15	2.020193E-17
6.409105E+03	2.148116E-15	1.994264E-17
6.419088E+03	2.117421E-15	1.965640E-17
6.429071E+03	2.084149E-15	1.934711E-17
6.439054E+03	2.049105E-15	1.902216E-17
6.449037E+03	2.012494E-15	1.868341E-17
6.459020E+03	1.974866E-15	1.833591E-17
6.469003E+03	1.936700E-15	1.798400E-17
6.478986E+03	1.898016E-15	1.762782E-17
6.488969E+03	1.859153E-15	1.727041E-17
6.498952E+03	1.820237E-15	1.691289E-17
6.508935E+03	1.781448E-15	1.655684E-17
6.518918E+03	1.742587E-15	1.620035E-17
6.528901E+03	1.703915E-15	1.584576E-17
6.538884E+03	1.665681E-15	1.549535E-17
6.548867E+03	1.628027E-15	1.515038E-17
6.558850E+03	1.591347E-15	1.481446E-17
6.568833E+03	1.555647E-15	1.448763E-17
6.578816E+03	1.520995E-15	1.417047E-17
6.588799E+03	1.487420E-15	1.386323E-17
6.598782E+03	1.454837E-15	1.356510E-17
6.608765E+03	1.423430E-15	1.327775E-17
6.618748E+03	1.393082E-15	1.300010E-17
6.628731E+03	1.363678E-15	1.273104E-17
6.638714E+03	1.335377E-15	1.247206E-17
6.648697E+03	1.307979E-15	1.222127E-17
6.658680E+03	1.281644E-15	1.198017E-17
6.668663E+03	1.256188E-15	1.174701E-17
6.678646E+03	1.231775E-15	1.152336E-17
6.688629E+03	1.208238E-15	1.130762E-17
6.698612E+03	1.185666E-15	1.110064E-17
6.708595E+03	1.164142E-15	1.090320E-17
6.718578E+03	1.143521E-15	1.071395E-17
6.728561E+03	1.123892E-15	1.053370E-17
6.738544E+03	1.105268E-15	1.036261E-17
6.748528E+03	1.087733E-15	1.020146E-17
6.758511E+03	1.071156E-15	1.004903E-17
6.768494E+03	1.055625E-15	9.906138E-18
6.778477E+03	1.041152E-15	9.772930E-18
6.788460E+03	1.027754E-15	9.649565E-18
6.798443E+03	1.015448E-15	9.536206E-18
6.808426E+03	1.004252E-15	9.433026E-18
6.818409E+03	9.941833E-16	9.340204E-18
6.828392E+03	9.852600E-16	9.257915E-18
6.838375E+03	9.774994E-16	9.186329E-18
6.848358E+03	9.709175E-16	9.125601E-18
6.858341E+03	9.655271E-16	9.075859E-18
6.868324E+03	9.613397E-16	9.037215E-18
6.878307E+03	9.583583E-16	9.009703E-18
6.888290E+03	9.565174E-16	8.992711E-18
6.898273E+03	9.559389E-16	8.987387E-18
6.908256E+03	9.565442E-16	8.992995E-18
6.918239E+03	9.583121E-16	9.009337E-18
6.928222E+03	9.611536E-16	9.035576E-18
6.938205E+03	9.651672E-16	9.072639E-18
6.948188E+03	9.702560E-16	9.119614E-18
6.958171E+03	9.763220E-16	9.175579E-18
6.968154E+03	9.834662E-16	9.241483E-18
6.978137E+03	9.915292E-16	9.315826E-18
6.988120E+03	1.000627E-15	9.399696E-18
6.998103E+03	1.010613E-15	9.491719E-18
7.008086E+03	1.021624E-15	9.593177E-18
7.018069E+03	1.033535E-15	9.702886E-18
7.028052E+03	1.046433E-15	9.821675E-18
7.038035E+03	1.060424E-15	9.950542E-18
7.048018E+03	1.075404E-15	1.008850E-17
7.058001E+03	1.091489E-15	1.023664E-17
7.067984E+03	1.108727E-15	1.039542E-17
7.077967E+03	1.127162E-15	1.056525E-17
7.087950E+03	1.146905E-15	1.074718E-17
7.097934E+03	1.167825E-15	1.093998E-17
7.107917E+03	1.189995E-15	1.114435E-17
7.117900E+03	1.213390E-15	1.136005E-17
7.127883E+03	1.237942E-15	1.158648E-17
7.137866E+03	1.263462E-15	1.182186E-17
7.147849E+03	1.289966E-15	1.206638E-17
7.157832E+03	1.317164E-15	1.231734E-17
7.167815E+03	1.344791E-15	1.257228E-17
7.177798E+03	1.372432E-15	1.282739E-17
7.187781E+03	1.399900E-15	1.308094E-17
7.197764E+03	1.426674E-15	1.332811E-17
7.207747E+03	1.452184E-15	1.356363E-17
7.217730E+03	1.476128E-15	1.378474E-17
7.227713E+03	1.497792E-15	1.398483E-17
7.237696E+03	1.516764E-15	1.416013E-17
7.247679E+03	1.532561E-15	1.430619E-17
7.257662E+03	1.544852E-15	1.441999E-17
7.267645E+03	1.553055E-15	1.449614E-17
7.277628E+03	1.556993E-15	1.453307E-17
7.287611E+03	1.556487E-15	1.452915E-17
7.297594E+03	1.551470E-15	1.448379E-17
7.307577E+03	1.541885E-15	1.439649E-17
7.317560E+03	1.528111E-15	1.427079E-17
7.327543E+03	1.510308E-15	1.410821E-17
7.337526E+03	1.488838E-15	1.391211E-17
7.347509E+03	1.464032E-15	1.368556E-17
7.357492E+03	1.436486E-15	1.343411E-17
7.367475E+03	1.406820E-15	1.316352E-17
7.377458E+03	1.375368E-15	1.287687E-17
7.387441E+03	1.342761E-15	1.258002E-17
7.397424E+03	1.309506E-15	1.227768E-17
7.407407E+03	1.276082E-15	1.197430E-17
7.417390E+03	1.242920E-15	1.167389E-17
7.427373E+03	1.210411E-15	1.138009E-17
7.437356E+03	1.178896E-15	1.109608E-17
7.447340E+03	1.148585E-15	1.082383E-17
7.457323E+03	1.119891E-15	1.056723E-17
7.467306E+03	1.092853E-15	1.032667E-17
7.477289E+03	1.067794E-15	1.010522E-17
7.487272E+03	1.044690E-15	9.902701E-18
7.497255E+03	1.023719E-15	9.720841E-18
7.507238E+03	1.004956E-15	9.560450E-18
7.517221E+03	9.884594E-16	9.422143E-18
7.527204E+03	9.742005E-16	9.305765E-18
7.537187E+03	9.623500E-16	9.213059E-18
7.547170E+03	9.528571E-16	9.143660E-18
7.557153E+03	9.456610E-16	9.097095E-18
7.567136E+03	9.408210E-16	9.074067E-18
7.577119E+03	9.383622E-16	9.074962E-18
7.587102E+03	9.380611E-16	9.097782E-18
7.597085E+03	9.398521E-16	9.142053E-18
7.607068E+03	9.435476E-16	9.206117E-18
7.617051E+03	9.492458E-16	9.291107E-18
7.627034E+03	9.568630E-16	9.396395E-18
7.637017E+03	9.662682E-16	9.520885E-18
7.647000E+03	9.774802E-16	9.664963E-18
7.656983E+03	9.901939E-16	9.825810E-18
7.666966E+03	1.004285E-15	1.000238E-17
7.676949E+03	1.019536E-15	1.019267E-17
7.686932E+03	1.035711E-15	1.039448E-17
7.696915E+03	1.052488E-15	1.060473E-17
7.706898E+03	1.069762E-15	1.082245E-17
7.716881E+03	1.087123E-15	1.104358E-17
7.726864E+03	1.104395E-15	1.126636E-17
7.736847E+03	1.121417E-15	1.148917E-17
7.746830E+03	1.137720E-15	1.170720E-17
