#wls	flux	fluxerr
1.597285E+03	6.176362E-17	3.073599E-18
1.637217E+03	6.315266E-17	3.129060E-18
1.677149E+03	6.445559E-17	3.179350E-18
1.717081E+03	6.568585E-17	3.225159E-18
1.757013E+03	6.679496E-17	3.264145E-18
1.796945E+03	6.777795E-17	3.296126E-18
1.836877E+03	6.855907E-17	3.317507E-18
1.876809E+03	6.908659E-17	3.325924E-18
1.916742E+03	6.928189E-17	3.317787E-18
1.956674E+03	6.910806E-17	3.291583E-18
1.996606E+03	6.857807E-17	3.248208E-18
2.036538E+03	6.783336E-17	3.194611E-18
2.076470E+03	6.720147E-17	3.146309E-18
2.116402E+03	6.716733E-17	3.125781E-18
2.156334E+03	6.819397E-17	3.153933E-18
2.196266E+03	7.053261E-17	3.241370E-18
2.236198E+03	7.410902E-17	3.383501E-18
2.276131E+03	7.859082E-17	3.564066E-18
2.316063E+03	8.364018E-17	3.766933E-18
2.355995E+03	8.898796E-17	3.979434E-18
2.395927E+03	9.447681E-17	4.194194E-18
2.435859E+03	1.000577E-16	4.408806E-18
2.475791E+03	1.056932E-16	4.621425E-18
2.515723E+03	1.114267E-16	4.833773E-18
2.555655E+03	1.173218E-16	5.048364E-18
2.595588E+03	1.234137E-16	5.266413E-18
2.635520E+03	1.297581E-16	5.489942E-18
2.675452E+03	1.364118E-16	5.720936E-18
2.715384E+03	1.434328E-16	5.961326E-18
2.755316E+03	1.508802E-16	6.212987E-18
2.795248E+03	1.588391E-16	6.478759E-18
2.835180E+03	1.673495E-16	6.759505E-18
2.875112E+03	1.764759E-16	7.056980E-18
2.915044E+03	1.863116E-16	7.373967E-18
2.954977E+03	1.968653E-16	7.709749E-18
2.994909E+03	2.082534E-16	8.067748E-18
3.004892E+03	2.112509E-16	8.161349E-18
3.014875E+03	2.142685E-16	8.255004E-18
3.024858E+03	2.173705E-16	8.351166E-18
3.034841E+03	2.205287E-16	8.448730E-18
3.044824E+03	2.237417E-16	8.547621E-18
3.054807E+03	2.269933E-16	8.647199E-18
3.064790E+03	2.303483E-16	8.749910E-18
3.074773E+03	2.337706E-16	8.854347E-18
3.084756E+03	2.372575E-16	8.960390E-18
3.094739E+03	2.408419E-16	9.069245E-18
3.104722E+03	2.444500E-16	9.178105E-18
3.114705E+03	2.481135E-16	9.288153E-18
3.124688E+03	2.518291E-16	9.399238E-18
3.134671E+03	2.556306E-16	9.512595E-18
3.144654E+03	2.594771E-16	9.626680E-18
3.154637E+03	2.633257E-16	9.739887E-18
3.164620E+03	2.672482E-16	9.854852E-18
3.174603E+03	2.712012E-16	9.969956E-18
3.184586E+03	2.751787E-16	1.008497E-17
3.194569E+03	2.791343E-16	1.019817E-17
3.204552E+03	2.831414E-16	1.031226E-17
3.214535E+03	2.871946E-16	1.042700E-17
3.224518E+03	2.912033E-16	1.053910E-17
3.234501E+03	2.952003E-16	1.064976E-17
3.244484E+03	2.991769E-16	1.075865E-17
3.254467E+03	3.031674E-16	1.086703E-17
3.264450E+03	3.070757E-16	1.097144E-17
3.274433E+03	3.109794E-16	1.107467E-17
3.284416E+03	3.147799E-16	1.117322E-17
3.294400E+03	3.185564E-16	1.126994E-17
3.304383E+03	3.222543E-16	1.136289E-17
3.314366E+03	3.258634E-16	1.145175E-17
3.324349E+03	3.293276E-16	1.153458E-17
3.334332E+03	3.327307E-16	1.161435E-17
3.344315E+03	3.360181E-16	1.168919E-17
3.354298E+03	3.392305E-16	1.176054E-17
3.364281E+03	3.422666E-16	1.182493E-17
3.374264E+03	3.451695E-16	1.188391E-17
3.384247E+03	3.479367E-16	1.193744E-17
3.394230E+03	3.506167E-16	1.198722E-17
3.404213E+03	3.531136E-16	1.203002E-17
3.414196E+03	3.555299E-16	1.206938E-17
3.424179E+03	3.577741E-16	1.210224E-17
3.434162E+03	3.599552E-16	1.213233E-17
3.444145E+03	3.620367E-16	1.215845E-17
3.454128E+03	3.640341E-16	1.218116E-17
3.464111E+03	3.659160E-16	1.219943E-17
3.474094E+03	3.678041E-16	1.221737E-17
3.484077E+03	3.696723E-16	1.223408E-17
3.494060E+03	3.715465E-16	1.225046E-17
3.504043E+03	3.734546E-16	1.226740E-17
3.514026E+03	3.754771E-16	1.228752E-17
3.524009E+03	3.775417E-16	1.230844E-17
3.533992E+03	3.797298E-16	1.233278E-17
3.543975E+03	3.820711E-16	1.236145E-17
3.553958E+03	3.846461E-16	1.239700E-17
3.563941E+03	3.873778E-16	1.243687E-17
3.573924E+03	3.903939E-16	1.248508E-17
3.583907E+03	3.936095E-16	1.253882E-17
3.593890E+03	3.971436E-16	1.260180E-17
3.603873E+03	4.008898E-16	1.267053E-17
3.613856E+03	4.049460E-16	1.274802E-17
3.623839E+03	4.092456E-16	1.283206E-17
3.633823E+03	4.137721E-16	1.292205E-17
3.643806E+03	4.185068E-16	1.301733E-17
3.653789E+03	4.233745E-16	1.311548E-17
3.663772E+03	4.284682E-16	1.321933E-17
3.673755E+03	4.337156E-16	1.332657E-17
3.683738E+03	4.391029E-16	1.343671E-17
3.693721E+03	4.446205E-16	1.354943E-17
3.703704E+03	4.502636E-16	1.366451E-17
3.713687E+03	4.560928E-16	1.378376E-17
3.723670E+03	4.619966E-16	1.390374E-17
3.733653E+03	4.680475E-16	1.402660E-17
3.743636E+03	4.742652E-16	1.415287E-17
3.753619E+03	4.807378E-16	1.428512E-17
3.763602E+03	4.873727E-16	1.442050E-17
3.773585E+03	4.942673E-16	1.456184E-17
3.783568E+03	5.015252E-16	1.471206E-17
3.793551E+03	5.090591E-16	1.486850E-17
3.803534E+03	5.169748E-16	1.503411E-17
3.813517E+03	5.253797E-16	1.521189E-17
3.823500E+03	5.341783E-16	1.539888E-17
3.833483E+03	5.435396E-16	1.559979E-17
3.843466E+03	5.533530E-16	1.581127E-17
3.853449E+03	5.637777E-16	1.603766E-17
3.863432E+03	5.747547E-16	1.627707E-17
3.873415E+03	5.862097E-16	1.652721E-17
3.883398E+03	5.982772E-16	1.679168E-17
3.893381E+03	6.107832E-16	1.706538E-17
3.903364E+03	6.238421E-16	1.735136E-17
3.913347E+03	6.373269E-16	1.764588E-17
3.923330E+03	6.510917E-16	1.794479E-17
3.933313E+03	6.652202E-16	1.825028E-17
3.943296E+03	6.795419E-16	1.855757E-17
3.953279E+03	6.938721E-16	1.886159E-17
3.963262E+03	7.082721E-16	1.916399E-17
3.973245E+03	7.225429E-16	1.945943E-17
3.983229E+03	7.365674E-16	1.974481E-17
3.993212E+03	7.501362E-16	2.001467E-17
4.003195E+03	7.633217E-16	2.027111E-17
4.013178E+03	7.759290E-16	2.050915E-17
4.023161E+03	7.877698E-16	2.072407E-17
4.033144E+03	7.989598E-16	2.091920E-17
4.043127E+03	8.093464E-16	2.109084E-17
4.053110E+03	8.187934E-16	2.123576E-17
4.063093E+03	8.274846E-16	2.135909E-17
4.073076E+03	8.353301E-16	2.145881E-17
4.083059E+03	8.422568E-16	2.153338E-17
4.093042E+03	8.485198E-16	2.158966E-17
4.103025E+03	8.540861E-16	2.162708E-17
4.113008E+03	8.589378E-16	2.164545E-17
4.122991E+03	8.633761E-16	2.165261E-17
4.132974E+03	8.673008E-16	2.164624E-17
4.142957E+03	8.710263E-16	2.163434E-17
4.152940E+03	8.744563E-16	2.161464E-17
4.162923E+03	8.779051E-16	2.159498E-17
4.172906E+03	8.812654E-16	2.157275E-17
4.182889E+03	8.848401E-16	2.155539E-17
4.192872E+03	8.885031E-16	2.153978E-17
4.202855E+03	8.924319E-16	2.153020E-17
4.212838E+03	8.967924E-16	2.153056E-17
4.222821E+03	9.014217E-16	2.153684E-17
4.232804E+03	9.064623E-16	2.155235E-17
4.242787E+03	9.119387E-16	2.157758E-17
4.252770E+03	9.179728E-16	2.161525E-17
4.262753E+03	9.243538E-16	2.166028E-17
4.272736E+03	9.311822E-16	2.171491E-17
4.282719E+03	9.384441E-16	2.177871E-17
4.292702E+03	9.461173E-16	2.185105E-17
4.302685E+03	9.541738E-16	2.193118E-17
4.312668E+03	9.625835E-16	2.201834E-17
4.322651E+03	9.711988E-16	2.210907E-17
4.332635E+03	9.802106E-16	2.220768E-17
4.342618E+03	9.894773E-16	2.231088E-17
4.352601E+03	9.989751E-16	2.241812E-17
4.362584E+03	1.008574E-15	2.252644E-17
4.372567E+03	1.018504E-15	2.264098E-17
4.382550E+03	1.028549E-15	2.275691E-17
4.392533E+03	1.038977E-15	2.288012E-17
4.402516E+03	1.049602E-15	2.300650E-17
4.412499E+03	1.060602E-15	2.313991E-17
4.422482E+03	1.072161E-15	2.328426E-17
4.432465E+03	1.084088E-15	2.343535E-17
4.442448E+03	1.096543E-15	2.359657E-17
4.452431E+03	1.109538E-15	2.376802E-17
4.462414E+03	1.123054E-15	2.394919E-17
4.472397E+03	1.137035E-15	2.413872E-17
4.482380E+03	1.151253E-15	2.433169E-17
4.492363E+03	1.165824E-15	2.453052E-17
4.502346E+03	1.180443E-15	2.472866E-17
4.512329E+03	1.194761E-15	2.491889E-17
4.522312E+03	1.208806E-15	2.510187E-17
4.532295E+03	1.222061E-15	2.526698E-17
4.542278E+03	1.234545E-15	2.541484E-17
4.552261E+03	1.245752E-15	2.553527E-17
4.562244E+03	1.255611E-15	2.562718E-17
4.572227E+03	1.263958E-15	2.568757E-17
4.582210E+03	1.270680E-15	2.571453E-17
4.592193E+03	1.275714E-15	2.570723E-17
4.602176E+03	1.279059E-15	2.566603E-17
4.612159E+03	1.280766E-15	2.559236E-17
4.622142E+03	1.280789E-15	2.548572E-17
4.632125E+03	1.279551E-15	2.535485E-17
4.642108E+03	1.276934E-15	2.519775E-17
4.652091E+03	1.273269E-15	2.502120E-17
4.662074E+03	1.268889E-15	2.483194E-17
4.672058E+03	1.263712E-15	2.462852E-17
4.682041E+03	1.258065E-15	2.441746E-17
4.692024E+03	1.252125E-15	2.420224E-17
4.702007E+03	1.246049E-15	2.398594E-17
4.711990E+03	1.239842E-15	2.376864E-17
4.721973E+03	1.233892E-15	2.355777E-17
4.731956E+03	1.228164E-15	2.335252E-17
4.741939E+03	1.222604E-15	2.315185E-17
4.751922E+03	1.217409E-15	2.295938E-17
4.761905E+03	1.212758E-15	2.277835E-17
4.771888E+03	1.208422E-15	2.260435E-17
4.781871E+03	1.204556E-15	2.244016E-17
4.791854E+03	1.201172E-15	2.228588E-17
4.801837E+03	1.198275E-15	2.214145E-17
4.811820E+03	1.195730E-15	2.200429E-17
4.821803E+03	1.193781E-15	2.187876E-17
4.831786E+03	1.192152E-15	2.175966E-17
4.841769E+03	1.191069E-15	2.165101E-17
4.851752E+03	1.190240E-15	2.154742E-17
4.861735E+03	1.189753E-15	2.145038E-17
4.871718E+03	1.189561E-15	2.135895E-17
4.881701E+03	1.189614E-15	2.127217E-17
4.891684E+03	1.189860E-15	2.118907E-17
4.901667E+03	1.190250E-15	2.110869E-17
4.911650E+03	1.190609E-15	2.102794E-17
4.921633E+03	1.191147E-15	2.095049E-17
4.931616E+03	1.191575E-15	2.087122E-17
4.941599E+03	1.191993E-15	2.079193E-17
4.951582E+03	1.192385E-15	2.071231E-17
4.961565E+03	1.192750E-15	2.063234E-17
4.971548E+03	1.193101E-15	2.055229E-17
4.981531E+03	1.193473E-15	2.047272E-17
4.991514E+03	1.193914E-15	2.039447E-17
5.001497E+03	1.194371E-15	2.031661E-17
5.011480E+03	1.195179E-15	2.024480E-17
5.021464E+03	1.196184E-15	2.017641E-17
5.031447E+03	1.197616E-15	2.011524E-17
5.041430E+03	1.199581E-15	2.006297E-17
5.051413E+03	1.202177E-15	2.002114E-17
5.061396E+03	1.205486E-15	1.999097E-17
5.071379E+03	1.209570E-15	1.997336E-17
5.081362E+03	1.214333E-15	1.996656E-17
5.091345E+03	1.220028E-15	1.997461E-17
5.101328E+03	1.226367E-15	1.999260E-17
5.111311E+03	1.233406E-15	2.002133E-17
5.121294E+03	1.241171E-15	2.006111E-17
5.131277E+03	1.249276E-15	2.010559E-17
5.141260E+03	1.257699E-15	2.015434E-17
5.151243E+03	1.266143E-15	2.020263E-17
5.161226E+03	1.274699E-15	2.025189E-17
5.171209E+03	1.283065E-15	2.029736E-17
5.181192E+03	1.290946E-15	2.033446E-17
5.191175E+03	1.298323E-15	2.036301E-17
5.201158E+03	1.305198E-15	2.038320E-17
5.211141E+03	1.311191E-15	2.038925E-17
5.221124E+03	1.316345E-15	2.038200E-17
5.231107E+03	1.320453E-15	2.035851E-17
5.241090E+03	1.323739E-15	2.032242E-17
5.251073E+03	1.326036E-15	2.027141E-17
5.261056E+03	1.327196E-15	2.020343E-17
5.271039E+03	1.327495E-15	2.012291E-17
5.281022E+03	1.326677E-15	2.002621E-17
5.291005E+03	1.324909E-15	1.991607E-17
5.300988E+03	1.322234E-15	1.979335E-17
5.310971E+03	1.318706E-15	1.965907E-17
5.320954E+03	1.314392E-15	1.951439E-17
5.330937E+03	1.309373E-15	1.936070E-17
5.340920E+03	1.303610E-15	1.919756E-17
5.350903E+03	1.297476E-15	1.903062E-17
5.360886E+03	1.290828E-15	1.885789E-17
5.370870E+03	1.283933E-15	1.868335E-17
5.380853E+03	1.277066E-15	1.851106E-17
5.390836E+03	1.270118E-15	1.833946E-17
5.400819E+03	1.263372E-15	1.817267E-17
5.410802E+03	1.256847E-15	1.801095E-17
5.420785E+03	1.250934E-15	1.785984E-17
5.430768E+03	1.245609E-15	1.771897E-17
5.440751E+03	1.240818E-15	1.758747E-17
5.450734E+03	1.236834E-15	1.746917E-17
5.460717E+03	1.233370E-15	1.735991E-17
5.470700E+03	1.230449E-15	1.725997E-17
5.480683E+03	1.227896E-15	1.716681E-17
5.490666E+03	1.225496E-15	1.707731E-17
5.500649E+03	1.223043E-15	1.698855E-17
5.510632E+03	1.220298E-15	1.689719E-17
5.520615E+03	1.216880E-15	1.679794E-17
5.530598E+03	1.212775E-15	1.669067E-17
5.540581E+03	1.207500E-15	1.656876E-17
5.550564E+03	1.201102E-15	1.643296E-17
5.560547E+03	1.193195E-15	1.627806E-17
5.570530E+03	1.183818E-15	1.610474E-17
5.580513E+03	1.172959E-15	1.591294E-17
5.590496E+03	1.160668E-15	1.570343E-17
5.600479E+03	1.147055E-15	1.547779E-17
5.610462E+03	1.132286E-15	1.523834E-17
5.620445E+03	1.116571E-15	1.498796E-17
5.630428E+03	1.100048E-15	1.472854E-17
5.640411E+03	1.083221E-15	1.446683E-17
5.650394E+03	1.066170E-15	1.420386E-17
5.660377E+03	1.049322E-15	1.394528E-17
5.670360E+03	1.033099E-15	1.369660E-17
5.680343E+03	1.017607E-15	1.345913E-17
5.690326E+03	1.003255E-15	1.323815E-17
5.700309E+03	9.903240E-16	1.303719E-17
5.710293E+03	9.790612E-16	1.285935E-17
5.720276E+03	9.695823E-16	1.270595E-17
5.730259E+03	9.622520E-16	1.258158E-17
5.740242E+03	9.570903E-16	1.248628E-17
5.750225E+03	9.540655E-16	1.241943E-17
5.760208E+03	9.532874E-16	1.238225E-17
5.770191E+03	9.548048E-16	1.237517E-17
5.780174E+03	9.583252E-16	1.239421E-17
5.790157E+03	9.637897E-16	1.243844E-17
5.800140E+03	9.709934E-16	1.250503E-17
5.810123E+03	9.796836E-16	1.259062E-17
5.820106E+03	9.895713E-16	1.269137E-17
5.830089E+03	1.000339E-15	1.280311E-17
5.840072E+03	1.011645E-15	1.292145E-17
5.850055E+03	1.023144E-15	1.304192E-17
5.860038E+03	1.034392E-15	1.315887E-17
5.870021E+03	1.045274E-15	1.327088E-17
5.880004E+03	1.055288E-15	1.337162E-17
5.889987E+03	1.064291E-15	1.345936E-17
5.899970E+03	1.072194E-15	1.353306E-17
5.909953E+03	1.078644E-15	1.358839E-17
5.919936E+03	1.083673E-15	1.362583E-17
5.929919E+03	1.087267E-15	1.364536E-17
5.939902E+03	1.089474E-15	1.364768E-17
5.949885E+03	1.090395E-15	1.363417E-17
5.959868E+03	1.090180E-15	1.360680E-17
5.969851E+03	1.089015E-15	1.356799E-17
5.979834E+03	1.087117E-15	1.352053E-17
5.989817E+03	1.084610E-15	1.346599E-17
5.999800E+03	1.081954E-15	1.341016E-17
6.009783E+03	1.079173E-15	1.335337E-17
6.019766E+03	1.076720E-15	1.330121E-17
6.029749E+03	1.074600E-15	1.325377E-17
6.039732E+03	1.073235E-15	1.321625E-17
6.049715E+03	1.072601E-15	1.318833E-17
6.059699E+03	1.072981E-15	1.317346E-17
6.069682E+03	1.074537E-15	1.317363E-17
6.079665E+03	1.077428E-15	1.319073E-17
6.089648E+03	1.081809E-15	1.322664E-17
6.099631E+03	1.087843E-15	1.328332E-17
6.109614E+03	1.095710E-15	1.336293E-17
6.119597E+03	1.105614E-15	1.346794E-17
6.129580E+03	1.117787E-15	1.360112E-17
6.139563E+03	1.132502E-15	1.376578E-17
6.149546E+03	1.149950E-15	1.396421E-17
6.159529E+03	1.170704E-15	1.420335E-17
6.169512E+03	1.194893E-15	1.448477E-17
6.179495E+03	1.223120E-15	1.481576E-17
6.189478E+03	1.255469E-15	1.519734E-17
6.199461E+03	1.292423E-15	1.563544E-17
6.209444E+03	1.333812E-15	1.612803E-17
6.219427E+03	1.379608E-15	1.667489E-17
6.229410E+03	1.429487E-15	1.727223E-17
6.239393E+03	1.482483E-15	1.790851E-17
6.249376E+03	1.537936E-15	1.857587E-17
6.259359E+03	1.594693E-15	1.926053E-17
6.269342E+03	1.651256E-15	1.994451E-17
6.279325E+03	1.705868E-15	2.060673E-17
6.289308E+03	1.756636E-15	2.122444E-17
6.299291E+03	1.801689E-15	2.177509E-17
6.309274E+03	1.839342E-15	2.223832E-17
6.319257E+03	1.868241E-15	2.259775E-17
6.329240E+03	1.887491E-15	2.284240E-17
6.339223E+03	1.896525E-15	2.296524E-17
6.349206E+03	1.895882E-15	2.297258E-17
6.359189E+03	1.886011E-15	2.286955E-17
6.369172E+03	1.867754E-15	2.266609E-17
6.379155E+03	1.842793E-15	2.238228E-17
6.389138E+03	1.812201E-15	2.203085E-17
6.399121E+03	1.777815E-15	2.163387E-17
6.409105E+03	1.740662E-15	2.120360E-17
6.419088E+03	1.702334E-15	2.075922E-17
6.429071E+03	1.663515E-15	2.030895E-17
6.439054E+03	1.625359E-15	1.986672E-17
6.449037E+03	1.588118E-15	1.943559E-17
6.459020E+03	1.552341E-15	1.902219E-17
6.469003E+03	1.518222E-15	1.862889E-17
6.478986E+03	1.485812E-15	1.825627E-17
6.488969E+03	1.455197E-15	1.790533E-17
6.498952E+03	1.425956E-15	1.757087E-17
6.508935E+03	1.398097E-15	1.725295E-17
6.518918E+03	1.371496E-15	1.694999E-17
6.528901E+03	1.345972E-15	1.665974E-17
6.538884E+03	1.321260E-15	1.637887E-17
6.548867E+03	1.297166E-15	1.610496E-17
6.558850E+03	1.273566E-15	1.583641E-17
6.568833E+03	1.250264E-15	1.557074E-17
6.578816E+03	1.227484E-15	1.531070E-17
6.588799E+03	1.205099E-15	1.505467E-17
6.598782E+03	1.183126E-15	1.480286E-17
6.608765E+03	1.161600E-15	1.455566E-17
6.618748E+03	1.140447E-15	1.431213E-17
6.628731E+03	1.119945E-15	1.407575E-17
6.638714E+03	1.100017E-15	1.384556E-17
6.648697E+03	1.080590E-15	1.362063E-17
6.658680E+03	1.061912E-15	1.340412E-17
6.668663E+03	1.043784E-15	1.319350E-17
6.678646E+03	1.026428E-15	1.299162E-17
6.688629E+03	1.009634E-15	1.279582E-17
6.698612E+03	9.936006E-16	1.260867E-17
6.708595E+03	9.781136E-16	1.242745E-17
6.718578E+03	9.633609E-16	1.225457E-17
6.728561E+03	9.491308E-16	1.208738E-17
6.738544E+03	9.355146E-16	1.192705E-17
6.748528E+03	9.225054E-16	1.177353E-17
6.758511E+03	9.101951E-16	1.162800E-17
6.768494E+03	8.984008E-16	1.148817E-17
6.778477E+03	8.872277E-16	1.135540E-17
6.788460E+03	8.766893E-16	1.122989E-17
6.798443E+03	8.668932E-16	1.111305E-17
6.808426E+03	8.576822E-16	1.100289E-17
6.818409E+03	8.491692E-16	1.090087E-17
6.828392E+03	8.413778E-16	1.080734E-17
6.838375E+03	8.343305E-16	1.072260E-17
6.848358E+03	8.280481E-16	1.064693E-17
6.858341E+03	8.225477E-16	1.058059E-17
6.868324E+03	8.178420E-16	1.052375E-17
6.878307E+03	8.139379E-16	1.047652E-17
6.888290E+03	8.108367E-16	1.043893E-17
6.898273E+03	8.084493E-16	1.040984E-17
6.908256E+03	8.069298E-16	1.039125E-17
6.918239E+03	8.061759E-16	1.038184E-17
6.928222E+03	8.061635E-16	1.038131E-17
6.938205E+03	8.068638E-16	1.038928E-17
6.948188E+03	8.081624E-16	1.040429E-17
6.958171E+03	8.101942E-16	1.042807E-17
6.968154E+03	8.128466E-16	1.045916E-17
6.978137E+03	8.160105E-16	1.049615E-17
6.988120E+03	8.198371E-16	1.054098E-17
6.998103E+03	8.241510E-16	1.059138E-17
7.008086E+03	8.291285E-16	1.064962E-17
7.018069E+03	8.346213E-16	1.071377E-17
7.028052E+03	8.408414E-16	1.078655E-17
7.038035E+03	8.476752E-16	1.086649E-17
7.048018E+03	8.553761E-16	1.095681E-17
7.058001E+03	8.638675E-16	1.105651E-17
7.067984E+03	8.734431E-16	1.116933E-17
7.077967E+03	8.840558E-16	1.129464E-17
7.087950E+03	8.959390E-16	1.143537E-17
7.097934E+03	9.092408E-16	1.159339E-17
7.107917E+03	9.242053E-16	1.177174E-17
7.117900E+03	9.407768E-16	1.196967E-17
7.127883E+03	9.591611E-16	1.218972E-17
7.137866E+03	9.794314E-16	1.243276E-17
7.147849E+03	1.001610E-15	1.269900E-17
7.157832E+03	1.025651E-15	1.298779E-17
7.167815E+03	1.051422E-15	1.329739E-17
7.177798E+03	1.078697E-15	1.362489E-17
7.187781E+03	1.107131E-15	1.396589E-17
7.197764E+03	1.136267E-15	1.431461E-17
7.207747E+03	1.165524E-15	1.466375E-17
7.217730E+03	1.194214E-15	1.500473E-17
7.227713E+03	1.221555E-15	1.532782E-17
7.237696E+03	1.246711E-15	1.562267E-17
7.247679E+03	1.268689E-15	1.587706E-17
7.257662E+03	1.286928E-15	1.608423E-17
7.267645E+03	1.300561E-15	1.623361E-17
7.277628E+03	1.308853E-15	1.631635E-17
7.287611E+03	1.311660E-15	1.633104E-17
7.297594E+03	1.308648E-15	1.627386E-17
7.307577E+03	1.299709E-15	1.614381E-17
7.317560E+03	1.285370E-15	1.594777E-17
7.327543E+03	1.265811E-15	1.568827E-17
7.337526E+03	1.241915E-15	1.537651E-17
7.347509E+03	1.214147E-15	1.501844E-17
7.357492E+03	1.183435E-15	1.462569E-17
7.367475E+03	1.150715E-15	1.420994E-17
7.377458E+03	1.116533E-15	1.377797E-17
7.387441E+03	1.081757E-15	1.334051E-17
7.397424E+03	1.047054E-15	1.290576E-17
7.407407E+03	1.013012E-15	1.248092E-17
7.417390E+03	9.801280E-16	1.207207E-17
7.427373E+03	9.489162E-16	1.168546E-17
7.437356E+03	9.195071E-16	1.132263E-17
7.447340E+03	8.922658E-16	1.098800E-17
7.457323E+03	8.672943E-16	1.068280E-17
7.467306E+03	8.449160E-16	1.041095E-17
7.477289E+03	8.251180E-16	1.017230E-17
7.487272E+03	8.079289E-16	9.967186E-18
7.497255E+03	7.933309E-16	9.795436E-18
7.507238E+03	7.812548E-16	9.656246E-18
7.517221E+03	7.715017E-16	9.547241E-18
7.527204E+03	7.640717E-16	9.468521E-18
7.537187E+03	7.585951E-16	9.415628E-18
7.547170E+03	7.549920E-16	9.387666E-18
7.557153E+03	7.528390E-16	9.379449E-18
7.567136E+03	7.520387E-16	9.389837E-18
7.577119E+03	7.522092E-16	9.414144E-18
7.587102E+03	7.533629E-16	9.452598E-18
7.597085E+03	7.553110E-16	9.502907E-18
7.607068E+03	7.581814E-16	9.566768E-18
7.617051E+03	7.619073E-16	9.643439E-18
7.627034E+03	7.662176E-16	9.729585E-18
7.637017E+03	7.711953E-16	9.826350E-18
7.647000E+03	7.769045E-16	9.934652E-18
7.656983E+03	7.834298E-16	1.005570E-17
7.666966E+03	7.908330E-16	1.019043E-17
7.676949E+03	7.991267E-16	1.033917E-17
7.686932E+03	8.082555E-16	1.050137E-17
7.696915E+03	8.180877E-16	1.067549E-17
7.706898E+03	8.283270E-16	1.085780E-17
7.716881E+03	8.388794E-16	1.104718E-17
7.726864E+03	8.493393E-16	1.123838E-17
7.736847E+03	8.592694E-16	1.142559E-17
7.746830E+03	8.685179E-16	1.160673E-17
