#wls	flux	fluxerr
1.597285E+03	3.747083E-17	2.910294E-18
1.637217E+03	3.849617E-17	2.971403E-18
1.677149E+03	3.950117E-17	3.029538E-18
1.717081E+03	4.047476E-17	3.083846E-18
1.757013E+03	4.140903E-17	3.133734E-18
1.796945E+03	4.228028E-17	3.177447E-18
1.836877E+03	4.306335E-17	3.213169E-18
1.876809E+03	4.371021E-17	3.237450E-18
1.916742E+03	4.417646E-17	3.247222E-18
1.956674E+03	4.442734E-17	3.240231E-18
1.996606E+03	4.447427E-17	3.217656E-18
2.036538E+03	4.439665E-17	3.185546E-18
2.076470E+03	4.440725E-17	3.159255E-18
2.116402E+03	4.483212E-17	3.161609E-18
2.156334E+03	4.601181E-17	3.215615E-18
2.196266E+03	4.812725E-17	3.332313E-18
2.236198E+03	5.115146E-17	3.507949E-18
2.276131E+03	5.491162E-17	3.728864E-18
2.316063E+03	5.917976E-17	3.978098E-18
2.355995E+03	6.378199E-17	4.242863E-18
2.395927E+03	6.861564E-17	4.515514E-18
2.435859E+03	7.365103E-17	4.793429E-18
2.475791E+03	7.887491E-17	5.075108E-18
2.515723E+03	8.432221E-17	5.362143E-18
2.555655E+03	8.999585E-17	5.653989E-18
2.595588E+03	9.596049E-17	5.953908E-18
2.635520E+03	1.022359E-16	6.262194E-18
2.675452E+03	1.088719E-16	6.580859E-18
2.715384E+03	1.158787E-16	6.909384E-18
2.755316E+03	1.232769E-16	7.247789E-18
2.795248E+03	1.311021E-16	7.596880E-18
2.835180E+03	1.393169E-16	7.953136E-18
2.875112E+03	1.479646E-16	8.317689E-18
2.915044E+03	1.570403E-16	8.688825E-18
2.954977E+03	1.664796E-16	9.061582E-18
2.994909E+03	1.763248E-16	9.436937E-18
3.004892E+03	1.788523E-16	9.531160E-18
3.014875E+03	1.814035E-16	9.625345E-18
3.024858E+03	1.839787E-16	9.719486E-18
3.034841E+03	1.865498E-16	9.812086E-18
3.044824E+03	1.891780E-16	9.906343E-18
3.054807E+03	1.918480E-16	1.000141E-17
3.064790E+03	1.945585E-16	1.009721E-17
3.074773E+03	1.973086E-16	1.019363E-17
3.084756E+03	2.000974E-16	1.029062E-17
3.094739E+03	2.029244E-16	1.038810E-17
3.104722E+03	2.057893E-16	1.048603E-17
3.114705E+03	2.086573E-16	1.058262E-17
3.124688E+03	2.115973E-16	1.068134E-17
3.134671E+03	2.145753E-16	1.078042E-17
3.144654E+03	2.175918E-16	1.087986E-17
3.154637E+03	2.206473E-16	1.097964E-17
3.164620E+03	2.237422E-16	1.107976E-17
3.174603E+03	2.268772E-16	1.118022E-17
3.184586E+03	2.300527E-16	1.128101E-17
3.194569E+03	2.333077E-16	1.138398E-17
3.204552E+03	2.365657E-16	1.148538E-17
3.214535E+03	2.398648E-16	1.158703E-17
3.224518E+03	2.432045E-16	1.168887E-17
3.234501E+03	2.465839E-16	1.179083E-17
3.244484E+03	2.500014E-16	1.189280E-17
3.254467E+03	2.534550E-16	1.199465E-17
3.264450E+03	2.569416E-16	1.209621E-17
3.274433E+03	2.605001E-16	1.219927E-17
3.284416E+03	2.640406E-16	1.229958E-17
3.294400E+03	2.675988E-16	1.239882E-17
3.304383E+03	2.711670E-16	1.249660E-17
3.314366E+03	2.747354E-16	1.259248E-17
3.324349E+03	2.783377E-16	1.268798E-17
3.334332E+03	2.818690E-16	1.277832E-17
3.344315E+03	2.853573E-16	1.286482E-17
3.354298E+03	2.887826E-16	1.294662E-17
3.364281E+03	2.921699E-16	1.302486E-17
3.374264E+03	2.953991E-16	1.309426E-17
3.384247E+03	2.984894E-16	1.315579E-17
3.394230E+03	3.014598E-16	1.321037E-17
3.404213E+03	3.041814E-16	1.325250E-17
3.414196E+03	3.066713E-16	1.328309E-17
3.424179E+03	3.089506E-16	1.330324E-17
3.434162E+03	3.108943E-16	1.330776E-17
3.444145E+03	3.125357E-16	1.329832E-17
3.454128E+03	3.139199E-16	1.327707E-17
3.464111E+03	3.149531E-16	1.324026E-17
3.474094E+03	3.157079E-16	1.319121E-17
3.484077E+03	3.162716E-16	1.313376E-17
3.494060E+03	3.165897E-16	1.306580E-17
3.504043E+03	3.168207E-16	1.299405E-17
3.514026E+03	3.169230E-16	1.291686E-17
3.524009E+03	3.170606E-16	1.284100E-17
3.533992E+03	3.171905E-16	1.276470E-17
3.543975E+03	3.174183E-16	1.269221E-17
3.553958E+03	3.178432E-16	1.262740E-17
3.563941E+03	3.184044E-16	1.256772E-17
3.573924E+03	3.192380E-16	1.251841E-17
3.583907E+03	3.202677E-16	1.247629E-17
3.593890E+03	3.216069E-16	1.244561E-17
3.603873E+03	3.231082E-16	1.242048E-17
3.613856E+03	3.248043E-16	1.240202E-17
3.623839E+03	3.265136E-16	1.238320E-17
3.633823E+03	3.282581E-16	1.236486E-17
3.643806E+03	3.298492E-16	1.233990E-17
3.653789E+03	3.313079E-16	1.230925E-17
3.663772E+03	3.324462E-16	1.226606E-17
3.673755E+03	3.332918E-16	1.221162E-17
3.683738E+03	3.336669E-16	1.213968E-17
3.693721E+03	3.336175E-16	1.205228E-17
3.703704E+03	3.329959E-16	1.194445E-17
3.713687E+03	3.318937E-16	1.181991E-17
3.723670E+03	3.302281E-16	1.167610E-17
3.733653E+03	3.281712E-16	1.151949E-17
3.743636E+03	3.257854E-16	1.135259E-17
3.753619E+03	3.231811E-16	1.117945E-17
3.763602E+03	3.206634E-16	1.101073E-17
3.773585E+03	3.183625E-16	1.085082E-17
3.783568E+03	3.166291E-16	1.071140E-17
3.793551E+03	3.156176E-16	1.059725E-17
3.803534E+03	3.156768E-16	1.051944E-17
3.813517E+03	3.169411E-16	1.048162E-17
3.823500E+03	3.197227E-16	1.049314E-17
3.833483E+03	3.241062E-16	1.055562E-17
3.843466E+03	3.303452E-16	1.067606E-17
3.853449E+03	3.385042E-16	1.085518E-17
3.863432E+03	3.485991E-16	1.109206E-17
3.873415E+03	3.607577E-16	1.138933E-17
3.883398E+03	3.748300E-16	1.174079E-17
3.893381E+03	3.908283E-16	1.214545E-17
3.903364E+03	4.084580E-16	1.259287E-17
3.913347E+03	4.275983E-16	1.307820E-17
3.923330E+03	4.478016E-16	1.358683E-17
3.933313E+03	4.688269E-16	1.411080E-17
3.943296E+03	4.901039E-16	1.463259E-17
3.953279E+03	5.113230E-16	1.514292E-17
3.963262E+03	5.318540E-16	1.562343E-17
3.973245E+03	5.513916E-16	1.606581E-17
3.983229E+03	5.693235E-16	1.645318E-17
3.993212E+03	5.854256E-16	1.678036E-17
4.003195E+03	5.991813E-16	1.703406E-17
4.013178E+03	6.105163E-16	1.721393E-17
4.023161E+03	6.190760E-16	1.731183E-17
4.033144E+03	6.249870E-16	1.733328E-17
4.043127E+03	6.281004E-16	1.727608E-17
4.053110E+03	6.287647E-16	1.715172E-17
4.063093E+03	6.270429E-16	1.696360E-17
4.073076E+03	6.234795E-16	1.672799E-17
4.083059E+03	6.183041E-16	1.645225E-17
4.093042E+03	6.120873E-16	1.615253E-17
4.103025E+03	6.054200E-16	1.584498E-17
4.113008E+03	5.986067E-16	1.553781E-17
4.122991E+03	5.922980E-16	1.524786E-17
4.132974E+03	5.867234E-16	1.498068E-17
4.142957E+03	5.823208E-16	1.474691E-17
4.152940E+03	5.794461E-16	1.455476E-17
4.162923E+03	5.781022E-16	1.440339E-17
4.172906E+03	5.785673E-16	1.429879E-17
4.182889E+03	5.806866E-16	1.423613E-17
4.192872E+03	5.845074E-16	1.421564E-17
4.202855E+03	5.900277E-16	1.423636E-17
4.212838E+03	5.969347E-16	1.428994E-17
4.222821E+03	6.051534E-16	1.437391E-17
4.232804E+03	6.144879E-16	1.448306E-17
4.242787E+03	6.248053E-16	1.461383E-17
4.252770E+03	6.356511E-16	1.475530E-17
4.262753E+03	6.468189E-16	1.490259E-17
4.272736E+03	6.579799E-16	1.504822E-17
4.282719E+03	6.688984E-16	1.518701E-17
4.292702E+03	6.790474E-16	1.530740E-17
4.302685E+03	6.882421E-16	1.540581E-17
4.312668E+03	6.962503E-16	1.547770E-17
4.322651E+03	7.029002E-16	1.552000E-17
4.332635E+03	7.080804E-16	1.553104E-17
4.342618E+03	7.118459E-16	1.551278E-17
4.352601E+03	7.139826E-16	1.546130E-17
4.362584E+03	7.146560E-16	1.538095E-17
4.372567E+03	7.139828E-16	1.527488E-17
4.382550E+03	7.121515E-16	1.514767E-17
4.392533E+03	7.096007E-16	1.500906E-17
4.402516E+03	7.070023E-16	1.487348E-17
4.412499E+03	7.050837E-16	1.475619E-17
4.422482E+03	7.046070E-16	1.467287E-17
4.432465E+03	7.063494E-16	1.463921E-17
4.442448E+03	7.110749E-16	1.467036E-17
4.452431E+03	7.194973E-16	1.478013E-17
4.462414E+03	7.322264E-16	1.498005E-17
4.472397E+03	7.496985E-16	1.527801E-17
4.482380E+03	7.720947E-16	1.567670E-17
4.492363E+03	7.991261E-16	1.616939E-17
4.502346E+03	8.304217E-16	1.674785E-17
4.512329E+03	8.647654E-16	1.738708E-17
4.522312E+03	9.005630E-16	1.805486E-17
4.532295E+03	9.358212E-16	1.871139E-17
4.542278E+03	9.681718E-16	1.930979E-17
4.552261E+03	9.956996E-16	1.981261E-17
4.562244E+03	1.016354E-15	2.017996E-17
4.572227E+03	1.028775E-15	2.038583E-17
4.582210E+03	1.032175E-15	2.041561E-17
4.592193E+03	1.027019E-15	2.027933E-17
4.602176E+03	1.014021E-15	1.999175E-17
4.612159E+03	9.944412E-16	1.957814E-17
4.622142E+03	9.702960E-16	1.907837E-17
4.632125E+03	9.430725E-16	1.852169E-17
4.642108E+03	9.147171E-16	1.794616E-17
4.652091E+03	8.863579E-16	1.737364E-17
4.662074E+03	8.593605E-16	1.683057E-17
4.672058E+03	8.342433E-16	1.632675E-17
4.682041E+03	8.117543E-16	1.587649E-17
4.692024E+03	7.919053E-16	1.547967E-17
4.702007E+03	7.750027E-16	1.514202E-17
4.711990E+03	7.607388E-16	1.485727E-17
4.721973E+03	7.491581E-16	1.462606E-17
4.731956E+03	7.397749E-16	1.443873E-17
4.741939E+03	7.323928E-16	1.429129E-17
4.751922E+03	7.266885E-16	1.417731E-17
4.761905E+03	7.224728E-16	1.409298E-17
4.771888E+03	7.193002E-16	1.402949E-17
4.781871E+03	7.171444E-16	1.398627E-17
4.791854E+03	7.159761E-16	1.396264E-17
4.801837E+03	7.159626E-16	1.396180E-17
4.811820E+03	7.170061E-16	1.398177E-17
4.821803E+03	7.193279E-16	1.402679E-17
4.831786E+03	7.229881E-16	1.409798E-17
4.841769E+03	7.279483E-16	1.419452E-17
4.851752E+03	7.340536E-16	1.431333E-17
4.861735E+03	7.410402E-16	1.444921E-17
4.871718E+03	7.485683E-16	1.459547E-17
4.881701E+03	7.562699E-16	1.474488E-17
4.891684E+03	7.638014E-16	1.489067E-17
4.901667E+03	7.708845E-16	1.502737E-17
4.911650E+03	7.773233E-16	1.515110E-17
4.921633E+03	7.829908E-16	1.525934E-17
4.931616E+03	7.877933E-16	1.535021E-17
4.941599E+03	7.915013E-16	1.541921E-17
4.951582E+03	7.941717E-16	1.546741E-17
4.961565E+03	7.954294E-16	1.548749E-17
4.971548E+03	7.949512E-16	1.547313E-17
4.981531E+03	7.923008E-16	1.541586E-17
4.991514E+03	7.875051E-16	1.531622E-17
5.001497E+03	7.804679E-16	1.517238E-17
5.011480E+03	7.714242E-16	1.498898E-17
5.021464E+03	7.613203E-16	1.478444E-17
5.031447E+03	7.510795E-16	1.457674E-17
5.041430E+03	7.418485E-16	1.438813E-17
5.051413E+03	7.351727E-16	1.424855E-17
5.061396E+03	7.320781E-16	1.417777E-17
5.071379E+03	7.338144E-16	1.419981E-17
5.081362E+03	7.408894E-16	1.432426E-17
5.091345E+03	7.538659E-16	1.456169E-17
5.101328E+03	7.724477E-16	1.490604E-17
5.111311E+03	7.962217E-16	1.534895E-17
5.121294E+03	8.243626E-16	1.587417E-17
5.131277E+03	8.553205E-16	1.645153E-17
5.141260E+03	8.876484E-16	1.705295E-17
5.151243E+03	9.196900E-16	1.764648E-17
5.161226E+03	9.500119E-16	1.820458E-17
5.171209E+03	9.770096E-16	1.869662E-17
5.181192E+03	9.998348E-16	1.910658E-17
5.191175E+03	1.017882E-15	1.942321E-17
5.201158E+03	1.030898E-15	1.964205E-17
5.211141E+03	1.038927E-15	1.976437E-17
5.221124E+03	1.042395E-15	1.979874E-17
5.231107E+03	1.041431E-15	1.974802E-17
5.241090E+03	1.036717E-15	1.962557E-17
5.251073E+03	1.028825E-15	1.944262E-17
5.261056E+03	1.018314E-15	1.921010E-17
5.271039E+03	1.005693E-15	1.893790E-17
5.281022E+03	9.912449E-16	1.863161E-17
5.291005E+03	9.755956E-16	1.830327E-17
5.300988E+03	9.588507E-16	1.795502E-17
5.310971E+03	9.412023E-16	1.759067E-17
5.320954E+03	9.228125E-16	1.721339E-17
5.330937E+03	9.038404E-16	1.682631E-17
5.340920E+03	8.843386E-16	1.643053E-17
5.350903E+03	8.647839E-16	1.603502E-17
5.360886E+03	8.453060E-16	1.564225E-17
5.370870E+03	8.260922E-16	1.525573E-17
5.380853E+03	8.077449E-16	1.488659E-17
5.390836E+03	7.905515E-16	1.454006E-17
5.400819E+03	7.748637E-16	1.422253E-17
5.410802E+03	7.614146E-16	1.394729E-17
5.420785E+03	7.505116E-16	1.371977E-17
5.430768E+03	7.428943E-16	1.355320E-17
5.440751E+03	7.388046E-16	1.345168E-17
5.450734E+03	7.387911E-16	1.342484E-17
5.460717E+03	7.427692E-16	1.347075E-17
5.470700E+03	7.508031E-16	1.359019E-17
5.480683E+03	7.621736E-16	1.376975E-17
5.490666E+03	7.760715E-16	1.399446E-17
5.500649E+03	7.912489E-16	1.424158E-17
5.510632E+03	8.057972E-16	1.447666E-17
5.520615E+03	8.180116E-16	1.466916E-17
5.530598E+03	8.262879E-16	1.479056E-17
5.540581E+03	8.289984E-16	1.481213E-17
5.550564E+03	8.254088E-16	1.472125E-17
5.560547E+03	8.152832E-16	1.451430E-17
5.570530E+03	7.989455E-16	1.419763E-17
5.580513E+03	7.772256E-16	1.378651E-17
5.590496E+03	7.507869E-16	1.329317E-17
5.600479E+03	7.206102E-16	1.273539E-17
5.610462E+03	6.874175E-16	1.212624E-17
5.620445E+03	6.517715E-16	1.147591E-17
5.630428E+03	6.141553E-16	1.079314E-17
5.640411E+03	5.750977E-16	1.008740E-17
5.650394E+03	5.352835E-16	9.370851E-18
5.660377E+03	4.956030E-16	8.659139E-18
5.670360E+03	4.571209E-16	7.970850E-18
5.680343E+03	4.209711E-16	7.325630E-18
5.690326E+03	3.881649E-16	6.740832E-18
5.700309E+03	3.597038E-16	6.233491E-18
5.710293E+03	3.361715E-16	5.813266E-18
5.720276E+03	3.179754E-16	5.486668E-18
5.730259E+03	3.053352E-16	5.256908E-18
5.740242E+03	2.983115E-16	5.124407E-18
5.750225E+03	2.970490E-16	5.090999E-18
5.760208E+03	3.015671E-16	5.156334E-18
5.770191E+03	3.119587E-16	5.321286E-18
5.780174E+03	3.282887E-16	5.586219E-18
5.790157E+03	3.507384E-16	5.953434E-18
5.800140E+03	3.791953E-16	6.420206E-18
5.810123E+03	4.135414E-16	6.983711E-18
5.820106E+03	4.531677E-16	7.632852E-18
5.830089E+03	4.969967E-16	8.348752E-18
5.840072E+03	5.436497E-16	9.107661E-18
5.850055E+03	5.909762E-16	9.873183E-18
5.860038E+03	6.367883E-16	1.060869E-17
5.870021E+03	6.784350E-16	1.127029E-17
5.880004E+03	7.138002E-16	1.182346E-17
5.889987E+03	7.408400E-16	1.223531E-17
5.899970E+03	7.585055E-16	1.248976E-17
5.909953E+03	7.665748E-16	1.258455E-17
5.919936E+03	7.652917E-16	1.252512E-17
5.929919E+03	7.558917E-16	1.233307E-17
5.939902E+03	7.400504E-16	1.203692E-17
5.949885E+03	7.193207E-16	1.166289E-17
5.959868E+03	6.955667E-16	1.124192E-17
5.969851E+03	6.704674E-16	1.080159E-17
5.979834E+03	6.451498E-16	1.036024E-17
5.989817E+03	6.207577E-16	9.936284E-18
5.999800E+03	5.980747E-16	9.542116E-18
6.009783E+03	5.776637E-16	9.186465E-18
6.019766E+03	5.599921E-16	8.876426E-18
6.029749E+03	5.451463E-16	8.612972E-18
6.039732E+03	5.333580E-16	8.399351E-18
6.049715E+03	5.247030E-16	8.236314E-18
6.059699E+03	5.192104E-16	8.123874E-18
6.069682E+03	5.168869E-16	8.061695E-18
6.079665E+03	5.177408E-16	8.049478E-18
6.089648E+03	5.218074E-16	8.087350E-18
6.099631E+03	5.291748E-16	8.176268E-18
6.109614E+03	5.400107E-16	8.318413E-18
6.119597E+03	5.545878E-16	8.517578E-18
6.129580E+03	5.733080E-16	8.779508E-18
6.139563E+03	5.967214E-16	9.112182E-18
6.149546E+03	6.255471E-16	9.526094E-18
6.159529E+03	6.606981E-16	1.003463E-17
6.169512E+03	7.033251E-16	1.065467E-17
6.179495E+03	7.548925E-16	1.140779E-17
6.189478E+03	8.171940E-16	1.232038E-17
6.199461E+03	8.930300E-16	1.343387E-17
6.209444E+03	9.858508E-16	1.479927E-17
6.219427E+03	1.100657E-15	1.649061E-17
6.229410E+03	1.244496E-15	1.861223E-17
6.239393E+03	1.422272E-15	2.123622E-17
6.249376E+03	1.631668E-15	2.432699E-17
6.259359E+03	1.865526E-15	2.777758E-17
6.269342E+03	2.112356E-15	3.141746E-17
6.279325E+03	2.355982E-15	3.500737E-17
6.289308E+03	2.578286E-15	3.828020E-17
6.299291E+03	2.759876E-15	4.095045E-17
6.309274E+03	2.884158E-15	4.277434E-17
6.319257E+03	2.941680E-15	4.361368E-17
6.329240E+03	2.929059E-15	4.341950E-17
6.339223E+03	2.852397E-15	4.228254E-17
6.349206E+03	2.722760E-15	4.036626E-17
6.359189E+03	2.554918E-15	3.788836E-17
6.369172E+03	2.365638E-15	3.509598E-17
6.379155E+03	2.168806E-15	3.219354E-17
6.389138E+03	1.976848E-15	2.936416E-17
6.399121E+03	1.797571E-15	2.672283E-17
6.409105E+03	1.636687E-15	2.435389E-17
6.419088E+03	1.496138E-15	2.228605E-17
6.429071E+03	1.376772E-15	2.053209E-17
6.439054E+03	1.277171E-15	1.907126E-17
6.449037E+03	1.195685E-15	1.787945E-17
6.459020E+03	1.130150E-15	1.692494E-17
6.469003E+03	1.077701E-15	1.616546E-17
6.478986E+03	1.036076E-15	1.556766E-17
6.488969E+03	1.002401E-15	1.508889E-17
6.498952E+03	9.743138E-16	1.469395E-17
6.508935E+03	9.494952E-16	1.434807E-17
6.518918E+03	9.253359E-16	1.401178E-17
6.528901E+03	9.005668E-16	1.366569E-17
6.538884E+03	8.751215E-16	1.330853E-17
6.548867E+03	8.487095E-16	1.293562E-17
6.558850E+03	8.215179E-16	1.254956E-17
6.568833E+03	7.936961E-16	1.215239E-17
6.578816E+03	7.655847E-16	1.174913E-17
6.588799E+03	7.372498E-16	1.134065E-17
6.598782E+03	7.091335E-16	1.093363E-17
6.608765E+03	6.815706E-16	1.053317E-17
6.618748E+03	6.548735E-16	1.014410E-17
6.628731E+03	6.293996E-16	9.771987E-18
6.638714E+03	6.051669E-16	9.417195E-18
6.648697E+03	5.824038E-16	9.083376E-18
6.658680E+03	5.611739E-16	8.771650E-18
6.668663E+03	5.414755E-16	8.482128E-18
6.678646E+03	5.232505E-16	8.214037E-18
6.688629E+03	5.063953E-16	7.965889E-18
6.698612E+03	4.907765E-16	7.735706E-18
6.708595E+03	4.762482E-16	7.521306E-18
6.718578E+03	4.626694E-16	7.320560E-18
6.728561E+03	4.499822E-16	7.132641E-18
6.738544E+03	4.379570E-16	6.953991E-18
6.748528E+03	4.265913E-16	6.784636E-18
6.758511E+03	4.158415E-16	6.623949E-18
6.768494E+03	4.056861E-16	6.471648E-18
6.778477E+03	3.960645E-16	6.326825E-18
6.788460E+03	3.871047E-16	6.191584E-18
6.798443E+03	3.787744E-16	6.065466E-18
6.808426E+03	3.711144E-16	5.949184E-18
6.818409E+03	3.641809E-16	5.843690E-18
6.828392E+03	3.580446E-16	5.750178E-18
6.838375E+03	3.527900E-16	5.670051E-18
6.848358E+03	3.485118E-16	5.604882E-18
6.858341E+03	3.453115E-16	5.556345E-18
6.868324E+03	3.432916E-16	5.526124E-18
6.878307E+03	3.425008E-16	5.515030E-18
6.888290E+03	3.431267E-16	5.526098E-18
6.898273E+03	3.451908E-16	5.559676E-18
6.908256E+03	3.487404E-16	5.616515E-18
6.918239E+03	3.537905E-16	5.696824E-18
6.928222E+03	3.602621E-16	5.799288E-18
6.938205E+03	3.681829E-16	5.924291E-18
6.948188E+03	3.773696E-16	6.068810E-18
6.958171E+03	3.876348E-16	6.229746E-18
6.968154E+03	3.986860E-16	6.402309E-18
6.978137E+03	4.103754E-16	6.584037E-18
6.988120E+03	4.223824E-16	6.769705E-18
6.998103E+03	4.344671E-16	6.955389E-18
7.008086E+03	4.463653E-16	7.136802E-18
7.018069E+03	4.580548E-16	7.313546E-18
7.028052E+03	4.693672E-16	7.482898E-18
7.038035E+03	4.801664E-16	7.642669E-18
7.048018E+03	4.905607E-16	7.794582E-18
7.058001E+03	5.004241E-16	7.936634E-18
7.067984E+03	5.099898E-16	8.072537E-18
7.077967E+03	5.193926E-16	8.204421E-18
7.087950E+03	5.289307E-16	8.336987E-18
7.097934E+03	5.393504E-16	8.481940E-18
7.107917E+03	5.513389E-16	8.649953E-18
7.117900E+03	5.661547E-16	8.860532E-18
7.127883E+03	5.849668E-16	9.131574E-18
7.137866E+03	6.094629E-16	9.488847E-18
7.147849E+03	6.411154E-16	9.954468E-18
7.157832E+03	6.818079E-16	1.055663E-17
7.167815E+03	7.330006E-16	1.131664E-17
7.177798E+03	7.963716E-16	1.225883E-17
7.187781E+03	8.727952E-16	1.339488E-17
7.197764E+03	9.629902E-16	1.473387E-17
7.207747E+03	1.066217E-15	1.626252E-17
7.217730E+03	1.181017E-15	1.795672E-17
7.227713E+03	1.303728E-15	1.975929E-17
7.237696E+03	1.429463E-15	2.159528E-17
7.247679E+03	1.551864E-15	2.336859E-17
7.257662E+03	1.662892E-15	2.495923E-17
7.267645E+03	1.755035E-15	2.625673E-17
7.277628E+03	1.821828E-15	2.716772E-17
7.287611E+03	1.858075E-15	2.761899E-17
7.297594E+03	1.862173E-15	2.759153E-17
7.307577E+03	1.835527E-15	2.711094E-17
7.317560E+03	1.781330E-15	2.622878E-17
7.327543E+03	1.705354E-15	2.503371E-17
7.337526E+03	1.614079E-15	2.362352E-17
7.347509E+03	1.513081E-15	2.208151E-17
7.357492E+03	1.407858E-15	2.048876E-17
7.367475E+03	1.302551E-15	1.890561E-17
7.377458E+03	1.200170E-15	1.737532E-17
7.387441E+03	1.102897E-15	1.592867E-17
7.397424E+03	1.011642E-15	1.457784E-17
7.407407E+03	9.272676E-16	1.333418E-17
7.417390E+03	8.500831E-16	1.220104E-17
7.427373E+03	7.801538E-16	1.117830E-17
7.437356E+03	7.173972E-16	1.026376E-17
7.447340E+03	6.617402E-16	9.455493E-18
7.457323E+03	6.127655E-16	8.746709E-18
7.467306E+03	5.703470E-16	8.134909E-18
7.477289E+03	5.342598E-16	7.616223E-18
7.487272E+03	5.043045E-16	7.187261E-18
7.497255E+03	4.803175E-16	6.845279E-18
7.507238E+03	4.621687E-16	6.588145E-18
7.517221E+03	4.497440E-16	6.414082E-18
7.527204E+03	4.429069E-16	6.321110E-18
7.537187E+03	4.414383E-16	6.306182E-18
7.547170E+03	4.449468E-16	6.363891E-18
7.557153E+03	4.527546E-16	6.484800E-18
7.567136E+03	4.637727E-16	6.653611E-18
7.577119E+03	4.763952E-16	6.847563E-18
7.587102E+03	4.884529E-16	7.035645E-18
7.597085E+03	4.972690E-16	7.179262E-18
7.607068E+03	5.005802E-16	7.245400E-18
7.617051E+03	4.995575E-16	7.250467E-18
7.627034E+03	4.963205E-16	7.224775E-18
7.637017E+03	4.930063E-16	7.199205E-18
7.647000E+03	4.911765E-16	7.196584E-18
7.656983E+03	4.920360E-16	7.234823E-18
7.666966E+03	4.963363E-16	7.325435E-18
7.676949E+03	5.043794E-16	7.473493E-18
7.686932E+03	5.159503E-16	7.676522E-18
7.696915E+03	5.306337E-16	7.929065E-18
7.706898E+03	5.473815E-16	8.216122E-18
7.716881E+03	5.648587E-16	8.518128E-18
7.726864E+03	5.814556E-16	8.811005E-18
7.736847E+03	5.953437E-16	9.066866E-18
7.746830E+03	6.050205E-16	9.262224E-18
