#wls	flux	fluxerr
1.597285E+03	4.053173E-17	3.324140E-19
1.637217E+03	4.164047E-17	3.415072E-19
1.677149E+03	4.272907E-17	3.504351E-19
1.717081E+03	4.377799E-17	3.590377E-19
1.757013E+03	4.479427E-17	3.673725E-19
1.796945E+03	4.574486E-17	3.751686E-19
1.836877E+03	4.660278E-17	3.822047E-19
1.876809E+03	4.730772E-17	3.879861E-19
1.916742E+03	4.782829E-17	3.922555E-19
1.956674E+03	4.811000E-17	3.945658E-19
1.996606E+03	4.817348E-17	3.950865E-19
2.036538E+03	4.810453E-17	3.945210E-19
2.076470E+03	4.814202E-17	3.948285E-19
2.116402E+03	4.862255E-17	3.987695E-19
2.156334E+03	4.992470E-17	4.094488E-19
2.196266E+03	5.224574E-17	4.284844E-19
2.236198E+03	5.555779E-17	4.556476E-19
2.276131E+03	5.967449E-17	4.894101E-19
2.316063E+03	6.433760E-17	5.276537E-19
2.355995E+03	6.937995E-17	5.690077E-19
2.395927E+03	7.467876E-17	6.124649E-19
2.435859E+03	8.018676E-17	6.576379E-19
2.475791E+03	8.591458E-17	7.046136E-19
2.515723E+03	9.185271E-17	7.533141E-19
2.555655E+03	9.806193E-17	8.042379E-19
2.595588E+03	1.045601E-16	8.575314E-19
2.635520E+03	1.113969E-16	9.136020E-19
2.675452E+03	1.185599E-16	9.723482E-19
2.715384E+03	1.261059E-16	1.034236E-18
2.755316E+03	1.340229E-16	1.099166E-18
2.795248E+03	1.423056E-16	1.167095E-18
2.835180E+03	1.509351E-16	1.237868E-18
2.875112E+03	1.599050E-16	1.311434E-18
2.915044E+03	1.691431E-16	1.387198E-18
2.954977E+03	1.785909E-16	1.464682E-18
2.994909E+03	1.881873E-16	1.543385E-18
3.004892E+03	1.906112E-16	1.563265E-18
3.014875E+03	1.930081E-16	1.582922E-18
3.024858E+03	1.954425E-16	1.602888E-18
3.034841E+03	1.978850E-16	1.622919E-18
3.044824E+03	2.003341E-16	1.643005E-18
3.054807E+03	2.028058E-16	1.663277E-18
3.064790E+03	2.052986E-16	1.683721E-18
3.074773E+03	2.078112E-16	1.704327E-18
3.084756E+03	2.103071E-16	1.724797E-18
3.094739E+03	2.128566E-16	1.745706E-18
3.104722E+03	2.154246E-16	1.766768E-18
3.114705E+03	2.180117E-16	1.787985E-18
3.124688E+03	2.206187E-16	1.809366E-18
3.134671E+03	2.232470E-16	1.830922E-18
3.144654E+03	2.258985E-16	1.852667E-18
3.154637E+03	2.285751E-16	1.874619E-18
3.164620E+03	2.312796E-16	1.896799E-18
3.174603E+03	2.340145E-16	1.919229E-18
3.184586E+03	2.367829E-16	1.941934E-18
3.194569E+03	2.395879E-16	1.964939E-18
3.204552E+03	2.424327E-16	1.988270E-18
3.214535E+03	2.453201E-16	2.011950E-18
3.224518E+03	2.482529E-16	2.036003E-18
3.234501E+03	2.512335E-16	2.060448E-18
3.244484E+03	2.542639E-16	2.085301E-18
3.254467E+03	2.573451E-16	2.110571E-18
3.264450E+03	2.604777E-16	2.136263E-18
3.274433E+03	2.636610E-16	2.162370E-18
3.284416E+03	2.668933E-16	2.188879E-18
3.294400E+03	2.702170E-16	2.216138E-18
3.304383E+03	2.735378E-16	2.243373E-18
3.314366E+03	2.563582E-16	2.102477E-18
3.316362E+03	2.588368E-16	2.122805E-18
3.318359E+03	2.629003E-16	2.156131E-18
3.320355E+03	2.667305E-16	2.187544E-18
3.322352E+03	2.683104E-16	2.200501E-18
3.324349E+03	2.706396E-16	2.219604E-18
3.326345E+03	2.716573E-16	2.227950E-18
3.328342E+03	2.726422E-16	2.236028E-18
3.330338E+03	2.767343E-16	2.269588E-18
3.332335E+03	2.772387E-16	2.273725E-18
3.334332E+03	2.785146E-16	2.284189E-18
3.336328E+03	2.797361E-16	2.294207E-18
3.338325E+03	2.811054E-16	2.305438E-18
3.340321E+03	2.841946E-16	2.330773E-18
3.342318E+03	2.855375E-16	2.341786E-18
3.344315E+03	2.850509E-16	2.337796E-18
3.346311E+03	2.862569E-16	2.347687E-18
3.348308E+03	2.869863E-16	2.353668E-18
3.350304E+03	2.875074E-16	2.357942E-18
3.352301E+03	2.877213E-16	2.359696E-18
3.354298E+03	2.882201E-16	2.363787E-18
3.356294E+03	2.893716E-16	2.373231E-18
3.358291E+03	2.885042E-16	2.366117E-18
3.360288E+03	2.880532E-16	2.362418E-18
3.362284E+03	2.872175E-16	2.355565E-18
3.364281E+03	2.868093E-16	2.352217E-18
3.366277E+03	2.867687E-16	2.351883E-18
3.368274E+03	2.863047E-16	2.348078E-18
3.370271E+03	2.862303E-16	2.347468E-18
3.372267E+03	2.879576E-16	2.361634E-18
3.374264E+03	2.877346E-16	2.359805E-18
3.376260E+03	2.878793E-16	2.360992E-18
3.378257E+03	2.875346E-16	2.358165E-18
3.380254E+03	2.864141E-16	2.348976E-18
3.382250E+03	2.867504E-16	2.351733E-18
3.384247E+03	2.856672E-16	2.342850E-18
3.386243E+03	2.855078E-16	2.341542E-18
3.388240E+03	2.869162E-16	2.353094E-18
3.390237E+03	2.860848E-16	2.346275E-18
3.392233E+03	2.870640E-16	2.354306E-18
3.394230E+03	2.858960E-16	2.344726E-18
3.396226E+03	2.873981E-16	2.357046E-18
3.398223E+03	2.873859E-16	2.356945E-18
3.400220E+03	2.875937E-16	2.358649E-18
3.402216E+03	2.895260E-16	2.374497E-18
3.404213E+03	2.904391E-16	2.381986E-18
3.406209E+03	2.920910E-16	2.395534E-18
3.408206E+03	2.933740E-16	2.406056E-18
3.410203E+03	2.948610E-16	2.418251E-18
3.412199E+03	2.990012E-16	2.452207E-18
3.414196E+03	3.032750E-16	2.487257E-18
3.416192E+03	3.078922E-16	2.525124E-18
3.418189E+03	3.099834E-16	2.542275E-18
3.420186E+03	3.116282E-16	2.555764E-18
3.422182E+03	3.134278E-16	2.570524E-18
3.424179E+03	3.166246E-16	2.596742E-18
3.426176E+03	3.214513E-16	2.636327E-18
3.428172E+03	3.249043E-16	2.664646E-18
3.430169E+03	3.313245E-16	2.717300E-18
3.432165E+03	3.343157E-16	2.741832E-18
3.434162E+03	3.381975E-16	2.773668E-18
3.436159E+03	3.408810E-16	2.795676E-18
3.438155E+03	3.403867E-16	2.791622E-18
3.440152E+03	3.418989E-16	2.804024E-18
3.442148E+03	3.454519E-16	2.833163E-18
3.444145E+03	3.466719E-16	2.843169E-18
3.446142E+03	3.481520E-16	2.855308E-18
3.448138E+03	3.498980E-16	2.869628E-18
3.450135E+03	3.510965E-16	2.879457E-18
3.452131E+03	3.536124E-16	2.900091E-18
3.454128E+03	3.549222E-16	2.910833E-18
3.456125E+03	3.560551E-16	2.920124E-18
3.458121E+03	3.561804E-16	2.921152E-18
3.460118E+03	3.542675E-16	2.905463E-18
3.462114E+03	3.550180E-16	2.911618E-18
3.464111E+03	3.565552E-16	2.924225E-18
3.466108E+03	3.564027E-16	2.922975E-18
3.468104E+03	3.542163E-16	2.905043E-18
3.470101E+03	3.501445E-16	2.871649E-18
3.472097E+03	3.478616E-16	2.852927E-18
3.474094E+03	3.443526E-16	2.824148E-18
3.476091E+03	3.427831E-16	2.811276E-18
3.478087E+03	3.424108E-16	2.808223E-18
3.480084E+03	3.384827E-16	2.776007E-18
3.482080E+03	3.372216E-16	2.765665E-18
3.484077E+03	3.350778E-16	2.748082E-18
3.486074E+03	3.340041E-16	2.739277E-18
3.488070E+03	3.322750E-16	2.725096E-18
3.490067E+03	3.288743E-16	2.697205E-18
3.492063E+03	3.242619E-16	2.659378E-18
3.494060E+03	3.227633E-16	2.647087E-18
3.496057E+03	3.195201E-16	2.620488E-18
3.498053E+03	3.155592E-16	2.588004E-18
3.500050E+03	3.137691E-16	2.573323E-18
3.502047E+03	3.123896E-16	2.562009E-18
3.504043E+03	3.108150E-16	2.549095E-18
3.506040E+03	3.079781E-16	2.525829E-18
3.508036E+03	3.059295E-16	2.509028E-18
3.510033E+03	3.039748E-16	2.492996E-18
3.512030E+03	3.036042E-16	2.489957E-18
3.514026E+03	3.032222E-16	2.486824E-18
3.516023E+03	3.030513E-16	2.485422E-18
3.518019E+03	3.032919E-16	2.487396E-18
3.520016E+03	3.048624E-16	2.500276E-18
3.522013E+03	3.025266E-16	2.481119E-18
3.524009E+03	3.025110E-16	2.480991E-18
3.526006E+03	3.036809E-16	2.490586E-18
3.528002E+03	3.033646E-16	2.487992E-18
3.529999E+03	3.028923E-16	2.484118E-18
3.531996E+03	3.013615E-16	2.471564E-18
3.533992E+03	3.029048E-16	2.484221E-18
3.535989E+03	3.034458E-16	2.488658E-18
3.537985E+03	3.021705E-16	2.478199E-18
3.539982E+03	3.043719E-16	2.496253E-18
3.541979E+03	3.064290E-16	2.513124E-18
3.543975E+03	3.091778E-16	2.535668E-18
3.545972E+03	3.120054E-16	2.558858E-18
3.547968E+03	3.139640E-16	2.574921E-18
3.549965E+03	3.154769E-16	2.587329E-18
3.551962E+03	3.178324E-16	2.606647E-18
3.553958E+03	3.198594E-16	2.623272E-18
3.555955E+03	3.209888E-16	2.632534E-18
3.557951E+03	3.214767E-16	2.636535E-18
3.559948E+03	3.231869E-16	2.650561E-18
3.561945E+03	3.232901E-16	2.651407E-18
3.563941E+03	3.226619E-16	2.646256E-18
3.565938E+03	3.230664E-16	2.649573E-18
3.567935E+03	3.239344E-16	2.656692E-18
3.569931E+03	3.257800E-16	2.671828E-18
3.571928E+03	3.260956E-16	2.674416E-18
3.573924E+03	3.264336E-16	2.677188E-18
3.575921E+03	3.269672E-16	2.681565E-18
3.577918E+03	3.263218E-16	2.676272E-18
3.579914E+03	3.244468E-16	2.660894E-18
3.581911E+03	3.202961E-16	2.626853E-18
3.583907E+03	3.162896E-16	2.593994E-18
3.585904E+03	3.147979E-16	2.581760E-18
3.587901E+03	3.151400E-16	2.584566E-18
3.589897E+03	3.152920E-16	2.585812E-18
3.591894E+03	3.139393E-16	2.574718E-18
3.593890E+03	3.148072E-16	2.581836E-18
3.595887E+03	3.171860E-16	2.601346E-18
3.597884E+03	3.200412E-16	2.624762E-18
3.599880E+03	3.216715E-16	2.638133E-18
3.601877E+03	3.233079E-16	2.651553E-18
3.603873E+03	3.234331E-16	2.652580E-18
3.605870E+03	3.239950E-16	2.657189E-18
3.607867E+03	3.241596E-16	2.658539E-18
3.609863E+03	3.250467E-16	2.665814E-18
3.611860E+03	3.274690E-16	2.685680E-18
3.613856E+03	3.305922E-16	2.711295E-18
3.615853E+03	3.321586E-16	2.724141E-18
3.617850E+03	3.343140E-16	2.741818E-18
3.619846E+03	3.362961E-16	2.758074E-18
3.621843E+03	3.380098E-16	2.772129E-18
3.623839E+03	3.400044E-16	2.788487E-18
3.625836E+03	3.405304E-16	2.792801E-18
3.627833E+03	3.400022E-16	2.788469E-18
3.629829E+03	3.401132E-16	2.789379E-18
3.631826E+03	3.401121E-16	2.789370E-18
3.633823E+03	3.402233E-16	2.790283E-18
3.635819E+03	3.382189E-16	2.773844E-18
3.637816E+03	3.371120E-16	2.764766E-18
3.639812E+03	3.355670E-16	2.752094E-18
3.641809E+03	3.345043E-16	2.743379E-18
3.643806E+03	3.322454E-16	2.724853E-18
3.645802E+03	3.304856E-16	2.710421E-18
3.647799E+03	3.306687E-16	2.711922E-18
3.649795E+03	3.283184E-16	2.692647E-18
3.651792E+03	3.252372E-16	2.667376E-18
3.653789E+03	3.218067E-16	2.639242E-18
3.655785E+03	3.173299E-16	2.602526E-18
3.657782E+03	3.133297E-16	2.569719E-18
3.659778E+03	3.096374E-16	2.539437E-18
3.661775E+03	3.054044E-16	2.504721E-18
3.663772E+03	3.003436E-16	2.463216E-18
3.665768E+03	2.958718E-16	2.426541E-18
3.667765E+03	2.929062E-16	2.402220E-18
3.669761E+03	2.891691E-16	2.371570E-18
3.671758E+03	2.879796E-16	2.361815E-18
3.673755E+03	2.859345E-16	2.345042E-18
3.675751E+03	2.816038E-16	2.309525E-18
3.677748E+03	2.798612E-16	2.295233E-18
3.679744E+03	2.803925E-16	2.299590E-18
3.681741E+03	2.830918E-16	2.321728E-18
3.683738E+03	2.836125E-16	2.325999E-18
3.685734E+03	2.855809E-16	2.342142E-18
3.687731E+03	2.899441E-16	2.377926E-18
3.689727E+03	2.942973E-16	2.413628E-18
3.691724E+03	2.990857E-16	2.452900E-18
3.693721E+03	3.045913E-16	2.498053E-18
3.695717E+03	3.101043E-16	2.543266E-18
3.697714E+03	3.161207E-16	2.592609E-18
3.699710E+03	3.240333E-16	2.657503E-18
3.701707E+03	3.306796E-16	2.712012E-18
3.703704E+03	3.388621E-16	2.779119E-18
3.705700E+03	3.467763E-16	2.844025E-18
3.707697E+03	3.552571E-16	2.913579E-18
3.709694E+03	3.637631E-16	2.983340E-18
3.711690E+03	3.712108E-16	3.044421E-18
3.713687E+03	3.796543E-16	3.113669E-18
3.715683E+03	3.866553E-16	3.171086E-18
3.717680E+03	3.924672E-16	3.218751E-18
3.719677E+03	3.974734E-16	3.259809E-18
3.721673E+03	4.019731E-16	3.296712E-18
3.723670E+03	4.052089E-16	3.323251E-18
3.725666E+03	4.070335E-16	3.338215E-18
3.727663E+03	4.079040E-16	3.345354E-18
3.729660E+03	4.086617E-16	3.351568E-18
3.731656E+03	4.103862E-16	3.365711E-18
3.733653E+03	4.111108E-16	3.371654E-18
3.735649E+03	4.111687E-16	3.372128E-18
3.737646E+03	4.092079E-16	3.356048E-18
3.739643E+03	4.073937E-16	3.341169E-18
3.741639E+03	4.064954E-16	3.333801E-18
3.743636E+03	4.018518E-16	3.295718E-18
3.745632E+03	3.966694E-16	3.253215E-18
3.747629E+03	3.908970E-16	3.205874E-18
3.749626E+03	3.843192E-16	3.151927E-18
3.751622E+03	3.769695E-16	3.091650E-18
3.753619E+03	3.710047E-16	3.042731E-18
3.755615E+03	3.648457E-16	2.992218E-18
3.757612E+03	3.594210E-16	2.947728E-18
3.759609E+03	3.555013E-16	2.915582E-18
3.761605E+03	3.485894E-16	2.858895E-18
3.763602E+03	3.407347E-16	2.794477E-18
3.765598E+03	3.335181E-16	2.735291E-18
3.767595E+03	3.253017E-16	2.667906E-18
3.769592E+03	3.178594E-16	2.606869E-18
3.771588E+03	3.099273E-16	2.541815E-18
3.773585E+03	3.016581E-16	2.473996E-18
3.775582E+03	2.944355E-16	2.414762E-18
3.777578E+03	2.892131E-16	2.371931E-18
3.779575E+03	2.839210E-16	2.328529E-18
3.781571E+03	2.780996E-16	2.280785E-18
3.783568E+03	2.733489E-16	2.241824E-18
3.785565E+03	2.696298E-16	2.211322E-18
3.787561E+03	2.658812E-16	2.180578E-18
3.789558E+03	2.612854E-16	2.142887E-18
3.791554E+03	2.579320E-16	2.115384E-18
3.793551E+03	2.552192E-16	2.093136E-18
3.795548E+03	2.522898E-16	2.069111E-18
3.797544E+03	2.477119E-16	2.031566E-18
3.799541E+03	2.433654E-16	1.995919E-18
3.801537E+03	2.392280E-16	1.961987E-18
3.803534E+03	2.340320E-16	1.919373E-18
3.805531E+03	2.301590E-16	1.887609E-18
3.807527E+03	2.269330E-16	1.861152E-18
3.809524E+03	2.233250E-16	1.831561E-18
3.811520E+03	2.202618E-16	1.806439E-18
3.813517E+03	2.190183E-16	1.796240E-18
3.815514E+03	2.176833E-16	1.785292E-18
3.817510E+03	2.153292E-16	1.765985E-18
3.819507E+03	2.116597E-16	1.735890E-18
3.821503E+03	2.083647E-16	1.708867E-18
3.823500E+03	2.062871E-16	1.691827E-18
3.825497E+03	2.053477E-16	1.684124E-18
3.827493E+03	2.044936E-16	1.677119E-18
3.829490E+03	2.028646E-16	1.663758E-18
3.831486E+03	2.002721E-16	1.642497E-18
3.833483E+03	1.991434E-16	1.633240E-18
3.835480E+03	1.981966E-16	1.625475E-18
3.837476E+03	1.982529E-16	1.625936E-18
3.839473E+03	1.979500E-16	1.623453E-18
3.841470E+03	1.981775E-16	1.625318E-18
3.843466E+03	1.984450E-16	1.627512E-18
3.845463E+03	1.992545E-16	1.634151E-18
3.847459E+03	2.002926E-16	1.642665E-18
3.849456E+03	2.011770E-16	1.649918E-18
3.851453E+03	2.041335E-16	1.674165E-18
3.853449E+03	2.068227E-16	1.696221E-18
3.855446E+03	2.095986E-16	1.718987E-18
3.857442E+03	2.117817E-16	1.736890E-18
3.859439E+03	2.143881E-16	1.758267E-18
3.861436E+03	2.196174E-16	1.801154E-18
3.863432E+03	2.245514E-16	1.841620E-18
3.865429E+03	2.300244E-16	1.886505E-18
3.867425E+03	2.353964E-16	1.930563E-18
3.869422E+03	2.406674E-16	1.973792E-18
3.871419E+03	2.455173E-16	2.013568E-18
3.873415E+03	2.515527E-16	2.063065E-18
3.875412E+03	2.574871E-16	2.111736E-18
3.877408E+03	2.635840E-16	2.161738E-18
3.879405E+03	2.700664E-16	2.214902E-18
3.881402E+03	2.777183E-16	2.277659E-18
3.883398E+03	2.855219E-16	2.341658E-18
3.885395E+03	2.917942E-16	2.393100E-18
3.887391E+03	2.991623E-16	2.453528E-18
3.889388E+03	3.073061E-16	2.520318E-18
3.891385E+03	3.148917E-16	2.582529E-18
3.893381E+03	3.241468E-16	2.658434E-18
3.895378E+03	3.346600E-16	2.744655E-18
3.897374E+03	3.454177E-16	2.832883E-18
3.899371E+03	3.562367E-16	2.921613E-18
3.901368E+03	3.667786E-16	3.008071E-18
3.903364E+03	3.777430E-16	3.097993E-18
3.905361E+03	3.891473E-16	3.191524E-18
3.907357E+03	3.989555E-16	3.271965E-18
3.909354E+03	4.081364E-16	3.347260E-18
3.911351E+03	4.173208E-16	3.422584E-18
3.913347E+03	4.267667E-16	3.500053E-18
3.915344E+03	4.363310E-16	3.578493E-18
3.917341E+03	4.451870E-16	3.651124E-18
3.919337E+03	4.532023E-16	3.716860E-18
3.921334E+03	4.609336E-16	3.780266E-18
3.923330E+03	4.693742E-16	3.849491E-18
3.925327E+03	4.774618E-16	3.915820E-18
3.927324E+03	4.834151E-16	3.964645E-18
3.929320E+03	4.890548E-16	4.010898E-18
3.931317E+03	4.958460E-16	4.066595E-18
3.933313E+03	5.015131E-16	4.113073E-18
3.935310E+03	5.074527E-16	4.161785E-18
3.937307E+03	5.135384E-16	4.211696E-18
3.939303E+03	5.199945E-16	4.264644E-18
3.941300E+03	5.258491E-16	4.312660E-18
3.943296E+03	5.302962E-16	4.349132E-18
3.945293E+03	5.332833E-16	4.373630E-18
3.947290E+03	5.371810E-16	4.405597E-18
3.949286E+03	5.411725E-16	4.438332E-18
3.951283E+03	5.443652E-16	4.464516E-18
3.953279E+03	5.482157E-16	4.496096E-18
3.955276E+03	5.520160E-16	4.527263E-18
3.957273E+03	5.562902E-16	4.562318E-18
3.959269E+03	5.601916E-16	4.594314E-18
3.961266E+03	5.614894E-16	4.604958E-18
3.963262E+03	5.629550E-16	4.616978E-18
3.965259E+03	5.646231E-16	4.630658E-18
3.967256E+03	5.646540E-16	4.630912E-18
3.969252E+03	5.673673E-16	4.653164E-18
3.971249E+03	5.692337E-16	4.668471E-18
3.973245E+03	5.694449E-16	4.670203E-18
3.975242E+03	5.706892E-16	4.680409E-18
3.977239E+03	5.707682E-16	4.681056E-18
3.979235E+03	5.697850E-16	4.672992E-18
3.981232E+03	5.684262E-16	4.661848E-18
3.983229E+03	5.674482E-16	4.653828E-18
3.985225E+03	5.671632E-16	4.651490E-18
3.987222E+03	5.654972E-16	4.637827E-18
3.989218E+03	5.647554E-16	4.631743E-18
3.991215E+03	5.642504E-16	4.627602E-18
3.993212E+03	5.642772E-16	4.627821E-18
3.995208E+03	5.630262E-16	4.617561E-18
3.997205E+03	5.632612E-16	4.619489E-18
3.999201E+03	5.647053E-16	4.631333E-18
4.001198E+03	5.658377E-16	4.640619E-18
4.003195E+03	5.673873E-16	4.653328E-18
4.005191E+03	5.698578E-16	4.673590E-18
4.007188E+03	5.737246E-16	4.705302E-18
4.009184E+03	5.787683E-16	4.746667E-18
4.011181E+03	5.828238E-16	4.779928E-18
4.013178E+03	5.863538E-16	4.808879E-18
4.015174E+03	5.879156E-16	4.821687E-18
4.017171E+03	5.899995E-16	4.838779E-18
4.019167E+03	5.923743E-16	4.858254E-18
4.021164E+03	5.950398E-16	4.880115E-18
4.023161E+03	5.975325E-16	4.900559E-18
4.025157E+03	6.004323E-16	4.924341E-18
4.027154E+03	6.039713E-16	4.953366E-18
4.029150E+03	6.058874E-16	4.969080E-18
4.031147E+03	6.049032E-16	4.961008E-18
4.033144E+03	6.041508E-16	4.954838E-18
4.035140E+03	6.056620E-16	4.967232E-18
4.037137E+03	6.072321E-16	4.980108E-18
4.039133E+03	6.083382E-16	4.989180E-18
4.041130E+03	6.101419E-16	5.003972E-18
4.043127E+03	6.119463E-16	5.018771E-18
4.045123E+03	6.131125E-16	5.028335E-18
4.047120E+03	6.131168E-16	5.028371E-18
4.049117E+03	6.141675E-16	5.036988E-18
4.051113E+03	6.167885E-16	5.058484E-18
4.053110E+03	6.178406E-16	5.067112E-18
4.055106E+03	6.173809E-16	5.063342E-18
4.057103E+03	6.170958E-16	5.061003E-18
4.059100E+03	6.160541E-16	5.052460E-18
4.061096E+03	6.146048E-16	5.040574E-18
4.063093E+03	6.119326E-16	5.018659E-18
4.065089E+03	6.099581E-16	5.002466E-18
4.067086E+03	6.079829E-16	4.986266E-18
4.069083E+03	6.039102E-16	4.952865E-18
4.071079E+03	5.996614E-16	4.918018E-18
4.073076E+03	5.942455E-16	4.873601E-18
4.075072E+03	5.899931E-16	4.838726E-18
4.077069E+03	5.873129E-16	4.816744E-18
4.079066E+03	5.843984E-16	4.792842E-18
4.081062E+03	5.816695E-16	4.770461E-18
4.083059E+03	5.790795E-16	4.749219E-18
4.085055E+03	5.761093E-16	4.724860E-18
4.087052E+03	5.727122E-16	4.697000E-18
4.089049E+03	5.681232E-16	4.659363E-18
4.091045E+03	5.636900E-16	4.623006E-18
4.093042E+03	5.600783E-16	4.593385E-18
4.095038E+03	5.572944E-16	4.570553E-18
4.097035E+03	5.537852E-16	4.541773E-18
4.099032E+03	5.500877E-16	4.511448E-18
4.101028E+03	5.460265E-16	4.478142E-18
4.103025E+03	5.425482E-16	4.449614E-18
4.105021E+03	5.393081E-16	4.423042E-18
4.107018E+03	5.347572E-16	4.385718E-18
4.109015E+03	5.309003E-16	4.354087E-18
4.111011E+03	5.290540E-16	4.338944E-18
4.113008E+03	5.266922E-16	4.319574E-18
4.115004E+03	5.231357E-16	4.290407E-18
4.117001E+03	5.206196E-16	4.269771E-18
4.118998E+03	5.165338E-16	4.236262E-18
4.120994E+03	5.122590E-16	4.201203E-18
4.122991E+03	5.082754E-16	4.168532E-18
4.124988E+03	5.026677E-16	4.122542E-18
4.126984E+03	4.966536E-16	4.073218E-18
4.128981E+03	4.909359E-16	4.026326E-18
4.130977E+03	4.851222E-16	3.978645E-18
4.132974E+03	4.793647E-16	3.931426E-18
4.134971E+03	4.739216E-16	3.886785E-18
4.136967E+03	4.683413E-16	3.841020E-18
4.138964E+03	4.623659E-16	3.792014E-18
4.140960E+03	4.560243E-16	3.740004E-18
4.142957E+03	4.501320E-16	3.691679E-18
4.144954E+03	4.443371E-16	3.644153E-18
4.146950E+03	4.402950E-16	3.611003E-18
4.148947E+03	4.377485E-16	3.590118E-18
4.150943E+03	4.353830E-16	3.570718E-18
4.152940E+03	4.345495E-16	3.563882E-18
4.154937E+03	4.337040E-16	3.556948E-18
4.156933E+03	4.342509E-16	3.561433E-18
4.158930E+03	4.345981E-16	3.564281E-18
4.160926E+03	4.361682E-16	3.577158E-18
4.162923E+03	4.385974E-16	3.597080E-18
4.164920E+03	4.423450E-16	3.627815E-18
4.166916E+03	4.481175E-16	3.675158E-18
4.168913E+03	4.539041E-16	3.722616E-18
4.170909E+03	4.598285E-16	3.771203E-18
4.172906E+03	4.666853E-16	3.827438E-18
4.174903E+03	4.726971E-16	3.876743E-18
4.176899E+03	4.780873E-16	3.920950E-18
4.178896E+03	4.832677E-16	3.963436E-18
4.180892E+03	4.898108E-16	4.017098E-18
4.182889E+03	4.966690E-16	4.073344E-18
4.184886E+03	5.031469E-16	4.126472E-18
4.186882E+03	5.096687E-16	4.179959E-18
4.188879E+03	5.158631E-16	4.230761E-18
4.190876E+03	5.221189E-16	4.282067E-18
4.192872E+03	5.286545E-16	4.335668E-18
4.194869E+03	5.341428E-16	4.380679E-18
4.196865E+03	5.392557E-16	4.422612E-18
4.198862E+03	5.440756E-16	4.462141E-18
4.200859E+03	5.466840E-16	4.483534E-18
