#wls	flux	fluxerr
1.600000E+03	4.118033E-17	0.000000E+00
1.640000E+03	4.179014E-17	0.000000E+00
1.680000E+03	4.244823E-17	0.000000E+00
1.720000E+03	4.316600E-17	0.000000E+00
1.760000E+03	4.395565E-17	0.000000E+00
1.800000E+03	4.481412E-17	0.000000E+00
1.840000E+03	4.574651E-17	0.000000E+00
1.880000E+03	4.677504E-17	0.000000E+00
1.920000E+03	4.788978E-17	0.000000E+00
1.960000E+03	4.911471E-17	0.000000E+00
2.000000E+03	5.044940E-17	0.000000E+00
2.040000E+03	5.191151E-17	0.000000E+00
2.080000E+03	5.350184E-17	0.000000E+00
2.120000E+03	5.524960E-17	0.000000E+00
2.160000E+03	5.716745E-17	0.000000E+00
2.200000E+03	5.925927E-17	0.000000E+00
2.240000E+03	6.155968E-17	0.000000E+00
2.280000E+03	6.407534E-17	0.000000E+00
2.320000E+03	6.684542E-17	0.000000E+00
2.360000E+03	6.987973E-17	0.000000E+00
2.400000E+03	7.321107E-17	0.000000E+00
2.440000E+03	7.687510E-17	0.000000E+00
2.480000E+03	8.089803E-17	0.000000E+00
2.520000E+03	8.530712E-17	0.000000E+00
2.560000E+03	9.016994E-17	0.000000E+00
2.600000E+03	9.550510E-17	0.000000E+00
2.640000E+03	1.013572E-16	0.000000E+00
2.680000E+03	1.077711E-16	0.000000E+00
2.720000E+03	1.147906E-16	0.000000E+00
2.760000E+03	1.224728E-16	0.000000E+00
2.800000E+03	1.308552E-16	0.000000E+00
2.840000E+03	1.399490E-16	0.000000E+00
2.880000E+03	1.498225E-16	0.000000E+00
2.920000E+03	1.604411E-16	0.000000E+00
2.960000E+03	1.718388E-16	0.000000E+00
3.000000E+03	1.839484E-16	0.000000E+00
3.010000E+03	1.870839E-16	0.000000E+00
3.020000E+03	1.902673E-16	0.000000E+00
3.030000E+03	1.934964E-16	0.000000E+00
3.040000E+03	1.967484E-16	0.000000E+00
3.050000E+03	2.000626E-16	0.000000E+00
3.060000E+03	2.033944E-16	0.000000E+00
3.070000E+03	2.067623E-16	0.000000E+00
3.080000E+03	2.101418E-16	0.000000E+00
3.090000E+03	2.135726E-16	0.000000E+00
3.100000E+03	2.170301E-16	0.000000E+00
3.110000E+03	2.205109E-16	0.000000E+00
3.120000E+03	2.240116E-16	0.000000E+00
3.130000E+03	2.275280E-16	0.000000E+00
3.140000E+03	2.310564E-16	0.000000E+00
3.150000E+03	2.346149E-16	0.000000E+00
3.160000E+03	2.381769E-16	0.000000E+00
3.170000E+03	2.417384E-16	0.000000E+00
3.180000E+03	2.453169E-16	0.000000E+00
3.190000E+03	2.488856E-16	0.000000E+00
3.200000E+03	2.524623E-16	0.000000E+00
3.210000E+03	2.560193E-16	0.000000E+00
3.220000E+03	2.595748E-16	0.000000E+00
3.230000E+03	2.631236E-16	0.000000E+00
3.240000E+03	2.666378E-16	0.000000E+00
3.250000E+03	2.701354E-16	0.000000E+00
3.260000E+03	2.736342E-16	0.000000E+00
3.270000E+03	2.770832E-16	0.000000E+00
3.280000E+03	2.805004E-16	0.000000E+00
3.290000E+03	2.838808E-16	0.000000E+00
3.300000E+03	2.872193E-16	0.000000E+00
3.310000E+03	2.905344E-16	0.000000E+00
3.320000E+03	2.937981E-16	0.000000E+00
3.330000E+03	2.970059E-16	0.000000E+00
3.340000E+03	3.001764E-16	0.000000E+00
3.350000E+03	3.032823E-16	0.000000E+00
3.360000E+03	3.063424E-16	0.000000E+00
3.370000E+03	3.093527E-16	0.000000E+00
3.380000E+03	3.122870E-16	0.000000E+00
3.390000E+03	3.151644E-16	0.000000E+00
3.400000E+03	3.179818E-16	0.000000E+00
3.410000E+03	3.207587E-16	0.000000E+00
3.420000E+03	3.234477E-16	0.000000E+00
3.430000E+03	3.260908E-16	0.000000E+00
3.440000E+03	3.286419E-16	0.000000E+00
3.450000E+03	3.311653E-16	0.000000E+00
3.460000E+03	3.336153E-16	0.000000E+00
3.470000E+03	3.359909E-16	0.000000E+00
3.480000E+03	3.383129E-16	0.000000E+00
3.490000E+03	3.405805E-16	0.000000E+00
3.500000E+03	3.427933E-16	0.000000E+00
3.510000E+03	3.449302E-16	0.000000E+00
3.520000E+03	3.470333E-16	0.000000E+00
3.530000E+03	3.490822E-16	0.000000E+00
3.540000E+03	3.510979E-16	0.000000E+00
3.550000E+03	3.530608E-16	0.000000E+00
3.560000E+03	3.549722E-16	0.000000E+00
3.570000E+03	3.568537E-16	0.000000E+00
3.580000E+03	3.587064E-16	0.000000E+00
3.590000E+03	3.605323E-16	0.000000E+00
3.600000E+03	3.623329E-16	0.000000E+00
3.610000E+03	3.640913E-16	0.000000E+00
3.620000E+03	3.658671E-16	0.000000E+00
3.630000E+03	3.676056E-16	0.000000E+00
3.640000E+03	3.693469E-16	0.000000E+00
3.650000E+03	3.710936E-16	0.000000E+00
3.660000E+03	3.728300E-16	0.000000E+00
3.670000E+03	3.745772E-16	0.000000E+00
3.680000E+03	3.763383E-16	0.000000E+00
3.690000E+03	3.781336E-16	0.000000E+00
3.700000E+03	3.799313E-16	0.000000E+00
3.710000E+03	3.817693E-16	0.000000E+00
3.720000E+03	3.836338E-16	0.000000E+00
3.730000E+03	3.855617E-16	0.000000E+00
3.740000E+03	3.875061E-16	0.000000E+00
3.750000E+03	3.895201E-16	0.000000E+00
3.760000E+03	3.915906E-16	0.000000E+00
3.770000E+03	3.937207E-16	0.000000E+00
3.780000E+03	3.959140E-16	0.000000E+00
3.790000E+03	3.981738E-16	0.000000E+00
3.800000E+03	4.005191E-16	0.000000E+00
3.810000E+03	4.029528E-16	0.000000E+00
3.820000E+03	4.054628E-16	0.000000E+00
3.830000E+03	4.080671E-16	0.000000E+00
3.840000E+03	4.107836E-16	0.000000E+00
3.850000E+03	4.135851E-16	0.000000E+00
3.860000E+03	4.164890E-16	0.000000E+00
3.870000E+03	4.195123E-16	0.000000E+00
3.880000E+03	4.226565E-16	0.000000E+00
3.890000E+03	4.258951E-16	0.000000E+00
3.900000E+03	4.292722E-16	0.000000E+00
3.910000E+03	4.327607E-16	0.000000E+00
3.920000E+03	4.363756E-16	0.000000E+00
3.930000E+03	4.401037E-16	0.000000E+00
3.940000E+03	4.439724E-16	0.000000E+00
3.950000E+03	4.479678E-16	0.000000E+00
3.960000E+03	4.520894E-16	0.000000E+00
3.970000E+03	4.563229E-16	0.000000E+00
3.980000E+03	4.606933E-16	0.000000E+00
3.990000E+03	4.651985E-16	0.000000E+00
4.000000E+03	4.698102E-16	0.000000E+00
4.010000E+03	4.745516E-16	0.000000E+00
4.020000E+03	4.794067E-16	0.000000E+00
4.030000E+03	4.843718E-16	0.000000E+00
4.040000E+03	4.894435E-16	0.000000E+00
4.050000E+03	4.946172E-16	0.000000E+00
4.060000E+03	4.999011E-16	0.000000E+00
4.070000E+03	5.052657E-16	0.000000E+00
4.080000E+03	5.107308E-16	0.000000E+00
4.090000E+03	5.162668E-16	0.000000E+00
4.100000E+03	5.218810E-16	0.000000E+00
4.110000E+03	5.275681E-16	0.000000E+00
4.120000E+03	5.333114E-16	0.000000E+00
4.130000E+03	5.391059E-16	0.000000E+00
4.140000E+03	5.449590E-16	0.000000E+00
4.150000E+03	5.508426E-16	0.000000E+00
4.160000E+03	5.567528E-16	0.000000E+00
4.170000E+03	5.626976E-16	0.000000E+00
4.180000E+03	5.686620E-16	0.000000E+00
4.190000E+03	5.746317E-16	0.000000E+00
4.200000E+03	5.806159E-16	0.000000E+00
4.210000E+03	5.865896E-16	0.000000E+00
4.220000E+03	5.925628E-16	0.000000E+00
4.230000E+03	5.985230E-16	0.000000E+00
4.240000E+03	6.044475E-16	0.000000E+00
4.250000E+03	6.103583E-16	0.000000E+00
4.260000E+03	6.162222E-16	0.000000E+00
4.270000E+03	6.220507E-16	0.000000E+00
4.280000E+03	6.278333E-16	0.000000E+00
4.290000E+03	6.335599E-16	0.000000E+00
4.300000E+03	6.392206E-16	0.000000E+00
4.310000E+03	6.448052E-16	0.000000E+00
4.320000E+03	6.503038E-16	0.000000E+00
4.330000E+03	6.557166E-16	0.000000E+00
4.340000E+03	6.610329E-16	0.000000E+00
4.350000E+03	6.662308E-16	0.000000E+00
4.360000E+03	6.712990E-16	0.000000E+00
4.370000E+03	6.762352E-16	0.000000E+00
4.380000E+03	6.810159E-16	0.000000E+00
4.390000E+03	6.856271E-16	0.000000E+00
4.400000E+03	6.900540E-16	0.000000E+00
4.410000E+03	6.942810E-16	0.000000E+00
4.420000E+03	6.983016E-16	0.000000E+00
4.430000E+03	7.020786E-16	0.000000E+00
4.440000E+03	7.056148E-16	0.000000E+00
4.450000E+03	7.088921E-16	0.000000E+00
4.460000E+03	7.118828E-16	0.000000E+00
4.470000E+03	7.145989E-16	0.000000E+00
4.480000E+03	7.170135E-16	0.000000E+00
4.490000E+03	7.191199E-16	0.000000E+00
4.500000E+03	7.209222E-16	0.000000E+00
4.510000E+03	7.223969E-16	0.000000E+00
4.520000E+03	7.235604E-16	0.000000E+00
4.530000E+03	7.244114E-16	0.000000E+00
4.540000E+03	7.249413E-16	0.000000E+00
4.550000E+03	7.251716E-16	0.000000E+00
4.560000E+03	7.250888E-16	0.000000E+00
4.570000E+03	7.247186E-16	0.000000E+00
4.580000E+03	7.240612E-16	0.000000E+00
4.590000E+03	7.231368E-16	0.000000E+00
4.600000E+03	7.219681E-16	0.000000E+00
4.610000E+03	7.205523E-16	0.000000E+00
4.620000E+03	7.189330E-16	0.000000E+00
4.630000E+03	7.171113E-16	0.000000E+00
4.640000E+03	7.151155E-16	0.000000E+00
4.650000E+03	7.129668E-16	0.000000E+00
4.660000E+03	7.106870E-16	0.000000E+00
4.670000E+03	7.082990E-16	0.000000E+00
4.680000E+03	7.058258E-16	0.000000E+00
4.690000E+03	7.032827E-16	0.000000E+00
4.700000E+03	7.007098E-16	0.000000E+00
4.710000E+03	6.981143E-16	0.000000E+00
4.720000E+03	6.955194E-16	0.000000E+00
4.730000E+03	6.929478E-16	0.000000E+00
4.740000E+03	6.904212E-16	0.000000E+00
4.750000E+03	6.879605E-16	0.000000E+00
4.760000E+03	6.855853E-16	0.000000E+00
4.770000E+03	6.833134E-16	0.000000E+00
4.780000E+03	6.811611E-16	0.000000E+00
4.790000E+03	6.791426E-16	0.000000E+00
4.800000E+03	6.772705E-16	0.000000E+00
4.810000E+03	6.755699E-16	0.000000E+00
4.820000E+03	6.740413E-16	0.000000E+00
4.830000E+03	6.726981E-16	0.000000E+00
4.840000E+03	6.715438E-16	0.000000E+00
4.850000E+03	6.705949E-16	0.000000E+00
4.860000E+03	6.698510E-16	0.000000E+00
4.870000E+03	6.693102E-16	0.000000E+00
4.880000E+03	6.689758E-16	0.000000E+00
4.890000E+03	6.688500E-16	0.000000E+00
4.900000E+03	6.689263E-16	0.000000E+00
4.910000E+03	6.692117E-16	0.000000E+00
4.920000E+03	6.696831E-16	0.000000E+00
4.930000E+03	6.703457E-16	0.000000E+00
4.940000E+03	6.711967E-16	0.000000E+00
4.950000E+03	6.722182E-16	0.000000E+00
4.960000E+03	6.734063E-16	0.000000E+00
4.970000E+03	6.747497E-16	0.000000E+00
4.980000E+03	6.762433E-16	0.000000E+00
4.990000E+03	6.778749E-16	0.000000E+00
5.000000E+03	6.796244E-16	0.000000E+00
5.010000E+03	6.814934E-16	0.000000E+00
5.020000E+03	6.834684E-16	0.000000E+00
5.030000E+03	6.855283E-16	0.000000E+00
5.040000E+03	6.876665E-16	0.000000E+00
5.050000E+03	6.898685E-16	0.000000E+00
5.060000E+03	6.921271E-16	0.000000E+00
5.070000E+03	6.944203E-16	0.000000E+00
5.080000E+03	6.967328E-16	0.000000E+00
5.090000E+03	6.990639E-16	0.000000E+00
5.100000E+03	7.013832E-16	0.000000E+00
5.110000E+03	7.036821E-16	0.000000E+00
5.120000E+03	7.059439E-16	0.000000E+00
5.130000E+03	7.081593E-16	0.000000E+00
5.140000E+03	7.102954E-16	0.000000E+00
5.150000E+03	7.123492E-16	0.000000E+00
5.160000E+03	7.143016E-16	0.000000E+00
5.170000E+03	7.161256E-16	0.000000E+00
5.180000E+03	7.178009E-16	0.000000E+00
5.190000E+03	7.193142E-16	0.000000E+00
5.200000E+03	7.206441E-16	0.000000E+00
5.210000E+03	7.217614E-16	0.000000E+00
5.220000E+03	7.226523E-16	0.000000E+00
5.230000E+03	7.232951E-16	0.000000E+00
5.240000E+03	7.236619E-16	0.000000E+00
5.250000E+03	7.237328E-16	0.000000E+00
5.260000E+03	7.234972E-16	0.000000E+00
5.270000E+03	7.229391E-16	0.000000E+00
5.280000E+03	7.220299E-16	0.000000E+00
5.290000E+03	7.207742E-16	0.000000E+00
5.300000E+03	7.191577E-16	0.000000E+00
5.310000E+03	7.171776E-16	0.000000E+00
5.320000E+03	7.148359E-16	0.000000E+00
5.330000E+03	7.121321E-16	0.000000E+00
5.340000E+03	7.090788E-16	0.000000E+00
5.350000E+03	7.056937E-16	0.000000E+00
5.360000E+03	7.020003E-16	0.000000E+00
5.370000E+03	6.980204E-16	0.000000E+00
5.380000E+03	6.937882E-16	0.000000E+00
5.390000E+03	6.893358E-16	0.000000E+00
5.400000E+03	6.847066E-16	0.000000E+00
5.410000E+03	6.799332E-16	0.000000E+00
5.420000E+03	6.750716E-16	0.000000E+00
5.430000E+03	6.701584E-16	0.000000E+00
5.440000E+03	6.652436E-16	0.000000E+00
5.450000E+03	6.603626E-16	0.000000E+00
5.460000E+03	6.555553E-16	0.000000E+00
5.470000E+03	6.508579E-16	0.000000E+00
5.480000E+03	6.463085E-16	0.000000E+00
5.490000E+03	6.419385E-16	0.000000E+00
5.500000E+03	6.377646E-16	0.000000E+00
5.510000E+03	6.338077E-16	0.000000E+00
5.520000E+03	6.300871E-16	0.000000E+00
5.530000E+03	6.265983E-16	0.000000E+00
5.540000E+03	6.233585E-16	0.000000E+00
5.550000E+03	6.203704E-16	0.000000E+00
5.560000E+03	6.176287E-16	0.000000E+00
5.570000E+03	6.151472E-16	0.000000E+00
5.580000E+03	6.129084E-16	0.000000E+00
5.590000E+03	6.109334E-16	0.000000E+00
5.600000E+03	6.092077E-16	0.000000E+00
5.610000E+03	6.077428E-16	0.000000E+00
5.620000E+03	6.065394E-16	0.000000E+00
5.630000E+03	6.056059E-16	0.000000E+00
5.640000E+03	6.049453E-16	0.000000E+00
5.650000E+03	6.045610E-16	0.000000E+00
5.660000E+03	6.044566E-16	0.000000E+00
5.670000E+03	6.046472E-16	0.000000E+00
5.680000E+03	6.051225E-16	0.000000E+00
5.690000E+03	6.058890E-16	0.000000E+00
5.700000E+03	6.069514E-16	0.000000E+00
5.710000E+03	6.082995E-16	0.000000E+00
5.720000E+03	6.099326E-16	0.000000E+00
5.730000E+03	6.118350E-16	0.000000E+00
5.740000E+03	6.139998E-16	0.000000E+00
5.750000E+03	6.164108E-16	0.000000E+00
5.760000E+03	6.190485E-16	0.000000E+00
5.770000E+03	6.218897E-16	0.000000E+00
5.780000E+03	6.249017E-16	0.000000E+00
5.790000E+03	6.280679E-16	0.000000E+00
5.800000E+03	6.313499E-16	0.000000E+00
5.810000E+03	6.347067E-16	0.000000E+00
5.820000E+03	6.381147E-16	0.000000E+00
5.830000E+03	6.415231E-16	0.000000E+00
5.840000E+03	6.449000E-16	0.000000E+00
5.850000E+03	6.482066E-16	0.000000E+00
5.860000E+03	6.514052E-16	0.000000E+00
5.870000E+03	6.544592E-16	0.000000E+00
5.880000E+03	6.573276E-16	0.000000E+00
5.890000E+03	6.599789E-16	0.000000E+00
5.900000E+03	6.623921E-16	0.000000E+00
5.910000E+03	6.645367E-16	0.000000E+00
5.920000E+03	6.663942E-16	0.000000E+00
5.930000E+03	6.679441E-16	0.000000E+00
5.940000E+03	6.691925E-16	0.000000E+00
5.950000E+03	6.701234E-16	0.000000E+00
5.960000E+03	6.707407E-16	0.000000E+00
5.970000E+03	6.710542E-16	0.000000E+00
5.980000E+03	6.710723E-16	0.000000E+00
5.990000E+03	6.708224E-16	0.000000E+00
6.000000E+03	6.703299E-16	0.000000E+00
6.010000E+03	6.696039E-16	0.000000E+00
6.020000E+03	6.686982E-16	0.000000E+00
6.030000E+03	6.676284E-16	0.000000E+00
6.040000E+03	6.664395E-16	0.000000E+00
6.050000E+03	6.651717E-16	0.000000E+00
6.060000E+03	6.638511E-16	0.000000E+00
6.070000E+03	6.625252E-16	0.000000E+00
6.080000E+03	6.612199E-16	0.000000E+00
6.090000E+03	6.599802E-16	0.000000E+00
6.100000E+03	6.588357E-16	0.000000E+00
6.110000E+03	6.578207E-16	0.000000E+00
6.120000E+03	6.569528E-16	0.000000E+00
6.130000E+03	6.562741E-16	0.000000E+00
6.140000E+03	6.557967E-16	0.000000E+00
6.150000E+03	6.555490E-16	0.000000E+00
6.160000E+03	6.555365E-16	0.000000E+00
6.170000E+03	6.557809E-16	0.000000E+00
6.180000E+03	6.563010E-16	0.000000E+00
6.190000E+03	6.570915E-16	0.000000E+00
6.200000E+03	6.581642E-16	0.000000E+00
6.210000E+03	6.595210E-16	0.000000E+00
6.220000E+03	6.611600E-16	0.000000E+00
6.230000E+03	6.630696E-16	0.000000E+00
6.240000E+03	6.652624E-16	0.000000E+00
6.250000E+03	6.677064E-16	0.000000E+00
6.260000E+03	6.704081E-16	0.000000E+00
6.270000E+03	6.733431E-16	0.000000E+00
6.280000E+03	6.764908E-16	0.000000E+00
6.290000E+03	6.798351E-16	0.000000E+00
6.300000E+03	6.833495E-16	0.000000E+00
6.310000E+03	6.870055E-16	0.000000E+00
6.320000E+03	6.907714E-16	0.000000E+00
6.330000E+03	6.946141E-16	0.000000E+00
6.340000E+03	6.985129E-16	0.000000E+00
6.350000E+03	7.024091E-16	0.000000E+00
6.360000E+03	7.062875E-16	0.000000E+00
6.370000E+03	7.101027E-16	0.000000E+00
6.380000E+03	7.138091E-16	0.000000E+00
6.390000E+03	7.173770E-16	0.000000E+00
6.400000E+03	7.207704E-16	0.000000E+00
6.410000E+03	7.239548E-16	0.000000E+00
6.420000E+03	7.268900E-16	0.000000E+00
6.430000E+03	7.295542E-16	0.000000E+00
6.440000E+03	7.319208E-16	0.000000E+00
6.450000E+03	7.339582E-16	0.000000E+00
6.460000E+03	7.356465E-16	0.000000E+00
6.470000E+03	7.369774E-16	0.000000E+00
6.480000E+03	7.379303E-16	0.000000E+00
6.490000E+03	7.385043E-16	0.000000E+00
6.500000E+03	7.386863E-16	0.000000E+00
6.510000E+03	7.384826E-16	0.000000E+00
6.520000E+03	7.378865E-16	0.000000E+00
6.530000E+03	7.369194E-16	0.000000E+00
6.540000E+03	7.355803E-16	0.000000E+00
6.550000E+03	7.338875E-16	0.000000E+00
6.560000E+03	7.318532E-16	0.000000E+00
6.570000E+03	7.294996E-16	0.000000E+00
6.580000E+03	7.268342E-16	0.000000E+00
6.590000E+03	7.238901E-16	0.000000E+00
6.600000E+03	7.206851E-16	0.000000E+00
6.610000E+03	7.172375E-16	0.000000E+00
6.620000E+03	7.135744E-16	0.000000E+00
6.630000E+03	7.097146E-16	0.000000E+00
6.640000E+03	7.056851E-16	0.000000E+00
6.650000E+03	7.014960E-16	0.000000E+00
6.660000E+03	6.971820E-16	0.000000E+00
6.670000E+03	6.927523E-16	0.000000E+00
6.680000E+03	6.882316E-16	0.000000E+00
6.690000E+03	6.836440E-16	0.000000E+00
6.700000E+03	6.789964E-16	0.000000E+00
6.710000E+03	6.743108E-16	0.000000E+00
6.720000E+03	6.696001E-16	0.000000E+00
6.730000E+03	6.648842E-16	0.000000E+00
6.740000E+03	6.601659E-16	0.000000E+00
6.750000E+03	6.554625E-16	0.000000E+00
6.760000E+03	6.507828E-16	0.000000E+00
6.770000E+03	6.461340E-16	0.000000E+00
6.780000E+03	6.415224E-16	0.000000E+00
6.790000E+03	6.369609E-16	0.000000E+00
6.800000E+03	6.324536E-16	0.000000E+00
6.810000E+03	6.280035E-16	0.000000E+00
6.820000E+03	6.236048E-16	0.000000E+00
6.830000E+03	6.192741E-16	0.000000E+00
6.840000E+03	6.150036E-16	0.000000E+00
6.850000E+03	6.107925E-16	0.000000E+00
6.860000E+03	6.066394E-16	0.000000E+00
6.870000E+03	6.025491E-16	0.000000E+00
6.880000E+03	5.985185E-16	0.000000E+00
6.890000E+03	5.945285E-16	0.000000E+00
6.900000E+03	5.905972E-16	0.000000E+00
6.910000E+03	5.867043E-16	0.000000E+00
6.920000E+03	5.828516E-16	0.000000E+00
6.930000E+03	5.790330E-16	0.000000E+00
6.940000E+03	5.752345E-16	0.000000E+00
6.950000E+03	5.714640E-16	0.000000E+00
6.960000E+03	5.676994E-16	0.000000E+00
6.970000E+03	5.639339E-16	0.000000E+00
6.980000E+03	5.601741E-16	0.000000E+00
6.990000E+03	5.563982E-16	0.000000E+00
7.000000E+03	5.526059E-16	0.000000E+00
7.010000E+03	5.487828E-16	0.000000E+00
7.020000E+03	5.449357E-16	0.000000E+00
7.030000E+03	5.410435E-16	0.000000E+00
7.040000E+03	5.371000E-16	0.000000E+00
7.050000E+03	5.331058E-16	0.000000E+00
7.060000E+03	5.290552E-16	0.000000E+00
7.070000E+03	5.249293E-16	0.000000E+00
7.080000E+03	5.207442E-16	0.000000E+00
7.090000E+03	5.164758E-16	0.000000E+00
7.100000E+03	5.121345E-16	0.000000E+00
7.110000E+03	5.077049E-16	0.000000E+00
7.120000E+03	5.031990E-16	0.000000E+00
7.130000E+03	4.986032E-16	0.000000E+00
7.140000E+03	4.939246E-16	0.000000E+00
7.150000E+03	4.891585E-16	0.000000E+00
7.160000E+03	4.843140E-16	0.000000E+00
7.170000E+03	4.793884E-16	0.000000E+00
7.180000E+03	4.743866E-16	0.000000E+00
7.190000E+03	4.693141E-16	0.000000E+00
7.200000E+03	4.641719E-16	0.000000E+00
7.210000E+03	4.589739E-16	0.000000E+00
7.220000E+03	4.537231E-16	0.000000E+00
7.230000E+03	4.484290E-16	0.000000E+00
7.240000E+03	4.430966E-16	0.000000E+00
7.250000E+03	4.377432E-16	0.000000E+00
7.260000E+03	4.323753E-16	0.000000E+00
7.270000E+03	4.270003E-16	0.000000E+00
7.280000E+03	4.216372E-16	0.000000E+00
7.290000E+03	4.162945E-16	0.000000E+00
7.300000E+03	4.109810E-16	0.000000E+00
7.310000E+03	4.057062E-16	0.000000E+00
7.320000E+03	4.004955E-16	0.000000E+00
7.330000E+03	3.953478E-16	0.000000E+00
7.340000E+03	3.902830E-16	0.000000E+00
7.350000E+03	3.853106E-16	0.000000E+00
7.360000E+03	3.804392E-16	0.000000E+00
7.370000E+03	3.756828E-16	0.000000E+00
7.380000E+03	3.710540E-16	0.000000E+00
7.390000E+03	3.665553E-16	0.000000E+00
7.400000E+03	3.622025E-16	0.000000E+00
7.410000E+03	3.579965E-16	0.000000E+00
7.420000E+03	3.539557E-16	0.000000E+00
7.430000E+03	3.500785E-16	0.000000E+00
7.440000E+03	3.463714E-16	0.000000E+00
7.450000E+03	3.428438E-16	0.000000E+00
7.460000E+03	3.394996E-16	0.000000E+00
7.470000E+03	3.363405E-16	0.000000E+00
7.480000E+03	3.333673E-16	0.000000E+00
7.490000E+03	3.305879E-16	0.000000E+00
7.500000E+03	3.279954E-16	0.000000E+00
7.510000E+03	3.255860E-16	0.000000E+00
7.520000E+03	3.233632E-16	0.000000E+00
7.530000E+03	3.213206E-16	0.000000E+00
7.540000E+03	3.194503E-16	0.000000E+00
7.550000E+03	3.177478E-16	0.000000E+00
7.560000E+03	3.161988E-16	0.000000E+00
7.570000E+03	3.148008E-16	0.000000E+00
7.580000E+03	3.135375E-16	0.000000E+00
7.590000E+03	3.124050E-16	0.000000E+00
7.600000E+03	3.113815E-16	0.000000E+00
7.610000E+03	3.104615E-16	0.000000E+00
7.620000E+03	3.096309E-16	0.000000E+00
7.630000E+03	3.088752E-16	0.000000E+00
7.640000E+03	3.081801E-16	0.000000E+00
7.650000E+03	3.075312E-16	0.000000E+00
7.660000E+03	3.069144E-16	0.000000E+00
7.670000E+03	3.063243E-16	0.000000E+00
7.680000E+03	3.057354E-16	0.000000E+00
7.690000E+03	3.051477E-16	0.000000E+00
7.700000E+03	3.045456E-16	0.000000E+00
7.710000E+03	3.039141E-16	0.000000E+00
7.720000E+03	3.032480E-16	0.000000E+00
7.730000E+03	3.025430E-16	0.000000E+00
7.740000E+03	3.017836E-16	0.000000E+00
7.750000E+03	3.009723E-16	0.000000E+00
7.760000E+03	3.000961E-16	0.000000E+00
