#wls	flux	fluxerr
1.600000E+03	3.398918E-17	0.000000E+00
1.640000E+03	3.448794E-17	0.000000E+00
1.680000E+03	3.503003E-17	0.000000E+00
1.720000E+03	3.561827E-17	0.000000E+00
1.760000E+03	3.626218E-17	0.000000E+00
1.800000E+03	3.695890E-17	0.000000E+00
1.840000E+03	3.771211E-17	0.000000E+00
1.880000E+03	3.853245E-17	0.000000E+00
1.920000E+03	3.943137E-17	0.000000E+00
1.960000E+03	4.040046E-17	0.000000E+00
2.000000E+03	4.145891E-17	0.000000E+00
2.040000E+03	4.260588E-17	0.000000E+00
2.080000E+03	4.386242E-17	0.000000E+00
2.120000E+03	4.522147E-17	0.000000E+00
2.160000E+03	4.670578E-17	0.000000E+00
2.200000E+03	4.832445E-17	0.000000E+00
2.240000E+03	5.008722E-17	0.000000E+00
2.280000E+03	5.200444E-17	0.000000E+00
2.320000E+03	5.409554E-17	0.000000E+00
2.360000E+03	5.638139E-17	0.000000E+00
2.400000E+03	5.886654E-17	0.000000E+00
2.440000E+03	6.158253E-17	0.000000E+00
2.480000E+03	6.453483E-17	0.000000E+00
2.520000E+03	6.775715E-17	0.000000E+00
2.560000E+03	7.125497E-17	0.000000E+00
2.600000E+03	7.507341E-17	0.000000E+00
2.640000E+03	7.921710E-17	0.000000E+00
2.680000E+03	8.370942E-17	0.000000E+00
2.720000E+03	8.858359E-17	0.000000E+00
2.760000E+03	9.383569E-17	0.000000E+00
2.800000E+03	9.950383E-17	0.000000E+00
2.840000E+03	1.055852E-16	0.000000E+00
2.880000E+03	1.120937E-16	0.000000E+00
2.920000E+03	1.190082E-16	0.000000E+00
2.960000E+03	1.263357E-16	0.000000E+00
3.000000E+03	1.340438E-16	0.000000E+00
3.010000E+03	1.360192E-16	0.000000E+00
3.020000E+03	1.380234E-16	0.000000E+00
3.030000E+03	1.400553E-16	0.000000E+00
3.040000E+03	1.420842E-16	0.000000E+00
3.050000E+03	1.441531E-16	0.000000E+00
3.060000E+03	1.462308E-16	0.000000E+00
3.070000E+03	1.483160E-16	0.000000E+00
3.080000E+03	1.504372E-16	0.000000E+00
3.090000E+03	1.525627E-16	0.000000E+00
3.100000E+03	1.546906E-16	0.000000E+00
3.110000E+03	1.568345E-16	0.000000E+00
3.120000E+03	1.590082E-16	0.000000E+00
3.130000E+03	1.611636E-16	0.000000E+00
3.140000E+03	1.633451E-16	0.000000E+00
3.150000E+03	1.655354E-16	0.000000E+00
3.160000E+03	1.677167E-16	0.000000E+00
3.170000E+03	1.699188E-16	0.000000E+00
3.180000E+03	1.721078E-16	0.000000E+00
3.190000E+03	1.743134E-16	0.000000E+00
3.200000E+03	1.765017E-16	0.000000E+00
3.210000E+03	1.787024E-16	0.000000E+00
3.220000E+03	1.808977E-16	0.000000E+00
3.230000E+03	1.830851E-16	0.000000E+00
3.240000E+03	1.852626E-16	0.000000E+00
3.250000E+03	1.874442E-16	0.000000E+00
3.260000E+03	1.895956E-16	0.000000E+00
3.270000E+03	1.917629E-16	0.000000E+00
3.280000E+03	1.938958E-16	0.000000E+00
3.290000E+03	1.960406E-16	0.000000E+00
3.300000E+03	1.981469E-16	0.000000E+00
3.310000E+03	2.002610E-16	0.000000E+00
3.320000E+03	2.023492E-16	0.000000E+00
3.330000E+03	2.044092E-16	0.000000E+00
3.340000E+03	2.064557E-16	0.000000E+00
3.350000E+03	2.085028E-16	0.000000E+00
3.360000E+03	2.105009E-16	0.000000E+00
3.370000E+03	2.124965E-16	0.000000E+00
3.380000E+03	2.144724E-16	0.000000E+00
3.390000E+03	2.164269E-16	0.000000E+00
3.400000E+03	2.183590E-16	0.000000E+00
3.410000E+03	2.202676E-16	0.000000E+00
3.420000E+03	2.221517E-16	0.000000E+00
3.430000E+03	2.240104E-16	0.000000E+00
3.440000E+03	2.258586E-16	0.000000E+00
3.450000E+03	2.276801E-16	0.000000E+00
3.460000E+03	2.294897E-16	0.000000E+00
3.470000E+03	2.312717E-16	0.000000E+00
3.480000E+03	2.330258E-16	0.000000E+00
3.490000E+03	2.347673E-16	0.000000E+00
3.500000E+03	2.364959E-16	0.000000E+00
3.510000E+03	2.382118E-16	0.000000E+00
3.520000E+03	2.399000E-16	0.000000E+00
3.530000E+03	2.415910E-16	0.000000E+00
3.540000E+03	2.432550E-16	0.000000E+00
3.550000E+03	2.449078E-16	0.000000E+00
3.560000E+03	2.465646E-16	0.000000E+00
3.570000E+03	2.481966E-16	0.000000E+00
3.580000E+03	2.498341E-16	0.000000E+00
3.590000E+03	2.514633E-16	0.000000E+00
3.600000E+03	2.530997E-16	0.000000E+00
3.610000E+03	2.547300E-16	0.000000E+00
3.620000E+03	2.563695E-16	0.000000E+00
3.630000E+03	2.580054E-16	0.000000E+00
3.640000E+03	2.596393E-16	0.000000E+00
3.650000E+03	2.613001E-16	0.000000E+00
3.660000E+03	2.629617E-16	0.000000E+00
3.670000E+03	2.646529E-16	0.000000E+00
3.680000E+03	2.663480E-16	0.000000E+00
3.690000E+03	2.680621E-16	0.000000E+00
3.700000E+03	2.698103E-16	0.000000E+00
3.710000E+03	2.715674E-16	0.000000E+00
3.720000E+03	2.733617E-16	0.000000E+00
3.730000E+03	2.751816E-16	0.000000E+00
3.740000E+03	2.770417E-16	0.000000E+00
3.750000E+03	2.789308E-16	0.000000E+00
3.760000E+03	2.808506E-16	0.000000E+00
3.770000E+03	2.828156E-16	0.000000E+00
3.780000E+03	2.848271E-16	0.000000E+00
3.790000E+03	2.868744E-16	0.000000E+00
3.800000E+03	2.889836E-16	0.000000E+00
3.810000E+03	2.911317E-16	0.000000E+00
3.820000E+03	2.933323E-16	0.000000E+00
3.830000E+03	2.955867E-16	0.000000E+00
3.840000E+03	2.978964E-16	0.000000E+00
3.850000E+03	3.002623E-16	0.000000E+00
3.860000E+03	3.026858E-16	0.000000E+00
3.870000E+03	3.051676E-16	0.000000E+00
3.880000E+03	3.077091E-16	0.000000E+00
3.890000E+03	3.103224E-16	0.000000E+00
3.900000E+03	3.129849E-16	0.000000E+00
3.910000E+03	3.157206E-16	0.000000E+00
3.920000E+03	3.185294E-16	0.000000E+00
3.930000E+03	3.213891E-16	0.000000E+00
3.940000E+03	3.243224E-16	0.000000E+00
3.950000E+03	3.273180E-16	0.000000E+00
3.960000E+03	3.303869E-16	0.000000E+00
3.970000E+03	3.335065E-16	0.000000E+00
3.980000E+03	3.367097E-16	0.000000E+00
3.990000E+03	3.399626E-16	0.000000E+00
4.000000E+03	3.432755E-16	0.000000E+00
4.010000E+03	3.466586E-16	0.000000E+00
4.020000E+03	3.500997E-16	0.000000E+00
4.030000E+03	3.535978E-16	0.000000E+00
4.040000E+03	3.571515E-16	0.000000E+00
4.050000E+03	3.607596E-16	0.000000E+00
4.060000E+03	3.644098E-16	0.000000E+00
4.070000E+03	3.681218E-16	0.000000E+00
4.080000E+03	3.718728E-16	0.000000E+00
4.090000E+03	3.756717E-16	0.000000E+00
4.100000E+03	3.795063E-16	0.000000E+00
4.110000E+03	3.833747E-16	0.000000E+00
4.120000E+03	3.872858E-16	0.000000E+00
4.130000E+03	3.912169E-16	0.000000E+00
4.140000E+03	3.951767E-16	0.000000E+00
4.150000E+03	3.991635E-16	0.000000E+00
4.160000E+03	4.031755E-16	0.000000E+00
4.170000E+03	4.071909E-16	0.000000E+00
4.180000E+03	4.112284E-16	0.000000E+00
4.190000E+03	4.152662E-16	0.000000E+00
4.200000E+03	4.193133E-16	0.000000E+00
4.210000E+03	4.233583E-16	0.000000E+00
4.220000E+03	4.273998E-16	0.000000E+00
4.230000E+03	4.314369E-16	0.000000E+00
4.240000E+03	4.354683E-16	0.000000E+00
4.250000E+03	4.394736E-16	0.000000E+00
4.260000E+03	4.434614E-16	0.000000E+00
4.270000E+03	4.474311E-16	0.000000E+00
4.280000E+03	4.513720E-16	0.000000E+00
4.290000E+03	4.552735E-16	0.000000E+00
4.300000E+03	4.591543E-16	0.000000E+00
4.310000E+03	4.629845E-16	0.000000E+00
4.320000E+03	4.667731E-16	0.000000E+00
4.330000E+03	4.705095E-16	0.000000E+00
4.340000E+03	4.742023E-16	0.000000E+00
4.350000E+03	4.778314E-16	0.000000E+00
4.360000E+03	4.814054E-16	0.000000E+00
4.370000E+03	4.849042E-16	0.000000E+00
4.380000E+03	4.883361E-16	0.000000E+00
4.390000E+03	4.916904E-16	0.000000E+00
4.400000E+03	4.949749E-16	0.000000E+00
4.410000E+03	4.981606E-16	0.000000E+00
4.420000E+03	5.012646E-16	0.000000E+00
4.430000E+03	5.042762E-16	0.000000E+00
4.440000E+03	5.071850E-16	0.000000E+00
4.450000E+03	5.099989E-16	0.000000E+00
4.460000E+03	5.126986E-16	0.000000E+00
4.470000E+03	5.152922E-16	0.000000E+00
4.480000E+03	5.177700E-16	0.000000E+00
4.490000E+03	5.201406E-16	0.000000E+00
4.500000E+03	5.223859E-16	0.000000E+00
4.510000E+03	5.245152E-16	0.000000E+00
4.520000E+03	5.265201E-16	0.000000E+00
4.530000E+03	5.284019E-16	0.000000E+00
4.540000E+03	5.301623E-16	0.000000E+00
4.550000E+03	5.318033E-16	0.000000E+00
4.560000E+03	5.333190E-16	0.000000E+00
4.570000E+03	5.347211E-16	0.000000E+00
4.580000E+03	5.360049E-16	0.000000E+00
4.590000E+03	5.371747E-16	0.000000E+00
4.600000E+03	5.382353E-16	0.000000E+00
4.610000E+03	5.391922E-16	0.000000E+00
4.620000E+03	5.400513E-16	0.000000E+00
4.630000E+03	5.408105E-16	0.000000E+00
4.640000E+03	5.414932E-16	0.000000E+00
4.650000E+03	5.420899E-16	0.000000E+00
4.660000E+03	5.426082E-16	0.000000E+00
4.670000E+03	5.430720E-16	0.000000E+00
4.680000E+03	5.434728E-16	0.000000E+00
4.690000E+03	5.438187E-16	0.000000E+00
4.700000E+03	5.441260E-16	0.000000E+00
4.710000E+03	5.444024E-16	0.000000E+00
4.720000E+03	5.446479E-16	0.000000E+00
4.730000E+03	5.448862E-16	0.000000E+00
4.740000E+03	5.451091E-16	0.000000E+00
4.750000E+03	5.453314E-16	0.000000E+00
4.760000E+03	5.455601E-16	0.000000E+00
4.770000E+03	5.458018E-16	0.000000E+00
4.780000E+03	5.460699E-16	0.000000E+00
4.790000E+03	5.463544E-16	0.000000E+00
4.800000E+03	5.466834E-16	0.000000E+00
4.810000E+03	5.470455E-16	0.000000E+00
4.820000E+03	5.474444E-16	0.000000E+00
4.830000E+03	5.478983E-16	0.000000E+00
4.840000E+03	5.484016E-16	0.000000E+00
4.850000E+03	5.489560E-16	0.000000E+00
4.860000E+03	5.495622E-16	0.000000E+00
4.870000E+03	5.502353E-16	0.000000E+00
4.880000E+03	5.509596E-16	0.000000E+00
4.890000E+03	5.517416E-16	0.000000E+00
4.900000E+03	5.525790E-16	0.000000E+00
4.910000E+03	5.534769E-16	0.000000E+00
4.920000E+03	5.544321E-16	0.000000E+00
4.930000E+03	5.554331E-16	0.000000E+00
4.940000E+03	5.564905E-16	0.000000E+00
4.950000E+03	5.575844E-16	0.000000E+00
4.960000E+03	5.587243E-16	0.000000E+00
4.970000E+03	5.599042E-16	0.000000E+00
4.980000E+03	5.611177E-16	0.000000E+00
4.990000E+03	5.623503E-16	0.000000E+00
5.000000E+03	5.636098E-16	0.000000E+00
5.010000E+03	5.648810E-16	0.000000E+00
5.020000E+03	5.661633E-16	0.000000E+00
5.030000E+03	5.674410E-16	0.000000E+00
5.040000E+03	5.687127E-16	0.000000E+00
5.050000E+03	5.699697E-16	0.000000E+00
5.060000E+03	5.712027E-16	0.000000E+00
5.070000E+03	5.724025E-16	0.000000E+00
5.080000E+03	5.735594E-16	0.000000E+00
5.090000E+03	5.746713E-16	0.000000E+00
5.100000E+03	5.757284E-16	0.000000E+00
5.110000E+03	5.767134E-16	0.000000E+00
5.120000E+03	5.776166E-16	0.000000E+00
5.130000E+03	5.784355E-16	0.000000E+00
5.140000E+03	5.791607E-16	0.000000E+00
5.150000E+03	5.797825E-16	0.000000E+00
5.160000E+03	5.802917E-16	0.000000E+00
5.170000E+03	5.806719E-16	0.000000E+00
5.180000E+03	5.809221E-16	0.000000E+00
5.190000E+03	5.810341E-16	0.000000E+00
5.200000E+03	5.809932E-16	0.000000E+00
5.210000E+03	5.808075E-16	0.000000E+00
5.220000E+03	5.804561E-16	0.000000E+00
5.230000E+03	5.799339E-16	0.000000E+00
5.240000E+03	5.792446E-16	0.000000E+00
5.250000E+03	5.783849E-16	0.000000E+00
5.260000E+03	5.773461E-16	0.000000E+00
5.270000E+03	5.761278E-16	0.000000E+00
5.280000E+03	5.747311E-16	0.000000E+00
5.290000E+03	5.731660E-16	0.000000E+00
5.300000E+03	5.714219E-16	0.000000E+00
5.310000E+03	5.695120E-16	0.000000E+00
5.320000E+03	5.674438E-16	0.000000E+00
5.330000E+03	5.652259E-16	0.000000E+00
5.340000E+03	5.628620E-16	0.000000E+00
5.350000E+03	5.603641E-16	0.000000E+00
5.360000E+03	5.577530E-16	0.000000E+00
5.370000E+03	5.550294E-16	0.000000E+00
5.380000E+03	5.522235E-16	0.000000E+00
5.390000E+03	5.493455E-16	0.000000E+00
5.400000E+03	5.464066E-16	0.000000E+00
5.410000E+03	5.434325E-16	0.000000E+00
5.420000E+03	5.404358E-16	0.000000E+00
5.430000E+03	5.374430E-16	0.000000E+00
5.440000E+03	5.344669E-16	0.000000E+00
5.450000E+03	5.315338E-16	0.000000E+00
5.460000E+03	5.286559E-16	0.000000E+00
5.470000E+03	5.258581E-16	0.000000E+00
5.480000E+03	5.231446E-16	0.000000E+00
5.490000E+03	5.205447E-16	0.000000E+00
5.500000E+03	5.180707E-16	0.000000E+00
5.510000E+03	5.157203E-16	0.000000E+00
5.520000E+03	5.134957E-16	0.000000E+00
5.530000E+03	5.114104E-16	0.000000E+00
5.540000E+03	5.094452E-16	0.000000E+00
5.550000E+03	5.076186E-16	0.000000E+00
5.560000E+03	5.059229E-16	0.000000E+00
5.570000E+03	5.043498E-16	0.000000E+00
5.580000E+03	5.029099E-16	0.000000E+00
5.590000E+03	5.016008E-16	0.000000E+00
5.600000E+03	5.004132E-16	0.000000E+00
5.610000E+03	4.993444E-16	0.000000E+00
5.620000E+03	4.984038E-16	0.000000E+00
5.630000E+03	4.975754E-16	0.000000E+00
5.640000E+03	4.968681E-16	0.000000E+00
5.650000E+03	4.962779E-16	0.000000E+00
5.660000E+03	4.957944E-16	0.000000E+00
5.670000E+03	4.954192E-16	0.000000E+00
5.680000E+03	4.951472E-16	0.000000E+00
5.690000E+03	4.949731E-16	0.000000E+00
5.700000E+03	4.948972E-16	0.000000E+00
5.710000E+03	4.949067E-16	0.000000E+00
5.720000E+03	4.950010E-16	0.000000E+00
5.730000E+03	4.951725E-16	0.000000E+00
5.740000E+03	4.954071E-16	0.000000E+00
5.750000E+03	4.957084E-16	0.000000E+00
5.760000E+03	4.960613E-16	0.000000E+00
5.770000E+03	4.964562E-16	0.000000E+00
5.780000E+03	4.968895E-16	0.000000E+00
5.790000E+03	4.973447E-16	0.000000E+00
5.800000E+03	4.978113E-16	0.000000E+00
5.810000E+03	4.982851E-16	0.000000E+00
5.820000E+03	4.987554E-16	0.000000E+00
5.830000E+03	4.992120E-16	0.000000E+00
5.840000E+03	4.996384E-16	0.000000E+00
5.850000E+03	5.000374E-16	0.000000E+00
5.860000E+03	5.003872E-16	0.000000E+00
5.870000E+03	5.006793E-16	0.000000E+00
5.880000E+03	5.009187E-16	0.000000E+00
5.890000E+03	5.010861E-16	0.000000E+00
5.900000E+03	5.011820E-16	0.000000E+00
5.910000E+03	5.012021E-16	0.000000E+00
5.920000E+03	5.011367E-16	0.000000E+00
5.930000E+03	5.009966E-16	0.000000E+00
5.940000E+03	5.007622E-16	0.000000E+00
5.950000E+03	5.004470E-16	0.000000E+00
5.960000E+03	5.000531E-16	0.000000E+00
5.970000E+03	4.995777E-16	0.000000E+00
5.980000E+03	4.990256E-16	0.000000E+00
5.990000E+03	4.984090E-16	0.000000E+00
6.000000E+03	4.977224E-16	0.000000E+00
6.010000E+03	4.969866E-16	0.000000E+00
6.020000E+03	4.962040E-16	0.000000E+00
6.030000E+03	4.953781E-16	0.000000E+00
6.040000E+03	4.945253E-16	0.000000E+00
6.050000E+03	4.936565E-16	0.000000E+00
6.060000E+03	4.927823E-16	0.000000E+00
6.070000E+03	4.919076E-16	0.000000E+00
6.080000E+03	4.910432E-16	0.000000E+00
6.090000E+03	4.902062E-16	0.000000E+00
6.100000E+03	4.894007E-16	0.000000E+00
6.110000E+03	4.886365E-16	0.000000E+00
6.120000E+03	4.879229E-16	0.000000E+00
6.130000E+03	4.872687E-16	0.000000E+00
6.140000E+03	4.866813E-16	0.000000E+00
6.150000E+03	4.861677E-16	0.000000E+00
6.160000E+03	4.857340E-16	0.000000E+00
6.170000E+03	4.853783E-16	0.000000E+00
6.180000E+03	4.851110E-16	0.000000E+00
6.190000E+03	4.849346E-16	0.000000E+00
6.200000E+03	4.848444E-16	0.000000E+00
6.210000E+03	4.848471E-16	0.000000E+00
6.220000E+03	4.849354E-16	0.000000E+00
6.230000E+03	4.851140E-16	0.000000E+00
6.240000E+03	4.853733E-16	0.000000E+00
6.250000E+03	4.857155E-16	0.000000E+00
6.260000E+03	4.861293E-16	0.000000E+00
6.270000E+03	4.866147E-16	0.000000E+00
6.280000E+03	4.871582E-16	0.000000E+00
6.290000E+03	4.877584E-16	0.000000E+00
6.300000E+03	4.883997E-16	0.000000E+00
6.310000E+03	4.890793E-16	0.000000E+00
6.320000E+03	4.897805E-16	0.000000E+00
6.330000E+03	4.904991E-16	0.000000E+00
6.340000E+03	4.912174E-16	0.000000E+00
6.350000E+03	4.919307E-16	0.000000E+00
6.360000E+03	4.926272E-16	0.000000E+00
6.370000E+03	4.932954E-16	0.000000E+00
6.380000E+03	4.939169E-16	0.000000E+00
6.390000E+03	4.944869E-16	0.000000E+00
6.400000E+03	4.950011E-16	0.000000E+00
6.410000E+03	4.954348E-16	0.000000E+00
6.420000E+03	4.957847E-16	0.000000E+00
6.430000E+03	4.960477E-16	0.000000E+00
6.440000E+03	4.962082E-16	0.000000E+00
6.450000E+03	4.962575E-16	0.000000E+00
6.460000E+03	4.961952E-16	0.000000E+00
6.470000E+03	4.960077E-16	0.000000E+00
6.480000E+03	4.956962E-16	0.000000E+00
6.490000E+03	4.952560E-16	0.000000E+00
6.500000E+03	4.946761E-16	0.000000E+00
6.510000E+03	4.939675E-16	0.000000E+00
6.520000E+03	4.931215E-16	0.000000E+00
6.530000E+03	4.921370E-16	0.000000E+00
6.540000E+03	4.910137E-16	0.000000E+00
6.550000E+03	4.897591E-16	0.000000E+00
6.560000E+03	4.883678E-16	0.000000E+00
6.570000E+03	4.868558E-16	0.000000E+00
6.580000E+03	4.852120E-16	0.000000E+00
6.590000E+03	4.834466E-16	0.000000E+00
6.600000E+03	4.815635E-16	0.000000E+00
6.610000E+03	4.795740E-16	0.000000E+00
6.620000E+03	4.774757E-16	0.000000E+00
6.630000E+03	4.752806E-16	0.000000E+00
6.640000E+03	4.729937E-16	0.000000E+00
6.650000E+03	4.706136E-16	0.000000E+00
6.660000E+03	4.681527E-16	0.000000E+00
6.670000E+03	4.656230E-16	0.000000E+00
6.680000E+03	4.630233E-16	0.000000E+00
6.690000E+03	4.603589E-16	0.000000E+00
6.700000E+03	4.576418E-16	0.000000E+00
6.710000E+03	4.548771E-16	0.000000E+00
6.720000E+03	4.520630E-16	0.000000E+00
6.730000E+03	4.492173E-16	0.000000E+00
6.740000E+03	4.463311E-16	0.000000E+00
6.750000E+03	4.434219E-16	0.000000E+00
6.760000E+03	4.404868E-16	0.000000E+00
6.770000E+03	4.375292E-16	0.000000E+00
6.780000E+03	4.345589E-16	0.000000E+00
6.790000E+03	4.315720E-16	0.000000E+00
6.800000E+03	4.285776E-16	0.000000E+00
6.810000E+03	4.255778E-16	0.000000E+00
6.820000E+03	4.225743E-16	0.000000E+00
6.830000E+03	4.195624E-16	0.000000E+00
6.840000E+03	4.165494E-16	0.000000E+00
6.850000E+03	4.135425E-16	0.000000E+00
6.860000E+03	4.105298E-16	0.000000E+00
6.870000E+03	4.075241E-16	0.000000E+00
6.880000E+03	4.045193E-16	0.000000E+00
6.890000E+03	4.015150E-16	0.000000E+00
6.900000E+03	3.985110E-16	0.000000E+00
6.910000E+03	3.955065E-16	0.000000E+00
6.920000E+03	3.925073E-16	0.000000E+00
6.930000E+03	3.895060E-16	0.000000E+00
6.940000E+03	3.865018E-16	0.000000E+00
6.950000E+03	3.834995E-16	0.000000E+00
6.960000E+03	3.804922E-16	0.000000E+00
6.970000E+03	3.774785E-16	0.000000E+00
6.980000E+03	3.744575E-16	0.000000E+00
6.990000E+03	3.714336E-16	0.000000E+00
7.000000E+03	3.683943E-16	0.000000E+00
7.010000E+03	3.653501E-16	0.000000E+00
7.020000E+03	3.622942E-16	0.000000E+00
7.030000E+03	3.592259E-16	0.000000E+00
7.040000E+03	3.561444E-16	0.000000E+00
7.050000E+03	3.530494E-16	0.000000E+00
7.060000E+03	3.499405E-16	0.000000E+00
7.070000E+03	3.468177E-16	0.000000E+00
7.080000E+03	3.436757E-16	0.000000E+00
7.090000E+03	3.405203E-16	0.000000E+00
7.100000E+03	3.373469E-16	0.000000E+00
7.110000E+03	3.341618E-16	0.000000E+00
7.120000E+03	3.309607E-16	0.000000E+00
7.130000E+03	3.277507E-16	0.000000E+00
7.140000E+03	3.245230E-16	0.000000E+00
7.150000E+03	3.212901E-16	0.000000E+00
7.160000E+03	3.180442E-16	0.000000E+00
7.170000E+03	3.147982E-16	0.000000E+00
7.180000E+03	3.115398E-16	0.000000E+00
7.190000E+03	3.082826E-16	0.000000E+00
7.200000E+03	3.050299E-16	0.000000E+00
7.210000E+03	3.017804E-16	0.000000E+00
7.220000E+03	2.985383E-16	0.000000E+00
7.230000E+03	2.953029E-16	0.000000E+00
7.240000E+03	2.920880E-16	0.000000E+00
7.250000E+03	2.888889E-16	0.000000E+00
7.260000E+03	2.857145E-16	0.000000E+00
7.270000E+03	2.825652E-16	0.000000E+00
7.280000E+03	2.794455E-16	0.000000E+00
7.290000E+03	2.763604E-16	0.000000E+00
7.300000E+03	2.733146E-16	0.000000E+00
7.310000E+03	2.703127E-16	0.000000E+00
7.320000E+03	2.673551E-16	0.000000E+00
7.330000E+03	2.644505E-16	0.000000E+00
7.340000E+03	2.615991E-16	0.000000E+00
7.350000E+03	2.588091E-16	0.000000E+00
7.360000E+03	2.560764E-16	0.000000E+00
7.370000E+03	2.534127E-16	0.000000E+00
7.380000E+03	2.508134E-16	0.000000E+00
7.390000E+03	2.482899E-16	0.000000E+00
7.400000E+03	2.458366E-16	0.000000E+00
7.410000E+03	2.434604E-16	0.000000E+00
7.420000E+03	2.411592E-16	0.000000E+00
7.430000E+03	2.389388E-16	0.000000E+00
7.440000E+03	2.368004E-16	0.000000E+00
7.450000E+03	2.347414E-16	0.000000E+00
7.460000E+03	2.327622E-16	0.000000E+00
7.470000E+03	2.308668E-16	0.000000E+00
7.480000E+03	2.290551E-16	0.000000E+00
7.490000E+03	2.273189E-16	0.000000E+00
7.500000E+03	2.256683E-16	0.000000E+00
7.510000E+03	2.240910E-16	0.000000E+00
7.520000E+03	2.225927E-16	0.000000E+00
7.530000E+03	2.211711E-16	0.000000E+00
7.540000E+03	2.198203E-16	0.000000E+00
7.550000E+03	2.185375E-16	0.000000E+00
7.560000E+03	2.173235E-16	0.000000E+00
7.570000E+03	2.161750E-16	0.000000E+00
7.580000E+03	2.150885E-16	0.000000E+00
7.590000E+03	2.140569E-16	0.000000E+00
7.600000E+03	2.130762E-16	0.000000E+00
7.610000E+03	2.121498E-16	0.000000E+00
7.620000E+03	2.112664E-16	0.000000E+00
7.630000E+03	2.104290E-16	0.000000E+00
7.640000E+03	2.096266E-16	0.000000E+00
7.650000E+03	2.088586E-16	0.000000E+00
7.660000E+03	2.081207E-16	0.000000E+00
7.670000E+03	2.074093E-16	0.000000E+00
7.680000E+03	2.067204E-16	0.000000E+00
7.690000E+03	2.060503E-16	0.000000E+00
7.700000E+03	2.053957E-16	0.000000E+00
7.710000E+03	2.047531E-16	0.000000E+00
7.720000E+03	2.041196E-16	0.000000E+00
7.730000E+03	2.034925E-16	0.000000E+00
7.740000E+03	2.028694E-16	0.000000E+00
7.750000E+03	2.022513E-16	0.000000E+00
7.760000E+03	2.016300E-16	0.000000E+00
