#wls	flux	fluxerr
1.600000E+03	2.644906E-17	0.000000E+00
1.640000E+03	2.680575E-17	0.000000E+00
1.680000E+03	2.718664E-17	0.000000E+00
1.720000E+03	2.760265E-17	0.000000E+00
1.760000E+03	2.804611E-17	0.000000E+00
1.800000E+03	2.852358E-17	0.000000E+00
1.840000E+03	2.904195E-17	0.000000E+00
1.880000E+03	2.959857E-17	0.000000E+00
1.920000E+03	3.020073E-17	0.000000E+00
1.960000E+03	3.084593E-17	0.000000E+00
2.000000E+03	3.154192E-17	0.000000E+00
2.040000E+03	3.228633E-17	0.000000E+00
2.080000E+03	3.309273E-17	0.000000E+00
2.120000E+03	3.396462E-17	0.000000E+00
2.160000E+03	3.489450E-17	0.000000E+00
2.200000E+03	3.590256E-17	0.000000E+00
2.240000E+03	3.698723E-17	0.000000E+00
2.280000E+03	3.814656E-17	0.000000E+00
2.320000E+03	3.940229E-17	0.000000E+00
2.360000E+03	4.074063E-17	0.000000E+00
2.400000E+03	4.218395E-17	0.000000E+00
2.440000E+03	4.373672E-17	0.000000E+00
2.480000E+03	4.539653E-17	0.000000E+00
2.520000E+03	4.717342E-17	0.000000E+00
2.560000E+03	4.907053E-17	0.000000E+00
2.600000E+03	5.109728E-17	0.000000E+00
2.640000E+03	5.326271E-17	0.000000E+00
2.680000E+03	5.555286E-17	0.000000E+00
2.720000E+03	5.798898E-17	0.000000E+00
2.760000E+03	6.056908E-17	0.000000E+00
2.800000E+03	6.328891E-17	0.000000E+00
2.840000E+03	6.614161E-17	0.000000E+00
2.880000E+03	6.913429E-17	0.000000E+00
2.920000E+03	7.224659E-17	0.000000E+00
2.960000E+03	7.548044E-17	0.000000E+00
3.000000E+03	7.881789E-17	0.000000E+00
3.010000E+03	7.966940E-17	0.000000E+00
3.020000E+03	8.051893E-17	0.000000E+00
3.030000E+03	8.138425E-17	0.000000E+00
3.040000E+03	8.224681E-17	0.000000E+00
3.050000E+03	8.311532E-17	0.000000E+00
3.060000E+03	8.398939E-17	0.000000E+00
3.070000E+03	8.486866E-17	0.000000E+00
3.080000E+03	8.574341E-17	0.000000E+00
3.090000E+03	8.663180E-17	0.000000E+00
3.100000E+03	8.752415E-17	0.000000E+00
3.110000E+03	8.841066E-17	0.000000E+00
3.120000E+03	8.930022E-17	0.000000E+00
3.130000E+03	9.020186E-17	0.000000E+00
3.140000E+03	9.109628E-17	0.000000E+00
3.150000E+03	9.199245E-17	0.000000E+00
3.160000E+03	9.289947E-17	0.000000E+00
3.170000E+03	9.379786E-17	0.000000E+00
3.180000E+03	9.469670E-17	0.000000E+00
3.190000E+03	9.559554E-17	0.000000E+00
3.200000E+03	9.650358E-17	0.000000E+00
3.210000E+03	9.740116E-17	0.000000E+00
3.220000E+03	9.830714E-17	0.000000E+00
3.230000E+03	9.920178E-17	0.000000E+00
3.240000E+03	1.001040E-16	0.000000E+00
3.250000E+03	1.010038E-16	0.000000E+00
3.260000E+03	1.019007E-16	0.000000E+00
3.270000E+03	1.027944E-16	0.000000E+00
3.280000E+03	1.036846E-16	0.000000E+00
3.290000E+03	1.045708E-16	0.000000E+00
3.300000E+03	1.054625E-16	0.000000E+00
3.310000E+03	1.063497E-16	0.000000E+00
3.320000E+03	1.072320E-16	0.000000E+00
3.330000E+03	1.081093E-16	0.000000E+00
3.340000E+03	1.089910E-16	0.000000E+00
3.350000E+03	1.098573E-16	0.000000E+00
3.360000E+03	1.107276E-16	0.000000E+00
3.370000E+03	1.116018E-16	0.000000E+00
3.380000E+03	1.124600E-16	0.000000E+00
3.390000E+03	1.133219E-16	0.000000E+00
3.400000E+03	1.141772E-16	0.000000E+00
3.410000E+03	1.150361E-16	0.000000E+00
3.420000E+03	1.158884E-16	0.000000E+00
3.430000E+03	1.167343E-16	0.000000E+00
3.440000E+03	1.175834E-16	0.000000E+00
3.450000E+03	1.184262E-16	0.000000E+00
3.460000E+03	1.192624E-16	0.000000E+00
3.470000E+03	1.201021E-16	0.000000E+00
3.480000E+03	1.209357E-16	0.000000E+00
3.490000E+03	1.217729E-16	0.000000E+00
3.500000E+03	1.226043E-16	0.000000E+00
3.510000E+03	1.234396E-16	0.000000E+00
3.520000E+03	1.242696E-16	0.000000E+00
3.530000E+03	1.251040E-16	0.000000E+00
3.540000E+03	1.259334E-16	0.000000E+00
3.550000E+03	1.267679E-16	0.000000E+00
3.560000E+03	1.276076E-16	0.000000E+00
3.570000E+03	1.284339E-16	0.000000E+00
3.580000E+03	1.292757E-16	0.000000E+00
3.590000E+03	1.301143E-16	0.000000E+00
3.600000E+03	1.309502E-16	0.000000E+00
3.610000E+03	1.318028E-16	0.000000E+00
3.620000E+03	1.326440E-16	0.000000E+00
3.630000E+03	1.335027E-16	0.000000E+00
3.640000E+03	1.343604E-16	0.000000E+00
3.650000E+03	1.352177E-16	0.000000E+00
3.660000E+03	1.360939E-16	0.000000E+00
3.670000E+03	1.369706E-16	0.000000E+00
3.680000E+03	1.378485E-16	0.000000E+00
3.690000E+03	1.387373E-16	0.000000E+00
3.700000E+03	1.396377E-16	0.000000E+00
3.710000E+03	1.405500E-16	0.000000E+00
3.720000E+03	1.414655E-16	0.000000E+00
3.730000E+03	1.423941E-16	0.000000E+00
3.740000E+03	1.433273E-16	0.000000E+00
3.750000E+03	1.442745E-16	0.000000E+00
3.760000E+03	1.452362E-16	0.000000E+00
3.770000E+03	1.462130E-16	0.000000E+00
3.780000E+03	1.471965E-16	0.000000E+00
3.790000E+03	1.481962E-16	0.000000E+00
3.800000E+03	1.492034E-16	0.000000E+00
3.810000E+03	1.502366E-16	0.000000E+00
3.820000E+03	1.512698E-16	0.000000E+00
3.830000E+03	1.523297E-16	0.000000E+00
3.840000E+03	1.533993E-16	0.000000E+00
3.850000E+03	1.544878E-16	0.000000E+00
3.860000E+03	1.555867E-16	0.000000E+00
3.870000E+03	1.567054E-16	0.000000E+00
3.880000E+03	1.578442E-16	0.000000E+00
3.890000E+03	1.589946E-16	0.000000E+00
3.900000E+03	1.601658E-16	0.000000E+00
3.910000E+03	1.613493E-16	0.000000E+00
3.920000E+03	1.625543E-16	0.000000E+00
3.930000E+03	1.637808E-16	0.000000E+00
3.940000E+03	1.650206E-16	0.000000E+00
3.950000E+03	1.662738E-16	0.000000E+00
3.960000E+03	1.675494E-16	0.000000E+00
3.970000E+03	1.688389E-16	0.000000E+00
3.980000E+03	1.701510E-16	0.000000E+00
3.990000E+03	1.714773E-16	0.000000E+00
4.000000E+03	1.728266E-16	0.000000E+00
4.010000E+03	1.741903E-16	0.000000E+00
4.020000E+03	1.755686E-16	0.000000E+00
4.030000E+03	1.769614E-16	0.000000E+00
4.040000E+03	1.783774E-16	0.000000E+00
4.050000E+03	1.798082E-16	0.000000E+00
4.060000E+03	1.812536E-16	0.000000E+00
4.070000E+03	1.827138E-16	0.000000E+00
4.080000E+03	1.841971E-16	0.000000E+00
4.090000E+03	1.856867E-16	0.000000E+00
4.100000E+03	1.871909E-16	0.000000E+00
4.110000E+03	1.887181E-16	0.000000E+00
4.120000E+03	1.902515E-16	0.000000E+00
4.130000E+03	1.917993E-16	0.000000E+00
4.140000E+03	1.933615E-16	0.000000E+00
4.150000E+03	1.949381E-16	0.000000E+00
4.160000E+03	1.965289E-16	0.000000E+00
4.170000E+03	1.981256E-16	0.000000E+00
4.180000E+03	1.997362E-16	0.000000E+00
4.190000E+03	2.013609E-16	0.000000E+00
4.200000E+03	2.029910E-16	0.000000E+00
4.210000E+03	2.046268E-16	0.000000E+00
4.220000E+03	2.062763E-16	0.000000E+00
4.230000E+03	2.079394E-16	0.000000E+00
4.240000E+03	2.096079E-16	0.000000E+00
4.250000E+03	2.112732E-16	0.000000E+00
4.260000E+03	2.129604E-16	0.000000E+00
4.270000E+03	2.146444E-16	0.000000E+00
4.280000E+03	2.163334E-16	0.000000E+00
4.290000E+03	2.180359E-16	0.000000E+00
4.300000E+03	2.197350E-16	0.000000E+00
4.310000E+03	2.214393E-16	0.000000E+00
4.320000E+03	2.231568E-16	0.000000E+00
4.330000E+03	2.248711E-16	0.000000E+00
4.340000E+03	2.265821E-16	0.000000E+00
4.350000E+03	2.282982E-16	0.000000E+00
4.360000E+03	2.300195E-16	0.000000E+00
4.370000E+03	2.317460E-16	0.000000E+00
4.380000E+03	2.334694E-16	0.000000E+00
4.390000E+03	2.351899E-16	0.000000E+00
4.400000E+03	2.369161E-16	0.000000E+00
4.410000E+03	2.386396E-16	0.000000E+00
4.420000E+03	2.403606E-16	0.000000E+00
4.430000E+03	2.420794E-16	0.000000E+00
4.440000E+03	2.438045E-16	0.000000E+00
4.450000E+03	2.455195E-16	0.000000E+00
4.460000E+03	2.472413E-16	0.000000E+00
4.470000E+03	2.489537E-16	0.000000E+00
4.480000E+03	2.506652E-16	0.000000E+00
4.490000E+03	2.523847E-16	0.000000E+00
4.500000E+03	2.540959E-16	0.000000E+00
4.510000E+03	2.557992E-16	0.000000E+00
4.520000E+03	2.575120E-16	0.000000E+00
4.530000E+03	2.592181E-16	0.000000E+00
4.540000E+03	2.609181E-16	0.000000E+00
4.550000E+03	2.626209E-16	0.000000E+00
4.560000E+03	2.643273E-16	0.000000E+00
4.570000E+03	2.660298E-16	0.000000E+00
4.580000E+03	2.677289E-16	0.000000E+00
4.590000E+03	2.694341E-16	0.000000E+00
4.600000E+03	2.711377E-16	0.000000E+00
4.610000E+03	2.728491E-16	0.000000E+00
4.620000E+03	2.745524E-16	0.000000E+00
4.630000E+03	2.762653E-16	0.000000E+00
4.640000E+03	2.779806E-16	0.000000E+00
4.650000E+03	2.796992E-16	0.000000E+00
4.660000E+03	2.814306E-16	0.000000E+00
4.670000E+03	2.831588E-16	0.000000E+00
4.680000E+03	2.848936E-16	0.000000E+00
4.690000E+03	2.866444E-16	0.000000E+00
4.700000E+03	2.883952E-16	0.000000E+00
4.710000E+03	2.901641E-16	0.000000E+00
4.720000E+03	2.919436E-16	0.000000E+00
4.730000E+03	2.937263E-16	0.000000E+00
4.740000E+03	2.955214E-16	0.000000E+00
4.750000E+03	2.973386E-16	0.000000E+00
4.760000E+03	2.991616E-16	0.000000E+00
4.770000E+03	3.009996E-16	0.000000E+00
4.780000E+03	3.028534E-16	0.000000E+00
4.790000E+03	3.047237E-16	0.000000E+00
4.800000E+03	3.066110E-16	0.000000E+00
4.810000E+03	3.085159E-16	0.000000E+00
4.820000E+03	3.104299E-16	0.000000E+00
4.830000E+03	3.123707E-16	0.000000E+00
4.840000E+03	3.143211E-16	0.000000E+00
4.850000E+03	3.162898E-16	0.000000E+00
4.860000E+03	3.182766E-16	0.000000E+00
4.870000E+03	3.202813E-16	0.000000E+00
4.880000E+03	3.223038E-16	0.000000E+00
4.890000E+03	3.243433E-16	0.000000E+00
4.900000E+03	3.263904E-16	0.000000E+00
4.910000E+03	3.284619E-16	0.000000E+00
4.920000E+03	3.305395E-16	0.000000E+00
4.930000E+03	3.326305E-16	0.000000E+00
4.940000E+03	3.347429E-16	0.000000E+00
4.950000E+03	3.368572E-16	0.000000E+00
4.960000E+03	3.389810E-16	0.000000E+00
4.970000E+03	3.411125E-16	0.000000E+00
4.980000E+03	3.432499E-16	0.000000E+00
4.990000E+03	3.453912E-16	0.000000E+00
5.000000E+03	3.475250E-16	0.000000E+00
5.010000E+03	3.496674E-16	0.000000E+00
5.020000E+03	3.518068E-16	0.000000E+00
5.030000E+03	3.539407E-16	0.000000E+00
5.040000E+03	3.560664E-16	0.000000E+00
5.050000E+03	3.581812E-16	0.000000E+00
5.060000E+03	3.602821E-16	0.000000E+00
5.070000E+03	3.623568E-16	0.000000E+00
5.080000E+03	3.644208E-16	0.000000E+00
5.090000E+03	3.664713E-16	0.000000E+00
5.100000E+03	3.684861E-16	0.000000E+00
5.110000E+03	3.704710E-16	0.000000E+00
5.120000E+03	3.724327E-16	0.000000E+00
5.130000E+03	3.743485E-16	0.000000E+00
5.140000E+03	3.762342E-16	0.000000E+00
5.150000E+03	3.780768E-16	0.000000E+00
5.160000E+03	3.798729E-16	0.000000E+00
5.170000E+03	3.816193E-16	0.000000E+00
5.180000E+03	3.833124E-16	0.000000E+00
5.190000E+03	3.849589E-16	0.000000E+00
5.200000E+03	3.865358E-16	0.000000E+00
5.210000E+03	3.880596E-16	0.000000E+00
5.220000E+03	3.895174E-16	0.000000E+00
5.230000E+03	3.909161E-16	0.000000E+00
5.240000E+03	3.922428E-16	0.000000E+00
5.250000E+03	3.934850E-16	0.000000E+00
5.260000E+03	3.946694E-16	0.000000E+00
5.270000E+03	3.957638E-16	0.000000E+00
5.280000E+03	3.967854E-16	0.000000E+00
5.290000E+03	3.977220E-16	0.000000E+00
5.300000E+03	3.985709E-16	0.000000E+00
5.310000E+03	3.993402E-16	0.000000E+00
5.320000E+03	4.000175E-16	0.000000E+00
5.330000E+03	4.006109E-16	0.000000E+00
5.340000E+03	4.010979E-16	0.000000E+00
5.350000E+03	4.014966E-16	0.000000E+00
5.360000E+03	4.018051E-16	0.000000E+00
5.370000E+03	4.020110E-16	0.000000E+00
5.380000E+03	4.021122E-16	0.000000E+00
5.390000E+03	4.021167E-16	0.000000E+00
5.400000E+03	4.020120E-16	0.000000E+00
5.410000E+03	4.017959E-16	0.000000E+00
5.420000E+03	4.014756E-16	0.000000E+00
5.430000E+03	4.010488E-16	0.000000E+00
5.440000E+03	4.005031E-16	0.000000E+00
5.450000E+03	3.998357E-16	0.000000E+00
5.460000E+03	3.990543E-16	0.000000E+00
5.470000E+03	3.981471E-16	0.000000E+00
5.480000E+03	3.971228E-16	0.000000E+00
5.490000E+03	3.959817E-16	0.000000E+00
5.500000E+03	3.947164E-16	0.000000E+00
5.510000E+03	3.933419E-16	0.000000E+00
5.520000E+03	3.918552E-16	0.000000E+00
5.530000E+03	3.902740E-16	0.000000E+00
5.540000E+03	3.885974E-16	0.000000E+00
5.550000E+03	3.868433E-16	0.000000E+00
5.560000E+03	3.850199E-16	0.000000E+00
5.570000E+03	3.831257E-16	0.000000E+00
5.580000E+03	3.811871E-16	0.000000E+00
5.590000E+03	3.791829E-16	0.000000E+00
5.600000E+03	3.771478E-16	0.000000E+00
5.610000E+03	3.750689E-16	0.000000E+00
5.620000E+03	3.729613E-16	0.000000E+00
5.630000E+03	3.708299E-16	0.000000E+00
5.640000E+03	3.686790E-16	0.000000E+00
5.650000E+03	3.665038E-16	0.000000E+00
5.660000E+03	3.643259E-16	0.000000E+00
5.670000E+03	3.621306E-16	0.000000E+00
5.680000E+03	3.599296E-16	0.000000E+00
5.690000E+03	3.577255E-16	0.000000E+00
5.700000E+03	3.555205E-16	0.000000E+00
5.710000E+03	3.533161E-16	0.000000E+00
5.720000E+03	3.511056E-16	0.000000E+00
5.730000E+03	3.489075E-16	0.000000E+00
5.740000E+03	3.467143E-16	0.000000E+00
5.750000E+03	3.445268E-16	0.000000E+00
5.760000E+03	3.423372E-16	0.000000E+00
5.770000E+03	3.401633E-16	0.000000E+00
5.780000E+03	3.379970E-16	0.000000E+00
5.790000E+03	3.358386E-16	0.000000E+00
5.800000E+03	3.336882E-16	0.000000E+00
5.810000E+03	3.315464E-16	0.000000E+00
5.820000E+03	3.294212E-16	0.000000E+00
5.830000E+03	3.272965E-16	0.000000E+00
5.840000E+03	3.251886E-16	0.000000E+00
5.850000E+03	3.230897E-16	0.000000E+00
5.860000E+03	3.209997E-16	0.000000E+00
5.870000E+03	3.189189E-16	0.000000E+00
5.880000E+03	3.168475E-16	0.000000E+00
5.890000E+03	3.147934E-16	0.000000E+00
5.900000E+03	3.127492E-16	0.000000E+00
5.910000E+03	3.107151E-16	0.000000E+00
5.920000E+03	3.086994E-16	0.000000E+00
5.930000E+03	3.066946E-16	0.000000E+00
5.940000E+03	3.047014E-16	0.000000E+00
5.950000E+03	3.027203E-16	0.000000E+00
5.960000E+03	3.007596E-16	0.000000E+00
5.970000E+03	2.988123E-16	0.000000E+00
5.980000E+03	2.968867E-16	0.000000E+00
5.990000E+03	2.949760E-16	0.000000E+00
6.000000E+03	2.930811E-16	0.000000E+00
6.010000E+03	2.912030E-16	0.000000E+00
6.020000E+03	2.893496E-16	0.000000E+00
6.030000E+03	2.875217E-16	0.000000E+00
6.040000E+03	2.857131E-16	0.000000E+00
6.050000E+03	2.839245E-16	0.000000E+00
6.060000E+03	2.821639E-16	0.000000E+00
6.070000E+03	2.804251E-16	0.000000E+00
6.080000E+03	2.787156E-16	0.000000E+00
6.090000E+03	2.770291E-16	0.000000E+00
6.100000E+03	2.753733E-16	0.000000E+00
6.110000E+03	2.737416E-16	0.000000E+00
6.120000E+03	2.721345E-16	0.000000E+00
6.130000E+03	2.705662E-16	0.000000E+00
6.140000E+03	2.690161E-16	0.000000E+00
6.150000E+03	2.674982E-16	0.000000E+00
6.160000E+03	2.660124E-16	0.000000E+00
6.170000E+03	2.645519E-16	0.000000E+00
6.180000E+03	2.631231E-16	0.000000E+00
6.190000E+03	2.617257E-16	0.000000E+00
6.200000E+03	2.603458E-16	0.000000E+00
6.210000E+03	2.590029E-16	0.000000E+00
6.220000E+03	2.576829E-16	0.000000E+00
6.230000E+03	2.563918E-16	0.000000E+00
6.240000E+03	2.551218E-16	0.000000E+00
6.250000E+03	2.538787E-16	0.000000E+00
6.260000E+03	2.526611E-16	0.000000E+00
6.270000E+03	2.514613E-16	0.000000E+00
6.280000E+03	2.502847E-16	0.000000E+00
6.290000E+03	2.491296E-16	0.000000E+00
6.300000E+03	2.479882E-16	0.000000E+00
6.310000E+03	2.468654E-16	0.000000E+00
6.320000E+03	2.457596E-16	0.000000E+00
6.330000E+03	2.446628E-16	0.000000E+00
6.340000E+03	2.435796E-16	0.000000E+00
6.350000E+03	2.425084E-16	0.000000E+00
6.360000E+03	2.414476E-16	0.000000E+00
6.370000E+03	2.403891E-16	0.000000E+00
6.380000E+03	2.393436E-16	0.000000E+00
6.390000E+03	2.382971E-16	0.000000E+00
6.400000E+03	2.372542E-16	0.000000E+00
6.410000E+03	2.362071E-16	0.000000E+00
6.420000E+03	2.351665E-16	0.000000E+00
6.430000E+03	2.341186E-16	0.000000E+00
6.440000E+03	2.330743E-16	0.000000E+00
6.450000E+03	2.320200E-16	0.000000E+00
6.460000E+03	2.309602E-16	0.000000E+00
6.470000E+03	2.298941E-16	0.000000E+00
6.480000E+03	2.288203E-16	0.000000E+00
6.490000E+03	2.277380E-16	0.000000E+00
6.500000E+03	2.266459E-16	0.000000E+00
6.510000E+03	2.255434E-16	0.000000E+00
6.520000E+03	2.244295E-16	0.000000E+00
6.530000E+03	2.233036E-16	0.000000E+00
6.540000E+03	2.221653E-16	0.000000E+00
6.550000E+03	2.210198E-16	0.000000E+00
6.560000E+03	2.198550E-16	0.000000E+00
6.570000E+03	2.186764E-16	0.000000E+00
6.580000E+03	2.174896E-16	0.000000E+00
6.590000E+03	2.162829E-16	0.000000E+00
6.600000E+03	2.150678E-16	0.000000E+00
6.610000E+03	2.138386E-16	0.000000E+00
6.620000E+03	2.125951E-16	0.000000E+00
6.630000E+03	2.113378E-16	0.000000E+00
6.640000E+03	2.100723E-16	0.000000E+00
6.650000E+03	2.087876E-16	0.000000E+00
6.660000E+03	2.074954E-16	0.000000E+00
6.670000E+03	2.061959E-16	0.000000E+00
6.680000E+03	2.048782E-16	0.000000E+00
6.690000E+03	2.035541E-16	0.000000E+00
6.700000E+03	2.022182E-16	0.000000E+00
6.710000E+03	2.008711E-16	0.000000E+00
6.720000E+03	1.995188E-16	0.000000E+00
6.730000E+03	1.981563E-16	0.000000E+00
6.740000E+03	1.967894E-16	0.000000E+00
6.750000E+03	1.954079E-16	0.000000E+00
6.760000E+03	1.940231E-16	0.000000E+00
6.770000E+03	1.926353E-16	0.000000E+00
6.780000E+03	1.912398E-16	0.000000E+00
6.790000E+03	1.898371E-16	0.000000E+00
6.800000E+03	1.884328E-16	0.000000E+00
6.810000E+03	1.870224E-16	0.000000E+00
6.820000E+03	1.856060E-16	0.000000E+00
6.830000E+03	1.841896E-16	0.000000E+00
6.840000E+03	1.827733E-16	0.000000E+00
6.850000E+03	1.813476E-16	0.000000E+00
6.860000E+03	1.799278E-16	0.000000E+00
6.870000E+03	1.784994E-16	0.000000E+00
6.880000E+03	1.770728E-16	0.000000E+00
6.890000E+03	1.756482E-16	0.000000E+00
6.900000E+03	1.742212E-16	0.000000E+00
6.910000E+03	1.727922E-16	0.000000E+00
6.920000E+03	1.713662E-16	0.000000E+00
6.930000E+03	1.699390E-16	0.000000E+00
6.940000E+03	1.685155E-16	0.000000E+00
6.950000E+03	1.670913E-16	0.000000E+00
6.960000E+03	1.656670E-16	0.000000E+00
6.970000E+03	1.642474E-16	0.000000E+00
6.980000E+03	1.628330E-16	0.000000E+00
6.990000E+03	1.614193E-16	0.000000E+00
7.000000E+03	1.600068E-16	0.000000E+00
7.010000E+03	1.585959E-16	0.000000E+00
7.020000E+03	1.571915E-16	0.000000E+00
7.030000E+03	1.557897E-16	0.000000E+00
7.040000E+03	1.543951E-16	0.000000E+00
7.050000E+03	1.530038E-16	0.000000E+00
7.060000E+03	1.516162E-16	0.000000E+00
7.070000E+03	1.502372E-16	0.000000E+00
7.080000E+03	1.488629E-16	0.000000E+00
7.090000E+03	1.474940E-16	0.000000E+00
7.100000E+03	1.461349E-16	0.000000E+00
7.110000E+03	1.447823E-16	0.000000E+00
7.120000E+03	1.434364E-16	0.000000E+00
7.130000E+03	1.420981E-16	0.000000E+00
7.140000E+03	1.407678E-16	0.000000E+00
7.150000E+03	1.394503E-16	0.000000E+00
7.160000E+03	1.381420E-16	0.000000E+00
7.170000E+03	1.368435E-16	0.000000E+00
7.180000E+03	1.355557E-16	0.000000E+00
7.190000E+03	1.342831E-16	0.000000E+00
7.200000E+03	1.330183E-16	0.000000E+00
7.210000E+03	1.317700E-16	0.000000E+00
7.220000E+03	1.305310E-16	0.000000E+00
7.230000E+03	1.293097E-16	0.000000E+00
7.240000E+03	1.281027E-16	0.000000E+00
7.250000E+03	1.269110E-16	0.000000E+00
7.260000E+03	1.257313E-16	0.000000E+00
7.270000E+03	1.245717E-16	0.000000E+00
7.280000E+03	1.234291E-16	0.000000E+00
7.290000E+03	1.223004E-16	0.000000E+00
7.300000E+03	1.211935E-16	0.000000E+00
7.310000E+03	1.201018E-16	0.000000E+00
7.320000E+03	1.190328E-16	0.000000E+00
7.330000E+03	1.179801E-16	0.000000E+00
7.340000E+03	1.169474E-16	0.000000E+00
7.350000E+03	1.159355E-16	0.000000E+00
7.360000E+03	1.149410E-16	0.000000E+00
7.370000E+03	1.139714E-16	0.000000E+00
7.380000E+03	1.130200E-16	0.000000E+00
7.390000E+03	1.120907E-16	0.000000E+00
7.400000E+03	1.111835E-16	0.000000E+00
7.410000E+03	1.102954E-16	0.000000E+00
7.420000E+03	1.094298E-16	0.000000E+00
7.430000E+03	1.085870E-16	0.000000E+00
7.440000E+03	1.077636E-16	0.000000E+00
7.450000E+03	1.069631E-16	0.000000E+00
7.460000E+03	1.061852E-16	0.000000E+00
7.470000E+03	1.054269E-16	0.000000E+00
7.480000E+03	1.046912E-16	0.000000E+00
7.490000E+03	1.039748E-16	0.000000E+00
7.500000E+03	1.032807E-16	0.000000E+00
7.510000E+03	1.026086E-16	0.000000E+00
7.520000E+03	1.019552E-16	0.000000E+00
7.530000E+03	1.013204E-16	0.000000E+00
7.540000E+03	1.007068E-16	0.000000E+00
7.550000E+03	1.001140E-16	0.000000E+00
7.560000E+03	9.953872E-17	0.000000E+00
7.570000E+03	9.898055E-17	0.000000E+00
7.580000E+03	9.844208E-17	0.000000E+00
7.590000E+03	9.792286E-17	0.000000E+00
7.600000E+03	9.741653E-17	0.000000E+00
7.610000E+03	9.693149E-17	0.000000E+00
7.620000E+03	9.645844E-17	0.000000E+00
7.630000E+03	9.600280E-17	0.000000E+00
7.640000E+03	9.556118E-17	0.000000E+00
7.650000E+03	9.513598E-17	0.000000E+00
7.660000E+03	9.472384E-17	0.000000E+00
7.670000E+03	9.432432E-17	0.000000E+00
7.680000E+03	9.393982E-17	0.000000E+00
7.690000E+03	9.356701E-17	0.000000E+00
7.700000E+03	9.320549E-17	0.000000E+00
7.710000E+03	9.285768E-17	0.000000E+00
7.720000E+03	9.252035E-17	0.000000E+00
7.730000E+03	9.219310E-17	0.000000E+00
7.740000E+03	9.187844E-17	0.000000E+00
7.750000E+03	9.157037E-17	0.000000E+00
7.760000E+03	9.127707E-17	0.000000E+00
