#wls	flux	fluxerr
1.600000E+03	6.502543E-18	0.000000E+00
1.640000E+03	6.534756E-18	0.000000E+00
1.680000E+03	6.567072E-18	0.000000E+00
1.720000E+03	6.601845E-18	0.000000E+00
1.760000E+03	6.637962E-18	0.000000E+00
1.800000E+03	6.676632E-18	0.000000E+00
1.840000E+03	6.716731E-18	0.000000E+00
1.880000E+03	6.758291E-18	0.000000E+00
1.920000E+03	6.801344E-18	0.000000E+00
1.960000E+03	6.847120E-18	0.000000E+00
2.000000E+03	6.894456E-18	0.000000E+00
2.040000E+03	6.943376E-18	0.000000E+00
2.080000E+03	6.993900E-18	0.000000E+00
2.120000E+03	7.047267E-18	0.000000E+00
2.160000E+03	7.103507E-18	0.000000E+00
2.200000E+03	7.160171E-18	0.000000E+00
2.240000E+03	7.219730E-18	0.000000E+00
2.280000E+03	7.282205E-18	0.000000E+00
2.320000E+03	7.345078E-18	0.000000E+00
2.360000E+03	7.410858E-18	0.000000E+00
2.400000E+03	7.479550E-18	0.000000E+00
2.440000E+03	7.549863E-18	0.000000E+00
2.480000E+03	7.621770E-18	0.000000E+00
2.520000E+03	7.695238E-18	0.000000E+00
2.560000E+03	7.771549E-18	0.000000E+00
2.600000E+03	7.850702E-18	0.000000E+00
2.640000E+03	7.930005E-18	0.000000E+00
2.680000E+03	8.012098E-18	0.000000E+00
2.720000E+03	8.096983E-18	0.000000E+00
2.760000E+03	8.183294E-18	0.000000E+00
2.800000E+03	8.271022E-18	0.000000E+00
2.840000E+03	8.361561E-18	0.000000E+00
2.880000E+03	8.453552E-18	0.000000E+00
2.920000E+03	8.547033E-18	0.000000E+00
2.960000E+03	8.643495E-18	0.000000E+00
3.000000E+03	8.741620E-18	0.000000E+00
3.010000E+03	8.765702E-18	0.000000E+00
3.020000E+03	8.791342E-18	0.000000E+00
3.030000E+03	8.817101E-18	0.000000E+00
3.040000E+03	8.841528E-18	0.000000E+00
3.050000E+03	8.867531E-18	0.000000E+00
3.060000E+03	8.893659E-18	0.000000E+00
3.070000E+03	8.918455E-18	0.000000E+00
3.080000E+03	8.944846E-18	0.000000E+00
3.090000E+03	8.971373E-18	0.000000E+00
3.100000E+03	8.996569E-18	0.000000E+00
3.110000E+03	9.023378E-18	0.000000E+00
3.120000E+03	9.050334E-18	0.000000E+00
3.130000E+03	9.077444E-18	0.000000E+00
3.140000E+03	9.104712E-18	0.000000E+00
3.150000E+03	9.132140E-18	0.000000E+00
3.160000E+03	9.159735E-18	0.000000E+00
3.170000E+03	9.186005E-18	0.000000E+00
3.180000E+03	9.213945E-18	0.000000E+00
3.190000E+03	9.242066E-18	0.000000E+00
3.200000E+03	9.270376E-18	0.000000E+00
3.210000E+03	9.298879E-18	0.000000E+00
3.220000E+03	9.327582E-18	0.000000E+00
3.230000E+03	9.356493E-18	0.000000E+00
3.240000E+03	9.385615E-18	0.000000E+00
3.250000E+03	9.414958E-18	0.000000E+00
3.260000E+03	9.444529E-18	0.000000E+00
3.270000E+03	9.475864E-18	0.000000E+00
3.280000E+03	9.505916E-18	0.000000E+00
3.290000E+03	9.536217E-18	0.000000E+00
3.300000E+03	9.566778E-18	0.000000E+00
3.310000E+03	9.597607E-18	0.000000E+00
3.320000E+03	9.628712E-18	0.000000E+00
3.330000E+03	9.660102E-18	0.000000E+00
3.340000E+03	9.693344E-18	0.000000E+00
3.350000E+03	9.725339E-18	0.000000E+00
3.360000E+03	9.757649E-18	0.000000E+00
3.370000E+03	9.790285E-18	0.000000E+00
3.380000E+03	9.824828E-18	0.000000E+00
3.390000E+03	9.858149E-18	0.000000E+00
3.400000E+03	9.891832E-18	0.000000E+00
3.410000E+03	9.927467E-18	0.000000E+00
3.420000E+03	9.961907E-18	0.000000E+00
3.430000E+03	9.996741E-18	0.000000E+00
3.440000E+03	1.003358E-17	0.000000E+00
3.450000E+03	1.006925E-17	0.000000E+00
3.460000E+03	1.010535E-17	0.000000E+00
3.470000E+03	1.014351E-17	0.000000E+00
3.480000E+03	1.018053E-17	0.000000E+00
3.490000E+03	1.021964E-17	0.000000E+00
3.500000E+03	1.025764E-17	0.000000E+00
3.510000E+03	1.029777E-17	0.000000E+00
3.520000E+03	1.033680E-17	0.000000E+00
3.530000E+03	1.037637E-17	0.000000E+00
3.540000E+03	1.041814E-17	0.000000E+00
3.550000E+03	1.045885E-17	0.000000E+00
3.560000E+03	1.050180E-17	0.000000E+00
3.570000E+03	1.054372E-17	0.000000E+00
3.580000E+03	1.058793E-17	0.000000E+00
3.590000E+03	1.063112E-17	0.000000E+00
3.600000E+03	1.067667E-17	0.000000E+00
3.610000E+03	1.072291E-17	0.000000E+00
3.620000E+03	1.076818E-17	0.000000E+00
3.630000E+03	1.081587E-17	0.000000E+00
3.640000E+03	1.086263E-17	0.000000E+00
3.650000E+03	1.091187E-17	0.000000E+00
3.660000E+03	1.096020E-17	0.000000E+00
3.670000E+03	1.101107E-17	0.000000E+00
3.680000E+03	1.106280E-17	0.000000E+00
3.690000E+03	1.111368E-17	0.000000E+00
3.700000E+03	1.116718E-17	0.000000E+00
3.710000E+03	1.121987E-17	0.000000E+00
3.720000E+03	1.127526E-17	0.000000E+00
3.730000E+03	1.133164E-17	0.000000E+00
3.740000E+03	1.138726E-17	0.000000E+00
3.750000E+03	1.144568E-17	0.000000E+00
3.760000E+03	1.150518E-17	0.000000E+00
3.770000E+03	1.156399E-17	0.000000E+00
3.780000E+03	1.162571E-17	0.000000E+00
3.790000E+03	1.168679E-17	0.000000E+00
3.800000E+03	1.175087E-17	0.000000E+00
3.810000E+03	1.181618E-17	0.000000E+00
3.820000E+03	1.188092E-17	0.000000E+00
3.830000E+03	1.194878E-17	0.000000E+00
3.840000E+03	1.201799E-17	0.000000E+00
3.850000E+03	1.208670E-17	0.000000E+00
3.860000E+03	1.215868E-17	0.000000E+00
3.870000E+03	1.223211E-17	0.000000E+00
3.880000E+03	1.230514E-17	0.000000E+00
3.890000E+03	1.238158E-17	0.000000E+00
3.900000E+03	1.245769E-17	0.000000E+00
3.910000E+03	1.253731E-17	0.000000E+00
3.920000E+03	1.261859E-17	0.000000E+00
3.930000E+03	1.269964E-17	0.000000E+00
3.940000E+03	1.278438E-17	0.000000E+00
3.950000E+03	1.287091E-17	0.000000E+00
3.960000E+03	1.295733E-17	0.000000E+00
3.970000E+03	1.304761E-17	0.000000E+00
3.980000E+03	1.313786E-17	0.000000E+00
3.990000E+03	1.323210E-17	0.000000E+00
4.000000E+03	1.332840E-17	0.000000E+00
4.010000E+03	1.342479E-17	0.000000E+00
4.020000E+03	1.352539E-17	0.000000E+00
4.030000E+03	1.362616E-17	0.000000E+00
4.040000E+03	1.373130E-17	0.000000E+00
4.050000E+03	1.383880E-17	0.000000E+00
4.060000E+03	1.394662E-17	0.000000E+00
4.070000E+03	1.405904E-17	0.000000E+00
4.080000E+03	1.417190E-17	0.000000E+00
4.090000E+03	1.428952E-17	0.000000E+00
4.100000E+03	1.440769E-17	0.000000E+00
4.110000E+03	1.453081E-17	0.000000E+00
4.120000E+03	1.465460E-17	0.000000E+00
4.130000E+03	1.478353E-17	0.000000E+00
4.140000E+03	1.491326E-17	0.000000E+00
4.150000E+03	1.504832E-17	0.000000E+00
4.160000E+03	1.518432E-17	0.000000E+00
4.170000E+03	1.532588E-17	0.000000E+00
4.180000E+03	1.546852E-17	0.000000E+00
4.190000E+03	1.561461E-17	0.000000E+00
4.200000E+03	1.576661E-17	0.000000E+00
4.210000E+03	1.591994E-17	0.000000E+00
4.220000E+03	1.607701E-17	0.000000E+00
4.230000E+03	1.624035E-17	0.000000E+00
4.240000E+03	1.640530E-17	0.000000E+00
4.250000E+03	1.657678E-17	0.000000E+00
4.260000E+03	1.675003E-17	0.000000E+00
4.270000E+03	1.692762E-17	0.000000E+00
4.280000E+03	1.710967E-17	0.000000E+00
4.290000E+03	1.729885E-17	0.000000E+00
4.300000E+03	1.749022E-17	0.000000E+00
4.310000E+03	1.768644E-17	0.000000E+00
4.320000E+03	1.788767E-17	0.000000E+00
4.330000E+03	1.809403E-17	0.000000E+00
4.340000E+03	1.830839E-17	0.000000E+00
4.350000E+03	1.852553E-17	0.000000E+00
4.360000E+03	1.874827E-17	0.000000E+00
4.370000E+03	1.897679E-17	0.000000E+00
4.380000E+03	1.921124E-17	0.000000E+00
4.390000E+03	1.945183E-17	0.000000E+00
4.400000E+03	1.969870E-17	0.000000E+00
4.410000E+03	1.995205E-17	0.000000E+00
4.420000E+03	2.021209E-17	0.000000E+00
4.430000E+03	2.047898E-17	0.000000E+00
4.440000E+03	2.075297E-17	0.000000E+00
4.450000E+03	2.103422E-17	0.000000E+00
4.460000E+03	2.132297E-17	0.000000E+00
4.470000E+03	2.161945E-17	0.000000E+00
4.480000E+03	2.192387E-17	0.000000E+00
4.490000E+03	2.223646E-17	0.000000E+00
4.500000E+03	2.255420E-17	0.000000E+00
4.510000E+03	2.288385E-17	0.000000E+00
4.520000E+03	2.322241E-17	0.000000E+00
4.530000E+03	2.357015E-17	0.000000E+00
4.540000E+03	2.392387E-17	0.000000E+00
4.550000E+03	2.429075E-17	0.000000E+00
4.560000E+03	2.466764E-17	0.000000E+00
4.570000E+03	2.505119E-17	0.000000E+00
4.580000E+03	2.544892E-17	0.000000E+00
4.590000E+03	2.585754E-17	0.000000E+00
4.600000E+03	2.627358E-17	0.000000E+00
4.610000E+03	2.670490E-17	0.000000E+00
4.620000E+03	2.714414E-17	0.000000E+00
4.630000E+03	2.759944E-17	0.000000E+00
4.640000E+03	2.806324E-17	0.000000E+00
4.650000E+03	2.854390E-17	0.000000E+00
4.660000E+03	2.903361E-17	0.000000E+00
4.670000E+03	2.953678E-17	0.000000E+00
4.680000E+03	3.005812E-17	0.000000E+00
4.690000E+03	3.058938E-17	0.000000E+00
4.700000E+03	3.113524E-17	0.000000E+00
4.710000E+03	3.170061E-17	0.000000E+00
4.720000E+03	3.227683E-17	0.000000E+00
4.730000E+03	3.286881E-17	0.000000E+00
4.740000E+03	3.347691E-17	0.000000E+00
4.750000E+03	3.410157E-17	0.000000E+00
4.760000E+03	3.474315E-17	0.000000E+00
4.770000E+03	3.540207E-17	0.000000E+00
4.780000E+03	3.607874E-17	0.000000E+00
4.790000E+03	3.677357E-17	0.000000E+00
4.800000E+03	3.748695E-17	0.000000E+00
4.810000E+03	3.821929E-17	0.000000E+00
4.820000E+03	3.897100E-17	0.000000E+00
4.830000E+03	3.974245E-17	0.000000E+00
4.840000E+03	4.053404E-17	0.000000E+00
4.850000E+03	4.134616E-17	0.000000E+00
4.860000E+03	4.217917E-17	0.000000E+00
4.870000E+03	4.302730E-17	0.000000E+00
4.880000E+03	4.390302E-17	0.000000E+00
4.890000E+03	4.480064E-17	0.000000E+00
4.900000E+03	4.571399E-17	0.000000E+00
4.910000E+03	4.665622E-17	0.000000E+00
4.920000E+03	4.762121E-17	0.000000E+00
4.930000E+03	4.860227E-17	0.000000E+00
4.940000E+03	4.961330E-17	0.000000E+00
4.950000E+03	5.064048E-17	0.000000E+00
4.960000E+03	5.169818E-17	0.000000E+00
4.970000E+03	5.277196E-17	0.000000E+00
4.980000E+03	5.386902E-17	0.000000E+00
4.990000E+03	5.499711E-17	0.000000E+00
5.000000E+03	5.614074E-17	0.000000E+00
5.010000E+03	5.730740E-17	0.000000E+00
5.020000E+03	5.850513E-17	0.000000E+00
5.030000E+03	5.971728E-17	0.000000E+00
5.040000E+03	6.095160E-17	0.000000E+00
5.050000E+03	6.220760E-17	0.000000E+00
5.060000E+03	6.348479E-17	0.000000E+00
5.070000E+03	6.478250E-17	0.000000E+00
5.080000E+03	6.610933E-17	0.000000E+00
5.090000E+03	6.744595E-17	0.000000E+00
5.100000E+03	6.880056E-17	0.000000E+00
5.110000E+03	7.016218E-17	0.000000E+00
5.120000E+03	7.154918E-17	0.000000E+00
5.130000E+03	7.295050E-17	0.000000E+00
5.140000E+03	7.436468E-17	0.000000E+00
5.150000E+03	7.579007E-17	0.000000E+00
5.160000E+03	7.722488E-17	0.000000E+00
5.170000E+03	7.865612E-17	0.000000E+00
5.180000E+03	8.010363E-17	0.000000E+00
5.190000E+03	8.155426E-17	0.000000E+00
5.200000E+03	8.299394E-17	0.000000E+00
5.210000E+03	8.444319E-17	0.000000E+00
5.220000E+03	8.588777E-17	0.000000E+00
5.230000E+03	8.731253E-17	0.000000E+00
5.240000E+03	8.873867E-17	0.000000E+00
5.250000E+03	9.013823E-17	0.000000E+00
5.260000E+03	9.153290E-17	0.000000E+00
5.270000E+03	9.289365E-17	0.000000E+00
5.280000E+03	9.422944E-17	0.000000E+00
5.290000E+03	9.554981E-17	0.000000E+00
5.300000E+03	9.682428E-17	0.000000E+00
5.310000E+03	9.806199E-17	0.000000E+00
5.320000E+03	9.925887E-17	0.000000E+00
5.330000E+03	1.004248E-16	0.000000E+00
5.340000E+03	1.015277E-16	0.000000E+00
5.350000E+03	1.025772E-16	0.000000E+00
5.360000E+03	1.035692E-16	0.000000E+00
5.370000E+03	1.044996E-16	0.000000E+00
5.380000E+03	1.053644E-16	0.000000E+00
5.390000E+03	1.061597E-16	0.000000E+00
5.400000E+03	1.068820E-16	0.000000E+00
5.410000E+03	1.075276E-16	0.000000E+00
5.420000E+03	1.080934E-16	0.000000E+00
5.430000E+03	1.085765E-16	0.000000E+00
5.440000E+03	1.089744E-16	0.000000E+00
5.450000E+03	1.092695E-16	0.000000E+00
5.460000E+03	1.094907E-16	0.000000E+00
5.470000E+03	1.096214E-16	0.000000E+00
5.480000E+03	1.096607E-16	0.000000E+00
5.490000E+03	1.095930E-16	0.000000E+00
5.500000E+03	1.094489E-16	0.000000E+00
5.510000E+03	1.092137E-16	0.000000E+00
5.520000E+03	1.088731E-16	0.000000E+00
5.530000E+03	1.084590E-16	0.000000E+00
5.540000E+03	1.079431E-16	0.000000E+00
5.550000E+03	1.073576E-16	0.000000E+00
5.560000E+03	1.066755E-16	0.000000E+00
5.570000E+03	1.059295E-16	0.000000E+00
5.580000E+03	1.050935E-16	0.000000E+00
5.590000E+03	1.041858E-16	0.000000E+00
5.600000E+03	1.032248E-16	0.000000E+00
5.610000E+03	1.021856E-16	0.000000E+00
5.620000E+03	1.010868E-16	0.000000E+00
5.630000E+03	9.993274E-17	0.000000E+00
5.640000E+03	9.874142E-17	0.000000E+00
5.650000E+03	9.748960E-17	0.000000E+00
5.660000E+03	9.619546E-17	0.000000E+00
5.670000E+03	9.486329E-17	0.000000E+00
5.680000E+03	9.349732E-17	0.000000E+00
5.690000E+03	9.210167E-17	0.000000E+00
5.700000E+03	9.068037E-17	0.000000E+00
5.710000E+03	8.923730E-17	0.000000E+00
5.720000E+03	8.777625E-17	0.000000E+00
5.730000E+03	8.630081E-17	0.000000E+00
5.740000E+03	8.481443E-17	0.000000E+00
5.750000E+03	8.332037E-17	0.000000E+00
5.760000E+03	8.182177E-17	0.000000E+00
5.770000E+03	8.031039E-17	0.000000E+00
5.780000E+03	7.881148E-17	0.000000E+00
5.790000E+03	7.731624E-17	0.000000E+00
5.800000E+03	7.582711E-17	0.000000E+00
5.810000E+03	7.433598E-17	0.000000E+00
5.820000E+03	7.286572E-17	0.000000E+00
5.830000E+03	7.140769E-17	0.000000E+00
5.840000E+03	6.995395E-17	0.000000E+00
5.850000E+03	6.852562E-17	0.000000E+00
5.860000E+03	6.711423E-17	0.000000E+00
5.870000E+03	6.571195E-17	0.000000E+00
5.880000E+03	6.433830E-17	0.000000E+00
5.890000E+03	6.297629E-17	0.000000E+00
5.900000E+03	6.164439E-17	0.000000E+00
5.910000E+03	6.032612E-17	0.000000E+00
5.920000E+03	5.903082E-17	0.000000E+00
5.930000E+03	5.776705E-17	0.000000E+00
5.940000E+03	5.651907E-17	0.000000E+00
5.950000E+03	5.530304E-17	0.000000E+00
5.960000E+03	5.410377E-17	0.000000E+00
5.970000E+03	5.292928E-17	0.000000E+00
5.980000E+03	5.177967E-17	0.000000E+00
5.990000E+03	5.066198E-17	0.000000E+00
6.000000E+03	4.956207E-17	0.000000E+00
6.010000E+03	4.848701E-17	0.000000E+00
6.020000E+03	4.743669E-17	0.000000E+00
6.030000E+03	4.641095E-17	0.000000E+00
6.040000E+03	4.540957E-17	0.000000E+00
6.050000E+03	4.443848E-17	0.000000E+00
6.060000E+03	4.348497E-17	0.000000E+00
6.070000E+03	4.255504E-17	0.000000E+00
6.080000E+03	4.164833E-17	0.000000E+00
6.090000E+03	4.076450E-17	0.000000E+00
6.100000E+03	3.990319E-17	0.000000E+00
6.110000E+03	3.906401E-17	0.000000E+00
6.120000E+03	3.824656E-17	0.000000E+00
6.130000E+03	3.744523E-17	0.000000E+00
6.140000E+03	3.667010E-17	0.000000E+00
6.150000E+03	3.591542E-17	0.000000E+00
6.160000E+03	3.518077E-17	0.000000E+00
6.170000E+03	3.446570E-17	0.000000E+00
6.180000E+03	3.376978E-17	0.000000E+00
6.190000E+03	3.308799E-17	0.000000E+00
6.200000E+03	3.242912E-17	0.000000E+00
6.210000E+03	3.178808E-17	0.000000E+00
6.220000E+03	3.116441E-17	0.000000E+00
6.230000E+03	3.055344E-17	0.000000E+00
6.240000E+03	2.996330E-17	0.000000E+00
6.250000E+03	2.938924E-17	0.000000E+00
6.260000E+03	2.882685E-17	0.000000E+00
6.270000E+03	2.828377E-17	0.000000E+00
6.280000E+03	2.775551E-17	0.000000E+00
6.290000E+03	2.723790E-17	0.000000E+00
6.300000E+03	2.673818E-17	0.000000E+00
6.310000E+03	2.624845E-17	0.000000E+00
6.320000E+03	2.577568E-17	0.000000E+00
6.330000E+03	2.531230E-17	0.000000E+00
6.340000E+03	2.486500E-17	0.000000E+00
6.350000E+03	2.442648E-17	0.000000E+00
6.360000E+03	2.400321E-17	0.000000E+00
6.370000E+03	2.358815E-17	0.000000E+00
6.380000E+03	2.318434E-17	0.000000E+00
6.390000E+03	2.279460E-17	0.000000E+00
6.400000E+03	2.241226E-17	0.000000E+00
6.410000E+03	2.204326E-17	0.000000E+00
6.420000E+03	2.168115E-17	0.000000E+00
6.430000E+03	2.132872E-17	0.000000E+00
6.440000E+03	2.098572E-17	0.000000E+00
6.450000E+03	2.065469E-17	0.000000E+00
6.460000E+03	2.032962E-17	0.000000E+00
6.470000E+03	2.001313E-17	0.000000E+00
6.480000E+03	1.970499E-17	0.000000E+00
6.490000E+03	1.940762E-17	0.000000E+00
6.500000E+03	1.911537E-17	0.000000E+00
6.510000E+03	1.883075E-17	0.000000E+00
6.520000E+03	1.855350E-17	0.000000E+00
6.530000E+03	1.828343E-17	0.000000E+00
6.540000E+03	1.802030E-17	0.000000E+00
6.550000E+03	1.776393E-17	0.000000E+00
6.560000E+03	1.751653E-17	0.000000E+00
6.570000E+03	1.727303E-17	0.000000E+00
6.580000E+03	1.703568E-17	0.000000E+00
6.590000E+03	1.680430E-17	0.000000E+00
6.600000E+03	1.657875E-17	0.000000E+00
6.610000E+03	1.635882E-17	0.000000E+00
6.620000E+03	1.614436E-17	0.000000E+00
6.630000E+03	1.593521E-17	0.000000E+00
6.640000E+03	1.573121E-17	0.000000E+00
6.650000E+03	1.553221E-17	0.000000E+00
6.660000E+03	1.533594E-17	0.000000E+00
6.670000E+03	1.514653E-17	0.000000E+00
6.680000E+03	1.496171E-17	0.000000E+00
6.690000E+03	1.478132E-17	0.000000E+00
6.700000E+03	1.460526E-17	0.000000E+00
6.710000E+03	1.443338E-17	0.000000E+00
6.720000E+03	1.426558E-17	0.000000E+00
6.730000E+03	1.409977E-17	0.000000E+00
6.740000E+03	1.393981E-17	0.000000E+00
6.750000E+03	1.378356E-17	0.000000E+00
6.760000E+03	1.363096E-17	0.000000E+00
6.770000E+03	1.348188E-17	0.000000E+00
6.780000E+03	1.333437E-17	0.000000E+00
6.790000E+03	1.319208E-17	0.000000E+00
6.800000E+03	1.305303E-17	0.000000E+00
6.810000E+03	1.291535E-17	0.000000E+00
6.820000E+03	1.278254E-17	0.000000E+00
6.830000E+03	1.265272E-17	0.000000E+00
6.840000E+03	1.252407E-17	0.000000E+00
6.850000E+03	1.240000E-17	0.000000E+00
6.860000E+03	1.227868E-17	0.000000E+00
6.870000E+03	1.215835E-17	0.000000E+00
6.880000E+03	1.204233E-17	0.000000E+00
6.890000E+03	1.192720E-17	0.000000E+00
6.900000E+03	1.181621E-17	0.000000E+00
6.910000E+03	1.170600E-17	0.000000E+00
6.920000E+03	1.159979E-17	0.000000E+00
6.930000E+03	1.149426E-17	0.000000E+00
6.940000E+03	1.139258E-17	0.000000E+00
6.950000E+03	1.129149E-17	0.000000E+00
6.960000E+03	1.119412E-17	0.000000E+00
6.970000E+03	1.109726E-17	0.000000E+00
6.980000E+03	1.100398E-17	0.000000E+00
6.990000E+03	1.091114E-17	0.000000E+00
7.000000E+03	1.082176E-17	0.000000E+00
7.010000E+03	1.073275E-17	0.000000E+00
7.020000E+03	1.064560E-17	0.000000E+00
7.030000E+03	1.056173E-17	0.000000E+00
7.040000E+03	1.047814E-17	0.000000E+00
7.050000E+03	1.039628E-17	0.000000E+00
7.060000E+03	1.031754E-17	0.000000E+00
7.070000E+03	1.023900E-17	0.000000E+00
7.080000E+03	1.016207E-17	0.000000E+00
7.090000E+03	1.008813E-17	0.000000E+00
7.100000E+03	1.001430E-17	0.000000E+00
7.110000E+03	9.941982E-18	0.000000E+00
7.120000E+03	9.871135E-18	0.000000E+00
7.130000E+03	9.803104E-18	0.000000E+00
7.140000E+03	9.735100E-18	0.000000E+00
7.150000E+03	9.668477E-18	0.000000E+00
7.160000E+03	9.603207E-18	0.000000E+00
7.170000E+03	9.539260E-18	0.000000E+00
7.180000E+03	9.476611E-18	0.000000E+00
7.190000E+03	9.416555E-18	0.000000E+00
7.200000E+03	9.356413E-18	0.000000E+00
7.210000E+03	9.297492E-18	0.000000E+00
7.220000E+03	9.239768E-18	0.000000E+00
7.230000E+03	9.183217E-18	0.000000E+00
7.240000E+03	9.127816E-18	0.000000E+00
7.250000E+03	9.073544E-18	0.000000E+00
7.260000E+03	9.020379E-18	0.000000E+00
7.270000E+03	8.968301E-18	0.000000E+00
7.280000E+03	8.917288E-18	0.000000E+00
7.290000E+03	8.867324E-18	0.000000E+00
7.300000E+03	8.818386E-18	0.000000E+00
7.310000E+03	8.770458E-18	0.000000E+00
7.320000E+03	8.723522E-18	0.000000E+00
7.330000E+03	8.677559E-18	0.000000E+00
7.340000E+03	8.632553E-18	0.000000E+00
7.350000E+03	8.587276E-18	0.000000E+00
7.360000E+03	8.544140E-18	0.000000E+00
7.370000E+03	8.501913E-18	0.000000E+00
7.380000E+03	8.460580E-18	0.000000E+00
7.390000E+03	8.420124E-18	0.000000E+00
7.400000E+03	8.380533E-18	0.000000E+00
7.410000E+03	8.340611E-18	0.000000E+00
7.420000E+03	8.302710E-18	0.000000E+00
7.430000E+03	8.265632E-18	0.000000E+00
7.440000E+03	8.229363E-18	0.000000E+00
7.450000E+03	8.192730E-18	0.000000E+00
7.460000E+03	8.158046E-18	0.000000E+00
7.470000E+03	8.124135E-18	0.000000E+00
7.480000E+03	8.090982E-18	0.000000E+00
7.490000E+03	8.057434E-18	0.000000E+00
7.500000E+03	8.025771E-18	0.000000E+00
7.510000E+03	7.993700E-18	0.000000E+00
7.520000E+03	7.963480E-18	0.000000E+00
7.530000E+03	7.933965E-18	0.000000E+00
7.540000E+03	7.904021E-18	0.000000E+00
7.550000E+03	7.875886E-18	0.000000E+00
7.560000E+03	7.847310E-18	0.000000E+00
7.570000E+03	7.820514E-18	0.000000E+00
7.580000E+03	7.793265E-18	0.000000E+00
7.590000E+03	7.767771E-18	0.000000E+00
7.600000E+03	7.741811E-18	0.000000E+00
7.610000E+03	7.717581E-18	0.000000E+00
7.620000E+03	7.692873E-18	0.000000E+00
7.630000E+03	7.669870E-18	0.000000E+00
7.640000E+03	7.646379E-18	0.000000E+00
7.650000E+03	7.624570E-18	0.000000E+00
7.660000E+03	7.602260E-18	0.000000E+00
7.670000E+03	7.580529E-18	0.000000E+00
7.680000E+03	7.560450E-18	0.000000E+00
7.690000E+03	7.539852E-18	0.000000E+00
7.700000E+03	7.519809E-18	0.000000E+00
7.710000E+03	7.501386E-18	0.000000E+00
7.720000E+03	7.482430E-18	0.000000E+00
7.730000E+03	7.464005E-18	0.000000E+00
7.740000E+03	7.446105E-18	0.000000E+00
7.750000E+03	7.429784E-18	0.000000E+00
7.760000E+03	7.412910E-18	0.000000E+00
