#wls	flux	fluxerr
1.600000E+03	1.555778E-15	3.444572E-18
1.640000E+03	1.580524E-15	3.499362E-18
1.680000E+03	1.605782E-15	3.555283E-18
1.720000E+03	1.632026E-15	3.613390E-18
1.760000E+03	1.658890E-15	3.672868E-18
1.800000E+03	1.686842E-15	3.734754E-18
1.840000E+03	1.715180E-15	3.797495E-18
1.880000E+03	1.744641E-15	3.862725E-18
1.920000E+03	1.775076E-15	3.930109E-18
1.960000E+03	1.806299E-15	3.999238E-18
2.000000E+03	1.838711E-15	4.070999E-18
2.040000E+03	1.872070E-15	4.144858E-18
2.080000E+03	1.906722E-15	4.221580E-18
2.120000E+03	1.942344E-15	4.300449E-18
2.160000E+03	1.979194E-15	4.382035E-18
2.200000E+03	2.017474E-15	4.466790E-18
2.240000E+03	2.056039E-15	4.552173E-18
2.280000E+03	2.094936E-15	4.638293E-18
2.320000E+03	2.132848E-15	4.722232E-18
2.360000E+03	2.169332E-15	4.803009E-18
2.400000E+03	2.202908E-15	4.877347E-18
2.440000E+03	2.232666E-15	4.943232E-18
2.480000E+03	2.257641E-15	4.998527E-18
2.520000E+03	2.276830E-15	5.041010E-18
2.560000E+03	2.289210E-15	5.068416E-18
2.600000E+03	2.293487E-15	5.077883E-18
2.640000E+03	2.288738E-15	5.067364E-18
2.680000E+03	2.274156E-15	5.035073E-18
2.720000E+03	2.249636E-15	4.980778E-18
2.760000E+03	2.214472E-15	4.902915E-18
2.800000E+03	2.169045E-15	4.802328E-18
2.840000E+03	2.113375E-15	4.679057E-18
2.880000E+03	2.048069E-15	4.534450E-18
2.920000E+03	1.974271E-15	4.371038E-18
2.960000E+03	1.894300E-15	4.193953E-18
3.000000E+03	1.811827E-15	4.011323E-18
3.010000E+03	1.791494E-15	3.966297E-18
3.020000E+03	1.771337E-15	3.921660E-18
3.030000E+03	1.751631E-15	3.878020E-18
3.040000E+03	1.732323E-15	3.835262E-18
3.050000E+03	1.713701E-15	3.794022E-18
3.060000E+03	1.695894E-15	3.754585E-18
3.070000E+03	1.678889E-15	3.716923E-18
3.080000E+03	1.662997E-15	3.681724E-18
3.090000E+03	1.648382E-15	3.649352E-18
3.100000E+03	1.635074E-15	3.619875E-18
3.110000E+03	1.623562E-15	3.594371E-18
3.120000E+03	1.613754E-15	3.572640E-18
3.130000E+03	1.606159E-15	3.555806E-18
3.140000E+03	1.600721E-15	3.543749E-18
3.150000E+03	1.597969E-15	3.537634E-18
3.160000E+03	1.598019E-15	3.537722E-18
3.170000E+03	1.601142E-15	3.544612E-18
3.180000E+03	1.607754E-15	3.559226E-18
3.190000E+03	1.618011E-15	3.581907E-18
3.200000E+03	1.632347E-15	3.613614E-18
3.210000E+03	1.650929E-15	3.654720E-18
3.220000E+03	1.674331E-15	3.706493E-18
3.230000E+03	1.702581E-15	3.768996E-18
3.240000E+03	1.736103E-15	3.843165E-18
3.250000E+03	1.775308E-15	3.929912E-18
3.260000E+03	1.820298E-15	4.029459E-18
3.270000E+03	1.871274E-15	4.142255E-18
3.280000E+03	1.928681E-15	4.269280E-18
3.290000E+03	1.992306E-15	4.410063E-18
3.300000E+03	2.062282E-15	4.564898E-18
3.310000E+03	2.138458E-15	4.733449E-18
3.320000E+03	2.220662E-15	4.915335E-18
3.330000E+03	2.308344E-15	5.109337E-18
3.340000E+03	2.400474E-15	5.313175E-18
3.350000E+03	2.496177E-15	5.524909E-18
3.360000E+03	2.593798E-15	5.740880E-18
3.370000E+03	2.690973E-15	5.955848E-18
3.380000E+03	2.785115E-15	6.164094E-18
3.390000E+03	2.873190E-15	6.358899E-18
3.400000E+03	2.951735E-15	6.532599E-18
3.410000E+03	3.017129E-15	6.677182E-18
3.420000E+03	3.067002E-15	6.787407E-18
3.430000E+03	3.099054E-15	6.858182E-18
3.440000E+03	3.113549E-15	6.890096E-18
3.450000E+03	3.111813E-15	6.886085E-18
3.460000E+03	3.096584E-15	6.852212E-18
3.470000E+03	3.071285E-15	6.796054E-18
3.475899E+03	3.065682E-15	6.783549E-18
3.477361E+03	3.057424E-15	6.765251E-18
3.478834E+03	3.049397E-15	6.747462E-18
3.480307E+03	3.039293E-15	6.725078E-18
3.481779E+03	3.028264E-15	6.700648E-18
3.483242E+03	3.017117E-15	6.675955E-18
3.484714E+03	3.003661E-15	6.646155E-18
3.486186E+03	2.994936E-15	6.626823E-18
3.487659E+03	2.992330E-15	6.621030E-18
3.489121E+03	2.989028E-15	6.613697E-18
3.490594E+03	2.983881E-15	6.602282E-18
3.492066E+03	2.979427E-15	6.592400E-18
3.493539E+03	2.973471E-15	6.579194E-18
3.495001E+03	2.966704E-15	6.564195E-18
3.496474E+03	2.962942E-15	6.555845E-18
3.497946E+03	2.960912E-15	6.551326E-18
3.499419E+03	2.960731E-15	6.550899E-18
3.500881E+03	2.961012E-15	6.551492E-18
3.502354E+03	2.958868E-15	6.546721E-18
3.503826E+03	2.958225E-15	6.545272E-18
3.505299E+03	2.958047E-15	6.544850E-18
3.506761E+03	2.959370E-15	6.547750E-18
3.508234E+03	2.962429E-15	6.554490E-18
3.509706E+03	2.967223E-15	6.565071E-18
3.511179E+03	2.968204E-15	6.567213E-18
3.512641E+03	2.964443E-15	6.558863E-18
3.514114E+03	2.959411E-15	6.547703E-18
3.515586E+03	2.952875E-15	6.533214E-18
3.517059E+03	2.946801E-15	6.519748E-18
3.518521E+03	2.946508E-15	6.519073E-18
3.519994E+03	2.946450E-15	6.518915E-18
3.521466E+03	2.942921E-15	6.511079E-18
3.522939E+03	2.943673E-15	6.512716E-18
3.524401E+03	2.949169E-15	6.524846E-18
3.525874E+03	2.949460E-15	6.525462E-18
3.527346E+03	2.945932E-15	6.517630E-18
3.528819E+03	2.944141E-15	6.513638E-18
3.530281E+03	2.940262E-15	6.505030E-18
3.531754E+03	2.936040E-15	6.495660E-18
3.533226E+03	2.935175E-15	6.493717E-18
3.534699E+03	2.938015E-15	6.499973E-18
3.536161E+03	2.939582E-15	6.503411E-18
3.537634E+03	2.936865E-15	6.497371E-18
3.539106E+03	2.934379E-15	6.491843E-18
3.540579E+03	2.936065E-15	6.495546E-18
3.542041E+03	2.937054E-15	6.497704E-18
3.543514E+03	2.936888E-15	6.497308E-18
3.544986E+03	2.938112E-15	6.499988E-18
3.546459E+03	2.942002E-15	6.508566E-18
3.547921E+03	2.945313E-15	6.515861E-18
3.549394E+03	2.952568E-15	6.531884E-18
3.550866E+03	2.963419E-15	6.555860E-18
3.552329E+03	2.973344E-15	6.577788E-18
3.553801E+03	2.981881E-15	6.596644E-18
3.555274E+03	2.986593E-15	6.607040E-18
3.556746E+03	2.996179E-15	6.628216E-18
3.558219E+03	3.003911E-15	6.645292E-18
3.559681E+03	3.004449E-15	6.646454E-18
3.561154E+03	3.009401E-15	6.657379E-18
3.562626E+03	3.021547E-15	6.684219E-18
3.564089E+03	3.038683E-15	6.722098E-18
3.565561E+03	3.051417E-15	6.750237E-18
3.567034E+03	3.063804E-15	6.777610E-18
3.568506E+03	3.081419E-15	6.816548E-18
3.569969E+03	3.094856E-15	6.846242E-18
3.571441E+03	3.108763E-15	6.876975E-18
3.572914E+03	3.130221E-15	6.924413E-18
3.574386E+03	3.148897E-15	6.965695E-18
3.575849E+03	3.165833E-15	7.003130E-18
3.577321E+03	3.179988E-15	7.034410E-18
3.578794E+03	3.191009E-15	7.058760E-18
3.580266E+03	3.202962E-15	7.085171E-18
3.581729E+03	3.219217E-15	7.121095E-18
3.583201E+03	3.235243E-15	7.156516E-18
3.584674E+03	3.248834E-15	7.186548E-18
3.586146E+03	3.265334E-15	7.223016E-18
3.587609E+03	3.279045E-15	7.253314E-18
3.589081E+03	3.292065E-15	7.282082E-18
3.590554E+03	3.305553E-15	7.311887E-18
3.592026E+03	3.312184E-15	7.326523E-18
3.593489E+03	3.319745E-15	7.343216E-18
3.594961E+03	3.325216E-15	7.355288E-18
3.596434E+03	3.324525E-15	7.353729E-18
3.597906E+03	3.322672E-15	7.349597E-18
3.599369E+03	3.321281E-15	7.346489E-18
3.600841E+03	3.322219E-15	7.348534E-18
3.602314E+03	3.317573E-15	7.338226E-18
3.603786E+03	3.310133E-15	7.321740E-18
3.605249E+03	3.305367E-15	7.311167E-18
3.606721E+03	3.298740E-15	7.296479E-18
3.608193E+03	3.289434E-15	7.275864E-18
3.609666E+03	3.281174E-15	7.257565E-18
3.611128E+03	3.273377E-15	7.240289E-18
3.612601E+03	3.261971E-15	7.215031E-18
3.614073E+03	3.248117E-15	7.184358E-18
3.615546E+03	3.235541E-15	7.156513E-18
3.617008E+03	3.217601E-15	7.116806E-18
3.618481E+03	3.199429E-15	7.076583E-18
3.619954E+03	3.182068E-15	7.038156E-18
3.621426E+03	3.160159E-15	6.989670E-18
3.622889E+03	3.140224E-15	6.945551E-18
3.624361E+03	3.122735E-15	6.906842E-18
3.625834E+03	3.101863E-15	6.860651E-18
3.627306E+03	3.083783E-15	6.820636E-18
3.628768E+03	3.066281E-15	6.781899E-18
3.630241E+03	3.050177E-15	6.746255E-18
3.631713E+03	3.038151E-15	6.719632E-18
3.633186E+03	3.034520E-15	6.711575E-18
3.634648E+03	3.035667E-15	6.714089E-18
3.636121E+03	3.040784E-15	6.725382E-18
3.637593E+03	3.048003E-15	6.741323E-18
3.639066E+03	3.056157E-15	6.759333E-18
3.640528E+03	3.065943E-15	6.780953E-18
3.642001E+03	3.080053E-15	6.812136E-18
3.643473E+03	3.097550E-15	6.850812E-18
3.644946E+03	3.121356E-15	6.903439E-18
3.646408E+03	3.152752E-15	6.972854E-18
3.647881E+03	3.188246E-15	7.051329E-18
3.649353E+03	3.228417E-15	7.140150E-18
3.650816E+03	3.272682E-15	7.238027E-18
3.652288E+03	3.321982E-15	7.347036E-18
3.653761E+03	3.379820E-15	7.474930E-18
3.655233E+03	3.442693E-15	7.613959E-18
3.656696E+03	3.510954E-15	7.764901E-18
3.658168E+03	3.582854E-15	7.923892E-18
3.659641E+03	3.656873E-15	8.087571E-18
3.661113E+03	3.731026E-15	8.251542E-18
3.662576E+03	3.810219E-15	8.426662E-18
3.664048E+03	3.897031E-15	8.618629E-18
3.665521E+03	3.989240E-15	8.822533E-18
3.666993E+03	4.087666E-15	9.040187E-18
3.668456E+03	4.190438E-15	9.267449E-18
3.669928E+03	4.290663E-15	9.489079E-18
3.671401E+03	4.391730E-15	9.712567E-18
3.672873E+03	4.497966E-15	9.947490E-18
3.674336E+03	4.600595E-15	1.017443E-17
3.675808E+03	4.695880E-15	1.038513E-17
3.677281E+03	4.792707E-15	1.059925E-17
3.678753E+03	4.891429E-15	1.081755E-17
3.680216E+03	4.992742E-15	1.104158E-17
3.681688E+03	5.088348E-15	1.125299E-17
3.683161E+03	5.182334E-15	1.146082E-17
3.684633E+03	5.273532E-15	1.166248E-17
3.686096E+03	5.354208E-15	1.184087E-17
3.687568E+03	5.427645E-15	1.200325E-17
3.689041E+03	5.503323E-15	1.217059E-17
3.690513E+03	5.575739E-15	1.233072E-17
3.691976E+03	5.636100E-15	1.246418E-17
3.693448E+03	5.693432E-15	1.259095E-17
3.694921E+03	5.746911E-15	1.270920E-17
3.696393E+03	5.793370E-15	1.281192E-17
3.697856E+03	5.831982E-15	1.289729E-17
3.699328E+03	5.867091E-15	1.297492E-17
3.700801E+03	5.894470E-15	1.303545E-17
3.702273E+03	5.910953E-15	1.307188E-17
3.703736E+03	5.916412E-15	1.308394E-17
3.705208E+03	5.915193E-15	1.308123E-17
3.706681E+03	5.905648E-15	1.306010E-17
3.708153E+03	5.884840E-15	1.301408E-17
3.709616E+03	5.862381E-15	1.296439E-17
3.711088E+03	5.833000E-15	1.289941E-17
3.712561E+03	5.791175E-15	1.280690E-17
3.714033E+03	5.740776E-15	1.269544E-17
3.715496E+03	5.682967E-15	1.256759E-17
3.716968E+03	5.622215E-15	1.243323E-17
3.718441E+03	5.558399E-15	1.229210E-17
3.719913E+03	5.484355E-15	1.212835E-17
3.721376E+03	5.405947E-15	1.195494E-17
3.722848E+03	5.325999E-15	1.177814E-17
3.724321E+03	5.240513E-15	1.158909E-17
3.725793E+03	5.150430E-15	1.138987E-17
3.727256E+03	5.053861E-15	1.117631E-17
3.728728E+03	4.953987E-15	1.095544E-17
3.730201E+03	4.853033E-15	1.073219E-17
3.731673E+03	4.746886E-15	1.049745E-17
3.733136E+03	4.635190E-15	1.025044E-17
3.734608E+03	4.524296E-15	1.000520E-17
3.736081E+03	4.413611E-15	9.760427E-18
3.737553E+03	4.299846E-15	9.508843E-18
3.739015E+03	4.184995E-15	9.254857E-18
3.740488E+03	4.072121E-15	9.005243E-18
3.741961E+03	3.962513E-15	8.762854E-18
3.743423E+03	3.856642E-15	8.528728E-18
3.744896E+03	3.746517E-15	8.285194E-18
3.746368E+03	3.633897E-15	8.036144E-18
3.747840E+03	3.527134E-15	7.800045E-18
3.749303E+03	3.425403E-15	7.575076E-18
3.750776E+03	3.328243E-15	7.360213E-18
3.752248E+03	3.234590E-15	7.153108E-18
3.753720E+03	3.145743E-15	6.956630E-18
3.755183E+03	3.062287E-15	6.772076E-18
3.756655E+03	2.981171E-15	6.592694E-18
3.758128E+03	2.906511E-15	6.427590E-18
3.759601E+03	2.835132E-15	6.269743E-18
3.761063E+03	2.767268E-15	6.119669E-18
3.762535E+03	2.705044E-15	5.982067E-18
3.764008E+03	2.648342E-15	5.856675E-18
3.765481E+03	2.597047E-15	5.743241E-18
3.766943E+03	2.547858E-15	5.634467E-18
3.768415E+03	2.501608E-15	5.532189E-18
3.769888E+03	2.456996E-15	5.433536E-18
3.771360E+03	2.421450E-15	5.354930E-18
3.772823E+03	2.398623E-15	5.304453E-18
3.774295E+03	2.376147E-15	5.254751E-18
3.775768E+03	2.357675E-15	5.213905E-18
3.777240E+03	2.348632E-15	5.193910E-18
3.778703E+03	2.342061E-15	5.179382E-18
3.780175E+03	2.340562E-15	5.176070E-18
3.781648E+03	2.343664E-15	5.182933E-18
3.783120E+03	2.349951E-15	5.196841E-18
3.784583E+03	2.354705E-15	5.207359E-18
3.786055E+03	2.361114E-15	5.221534E-18
3.787528E+03	2.373425E-15	5.248764E-18
3.789000E+03	2.388218E-15	5.281482E-18
3.790463E+03	2.400417E-15	5.308462E-18
3.791935E+03	2.415570E-15	5.341978E-18
3.793408E+03	2.431910E-15	5.378117E-18
3.794880E+03	2.448016E-15	5.413739E-18
3.796343E+03	2.467196E-15	5.456158E-18
3.797815E+03	2.490044E-15	5.506691E-18
3.799288E+03	2.514432E-15	5.560628E-18
3.800760E+03	2.537765E-15	5.612232E-18
3.802223E+03	2.560391E-15	5.662274E-18
3.803695E+03	2.587989E-15	5.723310E-18
3.805168E+03	2.614647E-15	5.782268E-18
3.806640E+03	2.637413E-15	5.832619E-18
3.808103E+03	2.662901E-15	5.888989E-18
3.809575E+03	2.691826E-15	5.952959E-18
3.811048E+03	2.722295E-15	6.020346E-18
3.812520E+03	2.755373E-15	6.093502E-18
3.813983E+03	2.789759E-15	6.169550E-18
3.815455E+03	2.824391E-15	6.246143E-18
3.816928E+03	2.858678E-15	6.321971E-18
3.818400E+03	2.892500E-15	6.396773E-18
3.819863E+03	2.926565E-15	6.472111E-18
3.821335E+03	2.964546E-15	6.556111E-18
3.822808E+03	3.003129E-15	6.641440E-18
3.824280E+03	3.043852E-15	6.731503E-18
3.825743E+03	3.088133E-15	6.829434E-18
3.827215E+03	3.127930E-15	6.917449E-18
3.828688E+03	3.172118E-15	7.015174E-18
3.830160E+03	3.225081E-15	7.132305E-18
3.831623E+03	3.277343E-15	7.247885E-18
3.833095E+03	3.337557E-15	7.381053E-18
3.834568E+03	3.400866E-15	7.521064E-18
3.836030E+03	3.462885E-15	7.658223E-18
3.837503E+03	3.529662E-15	7.805904E-18
3.838975E+03	3.604159E-15	7.970657E-18
3.840448E+03	3.680571E-15	8.139645E-18
3.841920E+03	3.759136E-15	8.313395E-18
3.843383E+03	3.843172E-15	8.499244E-18
3.844855E+03	3.934938E-15	8.702187E-18
3.846328E+03	4.032300E-15	8.917507E-18
3.847790E+03	4.133124E-15	9.140481E-18
3.849263E+03	4.241923E-15	9.381093E-18
3.850735E+03	4.353240E-15	9.627274E-18
3.852208E+03	4.463400E-15	9.870895E-18
3.853670E+03	4.571568E-15	1.011011E-17
3.855143E+03	4.683802E-15	1.035832E-17
3.856615E+03	4.804372E-15	1.062496E-17
3.858088E+03	4.932808E-15	1.090900E-17
3.859550E+03	5.071480E-15	1.121567E-17
3.861023E+03	5.219217E-15	1.154239E-17
3.862495E+03	5.370908E-15	1.187786E-17
3.863968E+03	5.530598E-15	1.223101E-17
3.865430E+03	5.698636E-15	1.260263E-17
3.866903E+03	5.874445E-15	1.299143E-17
3.868375E+03	6.063603E-15	1.340975E-17
3.869848E+03	6.257684E-15	1.383895E-17
3.871310E+03	6.453353E-15	1.427167E-17
3.872783E+03	6.658349E-15	1.472502E-17
3.874255E+03	6.866252E-15	1.518479E-17
3.875728E+03	7.068741E-15	1.563259E-17
3.877190E+03	7.271277E-15	1.608049E-17
3.878662E+03	7.474825E-15	1.653063E-17
3.880135E+03	7.676047E-15	1.697562E-17
3.881608E+03	7.878156E-15	1.742257E-17
3.883070E+03	8.086378E-15	1.788304E-17
3.884543E+03	8.295614E-15	1.834575E-17
3.886015E+03	8.498481E-15	1.879438E-17
3.887488E+03	8.697952E-15	1.923549E-17
3.888950E+03	8.896635E-15	1.967485E-17
3.890423E+03	9.091809E-15	2.010646E-17
3.891895E+03	9.282869E-15	2.052897E-17
3.893367E+03	9.474934E-15	2.095369E-17
3.894830E+03	9.663470E-15	2.137061E-17
3.896302E+03	9.844801E-15	2.177160E-17
3.897775E+03	1.002547E-14	2.217111E-17
3.899247E+03	1.020082E-14	2.255887E-17
3.900710E+03	1.036978E-14	2.293249E-17
3.902182E+03	1.053403E-14	2.329569E-17
3.903655E+03	1.069118E-14	2.364320E-17
3.905127E+03	1.084074E-14	2.397390E-17
3.906590E+03	1.097949E-14	2.428070E-17
3.908062E+03	1.110994E-14	2.456915E-17
3.909535E+03	1.123446E-14	2.484448E-17
3.911007E+03	1.134674E-14	2.509274E-17
3.912470E+03	1.144593E-14	2.531204E-17
3.913942E+03	1.153775E-14	2.551505E-17
3.915415E+03	1.162268E-14	2.570283E-17
3.916887E+03	1.170108E-14	2.587615E-17
3.918350E+03	1.176660E-14	2.602099E-17
3.919822E+03	1.181569E-14	2.612950E-17
3.921295E+03	1.185536E-14	2.621716E-17
3.922767E+03	1.188716E-14	2.628743E-17
3.924230E+03	1.191180E-14	2.634186E-17
3.925702E+03	1.193001E-14	2.638207E-17
3.927175E+03	1.193462E-14	2.639220E-17
3.928647E+03	1.192538E-14	2.637169E-17
3.930110E+03	1.190931E-14	2.633610E-17
3.931582E+03	1.188620E-14	2.628492E-17
3.933055E+03	1.185472E-14	2.621525E-17
3.934517E+03	1.181809E-14	2.613418E-17
3.935990E+03	1.177047E-14	2.602880E-17
3.937462E+03	1.171196E-14	2.589933E-17
3.938935E+03	1.165116E-14	2.576481E-17
3.940397E+03	1.158675E-14	2.562230E-17
3.941870E+03	1.151922E-14	2.547290E-17
3.943342E+03	1.144403E-14	2.530654E-17
3.944815E+03	1.136116E-14	2.512321E-17
3.946277E+03	1.127695E-14	2.493692E-17
3.947750E+03	1.119223E-14	2.474950E-17
3.949222E+03	1.110452E-14	2.455546E-17
3.950695E+03	1.100887E-14	2.434387E-17
3.952157E+03	1.091655E-14	2.413963E-17
3.953630E+03	1.083128E-14	2.395099E-17
3.955102E+03	1.073795E-14	2.374454E-17
3.956575E+03	1.064701E-14	2.354336E-17
3.958037E+03	1.056909E-14	2.337096E-17
3.959510E+03	1.049522E-14	2.320754E-17
3.960982E+03	1.042529E-14	2.305281E-17
3.962455E+03	1.036313E-14	2.291526E-17
3.963917E+03	1.030826E-14	2.279384E-17
3.965390E+03	1.026033E-14	2.268777E-17
3.966862E+03	1.021659E-14	2.259095E-17
3.968335E+03	1.017931E-14	2.250842E-17
3.969797E+03	1.015388E-14	2.245210E-17
3.971270E+03	1.014764E-14	2.243821E-17
3.972742E+03	1.015664E-14	2.245800E-17
3.974215E+03	1.017979E-14	2.250909E-17
3.975677E+03	1.021758E-14	2.259255E-17
3.977150E+03	1.026679E-14	2.270125E-17
3.978622E+03	1.033881E-14	2.286040E-17
3.980095E+03	1.042995E-14	2.306179E-17
3.981557E+03	1.053610E-14	2.329640E-17
3.983030E+03	1.065611E-14	2.356163E-17
3.984502E+03	1.078780E-14	2.385268E-17
3.985975E+03	1.093489E-14	2.417780E-17
3.987437E+03	1.110280E-14	2.454893E-17
3.988910E+03	1.128603E-14	2.495392E-17
3.990382E+03	1.147748E-14	2.537710E-17
3.991855E+03	1.167920E-14	2.582296E-17
3.993317E+03	1.188963E-14	2.628808E-17
3.994790E+03	1.211443E-14	2.678497E-17
3.996262E+03	1.234458E-14	2.729367E-17
3.997735E+03	1.257961E-14	2.781316E-17
3.999197E+03	1.282072E-14	2.834609E-17
4.000670E+03	1.305709E-14	2.886852E-17
4.002142E+03	1.329354E-14	2.939112E-17
4.003615E+03	1.353367E-14	2.992184E-17
4.005077E+03	1.377867E-14	3.046333E-17
4.006550E+03	1.403098E-14	3.102096E-17
4.008022E+03	1.428696E-14	3.158672E-17
4.009495E+03	1.454544E-14	3.215798E-17
4.010957E+03	1.479796E-14	3.271605E-17
4.012430E+03	1.503371E-14	3.323705E-17
4.013902E+03	1.526352E-14	3.374489E-17
4.015374E+03	1.549700E-14	3.426084E-17
4.016837E+03	1.572814E-14	3.477161E-17
4.018309E+03	1.594972E-14	3.526123E-17
4.019782E+03	1.615209E-14	3.570836E-17
4.021255E+03	1.634006E-14	3.612366E-17
4.022717E+03	1.651239E-14	3.650439E-17
4.024189E+03	1.666190E-14	3.683464E-17
4.025662E+03	1.679096E-14	3.711967E-17
4.027124E+03	1.690557E-14	3.737277E-17
4.028597E+03	1.700215E-14	3.758599E-17
4.030070E+03	1.708307E-14	3.776459E-17
4.031542E+03	1.714834E-14	3.790858E-17
4.033005E+03	1.719310E-14	3.800724E-17
4.034477E+03	1.721859E-14	3.806328E-17
4.035950E+03	1.722116E-14	3.806866E-17
4.037422E+03	1.720079E-14	3.802331E-17
4.038885E+03	1.716471E-14	3.794326E-17
4.040357E+03	1.711052E-14	3.782315E-17
4.041829E+03	1.704063E-14	3.766834E-17
4.043302E+03	1.695863E-14	3.748677E-17
4.044764E+03	1.685606E-14	3.725972E-17
4.046237E+03	1.673415E-14	3.698993E-17
4.047709E+03	1.660012E-14	3.669334E-17
4.049182E+03	1.645155E-14	3.636462E-17
4.050644E+03	1.628720E-14	3.600102E-17
4.052117E+03	1.610833E-14	3.560531E-17
4.053589E+03	1.591489E-14	3.517741E-17
4.055062E+03	1.570809E-14	3.472000E-17
4.056524E+03	1.549033E-14	3.423837E-17
4.057997E+03	1.526647E-14	3.374326E-17
4.059469E+03	1.503650E-14	3.323464E-17
4.060942E+03	1.479436E-14	3.269913E-17
4.062404E+03	1.454609E-14	3.215007E-17
4.063877E+03	1.429533E-14	3.159554E-17
4.065349E+03	1.403844E-14	3.102745E-17
4.066822E+03	1.377906E-14	3.045387E-17
4.068284E+03	1.351474E-14	2.986938E-17
4.069757E+03	1.324551E-14	2.927406E-17
4.071229E+03	1.298590E-14	2.869999E-17
4.072702E+03	1.272984E-14	2.813379E-17
4.074164E+03	1.247490E-14	2.757007E-17
4.075637E+03	1.222233E-14	2.701157E-17
4.077109E+03	1.197452E-14	2.646363E-17
4.078582E+03	1.173210E-14	2.592760E-17
4.080044E+03	1.149637E-14	2.540639E-17
4.081517E+03	1.126883E-14	2.490326E-17
4.082989E+03	1.104608E-14	2.441072E-17
4.084462E+03	1.082630E-14	2.392476E-17
4.085924E+03	1.061249E-14	2.345201E-17
4.087397E+03	1.041333E-14	2.301163E-17
4.088869E+03	1.022950E-14	2.260514E-17
4.090342E+03	1.005096E-14	2.221035E-17
4.091804E+03	9.876367E-15	2.182428E-17
4.093277E+03	9.706585E-15	2.144885E-17
4.094749E+03	9.543671E-15	2.108861E-17
4.096222E+03	9.389696E-15	2.074812E-17
4.097684E+03	9.245502E-15	2.042925E-17
4.099157E+03	9.105160E-15	2.011891E-17
4.100629E+03	8.968422E-15	1.981652E-17
4.102102E+03	8.845495E-15	1.954466E-17
4.103564E+03	8.727747E-15	1.928425E-17
4.105037E+03	8.609121E-15	1.902190E-17
