#wls	flux	fluxerr
1.600000E+03	2.957552E-16	6.439441E-18
1.640000E+03	2.981836E-16	6.480169E-18
1.680000E+03	3.005285E-16	6.518554E-18
1.720000E+03	3.028225E-16	6.555295E-18
1.760000E+03	3.050973E-16	6.591069E-18
1.800000E+03	3.072734E-16	6.624147E-18
1.840000E+03	3.093245E-16	6.653963E-18
1.880000E+03	3.113342E-16	6.682312E-18
1.920000E+03	3.131638E-16	6.706213E-18
1.960000E+03	3.148955E-16	6.727432E-18
2.000000E+03	3.164451E-16	6.744176E-18
2.040000E+03	3.178398E-16	6.757034E-18
2.080000E+03	3.189969E-16	6.764264E-18
2.120000E+03	3.200013E-16	6.767686E-18
2.160000E+03	3.208294E-16	6.766814E-18
2.200000E+03	3.214080E-16	6.760124E-18
2.240000E+03	3.218306E-16	6.749611E-18
2.280000E+03	3.220355E-16	6.733999E-18
2.320000E+03	3.221279E-16	6.715515E-18
2.360000E+03	3.220638E-16	6.693250E-18
2.400000E+03	3.219154E-16	6.668726E-18
2.440000E+03	3.217663E-16	6.643675E-18
2.480000E+03	3.216651E-16	6.619085E-18
2.520000E+03	3.216798E-16	6.596335E-18
2.560000E+03	3.220433E-16	6.580146E-18
2.600000E+03	3.228190E-16	6.571722E-18
2.640000E+03	3.241965E-16	6.574801E-18
2.680000E+03	3.263981E-16	6.593714E-18
2.720000E+03	3.296863E-16	6.633528E-18
2.760000E+03	3.344161E-16	6.701062E-18
2.800000E+03	3.409566E-16	6.803291E-18
2.840000E+03	3.497069E-16	6.947630E-18
2.880000E+03	3.613292E-16	7.146545E-18
2.920000E+03	3.763773E-16	7.410092E-18
2.960000E+03	3.957553E-16	7.754956E-18
3.000000E+03	4.203468E-16	8.197031E-18
3.010000E+03	4.274475E-16	8.325240E-18
3.020000E+03	4.349837E-16	8.461521E-18
3.030000E+03	4.429748E-16	8.606218E-18
3.040000E+03	4.513934E-16	8.758764E-18
3.050000E+03	4.603555E-16	8.921367E-18
3.060000E+03	4.697868E-16	9.092549E-18
3.070000E+03	4.797571E-16	9.273622E-18
3.080000E+03	4.902395E-16	9.464018E-18
3.090000E+03	5.013566E-16	9.666061E-18
3.100000E+03	5.130828E-16	9.879206E-18
3.110000E+03	5.254424E-16	1.010387E-17
3.120000E+03	5.384596E-16	1.034046E-17
3.130000E+03	5.521588E-16	1.058939E-17
3.140000E+03	5.665642E-16	1.085106E-17
3.150000E+03	5.817547E-16	1.112693E-17
3.160000E+03	5.976998E-16	1.141634E-17
3.170000E+03	6.144218E-16	1.171966E-17
3.180000E+03	6.319994E-16	1.203831E-17
3.190000E+03	6.503949E-16	1.237150E-17
3.200000E+03	6.696851E-16	1.272062E-17
3.210000E+03	6.898245E-16	1.308473E-17
3.220000E+03	7.108848E-16	1.346510E-17
3.230000E+03	7.328735E-16	1.386179E-17
3.240000E+03	7.557269E-16	1.427353E-17
3.250000E+03	7.795018E-16	1.470129E-17
3.260000E+03	8.042515E-16	1.514600E-17
3.270000E+03	8.298165E-16	1.560456E-17
3.280000E+03	8.562254E-16	1.607743E-17
3.290000E+03	8.834260E-16	1.656356E-17
3.300000E+03	9.113491E-16	1.706157E-17
3.310000E+03	9.399801E-16	1.757111E-17
3.320000E+03	9.691368E-16	1.808871E-17
3.330000E+03	9.986842E-16	1.861179E-17
3.340000E+03	1.028538E-15	1.913874E-17
3.350000E+03	1.058433E-15	1.966461E-17
3.360000E+03	1.088232E-15	2.018681E-17
3.370000E+03	1.117689E-15	2.070081E-17
3.380000E+03	1.146447E-15	2.119999E-17
3.390000E+03	1.174290E-15	2.168043E-17
3.400000E+03	1.200897E-15	2.213628E-17
3.410000E+03	1.226018E-15	2.256303E-17
3.420000E+03	1.249140E-15	2.295138E-17
3.430000E+03	1.270103E-15	2.329856E-17
3.440000E+03	1.288430E-15	2.359602E-17
3.450000E+03	1.304135E-15	2.384425E-17
3.460000E+03	1.316893E-15	2.403753E-17
3.470000E+03	1.326675E-15	2.417562E-17
3.480000E+03	1.333691E-15	2.426258E-17
3.490000E+03	1.338224E-15	2.430383E-17
3.500000E+03	1.340714E-15	2.430756E-17
3.510000E+03	1.341644E-15	2.428270E-17
3.520000E+03	1.341825E-15	2.424405E-17
3.530000E+03	1.341854E-15	2.420244E-17
3.540000E+03	1.342468E-15	2.417115E-17
3.550000E+03	1.344180E-15	2.415938E-17
3.560000E+03	1.347485E-15	2.417585E-17
3.570000E+03	1.352817E-15	2.422822E-17
3.580000E+03	1.360388E-15	2.432009E-17
3.590000E+03	1.370250E-15	2.445214E-17
3.600000E+03	1.382295E-15	2.462221E-17
3.610000E+03	1.396204E-15	2.482444E-17
3.620000E+03	1.411800E-15	2.505550E-17
3.630000E+03	1.428290E-15	2.530115E-17
3.640000E+03	1.445062E-15	2.555048E-17
3.650000E+03	1.461165E-15	2.578667E-17
3.660000E+03	1.475384E-15	2.598839E-17
3.670000E+03	1.486486E-15	2.613413E-17
3.680000E+03	1.493069E-15	2.619959E-17
3.690000E+03	1.493830E-15	2.616244E-17
3.700000E+03	1.487473E-15	2.600057E-17
3.710000E+03	1.473407E-15	2.570443E-17
3.720000E+03	1.451488E-15	2.527229E-17
3.730000E+03	1.422567E-15	2.471976E-17
3.740000E+03	1.388019E-15	2.407142E-17
3.750000E+03	1.350323E-15	2.337079E-17
3.760000E+03	1.312232E-15	2.266574E-17
3.770000E+03	1.276810E-15	2.200918E-17
3.780000E+03	1.247138E-15	2.145381E-17
3.790000E+03	1.226122E-15	2.104895E-17
3.800000E+03	1.216465E-15	2.083997E-17
3.810000E+03	1.220557E-15	2.086656E-17
3.820000E+03	1.240527E-15	2.116356E-17
3.830000E+03	1.278416E-15	2.176398E-17
3.840000E+03	1.336082E-15	2.269745E-17
3.850000E+03	1.414977E-15	2.398640E-17
3.860000E+03	1.516242E-15	2.564781E-17
3.870000E+03	1.640295E-15	2.768623E-17
3.880000E+03	1.786428E-15	3.008718E-17
3.890000E+03	1.952383E-15	3.281023E-17
3.900000E+03	2.134567E-15	3.579282E-17
3.910000E+03	2.327455E-15	3.894067E-17
3.920000E+03	2.524450E-15	4.214235E-17
3.930000E+03	2.718204E-15	4.527493E-17
3.940000E+03	2.901880E-15	4.822505E-17
3.950000E+03	3.069511E-15	5.089484E-17
3.960000E+03	3.216919E-15	5.321693E-17
3.970000E+03	3.341727E-15	5.515431E-17
3.980000E+03	3.443491E-15	5.670222E-17
3.990000E+03	3.522670E-15	5.787078E-17
4.000000E+03	3.579916E-15	5.867324E-17
4.010000E+03	3.616100E-15	5.912635E-17
4.020000E+03	3.631309E-15	5.923399E-17
4.030000E+03	3.625289E-15	5.899442E-17
4.040000E+03	3.597666E-15	5.840410E-17
4.050000E+03	3.548485E-15	5.746628E-17
4.060000E+03	3.478793E-15	5.620044E-17
4.070000E+03	3.390614E-15	5.464168E-17
4.080000E+03	3.287556E-15	5.285021E-17
4.090000E+03	3.173848E-15	5.089569E-17
4.100000E+03	3.054456E-15	4.885886E-17
4.110000E+03	2.934261E-15	4.681834E-17
4.120000E+03	2.817661E-15	4.484429E-17
4.130000E+03	2.708434E-15	4.299631E-17
4.140000E+03	2.609598E-15	4.132133E-17
4.150000E+03	2.523185E-15	3.985021E-17
4.160000E+03	2.450626E-15	3.860402E-17
4.170000E+03	2.392793E-15	3.759480E-17
4.180000E+03	2.349982E-15	3.682540E-17
4.190000E+03	2.322115E-15	3.629277E-17
4.200000E+03	2.308910E-15	3.599066E-17
4.210000E+03	2.309665E-15	3.590635E-17
4.220000E+03	2.323545E-15	3.602515E-17
4.230000E+03	2.349329E-15	3.632655E-17
4.240000E+03	2.385444E-15	3.678475E-17
4.250000E+03	2.430199E-15	3.737247E-17
4.260000E+03	2.481456E-15	3.805579E-17
4.270000E+03	2.537123E-15	3.880189E-17
4.280000E+03	2.595006E-15	3.957672E-17
4.290000E+03	2.652983E-15	4.034769E-17
4.300000E+03	2.709050E-15	4.108440E-17
4.310000E+03	2.761318E-15	4.175850E-17
4.320000E+03	2.807976E-15	4.234315E-17
4.330000E+03	2.847298E-15	4.281311E-17
4.340000E+03	2.877564E-15	4.314352E-17
4.350000E+03	2.897163E-15	4.331147E-17
4.360000E+03	2.904895E-15	4.330047E-17
4.370000E+03	2.900261E-15	4.310466E-17
4.380000E+03	2.883635E-15	4.273120E-17
4.390000E+03	2.856666E-15	4.220602E-17
4.400000E+03	2.823024E-15	4.158459E-17
4.410000E+03	2.788088E-15	4.094678E-17
4.420000E+03	2.757790E-15	4.037965E-17
4.430000E+03	2.737964E-15	3.996776E-17
4.440000E+03	2.734211E-15	3.979123E-17
4.450000E+03	2.751377E-15	3.991824E-17
4.460000E+03	2.793393E-15	4.040283E-17
4.470000E+03	2.863322E-15	4.128583E-17
4.480000E+03	2.962880E-15	4.258810E-17
4.490000E+03	3.092453E-15	4.431117E-17
4.500000E+03	3.250824E-15	4.643357E-17
4.510000E+03	3.434775E-15	4.890550E-17
4.520000E+03	3.639286E-15	5.165219E-17
4.530000E+03	3.857394E-15	5.457228E-17
4.540000E+03	4.080640E-15	5.754456E-17
4.550000E+03	4.299950E-15	6.044071E-17
4.560000E+03	4.506074E-15	6.313161E-17
4.570000E+03	4.690821E-15	6.550464E-17
4.580000E+03	4.847297E-15	6.746676E-17
4.590000E+03	4.970559E-15	6.895322E-17
4.600000E+03	5.057611E-15	6.992719E-17
4.610000E+03	5.107133E-15	7.037546E-17
4.620000E+03	5.119823E-15	7.031285E-17
4.630000E+03	5.097586E-15	6.977055E-17
4.640000E+03	5.043839E-15	6.880004E-17
4.650000E+03	4.963035E-15	6.746629E-17
4.660000E+03	4.860452E-15	6.584462E-17
4.670000E+03	4.741844E-15	6.401579E-17
4.680000E+03	4.613033E-15	6.206041E-17
4.690000E+03	4.479447E-15	6.005276E-17
4.700000E+03	4.345984E-15	5.805894E-17
4.710000E+03	4.216391E-15	5.612889E-17
4.720000E+03	4.093476E-15	5.429932E-17
4.730000E+03	3.979039E-15	5.259314E-17
4.740000E+03	3.874044E-15	5.102185E-17
4.750000E+03	3.778893E-15	4.958943E-17
4.760000E+03	3.693766E-15	4.829687E-17
4.770000E+03	3.618936E-15	4.714629E-17
4.780000E+03	3.554988E-15	4.614387E-17
4.790000E+03	3.502871E-15	4.530033E-17
4.800000E+03	3.463746E-15	4.462897E-17
4.810000E+03	3.438786E-15	4.414300E-17
4.820000E+03	3.428667E-15	4.384902E-17
4.830000E+03	3.433509E-15	4.374647E-17
4.840000E+03	3.452610E-15	4.382429E-17
4.850000E+03	3.484590E-15	4.406298E-17
4.860000E+03	3.527425E-15	4.443520E-17
4.870000E+03	3.578881E-15	4.491137E-17
4.880000E+03	3.636969E-15	4.546536E-17
4.890000E+03	3.700281E-15	4.607871E-17
4.900000E+03	3.768098E-15	4.674174E-17
4.910000E+03	3.840290E-15	4.745221E-17
4.920000E+03	3.916425E-15	4.820417E-17
4.930000E+03	3.995202E-15	4.898112E-17
4.940000E+03	4.073400E-15	4.974334E-17
4.950000E+03	4.145365E-15	5.042216E-17
4.960000E+03	4.203352E-15	5.092467E-17
4.970000E+03	4.238356E-15	5.114423E-17
4.980000E+03	4.241921E-15	5.098258E-17
4.990000E+03	4.208199E-15	5.037426E-17
5.000000E+03	4.135919E-15	4.930954E-17
5.010000E+03	4.029633E-15	4.784807E-17
5.020000E+03	3.899198E-15	4.611134E-17
5.030000E+03	3.758183E-15	4.426266E-17
5.040000E+03	3.621568E-15	4.247928E-17
5.050000E+03	3.503230E-15	4.092268E-17
5.060000E+03	3.414326E-15	3.971999E-17
5.070000E+03	3.362344E-15	3.895376E-17
5.080000E+03	3.351062E-15	3.866225E-17
5.090000E+03	3.380827E-15	3.884360E-17
5.100000E+03	3.448775E-15	3.945915E-17
5.110000E+03	3.549571E-15	4.044269E-17
5.120000E+03	3.675841E-15	4.170586E-17
5.130000E+03	3.818971E-15	4.314775E-17
5.140000E+03	3.969875E-15	4.466376E-17
5.150000E+03	4.120276E-15	4.616013E-17
5.160000E+03	4.263360E-15	4.756096E-17
5.170000E+03	4.394386E-15	4.881471E-17
5.180000E+03	4.510966E-15	4.989672E-17
5.190000E+03	4.612898E-15	5.080690E-17
5.200000E+03	4.701610E-15	5.156304E-17
5.210000E+03	4.779545E-15	5.219373E-17
5.220000E+03	4.849645E-15	5.273254E-17
5.230000E+03	4.914625E-15	5.321001E-17
5.240000E+03	4.976512E-15	5.364879E-17
5.250000E+03	5.036475E-15	5.406191E-17
5.260000E+03	5.094730E-15	5.445200E-17
5.270000E+03	5.150510E-15	5.481120E-17
5.280000E+03	5.202218E-15	5.512299E-17
5.290000E+03	5.248016E-15	5.536861E-17
5.300000E+03	5.285733E-15	5.552613E-17
5.310000E+03	5.313274E-15	5.557479E-17
5.320000E+03	5.328667E-15	5.549549E-17
5.330000E+03	5.329992E-15	5.527001E-17
5.340000E+03	5.315450E-15	5.488172E-17
5.350000E+03	5.283345E-15	5.431533E-17
5.360000E+03	5.232308E-15	5.355921E-17
5.370000E+03	5.161723E-15	5.260958E-17
5.380000E+03	5.072445E-15	5.147768E-17
5.390000E+03	4.967265E-15	5.019417E-17
5.400000E+03	4.851301E-15	4.881256E-17
5.410000E+03	4.731668E-15	4.740549E-17
5.420000E+03	4.617007E-15	4.605957E-17
5.430000E+03	4.516107E-15	4.486142E-17
5.440000E+03	4.436968E-15	4.388836E-17
5.450000E+03	4.385668E-15	4.319750E-17
5.460000E+03	4.365932E-15	4.282184E-17
5.470000E+03	4.378928E-15	4.276890E-17
5.480000E+03	4.423609E-15	4.302447E-17
5.490000E+03	4.497430E-15	4.356008E-17
5.500000E+03	4.593565E-15	4.430640E-17
5.510000E+03	4.694564E-15	4.509322E-17
5.520000E+03	4.782669E-15	4.575014E-17
5.530000E+03	4.843609E-15	4.614285E-17
5.540000E+03	4.868714E-15	4.619231E-17
5.550000E+03	4.855341E-15	4.587778E-17
5.560000E+03	4.806228E-15	4.522944E-17
5.570000E+03	4.727777E-15	4.431137E-17
5.580000E+03	4.627173E-15	4.319389E-17
5.590000E+03	4.510559E-15	4.193654E-17
5.600000E+03	4.380860E-15	4.056808E-17
5.610000E+03	4.237673E-15	3.908613E-17
5.620000E+03	4.077560E-15	3.746045E-17
5.630000E+03	3.895784E-15	3.564941E-17
5.640000E+03	3.688508E-15	3.362021E-17
5.650000E+03	3.455158E-15	3.137021E-17
5.660000E+03	3.199929E-15	2.893992E-17
5.670000E+03	2.931913E-15	2.641333E-17
5.680000E+03	2.663454E-15	2.390232E-17
5.690000E+03	2.407949E-15	2.152648E-17
5.700000E+03	2.177301E-15	1.939022E-17
5.710000E+03	1.980306E-15	1.756885E-17
5.720000E+03	1.822338E-15	1.610627E-17
5.730000E+03	1.705831E-15	1.501984E-17
5.740000E+03	1.631374E-15	1.431049E-17
5.750000E+03	1.598701E-15	1.397167E-17
5.760000E+03	1.607480E-15	1.399638E-17
5.770000E+03	1.657716E-15	1.438064E-17
5.780000E+03	1.749740E-15	1.512337E-17
5.790000E+03	1.883932E-15	1.622394E-17
5.800000E+03	2.059957E-15	1.767563E-17
5.810000E+03	2.275951E-15	1.945874E-17
5.820000E+03	2.527691E-15	2.153380E-17
5.830000E+03	2.807785E-15	2.383502E-17
5.840000E+03	3.105738E-15	2.627132E-17
5.850000E+03	3.408526E-15	2.873157E-17
5.860000E+03	3.702043E-15	3.109715E-17
5.870000E+03	3.972945E-15	3.325747E-17
5.880000E+03	4.210320E-15	3.512371E-17
5.890000E+03	4.406890E-15	3.663850E-17
5.900000E+03	4.559343E-15	3.777808E-17
5.910000E+03	4.667790E-15	3.854721E-17
5.920000E+03	4.735023E-15	3.897270E-17
5.930000E+03	4.765388E-15	3.909363E-17
5.940000E+03	4.764034E-15	3.895517E-17
5.950000E+03	4.735872E-15	3.859990E-17
5.960000E+03	4.685468E-15	3.806703E-17
5.970000E+03	4.616822E-15	3.739066E-17
5.980000E+03	4.533404E-15	3.660017E-17
5.990000E+03	4.438486E-15	3.572293E-17
6.000000E+03	4.335201E-15	3.478487E-17
6.010000E+03	4.226626E-15	3.381113E-17
6.020000E+03	4.116225E-15	3.282963E-17
6.030000E+03	4.007252E-15	3.186628E-17
6.040000E+03	3.903008E-15	3.094702E-17
6.050000E+03	3.806378E-15	3.009427E-17
6.060000E+03	3.719566E-15	2.932478E-17
6.070000E+03	3.644102E-15	2.864983E-17
6.080000E+03	3.580574E-15	2.807323E-17
6.090000E+03	3.528982E-15	2.759414E-17
6.100000E+03	3.488815E-15	2.720779E-17
6.110000E+03	3.459543E-15	2.690930E-17
6.120000E+03	3.440893E-15	2.669588E-17
6.130000E+03	3.433353E-15	2.657069E-17
6.140000E+03	3.437956E-15	2.654104E-17
6.150000E+03	3.456338E-15	2.661889E-17
6.160000E+03	3.490163E-15	2.681629E-17
6.170000E+03	3.540949E-15	2.714413E-17
6.180000E+03	3.609700E-15	2.760927E-17
6.190000E+03	3.696738E-15	2.821338E-17
6.200000E+03	3.802179E-15	2.895656E-17
6.210000E+03	3.926375E-15	2.984079E-17
6.220000E+03	4.070886E-15	3.087722E-17
6.230000E+03	4.239655E-15	3.209499E-17
6.240000E+03	4.440550E-15	3.355269E-17
6.250000E+03	4.673538E-15	3.524897E-17
6.260000E+03	4.920759E-15	3.704834E-17
6.270000E+03	5.162981E-15	3.880597E-17
6.280000E+03	5.382477E-15	4.038935E-17
6.290000E+03	5.564341E-15	4.168788E-17
6.300000E+03	5.697729E-15	4.262200E-17
6.310000E+03	5.776928E-15	4.315083E-17
6.320000E+03	5.801699E-15	4.327442E-17
6.330000E+03	5.776804E-15	4.302997E-17
6.340000E+03	5.710957E-15	4.248374E-17
6.350000E+03	5.614796E-15	4.171584E-17
6.360000E+03	5.499882E-15	4.081276E-17
6.370000E+03	5.376650E-15	3.985217E-17
6.380000E+03	5.253644E-15	3.889736E-17
6.390000E+03	5.137088E-15	3.799418E-17
6.400000E+03	5.030575E-15	3.716886E-17
6.410000E+03	4.935277E-15	3.642968E-17
6.420000E+03	4.850234E-15	3.576919E-17
6.430000E+03	4.772990E-15	3.516894E-17
6.440000E+03	4.699977E-15	3.460243E-17
6.450000E+03	4.627169E-15	3.403984E-17
6.460000E+03	4.550863E-15	3.345386E-17
6.470000E+03	4.468382E-15	3.282477E-17
6.480000E+03	4.378499E-15	3.214355E-17
6.490000E+03	4.281988E-15	3.141587E-17
6.500000E+03	4.181403E-15	3.066041E-17
6.510000E+03	4.080891E-15	2.990748E-17
6.520000E+03	3.985428E-15	2.919337E-17
6.530000E+03	3.900388E-15	2.855726E-17
6.540000E+03	3.827479E-15	2.801143E-17
6.550000E+03	3.763617E-15	2.753311E-17
6.560000E+03	3.705591E-15	2.709862E-17
6.570000E+03	3.650542E-15	2.668697E-17
6.580000E+03	3.595911E-15	2.627933E-17
6.590000E+03	3.539751E-15	2.586142E-17
6.600000E+03	3.480610E-15	2.542256E-17
6.610000E+03	3.417644E-15	2.495654E-17
6.620000E+03	3.350627E-15	2.446167E-17
6.630000E+03	3.279783E-15	2.393953E-17
6.640000E+03	3.205723E-15	2.339455E-17
6.650000E+03	3.129205E-15	2.283219E-17
6.660000E+03	3.051204E-15	2.225954E-17
6.670000E+03	2.972625E-15	2.168314E-17
6.680000E+03	2.894465E-15	2.111022E-17
6.690000E+03	2.817744E-15	2.054817E-17
6.700000E+03	2.743452E-15	2.000416E-17
6.710000E+03	2.672654E-15	1.948592E-17
6.720000E+03	2.606331E-15	1.900055E-17
6.730000E+03	2.545325E-15	1.855415E-17
6.740000E+03	2.490132E-15	1.815030E-17
6.750000E+03	2.440921E-15	1.779019E-17
6.760000E+03	2.397372E-15	1.747148E-17
6.770000E+03	2.358739E-15	1.718868E-17
6.780000E+03	2.323936E-15	1.693387E-17
6.790000E+03	2.291752E-15	1.669820E-17
6.800000E+03	2.261004E-15	1.647304E-17
6.810000E+03	2.230793E-15	1.625182E-17
6.820000E+03	2.200659E-15	1.603118E-17
6.830000E+03	2.170806E-15	1.581260E-17
6.840000E+03	2.141948E-15	1.560127E-17
6.850000E+03	2.115343E-15	1.540635E-17
6.860000E+03	2.092619E-15	1.523968E-17
6.870000E+03	2.075617E-15	1.511466E-17
6.880000E+03	2.066137E-15	1.504439E-17
6.890000E+03	2.065716E-15	1.504004E-17
6.900000E+03	2.075619E-15	1.511079E-17
6.910000E+03	2.096414E-15	1.526076E-17
6.920000E+03	2.128021E-15	1.548935E-17
6.930000E+03	2.169506E-15	1.578972E-17
6.940000E+03	2.219038E-15	1.614853E-17
6.950000E+03	2.274073E-15	1.654725E-17
6.960000E+03	2.331376E-15	1.696232E-17
6.970000E+03	2.387552E-15	1.736904E-17
6.980000E+03	2.439504E-15	1.774489E-17
6.990000E+03	2.484673E-15	1.807126E-17
7.000000E+03	2.521565E-15	1.833731E-17
7.010000E+03	2.549710E-15	1.853965E-17
7.020000E+03	2.569709E-15	1.868269E-17
7.030000E+03	2.582743E-15	1.877503E-17
7.040000E+03	2.590460E-15	1.882869E-17
7.050000E+03	2.594693E-15	1.885702E-17
7.060000E+03	2.597277E-15	1.887336E-17
7.070000E+03	2.599995E-15	1.889070E-17
7.080000E+03	2.604890E-15	1.892389E-17
7.090000E+03	2.613979E-15	1.898759E-17
7.100000E+03	2.629634E-15	1.909904E-17
7.110000E+03	2.654196E-15	1.927522E-17
7.120000E+03	2.690054E-15	1.953351E-17
7.130000E+03	2.739138E-15	1.988790E-17
7.140000E+03	2.802921E-15	2.034909E-17
7.150000E+03	2.882051E-15	2.092178E-17
7.160000E+03	2.976407E-15	2.160512E-17
7.170000E+03	3.084997E-15	2.239192E-17
7.180000E+03	3.206227E-15	2.327064E-17
7.190000E+03	3.338082E-15	2.422674E-17
7.200000E+03	3.478266E-15	2.524358E-17
7.210000E+03	3.624437E-15	2.630428E-17
7.220000E+03	3.774031E-15	2.739030E-17
7.230000E+03	3.924245E-15	2.848142E-17
7.240000E+03	4.071724E-15	2.955337E-17
7.250000E+03	4.212492E-15	3.057744E-17
7.260000E+03	4.341625E-15	3.151797E-17
7.270000E+03	4.453461E-15	3.233396E-17
7.280000E+03	4.542120E-15	3.298278E-17
7.290000E+03	4.601980E-15	3.342365E-17
7.300000E+03	4.628709E-15	3.362506E-17
7.310000E+03	4.620140E-15	3.357120E-17
7.320000E+03	4.577073E-15	3.326775E-17
7.330000E+03	4.502898E-15	3.273918E-17
7.340000E+03	4.403675E-15	3.202933E-17
7.350000E+03	4.286822E-15	3.119198E-17
7.360000E+03	4.160074E-15	3.028323E-17
7.370000E+03	4.030468E-15	2.935415E-17
7.380000E+03	3.903513E-15	2.844483E-17
7.390000E+03	3.782731E-15	2.758087E-17
7.400000E+03	3.669920E-15	2.677542E-17
7.410000E+03	3.565176E-15	2.602920E-17
7.420000E+03	3.467688E-15	2.533635E-17
7.430000E+03	3.375875E-15	2.468536E-17
7.440000E+03	3.288096E-15	2.406426E-17
7.450000E+03	3.202937E-15	2.346270E-17
7.460000E+03	3.119322E-15	2.287278E-17
7.470000E+03	3.036634E-15	2.228994E-17
7.480000E+03	2.954692E-15	2.171279E-17
7.490000E+03	2.873761E-15	2.114323E-17
7.500000E+03	2.794263E-15	2.058431E-17
7.510000E+03	2.716875E-15	2.004098E-17
7.520000E+03	2.642498E-15	1.951987E-17
7.530000E+03	2.572084E-15	1.902801E-17
7.540000E+03	2.506681E-15	1.857319E-17
7.550000E+03	2.447421E-15	1.816384E-17
7.560000E+03	2.395326E-15	1.780768E-17
7.570000E+03	2.351343E-15	1.751194E-17
7.580000E+03	2.315957E-15	1.728049E-17
7.590000E+03	2.289085E-15	1.711300E-17
7.600000E+03	2.269474E-15	1.700039E-17
7.610000E+03	2.254445E-15	1.692284E-17
7.620000E+03	2.241613E-15	1.686259E-17
7.630000E+03	2.237636E-15	1.686992E-17
7.640000E+03	2.249691E-15	1.699950E-17
7.650000E+03	2.282337E-15	1.728667E-17
7.660000E+03	2.338009E-15	1.775109E-17
7.670000E+03	2.417470E-15	1.839991E-17
7.680000E+03	2.519765E-15	1.922730E-17
7.690000E+03	2.642584E-15	2.021707E-17
7.700000E+03	2.781863E-15	2.133948E-17
7.710000E+03	2.931849E-15	2.255148E-17
7.720000E+03	3.085287E-15	2.379804E-17
7.730000E+03	3.233717E-15	2.501415E-17
7.740000E+03	3.367985E-15	2.612873E-17
7.750000E+03	3.479500E-15	2.707413E-17
7.760000E+03	3.560946E-15	2.779188E-17
