#wls	flux	fluxerr
1.600000E+03	1.652100E-16	4.309933E-18
1.640000E+03	1.671028E-16	4.347700E-18
1.680000E+03	1.690432E-16	4.386133E-18
1.720000E+03	1.710297E-16	4.425164E-18
1.760000E+03	1.730904E-16	4.465493E-18
1.800000E+03	1.751952E-16	4.506309E-18
1.840000E+03	1.773430E-16	4.547554E-18
1.880000E+03	1.795632E-16	4.589952E-18
1.920000E+03	1.818260E-16	4.632703E-18
1.960000E+03	1.841624E-16	4.676563E-18
2.000000E+03	1.865743E-16	4.721537E-18
2.040000E+03	1.890331E-16	4.766868E-18
2.080000E+03	1.916052E-16	4.814180E-18
2.120000E+03	1.942334E-16	4.861987E-18
2.160000E+03	1.969561E-16	4.911205E-18
2.200000E+03	1.997826E-16	4.962013E-18
2.240000E+03	2.027570E-16	5.015443E-18
2.280000E+03	2.058622E-16	5.070994E-18
2.320000E+03	2.091160E-16	5.129037E-18
2.360000E+03	2.125733E-16	5.190829E-18
2.400000E+03	2.162611E-16	5.256925E-18
2.440000E+03	2.201772E-16	5.327160E-18
2.480000E+03	2.243922E-16	5.403116E-18
2.520000E+03	2.289496E-16	5.485690E-18
2.560000E+03	2.339000E-16	5.575916E-18
2.600000E+03	2.393016E-16	5.674986E-18
2.640000E+03	2.452571E-16	5.785096E-18
2.680000E+03	2.518081E-16	5.906956E-18
2.720000E+03	2.590787E-16	6.043162E-18
2.760000E+03	2.671324E-16	6.194824E-18
2.800000E+03	2.761579E-16	6.365900E-18
2.840000E+03	2.862086E-16	6.557116E-18
2.880000E+03	2.974684E-16	6.772125E-18
2.920000E+03	3.101443E-16	7.014972E-18
2.960000E+03	3.243840E-16	7.288225E-18
3.000000E+03	3.403993E-16	7.595761E-18
3.010000E+03	3.447359E-16	7.679122E-18
3.020000E+03	3.491916E-16	7.764723E-18
3.030000E+03	3.537700E-16	7.852632E-18
3.040000E+03	3.584752E-16	7.942920E-18
3.050000E+03	3.633578E-16	8.036687E-18
3.060000E+03	3.683761E-16	8.132992E-18
3.070000E+03	3.735345E-16	8.231908E-18
3.080000E+03	3.788854E-16	8.334571E-18
3.090000E+03	3.843861E-16	8.440015E-18
3.100000E+03	3.900410E-16	8.548317E-18
3.110000E+03	3.959043E-16	8.660637E-18
3.120000E+03	4.019320E-16	8.775987E-18
3.130000E+03	4.081286E-16	8.894443E-18
3.140000E+03	4.145500E-16	9.017194E-18
3.150000E+03	4.210982E-16	9.142079E-18
3.160000E+03	4.279336E-16	9.272556E-18
3.170000E+03	4.349039E-16	9.405289E-18
3.180000E+03	4.421185E-16	9.542622E-18
3.190000E+03	4.495279E-16	9.683447E-18
3.200000E+03	4.571343E-16	9.827787E-18
3.210000E+03	4.649954E-16	9.976848E-18
3.220000E+03	4.730567E-16	1.012943E-17
3.230000E+03	4.813176E-16	1.028548E-17
3.240000E+03	4.898337E-16	1.044616E-17
3.250000E+03	4.985437E-16	1.061012E-17
3.260000E+03	5.075005E-16	1.077846E-17
3.270000E+03	5.165756E-16	1.094841E-17
3.280000E+03	5.258765E-16	1.112224E-17
3.290000E+03	5.353891E-16	1.129959E-17
3.300000E+03	5.449685E-16	1.147740E-17
3.310000E+03	5.547149E-16	1.165775E-17
3.320000E+03	5.646006E-16	1.184002E-17
3.330000E+03	5.745268E-16	1.202213E-17
3.340000E+03	5.844529E-16	1.220322E-17
3.350000E+03	5.943334E-16	1.238234E-17
3.360000E+03	6.041873E-16	1.255987E-17
3.370000E+03	6.138949E-16	1.273334E-17
3.380000E+03	6.234018E-16	1.290163E-17
3.390000E+03	6.327243E-16	1.306511E-17
3.400000E+03	6.417409E-16	1.322127E-17
3.410000E+03	6.504044E-16	1.336921E-17
3.420000E+03	6.587477E-16	1.350963E-17
3.430000E+03	6.666702E-16	1.364051E-17
3.440000E+03	6.741553E-16	1.376158E-17
3.450000E+03	6.812754E-16	1.387436E-17
3.460000E+03	6.879718E-16	1.397771E-17
3.470000E+03	6.943504E-16	1.407384E-17
3.480000E+03	7.003849E-16	1.416225E-17
3.490000E+03	7.061380E-16	1.424425E-17
3.500000E+03	7.116856E-16	1.432141E-17
3.510000E+03	7.171886E-16	1.439699E-17
3.520000E+03	7.226637E-16	1.447133E-17
3.530000E+03	7.282048E-16	1.454629E-17
3.540000E+03	7.339805E-16	1.462523E-17
3.550000E+03	7.400005E-16	1.470831E-17
3.560000E+03	7.464176E-16	1.479851E-17
3.570000E+03	7.531396E-16	1.489394E-17
3.580000E+03	7.604430E-16	1.500001E-17
3.590000E+03	7.681192E-16	1.511252E-17
3.600000E+03	7.763249E-16	1.523449E-17
3.610000E+03	7.849591E-16	1.536385E-17
3.620000E+03	7.939756E-16	1.549963E-17
3.630000E+03	8.033879E-16	1.564204E-17
3.640000E+03	8.130338E-16	1.578785E-17
3.650000E+03	8.228183E-16	1.593519E-17
3.660000E+03	8.327233E-16	1.608367E-17
3.670000E+03	8.425688E-16	1.622980E-17
3.680000E+03	8.522645E-16	1.637186E-17
3.690000E+03	8.618203E-16	1.651005E-17
3.700000E+03	8.710200E-16	1.664026E-17
3.710000E+03	8.800979E-16	1.676700E-17
3.720000E+03	8.888211E-16	1.688586E-17
3.730000E+03	8.974196E-16	1.700126E-17
3.740000E+03	9.059124E-16	1.711356E-17
3.750000E+03	9.144445E-16	1.722550E-17
3.760000E+03	9.232853E-16	1.734215E-17
3.770000E+03	9.325631E-16	1.746584E-17
3.780000E+03	9.425145E-16	1.760092E-17
3.790000E+03	9.533874E-16	1.775188E-17
3.800000E+03	9.655189E-16	1.792484E-17
3.810000E+03	9.790584E-16	1.812233E-17
3.820000E+03	9.942184E-16	1.834805E-17
3.830000E+03	1.011176E-15	1.860498E-17
3.840000E+03	1.030156E-15	1.889691E-17
3.850000E+03	1.051144E-15	1.922328E-17
3.860000E+03	1.074157E-15	1.958399E-17
3.870000E+03	1.099143E-15	1.997778E-17
3.880000E+03	1.126076E-15	2.040384E-17
3.890000E+03	1.154670E-15	2.085663E-17
3.900000E+03	1.184661E-15	2.133114E-17
3.910000E+03	1.215728E-15	2.182131E-17
3.920000E+03	1.247601E-15	2.232212E-17
3.930000E+03	1.279647E-15	2.282215E-17
3.940000E+03	1.311642E-15	2.331736E-17
3.950000E+03	1.343024E-15	2.379776E-17
3.960000E+03	1.373345E-15	2.425556E-17
3.970000E+03	1.402301E-15	2.468557E-17
3.980000E+03	1.429277E-15	2.507720E-17
3.990000E+03	1.454182E-15	2.542921E-17
4.000000E+03	1.476635E-15	2.573532E-17
4.010000E+03	1.496324E-15	2.599051E-17
4.020000E+03	1.513512E-15	2.619983E-17
4.030000E+03	1.527799E-15	2.635681E-17
4.040000E+03	1.539365E-15	2.646503E-17
4.050000E+03	1.548335E-15	2.652716E-17
4.060000E+03	1.555039E-15	2.654925E-17
4.070000E+03	1.559612E-15	2.653403E-17
4.080000E+03	1.562244E-15	2.648508E-17
4.090000E+03	1.563540E-15	2.641299E-17
4.100000E+03	1.563759E-15	2.632234E-17
4.110000E+03	1.563300E-15	2.622004E-17
4.120000E+03	1.562568E-15	2.611299E-17
4.130000E+03	1.561956E-15	2.600778E-17
4.140000E+03	1.561844E-15	2.591069E-17
4.150000E+03	1.562582E-15	2.582740E-17
4.160000E+03	1.564481E-15	2.576291E-17
4.170000E+03	1.567814E-15	2.572147E-17
4.180000E+03	1.572807E-15	2.570651E-17
4.190000E+03	1.579755E-15	2.572254E-17
4.200000E+03	1.588538E-15	2.576723E-17
4.210000E+03	1.599346E-15	2.584334E-17
4.220000E+03	1.612191E-15	2.595066E-17
4.230000E+03	1.627036E-15	2.608822E-17
4.240000E+03	1.643787E-15	2.625416E-17
4.250000E+03	1.662303E-15	2.644585E-17
4.260000E+03	1.682398E-15	2.666003E-17
4.270000E+03	1.703718E-15	2.689081E-17
4.280000E+03	1.726251E-15	2.713775E-17
4.290000E+03	1.749455E-15	2.739215E-17
4.300000E+03	1.773282E-15	2.765311E-17
4.310000E+03	1.797163E-15	2.791170E-17
4.320000E+03	1.821061E-15	2.816730E-17
4.330000E+03	1.844437E-15	2.841163E-17
4.340000E+03	1.867189E-15	2.864320E-17
4.350000E+03	1.889008E-15	2.885744E-17
4.360000E+03	1.910066E-15	2.905711E-17
4.370000E+03	1.930211E-15	2.924007E-17
4.380000E+03	1.949376E-15	2.940548E-17
4.390000E+03	1.967841E-15	2.955773E-17
4.400000E+03	1.985810E-15	2.970003E-17
4.410000E+03	2.003537E-15	2.983624E-17
4.420000E+03	2.021165E-15	2.996855E-17
4.430000E+03	2.039144E-15	3.010359E-17
4.440000E+03	2.057782E-15	3.024586E-17
4.450000E+03	2.077359E-15	3.039931E-17
4.460000E+03	2.098102E-15	3.056709E-17
4.470000E+03	2.120012E-15	3.074897E-17
4.480000E+03	2.143276E-15	3.094743E-17
4.490000E+03	2.167825E-15	3.116120E-17
4.500000E+03	2.193469E-15	3.138733E-17
4.510000E+03	2.219754E-15	3.161913E-17
4.520000E+03	2.246418E-15	3.185275E-17
4.530000E+03	2.272810E-15	3.207894E-17
4.540000E+03	2.298678E-15	3.229420E-17
4.550000E+03	2.323126E-15	3.248612E-17
4.560000E+03	2.345565E-15	3.264676E-17
4.570000E+03	2.365752E-15	3.277316E-17
4.580000E+03	2.382886E-15	3.285470E-17
4.590000E+03	2.396566E-15	3.288652E-17
4.600000E+03	2.406813E-15	3.286955E-17
4.610000E+03	2.413142E-15	3.279790E-17
4.620000E+03	2.415506E-15	3.267169E-17
4.630000E+03	2.414129E-15	3.249475E-17
4.640000E+03	2.409193E-15	3.227023E-17
4.650000E+03	2.400967E-15	3.200245E-17
4.660000E+03	2.389643E-15	3.169459E-17
4.670000E+03	2.375626E-15	3.135264E-17
4.680000E+03	2.359656E-15	3.098684E-17
4.690000E+03	2.341887E-15	3.059959E-17
4.700000E+03	2.322778E-15	3.019723E-17
4.710000E+03	2.302921E-15	2.978770E-17
4.720000E+03	2.282741E-15	2.937662E-17
4.730000E+03	2.262490E-15	2.896728E-17
4.740000E+03	2.242676E-15	2.856619E-17
4.750000E+03	2.223485E-15	2.817562E-17
4.760000E+03	2.205350E-15	2.780093E-17
4.770000E+03	2.188388E-15	2.744337E-17
4.780000E+03	2.172952E-15	2.710714E-17
4.790000E+03	2.159222E-15	2.679417E-17
4.800000E+03	2.147202E-15	2.650420E-17
4.810000E+03	2.137130E-15	2.623980E-17
4.820000E+03	2.128933E-15	2.599974E-17
4.830000E+03	2.122760E-15	2.578546E-17
4.840000E+03	2.118457E-15	2.559471E-17
4.850000E+03	2.116081E-15	2.542782E-17
4.860000E+03	2.115385E-15	2.528149E-17
4.870000E+03	2.116336E-15	2.515499E-17
4.880000E+03	2.118600E-15	2.504408E-17
4.890000E+03	2.122057E-15	2.494711E-17
4.900000E+03	2.126301E-15	2.485912E-17
4.910000E+03	2.131153E-15	2.477791E-17
4.920000E+03	2.136298E-15	2.469970E-17
4.930000E+03	2.141290E-15	2.461936E-17
4.940000E+03	2.145835E-15	2.453356E-17
4.950000E+03	2.149803E-15	2.444094E-17
4.960000E+03	2.152999E-15	2.433942E-17
4.970000E+03	2.155180E-15	2.422645E-17
4.980000E+03	2.156328E-15	2.410203E-17
4.990000E+03	2.156656E-15	2.396877E-17
5.000000E+03	2.156365E-15	2.382905E-17
5.010000E+03	2.155628E-15	2.368492E-17
5.020000E+03	2.154835E-15	2.354076E-17
5.030000E+03	2.154573E-15	2.340295E-17
5.040000E+03	2.155329E-15	2.327670E-17
5.050000E+03	2.157471E-15	2.316579E-17
5.060000E+03	2.161461E-15	2.307492E-17
5.070000E+03	2.167821E-15	2.300932E-17
5.080000E+03	2.176856E-15	2.297180E-17
5.090000E+03	2.188634E-15	2.296262E-17
5.100000E+03	2.203221E-15	2.298201E-17
5.110000E+03	2.220686E-15	2.303022E-17
5.120000E+03	2.240846E-15	2.310488E-17
5.130000E+03	2.263281E-15	2.320127E-17
5.140000E+03	2.287729E-15	2.331635E-17
5.150000E+03	2.313602E-15	2.344389E-17
5.160000E+03	2.340391E-15	2.357856E-17
5.170000E+03	2.367705E-15	2.371634E-17
5.180000E+03	2.395021E-15	2.385203E-17
5.190000E+03	2.421704E-15	2.397940E-17
5.200000E+03	2.447434E-15	2.409548E-17
5.210000E+03	2.471663E-15	2.419515E-17
5.220000E+03	2.494183E-15	2.427673E-17
5.230000E+03	2.514562E-15	2.433638E-17
5.240000E+03	2.532711E-15	2.437368E-17
5.250000E+03	2.548310E-15	2.438602E-17
5.260000E+03	2.561376E-15	2.437402E-17
5.270000E+03	2.571682E-15	2.433603E-17
5.280000E+03	2.579332E-15	2.427353E-17
5.290000E+03	2.584328E-15	2.418700E-17
5.300000E+03	2.586419E-15	2.407458E-17
5.310000E+03	2.586119E-15	2.394153E-17
5.320000E+03	2.583259E-15	2.378671E-17
5.330000E+03	2.578154E-15	2.361340E-17
5.340000E+03	2.570868E-15	2.342258E-17
5.350000E+03	2.561659E-15	2.321693E-17
5.360000E+03	2.551114E-15	2.300204E-17
5.370000E+03	2.539138E-15	2.277728E-17
5.380000E+03	2.526519E-15	2.254988E-17
5.390000E+03	2.513341E-15	2.232070E-17
5.400000E+03	2.499963E-15	2.209302E-17
5.410000E+03	2.486847E-15	2.187092E-17
5.420000E+03	2.474246E-15	2.165661E-17
5.430000E+03	2.462175E-15	2.145016E-17
5.440000E+03	2.450786E-15	2.125284E-17
5.450000E+03	2.439781E-15	2.106200E-17
5.460000E+03	2.428926E-15	2.087560E-17
5.470000E+03	2.417624E-15	2.068854E-17
5.480000E+03	2.404950E-15	2.049292E-17
5.490000E+03	2.390176E-15	2.028267E-17
5.500000E+03	2.372525E-15	2.005134E-17
5.510000E+03	2.351864E-15	1.979802E-17
5.520000E+03	2.328139E-15	1.952248E-17
5.530000E+03	2.301179E-15	1.922346E-17
5.540000E+03	2.270921E-15	1.890065E-17
5.550000E+03	2.237545E-15	1.855572E-17
5.560000E+03	2.200766E-15	1.818648E-17
5.570000E+03	2.160627E-15	1.779344E-17
5.580000E+03	2.117500E-15	1.737982E-17
5.590000E+03	2.071382E-15	1.694569E-17
5.600000E+03	2.022627E-15	1.649404E-17
5.610000E+03	1.971794E-15	1.602948E-17
5.620000E+03	1.919417E-15	1.555633E-17
5.630000E+03	1.866010E-15	1.507874E-17
5.640000E+03	1.812460E-15	1.460377E-17
5.650000E+03	1.759197E-15	1.413475E-17
5.660000E+03	1.707281E-15	1.368002E-17
5.670000E+03	1.657296E-15	1.324403E-17
5.680000E+03	1.610100E-15	1.283336E-17
5.690000E+03	1.566339E-15	1.245288E-17
5.700000E+03	1.526781E-15	1.210836E-17
5.710000E+03	1.492028E-15	1.180423E-17
5.720000E+03	1.462516E-15	1.154356E-17
5.730000E+03	1.438741E-15	1.132991E-17
5.740000E+03	1.421005E-15	1.116527E-17
5.750000E+03	1.409499E-15	1.105077E-17
5.760000E+03	1.404216E-15	1.098600E-17
5.770000E+03	1.405188E-15	1.097088E-17
5.780000E+03	1.412169E-15	1.100315E-17
5.790000E+03	1.425027E-15	1.108152E-17
5.800000E+03	1.443201E-15	1.120133E-17
5.810000E+03	1.466159E-15	1.135825E-17
5.820000E+03	1.493427E-15	1.154839E-17
5.830000E+03	1.524104E-15	1.176465E-17
5.840000E+03	1.557446E-15	1.200115E-17
5.850000E+03	1.592568E-15	1.225100E-17
5.860000E+03	1.628460E-15	1.250640E-17
5.870000E+03	1.664288E-15	1.276094E-17
5.880000E+03	1.699168E-15	1.300787E-17
5.890000E+03	1.732287E-15	1.324103E-17
5.900000E+03	1.762836E-15	1.345431E-17
5.910000E+03	1.790326E-15	1.364411E-17
5.920000E+03	1.814322E-15	1.380721E-17
5.930000E+03	1.834543E-15	1.394161E-17
5.940000E+03	1.850764E-15	1.404571E-17
5.950000E+03	1.863112E-15	1.412061E-17
5.960000E+03	1.871752E-15	1.416767E-17
5.970000E+03	1.876968E-15	1.418915E-17
5.980000E+03	1.879044E-15	1.418728E-17
5.990000E+03	1.878654E-15	1.416724E-17
6.000000E+03	1.876121E-15	1.413150E-17
6.010000E+03	1.872120E-15	1.408520E-17
6.020000E+03	1.867149E-15	1.403212E-17
6.030000E+03	1.862025E-15	1.397840E-17
6.040000E+03	1.857155E-15	1.392709E-17
6.050000E+03	1.853247E-15	1.388348E-17
6.060000E+03	1.850888E-15	1.385195E-17
6.070000E+03	1.850650E-15	1.383673E-17
6.080000E+03	1.852979E-15	1.384111E-17
6.090000E+03	1.858604E-15	1.387048E-17
6.100000E+03	1.867828E-15	1.392703E-17
6.110000E+03	1.881240E-15	1.401510E-17
6.120000E+03	1.899312E-15	1.413813E-17
6.130000E+03	1.922384E-15	1.429858E-17
6.140000E+03	1.951100E-15	1.450117E-17
6.150000E+03	1.985631E-15	1.474712E-17
6.160000E+03	2.026531E-15	1.504045E-17
6.170000E+03	2.073820E-15	1.538128E-17
6.180000E+03	2.127713E-15	1.577113E-17
6.190000E+03	2.187982E-15	1.620828E-17
6.200000E+03	2.254477E-15	1.669161E-17
6.210000E+03	2.326177E-15	1.721354E-17
6.220000E+03	2.402116E-15	1.776693E-17
6.230000E+03	2.480360E-15	1.833755E-17
6.240000E+03	2.559150E-15	1.891241E-17
6.250000E+03	2.636818E-15	1.947929E-17
6.260000E+03	2.712161E-15	2.002933E-17
6.270000E+03	2.784183E-15	2.055524E-17
6.280000E+03	2.851684E-15	2.104823E-17
6.290000E+03	2.913820E-15	2.150213E-17
6.300000E+03	2.969044E-15	2.190558E-17
6.310000E+03	3.016488E-15	2.225222E-17
6.320000E+03	3.054767E-15	2.253189E-17
6.330000E+03	3.083235E-15	2.273986E-17
6.340000E+03	3.101399E-15	2.287250E-17
6.350000E+03	3.109112E-15	2.292875E-17
6.360000E+03	3.106578E-15	2.291010E-17
6.370000E+03	3.094316E-15	2.282038E-17
6.380000E+03	3.072934E-15	2.266402E-17
6.390000E+03	3.043751E-15	2.245073E-17
6.400000E+03	3.007509E-15	2.218593E-17
6.410000E+03	2.965687E-15	2.188049E-17
6.420000E+03	2.919070E-15	2.154015E-17
6.430000E+03	2.868897E-15	2.117399E-17
6.440000E+03	2.816302E-15	2.079033E-17
6.450000E+03	2.761816E-15	2.039306E-17
6.460000E+03	2.706319E-15	1.998862E-17
6.470000E+03	2.650377E-15	1.958116E-17
6.480000E+03	2.594389E-15	1.917357E-17
6.490000E+03	2.538573E-15	1.876744E-17
6.500000E+03	2.482827E-15	1.836194E-17
6.510000E+03	2.427309E-15	1.795816E-17
6.520000E+03	2.371652E-15	1.755335E-17
6.530000E+03	2.315717E-15	1.714638E-17
6.540000E+03	2.259556E-15	1.673760E-17
6.550000E+03	2.203941E-15	1.633267E-17
6.560000E+03	2.149200E-15	1.593399E-17
6.570000E+03	2.096038E-15	1.554674E-17
6.580000E+03	2.044493E-15	1.517118E-17
6.590000E+03	1.994926E-15	1.480998E-17
6.600000E+03	1.947114E-15	1.446147E-17
6.610000E+03	1.901214E-15	1.412680E-17
6.620000E+03	1.856901E-15	1.380356E-17
6.630000E+03	1.814174E-15	1.349173E-17
6.640000E+03	1.773029E-15	1.319128E-17
6.650000E+03	1.733172E-15	1.290002E-17
6.660000E+03	1.694646E-15	1.261828E-17
6.670000E+03	1.657415E-15	1.234579E-17
6.680000E+03	1.621463E-15	1.208242E-17
6.690000E+03	1.586884E-15	1.182890E-17
6.700000E+03	1.553513E-15	1.158398E-17
6.710000E+03	1.521466E-15	1.134855E-17
6.720000E+03	1.490773E-15	1.112284E-17
6.730000E+03	1.461462E-15	1.090707E-17
6.740000E+03	1.433560E-15	1.070144E-17
6.750000E+03	1.407090E-15	1.050615E-17
6.760000E+03	1.382071E-15	1.032135E-17
6.770000E+03	1.358522E-15	1.014717E-17
6.780000E+03	1.336453E-15	9.983722E-18
6.790000E+03	1.315883E-15	9.831143E-18
6.800000E+03	1.296826E-15	9.689564E-18
6.810000E+03	1.279305E-15	9.559147E-18
6.820000E+03	1.263348E-15	9.440117E-18
6.830000E+03	1.248990E-15	9.332736E-18
6.840000E+03	1.236268E-15	9.237299E-18
6.850000E+03	1.225155E-15	9.153602E-18
6.860000E+03	1.215842E-15	9.083067E-18
6.870000E+03	1.208297E-15	9.025463E-18
6.880000E+03	1.202558E-15	8.981075E-18
6.890000E+03	1.198648E-15	8.950071E-18
6.900000E+03	1.196579E-15	8.932522E-18
6.910000E+03	1.196268E-15	8.927820E-18
6.920000E+03	1.197825E-15	8.936766E-18
6.930000E+03	1.201125E-15	8.958426E-18
6.940000E+03	1.206097E-15	8.992243E-18
6.950000E+03	1.212576E-15	9.036989E-18
6.960000E+03	1.220601E-15	9.092938E-18
6.970000E+03	1.229990E-15	9.158714E-18
6.980000E+03	1.240561E-15	9.232951E-18
6.990000E+03	1.252358E-15	9.315973E-18
7.000000E+03	1.265228E-15	9.406620E-18
7.010000E+03	1.279034E-15	9.503858E-18
7.020000E+03	1.293895E-15	9.608575E-18
7.030000E+03	1.309662E-15	9.719645E-18
7.040000E+03	1.326524E-15	9.838461E-18
7.050000E+03	1.344392E-15	9.964359E-18
7.060000E+03	1.363527E-15	1.009925E-17
7.070000E+03	1.383888E-15	1.024283E-17
7.080000E+03	1.405783E-15	1.039736E-17
7.090000E+03	1.429195E-15	1.056271E-17
7.100000E+03	1.454358E-15	1.074057E-17
7.110000E+03	1.481495E-15	1.093260E-17
7.120000E+03	1.510544E-15	1.113830E-17
7.130000E+03	1.541660E-15	1.135882E-17
7.140000E+03	1.574861E-15	1.159426E-17
7.150000E+03	1.610093E-15	1.184420E-17
7.160000E+03	1.647219E-15	1.210765E-17
7.170000E+03	1.686006E-15	1.238288E-17
7.180000E+03	1.726117E-15	1.266742E-17
7.190000E+03	1.767099E-15	1.295798E-17
7.200000E+03	1.808387E-15	1.325043E-17
7.210000E+03	1.849307E-15	1.353989E-17
7.220000E+03	1.888972E-15	1.381991E-17
7.230000E+03	1.926755E-15	1.408601E-17
7.240000E+03	1.961526E-15	1.433002E-17
7.250000E+03	1.992604E-15	1.454707E-17
7.260000E+03	2.018865E-15	1.472908E-17
7.270000E+03	2.039733E-15	1.487200E-17
7.280000E+03	2.054267E-15	1.496912E-17
7.290000E+03	2.062056E-15	1.501758E-17
7.300000E+03	2.062758E-15	1.501504E-17
7.310000E+03	2.056249E-15	1.496073E-17
7.320000E+03	2.042629E-15	1.485551E-17
7.330000E+03	2.022216E-15	1.470180E-17
7.340000E+03	1.995522E-15	1.450339E-17
7.350000E+03	1.963101E-15	1.426440E-17
7.360000E+03	1.925988E-15	1.399237E-17
7.370000E+03	1.884814E-15	1.369191E-17
7.380000E+03	1.840709E-15	1.337124E-17
7.390000E+03	1.794337E-15	1.303515E-17
7.400000E+03	1.746661E-15	1.269063E-17
7.410000E+03	1.698468E-15	1.234336E-17
7.420000E+03	1.650467E-15	1.199842E-17
7.430000E+03	1.603277E-15	1.166031E-17
7.440000E+03	1.557341E-15	1.133218E-17
7.450000E+03	1.513307E-15	1.101873E-17
7.460000E+03	1.471362E-15	1.072128E-17
7.470000E+03	1.431995E-15	1.044339E-17
7.480000E+03	1.395274E-15	1.018554E-17
7.490000E+03	1.361476E-15	9.949764E-18
7.500000E+03	1.330741E-15	9.737111E-18
7.510000E+03	1.303086E-15	9.547735E-18
7.520000E+03	1.278735E-15	9.383330E-18
7.530000E+03	1.257629E-15	9.243549E-18
7.540000E+03	1.239696E-15	9.127941E-18
7.550000E+03	1.224990E-15	9.037015E-18
7.560000E+03	1.213473E-15	8.970580E-18
7.570000E+03	1.205087E-15	8.928295E-18
7.580000E+03	1.199751E-15	8.909688E-18
7.590000E+03	1.197277E-15	8.913479E-18
7.600000E+03	1.197649E-15	8.939698E-18
7.610000E+03	1.200517E-15	8.985868E-18
7.620000E+03	1.205795E-15	9.051503E-18
7.630000E+03	1.213454E-15	9.136541E-18
7.640000E+03	1.223516E-15	9.241317E-18
7.650000E+03	1.235876E-15	9.365229E-18
7.660000E+03	1.250584E-15	9.508846E-18
7.670000E+03	1.267312E-15	9.669877E-18
7.680000E+03	1.285906E-15	9.847344E-18
7.690000E+03	1.306082E-15	1.003924E-17
7.700000E+03	1.327500E-15	1.024314E-17
7.710000E+03	1.349690E-15	1.045555E-17
7.720000E+03	1.372402E-15	1.067464E-17
7.730000E+03	1.395018E-15	1.089568E-17
7.740000E+03	1.417175E-15	1.111585E-17
7.750000E+03	1.438439E-15	1.133175E-17
7.760000E+03	1.458324E-15	1.153946E-17
