#wls	flux	fluxerr
1.600000E+03	6.528954E-17	5.123359E-18
1.640000E+03	6.663937E-17	5.210218E-18
1.680000E+03	6.809186E-17	5.303841E-18
1.720000E+03	6.963030E-17	5.402808E-18
1.760000E+03	7.128736E-17	5.509523E-18
1.800000E+03	7.304670E-17	5.622579E-18
1.840000E+03	7.494376E-17	5.744548E-18
1.880000E+03	7.697638E-17	5.875085E-18
1.920000E+03	7.915616E-17	6.014881E-18
1.960000E+03	8.149573E-17	6.164689E-18
2.000000E+03	8.400889E-17	6.325318E-18
2.040000E+03	8.672603E-17	6.498796E-18
2.080000E+03	8.963317E-17	6.683789E-18
2.120000E+03	9.277938E-17	6.883649E-18
2.160000E+03	9.616842E-17	7.098299E-18
2.200000E+03	9.982100E-17	7.328888E-18
2.240000E+03	1.037592E-16	7.576622E-18
2.280000E+03	1.080065E-16	7.842746E-18
2.320000E+03	1.125875E-16	8.128551E-18
2.360000E+03	1.175486E-16	8.436816E-18
2.400000E+03	1.228756E-16	8.765911E-18
2.440000E+03	1.286374E-16	9.120085E-18
2.480000E+03	1.348392E-16	9.498978E-18
2.520000E+03	1.415054E-16	9.903521E-18
2.560000E+03	1.486572E-16	1.033435E-17
2.600000E+03	1.563112E-16	1.079174E-17
2.640000E+03	1.645056E-16	1.127736E-17
2.680000E+03	1.731838E-16	1.178634E-17
2.720000E+03	1.823915E-16	1.232080E-17
2.760000E+03	1.920693E-16	1.287569E-17
2.800000E+03	2.021652E-16	1.344655E-17
2.840000E+03	2.126009E-16	1.402728E-17
2.880000E+03	2.232681E-16	1.460994E-17
2.920000E+03	2.340266E-16	1.518478E-17
2.960000E+03	2.447486E-16	1.574311E-17
3.000000E+03	2.551598E-16	1.626721E-17
3.010000E+03	2.577086E-16	1.639258E-17
3.020000E+03	2.602261E-16	1.651506E-17
3.030000E+03	2.627094E-16	1.663451E-17
3.040000E+03	2.651566E-16	1.675080E-17
3.050000E+03	2.675654E-16	1.686380E-17
3.060000E+03	2.699345E-16	1.697345E-17
3.070000E+03	2.722630E-16	1.707969E-17
3.080000E+03	2.745502E-16	1.718251E-17
3.090000E+03	2.767967E-16	1.728195E-17
3.100000E+03	2.790036E-16	1.737810E-17
3.110000E+03	2.811727E-16	1.747108E-17
3.120000E+03	2.832583E-16	1.755807E-17
3.130000E+03	2.853618E-16	1.764538E-17
3.140000E+03	2.874400E-16	1.773033E-17
3.150000E+03	2.894993E-16	1.781332E-17
3.160000E+03	2.915473E-16	1.789484E-17
3.170000E+03	2.935931E-16	1.797542E-17
3.180000E+03	2.956466E-16	1.805569E-17
3.190000E+03	2.977193E-16	1.813632E-17
3.200000E+03	2.998228E-16	1.821803E-17
3.210000E+03	3.019701E-16	1.830156E-17
3.220000E+03	3.041744E-16	1.838771E-17
3.230000E+03	3.065013E-16	1.848039E-17
3.240000E+03	3.088590E-16	1.857403E-17
3.250000E+03	3.113119E-16	1.867247E-17
3.260000E+03	3.138707E-16	1.877629E-17
3.270000E+03	3.165446E-16	1.888601E-17
3.280000E+03	3.193402E-16	1.900194E-17
3.290000E+03	3.222616E-16	1.912428E-17
3.300000E+03	3.253091E-16	1.925297E-17
3.310000E+03	3.284794E-16	1.938776E-17
3.320000E+03	3.317648E-16	1.952812E-17
3.330000E+03	3.351522E-16	1.967324E-17
3.340000E+03	3.386243E-16	1.982204E-17
3.350000E+03	3.421578E-16	1.997312E-17
3.360000E+03	3.457242E-16	2.012478E-17
3.370000E+03	3.492905E-16	2.027509E-17
3.380000E+03	3.528787E-16	2.042532E-17
3.390000E+03	3.563272E-16	2.056612E-17
3.400000E+03	3.596514E-16	2.069845E-17
3.410000E+03	3.628059E-16	2.081976E-17
3.420000E+03	3.657459E-16	2.092756E-17
3.430000E+03	3.684301E-16	2.101961E-17
3.440000E+03	3.708226E-16	2.109399E-17
3.450000E+03	3.728966E-16	2.114931E-17
3.460000E+03	3.746991E-16	2.118841E-17
3.470000E+03	3.760989E-16	2.120402E-17
3.480000E+03	3.771686E-16	2.120041E-17
3.490000E+03	3.779296E-16	2.117897E-17
3.500000E+03	3.784144E-16	2.114165E-17
3.510000E+03	3.786636E-16	2.109088E-17
3.520000E+03	3.787231E-16	2.102931E-17
3.530000E+03	3.786411E-16	2.095972E-17
3.540000E+03	3.785281E-16	2.088827E-17
3.550000E+03	3.782987E-16	2.081029E-17
3.560000E+03	3.780540E-16	2.073139E-17
3.570000E+03	3.778228E-16	2.065314E-17
3.580000E+03	3.776246E-16	2.057660E-17
3.590000E+03	3.774660E-16	2.050213E-17
3.600000E+03	3.773996E-16	2.043255E-17
3.610000E+03	3.772643E-16	2.035910E-17
3.620000E+03	3.770727E-16	2.028253E-17
3.630000E+03	3.767641E-16	2.019960E-17
3.640000E+03	3.762736E-16	2.010690E-17
3.650000E+03	3.755370E-16	2.000112E-17
3.660000E+03	3.745569E-16	1.988251E-17
3.670000E+03	3.731534E-16	1.974171E-17
3.680000E+03	3.713479E-16	1.958006E-17
3.690000E+03	3.691129E-16	1.939634E-17
3.700000E+03	3.664408E-16	1.919038E-17
3.710000E+03	3.633478E-16	1.896326E-17
3.720000E+03	3.599400E-16	1.872074E-17
3.730000E+03	3.561726E-16	1.846067E-17
3.740000E+03	3.522179E-16	1.819214E-17
3.750000E+03	3.482201E-16	1.792269E-17
3.760000E+03	3.443523E-16	1.766122E-17
3.770000E+03	3.408110E-16	1.741771E-17
3.780000E+03	3.378648E-16	1.720566E-17
3.790000E+03	3.356185E-16	1.703008E-17
3.800000E+03	3.343474E-16	1.690450E-17
3.810000E+03	3.342612E-16	1.683896E-17
3.820000E+03	3.355556E-16	1.684261E-17
3.830000E+03	3.384064E-16	1.692352E-17
3.840000E+03	3.430244E-16	1.709130E-17
3.850000E+03	3.494199E-16	1.734550E-17
3.860000E+03	3.577419E-16	1.769249E-17
3.870000E+03	3.680442E-16	1.813385E-17
3.880000E+03	3.803351E-16	1.866888E-17
3.890000E+03	3.945708E-16	1.929432E-17
3.900000E+03	4.107170E-16	2.000741E-17
3.910000E+03	4.284702E-16	2.079233E-17
3.920000E+03	4.476589E-16	2.163987E-17
3.930000E+03	4.679766E-16	2.253447E-17
3.940000E+03	4.890528E-16	2.345770E-17
3.950000E+03	5.104638E-16	2.438887E-17
3.960000E+03	5.317467E-16	2.530575E-17
3.970000E+03	5.525126E-16	2.618996E-17
3.980000E+03	5.721018E-16	2.701064E-17
3.990000E+03	5.901528E-16	2.775143E-17
4.000000E+03	6.062657E-16	2.839447E-17
4.010000E+03	6.201139E-16	2.892562E-17
4.020000E+03	6.314607E-16	2.933515E-17
4.030000E+03	6.401735E-16	2.961836E-17
4.040000E+03	6.462300E-16	2.977571E-17
4.050000E+03	6.498276E-16	2.981777E-17
4.060000E+03	6.509442E-16	2.974495E-17
4.070000E+03	6.499747E-16	2.957664E-17
4.080000E+03	6.472826E-16	2.933051E-17
4.090000E+03	6.432854E-16	2.902639E-17
4.100000E+03	6.384324E-16	2.868522E-17
4.110000E+03	6.331802E-16	2.832794E-17
4.120000E+03	6.279718E-16	2.797451E-17
4.130000E+03	6.232158E-16	2.764305E-17
4.140000E+03	6.192724E-16	2.734920E-17
4.150000E+03	6.165439E-16	2.711020E-17
4.160000E+03	6.150581E-16	2.692657E-17
4.170000E+03	6.150815E-16	2.680922E-17
4.180000E+03	6.167088E-16	2.676139E-17
4.190000E+03	6.199697E-16	2.678344E-17
4.200000E+03	6.248344E-16	2.687315E-17
4.210000E+03	6.312205E-16	2.702608E-17
4.220000E+03	6.389984E-16	2.723583E-17
4.230000E+03	6.479975E-16	2.749436E-17
4.240000E+03	6.580103E-16	2.779219E-17
4.250000E+03	6.687963E-16	2.811865E-17
4.260000E+03	6.800882E-16	2.846210E-17
4.270000E+03	6.915993E-16	2.881032E-17
4.280000E+03	7.030358E-16	2.915101E-17
4.290000E+03	7.141115E-16	2.947240E-17
4.300000E+03	7.245653E-16	2.976399E-17
4.310000E+03	7.341781E-16	3.001720E-17
4.320000E+03	7.427865E-16	3.022587E-17
4.330000E+03	7.502921E-16	3.038662E-17
4.340000E+03	7.566661E-16	3.049892E-17
4.350000E+03	7.619499E-16	3.056511E-17
4.360000E+03	7.662539E-16	3.059024E-17
4.370000E+03	7.697545E-16	3.058190E-17
4.380000E+03	7.725669E-16	3.054512E-17
4.390000E+03	7.752574E-16	3.050258E-17
4.400000E+03	7.780861E-16	3.046456E-17
4.410000E+03	7.815068E-16	3.044868E-17
4.420000E+03	7.860167E-16	3.047387E-17
4.430000E+03	7.921320E-16	3.055946E-17
4.440000E+03	8.003631E-16	3.072412E-17
4.450000E+03	8.111851E-16	3.098481E-17
4.460000E+03	8.250019E-16	3.135542E-17
4.470000E+03	8.419620E-16	3.183984E-17
4.480000E+03	8.624569E-16	3.245103E-17
4.490000E+03	8.862434E-16	3.317785E-17
4.500000E+03	9.129354E-16	3.400407E-17
4.510000E+03	9.418283E-16	3.490193E-17
4.520000E+03	9.718878E-16	3.583204E-17
4.530000E+03	1.001614E-15	3.673874E-17
4.540000E+03	1.029777E-15	3.757735E-17
4.550000E+03	1.054571E-15	3.828322E-17
4.560000E+03	1.074423E-15	3.880139E-17
4.570000E+03	1.087833E-15	3.908081E-17
4.580000E+03	1.094240E-15	3.910506E-17
4.590000E+03	1.093065E-15	3.885751E-17
4.600000E+03	1.084453E-15	3.834756E-17
4.610000E+03	1.068881E-15	3.759612E-17
4.620000E+03	1.047750E-15	3.665620E-17
4.630000E+03	1.022192E-15	3.557020E-17
4.640000E+03	9.936079E-16	3.438919E-17
4.650000E+03	9.632115E-16	3.315659E-17
4.660000E+03	9.325505E-16	3.192639E-17
4.670000E+03	9.024903E-16	3.072820E-17
4.680000E+03	8.736870E-16	2.958390E-17
4.690000E+03	8.470054E-16	2.852188E-17
4.700000E+03	8.226695E-16	2.754845E-17
4.710000E+03	8.007484E-16	2.666458E-17
4.720000E+03	7.815680E-16	2.587971E-17
4.730000E+03	7.648247E-16	2.518231E-17
4.740000E+03	7.506516E-16	2.457535E-17
4.750000E+03	7.387559E-16	2.404787E-17
4.760000E+03	7.288328E-16	2.358871E-17
4.770000E+03	7.209395E-16	2.319862E-17
4.780000E+03	7.146794E-16	2.286378E-17
4.790000E+03	7.101615E-16	2.258672E-17
4.800000E+03	7.070655E-16	2.235636E-17
4.810000E+03	7.055656E-16	2.217738E-17
4.820000E+03	7.053906E-16	2.204041E-17
4.830000E+03	7.067250E-16	2.195046E-17
4.840000E+03	7.092690E-16	2.189742E-17
4.850000E+03	7.131430E-16	2.188432E-17
4.860000E+03	7.179575E-16	2.189855E-17
4.870000E+03	7.237430E-16	2.194051E-17
4.880000E+03	7.300310E-16	2.199557E-17
4.890000E+03	7.368103E-16	2.206311E-17
4.900000E+03	7.436028E-16	2.212866E-17
4.910000E+03	7.503116E-16	2.218934E-17
4.920000E+03	7.568768E-16	2.224348E-17
4.930000E+03	7.629032E-16	2.227960E-17
4.940000E+03	7.685094E-16	2.230149E-17
4.950000E+03	7.733294E-16	2.229883E-17
4.960000E+03	7.773700E-16	2.227228E-17
4.970000E+03	7.806423E-16	2.222259E-17
4.980000E+03	7.827944E-16	2.214027E-17
4.990000E+03	7.839020E-16	2.202808E-17
5.000000E+03	7.841320E-16	2.189126E-17
5.010000E+03	7.834032E-16	2.172808E-17
5.020000E+03	7.821810E-16	2.155189E-17
5.030000E+03	7.811034E-16	2.138046E-17
5.040000E+03	7.805818E-16	2.122491E-17
5.050000E+03	7.815122E-16	2.110917E-17
5.060000E+03	7.847005E-16	2.105410E-17
5.070000E+03	7.909124E-16	2.107893E-17
5.080000E+03	8.009264E-16	2.120266E-17
5.090000E+03	8.149489E-16	2.142875E-17
5.100000E+03	8.333293E-16	2.176423E-17
5.110000E+03	8.560057E-16	2.220526E-17
5.120000E+03	8.826093E-16	2.274013E-17
5.130000E+03	9.126146E-16	2.335344E-17
5.140000E+03	9.447851E-16	2.401208E-17
5.150000E+03	9.781053E-16	2.468942E-17
5.160000E+03	1.011297E-15	2.535295E-17
5.170000E+03	1.043065E-15	2.597064E-17
5.180000E+03	1.072211E-15	2.651374E-17
5.190000E+03	1.097716E-15	2.695872E-17
5.200000E+03	1.118810E-15	2.728876E-17
5.210000E+03	1.134989E-15	2.749404E-17
5.220000E+03	1.146025E-15	2.757165E-17
5.230000E+03	1.151935E-15	2.752465E-17
5.240000E+03	1.152940E-15	2.736090E-17
5.250000E+03	1.149422E-15	2.709188E-17
5.260000E+03	1.141869E-15	2.673126E-17
5.270000E+03	1.130828E-15	2.629375E-17
5.280000E+03	1.116869E-15	2.579415E-17
5.290000E+03	1.100545E-15	2.524654E-17
5.300000E+03	1.082374E-15	2.466381E-17
5.310000E+03	1.062830E-15	2.405752E-17
5.320000E+03	1.042344E-15	2.343791E-17
5.330000E+03	1.021303E-15	2.281406E-17
5.340000E+03	1.000067E-15	2.219413E-17
5.350000E+03	9.789742E-16	2.158557E-17
5.360000E+03	9.583430E-16	2.099526E-17
5.370000E+03	9.384821E-16	2.042965E-17
5.380000E+03	9.195415E-16	1.989159E-17
5.390000E+03	9.021088E-16	1.939327E-17
5.400000E+03	8.863105E-16	1.893673E-17
5.410000E+03	8.724072E-16	1.852678E-17
5.420000E+03	8.606342E-16	1.816763E-17
5.430000E+03	8.511845E-16	1.786248E-17
5.440000E+03	8.440493E-16	1.761027E-17
5.450000E+03	8.395305E-16	1.741640E-17
5.460000E+03	8.373868E-16	1.727500E-17
5.470000E+03	8.373415E-16	1.717959E-17
5.480000E+03	8.387803E-16	1.711696E-17
5.490000E+03	8.412777E-16	1.707793E-17
5.500000E+03	8.438107E-16	1.704146E-17
5.510000E+03	8.453499E-16	1.698682E-17
5.520000E+03	8.446585E-16	1.688951E-17
5.530000E+03	8.409378E-16	1.673425E-17
5.540000E+03	8.331335E-16	1.650091E-17
5.550000E+03	8.204623E-16	1.617509E-17
5.560000E+03	8.028840E-16	1.575716E-17
5.570000E+03	7.801979E-16	1.524434E-17
5.580000E+03	7.530471E-16	1.465024E-17
5.590000E+03	7.219373E-16	1.398555E-17
5.600000E+03	6.875378E-16	1.326392E-17
5.610000E+03	6.509069E-16	1.250621E-17
5.620000E+03	6.126479E-16	1.172422E-17
5.630000E+03	5.737374E-16	1.093670E-17
5.640000E+03	5.347997E-16	1.015539E-17
5.650000E+03	4.964529E-16	9.391749E-18
5.660000E+03	4.595404E-16	8.661333E-18
5.670000E+03	4.245642E-16	7.973063E-18
5.680000E+03	3.922815E-16	7.340527E-18
5.690000E+03	3.631072E-16	6.770760E-18
5.700000E+03	3.376129E-16	6.273630E-18
5.710000E+03	3.160245E-16	5.852492E-18
5.720000E+03	2.986761E-16	5.512676E-18
5.730000E+03	2.856071E-16	5.254037E-18
5.740000E+03	2.769447E-16	5.078068E-18
5.750000E+03	2.727809E-16	4.985617E-18
5.760000E+03	2.730775E-16	4.975161E-18
5.770000E+03	2.779911E-16	5.048752E-18
5.780000E+03	2.875226E-16	5.205615E-18
5.790000E+03	3.018108E-16	5.447478E-18
5.800000E+03	3.209736E-16	5.775685E-18
5.810000E+03	3.448944E-16	6.187366E-18
5.820000E+03	3.735097E-16	6.680643E-18
5.830000E+03	4.062990E-16	7.245514E-18
5.840000E+03	4.426051E-16	7.869673E-18
5.850000E+03	4.814393E-16	8.535082E-18
5.860000E+03	5.212357E-16	9.213713E-18
5.870000E+03	5.603596E-16	9.876655E-18
5.880000E+03	5.969485E-16	1.049132E-17
5.890000E+03	6.292668E-16	1.102772E-17
5.900000E+03	6.555121E-16	1.145502E-17
5.910000E+03	6.745926E-16	1.175515E-17
5.920000E+03	6.858684E-16	1.191806E-17
5.930000E+03	6.894054E-16	1.194605E-17
5.940000E+03	6.854917E-16	1.184523E-17
5.950000E+03	6.751910E-16	1.163501E-17
5.960000E+03	6.597494E-16	1.133770E-17
5.970000E+03	6.406468E-16	1.097938E-17
5.980000E+03	6.190454E-16	1.058042E-17
5.990000E+03	5.963125E-16	1.016445E-17
6.000000E+03	5.735408E-16	9.750179E-18
6.010000E+03	5.516299E-16	9.352855E-18
6.020000E+03	5.312906E-16	8.984356E-18
6.030000E+03	5.131474E-16	8.654990E-18
6.040000E+03	4.974374E-16	8.368440E-18
6.050000E+03	4.845427E-16	8.130795E-18
6.060000E+03	4.746869E-16	7.945427E-18
6.070000E+03	4.680497E-16	7.814954E-18
6.080000E+03	4.647953E-16	7.741716E-18
6.090000E+03	4.650979E-16	7.728211E-18
6.100000E+03	4.691657E-16	7.777488E-18
6.110000E+03	4.772625E-16	7.893505E-18
6.120000E+03	4.897287E-16	8.081468E-18
6.130000E+03	5.069999E-16	8.348121E-18
6.140000E+03	5.296227E-16	8.702010E-18
6.150000E+03	5.582712E-16	9.153731E-18
6.160000E+03	5.937599E-16	9.716128E-18
6.170000E+03	6.370596E-16	1.040455E-17
6.180000E+03	6.893192E-16	1.123720E-17
6.190000E+03	7.519046E-16	1.223574E-17
6.200000E+03	8.264659E-16	1.342641E-17
6.210000E+03	9.150508E-16	1.484182E-17
6.220000E+03	1.020258E-15	1.652345E-17
6.230000E+03	1.145318E-15	1.852292E-17
6.240000E+03	1.293605E-15	2.089411E-17
6.250000E+03	1.466931E-15	2.366566E-17
6.260000E+03	1.663779E-15	2.681279E-17
6.270000E+03	1.879106E-15	3.025432E-17
6.280000E+03	2.104773E-15	3.385988E-17
6.290000E+03	2.330049E-15	3.745789E-17
6.300000E+03	2.542466E-15	4.084922E-17
6.310000E+03	2.729113E-15	4.382806E-17
6.320000E+03	2.877787E-15	4.619992E-17
6.330000E+03	2.980393E-15	4.783622E-17
6.340000E+03	3.031456E-15	4.864995E-17
6.350000E+03	3.030437E-15	4.863291E-17
6.360000E+03	2.981090E-15	4.784521E-17
6.370000E+03	2.890599E-15	4.640159E-17
6.380000E+03	2.768309E-15	4.445115E-17
6.390000E+03	2.623941E-15	4.214892E-17
6.400000E+03	2.468103E-15	3.966418E-17
6.410000E+03	2.308828E-15	3.712510E-17
6.420000E+03	2.152839E-15	3.463894E-17
6.430000E+03	2.004636E-15	3.227758E-17
6.440000E+03	1.867911E-15	3.010009E-17
6.450000E+03	1.743805E-15	2.812475E-17
6.460000E+03	1.632596E-15	2.635601E-17
6.470000E+03	1.533666E-15	2.478405E-17
6.480000E+03	1.445565E-15	2.338561E-17
6.490000E+03	1.367175E-15	2.214283E-17
6.500000E+03	1.296477E-15	2.102316E-17
6.510000E+03	1.231448E-15	1.999400E-17
6.520000E+03	1.170775E-15	1.903410E-17
6.530000E+03	1.112841E-15	1.811718E-17
6.540000E+03	1.056792E-15	1.722923E-17
6.550000E+03	1.002156E-15	1.636246E-17
6.560000E+03	9.492333E-16	1.552164E-17
6.570000E+03	8.979220E-16	1.470507E-17
6.580000E+03	8.481998E-16	1.391235E-17
6.590000E+03	8.004858E-16	1.315033E-17
6.600000E+03	7.547866E-16	1.241916E-17
6.610000E+03	7.111354E-16	1.171947E-17
6.620000E+03	6.698961E-16	1.105733E-17
6.630000E+03	6.309455E-16	1.043085E-17
6.640000E+03	5.945520E-16	9.844590E-18
6.650000E+03	5.606260E-16	9.297247E-18
6.660000E+03	5.290577E-16	8.787163E-18
6.670000E+03	4.999576E-16	8.316344E-18
6.680000E+03	4.730633E-16	7.880604E-18
6.690000E+03	4.484085E-16	7.480672E-18
6.700000E+03	4.257741E-16	7.113057E-18
6.710000E+03	4.049474E-16	6.774357E-18
6.720000E+03	3.859134E-16	6.464461E-18
6.730000E+03	3.684030E-16	6.178993E-18
6.740000E+03	3.524067E-16	5.917910E-18
6.750000E+03	3.376923E-16	5.677426E-18
6.760000E+03	3.242708E-16	5.457822E-18
6.770000E+03	3.119510E-16	5.255971E-18
6.780000E+03	3.007661E-16	5.072514E-18
6.790000E+03	2.905619E-16	4.904930E-18
6.800000E+03	2.813916E-16	4.754181E-18
6.810000E+03	2.731334E-16	4.618275E-18
6.820000E+03	2.658585E-16	4.498473E-18
6.830000E+03	2.594737E-16	4.393251E-18
6.840000E+03	2.540676E-16	4.304154E-18
6.850000E+03	2.495714E-16	4.230058E-18
6.860000E+03	2.460881E-16	4.172745E-18
6.870000E+03	2.435663E-16	4.131373E-18
6.880000E+03	2.421179E-16	4.107865E-18
6.890000E+03	2.417000E-16	4.101506E-18
6.900000E+03	2.424254E-16	4.114224E-18
6.910000E+03	2.442478E-16	4.145230E-18
6.920000E+03	2.472312E-16	4.195607E-18
6.930000E+03	2.514316E-16	4.266287E-18
6.940000E+03	2.567711E-16	4.355926E-18
6.950000E+03	2.633184E-16	4.465655E-18
6.960000E+03	2.709588E-16	4.593489E-18
6.970000E+03	2.796850E-16	4.739255E-18
6.980000E+03	2.894799E-16	4.902609E-18
6.990000E+03	3.001785E-16	5.080697E-18
7.000000E+03	3.117496E-16	5.272934E-18
7.010000E+03	3.241745E-16	5.478934E-18
7.020000E+03	3.372919E-16	5.695908E-18
7.030000E+03	3.511118E-16	5.923961E-18
7.040000E+03	3.656755E-16	6.163723E-18
7.050000E+03	3.808780E-16	6.413358E-18
7.060000E+03	3.968212E-16	6.674515E-18
7.070000E+03	4.136635E-16	6.949788E-18
7.080000E+03	4.314302E-16	7.239522E-18
7.090000E+03	4.504276E-16	7.548773E-18
7.100000E+03	4.710880E-16	7.884677E-18
7.110000E+03	4.937591E-16	8.252922E-18
7.120000E+03	5.191709E-16	8.665540E-18
7.130000E+03	5.481527E-16	9.136154E-18
7.140000E+03	5.817965E-16	9.682674E-18
7.150000E+03	6.210674E-16	1.032080E-17
7.160000E+03	6.673063E-16	1.107236E-17
7.170000E+03	7.218048E-16	1.195826E-17
7.180000E+03	7.859208E-16	1.300035E-17
7.190000E+03	8.604455E-16	1.421103E-17
7.200000E+03	9.461486E-16	1.560228E-17
7.210000E+03	1.043083E-15	1.717423E-17
7.220000E+03	1.150647E-15	1.891631E-17
7.230000E+03	1.266623E-15	2.079157E-17
7.240000E+03	1.388085E-15	2.275171E-17
7.250000E+03	1.510682E-15	2.472551E-17
7.260000E+03	1.628979E-15	2.662452E-17
7.270000E+03	1.737158E-15	2.835454E-17
7.280000E+03	1.828511E-15	2.980747E-17
7.290000E+03	1.897824E-15	3.089999E-17
7.300000E+03	1.941004E-15	3.156738E-17
7.310000E+03	1.955866E-15	3.177603E-17
7.320000E+03	1.942357E-15	3.152688E-17
7.330000E+03	1.902431E-15	3.085315E-17
7.340000E+03	1.839938E-15	2.981837E-17
7.350000E+03	1.758833E-15	2.848730E-17
7.360000E+03	1.664390E-15	2.694558E-17
7.370000E+03	1.561449E-15	2.527150E-17
7.380000E+03	1.454359E-15	2.353500E-17
7.390000E+03	1.346771E-15	2.179464E-17
7.400000E+03	1.241577E-15	2.009650E-17
7.410000E+03	1.140943E-15	1.847496E-17
7.420000E+03	1.046388E-15	1.695398E-17
7.430000E+03	9.588989E-16	1.554897E-17
7.440000E+03	8.791802E-16	1.427091E-17
7.450000E+03	8.071679E-16	1.311841E-17
7.460000E+03	7.430100E-16	1.209367E-17
7.470000E+03	6.865302E-16	1.119374E-17
7.480000E+03	6.374422E-16	1.041393E-17
7.490000E+03	5.953971E-16	9.748644E-18
7.500000E+03	5.600187E-16	9.191939E-18
7.510000E+03	5.309262E-16	8.737915E-18
7.520000E+03	5.077449E-16	8.380855E-18
7.530000E+03	4.901034E-16	8.115173E-18
7.540000E+03	4.776183E-16	7.935138E-18
7.550000E+03	4.698653E-16	7.834379E-18
7.560000E+03	4.663393E-16	7.805177E-18
7.570000E+03	4.664025E-16	7.837562E-18
7.580000E+03	4.692302E-16	7.918315E-18
7.590000E+03	4.737628E-16	8.030078E-18
7.600000E+03	4.787121E-16	8.151322E-18
7.610000E+03	4.827433E-16	8.259338E-18
7.620000E+03	4.850006E-16	8.339206E-18
7.630000E+03	4.854871E-16	8.390528E-18
7.640000E+03	4.850779E-16	8.428022E-18
7.650000E+03	4.845153E-16	8.464385E-18
7.660000E+03	4.844797E-16	8.511499E-18
7.670000E+03	4.854425E-16	8.577827E-18
7.680000E+03	4.876511E-16	8.668062E-18
7.690000E+03	4.911312E-16	8.783058E-18
7.700000E+03	4.956968E-16	8.919892E-18
7.710000E+03	5.009699E-16	9.072109E-18
7.720000E+03	5.064134E-16	9.230191E-18
7.730000E+03	5.113776E-16	9.382310E-18
7.740000E+03	5.150783E-16	9.513839E-18
7.750000E+03	5.170055E-16	9.614839E-18
7.760000E+03	5.164990E-16	9.672278E-18
