#wls	flux	fluxerr
1.600000E+03	6.999598E-17	5.786858E-18
1.640000E+03	7.154847E-17	5.882773E-18
1.680000E+03	7.320015E-17	5.984664E-18
1.720000E+03	7.495909E-17	6.092988E-18
1.760000E+03	7.683407E-17	6.208239E-18
1.800000E+03	7.884876E-17	6.332080E-18
1.840000E+03	8.098607E-17	6.462864E-18
1.880000E+03	8.328602E-17	6.603502E-18
1.920000E+03	8.573211E-17	6.752356E-18
1.960000E+03	8.836826E-17	6.912541E-18
2.000000E+03	9.119492E-17	7.083686E-18
2.040000E+03	9.424540E-17	7.267940E-18
2.080000E+03	9.750500E-17	7.463689E-18
2.120000E+03	1.010097E-16	7.673182E-18
2.160000E+03	1.047990E-16	7.898848E-18
2.200000E+03	1.088792E-16	8.140488E-18
2.240000E+03	1.132749E-16	8.399263E-18
2.280000E+03	1.180130E-16	8.676384E-18
2.320000E+03	1.231431E-16	8.974651E-18
2.360000E+03	1.286524E-16	9.292189E-18
2.400000E+03	1.346162E-16	9.633427E-18
2.440000E+03	1.410439E-16	9.997911E-18
2.480000E+03	1.479670E-16	1.038666E-17
2.520000E+03	1.554157E-16	1.080049E-17
2.560000E+03	1.634178E-16	1.123993E-17
2.600000E+03	1.720269E-16	1.170713E-17
2.640000E+03	1.812334E-16	1.219983E-17
2.680000E+03	1.910458E-16	1.271690E-17
2.720000E+03	2.014601E-16	1.325639E-17
2.760000E+03	2.124564E-16	1.381523E-17
2.800000E+03	2.239943E-16	1.438909E-17
2.840000E+03	2.360502E-16	1.497480E-17
2.880000E+03	2.484962E-16	1.556268E-17
2.920000E+03	2.611683E-16	1.614125E-17
2.960000E+03	2.740122E-16	1.670623E-17
3.000000E+03	2.868807E-16	1.724794E-17
3.010000E+03	2.900526E-16	1.737675E-17
3.020000E+03	2.932118E-16	1.750323E-17
3.030000E+03	2.963568E-16	1.762731E-17
3.040000E+03	2.995375E-16	1.775195E-17
3.050000E+03	3.026511E-16	1.787105E-17
3.060000E+03	3.058001E-16	1.799067E-17
3.070000E+03	3.088802E-16	1.810468E-17
3.080000E+03	3.119440E-16	1.821619E-17
3.090000E+03	3.150466E-16	1.832840E-17
3.100000E+03	3.180825E-16	1.843519E-17
3.110000E+03	3.211077E-16	1.853981E-17
3.120000E+03	3.241811E-16	1.864565E-17
3.130000E+03	3.271966E-16	1.874661E-17
3.140000E+03	3.302705E-16	1.884936E-17
3.150000E+03	3.332967E-16	1.894781E-17
3.160000E+03	3.363376E-16	1.904553E-17
3.170000E+03	3.394588E-16	1.914621E-17
3.180000E+03	3.425531E-16	1.924377E-17
3.190000E+03	3.457456E-16	1.934523E-17
3.200000E+03	3.489285E-16	1.944449E-17
3.210000E+03	3.522292E-16	1.954865E-17
3.220000E+03	3.555381E-16	1.965155E-17
3.230000E+03	3.589847E-16	1.976032E-17
3.240000E+03	3.624561E-16	1.986867E-17
3.250000E+03	3.660829E-16	1.998371E-17
3.260000E+03	3.697480E-16	2.009896E-17
3.270000E+03	3.735812E-16	2.022143E-17
3.280000E+03	3.774599E-16	2.034437E-17
3.290000E+03	3.815122E-16	2.047464E-17
3.300000E+03	3.856077E-16	2.060514E-17
3.310000E+03	3.898718E-16	2.074251E-17
3.320000E+03	3.941643E-16	2.087920E-17
3.330000E+03	3.986051E-16	2.102152E-17
3.340000E+03	4.030416E-16	2.116134E-17
3.350000E+03	4.075854E-16	2.130450E-17
3.360000E+03	4.121394E-16	2.144587E-17
3.370000E+03	4.165976E-16	2.157994E-17
3.380000E+03	4.210591E-16	2.171190E-17
3.390000E+03	4.253360E-16	2.183209E-17
3.400000E+03	4.295192E-16	2.194529E-17
3.410000E+03	4.334076E-16	2.204135E-17
3.420000E+03	4.370866E-16	2.212478E-17
3.430000E+03	4.404227E-16	2.218901E-17
3.440000E+03	4.432843E-16	2.222769E-17
3.450000E+03	4.457740E-16	2.224629E-17
3.460000E+03	4.477891E-16	2.223996E-17
3.470000E+03	4.492485E-16	2.220505E-17
3.480000E+03	4.503238E-16	2.215040E-17
3.490000E+03	4.509084E-16	2.207107E-17
3.500000E+03	4.512187E-16	2.197796E-17
3.510000E+03	4.512574E-16	2.187140E-17
3.520000E+03	4.510320E-16	2.175196E-17
3.530000E+03	4.507748E-16	2.163099E-17
3.540000E+03	4.504819E-16	2.150832E-17
3.550000E+03	4.501374E-16	2.138324E-17
3.560000E+03	4.499372E-16	2.126504E-17
3.570000E+03	4.497605E-16	2.114795E-17
3.580000E+03	4.497742E-16	2.103977E-17
3.590000E+03	4.499038E-16	2.093690E-17
3.600000E+03	4.500546E-16	2.083488E-17
3.610000E+03	4.503321E-16	2.073856E-17
3.620000E+03	4.505951E-16	2.064139E-17
3.630000E+03	4.506904E-16	2.053640E-17
3.640000E+03	4.506858E-16	2.042680E-17
3.650000E+03	4.504241E-16	2.030558E-17
3.660000E+03	4.497501E-16	2.016597E-17
3.670000E+03	4.487369E-16	2.001153E-17
3.680000E+03	4.472349E-16	1.983590E-17
3.690000E+03	4.450994E-16	1.963304E-17
3.700000E+03	4.424157E-16	1.940717E-17
3.710000E+03	4.390610E-16	1.915334E-17
3.720000E+03	4.349462E-16	1.886818E-17
3.730000E+03	4.302507E-16	1.855999E-17
3.740000E+03	4.250006E-16	1.823032E-17
3.750000E+03	4.193663E-16	1.788684E-17
3.760000E+03	4.135196E-16	1.753713E-17
3.770000E+03	4.078987E-16	1.719983E-17
3.780000E+03	4.027745E-16	1.688613E-17
3.790000E+03	3.984403E-16	1.660791E-17
3.800000E+03	3.953882E-16	1.638499E-17
3.810000E+03	3.938960E-16	1.622789E-17
3.820000E+03	3.942171E-16	1.614586E-17
3.830000E+03	3.967668E-16	1.615452E-17
3.840000E+03	4.017264E-16	1.625958E-17
3.850000E+03	4.092288E-16	1.646468E-17
3.860000E+03	4.195553E-16	1.677923E-17
3.870000E+03	4.327256E-16	1.720200E-17
3.880000E+03	4.486797E-16	1.772861E-17
3.890000E+03	4.674912E-16	1.835996E-17
3.900000E+03	4.889187E-16	1.908461E-17
3.910000E+03	5.125992E-16	1.988665E-17
3.920000E+03	5.383075E-16	2.075581E-17
3.930000E+03	5.654653E-16	2.166855E-17
3.940000E+03	5.933906E-16	2.259792E-17
3.950000E+03	6.216283E-16	2.352620E-17
3.960000E+03	6.493012E-16	2.442025E-17
3.970000E+03	6.759401E-16	2.526300E-17
3.980000E+03	7.007948E-16	2.602739E-17
3.990000E+03	7.231569E-16	2.668860E-17
4.000000E+03	7.427541E-16	2.723847E-17
4.010000E+03	7.590676E-16	2.766009E-17
4.020000E+03	7.716865E-16	2.794094E-17
4.030000E+03	7.807108E-16	2.808724E-17
4.040000E+03	7.860035E-16	2.809664E-17
4.050000E+03	7.875676E-16	2.797186E-17
4.060000E+03	7.859373E-16	2.773436E-17
4.070000E+03	7.812651E-16	2.739169E-17
4.080000E+03	7.743335E-16	2.697321E-17
4.090000E+03	7.656284E-16	2.649728E-17
4.100000E+03	7.556983E-16	2.598396E-17
4.110000E+03	7.454853E-16	2.546626E-17
4.120000E+03	7.354201E-16	2.495897E-17
4.130000E+03	7.263703E-16	2.449126E-17
4.140000E+03	7.186434E-16	2.407274E-17
4.150000E+03	7.129181E-16	2.372513E-17
4.160000E+03	7.092836E-16	2.345008E-17
4.170000E+03	7.081705E-16	2.326039E-17
4.180000E+03	7.095365E-16	2.315306E-17
4.190000E+03	7.132246E-16	2.312146E-17
4.200000E+03	7.193356E-16	2.316739E-17
4.210000E+03	7.274431E-16	2.327575E-17
4.220000E+03	7.375530E-16	2.344552E-17
4.230000E+03	7.491687E-16	2.365986E-17
4.240000E+03	7.622460E-16	2.391654E-17
4.250000E+03	7.762142E-16	2.419697E-17
4.260000E+03	7.909450E-16	2.449676E-17
4.270000E+03	8.057394E-16	2.479405E-17
4.280000E+03	8.203548E-16	2.508152E-17
4.290000E+03	8.340097E-16	2.533564E-17
4.300000E+03	8.463643E-16	2.554685E-17
4.310000E+03	8.571890E-16	2.570914E-17
4.320000E+03	8.659636E-16	2.580801E-17
4.330000E+03	8.728476E-16	2.584943E-17
4.340000E+03	8.775500E-16	2.582600E-17
4.350000E+03	8.804384E-16	2.574977E-17
4.360000E+03	8.813888E-16	2.561819E-17
4.370000E+03	8.807724E-16	2.544308E-17
4.380000E+03	8.790305E-16	2.523800E-17
4.390000E+03	8.762613E-16	2.500639E-17
4.400000E+03	8.730963E-16	2.476669E-17
4.410000E+03	8.702776E-16	2.454009E-17
4.420000E+03	8.682343E-16	2.433843E-17
4.430000E+03	8.679188E-16	2.418791E-17
4.440000E+03	8.703680E-16	2.411646E-17
4.450000E+03	8.762555E-16	2.414130E-17
4.460000E+03	8.866859E-16	2.429105E-17
4.470000E+03	9.026979E-16	2.459192E-17
4.480000E+03	9.247081E-16	2.505269E-17
4.490000E+03	9.532345E-16	2.568469E-17
4.500000E+03	9.881626E-16	2.648212E-17
4.510000E+03	1.028878E-15	2.742595E-17
4.520000E+03	1.073483E-15	2.846359E-17
4.530000E+03	1.119780E-15	2.953566E-17
4.540000E+03	1.164822E-15	3.056426E-17
4.550000E+03	1.205558E-15	3.147049E-17
4.560000E+03	1.238452E-15	3.216438E-17
4.570000E+03	1.261057E-15	3.258592E-17
4.580000E+03	1.271632E-15	3.269443E-17
4.590000E+03	1.269563E-15	3.247886E-17
4.600000E+03	1.255419E-15	3.195840E-17
4.610000E+03	1.230992E-15	3.118289E-17
4.620000E+03	1.198187E-15	3.020400E-17
4.630000E+03	1.159824E-15	2.909533E-17
4.640000E+03	1.118473E-15	2.792285E-17
4.650000E+03	1.076401E-15	2.674378E-17
4.660000E+03	1.035421E-15	2.560291E-17
4.670000E+03	9.968362E-16	2.453176E-17
4.680000E+03	9.614965E-16	2.355010E-17
4.690000E+03	9.298737E-16	2.266814E-17
4.700000E+03	9.021511E-16	2.188889E-17
4.710000E+03	8.783012E-16	2.121021E-17
4.720000E+03	8.581462E-16	2.062639E-17
4.730000E+03	8.413962E-16	2.012916E-17
4.740000E+03	8.276727E-16	1.970826E-17
4.750000E+03	8.165277E-16	1.935199E-17
4.760000E+03	8.074799E-16	1.904807E-17
4.770000E+03	8.000786E-16	1.878517E-17
4.780000E+03	7.939814E-16	1.855469E-17
4.790000E+03	7.890088E-16	1.835196E-17
4.800000E+03	7.851605E-16	1.817658E-17
4.810000E+03	7.825916E-16	1.803171E-17
4.820000E+03	7.814319E-16	1.791987E-17
4.830000E+03	7.821887E-16	1.785214E-17
4.840000E+03	7.848923E-16	1.782855E-17
4.850000E+03	7.895173E-16	1.784787E-17
4.860000E+03	7.958392E-16	1.790439E-17
4.870000E+03	8.033291E-16	1.798569E-17
4.880000E+03	8.117222E-16	1.808547E-17
4.890000E+03	8.203424E-16	1.818841E-17
4.900000E+03	8.287135E-16	1.828392E-17
4.910000E+03	8.363775E-16	1.836200E-17
4.920000E+03	8.434488E-16	1.842535E-17
4.930000E+03	8.497917E-16	1.847121E-17
4.940000E+03	8.554826E-16	1.850144E-17
4.950000E+03	8.604384E-16	1.851447E-17
4.960000E+03	8.648508E-16	1.851462E-17
4.970000E+03	8.682970E-16	1.849305E-17
4.980000E+03	8.701506E-16	1.843682E-17
4.990000E+03	8.700809E-16	1.833946E-17
5.000000E+03	8.672401E-16	1.818385E-17
5.010000E+03	8.615869E-16	1.797004E-17
5.020000E+03	8.531469E-16	1.769951E-17
5.030000E+03	8.425501E-16	1.738619E-17
5.040000E+03	8.313796E-16	1.706331E-17
5.050000E+03	8.210700E-16	1.676037E-17
5.060000E+03	8.137515E-16	1.652035E-17
5.070000E+03	8.109652E-16	1.637338E-17
5.080000E+03	8.144846E-16	1.635358E-17
5.090000E+03	8.251308E-16	1.647526E-17
5.100000E+03	8.437139E-16	1.675213E-17
5.110000E+03	8.699074E-16	1.717514E-17
5.120000E+03	9.031029E-16	1.772981E-17
5.130000E+03	9.420489E-16	1.838943E-17
5.140000E+03	9.844996E-16	1.910854E-17
5.150000E+03	1.028435E-15	1.984706E-17
5.160000E+03	1.071101E-15	2.055173E-17
5.170000E+03	1.110431E-15	2.118364E-17
5.180000E+03	1.144868E-15	2.171449E-17
5.190000E+03	1.172924E-15	2.211792E-17
5.200000E+03	1.194203E-15	2.238874E-17
5.210000E+03	1.208787E-15	2.253080E-17
5.220000E+03	1.216532E-15	2.254374E-17
5.230000E+03	1.218113E-15	2.244232E-17
5.240000E+03	1.214183E-15	2.224058E-17
5.250000E+03	1.205691E-15	2.195766E-17
5.260000E+03	1.193060E-15	2.160274E-17
5.270000E+03	1.177279E-15	2.119501E-17
5.280000E+03	1.159078E-15	2.074854E-17
5.290000E+03	1.139056E-15	2.027479E-17
5.300000E+03	1.117845E-15	1.978554E-17
5.310000E+03	1.095414E-15	1.928064E-17
5.320000E+03	1.072182E-15	1.876778E-17
5.330000E+03	1.048352E-15	1.825072E-17
5.340000E+03	1.024121E-15	1.773308E-17
5.350000E+03	9.997183E-16	1.721884E-17
5.360000E+03	9.754024E-16	1.671248E-17
5.370000E+03	9.514664E-16	1.621893E-17
5.380000E+03	9.282246E-16	1.574338E-17
5.390000E+03	9.060107E-16	1.529123E-17
5.400000E+03	8.851886E-16	1.486829E-17
5.410000E+03	8.661708E-16	1.448104E-17
5.420000E+03	8.494260E-16	1.413684E-17
5.430000E+03	8.354708E-16	1.384367E-17
5.440000E+03	8.248411E-16	1.360976E-17
5.450000E+03	8.180373E-16	1.344261E-17
5.460000E+03	8.154296E-16	1.334754E-17
5.470000E+03	8.171379E-16	1.332578E-17
5.480000E+03	8.229158E-16	1.337260E-17
5.490000E+03	8.320626E-16	1.347600E-17
5.500000E+03	8.432391E-16	1.361379E-17
5.510000E+03	8.550114E-16	1.376256E-17
5.520000E+03	8.651905E-16	1.388707E-17
5.530000E+03	8.716151E-16	1.395292E-17
5.540000E+03	8.723515E-16	1.392962E-17
5.550000E+03	8.660270E-16	1.379589E-17
5.560000E+03	8.519543E-16	1.354143E-17
5.570000E+03	8.307386E-16	1.317646E-17
5.580000E+03	8.032917E-16	1.271587E-17
5.590000E+03	7.710430E-16	1.218256E-17
5.600000E+03	7.353379E-16	1.159790E-17
5.610000E+03	6.976199E-16	1.098463E-17
5.620000E+03	6.585576E-16	1.035315E-17
5.630000E+03	6.184419E-16	9.707867E-18
5.640000E+03	5.776397E-16	9.054388E-18
5.650000E+03	5.362324E-16	8.393817E-18
5.660000E+03	4.945370E-16	7.730960E-18
5.670000E+03	4.534175E-16	7.079157E-18
5.680000E+03	4.137224E-16	6.451460E-18
5.690000E+03	3.767429E-16	5.867776E-18
5.700000E+03	3.435146E-16	5.343968E-18
5.710000E+03	3.148751E-16	4.892769E-18
5.720000E+03	2.915246E-16	4.524743E-18
5.730000E+03	2.736911E-16	4.243103E-18
5.740000E+03	2.615826E-16	4.050747E-18
5.750000E+03	2.551249E-16	3.946196E-18
5.760000E+03	2.543938E-16	3.930301E-18
5.770000E+03	2.593520E-16	4.002156E-18
5.780000E+03	2.701962E-16	4.164455E-18
5.790000E+03	2.870266E-16	4.418374E-18
5.800000E+03	3.101380E-16	4.768062E-18
5.810000E+03	3.395786E-16	5.213832E-18
5.820000E+03	3.753355E-16	5.755033E-18
5.830000E+03	4.170523E-16	6.385721E-18
5.840000E+03	4.636536E-16	7.088966E-18
5.850000E+03	5.136926E-16	7.842228E-18
5.860000E+03	5.648137E-16	8.609228E-18
5.870000E+03	6.144259E-16	9.350315E-18
5.880000E+03	6.597804E-16	1.002370E-17
5.890000E+03	6.979900E-16	1.058577E-17
5.900000E+03	7.269957E-16	1.100583E-17
5.910000E+03	7.455832E-16	1.126618E-17
5.920000E+03	7.531650E-16	1.135879E-17
5.930000E+03	7.504597E-16	1.129542E-17
5.940000E+03	7.388519E-16	1.109781E-17
5.950000E+03	7.203361E-16	1.079671E-17
5.960000E+03	6.967578E-16	1.042045E-17
5.970000E+03	6.702347E-16	1.000121E-17
5.980000E+03	6.425065E-16	9.565263E-18
5.990000E+03	6.149658E-16	9.133515E-18
6.000000E+03	5.887589E-16	8.723018E-18
6.010000E+03	5.644715E-16	8.342368E-18
6.020000E+03	5.427588E-16	8.001089E-18
6.030000E+03	5.240191E-16	7.704824E-18
6.040000E+03	5.085352E-16	7.457444E-18
6.050000E+03	4.965085E-16	7.261573E-18
6.060000E+03	4.880906E-16	7.119067E-18
6.070000E+03	4.834853E-16	7.032509E-18
6.080000E+03	4.826731E-16	7.001200E-18
6.090000E+03	4.858975E-16	7.028245E-18
6.100000E+03	4.933961E-16	7.116620E-18
6.110000E+03	5.055151E-16	7.270830E-18
6.120000E+03	5.227540E-16	7.497524E-18
6.130000E+03	5.458141E-16	7.806169E-18
6.140000E+03	5.756455E-16	8.209683E-18
6.150000E+03	6.134809E-16	8.724875E-18
6.160000E+03	6.608529E-16	9.372652E-18
6.170000E+03	7.195970E-16	1.017801E-17
6.180000E+03	7.918265E-16	1.116966E-17
6.190000E+03	8.798783E-16	1.237923E-17
6.200000E+03	9.862625E-16	1.384055E-17
6.210000E+03	1.113685E-15	1.559000E-17
6.220000E+03	1.265164E-15	1.766817E-17
6.230000E+03	1.444079E-15	2.012053E-17
6.240000E+03	1.653491E-15	2.298799E-17
6.250000E+03	1.893583E-15	2.627159E-17
6.260000E+03	2.160449E-15	2.991617E-17
6.270000E+03	2.444165E-15	3.378424E-17
6.280000E+03	2.730603E-15	3.768165E-17
6.290000E+03	3.002302E-15	4.136953E-17
6.300000E+03	3.240269E-15	4.458922E-17
6.310000E+03	3.426461E-15	4.709616E-17
6.320000E+03	3.546017E-15	4.869007E-17
6.330000E+03	3.591836E-15	4.927713E-17
6.340000E+03	3.562588E-15	4.884203E-17
6.350000E+03	3.464734E-15	4.747532E-17
6.360000E+03	3.310429E-15	4.534433E-17
6.370000E+03	3.114603E-15	4.265340E-17
6.380000E+03	2.894488E-15	3.963756E-17
6.390000E+03	2.664603E-15	3.649424E-17
6.400000E+03	2.437502E-15	3.339383E-17
6.410000E+03	2.222296E-15	3.045971E-17
6.420000E+03	2.025972E-15	2.778650E-17
6.430000E+03	1.851521E-15	2.541437E-17
6.440000E+03	1.699958E-15	2.335681E-17
6.450000E+03	1.570334E-15	2.160066E-17
6.460000E+03	1.461298E-15	2.012742E-17
6.470000E+03	1.370041E-15	1.889872E-17
6.480000E+03	1.293521E-15	1.787301E-17
6.490000E+03	1.229283E-15	1.701674E-17
6.500000E+03	1.174353E-15	1.628918E-17
6.510000E+03	1.125972E-15	1.565236E-17
6.520000E+03	1.082155E-15	1.507887E-17
6.530000E+03	1.040760E-15	1.453877E-17
6.540000E+03	1.000285E-15	1.401084E-17
6.550000E+03	9.603442E-16	1.348932E-17
6.560000E+03	9.203270E-16	1.296529E-17
6.570000E+03	8.804551E-16	1.244151E-17
6.580000E+03	8.406630E-16	1.191672E-17
6.590000E+03	8.010291E-16	1.139173E-17
6.600000E+03	7.620987E-16	1.087406E-17
6.610000E+03	7.239608E-16	1.036483E-17
6.620000E+03	6.871913E-16	9.872192E-18
6.630000E+03	6.518820E-16	9.397483E-18
6.640000E+03	6.184954E-16	8.947436E-18
6.650000E+03	5.870085E-16	8.521863E-18
6.660000E+03	5.577096E-16	8.125131E-18
6.670000E+03	5.304476E-16	7.755268E-18
6.680000E+03	5.053593E-16	7.414511E-18
6.690000E+03	4.821935E-16	7.099433E-18
6.700000E+03	4.609700E-16	6.810569E-18
6.710000E+03	4.413739E-16	6.543511E-18
6.720000E+03	4.233699E-16	6.297949E-18
6.730000E+03	4.066577E-16	6.069621E-18
6.740000E+03	3.912290E-16	5.858583E-18
6.750000E+03	3.768505E-16	5.661509E-18
6.760000E+03	3.635054E-16	5.478296E-18
6.770000E+03	3.511906E-16	5.309047E-18
6.780000E+03	3.397521E-16	5.151574E-18
6.790000E+03	3.292663E-16	5.007167E-18
6.800000E+03	3.196048E-16	4.874004E-18
6.810000E+03	3.108066E-16	4.752799E-18
6.820000E+03	3.029179E-16	4.644381E-18
6.830000E+03	2.958571E-16	4.547619E-18
6.840000E+03	2.897045E-16	4.463857E-18
6.850000E+03	2.845535E-16	4.394650E-18
6.860000E+03	2.803784E-16	4.339716E-18
6.870000E+03	2.773005E-16	4.301044E-18
6.880000E+03	2.754471E-16	4.280717E-18
6.890000E+03	2.748183E-16	4.278850E-18
6.900000E+03	2.755444E-16	4.297572E-18
6.910000E+03	2.777500E-16	4.338921E-18
6.920000E+03	2.814180E-16	4.402724E-18
6.930000E+03	2.866431E-16	4.490532E-18
6.940000E+03	2.934475E-16	4.602759E-18
6.950000E+03	3.018611E-16	4.739914E-18
6.960000E+03	3.117213E-16	4.899473E-18
6.970000E+03	3.229471E-16	5.080159E-18
6.980000E+03	3.353550E-16	5.279072E-18
6.990000E+03	3.487830E-16	5.493620E-18
7.000000E+03	3.629095E-16	5.718682E-18
7.010000E+03	3.776108E-16	5.952237E-18
7.020000E+03	3.927645E-16	6.192278E-18
7.030000E+03	4.083647E-16	6.438631E-18
7.040000E+03	4.242525E-16	6.688704E-18
7.050000E+03	4.404667E-16	6.943022E-18
7.060000E+03	4.569665E-16	7.200858E-18
7.070000E+03	4.736838E-16	7.461049E-18
7.080000E+03	4.905514E-16	7.722456E-18
7.090000E+03	5.075681E-16	7.984981E-18
7.100000E+03	5.249709E-16	8.252273E-18
7.110000E+03	5.430076E-16	8.528140E-18
7.120000E+03	5.625231E-16	8.825751E-18
7.130000E+03	5.846945E-16	9.163415E-18
7.140000E+03	6.110974E-16	9.565585E-18
7.150000E+03	6.436398E-16	1.006176E-17
7.160000E+03	6.844760E-16	1.068511E-17
7.170000E+03	7.358954E-16	1.147063E-17
7.180000E+03	8.001562E-16	1.245260E-17
7.190000E+03	8.792701E-16	1.366114E-17
7.200000E+03	9.749087E-16	1.512084E-17
7.210000E+03	1.087492E-15	1.683667E-17
7.220000E+03	1.216657E-15	1.880136E-17
7.230000E+03	1.360244E-15	2.097998E-17
7.240000E+03	1.514077E-15	2.330676E-17
7.250000E+03	1.671803E-15	2.568310E-17
7.260000E+03	1.825110E-15	2.798112E-17
7.270000E+03	1.964426E-15	3.005484E-17
7.280000E+03	2.080083E-15	3.175811E-17
7.290000E+03	2.163735E-15	3.296627E-17
7.300000E+03	2.209730E-15	3.359675E-17
7.310000E+03	2.216036E-15	3.362264E-17
7.320000E+03	2.184403E-15	3.307453E-17
7.330000E+03	2.119783E-15	3.203109E-17
7.340000E+03	2.028868E-15	3.059650E-17
7.350000E+03	1.920036E-15	2.889933E-17
7.360000E+03	1.800177E-15	2.704468E-17
7.370000E+03	1.675290E-15	2.512337E-17
7.380000E+03	1.549948E-15	2.320409E-17
7.390000E+03	1.427413E-15	2.133535E-17
7.400000E+03	1.309885E-15	1.954947E-17
7.410000E+03	1.198785E-15	1.786689E-17
7.420000E+03	1.094994E-15	1.629992E-17
7.430000E+03	9.990236E-16	1.485526E-17
7.440000E+03	9.109778E-16	1.353364E-17
7.450000E+03	8.312089E-16	1.233945E-17
7.460000E+03	7.594558E-16	1.126805E-17
7.470000E+03	6.954945E-16	1.031538E-17
7.480000E+03	6.390144E-16	9.476151E-18
7.490000E+03	5.896616E-16	8.744550E-18
7.500000E+03	5.470018E-16	8.113710E-18
7.510000E+03	5.109113E-16	7.581488E-18
7.520000E+03	4.810521E-16	7.142668E-18
7.530000E+03	4.572215E-16	6.794146E-18
7.540000E+03	4.392236E-16	6.533012E-18
7.550000E+03	4.267528E-16	6.354807E-18
7.560000E+03	4.195932E-16	6.256486E-18
7.570000E+03	4.171168E-16	6.228922E-18
7.580000E+03	4.184837E-16	6.259837E-18
7.590000E+03	4.224819E-16	6.331366E-18
7.600000E+03	4.278425E-16	6.424697E-18
7.610000E+03	4.330569E-16	6.517293E-18
7.620000E+03	4.371850E-16	6.594994E-18
7.630000E+03	4.401964E-16	6.657258E-18
7.640000E+03	4.430007E-16	6.717773E-18
7.650000E+03	4.465168E-16	6.790514E-18
7.660000E+03	4.515951E-16	6.888576E-18
7.670000E+03	4.591060E-16	7.025543E-18
7.680000E+03	4.694382E-16	7.207804E-18
7.690000E+03	4.826432E-16	7.436683E-18
7.700000E+03	4.986180E-16	7.711171E-18
7.710000E+03	5.166403E-16	8.020672E-18
7.720000E+03	5.356112E-16	8.348587E-18
7.730000E+03	5.543810E-16	8.677280E-18
7.740000E+03	5.713553E-16	8.981826E-18
7.750000E+03	5.848952E-16	9.236149E-18
7.760000E+03	5.937909E-16	9.420473E-18
