#wls	flux	fluxerr
1.600000E+03	5.579881E-17	4.036933E-18
1.640000E+03	5.703793E-17	4.114064E-18
1.680000E+03	5.836332E-17	4.196537E-18
1.720000E+03	5.978202E-17	4.284771E-18
1.760000E+03	6.130172E-17	4.379219E-18
1.800000E+03	6.293080E-17	4.480376E-18
1.840000E+03	6.467838E-17	4.588772E-18
1.880000E+03	6.655439E-17	4.704985E-18
1.920000E+03	6.856963E-17	4.829637E-18
1.960000E+03	7.073584E-17	4.963397E-18
2.000000E+03	7.307879E-17	5.107901E-18
2.040000E+03	7.558650E-17	5.262115E-18
2.080000E+03	7.830040E-17	5.428719E-18
2.120000E+03	8.120885E-17	5.606671E-18
2.160000E+03	8.435737E-17	5.798863E-18
2.200000E+03	8.773431E-17	6.004211E-18
2.240000E+03	9.138934E-17	6.225809E-18
2.280000E+03	9.532709E-17	6.463626E-18
2.320000E+03	9.954999E-17	6.717462E-18
2.360000E+03	1.041131E-16	6.990634E-18
2.400000E+03	1.090192E-16	7.282878E-18
2.440000E+03	1.142872E-16	7.594977E-18
2.480000E+03	1.199338E-16	7.927530E-18
2.520000E+03	1.259723E-16	8.280867E-18
2.560000E+03	1.324345E-16	8.656492E-18
2.600000E+03	1.392762E-16	9.050897E-18
2.640000E+03	1.465114E-16	9.464389E-18
2.680000E+03	1.541469E-16	9.896758E-18
2.720000E+03	1.620928E-16	1.034159E-17
2.760000E+03	1.703174E-16	1.079632E-17
2.800000E+03	1.787703E-16	1.125720E-17
2.840000E+03	1.873098E-16	1.171487E-17
2.880000E+03	1.957536E-16	1.215767E-17
2.920000E+03	2.039813E-16	1.257810E-17
2.960000E+03	2.117286E-16	1.296002E-17
3.000000E+03	2.186808E-16	1.328479E-17
3.010000E+03	2.202736E-16	1.335588E-17
3.020000E+03	2.217941E-16	1.342211E-17
3.030000E+03	2.232370E-16	1.348318E-17
3.040000E+03	2.245966E-16	1.353877E-17
3.050000E+03	2.258673E-16	1.358856E-17
3.060000E+03	2.270436E-16	1.363227E-17
3.070000E+03	2.281195E-16	1.366957E-17
3.080000E+03	2.290897E-16	1.370016E-17
3.090000E+03	2.299484E-16	1.372374E-17
3.100000E+03	2.306904E-16	1.374004E-17
3.110000E+03	2.313104E-16	1.374878E-17
3.120000E+03	2.318037E-16	1.374974E-17
3.130000E+03	2.321663E-16	1.374272E-17
3.140000E+03	2.323951E-16	1.372758E-17
3.150000E+03	2.324882E-16	1.370427E-17
3.160000E+03	2.324462E-16	1.367285E-17
3.170000E+03	2.322725E-16	1.363360E-17
3.180000E+03	2.319751E-16	1.358702E-17
3.190000E+03	2.315676E-16	1.353396E-17
3.200000E+03	2.310708E-16	1.347567E-17
3.210000E+03	2.305136E-16	1.341387E-17
3.220000E+03	2.299331E-16	1.335074E-17
3.230000E+03	2.293741E-16	1.328888E-17
3.240000E+03	2.288874E-16	1.323122E-17
3.250000E+03	2.285279E-16	1.318090E-17
3.260000E+03	2.283500E-16	1.314101E-17
3.270000E+03	2.284055E-16	1.311444E-17
3.280000E+03	2.287396E-16	1.310371E-17
3.290000E+03	2.293884E-16	1.311074E-17
3.300000E+03	2.303773E-16	1.313689E-17
3.310000E+03	2.317199E-16	1.318277E-17
3.320000E+03	2.334192E-16	1.324842E-17
3.330000E+03	2.354672E-16	1.333324E-17
3.340000E+03	2.378472E-16	1.343615E-17
3.350000E+03	2.405344E-16	1.355560E-17
3.360000E+03	2.434960E-16	1.368964E-17
3.370000E+03	2.466917E-16	1.383587E-17
3.380000E+03	2.500725E-16	1.399147E-17
3.390000E+03	2.535793E-16	1.415305E-17
3.400000E+03	2.571425E-16	1.431668E-17
3.410000E+03	2.606823E-16	1.447790E-17
3.420000E+03	2.641105E-16	1.463183E-17
3.430000E+03	2.673358E-16	1.477346E-17
3.440000E+03	2.703173E-16	1.490062E-17
3.450000E+03	2.728840E-16	1.500401E-17
3.460000E+03	2.750257E-16	1.508324E-17
3.470000E+03	2.767123E-16	1.513683E-17
3.480000E+03	2.779449E-16	1.516503E-17
3.490000E+03	2.787561E-16	1.516981E-17
3.500000E+03	2.792064E-16	1.515464E-17
3.510000E+03	2.793779E-16	1.512410E-17
3.520000E+03	2.793645E-16	1.508340E-17
3.530000E+03	2.792646E-16	1.503790E-17
3.540000E+03	2.791706E-16	1.499262E-17
3.550000E+03	2.791648E-16	1.495195E-17
3.560000E+03	2.793132E-16	1.491938E-17
3.570000E+03	2.796639E-16	1.489741E-17
3.580000E+03	2.802454E-16	1.488746E-17
3.590000E+03	2.810655E-16	1.488985E-17
3.600000E+03	2.821095E-16	1.490369E-17
3.610000E+03	2.833408E-16	1.492696E-17
3.620000E+03	2.847029E-16	1.495660E-17
3.630000E+03	2.861230E-16	1.498874E-17
3.640000E+03	2.875667E-16	1.502157E-17
3.650000E+03	2.888399E-16	1.504494E-17
3.660000E+03	2.898916E-16	1.505630E-17
3.670000E+03	2.906154E-16	1.505022E-17
3.680000E+03	2.909022E-16	1.502122E-17
3.690000E+03	2.906439E-16	1.496394E-17
3.700000E+03	2.897415E-16	1.487353E-17
3.710000E+03	2.881149E-16	1.474620E-17
3.720000E+03	2.857178E-16	1.457991E-17
3.730000E+03	2.825510E-16	1.437507E-17
3.740000E+03	2.786743E-16	1.413506E-17
3.750000E+03	2.742106E-16	1.386643E-17
3.760000E+03	2.693433E-16	1.357871E-17
3.770000E+03	2.643058E-16	1.328380E-17
3.780000E+03	2.593656E-16	1.299522E-17
3.790000E+03	2.548073E-16	1.272714E-17
3.800000E+03	2.509155E-16	1.249355E-17
3.810000E+03	2.479619E-16	1.230763E-17
3.820000E+03	2.461966E-16	1.218132E-17
3.830000E+03	2.458845E-16	1.212713E-17
3.840000E+03	2.471326E-16	1.214964E-17
3.850000E+03	2.501437E-16	1.225803E-17
3.860000E+03	2.550434E-16	1.245761E-17
3.870000E+03	2.619195E-16	1.275174E-17
3.880000E+03	2.708159E-16	1.314160E-17
3.890000E+03	2.817251E-16	1.362585E-17
3.900000E+03	2.945777E-16	1.420016E-17
3.910000E+03	3.092340E-16	1.485687E-17
3.920000E+03	3.254756E-16	1.558463E-17
3.930000E+03	3.430035E-16	1.636838E-17
3.940000E+03	3.614426E-16	1.718965E-17
3.950000E+03	3.803538E-16	1.802715E-17
3.960000E+03	3.992545E-16	1.885784E-17
3.970000E+03	4.176431E-16	1.965809E-17
3.980000E+03	4.350280E-16	2.040508E-17
3.990000E+03	4.509567E-16	2.107812E-17
4.000000E+03	4.650401E-16	2.165980E-17
4.010000E+03	4.769732E-16	2.213685E-17
4.020000E+03	4.865486E-16	2.250075E-17
4.030000E+03	4.936638E-16	2.274792E-17
4.040000E+03	4.983237E-16	2.287982E-17
4.050000E+03	5.006387E-16	2.290271E-17
4.060000E+03	5.008174E-16	2.282727E-17
4.070000E+03	4.991566E-16	2.266807E-17
4.080000E+03	4.960259E-16	2.244273E-17
4.090000E+03	4.918483E-16	2.217108E-17
4.100000E+03	4.870785E-16	2.187407E-17
4.110000E+03	4.821795E-16	2.157273E-17
4.120000E+03	4.775988E-16	2.128707E-17
4.130000E+03	4.737468E-16	2.103516E-17
4.140000E+03	4.709767E-16	2.083226E-17
4.150000E+03	4.695695E-16	2.069021E-17
4.160000E+03	4.697225E-16	2.061697E-17
4.170000E+03	4.715446E-16	2.061652E-17
4.180000E+03	4.750564E-16	2.068889E-17
4.190000E+03	4.801968E-16	2.083058E-17
4.200000E+03	4.868359E-16	2.103513E-17
4.210000E+03	4.947910E-16	2.129391E-17
4.220000E+03	5.038435E-16	2.159686E-17
4.230000E+03	5.137533E-16	2.193317E-17
4.240000E+03	5.242706E-16	2.229177E-17
4.250000E+03	5.351422E-16	2.266162E-17
4.260000E+03	5.461174E-16	2.303196E-17
4.270000E+03	5.569521E-16	2.339248E-17
4.280000E+03	5.674169E-16	2.373366E-17
4.290000E+03	5.773082E-16	2.404720E-17
4.300000E+03	5.864629E-16	2.432664E-17
4.310000E+03	5.947711E-16	2.456783E-17
4.320000E+03	6.021847E-16	2.476922E-17
4.330000E+03	6.087194E-16	2.493194E-17
4.340000E+03	6.144509E-16	2.505952E-17
4.350000E+03	6.195080E-16	2.515763E-17
4.360000E+03	6.240637E-16	2.523362E-17
4.370000E+03	6.283286E-16	2.529622E-17
4.380000E+03	6.324406E-16	2.535114E-17
4.390000E+03	6.369072E-16	2.541871E-17
4.400000E+03	6.419650E-16	2.550814E-17
4.410000E+03	6.480085E-16	2.563475E-17
4.420000E+03	6.554581E-16	2.581456E-17
4.430000E+03	6.647377E-16	2.606348E-17
4.440000E+03	6.762528E-16	2.639638E-17
4.450000E+03	6.903654E-16	2.682615E-17
4.460000E+03	7.073604E-16	2.736244E-17
4.470000E+03	7.274002E-16	2.801001E-17
4.480000E+03	7.504710E-16	2.876670E-17
4.490000E+03	7.761911E-16	2.961636E-17
4.500000E+03	8.042861E-16	3.054717E-17
4.510000E+03	8.337657E-16	3.152042E-17
4.520000E+03	8.634409E-16	3.249064E-17
4.530000E+03	8.918387E-16	3.340255E-17
4.540000E+03	9.173042E-16	3.419513E-17
4.550000E+03	9.381547E-16	3.480749E-17
4.560000E+03	9.528674E-16	3.518582E-17
4.570000E+03	9.601076E-16	3.528430E-17
4.580000E+03	9.595478E-16	3.509490E-17
4.590000E+03	9.509694E-16	3.461377E-17
4.600000E+03	9.349203E-16	3.386501E-17
4.610000E+03	9.124632E-16	3.289085E-17
4.620000E+03	8.850176E-16	3.174561E-17
4.630000E+03	8.540242E-16	3.048335E-17
4.640000E+03	8.213571E-16	2.917253E-17
4.650000E+03	7.882845E-16	2.785885E-17
4.660000E+03	7.559821E-16	2.658387E-17
4.670000E+03	7.253437E-16	2.537846E-17
4.680000E+03	6.968676E-16	2.425911E-17
4.690000E+03	6.711729E-16	2.324611E-17
4.700000E+03	6.483135E-16	2.233986E-17
4.710000E+03	6.283194E-16	2.153988E-17
4.720000E+03	6.111146E-16	2.084207E-17
4.730000E+03	5.964503E-16	2.023651E-17
4.740000E+03	5.843419E-16	1.972238E-17
4.750000E+03	5.744712E-16	1.928765E-17
4.760000E+03	5.666178E-16	1.892377E-17
4.770000E+03	5.605698E-16	1.862263E-17
4.780000E+03	5.560403E-16	1.837381E-17
4.790000E+03	5.530556E-16	1.817737E-17
4.800000E+03	5.513842E-16	1.802492E-17
4.810000E+03	5.509143E-16	1.791213E-17
4.820000E+03	5.514537E-16	1.783217E-17
4.830000E+03	5.530924E-16	1.778738E-17
4.840000E+03	5.556229E-16	1.777057E-17
4.850000E+03	5.588121E-16	1.777384E-17
4.860000E+03	5.626850E-16	1.779765E-17
4.870000E+03	5.669587E-16	1.783275E-17
4.880000E+03	5.714340E-16	1.787270E-17
4.890000E+03	5.758184E-16	1.790831E-17
4.900000E+03	5.801369E-16	1.794040E-17
4.910000E+03	5.841590E-16	1.796194E-17
4.920000E+03	5.877001E-16	1.796745E-17
4.930000E+03	5.909248E-16	1.796221E-17
4.940000E+03	5.937365E-16	1.794346E-17
4.950000E+03	5.960551E-16	1.790903E-17
4.960000E+03	5.981046E-16	1.786589E-17
4.970000E+03	5.997889E-16	1.781133E-17
4.980000E+03	6.009982E-16	1.774232E-17
4.990000E+03	6.019374E-16	1.766514E-17
5.000000E+03	6.025434E-16	1.757810E-17
5.010000E+03	6.028325E-16	1.748186E-17
5.020000E+03	6.032423E-16	1.738922E-17
5.030000E+03	6.040308E-16	1.730752E-17
5.040000E+03	6.055763E-16	1.724735E-17
5.050000E+03	6.086551E-16	1.723032E-17
5.060000E+03	6.136667E-16	1.726690E-17
5.070000E+03	6.214033E-16	1.737827E-17
5.080000E+03	6.322550E-16	1.757391E-17
5.090000E+03	6.464525E-16	1.785863E-17
5.100000E+03	6.643450E-16	1.824036E-17
5.110000E+03	6.855832E-16	1.870774E-17
5.120000E+03	7.099887E-16	1.925430E-17
5.130000E+03	7.367551E-16	1.985678E-17
5.140000E+03	7.648075E-16	2.048529E-17
5.150000E+03	7.932753E-16	2.111609E-17
5.160000E+03	8.206824E-16	2.171003E-17
5.170000E+03	8.461251E-16	2.224397E-17
5.180000E+03	8.682803E-16	2.268441E-17
5.190000E+03	8.866238E-16	2.301944E-17
5.200000E+03	9.003069E-16	2.322911E-17
5.210000E+03	9.093592E-16	2.331652E-17
5.220000E+03	9.136092E-16	2.327959E-17
5.230000E+03	9.130973E-16	2.312171E-17
5.240000E+03	9.085011E-16	2.286222E-17
5.250000E+03	8.999948E-16	2.250745E-17
5.260000E+03	8.884400E-16	2.208063E-17
5.270000E+03	8.741100E-16	2.158996E-17
5.280000E+03	8.578717E-16	2.105797E-17
5.290000E+03	8.399599E-16	2.049123E-17
5.300000E+03	8.211441E-16	1.990914E-17
5.310000E+03	8.015741E-16	1.931568E-17
5.320000E+03	7.817857E-16	1.872395E-17
5.330000E+03	7.622726E-16	1.814577E-17
5.340000E+03	7.431148E-16	1.758285E-17
5.350000E+03	7.248944E-16	1.704868E-17
5.360000E+03	7.076669E-16	1.654410E-17
5.370000E+03	6.919571E-16	1.608083E-17
5.380000E+03	6.777757E-16	1.565845E-17
5.390000E+03	6.655705E-16	1.528657E-17
5.400000E+03	6.552903E-16	1.496319E-17
5.410000E+03	6.471909E-16	1.469332E-17
5.420000E+03	6.414791E-16	1.448075E-17
5.430000E+03	6.379785E-16	1.432061E-17
5.440000E+03	6.368710E-16	1.421611E-17
5.450000E+03	6.377894E-16	1.415825E-17
5.460000E+03	6.405342E-16	1.414190E-17
5.470000E+03	6.447079E-16	1.415772E-17
5.480000E+03	6.493704E-16	1.418473E-17
5.490000E+03	6.538688E-16	1.420862E-17
5.500000E+03	6.571378E-16	1.420641E-17
5.510000E+03	6.586176E-16	1.416646E-17
5.520000E+03	6.578665E-16	1.407988E-17
5.530000E+03	6.541553E-16	1.393183E-17
5.540000E+03	6.471628E-16	1.371636E-17
5.550000E+03	6.366953E-16	1.343033E-17
5.560000E+03	6.224141E-16	1.306759E-17
5.570000E+03	6.045129E-16	1.263319E-17
5.580000E+03	5.833629E-16	1.213578E-17
5.590000E+03	5.591783E-16	1.158057E-17
5.600000E+03	5.325682E-16	1.098081E-17
5.610000E+03	5.041617E-16	1.034992E-17
5.620000E+03	4.743279E-16	9.695737E-18
5.630000E+03	4.436924E-16	9.031217E-18
5.640000E+03	4.128566E-16	8.368578E-18
5.650000E+03	3.822160E-16	7.715693E-18
5.660000E+03	3.524076E-16	7.085163E-18
5.670000E+03	3.240084E-16	6.488188E-18
5.680000E+03	2.976373E-16	5.936638E-18
5.690000E+03	2.737105E-16	5.438179E-18
5.700000E+03	2.527183E-16	5.001839E-18
5.710000E+03	2.350258E-16	4.634054E-18
5.720000E+03	2.207660E-16	4.336616E-18
5.730000E+03	2.101095E-16	4.112047E-18
5.740000E+03	2.031321E-16	3.960993E-18
5.750000E+03	1.998949E-16	3.883821E-18
5.760000E+03	2.005109E-16	3.881916E-18
5.770000E+03	2.050301E-16	3.955433E-18
5.780000E+03	2.136472E-16	4.107329E-18
5.790000E+03	2.265540E-16	4.340467E-18
5.800000E+03	2.439792E-16	4.658397E-18
5.810000E+03	2.659690E-16	5.061153E-18
5.820000E+03	2.925434E-16	5.548290E-18
5.830000E+03	3.234441E-16	6.114112E-18
5.840000E+03	3.580761E-16	6.746673E-18
5.850000E+03	3.955046E-16	7.427805E-18
5.860000E+03	4.341753E-16	8.127985E-18
5.870000E+03	4.723568E-16	8.814763E-18
5.880000E+03	5.080342E-16	9.450827E-18
5.890000E+03	5.391829E-16	9.999147E-18
5.900000E+03	5.640158E-16	1.042753E-17
5.910000E+03	5.813127E-16	1.071463E-17
5.920000E+03	5.901917E-16	1.084552E-17
5.930000E+03	5.907591E-16	1.082359E-17
5.940000E+03	5.836773E-16	1.066230E-17
5.950000E+03	5.701224E-16	1.038429E-17
5.960000E+03	5.515918E-16	1.001777E-17
5.970000E+03	5.297014E-16	9.592745E-18
5.980000E+03	5.060111E-16	9.137860E-18
5.990000E+03	4.819845E-16	8.679700E-18
6.000000E+03	4.585941E-16	8.235734E-18
6.010000E+03	4.368097E-16	7.823185E-18
6.020000E+03	4.172765E-16	7.453300E-18
6.030000E+03	4.004362E-16	7.133583E-18
6.040000E+03	3.865709E-16	6.868629E-18
6.050000E+03	3.758452E-16	6.660917E-18
6.060000E+03	3.683478E-16	6.511566E-18
6.070000E+03	3.641269E-16	6.420981E-18
6.080000E+03	3.632201E-16	6.389389E-18
6.090000E+03	3.656799E-16	6.417295E-18
6.100000E+03	3.715969E-16	6.505878E-18
6.110000E+03	3.811201E-16	6.657341E-18
6.120000E+03	3.945427E-16	6.876405E-18
6.130000E+03	4.120555E-16	7.165983E-18
6.140000E+03	4.341564E-16	7.534322E-18
6.150000E+03	4.614039E-16	7.990677E-18
6.160000E+03	4.944938E-16	8.546631E-18
6.170000E+03	5.342729E-16	9.216322E-18
6.180000E+03	5.817591E-16	1.001678E-17
6.190000E+03	6.381779E-16	1.096851E-17
6.200000E+03	7.050265E-16	1.209665E-17
6.210000E+03	7.841811E-16	1.343269E-17
6.220000E+03	8.780411E-16	1.501700E-17
6.230000E+03	9.896061E-16	1.690008E-17
6.240000E+03	1.122059E-15	1.913538E-17
6.250000E+03	1.277281E-15	2.175414E-17
6.260000E+03	1.454284E-15	2.473879E-17
6.270000E+03	1.648928E-15	2.801859E-17
6.280000E+03	1.854171E-15	3.147396E-17
6.290000E+03	2.060362E-15	3.494162E-17
6.300000E+03	2.255864E-15	3.822528E-17
6.310000E+03	2.428160E-15	4.111424E-17
6.320000E+03	2.565345E-15	4.340863E-17
6.330000E+03	2.657324E-15	4.493939E-17
6.340000E+03	2.699018E-15	4.562228E-17
6.350000E+03	2.688530E-15	4.542653E-17
6.360000E+03	2.628983E-15	4.440583E-17
6.370000E+03	2.527400E-15	4.267926E-17
6.380000E+03	2.393479E-15	4.041059E-17
6.390000E+03	2.238120E-15	3.778355E-17
6.400000E+03	2.072041E-15	3.497853E-17
6.410000E+03	1.904684E-15	3.215430E-17
6.420000E+03	1.743545E-15	2.943678E-17
6.430000E+03	1.593906E-15	2.691463E-17
6.440000E+03	1.458923E-15	2.464069E-17
6.450000E+03	1.339917E-15	2.263700E-17
6.460000E+03	1.236566E-15	2.089793E-17
6.470000E+03	1.148168E-15	1.941155E-17
6.480000E+03	1.072697E-15	1.814360E-17
6.490000E+03	1.007966E-15	1.705716E-17
6.500000E+03	9.516041E-16	1.611211E-17
6.510000E+03	9.012005E-16	1.526771E-17
6.520000E+03	8.544969E-16	1.448569E-17
6.530000E+03	8.097407E-16	1.373629E-17
6.540000E+03	7.660100E-16	1.300378E-17
6.550000E+03	7.236633E-16	1.229413E-17
6.560000E+03	6.829402E-16	1.161137E-17
6.570000E+03	6.441305E-16	1.096036E-17
6.580000E+03	6.073638E-16	1.034331E-17
6.590000E+03	5.726448E-16	9.760306E-18
6.600000E+03	5.398160E-16	9.208675E-18
6.610000E+03	5.089761E-16	8.690130E-18
6.620000E+03	4.799430E-16	8.201604E-18
6.630000E+03	4.526524E-16	7.742038E-18
6.640000E+03	4.270622E-16	7.310763E-18
6.650000E+03	4.031465E-16	6.907386E-18
6.660000E+03	3.808211E-16	6.530525E-18
6.670000E+03	3.601947E-16	6.182100E-18
6.680000E+03	3.411617E-16	5.860369E-18
6.690000E+03	3.236677E-16	5.564461E-18
6.700000E+03	3.076397E-16	5.293185E-18
6.710000E+03	2.929403E-16	5.044237E-18
6.720000E+03	2.795736E-16	4.817747E-18
6.730000E+03	2.673866E-16	4.611135E-18
6.740000E+03	2.562809E-16	4.422751E-18
6.750000E+03	2.461637E-16	4.251041E-18
6.760000E+03	2.369109E-16	4.093903E-18
6.770000E+03	2.285287E-16	3.951482E-18
6.780000E+03	2.209090E-16	3.821942E-18
6.790000E+03	2.139935E-16	3.704306E-18
6.800000E+03	2.076976E-16	3.597135E-18
6.810000E+03	2.020532E-16	3.501007E-18
6.820000E+03	1.969960E-16	3.414830E-18
6.830000E+03	1.925109E-16	3.338364E-18
6.840000E+03	1.885655E-16	3.271066E-18
6.850000E+03	1.852397E-16	3.214334E-18
6.860000E+03	1.825300E-16	3.168126E-18
6.870000E+03	1.804779E-16	3.133177E-18
6.880000E+03	1.791036E-16	3.109844E-18
6.890000E+03	1.785232E-16	3.100154E-18
6.900000E+03	1.787626E-16	3.104566E-18
6.910000E+03	1.798448E-16	3.123479E-18
6.920000E+03	1.818770E-16	3.158758E-18
6.930000E+03	1.848650E-16	3.210499E-18
6.940000E+03	1.888315E-16	3.279090E-18
6.950000E+03	1.937502E-16	3.364062E-18
6.960000E+03	1.996754E-16	3.466346E-18
6.970000E+03	2.065490E-16	3.584915E-18
6.980000E+03	2.142953E-16	3.718434E-18
6.990000E+03	2.229382E-16	3.867299E-18
7.000000E+03	2.323930E-16	4.030018E-18
7.010000E+03	2.425721E-16	4.205046E-18
7.020000E+03	2.535159E-16	4.393062E-18
7.030000E+03	2.651521E-16	4.592788E-18
7.040000E+03	2.774069E-16	4.802927E-18
7.050000E+03	2.903531E-16	5.024717E-18
7.060000E+03	3.039377E-16	5.257222E-18
7.070000E+03	3.181227E-16	5.499766E-18
7.080000E+03	3.330760E-16	5.755238E-18
7.090000E+03	3.488874E-16	6.025173E-18
7.100000E+03	3.657529E-16	6.312937E-18
7.110000E+03	3.842078E-16	6.627748E-18
7.120000E+03	4.047946E-16	6.978931E-18
7.130000E+03	4.282527E-16	7.379188E-18
7.140000E+03	4.557512E-16	7.848597E-18
7.150000E+03	4.883721E-16	8.405704E-18
7.160000E+03	5.276873E-16	9.077453E-18
7.170000E+03	5.751581E-16	9.888849E-18
7.180000E+03	6.322579E-16	1.086508E-17
7.190000E+03	7.006809E-16	1.203511E-17
7.200000E+03	7.815347E-16	1.341784E-17
7.210000E+03	8.753257E-16	1.502187E-17
7.220000E+03	9.821109E-16	1.684815E-17
7.230000E+03	1.100114E-15	1.886631E-17
7.240000E+03	1.226697E-15	2.103131E-17
7.250000E+03	1.357017E-15	2.326050E-17
7.260000E+03	1.484581E-15	2.544310E-17
7.270000E+03	1.602546E-15	2.746240E-17
7.280000E+03	1.702769E-15	2.917953E-17
7.290000E+03	1.778926E-15	3.048668E-17
7.300000E+03	1.825287E-15	3.128606E-17
7.310000E+03	1.839812E-15	3.154288E-17
7.320000E+03	1.822318E-15	3.125386E-17
7.330000E+03	1.775183E-15	3.045930E-17
7.340000E+03	1.703627E-15	2.924810E-17
7.350000E+03	1.612754E-15	2.770699E-17
7.360000E+03	1.509081E-15	2.594693E-17
7.370000E+03	1.397638E-15	2.405346E-17
7.380000E+03	1.283703E-15	2.211651E-17
7.390000E+03	1.170663E-15	2.019369E-17
7.400000E+03	1.061849E-15	1.834185E-17
7.410000E+03	9.591220E-16	1.659276E-17
7.420000E+03	8.637215E-16	1.496764E-17
7.430000E+03	7.767865E-16	1.348617E-17
7.440000E+03	6.984280E-16	1.215041E-17
7.450000E+03	6.289578E-16	1.096605E-17
7.460000E+03	5.679638E-16	9.926296E-18
7.470000E+03	5.152960E-16	9.028980E-18
7.480000E+03	4.703095E-16	8.263370E-18
7.490000E+03	4.326639E-16	7.624136E-18
7.500000E+03	4.016893E-16	7.100197E-18
7.510000E+03	3.770389E-16	6.686189E-18
7.520000E+03	3.581306E-16	6.372607E-18
7.530000E+03	3.446829E-16	6.155282E-18
7.540000E+03	3.361900E-16	6.026057E-18
7.550000E+03	3.323661E-16	5.980695E-18
7.560000E+03	3.326147E-16	6.009349E-18
7.570000E+03	3.364040E-16	6.103253E-18
7.580000E+03	3.427163E-16	6.244686E-18
7.590000E+03	3.504284E-16	6.413728E-18
7.600000E+03	3.578526E-16	6.579744E-18
7.610000E+03	3.634594E-16	6.714458E-18
7.620000E+03	3.660652E-16	6.795455E-18
7.630000E+03	3.658467E-16	6.825234E-18
7.640000E+03	3.638179E-16	6.822015E-18
7.650000E+03	3.609786E-16	6.804094E-18
7.660000E+03	3.584036E-16	6.791568E-18
7.670000E+03	3.566390E-16	6.794889E-18
7.680000E+03	3.561806E-16	6.823783E-18
7.690000E+03	3.570099E-16	6.878292E-18
7.700000E+03	3.591206E-16	6.958708E-18
7.710000E+03	3.620724E-16	7.056884E-18
7.720000E+03	3.654661E-16	7.165286E-18
7.730000E+03	3.688104E-16	7.274398E-18
7.740000E+03	3.713851E-16	7.369920E-18
7.750000E+03	3.727391E-16	7.442582E-18
7.760000E+03	3.722446E-16	7.479316E-18
