#wls	flux	fluxerr
1.600000E+03	4.351318E-17	3.097578E-18
1.640000E+03	4.586304E-17	3.253866E-18
1.680000E+03	4.844860E-17	3.425428E-18
1.720000E+03	5.129969E-17	3.614144E-18
1.760000E+03	5.443777E-17	3.821270E-18
1.800000E+03	5.790805E-17	4.049687E-18
1.840000E+03	6.173040E-17	4.300452E-18
1.880000E+03	6.594867E-17	4.576254E-18
1.920000E+03	7.059665E-17	4.879022E-18
1.960000E+03	7.571459E-17	5.211075E-18
2.000000E+03	8.133567E-17	5.574182E-18
2.040000E+03	8.749694E-17	5.970322E-18
2.080000E+03	9.422381E-17	6.400613E-18
2.120000E+03	1.015404E-16	6.866031E-18
2.160000E+03	1.094432E-16	7.365648E-18
2.200000E+03	1.179254E-16	7.898278E-18
2.240000E+03	1.269473E-16	8.460541E-18
2.280000E+03	1.364612E-16	9.048555E-18
2.320000E+03	1.463880E-16	9.656394E-18
2.360000E+03	1.565881E-16	1.027427E-17
2.400000E+03	1.668842E-16	1.089011E-17
2.440000E+03	1.770123E-16	1.148645E-17
2.480000E+03	1.866157E-16	1.204025E-17
2.520000E+03	1.952323E-16	1.252225E-17
2.560000E+03	2.022821E-16	1.289640E-17
2.600000E+03	2.071431E-16	1.312494E-17
2.640000E+03	2.093302E-16	1.317981E-17
2.680000E+03	2.088483E-16	1.306448E-17
2.720000E+03	2.061658E-16	1.281130E-17
2.760000E+03	2.018571E-16	1.245854E-17
2.800000E+03	1.964583E-16	1.204119E-17
2.840000E+03	1.904266E-16	1.158860E-17
2.880000E+03	1.841474E-16	1.112499E-17
2.920000E+03	1.779899E-16	1.067300E-17
2.960000E+03	1.722929E-16	1.025275E-17
3.000000E+03	1.673643E-16	9.881908E-18
3.010000E+03	1.662824E-16	9.798586E-18
3.020000E+03	1.652728E-16	9.719700E-18
3.030000E+03	1.643294E-16	9.644867E-18
3.040000E+03	1.634663E-16	9.574886E-18
3.050000E+03	1.626814E-16	9.509612E-18
3.060000E+03	1.619767E-16	9.449141E-18
3.070000E+03	1.613584E-16	9.393795E-18
3.080000E+03	1.608321E-16	9.343869E-18
3.090000E+03	1.603964E-16	9.299263E-18
3.100000E+03	1.600609E-16	9.260490E-18
3.110000E+03	1.598249E-16	9.227471E-18
3.120000E+03	1.596943E-16	9.200521E-18
3.130000E+03	1.596756E-16	9.179969E-18
3.140000E+03	1.597721E-16	9.165966E-18
3.150000E+03	1.599845E-16	9.158510E-18
3.160000E+03	1.603261E-16	9.158314E-18
3.170000E+03	1.607953E-16	9.165243E-18
3.180000E+03	1.614031E-16	9.179872E-18
3.190000E+03	1.621549E-16	9.202459E-18
3.200000E+03	1.630568E-16	9.233294E-18
3.210000E+03	1.641154E-16	9.272692E-18
3.220000E+03	1.653438E-16	9.321335E-18
3.230000E+03	1.667473E-16	9.379450E-18
3.240000E+03	1.683343E-16	9.447449E-18
3.250000E+03	1.701177E-16	9.525972E-18
3.260000E+03	1.721101E-16	9.615658E-18
3.270000E+03	1.743200E-16	9.716894E-18
3.280000E+03	1.767618E-16	9.830394E-18
3.290000E+03	1.794472E-16	9.956722E-18
3.300000E+03	1.823916E-16	1.009663E-17
3.310000E+03	1.856040E-16	1.025051E-17
3.320000E+03	1.890959E-16	1.041889E-17
3.330000E+03	1.928828E-16	1.060251E-17
3.340000E+03	1.969674E-16	1.080141E-17
3.350000E+03	2.013577E-16	1.101589E-17
3.360000E+03	2.060576E-16	1.124605E-17
3.370000E+03	2.110576E-16	1.149125E-17
3.380000E+03	2.163527E-16	1.175108E-17
3.390000E+03	2.219178E-16	1.202408E-17
3.400000E+03	2.277236E-16	1.230853E-17
3.410000E+03	2.337316E-16	1.260228E-17
3.420000E+03	2.398844E-16	1.290214E-17
3.430000E+03	2.461136E-16	1.320438E-17
3.440000E+03	2.523325E-16	1.350433E-17
3.450000E+03	2.584539E-16	1.379733E-17
3.460000E+03	2.643803E-16	1.407821E-17
3.470000E+03	2.700124E-16	1.434179E-17
3.480000E+03	2.752666E-16	1.458374E-17
3.490000E+03	2.800685E-16	1.480030E-17
3.500000E+03	2.843693E-16	1.498904E-17
3.510000E+03	2.881460E-16	1.514899E-17
3.520000E+03	2.913961E-16	1.528020E-17
3.530000E+03	2.941411E-16	1.538403E-17
3.540000E+03	2.964173E-16	1.546257E-17
3.550000E+03	2.982641E-16	1.551806E-17
3.560000E+03	2.997151E-16	1.555242E-17
3.570000E+03	3.007885E-16	1.556676E-17
3.580000E+03	3.014833E-16	1.556117E-17
3.590000E+03	3.017840E-16	1.553504E-17
3.600000E+03	3.016710E-16	1.548749E-17
3.610000E+03	3.011062E-16	1.541676E-17
3.620000E+03	3.000518E-16	1.532111E-17
3.630000E+03	2.984735E-16	1.519899E-17
3.640000E+03	2.963251E-16	1.504828E-17
3.650000E+03	2.935641E-16	1.486706E-17
3.660000E+03	2.901522E-16	1.465367E-17
3.670000E+03	2.860671E-16	1.440725E-17
3.680000E+03	2.813073E-16	1.412802E-17
3.690000E+03	2.759025E-16	1.381775E-17
3.700000E+03	2.699339E-16	1.348077E-17
3.710000E+03	2.635158E-16	1.312302E-17
3.720000E+03	2.568156E-16	1.275301E-17
3.730000E+03	2.500324E-16	1.238072E-17
3.740000E+03	2.433929E-16	1.201739E-17
3.750000E+03	2.371328E-16	1.167457E-17
3.760000E+03	2.314867E-16	1.136360E-17
3.770000E+03	2.266800E-16	1.109528E-17
3.780000E+03	2.229146E-16	1.087909E-17
3.790000E+03	2.203719E-16	1.072342E-17
3.800000E+03	2.192072E-16	1.063529E-17
3.810000E+03	2.195629E-16	1.062099E-17
3.820000E+03	2.215572E-16	1.068555E-17
3.830000E+03	2.252986E-16	1.083350E-17
3.840000E+03	2.308754E-16	1.106831E-17
3.850000E+03	2.383658E-16	1.139292E-17
3.860000E+03	2.478158E-16	1.180868E-17
3.870000E+03	2.592495E-16	1.231588E-17
3.880000E+03	2.726436E-16	1.291255E-17
3.890000E+03	2.879202E-16	1.359414E-17
3.900000E+03	3.049365E-16	1.435311E-17
3.910000E+03	3.234717E-16	1.517832E-17
3.920000E+03	3.432189E-16	1.605475E-17
3.930000E+03	3.637829E-16	1.696341E-17
3.940000E+03	3.846887E-16	1.788186E-17
3.950000E+03	4.054067E-16	1.878541E-17
3.960000E+03	4.253738E-16	1.964810E-17
3.970000E+03	4.440221E-16	2.044413E-17
3.980000E+03	4.608471E-16	2.115090E-17
3.990000E+03	4.754202E-16	2.174961E-17
4.000000E+03	4.874355E-16	2.222730E-17
4.010000E+03	4.967167E-16	2.257708E-17
4.020000E+03	5.032378E-16	2.279900E-17
4.030000E+03	5.071108E-16	2.289933E-17
4.040000E+03	5.085491E-16	2.288886E-17
4.050000E+03	5.078605E-16	2.278247E-17
4.060000E+03	5.054056E-16	2.259725E-17
4.070000E+03	5.015781E-16	2.235152E-17
4.080000E+03	4.967721E-16	2.206341E-17
4.090000E+03	4.913699E-16	2.175029E-17
4.100000E+03	4.857191E-16	2.142776E-17
4.110000E+03	4.801235E-16	2.110928E-17
4.120000E+03	4.748371E-16	2.080598E-17
4.130000E+03	4.700529E-16	2.052614E-17
4.140000E+03	4.658920E-16	2.027483E-17
4.150000E+03	4.624193E-16	2.005456E-17
4.160000E+03	4.596254E-16	1.986464E-17
4.170000E+03	4.574515E-16	1.970224E-17
4.180000E+03	4.557945E-16	1.956265E-17
4.190000E+03	4.545208E-16	1.943993E-17
4.200000E+03	4.534886E-16	1.932786E-17
4.210000E+03	4.525715E-16	1.922098E-17
4.220000E+03	4.516677E-16	1.911494E-17
4.230000E+03	4.507176E-16	1.900721E-17
4.240000E+03	4.497026E-16	1.889703E-17
4.250000E+03	4.486351E-16	1.878497E-17
4.260000E+03	4.475462E-16	1.867235E-17
4.270000E+03	4.464847E-16	1.856120E-17
4.280000E+03	4.454722E-16	1.845242E-17
4.290000E+03	4.445078E-16	1.834595E-17
4.300000E+03	4.435456E-16	1.823988E-17
4.310000E+03	4.425091E-16	1.813110E-17
4.320000E+03	4.412796E-16	1.801478E-17
4.330000E+03	4.397153E-16	1.788525E-17
4.340000E+03	4.376717E-16	1.773680E-17
4.350000E+03	4.350164E-16	1.756433E-17
4.360000E+03	4.316662E-16	1.736474E-17
4.370000E+03	4.275892E-16	1.713708E-17
4.380000E+03	4.228527E-16	1.688437E-17
4.390000E+03	4.176421E-16	1.661426E-17
4.400000E+03	4.122595E-16	1.633894E-17
4.410000E+03	4.071056E-16	1.607431E-17
4.420000E+03	4.026069E-16	1.583703E-17
4.430000E+03	3.991570E-16	1.564223E-17
4.440000E+03	3.970878E-16	1.550241E-17
4.450000E+03	3.966303E-16	1.542592E-17
4.460000E+03	3.979214E-16	1.541736E-17
4.470000E+03	4.010018E-16	1.547754E-17
4.480000E+03	4.058375E-16	1.560433E-17
4.490000E+03	4.123143E-16	1.579260E-17
4.500000E+03	4.202492E-16	1.603464E-17
4.510000E+03	4.294193E-16	1.632134E-17
4.520000E+03	4.395479E-16	1.664166E-17
4.530000E+03	4.503243E-16	1.698349E-17
4.540000E+03	4.614118E-16	1.733388E-17
4.550000E+03	4.724475E-16	1.767912E-17
4.560000E+03	4.830537E-16	1.800516E-17
4.570000E+03	4.928583E-16	1.829838E-17
4.580000E+03	5.015128E-16	1.854624E-17
4.590000E+03	5.087003E-16	1.873758E-17
4.600000E+03	5.141481E-16	1.886304E-17
4.610000E+03	5.176662E-16	1.891645E-17
4.620000E+03	5.191311E-16	1.889416E-17
4.630000E+03	5.184897E-16	1.879514E-17
4.640000E+03	5.157785E-16	1.862164E-17
4.650000E+03	5.110982E-16	1.837818E-17
4.660000E+03	5.046000E-16	1.807104E-17
4.670000E+03	4.964857E-16	1.770822E-17
4.680000E+03	4.869634E-16	1.729780E-17
4.690000E+03	4.762528E-16	1.684818E-17
4.700000E+03	4.645623E-16	1.636721E-17
4.710000E+03	4.520938E-16	1.586240E-17
4.720000E+03	4.390338E-16	1.534061E-17
4.730000E+03	4.255800E-16	1.480897E-17
4.740000E+03	4.119253E-16	1.427432E-17
4.750000E+03	3.982873E-16	1.374426E-17
4.760000E+03	3.848734E-16	1.322592E-17
4.770000E+03	3.719020E-16	1.272665E-17
4.780000E+03	3.595824E-16	1.225341E-17
4.790000E+03	3.480911E-16	1.181188E-17
4.800000E+03	3.375818E-16	1.140692E-17
4.810000E+03	3.281602E-16	1.104164E-17
4.820000E+03	3.199084E-16	1.071833E-17
4.830000E+03	3.128707E-16	1.043797E-17
4.840000E+03	3.070624E-16	1.020054E-17
4.850000E+03	3.024814E-16	1.000545E-17
4.860000E+03	2.991043E-16	9.851399E-18
4.870000E+03	2.968763E-16	9.736091E-18
4.880000E+03	2.957232E-16	9.656614E-18
4.890000E+03	2.955372E-16	9.609015E-18
4.900000E+03	2.961646E-16	9.587915E-18
4.910000E+03	2.974203E-16	9.587011E-18
4.920000E+03	2.990818E-16	9.598906E-18
4.930000E+03	3.009034E-16	9.615590E-18
4.940000E+03	3.026346E-16	9.629034E-18
4.950000E+03	3.040410E-16	9.631857E-18
4.960000E+03	3.049381E-16	9.618384E-18
4.970000E+03	3.052021E-16	9.584945E-18
4.980000E+03	3.047933E-16	9.530569E-18
4.990000E+03	3.037564E-16	9.456926E-18
5.000000E+03	3.022114E-16	9.368001E-18
5.010000E+03	3.003343E-16	9.269436E-18
5.020000E+03	2.983319E-16	9.167722E-18
5.030000E+03	2.964117E-16	9.069266E-18
5.040000E+03	2.947639E-16	8.979837E-18
5.050000E+03	2.935423E-16	8.903989E-18
5.060000E+03	2.928548E-16	8.844824E-18
5.070000E+03	2.927619E-16	8.803961E-18
5.080000E+03	2.932832E-16	8.781762E-18
5.090000E+03	2.944004E-16	8.777452E-18
5.100000E+03	2.960862E-16	8.790011E-18
5.110000E+03	2.982992E-16	8.818010E-18
5.120000E+03	3.009924E-16	8.859879E-18
5.130000E+03	3.041293E-16	8.914391E-18
5.140000E+03	3.076824E-16	8.980600E-18
5.150000E+03	3.116247E-16	9.057589E-18
5.160000E+03	3.159209E-16	9.144218E-18
5.170000E+03	3.205362E-16	9.239385E-18
5.180000E+03	3.254224E-16	9.341621E-18
5.190000E+03	3.305050E-16	9.448727E-18
5.200000E+03	3.356974E-16	9.558210E-18
5.210000E+03	3.408984E-16	9.667191E-18
5.220000E+03	3.460001E-16	9.772657E-18
5.230000E+03	3.508840E-16	9.871346E-18
5.240000E+03	3.554390E-16	9.960254E-18
5.250000E+03	3.595598E-16	1.003659E-17
5.260000E+03	3.631633E-16	1.009821E-17
5.270000E+03	3.661817E-16	1.014346E-17
5.280000E+03	3.685644E-16	1.017113E-17
5.290000E+03	3.702898E-16	1.018088E-17
5.300000E+03	3.713511E-16	1.017275E-17
5.310000E+03	3.717663E-16	1.014744E-17
5.320000E+03	3.715748E-16	1.010624E-17
5.330000E+03	3.708224E-16	1.005059E-17
5.340000E+03	3.695649E-16	9.982173E-18
5.350000E+03	3.678568E-16	9.902600E-18
5.360000E+03	3.657425E-16	9.813194E-18
5.370000E+03	3.632492E-16	9.714801E-18
5.380000E+03	3.603836E-16	9.607694E-18
5.390000E+03	3.571314E-16	9.491593E-18
5.400000E+03	3.534593E-16	9.365707E-18
5.410000E+03	3.493331E-16	9.229221E-18
5.420000E+03	3.447319E-16	9.081680E-18
5.430000E+03	3.396553E-16	8.923170E-18
5.440000E+03	3.341507E-16	8.755012E-18
5.450000E+03	3.283166E-16	8.579846E-18
5.460000E+03	3.223111E-16	8.401837E-18
5.470000E+03	3.163180E-16	8.225753E-18
5.480000E+03	3.105329E-16	8.056617E-18
5.490000E+03	3.050888E-16	7.897781E-18
5.500000E+03	3.000487E-16	7.750758E-18
5.510000E+03	2.953776E-16	7.614532E-18
5.520000E+03	2.909594E-16	7.486015E-18
5.530000E+03	2.866390E-16	7.361141E-18
5.540000E+03	2.822561E-16	7.235750E-18
5.550000E+03	2.776824E-16	7.106520E-18
5.560000E+03	2.728364E-16	6.971354E-18
5.570000E+03	2.676929E-16	6.829602E-18
5.580000E+03	2.622824E-16	6.682026E-18
5.590000E+03	2.566920E-16	6.530832E-18
5.600000E+03	2.510562E-16	6.379406E-18
5.610000E+03	2.455439E-16	6.231994E-18
5.620000E+03	2.403424E-16	6.093291E-18
5.630000E+03	2.356464E-16	5.968161E-18
5.640000E+03	2.316423E-16	5.861245E-18
5.650000E+03	2.284875E-16	5.776442E-18
5.660000E+03	2.263044E-16	5.716756E-18
5.670000E+03	2.251804E-16	5.684322E-18
5.680000E+03	2.251530E-16	5.680011E-18
5.690000E+03	2.262098E-16	5.703447E-18
5.700000E+03	2.283028E-16	5.753380E-18
5.710000E+03	2.313478E-16	5.827645E-18
5.720000E+03	2.352257E-16	5.923227E-18
5.730000E+03	2.398001E-16	6.036683E-18
5.740000E+03	2.449275E-16	6.164398E-18
5.750000E+03	2.504601E-16	6.302663E-18
5.760000E+03	2.562700E-16	6.448275E-18
5.770000E+03	2.622385E-16	6.598263E-18
5.780000E+03	2.682791E-16	6.750476E-18
5.790000E+03	2.743273E-16	6.903307E-18
5.800000E+03	2.803407E-16	7.055710E-18
5.810000E+03	2.862809E-16	7.206740E-18
5.820000E+03	2.921146E-16	7.355571E-18
5.830000E+03	2.977940E-16	7.501018E-18
5.840000E+03	3.032503E-16	7.641360E-18
5.850000E+03	3.084062E-16	7.774657E-18
5.860000E+03	3.131619E-16	7.898396E-18
5.870000E+03	3.174210E-16	8.010140E-18
5.880000E+03	3.210881E-16	8.107475E-18
5.890000E+03	3.240939E-16	8.188627E-18
5.900000E+03	3.263923E-16	8.252405E-18
5.910000E+03	3.279674E-16	8.298372E-18
5.920000E+03	3.288375E-16	8.326949E-18
5.930000E+03	3.290351E-16	8.338920E-18
5.940000E+03	3.286274E-16	8.335936E-18
5.950000E+03	3.276831E-16	8.319700E-18
5.960000E+03	3.262725E-16	8.291951E-18
5.970000E+03	3.244547E-16	8.254145E-18
5.980000E+03	3.222848E-16	8.207648E-18
5.990000E+03	3.198061E-16	8.153521E-18
6.000000E+03	3.170416E-16	8.092316E-18
6.010000E+03	3.140260E-16	8.024880E-18
6.020000E+03	3.107841E-16	7.951810E-18
6.030000E+03	3.073501E-16	7.873951E-18
6.040000E+03	3.037474E-16	7.791871E-18
6.050000E+03	3.000088E-16	7.706378E-18
6.060000E+03	2.961478E-16	7.617794E-18
6.070000E+03	2.921579E-16	7.525921E-18
6.080000E+03	2.880192E-16	7.430222E-18
6.090000E+03	2.837040E-16	7.329949E-18
6.100000E+03	2.791752E-16	7.224101E-18
6.110000E+03	2.744130E-16	7.112133E-18
6.120000E+03	2.694125E-16	6.993865E-18
6.130000E+03	2.642052E-16	6.870074E-18
6.140000E+03	2.588534E-16	6.742340E-18
6.150000E+03	2.534390E-16	6.612759E-18
6.160000E+03	2.480645E-16	6.483989E-18
6.170000E+03	2.428354E-16	6.358766E-18
6.180000E+03	2.378340E-16	6.239243E-18
6.190000E+03	2.331139E-16	6.126840E-18
6.200000E+03	2.286814E-16	6.021740E-18
6.210000E+03	2.245025E-16	5.923067E-18
6.220000E+03	2.205077E-16	5.829008E-18
6.230000E+03	2.166229E-16	5.737604E-18
6.240000E+03	2.128023E-16	5.647643E-18
6.250000E+03	2.090452E-16	5.559101E-18
6.260000E+03	2.054066E-16	5.473436E-18
6.270000E+03	2.019745E-16	5.393004E-18
6.280000E+03	1.988354E-16	5.320139E-18
6.290000E+03	1.960465E-16	5.256409E-18
6.300000E+03	1.936271E-16	5.202385E-18
6.310000E+03	1.915680E-16	5.157865E-18
6.320000E+03	1.898165E-16	5.121485E-18
6.330000E+03	1.883165E-16	5.091767E-18
6.340000E+03	1.869896E-16	5.066624E-18
6.350000E+03	1.857634E-16	5.044112E-18
6.360000E+03	1.845795E-16	5.022655E-18
6.370000E+03	1.833874E-16	5.000874E-18
6.380000E+03	1.821580E-16	4.977964E-18
6.390000E+03	1.808828E-16	4.953685E-18
6.400000E+03	1.795761E-16	4.928413E-18
6.410000E+03	1.782609E-16	4.902770E-18
6.420000E+03	1.769699E-16	4.877649E-18
6.430000E+03	1.757448E-16	4.854202E-18
6.440000E+03	1.746277E-16	4.833603E-18
6.450000E+03	1.736563E-16	4.816915E-18
6.460000E+03	1.728563E-16	4.804867E-18
6.470000E+03	1.722442E-16	4.797951E-18
6.480000E+03	1.718234E-16	4.796288E-18
6.490000E+03	1.715873E-16	4.799727E-18
6.500000E+03	1.715155E-16	4.807723E-18
6.510000E+03	1.715788E-16	4.819480E-18
6.520000E+03	1.717468E-16	4.834168E-18
6.530000E+03	1.719781E-16	4.850628E-18
6.540000E+03	1.722383E-16	4.867900E-18
6.550000E+03	1.724891E-16	4.884902E-18
6.560000E+03	1.727015E-16	4.900806E-18
6.570000E+03	1.728462E-16	4.914767E-18
6.580000E+03	1.729029E-16	4.926199E-18
6.590000E+03	1.728583E-16	4.934701E-18
6.600000E+03	1.727078E-16	4.940124E-18
6.610000E+03	1.724433E-16	4.942217E-18
6.620000E+03	1.720710E-16	4.941134E-18
6.630000E+03	1.715891E-16	4.936809E-18
6.640000E+03	1.709981E-16	4.929233E-18
6.650000E+03	1.702983E-16	4.918403E-18
6.660000E+03	1.694795E-16	4.903999E-18
6.670000E+03	1.685407E-16	4.885974E-18
6.680000E+03	1.674719E-16	4.864023E-18
6.690000E+03	1.662677E-16	4.837962E-18
6.700000E+03	1.649287E-16	4.807793E-18
6.710000E+03	1.634550E-16	4.773494E-18
6.720000E+03	1.618554E-16	4.735306E-18
6.730000E+03	1.601450E-16	4.693652E-18
6.740000E+03	1.583475E-16	4.649213E-18
6.750000E+03	1.564860E-16	4.602658E-18
6.760000E+03	1.545901E-16	4.554848E-18
6.770000E+03	1.526938E-16	4.506786E-18
6.780000E+03	1.508261E-16	4.459333E-18
6.790000E+03	1.490175E-16	4.413399E-18
6.800000E+03	1.472986E-16	4.369900E-18
6.810000E+03	1.456876E-16	4.329398E-18
6.820000E+03	1.442090E-16	4.292638E-18
6.830000E+03	1.428762E-16	4.260039E-18
6.840000E+03	1.416916E-16	4.231704E-18
6.850000E+03	1.406628E-16	4.207878E-18
6.860000E+03	1.397839E-16	4.188416E-18
6.870000E+03	1.390472E-16	4.173107E-18
6.880000E+03	1.384411E-16	4.161625E-18
6.890000E+03	1.379513E-16	4.153564E-18
6.900000E+03	1.375646E-16	4.148541E-18
6.910000E+03	1.372600E-16	4.145942E-18
6.920000E+03	1.370282E-16	4.145498E-18
6.930000E+03	1.368518E-16	4.146700E-18
6.940000E+03	1.367273E-16	4.149445E-18
6.950000E+03	1.366444E-16	4.153433E-18
6.960000E+03	1.366068E-16	4.158785E-18
6.970000E+03	1.366104E-16	4.165389E-18
6.980000E+03	1.366610E-16	4.173425E-18
6.990000E+03	1.367616E-16	4.182999E-18
7.000000E+03	1.369117E-16	4.194103E-18
7.010000E+03	1.371160E-16	4.206895E-18
7.020000E+03	1.373655E-16	4.221104E-18
7.030000E+03	1.376522E-16	4.236501E-18
7.040000E+03	1.379678E-16	4.252832E-18
7.050000E+03	1.382981E-16	4.269670E-18
7.060000E+03	1.386247E-16	4.286454E-18
7.070000E+03	1.389320E-16	4.302700E-18
7.080000E+03	1.392074E-16	4.318022E-18
7.090000E+03	1.394348E-16	4.331920E-18
7.100000E+03	1.396036E-16	4.344055E-18
7.110000E+03	1.397047E-16	4.354147E-18
7.120000E+03	1.397349E-16	4.362087E-18
7.130000E+03	1.396847E-16	4.367571E-18
7.140000E+03	1.395584E-16	4.370727E-18
7.150000E+03	1.393516E-16	4.371409E-18
7.160000E+03	1.390712E-16	4.369824E-18
7.170000E+03	1.387238E-16	4.366177E-18
7.180000E+03	1.383187E-16	4.360752E-18
7.190000E+03	1.378647E-16	4.353822E-18
7.200000E+03	1.373769E-16	4.345861E-18
7.210000E+03	1.368678E-16	4.337263E-18
7.220000E+03	1.363452E-16	4.328275E-18
7.230000E+03	1.358171E-16	4.319158E-18
7.240000E+03	1.352916E-16	4.310167E-18
7.250000E+03	1.347674E-16	4.301268E-18
7.260000E+03	1.342439E-16	4.292442E-18
7.270000E+03	1.337219E-16	4.283725E-18
7.280000E+03	1.331967E-16	4.274965E-18
7.290000E+03	1.326678E-16	4.266149E-18
7.300000E+03	1.321418E-16	4.257494E-18
7.310000E+03	1.316124E-16	4.248802E-18
7.320000E+03	1.310912E-16	4.240447E-18
7.330000E+03	1.305743E-16	4.232313E-18
7.340000E+03	1.300682E-16	4.224611E-18
7.350000E+03	1.295685E-16	4.217204E-18
7.360000E+03	1.290750E-16	4.210091E-18
7.370000E+03	1.285865E-16	4.203240E-18
7.380000E+03	1.280961E-16	4.196424E-18
7.390000E+03	1.276096E-16	4.189837E-18
7.400000E+03	1.271228E-16	4.183347E-18
7.410000E+03	1.266363E-16	4.176977E-18
7.420000E+03	1.261645E-16	4.171206E-18
7.430000E+03	1.257025E-16	4.165874E-18
7.440000E+03	1.252637E-16	4.161436E-18
7.450000E+03	1.248524E-16	4.158041E-18
7.460000E+03	1.244657E-16	4.155604E-18
7.470000E+03	1.241017E-16	4.154068E-18
7.480000E+03	1.237582E-16	4.153370E-18
7.490000E+03	1.234269E-16	4.153237E-18
7.500000E+03	1.230986E-16	4.153367E-18
7.510000E+03	1.227586E-16	4.153265E-18
7.520000E+03	1.223905E-16	4.152375E-18
7.530000E+03	1.219809E-16	4.150234E-18
7.540000E+03	1.215185E-16	4.146439E-18
7.550000E+03	1.209930E-16	4.140619E-18
7.560000E+03	1.204059E-16	4.132802E-18
7.570000E+03	1.197565E-16	4.122933E-18
7.580000E+03	1.190621E-16	4.111583E-18
7.590000E+03	1.183356E-16	4.099183E-18
7.600000E+03	1.175942E-16	4.086308E-18
7.610000E+03	1.168631E-16	4.073826E-18
7.620000E+03	1.161629E-16	4.062455E-18
7.630000E+03	1.155194E-16	4.053102E-18
7.640000E+03	1.149532E-16	4.046504E-18
7.650000E+03	1.144766E-16	4.043119E-18
7.660000E+03	1.141016E-16	4.043394E-18
7.670000E+03	1.138281E-16	4.047357E-18
7.680000E+03	1.136566E-16	4.055060E-18
7.690000E+03	1.135810E-16	4.066318E-18
7.700000E+03	1.135906E-16	4.080773E-18
7.710000E+03	1.136791E-16	4.098233E-18
7.720000E+03	1.138373E-16	4.118384E-18
7.730000E+03	1.140549E-16	4.140885E-18
7.740000E+03	1.143215E-16	4.165371E-18
7.750000E+03	1.146257E-16	4.191440E-18
7.760000E+03	1.149554E-16	4.218662E-18
