#wls	flux	fluxerr
1.600000E+03	4.706915E-17	7.811964E-19
1.640000E+03	4.795878E-17	7.945884E-19
1.680000E+03	4.889246E-17	8.086216E-19
1.720000E+03	4.989860E-17	8.237583E-19
1.760000E+03	5.095775E-17	8.396682E-19
1.800000E+03	5.208853E-17	8.566493E-19
1.840000E+03	5.326887E-17	8.743290E-19
1.880000E+03	5.452657E-17	8.931540E-19
1.920000E+03	5.583676E-17	9.127060E-19
1.960000E+03	5.720415E-17	9.330521E-19
2.000000E+03	5.862118E-17	9.540586E-19
2.040000E+03	6.007811E-17	9.755575E-19
2.080000E+03	6.157457E-17	9.975332E-19
2.120000E+03	6.309653E-17	1.019749E-18
2.160000E+03	6.462734E-17	1.041929E-18
2.200000E+03	6.614774E-17	1.063756E-18
2.240000E+03	6.764871E-17	1.085081E-18
2.280000E+03	6.909471E-17	1.105333E-18
2.320000E+03	7.047433E-17	1.124330E-18
2.360000E+03	7.177693E-17	1.141908E-18
2.400000E+03	7.296792E-17	1.157521E-18
2.440000E+03	7.402906E-17	1.170892E-18
2.480000E+03	7.497389E-17	1.182247E-18
2.520000E+03	7.578439E-17	1.191316E-18
2.560000E+03	7.647792E-17	1.198387E-18
2.600000E+03	7.708235E-17	1.203907E-18
2.640000E+03	7.761143E-17	1.208103E-18
2.680000E+03	7.812946E-17	1.211980E-18
2.720000E+03	7.868728E-17	1.216321E-18
2.760000E+03	7.936048E-17	1.222283E-18
2.800000E+03	8.023665E-17	1.231185E-18
2.840000E+03	8.141583E-17	1.244518E-18
2.880000E+03	8.302372E-17	1.264136E-18
2.920000E+03	8.517782E-17	1.291737E-18
2.960000E+03	8.806279E-17	1.330001E-18
3.000000E+03	9.185156E-17	1.381379E-18
3.010000E+03	9.295579E-17	1.396488E-18
3.020000E+03	9.414141E-17	1.412776E-18
3.030000E+03	9.541201E-17	1.430290E-18
3.040000E+03	9.675883E-17	1.448897E-18
3.050000E+03	9.818553E-17	1.468647E-18
3.060000E+03	9.970848E-17	1.489779E-18
3.070000E+03	1.013192E-16	1.512162E-18
3.080000E+03	1.030344E-16	1.536042E-18
3.090000E+03	1.048588E-16	1.561480E-18
3.100000E+03	1.067968E-16	1.588539E-18
3.110000E+03	1.088400E-16	1.617086E-18
3.120000E+03	1.110064E-16	1.647382E-18
3.130000E+03	1.133007E-16	1.679492E-18
3.140000E+03	1.157282E-16	1.713485E-18
3.150000E+03	1.182940E-16	1.749430E-18
3.160000E+03	1.210031E-16	1.787393E-18
3.170000E+03	1.238750E-16	1.827653E-18
3.180000E+03	1.268865E-16	1.869858E-18
3.190000E+03	1.300711E-16	1.914496E-18
3.200000E+03	1.334195E-16	1.961416E-18
3.210000E+03	1.369359E-16	2.010675E-18
3.220000E+03	1.406401E-16	2.062549E-18
3.230000E+03	1.445362E-16	2.117089E-18
3.240000E+03	1.486123E-16	2.174111E-18
3.250000E+03	1.528870E-16	2.233873E-18
3.260000E+03	1.573626E-16	2.296398E-18
3.270000E+03	1.620237E-16	2.361450E-18
3.280000E+03	1.669036E-16	2.429501E-18
3.290000E+03	1.719676E-16	2.500034E-18
3.300000E+03	1.772472E-16	2.573495E-18
3.310000E+03	1.827209E-16	2.649558E-18
3.320000E+03	1.883824E-16	2.728119E-18
3.330000E+03	1.942413E-16	2.809307E-18
3.340000E+03	2.002688E-16	2.892692E-18
3.350000E+03	2.064704E-16	2.978342E-18
3.360000E+03	2.128109E-16	3.065738E-18
3.370000E+03	2.193108E-16	3.155166E-18
3.380000E+03	2.259085E-16	3.245731E-18
3.390000E+03	2.326197E-16	3.337648E-18
3.400000E+03	2.393753E-16	3.429921E-18
3.410000E+03	2.461855E-16	3.522690E-18
3.420000E+03	2.529953E-16	3.615164E-18
3.430000E+03	2.597890E-16	3.707120E-18
3.440000E+03	2.665279E-16	3.798003E-18
3.450000E+03	2.731481E-16	3.886905E-18
3.460000E+03	2.796282E-16	3.973530E-18
3.470000E+03	2.859238E-16	4.057251E-18
3.480000E+03	2.920123E-16	4.137759E-18
3.490000E+03	2.978032E-16	4.213785E-18
3.500000E+03	3.032971E-16	4.285353E-18
3.510000E+03	3.084510E-16	4.351872E-18
3.520000E+03	3.132232E-16	4.412778E-18
3.530000E+03	3.175523E-16	4.467225E-18
3.540000E+03	3.214256E-16	4.515063E-18
3.550000E+03	3.248344E-16	4.556197E-18
3.560000E+03	3.277292E-16	4.589961E-18
3.570000E+03	3.300886E-16	4.616089E-18
3.580000E+03	3.319195E-16	4.634707E-18
3.590000E+03	3.332125E-16	4.645721E-18
3.600000E+03	3.339654E-16	4.649132E-18
3.610000E+03	3.341836E-16	4.645050E-18
3.620000E+03	3.338802E-16	4.633690E-18
3.630000E+03	3.330965E-16	4.615658E-18
3.640000E+03	3.318405E-16	4.591096E-18
3.650000E+03	3.301679E-16	4.560805E-18
3.660000E+03	3.281209E-16	4.525395E-18
3.670000E+03	3.257483E-16	4.485560E-18
3.680000E+03	3.231221E-16	4.442316E-18
3.690000E+03	3.202827E-16	4.396232E-18
3.700000E+03	3.173098E-16	4.348415E-18
3.710000E+03	3.142512E-16	4.299531E-18
3.720000E+03	3.112064E-16	4.250944E-18
3.730000E+03	3.082257E-16	4.203340E-18
3.740000E+03	3.053761E-16	4.157629E-18
3.750000E+03	3.027391E-16	4.114908E-18
3.760000E+03	3.003643E-16	4.075838E-18
3.770000E+03	2.983427E-16	4.041636E-18
3.780000E+03	2.967066E-16	4.012713E-18
3.790000E+03	2.955413E-16	3.990196E-18
3.800000E+03	2.948881E-16	3.974611E-18
3.810000E+03	2.947998E-16	3.966630E-18
3.820000E+03	2.953389E-16	3.967058E-18
3.830000E+03	2.965522E-16	3.976474E-18
3.840000E+03	2.984959E-16	3.995587E-18
3.850000E+03	3.011870E-16	4.024573E-18
3.860000E+03	3.046761E-16	4.064051E-18
3.870000E+03	3.090099E-16	4.114587E-18
3.880000E+03	3.142185E-16	4.176522E-18
3.890000E+03	3.203158E-16	4.249975E-18
3.900000E+03	3.273321E-16	4.335285E-18
3.910000E+03	3.352900E-16	4.432683E-18
3.920000E+03	3.441663E-16	4.541792E-18
3.930000E+03	3.539602E-16	4.662536E-18
3.940000E+03	3.646440E-16	4.794480E-18
3.950000E+03	3.761836E-16	4.937111E-18
3.960000E+03	3.884870E-16	5.089159E-18
3.970000E+03	4.014996E-16	5.249852E-18
3.980000E+03	4.150658E-16	5.417104E-18
3.990000E+03	4.290641E-16	5.589290E-18
4.000000E+03	4.433185E-16	5.764085E-18
4.010000E+03	4.576104E-16	5.938631E-18
4.020000E+03	4.717067E-16	6.109903E-18
4.030000E+03	4.853517E-16	6.274608E-18
4.040000E+03	4.982873E-16	6.429443E-18
4.050000E+03	5.102259E-16	6.570758E-18
4.060000E+03	5.209082E-16	6.695292E-18
4.070000E+03	5.300937E-16	6.800051E-18
4.080000E+03	5.376306E-16	6.883202E-18
4.090000E+03	5.433741E-16	6.943019E-18
4.100000E+03	5.472782E-16	6.979051E-18
4.110000E+03	5.493834E-16	6.991951E-18
4.120000E+03	5.497601E-16	6.982752E-18
4.130000E+03	5.485803E-16	6.953765E-18
4.140000E+03	5.460397E-16	6.907584E-18
4.150000E+03	5.423690E-16	6.847230E-18
4.160000E+03	5.378528E-16	6.776376E-18
4.170000E+03	5.327180E-16	6.697941E-18
4.180000E+03	5.272113E-16	6.615070E-18
4.190000E+03	5.215611E-16	6.530653E-18
4.200000E+03	5.159223E-16	6.446636E-18
4.210000E+03	5.104736E-16	6.365252E-18
4.220000E+03	5.053146E-16	6.287724E-18
4.230000E+03	5.005580E-16	6.215432E-18
4.240000E+03	4.962616E-16	6.149060E-18
4.250000E+03	4.924760E-16	6.089201E-18
4.260000E+03	4.892070E-16	6.035884E-18
4.270000E+03	4.864496E-16	5.989011E-18
4.280000E+03	4.841598E-16	5.947999E-18
4.290000E+03	4.822577E-16	5.911834E-18
4.300000E+03	4.806487E-16	5.879328E-18
4.310000E+03	4.792163E-16	5.849038E-18
4.320000E+03	4.778246E-16	5.819294E-18
4.330000E+03	4.763035E-16	5.788026E-18
4.340000E+03	4.744995E-16	5.753385E-18
4.350000E+03	4.722154E-16	5.713008E-18
4.360000E+03	4.692984E-16	5.665091E-18
4.370000E+03	4.655709E-16	5.607546E-18
4.380000E+03	4.609293E-16	5.539194E-18
4.390000E+03	4.552959E-16	5.459180E-18
4.400000E+03	4.488897E-16	5.370205E-18
4.410000E+03	4.421795E-16	5.277929E-18
4.420000E+03	4.356152E-16	5.187737E-18
4.430000E+03	4.295877E-16	5.104260E-18
4.440000E+03	4.244174E-16	5.031257E-18
4.450000E+03	4.203489E-16	4.971548E-18
4.460000E+03	4.175429E-16	4.926942E-18
4.470000E+03	4.161152E-16	4.898700E-18
4.480000E+03	4.161231E-16	4.887378E-18
4.490000E+03	4.176068E-16	4.893332E-18
4.500000E+03	4.205958E-16	4.916784E-18
4.510000E+03	4.251033E-16	4.957765E-18
4.520000E+03	4.311604E-16	5.016507E-18
4.530000E+03	4.387825E-16	5.093065E-18
4.540000E+03	4.479699E-16	5.187309E-18
4.550000E+03	4.587031E-16	5.298882E-18
4.560000E+03	4.709336E-16	5.427098E-18
4.570000E+03	4.845557E-16	5.570614E-18
4.580000E+03	4.994194E-16	5.727592E-18
4.590000E+03	5.153065E-16	5.895432E-18
4.600000E+03	5.319572E-16	6.071081E-18
4.610000E+03	5.490862E-16	6.251226E-18
4.620000E+03	5.663558E-16	6.431989E-18
4.630000E+03	5.834455E-16	6.609725E-18
4.640000E+03	6.000537E-16	6.781041E-18
4.650000E+03	6.158877E-16	6.942676E-18
4.660000E+03	6.306820E-16	7.091709E-18
4.670000E+03	6.442083E-16	7.225665E-18
4.680000E+03	6.562211E-16	7.341904E-18
4.690000E+03	6.665006E-16	7.438100E-18
4.700000E+03	6.748138E-16	7.511805E-18
4.710000E+03	6.809236E-16	7.560554E-18
4.720000E+03	6.845847E-16	7.581817E-18
4.730000E+03	6.855829E-16	7.573435E-18
4.740000E+03	6.836954E-16	7.533182E-18
4.750000E+03	6.787538E-16	7.459453E-18
4.760000E+03	6.706705E-16	7.351548E-18
4.770000E+03	6.594139E-16	7.209392E-18
4.780000E+03	6.450642E-16	7.034131E-18
4.790000E+03	6.278130E-16	6.828116E-18
4.800000E+03	6.079827E-16	6.595093E-18
4.810000E+03	5.860672E-16	6.340630E-18
4.820000E+03	5.627416E-16	6.072191E-18
4.830000E+03	5.387487E-16	5.797894E-18
4.840000E+03	5.148759E-16	5.526248E-18
4.850000E+03	4.918555E-16	5.265085E-18
4.860000E+03	4.703515E-16	5.021422E-18
4.870000E+03	4.509347E-16	4.801207E-18
4.880000E+03	4.340608E-16	4.609100E-18
4.890000E+03	4.201093E-16	4.448906E-18
4.900000E+03	4.093764E-16	4.323500E-18
4.910000E+03	4.020893E-16	4.234999E-18
4.920000E+03	3.984536E-16	4.185268E-18
4.930000E+03	3.986322E-16	4.175698E-18
4.940000E+03	4.027692E-16	4.207468E-18
4.950000E+03	4.109802E-16	4.281441E-18
4.960000E+03	4.233395E-16	4.398039E-18
4.970000E+03	4.398465E-16	4.556900E-18
4.980000E+03	4.603782E-16	4.756396E-18
4.990000E+03	4.846797E-16	4.993554E-18
5.000000E+03	5.122614E-16	5.263024E-18
5.010000E+03	5.423731E-16	5.556837E-18
5.020000E+03	5.739442E-16	5.863840E-18
5.030000E+03	6.055357E-16	6.169249E-18
5.040000E+03	6.354249E-16	6.455564E-18
5.050000E+03	6.617422E-16	6.703993E-18
5.060000E+03	6.827165E-16	6.896954E-18
5.070000E+03	6.969369E-16	7.020696E-18
5.080000E+03	7.036687E-16	7.068420E-18
5.090000E+03	7.030586E-16	7.042240E-18
5.100000E+03	6.959965E-16	6.951674E-18
5.110000E+03	6.839091E-16	6.811482E-18
5.120000E+03	6.684478E-16	6.638497E-18
5.130000E+03	6.513009E-16	6.449723E-18
5.140000E+03	6.339266E-16	6.259704E-18
5.150000E+03	6.174674E-16	6.079708E-18
5.160000E+03	6.027314E-16	5.917590E-18
5.170000E+03	5.902019E-16	5.777936E-18
5.180000E+03	5.800734E-16	5.662457E-18
5.190000E+03	5.723117E-16	5.570617E-18
5.200000E+03	5.667833E-16	5.500924E-18
5.210000E+03	5.632658E-16	5.451036E-18
5.220000E+03	5.615181E-16	5.418459E-18
5.230000E+03	5.613224E-16	5.400953E-18
5.240000E+03	5.624859E-16	5.396538E-18
5.250000E+03	5.648852E-16	5.403925E-18
5.260000E+03	5.684220E-16	5.422074E-18
5.270000E+03	5.730477E-16	5.450433E-18
5.280000E+03	5.787159E-16	5.488475E-18
5.290000E+03	5.854011E-16	5.535876E-18
5.300000E+03	5.930386E-16	5.591947E-18
5.310000E+03	6.015444E-16	5.655825E-18
5.320000E+03	6.107775E-16	5.726123E-18
5.330000E+03	6.205782E-16	5.801294E-18
5.340000E+03	6.307244E-16	5.879225E-18
5.350000E+03	6.409613E-16	5.957529E-18
5.360000E+03	6.510081E-16	6.033602E-18
5.370000E+03	6.605406E-16	6.104468E-18
5.380000E+03	6.692507E-16	6.167336E-18
5.390000E+03	6.768097E-16	6.219255E-18
5.400000E+03	6.829488E-16	6.257861E-18
5.410000E+03	6.874470E-16	6.281249E-18
5.420000E+03	6.901860E-16	6.288475E-18
5.430000E+03	6.912016E-16	6.280005E-18
5.440000E+03	6.906769E-16	6.257632E-18
5.450000E+03	6.890153E-16	6.225123E-18
5.460000E+03	6.867901E-16	6.187732E-18
5.470000E+03	6.847280E-16	6.152032E-18
5.480000E+03	6.837114E-16	6.125920E-18
5.490000E+03	6.846821E-16	6.117735E-18
5.500000E+03	6.883272E-16	6.133457E-18
5.510000E+03	6.945077E-16	6.171659E-18
5.520000E+03	7.028926E-16	6.229229E-18
5.530000E+03	7.130585E-16	6.302272E-18
5.540000E+03	7.244591E-16	6.385849E-18
5.550000E+03	7.364348E-16	6.474079E-18
5.560000E+03	7.481913E-16	6.559966E-18
5.570000E+03	7.588514E-16	6.635859E-18
5.580000E+03	7.674469E-16	6.693398E-18
5.590000E+03	7.730462E-16	6.724625E-18
5.600000E+03	7.747891E-16	6.722284E-18
5.610000E+03	7.719836E-16	6.680649E-18
5.620000E+03	7.642717E-16	6.596936E-18
5.630000E+03	7.516554E-16	6.471483E-18
5.640000E+03	7.344656E-16	6.307449E-18
5.650000E+03	7.132922E-16	6.110178E-18
5.660000E+03	6.889080E-16	5.886519E-18
5.670000E+03	6.621703E-16	5.643973E-18
5.680000E+03	6.339775E-16	5.390314E-18
5.690000E+03	6.051900E-16	5.132915E-18
5.700000E+03	5.766543E-16	4.878960E-18
5.710000E+03	5.491663E-16	4.635134E-18
5.720000E+03	5.234705E-16	4.407625E-18
5.730000E+03	5.002404E-16	4.201969E-18
5.740000E+03	4.800517E-16	4.022827E-18
5.750000E+03	4.633833E-16	3.874009E-18
5.760000E+03	4.506220E-16	3.758526E-18
5.770000E+03	4.420724E-16	3.678675E-18
5.780000E+03	4.379540E-16	3.636029E-18
5.790000E+03	4.384501E-16	3.631852E-18
5.800000E+03	4.436931E-16	3.666976E-18
5.810000E+03	4.537611E-16	3.741784E-18
5.820000E+03	4.686813E-16	3.856237E-18
5.830000E+03	4.884371E-16	4.009941E-18
5.840000E+03	5.129254E-16	4.201805E-18
5.850000E+03	5.419200E-16	4.429739E-18
5.860000E+03	5.750650E-16	4.690623E-18
5.870000E+03	6.117955E-16	4.979662E-18
5.880000E+03	6.513286E-16	5.290336E-18
5.890000E+03	6.926525E-16	5.614328E-18
5.900000E+03	7.345446E-16	5.941687E-18
5.910000E+03	7.756194E-16	6.261228E-18
5.920000E+03	8.144511E-16	6.561535E-18
5.930000E+03	8.497078E-16	6.832034E-18
5.940000E+03	8.802328E-16	7.063641E-18
5.950000E+03	9.051600E-16	7.249665E-18
5.960000E+03	9.240137E-16	7.386582E-18
5.970000E+03	9.366825E-16	7.473799E-18
5.980000E+03	9.434090E-16	7.513535E-18
5.990000E+03	9.447220E-16	7.510266E-18
6.000000E+03	9.413223E-16	7.469793E-18
6.010000E+03	9.339269E-16	7.397997E-18
6.020000E+03	9.231766E-16	7.300111E-18
6.030000E+03	9.096323E-16	7.180696E-18
6.040000E+03	8.937537E-16	7.043481E-18
6.050000E+03	8.759068E-16	6.891430E-18
6.060000E+03	8.564603E-16	6.727503E-18
6.070000E+03	8.358049E-16	6.554813E-18
6.080000E+03	8.144324E-16	6.377244E-18
6.090000E+03	7.928646E-16	6.198885E-18
6.100000E+03	7.716303E-16	6.023858E-18
6.110000E+03	7.512160E-16	5.855929E-18
6.120000E+03	7.320422E-16	5.698328E-18
6.130000E+03	7.144379E-16	5.553556E-18
6.140000E+03	6.986206E-16	5.423239E-18
6.150000E+03	6.847159E-16	5.308283E-18
6.160000E+03	6.727745E-16	5.209013E-18
6.170000E+03	6.628047E-16	5.125424E-18
6.180000E+03	6.547587E-16	5.057083E-18
6.190000E+03	6.485437E-16	5.003219E-18
6.200000E+03	6.440076E-16	4.962603E-18
6.210000E+03	6.409527E-16	4.933669E-18
6.220000E+03	6.391796E-16	4.914845E-18
6.230000E+03	6.384595E-16	4.904342E-18
6.240000E+03	6.385671E-16	4.900400E-18
6.250000E+03	6.392761E-16	4.901263E-18
6.260000E+03	6.403009E-16	4.904728E-18
6.270000E+03	6.413898E-16	4.908860E-18
6.280000E+03	6.423149E-16	4.911911E-18
6.290000E+03	6.428853E-16	4.912424E-18
6.300000E+03	6.429253E-16	4.909061E-18
6.310000E+03	6.423291E-16	4.901019E-18
6.320000E+03	6.410535E-16	4.887977E-18
6.330000E+03	6.390863E-16	4.869846E-18
6.340000E+03	6.364737E-16	4.846986E-18
6.350000E+03	6.332634E-16	4.819761E-18
6.360000E+03	6.295391E-16	4.788812E-18
6.370000E+03	6.253655E-16	4.754630E-18
6.380000E+03	6.207925E-16	4.717595E-18
6.390000E+03	6.158290E-16	4.677771E-18
6.400000E+03	6.104629E-16	4.635064E-18
6.410000E+03	6.046463E-16	4.589109E-18
6.420000E+03	5.982902E-16	4.539227E-18
6.430000E+03	5.912927E-16	4.484644E-18
6.440000E+03	5.835562E-16	4.424616E-18
6.450000E+03	5.749709E-16	4.358309E-18
6.460000E+03	5.654630E-16	4.285163E-18
6.470000E+03	5.549920E-16	4.204866E-18
6.480000E+03	5.435701E-16	4.117507E-18
6.490000E+03	5.312836E-16	4.023737E-18
6.500000E+03	5.182824E-16	3.924685E-18
6.510000E+03	5.048265E-16	3.822313E-18
6.520000E+03	4.912375E-16	3.719046E-18
6.530000E+03	4.779372E-16	3.618071E-18
6.540000E+03	4.653878E-16	3.522876E-18
6.550000E+03	4.540550E-16	3.436977E-18
6.560000E+03	4.444003E-16	3.363860E-18
6.570000E+03	4.368403E-16	3.306672E-18
6.580000E+03	4.317463E-16	3.268219E-18
6.590000E+03	4.294265E-16	3.250832E-18
6.600000E+03	4.301388E-16	3.256466E-18
6.610000E+03	4.340873E-16	3.286669E-18
6.620000E+03	4.414365E-16	3.342695E-18
6.630000E+03	4.522818E-16	3.425278E-18
6.640000E+03	4.666412E-16	3.534569E-18
6.650000E+03	4.844121E-16	3.669807E-18
6.660000E+03	5.053541E-16	3.829191E-18
6.670000E+03	5.290364E-16	4.009481E-18
6.680000E+03	5.548200E-16	4.205851E-18
6.690000E+03	5.818668E-16	4.411970E-18
6.700000E+03	6.092247E-16	4.620632E-18
6.710000E+03	6.359336E-16	4.824569E-18
6.720000E+03	6.610669E-16	5.016752E-18
6.730000E+03	6.837925E-16	5.190865E-18
6.740000E+03	7.034627E-16	5.341981E-18
6.750000E+03	7.195705E-16	5.466232E-18
6.760000E+03	7.317858E-16	5.561086E-18
6.770000E+03	7.399204E-16	5.625087E-18
6.780000E+03	7.438927E-16	5.657578E-18
6.790000E+03	7.437713E-16	5.659047E-18
6.800000E+03	7.397323E-16	5.630793E-18
6.810000E+03	7.320482E-16	5.574852E-18
6.820000E+03	7.210653E-16	5.493820E-18
6.830000E+03	7.071854E-16	5.390722E-18
6.840000E+03	6.908501E-16	5.268888E-18
6.850000E+03	6.725374E-16	5.131929E-18
6.860000E+03	6.527213E-16	4.983435E-18
6.870000E+03	6.319165E-16	4.827311E-18
6.880000E+03	6.106586E-16	4.667630E-18
6.890000E+03	5.894808E-16	4.508457E-18
6.900000E+03	5.689462E-16	4.354094E-18
6.910000E+03	5.495795E-16	4.208560E-18
6.920000E+03	5.319127E-16	4.075941E-18
6.930000E+03	5.164162E-16	3.959862E-18
6.940000E+03	5.035070E-16	3.863554E-18
6.950000E+03	4.935308E-16	3.789705E-18
6.960000E+03	4.867798E-16	3.740605E-18
6.970000E+03	4.834469E-16	3.717792E-18
6.980000E+03	4.836217E-16	3.722014E-18
6.990000E+03	4.873344E-16	3.753567E-18
7.000000E+03	4.945414E-16	3.812183E-18
7.010000E+03	5.051284E-16	3.897052E-18
7.020000E+03	5.188775E-16	4.006563E-18
7.030000E+03	5.354884E-16	4.138468E-18
7.040000E+03	5.545037E-16	4.289299E-18
7.050000E+03	5.753145E-16	4.454401E-18
7.060000E+03	5.971793E-16	4.628082E-18
7.070000E+03	6.191921E-16	4.803352E-18
7.080000E+03	6.403669E-16	4.972572E-18
7.090000E+03	6.597369E-16	5.128222E-18
7.100000E+03	6.764651E-16	5.263762E-18
7.110000E+03	6.899096E-16	5.374141E-18
7.120000E+03	6.996859E-16	5.456287E-18
7.130000E+03	7.056691E-16	5.509142E-18
7.140000E+03	7.080229E-16	5.533892E-18
7.150000E+03	7.071221E-16	5.533377E-18
7.160000E+03	7.034820E-16	5.511548E-18
7.170000E+03	6.977201E-16	5.473169E-18
7.180000E+03	6.904797E-16	5.423233E-18
7.190000E+03	6.823823E-16	5.366580E-18
7.200000E+03	6.740043E-16	5.307722E-18
7.210000E+03	6.658204E-16	5.250389E-18
7.220000E+03	6.582511E-16	5.197906E-18
7.230000E+03	6.515974E-16	5.152671E-18
7.240000E+03	6.460764E-16	5.116431E-18
7.250000E+03	6.417883E-16	5.090020E-18
7.260000E+03	6.387574E-16	5.073674E-18
7.270000E+03	6.369510E-16	5.067178E-18
7.280000E+03	6.362665E-16	5.069763E-18
7.290000E+03	6.365652E-16	5.080368E-18
7.300000E+03	6.376773E-16	5.097677E-18
7.310000E+03	6.393902E-16	5.120023E-18
7.320000E+03	6.414531E-16	5.145425E-18
7.330000E+03	6.436085E-16	5.171835E-18
7.340000E+03	6.455685E-16	5.196943E-18
7.350000E+03	6.470679E-16	5.218608E-18
7.360000E+03	6.478680E-16	5.234888E-18
7.370000E+03	6.477787E-16	5.244214E-18
7.380000E+03	6.466833E-16	5.245602E-18
7.390000E+03	6.445084E-16	5.238410E-18
7.400000E+03	6.412205E-16	5.222316E-18
7.410000E+03	6.368453E-16	5.197472E-18
7.420000E+03	6.314438E-16	5.164322E-18
7.430000E+03	6.250910E-16	5.123424E-18
7.440000E+03	6.178900E-16	5.075571E-18
7.450000E+03	6.099599E-16	5.021693E-18
7.460000E+03	6.014042E-16	4.962597E-18
7.470000E+03	5.923224E-16	4.899065E-18
7.480000E+03	5.828323E-16	4.832032E-18
7.490000E+03	5.730045E-16	4.762047E-18
7.500000E+03	5.629410E-16	4.689926E-18
7.510000E+03	5.527126E-16	4.616227E-18
7.520000E+03	5.423967E-16	4.541574E-18
7.530000E+03	5.320415E-16	4.466351E-18
7.540000E+03	5.217174E-16	4.391133E-18
7.550000E+03	5.114671E-16	4.316268E-18
7.560000E+03	5.013287E-16	4.242068E-18
7.570000E+03	4.913568E-16	4.168989E-18
7.580000E+03	4.815760E-16	4.097241E-18
7.590000E+03	4.720292E-16	4.027188E-18
7.600000E+03	4.627533E-16	3.959151E-18
7.610000E+03	4.537893E-16	3.893488E-18
7.620000E+03	4.451706E-16	3.830498E-18
7.630000E+03	4.368975E-16	3.770199E-18
7.640000E+03	4.289791E-16	3.712685E-18
7.650000E+03	4.214022E-16	3.657858E-18
7.660000E+03	4.141849E-16	3.605891E-18
7.670000E+03	4.073329E-16	3.556855E-18
7.680000E+03	4.008454E-16	3.510763E-18
7.690000E+03	3.947250E-16	3.467657E-18
7.700000E+03	3.889766E-16	3.427604E-18
7.710000E+03	3.835916E-16	3.390550E-18
7.720000E+03	3.785631E-16	3.356457E-18
7.730000E+03	3.738862E-16	3.325305E-18
7.740000E+03	3.695421E-16	3.296950E-18
7.750000E+03	3.655189E-16	3.271307E-18
7.760000E+03	3.617917E-16	3.248175E-18
