#wls	flux	fluxerr
1.600000E+03	2.614750E-17	1.387759E-18
1.640000E+03	2.644529E-17	1.401914E-18
1.680000E+03	2.675409E-17	1.416573E-18
1.720000E+03	2.707261E-17	1.431665E-18
1.760000E+03	2.739938E-17	1.447107E-18
1.800000E+03	2.773745E-17	1.463058E-18
1.840000E+03	2.808014E-17	1.479159E-18
1.880000E+03	2.842523E-17	1.495292E-18
1.920000E+03	2.878001E-17	1.511837E-18
1.960000E+03	2.913213E-17	1.528140E-18
2.000000E+03	2.948849E-17	1.544562E-18
2.040000E+03	2.984118E-17	1.560686E-18
2.080000E+03	3.019188E-17	1.576597E-18
2.120000E+03	3.053732E-17	1.592124E-18
2.160000E+03	3.087409E-17	1.607088E-18
2.200000E+03	3.120384E-17	1.621574E-18
2.240000E+03	3.151831E-17	1.635154E-18
2.280000E+03	3.182442E-17	1.648188E-18
2.320000E+03	3.211439E-17	1.660274E-18
2.360000E+03	3.239082E-17	1.671549E-18
2.400000E+03	3.265187E-17	1.681920E-18
2.440000E+03	3.290117E-17	1.691576E-18
2.480000E+03	3.313817E-17	1.700490E-18
2.520000E+03	3.336791E-17	1.708925E-18
2.560000E+03	3.359148E-17	1.716936E-18
2.600000E+03	3.381092E-17	1.724627E-18
2.640000E+03	3.404320E-17	1.732863E-18
2.680000E+03	3.428291E-17	1.741365E-18
2.720000E+03	3.454425E-17	1.750848E-18
2.760000E+03	3.483767E-17	1.761833E-18
2.800000E+03	3.517474E-17	1.774892E-18
2.840000E+03	3.556389E-17	1.790433E-18
2.880000E+03	3.602373E-17	1.809372E-18
2.920000E+03	3.656607E-17	1.832275E-18
2.960000E+03	3.720934E-17	1.860033E-18
3.000000E+03	3.798334E-17	1.894092E-18
3.010000E+03	3.819980E-17	1.903712E-18
3.020000E+03	3.842534E-17	1.913767E-18
3.030000E+03	3.866450E-17	1.924482E-18
3.040000E+03	3.890947E-17	1.935468E-18
3.050000E+03	3.916897E-17	1.947156E-18
3.060000E+03	3.944345E-17	1.959570E-18
3.070000E+03	3.972527E-17	1.972326E-18
3.080000E+03	4.002314E-17	1.985858E-18
3.090000E+03	4.033770E-17	2.000194E-18
3.100000E+03	4.066139E-17	2.014959E-18
3.110000E+03	4.100718E-17	2.030795E-18
3.120000E+03	4.136351E-17	2.047126E-18
3.130000E+03	4.174347E-17	2.064600E-18
3.140000E+03	4.213559E-17	2.082647E-18
3.150000E+03	4.255311E-17	2.101919E-18
3.160000E+03	4.298467E-17	2.121854E-18
3.170000E+03	4.344365E-17	2.143110E-18
3.180000E+03	4.392295E-17	2.165335E-18
3.190000E+03	4.442789E-17	2.188788E-18
3.200000E+03	4.495564E-17	2.213328E-18
3.210000E+03	4.551589E-17	2.239428E-18
3.220000E+03	4.610185E-17	2.266752E-18
3.230000E+03	4.671505E-17	2.295374E-18
3.240000E+03	4.736563E-17	2.325786E-18
3.250000E+03	4.804701E-17	2.357663E-18
3.260000E+03	4.876962E-17	2.391514E-18
3.270000E+03	4.952706E-17	2.427020E-18
3.280000E+03	5.032580E-17	2.464494E-18
3.290000E+03	5.116817E-17	2.504048E-18
3.300000E+03	5.205664E-17	2.545796E-18
3.310000E+03	5.299820E-17	2.590075E-18
3.320000E+03	5.398670E-17	2.636581E-18
3.330000E+03	5.503373E-17	2.685874E-18
3.340000E+03	5.613305E-17	2.737643E-18
3.350000E+03	5.729635E-17	2.792453E-18
3.360000E+03	5.852170E-17	2.850203E-18
3.370000E+03	5.981140E-17	2.910998E-18
3.380000E+03	6.117212E-17	2.975157E-18
3.390000E+03	6.260068E-17	3.042518E-18
3.400000E+03	6.409783E-17	3.113109E-18
3.410000E+03	6.566835E-17	3.187157E-18
3.420000E+03	6.731122E-17	3.264603E-18
3.430000E+03	6.901393E-17	3.344834E-18
3.440000E+03	7.078770E-17	3.428387E-18
3.450000E+03	7.261684E-17	3.514496E-18
3.460000E+03	7.449400E-17	3.602798E-18
3.470000E+03	7.641552E-17	3.693112E-18
3.480000E+03	7.837101E-17	3.784932E-18
3.490000E+03	8.034872E-17	3.877687E-18
3.500000E+03	8.233584E-17	3.970757E-18
3.510000E+03	8.431311E-17	4.063212E-18
3.520000E+03	8.627206E-17	4.154646E-18
3.530000E+03	8.819843E-17	4.244374E-18
3.540000E+03	9.007779E-17	4.331706E-18
3.550000E+03	9.189534E-17	4.415935E-18
3.560000E+03	9.364154E-17	4.496609E-18
3.570000E+03	9.528771E-17	4.572361E-18
3.580000E+03	9.682099E-17	4.642583E-18
3.590000E+03	9.822598E-17	4.706551E-18
3.600000E+03	9.947215E-17	4.762814E-18
3.610000E+03	1.005316E-16	4.810056E-18
3.620000E+03	1.013735E-16	4.846820E-18
3.630000E+03	1.019708E-16	4.871842E-18
3.640000E+03	1.022841E-16	4.883261E-18
3.650000E+03	1.022815E-16	4.879585E-18
3.660000E+03	1.019411E-16	4.859802E-18
3.670000E+03	1.012418E-16	4.822950E-18
3.680000E+03	1.001668E-16	4.768264E-18
3.690000E+03	9.871750E-17	4.695843E-18
3.700000E+03	9.691405E-17	4.606691E-18
3.710000E+03	9.478568E-17	4.502232E-18
3.720000E+03	9.237572E-17	4.384556E-18
3.730000E+03	8.973554E-17	4.256129E-18
3.740000E+03	8.693637E-17	4.120351E-18
3.750000E+03	8.405134E-17	3.980703E-18
3.760000E+03	8.115692E-17	3.840811E-18
3.770000E+03	7.832549E-17	3.704101E-18
3.780000E+03	7.563789E-17	3.574386E-18
3.790000E+03	7.315376E-17	3.454467E-18
3.800000E+03	7.093697E-17	3.347337E-18
3.810000E+03	6.903982E-17	3.255435E-18
3.820000E+03	6.750722E-17	3.180842E-18
3.830000E+03	6.637758E-17	3.125332E-18
3.840000E+03	6.568420E-17	3.090428E-18
3.850000E+03	6.545969E-17	3.077619E-18
3.860000E+03	6.572573E-17	3.087875E-18
3.870000E+03	6.651177E-17	3.122528E-18
3.880000E+03	6.784408E-17	3.182760E-18
3.890000E+03	6.974890E-17	3.269742E-18
3.900000E+03	7.225505E-17	3.384768E-18
3.910000E+03	7.538097E-17	3.528641E-18
3.920000E+03	7.915085E-17	3.702430E-18
3.930000E+03	8.358386E-17	3.906965E-18
3.940000E+03	8.868112E-17	4.142235E-18
3.950000E+03	9.444241E-17	4.408161E-18
3.960000E+03	1.008540E-16	4.704041E-18
3.970000E+03	1.078740E-16	5.027857E-18
3.980000E+03	1.154531E-16	5.377248E-18
3.990000E+03	1.235187E-16	5.748794E-18
4.000000E+03	1.319790E-16	6.138168E-18
4.010000E+03	1.407200E-16	6.540044E-18
4.020000E+03	1.496288E-16	6.949144E-18
4.030000E+03	1.585627E-16	7.358842E-18
4.040000E+03	1.673907E-16	7.763062E-18
4.050000E+03	1.759734E-16	8.155350E-18
4.060000E+03	1.841847E-16	8.529903E-18
4.070000E+03	1.919256E-16	8.882176E-18
4.080000E+03	1.990838E-16	9.207022E-18
4.090000E+03	2.056002E-16	9.501772E-18
4.100000E+03	2.114195E-16	9.763940E-18
4.110000E+03	2.165088E-16	9.992074E-18
4.120000E+03	2.208776E-16	1.018669E-17
4.130000E+03	2.245336E-16	1.034821E-17
4.140000E+03	2.275000E-16	1.047777E-17
4.150000E+03	2.298256E-16	1.057768E-17
4.160000E+03	2.315604E-16	1.065032E-17
4.170000E+03	2.327518E-16	1.069791E-17
4.180000E+03	2.334560E-16	1.072309E-17
4.190000E+03	2.337285E-16	1.072845E-17
4.200000E+03	2.336224E-16	1.071647E-17
4.210000E+03	2.331875E-16	1.068946E-17
4.220000E+03	2.324697E-16	1.064956E-17
4.230000E+03	2.315042E-16	1.059841E-17
4.240000E+03	2.303291E-16	1.053778E-17
4.250000E+03	2.289853E-16	1.046955E-17
4.260000E+03	2.274916E-16	1.039459E-17
4.270000E+03	2.258830E-16	1.031452E-17
4.280000E+03	2.241859E-16	1.023055E-17
4.290000E+03	2.224193E-16	1.014356E-17
4.300000E+03	2.206117E-16	1.005486E-17
4.310000E+03	2.187742E-16	9.964936E-18
4.320000E+03	2.169391E-16	9.875279E-18
4.330000E+03	2.151166E-16	9.786352E-18
4.340000E+03	2.133336E-16	9.699370E-18
4.350000E+03	2.116071E-16	9.615107E-18
4.360000E+03	2.099617E-16	9.534671E-18
4.370000E+03	2.084202E-16	9.459093E-18
4.380000E+03	2.070248E-16	9.390277E-18
4.390000E+03	2.058050E-16	9.329549E-18
4.400000E+03	2.048131E-16	9.279267E-18
4.410000E+03	2.040938E-16	9.241436E-18
4.420000E+03	2.037136E-16	9.219041E-18
4.430000E+03	2.037179E-16	9.214116E-18
4.440000E+03	2.041620E-16	9.229126E-18
4.450000E+03	2.050893E-16	9.266008E-18
4.460000E+03	2.065311E-16	9.326138E-18
4.470000E+03	2.085099E-16	9.410499E-18
4.480000E+03	2.110537E-16	9.520314E-18
4.490000E+03	2.141642E-16	9.655622E-18
4.500000E+03	2.178485E-16	9.816709E-18
4.510000E+03	2.221024E-16	1.000335E-17
4.520000E+03	2.269096E-16	1.021476E-17
4.530000E+03	2.322513E-16	1.045008E-17
4.540000E+03	2.381005E-16	1.070806E-17
4.550000E+03	2.444219E-16	1.098708E-17
4.560000E+03	2.511695E-16	1.128504E-17
4.570000E+03	2.582812E-16	1.159914E-17
4.580000E+03	2.656921E-16	1.192645E-17
4.590000E+03	2.733203E-16	1.226327E-17
4.600000E+03	2.810660E-16	1.260512E-17
4.610000E+03	2.888247E-16	1.294732E-17
4.620000E+03	2.964853E-16	1.328490E-17
4.630000E+03	3.039391E-16	1.361298E-17
4.640000E+03	3.110673E-16	1.392629E-17
4.650000E+03	3.177615E-16	1.421998E-17
4.660000E+03	3.239218E-16	1.448961E-17
4.670000E+03	3.294514E-16	1.473089E-17
4.680000E+03	3.342825E-16	1.494083E-17
4.690000E+03	3.383371E-16	1.511599E-17
4.700000E+03	3.415512E-16	1.525354E-17
4.710000E+03	3.438589E-16	1.535060E-17
4.720000E+03	3.452116E-16	1.540504E-17
4.730000E+03	3.455642E-16	1.541490E-17
4.740000E+03	3.448585E-16	1.537763E-17
4.750000E+03	3.430642E-16	1.529194E-17
4.760000E+03	3.401588E-16	1.515688E-17
4.770000E+03	3.361389E-16	1.497234E-17
4.780000E+03	3.310253E-16	1.473930E-17
4.790000E+03	3.248685E-16	1.446006E-17
4.800000E+03	3.177511E-16	1.413833E-17
4.810000E+03	3.097892E-16	1.377933E-17
4.820000E+03	3.011315E-16	1.338970E-17
4.830000E+03	2.919605E-16	1.297756E-17
4.840000E+03	2.824724E-16	1.255167E-17
4.850000E+03	2.728851E-16	1.212170E-17
4.860000E+03	2.634250E-16	1.169770E-17
4.870000E+03	2.543233E-16	1.128994E-17
4.880000E+03	2.457980E-16	1.090805E-17
4.890000E+03	2.380486E-16	1.056087E-17
4.900000E+03	2.312620E-16	1.025665E-17
4.910000E+03	2.255974E-16	1.000239E-17
4.920000E+03	2.211840E-16	9.803787E-18
4.930000E+03	2.181353E-16	9.665810E-18
4.940000E+03	2.165229E-16	9.591569E-18
4.950000E+03	2.164052E-16	9.583602E-18
4.960000E+03	2.178006E-16	9.642665E-18
4.970000E+03	2.206993E-16	9.768266E-18
4.980000E+03	2.250553E-16	9.958312E-18
4.990000E+03	2.307843E-16	1.020903E-17
5.000000E+03	2.377470E-16	1.051420E-17
5.010000E+03	2.457555E-16	1.086548E-17
5.020000E+03	2.545770E-16	1.125255E-17
5.030000E+03	2.639135E-16	1.166221E-17
5.040000E+03	2.734407E-16	1.208012E-17
5.050000E+03	2.828057E-16	1.249069E-17
5.060000E+03	2.916738E-16	1.287917E-17
5.070000E+03	2.997242E-16	1.323139E-17
5.080000E+03	3.067095E-16	1.353647E-17
5.090000E+03	3.124636E-16	1.378712E-17
5.100000E+03	3.168985E-16	1.397950E-17
5.110000E+03	3.200409E-16	1.411483E-17
5.120000E+03	3.219810E-16	1.419712E-17
5.130000E+03	3.228941E-16	1.423415E-17
5.140000E+03	3.229815E-16	1.423481E-17
5.150000E+03	3.224704E-16	1.420914E-17
5.160000E+03	3.215667E-16	1.416623E-17
5.170000E+03	3.204744E-16	1.411507E-17
5.180000E+03	3.193489E-16	1.406251E-17
5.190000E+03	3.183127E-16	1.401395E-17
5.200000E+03	3.174573E-16	1.397340E-17
5.210000E+03	3.168311E-16	1.394300E-17
5.220000E+03	3.164677E-16	1.392421E-17
5.230000E+03	3.163671E-16	1.391703E-17
5.240000E+03	3.165396E-16	1.392190E-17
5.250000E+03	3.169758E-16	1.393841E-17
5.260000E+03	3.176767E-16	1.396658E-17
5.270000E+03	3.186357E-16	1.400612E-17
5.280000E+03	3.198558E-16	1.405717E-17
5.290000E+03	3.213427E-16	1.411996E-17
5.300000E+03	3.231042E-16	1.419482E-17
5.310000E+03	3.251520E-16	1.428228E-17
5.320000E+03	3.274846E-16	1.438225E-17
5.330000E+03	3.300997E-16	1.449463E-17
5.340000E+03	3.329874E-16	1.461898E-17
5.350000E+03	3.361290E-16	1.475447E-17
5.360000E+03	3.394969E-16	1.489989E-17
5.370000E+03	3.430612E-16	1.505392E-17
5.380000E+03	3.467698E-16	1.521428E-17
5.390000E+03	3.505890E-16	1.537948E-17
5.400000E+03	3.544640E-16	1.554711E-17
5.410000E+03	3.583653E-16	1.571590E-17
5.420000E+03	3.622481E-16	1.588386E-17
5.430000E+03	3.660990E-16	1.605043E-17
5.440000E+03	3.698985E-16	1.621473E-17
5.450000E+03	3.736372E-16	1.637637E-17
5.460000E+03	3.773322E-16	1.653610E-17
5.470000E+03	3.809895E-16	1.669418E-17
5.480000E+03	3.846217E-16	1.685117E-17
5.490000E+03	3.882360E-16	1.700737E-17
5.500000E+03	3.918257E-16	1.716252E-17
5.510000E+03	3.953637E-16	1.731540E-17
5.520000E+03	3.988024E-16	1.746395E-17
5.530000E+03	4.020511E-16	1.760420E-17
5.540000E+03	4.049926E-16	1.773101E-17
5.550000E+03	4.074768E-16	1.783782E-17
5.560000E+03	4.093306E-16	1.791706E-17
5.570000E+03	4.103472E-16	1.795970E-17
5.580000E+03	4.103163E-16	1.795653E-17
5.590000E+03	4.090410E-16	1.789895E-17
5.600000E+03	4.063423E-16	1.777915E-17
5.610000E+03	4.020775E-16	1.759090E-17
5.620000E+03	3.961742E-16	1.733106E-17
5.630000E+03	3.886217E-16	1.699917E-17
5.640000E+03	3.794810E-16	1.659791E-17
5.650000E+03	3.688755E-16	1.613269E-17
5.660000E+03	3.570060E-16	1.561232E-17
5.670000E+03	3.441025E-16	1.504685E-17
5.680000E+03	3.304327E-16	1.444800E-17
5.690000E+03	3.162832E-16	1.382830E-17
5.700000E+03	3.019459E-16	1.320052E-17
5.710000E+03	2.877134E-16	1.257744E-17
5.720000E+03	2.738568E-16	1.197090E-17
5.730000E+03	2.606335E-16	1.139215E-17
5.740000E+03	2.482821E-16	1.085161E-17
5.750000E+03	2.370102E-16	1.035834E-17
5.760000E+03	2.269925E-16	9.919956E-18
5.770000E+03	2.183808E-16	9.543091E-18
5.780000E+03	2.112935E-16	9.232901E-18
5.790000E+03	2.058209E-16	8.993319E-18
5.800000E+03	2.020247E-16	8.827024E-18
5.810000E+03	1.999504E-16	8.735998E-18
5.820000E+03	1.996234E-16	8.721341E-18
5.830000E+03	2.010408E-16	8.782913E-18
5.840000E+03	2.041892E-16	8.920122E-18
5.850000E+03	2.090326E-16	9.131386E-18
5.860000E+03	2.154979E-16	9.413504E-18
5.870000E+03	2.234883E-16	9.762246E-18
5.880000E+03	2.328683E-16	1.017169E-17
5.890000E+03	2.434522E-16	1.063372E-17
5.900000E+03	2.550121E-16	1.113839E-17
5.910000E+03	2.672737E-16	1.167370E-17
5.920000E+03	2.799444E-16	1.222690E-17
5.930000E+03	2.926836E-16	1.278309E-17
5.940000E+03	3.051608E-16	1.332786E-17
5.950000E+03	3.170579E-16	1.384732E-17
5.960000E+03	3.280760E-16	1.432841E-17
5.970000E+03	3.379660E-16	1.476026E-17
5.980000E+03	3.465342E-16	1.513442E-17
5.990000E+03	3.536485E-16	1.544512E-17
6.000000E+03	3.592397E-16	1.568934E-17
6.010000E+03	3.632977E-16	1.586665E-17
6.020000E+03	3.658707E-16	1.597914E-17
6.030000E+03	3.670338E-16	1.603011E-17
6.040000E+03	3.669202E-16	1.602535E-17
6.050000E+03	3.656721E-16	1.597109E-17
6.060000E+03	3.634502E-16	1.587434E-17
6.070000E+03	3.604444E-16	1.574340E-17
6.080000E+03	3.568261E-16	1.558574E-17
6.090000E+03	3.527897E-16	1.540985E-17
6.100000E+03	3.485074E-16	1.522327E-17
6.110000E+03	3.441418E-16	1.503307E-17
6.120000E+03	3.398534E-16	1.484628E-17
6.130000E+03	3.357862E-16	1.466918E-17
6.140000E+03	3.320485E-16	1.450651E-17
6.150000E+03	3.287447E-16	1.436282E-17
6.160000E+03	3.259514E-16	1.424148E-17
6.170000E+03	3.237191E-16	1.414468E-17
6.180000E+03	3.220922E-16	1.407437E-17
6.190000E+03	3.210747E-16	1.403073E-17
6.200000E+03	3.206682E-16	1.401383E-17
6.210000E+03	3.208535E-16	1.402284E-17
6.220000E+03	3.215968E-16	1.405629E-17
6.230000E+03	3.228530E-16	1.411221E-17
6.240000E+03	3.245605E-16	1.418792E-17
6.250000E+03	3.266593E-16	1.428078E-17
6.260000E+03	3.290744E-16	1.438754E-17
6.270000E+03	3.317215E-16	1.450450E-17
6.280000E+03	3.345067E-16	1.462757E-17
6.290000E+03	3.373226E-16	1.475205E-17
6.300000E+03	3.400727E-16	1.487372E-17
6.310000E+03	3.426369E-16	1.498732E-17
6.320000E+03	3.449164E-16	1.508854E-17
6.330000E+03	3.468172E-16	1.517325E-17
6.340000E+03	3.482619E-16	1.523807E-17
6.350000E+03	3.491951E-16	1.528055E-17
6.360000E+03	3.495863E-16	1.529937E-17
6.370000E+03	3.494367E-16	1.529457E-17
6.380000E+03	3.487550E-16	1.526651E-17
6.390000E+03	3.475881E-16	1.521724E-17
6.400000E+03	3.459994E-16	1.514954E-17
6.410000E+03	3.440450E-16	1.506583E-17
6.420000E+03	3.418079E-16	1.496977E-17
6.430000E+03	3.393586E-16	1.486443E-17
6.440000E+03	3.367489E-16	1.475207E-17
6.450000E+03	3.340437E-16	1.463553E-17
6.460000E+03	3.312829E-16	1.451656E-17
6.470000E+03	3.284863E-16	1.439601E-17
6.480000E+03	3.256645E-16	1.427437E-17
6.490000E+03	3.228204E-16	1.415175E-17
6.500000E+03	3.199404E-16	1.402754E-17
6.510000E+03	3.170034E-16	1.390084E-17
6.520000E+03	3.139806E-16	1.377036E-17
6.530000E+03	3.108564E-16	1.363544E-17
6.540000E+03	3.076179E-16	1.349548E-17
6.550000E+03	3.042645E-16	1.335047E-17
6.560000E+03	3.008112E-16	1.320105E-17
6.570000E+03	2.972946E-16	1.304884E-17
6.580000E+03	2.937517E-16	1.289545E-17
6.590000E+03	2.902521E-16	1.274394E-17
6.600000E+03	2.868565E-16	1.259698E-17
6.610000E+03	2.836304E-16	1.245743E-17
6.620000E+03	2.806373E-16	1.232810E-17
6.630000E+03	2.779211E-16	1.221091E-17
6.640000E+03	2.755014E-16	1.210675E-17
6.650000E+03	2.733797E-16	1.201566E-17
6.660000E+03	2.715381E-16	1.193688E-17
6.670000E+03	2.699345E-16	1.186857E-17
6.680000E+03	2.684922E-16	1.180734E-17
6.690000E+03	2.671279E-16	1.174954E-17
6.700000E+03	2.657591E-16	1.169156E-17
6.710000E+03	2.642861E-16	1.162899E-17
6.720000E+03	2.626192E-16	1.155788E-17
6.730000E+03	2.606799E-16	1.147478E-17
6.740000E+03	2.584111E-16	1.137717E-17
6.750000E+03	2.557614E-16	1.126276E-17
6.760000E+03	2.527198E-16	1.113107E-17
6.770000E+03	2.492820E-16	1.098190E-17
6.780000E+03	2.454716E-16	1.081627E-17
6.790000E+03	2.413190E-16	1.063552E-17
6.800000E+03	2.368703E-16	1.044166E-17
6.810000E+03	2.321844E-16	1.023728E-17
6.820000E+03	2.273198E-16	1.002495E-17
6.830000E+03	2.223329E-16	9.807159E-18
6.840000E+03	2.172883E-16	9.586747E-18
6.850000E+03	2.122413E-16	9.366154E-18
6.860000E+03	2.072535E-16	9.148098E-18
6.870000E+03	2.023811E-16	8.935058E-18
6.880000E+03	1.976756E-16	8.729310E-18
6.890000E+03	1.931950E-16	8.533422E-18
6.900000E+03	1.889935E-16	8.349797E-18
6.910000E+03	1.851250E-16	8.180816E-18
6.920000E+03	1.816399E-16	8.028720E-18
6.930000E+03	1.785947E-16	7.896025E-18
6.940000E+03	1.760416E-16	7.785040E-18
6.950000E+03	1.740262E-16	7.697810E-18
6.960000E+03	1.725978E-16	7.636522E-18
6.970000E+03	1.717962E-16	7.602968E-18
6.980000E+03	1.716545E-16	7.598622E-18
6.990000E+03	1.721920E-16	7.624373E-18
7.000000E+03	1.734232E-16	7.680877E-18
7.010000E+03	1.753407E-16	7.767839E-18
7.020000E+03	1.779300E-16	7.884634E-18
7.030000E+03	1.811397E-16	8.029014E-18
7.040000E+03	1.849145E-16	8.198546E-18
7.050000E+03	1.891699E-16	8.389506E-18
7.060000E+03	1.937976E-16	8.597114E-18
7.070000E+03	1.986785E-16	8.816099E-18
7.080000E+03	2.036746E-16	9.040340E-18
7.090000E+03	2.086454E-16	9.263618E-18
7.100000E+03	2.134591E-16	9.480072E-18
7.110000E+03	2.179875E-16	9.684005E-18
7.120000E+03	2.221275E-16	9.870830E-18
7.130000E+03	2.258030E-16	1.003715E-17
7.140000E+03	2.289690E-16	1.018095E-17
7.150000E+03	2.316126E-16	1.030163E-17
7.160000E+03	2.337521E-16	1.039998E-17
7.170000E+03	2.354315E-16	1.047797E-17
7.180000E+03	2.367171E-16	1.053850E-17
7.190000E+03	2.376895E-16	1.058516E-17
7.200000E+03	2.384337E-16	1.062172E-17
7.210000E+03	2.390415E-16	1.065226E-17
7.220000E+03	2.396117E-16	1.068119E-17
7.230000E+03	2.402171E-16	1.071174E-17
7.240000E+03	2.409293E-16	1.074712E-17
7.250000E+03	2.418070E-16	1.078995E-17
7.260000E+03	2.428986E-16	1.084240E-17
7.270000E+03	2.442275E-16	1.090552E-17
7.280000E+03	2.458055E-16	1.097985E-17
7.290000E+03	2.476289E-16	1.106525E-17
7.300000E+03	2.496787E-16	1.116088E-17
7.310000E+03	2.519272E-16	1.126550E-17
7.320000E+03	2.543148E-16	1.137648E-17
7.330000E+03	2.568009E-16	1.149199E-17
7.340000E+03	2.593176E-16	1.160901E-17
7.350000E+03	2.617923E-16	1.172429E-17
7.360000E+03	2.641605E-16	1.183493E-17
7.370000E+03	2.663497E-16	1.193770E-17
7.380000E+03	2.683037E-16	1.203005E-17
7.390000E+03	2.699651E-16	1.210941E-17
7.400000E+03	2.713001E-16	1.217424E-17
7.410000E+03	2.722786E-16	1.222318E-17
7.420000E+03	2.728922E-16	1.225583E-17
7.430000E+03	2.731536E-16	1.227275E-17
7.440000E+03	2.730788E-16	1.227463E-17
7.450000E+03	2.727008E-16	1.226293E-17
7.460000E+03	2.720601E-16	1.223948E-17
7.470000E+03	2.712064E-16	1.220647E-17
7.480000E+03	2.701726E-16	1.216539E-17
7.490000E+03	2.690080E-16	1.211845E-17
7.500000E+03	2.677388E-16	1.206681E-17
7.510000E+03	2.663810E-16	1.201120E-17
7.520000E+03	2.649557E-16	1.195255E-17
7.530000E+03	2.634575E-16	1.189062E-17
7.540000E+03	2.618772E-16	1.182500E-17
7.550000E+03	2.601935E-16	1.175470E-17
7.560000E+03	2.583968E-16	1.167930E-17
7.570000E+03	2.564618E-16	1.159763E-17
7.580000E+03	2.543669E-16	1.150872E-17
7.590000E+03	2.521126E-16	1.141256E-17
7.600000E+03	2.496890E-16	1.130870E-17
7.610000E+03	2.471144E-16	1.119795E-17
7.620000E+03	2.444172E-16	1.108159E-17
7.630000E+03	2.416413E-16	1.096159E-17
7.640000E+03	2.388434E-16	1.084051E-17
7.650000E+03	2.360896E-16	1.072136E-17
7.660000E+03	2.334509E-16	1.060736E-17
7.670000E+03	2.309955E-16	1.050162E-17
7.680000E+03	2.288038E-16	1.040780E-17
7.690000E+03	2.269334E-16	1.032855E-17
7.700000E+03	2.254488E-16	1.026682E-17
7.710000E+03	2.244009E-16	1.022497E-17
7.720000E+03	2.238252E-16	1.020464E-17
7.730000E+03	2.237588E-16	1.020756E-17
7.740000E+03	2.242067E-16	1.023400E-17
7.750000E+03	2.251733E-16	1.028420E-17
7.760000E+03	2.266422E-16	1.035745E-17
