#wls	flux	fluxerr
1.600000E+03	1.331202E-17	6.098853E-19
1.640000E+03	1.335846E-17	6.114729E-19
1.680000E+03	1.340327E-17	6.129677E-19
1.720000E+03	1.345087E-17	6.145717E-19
1.760000E+03	1.349403E-17	6.159539E-19
1.800000E+03	1.353948E-17	6.174214E-19
1.840000E+03	1.358235E-17	6.187512E-19
1.880000E+03	1.362471E-17	6.200378E-19
1.920000E+03	1.366403E-17	6.211656E-19
1.960000E+03	1.370245E-17	6.222319E-19
2.000000E+03	1.373981E-17	6.232285E-19
2.040000E+03	1.377597E-17	6.241498E-19
2.080000E+03	1.381087E-17	6.249922E-19
2.120000E+03	1.384449E-17	6.257546E-19
2.160000E+03	1.387453E-17	6.263325E-19
2.200000E+03	1.390346E-17	6.268382E-19
2.240000E+03	1.393380E-17	6.273846E-19
2.280000E+03	1.396122E-17	6.277762E-19
2.320000E+03	1.398850E-17	6.281375E-19
2.360000E+03	1.401615E-17	6.284921E-19
2.400000E+03	1.404489E-17	6.288705E-19
2.440000E+03	1.407786E-17	6.294129E-19
2.480000E+03	1.411147E-17	6.299584E-19
2.520000E+03	1.414921E-17	6.306606E-19
2.560000E+03	1.419475E-17	6.316824E-19
2.600000E+03	1.424738E-17	6.329900E-19
2.640000E+03	1.430891E-17	6.346616E-19
2.680000E+03	1.438138E-17	6.367847E-19
2.720000E+03	1.446709E-17	6.394579E-19
2.760000E+03	1.456856E-17	6.427888E-19
2.800000E+03	1.469088E-17	6.469970E-19
2.840000E+03	1.483488E-17	6.521127E-19
2.880000E+03	1.500392E-17	6.582772E-19
2.920000E+03	1.520393E-17	6.657432E-19
2.960000E+03	1.543423E-17	6.744708E-19
3.000000E+03	1.570362E-17	6.848351E-19
3.010000E+03	1.577863E-17	6.877483E-19
3.020000E+03	1.585378E-17	6.906621E-19
3.030000E+03	1.593385E-17	6.937852E-19
3.040000E+03	1.601657E-17	6.970182E-19
3.050000E+03	1.610201E-17	7.003637E-19
3.060000E+03	1.618782E-17	7.037195E-19
3.070000E+03	1.627888E-17	7.072978E-19
3.080000E+03	1.637288E-17	7.109972E-19
3.090000E+03	1.646987E-17	7.148205E-19
3.100000E+03	1.657237E-17	7.188764E-19
3.110000E+03	1.667558E-17	7.229563E-19
3.120000E+03	1.678201E-17	7.271686E-19
3.130000E+03	1.689172E-17	7.315163E-19
3.140000E+03	1.700728E-17	7.361100E-19
3.150000E+03	1.712628E-17	7.408449E-19
3.160000E+03	1.724630E-17	7.456158E-19
3.170000E+03	1.737241E-17	7.506424E-19
3.180000E+03	1.750217E-17	7.558186E-19
3.190000E+03	1.763567E-17	7.611476E-19
3.200000E+03	1.777039E-17	7.665204E-19
3.210000E+03	1.791152E-17	7.721613E-19
3.220000E+03	1.805921E-17	7.780752E-19
3.230000E+03	1.820829E-17	7.840401E-19
3.240000E+03	1.836144E-17	7.901698E-19
3.250000E+03	1.851870E-17	7.964670E-19
3.260000E+03	1.868284E-17	8.030495E-19
3.270000E+03	1.884856E-17	8.096895E-19
3.280000E+03	1.902131E-17	8.166204E-19
3.290000E+03	1.919572E-17	8.236120E-19
3.300000E+03	1.937733E-17	8.309004E-19
3.310000E+03	1.956345E-17	8.383709E-19
3.320000E+03	1.975418E-17	8.460267E-19
3.330000E+03	1.994672E-17	8.537477E-19
3.340000E+03	2.014677E-17	8.617776E-19
3.350000E+03	2.035160E-17	8.699988E-19
3.360000E+03	2.056415E-17	8.785369E-19
3.370000E+03	2.077872E-17	8.871474E-19
3.380000E+03	2.099826E-17	8.959562E-19
3.390000E+03	2.122283E-17	9.049651E-19
3.400000E+03	2.145550E-17	9.143044E-19
3.410000E+03	2.169036E-17	9.237223E-19
3.420000E+03	2.193354E-17	9.334790E-19
3.430000E+03	2.217903E-17	9.433181E-19
3.440000E+03	2.243306E-17	9.535040E-19
3.450000E+03	2.269266E-17	9.639103E-19
3.460000E+03	2.295797E-17	9.745416E-19
3.470000E+03	2.322588E-17	9.852660E-19
3.480000E+03	2.350287E-17	9.963580E-19
3.490000E+03	2.378593E-17	1.007689E-18
3.500000E+03	2.407520E-17	1.019264E-18
3.510000E+03	2.437084E-17	1.031090E-18
3.520000E+03	2.467637E-17	1.043314E-18
3.530000E+03	2.498531E-17	1.055662E-18
3.540000E+03	2.530117E-17	1.068282E-18
3.550000E+03	2.562418E-17	1.081183E-18
3.560000E+03	2.595808E-17	1.094522E-18
3.570000E+03	2.629615E-17	1.108014E-18
3.580000E+03	2.664572E-17	1.121968E-18
3.590000E+03	2.699996E-17	1.136094E-18
3.600000E+03	2.736638E-17	1.150710E-18
3.610000E+03	2.773806E-17	1.165522E-18
3.620000E+03	2.812271E-17	1.180854E-18
3.630000E+03	2.851707E-17	1.196567E-18
3.640000E+03	2.892153E-17	1.212678E-18
3.650000E+03	2.933653E-17	1.229202E-18
3.660000E+03	2.975860E-17	1.245995E-18
3.670000E+03	3.019603E-17	1.263403E-18
3.680000E+03	3.064544E-17	1.281281E-18
3.690000E+03	3.110736E-17	1.299652E-18
3.700000E+03	3.158234E-17	1.318537E-18
3.710000E+03	3.207093E-17	1.337958E-18
3.720000E+03	3.257799E-17	1.358115E-18
3.730000E+03	3.309569E-17	1.378681E-18
3.740000E+03	3.362882E-17	1.399855E-18
3.750000E+03	3.417806E-17	1.421661E-18
3.760000E+03	3.474853E-17	1.444314E-18
3.770000E+03	3.533198E-17	1.467466E-18
3.780000E+03	3.593353E-17	1.491330E-18
3.790000E+03	3.655857E-17	1.516127E-18
3.800000E+03	3.719845E-17	1.541496E-18
3.810000E+03	3.785849E-17	1.567656E-18
3.820000E+03	3.854433E-17	1.594838E-18
3.830000E+03	3.924687E-17	1.622664E-18
3.840000E+03	3.997672E-17	1.651570E-18
3.850000E+03	4.072447E-17	1.681164E-18
3.860000E+03	4.150106E-17	1.711896E-18
3.870000E+03	4.230203E-17	1.743580E-18
3.880000E+03	4.312256E-17	1.776014E-18
3.890000E+03	4.397406E-17	1.809666E-18
3.900000E+03	4.484610E-17	1.844104E-18
3.910000E+03	4.575039E-17	1.879806E-18
3.920000E+03	4.668191E-17	1.916564E-18
3.930000E+03	4.763516E-17	1.954148E-18
3.940000E+03	4.862234E-17	1.993057E-18
3.950000E+03	4.963797E-17	2.033062E-18
3.960000E+03	5.067608E-17	2.073917E-18
3.970000E+03	5.174940E-17	2.116138E-18
3.980000E+03	5.285192E-17	2.159478E-18
3.990000E+03	5.398379E-17	2.203939E-18
4.000000E+03	5.513827E-17	2.249243E-18
4.010000E+03	5.632881E-17	2.295936E-18
4.020000E+03	5.754864E-17	2.343738E-18
4.030000E+03	5.879041E-17	2.392347E-18
4.040000E+03	6.006812E-17	2.442330E-18
4.050000E+03	6.137438E-17	2.493383E-18
4.060000E+03	6.270115E-17	2.545175E-18
4.070000E+03	6.406302E-17	2.598298E-18
4.080000E+03	6.545191E-17	2.652419E-18
4.090000E+03	6.685902E-17	2.707179E-18
4.100000E+03	6.829959E-17	2.763194E-18
4.110000E+03	6.976480E-17	2.820102E-18
4.120000E+03	7.124508E-17	2.877514E-18
4.130000E+03	7.275632E-17	2.936070E-18
4.140000E+03	7.428001E-17	2.995021E-18
4.150000E+03	7.583248E-17	3.055022E-18
4.160000E+03	7.739435E-17	3.115291E-18
4.170000E+03	7.898241E-17	3.176501E-18
4.180000E+03	8.057639E-17	3.237835E-18
4.190000E+03	8.219355E-17	3.299986E-18
4.200000E+03	8.381271E-17	3.362101E-18
4.210000E+03	8.544149E-17	3.424485E-18
4.220000E+03	8.708810E-17	3.487466E-18
4.230000E+03	8.873001E-17	3.550141E-18
4.240000E+03	9.037503E-17	3.612822E-18
4.250000E+03	9.202078E-17	3.675414E-18
4.260000E+03	9.367575E-17	3.738255E-18
4.270000E+03	9.531559E-17	3.800373E-18
4.280000E+03	9.694842E-17	3.862094E-18
4.290000E+03	9.857149E-17	3.923309E-18
4.300000E+03	1.001820E-16	3.983906E-18
4.310000E+03	1.017770E-16	4.043772E-18
4.320000E+03	1.033536E-16	4.102793E-18
4.330000E+03	1.048968E-16	4.160373E-18
4.340000E+03	1.064277E-16	4.217355E-18
4.350000E+03	1.079314E-16	4.273151E-18
4.360000E+03	1.094051E-16	4.327653E-18
4.370000E+03	1.108337E-16	4.380261E-18
4.380000E+03	1.122395E-16	4.431871E-18
4.390000E+03	1.135950E-16	4.481392E-18
4.400000E+03	1.149245E-16	4.529790E-18
4.410000E+03	1.162010E-16	4.576010E-18
4.420000E+03	1.174370E-16	4.620542E-18
4.430000E+03	1.186457E-16	4.663911E-18
4.440000E+03	1.198005E-16	4.705080E-18
4.450000E+03	1.209149E-16	4.744578E-18
4.460000E+03	1.219894E-16	4.782432E-18
4.470000E+03	1.230247E-16	4.818676E-18
4.480000E+03	1.240215E-16	4.853340E-18
4.490000E+03	1.249667E-16	4.885918E-18
4.500000E+03	1.258894E-16	4.917548E-18
4.510000E+03	1.267765E-16	4.947725E-18
4.520000E+03	1.276151E-16	4.975949E-18
4.530000E+03	1.284349E-16	5.003384E-18
4.540000E+03	1.292084E-16	5.028958E-18
4.550000E+03	1.299658E-16	5.053855E-18
4.560000E+03	1.306796E-16	5.077006E-18
4.570000E+03	1.313654E-16	5.099023E-18
4.580000E+03	1.320249E-16	5.119969E-18
4.590000E+03	1.326594E-16	5.139906E-18
4.600000E+03	1.332703E-16	5.158887E-18
4.610000E+03	1.338592E-16	5.176974E-18
4.620000E+03	1.344276E-16	5.194227E-18
4.630000E+03	1.349621E-16	5.210137E-18
4.640000E+03	1.354940E-16	5.225913E-18
4.650000E+03	1.359951E-16	5.240463E-18
4.660000E+03	1.364819E-16	5.254432E-18
4.670000E+03	1.369708E-16	5.268453E-18
4.680000E+03	1.374337E-16	5.281442E-18
4.690000E+03	1.378872E-16	5.294041E-18
4.700000E+03	1.383329E-16	5.306311E-18
4.710000E+03	1.387727E-16	5.318327E-18
4.720000E+03	1.391930E-16	5.329570E-18
4.730000E+03	1.396258E-16	5.341266E-18
4.740000E+03	1.400578E-16	5.352906E-18
4.750000E+03	1.404756E-16	5.363976E-18
4.760000E+03	1.408961E-16	5.375124E-18
4.770000E+03	1.413364E-16	5.387005E-18
4.780000E+03	1.417678E-16	5.398517E-18
4.790000E+03	1.422073E-16	5.410316E-18
4.800000E+03	1.426568E-16	5.422468E-18
4.810000E+03	1.431180E-16	5.435042E-18
4.820000E+03	1.435774E-16	5.447520E-18
4.830000E+03	1.440676E-16	5.461136E-18
4.840000E+03	1.445593E-16	5.474785E-18
4.850000E+03	1.450854E-16	5.489706E-18
4.860000E+03	1.456163E-16	5.504782E-18
4.870000E+03	1.461695E-16	5.520670E-18
4.880000E+03	1.467464E-16	5.537421E-18
4.890000E+03	1.473486E-16	5.555093E-18
4.900000E+03	1.479777E-16	5.573745E-18
4.910000E+03	1.486350E-16	5.593426E-18
4.920000E+03	1.493063E-16	5.613595E-18
4.930000E+03	1.500244E-16	5.635485E-18
4.940000E+03	1.507589E-16	5.657951E-18
4.950000E+03	1.515266E-16	5.681625E-18
4.960000E+03	1.523289E-16	5.706550E-18
4.970000E+03	1.531665E-16	5.732753E-18
4.980000E+03	1.540405E-16	5.760273E-18
4.990000E+03	1.549516E-16	5.789132E-18
5.000000E+03	1.559006E-16	5.819354E-18
5.010000E+03	1.568715E-16	5.850343E-18
5.020000E+03	1.578977E-16	5.883342E-18
5.030000E+03	1.589465E-16	5.917125E-18
5.040000E+03	1.600346E-16	5.952313E-18
5.050000E+03	1.611621E-16	5.988909E-18
5.060000E+03	1.623291E-16	6.026910E-18
5.070000E+03	1.635351E-16	6.066298E-18
5.080000E+03	1.647801E-16	6.107068E-18
5.090000E+03	1.660462E-16	6.148552E-18
5.100000E+03	1.673672E-16	6.192004E-18
5.110000E+03	1.687077E-16	6.236108E-18
5.120000E+03	1.700841E-16	6.281467E-18
5.130000E+03	1.715127E-16	6.328685E-18
5.140000E+03	1.729572E-16	6.376415E-18
5.150000E+03	1.744334E-16	6.425239E-18
5.160000E+03	1.759215E-16	6.474429E-18
5.170000E+03	1.774559E-16	6.525248E-18
5.180000E+03	1.790162E-16	6.576947E-18
5.190000E+03	1.805818E-16	6.628762E-18
5.200000E+03	1.821682E-16	6.681267E-18
5.210000E+03	1.837917E-16	6.735054E-18
5.220000E+03	1.854114E-16	6.788629E-18
5.230000E+03	1.870430E-16	6.842565E-18
5.240000E+03	1.886636E-16	6.896027E-18
5.250000E+03	1.903080E-16	6.950289E-18
5.260000E+03	1.919533E-16	7.004508E-18
5.270000E+03	1.935753E-16	7.057811E-18
5.280000E+03	1.952094E-16	7.111486E-18
5.290000E+03	1.968108E-16	7.163909E-18
5.300000E+03	1.983951E-16	7.215644E-18
5.310000E+03	1.999572E-16	7.266515E-18
5.320000E+03	2.014921E-16	7.316339E-18
5.330000E+03	2.029947E-16	7.364938E-18
5.340000E+03	2.044596E-16	7.412124E-18
5.350000E+03	2.058608E-16	7.456954E-18
5.360000E+03	2.072348E-16	7.500757E-18
5.370000E+03	2.085342E-16	7.541829E-18
5.380000E+03	2.097750E-16	7.580749E-18
5.390000E+03	2.109736E-16	7.618119E-18
5.400000E+03	2.120824E-16	7.652225E-18
5.410000E+03	2.131183E-16	7.683687E-18
5.420000E+03	2.140551E-16	7.711574E-18
5.430000E+03	2.149325E-16	7.737315E-18
5.440000E+03	2.157253E-16	7.760015E-18
5.450000E+03	2.164086E-16	7.778787E-18
5.460000E+03	2.170234E-16	7.795116E-18
5.470000E+03	2.175241E-16	7.807368E-18
5.480000E+03	2.179310E-16	7.816286E-18
5.490000E+03	2.182435E-16	7.821851E-18
5.500000E+03	2.184611E-16	7.824061E-18
5.510000E+03	2.185845E-16	7.822944E-18
5.520000E+03	2.186144E-16	7.818535E-18
5.530000E+03	2.185304E-16	7.810112E-18
5.540000E+03	2.183790E-16	7.799340E-18
5.550000E+03	2.181187E-16	7.784748E-18
5.560000E+03	2.177969E-16	7.768031E-18
5.570000E+03	2.173733E-16	7.747758E-18
5.580000E+03	2.168741E-16	7.724870E-18
5.590000E+03	2.163038E-16	7.699532E-18
5.600000E+03	2.156674E-16	7.671925E-18
5.610000E+03	2.149698E-16	7.642232E-18
5.620000E+03	2.142165E-16	7.610645E-18
5.630000E+03	2.134130E-16	7.577368E-18
5.640000E+03	2.125435E-16	7.541840E-18
5.650000E+03	2.116564E-16	7.505787E-18
5.660000E+03	2.107149E-16	7.467897E-18
5.670000E+03	2.097457E-16	7.429123E-18
5.680000E+03	2.087755E-16	7.390411E-18
5.690000E+03	2.077673E-16	7.350453E-18
5.700000E+03	2.067475E-16	7.310182E-18
5.710000E+03	2.057212E-16	7.269780E-18
5.720000E+03	2.046930E-16	7.229408E-18
5.730000E+03	2.036470E-16	7.188503E-18
5.740000E+03	2.026284E-16	7.148663E-18
5.750000E+03	2.016206E-16	7.109300E-18
5.760000E+03	2.006071E-16	7.069826E-18
5.770000E+03	1.996115E-16	7.031081E-18
5.780000E+03	1.986568E-16	6.993866E-18
5.790000E+03	1.977057E-16	6.956871E-18
5.800000E+03	1.967804E-16	6.920873E-18
5.810000E+03	1.958832E-16	6.885950E-18
5.820000E+03	1.950157E-16	6.852158E-18
5.830000E+03	1.941793E-16	6.819544E-18
5.840000E+03	1.933750E-16	6.788139E-18
5.850000E+03	1.926036E-16	6.757975E-18
5.860000E+03	1.918655E-16	6.729059E-18
5.870000E+03	1.911419E-16	6.700728E-18
5.880000E+03	1.904708E-16	6.674321E-18
5.890000E+03	1.898137E-16	6.648479E-18
5.900000E+03	1.891890E-16	6.623850E-18
5.910000E+03	1.886148E-16	6.601065E-18
5.920000E+03	1.880521E-16	6.578755E-18
5.930000E+03	1.875184E-16	6.557530E-18
5.940000E+03	1.870121E-16	6.537337E-18
5.950000E+03	1.865311E-16	6.518104E-18
5.960000E+03	1.860739E-16	6.499768E-18
5.970000E+03	1.856377E-16	6.482242E-18
5.980000E+03	1.852204E-16	6.465443E-18
5.990000E+03	1.848195E-16	6.449283E-18
6.000000E+03	1.844135E-16	6.433019E-18
6.010000E+03	1.840368E-16	6.417842E-18
6.020000E+03	1.836493E-16	6.402361E-18
6.030000E+03	1.832848E-16	6.387748E-18
6.040000E+03	1.829033E-16	6.372613E-18
6.050000E+03	1.825381E-16	6.358116E-18
6.060000E+03	1.821494E-16	6.342869E-18
6.070000E+03	1.817521E-16	6.327389E-18
6.080000E+03	1.813426E-16	6.311557E-18
6.090000E+03	1.809175E-16	6.295252E-18
6.100000E+03	1.804735E-16	6.278362E-18
6.110000E+03	1.800072E-16	6.260765E-18
6.120000E+03	1.795153E-16	6.242348E-18
6.130000E+03	1.789946E-16	6.223002E-18
6.140000E+03	1.784420E-16	6.202620E-18
6.150000E+03	1.778547E-16	6.181101E-18
6.160000E+03	1.772119E-16	6.157728E-18
6.170000E+03	1.765471E-16	6.133657E-18
6.180000E+03	1.758222E-16	6.107571E-18
6.190000E+03	1.750708E-16	6.080632E-18
6.200000E+03	1.742558E-16	6.051552E-18
6.210000E+03	1.734111E-16	6.021505E-18
6.220000E+03	1.725008E-16	5.989245E-18
6.230000E+03	1.715415E-16	5.955349E-18
6.240000E+03	1.705505E-16	5.920415E-18
6.250000E+03	1.694933E-16	5.883244E-18
6.260000E+03	1.683881E-16	5.844466E-18
6.270000E+03	1.672359E-16	5.804115E-18
6.280000E+03	1.660380E-16	5.762233E-18
6.290000E+03	1.647962E-16	5.718886E-18
6.300000E+03	1.635125E-16	5.674137E-18
6.310000E+03	1.621892E-16	5.628063E-18
6.320000E+03	1.608287E-16	5.580749E-18
6.330000E+03	1.594335E-16	5.532282E-18
6.340000E+03	1.580066E-16	5.482760E-18
6.350000E+03	1.565349E-16	5.431728E-18
6.360000E+03	1.550533E-16	5.380394E-18
6.370000E+03	1.535487E-16	5.328304E-18
6.380000E+03	1.520088E-16	5.275028E-18
6.390000E+03	1.504676E-16	5.221743E-18
6.400000E+03	1.488975E-16	5.167491E-18
6.410000E+03	1.473317E-16	5.113424E-18
6.420000E+03	1.457432E-16	5.058601E-18
6.430000E+03	1.441646E-16	5.004148E-18
6.440000E+03	1.425690E-16	4.949137E-18
6.450000E+03	1.409885E-16	4.894677E-18
6.460000E+03	1.393966E-16	4.839845E-18
6.470000E+03	1.378105E-16	4.785238E-18
6.480000E+03	1.362323E-16	4.730929E-18
6.490000E+03	1.346644E-16	4.676998E-18
6.500000E+03	1.331222E-16	4.623980E-18
6.510000E+03	1.315809E-16	4.571009E-18
6.520000E+03	1.300557E-16	4.518616E-18
6.530000E+03	1.285487E-16	4.466871E-18
6.540000E+03	1.270614E-16	4.415822E-18
6.550000E+03	1.255954E-16	4.365529E-18
6.560000E+03	1.241521E-16	4.316037E-18
6.570000E+03	1.227331E-16	4.267401E-18
6.580000E+03	1.213271E-16	4.219227E-18
6.590000E+03	1.199602E-16	4.172421E-18
6.600000E+03	1.186212E-16	4.126593E-18
6.610000E+03	1.173108E-16	4.081771E-18
6.620000E+03	1.160302E-16	4.037992E-18
6.630000E+03	1.147685E-16	3.994877E-18
6.640000E+03	1.135501E-16	3.953273E-18
6.650000E+03	1.123638E-16	3.912795E-18
6.660000E+03	1.111991E-16	3.873071E-18
6.670000E+03	1.100793E-16	3.834919E-18
6.680000E+03	1.089825E-16	3.797572E-18
6.690000E+03	1.079316E-16	3.761826E-18
6.700000E+03	1.069049E-16	3.726930E-18
6.710000E+03	1.059249E-16	3.693662E-18
6.720000E+03	1.049701E-16	3.661280E-18
6.730000E+03	1.040626E-16	3.630549E-18
6.740000E+03	1.031813E-16	3.600737E-18
6.750000E+03	1.023372E-16	3.572228E-18
6.760000E+03	1.015308E-16	3.545035E-18
6.770000E+03	1.007724E-16	3.519526E-18
6.780000E+03	1.000418E-16	3.494988E-18
6.790000E+03	9.934945E-17	3.471793E-18
6.800000E+03	9.869561E-17	3.449947E-18
6.810000E+03	9.809049E-17	3.429810E-18
6.820000E+03	9.751414E-17	3.410685E-18
6.830000E+03	9.697679E-17	3.392929E-18
6.840000E+03	9.647858E-17	3.376549E-18
6.850000E+03	9.601964E-17	3.361550E-18
6.860000E+03	9.560006E-17	3.347936E-18
6.870000E+03	9.521995E-17	3.335713E-18
6.880000E+03	9.487937E-17	3.324884E-18
6.890000E+03	9.457838E-17	3.315451E-18
6.900000E+03	9.431703E-17	3.307418E-18
6.910000E+03	9.408566E-17	3.300448E-18
6.920000E+03	9.390369E-17	3.295222E-18
6.930000E+03	9.376140E-17	3.291401E-18
6.940000E+03	9.365877E-17	3.288987E-18
6.950000E+03	9.359578E-17	3.287979E-18
6.960000E+03	9.356272E-17	3.288038E-18
6.970000E+03	9.357882E-17	3.289842E-18
6.980000E+03	9.363433E-17	3.293049E-18
6.990000E+03	9.371947E-17	3.297317E-18
7.000000E+03	9.385344E-17	3.303324E-18
7.010000E+03	9.401670E-17	3.310382E-18
7.020000E+03	9.422849E-17	3.319172E-18
7.030000E+03	9.446910E-17	3.329001E-18
7.040000E+03	9.475784E-17	3.340551E-18
7.050000E+03	9.507482E-17	3.353123E-18
7.060000E+03	9.543941E-17	3.367402E-18
7.070000E+03	9.583152E-17	3.382682E-18
7.080000E+03	9.627058E-17	3.399650E-18
7.090000E+03	9.673627E-17	3.417590E-18
7.100000E+03	9.723803E-17	3.436839E-18
7.110000E+03	9.777534E-17	3.457379E-18
7.120000E+03	9.835787E-17	3.479555E-18
7.130000E+03	9.896461E-17	3.502627E-18
7.140000E+03	9.960503E-17	3.526930E-18
7.150000E+03	1.002784E-16	3.552442E-18
7.160000E+03	1.009839E-16	3.579135E-18
7.170000E+03	1.017207E-16	3.606981E-18
7.180000E+03	1.024877E-16	3.635949E-18
7.190000E+03	1.032841E-16	3.666003E-18
7.200000E+03	1.041085E-16	3.697106E-18
7.210000E+03	1.049600E-16	3.729218E-18
7.220000E+03	1.058370E-16	3.762293E-18
7.230000E+03	1.067383E-16	3.796286E-18
7.240000E+03	1.076623E-16	3.831142E-18
7.250000E+03	1.086074E-16	3.866808E-18
7.260000E+03	1.095603E-16	3.902814E-18
7.270000E+03	1.105421E-16	3.939908E-18
7.280000E+03	1.115394E-16	3.977618E-18
7.290000E+03	1.125383E-16	4.015448E-18
7.300000E+03	1.135599E-16	4.054157E-18
7.310000E+03	1.145902E-16	4.093243E-18
7.320000E+03	1.156146E-16	4.132183E-18
7.330000E+03	1.166544E-16	4.171747E-18
7.340000E+03	1.176824E-16	4.210959E-18
7.350000E+03	1.187203E-16	4.250597E-18
7.360000E+03	1.197401E-16	4.289659E-18
7.370000E+03	1.207508E-16	4.328469E-18
7.380000E+03	1.217618E-16	4.367367E-18
7.390000E+03	1.227442E-16	4.405307E-18
7.400000E+03	1.237068E-16	4.442615E-18
7.410000E+03	1.246458E-16	4.479151E-18
7.420000E+03	1.255574E-16	4.514775E-18
7.430000E+03	1.264375E-16	4.549341E-18
7.440000E+03	1.272955E-16	4.583187E-18
7.450000E+03	1.281004E-16	4.615194E-18
7.460000E+03	1.288614E-16	4.645693E-18
7.470000E+03	1.295605E-16	4.674027E-18
7.480000E+03	1.302209E-16	4.701039E-18
7.490000E+03	1.308249E-16	4.726079E-18
7.500000E+03	1.313684E-16	4.749001E-18
7.510000E+03	1.318474E-16	4.769656E-18
7.520000E+03	1.322580E-16	4.787896E-18
7.530000E+03	1.325827E-16	4.803083E-18
7.540000E+03	1.328459E-16	4.816100E-18
7.550000E+03	1.330165E-16	4.825810E-18
7.560000E+03	1.331200E-16	4.833127E-18
7.570000E+03	1.331255E-16	4.836931E-18
7.580000E+03	1.330592E-16	4.838160E-18
7.590000E+03	1.328912E-16	4.835723E-18
7.600000E+03	1.326485E-16	4.830590E-18
7.610000E+03	1.323023E-16	4.821707E-18
7.620000E+03	1.318663E-16	4.809561E-18
7.630000E+03	1.313557E-16	4.794704E-18
7.640000E+03	1.307436E-16	4.776142E-18
7.650000E+03	1.300462E-16	4.754456E-18
7.660000E+03	1.292659E-16	4.729729E-18
7.670000E+03	1.284053E-16	4.702045E-18
7.680000E+03	1.274676E-16	4.671512E-18
7.690000E+03	1.264560E-16	4.638244E-18
7.700000E+03	1.253743E-16	4.602365E-18
7.710000E+03	1.242261E-16	4.564008E-18
7.720000E+03	1.230022E-16	4.522822E-18
7.730000E+03	1.217334E-16	4.479931E-18
7.740000E+03	1.204103E-16	4.434990E-18
7.750000E+03	1.190243E-16	4.387670E-18
7.760000E+03	1.176056E-16	4.339078E-18
