#wls	flux	fluxerr
1.600000E+03	4.120815E-18	2.412961E-19
1.640000E+03	4.126458E-18	2.415245E-19
1.680000E+03	4.132519E-18	2.417743E-19
1.720000E+03	4.139046E-18	2.420480E-19
1.760000E+03	4.146093E-18	2.423487E-19
1.800000E+03	4.153719E-18	2.426798E-19
1.840000E+03	4.161992E-18	2.430450E-19
1.880000E+03	4.170984E-18	2.434485E-19
1.920000E+03	4.180780E-18	2.438950E-19
1.960000E+03	4.191469E-18	2.443895E-19
2.000000E+03	4.203152E-18	2.449377E-19
2.040000E+03	4.215939E-18	2.455459E-19
2.080000E+03	4.229953E-18	2.462210E-19
2.120000E+03	4.245327E-18	2.469705E-19
2.160000E+03	4.262209E-18	2.478027E-19
2.200000E+03	4.280759E-18	2.487267E-19
2.240000E+03	4.301157E-18	2.497526E-19
2.280000E+03	4.323594E-18	2.508910E-19
2.320000E+03	4.349065E-18	2.521994E-19
2.360000E+03	4.376243E-18	2.536003E-19
2.400000E+03	4.406158E-18	2.551530E-19
2.440000E+03	4.439087E-18	2.568731E-19
2.480000E+03	4.476137E-18	2.588238E-19
2.520000E+03	4.516036E-18	2.609311E-19
2.560000E+03	4.559943E-18	2.632612E-19
2.600000E+03	4.609078E-18	2.658838E-19
2.640000E+03	4.662229E-18	2.687279E-19
2.680000E+03	4.720685E-18	2.718670E-19
2.720000E+03	4.785823E-18	2.753792E-19
2.760000E+03	4.856503E-18	2.791977E-19
2.800000E+03	4.935080E-18	2.834565E-19
2.840000E+03	5.020481E-18	2.880925E-19
2.880000E+03	5.115247E-18	2.932498E-19
2.920000E+03	5.218393E-18	2.988699E-19
2.960000E+03	5.332684E-18	3.051093E-19
3.000000E+03	5.457245E-18	3.119155E-19
3.010000E+03	5.491002E-18	3.137631E-19
3.020000E+03	5.524567E-18	3.155983E-19
3.030000E+03	5.559931E-18	3.175348E-19
3.040000E+03	5.595130E-18	3.194603E-19
3.050000E+03	5.631172E-18	3.214324E-19
3.060000E+03	5.669093E-18	3.235102E-19
3.070000E+03	5.706893E-18	3.255794E-19
3.080000E+03	5.745598E-18	3.276986E-19
3.090000E+03	5.786269E-18	3.299282E-19
3.100000E+03	5.826863E-18	3.321516E-19
3.110000E+03	5.869483E-18	3.344887E-19
3.120000E+03	5.912059E-18	3.368215E-19
3.130000E+03	5.955660E-18	3.392108E-19
3.140000E+03	6.001384E-18	3.417191E-19
3.150000E+03	6.047118E-18	3.442259E-19
3.160000E+03	6.095044E-18	3.468556E-19
3.170000E+03	6.143018E-18	3.494858E-19
3.180000E+03	6.192150E-18	3.521798E-19
3.190000E+03	6.243585E-18	3.550026E-19
3.200000E+03	6.295129E-18	3.578294E-19
3.210000E+03	6.349054E-18	3.607893E-19
3.220000E+03	6.403134E-18	3.637555E-19
3.230000E+03	6.459677E-18	3.668593E-19
3.240000E+03	6.516419E-18	3.699719E-19
3.250000E+03	6.574539E-18	3.731602E-19
3.260000E+03	6.635257E-18	3.764934E-19
3.270000E+03	6.696247E-18	3.798394E-19
3.280000E+03	6.759930E-18	3.833353E-19
3.290000E+03	6.823939E-18	3.868470E-19
3.300000E+03	6.889508E-18	3.904442E-19
3.310000E+03	6.957922E-18	3.941997E-19
3.320000E+03	7.026745E-18	3.979754E-19
3.330000E+03	7.098520E-18	4.019152E-19
3.340000E+03	7.170767E-18	4.058784E-19
3.350000E+03	7.244785E-18	4.099387E-19
3.360000E+03	7.321926E-18	4.141723E-19
3.370000E+03	7.399636E-18	4.184347E-19
3.380000E+03	7.480590E-18	4.228770E-19
3.390000E+03	7.562184E-18	4.273518E-19
3.400000E+03	7.647151E-18	4.320135E-19
3.410000E+03	7.732830E-18	4.367116E-19
3.420000E+03	7.820622E-18	4.415252E-19
3.430000E+03	7.911995E-18	4.465368E-19
3.440000E+03	8.004196E-18	4.515911E-19
3.450000E+03	8.100121E-18	4.568513E-19
3.460000E+03	8.196959E-18	4.621585E-19
3.470000E+03	8.296195E-18	4.675965E-19
3.480000E+03	8.399389E-18	4.732531E-19
3.490000E+03	8.503626E-18	4.789636E-19
3.500000E+03	8.611988E-18	4.849016E-19
3.510000E+03	8.721484E-18	4.908986E-19
3.520000E+03	8.835278E-18	4.971323E-19
3.530000E+03	8.950304E-18	5.034300E-19
3.540000E+03	9.068191E-18	5.098833E-19
3.550000E+03	9.190650E-18	5.165881E-19
3.560000E+03	9.314496E-18	5.233653E-19
3.570000E+03	9.443107E-18	5.304042E-19
3.580000E+03	9.573215E-18	5.375212E-19
3.590000E+03	9.706558E-18	5.448138E-19
3.600000E+03	9.844974E-18	5.523847E-19
3.610000E+03	9.985055E-18	5.600425E-19
3.620000E+03	1.013042E-17	5.679901E-19
3.630000E+03	1.027758E-17	5.760310E-19
3.640000E+03	1.043024E-17	5.843737E-19
3.650000E+03	1.058481E-17	5.928158E-19
3.660000E+03	1.074321E-17	6.014651E-19
3.670000E+03	1.090747E-17	6.104347E-19
3.680000E+03	1.107383E-17	6.195139E-19
3.690000E+03	1.124629E-17	6.289265E-19
3.700000E+03	1.142098E-17	6.384552E-19
3.710000E+03	1.159996E-17	6.482154E-19
3.720000E+03	1.178543E-17	6.583293E-19
3.730000E+03	1.197332E-17	6.685694E-19
3.740000E+03	1.216796E-17	6.791771E-19
3.750000E+03	1.236515E-17	6.899178E-19
3.760000E+03	1.256937E-17	7.010409E-19
3.770000E+03	1.277625E-17	7.123027E-19
3.780000E+03	1.298812E-17	7.238320E-19
3.790000E+03	1.320743E-17	7.357653E-19
3.800000E+03	1.342961E-17	7.478477E-19
3.810000E+03	1.365950E-17	7.603480E-19
3.820000E+03	1.389237E-17	7.730033E-19
3.830000E+03	1.413072E-17	7.859515E-19
3.840000E+03	1.437720E-17	7.993396E-19
3.850000E+03	1.462684E-17	8.128909E-19
3.860000E+03	1.488488E-17	8.268971E-19
3.870000E+03	1.514618E-17	8.410704E-19
3.880000E+03	1.541615E-17	8.557122E-19
3.890000E+03	1.568944E-17	8.705250E-19
3.900000E+03	1.596885E-17	8.856627E-19
3.910000E+03	1.625732E-17	9.012887E-19
3.920000E+03	1.654921E-17	9.170895E-19
3.930000E+03	1.685040E-17	9.333907E-19
3.940000E+03	1.715503E-17	9.498671E-19
3.950000E+03	1.746610E-17	9.666839E-19
3.960000E+03	1.778681E-17	9.840178E-19
3.970000E+03	1.811093E-17	1.001524E-18
3.980000E+03	1.844489E-17	1.019557E-18
3.990000E+03	1.878218E-17	1.037757E-18
4.000000E+03	1.912606E-17	1.056303E-18
4.010000E+03	1.947997E-17	1.075385E-18
4.020000E+03	1.983706E-17	1.094624E-18
4.030000E+03	2.020426E-17	1.114402E-18
4.040000E+03	2.057443E-17	1.134324E-18
4.050000E+03	2.095103E-17	1.154581E-18
4.060000E+03	2.133777E-17	1.175377E-18
4.070000E+03	2.172707E-17	1.196292E-18
4.080000E+03	2.212645E-17	1.217742E-18
4.090000E+03	2.252797E-17	1.239288E-18
4.100000E+03	2.293535E-17	1.261135E-18
4.110000E+03	2.335256E-17	1.283501E-18
4.120000E+03	2.377117E-17	1.305920E-18
4.130000E+03	2.419929E-17	1.328840E-18
4.140000E+03	2.462818E-17	1.351778E-18
4.150000E+03	2.506176E-17	1.374950E-18
4.160000E+03	2.550422E-17	1.398585E-18
4.170000E+03	2.594624E-17	1.422173E-18
4.180000E+03	2.639655E-17	1.446190E-18
4.190000E+03	2.684543E-17	1.470104E-18
4.200000E+03	2.729705E-17	1.494143E-18
4.210000E+03	2.775579E-17	1.518547E-18
4.220000E+03	2.821137E-17	1.542753E-18
4.230000E+03	2.867311E-17	1.567270E-18
4.240000E+03	2.913031E-17	1.591513E-18
4.250000E+03	2.958731E-17	1.615719E-18
4.260000E+03	3.004871E-17	1.640140E-18
4.270000E+03	3.050318E-17	1.664157E-18
4.280000E+03	3.095518E-17	1.688014E-18
4.290000E+03	3.140944E-17	1.711968E-18
4.300000E+03	3.185404E-17	1.735370E-18
4.310000E+03	3.229927E-17	1.758781E-18
4.320000E+03	3.273283E-17	1.781531E-18
4.330000E+03	3.315941E-17	1.803876E-18
4.340000E+03	3.358400E-17	1.826089E-18
4.350000E+03	3.399380E-17	1.847473E-18
4.360000E+03	3.439375E-17	1.868299E-18
4.370000E+03	3.478915E-17	1.888854E-18
4.380000E+03	3.516698E-17	1.908432E-18
4.390000E+03	3.553898E-17	1.927672E-18
4.400000E+03	3.589222E-17	1.945873E-18
4.410000E+03	3.623267E-17	1.963359E-18
4.420000E+03	3.656676E-17	1.980481E-18
4.430000E+03	3.688167E-17	1.996544E-18
4.440000E+03	3.718401E-17	2.011909E-18
4.450000E+03	3.748068E-17	2.026948E-18
4.460000E+03	3.775882E-17	2.040967E-18
4.470000E+03	3.802537E-17	2.054344E-18
4.480000E+03	3.828754E-17	2.067467E-18
4.490000E+03	3.853227E-17	2.079633E-18
4.500000E+03	3.876677E-17	2.091232E-18
4.510000E+03	3.899844E-17	2.102663E-18
4.520000E+03	3.921400E-17	2.113212E-18
4.530000E+03	3.942781E-17	2.123653E-18
4.540000E+03	3.962647E-17	2.133265E-18
4.550000E+03	3.981745E-17	2.142451E-18
4.560000E+03	4.000835E-17	2.151621E-18
4.570000E+03	4.018557E-17	2.160042E-18
4.580000E+03	4.035668E-17	2.168125E-18
4.590000E+03	4.052936E-17	2.176280E-18
4.600000E+03	4.068980E-17	2.183768E-18
4.610000E+03	4.084568E-17	2.191001E-18
4.620000E+03	4.100471E-17	2.198392E-18
4.630000E+03	4.115292E-17	2.205194E-18
4.640000E+03	4.129801E-17	2.211819E-18
4.650000E+03	4.144779E-17	2.218685E-18
4.660000E+03	4.158806E-17	2.225034E-18
4.670000E+03	4.172660E-17	2.231281E-18
4.680000E+03	4.187125E-17	2.237845E-18
4.690000E+03	4.200763E-17	2.243959E-18
4.700000E+03	4.214354E-17	2.250040E-18
4.710000E+03	4.227942E-17	2.256110E-18
4.720000E+03	4.242313E-17	2.262589E-18
4.730000E+03	4.256009E-17	2.268699E-18
4.740000E+03	4.269814E-17	2.274860E-18
4.750000E+03	4.284521E-17	2.281493E-18
4.760000E+03	4.298653E-17	2.287810E-18
4.770000E+03	4.312999E-17	2.294233E-18
4.780000E+03	4.328356E-17	2.301185E-18
4.790000E+03	4.343226E-17	2.307870E-18
4.800000E+03	4.358407E-17	2.314711E-18
4.810000E+03	4.374696E-17	2.322132E-18
4.820000E+03	4.390580E-17	2.329329E-18
4.830000E+03	4.406858E-17	2.336725E-18
4.840000E+03	4.423553E-17	2.344334E-18
4.850000E+03	4.441476E-17	2.352584E-18
4.860000E+03	4.459085E-17	2.360658E-18
4.870000E+03	4.477182E-17	2.368981E-18
4.880000E+03	4.496588E-17	2.377986E-18
4.890000E+03	4.515734E-17	2.386844E-18
4.900000E+03	4.535431E-17	2.395983E-18
4.910000E+03	4.555700E-17	2.405413E-18
4.920000E+03	4.577366E-17	2.415570E-18
4.930000E+03	4.598831E-17	2.425610E-18
4.940000E+03	4.620915E-17	2.435966E-18
4.950000E+03	4.644454E-17	2.447077E-18
4.960000E+03	4.667824E-17	2.458087E-18
4.970000E+03	4.691851E-17	2.469432E-18
4.980000E+03	4.716548E-17	2.481118E-18
4.990000E+03	4.742761E-17	2.493588E-18
5.000000E+03	4.768827E-17	2.505968E-18
5.010000E+03	4.795587E-17	2.518701E-18
5.020000E+03	4.823044E-17	2.531786E-18
5.030000E+03	4.852061E-17	2.545677E-18
5.040000E+03	4.880930E-17	2.559477E-18
5.050000E+03	4.910503E-17	2.573632E-18
5.060000E+03	4.940781E-17	2.588143E-18
5.070000E+03	4.972638E-17	2.603467E-18
5.080000E+03	5.004318E-17	2.618684E-18
5.090000E+03	5.036688E-17	2.634248E-18
5.100000E+03	5.069740E-17	2.650154E-18
5.110000E+03	5.104363E-17	2.666866E-18
5.120000E+03	5.138748E-17	2.683438E-18
5.130000E+03	5.173776E-17	2.700331E-18
5.140000E+03	5.209428E-17	2.717535E-18
5.150000E+03	5.246610E-17	2.735522E-18
5.160000E+03	5.283452E-17	2.753315E-18
5.170000E+03	5.320847E-17	2.771382E-18
5.180000E+03	5.358767E-17	2.789707E-18
5.190000E+03	5.397179E-17	2.808272E-18
5.200000E+03	5.437004E-17	2.827557E-18
5.210000E+03	5.476292E-17	2.846547E-18
5.220000E+03	5.515952E-17	2.865715E-18
5.230000E+03	5.555933E-17	2.885035E-18
5.240000E+03	5.597174E-17	2.904994E-18
5.250000E+03	5.637649E-17	2.924540E-18
5.260000E+03	5.678276E-17	2.944150E-18
5.270000E+03	5.718989E-17	2.963791E-18
5.280000E+03	5.759717E-17	2.983425E-18
5.290000E+03	5.801405E-17	3.003543E-18
5.300000E+03	5.841931E-17	3.023046E-18
5.310000E+03	5.882223E-17	3.042415E-18
5.320000E+03	5.922185E-17	3.061600E-18
5.330000E+03	5.961717E-17	3.080552E-18
5.340000E+03	6.001770E-17	3.099762E-18
5.350000E+03	6.040118E-17	3.118080E-18
5.360000E+03	6.077693E-17	3.135989E-18
5.370000E+03	6.114365E-17	3.153423E-18
5.380000E+03	6.150001E-17	3.170315E-18
5.390000E+03	6.185551E-17	3.187155E-18
5.400000E+03	6.218689E-17	3.202746E-18
5.410000E+03	6.250348E-17	3.217570E-18
5.420000E+03	6.280367E-17	3.231546E-18
5.430000E+03	6.308585E-17	3.244592E-18
5.440000E+03	6.334836E-17	3.256625E-18
5.450000E+03	6.360078E-17	3.268138E-18
5.460000E+03	6.381913E-17	3.277902E-18
5.470000E+03	6.401313E-17	3.286418E-18
5.480000E+03	6.418158E-17	3.293626E-18
5.490000E+03	6.432359E-17	3.299483E-18
5.500000E+03	6.443873E-17	3.303969E-18
5.510000E+03	6.453849E-17	3.307673E-18
5.520000E+03	6.460062E-17	3.309459E-18
5.530000E+03	6.463735E-17	3.309955E-18
5.540000E+03	6.464978E-17	3.309219E-18
5.550000E+03	6.463914E-17	3.307314E-18
5.560000E+03	6.460673E-17	3.304310E-18
5.570000E+03	6.455389E-17	3.300276E-18
5.580000E+03	6.449331E-17	3.295862E-18
5.590000E+03	6.440355E-17	3.289972E-18
5.600000E+03	6.429729E-17	3.283258E-18
5.610000E+03	6.417575E-17	3.275780E-18
5.620000E+03	6.404017E-17	3.267605E-18
5.630000E+03	6.389167E-17	3.258789E-18
5.640000E+03	6.373138E-17	3.249392E-18
5.650000E+03	6.356034E-17	3.239466E-18
5.660000E+03	6.339072E-17	3.229632E-18
5.670000E+03	6.320111E-17	3.218800E-18
5.680000E+03	6.300360E-17	3.207586E-18
5.690000E+03	6.279904E-17	3.196035E-18
5.700000E+03	6.258824E-17	3.184186E-18
5.710000E+03	6.237193E-17	3.172078E-18
5.720000E+03	6.215080E-17	3.159747E-18
5.730000E+03	6.192553E-17	3.147227E-18
5.740000E+03	6.169671E-17	3.134547E-18
5.750000E+03	6.147574E-17	3.122288E-18
5.760000E+03	6.124144E-17	3.109373E-18
5.770000E+03	6.100515E-17	3.096378E-18
5.780000E+03	6.076732E-17	3.083327E-18
5.790000E+03	6.052834E-17	3.070239E-18
5.800000E+03	6.028857E-17	3.057132E-18
5.810000E+03	6.004834E-17	3.044023E-18
5.820000E+03	5.980795E-17	3.030927E-18
5.830000E+03	5.956763E-17	3.017856E-18
5.840000E+03	5.932761E-17	3.004821E-18
5.850000E+03	5.909849E-17	2.992359E-18
5.860000E+03	5.885957E-17	2.979422E-18
5.870000E+03	5.862142E-17	2.966544E-18
5.880000E+03	5.838415E-17	2.953731E-18
5.890000E+03	5.814780E-17	2.940986E-18
5.900000E+03	5.791242E-17	2.928310E-18
5.910000E+03	5.767801E-17	2.915703E-18
5.920000E+03	5.744458E-17	2.903167E-18
5.930000E+03	5.721205E-17	2.890696E-18
5.940000E+03	5.698037E-17	2.878288E-18
5.950000E+03	5.674943E-17	2.865937E-18
5.960000E+03	5.651911E-17	2.853637E-18
5.970000E+03	5.628926E-17	2.841381E-18
5.980000E+03	5.605969E-17	2.829159E-18
5.990000E+03	5.583021E-17	2.816961E-18
6.000000E+03	5.561039E-17	2.805270E-18
6.010000E+03	5.538033E-17	2.793082E-18
6.020000E+03	5.514957E-17	2.780878E-18
6.030000E+03	5.491784E-17	2.768644E-18
6.040000E+03	5.468478E-17	2.756363E-18
6.050000E+03	5.445005E-17	2.744016E-18
6.060000E+03	5.421324E-17	2.731584E-18
6.070000E+03	5.397396E-17	2.719047E-18
6.080000E+03	5.373176E-17	2.706382E-18
6.090000E+03	5.348616E-17	2.693565E-18
6.100000E+03	5.323667E-17	2.680571E-18
6.110000E+03	5.298279E-17	2.667375E-18
6.120000E+03	5.272395E-17	2.653948E-18
6.130000E+03	5.245960E-17	2.640262E-18
6.140000E+03	5.218913E-17	2.626288E-18
6.150000E+03	5.191191E-17	2.611993E-18
6.160000E+03	5.162731E-17	2.597346E-18
6.170000E+03	5.133469E-17	2.582313E-18
6.180000E+03	5.103339E-17	2.566861E-18
6.190000E+03	5.072275E-17	2.550958E-18
6.200000E+03	5.040217E-17	2.534572E-18
6.210000E+03	5.007109E-17	2.517675E-18
6.220000E+03	4.972906E-17	2.500244E-18
6.230000E+03	4.937586E-17	2.482268E-18
6.240000E+03	4.901148E-17	2.463746E-18
6.250000E+03	4.863620E-17	2.444693E-18
6.260000E+03	4.825068E-17	2.425140E-18
6.270000E+03	4.785577E-17	2.405130E-18
6.280000E+03	4.745251E-17	2.384716E-18
6.290000E+03	4.704203E-17	2.363952E-18
6.300000E+03	4.662547E-17	2.342898E-18
6.310000E+03	4.620396E-17	2.321608E-18
6.320000E+03	4.577860E-17	2.300138E-18
6.330000E+03	4.535044E-17	2.278540E-18
6.340000E+03	4.492047E-17	2.256863E-18
6.350000E+03	4.448961E-17	2.235154E-18
6.360000E+03	4.405872E-17	2.213454E-18
6.370000E+03	4.362860E-17	2.191805E-18
6.380000E+03	4.320003E-17	2.170243E-18
6.390000E+03	4.277366E-17	2.148803E-18
6.400000E+03	4.235014E-17	2.127516E-18
6.410000E+03	4.193007E-17	2.106411E-18
6.420000E+03	4.151397E-17	2.085515E-18
6.430000E+03	4.110232E-17	2.064852E-18
6.440000E+03	4.069558E-17	2.044444E-18
6.450000E+03	4.029415E-17	2.024310E-18
6.460000E+03	3.989840E-17	2.004470E-18
6.470000E+03	3.950865E-17	1.984938E-18
6.480000E+03	3.912522E-17	1.965731E-18
6.490000E+03	3.874838E-17	1.946862E-18
6.500000E+03	3.837835E-17	1.928342E-18
6.510000E+03	3.801535E-17	1.910181E-18
6.520000E+03	3.765957E-17	1.892389E-18
6.530000E+03	3.730462E-17	1.874644E-18
6.540000E+03	3.696383E-17	1.857616E-18
6.550000E+03	3.663069E-17	1.840979E-18
6.560000E+03	3.630533E-17	1.824737E-18
6.570000E+03	3.598781E-17	1.808894E-18
6.580000E+03	3.567824E-17	1.793456E-18
6.590000E+03	3.537666E-17	1.778423E-18
6.600000E+03	3.508311E-17	1.763799E-18
6.610000E+03	3.479764E-17	1.749585E-18
6.620000E+03	3.452028E-17	1.735783E-18
6.630000E+03	3.425104E-17	1.722393E-18
6.640000E+03	3.398994E-17	1.709416E-18
6.650000E+03	3.373695E-17	1.696851E-18
6.660000E+03	3.349208E-17	1.684697E-18
6.670000E+03	3.325531E-17	1.672955E-18
6.680000E+03	3.302661E-17	1.661622E-18
6.690000E+03	3.280018E-17	1.650406E-18
6.700000E+03	3.258760E-17	1.639891E-18
6.710000E+03	3.238297E-17	1.629779E-18
6.720000E+03	3.218629E-17	1.620070E-18
6.730000E+03	3.199750E-17	1.610761E-18
6.740000E+03	3.181654E-17	1.601849E-18
6.750000E+03	3.164337E-17	1.593333E-18
6.760000E+03	3.147792E-17	1.585209E-18
6.770000E+03	3.132014E-17	1.577474E-18
6.780000E+03	3.116997E-17	1.570125E-18
6.790000E+03	3.102736E-17	1.563160E-18
6.800000E+03	3.088678E-17	1.556300E-18
6.810000E+03	3.075908E-17	1.550092E-18
6.820000E+03	3.063873E-17	1.544258E-18
6.830000E+03	3.052565E-17	1.538793E-18
6.840000E+03	3.041978E-17	1.533695E-18
6.850000E+03	3.032105E-17	1.528961E-18
6.860000E+03	3.022938E-17	1.524585E-18
6.870000E+03	3.014469E-17	1.520565E-18
6.880000E+03	3.006690E-17	1.516896E-18
6.890000E+03	2.999593E-17	1.513575E-18
6.900000E+03	2.992645E-17	1.510332E-18
6.910000E+03	2.986892E-17	1.507697E-18
6.920000E+03	2.981797E-17	1.505397E-18
6.930000E+03	2.977352E-17	1.503429E-18
6.940000E+03	2.973549E-17	1.501789E-18
6.950000E+03	2.970378E-17	1.500472E-18
6.960000E+03	2.967830E-17	1.499474E-18
6.970000E+03	2.965898E-17	1.498791E-18
6.980000E+03	2.964046E-17	1.498154E-18
6.990000E+03	2.963312E-17	1.498085E-18
7.000000E+03	2.963164E-17	1.498317E-18
7.010000E+03	2.963589E-17	1.498844E-18
7.020000E+03	2.964579E-17	1.499662E-18
7.030000E+03	2.966120E-17	1.500763E-18
7.040000E+03	2.968204E-17	1.502144E-18
7.050000E+03	2.970816E-17	1.503797E-18
7.060000E+03	2.973421E-17	1.505452E-18
7.070000E+03	2.977054E-17	1.507633E-18
7.080000E+03	2.981178E-17	1.510069E-18
7.090000E+03	2.985779E-17	1.512751E-18
7.100000E+03	2.990841E-17	1.515674E-18
7.110000E+03	2.996352E-17	1.518830E-18
7.120000E+03	3.002294E-17	1.522210E-18
7.130000E+03	3.008120E-17	1.525538E-18
7.140000E+03	3.014874E-17	1.529344E-18
7.150000E+03	3.022007E-17	1.533348E-18
7.160000E+03	3.029502E-17	1.537542E-18
7.170000E+03	3.037337E-17	1.541917E-18
7.180000E+03	3.045492E-17	1.546461E-18
7.190000E+03	3.053408E-17	1.550891E-18
7.200000E+03	3.062137E-17	1.555741E-18
7.210000E+03	3.071119E-17	1.560727E-18
7.220000E+03	3.080327E-17	1.565836E-18
7.230000E+03	3.089737E-17	1.571056E-18
7.240000E+03	3.099321E-17	1.576371E-18
7.250000E+03	3.108501E-17	1.581490E-18
7.260000E+03	3.118345E-17	1.586954E-18
7.270000E+03	3.128272E-17	1.592470E-18
7.280000E+03	3.138251E-17	1.598020E-18
7.290000E+03	3.148247E-17	1.603587E-18
7.300000E+03	3.158225E-17	1.609154E-18
7.310000E+03	3.167587E-17	1.614416E-18
7.320000E+03	3.177413E-17	1.619923E-18
7.330000E+03	3.187106E-17	1.625371E-18
7.340000E+03	3.196619E-17	1.630737E-18
7.350000E+03	3.205912E-17	1.635999E-18
7.360000E+03	3.214371E-17	1.640844E-18
7.370000E+03	3.223082E-17	1.645827E-18
7.380000E+03	3.231431E-17	1.650634E-18
7.390000E+03	3.239364E-17	1.655237E-18
7.400000E+03	3.246831E-17	1.659612E-18
7.410000E+03	3.253776E-17	1.663728E-18
7.420000E+03	3.259567E-17	1.667262E-18
7.430000E+03	3.265296E-17	1.670774E-18
7.440000E+03	3.270330E-17	1.673939E-18
7.450000E+03	3.274604E-17	1.676722E-18
7.460000E+03	3.278058E-17	1.679094E-18
7.470000E+03	3.280046E-17	1.680723E-18
7.480000E+03	3.281659E-17	1.682167E-18
7.490000E+03	3.282251E-17	1.683095E-18
7.500000E+03	3.281753E-17	1.683471E-18
7.510000E+03	3.280097E-17	1.683258E-18
7.520000E+03	3.276630E-17	1.682124E-18
7.530000E+03	3.272443E-17	1.680624E-18
7.540000E+03	3.266883E-17	1.678424E-18
7.550000E+03	3.259883E-17	1.675488E-18
7.560000E+03	3.250802E-17	1.671485E-18
7.570000E+03	3.240724E-17	1.666972E-18
7.580000E+03	3.229016E-17	1.661622E-18
7.590000E+03	3.215631E-17	1.655410E-18
7.600000E+03	3.200533E-17	1.648317E-18
7.610000E+03	3.183147E-17	1.640043E-18
7.620000E+03	3.164610E-17	1.631174E-18
7.630000E+03	3.144396E-17	1.621438E-18
7.640000E+03	3.122565E-17	1.610864E-18
7.650000E+03	3.098652E-17	1.599210E-18
7.660000E+03	3.073846E-17	1.587091E-18
7.670000E+03	3.047693E-17	1.574269E-18
7.680000E+03	3.020296E-17	1.560797E-18
7.690000E+03	2.991754E-17	1.546726E-18
7.700000E+03	2.961644E-17	1.531834E-18
7.710000E+03	2.931114E-17	1.516716E-18
7.720000E+03	2.899730E-17	1.501147E-18
7.730000E+03	2.867584E-17	1.485171E-18
7.740000E+03	2.834260E-17	1.468575E-18
7.750000E+03	2.800851E-17	1.451922E-18
7.760000E+03	2.766928E-17	1.434990E-18
