#wls	flux	fluxerr
1.573796E+03	3.804214E-03	8.755646E-05
1.613141E+03	3.874491E-03	8.890094E-05
1.652486E+03	3.940473E-03	9.013157E-05
1.691831E+03	4.003384E-03	9.127685E-05
1.731176E+03	4.062884E-03	9.232942E-05
1.770521E+03	4.118260E-03	9.327359E-05
1.809866E+03	4.167634E-03	9.406761E-05
1.849211E+03	4.209587E-03	9.468071E-05
1.888556E+03	4.241978E-03	9.506644E-05
1.927900E+03	4.265242E-03	9.523668E-05
1.967245E+03	4.281343E-03	9.523724E-05
2.006590E+03	4.299459E-03	9.527318E-05
2.045935E+03	4.338261E-03	9.575605E-05
2.085280E+03	4.424540E-03	9.726920E-05
2.124625E+03	4.581991E-03	1.003184E-04
2.163970E+03	4.822464E-03	1.051422E-04
2.203315E+03	5.134091E-03	1.114590E-04
2.242660E+03	5.492184E-03	1.187140E-04
2.282005E+03	5.867319E-03	1.262592E-04
2.321350E+03	6.240794E-03	1.336875E-04
2.360694E+03	6.599778E-03	1.407242E-04
2.400039E+03	6.938678E-03	1.472534E-04
2.439384E+03	7.254620E-03	1.532191E-04
2.478729E+03	7.545666E-03	1.585864E-04
2.518074E+03	7.807133E-03	1.632641E-04
2.557419E+03	8.034760E-03	1.671718E-04
2.596764E+03	8.226058E-03	1.702683E-04
2.636109E+03	8.387556E-03	1.726991E-04
2.675454E+03	8.531383E-03	1.747222E-04
2.714799E+03	8.672762E-03	1.766531E-04
2.754144E+03	8.827622E-03	1.788154E-04
2.793488E+03	9.010201E-03	1.814911E-04
2.832833E+03	9.234242E-03	1.849460E-04
2.872178E+03	9.511923E-03	1.894082E-04
2.911523E+03	9.856813E-03	1.951275E-04
2.950868E+03	1.028393E-02	2.023756E-04
2.960704E+03	1.040508E-02	2.044531E-04
2.970541E+03	1.053399E-02	2.066751E-04
2.980377E+03	1.066822E-02	2.089933E-04
2.990213E+03	1.081084E-02	2.114672E-04
3.000049E+03	1.096160E-02	2.140911E-04
3.009885E+03	1.112029E-02	2.168601E-04
3.019722E+03	1.128805E-02	2.197959E-04
3.029558E+03	1.146604E-02	2.229201E-04
3.039394E+03	1.165278E-02	2.262032E-04
3.049230E+03	1.185040E-02	2.296854E-04
3.059067E+03	1.205835E-02	2.333556E-04
3.068903E+03	1.227704E-02	2.372202E-04
3.078739E+03	1.250780E-02	2.413042E-04
3.088575E+03	1.275018E-02	2.455978E-04
3.098411E+03	1.300558E-02	2.501269E-04
3.108248E+03	1.327362E-02	2.548828E-04
3.118084E+03	1.355575E-02	2.598927E-04
3.127920E+03	1.385259E-02	2.651666E-04
3.137756E+03	1.416381E-02	2.706972E-04
3.147593E+03	1.449099E-02	2.765132E-04
3.157429E+03	1.483575E-02	2.826441E-04
3.167265E+03	1.519690E-02	2.890656E-04
3.177101E+03	1.557610E-02	2.958078E-04
3.186937E+03	1.597503E-02	3.029010E-04
3.196774E+03	1.639248E-02	3.103206E-04
3.206610E+03	1.683113E-02	3.181151E-04
3.216446E+03	1.729169E-02	3.262964E-04
3.226282E+03	1.777381E-02	3.348559E-04
3.236119E+03	1.827807E-02	3.438025E-04
3.245955E+03	1.880598E-02	3.531626E-04
3.255791E+03	1.935686E-02	3.629214E-04
3.265627E+03	1.993301E-02	3.731196E-04
3.275464E+03	2.053225E-02	3.837145E-04
3.285300E+03	2.115529E-02	3.947172E-04
3.295136E+03	2.180141E-02	4.061122E-04
3.304972E+03	2.246939E-02	4.178747E-04
3.314808E+03	2.315746E-02	4.299699E-04
3.324645E+03	2.386313E-02	4.423500E-04
3.334481E+03	2.458316E-02	4.549533E-04
3.344317E+03	2.531458E-02	4.677239E-04
3.354153E+03	2.605120E-02	4.805466E-04
3.363990E+03	2.678833E-02	4.933344E-04
3.373826E+03	2.751818E-02	5.059447E-04
3.383662E+03	2.823510E-02	5.182742E-04
3.393498E+03	2.893130E-02	5.301812E-04
3.403334E+03	2.960373E-02	5.416123E-04
3.413171E+03	3.024598E-02	5.524525E-04
3.423007E+03	3.085639E-02	5.626743E-04
3.432843E+03	3.143215E-02	5.722297E-04
3.442679E+03	3.197276E-02	5.811128E-04
3.452516E+03	3.247601E-02	5.892868E-04
3.462352E+03	3.294675E-02	5.968429E-04
3.472188E+03	3.338744E-02	6.038287E-04
3.482024E+03	3.380257E-02	6.103284E-04
3.491861E+03	3.419696E-02	6.164310E-04
3.501697E+03	3.457657E-02	6.222456E-04
3.511533E+03	3.494580E-02	6.278531E-04
3.521369E+03	3.530744E-02	6.333043E-04
3.531205E+03	3.566622E-02	6.386844E-04
3.541042E+03	3.602393E-02	6.440259E-04
3.550878E+03	3.638428E-02	6.493949E-04
3.560714E+03	3.674912E-02	6.548245E-04
3.570550E+03	3.711997E-02	6.603409E-04
3.580387E+03	3.749655E-02	6.659390E-04
3.590223E+03	3.788058E-02	6.716486E-04
3.600059E+03	3.827195E-02	6.774672E-04
3.609895E+03	3.867016E-02	6.833851E-04
3.619731E+03	3.907302E-02	6.893634E-04
3.629568E+03	3.948128E-02	6.954148E-04
3.639404E+03	3.989050E-02	7.014607E-04
3.649240E+03	4.029928E-02	7.074764E-04
3.659076E+03	4.070331E-02	7.133864E-04
3.668913E+03	4.110031E-02	7.191513E-04
3.678749E+03	4.148659E-02	7.247075E-04
3.688585E+03	4.185859E-02	7.299933E-04
3.698421E+03	4.221220E-02	7.349389E-04
3.708258E+03	4.254645E-02	7.395287E-04
3.718094E+03	4.285973E-02	7.437368E-04
3.727930E+03	4.315445E-02	7.476062E-04
3.737766E+03	4.343300E-02	7.511805E-04
3.747602E+03	4.370233E-02	7.545806E-04
3.757439E+03	4.396847E-02	7.579113E-04
3.767275E+03	4.424355E-02	7.613818E-04
3.777111E+03	4.453832E-02	7.651760E-04
3.786947E+03	4.486465E-02	7.694957E-04
3.796784E+03	4.523800E-02	7.746030E-04
3.806620E+03	4.566991E-02	7.806909E-04
3.816456E+03	4.617420E-02	7.879905E-04
3.826292E+03	4.676162E-02	7.966786E-04
3.836128E+03	4.744179E-02	8.069119E-04
3.845965E+03	4.822289E-02	8.188211E-04
3.855801E+03	4.910786E-02	8.324476E-04
3.865637E+03	5.009692E-02	8.477864E-04
3.875473E+03	5.118626E-02	8.647640E-04
3.885310E+03	5.236670E-02	8.832173E-04
3.895146E+03	5.362683E-02	9.029464E-04
3.904982E+03	5.494909E-02	9.236494E-04
3.914818E+03	5.631364E-02	9.449882E-04
3.924655E+03	5.769888E-02	9.665975E-04
3.934491E+03	5.907843E-02	9.880343E-04
3.944327E+03	6.042739E-02	1.008883E-03
3.954163E+03	6.172245E-02	1.028759E-03
3.963999E+03	6.294080E-02	1.047287E-03
3.973836E+03	6.405998E-02	1.064099E-03
3.983672E+03	6.506386E-02	1.078938E-03
3.993508E+03	6.593796E-02	1.091574E-03
4.003344E+03	6.667389E-02	1.101878E-03
4.013181E+03	6.726620E-02	1.109772E-03
4.023017E+03	6.771112E-02	1.115208E-03
4.032853E+03	6.801050E-02	1.118227E-03
4.042689E+03	6.817024E-02	1.118938E-03
4.052525E+03	6.819664E-02	1.117458E-03
4.062362E+03	6.809878E-02	1.113945E-03
4.072198E+03	6.788614E-02	1.108565E-03
4.082034E+03	6.757103E-02	1.101528E-03
4.091870E+03	6.716410E-02	1.093017E-03
4.101707E+03	6.667642E-02	1.083218E-03
4.111543E+03	6.612020E-02	1.072337E-03
4.121379E+03	6.550917E-02	1.060601E-03
4.131215E+03	6.485510E-02	1.048206E-03
4.141051E+03	6.417289E-02	1.035395E-03
4.150888E+03	6.347925E-02	1.022439E-03
4.160724E+03	6.279262E-02	1.009637E-03
4.170560E+03	6.213127E-02	9.972814E-04
4.180396E+03	6.151694E-02	9.857175E-04
4.190233E+03	6.096935E-02	9.752573E-04
4.200069E+03	6.050661E-02	9.661845E-04
4.209905E+03	6.014431E-02	9.587403E-04
4.219741E+03	5.989310E-02	9.530864E-04
4.229578E+03	5.975686E-02	9.492749E-04
4.239414E+03	5.973180E-02	9.472364E-04
4.249250E+03	5.980999E-02	9.468364E-04
4.259086E+03	5.997338E-02	9.477809E-04
4.268922E+03	6.020086E-02	9.497303E-04
4.278759E+03	6.046796E-02	9.522938E-04
4.288595E+03	6.074745E-02	9.550404E-04
4.298431E+03	6.101048E-02	9.575163E-04
4.308267E+03	6.122767E-02	9.592628E-04
4.318104E+03	6.137448E-02	9.598995E-04
4.327940E+03	6.143265E-02	9.591474E-04
4.337776E+03	6.139260E-02	9.568640E-04
4.347612E+03	6.125695E-02	9.530980E-04
4.357448E+03	6.103616E-02	9.480193E-04
4.367285E+03	6.074979E-02	9.419381E-04
4.377121E+03	6.042321E-02	9.352518E-04
4.386957E+03	6.008264E-02	9.283689E-04
4.396793E+03	5.975657E-02	9.217298E-04
4.406630E+03	5.947276E-02	9.157606E-04
4.416466E+03	5.925680E-02	9.108509E-04
4.426302E+03	5.913116E-02	9.073402E-04
4.436138E+03	5.911443E-02	9.055057E-04
4.445975E+03	5.921982E-02	9.055405E-04
4.455811E+03	5.945598E-02	9.075668E-04
4.465647E+03	5.982576E-02	9.116175E-04
4.475483E+03	6.032654E-02	9.176421E-04
4.485319E+03	6.094822E-02	9.254762E-04
4.495156E+03	6.167498E-02	9.348708E-04
4.504992E+03	6.248551E-02	9.454947E-04
4.514828E+03	6.335408E-02	9.569525E-04
4.524664E+03	6.425018E-02	9.687792E-04
4.534501E+03	6.514144E-02	9.804856E-04
4.544337E+03	6.599615E-02	9.915956E-04
4.554173E+03	6.678090E-02	1.001610E-03
4.564009E+03	6.746661E-02	1.010101E-03
4.573845E+03	6.802831E-02	1.016701E-03
4.583682E+03	6.844501E-02	1.021107E-03
4.593518E+03	6.870435E-02	1.023148E-03
4.603354E+03	6.879982E-02	1.022738E-03
4.613190E+03	6.873205E-02	1.019900E-03
4.623027E+03	6.851193E-02	1.014808E-03
4.632863E+03	6.815545E-02	1.007711E-03
4.642699E+03	6.768482E-02	9.989471E-04
4.652535E+03	6.712831E-02	9.889423E-04
4.662372E+03	6.651702E-02	9.781606E-04
4.672208E+03	6.588393E-02	9.670905E-04
4.682044E+03	6.526153E-02	9.562097E-04
4.691880E+03	6.468050E-02	9.459661E-04
4.701716E+03	6.416891E-02	9.367661E-04
4.711553E+03	6.375150E-02	9.289646E-04
4.721389E+03	6.344721E-02	9.228296E-04
4.731225E+03	6.326888E-02	9.185383E-04
4.741061E+03	6.322244E-02	9.161665E-04
4.750898E+03	6.330771E-02	9.157011E-04
4.760734E+03	6.351529E-02	9.169956E-04
4.770570E+03	6.383054E-02	9.198291E-04
4.780406E+03	6.423065E-02	9.238650E-04
4.790242E+03	6.469088E-02	9.287410E-04
4.800079E+03	6.517924E-02	9.339940E-04
4.809915E+03	6.566531E-02	9.391865E-04
4.819751E+03	6.611722E-02	9.438637E-04
4.829587E+03	6.650696E-02	9.476294E-04
4.839424E+03	6.681039E-02	9.501453E-04
4.849260E+03	6.701037E-02	9.511749E-04
4.859096E+03	6.709580E-02	9.505697E-04
4.868932E+03	6.706455E-02	9.483089E-04
4.878769E+03	6.692114E-02	9.444655E-04
4.888605E+03	6.667716E-02	9.392124E-04
4.898441E+03	6.634553E-02	9.327391E-04
4.908277E+03	6.594328E-02	9.252919E-04
4.918113E+03	6.548533E-02	9.170858E-04
4.927950E+03	6.498416E-02	9.082998E-04
4.937786E+03	6.444907E-02	8.990671E-04
4.947622E+03	6.388467E-02	8.894549E-04
4.957458E+03	6.329302E-02	8.794942E-04
4.967295E+03	6.267317E-02	8.691743E-04
4.977131E+03	6.202412E-02	8.584837E-04
4.986967E+03	6.134660E-02	8.474351E-04
4.996803E+03	6.064459E-02	8.360856E-04
5.006639E+03	5.992526E-02	8.245361E-04
5.016476E+03	5.919994E-02	8.129437E-04
5.026312E+03	5.848364E-02	8.015147E-04
5.036148E+03	5.779488E-02	7.905019E-04
5.045984E+03	5.715108E-02	7.801409E-04
5.055821E+03	5.656986E-02	7.706682E-04
5.065657E+03	5.606548E-02	7.622724E-04
5.075493E+03	5.564834E-02	7.550890E-04
5.085329E+03	5.532522E-02	7.492024E-04
5.095165E+03	5.509648E-02	7.446102E-04
5.105002E+03	5.495916E-02	7.412648E-04
5.114838E+03	5.490646E-02	7.390674E-04
5.124674E+03	5.492715E-02	7.378603E-04
5.134510E+03	5.501087E-02	7.374992E-04
5.144347E+03	5.514399E-02	7.377965E-04
5.154183E+03	5.531546E-02	7.386009E-04
5.164019E+03	5.551236E-02	7.397376E-04
5.173855E+03	5.572456E-02	7.410696E-04
5.183692E+03	5.594262E-02	7.424709E-04
5.193528E+03	5.615885E-02	7.438394E-04
5.203364E+03	5.636600E-02	7.450797E-04
5.213200E+03	5.655807E-02	7.461136E-04
5.223036E+03	5.672771E-02	7.468456E-04
5.232873E+03	5.687065E-02	7.472220E-04
5.242709E+03	5.697968E-02	7.471502E-04
5.252545E+03	5.705009E-02	7.465720E-04
5.262381E+03	5.707594E-02	7.454128E-04
5.272218E+03	5.705267E-02	7.436171E-04
5.282054E+03	5.697800E-02	7.411592E-04
5.291890E+03	5.685146E-02	7.380373E-04
5.301726E+03	5.667556E-02	7.342883E-04
5.311562E+03	5.645624E-02	7.299930E-04
5.321399E+03	5.620315E-02	7.252794E-04
5.331235E+03	5.592964E-02	7.203224E-04
5.341071E+03	5.564964E-02	7.153024E-04
5.350907E+03	5.537552E-02	7.103791E-04
5.360744E+03	5.511557E-02	7.056580E-04
5.370580E+03	5.487475E-02	7.012015E-04
5.380416E+03	5.465670E-02	6.970547E-04
5.390252E+03	5.446767E-02	6.932953E-04
5.400089E+03	5.431142E-02	6.899688E-04
5.409925E+03	5.418931E-02	6.870900E-04
5.419761E+03	5.409620E-02	6.845913E-04
5.429597E+03	5.402517E-02	6.823833E-04
5.439433E+03	5.396790E-02	6.803593E-04
5.449270E+03	5.391349E-02	6.783812E-04
5.459106E+03	5.385422E-02	6.763521E-04
5.468942E+03	5.378172E-02	6.741671E-04
5.478778E+03	5.369027E-02	6.717558E-04
5.488615E+03	5.357454E-02	6.690530E-04
5.498451E+03	5.343487E-02	6.660645E-04
5.508287E+03	5.327125E-02	6.627920E-04
5.518123E+03	5.308860E-02	6.592983E-04
5.527959E+03	5.289146E-02	6.556408E-04
5.537796E+03	5.268674E-02	6.519062E-04
5.547632E+03	5.248018E-02	6.481657E-04
5.557468E+03	5.227706E-02	6.444846E-04
5.567304E+03	5.208081E-02	6.409051E-04
5.577141E+03	5.189237E-02	6.374379E-04
5.586977E+03	5.171095E-02	6.340732E-04
5.596813E+03	5.153377E-02	6.307762E-04
5.606649E+03	5.135648E-02	6.274938E-04
5.616486E+03	5.117345E-02	6.241571E-04
5.626322E+03	5.097923E-02	6.207005E-04
5.636158E+03	5.076914E-02	6.170676E-04
5.645994E+03	5.053908E-02	6.132097E-04
5.655830E+03	5.028731E-02	6.091072E-04
5.665667E+03	5.001431E-02	6.047671E-04
5.675503E+03	4.972263E-02	6.002216E-04
5.685339E+03	4.941843E-02	5.955460E-04
5.695175E+03	4.910903E-02	5.908292E-04
5.705012E+03	4.880536E-02	5.862029E-04
5.714848E+03	4.851924E-02	5.818082E-04
5.724684E+03	4.826355E-02	5.777986E-04
5.734520E+03	4.805061E-02	5.743195E-04
5.744356E+03	4.789221E-02	5.715090E-04
5.754193E+03	4.779656E-02	5.694620E-04
5.764029E+03	4.776840E-02	5.682315E-04
5.773865E+03	4.780919E-02	5.678312E-04
5.783701E+03	4.791479E-02	5.682083E-04
5.793538E+03	4.807661E-02	5.692581E-04
5.803374E+03	4.828296E-02	5.708394E-04
5.813210E+03	4.851815E-02	5.727650E-04
5.823046E+03	4.876568E-02	5.748394E-04
5.832883E+03	4.900651E-02	5.768381E-04
5.842719E+03	4.922516E-02	5.785801E-04
5.852555E+03	4.940751E-02	5.799011E-04
5.862391E+03	4.954165E-02	5.806637E-04
5.872227E+03	4.962099E-02	5.807936E-04
5.882064E+03	4.964219E-02	5.802546E-04
5.891900E+03	4.960614E-02	5.790602E-04
5.901736E+03	4.951772E-02	5.772702E-04
5.911572E+03	4.938307E-02	5.749588E-04
5.921409E+03	4.921128E-02	5.722338E-04
5.931245E+03	4.901377E-02	5.692298E-04
5.941081E+03	4.879995E-02	5.660570E-04
5.950917E+03	4.858155E-02	5.628521E-04
5.960753E+03	4.836825E-02	5.597276E-04
5.970590E+03	4.816934E-02	5.567905E-04
5.980426E+03	4.799121E-02	5.541142E-04
5.990262E+03	4.784029E-02	5.517723E-04
6.000098E+03	4.771936E-02	5.497958E-04
6.009935E+03	4.763019E-02	5.482044E-04
6.019771E+03	4.757127E-02	5.469795E-04
6.029607E+03	4.754039E-02	5.460951E-04
6.039443E+03	4.753141E-02	5.454800E-04
6.049279E+03	4.753869E-02	5.450692E-04
6.059116E+03	4.755213E-02	5.447469E-04
6.068952E+03	4.756190E-02	5.444004E-04
6.078788E+03	4.755540E-02	5.438863E-04
6.088624E+03	4.751859E-02	5.430449E-04
6.098461E+03	4.743729E-02	5.417152E-04
6.108297E+03	4.729669E-02	5.397296E-04
6.118133E+03	4.708566E-02	5.369624E-04
6.127969E+03	4.679559E-02	5.333165E-04
6.137806E+03	4.642661E-02	5.287945E-04
6.147642E+03	4.598458E-02	5.234637E-04
6.157478E+03	4.548318E-02	5.174806E-04
6.167314E+03	4.494071E-02	5.110532E-04
6.177150E+03	4.437807E-02	5.044190E-04
6.186987E+03	4.381551E-02	4.978072E-04
6.196823E+03	4.327122E-02	4.914237E-04
6.206659E+03	4.275902E-02	4.854241E-04
6.216495E+03	4.228842E-02	4.799152E-04
6.226332E+03	4.186523E-02	4.749616E-04
6.236168E+03	4.149105E-02	4.705800E-04
6.246004E+03	4.116531E-02	4.667630E-04
6.255840E+03	4.088379E-02	4.634618E-04
6.265676E+03	4.064242E-02	4.606292E-04
6.275513E+03	4.043546E-02	4.581994E-04
6.285349E+03	4.025983E-02	4.561369E-04
6.295185E+03	4.011225E-02	4.544038E-04
6.305021E+03	3.999322E-02	4.530055E-04
6.314858E+03	3.990568E-02	4.519746E-04
6.324694E+03	3.985599E-02	4.513827E-04
6.334530E+03	3.985186E-02	4.513170E-04
6.344366E+03	3.990477E-02	4.519068E-04
6.354203E+03	4.002726E-02	4.532941E-04
6.364039E+03	4.023106E-02	4.556116E-04
6.373875E+03	4.052903E-02	4.590049E-04
6.383711E+03	4.093113E-02	4.635867E-04
6.393547E+03	4.144580E-02	4.694530E-04
6.403384E+03	4.207798E-02	4.766602E-04
6.413220E+03	4.282769E-02	4.852090E-04
6.423056E+03	4.369021E-02	4.950466E-04
6.432892E+03	4.465504E-02	5.060548E-04
6.442729E+03	4.570562E-02	5.180470E-04
6.452565E+03	4.681884E-02	5.307616E-04
6.462401E+03	4.796714E-02	5.438872E-04
6.472237E+03	4.911770E-02	5.570522E-04
6.482073E+03	5.023356E-02	5.698377E-04
6.491910E+03	5.127709E-02	5.818166E-04
6.501746E+03	5.220992E-02	5.925535E-04
6.511582E+03	5.299498E-02	6.016266E-04
6.521418E+03	5.360080E-02	6.086774E-04
6.531255E+03	5.400131E-02	6.134082E-04
6.541091E+03	5.417796E-02	6.156060E-04
6.550927E+03	5.412318E-02	6.151824E-04
6.560763E+03	5.383927E-02	6.121608E-04
6.570600E+03	5.333887E-02	6.066819E-04
6.580436E+03	5.264417E-02	5.989956E-04
6.590272E+03	5.178431E-02	5.894305E-04
6.600108E+03	5.079505E-02	5.783915E-04
6.609944E+03	4.971384E-02	5.663028E-04
6.619781E+03	4.857756E-02	5.535830E-04
6.629617E+03	4.741951E-02	5.406105E-04
6.639453E+03	4.626971E-02	5.277268E-04
6.649289E+03	4.515166E-02	5.151998E-04
6.659126E+03	4.408257E-02	5.032259E-04
6.668962E+03	4.307333E-02	4.919298E-04
6.678798E+03	4.213072E-02	4.813895E-04
6.688634E+03	4.125620E-02	4.716225E-04
6.698470E+03	4.044932E-02	4.626243E-04
6.708307E+03	3.970653E-02	4.543551E-04
6.718143E+03	3.902387E-02	4.467706E-04
6.727979E+03	3.839781E-02	4.398310E-04
6.737815E+03	3.782461E-02	4.334943E-04
6.747652E+03	3.730012E-02	4.277136E-04
6.757488E+03	3.682310E-02	4.224755E-04
6.767324E+03	3.639121E-02	4.177539E-04
6.777160E+03	3.600295E-02	4.135324E-04
6.786997E+03	3.565681E-02	4.097943E-04
6.796833E+03	3.535046E-02	4.065134E-04
6.806669E+03	3.508263E-02	4.036762E-04
6.816505E+03	3.484944E-02	4.012387E-04
6.826341E+03	3.464859E-02	3.991748E-04
6.836178E+03	3.447480E-02	3.974248E-04
6.846014E+03	3.432572E-02	3.959619E-04
6.855850E+03	3.419645E-02	3.947302E-04
6.865686E+03	3.408331E-02	3.936876E-04
6.875523E+03	3.398298E-02	3.927964E-04
6.885359E+03	3.389304E-02	3.920288E-04
6.895195E+03	3.381047E-02	3.913501E-04
6.905031E+03	3.373308E-02	3.907354E-04
6.914867E+03	3.365900E-02	3.901630E-04
6.924704E+03	3.358655E-02	3.896138E-04
6.934540E+03	3.351430E-02	3.890712E-04
6.944376E+03	3.344100E-02	3.885208E-04
6.954212E+03	3.336518E-02	3.879458E-04
6.964049E+03	3.328672E-02	3.873446E-04
6.973885E+03	3.320481E-02	3.867080E-04
6.983721E+03	3.312009E-02	3.860433E-04
6.993557E+03	3.303254E-02	3.853503E-04
7.003393E+03	3.294296E-02	3.846386E-04
7.013230E+03	3.285244E-02	3.839209E-04
7.023066E+03	3.276276E-02	3.832180E-04
7.032902E+03	3.267421E-02	3.825335E-04
7.042738E+03	3.258902E-02	3.818939E-04
7.052575E+03	3.250713E-02	3.812986E-04
7.062411E+03	3.242910E-02	3.807542E-04
7.072247E+03	3.235543E-02	3.802673E-04
7.082083E+03	3.228559E-02	3.798316E-04
7.091920E+03	3.221799E-02	3.794290E-04
7.101756E+03	3.215120E-02	3.790425E-04
7.111592E+03	3.208416E-02	3.786601E-04
7.121428E+03	3.201435E-02	3.782521E-04
7.131264E+03	3.194168E-02	3.778175E-04
7.141101E+03	3.186445E-02	3.773362E-04
7.150937E+03	3.178311E-02	3.768134E-04
7.160773E+03	3.169754E-02	3.762480E-04
7.170609E+03	3.160908E-02	3.756555E-04
7.180446E+03	3.151869E-02	3.750478E-04
7.190282E+03	3.142688E-02	3.744305E-04
7.200118E+03	3.133401E-02	3.738086E-04
7.209954E+03	3.124185E-02	3.732028E-04
7.219790E+03	3.115052E-02	3.726150E-04
7.229627E+03	3.106066E-02	3.720531E-04
7.239463E+03	3.097258E-02	3.715209E-04
7.249299E+03	3.088792E-02	3.710384E-04
7.259135E+03	3.080817E-02	3.706239E-04
7.268972E+03	3.073467E-02	3.702939E-04
7.278808E+03	3.066949E-02	3.700740E-04
7.288644E+03	3.061467E-02	3.699894E-04
7.298480E+03	3.057198E-02	3.700624E-04
7.308317E+03	3.054264E-02	3.703085E-04
7.318153E+03	3.052763E-02	3.707407E-04
7.327989E+03	3.052557E-02	3.713434E-04
7.337825E+03	3.053644E-02	3.721174E-04
7.347661E+03	3.055865E-02	3.730444E-04
7.357498E+03	3.058934E-02	3.740903E-04
7.367334E+03	3.062770E-02	3.752461E-04
7.377170E+03	3.067146E-02	3.764849E-04
7.387006E+03	3.071949E-02	3.777933E-04
7.396843E+03	3.076942E-02	3.791429E-04
7.406679E+03	3.081897E-02	3.805060E-04
7.416515E+03	3.086557E-02	3.818511E-04
7.426351E+03	3.090556E-02	3.831328E-04
7.436187E+03	3.093243E-02	3.842701E-04
7.446024E+03	3.094012E-02	3.851870E-04
7.455860E+03	3.092180E-02	3.857968E-04
7.465696E+03	3.086943E-02	3.859972E-04
7.475532E+03	3.077702E-02	3.857098E-04
7.485369E+03	3.063982E-02	3.848714E-04
7.495205E+03	3.045401E-02	3.834294E-04
7.505041E+03	3.021581E-02	3.813314E-04
7.514877E+03	2.992487E-02	3.785673E-04
7.524714E+03	2.958533E-02	3.751844E-04
7.534550E+03	2.920775E-02	3.713117E-04
7.544386E+03	2.880793E-02	3.671460E-04
7.554222E+03	2.840415E-02	3.629178E-04
7.564058E+03	2.801578E-02	3.588742E-04
7.573895E+03	2.766134E-02	3.552536E-04
7.583731E+03	2.735734E-02	3.522715E-04
7.593567E+03	2.711506E-02	3.500778E-04
7.603403E+03	2.694355E-02	3.487954E-04
7.613240E+03	2.684647E-02	3.484785E-04
7.623076E+03	2.682300E-02	3.491243E-04
7.632912E+03	2.687000E-02	3.506990E-04
