#wls	flux	fluxerr
1.573796E+03	1.200848E-04	3.465726E-05
1.613141E+03	1.246584E-04	3.571612E-05
1.652486E+03	1.293022E-04	3.676977E-05
1.691831E+03	1.341039E-04	3.784182E-05
1.731176E+03	1.388814E-04	3.887947E-05
1.770521E+03	1.437077E-04	3.990242E-05
1.809866E+03	1.483582E-04	4.084769E-05
1.849211E+03	1.527296E-04	4.168754E-05
1.888556E+03	1.566387E-04	4.237371E-05
1.927900E+03	1.599181E-04	4.286403E-05
1.967245E+03	1.624576E-04	4.313334E-05
2.006590E+03	1.645920E-04	4.327480E-05
2.045935E+03	1.669194E-04	4.344687E-05
2.085280E+03	1.704942E-04	4.391920E-05
2.124625E+03	1.764489E-04	4.496969E-05
2.163970E+03	1.852181E-04	4.668740E-05
2.203315E+03	1.966776E-04	4.901629E-05
2.242660E+03	2.099601E-04	5.171788E-05
2.282005E+03	2.241770E-04	5.455791E-05
2.321350E+03	2.384650E-04	5.731823E-05
2.360694E+03	2.522668E-04	5.986365E-05
2.400039E+03	2.653141E-04	6.213350E-05
2.439384E+03	2.773432E-04	6.407181E-05
2.478729E+03	2.883376E-04	6.568253E-05
2.518074E+03	2.981927E-04	6.695048E-05
2.557419E+03	3.070085E-04	6.790739E-05
2.596764E+03	3.147674E-04	6.855847E-05
2.636109E+03	3.215679E-04	6.893444E-05
2.675454E+03	3.277048E-04	6.910637E-05
2.714799E+03	3.331856E-04	6.908194E-05
2.754144E+03	3.383690E-04	6.894055E-05
2.793488E+03	3.434054E-04	6.871492E-05
2.832833E+03	3.485568E-04	6.845764E-05
2.872178E+03	3.543519E-04	6.826879E-05
2.911523E+03	3.609720E-04	6.817491E-05
2.950868E+03	3.689638E-04	6.826719E-05
2.960704E+03	3.712146E-04	6.832451E-05
2.970541E+03	3.736360E-04	6.840766E-05
2.980377E+03	3.761603E-04	6.850376E-05
2.990213E+03	3.788766E-04	6.862867E-05
3.000049E+03	3.817302E-04	6.877195E-05
3.009885E+03	3.848208E-04	6.895105E-05
3.019722E+03	3.880791E-04	6.915290E-05
3.029558E+03	3.915905E-04	6.939211E-05
3.039394E+03	3.952878E-04	6.965609E-05
3.049230E+03	3.993366E-04	6.997328E-05
3.059067E+03	4.035168E-04	7.030426E-05
3.068903E+03	4.080752E-04	7.069136E-05
3.078739E+03	4.128712E-04	7.110923E-05
3.088575E+03	4.179996E-04	7.157335E-05
3.098411E+03	4.234000E-04	7.207242E-05
3.108248E+03	4.292514E-04	7.263586E-05
3.118084E+03	4.354170E-04	7.323930E-05
3.127920E+03	4.420012E-04	7.389918E-05
3.137756E+03	4.490310E-04	7.461869E-05
3.147593E+03	4.565363E-04	7.540140E-05
3.157429E+03	4.645496E-04	7.625111E-05
3.167265E+03	4.731066E-04	7.717207E-05
3.177101E+03	4.822463E-04	7.816890E-05
3.186937E+03	4.920112E-04	7.924661E-05
3.196774E+03	5.024483E-04	8.041073E-05
3.206610E+03	5.136083E-04	8.166723E-05
3.216446E+03	5.256369E-04	8.303679E-05
3.226282E+03	5.384171E-04	8.449835E-05
3.236119E+03	5.521965E-04	8.608808E-05
3.245955E+03	5.670529E-04	8.781488E-05
3.255791E+03	5.829757E-04	8.967369E-05
3.265627E+03	6.000525E-04	9.167449E-05
3.275464E+03	6.184786E-04	9.384324E-05
3.285300E+03	6.382628E-04	9.617694E-05
3.295136E+03	6.596225E-04	9.870380E-05
3.304972E+03	6.826884E-04	1.014382E-04
3.314808E+03	7.074917E-04	1.043792E-04
3.324645E+03	7.342881E-04	1.075588E-04
3.334481E+03	7.632391E-04	1.109941E-04
3.344317E+03	7.945157E-04	1.147027E-04
3.354153E+03	8.282958E-04	1.187028E-04
3.363990E+03	8.647615E-04	1.230121E-04
3.373826E+03	9.040929E-04	1.276475E-04
3.383662E+03	9.465967E-04	1.326426E-04
3.393498E+03	9.921556E-04	1.379710E-04
3.403334E+03	1.041161E-03	1.436767E-04
3.413171E+03	1.093537E-03	1.497383E-04
3.423007E+03	1.149420E-03	1.561635E-04
3.432843E+03	1.208706E-03	1.629267E-04
3.442679E+03	1.271002E-03	1.699645E-04
3.452516E+03	1.335961E-03	1.772210E-04
3.462352E+03	1.403538E-03	1.846817E-04
3.472188E+03	1.473161E-03	1.922636E-04
3.482024E+03	1.544241E-03	1.998834E-04
3.491861E+03	1.616776E-03	2.075366E-04
3.501697E+03	1.690061E-03	2.151283E-04
3.511533E+03	1.764243E-03	2.226748E-04
3.521369E+03	1.839119E-03	2.301480E-04
3.531205E+03	1.914299E-03	2.374970E-04
3.541042E+03	1.989627E-03	2.447019E-04
3.550878E+03	2.065189E-03	2.517727E-04
3.560714E+03	2.140847E-03	2.586922E-04
3.570550E+03	2.216461E-03	2.654433E-04
3.580387E+03	2.291908E-03	2.720116E-04
3.590223E+03	2.366833E-03	2.783563E-04
3.600059E+03	2.441674E-03	2.845302E-04
3.609895E+03	2.516139E-03	2.905002E-04
3.619731E+03	2.590488E-03	2.962972E-04
3.629568E+03	2.664471E-03	3.018937E-04
3.639404E+03	2.738376E-03	3.073233E-04
3.649240E+03	2.811932E-03	3.125567E-04
3.659076E+03	2.885691E-03	3.176558E-04
3.668913E+03	2.959117E-03	3.225621E-04
3.678749E+03	3.032793E-03	3.273399E-04
3.688585E+03	3.106205E-03	3.319337E-04
3.698421E+03	3.180232E-03	3.364380E-04
3.708258E+03	3.254031E-03	3.407630E-04
3.718094E+03	3.328183E-03	3.449700E-04
3.727930E+03	3.402765E-03	3.490662E-04
3.737766E+03	3.477956E-03	3.530691E-04
3.747602E+03	3.554046E-03	3.570064E-04
3.757439E+03	3.631411E-03	3.609134E-04
3.767275E+03	3.710818E-03	3.648617E-04
3.777111E+03	3.792485E-03	3.688670E-04
3.786947E+03	3.876843E-03	3.729643E-04
3.796784E+03	3.964740E-03	3.772264E-04
3.806620E+03	4.055725E-03	3.816005E-04
3.816456E+03	4.150195E-03	3.861148E-04
3.826292E+03	4.248566E-03	3.907976E-04
3.836128E+03	4.350677E-03	3.956229E-04
3.845965E+03	4.456662E-03	4.005922E-04
3.855801E+03	4.566976E-03	4.057349E-04
3.865637E+03	4.682072E-03	4.110788E-04
3.875473E+03	4.801519E-03	4.165728E-04
3.885310E+03	4.925806E-03	4.222468E-04
3.895146E+03	5.055379E-03	4.281255E-04
3.904982E+03	5.189906E-03	4.341662E-04
3.914818E+03	5.329382E-03	4.403554E-04
3.924655E+03	5.473214E-03	4.466315E-04
3.934491E+03	5.620498E-03	4.529105E-04
3.944327E+03	5.769982E-03	4.590848E-04
3.954163E+03	5.920167E-03	4.650325E-04
3.963999E+03	6.069834E-03	4.706596E-04
3.973836E+03	6.217567E-03	4.758623E-04
3.983672E+03	6.362124E-03	4.805556E-04
3.993508E+03	6.502530E-03	4.846794E-04
4.003344E+03	6.638180E-03	4.882050E-04
4.013181E+03	6.768640E-03	4.911183E-04
4.023017E+03	6.893586E-03	4.934148E-04
4.032853E+03	7.011552E-03	4.950110E-04
4.042689E+03	7.121672E-03	4.958704E-04
4.052525E+03	7.222011E-03	4.958867E-04
4.062362E+03	7.310679E-03	4.949637E-04
4.072198E+03	7.387260E-03	4.931109E-04
4.082034E+03	7.450073E-03	4.902557E-04
4.091870E+03	7.500133E-03	4.865065E-04
4.101707E+03	7.537661E-03	4.819165E-04
4.111543E+03	7.564350E-03	4.766306E-04
4.121379E+03	7.582107E-03	4.708002E-04
4.131215E+03	7.593263E-03	4.645956E-04
4.141051E+03	7.600886E-03	4.582226E-04
4.150888E+03	7.607940E-03	4.518697E-04
4.160724E+03	7.617899E-03	4.457448E-04
4.170560E+03	7.634365E-03	4.400511E-04
4.180396E+03	7.660343E-03	4.349457E-04
4.190233E+03	7.698270E-03	4.305445E-04
4.200069E+03	7.750775E-03	4.269662E-04
4.209905E+03	7.819870E-03	4.242886E-04
4.219741E+03	7.907181E-03	4.225635E-04
4.229578E+03	8.013784E-03	4.218096E-04
4.239414E+03	8.139749E-03	4.219923E-04
4.249250E+03	8.285091E-03	4.230754E-04
4.259086E+03	8.447827E-03	4.249243E-04
4.268922E+03	8.625072E-03	4.273676E-04
4.278759E+03	8.813061E-03	4.302016E-04
4.288595E+03	9.006783E-03	4.331753E-04
4.298431E+03	9.200041E-03	4.359973E-04
4.308267E+03	9.386351E-03	4.383808E-04
4.318104E+03	9.560775E-03	4.401281E-04
4.327940E+03	9.719787E-03	4.411183E-04
4.337776E+03	9.863591E-03	4.414055E-04
4.347612E+03	9.993639E-03	4.410972E-04
4.357448E+03	1.011279E-02	4.403571E-04
4.367285E+03	1.022415E-02	4.393516E-04
4.377121E+03	1.033068E-02	4.382338E-04
4.386957E+03	1.043632E-02	4.371894E-04
4.396793E+03	1.054383E-02	4.363474E-04
4.406630E+03	1.065679E-02	4.358655E-04
4.416466E+03	1.077841E-02	4.358792E-04
4.426302E+03	1.091204E-02	4.365249E-04
4.436138E+03	1.106169E-02	4.379618E-04
4.445975E+03	1.123312E-02	4.404118E-04
4.455811E+03	1.143341E-02	4.441426E-04
4.465647E+03	1.166998E-02	4.494272E-04
4.475483E+03	1.195080E-02	4.565441E-04
4.485319E+03	1.228310E-02	4.657357E-04
4.495156E+03	1.267392E-02	4.772341E-04
4.504992E+03	1.312716E-02	4.911525E-04
4.514828E+03	1.364518E-02	5.075485E-04
4.524664E+03	1.422711E-02	5.263638E-04
4.534501E+03	1.486799E-02	5.473952E-04
4.544337E+03	1.555856E-02	5.702885E-04
4.554173E+03	1.628583E-02	5.945631E-04
4.564009E+03	1.703433E-02	6.196544E-04
4.573845E+03	1.778442E-02	6.448554E-04
4.583682E+03	1.851498E-02	6.694103E-04
4.593518E+03	1.920242E-02	6.924801E-04
4.603354E+03	1.982157E-02	7.131714E-04
4.613190E+03	2.034863E-02	7.306431E-04
4.623027E+03	2.076113E-02	7.441000E-04
4.632863E+03	2.103900E-02	7.528335E-04
4.642699E+03	2.116775E-02	7.563327E-04
4.652535E+03	2.113764E-02	7.542524E-04
4.662372E+03	2.094703E-02	7.465356E-04
4.672208E+03	2.060298E-02	7.334315E-04
4.682044E+03	2.012430E-02	7.156062E-04
4.691880E+03	1.953666E-02	6.939662E-04
4.701716E+03	1.887163E-02	6.696258E-04
4.711553E+03	1.816417E-02	6.438174E-04
4.721389E+03	1.744973E-02	6.177888E-04
4.731225E+03	1.676148E-02	5.927039E-04
4.741061E+03	1.612985E-02	5.696272E-04
4.750898E+03	1.558065E-02	5.494558E-04
4.760734E+03	1.513264E-02	5.328344E-04
4.770570E+03	1.479809E-02	5.201739E-04
4.780406E+03	1.458399E-02	5.116965E-04
4.790242E+03	1.449133E-02	5.074085E-04
4.800079E+03	1.451502E-02	5.070995E-04
4.809915E+03	1.464559E-02	5.104045E-04
4.819751E+03	1.487057E-02	5.168530E-04
4.829587E+03	1.517391E-02	5.258502E-04
4.839424E+03	1.553762E-02	5.367361E-04
4.849260E+03	1.594358E-02	5.488523E-04
4.859096E+03	1.637615E-02	5.616298E-04
4.868932E+03	1.682071E-02	5.745415E-04
4.878769E+03	1.726441E-02	5.871271E-04
4.888605E+03	1.769546E-02	5.989698E-04
4.898441E+03	1.810302E-02	6.096928E-04
4.908277E+03	1.847880E-02	6.190134E-04
4.918113E+03	1.881672E-02	6.267306E-04
4.927950E+03	1.911334E-02	6.327378E-04
4.937786E+03	1.936811E-02	6.370294E-04
4.947622E+03	1.958363E-02	6.397060E-04
4.957458E+03	1.976363E-02	6.409059E-04
4.967295E+03	1.990820E-02	6.406498E-04
4.977131E+03	2.001131E-02	6.387655E-04
4.986967E+03	2.006271E-02	6.349567E-04
4.996803E+03	2.005192E-02	6.289354E-04
5.006639E+03	1.997109E-02	6.205113E-04
5.016476E+03	1.981569E-02	6.096111E-04
5.026312E+03	1.958881E-02	5.964038E-04
5.036148E+03	1.930215E-02	5.813202E-04
5.045984E+03	1.897423E-02	5.649828E-04
5.055821E+03	1.862889E-02	5.481496E-04
5.065657E+03	1.829363E-02	5.316529E-04
5.075493E+03	1.799627E-02	5.162950E-04
5.085329E+03	1.775988E-02	5.027000E-04
5.095165E+03	1.760015E-02	4.912486E-04
5.105002E+03	1.752658E-02	4.821220E-04
5.114838E+03	1.754168E-02	4.752924E-04
5.124674E+03	1.763987E-02	4.705075E-04
5.134510E+03	1.780932E-02	4.673572E-04
5.144347E+03	1.803593E-02	4.653900E-04
5.154183E+03	1.830435E-02	4.641459E-04
5.164019E+03	1.859895E-02	4.631850E-04
5.173855E+03	1.890627E-02	4.621486E-04
5.183692E+03	1.921830E-02	4.608355E-04
5.193528E+03	1.952998E-02	4.591305E-04
5.203364E+03	1.983878E-02	4.569884E-04
5.213200E+03	2.014335E-02	4.543989E-04
5.223036E+03	2.044324E-02	4.513764E-04
5.232873E+03	2.073898E-02	4.479613E-04
5.242709E+03	2.103185E-02	4.442127E-04
5.252545E+03	2.132348E-02	4.401980E-04
5.262381E+03	2.161473E-02	4.359704E-04
5.272218E+03	2.190554E-02	4.315680E-04
5.282054E+03	2.219366E-02	4.269926E-04
5.291890E+03	2.247407E-02	4.222030E-04
5.301726E+03	2.273755E-02	4.170959E-04
5.311562E+03	2.297336E-02	4.115621E-04
5.321399E+03	2.317330E-02	4.055596E-04
5.331235E+03	2.333346E-02	3.991363E-04
5.341071E+03	2.345448E-02	3.924234E-04
5.350907E+03	2.354099E-02	3.856161E-04
5.360744E+03	2.359975E-02	3.789357E-04
5.370580E+03	2.364017E-02	3.726340E-04
5.380416E+03	2.367329E-02	3.669741E-04
5.390252E+03	2.371175E-02	3.622283E-04
5.400089E+03	2.376722E-02	3.586402E-04
5.409925E+03	2.384492E-02	3.563462E-04
5.419761E+03	2.394329E-02	3.553773E-04
5.429597E+03	2.405610E-02	3.556843E-04
5.439433E+03	2.417773E-02	3.571665E-04
5.449270E+03	2.430399E-02	3.597121E-04
5.459106E+03	2.443149E-02	3.632113E-04
5.468942E+03	2.455265E-02	3.674831E-04
5.478778E+03	2.465473E-02	3.722586E-04
5.488615E+03	2.471963E-02	3.771742E-04
5.498451E+03	2.472961E-02	3.818537E-04
5.508287E+03	2.466684E-02	3.859006E-04
5.518123E+03	2.451786E-02	3.889682E-04
5.527959E+03	2.427804E-02	3.908377E-04
5.537796E+03	2.395529E-02	3.914899E-04
5.547632E+03	2.356754E-02	3.910826E-04
5.557468E+03	2.314042E-02	3.899273E-04
5.567304E+03	2.270803E-02	3.885136E-04
5.577141E+03	2.230629E-02	3.874073E-04
5.586977E+03	2.196965E-02	3.871923E-04
5.596813E+03	2.172708E-02	3.883971E-04
5.606649E+03	2.160033E-02	3.914515E-04
5.616486E+03	2.159577E-02	3.965257E-04
5.626322E+03	2.169848E-02	4.033983E-04
5.636158E+03	2.187747E-02	4.115281E-04
5.645994E+03	2.209331E-02	4.201831E-04
5.655830E+03	2.229929E-02	4.284575E-04
5.665667E+03	2.244710E-02	4.353777E-04
5.675503E+03	2.249473E-02	4.400642E-04
5.685339E+03	2.241345E-02	4.418800E-04
5.695175E+03	2.218880E-02	4.404667E-04
5.705012E+03	2.182257E-02	4.357978E-04
5.714848E+03	2.133442E-02	4.282229E-04
5.724684E+03	2.075745E-02	4.183866E-04
5.734520E+03	2.013407E-02	4.071447E-04
5.744356E+03	1.951446E-02	3.955317E-04
5.754193E+03	1.894819E-02	3.845813E-04
5.764029E+03	1.847537E-02	3.751393E-04
5.773865E+03	1.812405E-02	3.677993E-04
5.783701E+03	1.791350E-02	3.629639E-04
5.793538E+03	1.785672E-02	3.608915E-04
5.803374E+03	1.796138E-02	3.617131E-04
5.813210E+03	1.823089E-02	3.654532E-04
5.823046E+03	1.866482E-02	3.720389E-04
5.832883E+03	1.925578E-02	3.812401E-04
5.842719E+03	1.998857E-02	3.926574E-04
5.852555E+03	2.083665E-02	4.056629E-04
5.862391E+03	2.175683E-02	4.193117E-04
5.872227E+03	2.269194E-02	4.324161E-04
5.882064E+03	2.358039E-02	4.437526E-04
5.891900E+03	2.436519E-02	4.522453E-04
5.901736E+03	2.499833E-02	4.570536E-04
5.911572E+03	2.544792E-02	4.576981E-04
5.921409E+03	2.570530E-02	4.541701E-04
5.931245E+03	2.578074E-02	4.468247E-04
5.941081E+03	2.569614E-02	4.362235E-04
5.950917E+03	2.548199E-02	4.230603E-04
5.960753E+03	2.517077E-02	4.080329E-04
5.970590E+03	2.479469E-02	3.917973E-04
5.980426E+03	2.438104E-02	3.748909E-04
5.990262E+03	2.395374E-02	3.577606E-04
6.000098E+03	2.353388E-02	3.407742E-04
6.009935E+03	2.314001E-02	3.242286E-04
6.019771E+03	2.278915E-02	3.083662E-04
6.029607E+03	2.249624E-02	2.933710E-04
6.039443E+03	2.227592E-02	2.793964E-04
6.049279E+03	2.214242E-02	2.665647E-04
6.059116E+03	2.211059E-02	2.549840E-04
6.068952E+03	2.219588E-02	2.447500E-04
6.078788E+03	2.241125E-02	2.359194E-04
6.088624E+03	2.275714E-02	2.284251E-04
6.098461E+03	2.321193E-02	2.220285E-04
6.108297E+03	2.373254E-02	2.163887E-04
6.118133E+03	2.424955E-02	2.110745E-04
6.127969E+03	2.466599E-02	2.055983E-04
6.137806E+03	2.489220E-02	1.997070E-04
6.147642E+03	2.490195E-02	1.937336E-04
6.157478E+03	2.474687E-02	1.885467E-04
6.167314E+03	2.451483E-02	1.851303E-04
6.177150E+03	2.428682E-02	1.842544E-04
6.186987E+03	2.411812E-02	1.863076E-04
6.196823E+03	2.404094E-02	1.913573E-04
6.206659E+03	2.406794E-02	1.993124E-04
6.216495E+03	2.419043E-02	2.099284E-04
6.226332E+03	2.438511E-02	2.228488E-04
6.236168E+03	2.462084E-02	2.376383E-04
6.246004E+03	2.486283E-02	2.537968E-04
6.255840E+03	2.507530E-02	2.707645E-04
6.265676E+03	2.523144E-02	2.880219E-04
6.275513E+03	2.531841E-02	3.051690E-04
6.285349E+03	2.533270E-02	3.219059E-04
6.295185E+03	2.527347E-02	3.379733E-04
6.305021E+03	2.513763E-02	3.530906E-04
6.314858E+03	2.492020E-02	3.669532E-04
6.324694E+03	2.461591E-02	3.792493E-04
6.334530E+03	2.422079E-02	3.896844E-04
6.344366E+03	2.373325E-02	3.980023E-04
6.354203E+03	2.315957E-02	4.040898E-04
6.364039E+03	2.251642E-02	4.080485E-04
6.373875E+03	2.183070E-02	4.102253E-04
6.383711E+03	2.114351E-02	4.113239E-04
6.393547E+03	2.051137E-02	4.124717E-04
6.403384E+03	1.999661E-02	4.150684E-04
6.413220E+03	1.965773E-02	4.205913E-04
6.423056E+03	1.954534E-02	4.304882E-04
6.432892E+03	1.970570E-02	4.462259E-04
6.442729E+03	2.017396E-02	4.691121E-04
6.452565E+03	2.097018E-02	5.001627E-04
6.462401E+03	2.210188E-02	5.401123E-04
6.472237E+03	2.356360E-02	5.893657E-04
6.482073E+03	2.532506E-02	6.476536E-04
6.491910E+03	2.733061E-02	7.139523E-04
6.501746E+03	2.950340E-02	7.865280E-04
6.511582E+03	3.175268E-02	8.630868E-04
6.521418E+03	3.397492E-02	9.407805E-04
6.531255E+03	3.606162E-02	1.016408E-03
6.541091E+03	3.791262E-02	1.086797E-03
6.550927E+03	3.944240E-02	1.149026E-03
6.560763E+03	4.058365E-02	1.200579E-03
6.570600E+03	4.129615E-02	1.239661E-03
6.580436E+03	4.156708E-02	1.265280E-03
6.590272E+03	4.141158E-02	1.277323E-03
6.600108E+03	4.087367E-02	1.276646E-03
6.609944E+03	4.001744E-02	1.264845E-03
6.619781E+03	3.891929E-02	1.244040E-03
6.629617E+03	3.766113E-02	1.216662E-03
6.639453E+03	3.632410E-02	1.185252E-03
6.649289E+03	3.497813E-02	1.152097E-03
6.659126E+03	3.368110E-02	1.119172E-03
6.668962E+03	3.247381E-02	1.087949E-03
6.678798E+03	3.137821E-02	1.059298E-03
6.688634E+03	3.039396E-02	1.033347E-03
6.698470E+03	2.950797E-02	1.009774E-03
6.708307E+03	2.870508E-02	9.881657E-04
6.718143E+03	2.797098E-02	9.681157E-04
6.727979E+03	2.729431E-02	9.493035E-04
6.737815E+03	2.666834E-02	9.315563E-04
6.747652E+03	2.609400E-02	9.149604E-04
6.757488E+03	2.557522E-02	8.997022E-04
6.767324E+03	2.511567E-02	8.859569E-04
6.777160E+03	2.471723E-02	8.738302E-04
6.786997E+03	2.437954E-02	8.633438E-04
6.796833E+03	2.409527E-02	8.542651E-04
6.806669E+03	2.384913E-02	8.460716E-04
6.816505E+03	2.362326E-02	8.381443E-04
6.826341E+03	2.340228E-02	8.299489E-04
6.836178E+03	2.317875E-02	8.212322E-04
6.846014E+03	2.295167E-02	8.119703E-04
6.855850E+03	2.272416E-02	8.022852E-04
6.865686E+03	2.250384E-02	7.924571E-04
6.875523E+03	2.230055E-02	7.828409E-04
6.885359E+03	2.212231E-02	7.737213E-04
6.895195E+03	2.197526E-02	7.653126E-04
6.905031E+03	2.186337E-02	7.577454E-04
6.914867E+03	2.178916E-02	7.510947E-04
6.924704E+03	2.175454E-02	7.454082E-04
6.934540E+03	2.175934E-02	7.406571E-04
6.944376E+03	2.179891E-02	7.366568E-04
6.954212E+03	2.186401E-02	7.330688E-04
6.964049E+03	2.194095E-02	7.294139E-04
6.973885E+03	2.201575E-02	7.252167E-04
6.983721E+03	2.207522E-02	7.200448E-04
6.993557E+03	2.210864E-02	7.135632E-04
7.003393E+03	2.210814E-02	7.055462E-04
7.013230E+03	2.207010E-02	6.959166E-04
7.023066E+03	2.199347E-02	6.846878E-04
7.032902E+03	2.187985E-02	6.719602E-04
7.042738E+03	2.173091E-02	6.578387E-04
7.052575E+03	2.155017E-02	6.424842E-04
7.062411E+03	2.134270E-02	6.261013E-04
7.072247E+03	2.111751E-02	6.090016E-04
7.082083E+03	2.088549E-02	5.915346E-04
7.091920E+03	2.065836E-02	5.740522E-04
7.101756E+03	2.044882E-02	5.569078E-04
7.111592E+03	2.026859E-02	5.403993E-04
7.121428E+03	2.012589E-02	5.247037E-04
7.131264E+03	2.002553E-02	5.098892E-04
7.141101E+03	1.996806E-02	4.959020E-04
7.150937E+03	1.994987E-02	4.825820E-04
7.160773E+03	1.996398E-02	4.696962E-04
7.170609E+03	2.000084E-02	4.569683E-04
7.180446E+03	2.005106E-02	4.441503E-04
7.190282E+03	2.010664E-02	4.310498E-04
7.200118E+03	2.016243E-02	4.175577E-04
7.209954E+03	2.021517E-02	4.036191E-04
7.219790E+03	2.026680E-02	3.892924E-04
7.229627E+03	2.032099E-02	3.746654E-04
7.239463E+03	2.038040E-02	3.598006E-04
7.249299E+03	2.044526E-02	3.447173E-04
7.259135E+03	2.051284E-02	3.293927E-04
7.268972E+03	2.057626E-02	3.137595E-04
7.278808E+03	2.062360E-02	2.977110E-04
7.288644E+03	2.064091E-02	2.811688E-04
7.298480E+03	2.061595E-02	2.641418E-04
7.308317E+03	2.054283E-02	2.467802E-04
7.318153E+03	2.042080E-02	2.293424E-04
7.327989E+03	2.025314E-02	2.121691E-04
7.337825E+03	2.004906E-02	1.956953E-04
7.347661E+03	1.982119E-02	1.804145E-04
7.357498E+03	1.958502E-02	1.668717E-04
7.367334E+03	1.935716E-02	1.556424E-04
7.377170E+03	1.915478E-02	1.473084E-04
7.387006E+03	1.898977E-02	1.423700E-04
7.396843E+03	1.886759E-02	1.411708E-04
7.406679E+03	1.878721E-02	1.437913E-04
7.416515E+03	1.874225E-02	1.499753E-04
7.426351E+03	1.871982E-02	1.592453E-04
7.436187E+03	1.870281E-02	1.710063E-04
7.446024E+03	1.867643E-02	1.846595E-04
7.455860E+03	1.862930E-02	1.996531E-04
7.465696E+03	1.855361E-02	2.155053E-04
7.475532E+03	1.844702E-02	2.318360E-04
7.485369E+03	1.830998E-02	2.483464E-04
7.495205E+03	1.814604E-02	2.648267E-04
7.505041E+03	1.795809E-02	2.811049E-04
7.514877E+03	1.775136E-02	2.970861E-04
7.524714E+03	1.753176E-02	3.127305E-04
7.534550E+03	1.730568E-02	3.280492E-04
7.544386E+03	1.707766E-02	3.430577E-04
7.554222E+03	1.685158E-02	3.577879E-04
7.564058E+03	1.662838E-02	3.722320E-04
7.573895E+03	1.640746E-02	3.863563E-04
7.583731E+03	1.618693E-02	4.000981E-04
7.593567E+03	1.596617E-02	4.134218E-04
7.603403E+03	1.574616E-02	4.263361E-04
7.613240E+03	1.553006E-02	4.389182E-04
7.623076E+03	1.532331E-02	4.513300E-04
7.632912E+03	1.513352E-02	4.638271E-04
