#wls	flux	fluxerr
1.596504E+03	1.089641E-17	3.913570E-18
1.636416E+03	1.075574E-17	3.844763E-18
1.676329E+03	1.057557E-17	3.761848E-18
1.716241E+03	1.037097E-17	3.670370E-18
1.756154E+03	1.013462E-17	3.567909E-18
1.796067E+03	9.871909E-18	3.456554E-18
1.835979E+03	9.581694E-18	3.336090E-18
1.875892E+03	9.262467E-18	3.206194E-18
1.915804E+03	8.909194E-18	3.065354E-18
1.955717E+03	8.533670E-18	2.917865E-18
1.995630E+03	8.147365E-18	2.767825E-18
2.035542E+03	7.771417E-18	2.622499E-18
2.075455E+03	7.464166E-18	2.501428E-18
2.115367E+03	7.288478E-18	2.425098E-18
2.155280E+03	7.311861E-18	2.414885E-18
2.195193E+03	7.559273E-18	2.477484E-18
2.235105E+03	8.028284E-18	2.610346E-18
2.275018E+03	8.689452E-18	2.802140E-18
2.314930E+03	9.513518E-18	3.041821E-18
2.354843E+03	1.047332E-17	3.319253E-18
2.394755E+03	1.156622E-17	3.632232E-18
2.434668E+03	1.278190E-17	3.976144E-18
2.474581E+03	1.413283E-17	4.353438E-18
2.514493E+03	1.562384E-17	4.764026E-18
2.554406E+03	1.725787E-17	5.207113E-18
2.594318E+03	1.903442E-17	5.680767E-18
2.634231E+03	2.096340E-17	6.186055E-18
2.674144E+03	2.302472E-17	6.715087E-18
2.714056E+03	2.522419E-17	7.267624E-18
2.753969E+03	2.756108E-17	7.841413E-18
2.793881E+03	3.001755E-17	8.429331E-18
2.833794E+03	3.260256E-17	9.031867E-18
2.873707E+03	3.529983E-17	9.642408E-18
2.913619E+03	3.812456E-17	1.026300E-17
2.953532E+03	4.108722E-17	1.089411E-17
2.993444E+03	4.419173E-17	1.153427E-17
3.003423E+03	4.499574E-17	1.169691E-17
3.013401E+03	4.580214E-17	1.185822E-17
3.023379E+03	4.663392E-17	1.202410E-17
3.033357E+03	4.746959E-17	1.218895E-17
3.043335E+03	4.830802E-17	1.235245E-17
3.053313E+03	4.917834E-17	1.252198E-17
3.063291E+03	5.005677E-17	1.269142E-17
3.073270E+03	5.095478E-17	1.286360E-17
3.083248E+03	5.187215E-17	1.303839E-17
3.093226E+03	5.280871E-17	1.321568E-17
3.103204E+03	5.376433E-17	1.339534E-17
3.113182E+03	5.472652E-17	1.357421E-17
3.123160E+03	5.571981E-17	1.375830E-17
3.133138E+03	5.673185E-17	1.394445E-17
3.143117E+03	5.774999E-17	1.412949E-17
3.153095E+03	5.878662E-17	1.431640E-17
3.163073E+03	5.985447E-17	1.450818E-17
3.173051E+03	6.092804E-17	1.469855E-17
3.183029E+03	6.203296E-17	1.489363E-17
3.193007E+03	6.315644E-17	1.509025E-17
3.202985E+03	6.428532E-17	1.528517E-17
3.212964E+03	6.544566E-17	1.548454E-17
3.222942E+03	6.662440E-17	1.568515E-17
3.232920E+03	6.782150E-17	1.588691E-17
3.242898E+03	6.905029E-17	1.609283E-17
3.252876E+03	7.028380E-17	1.629653E-17
3.262854E+03	7.154891E-17	1.650417E-17
3.272832E+03	7.284551E-17	1.671560E-17
3.282811E+03	7.414620E-17	1.692442E-17
3.292789E+03	7.547802E-17	1.713674E-17
3.302767E+03	7.682701E-17	1.734927E-17
3.312745E+03	7.820660E-17	1.756494E-17
3.322723E+03	7.960246E-17	1.778042E-17
3.332701E+03	8.102815E-17	1.799864E-17
3.342680E+03	8.246891E-17	1.821620E-17
3.352658E+03	8.393824E-17	1.843600E-17
3.362636E+03	8.542099E-17	1.865458E-17
3.372614E+03	8.693044E-17	1.887477E-17
3.382592E+03	8.846562E-17	1.909622E-17
3.392570E+03	9.001075E-17	1.931544E-17
3.402548E+03	9.159333E-17	1.953823E-17
3.412527E+03	9.316812E-17	1.975482E-17
3.422505E+03	9.477682E-17	1.997402E-17
3.432483E+03	9.640279E-17	2.019219E-17
3.442461E+03	9.802897E-17	2.040568E-17
3.452439E+03	9.968209E-17	2.062000E-17
3.462417E+03	1.013296E-16	2.082834E-17
3.472395E+03	1.029980E-16	2.103608E-17
3.482374E+03	1.046537E-16	2.123635E-17
3.492352E+03	1.063225E-16	2.143434E-17
3.502330E+03	1.079851E-16	2.162614E-17
3.512308E+03	1.096366E-16	2.181074E-17
3.522286E+03	1.112864E-16	2.199006E-17
3.532264E+03	1.128989E-16	2.215709E-17
3.542242E+03	1.144975E-16	2.231652E-17
3.552221E+03	1.160756E-16	2.246711E-17
3.562199E+03	1.176115E-16	2.260477E-17
3.572177E+03	1.191140E-16	2.273131E-17
3.582155E+03	1.205634E-16	2.284314E-17
3.592133E+03	1.219708E-16	2.294254E-17
3.602111E+03	1.233190E-16	2.302646E-17
3.612090E+03	1.246222E-16	2.309778E-17
3.622068E+03	1.258807E-16	2.315673E-17
3.632046E+03	1.270945E-16	2.320348E-17
3.642024E+03	1.282627E-16	2.323804E-17
3.652002E+03	1.293829E-16	2.326020E-17
3.661980E+03	1.304502E-16	2.326923E-17
3.671958E+03	1.314559E-16	2.326386E-17
3.681937E+03	1.324040E-16	2.324502E-17
3.691915E+03	1.332579E-16	2.320660E-17
3.701893E+03	1.340414E-16	2.315309E-17
3.711871E+03	1.347427E-16	2.308280E-17
3.721849E+03	1.353893E-16	2.300073E-17
3.731827E+03	1.359983E-16	2.291004E-17
3.741805E+03	1.366147E-16	2.281838E-17
3.751784E+03	1.373217E-16	2.273951E-17
3.761762E+03	1.381653E-16	2.268063E-17
3.771740E+03	1.392407E-16	2.265662E-17
3.781718E+03	1.406256E-16	2.267904E-17
3.791696E+03	1.424437E-16	2.276629E-17
3.801674E+03	1.447738E-16	2.292903E-17
3.811652E+03	1.477471E-16	2.318560E-17
3.821631E+03	1.514586E-16	2.354797E-17
3.831609E+03	1.560019E-16	2.402734E-17
3.841587E+03	1.615131E-16	2.464085E-17
3.851565E+03	1.680363E-16	2.539090E-17
3.861543E+03	1.756604E-16	2.628640E-17
3.871521E+03	1.844067E-16	2.732566E-17
3.881500E+03	1.942803E-16	2.850452E-17
3.891478E+03	2.052254E-16	2.980992E-17
3.901456E+03	2.171251E-16	3.122034E-17
3.911434E+03	2.298462E-16	3.271267E-17
3.921412E+03	2.431906E-16	3.425544E-17
3.931390E+03	2.569020E-16	3.581019E-17
3.941368E+03	2.707538E-16	3.734415E-17
3.951347E+03	2.844252E-16	3.881297E-17
3.961325E+03	2.976435E-16	4.018075E-17
3.971303E+03	3.100702E-16	4.140437E-17
3.981281E+03	3.213875E-16	4.244545E-17
3.991259E+03	3.313051E-16	4.327111E-17
4.001237E+03	3.396112E-16	4.386027E-17
4.011215E+03	3.461173E-16	4.419606E-17
4.021194E+03	3.507535E-16	4.427770E-17
4.031172E+03	3.535014E-16	4.411120E-17
4.041150E+03	3.544534E-16	4.371635E-17
4.051128E+03	3.537007E-16	4.311220E-17
4.061106E+03	3.513960E-16	4.232467E-17
4.071084E+03	3.476823E-16	4.137761E-17
4.081062E+03	3.426989E-16	4.029358E-17
4.091041E+03	3.365560E-16	3.909090E-17
4.101019E+03	3.294044E-16	3.779190E-17
4.110997E+03	3.214220E-16	3.642109E-17
4.120975E+03	3.127807E-16	3.500121E-17
4.130953E+03	3.037313E-16	3.356277E-17
4.140931E+03	2.945321E-16	3.213564E-17
4.150910E+03	2.854757E-16	3.075190E-17
4.160888E+03	2.768114E-16	2.943742E-17
4.170866E+03	2.688221E-16	2.822020E-17
4.180844E+03	2.617167E-16	2.711907E-17
4.190822E+03	2.557169E-16	2.615305E-17
4.200800E+03	2.509630E-16	2.533182E-17
4.210778E+03	2.475613E-16	2.466100E-17
4.220757E+03	2.455774E-16	2.414173E-17
4.230735E+03	2.450391E-16	2.377125E-17
4.240713E+03	2.459471E-16	2.354418E-17
4.250691E+03	2.482534E-16	2.345069E-17
4.260669E+03	2.518980E-16	2.348019E-17
4.270647E+03	2.568475E-16	2.362501E-17
4.280625E+03	2.630210E-16	2.387348E-17
4.290604E+03	2.703126E-16	2.421225E-17
4.300582E+03	2.785731E-16	2.462484E-17
4.310560E+03	2.875954E-16	2.509055E-17
4.320538E+03	2.970876E-16	2.558250E-17
4.330516E+03	3.067068E-16	2.607090E-17
4.340494E+03	3.160018E-16	2.651852E-17
4.350472E+03	3.245110E-16	2.688922E-17
4.360451E+03	3.317656E-16	2.714816E-17
4.370429E+03	3.373680E-16	2.726807E-17
4.380407E+03	3.411110E-16	2.723827E-17
4.390385E+03	3.431517E-16	2.707736E-17
4.400363E+03	3.440581E-16	2.683504E-17
4.410341E+03	3.445546E-16	2.657081E-17
4.420320E+03	3.455164E-16	2.635298E-17
4.430298E+03	3.478092E-16	2.624623E-17
4.440276E+03	3.523027E-16	2.631296E-17
4.450254E+03	3.597518E-16	2.660481E-17
4.460232E+03	3.708671E-16	2.716862E-17
4.470210E+03	3.862888E-16	2.804493E-17
4.480188E+03	4.065133E-16	2.926332E-17
4.490167E+03	4.319338E-16	3.084597E-17
4.500145E+03	4.627502E-16	3.280181E-17
4.510123E+03	4.989441E-16	3.512544E-17
4.520101E+03	5.401653E-16	3.778978E-17
4.530079E+03	5.857077E-16	4.074502E-17
4.540057E+03	6.345295E-16	4.391980E-17
4.550035E+03	6.852016E-16	4.721808E-17
4.560014E+03	7.359639E-16	5.052315E-17
4.569992E+03	7.848932E-16	5.370889E-17
4.579970E+03	8.299710E-16	5.664376E-17
4.589948E+03	8.692581E-16	5.920199E-17
4.599926E+03	9.009998E-16	6.126998E-17
4.609904E+03	9.238672E-16	6.276199E-17
4.619882E+03	9.369855E-16	6.362144E-17
4.629861E+03	9.400361E-16	6.382757E-17
4.639839E+03	9.333137E-16	6.339922E-17
4.649817E+03	9.175979E-16	6.238640E-17
4.659795E+03	8.942213E-16	6.087538E-17
4.669773E+03	8.647963E-16	5.897073E-17
4.679751E+03	8.311124E-16	5.678898E-17
4.689729E+03	7.949189E-16	5.444440E-17
4.699708E+03	7.579362E-16	5.205022E-17
4.709686E+03	7.217024E-16	4.970842E-17
4.719664E+03	6.875333E-16	4.750718E-17
4.729642E+03	6.565626E-16	4.552358E-17
4.739620E+03	6.297739E-16	4.382589E-17
4.749598E+03	6.080141E-16	4.247434E-17
4.759577E+03	5.919426E-16	4.151749E-17
4.769555E+03	5.820284E-16	4.099175E-17
4.779533E+03	5.785531E-16	4.092137E-17
4.789511E+03	5.816255E-16	4.131905E-17
4.799489E+03	5.911939E-16	4.218657E-17
4.809467E+03	6.069688E-16	4.350889E-17
4.819445E+03	6.284029E-16	4.525225E-17
4.829424E+03	6.547271E-16	4.736623E-17
4.839402E+03	6.848775E-16	4.977806E-17
4.849380E+03	7.175054E-16	5.239268E-17
4.859358E+03	7.511631E-16	5.510592E-17
4.869336E+03	7.844533E-16	5.781527E-17
4.879314E+03	8.161913E-16	6.043197E-17
4.889292E+03	8.454779E-16	6.288685E-17
4.899271E+03	8.720201E-16	6.515472E-17
4.909249E+03	8.959328E-16	6.724065E-17
4.919227E+03	9.174986E-16	6.916249E-17
4.929205E+03	9.369711E-16	7.093628E-17
4.939183E+03	9.543790E-16	7.256136E-17
4.949161E+03	9.692689E-16	7.400032E-17
4.959139E+03	9.804833E-16	7.516132E-17
4.969118E+03	9.863660E-16	7.591278E-17
4.979096E+03	9.852119E-16	7.611754E-17
4.989074E+03	9.756749E-16	7.566455E-17
4.999052E+03	9.569699E-16	7.448521E-17
5.009030E+03	9.293181E-16	7.258910E-17
5.019008E+03	8.941374E-16	7.008031E-17
5.028987E+03	8.537190E-16	6.713360E-17
5.038965E+03	8.108907E-16	6.396877E-17
5.048943E+03	7.686810E-16	6.082459E-17
5.058921E+03	7.299078E-16	5.792613E-17
5.068899E+03	6.967671E-16	5.545147E-17
5.078877E+03	6.706795E-16	5.351858E-17
5.088855E+03	6.525299E-16	5.220342E-17
5.098834E+03	6.426972E-16	5.154167E-17
5.108812E+03	6.410517E-16	5.152802E-17
5.118790E+03	6.471358E-16	5.213012E-17
5.128768E+03	6.602854E-16	5.329823E-17
5.138746E+03	6.796031E-16	5.496284E-17
5.148724E+03	7.039454E-16	5.703363E-17
5.158702E+03	7.319359E-16	5.940035E-17
5.168681E+03	7.621105E-16	6.194470E-17
5.178659E+03	7.928751E-16	6.453689E-17
5.188637E+03	8.227579E-16	6.705635E-17
5.198615E+03	8.506046E-16	6.940781E-17
5.208593E+03	8.756132E-16	7.152447E-17
5.218571E+03	8.973730E-16	7.337142E-17
5.228549E+03	9.159257E-16	7.495086E-17
5.238528E+03	9.316398E-16	7.629192E-17
5.248506E+03	9.450322E-16	7.743621E-17
5.258484E+03	9.566789E-16	7.843044E-17
5.268462E+03	9.671301E-16	7.931939E-17
5.278440E+03	9.768778E-16	8.014329E-17
5.288418E+03	9.863075E-16	8.093370E-17
5.298397E+03	9.957086E-16	8.171439E-17
5.308375E+03	1.005236E-15	8.249811E-17
5.318353E+03	1.015006E-15	8.329452E-17
5.328331E+03	1.025014E-15	8.410320E-17
5.338309E+03	1.035132E-15	8.491394E-17
5.348287E+03	1.045168E-15	8.571091E-17
5.358265E+03	1.054855E-15	8.647259E-17
5.368244E+03	1.063941E-15	8.717838E-17
5.378222E+03	1.072319E-15	8.781991E-17
5.388200E+03	1.079945E-15	8.839384E-17
5.398178E+03	1.086968E-15	8.891293E-17
5.408156E+03	1.093705E-15	8.940324E-17
5.418134E+03	1.100633E-15	8.990433E-17
5.428112E+03	1.108249E-15	9.045698E-17
5.438091E+03	1.117023E-15	9.109977E-17
5.448069E+03	1.127343E-15	9.186441E-17
5.458047E+03	1.139389E-15	9.276568E-17
5.468025E+03	1.152979E-15	9.378870E-17
5.478003E+03	1.167366E-15	9.487291E-17
5.487981E+03	1.181274E-15	9.591485E-17
5.497959E+03	1.192849E-15	9.676466E-17
5.507938E+03	1.200107E-15	9.726261E-17
5.517916E+03	1.201486E-15	9.728355E-17
5.527894E+03	1.196639E-15	9.680142E-17
5.537872E+03	1.186278E-15	9.587536E-17
5.547850E+03	1.171856E-15	9.462391E-17
5.557828E+03	1.155445E-15	9.321452E-17
5.567807E+03	1.139269E-15	9.182663E-17
5.577785E+03	1.125152E-15	9.060657E-17
5.587763E+03	1.114062E-15	8.963142E-17
5.597741E+03	1.106217E-15	8.891758E-17
5.607719E+03	1.100957E-15	8.841093E-17
5.617697E+03	1.096581E-15	8.797417E-17
5.627675E+03	1.090625E-15	8.740923E-17
5.637654E+03	1.080159E-15	8.648146E-17
5.647632E+03	1.062056E-15	8.494160E-17
5.657610E+03	1.033553E-15	8.257082E-17
5.667588E+03	9.929914E-16	7.923928E-17
5.677566E+03	9.403265E-16	7.494694E-17
5.687544E+03	8.771736E-16	6.982614E-17
5.697522E+03	8.067655E-16	6.413755E-17
5.707501E+03	7.335601E-16	5.823807E-17
5.717479E+03	6.621925E-16	5.249691E-17
5.727457E+03	5.968024E-16	4.724203E-17
5.737435E+03	5.407139E-16	4.273491E-17
5.747413E+03	4.962403E-16	3.915541E-17
5.757391E+03	4.647053E-16	3.660391E-17
5.767369E+03	4.468790E-16	3.513616E-17
5.777348E+03	4.434491E-16	3.480050E-17
5.787326E+03	4.551798E-16	3.565034E-17
5.797304E+03	4.827764E-16	3.773341E-17
5.807282E+03	5.271311E-16	4.111091E-17
5.817260E+03	5.892486E-16	4.585150E-17
5.827238E+03	6.696821E-16	5.198728E-17
5.837216E+03	7.678611E-16	5.946212E-17
5.847195E+03	8.815762E-16	6.809291E-17
5.857173E+03	1.006713E-15	7.755077E-17
5.867151E+03	1.136985E-15	8.734279E-17
5.877129E+03	1.264312E-15	9.684366E-17
5.887107E+03	1.380090E-15	1.053952E-16
5.897085E+03	1.476444E-15	1.124032E-16
5.907064E+03	1.547381E-15	1.174243E-16
5.917042E+03	1.589841E-15	1.202442E-16
5.927020E+03	1.603943E-15	1.208925E-16
5.936998E+03	1.592386E-15	1.195940E-16
5.946976E+03	1.559525E-15	1.166954E-16
5.956954E+03	1.510623E-15	1.126077E-16
5.966932E+03	1.451102E-15	1.077484E-16
5.976911E+03	1.385713E-15	1.024797E-16
5.986889E+03	1.318501E-15	9.710631E-17
5.996867E+03	1.252799E-15	9.187602E-17
6.006845E+03	1.191169E-15	8.697616E-17
6.016823E+03	1.135539E-15	8.254448E-17
6.026801E+03	1.087323E-15	7.867876E-17
6.036779E+03	1.047492E-15	7.544268E-17
6.046758E+03	1.016723E-15	7.287741E-17
6.056736E+03	9.954720E-16	7.100696E-17
6.066714E+03	9.840330E-16	6.984291E-17
6.076692E+03	9.825972E-16	6.938889E-17
6.086670E+03	9.913105E-16	6.964483E-17
6.096648E+03	1.010284E-15	7.060781E-17
6.106626E+03	1.039477E-15	7.226398E-17
6.116605E+03	1.078514E-15	7.457624E-17
6.126583E+03	1.126487E-15	7.747152E-17
6.136561E+03	1.181826E-15	8.083269E-17
6.146539E+03	1.241866E-15	8.447057E-17
6.156517E+03	1.302688E-15	8.811534E-17
6.166495E+03	1.360044E-15	9.148119E-17
6.176474E+03	1.410109E-15	9.431718E-17
6.186452E+03	1.450257E-15	9.645805E-17
6.196430E+03	1.480472E-15	9.791517E-17
6.206408E+03	1.502532E-15	9.881782E-17
6.216386E+03	1.518242E-15	9.929468E-17
6.226364E+03	1.528917E-15	9.943953E-17
6.236342E+03	1.535188E-15	9.930016E-17
6.246321E+03	1.536742E-15	9.886257E-17
6.256299E+03	1.532492E-15	9.806357E-17
6.266277E+03	1.521029E-15	9.682070E-17
6.276255E+03	1.501148E-15	9.506601E-17
6.286233E+03	1.471988E-15	9.275445E-17
6.296211E+03	1.433321E-15	8.988089E-17
6.306189E+03	1.385714E-15	8.648966E-17
6.316168E+03	1.330638E-15	8.267951E-17
6.326146E+03	1.270551E-15	7.860794E-17
6.336124E+03	1.208828E-15	7.448566E-17
6.346102E+03	1.149329E-15	7.054925E-17
6.356080E+03	1.096120E-15	6.704391E-17
6.366058E+03	1.053369E-15	6.421745E-17
6.376036E+03	1.025140E-15	6.230870E-17
6.386015E+03	1.015319E-15	6.154404E-17
6.395993E+03	1.027962E-15	6.215930E-17
6.405971E+03	1.067720E-15	6.442636E-17
6.415949E+03	1.139924E-15	6.865834E-17
6.425927E+03	1.250326E-15	7.519488E-17
6.435905E+03	1.405700E-15	8.443928E-17
6.445884E+03	1.613922E-15	9.686404E-17
6.455862E+03	1.883191E-15	1.129655E-16
6.465840E+03	2.220601E-15	1.331799E-16
6.475818E+03	2.630399E-15	1.577804E-16
6.485796E+03	3.110881E-15	1.866921E-16
6.495774E+03	3.651354E-15	2.193089E-16
6.505752E+03	4.234245E-15	2.546171E-16
6.515731E+03	4.841326E-15	2.915647E-16
6.525709E+03	5.442455E-15	3.283779E-16
6.535687E+03	5.988983E-15	3.621506E-16
6.545665E+03	6.437088E-15	3.902335E-16
6.555643E+03	6.754481E-15	4.106382E-16
6.565621E+03	6.921222E-15	4.220917E-16
6.575599E+03	6.933795E-15	4.242941E-16
6.585578E+03	6.804118E-15	4.178749E-16
6.595556E+03	6.554039E-15	4.040726E-16
6.605534E+03	6.208018E-15	3.842979E-16
6.615512E+03	5.792354E-15	3.600930E-16
6.625490E+03	5.333444E-15	3.330299E-16
6.635468E+03	4.855242E-15	3.045548E-16
6.645446E+03	4.378448E-15	2.759361E-16
6.655425E+03	3.920666E-15	2.482729E-16
6.665403E+03	3.495418E-15	2.224278E-16
6.675381E+03	3.111739E-15	1.989967E-16
6.685359E+03	2.773677E-15	1.782693E-16
6.695337E+03	2.481096E-15	1.602731E-16
6.705315E+03	2.231297E-15	1.448716E-16
6.715294E+03	2.020128E-15	1.318316E-16
6.725272E+03	1.842578E-15	1.208597E-16
6.735250E+03	1.693570E-15	1.116527E-16
6.745228E+03	1.568442E-15	1.039285E-16
6.755206E+03	1.463091E-15	9.743672E-17
6.765184E+03	1.373884E-15	9.195319E-17
6.775162E+03	1.297779E-15	8.728903E-17
6.785141E+03	1.232219E-15	8.328388E-17
6.795119E+03	1.175098E-15	7.980498E-17
6.805097E+03	1.124797E-15	7.674993E-17
6.815075E+03	1.080191E-15	7.404817E-17
6.825053E+03	1.040541E-15	7.165422E-17
6.835031E+03	1.005447E-15	6.954517E-17
6.845009E+03	9.748004E-16	6.771772E-17
6.854988E+03	9.487516E-16	6.618648E-17
6.864966E+03	9.275435E-16	6.497262E-17
6.874944E+03	9.114778E-16	6.410157E-17
6.884922E+03	9.009129E-16	6.360295E-17
6.894900E+03	8.960538E-16	6.349568E-17
6.904878E+03	8.969032E-16	6.378427E-17
6.914856E+03	9.032607E-16	6.445845E-17
6.924835E+03	9.147718E-16	6.549649E-17
6.934813E+03	9.308144E-16	6.685678E-17
6.944791E+03	9.505799E-16	6.848346E-17
6.954769E+03	9.731139E-16	7.030921E-17
6.964747E+03	9.974039E-16	7.226153E-17
6.974725E+03	1.022388E-15	7.426342E-17
6.984703E+03	1.046958E-15	7.623351E-17
6.994682E+03	1.070127E-15	7.809882E-17
7.004660E+03	1.091031E-15	7.979440E-17
7.014638E+03	1.108910E-15	8.126275E-17
7.024616E+03	1.123193E-15	8.245991E-17
7.034594E+03	1.133583E-15	8.336208E-17
7.044572E+03	1.140037E-15	8.396422E-17
7.054551E+03	1.143003E-15	8.429777E-17
7.064529E+03	1.143224E-15	8.441642E-17
7.074507E+03	1.141859E-15	8.440500E-17
7.084485E+03	1.140435E-15	8.437627E-17
7.094463E+03	1.140717E-15	8.446086E-17
7.104441E+03	1.144366E-15	8.478226E-17
7.114419E+03	1.152904E-15	8.545349E-17
7.124398E+03	1.167672E-15	8.657434E-17
7.134376E+03	1.189641E-15	8.821685E-17
7.144354E+03	1.219394E-15	9.042378E-17
7.154332E+03	1.257118E-15	9.320827E-17
7.164310E+03	1.302644E-15	9.655636E-17
7.174288E+03	1.355456E-15	1.004281E-16
7.184266E+03	1.414601E-15	1.047506E-16
7.194245E+03	1.478937E-15	1.094372E-16
7.204223E+03	1.547291E-15	1.143983E-16
7.214201E+03	1.618240E-15	1.195264E-16
7.224179E+03	1.690159E-15	1.246993E-16
7.234157E+03	1.761046E-15	1.297673E-16
7.244135E+03	1.828621E-15	1.345612E-16
7.254113E+03	1.889936E-15	1.388641E-16
7.264092E+03	1.941420E-15	1.424148E-16
7.274070E+03	1.979259E-15	1.449366E-16
7.284048E+03	2.000022E-15	1.461835E-16
7.294026E+03	2.001378E-15	1.459924E-16
7.304004E+03	1.982368E-15	1.443025E-16
7.313982E+03	1.943802E-15	1.411829E-16
7.323961E+03	1.888588E-15	1.368553E-16
7.333939E+03	1.820873E-15	1.316294E-16
7.343917E+03	1.745009E-15	1.258278E-16
7.353895E+03	1.665274E-15	1.197645E-16
7.363873E+03	1.585216E-15	1.136984E-16
7.373851E+03	1.507400E-15	1.078148E-16
7.383829E+03	1.433220E-15	1.022139E-16
7.393808E+03	1.363243E-15	9.693537E-17
7.403786E+03	1.297399E-15	9.197301E-17
7.413764E+03	1.235064E-15	8.728140E-17
7.423742E+03	1.175385E-15	8.279890E-17
7.433720E+03	1.117455E-15	7.846055E-17
7.443698E+03	1.060483E-15	7.421028E-17
7.453676E+03	1.003838E-15	7.000421E-17
7.463655E+03	9.471825E-16	6.581917E-17
7.473633E+03	8.905003E-16	6.165489E-17
7.483611E+03	8.342397E-16	5.754311E-17
7.493589E+03	7.792722E-16	5.354428E-17
7.503567E+03	7.269371E-16	4.974992E-17
7.513545E+03	6.789742E-16	4.627738E-17
7.523523E+03	6.369676E-16	4.323137E-17
7.533502E+03	6.021646E-16	4.069185E-17
7.543480E+03	5.754813E-16	3.871475E-17
7.553458E+03	5.574690E-16	3.733013E-17
7.563436E+03	5.482979E-16	3.654160E-17
7.573414E+03	5.479811E-16	3.634174E-17
7.583392E+03	5.563644E-16	3.671165E-17
7.593371E+03	5.730214E-16	3.761432E-17
7.603349E+03	5.972738E-16	3.899651E-17
7.613327E+03	6.283222E-16	4.079764E-17
7.623305E+03	6.651251E-16	4.294228E-17
7.633283E+03	7.063523E-16	4.533776E-17
7.643261E+03	7.505337E-16	4.788419E-17
7.653239E+03	7.961246E-16	5.047908E-17
7.663218E+03	8.415926E-16	5.302308E-17
7.673196E+03	8.853526E-16	5.541601E-17
7.683174E+03	9.260429E-16	5.757428E-17
7.693152E+03	9.624078E-16	5.942332E-17
7.703130E+03	9.933386E-16	6.089994E-17
7.713108E+03	1.017946E-15	6.195658E-17
7.723086E+03	1.035512E-15	6.255784E-17
7.733065E+03	1.045556E-15	6.268443E-17
7.743043E+03	1.047929E-15	6.233777E-17
