#wls	flux	fluxerr
1.596504E+03	3.850691E-18	3.365534E-19
1.636416E+03	3.882655E-18	3.384871E-19
1.676329E+03	3.908370E-18	3.398409E-19
1.716241E+03	3.925878E-18	3.404485E-19
1.756154E+03	3.937479E-18	3.405136E-19
1.796067E+03	3.941369E-18	3.398844E-19
1.835979E+03	3.932706E-18	3.381494E-19
1.875892E+03	3.910456E-18	3.352293E-19
1.915804E+03	3.869110E-18	3.306637E-19
1.955717E+03	3.810838E-18	3.246528E-19
1.995630E+03	3.733693E-18	3.170456E-19
2.035542E+03	3.648653E-18	3.087881E-19
2.075455E+03	3.582417E-18	3.021401E-19
2.115367E+03	3.564026E-18	2.995267E-19
2.155280E+03	3.627447E-18	3.037492E-19
2.195193E+03	3.790456E-18	3.162139E-19
2.235105E+03	4.050761E-18	3.366327E-19
2.275018E+03	4.391735E-18	3.635294E-19
2.314930E+03	4.790822E-18	3.949568E-19
2.354843E+03	5.236065E-18	4.298646E-19
2.394755E+03	5.713006E-18	4.670123E-19
2.434668E+03	6.222555E-18	5.064280E-19
2.474581E+03	6.759029E-18	5.476030E-19
2.514493E+03	7.329978E-18	5.911018E-19
2.554406E+03	7.932013E-18	6.365983E-19
2.594318E+03	8.574720E-18	6.848055E-19
2.634231E+03	9.254081E-18	7.353381E-19
2.674144E+03	9.980187E-18	7.889305E-19
2.714056E+03	1.075183E-17	8.454088E-19
2.753969E+03	1.157103E-17	9.048521E-19
2.793881E+03	1.243950E-17	9.673071E-19
2.833794E+03	1.336367E-17	1.033181E-18
2.873707E+03	1.433481E-17	1.101700E-18
2.913619E+03	1.536410E-17	1.173623E-18
2.953532E+03	1.644698E-17	1.248493E-18
2.993444E+03	1.758977E-17	1.326675E-18
3.003423E+03	1.788295E-17	1.346582E-18
3.013401E+03	1.817909E-17	1.366628E-18
3.023379E+03	1.847815E-17	1.386809E-18
3.033357E+03	1.878706E-17	1.407641E-18
3.043335E+03	1.909246E-17	1.428121E-18
3.053313E+03	1.940952E-17	1.449383E-18
3.063291E+03	1.972480E-17	1.470419E-18
3.073270E+03	2.005138E-17	1.492204E-18
3.083248E+03	2.038238E-17	1.514221E-18
3.093226E+03	2.071062E-17	1.535935E-18
3.103204E+03	2.104969E-17	1.558352E-18
3.113182E+03	2.139249E-17	1.580944E-18
3.123160E+03	2.173882E-17	1.603693E-18
3.133138E+03	2.209575E-17	1.627118E-18
3.143117E+03	2.244861E-17	1.650136E-18
3.153095E+03	2.280442E-17	1.673262E-18
3.163073E+03	2.317050E-17	1.697030E-18
3.173051E+03	2.353172E-17	1.720332E-18
3.183029E+03	2.390304E-17	1.744257E-18
3.193007E+03	2.427678E-17	1.768243E-18
3.202985E+03	2.464493E-17	1.791705E-18
3.212964E+03	2.502295E-17	1.815767E-18
3.222942E+03	2.540293E-17	1.839852E-18
3.232920E+03	2.578475E-17	1.863948E-18
3.242898E+03	2.616827E-17	1.888045E-18
3.252876E+03	2.656163E-17	1.912727E-18
3.262854E+03	2.694827E-17	1.936799E-18
3.272832E+03	2.733628E-17	1.960842E-18
3.282811E+03	2.773407E-17	1.985459E-18
3.292789E+03	2.812462E-17	2.009428E-18
3.302767E+03	2.852495E-17	2.033965E-18
3.312745E+03	2.892649E-17	2.058455E-18
3.322723E+03	2.932921E-17	2.082895E-18
3.332701E+03	2.973307E-17	2.107279E-18
3.342680E+03	3.013805E-17	2.131607E-18
3.352658E+03	3.054416E-17	2.155877E-18
3.362636E+03	3.095141E-17	2.180089E-18
3.372614E+03	3.135988E-17	2.204246E-18
3.382592E+03	3.177890E-17	2.229003E-18
3.392570E+03	3.219008E-17	2.253066E-18
3.402548E+03	3.261219E-17	2.277748E-18
3.412527E+03	3.302658E-17	2.301746E-18
3.422505E+03	3.345241E-17	2.326392E-18
3.432483E+03	3.388045E-17	2.351042E-18
3.442461E+03	3.431098E-17	2.375712E-18
3.452439E+03	3.474431E-17	2.400423E-18
3.462417E+03	3.518079E-17	2.425195E-18
3.472395E+03	3.562084E-17	2.450056E-18
3.482374E+03	3.607495E-17	2.475723E-18
3.492352E+03	3.652363E-17	2.500854E-18
3.502330E+03	3.698763E-17	2.526869E-18
3.512308E+03	3.744727E-17	2.552418E-18
3.522286E+03	3.792377E-17	2.578944E-18
3.532264E+03	3.840771E-17	2.605801E-18
3.542242E+03	3.889998E-17	2.633044E-18
3.552221E+03	3.940155E-17	2.660733E-18
3.562199E+03	3.991347E-17	2.688935E-18
3.572177E+03	4.043694E-17	2.717723E-18
3.582155E+03	4.097322E-17	2.747176E-18
3.592133E+03	4.152370E-17	2.777379E-18
3.602111E+03	4.210096E-17	2.809164E-18
3.612090E+03	4.268463E-17	2.841162E-18
3.622068E+03	4.329874E-17	2.874962E-18
3.632046E+03	4.393418E-17	2.909947E-18
3.642024E+03	4.458155E-17	2.945482E-18
3.652002E+03	4.526600E-17	2.983220E-18
3.661980E+03	4.597860E-17	3.022552E-18
3.671958E+03	4.672196E-17	3.063635E-18
3.681937E+03	4.749887E-17	3.106635E-18
3.691915E+03	4.832447E-17	3.152520E-18
3.701893E+03	4.917774E-17	3.199898E-18
3.711871E+03	5.007401E-17	3.249748E-18
3.721849E+03	5.102939E-17	3.303089E-18
3.731827E+03	5.203523E-17	3.359330E-18
3.741805E+03	5.308224E-17	3.417848E-18
3.751784E+03	5.420018E-17	3.480528E-18
3.761762E+03	5.538015E-17	3.546763E-18
3.771740E+03	5.662606E-17	3.616769E-18
3.781718E+03	5.794198E-17	3.690768E-18
3.791696E+03	5.933169E-17	3.768963E-18
3.801674E+03	6.079904E-17	3.851555E-18
3.811652E+03	6.236245E-17	3.939666E-18
3.821631E+03	6.399597E-17	4.031607E-18
3.831609E+03	6.573269E-17	4.129418E-18
3.841587E+03	6.754477E-17	4.231297E-18
3.851565E+03	6.946579E-17	4.339298E-18
3.861543E+03	7.148218E-17	4.452516E-18
3.871521E+03	7.357825E-17	4.569922E-18
3.881500E+03	7.578825E-17	4.693590E-18
3.891478E+03	7.809569E-17	4.822437E-18
3.901456E+03	8.051829E-17	4.957499E-18
3.911434E+03	8.301869E-17	5.096415E-18
3.921412E+03	8.561274E-17	5.240110E-18
3.931390E+03	8.829787E-17	5.388372E-18
3.941368E+03	9.109121E-17	5.542189E-18
3.951347E+03	9.394897E-17	5.698842E-18
3.961325E+03	9.690804E-17	5.860521E-18
3.971303E+03	9.994363E-17	6.025672E-18
3.981281E+03	1.030285E-16	6.192610E-18
3.991259E+03	1.062022E-16	6.363679E-18
4.001237E+03	1.094382E-16	6.537231E-18
4.011215E+03	1.127318E-16	6.712951E-18
4.021194E+03	1.160789E-16	6.890561E-18
4.031172E+03	1.194758E-16	7.069808E-18
4.041150E+03	1.229458E-16	7.252032E-18
4.051128E+03	1.264351E-16	7.434022E-18
4.061106E+03	1.299681E-16	7.617194E-18
4.071084E+03	1.335726E-16	7.803147E-18
4.081062E+03	1.371942E-16	7.988663E-18
4.091041E+03	1.408915E-16	8.177135E-18
4.101019E+03	1.446398E-16	8.367083E-18
4.110997E+03	1.484433E-16	8.558716E-18
4.120975E+03	1.522760E-16	8.750504E-18
4.130953E+03	1.562058E-16	8.946313E-18
4.140931E+03	1.602088E-16	9.144727E-18
4.150910E+03	1.642924E-16	9.346111E-18
4.160888E+03	1.684981E-16	9.552773E-18
4.170866E+03	1.727666E-16	9.761287E-18
4.180844E+03	1.771386E-16	9.973902E-18
4.190822E+03	1.816212E-16	1.019096E-17
4.200800E+03	1.862575E-16	1.041480E-17
4.210778E+03	1.909804E-16	1.064158E-17
4.220757E+03	1.958683E-16	1.087561E-17
4.230735E+03	2.008483E-16	1.111275E-17
4.240713E+03	2.059993E-16	1.135730E-17
4.250691E+03	2.112829E-16	1.160703E-17
4.260669E+03	2.166971E-16	1.186177E-17
4.270647E+03	2.222389E-16	1.212127E-17
4.280625E+03	2.278603E-16	1.238284E-17
4.290604E+03	2.336417E-16	1.265078E-17
4.300582E+03	2.395800E-16	1.292483E-17
4.310560E+03	2.455798E-16	1.319977E-17
4.320538E+03	2.516804E-16	1.347765E-17
4.330516E+03	2.578778E-16	1.375822E-17
4.340494E+03	2.641700E-16	1.404130E-17
4.350472E+03	2.706071E-16	1.432948E-17
4.360451E+03	2.770924E-16	1.461758E-17
4.370429E+03	2.836781E-16	1.490831E-17
4.380407E+03	2.904181E-16	1.520444E-17
4.390385E+03	2.972025E-16	1.550013E-17
4.400363E+03	3.041254E-16	1.580026E-17
4.410341E+03	3.111174E-16	1.610114E-17
4.420320E+03	3.181035E-16	1.639888E-17
4.430298E+03	3.251777E-16	1.669830E-17
4.440276E+03	3.322655E-16	1.699554E-17
4.450254E+03	3.393479E-16	1.728963E-17
4.460232E+03	3.463446E-16	1.757650E-17
4.470210E+03	3.533554E-16	1.786125E-17
4.480188E+03	3.602987E-16	1.813977E-17
4.490167E+03	3.671503E-16	1.841089E-17
4.500145E+03	3.738842E-16	1.867336E-17
4.510123E+03	3.804720E-16	1.892587E-17
4.520101E+03	3.868833E-16	1.916699E-17
4.530079E+03	3.930861E-16	1.939525E-17
4.540057E+03	3.991148E-16	1.961248E-17
4.550035E+03	4.048014E-16	1.981057E-17
4.560014E+03	4.101802E-16	1.999139E-17
4.569992E+03	4.152204E-16	2.015363E-17
4.579970E+03	4.199636E-16	2.029950E-17
4.589948E+03	4.242465E-16	2.042132E-17
4.599926E+03	4.281193E-16	2.052178E-17
4.609904E+03	4.316399E-16	2.060387E-17
4.619882E+03	4.346596E-16	2.066076E-17
4.629861E+03	4.372494E-16	2.069610E-17
4.639839E+03	4.394882E-16	2.071386E-17
4.649817E+03	4.412474E-16	2.070822E-17
4.659795E+03	4.426905E-16	2.068711E-17
4.669773E+03	4.437015E-16	2.064533E-17
4.679751E+03	4.443835E-16	2.058790E-17
4.689729E+03	4.448431E-16	2.051995E-17
4.699708E+03	4.449769E-16	2.043687E-17
4.709686E+03	4.449663E-16	2.034714E-17
4.719664E+03	4.447807E-16	2.024945E-17
4.729642E+03	4.443899E-16	2.014255E-17
4.739620E+03	4.439710E-16	2.003455E-17
4.749598E+03	4.434194E-16	1.992078E-17
4.759577E+03	4.429041E-16	1.980887E-17
4.769555E+03	4.423136E-16	1.969383E-17
4.779533E+03	4.418058E-16	1.958272E-17
4.789511E+03	4.412603E-16	1.947018E-17
4.799489E+03	4.408228E-16	1.936262E-17
4.809467E+03	4.403636E-16	1.925432E-17
4.819445E+03	4.400162E-16	1.915111E-17
4.829424E+03	4.397084E-16	1.904979E-17
4.839402E+03	4.393647E-16	1.894709E-17
4.849380E+03	4.391041E-16	1.884814E-17
4.859358E+03	4.387790E-16	1.874658E-17
4.869336E+03	4.385019E-16	1.864726E-17
4.879314E+03	4.381230E-16	1.854381E-17
4.889292E+03	4.377520E-16	1.844090E-17
4.899271E+03	4.372405E-16	1.833233E-17
4.909249E+03	4.366352E-16	1.822013E-17
4.919227E+03	4.359840E-16	1.810635E-17
4.929205E+03	4.351473E-16	1.798525E-17
4.939183E+03	4.342428E-16	1.786181E-17
4.949161E+03	4.331401E-16	1.773071E-17
4.959139E+03	4.319028E-16	1.759469E-17
4.969118E+03	4.305975E-16	1.745653E-17
4.979096E+03	4.291107E-16	1.731170E-17
4.989074E+03	4.275193E-16	1.716340E-17
4.999052E+03	4.258427E-16	1.701247E-17
5.009030E+03	4.241039E-16	1.685989E-17
5.019008E+03	4.223887E-16	1.670910E-17
5.028987E+03	4.206071E-16	1.655655E-17
5.038965E+03	4.188491E-16	1.640581E-17
5.048943E+03	4.171459E-16	1.625810E-17
5.058921E+03	4.155286E-16	1.611459E-17
5.068899E+03	4.140271E-16	1.597641E-17
5.078877E+03	4.126694E-16	1.584458E-17
5.088855E+03	4.114248E-16	1.571783E-17
5.098834E+03	4.104286E-16	1.560128E-17
5.108812E+03	4.096432E-16	1.549335E-17
5.118790E+03	4.090837E-16	1.539452E-17
5.128768E+03	4.087061E-16	1.530303E-17
5.138746E+03	4.086286E-16	1.522318E-17
5.148724E+03	4.087446E-16	1.515087E-17
5.158702E+03	4.091640E-16	1.509008E-17
5.168681E+03	4.097745E-16	1.503651E-17
5.178659E+03	4.106796E-16	1.499387E-17
5.188637E+03	4.117623E-16	1.495775E-17
5.198615E+03	4.130672E-16	1.492971E-17
5.208593E+03	4.145833E-16	1.490924E-17
5.218571E+03	4.163533E-16	1.489778E-17
5.228549E+03	4.182552E-16	1.489088E-17
5.238528E+03	4.203310E-16	1.488999E-17
5.248506E+03	4.225134E-16	1.489267E-17
5.258484E+03	4.249000E-16	1.490231E-17
5.268462E+03	4.274247E-16	1.491654E-17
5.278440E+03	4.300770E-16	1.493495E-17
5.288418E+03	4.327915E-16	1.495526E-17
5.298397E+03	4.356703E-16	1.498098E-17
5.308375E+03	4.385940E-16	1.500799E-17
5.318353E+03	4.416668E-16	1.503984E-17
5.328331E+03	4.447697E-16	1.507248E-17
5.338309E+03	4.479523E-16	1.510761E-17
5.348287E+03	4.512078E-16	1.514501E-17
5.358265E+03	4.545296E-16	1.518448E-17
5.368244E+03	4.579101E-16	1.522577E-17
5.378222E+03	4.613411E-16	1.526865E-17
5.388200E+03	4.648124E-16	1.531280E-17
5.398178E+03	4.683124E-16	1.535788E-17
5.408156E+03	4.717683E-16	1.540157E-17
5.418134E+03	4.752805E-16	1.544719E-17
5.428112E+03	4.787124E-16	1.549037E-17
5.438091E+03	4.821008E-16	1.553239E-17
5.448069E+03	4.854815E-16	1.557448E-17
5.458047E+03	4.887106E-16	1.561210E-17
5.468025E+03	4.918231E-16	1.564649E-17
5.478003E+03	4.947982E-16	1.567711E-17
5.487981E+03	4.975619E-16	1.570172E-17
5.497959E+03	5.002305E-16	1.572415E-17
5.507938E+03	5.027471E-16	1.574269E-17
5.517916E+03	5.050593E-16	1.575583E-17
5.527894E+03	5.072396E-16	1.576596E-17
5.537872E+03	5.093631E-16	1.577550E-17
5.547850E+03	5.113238E-16	1.578127E-17
5.557828E+03	5.132008E-16	1.578581E-17
5.567807E+03	5.150146E-16	1.578983E-17
5.577785E+03	5.167269E-16	1.579223E-17
5.587763E+03	5.184869E-16	1.579766E-17
5.597741E+03	5.202633E-16	1.580520E-17
5.607719E+03	5.220288E-16	1.581405E-17
5.617697E+03	5.238834E-16	1.582725E-17
5.627675E+03	5.258714E-16	1.584611E-17
5.637654E+03	5.281035E-16	1.587393E-17
5.647632E+03	5.304492E-16	1.590675E-17
5.657610E+03	5.331538E-16	1.595189E-17
5.667588E+03	5.362205E-16	1.600939E-17
5.677566E+03	5.396560E-16	1.607938E-17
5.687544E+03	5.436583E-16	1.616770E-17
5.697522E+03	5.481779E-16	1.627281E-17
5.707501E+03	5.533550E-16	1.639880E-17
5.717479E+03	5.592680E-16	1.654792E-17
5.727457E+03	5.659949E-16	1.672242E-17
5.737435E+03	5.736113E-16	1.692446E-17
5.747413E+03	5.821896E-16	1.715613E-17
5.757391E+03	5.917298E-16	1.741736E-17
5.767369E+03	6.023578E-16	1.771185E-17
5.777348E+03	6.141958E-16	1.804314E-17
5.787326E+03	6.271485E-16	1.840845E-17
5.797304E+03	6.413167E-16	1.881072E-17
5.807282E+03	6.566461E-16	1.924840E-17
5.817260E+03	6.732903E-16	1.972604E-17
5.827238E+03	6.910926E-16	2.023912E-17
5.837216E+03	7.101860E-16	2.079160E-17
5.847195E+03	7.303792E-16	2.137801E-17
5.857173E+03	7.517018E-16	2.199932E-17
5.867151E+03	7.740959E-16	2.265398E-17
5.877129E+03	7.974902E-16	2.334006E-17
5.887107E+03	8.217162E-16	2.405282E-17
5.897085E+03	8.468695E-16	2.479521E-17
5.907064E+03	8.726772E-16	2.555945E-17
5.917042E+03	8.991400E-16	2.634576E-17
5.927020E+03	9.261696E-16	2.715175E-17
5.936998E+03	9.536807E-16	2.797513E-17
5.946976E+03	9.815893E-16	2.881365E-17
5.956954E+03	1.009708E-15	2.966203E-17
5.966932E+03	1.038181E-15	3.052467E-17
5.976911E+03	1.066713E-15	3.139311E-17
5.986889E+03	1.095343E-15	3.226872E-17
5.996867E+03	1.123998E-15	3.314950E-17
6.006845E+03	1.152472E-15	3.402962E-17
6.016823E+03	1.180926E-15	3.491394E-17
6.026801E+03	1.209001E-15	3.579203E-17
6.036779E+03	1.236832E-15	3.666806E-17
6.046758E+03	1.264011E-15	3.753001E-17
6.056736E+03	1.290497E-15	3.837680E-17
6.066714E+03	1.315950E-15	3.919835E-17
6.076692E+03	1.340426E-15	3.999633E-17
6.086670E+03	1.363535E-15	4.075911E-17
6.096648E+03	1.384854E-15	4.147396E-17
6.106626E+03	1.404242E-15	4.213647E-17
6.116605E+03	1.421405E-15	4.273757E-17
6.126583E+03	1.436052E-15	4.326824E-17
6.136561E+03	1.447754E-15	4.371511E-17
6.146539E+03	1.456570E-15	4.407951E-17
6.156517E+03	1.461984E-15	4.434522E-17
6.166495E+03	1.463994E-15	4.451152E-17
6.176474E+03	1.462503E-15	4.457476E-17
6.186452E+03	1.457483E-15	4.453326E-17
6.196430E+03	1.448820E-15	4.438271E-17
6.206408E+03	1.436938E-15	4.413524E-17
6.216386E+03	1.421716E-15	4.378623E-17
6.226364E+03	1.403559E-15	4.334728E-17
6.236342E+03	1.382775E-15	4.282708E-17
6.246321E+03	1.359721E-15	4.223583E-17
6.256299E+03	1.334645E-15	4.158055E-17
6.266277E+03	1.308240E-15	4.088219E-17
6.276255E+03	1.280654E-15	4.014476E-17
6.286233E+03	1.252441E-15	3.938524E-17
6.296211E+03	1.224010E-15	3.861611E-17
6.306189E+03	1.195742E-15	3.784920E-17
6.316168E+03	1.167871E-15	3.709180E-17
6.326146E+03	1.140845E-15	3.635812E-17
6.336124E+03	1.115062E-15	3.566101E-17
6.346102E+03	1.090529E-15	3.500092E-17
6.356080E+03	1.067454E-15	3.438482E-17
6.366058E+03	1.046222E-15	3.382552E-17
6.376036E+03	1.026838E-15	3.332371E-17
6.386015E+03	1.009274E-15	3.287900E-17
6.395993E+03	9.936785E-16	3.249680E-17
6.405971E+03	9.800492E-16	3.217763E-17
6.415949E+03	9.683481E-16	3.192083E-17
6.425927E+03	9.583974E-16	3.172114E-17
6.435905E+03	9.502804E-16	3.158188E-17
6.445884E+03	9.436446E-16	3.149193E-17
6.455862E+03	9.383988E-16	3.144875E-17
6.465840E+03	9.343151E-16	3.144516E-17
6.475818E+03	9.311364E-16	3.147288E-17
6.485796E+03	9.284834E-16	3.151935E-17
6.495774E+03	9.262508E-16	3.158115E-17
6.505752E+03	9.239450E-16	3.164148E-17
6.515731E+03	9.213770E-16	3.169375E-17
6.525709E+03	9.182909E-16	3.172893E-17
6.535687E+03	9.144700E-16	3.173918E-17
6.545665E+03	9.096436E-16	3.171465E-17
6.555643E+03	9.037628E-16	3.165310E-17
6.565621E+03	8.968070E-16	3.155320E-17
6.575599E+03	8.885093E-16	3.140493E-17
6.585578E+03	8.788188E-16	3.120575E-17
6.595556E+03	8.678959E-16	3.096061E-17
6.605534E+03	8.555697E-16	3.066269E-17
6.615512E+03	8.420594E-16	3.031910E-17
6.625490E+03	8.272604E-16	2.992536E-17
6.635468E+03	8.113617E-16	2.948761E-17
6.645446E+03	7.944869E-16	2.900970E-17
6.655425E+03	7.767023E-16	2.849347E-17
6.665403E+03	7.583294E-16	2.795022E-17
6.675381E+03	7.393823E-16	2.738007E-17
6.685359E+03	7.201161E-16	2.679214E-17
6.695337E+03	7.007055E-16	2.619269E-17
6.705315E+03	6.812500E-16	2.558532E-17
6.715294E+03	6.620494E-16	2.498124E-17
6.725272E+03	6.431127E-16	2.438084E-17
6.735250E+03	6.247033E-16	2.379424E-17
6.745228E+03	6.068054E-16	2.322106E-17
6.755206E+03	5.895805E-16	2.266771E-17
6.765184E+03	5.730489E-16	2.213530E-17
6.775162E+03	5.573908E-16	2.163113E-17
6.785141E+03	5.425369E-16	2.115294E-17
6.795119E+03	5.285776E-16	2.070466E-17
6.805097E+03	5.155319E-16	2.028749E-17
6.815075E+03	5.034082E-16	1.990223E-17
6.825053E+03	4.922055E-16	1.954931E-17
6.835031E+03	4.819147E-16	1.922884E-17
6.845009E+03	4.724725E-16	1.893877E-17
6.854988E+03	4.639088E-16	1.868074E-17
6.864966E+03	4.561988E-16	1.845421E-17
6.874944E+03	4.493155E-16	1.825854E-17
6.884922E+03	4.432295E-16	1.809297E-17
6.894900E+03	4.378654E-16	1.795483E-17
6.904878E+03	4.332814E-16	1.784691E-17
6.914856E+03	4.293570E-16	1.776463E-17
6.924835E+03	4.261048E-16	1.770888E-17
6.934813E+03	4.234935E-16	1.767871E-17
6.944791E+03	4.214492E-16	1.767137E-17
6.954769E+03	4.200282E-16	1.768953E-17
6.964747E+03	4.191155E-16	1.772867E-17
6.974725E+03	4.187688E-16	1.779151E-17
6.984703E+03	4.188761E-16	1.787357E-17
6.994682E+03	4.194544E-16	1.797584E-17
7.004660E+03	4.204361E-16	1.809565E-17
7.014638E+03	4.218837E-16	1.823592E-17
7.024616E+03	4.236886E-16	1.839219E-17
7.034594E+03	4.259154E-16	1.856746E-17
7.044572E+03	4.284563E-16	1.875724E-17
7.054551E+03	4.313338E-16	1.896267E-17
7.064529E+03	4.345270E-16	1.918304E-17
7.074507E+03	4.379703E-16	1.941557E-17
7.084485E+03	4.417311E-16	1.966341E-17
7.094463E+03	4.456968E-16	1.992169E-17
7.104441E+03	4.498881E-16	2.019145E-17
7.114419E+03	4.542791E-16	2.047162E-17
7.124398E+03	4.588418E-16	2.076105E-17
7.134376E+03	4.635463E-16	2.105845E-17
7.144354E+03	4.683596E-16	2.136240E-17
7.154332E+03	4.731981E-16	2.166911E-17
7.164310E+03	4.780711E-16	2.197903E-17
7.174288E+03	4.829880E-16	2.229258E-17
7.184266E+03	4.878076E-16	2.260324E-17
7.194245E+03	4.924842E-16	2.290883E-17
7.204223E+03	4.970735E-16	2.321185E-17
7.214201E+03	5.014794E-16	2.350775E-17
7.224179E+03	5.056049E-16	2.379185E-17
7.234157E+03	5.095099E-16	2.406683E-17
7.244135E+03	5.130485E-16	2.432564E-17
7.254113E+03	5.162348E-16	2.456875E-17
7.264092E+03	5.190352E-16	2.479436E-17
7.274070E+03	5.213675E-16	2.499831E-17
7.284048E+03	5.233171E-16	2.518446E-17
7.294026E+03	5.247607E-16	2.534664E-17
7.304004E+03	5.257981E-16	2.548942E-17
7.313982E+03	5.263199E-16	2.560726E-17
7.323961E+03	5.263870E-16	2.570287E-17
7.333939E+03	5.260132E-16	2.577666E-17
7.343917E+03	5.251647E-16	2.582675E-17
7.353895E+03	5.239776E-16	2.585961E-17
7.363873E+03	5.224295E-16	2.587395E-17
7.373851E+03	5.205035E-16	2.586874E-17
7.383829E+03	5.182944E-16	2.584852E-17
7.393808E+03	5.158457E-16	2.581531E-17
7.403786E+03	5.132024E-16	2.577126E-17
7.413764E+03	5.104100E-16	2.571856E-17
7.423742E+03	5.075141E-16	2.565944E-17
7.433720E+03	5.045062E-16	2.559343E-17
7.443698E+03	5.015350E-16	2.552804E-17
7.453676E+03	4.985356E-16	2.545997E-17
7.463655E+03	4.955985E-16	2.539386E-17
7.473633E+03	4.927582E-16	2.533151E-17
7.483611E+03	4.900462E-16	2.527459E-17
7.493589E+03	4.874899E-16	2.522461E-17
7.503567E+03	4.851139E-16	2.518291E-17
7.513545E+03	4.829387E-16	2.515067E-17
7.523523E+03	4.809312E-16	2.512624E-17
7.533502E+03	4.791561E-16	2.511313E-17
7.543480E+03	4.776748E-16	2.511466E-17
7.553458E+03	4.763941E-16	2.512607E-17
7.563436E+03	4.753695E-16	2.515041E-17
7.573414E+03	4.746034E-16	2.518793E-17
7.583392E+03	4.740455E-16	2.523608E-17
7.593371E+03	4.737942E-16	2.530023E-17
7.603349E+03	4.737449E-16	2.537491E-17
7.613327E+03	4.739922E-16	2.546532E-17
7.623305E+03	4.744279E-16	2.556577E-17
7.633283E+03	4.750935E-16	2.567860E-17
7.643261E+03	4.760297E-16	2.580612E-17
7.653239E+03	4.770731E-16	2.593959E-17
7.663218E+03	4.783642E-16	2.608672E-17
7.673196E+03	4.798396E-16	2.624416E-17
7.683174E+03	4.814861E-16	2.641129E-17
7.693152E+03	4.832388E-16	2.658460E-17
7.703130E+03	4.851873E-16	2.676910E-17
7.713108E+03	4.872141E-16	2.695837E-17
7.723086E+03	4.893573E-16	2.715458E-17
7.733065E+03	4.916036E-16	2.735704E-17
7.743043E+03	4.939933E-16	2.756804E-17
