#wls	flux	fluxerr
1.596504E+03	3.026342E-18	3.011673E-19
1.636416E+03	3.054004E-18	3.032119E-19
1.676329E+03	3.077861E-18	3.048478E-19
1.716241E+03	3.093569E-18	3.056477E-19
1.756154E+03	3.105284E-18	3.060264E-19
1.796067E+03	3.106961E-18	3.053921E-19
1.835979E+03	3.100610E-18	3.039492E-19
1.875892E+03	3.081201E-18	3.012120E-19
1.915804E+03	3.047919E-18	2.971116E-19
1.955717E+03	2.994789E-18	2.910790E-19
1.995630E+03	2.927603E-18	2.836931E-19
2.035542E+03	2.852770E-18	2.755866E-19
2.075455E+03	2.788171E-18	2.684894E-19
2.115367E+03	2.759091E-18	2.648200E-19
2.155280E+03	2.791406E-18	2.670202E-19
2.195193E+03	2.895559E-18	2.760250E-19
2.235105E+03	3.067776E-18	2.914014E-19
2.275018E+03	3.293164E-18	3.116662E-19
2.314930E+03	3.554300E-18	3.351148E-19
2.354843E+03	3.839654E-18	3.606190E-19
2.394755E+03	4.136011E-18	3.869078E-19
2.434668E+03	4.444303E-18	4.140473E-19
2.474581E+03	4.761143E-18	4.417006E-19
2.514493E+03	5.090306E-18	4.701966E-19
2.554406E+03	5.427352E-18	4.991023E-19
2.594318E+03	5.780417E-18	5.291423E-19
2.634231E+03	6.148306E-18	5.601763E-19
2.674144E+03	6.532803E-18	5.923351E-19
2.714056E+03	6.939572E-18	6.260953E-19
2.753969E+03	7.366557E-18	6.612289E-19
2.793881E+03	7.810795E-18	6.974289E-19
2.833794E+03	8.286938E-18	7.359573E-19
2.873707E+03	8.783064E-18	7.756986E-19
2.913619E+03	9.304957E-18	8.171141E-19
2.953532E+03	9.859404E-18	8.607391E-19
2.993444E+03	1.044308E-17	9.062153E-19
3.003423E+03	1.059233E-17	9.177587E-19
3.013401E+03	1.074352E-17	9.294222E-19
3.023379E+03	1.090252E-17	9.417129E-19
3.033357E+03	1.105800E-17	9.536487E-19
3.043335E+03	1.121551E-17	9.657103E-19
3.053313E+03	1.138245E-17	9.785306E-19
3.063291E+03	1.154662E-17	9.910603E-19
3.073270E+03	1.171394E-17	1.003806E-18
3.083248E+03	1.189062E-17	1.017297E-18
3.093226E+03	1.206406E-17	1.030455E-18
3.103204E+03	1.224041E-17	1.043804E-18
3.113182E+03	1.242617E-17	1.057894E-18
3.123160E+03	1.260829E-17	1.071615E-18
3.133138E+03	1.279990E-17	1.086079E-18
3.143117E+03	1.298765E-17	1.100153E-18
3.153095E+03	1.318502E-17	1.114977E-18
3.163073E+03	1.337834E-17	1.129392E-18
3.173051E+03	1.357440E-17	1.143972E-18
3.183029E+03	1.378035E-17	1.159318E-18
3.193007E+03	1.398204E-17	1.174235E-18
3.202985E+03	1.419385E-17	1.189931E-18
3.212964E+03	1.440870E-17	1.205808E-18
3.222942E+03	1.461915E-17	1.221243E-18
3.232920E+03	1.484016E-17	1.237485E-18
3.242898E+03	1.505671E-17	1.253278E-18
3.252876E+03	1.528418E-17	1.269902E-18
3.262854E+03	1.550718E-17	1.286075E-18
3.272832E+03	1.574149E-17	1.303105E-18
3.282811E+03	1.597137E-17	1.319685E-18
3.292789E+03	1.621302E-17	1.337153E-18
3.302767E+03	1.645859E-17	1.354857E-18
3.312745E+03	1.669986E-17	1.372119E-18
3.322723E+03	1.695367E-17	1.390321E-18
3.332701E+03	1.721193E-17	1.408796E-18
3.342680E+03	1.746614E-17	1.426844E-18
3.352658E+03	1.773381E-17	1.445897E-18
3.362636E+03	1.800658E-17	1.465266E-18
3.372614E+03	1.827565E-17	1.484234E-18
3.382592E+03	1.855928E-17	1.504281E-18
3.392570E+03	1.884883E-17	1.524702E-18
3.402548E+03	1.914459E-17	1.545515E-18
3.412527E+03	1.943735E-17	1.565976E-18
3.422505E+03	1.974641E-17	1.587637E-18
3.432483E+03	2.006274E-17	1.609764E-18
3.442461E+03	2.038672E-17	1.632384E-18
3.452439E+03	2.070871E-17	1.654721E-18
3.462417E+03	2.104914E-17	1.678406E-18
3.472395E+03	2.139856E-17	1.702676E-18
3.482374E+03	2.175746E-17	1.727565E-18
3.492352E+03	2.212637E-17	1.753109E-18
3.502330E+03	2.250585E-17	1.779346E-18
3.512308E+03	2.288550E-17	1.805450E-18
3.522286E+03	2.328775E-17	1.833185E-18
3.532264E+03	2.370242E-17	1.861740E-18
3.542242E+03	2.413021E-17	1.891161E-18
3.552221E+03	2.457186E-17	1.921498E-18
3.562199E+03	2.502811E-17	1.952802E-18
3.572177E+03	2.549978E-17	1.985127E-18
3.582155E+03	2.598772E-17	2.018530E-18
3.592133E+03	2.649280E-17	2.053069E-18
3.602111E+03	2.701596E-17	2.088807E-18
3.612090E+03	2.755818E-17	2.125807E-18
3.622068E+03	2.812048E-17	2.164137E-18
3.632046E+03	2.870392E-17	2.203867E-18
3.642024E+03	2.929597E-17	2.244023E-18
3.652002E+03	2.992482E-17	2.286754E-18
3.661980E+03	3.057827E-17	2.331109E-18
3.671958E+03	3.125758E-17	2.377169E-18
3.681937E+03	3.196407E-17	2.425017E-18
3.691915E+03	3.271412E-17	2.475876E-18
3.701893E+03	3.347936E-17	2.527581E-18
3.711871E+03	3.427598E-17	2.581338E-18
3.721849E+03	3.510547E-17	2.637241E-18
3.731827E+03	3.596937E-17	2.695385E-18
3.741805E+03	3.686926E-17	2.755868E-18
3.751784E+03	3.780677E-17	2.818786E-18
3.761762E+03	3.878356E-17	2.884242E-18
3.771740E+03	3.980131E-17	2.952336E-18
3.781718E+03	4.086177E-17	3.023170E-18
3.791696E+03	4.196670E-17	3.096848E-18
3.801674E+03	4.311789E-17	3.173474E-18
3.811652E+03	4.431715E-17	3.253150E-18
3.821631E+03	4.558664E-17	3.337471E-18
3.831609E+03	4.688808E-17	3.423596E-18
3.841587E+03	4.824314E-17	3.513081E-18
3.851565E+03	4.965368E-17	3.606028E-18
3.861543E+03	5.112156E-17	3.702535E-18
3.871521E+03	5.264863E-17	3.802700E-18
3.881500E+03	5.426061E-17	3.908337E-18
3.891478E+03	5.591224E-17	4.016140E-18
3.901456E+03	5.762856E-17	4.127875E-18
3.911434E+03	5.941137E-17	4.243630E-18
3.921412E+03	6.126234E-17	4.363479E-18
3.931390E+03	6.318323E-17	4.487502E-18
3.941368E+03	6.520400E-17	4.617775E-18
3.951347E+03	6.727048E-17	4.750408E-18
3.961325E+03	6.941177E-17	4.887417E-18
3.971303E+03	7.162930E-17	5.028853E-18
3.981281E+03	7.395634E-17	5.176993E-18
3.991259E+03	7.633165E-17	5.327492E-18
4.001237E+03	7.878730E-17	5.482546E-18
4.011215E+03	8.132454E-17	5.642188E-18
4.021194E+03	8.398036E-17	5.808921E-18
4.031172E+03	8.668518E-17	5.977866E-18
4.041150E+03	8.947477E-17	6.151448E-18
4.051128E+03	9.234986E-17	6.329659E-18
4.061106E+03	9.535153E-17	6.515245E-18
4.071084E+03	9.840095E-17	6.702751E-18
4.081062E+03	1.015377E-16	6.894829E-18
4.091041E+03	1.047619E-16	7.091435E-18
4.101019E+03	1.081193E-16	7.295580E-18
4.110997E+03	1.115204E-16	7.501157E-18
4.120975E+03	1.150090E-16	7.711075E-18
4.130953E+03	1.186341E-16	7.928542E-18
4.140931E+03	1.222976E-16	8.146935E-18
4.150910E+03	1.260467E-16	8.369349E-18
4.160888E+03	1.299339E-16	8.599202E-18
4.170866E+03	1.338520E-16	8.829322E-18
4.180844E+03	1.378513E-16	9.063000E-18
4.190822E+03	1.419299E-16	9.300045E-18
4.200800E+03	1.461454E-16	9.544160E-18
4.210778E+03	1.503768E-16	9.787375E-18
4.220757E+03	1.546794E-16	1.003326E-17
4.230735E+03	1.591145E-16	1.028573E-17
4.240713E+03	1.635504E-16	1.053620E-17
4.250691E+03	1.680458E-16	1.078845E-17
4.260669E+03	1.726661E-16	1.104659E-17
4.270647E+03	1.772682E-16	1.130143E-17
4.280625E+03	1.819145E-16	1.155694E-17
4.290604E+03	1.866743E-16	1.181746E-17
4.300582E+03	1.913929E-16	1.207316E-17
4.310560E+03	1.961368E-16	1.232824E-17
4.320538E+03	2.009792E-16	1.258726E-17
4.330516E+03	2.057537E-16	1.283978E-17
4.340494E+03	2.105312E-16	1.309024E-17
4.350472E+03	2.153891E-16	1.334343E-17
4.360451E+03	2.201502E-16	1.358835E-17
4.370429E+03	2.248899E-16	1.382970E-17
4.380407E+03	2.296906E-16	1.407256E-17
4.390385E+03	2.343643E-16	1.430538E-17
4.400363E+03	2.389902E-16	1.453309E-17
4.410341E+03	2.436548E-16	1.476094E-17
4.420320E+03	2.481594E-16	1.497692E-17
4.430298E+03	2.525889E-16	1.518624E-17
4.440276E+03	2.570349E-16	1.539444E-17
4.450254E+03	2.612899E-16	1.558913E-17
4.460232E+03	2.654442E-16	1.577581E-17
4.470210E+03	2.695940E-16	1.596024E-17
4.480188E+03	2.735245E-16	1.612975E-17
4.490167E+03	2.773310E-16	1.629012E-17
4.500145E+03	2.811148E-16	1.644733E-17
4.510123E+03	2.846543E-16	1.658851E-17
4.520101E+03	2.880505E-16	1.671968E-17
4.530079E+03	2.914092E-16	1.684707E-17
4.540057E+03	2.945040E-16	1.695766E-17
4.550035E+03	2.974411E-16	1.705772E-17
4.560014E+03	3.003311E-16	1.715369E-17
4.569992E+03	3.029442E-16	1.723252E-17
4.579970E+03	3.053915E-16	1.730068E-17
4.589948E+03	3.077881E-16	1.736481E-17
4.599926E+03	3.099018E-16	1.741187E-17
4.609904E+03	3.118485E-16	1.744855E-17
4.619882E+03	3.136292E-16	1.747502E-17
4.629861E+03	3.153639E-16	1.749806E-17
4.639839E+03	3.168190E-16	1.750480E-17
4.649817E+03	3.181156E-16	1.750208E-17
4.659795E+03	3.192574E-16	1.749021E-17
4.669773E+03	3.203676E-16	1.747605E-17
4.679751E+03	3.212131E-16	1.744694E-17
4.689729E+03	3.219181E-16	1.740978E-17
4.699708E+03	3.224881E-16	1.736498E-17
4.709686E+03	3.230484E-16	1.731934E-17
4.719664E+03	3.233667E-16	1.726048E-17
4.729642E+03	3.235685E-16	1.719523E-17
4.739620E+03	3.236605E-16	1.712404E-17
4.749598E+03	3.237677E-16	1.705357E-17
4.759577E+03	3.236595E-16	1.697172E-17
4.769555E+03	3.234612E-16	1.688518E-17
4.779533E+03	3.231794E-16	1.679436E-17
4.789511E+03	3.228204E-16	1.669966E-17
4.799489E+03	3.223905E-16	1.660146E-17
4.809467E+03	3.220125E-16	1.650609E-17
4.819445E+03	3.214589E-16	1.640192E-17
4.829424E+03	3.208521E-16	1.629531E-17
4.839402E+03	3.201981E-16	1.618658E-17
4.849380E+03	3.195021E-16	1.607605E-17
4.859358E+03	3.187694E-16	1.596401E-17
4.869336E+03	3.180050E-16	1.585075E-17
4.879314E+03	3.173273E-16	1.574215E-17
4.889292E+03	3.165139E-16	1.562719E-17
4.899271E+03	3.156833E-16	1.551180E-17
4.909249E+03	3.148399E-16	1.539620E-17
4.919227E+03	3.139884E-16	1.528065E-17
4.929205E+03	3.131332E-16	1.516535E-17
4.939183E+03	3.122785E-16	1.505054E-17
4.949161E+03	3.114288E-16	1.493642E-17
4.959139E+03	3.105882E-16	1.482321E-17
4.969118E+03	3.097611E-16	1.471110E-17
4.979096E+03	3.089516E-16	1.460030E-17
4.989074E+03	3.081639E-16	1.449099E-17
4.999052E+03	3.074022E-16	1.438336E-17
5.009030E+03	3.066705E-16	1.427760E-17
5.019008E+03	3.059730E-16	1.417388E-17
5.028987E+03	3.053135E-16	1.407237E-17
5.038965E+03	3.046961E-16	1.397323E-17
5.048943E+03	3.041244E-16	1.387661E-17
5.058921E+03	3.036023E-16	1.378267E-17
5.068899E+03	3.031332E-16	1.369154E-17
5.078877E+03	3.027208E-16	1.360335E-17
5.088855E+03	3.022639E-16	1.351357E-17
5.098834E+03	3.019745E-16	1.343165E-17
5.108812E+03	3.017508E-16	1.335299E-17
5.118790E+03	3.015958E-16	1.327769E-17
5.128768E+03	3.015118E-16	1.320583E-17
5.138746E+03	3.015013E-16	1.313746E-17
5.148724E+03	3.014636E-16	1.306821E-17
5.158702E+03	3.016062E-16	1.300704E-17
5.168681E+03	3.018280E-16	1.294951E-17
5.178659E+03	3.021304E-16	1.289566E-17
5.188637E+03	3.024122E-16	1.284114E-17
5.198615E+03	3.028796E-16	1.279470E-17
5.208593E+03	3.034308E-16	1.275197E-17
5.218571E+03	3.040667E-16	1.271293E-17
5.228549E+03	3.046854E-16	1.267333E-17
5.238528E+03	3.054923E-16	1.264169E-17
5.248506E+03	3.062827E-16	1.260949E-17
5.258484E+03	3.072621E-16	1.258518E-17
5.268462E+03	3.083284E-16	1.256451E-17
5.278440E+03	3.093783E-16	1.254326E-17
5.288418E+03	3.106186E-16	1.252981E-17
5.298397E+03	3.118426E-16	1.251578E-17
5.308375E+03	3.132580E-16	1.250950E-17
5.318353E+03	3.147620E-16	1.250681E-17
5.328331E+03	3.162502E-16	1.250355E-17
5.338309E+03	3.179330E-16	1.250806E-17
5.348287E+03	3.196014E-16	1.251207E-17
5.358265E+03	3.214679E-16	1.252390E-17
5.368244E+03	3.233227E-16	1.253535E-17
5.378222E+03	3.252737E-16	1.255063E-17
5.388200E+03	3.274315E-16	1.257398E-17
5.398178E+03	3.295849E-16	1.259725E-17
5.408156E+03	3.319540E-16	1.262887E-17
5.418134E+03	3.343269E-16	1.266075E-17
5.428112E+03	3.368174E-16	1.269723E-17
5.438091E+03	3.395428E-16	1.274270E-17
5.448069E+03	3.422894E-16	1.278912E-17
5.458047E+03	3.451751E-16	1.284092E-17
5.468025E+03	3.482080E-16	1.289840E-17
5.478003E+03	3.515105E-16	1.296605E-17
5.487981E+03	3.548621E-16	1.303573E-17
5.497959E+03	3.583791E-16	1.311174E-17
5.507938E+03	3.620633E-16	1.319413E-17
5.517916E+03	3.659167E-16	1.328300E-17
5.527894E+03	3.700608E-16	1.338273E-17
5.537872E+03	3.742607E-16	1.348484E-17
5.547850E+03	3.786382E-16	1.359375E-17
5.557828E+03	3.831972E-16	1.370963E-17
5.567807E+03	3.879429E-16	1.383269E-17
5.577785E+03	3.928809E-16	1.396316E-17
5.587763E+03	3.980182E-16	1.410132E-17
5.597741E+03	4.033623E-16	1.424748E-17
5.607719E+03	4.089211E-16	1.440195E-17
5.617697E+03	4.147032E-16	1.456506E-17
5.627675E+03	4.207178E-16	1.473712E-17
5.637654E+03	4.269743E-16	1.491847E-17
5.647632E+03	4.334830E-16	1.510947E-17
5.657610E+03	4.401148E-16	1.530563E-17
5.667588E+03	4.471573E-16	1.551700E-17
5.677566E+03	4.544838E-16	1.573915E-17
5.687544E+03	4.621052E-16	1.597248E-17
5.697522E+03	4.700321E-16	1.621739E-17
5.707501E+03	4.781241E-16	1.646906E-17
5.717479E+03	4.866901E-16	1.673817E-17
5.727457E+03	4.955911E-16	1.701995E-17
5.737435E+03	5.048356E-16	1.731475E-17
5.747413E+03	5.142699E-16	1.761734E-17
5.757391E+03	5.242202E-16	1.793896E-17
5.767369E+03	5.343657E-16	1.826867E-17
5.777348E+03	5.450415E-16	1.861801E-17
5.787326E+03	5.560852E-16	1.898148E-17
5.797304E+03	5.673196E-16	1.935312E-17
5.807282E+03	5.790930E-16	1.974491E-17
5.817260E+03	5.910434E-16	2.014457E-17
5.827238E+03	6.035278E-16	2.056439E-17
5.837216E+03	6.161650E-16	2.099146E-17
5.847195E+03	6.291258E-16	2.143173E-17
5.857173E+03	6.425937E-16	2.189155E-17
5.867151E+03	6.561553E-16	2.235697E-17
5.877129E+03	6.701906E-16	2.284104E-17
5.887107E+03	6.842637E-16	2.332906E-17
5.897085E+03	6.985487E-16	2.382707E-17
5.907064E+03	7.130132E-16	2.433410E-17
5.917042E+03	7.278452E-16	2.485670E-17
5.927020E+03	7.425605E-16	2.537847E-17
5.936998E+03	7.573362E-16	2.590559E-17
5.946976E+03	7.721268E-16	2.643662E-17
5.956954E+03	7.868813E-16	2.696993E-17
5.966932E+03	8.015483E-16	2.750387E-17
5.976911E+03	8.163219E-16	2.804523E-17
5.986889E+03	8.306494E-16	2.857511E-17
5.996867E+03	8.447154E-16	2.909992E-17
6.006845E+03	8.584602E-16	2.961768E-17
6.016823E+03	8.718193E-16	3.012621E-17
6.026801E+03	8.847309E-16	3.062342E-17
6.036779E+03	8.971302E-16	3.110707E-17
6.046758E+03	9.086794E-16	3.156543E-17
6.056736E+03	9.198655E-16	3.201538E-17
6.066714E+03	9.303561E-16	3.244533E-17
6.076692E+03	9.400934E-16	3.285319E-17
6.086670E+03	9.490244E-16	3.323702E-17
6.096648E+03	9.570989E-16	3.359493E-17
6.106626E+03	9.639807E-16	3.391495E-17
6.116605E+03	9.702112E-16	3.421593E-17
6.126583E+03	9.754672E-16	3.448633E-17
6.136561E+03	9.794256E-16	3.471446E-17
6.146539E+03	9.826573E-16	3.492031E-17
6.156517E+03	9.848540E-16	3.509269E-17
6.166495E+03	9.857119E-16	3.522047E-17
6.176474E+03	9.858273E-16	3.532462E-17
6.186452E+03	9.846143E-16	3.538387E-17
6.196430E+03	9.826808E-16	3.541969E-17
6.206408E+03	9.794584E-16	3.541127E-17
6.216386E+03	9.755646E-16	3.538058E-17
6.226364E+03	9.704467E-16	3.530723E-17
6.236342E+03	9.644387E-16	3.520294E-17
6.246321E+03	9.578747E-16	3.507961E-17
6.256299E+03	9.502266E-16	3.491755E-17
6.266277E+03	9.418364E-16	3.472892E-17
6.276255E+03	9.330392E-16	3.452576E-17
6.286233E+03	9.233319E-16	3.428917E-17
6.296211E+03	9.130548E-16	3.403139E-17
6.306189E+03	9.022657E-16	3.375427E-17
6.316168E+03	8.910233E-16	3.345971E-17
6.326146E+03	8.793849E-16	3.314959E-17
6.336124E+03	8.674056E-16	3.282573E-17
6.346102E+03	8.553944E-16	3.249963E-17
6.356080E+03	8.428883E-16	3.215350E-17
6.366058E+03	8.301942E-16	3.179874E-17
6.376036E+03	8.173573E-16	3.143680E-17
6.386015E+03	8.041806E-16	3.105986E-17
6.395993E+03	7.911840E-16	3.068773E-17
6.405971E+03	7.781602E-16	3.031227E-17
6.415949E+03	7.651411E-16	2.993456E-17
6.425927E+03	7.521552E-16	2.955556E-17
6.435905E+03	7.392300E-16	2.917623E-17
6.445884E+03	7.263888E-16	2.879737E-17
6.455862E+03	7.134422E-16	2.841135E-17
6.465840E+03	7.008352E-16	2.803577E-17
6.475818E+03	6.883702E-16	2.766277E-17
6.485796E+03	6.758625E-16	2.728482E-17
6.495774E+03	6.637277E-16	2.691864E-17
6.505752E+03	6.517723E-16	2.655644E-17
6.515731E+03	6.398141E-16	2.619077E-17
6.525709E+03	6.282335E-16	2.583714E-17
6.535687E+03	6.166474E-16	2.547985E-17
6.545665E+03	6.054122E-16	2.513360E-17
6.555643E+03	5.941574E-16	2.478305E-17
6.565621E+03	5.830547E-16	2.443530E-17
6.575599E+03	5.722647E-16	2.409711E-17
6.585578E+03	5.614415E-16	2.375397E-17
6.595556E+03	5.509149E-16	2.341978E-17
6.605534E+03	5.403565E-16	2.308065E-17
6.615512E+03	5.299322E-16	2.274359E-17
6.625490E+03	5.196449E-16	2.240876E-17
6.635468E+03	5.096487E-16	2.208284E-17
6.645446E+03	4.996478E-16	2.175309E-17
6.655425E+03	4.898021E-16	2.142644E-17
6.665403E+03	4.801200E-16	2.110331E-17
6.675381E+03	4.706109E-16	2.078417E-17
6.685359E+03	4.612844E-16	2.046949E-17
6.695337E+03	4.521503E-16	2.015980E-17
6.705315E+03	4.432185E-16	1.985562E-17
6.715294E+03	4.344988E-16	1.955747E-17
6.725272E+03	4.260004E-16	1.926589E-17
6.735250E+03	4.177320E-16	1.898136E-17
6.745228E+03	4.097018E-16	1.870437E-17
6.755206E+03	4.019170E-16	1.843539E-17
6.765184E+03	3.942688E-16	1.816954E-17
6.775162E+03	3.869956E-16	1.791790E-17
6.785141E+03	3.799841E-16	1.767544E-17
6.795119E+03	3.732384E-16	1.744248E-17
6.805097E+03	3.666538E-16	1.721428E-17
6.815075E+03	3.604482E-16	1.700119E-17
6.825053E+03	3.545132E-16	1.679831E-17
6.835031E+03	3.487473E-16	1.660095E-17
6.845009E+03	3.433546E-16	1.641900E-17
6.854988E+03	3.382300E-16	1.624761E-17
6.864966E+03	3.332740E-16	1.608216E-17
6.874944E+03	3.286793E-16	1.593209E-17
6.884922E+03	3.242490E-16	1.578803E-17
6.894900E+03	3.200760E-16	1.565462E-17
6.904878E+03	3.162476E-16	1.553632E-17
6.914856E+03	3.125730E-16	1.542392E-17
6.924835E+03	3.092300E-16	1.532633E-17
6.934813E+03	3.060313E-16	1.523445E-17
6.944791E+03	3.030619E-16	1.515260E-17
6.954769E+03	3.003152E-16	1.508060E-17
6.964747E+03	2.978713E-16	1.502262E-17
6.974725E+03	2.955491E-16	1.496968E-17
6.984703E+03	2.934289E-16	1.492596E-17
6.994682E+03	2.915038E-16	1.489122E-17
7.004660E+03	2.897665E-16	1.486520E-17
7.014638E+03	2.882098E-16	1.484766E-17
7.024616E+03	2.868264E-16	1.483833E-17
7.034594E+03	2.856088E-16	1.483692E-17
7.044572E+03	2.845499E-16	1.484318E-17
7.054551E+03	2.836420E-16	1.485680E-17
7.064529E+03	2.828780E-16	1.487750E-17
7.074507E+03	2.822506E-16	1.490497E-17
7.084485E+03	2.817524E-16	1.493893E-17
7.094463E+03	2.813763E-16	1.497905E-17
7.104441E+03	2.811148E-16	1.502503E-17
7.114419E+03	2.809610E-16	1.507655E-17
7.124398E+03	2.808259E-16	1.512890E-17
7.134376E+03	2.808664E-16	1.519056E-17
7.144354E+03	2.809936E-16	1.525681E-17
7.154332E+03	2.811191E-16	1.532289E-17
7.164310E+03	2.813999E-16	1.539739E-17
7.174288E+03	2.817478E-16	1.547556E-17
7.184266E+03	2.820744E-16	1.555256E-17
7.194245E+03	2.825383E-16	1.563714E-17
7.204223E+03	2.829689E-16	1.571993E-17
7.214201E+03	2.835260E-16	1.580980E-17
7.224179E+03	2.840388E-16	1.589727E-17
7.234157E+03	2.846685E-16	1.599137E-17
7.244135E+03	2.852443E-16	1.608254E-17
7.254113E+03	2.859288E-16	1.617993E-17
7.264092E+03	2.865514E-16	1.627393E-17
7.274070E+03	2.871922E-16	1.636906E-17
7.284048E+03	2.879324E-16	1.646998E-17
7.294026E+03	2.886017E-16	1.656696E-17
7.304004E+03	2.892818E-16	1.666467E-17
7.313982E+03	2.899714E-16	1.676304E-17
7.323961E+03	2.907544E-16	1.686694E-17
7.333939E+03	2.914605E-16	1.696650E-17
7.343917E+03	2.921740E-16	1.706661E-17
7.353895E+03	2.928953E-16	1.716728E-17
7.363873E+03	2.936250E-16	1.726856E-17
7.373851E+03	2.943640E-16	1.737051E-17
7.383829E+03	2.951137E-16	1.747321E-17
7.393808E+03	2.958756E-16	1.757676E-17
7.403786E+03	2.966517E-16	1.768127E-17
7.413764E+03	2.974440E-16	1.778689E-17
7.423742E+03	2.982550E-16	1.789375E-17
7.433720E+03	2.990871E-16	1.800202E-17
7.443698E+03	2.999429E-16	1.811187E-17
7.453676E+03	3.008251E-16	1.822347E-17
7.463655E+03	3.017365E-16	1.833701E-17
7.473633E+03	3.026800E-16	1.845268E-17
7.483611E+03	3.035692E-16	1.856521E-17
7.493589E+03	3.045850E-16	1.868566E-17
7.503567E+03	3.056415E-16	1.880884E-17
7.513545E+03	3.067419E-16	1.893494E-17
7.523523E+03	3.077988E-16	1.905859E-17
7.533502E+03	3.089959E-16	1.919117E-17
7.543480E+03	3.101547E-16	1.932163E-17
7.553458E+03	3.114598E-16	1.946150E-17
7.563436E+03	3.128231E-16	1.960533E-17
7.573414E+03	3.141540E-16	1.974745E-17
7.583392E+03	3.156393E-16	1.989963E-17
7.593371E+03	3.170948E-16	2.005030E-17
7.603349E+03	3.187088E-16	2.021138E-17
7.613327E+03	3.202944E-16	2.037108E-17
7.623305E+03	3.220414E-16	2.054149E-17
7.633283E+03	3.237606E-16	2.071058E-17
7.643261E+03	3.255466E-16	2.088442E-17
7.653239E+03	3.274964E-16	2.106927E-17
7.663218E+03	3.294165E-16	2.125275E-17
7.673196E+03	3.314024E-16	2.144102E-17
7.683174E+03	3.335522E-16	2.164047E-17
7.693152E+03	3.356675E-16	2.183828E-17
7.703130E+03	3.378454E-16	2.204078E-17
7.713108E+03	3.400840E-16	2.224786E-17
7.723086E+03	3.424832E-16	2.246611E-17
7.733065E+03	3.448381E-16	2.268215E-17
7.743043E+03	3.472473E-16	2.290244E-17
