#wls	flux	fluxerr
1.596504E+03	3.101225E-18	2.982206E-19
1.636416E+03	3.130294E-18	3.003222E-19
1.676329E+03	3.153186E-18	3.018012E-19
1.716241E+03	3.169971E-18	3.026674E-19
1.756154E+03	3.180428E-18	3.029035E-19
1.796067E+03	3.185054E-18	3.025608E-19
1.835979E+03	3.177076E-18	3.010011E-19
1.875892E+03	3.157949E-18	2.983712E-19
1.915804E+03	3.122526E-18	2.941950E-19
1.955717E+03	3.071045E-18	2.885077E-19
1.995630E+03	3.001100E-18	2.810981E-19
2.035542E+03	2.925423E-18	2.731715E-19
2.075455E+03	2.860309E-18	2.662508E-19
2.115367E+03	2.831725E-18	2.627369E-19
2.155280E+03	2.866252E-18	2.650552E-19
2.195193E+03	2.972873E-18	2.739740E-19
2.235105E+03	3.151503E-18	2.894138E-19
2.275018E+03	3.385148E-18	3.097450E-19
2.314930E+03	3.658261E-18	3.334892E-19
2.354843E+03	3.952255E-18	3.589110E-19
2.394755E+03	4.263018E-18	3.856085E-19
2.434668E+03	4.584184E-18	4.129816E-19
2.474581E+03	4.914740E-18	4.409192E-19
2.514493E+03	5.258505E-18	4.697420E-19
2.554406E+03	5.611031E-18	4.990293E-19
2.594318E+03	5.980536E-18	5.294880E-19
2.634231E+03	6.369488E-18	5.613038E-19
2.674144E+03	6.772582E-18	5.939755E-19
2.714056E+03	7.198996E-18	6.282735E-19
2.753969E+03	7.646628E-18	6.639718E-19
2.793881E+03	8.116911E-18	7.011516E-19
2.833794E+03	8.611180E-18	7.398819E-19
2.873707E+03	9.135660E-18	7.806449E-19
2.913619E+03	9.687171E-18	8.231106E-19
2.953532E+03	1.026705E-17	8.673343E-19
2.993444E+03	1.088243E-17	9.138527E-19
3.003423E+03	1.103686E-17	9.254161E-19
3.013401E+03	1.119905E-17	9.375828E-19
3.023379E+03	1.136333E-17	9.498746E-19
3.033357E+03	1.152401E-17	9.618158E-19
3.043335E+03	1.169278E-17	9.743812E-19
3.053313E+03	1.186506E-17	9.871872E-19
3.063291E+03	1.203454E-17	9.997069E-19
3.073270E+03	1.221345E-17	1.012956E-18
3.083248E+03	1.239557E-17	1.026416E-18
3.093226E+03	1.258082E-17	1.040076E-18
3.103204E+03	1.276912E-17	1.053931E-18
3.113182E+03	1.295381E-17	1.067428E-18
3.123160E+03	1.314797E-17	1.081646E-18
3.133138E+03	1.334503E-17	1.096039E-18
3.143117E+03	1.354496E-17	1.110605E-18
3.153095E+03	1.374774E-17	1.125339E-18
3.163073E+03	1.395334E-17	1.140240E-18
3.173051E+03	1.415467E-17	1.154724E-18
3.183029E+03	1.436587E-17	1.169946E-18
3.193007E+03	1.457992E-17	1.185330E-18
3.202985E+03	1.479685E-17	1.200877E-18
3.212964E+03	1.501670E-17	1.216590E-18
3.222942E+03	1.523952E-17	1.232468E-18
3.232920E+03	1.546536E-17	1.248517E-18
3.242898E+03	1.569429E-17	1.264738E-18
3.252876E+03	1.592639E-17	1.281137E-18
3.262854E+03	1.616176E-17	1.297720E-18
3.272832E+03	1.640049E-17	1.314491E-18
3.282811E+03	1.664269E-17	1.331459E-18
3.292789E+03	1.688851E-17	1.348632E-18
3.302767E+03	1.713806E-17	1.366018E-18
3.312745E+03	1.739152E-17	1.383628E-18
3.322723E+03	1.764903E-17	1.401472E-18
3.332701E+03	1.791080E-17	1.419562E-18
3.342680E+03	1.818576E-17	1.438605E-18
3.352658E+03	1.845674E-17	1.457236E-18
3.362636E+03	1.873260E-17	1.476156E-18
3.372614E+03	1.901359E-17	1.495381E-18
3.382592E+03	1.929999E-17	1.514931E-18
3.392570E+03	1.959207E-17	1.534822E-18
3.402548E+03	1.989958E-17	1.555816E-18
3.412527E+03	2.020410E-17	1.576464E-18
3.422505E+03	2.051527E-17	1.597521E-18
3.432483E+03	2.083347E-17	1.619012E-18
3.442461E+03	2.116905E-17	1.641734E-18
3.452439E+03	2.150266E-17	1.664181E-18
3.462417E+03	2.184458E-17	1.687147E-18
3.472395E+03	2.219526E-17	1.710663E-18
3.482374E+03	2.256572E-17	1.735571E-18
3.492352E+03	2.293563E-17	1.760301E-18
3.502330E+03	2.331591E-17	1.785687E-18
3.512308E+03	2.371812E-17	1.812607E-18
3.522286E+03	2.412113E-17	1.839440E-18
3.532264E+03	2.453642E-17	1.867055E-18
3.542242E+03	2.497614E-17	1.896370E-18
3.552221E+03	2.541829E-17	1.925705E-18
3.562199E+03	2.587496E-17	1.955970E-18
3.572177E+03	2.635895E-17	1.988124E-18
3.582155E+03	2.684733E-17	2.020426E-18
3.592133E+03	2.736521E-17	2.054757E-18
3.602111E+03	2.788897E-17	2.089333E-18
3.612090E+03	2.844462E-17	2.126093E-18
3.622068E+03	2.900779E-17	2.163202E-18
3.632046E+03	2.960545E-17	2.202663E-18
3.642024E+03	3.021246E-17	2.242588E-18
3.652002E+03	3.085679E-17	2.285045E-18
3.661980E+03	3.151243E-17	2.328089E-18
3.671958E+03	3.220849E-17	2.373859E-18
3.681937E+03	3.291798E-17	2.420349E-18
3.691915E+03	3.367121E-17	2.469773E-18
3.701893E+03	3.444018E-17	2.520055E-18
3.711871E+03	3.525645E-17	2.573492E-18
3.721849E+03	3.609088E-17	2.627934E-18
3.731827E+03	3.697644E-17	2.685763E-18
3.741805E+03	3.789927E-17	2.745947E-18
3.751784E+03	3.884417E-17	2.807365E-18
3.761762E+03	3.984632E-17	2.872539E-18
3.771740E+03	4.087326E-17	2.939100E-18
3.781718E+03	4.196182E-17	3.009676E-18
3.791696E+03	4.309653E-17	3.083123E-18
3.801674E+03	4.426021E-17	3.158187E-18
3.811652E+03	4.549236E-17	3.237662E-18
3.821631E+03	4.677631E-17	3.320322E-18
3.831609E+03	4.809342E-17	3.404819E-18
3.841587E+03	4.948616E-17	3.494127E-18
3.851565E+03	5.093642E-17	3.586927E-18
3.861543E+03	5.242387E-17	3.681756E-18
3.871521E+03	5.399427E-17	3.781794E-18
3.881500E+03	5.562783E-17	3.885610E-18
3.891478E+03	5.732641E-17	3.993292E-18
3.901456E+03	5.906703E-17	4.103204E-18
3.911434E+03	6.090033E-17	4.218827E-18
3.921412E+03	6.280396E-17	4.338559E-18
3.931390E+03	6.477957E-17	4.462470E-18
3.941368E+03	6.680104E-17	4.588720E-18
3.951347E+03	6.892472E-17	4.721137E-18
3.961325E+03	7.112506E-17	4.857913E-18
3.971303E+03	7.340355E-17	4.999101E-18
3.981281E+03	7.573037E-17	5.142625E-18
3.991259E+03	7.816823E-17	5.292697E-18
4.001237E+03	8.068812E-17	5.447291E-18
4.011215E+03	8.329114E-17	5.606425E-18
4.021194E+03	8.597831E-17	5.770113E-18
4.031172E+03	8.871447E-17	5.935949E-18
4.041150E+03	9.157163E-17	6.108702E-18
4.051128E+03	9.451550E-17	6.286013E-18
4.061106E+03	9.754671E-17	6.467866E-18
4.071084E+03	1.006657E-16	6.654234E-18
4.081062E+03	1.038729E-16	6.845086E-18
4.091041E+03	1.071686E-16	7.040379E-18
4.101019E+03	1.105086E-16	7.237160E-18
4.110997E+03	1.139801E-16	7.441088E-18
4.120975E+03	1.175397E-16	7.649260E-18
4.130953E+03	1.211872E-16	7.861591E-18
4.140931E+03	1.249217E-16	8.077975E-18
4.150910E+03	1.287425E-16	8.298300E-18
4.160888E+03	1.326485E-16	8.522436E-18
4.170866E+03	1.366383E-16	8.750238E-18
4.180844E+03	1.407102E-16	8.981539E-18
4.190822E+03	1.448057E-16	9.212552E-18
4.200800E+03	1.490344E-16	9.450220E-18
4.210778E+03	1.533387E-16	9.690801E-18
4.220757E+03	1.577156E-16	9.934059E-18
4.230735E+03	1.621619E-16	1.017974E-17
4.240713E+03	1.666741E-16	1.042758E-17
4.250691E+03	1.712483E-16	1.067728E-17
4.260669E+03	1.758803E-16	1.092854E-17
4.270647E+03	1.805653E-16	1.118103E-17
4.280625E+03	1.852987E-16	1.143441E-17
4.290604E+03	1.900749E-16	1.168830E-17
4.300582E+03	1.948884E-16	1.194235E-17
4.310560E+03	1.997332E-16	1.219615E-17
4.320538E+03	2.045251E-16	1.244455E-17
4.330516E+03	2.094114E-16	1.269653E-17
4.340494E+03	2.143093E-16	1.294699E-17
4.350472E+03	2.192114E-16	1.319551E-17
4.360451E+03	2.241102E-16	1.344161E-17
4.370429E+03	2.289980E-16	1.368484E-17
4.380407E+03	2.338666E-16	1.392471E-17
4.390385E+03	2.387076E-16	1.416074E-17
4.400363E+03	2.435116E-16	1.439238E-17
4.410341E+03	2.482693E-16	1.461911E-17
4.420320E+03	2.529709E-16	1.484039E-17
4.430298E+03	2.576068E-16	1.505569E-17
4.440276E+03	2.621672E-16	1.526448E-17
4.450254E+03	2.666425E-16	1.546626E-17
4.460232E+03	2.710231E-16	1.566052E-17
4.470210E+03	2.752996E-16	1.584680E-17
4.480188E+03	2.794628E-16	1.602463E-17
4.490167E+03	2.834002E-16	1.618766E-17
4.500145E+03	2.873100E-16	1.634732E-17
4.510123E+03	2.910817E-16	1.649737E-17
4.520101E+03	2.947080E-16	1.663749E-17
4.530079E+03	2.981822E-16	1.676741E-17
4.540057E+03	3.014983E-16	1.688689E-17
4.550035E+03	3.046512E-16	1.699575E-17
4.560014E+03	3.076364E-16	1.709385E-17
4.569992E+03	3.104506E-16	1.718111E-17
4.579970E+03	3.130908E-16	1.725748E-17
4.589948E+03	3.155555E-16	1.732299E-17
4.599926E+03	3.178434E-16	1.737769E-17
4.609904E+03	3.198403E-16	1.741548E-17
4.619882E+03	3.217752E-16	1.744897E-17
4.629861E+03	3.235358E-16	1.747213E-17
4.639839E+03	3.251246E-16	1.748522E-17
4.649817E+03	3.265448E-16	1.748852E-17
4.659795E+03	3.278002E-16	1.748235E-17
4.669773E+03	3.288956E-16	1.746707E-17
4.679751E+03	3.298359E-16	1.744305E-17
4.689729E+03	3.305107E-16	1.740459E-17
4.699708E+03	3.311584E-16	1.736436E-17
4.709686E+03	3.316692E-16	1.731665E-17
4.719664E+03	3.320500E-16	1.726191E-17
4.729642E+03	3.323076E-16	1.720059E-17
4.739620E+03	3.324491E-16	1.713313E-17
4.749598E+03	3.324815E-16	1.705998E-17
4.759577E+03	3.322971E-16	1.697570E-17
4.769555E+03	3.321332E-16	1.689252E-17
4.779533E+03	3.318815E-16	1.680494E-17
4.789511E+03	3.315488E-16	1.671337E-17
4.799489E+03	3.311416E-16	1.661820E-17
4.809467E+03	3.305532E-16	1.651414E-17
4.819445E+03	3.300167E-16	1.641292E-17
4.829424E+03	3.294245E-16	1.630917E-17
4.839402E+03	3.287823E-16	1.620322E-17
4.849380E+03	3.279842E-16	1.608991E-17
4.859358E+03	3.272589E-16	1.598053E-17
4.869336E+03	3.264996E-16	1.586984E-17
4.879314E+03	3.256013E-16	1.575278E-17
4.889292E+03	3.247894E-16	1.564031E-17
4.899271E+03	3.239581E-16	1.552730E-17
4.909249E+03	3.231120E-16	1.541400E-17
4.919227E+03	3.221475E-16	1.529550E-17
4.929205E+03	3.212858E-16	1.518234E-17
4.939183E+03	3.204229E-16	1.506956E-17
4.949161E+03	3.194564E-16	1.495239E-17
4.959139E+03	3.186047E-16	1.484106E-17
4.969118E+03	3.176592E-16	1.472585E-17
4.979096E+03	3.168364E-16	1.461681E-17
4.989074E+03	3.160344E-16	1.450919E-17
4.999052E+03	3.151535E-16	1.439842E-17
5.009030E+03	3.144070E-16	1.429428E-17
5.019008E+03	3.135913E-16	1.418745E-17
5.028987E+03	3.129178E-16	1.408752E-17
5.038965E+03	3.121846E-16	1.398536E-17
5.048943E+03	3.116012E-16	1.389035E-17
5.058921E+03	3.109671E-16	1.379351E-17
5.068899E+03	3.104902E-16	1.370406E-17
5.078877E+03	3.099709E-16	1.361315E-17
5.088855E+03	3.096154E-16	1.352981E-17
5.098834E+03	3.092253E-16	1.344534E-17
5.108812E+03	3.090050E-16	1.336861E-17
5.118790E+03	3.087568E-16	1.329101E-17
5.128768E+03	3.086836E-16	1.322126E-17
5.138746E+03	3.085882E-16	1.315086E-17
5.148724E+03	3.085728E-16	1.308416E-17
5.158702E+03	3.087384E-16	1.302541E-17
5.168681E+03	3.088883E-16	1.296623E-17
5.178659E+03	3.091233E-16	1.291087E-17
5.188637E+03	3.095435E-16	1.286345E-17
5.198615E+03	3.099519E-16	1.281572E-17
5.208593E+03	3.104484E-16	1.277182E-17
5.218571E+03	3.110334E-16	1.273174E-17
5.228549E+03	3.118064E-16	1.269949E-17
5.238528E+03	3.125698E-16	1.266696E-17
5.248506E+03	3.134224E-16	1.263818E-17
5.258484E+03	3.143645E-16	1.261311E-17
5.268462E+03	3.154953E-16	1.259571E-17
5.278440E+03	3.166160E-16	1.257797E-17
5.288418E+03	3.178258E-16	1.256385E-17
5.298397E+03	3.191245E-16	1.255333E-17
5.308375E+03	3.205122E-16	1.254639E-17
5.318353E+03	3.219891E-16	1.254300E-17
5.328331E+03	3.235552E-16	1.254316E-17
5.338309E+03	3.252112E-16	1.254687E-17
5.348287E+03	3.269578E-16	1.255415E-17
5.358265E+03	3.287961E-16	1.256502E-17
5.368244E+03	3.307276E-16	1.257953E-17
5.378222E+03	3.327542E-16	1.259775E-17
5.388200E+03	3.348786E-16	1.261975E-17
5.398178E+03	3.371038E-16	1.264566E-17
5.408156E+03	3.394338E-16	1.267561E-17
5.418134E+03	3.418728E-16	1.270975E-17
5.428112E+03	3.444264E-16	1.274828E-17
5.438091E+03	3.471005E-16	1.279142E-17
5.448069E+03	3.497945E-16	1.283547E-17
5.458047E+03	3.527296E-16	1.288857E-17
5.468025E+03	3.558069E-16	1.294704E-17
5.478003E+03	3.590338E-16	1.301117E-17
5.487981E+03	3.623057E-16	1.307717E-17
5.497959E+03	3.658468E-16	1.315315E-17
5.507938E+03	3.695499E-16	1.323522E-17
5.517916E+03	3.734174E-16	1.332348E-17
5.527894E+03	3.773378E-16	1.341397E-17
5.537872E+03	3.815420E-16	1.351493E-17
5.547850E+03	3.858038E-16	1.361835E-17
5.557828E+03	3.903605E-16	1.373263E-17
5.567807E+03	3.951023E-16	1.385391E-17
5.577785E+03	3.999155E-16	1.397825E-17
5.587763E+03	4.050474E-16	1.411433E-17
5.597741E+03	4.102641E-16	1.425403E-17
5.607719E+03	4.158201E-16	1.440623E-17
5.617697E+03	4.214770E-16	1.456268E-17
5.627675E+03	4.273684E-16	1.472800E-17
5.637654E+03	4.336350E-16	1.490704E-17
5.647632E+03	4.400307E-16	1.509133E-17
5.657610E+03	4.466955E-16	1.528570E-17
5.667588E+03	4.537766E-16	1.549517E-17
5.677566E+03	4.610185E-16	1.571102E-17
5.687544E+03	4.685668E-16	1.593825E-17
5.697522E+03	4.765752E-16	1.618208E-17
5.707501E+03	4.847755E-16	1.643344E-17
5.717479E+03	4.933185E-16	1.669746E-17
5.727457E+03	5.022154E-16	1.697455E-17
5.737435E+03	5.114763E-16	1.726510E-17
5.747413E+03	5.211106E-16	1.756946E-17
5.757391E+03	5.311264E-16	1.788795E-17
5.767369E+03	5.415303E-16	1.822084E-17
5.777348E+03	5.523273E-16	1.856836E-17
5.787326E+03	5.635205E-16	1.893068E-17
5.797304E+03	5.751109E-16	1.930790E-17
5.807282E+03	5.870975E-16	1.970008E-17
5.817260E+03	5.994763E-16	2.010716E-17
5.827238E+03	6.122410E-16	2.052902E-17
5.837216E+03	6.253821E-16	2.096545E-17
5.847195E+03	6.388872E-16	2.141614E-17
5.857173E+03	6.527401E-16	2.188066E-17
5.867151E+03	6.667287E-16	2.235201E-17
5.877129E+03	6.812122E-16	2.284236E-17
5.887107E+03	6.959758E-16	2.334464E-17
5.897085E+03	7.109879E-16	2.385791E-17
5.907064E+03	7.260050E-16	2.437414E-17
5.917042E+03	7.414042E-16	2.490612E-17
5.927020E+03	7.567189E-16	2.543830E-17
5.936998E+03	7.723370E-16	2.598386E-17
5.946976E+03	7.879938E-16	2.653402E-17
5.956954E+03	8.034044E-16	2.707932E-17
5.966932E+03	8.189717E-16	2.763344E-17
5.976911E+03	8.341677E-16	2.817869E-17
5.986889E+03	8.491618E-16	2.872086E-17
5.996867E+03	8.641375E-16	2.926626E-17
6.006845E+03	8.785343E-16	2.979599E-17
6.016823E+03	8.927850E-16	3.032477E-17
6.026801E+03	9.063119E-16	3.083304E-17
6.036779E+03	9.192974E-16	3.132700E-17
6.046758E+03	9.316718E-16	3.180426E-17
6.056736E+03	9.436365E-16	3.227169E-17
6.066714E+03	9.545909E-16	3.270873E-17
6.076692E+03	9.647363E-16	3.312217E-17
6.086670E+03	9.740144E-16	3.350990E-17
6.096648E+03	9.823692E-16	3.386988E-17
6.106626E+03	9.897510E-16	3.420024E-17
6.116605E+03	9.961173E-16	3.449934E-17
6.126583E+03	1.001429E-15	3.476563E-17
6.136561E+03	1.005658E-15	3.499789E-17
6.146539E+03	1.008783E-15	3.519512E-17
6.156517E+03	1.010789E-15	3.535656E-17
6.166495E+03	1.011671E-15	3.548172E-17
6.176474E+03	1.011433E-15	3.557044E-17
6.186452E+03	1.010085E-15	3.562274E-17
6.196430E+03	1.007362E-15	3.562888E-17
6.206408E+03	1.003859E-15	3.560957E-17
6.216386E+03	9.993246E-16	3.555556E-17
6.226364E+03	9.935196E-16	3.545795E-17
6.236342E+03	9.870521E-16	3.533806E-17
6.246321E+03	9.796932E-16	3.518738E-17
6.256299E+03	9.712279E-16	3.499781E-17
6.266277E+03	9.622648E-16	3.479088E-17
6.276255E+03	9.523250E-16	3.454899E-17
6.286233E+03	9.420114E-16	3.429363E-17
6.296211E+03	9.308614E-16	3.400769E-17
6.306189E+03	9.194632E-16	3.371232E-17
6.316168E+03	9.073671E-16	3.339080E-17
6.326146E+03	8.951465E-16	3.306391E-17
6.336124E+03	8.823590E-16	3.271512E-17
6.346102E+03	8.693180E-16	3.235574E-17
6.356080E+03	8.560775E-16	3.198760E-17
6.366058E+03	8.429253E-16	3.162124E-17
6.376036E+03	8.294349E-16	3.124046E-17
6.386015E+03	8.158882E-16	3.085562E-17
6.395993E+03	8.023260E-16	3.046806E-17
6.405971E+03	7.887826E-16	3.007892E-17
6.415949E+03	7.752894E-16	2.968926E-17
6.425927E+03	7.618753E-16	2.930006E-17
6.435905E+03	7.485643E-16	2.891215E-17
6.445884E+03	7.353781E-16	2.852627E-17
6.455862E+03	7.223357E-16	2.814309E-17
6.465840E+03	7.094533E-16	2.776318E-17
6.475818E+03	6.967446E-16	2.738704E-17
6.485796E+03	6.842211E-16	2.701509E-17
6.495774E+03	6.718913E-16	2.664766E-17
6.505752E+03	6.595783E-16	2.627769E-17
6.515731E+03	6.476515E-16	2.591985E-17
6.525709E+03	6.359201E-16	2.556660E-17
6.535687E+03	6.242010E-16	2.521054E-17
6.545665E+03	6.128286E-16	2.486516E-17
6.555643E+03	6.016136E-16	2.452284E-17
6.565621E+03	5.903808E-16	2.417642E-17
6.575599E+03	5.794484E-16	2.383890E-17
6.585578E+03	5.684861E-16	2.349670E-17
6.595556E+03	5.578045E-16	2.316266E-17
6.605534E+03	5.470910E-16	2.282382E-17
6.615512E+03	5.366498E-16	2.249283E-17
6.625490E+03	5.261854E-16	2.215736E-17
6.635468E+03	5.158531E-16	2.182391E-17
6.645446E+03	5.057988E-16	2.149868E-17
6.655425E+03	4.957499E-16	2.117016E-17
6.665403E+03	4.858581E-16	2.084480E-17
6.675381E+03	4.761340E-16	2.052311E-17
6.685359E+03	4.665888E-16	2.020562E-17
6.695337E+03	4.573598E-16	1.989838E-17
6.705315E+03	4.482049E-16	1.959096E-17
6.715294E+03	4.392638E-16	1.928950E-17
6.725272E+03	4.305476E-16	1.899457E-17
6.735250E+03	4.220666E-16	1.870675E-17
6.745228E+03	4.138306E-16	1.842658E-17
6.755206E+03	4.058481E-16	1.815457E-17
6.765184E+03	3.980181E-16	1.788630E-17
6.775162E+03	3.905673E-16	1.763209E-17
6.785141E+03	3.833902E-16	1.738735E-17
6.795119E+03	3.764912E-16	1.715243E-17
6.805097E+03	3.698737E-16	1.692766E-17
6.815075E+03	3.634407E-16	1.670871E-17
6.825053E+03	3.573939E-16	1.650501E-17
6.835031E+03	3.516321E-16	1.631208E-17
6.845009E+03	3.460603E-16	1.612567E-17
6.854988E+03	3.408673E-16	1.595471E-17
6.864966E+03	3.359546E-16	1.579481E-17
6.874944E+03	3.312285E-16	1.564169E-17
6.884922E+03	3.268674E-16	1.550393E-17
6.894900E+03	3.226869E-16	1.537296E-17
6.904878E+03	3.187721E-16	1.525296E-17
6.914856E+03	3.152034E-16	1.514796E-17
6.924835E+03	3.118017E-16	1.504950E-17
6.934813E+03	3.086476E-16	1.496161E-17
6.944791E+03	3.058177E-16	1.488815E-17
6.954769E+03	3.031372E-16	1.482078E-17
6.964747E+03	3.006833E-16	1.476338E-17
6.974725E+03	2.984485E-16	1.471571E-17
6.984703E+03	2.965062E-16	1.468154E-17
6.994682E+03	2.946863E-16	1.465258E-17
7.004660E+03	2.930625E-16	1.463260E-17
7.014638E+03	2.916270E-16	1.462132E-17
7.024616E+03	2.903719E-16	1.461844E-17
7.034594E+03	2.892892E-16	1.462369E-17
7.044572E+03	2.883711E-16	1.463675E-17
7.054551E+03	2.876095E-16	1.465732E-17
7.064529E+03	2.869965E-16	1.468509E-17
7.074507E+03	2.864459E-16	1.471572E-17
7.084485E+03	2.861064E-16	1.475691E-17
7.094463E+03	2.858916E-16	1.480431E-17
7.104441E+03	2.857936E-16	1.485759E-17
7.114419E+03	2.858049E-16	1.491641E-17
7.124398E+03	2.858393E-16	1.497634E-17
7.134376E+03	2.860455E-16	1.504520E-17
7.144354E+03	2.863377E-16	1.511856E-17
7.154332E+03	2.866305E-16	1.519195E-17
7.164310E+03	2.870728E-16	1.527327E-17
7.174288E+03	2.875008E-16	1.535389E-17
7.184266E+03	2.880648E-16	1.544183E-17
7.194245E+03	2.886007E-16	1.552835E-17
7.204223E+03	2.892597E-16	1.562159E-17
7.214201E+03	2.898778E-16	1.571274E-17
7.224179E+03	2.906075E-16	1.581006E-17
7.234157E+03	2.912849E-16	1.590466E-17
7.244135E+03	2.919841E-16	1.600058E-17
7.254113E+03	2.927006E-16	1.609758E-17
7.264092E+03	2.935106E-16	1.619987E-17
7.274070E+03	2.942501E-16	1.629842E-17
7.284048E+03	2.949962E-16	1.639746E-17
7.294026E+03	2.957461E-16	1.649685E-17
7.304004E+03	2.964978E-16	1.659648E-17
7.313982E+03	2.973312E-16	1.670082E-17
7.323961E+03	2.980827E-16	1.680071E-17
7.333939E+03	2.988329E-16	1.690065E-17
7.343917E+03	2.995819E-16	1.700065E-17
7.353895E+03	3.003303E-16	1.710073E-17
7.363873E+03	3.010788E-16	1.720094E-17
7.373851E+03	3.018289E-16	1.730136E-17
7.383829E+03	3.024994E-16	1.739731E-17
7.393808E+03	3.032582E-16	1.749845E-17
7.403786E+03	3.040251E-16	1.760018E-17
7.413764E+03	3.048027E-16	1.770264E-17
7.423742E+03	3.055940E-16	1.780602E-17
7.433720E+03	3.063180E-16	1.790559E-17
7.443698E+03	3.071459E-16	1.801136E-17
7.453676E+03	3.079974E-16	1.811865E-17
7.463655E+03	3.087909E-16	1.822265E-17
7.473633E+03	3.096993E-16	1.833359E-17
7.483611E+03	3.106416E-16	1.844670E-17
7.493589E+03	3.115353E-16	1.855709E-17
7.503567E+03	3.125554E-16	1.867519E-17
7.513545E+03	3.135335E-16	1.879097E-17
7.523523E+03	3.146461E-16	1.891502E-17
7.533502E+03	3.157234E-16	1.903718E-17
7.543480E+03	3.169425E-16	1.916813E-17
7.553458E+03	3.181318E-16	1.929756E-17
7.563436E+03	3.193814E-16	1.943089E-17
7.573414E+03	3.207823E-16	1.957375E-17
7.583392E+03	3.221598E-16	1.971551E-17
7.593371E+03	3.236040E-16	1.986168E-17
7.603349E+03	3.252063E-16	2.001794E-17
7.613327E+03	3.267886E-16	2.017335E-17
7.623305E+03	3.284411E-16	2.033351E-17
7.633283E+03	3.301646E-16	2.049849E-17
7.643261E+03	3.319589E-16	2.066832E-17
7.653239E+03	3.338242E-16	2.084305E-17
7.663218E+03	3.357600E-16	2.102268E-17
7.673196E+03	3.378594E-16	2.121310E-17
7.683174E+03	3.399345E-16	2.140254E-17
7.693152E+03	3.420769E-16	2.159680E-17
7.703130E+03	3.442852E-16	2.179582E-17
7.713108E+03	3.465576E-16	2.199950E-17
7.723086E+03	3.487946E-16	2.220155E-17
7.733065E+03	3.511878E-16	2.241419E-17
7.743043E+03	3.536379E-16	2.263112E-17
