#wls	flux	fluxerr
1.600000E+03	1.972073E-17	2.193391E-17
1.640000E+03	2.045130E-17	2.255954E-17
1.680000E+03	2.121436E-17	2.320868E-17
1.720000E+03	2.200871E-17	2.388008E-17
1.760000E+03	2.283259E-17	2.457198E-17
1.800000E+03	2.367714E-17	2.527515E-17
1.840000E+03	2.454539E-17	2.599325E-17
1.880000E+03	2.544010E-17	2.672948E-17
1.920000E+03	2.634328E-17	2.746522E-17
1.960000E+03	2.725588E-17	2.820182E-17
2.000000E+03	2.817138E-17	2.893269E-17
2.040000E+03	2.908239E-17	2.965026E-17
2.080000E+03	2.998787E-17	3.035318E-17
2.120000E+03	3.087176E-17	3.102467E-17
2.160000E+03	3.172434E-17	3.165423E-17
2.200000E+03	3.253537E-17	3.223067E-17
2.240000E+03	3.330165E-17	3.274954E-17
2.280000E+03	3.400521E-17	3.319158E-17
2.320000E+03	3.464301E-17	3.355216E-17
2.360000E+03	3.520522E-17	3.381979E-17
2.400000E+03	3.568292E-17	3.398395E-17
2.440000E+03	3.606133E-17	3.402866E-17
2.480000E+03	3.634928E-17	3.396048E-17
2.520000E+03	3.653596E-17	3.376749E-17
2.560000E+03	3.662732E-17	3.345370E-17
2.600000E+03	3.661802E-17	3.301294E-17
2.640000E+03	3.651943E-17	3.245455E-17
2.680000E+03	3.634518E-17	3.178975E-17
2.720000E+03	3.609848E-17	3.102061E-17
2.760000E+03	3.580394E-17	3.016765E-17
2.800000E+03	3.546348E-17	2.923172E-17
2.840000E+03	3.511077E-17	2.823969E-17
2.880000E+03	3.475682E-17	2.719862E-17
2.920000E+03	3.442526E-17	2.612462E-17
2.960000E+03	3.413490E-17	2.502842E-17
3.000000E+03	3.391539E-17	2.392662E-17
3.010000E+03	3.387556E-17	2.365228E-17
3.020000E+03	3.383894E-17	2.337617E-17
3.030000E+03	3.381076E-17	2.310176E-17
3.040000E+03	3.378649E-17	2.282581E-17
3.050000E+03	3.377131E-17	2.255166E-17
3.060000E+03	3.376550E-17	2.227929E-17
3.070000E+03	3.376466E-17	2.200561E-17
3.080000E+03	3.377389E-17	2.173375E-17
3.090000E+03	3.379351E-17	2.146368E-17
3.100000E+03	3.381922E-17	2.119243E-17
3.110000E+03	3.385605E-17	2.092296E-17
3.120000E+03	3.390436E-17	2.065520E-17
3.130000E+03	3.395996E-17	2.038632E-17
3.140000E+03	3.402784E-17	2.011909E-17
3.150000E+03	3.410837E-17	1.985341E-17
3.160000E+03	3.420197E-17	1.958916E-17
3.170000E+03	3.430906E-17	1.932623E-17
3.180000E+03	3.442566E-17	1.906204E-17
3.190000E+03	3.455668E-17	1.879903E-17
3.200000E+03	3.470262E-17	1.853705E-17
3.210000E+03	3.486398E-17	1.827596E-17
3.220000E+03	3.504127E-17	1.801562E-17
3.230000E+03	3.523507E-17	1.775585E-17
3.240000E+03	3.544594E-17	1.749650E-17
3.250000E+03	3.567014E-17	1.723530E-17
3.260000E+03	3.591705E-17	1.697634E-17
3.270000E+03	3.618298E-17	1.671729E-17
3.280000E+03	3.646430E-17	1.645604E-17
3.290000E+03	3.677049E-17	1.619638E-17
3.300000E+03	3.709803E-17	1.593615E-17
3.310000E+03	3.744341E-17	1.567337E-17
3.320000E+03	3.781631E-17	1.541162E-17
3.330000E+03	3.821336E-17	1.514889E-17
3.340000E+03	3.864005E-17	1.488679E-17
3.350000E+03	3.908878E-17	1.462182E-17
3.360000E+03	3.956519E-17	1.435568E-17
3.370000E+03	4.007512E-17	1.408996E-17
3.380000E+03	4.061567E-17	1.382308E-17
3.390000E+03	4.118849E-17	1.355517E-17
3.400000E+03	4.179993E-17	1.328787E-17
3.410000E+03	4.244298E-17	1.301858E-17
3.420000E+03	4.312893E-17	1.275055E-17
3.430000E+03	4.386035E-17	1.248420E-17
3.440000E+03	4.463542E-17	1.221885E-17
3.450000E+03	4.545719E-17	1.195536E-17
3.460000E+03	4.633381E-17	1.169604E-17
3.470000E+03	4.726441E-17	1.144094E-17
3.480000E+03	4.825324E-17	1.119167E-17
3.490000E+03	4.930993E-17	1.095125E-17
3.500000E+03	5.043994E-17	1.072185E-17
3.510000E+03	5.164431E-17	1.050501E-17
3.520000E+03	5.293470E-17	1.030482E-17
3.530000E+03	5.431336E-17	1.012372E-17
3.540000E+03	5.579358E-17	9.966596E-18
3.550000E+03	5.738436E-17	9.837671E-18
3.560000E+03	5.908995E-17	9.740559E-18
3.570000E+03	6.093173E-17	9.681734E-18
3.580000E+03	6.290370E-17	9.662988E-18
3.590000E+03	6.503366E-17	9.690876E-18
3.600000E+03	6.731987E-17	9.766176E-18
3.610000E+03	6.978216E-17	9.891177E-18
3.620000E+03	7.241411E-17	1.006260E-17
3.630000E+03	7.522612E-17	1.027811E-17
3.640000E+03	7.822142E-17	1.053317E-17
3.650000E+03	8.140223E-17	1.082211E-17
3.660000E+03	8.476256E-17	1.113747E-17
3.670000E+03	8.831658E-17	1.147389E-17
3.680000E+03	9.205617E-17	1.182275E-17
3.690000E+03	9.597880E-17	1.217603E-17
3.700000E+03	1.000804E-16	1.252554E-17
3.710000E+03	1.043551E-16	1.286311E-17
3.720000E+03	1.087951E-16	1.318074E-17
3.730000E+03	1.133994E-16	1.347185E-17
3.740000E+03	1.181382E-16	1.372727E-17
3.750000E+03	1.230145E-16	1.394287E-17
3.760000E+03	1.280018E-16	1.411249E-17
3.770000E+03	1.330794E-16	1.423245E-17
3.780000E+03	1.382339E-16	1.430197E-17
3.790000E+03	1.434284E-16	1.432031E-17
3.800000E+03	1.486327E-16	1.429030E-17
3.810000E+03	1.538231E-16	1.421834E-17
3.820000E+03	1.589478E-16	1.411077E-17
3.830000E+03	1.639578E-16	1.397637E-17
3.840000E+03	1.688090E-16	1.382592E-17
3.850000E+03	1.734307E-16	1.366812E-17
3.860000E+03	1.777751E-16	1.351184E-17
3.870000E+03	1.817859E-16	1.336324E-17
3.880000E+03	1.854061E-16	1.322561E-17
3.890000E+03	1.886090E-16	1.310046E-17
3.900000E+03	1.913990E-16	1.298804E-17
3.910000E+03	1.937853E-16	1.288602E-17
3.920000E+03	1.957833E-16	1.278971E-17
3.930000E+03	1.974462E-16	1.269588E-17
3.940000E+03	1.988192E-16	1.260118E-17
3.950000E+03	1.999347E-16	1.250231E-17
3.960000E+03	2.008480E-16	1.239900E-17
3.970000E+03	2.016003E-16	1.229127E-17
3.980000E+03	2.022178E-16	1.217854E-17
3.990000E+03	2.027506E-16	1.206234E-17
4.000000E+03	2.032408E-16	1.194391E-17
4.010000E+03	2.037374E-16	1.182408E-17
4.020000E+03	2.042814E-16	1.170339E-17
4.030000E+03	2.049360E-16	1.158421E-17
4.040000E+03	2.057471E-16	1.146795E-17
4.050000E+03	2.067518E-16	1.135636E-17
4.060000E+03	2.079703E-16	1.125084E-17
4.070000E+03	2.093864E-16	1.115070E-17
4.080000E+03	2.109836E-16	1.105593E-17
4.090000E+03	2.127113E-16	1.096544E-17
4.100000E+03	2.144927E-16	1.087660E-17
4.110000E+03	2.162350E-16	1.078688E-17
4.120000E+03	2.178342E-16	1.069388E-17
4.130000E+03	2.192286E-16	1.059678E-17
4.140000E+03	2.203286E-16	1.049385E-17
4.150000E+03	2.211021E-16	1.038624E-17
4.160000E+03	2.215289E-16	1.027421E-17
4.170000E+03	2.216492E-16	1.016031E-17
4.180000E+03	2.214828E-16	1.004517E-17
4.190000E+03	2.211012E-16	9.929211E-18
4.200000E+03	2.205796E-16	9.812268E-18
4.210000E+03	2.200035E-16	9.694471E-18
4.220000E+03	2.194565E-16	9.574722E-18
4.230000E+03	2.190461E-16	9.453435E-18
4.240000E+03	2.188618E-16	9.330768E-18
4.250000E+03	2.190224E-16	9.207194E-18
4.260000E+03	2.195962E-16	9.081144E-18
4.270000E+03	2.207008E-16	8.952450E-18
4.280000E+03	2.223954E-16	8.815996E-18
4.290000E+03	2.247513E-16	8.666477E-18
4.300000E+03	2.277910E-16	8.496659E-18
4.310000E+03	2.315029E-16	8.297515E-18
4.320000E+03	2.358435E-16	8.062088E-18
4.330000E+03	2.407152E-16	7.788149E-18
4.340000E+03	2.459566E-16	7.480467E-18
4.350000E+03	2.513722E-16	7.157327E-18
4.360000E+03	2.567342E-16	6.852453E-18
4.370000E+03	2.618029E-16	6.611599E-18
4.380000E+03	2.663374E-16	6.485219E-18
4.390000E+03	2.701702E-16	6.509565E-18
4.400000E+03	2.732374E-16	6.683977E-18
4.410000E+03	2.755543E-16	6.971563E-18
4.420000E+03	2.772612E-16	7.319299E-18
4.430000E+03	2.785545E-16	7.675733E-18
4.440000E+03	2.796808E-16	8.006907E-18
4.450000E+03	2.808757E-16	8.297658E-18
4.460000E+03	2.824019E-16	8.547264E-18
4.470000E+03	2.844939E-16	8.765847E-18
4.480000E+03	2.873989E-16	8.969664E-18
4.490000E+03	2.912931E-16	9.171023E-18
4.500000E+03	2.963839E-16	9.382692E-18
4.510000E+03	3.027923E-16	9.612125E-18
4.520000E+03	3.106011E-16	9.858070E-18
4.530000E+03	3.198409E-16	1.011554E-17
4.540000E+03	3.304346E-16	1.037790E-17
4.550000E+03	3.421910E-16	1.063614E-17
4.560000E+03	3.548092E-16	1.088507E-17
4.570000E+03	3.678445E-16	1.112426E-17
4.580000E+03	3.807847E-16	1.135710E-17
4.590000E+03	3.930071E-16	1.159065E-17
4.600000E+03	4.038829E-16	1.182810E-17
4.610000E+03	4.128743E-16	1.205708E-17
4.620000E+03	4.195276E-16	1.225943E-17
4.630000E+03	4.235145E-16	1.242108E-17
4.640000E+03	4.246581E-16	1.253098E-17
4.650000E+03	4.229626E-16	1.258915E-17
4.660000E+03	4.185530E-16	1.260208E-17
4.670000E+03	4.117118E-16	1.257418E-17
4.680000E+03	4.027942E-16	1.251247E-17
4.690000E+03	3.922200E-16	1.242778E-17
4.700000E+03	3.804432E-16	1.232749E-17
4.710000E+03	3.678927E-16	1.221924E-17
4.720000E+03	3.550412E-16	1.211295E-17
4.730000E+03	3.423205E-16	1.201278E-17
4.740000E+03	3.301777E-16	1.192522E-17
4.750000E+03	3.189932E-16	1.185873E-17
4.760000E+03	3.091425E-16	1.182284E-17
4.770000E+03	3.009437E-16	1.182838E-17
4.780000E+03	2.946324E-16	1.188550E-17
4.790000E+03	2.903758E-16	1.200037E-17
4.800000E+03	2.882573E-16	1.217635E-17
4.810000E+03	2.882933E-16	1.241489E-17
4.820000E+03	2.903829E-16	1.271105E-17
4.830000E+03	2.943549E-16	1.305665E-17
4.840000E+03	2.999862E-16	1.344110E-17
4.850000E+03	3.069742E-16	1.384862E-17
4.860000E+03	3.149712E-16	1.426178E-17
4.870000E+03	3.236129E-16	1.466367E-17
4.880000E+03	3.325461E-16	1.503842E-17
4.890000E+03	3.414325E-16	1.537353E-17
4.900000E+03	3.499631E-16	1.566059E-17
4.910000E+03	3.578826E-16	1.589460E-17
4.920000E+03	3.649843E-16	1.607550E-17
4.930000E+03	3.710916E-16	1.620674E-17
4.940000E+03	3.760850E-16	1.629339E-17
4.950000E+03	3.798797E-16	1.634264E-17
4.960000E+03	3.824388E-16	1.636259E-17
4.970000E+03	3.837700E-16	1.635814E-17
4.980000E+03	3.839315E-16	1.633379E-17
4.990000E+03	3.830138E-16	1.629272E-17
5.000000E+03	3.811109E-16	1.623286E-17
5.010000E+03	3.783195E-16	1.615096E-17
5.020000E+03	3.747630E-16	1.604532E-17
5.030000E+03	3.705594E-16	1.591279E-17
5.040000E+03	3.658468E-16	1.575336E-17
5.050000E+03	3.607927E-16	1.557132E-17
5.060000E+03	3.555760E-16	1.537238E-17
5.070000E+03	3.503971E-16	1.516580E-17
5.080000E+03	3.454655E-16	1.496284E-17
5.090000E+03	3.409668E-16	1.477232E-17
5.100000E+03	3.371057E-16	1.460437E-17
5.110000E+03	3.340148E-16	1.446604E-17
5.120000E+03	3.318119E-16	1.436125E-17
5.130000E+03	3.305739E-16	1.429218E-17
5.140000E+03	3.303179E-16	1.425874E-17
5.150000E+03	3.310105E-16	1.425706E-17
5.160000E+03	3.325730E-16	1.428228E-17
5.170000E+03	3.348968E-16	1.432981E-17
5.180000E+03	3.378182E-16	1.439251E-17
5.190000E+03	3.411773E-16	1.446512E-17
5.200000E+03	3.447962E-16	1.454295E-17
5.210000E+03	3.485205E-16	1.462085E-17
5.220000E+03	3.522142E-16	1.469517E-17
5.230000E+03	3.557630E-16	1.476351E-17
5.240000E+03	3.590813E-16	1.482218E-17
5.250000E+03	3.621123E-16	1.486895E-17
5.260000E+03	3.647922E-16	1.490170E-17
5.270000E+03	3.670926E-16	1.491760E-17
5.280000E+03	3.689669E-16	1.491361E-17
5.290000E+03	3.704002E-16	1.488847E-17
5.300000E+03	3.713631E-16	1.483782E-17
5.310000E+03	3.718387E-16	1.475857E-17
5.320000E+03	3.718242E-16	1.464931E-17
5.330000E+03	3.713057E-16	1.450672E-17
5.340000E+03	3.702998E-16	1.433031E-17
5.350000E+03	3.688388E-16	1.412176E-17
5.360000E+03	3.669547E-16	1.388133E-17
5.370000E+03	3.647224E-16	1.361205E-17
5.380000E+03	3.622160E-16	1.331693E-17
5.390000E+03	3.595337E-16	1.299646E-17
5.400000E+03	3.567823E-16	1.265218E-17
5.410000E+03	3.540625E-16	1.228721E-17
5.420000E+03	3.514616E-16	1.190391E-17
5.430000E+03	3.490587E-16	1.150880E-17
5.440000E+03	3.469028E-16	1.111270E-17
5.450000E+03	3.450530E-16	1.072983E-17
5.460000E+03	3.435329E-16	1.038088E-17
5.470000E+03	3.423818E-16	1.009373E-17
5.480000E+03	3.416099E-16	9.894854E-18
5.490000E+03	3.412316E-16	9.807592E-18
5.500000E+03	3.412206E-16	9.842582E-18
5.510000E+03	3.415352E-16	9.990561E-18
5.520000E+03	3.421077E-16	1.022954E-17
5.530000E+03	3.428366E-16	1.053088E-17
5.540000E+03	3.436152E-16	1.086138E-17
5.550000E+03	3.443023E-16	1.119056E-17
5.560000E+03	3.447396E-16	1.149349E-17
5.570000E+03	3.447729E-16	1.174797E-17
5.580000E+03	3.442310E-16	1.193831E-17
5.590000E+03	3.429612E-16	1.205872E-17
5.600000E+03	3.408547E-16	1.211157E-17
5.610000E+03	3.378334E-16	1.210692E-17
5.620000E+03	3.338591E-16	1.205799E-17
5.630000E+03	3.289370E-16	1.197470E-17
5.640000E+03	3.231008E-16	1.186576E-17
5.650000E+03	3.164121E-16	1.173830E-17
5.660000E+03	3.089364E-16	1.159374E-17
5.670000E+03	3.007509E-16	1.143233E-17
5.680000E+03	2.919450E-16	1.125454E-17
5.690000E+03	2.826350E-16	1.105956E-17
5.700000E+03	2.729460E-16	1.084799E-17
5.710000E+03	2.630331E-16	1.062348E-17
5.720000E+03	2.530656E-16	1.038989E-17
5.730000E+03	2.432342E-16	1.015369E-17
5.740000E+03	2.337346E-16	9.923026E-18
5.750000E+03	2.247826E-16	9.706325E-18
5.760000E+03	2.165823E-16	9.512549E-18
5.770000E+03	2.093262E-16	9.351054E-18
5.780000E+03	2.031900E-16	9.229755E-18
5.790000E+03	1.983289E-16	9.156322E-18
5.800000E+03	1.948563E-16	9.137241E-18
5.810000E+03	1.928494E-16	9.176677E-18
5.820000E+03	1.923564E-16	9.277802E-18
5.830000E+03	1.933950E-16	9.442783E-18
5.840000E+03	1.959427E-16	9.671217E-18
5.850000E+03	1.999439E-16	9.961326E-18
5.860000E+03	2.053095E-16	1.031007E-17
5.870000E+03	2.119031E-16	1.071165E-17
5.880000E+03	2.195423E-16	1.115835E-17
5.890000E+03	2.280049E-16	1.164069E-17
5.900000E+03	2.370415E-16	1.214698E-17
5.910000E+03	2.463707E-16	1.266410E-17
5.920000E+03	2.556999E-16	1.317869E-17
5.930000E+03	2.647447E-16	1.367709E-17
5.940000E+03	2.732489E-16	1.414733E-17
5.950000E+03	2.809826E-16	1.457894E-17
5.960000E+03	2.877795E-16	1.496334E-17
5.970000E+03	2.935260E-16	1.529461E-17
5.980000E+03	2.981594E-16	1.556944E-17
5.990000E+03	3.016802E-16	1.578655E-17
6.000000E+03	3.041451E-16	1.594778E-17
6.010000E+03	3.056463E-16	1.605717E-17
6.020000E+03	3.063177E-16	1.612011E-17
6.030000E+03	3.063247E-16	1.614415E-17
6.040000E+03	3.058386E-16	1.613778E-17
6.050000E+03	3.050406E-16	1.610925E-17
6.060000E+03	3.041086E-16	1.606726E-17
6.070000E+03	3.032115E-16	1.602063E-17
6.080000E+03	3.024876E-16	1.597582E-17
6.090000E+03	3.020580E-16	1.593899E-17
6.100000E+03	3.020205E-16	1.591565E-17
6.110000E+03	3.024507E-16	1.590943E-17
6.120000E+03	3.033891E-16	1.592262E-17
6.130000E+03	3.048738E-16	1.595781E-17
6.140000E+03	3.069102E-16	1.601485E-17
6.150000E+03	3.094920E-16	1.609340E-17
6.160000E+03	3.126021E-16	1.619300E-17
6.170000E+03	3.162141E-16	1.631184E-17
6.180000E+03	3.202997E-16	1.644859E-17
6.190000E+03	3.248167E-16	1.660172E-17
6.200000E+03	3.297433E-16	1.676983E-17
6.210000E+03	3.350463E-16	1.695158E-17
6.220000E+03	3.406974E-16	1.714651E-17
6.230000E+03	3.466736E-16	1.735359E-17
6.240000E+03	3.529414E-16	1.757201E-17
6.250000E+03	3.594638E-16	1.780150E-17
6.260000E+03	3.662195E-16	1.804150E-17
6.270000E+03	3.731565E-16	1.829066E-17
6.280000E+03	3.802544E-16	1.854982E-17
6.290000E+03	3.874903E-16	1.881833E-17
6.300000E+03	3.948695E-16	1.909740E-17
6.310000E+03	4.024136E-16	1.938949E-17
6.320000E+03	4.101876E-16	1.969718E-17
6.330000E+03	4.182977E-16	2.002474E-17
6.340000E+03	4.268777E-16	2.037670E-17
6.350000E+03	4.360907E-16	2.075486E-17
6.360000E+03	4.461420E-16	2.116094E-17
6.370000E+03	4.572449E-16	2.159484E-17
6.380000E+03	4.696487E-16	2.205321E-17
6.390000E+03	4.835938E-16	2.253022E-17
6.400000E+03	4.993498E-16	2.302072E-17
6.410000E+03	5.172179E-16	2.351872E-17
6.420000E+03	5.375068E-16	2.401941E-17
6.430000E+03	5.605716E-16	2.452239E-17
6.440000E+03	5.868562E-16	2.503245E-17
6.450000E+03	6.168490E-16	2.556118E-17
6.460000E+03	6.511141E-16	2.612913E-17
6.470000E+03	6.902811E-16	2.676398E-17
6.480000E+03	7.350212E-16	2.750654E-17
6.490000E+03	7.860034E-16	2.841116E-17
6.500000E+03	8.437728E-16	2.953842E-17
6.510000E+03	9.086567E-16	3.096152E-17
6.520000E+03	9.805884E-16	3.275849E-17
6.530000E+03	1.058790E-15	3.498042E-17
6.540000E+03	1.141385E-15	3.762564E-17
6.550000E+03	1.225284E-15	4.061832E-17
6.560000E+03	1.306298E-15	4.379614E-17
6.570000E+03	1.379401E-15	4.693774E-17
6.580000E+03	1.439462E-15	4.980131E-17
6.590000E+03	1.481993E-15	5.215096E-17
6.600000E+03	1.503786E-15	5.380414E-17
6.610000E+03	1.503247E-15	5.465149E-17
6.620000E+03	1.480646E-15	5.465419E-17
6.630000E+03	1.438017E-15	5.385628E-17
6.640000E+03	1.378525E-15	5.236006E-17
6.650000E+03	1.306099E-15	5.029630E-17
6.660000E+03	1.224916E-15	4.781615E-17
6.670000E+03	1.138962E-15	4.507269E-17
6.680000E+03	1.051702E-15	4.219597E-17
6.690000E+03	9.659405E-16	3.929692E-17
6.700000E+03	8.838645E-16	3.646803E-17
6.710000E+03	8.069137E-16	3.376929E-17
6.720000E+03	7.360044E-16	3.124401E-17
6.730000E+03	6.715725E-16	2.891935E-17
6.740000E+03	6.137166E-16	2.680603E-17
6.750000E+03	5.622722E-16	2.490593E-17
6.760000E+03	5.169037E-16	2.321509E-17
6.770000E+03	4.771626E-16	2.172201E-17
6.780000E+03	4.425497E-16	2.041339E-17
6.790000E+03	4.125530E-16	1.927544E-17
6.800000E+03	3.866674E-16	1.829192E-17
6.810000E+03	3.644179E-16	1.744766E-17
6.820000E+03	3.453723E-16	1.672913E-17
6.830000E+03	3.291424E-16	1.612255E-17
6.840000E+03	3.153894E-16	1.561621E-17
6.850000E+03	3.038082E-16	1.519975E-17
6.860000E+03	2.941379E-16	1.486323E-17
6.870000E+03	2.861527E-16	1.459827E-17
6.880000E+03	2.796624E-16	1.439826E-17
6.890000E+03	2.745005E-16	1.425640E-17
6.900000E+03	2.705151E-16	1.416668E-17
6.910000E+03	2.675899E-16	1.412504E-17
6.920000E+03	2.656166E-16	1.412676E-17
6.930000E+03	2.644956E-16	1.416771E-17
6.940000E+03	2.641471E-16	1.424499E-17
6.950000E+03	2.644937E-16	1.435488E-17
6.960000E+03	2.654741E-16	1.449472E-17
6.970000E+03	2.670302E-16	1.466225E-17
6.980000E+03	2.691060E-16	1.485451E-17
6.990000E+03	2.716586E-16	1.506947E-17
7.000000E+03	2.746445E-16	1.530533E-17
7.010000E+03	2.780188E-16	1.555937E-17
7.020000E+03	2.817480E-16	1.582972E-17
7.030000E+03	2.857976E-16	1.611473E-17
7.040000E+03	2.901328E-16	1.641194E-17
7.050000E+03	2.947371E-16	1.672017E-17
7.060000E+03	2.995801E-16	1.703782E-17
7.070000E+03	3.046520E-16	1.736371E-17
7.080000E+03	3.099445E-16	1.769710E-17
7.090000E+03	3.154568E-16	1.803808E-17
7.100000E+03	3.211915E-16	1.838624E-17
7.110000E+03	3.271739E-16	1.874287E-17
7.120000E+03	3.334140E-16	1.910877E-17
7.130000E+03	3.399419E-16	1.948504E-17
7.140000E+03	3.467846E-16	1.987293E-17
7.150000E+03	3.539679E-16	2.027398E-17
7.160000E+03	3.615124E-16	2.068847E-17
7.170000E+03	3.694334E-16	2.111671E-17
7.180000E+03	3.777377E-16	2.155892E-17
7.190000E+03	3.864208E-16	2.201372E-17
7.200000E+03	3.954653E-16	2.247939E-17
7.210000E+03	4.048304E-16	2.295334E-17
7.220000E+03	4.144730E-16	2.343185E-17
7.230000E+03	4.243073E-16	2.390922E-17
7.240000E+03	4.342191E-16	2.437871E-17
7.250000E+03	4.440827E-16	2.483183E-17
7.260000E+03	4.537106E-16	2.525728E-17
7.270000E+03	4.629105E-16	2.564430E-17
7.280000E+03	4.714225E-16	2.597753E-17
7.290000E+03	4.789906E-16	2.624288E-17
7.300000E+03	4.853149E-16	2.642501E-17
7.310000E+03	4.901203E-16	2.650926E-17
7.320000E+03	4.931509E-16	2.648340E-17
7.330000E+03	4.941712E-16	2.633760E-17
7.340000E+03	4.930476E-16	2.606674E-17
7.350000E+03	4.896859E-16	2.566915E-17
7.360000E+03	4.840968E-16	2.514982E-17
7.370000E+03	4.763760E-16	2.451709E-17
7.380000E+03	4.666665E-16	2.378268E-17
7.390000E+03	4.552008E-16	2.296353E-17
7.400000E+03	4.422257E-16	2.207548E-17
7.410000E+03	4.280393E-16	2.113741E-17
7.420000E+03	4.129487E-16	2.016858E-17
7.430000E+03	3.972369E-16	1.918487E-17
7.440000E+03	3.811962E-16	1.820261E-17
7.450000E+03	3.650978E-16	1.723675E-17
7.460000E+03	3.491692E-16	1.629777E-17
7.470000E+03	3.336370E-16	1.539627E-17
7.480000E+03	3.186793E-16	1.454064E-17
7.490000E+03	3.044705E-16	1.373748E-17
7.500000E+03	2.911585E-16	1.299285E-17
7.510000E+03	2.788485E-16	1.231158E-17
7.520000E+03	2.676370E-16	1.169697E-17
7.530000E+03	2.575963E-16	1.115202E-17
7.540000E+03	2.487627E-16	1.067838E-17
7.550000E+03	2.411719E-16	1.027598E-17
7.560000E+03	2.348304E-16	9.943949E-18
7.570000E+03	2.297539E-16	9.682114E-18
7.580000E+03	2.259580E-16	9.488908E-18
7.590000E+03	2.234463E-16	9.363057E-18
7.600000E+03	2.222348E-16	9.304806E-18
7.610000E+03	2.223135E-16	9.312727E-18
7.620000E+03	2.236749E-16	9.386764E-18
7.630000E+03	2.262903E-16	9.527313E-18
7.640000E+03	2.300840E-16	9.732294E-18
7.650000E+03	2.349662E-16	1.000012E-17
7.660000E+03	2.408023E-16	1.032818E-17
7.670000E+03	2.474424E-16	1.071179E-17
7.680000E+03	2.546899E-16	1.114427E-17
7.690000E+03	2.623459E-16	1.161853E-17
7.700000E+03	2.702074E-16	1.212464E-17
7.710000E+03	2.780547E-16	1.265121E-17
7.720000E+03	2.856990E-16	1.318843E-17
7.730000E+03	2.929566E-16	1.372552E-17
7.740000E+03	2.996904E-16	1.425430E-17
7.750000E+03	3.057661E-16	1.476725E-17
7.760000E+03	3.111020E-16	1.525794E-17
