#wls	flux	fluxerr
1.600000E+03	1.251971E-17	1.474416E-17
1.640000E+03	1.288202E-17	1.509061E-17
1.680000E+03	1.325618E-17	1.544625E-17
1.720000E+03	1.363275E-17	1.580004E-17
1.760000E+03	1.401834E-17	1.615970E-17
1.800000E+03	1.440703E-17	1.651834E-17
1.840000E+03	1.479668E-17	1.687349E-17
1.880000E+03	1.518924E-17	1.722734E-17
1.920000E+03	1.557779E-17	1.757191E-17
1.960000E+03	1.596383E-17	1.790877E-17
2.000000E+03	1.633987E-17	1.822928E-17
2.040000E+03	1.670704E-17	1.853446E-17
2.080000E+03	1.706192E-17	1.882010E-17
2.120000E+03	1.739643E-17	1.907688E-17
2.160000E+03	1.771147E-17	1.930529E-17
2.200000E+03	1.800350E-17	1.950086E-17
2.240000E+03	1.826908E-17	1.965918E-17
2.280000E+03	1.850498E-17	1.977606E-17
2.320000E+03	1.870833E-17	1.984764E-17
2.360000E+03	1.887668E-17	1.987057E-17
2.400000E+03	1.901253E-17	1.984668E-17
2.440000E+03	1.911014E-17	1.976917E-17
2.480000E+03	1.916901E-17	1.963683E-17
2.520000E+03	1.919367E-17	1.945368E-17
2.560000E+03	1.918508E-17	1.922004E-17
2.600000E+03	1.914107E-17	1.893320E-17
2.640000E+03	1.907254E-17	1.860354E-17
2.680000E+03	1.897513E-17	1.822632E-17
2.720000E+03	1.886111E-17	1.781303E-17
2.760000E+03	1.873178E-17	1.736442E-17
2.800000E+03	1.859669E-17	1.688885E-17
2.840000E+03	1.846222E-17	1.639136E-17
2.880000E+03	1.833202E-17	1.587431E-17
2.920000E+03	1.822054E-17	1.534904E-17
2.960000E+03	1.812946E-17	1.481517E-17
3.000000E+03	1.807741E-17	1.428569E-17
3.010000E+03	1.807023E-17	1.415343E-17
3.020000E+03	1.806510E-17	1.402089E-17
3.030000E+03	1.806527E-17	1.389054E-17
3.040000E+03	1.806478E-17	1.375772E-17
3.050000E+03	1.807296E-17	1.362949E-17
3.060000E+03	1.808089E-17	1.349901E-17
3.070000E+03	1.809480E-17	1.337088E-17
3.080000E+03	1.811188E-17	1.324294E-17
3.090000E+03	1.813534E-17	1.311741E-17
3.100000E+03	1.815943E-17	1.299008E-17
3.110000E+03	1.819328E-17	1.286737E-17
3.120000E+03	1.822825E-17	1.274304E-17
3.130000E+03	1.827050E-17	1.262131E-17
3.140000E+03	1.831733E-17	1.250019E-17
3.150000E+03	1.836904E-17	1.237979E-17
3.160000E+03	1.842882E-17	1.226212E-17
3.170000E+03	1.849407E-17	1.214529E-17
3.180000E+03	1.856799E-17	1.203126E-17
3.190000E+03	1.864804E-17	1.191822E-17
3.200000E+03	1.873459E-17	1.180626E-17
3.210000E+03	1.882802E-17	1.169549E-17
3.220000E+03	1.893161E-17	1.158776E-17
3.230000E+03	1.904292E-17	1.148139E-17
3.240000E+03	1.916528E-17	1.137818E-17
3.250000E+03	1.929633E-17	1.127651E-17
3.260000E+03	1.943658E-17	1.117649E-17
3.270000E+03	1.958949E-17	1.107990E-17
3.280000E+03	1.975278E-17	1.098519E-17
3.290000E+03	1.992999E-17	1.089409E-17
3.300000E+03	2.011894E-17	1.080512E-17
3.310000E+03	2.032037E-17	1.071847E-17
3.320000E+03	2.053802E-17	1.063582E-17
3.330000E+03	2.076984E-17	1.055580E-17
3.340000E+03	2.101675E-17	1.047862E-17
3.350000E+03	2.128275E-17	1.040597E-17
3.360000E+03	2.156896E-17	1.033801E-17
3.370000E+03	2.187057E-17	1.027211E-17
3.380000E+03	2.219793E-17	1.021282E-17
3.390000E+03	2.254330E-17	1.015617E-17
3.400000E+03	2.291431E-17	1.010529E-17
3.410000E+03	2.331262E-17	1.006048E-17
3.420000E+03	2.373690E-17	1.002074E-17
3.430000E+03	2.418899E-17	9.986483E-18
3.440000E+03	2.467417E-17	9.959490E-18
3.450000E+03	2.519143E-17	9.938902E-18
3.460000E+03	2.574310E-17	9.925247E-18
3.470000E+03	2.633513E-17	9.920382E-18
3.480000E+03	2.697041E-17	9.924893E-18
3.490000E+03	2.764849E-17	9.938138E-18
3.500000E+03	2.837251E-17	9.960814E-18
3.510000E+03	2.914953E-17	9.994925E-18
3.520000E+03	2.998335E-17	1.004123E-17
3.530000E+03	3.087421E-17	1.009928E-17
3.540000E+03	3.182614E-17	1.016989E-17
3.550000E+03	3.284747E-17	1.025515E-17
3.560000E+03	3.393883E-17	1.035462E-17
3.570000E+03	3.510911E-17	1.047033E-17
3.580000E+03	3.635904E-17	1.060169E-17
3.590000E+03	3.769790E-17	1.075050E-17
3.600000E+03	3.912613E-17	1.091576E-17
3.610000E+03	4.065305E-17	1.109877E-17
3.620000E+03	4.227837E-17	1.129789E-17
3.630000E+03	4.400608E-17	1.151243E-17
3.640000E+03	4.585046E-17	1.174413E-17
3.650000E+03	4.779939E-17	1.198764E-17
3.660000E+03	4.987238E-17	1.224551E-17
3.670000E+03	5.205535E-17	1.251169E-17
3.680000E+03	5.436191E-17	1.278682E-17
3.690000E+03	5.679409E-17	1.306853E-17
3.700000E+03	5.934664E-17	1.335269E-17
3.710000E+03	6.202633E-17	1.363792E-17
3.720000E+03	6.482582E-17	1.391969E-17
3.730000E+03	6.775057E-17	1.419636E-17
3.740000E+03	7.079844E-17	1.446477E-17
3.750000E+03	7.395020E-17	1.471859E-17
3.760000E+03	7.722450E-17	1.495955E-17
3.770000E+03	8.059941E-17	1.518166E-17
3.780000E+03	8.406706E-17	1.538247E-17
3.790000E+03	8.762746E-17	1.556164E-17
3.800000E+03	9.127107E-17	1.571783E-17
3.810000E+03	9.497724E-17	1.584880E-17
3.820000E+03	9.873304E-17	1.595471E-17
3.830000E+03	1.025350E-16	1.603819E-17
3.840000E+03	1.063694E-16	1.610091E-17
3.850000E+03	1.102109E-16	1.614343E-17
3.860000E+03	1.140557E-16	1.616980E-17
3.870000E+03	1.178783E-16	1.618086E-17
3.880000E+03	1.216770E-16	1.618047E-17
3.890000E+03	1.254283E-16	1.616892E-17
3.900000E+03	1.291345E-16	1.614922E-17
3.910000E+03	1.327750E-16	1.612077E-17
3.920000E+03	1.363563E-16	1.608567E-17
3.930000E+03	1.398742E-16	1.604411E-17
3.940000E+03	1.433117E-16	1.599452E-17
3.950000E+03	1.466653E-16	1.593680E-17
3.960000E+03	1.499461E-16	1.587233E-17
3.970000E+03	1.531519E-16	1.580109E-17
3.980000E+03	1.562664E-16	1.572174E-17
3.990000E+03	1.593025E-16	1.563596E-17
4.000000E+03	1.622455E-16	1.554251E-17
4.010000E+03	1.651116E-16	1.544278E-17
4.020000E+03	1.678889E-16	1.533513E-17
4.030000E+03	1.705965E-16	1.522043E-17
4.040000E+03	1.732234E-16	1.509659E-17
4.050000E+03	1.757869E-16	1.496419E-17
4.060000E+03	1.782698E-16	1.482130E-17
4.070000E+03	1.806794E-16	1.466896E-17
4.080000E+03	1.830004E-16	1.450747E-17
4.090000E+03	1.851932E-16	1.433654E-17
4.100000E+03	1.872269E-16	1.415790E-17
4.110000E+03	1.890815E-16	1.397519E-17
4.120000E+03	1.907044E-16	1.379019E-17
4.130000E+03	1.920786E-16	1.360732E-17
4.140000E+03	1.931797E-16	1.342968E-17
4.150000E+03	1.939807E-16	1.325877E-17
4.160000E+03	1.945025E-16	1.309736E-17
4.170000E+03	1.947509E-16	1.294494E-17
4.180000E+03	1.947634E-16	1.280099E-17
4.190000E+03	1.946057E-16	1.266491E-17
4.200000E+03	1.943214E-16	1.253312E-17
4.210000E+03	1.939898E-16	1.240332E-17
4.220000E+03	1.936756E-16	1.227145E-17
4.230000E+03	1.934263E-16	1.213187E-17
4.240000E+03	1.932993E-16	1.197926E-17
4.250000E+03	1.933600E-16	1.180862E-17
4.260000E+03	1.936350E-16	1.161271E-17
4.270000E+03	1.941706E-16	1.138607E-17
4.280000E+03	1.949725E-16	1.112175E-17
4.290000E+03	1.960637E-16	1.081523E-17
4.300000E+03	1.974247E-16	1.046161E-17
4.310000E+03	1.990362E-16	1.005882E-17
4.320000E+03	2.008791E-16	9.608511E-18
4.330000E+03	2.028914E-16	9.115470E-18
4.340000E+03	2.050279E-16	8.592709E-18
4.350000E+03	2.072053E-16	8.061909E-18
4.360000E+03	2.093657E-16	7.559418E-18
4.370000E+03	2.114227E-16	7.135592E-18
4.380000E+03	2.133138E-16	6.851330E-18
4.390000E+03	2.150140E-16	6.757633E-18
4.400000E+03	2.165094E-16	6.864899E-18
4.410000E+03	2.178433E-16	7.140040E-18
4.420000E+03	2.191000E-16	7.531711E-18
4.430000E+03	2.203487E-16	7.991797E-18
4.440000E+03	2.216974E-16	8.486775E-18
4.450000E+03	2.232301E-16	8.995807E-18
4.460000E+03	2.250461E-16	9.508768E-18
4.470000E+03	2.272383E-16	1.002136E-17
4.480000E+03	2.298998E-16	1.053180E-17
4.490000E+03	2.330723E-16	1.103616E-17
4.500000E+03	2.367879E-16	1.152964E-17
4.510000E+03	2.410676E-16	1.200725E-17
4.520000E+03	2.458747E-16	1.246239E-17
4.530000E+03	2.511585E-16	1.288984E-17
4.540000E+03	2.568534E-16	1.328640E-17
4.550000E+03	2.628123E-16	1.364775E-17
4.560000E+03	2.689192E-16	1.397427E-17
4.570000E+03	2.749937E-16	1.426567E-17
4.580000E+03	2.807938E-16	1.452058E-17
4.590000E+03	2.861299E-16	1.474190E-17
4.600000E+03	2.907439E-16	1.492971E-17
4.610000E+03	2.944670E-16	1.508821E-17
4.620000E+03	2.971320E-16	1.522003E-17
4.630000E+03	2.985877E-16	1.532557E-17
4.640000E+03	2.988160E-16	1.540816E-17
4.650000E+03	2.977905E-16	1.546709E-17
4.660000E+03	2.956134E-16	1.550538E-17
4.670000E+03	2.923831E-16	1.552360E-17
4.680000E+03	2.882552E-16	1.552389E-17
4.690000E+03	2.834301E-16	1.550987E-17
4.700000E+03	2.780773E-16	1.548297E-17
4.710000E+03	2.724250E-16	1.544803E-17
4.720000E+03	2.666995E-16	1.541070E-17
4.730000E+03	2.610895E-16	1.537565E-17
4.740000E+03	2.557733E-16	1.534815E-17
4.750000E+03	2.509566E-16	1.533624E-17
4.760000E+03	2.467815E-16	1.534504E-17
4.770000E+03	2.433813E-16	1.537966E-17
4.780000E+03	2.408478E-16	1.544301E-17
4.790000E+03	2.392807E-16	1.553871E-17
4.800000E+03	2.387050E-16	1.566580E-17
4.810000E+03	2.391221E-16	1.582198E-17
4.820000E+03	2.404944E-16	1.600282E-17
4.830000E+03	2.427468E-16	1.620210E-17
4.840000E+03	2.457692E-16	1.641229E-17
4.850000E+03	2.494084E-16	1.662428E-17
4.860000E+03	2.535267E-16	1.683156E-17
4.870000E+03	2.579340E-16	1.702559E-17
4.880000E+03	2.624362E-16	1.719887E-17
4.890000E+03	2.668736E-16	1.734707E-17
4.900000E+03	2.711042E-16	1.746728E-17
4.910000E+03	2.749688E-16	1.755535E-17
4.920000E+03	2.783774E-16	1.761120E-17
4.930000E+03	2.812528E-16	1.763526E-17
4.940000E+03	2.835435E-16	1.762927E-17
4.950000E+03	2.852223E-16	1.759633E-17
4.960000E+03	2.862699E-16	1.753975E-17
4.970000E+03	2.867150E-16	1.746522E-17
4.980000E+03	2.865856E-16	1.737748E-17
4.990000E+03	2.859172E-16	1.728038E-17
5.000000E+03	2.847489E-16	1.717639E-17
5.010000E+03	2.831232E-16	1.706674E-17
5.020000E+03	2.810754E-16	1.695115E-17
5.030000E+03	2.786787E-16	1.683079E-17
5.040000E+03	2.760075E-16	1.670639E-17
5.050000E+03	2.731415E-16	1.657862E-17
5.060000E+03	2.702179E-16	1.645138E-17
5.070000E+03	2.673339E-16	1.632619E-17
5.080000E+03	2.646175E-16	1.620660E-17
5.090000E+03	2.622157E-16	1.609767E-17
5.100000E+03	2.602120E-16	1.600105E-17
5.110000E+03	2.586936E-16	1.591912E-17
5.120000E+03	2.577432E-16	1.585458E-17
5.130000E+03	2.573647E-16	1.580599E-17
5.140000E+03	2.575643E-16	1.577293E-17
5.150000E+03	2.582912E-16	1.575246E-17
5.160000E+03	2.594882E-16	1.574238E-17
5.170000E+03	2.610619E-16	1.573939E-17
5.180000E+03	2.628908E-16	1.573951E-17
5.190000E+03	2.648699E-16	1.574048E-17
5.200000E+03	2.668748E-16	1.573923E-17
5.210000E+03	2.688298E-16	1.573541E-17
5.220000E+03	2.706183E-16	1.572573E-17
5.230000E+03	2.722033E-16	1.571072E-17
5.240000E+03	2.735437E-16	1.568952E-17
5.250000E+03	2.746036E-16	1.566037E-17
5.260000E+03	2.753836E-16	1.562244E-17
5.270000E+03	2.758810E-16	1.557350E-17
5.280000E+03	2.760868E-16	1.550991E-17
5.290000E+03	2.760073E-16	1.542798E-17
5.300000E+03	2.756621E-16	1.532411E-17
5.310000E+03	2.750480E-16	1.519319E-17
5.320000E+03	2.741864E-16	1.503174E-17
5.330000E+03	2.730766E-16	1.483563E-17
5.340000E+03	2.717453E-16	1.460298E-17
5.350000E+03	2.702130E-16	1.433235E-17
5.360000E+03	2.684855E-16	1.402227E-17
5.370000E+03	2.666332E-16	1.367557E-17
5.380000E+03	2.646656E-16	1.329306E-17
5.390000E+03	2.626532E-16	1.287997E-17
5.400000E+03	2.606456E-16	1.244204E-17
5.410000E+03	2.586792E-16	1.198624E-17
5.420000E+03	2.567968E-16	1.152202E-17
5.430000E+03	2.550454E-16	1.106154E-17
5.440000E+03	2.534449E-16	1.061872E-17
5.450000E+03	2.520199E-16	1.021114E-17
5.460000E+03	2.508001E-16	9.860315E-18
5.470000E+03	2.497892E-16	9.589923E-18
5.480000E+03	2.490050E-16	9.424865E-18
5.490000E+03	2.484343E-16	9.383789E-18
5.500000E+03	2.480554E-16	9.470850E-18
5.510000E+03	2.478328E-16	9.671018E-18
5.520000E+03	2.476933E-16	9.955661E-18
5.530000E+03	2.475624E-16	1.029252E-17
5.540000E+03	2.473692E-16	1.065085E-17
5.550000E+03	2.470213E-16	1.100292E-17
5.560000E+03	2.464392E-16	1.132663E-17
5.570000E+03	2.455605E-16	1.160626E-17
5.580000E+03	2.443142E-16	1.183141E-17
5.590000E+03	2.426521E-16	1.199821E-17
5.600000E+03	2.405407E-16	1.210792E-17
5.610000E+03	2.379710E-16	1.216567E-17
5.620000E+03	2.349303E-16	1.217711E-17
5.630000E+03	2.314297E-16	1.214814E-17
5.640000E+03	2.275006E-16	1.208440E-17
5.650000E+03	2.231574E-16	1.198939E-17
5.660000E+03	2.184561E-16	1.186789E-17
5.670000E+03	2.134403E-16	1.172354E-17
5.680000E+03	2.081431E-16	1.155912E-17
5.690000E+03	2.026357E-16	1.137931E-17
5.700000E+03	1.969726E-16	1.118762E-17
5.710000E+03	1.912255E-16	1.098825E-17
5.720000E+03	1.854839E-16	1.078599E-17
5.730000E+03	1.798267E-16	1.058471E-17
5.740000E+03	1.743711E-16	1.039031E-17
5.750000E+03	1.692209E-16	1.020792E-17
5.760000E+03	1.644904E-16	1.004348E-17
5.770000E+03	1.602980E-16	9.903592E-18
5.780000E+03	1.567379E-16	9.793802E-18
5.790000E+03	1.539172E-16	9.720889E-18
5.800000E+03	1.519100E-16	9.689926E-18
5.810000E+03	1.507780E-16	9.705376E-18
5.820000E+03	1.505675E-16	9.770811E-18
5.830000E+03	1.512845E-16	9.887193E-18
5.840000E+03	1.529310E-16	1.005516E-17
5.850000E+03	1.554649E-16	1.027248E-17
5.860000E+03	1.588216E-16	1.053555E-17
5.870000E+03	1.629072E-16	1.083904E-17
5.880000E+03	1.676003E-16	1.117600E-17
5.890000E+03	1.727617E-16	1.153845E-17
5.900000E+03	1.782213E-16	1.191637E-17
5.910000E+03	1.837977E-16	1.229899E-17
5.920000E+03	1.893282E-16	1.267673E-17
5.930000E+03	1.946409E-16	1.303919E-17
5.940000E+03	1.995968E-16	1.337801E-17
5.950000E+03	2.040625E-16	1.368495E-17
5.960000E+03	2.079662E-16	1.395555E-17
5.970000E+03	2.112417E-16	1.418543E-17
5.980000E+03	2.138872E-16	1.437423E-17
5.990000E+03	2.159107E-16	1.452197E-17
6.000000E+03	2.173566E-16	1.463097E-17
6.010000E+03	2.182933E-16	1.470507E-17
6.020000E+03	2.188162E-16	1.474996E-17
6.030000E+03	2.190102E-16	1.477070E-17
6.040000E+03	2.189990E-16	1.477509E-17
6.050000E+03	2.188765E-16	1.476906E-17
6.060000E+03	2.187637E-16	1.476044E-17
6.070000E+03	2.187490E-16	1.475498E-17
6.080000E+03	2.189158E-16	1.475812E-17
6.090000E+03	2.193404E-16	1.477486E-17
6.100000E+03	2.200610E-16	1.480765E-17
6.110000E+03	2.211246E-16	1.485955E-17
6.120000E+03	2.225653E-16	1.493284E-17
6.130000E+03	2.243916E-16	1.502816E-17
6.140000E+03	2.266037E-16	1.514568E-17
6.150000E+03	2.292198E-16	1.528692E-17
6.160000E+03	2.322394E-16	1.545220E-17
6.170000E+03	2.356441E-16	1.564075E-17
6.180000E+03	2.394404E-16	1.585349E-17
6.190000E+03	2.436375E-16	1.609161E-17
6.200000E+03	2.482219E-16	1.635485E-17
6.210000E+03	2.532166E-16	1.664540E-17
6.220000E+03	2.586198E-16	1.696384E-17
6.230000E+03	2.644377E-16	1.731119E-17
6.240000E+03	2.706733E-16	1.768815E-17
6.250000E+03	2.773351E-16	1.809561E-17
6.260000E+03	2.843980E-16	1.853201E-17
6.270000E+03	2.918727E-16	1.899784E-17
6.280000E+03	2.997315E-16	1.949082E-17
6.290000E+03	3.079939E-16	2.001133E-17
6.300000E+03	3.166618E-16	2.055810E-17
6.310000E+03	3.257787E-16	2.113185E-17
6.320000E+03	3.353801E-16	2.173180E-17
6.330000E+03	3.455759E-16	2.236075E-17
6.340000E+03	3.564582E-16	2.301893E-17
6.350000E+03	3.681951E-16	2.370982E-17
6.360000E+03	3.809437E-16	2.443453E-17
6.370000E+03	3.948940E-16	2.519479E-17
6.380000E+03	4.102669E-16	2.599298E-17
6.390000E+03	4.272686E-16	2.682969E-17
6.400000E+03	4.461113E-16	2.770568E-17
6.410000E+03	4.670582E-16	2.862547E-17
6.420000E+03	4.903308E-16	2.959243E-17
6.430000E+03	5.161851E-16	3.061468E-17
6.440000E+03	5.448216E-16	3.170069E-17
6.450000E+03	5.764991E-16	3.286711E-17
6.460000E+03	6.113896E-16	3.413088E-17
6.470000E+03	6.496178E-16	3.551201E-17
6.480000E+03	6.912173E-16	3.703115E-17
6.490000E+03	7.359694E-16	3.870013E-17
6.500000E+03	7.834918E-16	4.052589E-17
6.510000E+03	8.330264E-16	4.249818E-17
6.520000E+03	8.833649E-16	4.458468E-17
6.530000E+03	9.329645E-16	4.673466E-17
6.540000E+03	9.798965E-16	4.887362E-17
6.550000E+03	1.021877E-15	5.090234E-17
6.560000E+03	1.056587E-15	5.271068E-17
6.570000E+03	1.081735E-15	5.417983E-17
6.580000E+03	1.095589E-15	5.520808E-17
6.590000E+03	1.096992E-15	5.571263E-17
6.600000E+03	1.085514E-15	5.563973E-17
6.610000E+03	1.061715E-15	5.498216E-17
6.620000E+03	1.026802E-15	5.376592E-17
6.630000E+03	9.826052E-16	5.205308E-17
6.640000E+03	9.313371E-16	4.993233E-17
6.650000E+03	8.752554E-16	4.750259E-17
6.660000E+03	8.165656E-16	4.486810E-17
6.670000E+03	7.572594E-16	4.212907E-17
6.680000E+03	6.989423E-16	3.937067E-17
6.690000E+03	6.428847E-16	3.666454E-17
6.700000E+03	5.899983E-16	3.406594E-17
6.710000E+03	5.408898E-16	3.161540E-17
6.720000E+03	4.958710E-16	2.933818E-17
6.730000E+03	4.550077E-16	2.724608E-17
6.740000E+03	4.182746E-16	2.534578E-17
6.750000E+03	3.854967E-16	2.363498E-17
6.760000E+03	3.564022E-16	2.210507E-17
6.770000E+03	3.307425E-16	2.074821E-17
6.780000E+03	3.081766E-16	1.955008E-17
6.790000E+03	2.884221E-16	1.849920E-17
6.800000E+03	2.711736E-16	1.758174E-17
6.810000E+03	2.561643E-16	1.678556E-17
6.820000E+03	2.431318E-16	1.609805E-17
6.830000E+03	2.318567E-16	1.550871E-17
6.840000E+03	2.221279E-16	1.500699E-17
6.850000E+03	2.137684E-16	1.458410E-17
6.860000E+03	2.066319E-16	1.423284E-17
6.870000E+03	2.005779E-16	1.394598E-17
6.880000E+03	1.954997E-16	1.371821E-17
6.890000E+03	1.912926E-16	1.354398E-17
6.900000E+03	1.878728E-16	1.341887E-17
6.910000E+03	1.851742E-16	1.333945E-17
6.920000E+03	1.831331E-16	1.330222E-17
6.930000E+03	1.816868E-16	1.330358E-17
6.940000E+03	1.807857E-16	1.334076E-17
6.950000E+03	1.803913E-16	1.341172E-17
6.960000E+03	1.804635E-16	1.351425E-17
6.970000E+03	1.809590E-16	1.364592E-17
6.980000E+03	1.818438E-16	1.380496E-17
6.990000E+03	1.830929E-16	1.399028E-17
7.000000E+03	1.846766E-16	1.420039E-17
7.010000E+03	1.865599E-16	1.443331E-17
7.020000E+03	1.887159E-16	1.468759E-17
7.030000E+03	1.911258E-16	1.496229E-17
7.040000E+03	1.937661E-16	1.525602E-17
7.050000E+03	1.966087E-16	1.556685E-17
7.060000E+03	1.996420E-16	1.589413E-17
7.070000E+03	2.028437E-16	1.623624E-17
7.080000E+03	2.062099E-16	1.659301E-17
7.090000E+03	2.097260E-16	1.696339E-17
7.100000E+03	2.133963E-16	1.734784E-17
7.110000E+03	2.172137E-16	1.774591E-17
7.120000E+03	2.211974E-16	1.815928E-17
7.130000E+03	2.253284E-16	1.858647E-17
7.140000E+03	2.296278E-16	1.902926E-17
7.150000E+03	2.340998E-16	1.948801E-17
7.160000E+03	2.387462E-16	1.996275E-17
7.170000E+03	2.435556E-16	2.045243E-17
7.180000E+03	2.485207E-16	2.095618E-17
7.190000E+03	2.536463E-16	2.147414E-17
7.200000E+03	2.588840E-16	2.200187E-17
7.210000E+03	2.642325E-16	2.253887E-17
7.220000E+03	2.696325E-16	2.307964E-17
7.230000E+03	2.750414E-16	2.362009E-17
7.240000E+03	2.803833E-16	2.415326E-17
7.250000E+03	2.855883E-16	2.467268E-17
7.260000E+03	2.905621E-16	2.516981E-17
7.270000E+03	2.951861E-16	2.563401E-17
7.280000E+03	2.993523E-16	2.605555E-17
7.290000E+03	3.029356E-16	2.642326E-17
7.300000E+03	3.057993E-16	2.672493E-17
7.310000E+03	3.078368E-16	2.695096E-17
7.320000E+03	3.089336E-16	2.709109E-17
7.330000E+03	3.090327E-16	2.714007E-17
7.340000E+03	3.080596E-16	2.709108E-17
7.350000E+03	3.059956E-16	2.694222E-17
7.360000E+03	3.028789E-16	2.669663E-17
7.370000E+03	2.987339E-16	2.635624E-17
7.380000E+03	2.936374E-16	2.592774E-17
7.390000E+03	2.877129E-16	2.542196E-17
7.400000E+03	2.810568E-16	2.484754E-17
7.410000E+03	2.738116E-16	2.421720E-17
7.420000E+03	2.661038E-16	2.354242E-17
7.430000E+03	2.580818E-16	2.283660E-17
7.440000E+03	2.498788E-16	2.211191E-17
7.450000E+03	2.416206E-16	2.137980E-17
7.460000E+03	2.334136E-16	2.065001E-17
7.470000E+03	2.253713E-16	1.993284E-17
7.480000E+03	2.175853E-16	1.923662E-17
7.490000E+03	2.101347E-16	1.856849E-17
7.500000E+03	2.030787E-16	1.793374E-17
7.510000E+03	1.964810E-16	1.733803E-17
7.520000E+03	1.903856E-16	1.678518E-17
7.530000E+03	1.848191E-16	1.627741E-17
7.540000E+03	1.798208E-16	1.581800E-17
7.550000E+03	1.753924E-16	1.540683E-17
7.560000E+03	1.715503E-16	1.504498E-17
7.570000E+03	1.682908E-16	1.473171E-17
7.580000E+03	1.656187E-16	1.446693E-17
7.590000E+03	1.635270E-16	1.424948E-17
7.600000E+03	1.620048E-16	1.407781E-17
7.610000E+03	1.610361E-16	1.394997E-17
7.620000E+03	1.605938E-16	1.386309E-17
7.630000E+03	1.606580E-16	1.381499E-17
7.640000E+03	1.611953E-16	1.380251E-17
7.650000E+03	1.621657E-16	1.382193E-17
7.660000E+03	1.635144E-16	1.386844E-17
7.670000E+03	1.651990E-16	1.393825E-17
7.680000E+03	1.671439E-16	1.402482E-17
7.690000E+03	1.692884E-16	1.412284E-17
7.700000E+03	1.715548E-16	1.422560E-17
7.710000E+03	1.738858E-16	1.432807E-17
7.720000E+03	1.761979E-16	1.442305E-17
7.730000E+03	1.784327E-16	1.450543E-17
7.740000E+03	1.805308E-16	1.457004E-17
7.750000E+03	1.824319E-16	1.461178E-17
7.760000E+03	1.841068E-16	1.462811E-17
