#wls	flux	fluxerr
1.600000E+03	8.217160E-18	9.998321E-18
1.640000E+03	8.401938E-18	1.018393E-17
1.680000E+03	8.586228E-18	1.036681E-17
1.720000E+03	8.775120E-18	1.055307E-17
1.760000E+03	8.961791E-18	1.073442E-17
1.800000E+03	9.148215E-18	1.091320E-17
1.840000E+03	9.330251E-18	1.108440E-17
1.880000E+03	9.512841E-18	1.125379E-17
1.920000E+03	9.691703E-18	1.141616E-17
1.960000E+03	9.862410E-18	1.156617E-17
2.000000E+03	1.002984E-17	1.170938E-17
2.040000E+03	1.018636E-17	1.183665E-17
2.080000E+03	1.033688E-17	1.195348E-17
2.120000E+03	1.047376E-17	1.205076E-17
2.160000E+03	1.060201E-17	1.213399E-17
2.200000E+03	1.071417E-17	1.219427E-17
2.240000E+03	1.081545E-17	1.223726E-17
2.280000E+03	1.090184E-17	1.225801E-17
2.320000E+03	1.097267E-17	1.225541E-17
2.360000E+03	1.103057E-17	1.223205E-17
2.400000E+03	1.106927E-17	1.218056E-17
2.440000E+03	1.109502E-17	1.210755E-17
2.480000E+03	1.110824E-17	1.201304E-17
2.520000E+03	1.110384E-17	1.189121E-17
2.560000E+03	1.109182E-17	1.175249E-17
2.600000E+03	1.106506E-17	1.158895E-17
2.640000E+03	1.103128E-17	1.140846E-17
2.680000E+03	1.099273E-17	1.121298E-17
2.720000E+03	1.094938E-17	1.100209E-17
2.760000E+03	1.090704E-17	1.078126E-17
2.800000E+03	1.086914E-17	1.055330E-17
2.840000E+03	1.083701E-17	1.031889E-17
2.880000E+03	1.081757E-17	1.008384E-17
2.920000E+03	1.081564E-17	9.851556E-18
2.960000E+03	1.083426E-17	9.623470E-18
3.000000E+03	1.088445E-17	9.407656E-18
3.010000E+03	1.090221E-17	9.355602E-18
3.020000E+03	1.092206E-17	9.304236E-18
3.030000E+03	1.094414E-17	9.253630E-18
3.040000E+03	1.097091E-17	9.205829E-18
3.050000E+03	1.099782E-17	9.156945E-18
3.060000E+03	1.102971E-17	9.110978E-18
3.070000E+03	1.106204E-17	9.064116E-18
3.080000E+03	1.109966E-17	9.020292E-18
3.090000E+03	1.114038E-17	8.977650E-18
3.100000E+03	1.118439E-17	8.936273E-18
3.110000E+03	1.123186E-17	8.896243E-18
3.120000E+03	1.128532E-17	8.859483E-18
3.130000E+03	1.134029E-17	8.822395E-18
3.140000E+03	1.140168E-17	8.788725E-18
3.150000E+03	1.146501E-17	8.754941E-18
3.160000E+03	1.153520E-17	8.724737E-18
3.170000E+03	1.161017E-17	8.696409E-18
3.180000E+03	1.169017E-17	8.670059E-18
3.190000E+03	1.177784E-17	8.647535E-18
3.200000E+03	1.186874E-17	8.625458E-18
3.210000E+03	1.196794E-17	8.607411E-18
3.220000E+03	1.207098E-17	8.590072E-18
3.230000E+03	1.218300E-17	8.576989E-18
3.240000E+03	1.230198E-17	8.566579E-18
3.250000E+03	1.242831E-17	8.558980E-18
3.260000E+03	1.256239E-17	8.554336E-18
3.270000E+03	1.270713E-17	8.554461E-18
3.280000E+03	1.285807E-17	8.556182E-18
3.290000E+03	1.302067E-17	8.562983E-18
3.300000E+03	1.319298E-17	8.573379E-18
3.310000E+03	1.337301E-17	8.585915E-18
3.320000E+03	1.356644E-17	8.604067E-18
3.330000E+03	1.377396E-17	8.628027E-18
3.340000E+03	1.399107E-17	8.654742E-18
3.350000E+03	1.422106E-17	8.686070E-18
3.360000E+03	1.446739E-17	8.723877E-18
3.370000E+03	1.472823E-17	8.766780E-18
3.380000E+03	1.500444E-17	8.815041E-18
3.390000E+03	1.529694E-17	8.868934E-18
3.400000E+03	1.560670E-17	8.928745E-18
3.410000E+03	1.593475E-17	8.994772E-18
3.420000E+03	1.628513E-17	9.068975E-18
3.430000E+03	1.665314E-17	9.148389E-18
3.440000E+03	1.704597E-17	9.236656E-18
3.450000E+03	1.746196E-17	9.332479E-18
3.460000E+03	1.790250E-17	9.436221E-18
3.470000E+03	1.836901E-17	9.548254E-18
3.480000E+03	1.886635E-17	9.670671E-18
3.490000E+03	1.938953E-17	9.800450E-18
3.500000E+03	1.994696E-17	9.941425E-18
3.510000E+03	2.053708E-17	1.009228E-17
3.520000E+03	2.116170E-17	1.025342E-17
3.530000E+03	2.182274E-17	1.042522E-17
3.540000E+03	2.252215E-17	1.060807E-17
3.550000E+03	2.326197E-17	1.080234E-17
3.560000E+03	2.404838E-17	1.101025E-17
3.570000E+03	2.487966E-17	1.123030E-17
3.580000E+03	2.575364E-17	1.146084E-17
3.590000E+03	2.668111E-17	1.170599E-17
3.600000E+03	2.766471E-17	1.196605E-17
3.610000E+03	2.869755E-17	1.223721E-17
3.620000E+03	2.978633E-17	1.252154E-17
3.630000E+03	3.093836E-17	1.282121E-17
3.640000E+03	3.215098E-17	1.313417E-17
3.650000E+03	3.342079E-17	1.345810E-17
3.660000E+03	3.476054E-17	1.379722E-17
3.670000E+03	3.617263E-17	1.415139E-17
3.680000E+03	3.764726E-17	1.451576E-17
3.690000E+03	3.919160E-17	1.489214E-17
3.700000E+03	4.081351E-17	1.528249E-17
3.710000E+03	4.250802E-17	1.568388E-17
3.720000E+03	4.427598E-17	1.609566E-17
3.730000E+03	4.611797E-17	1.651711E-17
3.740000E+03	4.803423E-17	1.694741E-17
3.750000E+03	5.002466E-17	1.738571E-17
3.760000E+03	5.209695E-17	1.783387E-17
3.770000E+03	5.424272E-17	1.828825E-17
3.780000E+03	5.645206E-17	1.874495E-17
3.790000E+03	5.874047E-17	1.920865E-17
3.800000E+03	6.109752E-17	1.967546E-17
3.810000E+03	6.353042E-17	2.014733E-17
3.820000E+03	6.601732E-17	2.061708E-17
3.830000E+03	6.857461E-17	2.108977E-17
3.840000E+03	7.117833E-17	2.155794E-17
3.850000E+03	7.384546E-17	2.202686E-17
3.860000E+03	7.656132E-17	2.249214E-17
3.870000E+03	7.932122E-17	2.295261E-17
3.880000E+03	8.213229E-17	2.341046E-17
3.890000E+03	8.496545E-17	2.385759E-17
3.900000E+03	8.782698E-17	2.429610E-17
3.910000E+03	9.072441E-17	2.472824E-17
3.920000E+03	9.363944E-17	2.514910E-17
3.930000E+03	9.656610E-17	2.555723E-17
3.940000E+03	9.949830E-17	2.595113E-17
3.950000E+03	1.024298E-16	2.632921E-17
3.960000E+03	1.053694E-16	2.669363E-17
3.970000E+03	1.082812E-16	2.703514E-17
3.980000E+03	1.111890E-16	2.735959E-17
3.990000E+03	1.140715E-16	2.766134E-17
4.000000E+03	1.169223E-16	2.793851E-17
4.010000E+03	1.197351E-16	2.818916E-17
4.020000E+03	1.225034E-16	2.841130E-17
4.030000E+03	1.252210E-16	2.860294E-17
4.040000E+03	1.278819E-16	2.876203E-17
4.050000E+03	1.304979E-16	2.889049E-17
4.060000E+03	1.330460E-16	2.898235E-17
4.070000E+03	1.355211E-16	2.903562E-17
4.080000E+03	1.378996E-16	2.904444E-17
4.090000E+03	1.402332E-16	2.901868E-17
4.100000E+03	1.424626E-16	2.894484E-17
4.110000E+03	1.446039E-16	2.882515E-17
4.120000E+03	1.466556E-16	2.865808E-17
4.130000E+03	1.486369E-16	2.844593E-17
4.140000E+03	1.505294E-16	2.818356E-17
4.150000E+03	1.523155E-16	2.786613E-17
4.160000E+03	1.540382E-16	2.749982E-17
4.170000E+03	1.556825E-16	2.707990E-17
4.180000E+03	1.572543E-16	2.660534E-17
4.190000E+03	1.587811E-16	2.607845E-17
4.200000E+03	1.602300E-16	2.549141E-17
4.210000E+03	1.616297E-16	2.484653E-17
4.220000E+03	1.630095E-16	2.414567E-17
4.230000E+03	1.643577E-16	2.338432E-17
4.240000E+03	1.656622E-16	2.255837E-17
4.250000E+03	1.669722E-16	2.167233E-17
4.260000E+03	1.682744E-16	2.072216E-17
4.270000E+03	1.695747E-16	1.970714E-17
4.280000E+03	1.708783E-16	1.862721E-17
4.290000E+03	1.722099E-16	1.748556E-17
4.300000E+03	1.735299E-16	1.628058E-17
4.310000E+03	1.748604E-16	1.502026E-17
4.320000E+03	1.762229E-16	1.371644E-17
4.330000E+03	1.775958E-16	1.238460E-17
4.340000E+03	1.789564E-16	1.105280E-17
4.350000E+03	1.803466E-16	9.772883E-18
4.360000E+03	1.817444E-16	8.623843E-18
4.370000E+03	1.831499E-16	7.729901E-18
4.380000E+03	1.845643E-16	7.251509E-18
4.390000E+03	1.859893E-16	7.320589E-18
4.400000E+03	1.874266E-16	7.944056E-18
4.410000E+03	1.888778E-16	9.003565E-18
4.420000E+03	1.903449E-16	1.034967E-17
4.430000E+03	1.918528E-16	1.186597E-17
4.440000E+03	1.933604E-16	1.347198E-17
4.450000E+03	1.949151E-16	1.512173E-17
4.460000E+03	1.964747E-16	1.678135E-17
4.470000E+03	1.980848E-16	1.843505E-17
4.480000E+03	1.996998E-16	2.006626E-17
4.490000E+03	2.013616E-16	2.167092E-17
4.500000E+03	2.030418E-16	2.324113E-17
4.510000E+03	2.047321E-16	2.477264E-17
4.520000E+03	2.063980E-16	2.625912E-17
4.530000E+03	2.080710E-16	2.770328E-17
4.540000E+03	2.097117E-16	2.909954E-17
4.550000E+03	2.113016E-16	3.044505E-17
4.560000E+03	2.128207E-16	3.173689E-17
4.570000E+03	2.142482E-16	3.297206E-17
4.580000E+03	2.155637E-16	3.414755E-17
4.590000E+03	2.167477E-16	3.526044E-17
4.600000E+03	2.177828E-16	3.630809E-17
4.610000E+03	2.186777E-16	3.729222E-17
4.620000E+03	2.193746E-16	3.820329E-17
4.630000E+03	2.198902E-16	3.904422E-17
4.640000E+03	2.202225E-16	3.981493E-17
4.650000E+03	2.203744E-16	4.051625E-17
4.660000E+03	2.203540E-16	4.115004E-17
4.670000E+03	2.201970E-16	4.172348E-17
4.680000E+03	2.198747E-16	4.223172E-17
4.690000E+03	2.194313E-16	4.268371E-17
4.700000E+03	2.188909E-16	4.308485E-17
4.710000E+03	2.182796E-16	4.344109E-17
4.720000E+03	2.176473E-16	4.376320E-17
4.730000E+03	2.169771E-16	4.404876E-17
4.740000E+03	2.163183E-16	4.430865E-17
4.750000E+03	2.156963E-16	4.454906E-17
4.760000E+03	2.151341E-16	4.477574E-17
4.770000E+03	2.146731E-16	4.499836E-17
4.780000E+03	2.142864E-16	4.521230E-17
4.790000E+03	2.140080E-16	4.542561E-17
4.800000E+03	2.138456E-16	4.564090E-17
4.810000E+03	2.138029E-16	4.585979E-17
4.820000E+03	2.138789E-16	4.608293E-17
4.830000E+03	2.140687E-16	4.631002E-17
4.840000E+03	2.143634E-16	4.653986E-17
4.850000E+03	2.147298E-16	4.676589E-17
4.860000E+03	2.151944E-16	4.699452E-17
4.870000E+03	2.157189E-16	4.721796E-17
4.880000E+03	2.162843E-16	4.743255E-17
4.890000E+03	2.168498E-16	4.762987E-17
4.900000E+03	2.174368E-16	4.781505E-17
4.910000E+03	2.180050E-16	4.797966E-17
4.920000E+03	2.185153E-16	4.811546E-17
4.930000E+03	2.189924E-16	4.822826E-17
4.940000E+03	2.193807E-16	4.830611E-17
4.950000E+03	2.196892E-16	4.835127E-17
4.960000E+03	2.199092E-16	4.836205E-17
4.970000E+03	2.200349E-16	4.833740E-17
4.980000E+03	2.200846E-16	4.828139E-17
4.990000E+03	2.199975E-16	4.818081E-17
5.000000E+03	2.198385E-16	4.804990E-17
5.010000E+03	2.195935E-16	4.788550E-17
5.020000E+03	2.192712E-16	4.768934E-17
5.030000E+03	2.188619E-16	4.745918E-17
5.040000E+03	2.184176E-16	4.720603E-17
5.050000E+03	2.179115E-16	4.692367E-17
5.060000E+03	2.173962E-16	4.662307E-17
5.070000E+03	2.168454E-16	4.629803E-17
5.080000E+03	2.162913E-16	4.595487E-17
5.090000E+03	2.157451E-16	4.559529E-17
5.100000E+03	2.152164E-16	4.522058E-17
5.110000E+03	2.147129E-16	4.483155E-17
5.120000E+03	2.142213E-16	4.442453E-17
5.130000E+03	2.137829E-16	4.400716E-17
5.140000E+03	2.133606E-16	4.357076E-17
5.150000E+03	2.129719E-16	4.311791E-17
5.160000E+03	2.126130E-16	4.264673E-17
5.170000E+03	2.122782E-16	4.215493E-17
5.180000E+03	2.119602E-16	4.163986E-17
5.190000E+03	2.116500E-16	4.109862E-17
5.200000E+03	2.113380E-16	4.052812E-17
5.210000E+03	2.109958E-16	3.992178E-17
5.220000E+03	2.106312E-16	3.928002E-17
5.230000E+03	2.102341E-16	3.859984E-17
5.240000E+03	2.097950E-16	3.787841E-17
5.250000E+03	2.093052E-16	3.711315E-17
5.260000E+03	2.087573E-16	3.630181E-17
5.270000E+03	2.081274E-16	3.543952E-17
5.280000E+03	2.074464E-16	3.453091E-17
5.290000E+03	2.066762E-16	3.356904E-17
5.300000E+03	2.058330E-16	3.255639E-17
5.310000E+03	2.049171E-16	3.149294E-17
5.320000E+03	2.039134E-16	3.037668E-17
5.330000E+03	2.028593E-16	2.921390E-17
5.340000E+03	2.017258E-16	2.800137E-17
5.350000E+03	2.005357E-16	2.674411E-17
5.360000E+03	1.992960E-16	2.544544E-17
5.370000E+03	1.980145E-16	2.410967E-17
5.380000E+03	1.966997E-16	2.274241E-17
5.390000E+03	1.953442E-16	2.134913E-17
5.400000E+03	1.939735E-16	1.994123E-17
5.410000E+03	1.925962E-16	1.853108E-17
5.420000E+03	1.912210E-16	1.713512E-17
5.430000E+03	1.898557E-16	1.577535E-17
5.440000E+03	1.884921E-16	1.448023E-17
5.450000E+03	1.871514E-16	1.329055E-17
5.460000E+03	1.858380E-16	1.225714E-17
5.470000E+03	1.845547E-16	1.144109E-17
5.480000E+03	1.832874E-16	1.090502E-17
5.490000E+03	1.820640E-16	1.069921E-17
5.500000E+03	1.808506E-16	1.083312E-17
5.510000E+03	1.796541E-16	1.127310E-17
5.520000E+03	1.784645E-16	1.195451E-17
5.530000E+03	1.772564E-16	1.280470E-17
5.540000E+03	1.760325E-16	1.376082E-17
5.550000E+03	1.747808E-16	1.477221E-17
5.560000E+03	1.734905E-16	1.580089E-17
5.570000E+03	1.721515E-16	1.681924E-17
5.580000E+03	1.707423E-16	1.780610E-17
5.590000E+03	1.692703E-16	1.874881E-17
5.600000E+03	1.677314E-16	1.963778E-17
5.610000E+03	1.661242E-16	2.046674E-17
5.620000E+03	1.644372E-16	2.123031E-17
5.630000E+03	1.626873E-16	2.192834E-17
5.640000E+03	1.608811E-16	2.256081E-17
5.650000E+03	1.590278E-16	2.312909E-17
5.660000E+03	1.571268E-16	2.363389E-17
5.670000E+03	1.552161E-16	2.408233E-17
5.680000E+03	1.532874E-16	2.447508E-17
5.690000E+03	1.513581E-16	2.481707E-17
5.700000E+03	1.494698E-16	2.511764E-17
5.710000E+03	1.476185E-16	2.537892E-17
5.720000E+03	1.458348E-16	2.560901E-17
5.730000E+03	1.441379E-16	2.581426E-17
5.740000E+03	1.425354E-16	2.599901E-17
5.750000E+03	1.410557E-16	2.617140E-17
5.760000E+03	1.397149E-16	2.633738E-17
5.770000E+03	1.385272E-16	2.650253E-17
5.780000E+03	1.374944E-16	2.666991E-17
5.790000E+03	1.366367E-16	2.684607E-17
5.800000E+03	1.359611E-16	2.703488E-17
5.810000E+03	1.354719E-16	2.723951E-17
5.820000E+03	1.351603E-16	2.746034E-17
5.830000E+03	1.350349E-16	2.770100E-17
5.840000E+03	1.350909E-16	2.796231E-17
5.850000E+03	1.353107E-16	2.824218E-17
5.860000E+03	1.357044E-16	2.854406E-17
5.870000E+03	1.362392E-16	2.886224E-17
5.880000E+03	1.369002E-16	2.919454E-17
5.890000E+03	1.376913E-16	2.954259E-17
5.900000E+03	1.385746E-16	2.989892E-17
5.910000E+03	1.395420E-16	3.026225E-17
5.920000E+03	1.405645E-16	3.062669E-17
5.930000E+03	1.416452E-16	3.099310E-17
5.940000E+03	1.427462E-16	3.135336E-17
5.950000E+03	1.438627E-16	3.170644E-17
5.960000E+03	1.449708E-16	3.204703E-17
5.970000E+03	1.460702E-16	3.237496E-17
5.980000E+03	1.471529E-16	3.268829E-17
5.990000E+03	1.482136E-16	3.298569E-17
6.000000E+03	1.492393E-16	3.326399E-17
6.010000E+03	1.502413E-16	3.352550E-17
6.020000E+03	1.512230E-16	3.377066E-17
6.030000E+03	1.521792E-16	3.399800E-17
6.040000E+03	1.531397E-16	3.421388E-17
6.050000E+03	1.540921E-16	3.441513E-17
6.060000E+03	1.550471E-16	3.460376E-17
6.070000E+03	1.560280E-16	3.478448E-17
6.080000E+03	1.570587E-16	3.496211E-17
6.090000E+03	1.581178E-16	3.513132E-17
6.100000E+03	1.592523E-16	3.530186E-17
6.110000E+03	1.604515E-16	3.547063E-17
6.120000E+03	1.617389E-16	3.564194E-17
6.130000E+03	1.631256E-16	3.581727E-17
6.140000E+03	1.646102E-16	3.599521E-17
6.150000E+03	1.662142E-16	3.617917E-17
6.160000E+03	1.679463E-16	3.636964E-17
6.170000E+03	1.698022E-16	3.656414E-17
6.180000E+03	1.718013E-16	3.676505E-17
6.190000E+03	1.739499E-16	3.697180E-17
6.200000E+03	1.762542E-16	3.718346E-17
6.210000E+03	1.787066E-16	3.739609E-17
6.220000E+03	1.813246E-16	3.761075E-17
6.230000E+03	1.841129E-16	3.782552E-17
6.240000E+03	1.870625E-16	3.803544E-17
6.250000E+03	1.901908E-16	3.824069E-17
6.260000E+03	1.935019E-16	3.843843E-17
6.270000E+03	1.970002E-16	3.862554E-17
6.280000E+03	2.006757E-16	3.879586E-17
6.290000E+03	2.045465E-16	3.894844E-17
6.300000E+03	2.086171E-16	3.907933E-17
6.310000E+03	2.128764E-16	3.918146E-17
6.320000E+03	2.173431E-16	3.925310E-17
6.330000E+03	2.220206E-16	3.928943E-17
6.340000E+03	2.269113E-16	3.928543E-17
6.350000E+03	2.320002E-16	3.923306E-17
6.360000E+03	2.373024E-16	3.912977E-17
6.370000E+03	2.428153E-16	3.897021E-17
6.380000E+03	2.485153E-16	3.874652E-17
6.390000E+03	2.544098E-16	3.845685E-17
6.400000E+03	2.604852E-16	3.809751E-17
6.410000E+03	2.667228E-16	3.766623E-17
6.420000E+03	2.730791E-16	3.716027E-17
6.430000E+03	2.795424E-16	3.658538E-17
6.440000E+03	2.860765E-16	3.594881E-17
6.450000E+03	2.926183E-16	3.526101E-17
6.460000E+03	2.991396E-16	3.454470E-17
6.470000E+03	3.055874E-16	3.382887E-17
6.480000E+03	3.119052E-16	3.315277E-17
6.490000E+03	3.180120E-16	3.256436E-17
6.500000E+03	3.238713E-16	3.212648E-17
6.510000E+03	3.294261E-16	3.190640E-17
6.520000E+03	3.345956E-16	3.196796E-17
6.530000E+03	3.393336E-16	3.236295E-17
6.540000E+03	3.435353E-16	3.310334E-17
6.550000E+03	3.470564E-16	3.415675E-17
6.560000E+03	3.497157E-16	3.545813E-17
6.570000E+03	3.514183E-16	3.693574E-17
6.580000E+03	3.519703E-16	3.850144E-17
6.590000E+03	3.513590E-16	4.008599E-17
6.600000E+03	3.494834E-16	4.161425E-17
6.610000E+03	3.463556E-16	4.302963E-17
6.620000E+03	3.420006E-16	4.428439E-17
6.630000E+03	3.364790E-16	4.534297E-17
6.640000E+03	3.298600E-16	4.617851E-17
6.650000E+03	3.222865E-16	4.678193E-17
6.660000E+03	3.138970E-16	4.715117E-17
6.670000E+03	3.048210E-16	4.728963E-17
6.680000E+03	2.952382E-16	4.721455E-17
6.690000E+03	2.853051E-16	4.694534E-17
6.700000E+03	2.751717E-16	4.650518E-17
6.710000E+03	2.649591E-16	4.591624E-17
6.720000E+03	2.548314E-16	4.521138E-17
6.730000E+03	2.448443E-16	4.440700E-17
6.740000E+03	2.351453E-16	4.353757E-17
6.750000E+03	2.257924E-16	4.262289E-17
6.760000E+03	2.168300E-16	4.168071E-17
6.770000E+03	2.083196E-16	4.073235E-17
6.780000E+03	2.002780E-16	3.979062E-17
6.790000E+03	1.927533E-16	3.887434E-17
6.800000E+03	1.857268E-16	3.798863E-17
6.810000E+03	1.792134E-16	3.714483E-17
6.820000E+03	1.732072E-16	3.634950E-17
6.830000E+03	1.676851E-16	3.560496E-17
6.840000E+03	1.626448E-16	3.491726E-17
6.850000E+03	1.580686E-16	3.428855E-17
6.860000E+03	1.539368E-16	3.372001E-17
6.870000E+03	1.502179E-16	3.320964E-17
6.880000E+03	1.469125E-16	3.276191E-17
6.890000E+03	1.439781E-16	3.237132E-17
6.900000E+03	1.413945E-16	3.203677E-17
6.910000E+03	1.391617E-16	3.176142E-17
6.920000E+03	1.372402E-16	3.153902E-17
6.930000E+03	1.356213E-16	3.137005E-17
6.940000E+03	1.342873E-16	3.125262E-17
6.950000E+03	1.332213E-16	3.118476E-17
6.960000E+03	1.323981E-16	3.116226E-17
6.970000E+03	1.318215E-16	3.118760E-17
6.980000E+03	1.314586E-16	3.125432E-17
6.990000E+03	1.312960E-16	3.136043E-17
7.000000E+03	1.313399E-16	3.150848E-17
7.010000E+03	1.315597E-16	3.169203E-17
7.020000E+03	1.319532E-16	3.191142E-17
7.030000E+03	1.325098E-16	3.216477E-17
7.040000E+03	1.332191E-16	3.245023E-17
7.050000E+03	1.340617E-16	3.276357E-17
7.060000E+03	1.350471E-16	3.310764E-17
7.070000E+03	1.361468E-16	3.347582E-17
7.080000E+03	1.373611E-16	3.386859E-17
7.090000E+03	1.386710E-16	3.428151E-17
7.100000E+03	1.400874E-16	3.471754E-17
7.110000E+03	1.415808E-16	3.516957E-17
7.120000E+03	1.431518E-16	3.563789E-17
7.130000E+03	1.447905E-16	3.612016E-17
7.140000E+03	1.464758E-16	3.661122E-17
7.150000E+03	1.482179E-16	3.711366E-17
7.160000E+03	1.499838E-16	3.761918E-17
7.170000E+03	1.517713E-16	3.812731E-17
7.180000E+03	1.535672E-16	3.863462E-17
7.190000E+03	1.553456E-16	3.913458E-17
7.200000E+03	1.571139E-16	3.962892E-17
7.210000E+03	1.588328E-16	4.010767E-17
7.220000E+03	1.604966E-16	4.056928E-17
7.230000E+03	1.620875E-16	4.100912E-17
7.240000E+03	1.635874E-16	4.142245E-17
7.250000E+03	1.649655E-16	4.180136E-17
7.260000E+03	1.662276E-16	4.214720E-17
7.270000E+03	1.673315E-16	4.244911E-17
7.280000E+03	1.682723E-16	4.270575E-17
7.290000E+03	1.690345E-16	4.291303E-17
7.300000E+03	1.695916E-16	4.306416E-17
7.310000E+03	1.699570E-16	4.316250E-17
7.320000E+03	1.700969E-16	4.319932E-17
7.330000E+03	1.700177E-16	4.317629E-17
7.340000E+03	1.697170E-16	4.309274E-17
7.350000E+03	1.691956E-16	4.294891E-17
7.360000E+03	1.684453E-16	4.274275E-17
7.370000E+03	1.674994E-16	4.248275E-17
7.380000E+03	1.663440E-16	4.216549E-17
7.390000E+03	1.650062E-16	4.179793E-17
7.400000E+03	1.635035E-16	4.138456E-17
7.410000E+03	1.618554E-16	4.093048E-17
7.420000E+03	1.600717E-16	4.043822E-17
7.430000E+03	1.581995E-16	3.991985E-17
7.440000E+03	1.562388E-16	3.937546E-17
7.450000E+03	1.542263E-16	3.881433E-17
7.460000E+03	1.521861E-16	3.824266E-17
7.470000E+03	1.501423E-16	3.766645E-17
7.480000E+03	1.481176E-16	3.709146E-17
7.490000E+03	1.461228E-16	3.652033E-17
7.500000E+03	1.442005E-16	3.596360E-17
7.510000E+03	1.423470E-16	3.542024E-17
7.520000E+03	1.405903E-16	3.489698E-17
7.530000E+03	1.389449E-16	3.439723E-17
7.540000E+03	1.374236E-16	3.392379E-17
7.550000E+03	1.360264E-16	3.347634E-17
7.560000E+03	1.347831E-16	3.306171E-17
7.570000E+03	1.336792E-16	3.267589E-17
7.580000E+03	1.327298E-16	3.232198E-17
7.590000E+03	1.319377E-16	3.199998E-17
7.600000E+03	1.313036E-16	3.170939E-17
7.610000E+03	1.308269E-16	3.144920E-17
7.620000E+03	1.305050E-16	3.121796E-17
7.630000E+03	1.303238E-16	3.101138E-17
7.640000E+03	1.302982E-16	3.083200E-17
7.650000E+03	1.304013E-16	3.067236E-17
7.660000E+03	1.306353E-16	3.053190E-17
7.670000E+03	1.309914E-16	3.040738E-17
7.680000E+03	1.314600E-16	3.029531E-17
7.690000E+03	1.320307E-16	3.019204E-17
7.700000E+03	1.326823E-16	3.009142E-17
7.710000E+03	1.334246E-16	2.999433E-17
7.720000E+03	1.342255E-16	2.989216E-17
7.730000E+03	1.350951E-16	2.978584E-17
7.740000E+03	1.360015E-16	2.966690E-17
7.750000E+03	1.369451E-16	2.953415E-17
7.760000E+03	1.379166E-16	2.938422E-17
