#wls	flux	fluxerr
1.600000E+03	2.573565E-17	1.222343E-17
1.640000E+03	2.542835E-17	1.188703E-17
1.680000E+03	2.513172E-17	1.155529E-17
1.720000E+03	2.485174E-17	1.123081E-17
1.760000E+03	2.459148E-17	1.091466E-17
1.800000E+03	2.435110E-17	1.060656E-17
1.840000E+03	2.413652E-17	1.030864E-17
1.880000E+03	2.395359E-17	1.002282E-17
1.920000E+03	2.380816E-17	9.750743E-18
1.960000E+03	2.369764E-17	9.490463E-18
2.000000E+03	2.363362E-17	9.245630E-18
2.040000E+03	2.361929E-17	9.016213E-18
2.080000E+03	2.365515E-17	8.801016E-18
2.120000E+03	2.375307E-17	8.602898E-18
2.160000E+03	2.391390E-17	8.420304E-18
2.200000E+03	2.414991E-17	8.255500E-18
2.240000E+03	2.445968E-17	8.105642E-18
2.280000E+03	2.485613E-17	7.972488E-18
2.320000E+03	2.534704E-17	7.855583E-18
2.360000E+03	2.593503E-17	7.752537E-18
2.400000E+03	2.663180E-17	7.663387E-18
2.440000E+03	2.744409E-17	7.586229E-18
2.480000E+03	2.838227E-17	7.519776E-18
2.520000E+03	2.945194E-17	7.461020E-18
2.560000E+03	3.066548E-17	7.408322E-18
2.600000E+03	3.203945E-17	7.360452E-18
2.640000E+03	3.359204E-17	7.315801E-18
2.680000E+03	3.533736E-17	7.271157E-18
2.720000E+03	3.730054E-17	7.224935E-18
2.760000E+03	3.950941E-17	7.175093E-18
2.800000E+03	4.199502E-17	7.119175E-18
2.840000E+03	4.479538E-17	7.054872E-18
2.880000E+03	4.794998E-17	6.979042E-18
2.920000E+03	5.151343E-17	6.889776E-18
2.960000E+03	5.554073E-17	6.784159E-18
3.000000E+03	6.009808E-17	6.660070E-18
3.010000E+03	6.132850E-17	6.625943E-18
3.020000E+03	6.259962E-17	6.590737E-18
3.030000E+03	6.390899E-17	6.554052E-18
3.040000E+03	6.526113E-17	6.516224E-18
3.050000E+03	6.665362E-17	6.476889E-18
3.060000E+03	6.809464E-17	6.436728E-18
3.070000E+03	6.957831E-17	6.395067E-18
3.080000E+03	7.110940E-17	6.352266E-18
3.090000E+03	7.269282E-17	6.308673E-18
3.100000E+03	7.432267E-17	6.263702E-18
3.110000E+03	7.600393E-17	6.217743E-18
3.120000E+03	7.774173E-17	6.171175E-18
3.130000E+03	7.953016E-17	6.123510E-18
3.140000E+03	8.137818E-17	6.075454E-18
3.150000E+03	8.328366E-17	6.026859E-18
3.160000E+03	8.525202E-17	5.978159E-18
3.170000E+03	8.727733E-17	5.928997E-18
3.180000E+03	8.936896E-17	5.880108E-18
3.190000E+03	9.152873E-17	5.831695E-18
3.200000E+03	9.375065E-17	5.783490E-18
3.210000E+03	9.604438E-17	5.736235E-18
3.220000E+03	9.841183E-17	5.690171E-18
3.230000E+03	1.008509E-16	5.645314E-18
3.240000E+03	1.033635E-16	5.601922E-18
3.250000E+03	1.059513E-16	5.560244E-18
3.260000E+03	1.086204E-16	5.520723E-18
3.270000E+03	1.113725E-16	5.483550E-18
3.280000E+03	1.142053E-16	5.448683E-18
3.290000E+03	1.171201E-16	5.416253E-18
3.300000E+03	1.201228E-16	5.386534E-18
3.310000E+03	1.232102E-16	5.359347E-18
3.320000E+03	1.263878E-16	5.334838E-18
3.330000E+03	1.296520E-16	5.312704E-18
3.340000E+03	1.330031E-16	5.292768E-18
3.350000E+03	1.364459E-16	5.274955E-18
3.360000E+03	1.399800E-16	5.258942E-18
3.370000E+03	1.436003E-16	5.244173E-18
3.380000E+03	1.473104E-16	5.230387E-18
3.390000E+03	1.511041E-16	5.216941E-18
3.400000E+03	1.549793E-16	5.203342E-18
3.410000E+03	1.589384E-16	5.189241E-18
3.420000E+03	1.629783E-16	5.174136E-18
3.430000E+03	1.670910E-16	5.157406E-18
3.440000E+03	1.712773E-16	5.138795E-18
3.450000E+03	1.755331E-16	5.117978E-18
3.460000E+03	1.798485E-16	5.094601E-18
3.470000E+03	1.842234E-16	5.068755E-18
3.480000E+03	1.886521E-16	5.040567E-18
3.490000E+03	1.931233E-16	5.010256E-18
3.500000E+03	1.976411E-16	4.978716E-18
3.510000E+03	2.021880E-16	4.946609E-18
3.520000E+03	2.067621E-16	4.915342E-18
3.530000E+03	2.113558E-16	4.886556E-18
3.540000E+03	2.159665E-16	4.862399E-18
3.550000E+03	2.205754E-16	4.845012E-18
3.560000E+03	2.251795E-16	4.837213E-18
3.570000E+03	2.297760E-16	4.842002E-18
3.580000E+03	2.343461E-16	4.862041E-18
3.590000E+03	2.388934E-16	4.900228E-18
3.600000E+03	2.434072E-16	4.958449E-18
3.610000E+03	2.478831E-16	5.036745E-18
3.620000E+03	2.523376E-16	5.134247E-18
3.630000E+03	2.567661E-16	5.248980E-18
3.640000E+03	2.611824E-16	5.378871E-18
3.650000E+03	2.655896E-16	5.521388E-18
3.660000E+03	2.699970E-16	5.674054E-18
3.670000E+03	2.744140E-16	5.834463E-18
3.680000E+03	2.788561E-16	6.000490E-18
3.690000E+03	2.833213E-16	6.169857E-18
3.700000E+03	2.878248E-16	6.340885E-18
3.710000E+03	2.923702E-16	6.511892E-18
3.720000E+03	2.969665E-16	6.681556E-18
3.730000E+03	3.016227E-16	6.848782E-18
3.740000E+03	3.063479E-16	7.012685E-18
3.750000E+03	3.111516E-16	7.172567E-18
3.760000E+03	3.160379E-16	7.327768E-18
3.770000E+03	3.210231E-16	7.478040E-18
3.771060E+03	4.449200E-16	1.516024E-16
3.772530E+03	4.518285E-16	1.487919E-16
3.774000E+03	4.646831E-16	1.467080E-16
3.775470E+03	4.695169E-16	1.450991E-16
3.776940E+03	4.755276E-16	1.465494E-16
3.778410E+03	4.769859E-16	1.470706E-16
3.779880E+03	4.752544E-16	1.451059E-16
3.781350E+03	4.720673E-16	1.390371E-16
3.782820E+03	4.749193E-16	1.413775E-16
3.784290E+03	4.872171E-16	1.337927E-16
3.785760E+03	4.994531E-16	1.335469E-16
3.787230E+03	5.001683E-16	1.341073E-16
3.788700E+03	4.982821E-16	1.148887E-16
3.790170E+03	5.017228E-16	1.149178E-16
3.791640E+03	5.069288E-16	1.096819E-16
3.793110E+03	5.111129E-16	1.089313E-16
3.794580E+03	5.224823E-16	1.103857E-16
3.796050E+03	5.265117E-16	1.138764E-16
3.797520E+03	5.253689E-16	1.155234E-16
3.798990E+03	5.251242E-16	1.096266E-16
3.800460E+03	5.244769E-16	1.064620E-16
3.801930E+03	5.304886E-16	1.133658E-16
3.803400E+03	5.381110E-16	1.052105E-16
3.804870E+03	5.410256E-16	1.063963E-16
3.806340E+03	5.430111E-16	1.109290E-16
3.807810E+03	5.493638E-16	1.109750E-16
3.809280E+03	5.520927E-16	1.127472E-16
3.810750E+03	5.494324E-16	1.132649E-16
3.812220E+03	5.440463E-16	1.135319E-16
3.813690E+03	5.395585E-16	1.134946E-16
3.815160E+03	5.386325E-16	1.135642E-16
3.816630E+03	5.397199E-16	1.137384E-16
3.818100E+03	5.452985E-16	1.136966E-16
3.819570E+03	5.388282E-16	1.177912E-16
3.821040E+03	5.339995E-16	1.175655E-16
3.822510E+03	5.333213E-16	1.184911E-16
3.823980E+03	5.281208E-16	1.175671E-16
3.825450E+03	5.236327E-16	1.162332E-16
3.826920E+03	5.216535E-16	1.168854E-16
3.828390E+03	5.160502E-16	1.150652E-16
3.829860E+03	5.141019E-16	1.138982E-16
3.831330E+03	5.023962E-16	1.098712E-16
3.832800E+03	4.959873E-16	1.069196E-16
3.834270E+03	4.922113E-16	1.112327E-16
3.835740E+03	4.859571E-16	1.088957E-16
3.837210E+03	4.778753E-16	1.063804E-16
3.838680E+03	4.762984E-16	1.061066E-16
3.840150E+03	4.709734E-16	1.035824E-16
3.841620E+03	4.639135E-16	1.036446E-16
3.843090E+03	4.575041E-16	9.730771E-17
3.844560E+03	4.569494E-16	9.294689E-17
3.846030E+03	4.545360E-16	9.580899E-17
3.847500E+03	4.489629E-16	9.522105E-17
3.848970E+03	4.466423E-16	9.564109E-17
3.850440E+03	4.394272E-16	9.107030E-17
3.851910E+03	4.319642E-16	9.070219E-17
3.853380E+03	4.295815E-16	8.962122E-17
3.854850E+03	4.245037E-16	8.290820E-17
3.856320E+03	4.193949E-16	8.295345E-17
3.857790E+03	4.147507E-16	7.909762E-17
3.859260E+03	4.088982E-16	7.849963E-17
3.860730E+03	4.050283E-16	8.049138E-17
3.862200E+03	4.012824E-16	8.106668E-17
3.863670E+03	3.973505E-16	8.113856E-17
3.865140E+03	3.955872E-16	8.083661E-17
3.866610E+03	3.947222E-16	8.120288E-17
3.868080E+03	3.914718E-16	7.522395E-17
3.869550E+03	3.882833E-16	7.785607E-17
3.871020E+03	3.849399E-16	7.613782E-17
3.872490E+03	3.799544E-16	8.066492E-17
3.873960E+03	3.743182E-16	8.075677E-17
3.875430E+03	3.698903E-16	7.732853E-17
3.876900E+03	3.647497E-16	8.014887E-17
3.878370E+03	3.599189E-16	8.232483E-17
3.879840E+03	3.584650E-16	8.266008E-17
3.881310E+03	3.540679E-16	8.121802E-17
3.882780E+03	3.481835E-16	7.627304E-17
3.884250E+03	3.456142E-16	7.630091E-17
3.885720E+03	3.475994E-16	7.595410E-17
3.887190E+03	3.520013E-16	8.261299E-17
3.888660E+03	3.482236E-16	9.058903E-17
3.890130E+03	3.413785E-16	9.064744E-17
3.891600E+03	3.358037E-16	9.322501E-17
3.893070E+03	3.377269E-16	9.407458E-17
3.894540E+03	3.421909E-16	9.302110E-17
3.896010E+03	3.439903E-16	9.605437E-17
3.897480E+03	3.429391E-16	9.536694E-17
3.898950E+03	3.421048E-16	9.239071E-17
3.900420E+03	3.454225E-16	9.288276E-17
3.901890E+03	3.462614E-16	9.093210E-17
3.903360E+03	3.492694E-16	9.211977E-17
3.904830E+03	3.569252E-16	9.303045E-17
3.906300E+03	3.619163E-16	9.189121E-17
3.907770E+03	3.588821E-16	9.171522E-17
3.909240E+03	3.563437E-16	9.058409E-17
3.910710E+03	3.554165E-16	9.023389E-17
3.912180E+03	3.541794E-16	9.003184E-17
3.913650E+03	3.574665E-16	9.017750E-17
3.915120E+03	3.602577E-16	9.088245E-17
3.916590E+03	3.631110E-16	9.379579E-17
3.918060E+03	3.700857E-16	9.128836E-17
3.919530E+03	3.731561E-16	9.073186E-17
3.921000E+03	3.767533E-16	8.548875E-17
3.922470E+03	3.835733E-16	8.646381E-17
3.923940E+03	3.881622E-16	9.103829E-17
3.925410E+03	3.876071E-16	9.049364E-17
3.926880E+03	3.886634E-16	9.177188E-17
3.928350E+03	3.912072E-16	9.310427E-17
3.929820E+03	3.926974E-16	9.358523E-17
3.931290E+03	3.974725E-16	9.301198E-17
3.932760E+03	3.966385E-16	9.279171E-17
3.934230E+03	3.935113E-16	9.330818E-17
3.935700E+03	3.928942E-16	8.854585E-17
3.937170E+03	3.932069E-16	8.743327E-17
3.938640E+03	3.958128E-16	8.639742E-17
3.940110E+03	3.987597E-16	8.640068E-17
3.941580E+03	4.038761E-16	9.202068E-17
3.943050E+03	4.020194E-16	8.929796E-17
3.944520E+03	4.049045E-16	8.935676E-17
3.945990E+03	4.071697E-16	8.953238E-17
3.947460E+03	4.113255E-16	8.999445E-17
3.948930E+03	4.140867E-16	8.948428E-17
3.950400E+03	4.120751E-16	8.942035E-17
3.951870E+03	4.087928E-16	8.808443E-17
3.953340E+03	4.102524E-16	8.722973E-17
3.954810E+03	4.145014E-16	9.101848E-17
3.956280E+03	4.143804E-16	9.859506E-17
3.957750E+03	4.160570E-16	9.871131E-17
3.959220E+03	4.182915E-16	1.019615E-16
3.960690E+03	4.196582E-16	1.033829E-16
3.962160E+03	4.191653E-16	1.094190E-16
3.963630E+03	4.178976E-16	1.084373E-16
3.965100E+03	4.158549E-16	1.050230E-16
3.966570E+03	4.174387E-16	1.048576E-16
3.968040E+03	4.203242E-16	1.047120E-16
3.969510E+03	4.215671E-16	1.056322E-16
3.970980E+03	4.264674E-16	1.060917E-16
3.972450E+03	4.308409E-16	1.111115E-16
3.973920E+03	4.336647E-16	1.099013E-16
3.975390E+03	4.351557E-16	1.071028E-16
3.976860E+03	4.365227E-16	1.050655E-16
3.978330E+03	4.387577E-16	1.052472E-16
3.979800E+03	4.413336E-16	1.074774E-16
3.981270E+03	4.426697E-16	1.121386E-16
3.982740E+03	4.471056E-16	1.114002E-16
3.984210E+03	4.508286E-16	1.174535E-16
3.985680E+03	4.590153E-16	1.118074E-16
3.987150E+03	4.684421E-16	1.132796E-16
3.988620E+03	4.754202E-16	1.126736E-16
3.990090E+03	4.771286E-16	1.086012E-16
3.991560E+03	4.801700E-16	1.128672E-16
3.993030E+03	4.836455E-16	1.112156E-16
3.994500E+03	4.849511E-16	1.114800E-16
3.995970E+03	4.896046E-16	1.114351E-16
3.997440E+03	4.963042E-16	1.129234E-16
3.998910E+03	5.011439E-16	1.130952E-16
4.000380E+03	5.087116E-16	1.154753E-16
4.001850E+03	5.187286E-16	1.190983E-16
4.003320E+03	5.249016E-16	1.157138E-16
4.004790E+03	5.316947E-16	1.117740E-16
4.006260E+03	5.381469E-16	1.121084E-16
4.007730E+03	5.436382E-16	1.124388E-16
4.009200E+03	5.490986E-16	1.114394E-16
4.010670E+03	5.562952E-16	1.051865E-16
4.012140E+03	5.654450E-16	1.052615E-16
4.013610E+03	5.700376E-16	1.056282E-16
4.015080E+03	5.703520E-16	1.062869E-16
4.016550E+03	5.732706E-16	1.063210E-16
4.018020E+03	5.781114E-16	1.047531E-16
4.019490E+03	5.828904E-16	1.046040E-16
4.020960E+03	5.869873E-16	9.642146E-17
4.022430E+03	5.916113E-16	9.592048E-17
4.023900E+03	5.953364E-16	9.584152E-17
4.025370E+03	6.003016E-16	9.609148E-17
4.026840E+03	6.057010E-16	9.603938E-17
4.028310E+03	6.090232E-16	9.404874E-17
4.029780E+03	6.112912E-16	8.779231E-17
4.031250E+03	6.150476E-16	8.763049E-17
4.032720E+03	6.197962E-16	8.004828E-17
4.034190E+03	6.202351E-16	7.857836E-17
4.035660E+03	6.174804E-16	7.716525E-17
4.037130E+03	6.194386E-16	7.697662E-17
4.038600E+03	6.213969E-16	7.649229E-17
4.040070E+03	6.256497E-16	7.371160E-17
4.041540E+03	6.283522E-16	7.426940E-17
4.043010E+03	6.267137E-16	7.359466E-17
4.044480E+03	6.273388E-16	7.762001E-17
4.045950E+03	6.269407E-16	7.724893E-17
4.047420E+03	6.230076E-16	7.725736E-17
4.048890E+03	6.209661E-16	7.374493E-17
4.050360E+03	6.203198E-16	6.681309E-17
4.051830E+03	6.178751E-16	6.718903E-17
4.053300E+03	6.117093E-16	6.217582E-17
4.054770E+03	6.066597E-16	6.188254E-17
4.056240E+03	6.049900E-16	5.750638E-17
4.057710E+03	6.027002E-16	5.720294E-17
4.059180E+03	6.001932E-16	5.738692E-17
4.060650E+03	6.006011E-16	5.714106E-17
4.062120E+03	5.949001E-16	6.085664E-17
4.063590E+03	5.900052E-16	5.996772E-17
4.065060E+03	5.863817E-16	6.258836E-17
4.066530E+03	5.811146E-16	6.327646E-17
4.068000E+03	5.781112E-16	6.393196E-17
4.069470E+03	5.754179E-16	6.701136E-17
4.070940E+03	5.704917E-16	6.701200E-17
4.072410E+03	5.668059E-16	6.718105E-17
4.073880E+03	5.637093E-16	6.755756E-17
4.075350E+03	5.613880E-16	6.788303E-17
4.076820E+03	5.611135E-16	6.764776E-17
4.078290E+03	5.618624E-16	6.760820E-17
4.079760E+03	5.582074E-16	6.827696E-17
4.081230E+03	5.574057E-16	6.662941E-17
4.082700E+03	5.597673E-16	6.495949E-17
4.084170E+03	5.593998E-16	6.171879E-17
4.085640E+03	5.600557E-16	5.978032E-17
4.087110E+03	5.609287E-16	5.981172E-17
4.088580E+03	5.586073E-16	5.800123E-17
4.090050E+03	5.539907E-16	5.676837E-17
4.091520E+03	5.556391E-16	5.832656E-17
4.092990E+03	5.579078E-16	5.395837E-17
4.094460E+03	5.575403E-16	5.288788E-17
4.095930E+03	5.561492E-16	5.473664E-17
4.097400E+03	5.572395E-16	5.510336E-17
4.098870E+03	5.598185E-16	5.510090E-17
4.100340E+03	5.620874E-16	5.519928E-17
4.101810E+03	5.624954E-16	5.532506E-17
4.103280E+03	5.608562E-16	5.575768E-17
4.104750E+03	5.612332E-16	6.217298E-17
4.106220E+03	5.617032E-16	6.641252E-17
4.107690E+03	5.618320E-16	6.529330E-17
4.109160E+03	5.602238E-16	6.540738E-17
4.110630E+03	5.601045E-16	6.314483E-17
4.112100E+03	5.619084E-16	6.490937E-17
4.113570E+03	5.633090E-16	6.230437E-17
4.115040E+03	5.630967E-16	6.158881E-17
4.116510E+03	5.632566E-16	6.594204E-17
4.117980E+03	5.645953E-16	7.121702E-17
4.119450E+03	5.654377E-16	7.144910E-17
4.120920E+03	5.661250E-16	7.154213E-17
4.122390E+03	5.667813E-16	7.142839E-17
4.123860E+03	5.665691E-16	7.333481E-17
4.125330E+03	5.672564E-16	7.387237E-17
4.126800E+03	5.681299E-16	7.374655E-17
4.128270E+03	5.703374E-16	7.314096E-17
4.129740E+03	5.711490E-16	7.408610E-17
4.131210E+03	5.704714E-16	7.703649E-17
4.132680E+03	5.692045E-16	7.693579E-17
4.134150E+03	5.667896E-16	7.731858E-17
4.135620E+03	5.643127E-16	7.726588E-17
4.137090E+03	5.617427E-16	7.728106E-17
4.138560E+03	5.615925E-16	7.776867E-17
4.140030E+03	5.616905E-16	7.775927E-17
4.141500E+03	5.611991E-16	7.787274E-17
4.142970E+03	5.636550E-16	7.749233E-17
4.144440E+03	5.657697E-16	7.592857E-17
4.145910E+03	5.650921E-16	7.673671E-17
4.147380E+03	5.646007E-16	7.811674E-17
4.148850E+03	5.659709E-16	7.791729E-17
4.150320E+03	5.659449E-16	7.880683E-17
4.151790E+03	5.654845E-16	7.889260E-17
4.153260E+03	5.648380E-16	7.305668E-17
4.154730E+03	5.636330E-16	6.760673E-17
4.156200E+03	5.638552E-16	7.116520E-17
4.157670E+03	5.660632E-16	7.141151E-17
4.159140E+03	5.656339E-16	7.074996E-17
4.160610E+03	5.632188E-16	7.020940E-17
4.162080E+03	5.641237E-16	7.092950E-17
4.163550E+03	5.665801E-16	7.076860E-17
4.165020E+03	5.668024E-16	6.656803E-17
4.166490E+03	5.652250E-16	5.747466E-17
4.167960E+03	5.622514E-16	5.712145E-17
4.169430E+03	5.618531E-16	5.734499E-17
4.170900E+03	5.624478E-16	5.724052E-17
4.172370E+03	5.623598E-16	5.453351E-17
4.173840E+03	5.626752E-16	5.546591E-17
4.175310E+03	5.629907E-16	5.600447E-17
4.176780E+03	5.624683E-16	5.575974E-17
4.178250E+03	5.638078E-16	5.567799E-17
4.179720E+03	5.642474E-16	5.161023E-17
4.181190E+03	5.642526E-16	5.107135E-17
4.182660E+03	5.655612E-16	5.048556E-17
4.184130E+03	5.665595E-16	4.996392E-17
4.185600E+03	5.663785E-16	4.993201E-17
4.187070E+03	5.670354E-16	4.898897E-17
4.190010E+03	5.680080E-16	4.746250E-17
4.191480E+03	5.669271E-16	4.728157E-17
4.192950E+03	5.655049E-16	4.607486E-17
4.194420E+03	5.631515E-16	4.702432E-17
4.195890E+03	5.619154E-16	4.651769E-17
4.197360E+03	5.618586E-16	4.463251E-17
4.198830E+03	5.607776E-16	4.513572E-17
4.200300E+03	5.591380E-16	4.559826E-17
4.201770E+03	5.570018E-16	4.629353E-17
4.203240E+03	5.551449E-16	4.626484E-17
4.204710E+03	5.496567E-16	4.647257E-17
4.206180E+03	5.437959E-16	4.415532E-17
4.207650E+03	5.396421E-16	4.342574E-17
4.209120E+03	5.358297E-16	4.347946E-17
4.210590E+03	5.304342E-16	4.334937E-17
4.212060E+03	5.262181E-16	4.188612E-17
4.213530E+03	5.218467E-16	4.500444E-17
4.215000E+03	5.174132E-16	4.586361E-17
4.216470E+03	5.156489E-16	4.676769E-17
4.217940E+03	5.146606E-16	4.690093E-17
4.219410E+03	5.101649E-16	4.721659E-17
4.220880E+03	5.056380E-16	4.679663E-17
4.222350E+03	5.041840E-16	4.629825E-17
4.223820E+03	5.036301E-16	4.440441E-17
4.225290E+03	5.027658E-16	4.416249E-17
4.226760E+03	5.013118E-16	4.433184E-17
4.228230E+03	5.004785E-16	4.316420E-17
4.229700E+03	4.977517E-16	4.322379E-17
4.231170E+03	4.934418E-16	4.323788E-17
4.232640E+03	4.901872E-16	4.322911E-17
4.234110E+03	4.884536E-16	4.323200E-17
4.235580E+03	4.869373E-16	4.325063E-17
4.237050E+03	4.846138E-16	4.329884E-17
4.238520E+03	4.837804E-16	4.329704E-17
4.239990E+03	4.836920E-16	4.345336E-17
4.241460E+03	4.821756E-16	4.328741E-17
4.242930E+03	4.799762E-16	4.274185E-17
4.244400E+03	4.782425E-16	4.111710E-17
4.245870E+03	4.774090E-16	4.296169E-17
4.247340E+03	4.756752E-16	4.169047E-17
4.248810E+03	4.729790E-16	3.957864E-17
4.250280E+03	4.733563E-16	3.867183E-17
4.251750E+03	4.732368E-16	3.868642E-17
4.253220E+03	4.725274E-16	3.966544E-17
4.254690E+03	4.725943E-16	3.711419E-17
4.256160E+03	4.701463E-16	3.684532E-17
4.257630E+03	4.685365E-16	3.594232E-17
4.259100E+03	4.696590E-16	3.722725E-17
4.260570E+03	4.697568E-16	3.742960E-17
4.262040E+03	4.693580E-16	3.400904E-17
4.263510E+03	4.702321E-16	3.279950E-17
4.264980E+03	4.703610E-16	3.151021E-17
4.266450E+03	4.710489E-16	3.148047E-17
4.267920E+03	4.713642E-16	3.067536E-17
4.269390E+03	4.718347E-16	3.557464E-17
4.270860E+03	4.732989E-16	3.610149E-17
4.272330E+03	4.751667E-16	3.632514E-17
4.273800E+03	4.785872E-16	3.606324E-17
4.275270E+03	4.806415E-16	3.592802E-17
4.276740E+03	4.799943E-16	3.661709E-17
4.278210E+03	4.771735E-16	3.718625E-17
4.279680E+03	4.775821E-16	3.761966E-17
4.281150E+03	4.800402E-16	3.789663E-17
4.282620E+03	4.802315E-16	3.807778E-17
4.284090E+03	4.779075E-16	3.818119E-17
4.285560E+03	4.779124E-16	3.820840E-17
4.287030E+03	4.794390E-16	3.814885E-17
4.288500E+03	4.799719E-16	3.801089E-17
4.289970E+03	4.786726E-16	3.799607E-17
4.291440E+03	4.776528E-16	3.667854E-17
4.292910E+03	4.769125E-16	3.608088E-17
4.294380E+03	4.741846E-16	3.431667E-17
4.295850E+03	4.731337E-16	3.671284E-17
4.297320E+03	4.736666E-16	3.791227E-17
4.298790E+03	4.714976E-16	3.732421E-17
4.300260E+03	4.682106E-16	3.678058E-17
4.301730E+03	4.647372E-16	3.562506E-17
4.303200E+03	4.626923E-16	3.744173E-17
4.304670E+03	4.631941E-16	3.810369E-17
4.306140E+03	4.617704E-16	3.947743E-17
4.307610E+03	4.591353E-16	4.084441E-17
4.309080E+03	4.576494E-16	4.105790E-17
4.310550E+03	4.566914E-16	4.129066E-17
4.312020E+03	4.549880E-16	4.132518E-17
4.313490E+03	4.511415E-16	4.148331E-17
4.314960E+03	4.489100E-16	4.131677E-17
4.316430E+03	4.475482E-16	4.124082E-17
4.317900E+03	4.466522E-16	3.745194E-17
4.319370E+03	4.451972E-16	3.672295E-17
4.320840E+03	4.428103E-16	3.623590E-17
4.322310E+03	4.422559E-16	3.653346E-17
4.323780E+03	4.426335E-16	3.959317E-17
4.325250E+03	4.424208E-16	4.068126E-17
4.326720E+03	4.416801E-16	4.126937E-17
4.328190E+03	4.425858E-16	4.458853E-17
4.329660E+03	4.442680E-16	4.415511E-17
4.331130E+03	4.443660E-16	5.018061E-17
4.332600E+03	4.453339E-16	5.052495E-17
4.334070E+03	4.464571E-16	5.344902E-17
4.335540E+03	4.465862E-16	5.339364E-17
4.337010E+03	4.474610E-16	5.647048E-17
4.338480E+03	4.487396E-16	5.721166E-17
4.339950E+03	4.505463E-16	5.757264E-17
4.341420E+03	4.531919E-16	5.757842E-17
4.342890E+03	4.549366E-16	5.917454E-17
4.344360E+03	4.550349E-16	5.741969E-17
4.345830E+03	4.561583E-16	5.625416E-17
4.347300E+03	4.566605E-16	5.659533E-17
4.348770E+03	4.582500E-16	5.697158E-17
4.350240E+03	4.617969E-16	5.678018E-17
4.351710E+03	4.627652E-16	5.628000E-17
4.353180E+03	4.628014E-16	5.602653E-17
4.354650E+03	4.647951E-16	5.574709E-17
4.356120E+03	4.658877E-16	5.379917E-17
4.357590E+03	4.655512E-16	5.313706E-17
