#wls	flux	fluxerr
1.600000E+03	4.933195E-17	2.349391E-17
1.640000E+03	4.889652E-17	2.292102E-17
1.680000E+03	4.845916E-17	2.234432E-17
1.720000E+03	4.802380E-17	2.176575E-17
1.760000E+03	4.759736E-17	2.118852E-17
1.800000E+03	4.719576E-17	2.061952E-17
1.840000E+03	4.682263E-17	2.005986E-17
1.880000E+03	4.649061E-17	1.951427E-17
1.920000E+03	4.621229E-17	1.898700E-17
1.960000E+03	4.599419E-17	1.847938E-17
2.000000E+03	4.584889E-17	1.799481E-17
2.040000E+03	4.579203E-17	1.753731E-17
2.080000E+03	4.583041E-17	1.710697E-17
2.120000E+03	4.598300E-17	1.670790E-17
2.160000E+03	4.626311E-17	1.634136E-17
2.200000E+03	4.668147E-17	1.600706E-17
2.240000E+03	4.725235E-17	1.570531E-17
2.280000E+03	4.799658E-17	1.543781E-17
2.320000E+03	4.892394E-17	1.520173E-17
2.360000E+03	5.004810E-17	1.499488E-17
2.400000E+03	5.138083E-17	1.481371E-17
2.440000E+03	5.293216E-17	1.465355E-17
2.480000E+03	5.471041E-17	1.450867E-17
2.520000E+03	5.673756E-17	1.437631E-17
2.560000E+03	5.902531E-17	1.425013E-17
2.600000E+03	6.159962E-17	1.412644E-17
2.640000E+03	6.448277E-17	1.399953E-17
2.680000E+03	6.771240E-17	1.386580E-17
2.720000E+03	7.132344E-17	1.371945E-17
2.760000E+03	7.536451E-17	1.355570E-17
2.800000E+03	7.988932E-17	1.336861E-17
2.840000E+03	8.496421E-17	1.315218E-17
2.880000E+03	9.065952E-17	1.289861E-17
2.920000E+03	9.706425E-17	1.260039E-17
2.960000E+03	1.042779E-16	1.224879E-17
3.000000E+03	1.124086E-16	1.183390E-17
3.010000E+03	1.145945E-16	1.171871E-17
3.020000E+03	1.168491E-16	1.159901E-17
3.030000E+03	1.191705E-16	1.147423E-17
3.040000E+03	1.215638E-16	1.134457E-17
3.050000E+03	1.240271E-16	1.120950E-17
3.060000E+03	1.265621E-16	1.106889E-17
3.070000E+03	1.291705E-16	1.092263E-17
3.080000E+03	1.318578E-16	1.077094E-17
3.090000E+03	1.346260E-16	1.061373E-17
3.100000E+03	1.374733E-16	1.045066E-17
3.110000E+03	1.404016E-16	1.028174E-17
3.120000E+03	1.434130E-16	1.010701E-17
3.130000E+03	1.465135E-16	9.926837E-18
3.140000E+03	1.496974E-16	9.740842E-18
3.150000E+03	1.529749E-16	9.549750E-18
3.160000E+03	1.563444E-16	9.353583E-18
3.170000E+03	1.598083E-16	9.152701E-18
3.180000E+03	1.633649E-16	8.947337E-18
3.190000E+03	1.670248E-16	8.738488E-18
3.200000E+03	1.707826E-16	8.526385E-18
3.210000E+03	1.746408E-16	8.311836E-18
3.220000E+03	1.786021E-16	8.095781E-18
3.230000E+03	1.826733E-16	7.879485E-18
3.240000E+03	1.868491E-16	7.663810E-18
3.250000E+03	1.911407E-16	7.450489E-18
3.260000E+03	1.955384E-16	7.240545E-18
3.270000E+03	2.000538E-16	7.035958E-18
3.280000E+03	2.046858E-16	6.838297E-18
3.290000E+03	2.094378E-16	6.649317E-18
3.300000E+03	2.143130E-16	6.470716E-18
3.310000E+03	2.193104E-16	6.303922E-18
3.320000E+03	2.244328E-16	6.150267E-18
3.330000E+03	2.296822E-16	6.010766E-18
3.340000E+03	2.350595E-16	5.886049E-18
3.350000E+03	2.405592E-16	5.776225E-18
3.360000E+03	2.461784E-16	5.681099E-18
3.370000E+03	2.519072E-16	5.599982E-18
3.380000E+03	2.577476E-16	5.532156E-18
3.390000E+03	2.636810E-16	5.476213E-18
3.400000E+03	2.696912E-16	5.430667E-18
3.410000E+03	2.757755E-16	5.394206E-18
3.420000E+03	2.819108E-16	5.365093E-18
3.430000E+03	2.880881E-16	5.341905E-18
3.440000E+03	2.942832E-16	5.323032E-18
3.450000E+03	3.004918E-16	5.307370E-18
3.460000E+03	3.066898E-16	5.293636E-18
3.470000E+03	3.128681E-16	5.281038E-18
3.480000E+03	3.190080E-16	5.268862E-18
3.490000E+03	3.251010E-16	5.256852E-18
3.500000E+03	3.311292E-16	5.244875E-18
3.510000E+03	3.370805E-16	5.233194E-18
3.520000E+03	3.429438E-16	5.222376E-18
3.530000E+03	3.487093E-16	5.213275E-18
3.540000E+03	3.543690E-16	5.207016E-18
3.547030E+03	3.653789E-16	1.235695E-16
3.548500E+03	3.615769E-16	1.180792E-16
3.549970E+03	3.552354E-16	1.173448E-16
3.551440E+03	3.512718E-16	1.174183E-16
3.552910E+03	3.466976E-16	1.152501E-16
3.554380E+03	3.496676E-16	1.109820E-16
3.555850E+03	3.497632E-16	9.974848E-17
3.557320E+03	3.534930E-16	9.988594E-17
3.558790E+03	3.571520E-16	1.011716E-16
3.560260E+03	3.589852E-16	1.018498E-16
3.561730E+03	3.606834E-16	1.022740E-16
3.563200E+03	3.607637E-16	1.022748E-16
3.564670E+03	3.620122E-16	9.380241E-17
3.566140E+03	3.565701E-16	9.853652E-17
3.567610E+03	3.593345E-16	9.859547E-17
3.569080E+03	3.626802E-16	9.507053E-17
3.570550E+03	3.594884E-16	9.479489E-17
3.572020E+03	3.618048E-16	9.559720E-17
3.573490E+03	3.702987E-16	1.028160E-16
3.574960E+03	3.731165E-16	1.027087E-16
3.576430E+03	3.791845E-16	1.042080E-16
3.577900E+03	3.852570E-16	1.035881E-16
3.579370E+03	3.935604E-16	1.028246E-16
3.580840E+03	3.947026E-16	9.966586E-17
3.582310E+03	3.911578E-16	9.884772E-17
3.583780E+03	3.841573E-16	9.668368E-17
3.585250E+03	3.745957E-16	9.610662E-17
3.586720E+03	3.703130E-16	9.133030E-17
3.588190E+03	3.714731E-16	9.328177E-17
3.589660E+03	3.724123E-16	9.731120E-17
3.591130E+03	3.704643E-16	9.412140E-17
3.592600E+03	3.688435E-16	9.411435E-17
3.594070E+03	3.672539E-16	9.402593E-17
3.595540E+03	3.648588E-16	9.421870E-17
3.597010E+03	3.671666E-16	1.011377E-16
3.598480E+03	3.713841E-16	1.033175E-16
3.599950E+03	3.737073E-16	1.037895E-16
3.601420E+03	3.766372E-16	1.082274E-16
3.602890E+03	3.749969E-16	1.083044E-16
3.604360E+03	3.705755E-16	1.068662E-16
3.605830E+03	3.664274E-16	1.075341E-16
3.607300E+03	3.661747E-16	1.076912E-16
3.608770E+03	3.656354E-16	1.074081E-16
3.610240E+03	3.621735E-16	1.061275E-16
3.611710E+03	3.599110E-16	1.056456E-16
3.613180E+03	3.590194E-16	1.049973E-16
3.614650E+03	3.611174E-16	1.051587E-16
3.616120E+03	3.601308E-16	9.955204E-17
3.617590E+03	3.594633E-16	9.964029E-17
3.619060E+03	3.546952E-16	9.915478E-17
3.620530E+03	3.534829E-16	9.782497E-17
3.622000E+03	3.485821E-16	1.016598E-16
3.623470E+03	3.461307E-16	9.841093E-17
3.624940E+03	3.414486E-16	9.875773E-17
3.626410E+03	3.413519E-16	9.611301E-17
3.627880E+03	3.402415E-16	9.602141E-17
3.629350E+03	3.358843E-16	1.001046E-16
3.630820E+03	3.344408E-16	1.000231E-16
3.632290E+03	3.329539E-16	1.001224E-16
3.633760E+03	3.337435E-16	9.553116E-17
3.635230E+03	3.343845E-16	9.520342E-17
3.636700E+03	3.333359E-16	9.452998E-17
3.638170E+03	3.368252E-16	9.410843E-17
3.639640E+03	3.366022E-16	9.027696E-17
3.641110E+03	3.345156E-16	9.223396E-17
3.642580E+03	3.345604E-16	9.444012E-17
3.644050E+03	3.349165E-16	9.992151E-17
3.645520E+03	3.338470E-16	1.018495E-16
3.646990E+03	3.359957E-16	9.339713E-17
3.648460E+03	3.363220E-16	8.989781E-17
3.649930E+03	3.374329E-16	8.974308E-17
3.651400E+03	3.382121E-16	8.504791E-17
3.652870E+03	3.390676E-16	8.558975E-17
3.654340E+03	3.376560E-16	8.568376E-17
3.655810E+03	3.387603E-16	8.418577E-17
3.657280E+03	3.396723E-16	8.656372E-17
3.658750E+03	3.364741E-16	8.526148E-17
3.660220E+03	3.325846E-16	8.484151E-17
3.661690E+03	3.336905E-16	8.498083E-17
3.663160E+03	3.357030E-16	8.505002E-17
3.664630E+03	3.371678E-16	8.486145E-17
3.666100E+03	3.328534E-16	8.475815E-17
3.667570E+03	3.281582E-16	8.461692E-17
3.669040E+03	3.271081E-16	8.546905E-17
3.670510E+03	3.265003E-16	8.572917E-17
3.671980E+03	3.266594E-16	7.953680E-17
3.673450E+03	3.290564E-16	7.781514E-17
3.674920E+03	3.305585E-16	7.671851E-17
3.676390E+03	3.326031E-16	7.697669E-17
3.677860E+03	3.332648E-16	7.913794E-17
3.679330E+03	3.332563E-16	7.463936E-17
3.680800E+03	3.305839E-16	7.465139E-17
3.682270E+03	3.287764E-16	7.580211E-17
3.683740E+03	3.325290E-16	7.633544E-17
3.685210E+03	3.329342E-16	7.948854E-17
3.686680E+03	3.345771E-16	7.972217E-17
3.688150E+03	3.338338E-16	8.000797E-17
3.689620E+03	3.311792E-16	8.178913E-17
3.691090E+03	3.303153E-16	7.925852E-17
3.692560E+03	3.302553E-16	7.707017E-17
3.694030E+03	3.283038E-16	6.974575E-17
3.695500E+03	3.255459E-16	6.592093E-17
3.696970E+03	3.183347E-16	6.696297E-17
3.698440E+03	3.130556E-16	6.696531E-17
3.699910E+03	3.092318E-16	6.692635E-17
3.701380E+03	3.076720E-16	6.677365E-17
3.702850E+03	3.052497E-16	6.817019E-17
3.704320E+03	3.031312E-16	6.928720E-17
3.705790E+03	2.983919E-16	6.965944E-17
3.707260E+03	2.957996E-16	6.796948E-17
3.708730E+03	2.903653E-16	6.598379E-17
3.710200E+03	2.888825E-16	6.661772E-17
3.711670E+03	2.877485E-16	6.871232E-17
3.713140E+03	2.849513E-16	6.864775E-17
3.714610E+03	2.848112E-16	6.890060E-17
3.716080E+03	2.853501E-16	6.955704E-17
3.717550E+03	2.862734E-16	6.960163E-17
3.719020E+03	2.877131E-16	7.598463E-17
3.720490E+03	2.879265E-16	7.662602E-17
3.721960E+03	2.940423E-16	7.972243E-17
3.723430E+03	2.999228E-16	7.663447E-17
3.724900E+03	2.996825E-16	7.489510E-17
3.726370E+03	3.035839E-16	7.430605E-17
3.727840E+03	3.064673E-16	7.117142E-17
3.729310E+03	3.059452E-16	7.074016E-17
3.730780E+03	3.056211E-16	7.100951E-17
3.732250E+03	3.064968E-16	7.097409E-17
3.733720E+03	3.073628E-16	7.085603E-17
3.735190E+03	3.090785E-16	6.860449E-17
3.736660E+03	3.107412E-16	6.744735E-17
3.738130E+03	3.134427E-16	6.565064E-17
3.739600E+03	3.151211E-16	6.429983E-17
3.741070E+03	3.175524E-16	6.607188E-17
3.742540E+03	3.237418E-16	6.676461E-17
3.744010E+03	3.321481E-16	6.847734E-17
3.745480E+03	3.393914E-16	6.883312E-17
3.746950E+03	3.467198E-16	6.820824E-17
3.748420E+03	3.539788E-16	6.826608E-17
3.749890E+03	3.600165E-16	6.909594E-17
3.751360E+03	3.676008E-16	6.938778E-17
3.752830E+03	3.730763E-16	6.967191E-17
3.754300E+03	3.811641E-16	6.849016E-17
3.755770E+03	3.920570E-16	6.680109E-17
3.757240E+03	3.991982E-16	6.665913E-17
3.758710E+03	4.064919E-16	6.817658E-17
3.760180E+03	4.143604E-16	6.925164E-17
3.761650E+03	4.205255E-16	6.802476E-17
3.763120E+03	4.293231E-16	6.850011E-17
3.764590E+03	4.373847E-16	7.326403E-17
3.766060E+03	4.452550E-16	7.345538E-17
3.767530E+03	4.553070E-16	7.381769E-17
3.769000E+03	4.641105E-16	6.614150E-17
3.770470E+03	4.713625E-16	6.547277E-17
3.771940E+03	4.783996E-16	6.250075E-17
3.773410E+03	4.912400E-16	6.516747E-17
3.774880E+03	4.978162E-16	6.645159E-17
3.776350E+03	5.031816E-16	6.652006E-17
3.777820E+03	5.094371E-16	6.899122E-17
3.779290E+03	5.157671E-16	7.050813E-17
3.780760E+03	5.215224E-16	7.151754E-17
3.782230E+03	5.284160E-16	7.119416E-17
3.783700E+03	5.353515E-16	7.062996E-17
3.785170E+03	5.431811E-16	7.020884E-17
3.786640E+03	5.506833E-16	7.023544E-17
3.788110E+03	5.559266E-16	7.038049E-17
3.789580E+03	5.573234E-16	7.117783E-17
3.791050E+03	5.593180E-16	6.999922E-17
3.792520E+03	5.604495E-16	7.036391E-17
3.793990E+03	5.608853E-16	6.892959E-17
3.795460E+03	5.621891E-16	6.890715E-17
3.796930E+03	5.645313E-16	6.894605E-17
3.798400E+03	5.656256E-16	6.983330E-17
3.799870E+03	5.659775E-16	7.021018E-17
3.801340E+03	5.658113E-16	7.055295E-17
3.802810E+03	5.675761E-16	6.896722E-17
3.804280E+03	5.689029E-16	7.012391E-17
3.805750E+03	5.689885E-16	7.041199E-17
3.807220E+03	5.669938E-16	7.044404E-17
3.808690E+03	5.642733E-16	6.896014E-17
3.810160E+03	5.627503E-16	6.729127E-17
3.811630E+03	5.623022E-16	6.661078E-17
3.813100E+03	5.607661E-16	7.008707E-17
3.814570E+03	5.590812E-16	6.462567E-17
3.816040E+03	5.567935E-16	6.394302E-17
3.817510E+03	5.530502E-16	6.670193E-17
3.818980E+03	5.535635E-16	6.673939E-17
3.820450E+03	5.547031E-16	6.610528E-17
3.821920E+03	5.506464E-16	6.600393E-17
3.823390E+03	5.468244E-16	6.427441E-17
3.824860E+03	5.453556E-16	6.470531E-17
3.826330E+03	5.426550E-16	6.465256E-17
3.827800E+03	5.392220E-16	6.336467E-17
3.829270E+03	5.356371E-16	6.186213E-17
3.830740E+03	5.309297E-16	6.107124E-17
3.832210E+03	5.283644E-16	6.108136E-17
3.833680E+03	5.259564E-16	6.140015E-17
3.835150E+03	5.199898E-16	6.242588E-17
3.836620E+03	5.141538E-16	6.272715E-17
3.838090E+03	5.077388E-16	6.363629E-17
3.839560E+03	4.998733E-16	6.642533E-17
3.841030E+03	4.923539E-16	6.581529E-17
3.842500E+03	4.850783E-16	6.472730E-17
3.843970E+03	4.764402E-16	6.442745E-17
3.845440E+03	4.688943E-16	6.449168E-17
3.846910E+03	4.603401E-16	6.433316E-17
3.848380E+03	4.514311E-16	6.348483E-17
3.849850E+03	4.415223E-16	6.192341E-17
3.851320E+03	4.335471E-16	6.138068E-17
3.852790E+03	4.267948E-16	6.138136E-17
3.854260E+03	4.187208E-16	6.027112E-17
3.855730E+03	4.097494E-16	6.007663E-17
3.857200E+03	4.016789E-16	6.022997E-17
3.858670E+03	3.955614E-16	6.017244E-17
3.860140E+03	3.887782E-16	6.043649E-17
3.861610E+03	3.819061E-16	6.095702E-17
3.863080E+03	3.747481E-16	5.816011E-17
3.864550E+03	3.695375E-16	5.811806E-17
3.866020E+03	3.651428E-16	5.731240E-17
3.867490E+03	3.605691E-16	5.392780E-17
3.868960E+03	3.552247E-16	5.620698E-17
3.870430E+03	3.472636E-16	5.786223E-17
3.871900E+03	3.424852E-16	5.782325E-17
3.873370E+03	3.360401E-16	5.638395E-17
3.874840E+03	3.288433E-16	5.503948E-17
3.876310E+03	3.222192E-16	5.550089E-17
3.877780E+03	3.152612E-16	5.305205E-17
3.879250E+03	3.084577E-16	5.209623E-17
3.880720E+03	3.009003E-16	5.170864E-17
3.882190E+03	2.967845E-16	5.130163E-17
3.883660E+03	2.919521E-16	5.176733E-17
3.885130E+03	2.890516E-16	5.322882E-17
3.886600E+03	2.857387E-16	5.322928E-17
3.888070E+03	2.829127E-16	5.216903E-17
3.889540E+03	2.823052E-16	4.490160E-17
3.891010E+03	2.802811E-16	4.497281E-17
3.892480E+03	2.761702E-16	4.497286E-17
3.893950E+03	2.736478E-16	4.511228E-17
3.895420E+03	2.717202E-16	4.484841E-17
3.896890E+03	2.701891E-16	4.563894E-17
3.898360E+03	2.688557E-16	4.566957E-17
3.899830E+03	2.664870E-16	4.602459E-17
3.901300E+03	2.654553E-16	4.599369E-17
3.902770E+03	2.642223E-16	4.624335E-17
3.904240E+03	2.647649E-16	4.591229E-17
3.905710E+03	2.647548E-16	4.562909E-17
3.907180E+03	2.636017E-16	4.515284E-17
3.908650E+03	2.633668E-16	4.515569E-17
3.910120E+03	2.625890E-16	4.587760E-17
3.911590E+03	2.631796E-16	4.440612E-17
3.913060E+03	2.659683E-16	4.213841E-17
3.914530E+03	2.682994E-16	4.131208E-17
3.916000E+03	2.708937E-16	4.326201E-17
3.917470E+03	2.747104E-16	4.322412E-17
3.918940E+03	2.779753E-16	4.368687E-17
3.920410E+03	2.814694E-16	4.026149E-17
3.921880E+03	2.847072E-16	4.185698E-17
3.923350E+03	2.901797E-16	4.170170E-17
3.924820E+03	2.934627E-16	4.060140E-17
3.926290E+03	2.993992E-16	4.101749E-17
3.927760E+03	3.078040E-16	4.428194E-17
3.929230E+03	3.119371E-16	4.458779E-17
3.930700E+03	3.168968E-16	4.395720E-17
3.932170E+03	3.231848E-16	4.547960E-17
3.933640E+03	3.301840E-16	4.523809E-17
3.935110E+03	3.381581E-16	4.271795E-17
3.936580E+03	3.457126E-16	4.246073E-17
3.938050E+03	3.522260E-16	4.239091E-17
3.939520E+03	3.562145E-16	4.292159E-17
3.940990E+03	3.621689E-16	4.278708E-17
3.942460E+03	3.693751E-16	4.313378E-17
3.943930E+03	3.767940E-16	4.366339E-17
3.945400E+03	3.845098E-16	4.376806E-17
3.946870E+03	3.920556E-16	4.347165E-17
3.948340E+03	3.991551E-16	4.366582E-17
3.949810E+03	4.060357E-16	4.554773E-17
3.951280E+03	4.132732E-16	4.682178E-17
3.952750E+03	4.200152E-16	4.669604E-17
3.954220E+03	4.259239E-16	4.669233E-17
3.955690E+03	4.316115E-16	4.671282E-17
3.957160E+03	4.388234E-16	4.672679E-17
3.958630E+03	4.451287E-16	4.684094E-17
3.960100E+03	4.524909E-16	4.612061E-17
3.961570E+03	4.607792E-16	4.649239E-17
3.963040E+03	4.698144E-16	4.661399E-17
3.964510E+03	4.774961E-16	4.663275E-17
3.965980E+03	4.841118E-16	4.505331E-17
3.967450E+03	4.907842E-16	4.512542E-17
3.968920E+03	5.000549E-16	4.211230E-17
3.970390E+03	5.083685E-16	4.181166E-17
3.971860E+03	5.154566E-16	4.156780E-17
3.973330E+03	5.252334E-16	4.314627E-17
3.974800E+03	5.345979E-16	4.329404E-17
3.976270E+03	5.422623E-16	4.327685E-17
3.977740E+03	5.495597E-16	4.039531E-17
3.979210E+03	5.566109E-16	4.033315E-17
3.980680E+03	5.633790E-16	4.397195E-17
3.982150E+03	5.702530E-16	4.447032E-17
3.983620E+03	5.772208E-16	4.447359E-17
3.985090E+03	5.823325E-16	4.367333E-17
3.986560E+03	5.870480E-16	4.503708E-17
3.988030E+03	5.930996E-16	4.532655E-17
3.989500E+03	6.008927E-16	4.459492E-17
3.990970E+03	6.090377E-16	4.445267E-17
3.992440E+03	6.154321E-16	4.437516E-17
3.993910E+03	6.207822E-16	4.391278E-17
3.995380E+03	6.265796E-16	4.415290E-17
3.996850E+03	6.321023E-16	4.398940E-17
3.998320E+03	6.371047E-16	4.386552E-17
3.999790E+03	6.431190E-16	4.196265E-17
4.001260E+03	6.490180E-16	4.080476E-17
4.002730E+03	6.532415E-16	4.089230E-17
4.004200E+03	6.575807E-16	4.076052E-17
4.005670E+03	6.616914E-16	4.056891E-17
4.007140E+03	6.660654E-16	4.062382E-17
4.008610E+03	6.693117E-16	4.061857E-17
4.010080E+03	6.703193E-16	4.007373E-17
4.011550E+03	6.728197E-16	3.971495E-17
4.013020E+03	6.755696E-16	3.987939E-17
4.014490E+03	6.772362E-16	4.057986E-17
4.015960E+03	6.805598E-16	4.035571E-17
4.017430E+03	6.839368E-16	4.063367E-17
4.018900E+03	6.832729E-16	4.009388E-17
4.020370E+03	6.829172E-16	4.020752E-17
4.021840E+03	6.864247E-16	4.060919E-17
4.023310E+03	6.896016E-16	3.961372E-17
4.024780E+03	6.899175E-16	4.074659E-17
4.026250E+03	6.919830E-16	4.054659E-17
4.027720E+03	6.943610E-16	4.069926E-17
4.029190E+03	6.948531E-16	4.064540E-17
4.030660E+03	6.963151E-16	3.737562E-17
4.032130E+03	6.990847E-16	3.467035E-17
4.033600E+03	7.001892E-16	3.395048E-17
4.035070E+03	7.017182E-16	3.371893E-17
4.036540E+03	7.004067E-16	3.189071E-17
4.038010E+03	7.000161E-16	3.338179E-17
4.039480E+03	6.990378E-16	3.463938E-17
4.040950E+03	6.981827E-16	3.466906E-17
4.042420E+03	6.978632E-16	3.542283E-17
4.043890E+03	6.984556E-16	3.517097E-17
4.045360E+03	6.983351E-16	3.530292E-17
4.046830E+03	6.974752E-16	3.503181E-17
4.048300E+03	6.982171E-16	3.581480E-17
4.049770E+03	6.974552E-16	3.574140E-17
4.051240E+03	6.966918E-16	3.567432E-17
4.052710E+03	6.967427E-16	3.650409E-17
4.054180E+03	6.958134E-16	3.647382E-17
4.055650E+03	6.928843E-16	3.688500E-17
4.057120E+03	6.910071E-16	3.768421E-17
4.058590E+03	6.892529E-16	3.809685E-17
4.060060E+03	6.872692E-16	3.806795E-17
4.061530E+03	6.851817E-16	3.923914E-17
4.063000E+03	6.842885E-16	3.919676E-17
4.064470E+03	6.822457E-16	3.847092E-17
4.065940E+03	6.789375E-16	4.005522E-17
4.067410E+03	6.769760E-16	4.067959E-17
4.068880E+03	6.752895E-16	4.132628E-17
4.070350E+03	6.705525E-16	4.221515E-17
4.071820E+03	6.653535E-16	4.378348E-17
4.073290E+03	6.628823E-16	4.374158E-17
4.074760E+03	6.604581E-16	4.433926E-17
4.076230E+03	6.579161E-16	4.432978E-17
4.077700E+03	6.541779E-16	4.549199E-17
4.079170E+03	6.507264E-16	4.569302E-17
4.080640E+03	6.486164E-16	4.504299E-17
4.082110E+03	6.460201E-16	4.626199E-17
4.083580E+03	6.443611E-16	4.877086E-17
4.085050E+03	6.419104E-16	4.875111E-17
4.086520E+03	6.380936E-16	4.892948E-17
4.087990E+03	6.347428E-16	4.865949E-17
4.089460E+03	6.308391E-16	4.795849E-17
4.090930E+03	6.283842E-16	4.800773E-17
4.092400E+03	6.255299E-16	4.749269E-17
4.093870E+03	6.228247E-16	4.865471E-17
4.095340E+03	6.213425E-16	4.892481E-17
4.096810E+03	6.190010E-16	4.940773E-17
4.098280E+03	6.164640E-16	4.957720E-17
4.099750E+03	6.140386E-16	4.983382E-17
4.101220E+03	6.116991E-16	4.982249E-17
4.102690E+03	6.100484E-16	4.928294E-17
4.104160E+03	6.085105E-16	4.960932E-17
4.105630E+03	6.060203E-16	4.932570E-17
4.107100E+03	6.047721E-16	5.062902E-17
4.108570E+03	6.042029E-16	5.079889E-17
4.110040E+03	6.046867E-16	5.113657E-17
4.111510E+03	6.052220E-16	5.055800E-17
4.112980E+03	6.045084E-16	5.054660E-17
4.114450E+03	6.043730E-16	5.211116E-17
4.115920E+03	6.054870E-16	5.113885E-17
4.117390E+03	6.063825E-16	5.044135E-17
4.118860E+03	6.070719E-16	5.119912E-17
4.120330E+03	6.078389E-16	5.114761E-17
4.121800E+03	6.110095E-16	4.903175E-17
4.123270E+03	6.139247E-16	4.921049E-17
4.124740E+03	6.145011E-16	4.720855E-17
4.126210E+03	6.152587E-16	4.731676E-17
4.127680E+03	6.159517E-16	4.646852E-17
4.129150E+03	6.183815E-16	4.629173E-17
4.130620E+03	6.221103E-16	4.740542E-17
4.132090E+03	6.257130E-16	4.606521E-17
4.133560E+03	6.291895E-16	4.274011E-17
4.135030E+03	6.312534E-16	4.321816E-17
4.136500E+03	6.336569E-16	4.275680E-17
4.137970E+03	6.370120E-16	4.222873E-17
4.139440E+03	6.409819E-16	4.208769E-17
4.140910E+03	6.450210E-16	4.238350E-17
4.142380E+03	6.478131E-16	4.238903E-17
4.143850E+03	6.504904E-16	4.199073E-17
4.145320E+03	6.543572E-16	4.140132E-17
4.146790E+03	6.584105E-16	4.238456E-17
4.148260E+03	6.606262E-16	4.129198E-17
4.149730E+03	6.639806E-16	4.081211E-17
4.151200E+03	6.671812E-16	4.091624E-17
4.152670E+03	6.693511E-16	4.106282E-17
4.154140E+03	6.725700E-16	4.080982E-17
4.155610E+03	6.754643E-16	4.076865E-17
4.157080E+03	6.776796E-16	4.038733E-17
4.158550E+03	6.788213E-16	3.979198E-17
4.160020E+03	6.794516E-16	3.924910E-17
4.161490E+03	6.812109E-16	3.926616E-17
4.162960E+03	6.827087E-16	3.935825E-17
4.164430E+03	6.848513E-16	3.828886E-17
4.165900E+03	6.875874E-16	3.833396E-17
