#wls	flux	fluxerr
1.600000E+03	8.051075E-18	3.831414E-18
1.640000E+03	8.005678E-18	3.751110E-18
1.680000E+03	7.969852E-18	3.674473E-18
1.720000E+03	7.941135E-18	3.600185E-18
1.760000E+03	7.924647E-18	3.530377E-18
1.800000E+03	7.915452E-18	3.462607E-18
1.840000E+03	7.921191E-18	3.399987E-18
1.880000E+03	7.936984E-18	3.340097E-18
1.920000E+03	7.965501E-18	3.283786E-18
1.960000E+03	8.006942E-18	3.230805E-18
2.000000E+03	8.064036E-18	3.181886E-18
2.040000E+03	8.137067E-18	3.136713E-18
2.080000E+03	8.226373E-18	3.094968E-18
2.120000E+03	8.334848E-18	3.057248E-18
2.160000E+03	8.460477E-18	3.022279E-18
2.200000E+03	8.606308E-18	2.990614E-18
2.240000E+03	8.775501E-18	2.962718E-18
2.280000E+03	8.966319E-18	2.937320E-18
2.320000E+03	9.182158E-18	2.914842E-18
2.360000E+03	9.426583E-18	2.895617E-18
2.400000E+03	9.700816E-18	2.879138E-18
2.440000E+03	1.000626E-17	2.864894E-18
2.480000E+03	1.034707E-17	2.853093E-18
2.520000E+03	1.072775E-17	2.843853E-18
2.560000E+03	1.115308E-17	2.837205E-18
2.600000E+03	1.162828E-17	2.833093E-18
2.640000E+03	1.215633E-17	2.830749E-18
2.680000E+03	1.274872E-17	2.831211E-18
2.720000E+03	1.340678E-17	2.832928E-18
2.760000E+03	1.414614E-17	2.837222E-18
2.800000E+03	1.497227E-17	2.842908E-18
2.840000E+03	1.589705E-17	2.849811E-18
2.880000E+03	1.693338E-17	2.857553E-18
2.920000E+03	1.809529E-17	2.865538E-18
2.960000E+03	1.940102E-17	2.873383E-18
3.000000E+03	2.087025E-17	2.880358E-18
3.010000E+03	2.126386E-17	2.881617E-18
3.020000E+03	2.166899E-17	2.882694E-18
3.030000E+03	2.208583E-17	2.883548E-18
3.040000E+03	2.251776E-17	2.884546E-18
3.050000E+03	2.296182E-17	2.885229E-18
3.060000E+03	2.341821E-17	2.885553E-18
3.070000E+03	2.388715E-17	2.885477E-18
3.080000E+03	2.436881E-17	2.884957E-18
3.090000E+03	2.486669E-17	2.884330E-18
3.100000E+03	2.538103E-17	2.883533E-18
3.110000E+03	2.590877E-17	2.882137E-18
3.120000E+03	2.645344E-17	2.880459E-18
3.130000E+03	2.701195E-17	2.878080E-18
3.140000E+03	2.758785E-17	2.875304E-18
3.150000E+03	2.818140E-17	2.872069E-18
3.160000E+03	2.879284E-17	2.868311E-18
3.170000E+03	2.941896E-17	2.863633E-18
3.180000E+03	3.006687E-17	2.858646E-18
3.190000E+03	3.072987E-17	2.852625E-18
3.200000E+03	3.141516E-17	2.846161E-18
3.210000E+03	3.211948E-17	2.838865E-18
3.220000E+03	3.284658E-17	2.830985E-18
3.230000E+03	3.358957E-17	2.821846E-18
3.240000E+03	3.435578E-17	2.812003E-18
3.250000E+03	3.514545E-17	2.801388E-18
3.260000E+03	3.595517E-17	2.789657E-18
3.270000E+03	3.678875E-17	2.777047E-18
3.280000E+03	3.764642E-17	2.763507E-18
3.290000E+03	3.852465E-17	2.748728E-18
3.300000E+03	3.942730E-17	2.732952E-18
3.310000E+03	4.035832E-17	2.716410E-18
3.320000E+03	4.131034E-17	2.698574E-18
3.330000E+03	4.229110E-17	2.679948E-18
3.340000E+03	4.329696E-17	2.660292E-18
3.350000E+03	4.432805E-17	2.639641E-18
3.360000E+03	4.538839E-17	2.618271E-18
3.370000E+03	4.647425E-17	2.596018E-18
3.380000E+03	4.758970E-17	2.573189E-18
3.390000E+03	4.873092E-17	2.549677E-18
3.400000E+03	4.990603E-17	2.526024E-18
3.410000E+03	5.110720E-17	2.501963E-18
3.420000E+03	5.233859E-17	2.477866E-18
3.430000E+03	5.360443E-17	2.454100E-18
3.440000E+03	5.489677E-17	2.430483E-18
3.450000E+03	5.622399E-17	2.407594E-18
3.460000E+03	5.758222E-17	2.385468E-18
3.470000E+03	5.897589E-17	2.364506E-18
3.480000E+03	6.040119E-17	2.344771E-18
3.490000E+03	6.186269E-17	2.326665E-18
3.500000E+03	6.336092E-17	2.310419E-18
3.510000E+03	6.489221E-17	2.296110E-18
3.520000E+03	6.646584E-17	2.284264E-18
3.530000E+03	6.807417E-17	2.274792E-18
3.540000E+03	6.972691E-17	2.268175E-18
3.550000E+03	7.142115E-17	2.264434E-18
3.560000E+03	7.315847E-17	2.263707E-18
3.570000E+03	7.494075E-17	2.266097E-18
3.580000E+03	7.677455E-17	2.271798E-18
3.590000E+03	7.866229E-17	2.280827E-18
3.600000E+03	8.060661E-17	2.293155E-18
3.610000E+03	8.260587E-17	2.308579E-18
3.620000E+03	8.466755E-17	2.327109E-18
3.630000E+03	8.679490E-17	2.348601E-18
3.640000E+03	8.899601E-17	2.373013E-18
3.650000E+03	9.126545E-17	2.399932E-18
3.660000E+03	9.361641E-17	2.429440E-18
3.670000E+03	9.605324E-17	2.461388E-18
3.680000E+03	9.857574E-17	2.495530E-18
3.690000E+03	1.011885E-16	2.531765E-18
3.700000E+03	1.039055E-16	2.570252E-18
3.710000E+03	1.067268E-16	2.610816E-18
3.720000E+03	1.096516E-16	2.653307E-18
3.730000E+03	1.126935E-16	2.697957E-18
3.740000E+03	1.158461E-16	2.744552E-18
3.750000E+03	1.191221E-16	2.793382E-18
3.760000E+03	1.225237E-16	2.844533E-18
3.770000E+03	1.260479E-16	2.898012E-18
3.780000E+03	1.296962E-16	2.953974E-18
3.790000E+03	1.334752E-16	3.012730E-18
3.800000E+03	1.373869E-16	3.074499E-18
3.810000E+03	1.414337E-16	3.139517E-18
3.820000E+03	1.456134E-16	3.207905E-18
3.830000E+03	1.499404E-16	3.280115E-18
3.840000E+03	1.544090E-16	3.356082E-18
3.850000E+03	1.590298E-16	3.436028E-18
3.860000E+03	1.638081E-16	3.519964E-18
3.870000E+03	1.687544E-16	3.607898E-18
3.880000E+03	1.738608E-16	3.699341E-18
3.890000E+03	1.791335E-16	3.794023E-18
3.900000E+03	1.845760E-16	3.891545E-18
3.910000E+03	1.901760E-16	3.991175E-18
3.920000E+03	1.959168E-16	4.092120E-18
3.930000E+03	2.017945E-16	4.193950E-18
3.940000E+03	2.077823E-16	4.295886E-18
3.950000E+03	2.138540E-16	4.397315E-18
3.960000E+03	2.199716E-16	4.497551E-18
3.970000E+03	2.261101E-16	4.596330E-18
3.980000E+03	2.322139E-16	4.692884E-18
3.990000E+03	2.382478E-16	4.786923E-18
4.000000E+03	2.441476E-16	4.877552E-18
4.010000E+03	2.498595E-16	4.964001E-18
4.020000E+03	2.553361E-16	5.045478E-18
4.030000E+03	2.605189E-16	5.120791E-18
4.040000E+03	2.653668E-16	5.188894E-18
4.050000E+03	2.698248E-16	5.248292E-18
4.060000E+03	2.738646E-16	5.297873E-18
4.070000E+03	2.774591E-16	5.336456E-18
4.080000E+03	2.805892E-16	5.362994E-18
4.090000E+03	2.832367E-16	5.376506E-18
4.100000E+03	2.853906E-16	5.376267E-18
4.110000E+03	2.870654E-16	5.362193E-18
4.120000E+03	2.882625E-16	5.334138E-18
4.130000E+03	2.889829E-16	5.292156E-18
4.140000E+03	2.892578E-16	5.237044E-18
4.150000E+03	2.891057E-16	5.169516E-18
4.160000E+03	2.885565E-16	5.090610E-18
4.170000E+03	2.876344E-16	5.001343E-18
4.180000E+03	2.863923E-16	4.903268E-18
4.190000E+03	2.848654E-16	4.797627E-18
4.200000E+03	2.831108E-16	4.685997E-18
4.210000E+03	2.811782E-16	4.569767E-18
4.220000E+03	2.791212E-16	4.450288E-18
4.230000E+03	2.770052E-16	4.328981E-18
4.240000E+03	2.748860E-16	4.206956E-18
4.250000E+03	2.728231E-16	4.085235E-18
4.260000E+03	2.708638E-16	3.964541E-18
4.270000E+03	2.690700E-16	3.845743E-18
4.280000E+03	2.674831E-16	3.729403E-18
4.290000E+03	2.661330E-16	3.615999E-18
4.300000E+03	2.650590E-16	3.506289E-18
4.310000E+03	2.642732E-16	3.400904E-18
4.320000E+03	2.637914E-16	3.300871E-18
4.330000E+03	2.636072E-16	3.207382E-18
4.340000E+03	2.637171E-16	3.122209E-18
4.350000E+03	2.641046E-16	3.047540E-18
4.360000E+03	2.647400E-16	2.985968E-18
4.370000E+03	2.655858E-16	2.940440E-18
4.380000E+03	2.666093E-16	2.914140E-18
4.390000E+03	2.677575E-16	2.909719E-18
4.400000E+03	2.690199E-16	2.927182E-18
4.410000E+03	2.704238E-16	2.963893E-18
4.420000E+03	2.719932E-16	3.016708E-18
4.430000E+03	2.737477E-16	3.082444E-18
4.440000E+03	2.757154E-16	3.158322E-18
4.450000E+03	2.779174E-16	3.241995E-18
4.460000E+03	2.803837E-16	3.331818E-18
4.470000E+03	2.831450E-16	3.426756E-18
4.480000E+03	2.862176E-16	3.526121E-18
4.490000E+03	2.896315E-16	3.629782E-18
4.500000E+03	2.933989E-16	3.737597E-18
4.510000E+03	2.975379E-16	3.849528E-18
4.520000E+03	3.020547E-16	3.965287E-18
4.530000E+03	3.069457E-16	4.084330E-18
4.540000E+03	3.121881E-16	4.205766E-18
4.550000E+03	3.177660E-16	4.328781E-18
4.560000E+03	3.236360E-16	4.452255E-18
4.570000E+03	3.297508E-16	4.575164E-18
4.580000E+03	3.360451E-16	4.696437E-18
4.590000E+03	3.424529E-16	4.815225E-18
4.600000E+03	3.489061E-16	4.930878E-18
4.610000E+03	3.553173E-16	5.042646E-18
4.620000E+03	3.616195E-16	5.150173E-18
4.630000E+03	3.677283E-16	5.252864E-18
4.640000E+03	3.735869E-16	5.350450E-18
4.650000E+03	3.791309E-16	5.442468E-18
4.660000E+03	3.843193E-16	5.528722E-18
4.670000E+03	3.891157E-16	5.609031E-18
4.680000E+03	3.935018E-16	5.683460E-18
4.690000E+03	3.974660E-16	5.752178E-18
4.700000E+03	4.010345E-16	5.815924E-18
4.710000E+03	4.042186E-16	5.875263E-18
4.720000E+03	4.070749E-16	5.931474E-18
4.730000E+03	4.096467E-16	5.985686E-18
4.740000E+03	4.120046E-16	6.039465E-18
4.750000E+03	4.142128E-16	6.094263E-18
4.760000E+03	4.163516E-16	6.151690E-18
4.770000E+03	4.184951E-16	6.213114E-18
4.780000E+03	4.206979E-16	6.279358E-18
4.790000E+03	4.230302E-16	6.351125E-18
4.800000E+03	4.255245E-16	6.428122E-18
4.810000E+03	4.282075E-16	6.509490E-18
4.820000E+03	4.310892E-16	6.593694E-18
4.830000E+03	4.341457E-16	6.678448E-18
4.840000E+03	4.373446E-16	6.761350E-18
4.850000E+03	4.406339E-16	6.839965E-18
4.860000E+03	4.439538E-16	6.912180E-18
4.870000E+03	4.472302E-16	6.976203E-18
4.880000E+03	4.503859E-16	7.030771E-18
4.890000E+03	4.533343E-16	7.075015E-18
4.900000E+03	4.559868E-16	7.108487E-18
4.910000E+03	4.582613E-16	7.131151E-18
4.920000E+03	4.600771E-16	7.143122E-18
4.930000E+03	4.613676E-16	7.144692E-18
4.940000E+03	4.620703E-16	7.136024E-18
4.950000E+03	4.621520E-16	7.117486E-18
4.960000E+03	4.615774E-16	7.089160E-18
4.970000E+03	4.603513E-16	7.051501E-18
4.980000E+03	4.584758E-16	7.004709E-18
4.990000E+03	4.559725E-16	6.949086E-18
5.000000E+03	4.528798E-16	6.885026E-18
5.010000E+03	4.492459E-16	6.812968E-18
5.020000E+03	4.451176E-16	6.733281E-18
5.030000E+03	4.405605E-16	6.646636E-18
5.040000E+03	4.356311E-16	6.553646E-18
5.050000E+03	4.303984E-16	6.455234E-18
5.060000E+03	4.249348E-16	6.352512E-18
5.070000E+03	4.193076E-16	6.246642E-18
5.080000E+03	4.136001E-16	6.139105E-18
5.090000E+03	4.078856E-16	6.031268E-18
5.100000E+03	4.022516E-16	5.924668E-18
5.110000E+03	3.967733E-16	5.820579E-18
5.120000E+03	3.915321E-16	5.720248E-18
5.130000E+03	3.866045E-16	5.624749E-18
5.140000E+03	3.820520E-16	5.534873E-18
5.150000E+03	3.779376E-16	5.451420E-18
5.160000E+03	3.743016E-16	5.374897E-18
5.170000E+03	3.711791E-16	5.305822E-18
5.180000E+03	3.685918E-16	5.244620E-18
5.190000E+03	3.665409E-16	5.191513E-18
5.200000E+03	3.650258E-16	5.146749E-18
5.210000E+03	3.640234E-16	5.110256E-18
5.220000E+03	3.635116E-16	5.081910E-18
5.230000E+03	3.634462E-16	5.061146E-18
5.240000E+03	3.637921E-16	5.047331E-18
5.250000E+03	3.645078E-16	5.039512E-18
5.260000E+03	3.655400E-16	5.036333E-18
5.270000E+03	3.668507E-16	5.036430E-18
5.280000E+03	3.683961E-16	5.038209E-18
5.290000E+03	3.701382E-16	5.040098E-18
5.300000E+03	3.720331E-16	5.040477E-18
5.310000E+03	3.740420E-16	5.037895E-18
5.320000E+03	3.761341E-16	5.031157E-18
5.330000E+03	3.782717E-16	5.019150E-18
5.340000E+03	3.804133E-16	5.000921E-18
5.350000E+03	3.825255E-16	4.975849E-18
5.360000E+03	3.845718E-16	4.943522E-18
5.370000E+03	3.865174E-16	4.903824E-18
5.380000E+03	3.883340E-16	4.857013E-18
5.390000E+03	3.899929E-16	4.803646E-18
5.400000E+03	3.914698E-16	4.744646E-18
5.410000E+03	3.927457E-16	4.681307E-18
5.420000E+03	3.938110E-16	4.615350E-18
5.430000E+03	3.946546E-16	4.548806E-18
5.440000E+03	3.952756E-16	4.484168E-18
5.450000E+03	3.956876E-16	4.424403E-18
5.460000E+03	3.958948E-16	4.372605E-18
5.470000E+03	3.959184E-16	4.332151E-18
5.480000E+03	3.957801E-16	4.306306E-18
5.490000E+03	3.955040E-16	4.297998E-18
5.500000E+03	3.951103E-16	4.308399E-18
5.510000E+03	3.946060E-16	4.334725E-18
5.520000E+03	3.939902E-16	4.373197E-18
5.530000E+03	3.932682E-16	4.420159E-18
5.540000E+03	3.924362E-16	4.472191E-18
5.550000E+03	3.914985E-16	4.526432E-18
5.560000E+03	3.904531E-16	4.580454E-18
5.570000E+03	3.893052E-16	4.632383E-18
5.580000E+03	3.880635E-16	4.680818E-18
5.590000E+03	3.867374E-16	4.724743E-18
5.600000E+03	3.853444E-16	4.763556E-18
5.610000E+03	3.839085E-16	4.797011E-18
5.620000E+03	3.824477E-16	4.825000E-18
5.630000E+03	3.809835E-16	4.847635E-18
5.640000E+03	3.795271E-16	4.865049E-18
5.650000E+03	3.781047E-16	4.877696E-18
5.660000E+03	3.767148E-16	4.885786E-18
5.670000E+03	3.753613E-16	4.889708E-18
5.680000E+03	3.740512E-16	4.889972E-18
5.690000E+03	3.727689E-16	4.886861E-18
5.700000E+03	3.715117E-16	4.880870E-18
5.710000E+03	3.702730E-16	4.872458E-18
5.720000E+03	3.690440E-16	4.862050E-18
5.730000E+03	3.678220E-16	4.850144E-18
5.740000E+03	3.666073E-16	4.837271E-18
5.750000E+03	3.653998E-16	4.823968E-18
5.760000E+03	3.642062E-16	4.810893E-18
5.770000E+03	3.630393E-16	4.798834E-18
5.780000E+03	3.618996E-16	4.788434E-18
5.790000E+03	3.608072E-16	4.780551E-18
5.800000E+03	3.597725E-16	4.775775E-18
5.810000E+03	3.588101E-16	4.774525E-18
5.820000E+03	3.579278E-16	4.776855E-18
5.830000E+03	3.571470E-16	4.782717E-18
5.840000E+03	3.564771E-16	4.791617E-18
5.850000E+03	3.559252E-16	4.802777E-18
5.860000E+03	3.554980E-16	4.815219E-18
5.870000E+03	3.551942E-16	4.827748E-18
5.880000E+03	3.550184E-16	4.839271E-18
5.890000E+03	3.549529E-16	4.848569E-18
5.900000E+03	3.549901E-16	4.854834E-18
5.910000E+03	3.551155E-16	4.857505E-18
5.920000E+03	3.553124E-16	4.856317E-18
5.930000E+03	3.555551E-16	4.851186E-18
5.940000E+03	3.558284E-16	4.842401E-18
5.950000E+03	3.561101E-16	4.830323E-18
5.960000E+03	3.563862E-16	4.815521E-18
5.970000E+03	3.566341E-16	4.798494E-18
5.980000E+03	3.568430E-16	4.779922E-18
5.990000E+03	3.569970E-16	4.760399E-18
6.000000E+03	3.570852E-16	4.740545E-18
6.010000E+03	3.570985E-16	4.720918E-18
6.020000E+03	3.570256E-16	4.701908E-18
6.030000E+03	3.568602E-16	4.683780E-18
6.040000E+03	3.565974E-16	4.666564E-18
6.050000E+03	3.562337E-16	4.650039E-18
6.060000E+03	3.557635E-16	4.633725E-18
6.070000E+03	3.551889E-16	4.617089E-18
6.080000E+03	3.545023E-16	4.599385E-18
6.090000E+03	3.537073E-16	4.579984E-18
6.100000E+03	3.528042E-16	4.558242E-18
6.110000E+03	3.517899E-16	4.533532E-18
6.120000E+03	3.506684E-16	4.505448E-18
6.130000E+03	3.494361E-16	4.473680E-18
6.140000E+03	3.480929E-16	4.438212E-18
6.150000E+03	3.466452E-16	4.399428E-18
6.160000E+03	3.450822E-16	4.357822E-18
6.170000E+03	3.434143E-16	4.314486E-18
6.180000E+03	3.416426E-16	4.270652E-18
6.190000E+03	3.397696E-16	4.227730E-18
6.200000E+03	3.377994E-16	4.187200E-18
6.210000E+03	3.357417E-16	4.150545E-18
6.220000E+03	3.336043E-16	4.119072E-18
6.230000E+03	3.313996E-16	4.093938E-18
6.240000E+03	3.291382E-16	4.076034E-18
6.250000E+03	3.268315E-16	4.065683E-18
6.260000E+03	3.245048E-16	4.062624E-18
6.270000E+03	3.221819E-16	4.066390E-18
6.280000E+03	3.198890E-16	4.076448E-18
6.290000E+03	3.176586E-16	4.092269E-18
6.300000E+03	3.155232E-16	4.113289E-18
6.310000E+03	3.135221E-16	4.139039E-18
6.320000E+03	3.116950E-16	4.169091E-18
6.330000E+03	3.100884E-16	4.203181E-18
6.340000E+03	3.087510E-16	4.241184E-18
6.350000E+03	3.077272E-16	4.283026E-18
6.360000E+03	3.070759E-16	4.328966E-18
6.370000E+03	3.068434E-16	4.379209E-18
6.380000E+03	3.070869E-16	4.434216E-18
6.390000E+03	3.078536E-16	4.494397E-18
6.400000E+03	3.091977E-16	4.560321E-18
6.410000E+03	3.111772E-16	4.632656E-18
6.420000E+03	3.138390E-16	4.711945E-18
6.430000E+03	3.172397E-16	4.798901E-18
6.440000E+03	3.214231E-16	4.894055E-18
6.450000E+03	3.264361E-16	4.997980E-18
6.460000E+03	3.323238E-16	5.111181E-18
6.470000E+03	3.391113E-16	5.233796E-18
6.480000E+03	3.468123E-16	5.365716E-18
6.490000E+03	3.554376E-16	5.506737E-18
6.500000E+03	3.649730E-16	5.656254E-18
6.510000E+03	3.753791E-16	5.813337E-18
6.520000E+03	3.865972E-16	5.976900E-18
6.530000E+03	3.985516E-16	6.145824E-18
6.540000E+03	4.111187E-16	6.318524E-18
6.550000E+03	4.241574E-16	6.493428E-18
6.560000E+03	4.374841E-16	6.668573E-18
6.570000E+03	4.509009E-16	6.841983E-18
6.580000E+03	4.641692E-16	7.011190E-18
6.590000E+03	4.770378E-16	7.173578E-18
6.600000E+03	4.892470E-16	7.326372E-18
6.610000E+03	5.005392E-16	7.466745E-18
6.620000E+03	5.106704E-16	7.591936E-18
6.630000E+03	5.194200E-16	7.699381E-18
6.640000E+03	5.266070E-16	7.786942E-18
6.650000E+03	5.320781E-16	7.852726E-18
6.660000E+03	5.357321E-16	7.895476E-18
6.670000E+03	5.375168E-16	7.914537E-18
6.680000E+03	5.374291E-16	7.909894E-18
6.690000E+03	5.355199E-16	7.882266E-18
6.700000E+03	5.318626E-16	7.832669E-18
6.710000E+03	5.265945E-16	7.763049E-18
6.720000E+03	5.198622E-16	7.675499E-18
6.730000E+03	5.118407E-16	7.572538E-18
6.740000E+03	5.027246E-16	7.456957E-18
6.750000E+03	4.926946E-16	7.331246E-18
6.760000E+03	4.819499E-16	7.197993E-18
6.770000E+03	4.706824E-16	7.059461E-18
6.780000E+03	4.590538E-16	6.917246E-18
6.790000E+03	4.472293E-16	6.772853E-18
6.800000E+03	4.353514E-16	6.627361E-18
6.810000E+03	4.235443E-16	6.481595E-18
6.820000E+03	4.119090E-16	6.336134E-18
6.830000E+03	4.005405E-16	6.191635E-18
6.840000E+03	3.895119E-16	6.048641E-18
6.850000E+03	3.788766E-16	5.907624E-18
6.860000E+03	3.686851E-16	5.769243E-18
6.870000E+03	3.589661E-16	5.634017E-18
6.880000E+03	3.497433E-16	5.502547E-18
6.890000E+03	3.410367E-16	5.375489E-18
6.900000E+03	3.328448E-16	5.253238E-18
6.910000E+03	3.251788E-16	5.136442E-18
6.920000E+03	3.180312E-16	5.025475E-18
6.930000E+03	3.113912E-16	4.920675E-18
6.940000E+03	3.052575E-16	4.822542E-18
6.950000E+03	2.996091E-16	4.731242E-18
6.960000E+03	2.944353E-16	4.647063E-18
6.970000E+03	2.897148E-16	4.570041E-18
6.980000E+03	2.854321E-16	4.500208E-18
6.990000E+03	2.815619E-16	4.437344E-18
7.000000E+03	2.780851E-16	4.381263E-18
7.010000E+03	2.749735E-16	4.331593E-18
7.020000E+03	2.722026E-16	4.287994E-18
7.030000E+03	2.697472E-16	4.250125E-18
7.040000E+03	2.675827E-16	4.217670E-18
7.050000E+03	2.656850E-16	4.190382E-18
7.060000E+03	2.640308E-16	4.168108E-18
7.070000E+03	2.625939E-16	4.150749E-18
7.080000E+03	2.613572E-16	4.138428E-18
7.090000E+03	2.603006E-16	4.131281E-18
7.100000E+03	2.594018E-16	4.129399E-18
7.110000E+03	2.586470E-16	4.132956E-18
7.120000E+03	2.580167E-16	4.141903E-18
7.130000E+03	2.574964E-16	4.156093E-18
7.140000E+03	2.570731E-16	4.175204E-18
7.150000E+03	2.567388E-16	4.198790E-18
7.160000E+03	2.564794E-16	4.226113E-18
7.170000E+03	2.562813E-16	4.256301E-18
7.180000E+03	2.561435E-16	4.288587E-18
7.190000E+03	2.560495E-16	4.321913E-18
7.200000E+03	2.559988E-16	4.355482E-18
7.210000E+03	2.559752E-16	4.388280E-18
7.220000E+03	2.559703E-16	4.419497E-18
7.230000E+03	2.559834E-16	4.448554E-18
7.240000E+03	2.559985E-16	4.474717E-18
7.250000E+03	2.560075E-16	4.497512E-18
7.260000E+03	2.560064E-16	4.516655E-18
7.270000E+03	2.559838E-16	4.531849E-18
7.280000E+03	2.559367E-16	4.543031E-18
7.290000E+03	2.558544E-16	4.550082E-18
7.300000E+03	2.557308E-16	4.553001E-18
7.310000E+03	2.555601E-16	4.551810E-18
7.320000E+03	2.553369E-16	4.546536E-18
7.330000E+03	2.550603E-16	4.537267E-18
7.340000E+03	2.547178E-16	4.523863E-18
7.350000E+03	2.543133E-16	4.506441E-18
7.360000E+03	2.538391E-16	4.484873E-18
7.370000E+03	2.532881E-16	4.458992E-18
7.380000E+03	2.526657E-16	4.428791E-18
7.390000E+03	2.519622E-16	4.393916E-18
7.400000E+03	2.511844E-16	4.354219E-18
7.410000E+03	2.503282E-16	4.309265E-18
7.420000E+03	2.493945E-16	4.258621E-18
7.430000E+03	2.483890E-16	4.201878E-18
7.440000E+03	2.473142E-16	4.138558E-18
7.450000E+03	2.461692E-16	4.068167E-18
7.460000E+03	2.449654E-16	3.990518E-18
7.470000E+03	2.437025E-16	3.905377E-18
7.480000E+03	2.423845E-16	3.812766E-18
7.490000E+03	2.410198E-16	3.712992E-18
7.500000E+03	2.396093E-16	3.606493E-18
7.510000E+03	2.381546E-16	3.494007E-18
7.520000E+03	2.366658E-16	3.376731E-18
7.530000E+03	2.351455E-16	3.256166E-18
7.540000E+03	2.336009E-16	3.134370E-18
7.550000E+03	2.320428E-16	3.014035E-18
7.560000E+03	2.304745E-16	2.898390E-18
7.570000E+03	2.289031E-16	2.791385E-18
7.580000E+03	2.273355E-16	2.697571E-18
7.590000E+03	2.257824E-16	2.621976E-18
7.600000E+03	2.242467E-16	2.569618E-18
7.610000E+03	2.227387E-16	2.545142E-18
7.620000E+03	2.212609E-16	2.551285E-18
7.630000E+03	2.198221E-16	2.586020E-18
7.640000E+03	2.184266E-16	2.645195E-18
7.650000E+03	2.170751E-16	2.724171E-18
7.660000E+03	2.157755E-16	2.818480E-18
7.670000E+03	2.145315E-16	2.924035E-18
7.680000E+03	2.133473E-16	3.037341E-18
7.690000E+03	2.122266E-16	3.155531E-18
7.700000E+03	2.111733E-16	3.276323E-18
7.710000E+03	2.101911E-16	3.397942E-18
7.720000E+03	2.092832E-16	3.519027E-18
7.730000E+03	2.084557E-16	3.638606E-18
7.740000E+03	2.077063E-16	3.755831E-18
7.750000E+03	2.070348E-16	3.870098E-18
7.760000E+03	2.064395E-16	3.980934E-18
