#wls	flux	fluxerr
1.600000E+03	5.271837E-18	2.590935E-18
1.640000E+03	5.333806E-18	2.585335E-18
1.680000E+03	5.397097E-18	2.578642E-18
1.720000E+03	5.468721E-18	2.574091E-18
1.760000E+03	5.544204E-18	2.569388E-18
1.800000E+03	5.623672E-18	2.564465E-18
1.840000E+03	5.711913E-18	2.561336E-18
1.880000E+03	5.804449E-18	2.557779E-18
1.920000E+03	5.906124E-18	2.555743E-18
1.960000E+03	6.012456E-18	2.553054E-18
2.000000E+03	6.128354E-18	2.551591E-18
2.040000E+03	6.251703E-18	2.550200E-18
2.080000E+03	6.385136E-18	2.549684E-18
2.120000E+03	6.526552E-18	2.548906E-18
2.160000E+03	6.681063E-18	2.549545E-18
2.200000E+03	6.844204E-18	2.549525E-18
2.240000E+03	7.021188E-18	2.550443E-18
2.280000E+03	7.210005E-18	2.551137E-18
2.320000E+03	7.416037E-18	2.553066E-18
2.360000E+03	7.634867E-18	2.554192E-18
2.400000E+03	7.869506E-18	2.555061E-18
2.440000E+03	8.120547E-18	2.555335E-18
2.480000E+03	8.388622E-18	2.554663E-18
2.520000E+03	8.674409E-18	2.552683E-18
2.560000E+03	8.978627E-18	2.549024E-18
2.600000E+03	9.302044E-18	2.543305E-18
2.640000E+03	9.648128E-18	2.535835E-18
2.680000E+03	1.001515E-17	2.525485E-18
2.720000E+03	1.040674E-17	2.512523E-18
2.760000E+03	1.082397E-17	2.496502E-18
2.800000E+03	1.126797E-17	2.476991E-18
2.840000E+03	1.173997E-17	2.453589E-18
2.880000E+03	1.224408E-17	2.426496E-18
2.920000E+03	1.278177E-17	2.395342E-18
2.960000E+03	1.335462E-17	2.359839E-18
3.000000E+03	1.397022E-17	2.320795E-18
3.010000E+03	1.413252E-17	2.310700E-18
3.020000E+03	1.429617E-17	2.300126E-18
3.030000E+03	1.446418E-17	2.289556E-18
3.040000E+03	1.463361E-17	2.278512E-18
3.050000E+03	1.480446E-17	2.267008E-18
3.060000E+03	1.498280E-17	2.255964E-18
3.070000E+03	1.516266E-17	2.244460E-18
3.080000E+03	1.534404E-17	2.232509E-18
3.090000E+03	1.553004E-17	2.220564E-18
3.100000E+03	1.572070E-17	2.208623E-18
3.110000E+03	1.591609E-17	2.196686E-18
3.120000E+03	1.611316E-17	2.184335E-18
3.130000E+03	1.631504E-17	2.172004E-18
3.140000E+03	1.652180E-17	2.159699E-18
3.150000E+03	1.673350E-17	2.147424E-18
3.160000E+03	1.694706E-17	2.134792E-18
3.170000E+03	1.716881E-17	2.122610E-18
3.180000E+03	1.739252E-17	2.110105E-18
3.190000E+03	1.762140E-17	2.097686E-18
3.200000E+03	1.785871E-17	2.085741E-18
3.210000E+03	1.809815E-17	2.073538E-18
3.220000E+03	1.834297E-17	2.061476E-18
3.230000E+03	1.859649E-17	2.049932E-18
3.240000E+03	1.885232E-17	2.038214E-18
3.250000E+03	1.911702E-17	2.027057E-18
3.260000E+03	1.938744E-17	2.016134E-18
3.270000E+03	1.966367E-17	2.005477E-18
3.280000E+03	1.994910E-17	1.995450E-18
3.290000E+03	2.024055E-17	1.985751E-18
3.300000E+03	2.053811E-17	1.976417E-18
3.310000E+03	2.084524E-17	1.967806E-18
3.320000E+03	2.116208E-17	1.959945E-18
3.330000E+03	2.148541E-17	1.952561E-18
3.340000E+03	2.181536E-17	1.945699E-18
3.350000E+03	2.215886E-17	1.940002E-18
3.360000E+03	2.250930E-17	1.934906E-18
3.370000E+03	2.287368E-17	1.931041E-18
3.380000E+03	2.324537E-17	1.927861E-18
3.390000E+03	2.362798E-17	1.925699E-18
3.400000E+03	2.402174E-17	1.924595E-18
3.410000E+03	2.442690E-17	1.924586E-18
3.420000E+03	2.484722E-17	1.925983E-18
3.430000E+03	2.527948E-17	1.928546E-18
3.440000E+03	2.572399E-17	1.932310E-18
3.450000E+03	2.618461E-17	1.937574E-18
3.460000E+03	2.666174E-17	1.944363E-18
3.470000E+03	2.715217E-17	1.952441E-18
3.480000E+03	2.765629E-17	1.961834E-18
3.490000E+03	2.818179E-17	1.973079E-18
3.500000E+03	2.872556E-17	1.985933E-18
3.510000E+03	2.928444E-17	2.000157E-18
3.520000E+03	2.986635E-17	2.016269E-18
3.530000E+03	3.046820E-17	2.034022E-18
3.540000E+03	3.109065E-17	2.053424E-18
3.550000E+03	3.173813E-17	2.074725E-18
3.560000E+03	3.241141E-17	2.097923E-18
3.570000E+03	3.310752E-17	2.122769E-18
3.580000E+03	3.382726E-17	2.149262E-18
3.590000E+03	3.457918E-17	2.177883E-18
3.600000E+03	3.536044E-17	2.208381E-18
3.610000E+03	3.617206E-17	2.240745E-18
3.620000E+03	3.701508E-17	2.274967E-18
3.630000E+03	3.789060E-17	2.311035E-18
3.640000E+03	3.880375E-17	2.349180E-18
3.650000E+03	3.975178E-17	2.389145E-18
3.660000E+03	4.073995E-17	2.431158E-18
3.670000E+03	4.176959E-17	2.475204E-18
3.680000E+03	4.284205E-17	2.521266E-18
3.690000E+03	4.395869E-17	2.569324E-18
3.700000E+03	4.512089E-17	2.619356E-18
3.710000E+03	4.633425E-17	2.671580E-18
3.720000E+03	4.759170E-17	2.725479E-18
3.730000E+03	4.890735E-17	2.781750E-18
3.740000E+03	5.027402E-17	2.839864E-18
3.750000E+03	5.169730E-17	2.900017E-18
3.760000E+03	5.317843E-17	2.962153E-18
3.770000E+03	5.472300E-17	3.026452E-18
3.780000E+03	5.632311E-17	3.092341E-18
3.790000E+03	5.798857E-17	3.160224E-18
3.800000E+03	5.972014E-17	3.229997E-18
3.810000E+03	6.151370E-17	3.301289E-18
3.820000E+03	6.337406E-17	3.374211E-18
3.830000E+03	6.530592E-17	3.448858E-18
3.840000E+03	6.729939E-17	3.524550E-18
3.850000E+03	6.936320E-17	3.601594E-18
3.860000E+03	7.149623E-17	3.679770E-18
3.870000E+03	7.369186E-17	3.758586E-18
3.880000E+03	7.595275E-17	3.838031E-18
3.890000E+03	7.827608E-17	3.917820E-18
3.900000E+03	8.066346E-17	3.997900E-18
3.910000E+03	8.310058E-17	4.077440E-18
3.920000E+03	8.559795E-17	4.156851E-18
3.930000E+03	8.813967E-17	4.235268E-18
3.940000E+03	9.071927E-17	4.312316E-18
3.950000E+03	9.334009E-17	4.388110E-18
3.960000E+03	9.598898E-17	4.462005E-18
3.970000E+03	9.866260E-17	4.533851E-18
3.980000E+03	1.013462E-16	4.602999E-18
3.990000E+03	1.040298E-16	4.669057E-18
4.000000E+03	1.067138E-16	4.732125E-18
4.010000E+03	1.093762E-16	4.791340E-18
4.020000E+03	1.120171E-16	4.846821E-18
4.030000E+03	1.146197E-16	4.897983E-18
4.040000E+03	1.171785E-16	4.944737E-18
4.050000E+03	1.196774E-16	4.986550E-18
4.060000E+03	1.221119E-16	5.023381E-18
4.070000E+03	1.244727E-16	5.054984E-18
4.080000E+03	1.267515E-16	5.081145E-18
4.090000E+03	1.289409E-16	5.101690E-18
4.100000E+03	1.310401E-16	5.116697E-18
4.110000E+03	1.330389E-16	5.125858E-18
4.120000E+03	1.349334E-16	5.129132E-18
4.130000E+03	1.367318E-16	5.126929E-18
4.140000E+03	1.384222E-16	5.118903E-18
4.150000E+03	1.400100E-16	5.105365E-18
4.160000E+03	1.414912E-16	5.086301E-18
4.170000E+03	1.428787E-16	5.062309E-18
4.180000E+03	1.441709E-16	5.033483E-18
4.190000E+03	1.453775E-16	5.000332E-18
4.200000E+03	1.464942E-16	4.962902E-18
4.210000E+03	1.475376E-16	4.921974E-18
4.220000E+03	1.485103E-16	4.877869E-18
4.230000E+03	1.494205E-16	4.831127E-18
4.240000E+03	1.502768E-16	4.782334E-18
4.250000E+03	1.510931E-16	4.732258E-18
4.260000E+03	1.518742E-16	4.681417E-18
4.270000E+03	1.526297E-16	4.630519E-18
4.280000E+03	1.533738E-16	4.580436E-18
4.290000E+03	1.541076E-16	4.531685E-18
4.300000E+03	1.548449E-16	4.485205E-18
4.310000E+03	1.555993E-16	4.441948E-18
4.320000E+03	1.563715E-16	4.402528E-18
4.330000E+03	1.571706E-16	4.367816E-18
4.340000E+03	1.580128E-16	4.338894E-18
4.350000E+03	1.588943E-16	4.316278E-18
4.360000E+03	1.598304E-16	4.300976E-18
4.370000E+03	1.608245E-16	4.293596E-18
4.380000E+03	1.618833E-16	4.294725E-18
4.390000E+03	1.630098E-16	4.304676E-18
4.400000E+03	1.642143E-16	4.323743E-18
4.410000E+03	1.654956E-16	4.351716E-18
4.420000E+03	1.668673E-16	4.388574E-18
4.430000E+03	1.683244E-16	4.433685E-18
4.440000E+03	1.698793E-16	4.486781E-18
4.450000E+03	1.715333E-16	4.547249E-18
4.460000E+03	1.732873E-16	4.614435E-18
4.470000E+03	1.751414E-16	4.687665E-18
4.480000E+03	1.770986E-16	4.766348E-18
4.490000E+03	1.791610E-16	4.849896E-18
4.500000E+03	1.813199E-16	4.937462E-18
4.510000E+03	1.835790E-16	5.028579E-18
4.520000E+03	1.859311E-16	5.122529E-18
4.530000E+03	1.883747E-16	5.218807E-18
4.540000E+03	1.909005E-16	5.316754E-18
4.550000E+03	1.935082E-16	5.416021E-18
4.560000E+03	1.961930E-16	5.516207E-18
4.570000E+03	1.989460E-16	5.616859E-18
4.580000E+03	2.017605E-16	5.717661E-18
4.590000E+03	2.046290E-16	5.818338E-18
4.600000E+03	2.075372E-16	5.918476E-18
4.610000E+03	2.104797E-16	6.017975E-18
4.620000E+03	2.134445E-16	6.116588E-18
4.630000E+03	2.164162E-16	6.214002E-18
4.640000E+03	2.193861E-16	6.310112E-18
4.650000E+03	2.223458E-16	6.404824E-18
4.660000E+03	2.252811E-16	6.497861E-18
4.670000E+03	2.281849E-16	6.589126E-18
4.680000E+03	2.310446E-16	6.678323E-18
4.690000E+03	2.338550E-16	6.765322E-18
4.700000E+03	2.366089E-16	6.849874E-18
4.710000E+03	2.393001E-16	6.931710E-18
4.720000E+03	2.419233E-16	7.010531E-18
4.730000E+03	2.444773E-16	7.086113E-18
4.740000E+03	2.469586E-16	7.158119E-18
4.750000E+03	2.493608E-16	7.226104E-18
4.760000E+03	2.516873E-16	7.289895E-18
4.770000E+03	2.539322E-16	7.349040E-18
4.780000E+03	2.560955E-16	7.403276E-18
4.790000E+03	2.581736E-16	7.452266E-18
4.800000E+03	2.601654E-16	7.495792E-18
4.810000E+03	2.620689E-16	7.533672E-18
4.820000E+03	2.638749E-16	7.565597E-18
4.830000E+03	2.655826E-16	7.591590E-18
4.840000E+03	2.671868E-16	7.611656E-18
4.850000E+03	2.686723E-16	7.625611E-18
4.860000E+03	2.700382E-16	7.633796E-18
4.870000E+03	2.712703E-16	7.636272E-18
4.880000E+03	2.723571E-16	7.633256E-18
4.890000E+03	2.732927E-16	7.625191E-18
4.900000E+03	2.740619E-16	7.612292E-18
4.910000E+03	2.746588E-16	7.595047E-18
4.920000E+03	2.750722E-16	7.573770E-18
4.930000E+03	2.752979E-16	7.548921E-18
4.940000E+03	2.753241E-16	7.520681E-18
4.950000E+03	2.751469E-16	7.489359E-18
4.960000E+03	2.747706E-16	7.455386E-18
4.970000E+03	2.741897E-16	7.418830E-18
4.980000E+03	2.734072E-16	7.379891E-18
4.990000E+03	2.724341E-16	7.338898E-18
5.000000E+03	2.712723E-16	7.295846E-18
5.010000E+03	2.699346E-16	7.250952E-18
5.020000E+03	2.684356E-16	7.204419E-18
5.030000E+03	2.667858E-16	7.156290E-18
5.040000E+03	2.650032E-16	7.106754E-18
5.050000E+03	2.631040E-16	7.055918E-18
5.060000E+03	2.611084E-16	7.003959E-18
5.070000E+03	2.590348E-16	6.950971E-18
5.080000E+03	2.569021E-16	6.897044E-18
5.090000E+03	2.547352E-16	6.842402E-18
5.100000E+03	2.525514E-16	6.787046E-18
5.110000E+03	2.503731E-16	6.731108E-18
5.120000E+03	2.482222E-16	6.674708E-18
5.130000E+03	2.461201E-16	6.617954E-18
5.140000E+03	2.440821E-16	6.560806E-18
5.150000E+03	2.421294E-16	6.503421E-18
5.160000E+03	2.402769E-16	6.445811E-18
5.170000E+03	2.385398E-16	6.388050E-18
5.180000E+03	2.369290E-16	6.330148E-18
5.190000E+03	2.354579E-16	6.272239E-18
5.200000E+03	2.341307E-16	6.214269E-18
5.210000E+03	2.329563E-16	6.156374E-18
5.220000E+03	2.319392E-16	6.098622E-18
5.230000E+03	2.310772E-16	6.040959E-18
5.240000E+03	2.303733E-16	5.983514E-18
5.250000E+03	2.298261E-16	5.926351E-18
5.260000E+03	2.294307E-16	5.869470E-18
5.270000E+03	2.291830E-16	5.812937E-18
5.280000E+03	2.290751E-16	5.756758E-18
5.290000E+03	2.291008E-16	5.701009E-18
5.300000E+03	2.292547E-16	5.645831E-18
5.310000E+03	2.295242E-16	5.591209E-18
5.320000E+03	2.299002E-16	5.537268E-18
5.330000E+03	2.303755E-16	5.484215E-18
5.340000E+03	2.309353E-16	5.432125E-18
5.350000E+03	2.315692E-16	5.381229E-18
5.360000E+03	2.322663E-16	5.331800E-18
5.370000E+03	2.330158E-16	5.284161E-18
5.380000E+03	2.338018E-16	5.238570E-18
5.390000E+03	2.346183E-16	5.195538E-18
5.400000E+03	2.354500E-16	5.155388E-18
5.410000E+03	2.362842E-16	5.118513E-18
5.420000E+03	2.371138E-16	5.085400E-18
5.430000E+03	2.379253E-16	5.056360E-18
5.440000E+03	2.387130E-16	5.031809E-18
5.450000E+03	2.394677E-16	5.012001E-18
5.460000E+03	2.401811E-16	4.997108E-18
5.470000E+03	2.408486E-16	4.987259E-18
5.480000E+03	2.414642E-16	4.982430E-18
5.490000E+03	2.420278E-16	4.982588E-18
5.500000E+03	2.425359E-16	4.987497E-18
5.510000E+03	2.429905E-16	4.996927E-18
5.520000E+03	2.433876E-16	5.010422E-18
5.530000E+03	2.437311E-16	5.027629E-18
5.540000E+03	2.440138E-16	5.047919E-18
5.550000E+03	2.442412E-16	5.070912E-18
5.560000E+03	2.444126E-16	5.096096E-18
5.570000E+03	2.445301E-16	5.123043E-18
5.580000E+03	2.445969E-16	5.151363E-18
5.590000E+03	2.446170E-16	5.180719E-18
5.600000E+03	2.445948E-16	5.210818E-18
5.610000E+03	2.445359E-16	5.241417E-18
5.620000E+03	2.444461E-16	5.272319E-18
5.630000E+03	2.443295E-16	5.303315E-18
5.640000E+03	2.441928E-16	5.334281E-18
5.650000E+03	2.440405E-16	5.365072E-18
5.660000E+03	2.438818E-16	5.395673E-18
5.670000E+03	2.437207E-16	5.425982E-18
5.680000E+03	2.435632E-16	5.455964E-18
5.690000E+03	2.434126E-16	5.485539E-18
5.700000E+03	2.432739E-16	5.514684E-18
5.710000E+03	2.431493E-16	5.543322E-18
5.720000E+03	2.430432E-16	5.571423E-18
5.730000E+03	2.429593E-16	5.598944E-18
5.740000E+03	2.428968E-16	5.625714E-18
5.750000E+03	2.428616E-16	5.651697E-18
5.760000E+03	2.428549E-16	5.676713E-18
5.770000E+03	2.428776E-16	5.700537E-18
5.780000E+03	2.429331E-16	5.722954E-18
5.790000E+03	2.430219E-16	5.743647E-18
5.800000E+03	2.431469E-16	5.762309E-18
5.810000E+03	2.433077E-16	5.778546E-18
5.820000E+03	2.435037E-16	5.791941E-18
5.830000E+03	2.437355E-16	5.802127E-18
5.840000E+03	2.440006E-16	5.808696E-18
5.850000E+03	2.442956E-16	5.811275E-18
5.860000E+03	2.446179E-16	5.809597E-18
5.870000E+03	2.449641E-16	5.803468E-18
5.880000E+03	2.453221E-16	5.792618E-18
5.890000E+03	2.456905E-16	5.777141E-18
5.900000E+03	2.460549E-16	5.756964E-18
5.910000E+03	2.464069E-16	5.732276E-18
5.920000E+03	2.467392E-16	5.703409E-18
5.930000E+03	2.470351E-16	5.670567E-18
5.940000E+03	2.472844E-16	5.634182E-18
5.950000E+03	2.474747E-16	5.594682E-18
5.960000E+03	2.475964E-16	5.552581E-18
5.970000E+03	2.476389E-16	5.508360E-18
5.980000E+03	2.475927E-16	5.462499E-18
5.990000E+03	2.474503E-16	5.415472E-18
6.000000E+03	2.472082E-16	5.367779E-18
6.010000E+03	2.468630E-16	5.319841E-18
6.020000E+03	2.464137E-16	5.272034E-18
6.030000E+03	2.458633E-16	5.224735E-18
6.040000E+03	2.452130E-16	5.178166E-18
6.050000E+03	2.444726E-16	5.132626E-18
6.060000E+03	2.436490E-16	5.088249E-18
6.070000E+03	2.427489E-16	5.045063E-18
6.080000E+03	2.417844E-16	5.003129E-18
6.090000E+03	2.407710E-16	4.962517E-18
6.100000E+03	2.397184E-16	4.923142E-18
6.110000E+03	2.386411E-16	4.885019E-18
6.120000E+03	2.375540E-16	4.848193E-18
6.130000E+03	2.364696E-16	4.812720E-18
6.140000E+03	2.354029E-16	4.778766E-18
6.150000E+03	2.343684E-16	4.746580E-18
6.160000E+03	2.333805E-16	4.716489E-18
6.170000E+03	2.324552E-16	4.688943E-18
6.180000E+03	2.316042E-16	4.664377E-18
6.190000E+03	2.308407E-16	4.643328E-18
6.200000E+03	2.301824E-16	4.626462E-18
6.210000E+03	2.296420E-16	4.614389E-18
6.220000E+03	2.292328E-16	4.607727E-18
6.230000E+03	2.289699E-16	4.607120E-18
6.240000E+03	2.288687E-16	4.613180E-18
6.250000E+03	2.289427E-16	4.626417E-18
6.260000E+03	2.292079E-16	4.647317E-18
6.270000E+03	2.296807E-16	4.676292E-18
6.280000E+03	2.303754E-16	4.713641E-18
6.290000E+03	2.313094E-16	4.759641E-18
6.300000E+03	2.325023E-16	4.814560E-18
6.310000E+03	2.339723E-16	4.878572E-18
6.320000E+03	2.357363E-16	4.951769E-18
6.330000E+03	2.378161E-16	5.034299E-18
6.340000E+03	2.402300E-16	5.126193E-18
6.350000E+03	2.430041E-16	5.227602E-18
6.360000E+03	2.461607E-16	5.338557E-18
6.370000E+03	2.497202E-16	5.459005E-18
6.380000E+03	2.537055E-16	5.588903E-18
6.390000E+03	2.581422E-16	5.728215E-18
6.400000E+03	2.630502E-16	5.876731E-18
6.410000E+03	2.684508E-16	6.034214E-18
6.420000E+03	2.743632E-16	6.200335E-18
6.430000E+03	2.807982E-16	6.374523E-18
6.440000E+03	2.877740E-16	6.556334E-18
6.450000E+03	2.952894E-16	6.744859E-18
6.460000E+03	3.033450E-16	6.939227E-18
6.470000E+03	3.119272E-16	7.138268E-18
6.480000E+03	3.210190E-16	7.340790E-18
6.490000E+03	3.305920E-16	7.545458E-18
6.500000E+03	3.406057E-16	7.750810E-18
6.510000E+03	3.510049E-16	7.955293E-18
6.520000E+03	3.617194E-16	8.157299E-18
6.530000E+03	3.726627E-16	8.355215E-18
6.540000E+03	3.837271E-16	8.547389E-18
6.550000E+03	3.947967E-16	8.732443E-18
6.560000E+03	4.057315E-16	8.908958E-18
6.570000E+03	4.163733E-16	9.075575E-18
6.580000E+03	4.265663E-16	9.231383E-18
6.590000E+03	4.361302E-16	9.375221E-18
6.600000E+03	4.449025E-16	9.506429E-18
6.610000E+03	4.527120E-16	9.624097E-18
6.620000E+03	4.594040E-16	9.727416E-18
6.630000E+03	4.648480E-16	9.815658E-18
6.640000E+03	4.689227E-16	9.887730E-18
6.650000E+03	4.715517E-16	9.942844E-18
6.660000E+03	4.726807E-16	9.980019E-18
6.670000E+03	4.723002E-16	9.998593E-18
6.680000E+03	4.704241E-16	9.997853E-18
6.690000E+03	4.671035E-16	9.977438E-18
6.700000E+03	4.624181E-16	9.937283E-18
6.710000E+03	4.564669E-16	9.877539E-18
6.720000E+03	4.493784E-16	9.798912E-18
6.730000E+03	4.412853E-16	9.702198E-18
6.740000E+03	4.323339E-16	9.588592E-18
6.750000E+03	4.226743E-16	9.459529E-18
6.760000E+03	4.124560E-16	9.316641E-18
6.770000E+03	4.018189E-16	9.161599E-18
6.780000E+03	3.909046E-16	8.996392E-18
6.790000E+03	3.798308E-16	8.822735E-18
6.800000E+03	3.687212E-16	8.642769E-18
6.810000E+03	3.576731E-16	8.458272E-18
6.820000E+03	3.467707E-16	8.270945E-18
6.830000E+03	3.360894E-16	8.082472E-18
6.840000E+03	3.256955E-16	7.894487E-18
6.850000E+03	3.156356E-16	7.708272E-18
6.860000E+03	3.059489E-16	7.525039E-18
6.870000E+03	2.966649E-16	7.345831E-18
6.880000E+03	2.878043E-16	7.171530E-18
6.890000E+03	2.793801E-16	7.002865E-18
6.900000E+03	2.713958E-16	6.840344E-18
6.910000E+03	2.638529E-16	6.684433E-18
6.920000E+03	2.567482E-16	6.535483E-18
6.930000E+03	2.500783E-16	6.393814E-18
6.940000E+03	2.438274E-16	6.259421E-18
6.950000E+03	2.379898E-16	6.132521E-18
6.960000E+03	2.325462E-16	6.012952E-18
6.970000E+03	2.274820E-16	5.900641E-18
6.980000E+03	2.227845E-16	5.795536E-18
6.990000E+03	2.184374E-16	5.697467E-18
7.000000E+03	2.144189E-16	5.606097E-18
7.010000E+03	2.107176E-16	5.521351E-18
7.020000E+03	2.073118E-16	5.442870E-18
7.030000E+03	2.041876E-16	5.370495E-18
7.040000E+03	2.013286E-16	5.303996E-18
7.050000E+03	1.987190E-16	5.243143E-18
7.060000E+03	1.963405E-16	5.187633E-18
7.070000E+03	1.941782E-16	5.137225E-18
7.080000E+03	1.922175E-16	5.091667E-18
7.090000E+03	1.904466E-16	5.050756E-18
7.100000E+03	1.888473E-16	5.014087E-18
7.110000E+03	1.874091E-16	4.981437E-18
7.120000E+03	1.861195E-16	4.952511E-18
7.130000E+03	1.849646E-16	4.926951E-18
7.140000E+03	1.839353E-16	4.904527E-18
7.150000E+03	1.830188E-16	4.884892E-18
7.160000E+03	1.822072E-16	4.867834E-18
7.170000E+03	1.814861E-16	4.852964E-18
7.180000E+03	1.808487E-16	4.840094E-18
7.190000E+03	1.802861E-16	4.828978E-18
7.200000E+03	1.797899E-16	4.819376E-18
7.210000E+03	1.793495E-16	4.810985E-18
7.220000E+03	1.789592E-16	4.803622E-18
7.230000E+03	1.786092E-16	4.796964E-18
7.240000E+03	1.782920E-16	4.790737E-18
7.250000E+03	1.780026E-16	4.784708E-18
7.260000E+03	1.777294E-16	4.778434E-18
7.270000E+03	1.774680E-16	4.771635E-18
7.280000E+03	1.772118E-16	4.763948E-18
7.290000E+03	1.769549E-16	4.754988E-18
7.300000E+03	1.766912E-16	4.744358E-18
7.310000E+03	1.764131E-16	4.731585E-18
7.320000E+03	1.761179E-16	4.716320E-18
7.330000E+03	1.757986E-16	4.698088E-18
7.340000E+03	1.754511E-16	4.676482E-18
7.350000E+03	1.750740E-16	4.651168E-18
7.360000E+03	1.746618E-16	4.621697E-18
7.370000E+03	1.742118E-16	4.587695E-18
7.380000E+03	1.737244E-16	4.548865E-18
7.390000E+03	1.731956E-16	4.504806E-18
7.400000E+03	1.726245E-16	4.455201E-18
7.410000E+03	1.720133E-16	4.399830E-18
7.420000E+03	1.713597E-16	4.338399E-18
7.430000E+03	1.706646E-16	4.270740E-18
7.440000E+03	1.699318E-16	4.196830E-18
7.450000E+03	1.691609E-16	4.116638E-18
7.460000E+03	1.683542E-16	4.030325E-18
7.470000E+03	1.675168E-16	3.938268E-18
7.480000E+03	1.666493E-16	3.840916E-18
7.490000E+03	1.657553E-16	3.738990E-18
7.500000E+03	1.648406E-16	3.633498E-18
7.510000E+03	1.639089E-16	3.525666E-18
7.520000E+03	1.629641E-16	3.417010E-18
7.530000E+03	1.620081E-16	3.309321E-18
7.540000E+03	1.610493E-16	3.204866E-18
7.550000E+03	1.600895E-16	3.106097E-18
7.560000E+03	1.591328E-16	3.015814E-18
7.570000E+03	1.581829E-16	2.937032E-18
7.580000E+03	1.572459E-16	2.872881E-18
7.590000E+03	1.563229E-16	2.826259E-18
7.600000E+03	1.554196E-16	2.799720E-18
7.610000E+03	1.545366E-16	2.795002E-18
7.620000E+03	1.536810E-16	2.812977E-18
7.630000E+03	1.528529E-16	2.853313E-18
7.640000E+03	1.520521E-16	2.914685E-18
7.650000E+03	1.512867E-16	2.995202E-18
7.660000E+03	1.505514E-16	3.092276E-18
7.670000E+03	1.498538E-16	3.203428E-18
7.680000E+03	1.491900E-16	3.325998E-18
7.690000E+03	1.485649E-16	3.457704E-18
7.700000E+03	1.479741E-16	3.596318E-18
7.710000E+03	1.474218E-16	3.740101E-18
7.720000E+03	1.469076E-16	3.887494E-18
7.730000E+03	1.464287E-16	4.037126E-18
7.740000E+03	1.459862E-16	4.187974E-18
7.750000E+03	1.455792E-16	4.339147E-18
7.760000E+03	1.452084E-16	4.489987E-18
