#wls	flux	fluxerr
1.600000E+03	4.513165E-18	2.296492E-18
1.640000E+03	4.621314E-18	2.322674E-18
1.680000E+03	4.733305E-18	2.348662E-18
1.720000E+03	4.850821E-18	2.375140E-18
1.760000E+03	4.974026E-18	2.402013E-18
1.800000E+03	5.103087E-18	2.429175E-18
1.840000E+03	5.238179E-18	2.456514E-18
1.880000E+03	5.379481E-18	2.483908E-18
1.920000E+03	5.527177E-18	2.511224E-18
1.960000E+03	5.681454E-18	2.538322E-18
2.000000E+03	5.842505E-18	2.565049E-18
2.040000E+03	6.010523E-18	2.591242E-18
2.080000E+03	6.185704E-18	2.616725E-18
2.120000E+03	6.368247E-18	2.641310E-18
2.160000E+03	6.558347E-18	2.664795E-18
2.200000E+03	6.756200E-18	2.686965E-18
2.240000E+03	6.961996E-18	2.707592E-18
2.280000E+03	7.175922E-18	2.726431E-18
2.320000E+03	7.398155E-18	2.743224E-18
2.360000E+03	7.627044E-18	2.757043E-18
2.400000E+03	7.864523E-18	2.768277E-18
2.440000E+03	8.108868E-18	2.775991E-18
2.480000E+03	8.362013E-18	2.780533E-18
2.520000E+03	8.624048E-18	2.781582E-18
2.560000E+03	8.891193E-18	2.777607E-18
2.600000E+03	9.167231E-18	2.769523E-18
2.640000E+03	9.450185E-18	2.756422E-18
2.680000E+03	9.741918E-18	2.738570E-18
2.720000E+03	1.003630E-17	2.714009E-18
2.760000E+03	1.033904E-17	2.684153E-18
2.800000E+03	1.064583E-17	2.647694E-18
2.840000E+03	1.095829E-17	2.604975E-18
2.880000E+03	1.127390E-17	2.555371E-18
2.920000E+03	1.159206E-17	2.498850E-18
2.960000E+03	1.191424E-17	2.435902E-18
3.000000E+03	1.223761E-17	2.366209E-18
3.010000E+03	1.232016E-17	2.348071E-18
3.020000E+03	1.240272E-17	2.329527E-18
3.030000E+03	1.248529E-17	2.310583E-18
3.040000E+03	1.256785E-17	2.291247E-18
3.050000E+03	1.265037E-17	2.271526E-18
3.060000E+03	1.273504E-17	2.251816E-18
3.070000E+03	1.281966E-17	2.231728E-18
3.080000E+03	1.290422E-17	2.211274E-18
3.090000E+03	1.299090E-17	2.190835E-18
3.100000E+03	1.307749E-17	2.170041E-18
3.110000E+03	1.316618E-17	2.149266E-18
3.120000E+03	1.325255E-17	2.127797E-18
3.130000E+03	1.334322E-17	2.106714E-18
3.140000E+03	1.343375E-17	2.085313E-18
3.150000E+03	1.352412E-17	2.063610E-18
3.160000E+03	1.361655E-17	2.041957E-18
3.170000E+03	1.371104E-17	2.020358E-18
3.180000E+03	1.380758E-17	1.998817E-18
3.190000E+03	1.390391E-17	1.977021E-18
3.200000E+03	1.400227E-17	1.955307E-18
3.210000E+03	1.410041E-17	1.933374E-18
3.220000E+03	1.420281E-17	1.911854E-18
3.230000E+03	1.430721E-17	1.890446E-18
3.240000E+03	1.441136E-17	1.868868E-18
3.250000E+03	1.451977E-17	1.847726E-18
3.260000E+03	1.462790E-17	1.826456E-18
3.270000E+03	1.474028E-17	1.805645E-18
3.280000E+03	1.485464E-17	1.785024E-18
3.290000E+03	1.497098E-17	1.764613E-18
3.300000E+03	1.508930E-17	1.744435E-18
3.310000E+03	1.521187E-17	1.724771E-18
3.320000E+03	1.533643E-17	1.705377E-18
3.330000E+03	1.546297E-17	1.686280E-18
3.340000E+03	1.559379E-17	1.667751E-18
3.350000E+03	1.572890E-17	1.649806E-18
3.360000E+03	1.586603E-17	1.632222E-18
3.370000E+03	1.600750E-17	1.615262E-18
3.380000E+03	1.615102E-17	1.598715E-18
3.390000E+03	1.630123E-17	1.583059E-18
3.400000E+03	1.645356E-17	1.567861E-18
3.410000E+03	1.661268E-17	1.553584E-18
3.420000E+03	1.677401E-17	1.539808E-18
3.430000E+03	1.694224E-17	1.526982E-18
3.440000E+03	1.711513E-17	1.514906E-18
3.450000E+03	1.729277E-17	1.503597E-18
3.460000E+03	1.747759E-17	1.493270E-18
3.470000E+03	1.766736E-17	1.483735E-18
3.480000E+03	1.786455E-17	1.475196E-18
3.490000E+03	1.806931E-17	1.467657E-18
3.500000E+03	1.827949E-17	1.460933E-18
3.510000E+03	1.849759E-17	1.455217E-18
3.520000E+03	1.872617E-17	1.450690E-18
3.530000E+03	1.896314E-17	1.447163E-18
3.540000E+03	1.920877E-17	1.444635E-18
3.550000E+03	1.946333E-17	1.443102E-18
3.560000E+03	1.972950E-17	1.442733E-18
3.570000E+03	2.000528E-17	1.443346E-18
3.580000E+03	2.029340E-17	1.445104E-18
3.590000E+03	2.059429E-17	1.447998E-18
3.600000E+03	2.090839E-17	1.452018E-18
3.610000E+03	2.123382E-17	1.456993E-18
3.620000E+03	2.157346E-17	1.463079E-18
3.630000E+03	2.193023E-17	1.470431E-18
3.640000E+03	2.230234E-17	1.478881E-18
3.650000E+03	2.268803E-17	1.488269E-18
3.660000E+03	2.309509E-17	1.499064E-18
3.670000E+03	2.351703E-17	1.510795E-18
3.680000E+03	2.395934E-17	1.523776E-18
3.690000E+03	2.442277E-17	1.538007E-18
3.700000E+03	2.490808E-17	1.553491E-18
3.710000E+03	2.541362E-17	1.570082E-18
3.720000E+03	2.594259E-17	1.587938E-18
3.730000E+03	2.649582E-17	1.607064E-18
3.740000E+03	2.707409E-17	1.627467E-18
3.750000E+03	2.768072E-17	1.649301E-18
3.760000E+03	2.831404E-17	1.672419E-18
3.770000E+03	2.897484E-17	1.696825E-18
3.780000E+03	2.966638E-17	1.722663E-18
3.790000E+03	3.038943E-17	1.749928E-18
3.800000E+03	3.114214E-17	1.778460E-18
3.810000E+03	3.193024E-17	1.808536E-18
3.820000E+03	3.274917E-17	1.839839E-18
3.830000E+03	3.360454E-17	1.872627E-18
3.840000E+03	3.449411E-17	1.906713E-18
3.850000E+03	3.542070E-17	1.942190E-18
3.860000E+03	3.638172E-17	1.978850E-18
3.870000E+03	3.737964E-17	2.016761E-18
3.880000E+03	3.841410E-17	2.055837E-18
3.890000E+03	3.948446E-17	2.095974E-18
3.900000E+03	4.058979E-17	2.137055E-18
3.910000E+03	4.173159E-17	2.179094E-18
3.920000E+03	4.290551E-17	2.221795E-18
3.930000E+03	4.411236E-17	2.265140E-18
3.940000E+03	4.534978E-17	2.308948E-18
3.950000E+03	4.661497E-17	2.353021E-18
3.960000E+03	4.790473E-17	2.397145E-18
3.970000E+03	4.921536E-17	2.441092E-18
3.980000E+03	5.054573E-17	2.484765E-18
3.990000E+03	5.188843E-17	2.527767E-18
4.000000E+03	5.324455E-17	2.570122E-18
4.010000E+03	5.460299E-17	2.611275E-18
4.020000E+03	5.596434E-17	2.651240E-18
4.030000E+03	5.732001E-17	2.689602E-18
4.040000E+03	5.866428E-17	2.726098E-18
4.050000E+03	5.999448E-17	2.760612E-18
4.060000E+03	6.130497E-17	2.792904E-18
4.070000E+03	6.259332E-17	2.822888E-18
4.080000E+03	6.384826E-17	2.850089E-18
4.090000E+03	6.507101E-17	2.874612E-18
4.100000E+03	6.625715E-17	2.896314E-18
4.110000E+03	6.739974E-17	2.914959E-18
4.120000E+03	6.850148E-17	2.930739E-18
4.130000E+03	6.955663E-17	2.943496E-18
4.140000E+03	7.056317E-17	2.953242E-18
4.150000E+03	7.152273E-17	2.960153E-18
4.160000E+03	7.243176E-17	2.964197E-18
4.170000E+03	7.329620E-17	2.965743E-18
4.180000E+03	7.411110E-17	2.964718E-18
4.190000E+03	7.488376E-17	2.961551E-18
4.200000E+03	7.561631E-17	2.956461E-18
4.210000E+03	7.630880E-17	2.949589E-18
4.220000E+03	7.696742E-17	2.941316E-18
4.230000E+03	7.759606E-17	2.931929E-18
4.240000E+03	7.819907E-17	2.921729E-18
4.250000E+03	7.878375E-17	2.911126E-18
4.260000E+03	7.935243E-17	2.900338E-18
4.270000E+03	7.991285E-17	2.889781E-18
4.280000E+03	8.047023E-17	2.879775E-18
4.290000E+03	8.102742E-17	2.870552E-18
4.300000E+03	8.159464E-17	2.862605E-18
4.310000E+03	8.217462E-17	2.856161E-18
4.320000E+03	8.277480E-17	2.851610E-18
4.330000E+03	8.339768E-17	2.849171E-18
4.340000E+03	8.404800E-17	2.849140E-18
4.350000E+03	8.473474E-17	2.851955E-18
4.360000E+03	8.545529E-17	2.857652E-18
4.370000E+03	8.622034E-17	2.866707E-18
4.380000E+03	8.702914E-17	2.879193E-18
4.390000E+03	8.788522E-17	2.895296E-18
4.400000E+03	8.879410E-17	2.915234E-18
4.410000E+03	8.975888E-17	2.939106E-18
4.420000E+03	9.077824E-17	2.966834E-18
4.430000E+03	9.185906E-17	2.998583E-18
4.440000E+03	9.299950E-17	3.034214E-18
4.450000E+03	9.420364E-17	3.073769E-18
4.460000E+03	9.546896E-17	3.117066E-18
4.470000E+03	9.679869E-17	3.164104E-18
4.480000E+03	9.818943E-17	3.214665E-18
4.490000E+03	9.964135E-17	3.268649E-18
4.500000E+03	1.011520E-16	3.325871E-18
4.510000E+03	1.027182E-16	3.386129E-18
4.520000E+03	1.043344E-16	3.449142E-18
4.530000E+03	1.059978E-16	3.514740E-18
4.540000E+03	1.077014E-16	3.582607E-18
4.550000E+03	1.094390E-16	3.652476E-18
4.560000E+03	1.112057E-16	3.724127E-18
4.570000E+03	1.129960E-16	3.797326E-18
4.580000E+03	1.148015E-16	3.871755E-18
4.590000E+03	1.166173E-16	3.947216E-18
4.600000E+03	1.184323E-16	4.023297E-18
4.610000E+03	1.202408E-16	4.099773E-18
4.620000E+03	1.220351E-16	4.176342E-18
4.630000E+03	1.238019E-16	4.252499E-18
4.640000E+03	1.255377E-16	4.328066E-18
4.650000E+03	1.272321E-16	4.402601E-18
4.660000E+03	1.288791E-16	4.475808E-18
4.670000E+03	1.304697E-16	4.547267E-18
4.680000E+03	1.320001E-16	4.616717E-18
4.690000E+03	1.334653E-16	4.683852E-18
4.700000E+03	1.348599E-16	4.748329E-18
4.710000E+03	1.361833E-16	4.809967E-18
4.720000E+03	1.374323E-16	4.868483E-18
4.730000E+03	1.386065E-16	4.923688E-18
4.740000E+03	1.397044E-16	4.975352E-18
4.750000E+03	1.407290E-16	5.023401E-18
4.760000E+03	1.416800E-16	5.067644E-18
4.770000E+03	1.425572E-16	5.107908E-18
4.780000E+03	1.433640E-16	5.144155E-18
4.790000E+03	1.441001E-16	5.176228E-18
4.800000E+03	1.447646E-16	5.203972E-18
4.810000E+03	1.453578E-16	5.227301E-18
4.820000E+03	1.458811E-16	5.246196E-18
4.830000E+03	1.463278E-16	5.260388E-18
4.840000E+03	1.466994E-16	5.269937E-18
4.850000E+03	1.469928E-16	5.274784E-18
4.860000E+03	1.472043E-16	5.274888E-18
4.870000E+03	1.473309E-16	5.270289E-18
4.880000E+03	1.473678E-16	5.260986E-18
4.890000E+03	1.473109E-16	5.247066E-18
4.900000E+03	1.471564E-16	5.228641E-18
4.910000E+03	1.468987E-16	5.205791E-18
4.920000E+03	1.465357E-16	5.178739E-18
4.930000E+03	1.460611E-16	5.147556E-18
4.940000E+03	1.454740E-16	5.112511E-18
4.950000E+03	1.447732E-16	5.073829E-18
4.960000E+03	1.439585E-16	5.031751E-18
4.970000E+03	1.430309E-16	4.986529E-18
4.980000E+03	1.419929E-16	4.938420E-18
4.990000E+03	1.408485E-16	4.887687E-18
5.000000E+03	1.396060E-16	4.834694E-18
5.010000E+03	1.382690E-16	4.779600E-18
5.020000E+03	1.368484E-16	4.722765E-18
5.030000E+03	1.353545E-16	4.664495E-18
5.040000E+03	1.337960E-16	4.604996E-18
5.050000E+03	1.321848E-16	4.544574E-18
5.060000E+03	1.305326E-16	4.483488E-18
5.070000E+03	1.288553E-16	4.422134E-18
5.080000E+03	1.271623E-16	4.360681E-18
5.090000E+03	1.254701E-16	4.299523E-18
5.100000E+03	1.237896E-16	4.238872E-18
5.110000E+03	1.221354E-16	4.179068E-18
5.120000E+03	1.205191E-16	4.120352E-18
5.130000E+03	1.189530E-16	4.062994E-18
5.140000E+03	1.174485E-16	4.007247E-18
5.150000E+03	1.160160E-16	3.953338E-18
5.160000E+03	1.146646E-16	3.901469E-18
5.170000E+03	1.134010E-16	3.851771E-18
5.180000E+03	1.122331E-16	3.804424E-18
5.190000E+03	1.111647E-16	3.759491E-18
5.200000E+03	1.102008E-16	3.717083E-18
5.210000E+03	1.093416E-16	3.677160E-18
5.220000E+03	1.085913E-16	3.639838E-18
5.230000E+03	1.079467E-16	3.604980E-18
5.240000E+03	1.074074E-16	3.572569E-18
5.250000E+03	1.069723E-16	3.542562E-18
5.260000E+03	1.066363E-16	3.514789E-18
5.270000E+03	1.063964E-16	3.489166E-18
5.280000E+03	1.062492E-16	3.465600E-18
5.290000E+03	1.061877E-16	3.443878E-18
5.300000E+03	1.062065E-16	3.423856E-18
5.310000E+03	1.063008E-16	3.405423E-18
5.320000E+03	1.064649E-16	3.388439E-18
5.330000E+03	1.066925E-16	3.372770E-18
5.340000E+03	1.069755E-16	3.358231E-18
5.350000E+03	1.073099E-16	3.344787E-18
5.360000E+03	1.076884E-16	3.332326E-18
5.370000E+03	1.081051E-16	3.320793E-18
5.380000E+03	1.085542E-16	3.310160E-18
5.390000E+03	1.090299E-16	3.300425E-18
5.400000E+03	1.095259E-16	3.291586E-18
5.410000E+03	1.100370E-16	3.283697E-18
5.420000E+03	1.105595E-16	3.276874E-18
5.430000E+03	1.110880E-16	3.271186E-18
5.440000E+03	1.116173E-16	3.266723E-18
5.450000E+03	1.121451E-16	3.263650E-18
5.460000E+03	1.126670E-16	3.262072E-18
5.470000E+03	1.131804E-16	3.262118E-18
5.480000E+03	1.136821E-16	3.263867E-18
5.490000E+03	1.141727E-16	3.267458E-18
5.500000E+03	1.146487E-16	3.272850E-18
5.510000E+03	1.151131E-16	3.280113E-18
5.520000E+03	1.155633E-16	3.289105E-18
5.530000E+03	1.160008E-16	3.299749E-18
5.540000E+03	1.164217E-16	3.311785E-18
5.550000E+03	1.168258E-16	3.325048E-18
5.560000E+03	1.172133E-16	3.339372E-18
5.570000E+03	1.175847E-16	3.354601E-18
5.580000E+03	1.179398E-16	3.370555E-18
5.590000E+03	1.182808E-16	3.387135E-18
5.600000E+03	1.186070E-16	3.404155E-18
5.610000E+03	1.189211E-16	3.421546E-18
5.620000E+03	1.192253E-16	3.439220E-18
5.630000E+03	1.195193E-16	3.457040E-18
5.640000E+03	1.198056E-16	3.474954E-18
5.650000E+03	1.200865E-16	3.492928E-18
5.660000E+03	1.203635E-16	3.510915E-18
5.670000E+03	1.206390E-16	3.528915E-18
5.680000E+03	1.209131E-16	3.546877E-18
5.690000E+03	1.211907E-16	3.564898E-18
5.700000E+03	1.214696E-16	3.582883E-18
5.710000E+03	1.217555E-16	3.600978E-18
5.720000E+03	1.220464E-16	3.619093E-18
5.730000E+03	1.223458E-16	3.637309E-18
5.740000E+03	1.226565E-16	3.655664E-18
5.750000E+03	1.229788E-16	3.674122E-18
5.760000E+03	1.233144E-16	3.692669E-18
5.770000E+03	1.236675E-16	3.711345E-18
5.780000E+03	1.240377E-16	3.730043E-18
5.790000E+03	1.244290E-16	3.748773E-18
5.800000E+03	1.248434E-16	3.767465E-18
5.810000E+03	1.252812E-16	3.785996E-18
5.820000E+03	1.257458E-16	3.804331E-18
5.830000E+03	1.262355E-16	3.822279E-18
5.840000E+03	1.267512E-16	3.839736E-18
5.850000E+03	1.272930E-16	3.856579E-18
5.860000E+03	1.278576E-16	3.872603E-18
5.870000E+03	1.284417E-16	3.887623E-18
5.880000E+03	1.290407E-16	3.901445E-18
5.890000E+03	1.296498E-16	3.913900E-18
5.900000E+03	1.302619E-16	3.924783E-18
5.910000E+03	1.308665E-16	3.933825E-18
5.920000E+03	1.314566E-16	3.940896E-18
5.930000E+03	1.320210E-16	3.945775E-18
5.940000E+03	1.325502E-16	3.948324E-18
5.950000E+03	1.330313E-16	3.948320E-18
5.960000E+03	1.334549E-16	3.945658E-18
5.970000E+03	1.338111E-16	3.940220E-18
5.980000E+03	1.340908E-16	3.931910E-18
5.990000E+03	1.342852E-16	3.920620E-18
6.000000E+03	1.343891E-16	3.906328E-18
6.010000E+03	1.343970E-16	3.888973E-18
6.020000E+03	1.343053E-16	3.868518E-18
6.030000E+03	1.341144E-16	3.845019E-18
6.040000E+03	1.338257E-16	3.818530E-18
6.050000E+03	1.334417E-16	3.789112E-18
6.060000E+03	1.329683E-16	3.756929E-18
6.070000E+03	1.324102E-16	3.722095E-18
6.080000E+03	1.317764E-16	3.684866E-18
6.090000E+03	1.310751E-16	3.645487E-18
6.100000E+03	1.303163E-16	3.604282E-18
6.110000E+03	1.295105E-16	3.561624E-18
6.120000E+03	1.286700E-16	3.517963E-18
6.130000E+03	1.278026E-16	3.473677E-18
6.140000E+03	1.269224E-16	3.429351E-18
6.150000E+03	1.260373E-16	3.385435E-18
6.160000E+03	1.251597E-16	3.342540E-18
6.170000E+03	1.242985E-16	3.301205E-18
6.180000E+03	1.234641E-16	3.262030E-18
6.190000E+03	1.226632E-16	3.225519E-18
6.200000E+03	1.219070E-16	3.192283E-18
6.210000E+03	1.212010E-16	3.162754E-18
6.220000E+03	1.205528E-16	3.137379E-18
6.230000E+03	1.199708E-16	3.116544E-18
6.240000E+03	1.194617E-16	3.100510E-18
6.250000E+03	1.190329E-16	3.089453E-18
6.260000E+03	1.186914E-16	3.083439E-18
6.270000E+03	1.184470E-16	3.082515E-18
6.280000E+03	1.183077E-16	3.086605E-18
6.290000E+03	1.182814E-16	3.095585E-18
6.300000E+03	1.183774E-16	3.109333E-18
6.310000E+03	1.186044E-16	3.127705E-18
6.320000E+03	1.189739E-16	3.150634E-18
6.330000E+03	1.194949E-16	3.178010E-18
6.340000E+03	1.201807E-16	3.209851E-18
6.350000E+03	1.210422E-16	3.246149E-18
6.360000E+03	1.220934E-16	3.287002E-18
6.370000E+03	1.233495E-16	3.332563E-18
6.380000E+03	1.248243E-16	3.382970E-18
6.390000E+03	1.265346E-16	3.438455E-18
6.400000E+03	1.284956E-16	3.499211E-18
6.410000E+03	1.307251E-16	3.565505E-18
6.420000E+03	1.332386E-16	3.637535E-18
6.430000E+03	1.360522E-16	3.715508E-18
6.440000E+03	1.391798E-16	3.799562E-18
6.450000E+03	1.426348E-16	3.889809E-18
6.460000E+03	1.464255E-16	3.986219E-18
6.470000E+03	1.505595E-16	4.088736E-18
6.480000E+03	1.550354E-16	4.197085E-18
6.490000E+03	1.598518E-16	4.311012E-18
6.500000E+03	1.649961E-16	4.430012E-18
6.510000E+03	1.704473E-16	4.553428E-18
6.520000E+03	1.761762E-16	4.680489E-18
6.530000E+03	1.821413E-16	4.810232E-18
6.540000E+03	1.882928E-16	4.941639E-18
6.550000E+03	1.945636E-16	5.073424E-18
6.560000E+03	2.008759E-16	5.204229E-18
6.570000E+03	2.071420E-16	5.332654E-18
6.580000E+03	2.132602E-16	5.457126E-18
6.590000E+03	2.191249E-16	5.576133E-18
6.600000E+03	2.246218E-16	5.688045E-18
6.610000E+03	2.296382E-16	5.791298E-18
6.620000E+03	2.340632E-16	5.884323E-18
6.630000E+03	2.378019E-16	5.965815E-18
6.640000E+03	2.407620E-16	6.034309E-18
6.650000E+03	2.428810E-16	6.088811E-18
6.660000E+03	2.441111E-16	6.128370E-18
6.670000E+03	2.444277E-16	6.152295E-18
6.680000E+03	2.438333E-16	6.160253E-18
6.690000E+03	2.423562E-16	6.152298E-18
6.700000E+03	2.400389E-16	6.128625E-18
6.710000E+03	2.369496E-16	6.089937E-18
6.720000E+03	2.331636E-16	6.037040E-18
6.730000E+03	2.287767E-16	5.971245E-18
6.740000E+03	2.238833E-16	5.893869E-18
6.750000E+03	2.185802E-16	5.806371E-18
6.760000E+03	2.129655E-16	5.710351E-18
6.770000E+03	2.071328E-16	5.607435E-18
6.780000E+03	2.011694E-16	5.499219E-18
6.790000E+03	1.951520E-16	5.387178E-18
6.800000E+03	1.891526E-16	5.272803E-18
6.810000E+03	1.832293E-16	5.157349E-18
6.820000E+03	1.774326E-16	5.041991E-18
6.830000E+03	1.718038E-16	4.927757E-18
6.840000E+03	1.663736E-16	4.815481E-18
6.850000E+03	1.611688E-16	4.705956E-18
6.860000E+03	1.562052E-16	4.599739E-18
6.870000E+03	1.514932E-16	4.497264E-18
6.880000E+03	1.470426E-16	4.399004E-18
6.890000E+03	1.428543E-16	4.305181E-18
6.900000E+03	1.389258E-16	4.215938E-18
6.910000E+03	1.352532E-16	4.131396E-18
6.920000E+03	1.318323E-16	4.051658E-18
6.930000E+03	1.286541E-16	3.976689E-18
6.940000E+03	1.257100E-16	3.906459E-18
6.950000E+03	1.229906E-16	3.840907E-18
6.960000E+03	1.204848E-16	3.779902E-18
6.970000E+03	1.181837E-16	3.723380E-18
6.980000E+03	1.160771E-16	3.671216E-18
6.990000E+03	1.141533E-16	3.623230E-18
7.000000E+03	1.124025E-16	3.579273E-18
7.010000E+03	1.108145E-16	3.539190E-18
7.020000E+03	1.093798E-16	3.502816E-18
7.030000E+03	1.080876E-16	3.469939E-18
7.040000E+03	1.069312E-16	3.440468E-18
7.050000E+03	1.058991E-16	3.414145E-18
7.060000E+03	1.049841E-16	3.390832E-18
7.070000E+03	1.041751E-16	3.370276E-18
7.080000E+03	1.034680E-16	3.352419E-18
7.090000E+03	1.028511E-16	3.336975E-18
7.100000E+03	1.023197E-16	3.323853E-18
7.110000E+03	1.018641E-16	3.312814E-18
7.120000E+03	1.014788E-16	3.303736E-18
7.130000E+03	1.011574E-16	3.296462E-18
7.140000E+03	1.008938E-16	3.290837E-18
7.150000E+03	1.006812E-16	3.286664E-18
7.160000E+03	1.005155E-16	3.283823E-18
7.170000E+03	1.003902E-16	3.282112E-18
7.180000E+03	1.003009E-16	3.281363E-18
7.190000E+03	1.002428E-16	3.281401E-18
7.200000E+03	1.002132E-16	3.282085E-18
7.210000E+03	1.002056E-16	3.283150E-18
7.220000E+03	1.002186E-16	3.284480E-18
7.230000E+03	1.002463E-16	3.285798E-18
7.240000E+03	1.002864E-16	3.286941E-18
7.250000E+03	1.003358E-16	3.287707E-18
7.260000E+03	1.003900E-16	3.287852E-18
7.270000E+03	1.004474E-16	3.287217E-18
7.280000E+03	1.005039E-16	3.285569E-18
7.290000E+03	1.005580E-16	3.282762E-18
7.300000E+03	1.006048E-16	3.278539E-18
7.310000E+03	1.006443E-16	3.272819E-18
7.320000E+03	1.006730E-16	3.265411E-18
7.330000E+03	1.006901E-16	3.256221E-18
7.340000E+03	1.006912E-16	3.245048E-18
7.350000E+03	1.006758E-16	3.231831E-18
7.360000E+03	1.006423E-16	3.216484E-18
7.370000E+03	1.005881E-16	3.198901E-18
7.380000E+03	1.005145E-16	3.179115E-18
7.390000E+03	1.004167E-16	3.156976E-18
7.400000E+03	1.002979E-16	3.132602E-18
7.410000E+03	1.001537E-16	3.105893E-18
7.420000E+03	9.998642E-17	3.076977E-18
7.430000E+03	9.979463E-17	3.045895E-18
7.440000E+03	9.957855E-17	3.012767E-18
7.450000E+03	9.933855E-17	2.977751E-18
7.460000E+03	9.907396E-17	2.941015E-18
7.470000E+03	9.878685E-17	2.902855E-18
7.480000E+03	9.847823E-17	2.863585E-18
7.490000E+03	9.814797E-17	2.823538E-18
7.500000E+03	9.779866E-17	2.783184E-18
7.510000E+03	9.743047E-17	2.742983E-18
7.520000E+03	9.704752E-17	2.703563E-18
7.530000E+03	9.665017E-17	2.665502E-18
7.540000E+03	9.624140E-17	2.629499E-18
7.550000E+03	9.582164E-17	2.596225E-18
7.560000E+03	9.539393E-17	2.566444E-18
7.570000E+03	9.495998E-17	2.540886E-18
7.580000E+03	9.452149E-17	2.520253E-18
7.590000E+03	9.408015E-17	2.505181E-18
7.600000E+03	9.363892E-17	2.496225E-18
7.610000E+03	9.319832E-17	2.493711E-18
7.620000E+03	9.276029E-17	2.497796E-18
7.630000E+03	9.232947E-17	2.508490E-18
7.640000E+03	9.190554E-17	2.525469E-18
7.650000E+03	9.149199E-17	2.548361E-18
7.660000E+03	9.109093E-17	2.576659E-18
7.670000E+03	9.070426E-17	2.609803E-18
7.680000E+03	9.033491E-17	2.647256E-18
7.690000E+03	8.998182E-17	2.688378E-18
7.700000E+03	8.964988E-17	2.732745E-18
7.710000E+03	8.933749E-17	2.779785E-18
7.720000E+03	8.904650E-17	2.829087E-18
7.730000E+03	8.877725E-17	2.880245E-18
7.740000E+03	8.852855E-17	2.932863E-18
7.750000E+03	8.830270E-17	2.986705E-18
7.760000E+03	8.809924E-17	3.041499E-18
