#wls	flux	fluxerr
1.600000E+03	1.341729E-15	1.197066E-15
1.640000E+03	1.359877E-15	1.197981E-15
1.680000E+03	1.376901E-15	1.197082E-15
1.720000E+03	1.392859E-15	1.194433E-15
1.760000E+03	1.407806E-15	1.190100E-15
1.800000E+03	1.421887E-15	1.184217E-15
1.840000E+03	1.435339E-15	1.176992E-15
1.880000E+03	1.448369E-15	1.168595E-15
1.920000E+03	1.461338E-15	1.159312E-15
1.960000E+03	1.474549E-15	1.149362E-15
2.000000E+03	1.488466E-15	1.139072E-15
2.040000E+03	1.503618E-15	1.128791E-15
2.080000E+03	1.520453E-15	1.118774E-15
2.120000E+03	1.539581E-15	1.109364E-15
2.160000E+03	1.561527E-15	1.100806E-15
2.200000E+03	1.586858E-15	1.093332E-15
2.240000E+03	1.616053E-15	1.087075E-15
2.280000E+03	1.649402E-15	1.082008E-15
2.320000E+03	1.687100E-15	1.078012E-15
2.360000E+03	1.729202E-15	1.074866E-15
2.400000E+03	1.775623E-15	1.072249E-15
2.440000E+03	1.826157E-15	1.069772E-15
2.480000E+03	1.880642E-15	1.067078E-15
2.520000E+03	1.938952E-15	1.063838E-15
2.560000E+03	2.000864E-15	1.059680E-15
2.600000E+03	2.066218E-15	1.054278E-15
2.640000E+03	2.134913E-15	1.047346E-15
2.680000E+03	2.206870E-15	1.038621E-15
2.720000E+03	2.282131E-15	1.027902E-15
2.760000E+03	2.360886E-15	1.015054E-15
2.800000E+03	2.443362E-15	9.999491E-16
2.840000E+03	2.529784E-15	9.824487E-16
2.880000E+03	2.620185E-15	9.623371E-16
2.920000E+03	2.714565E-15	9.394000E-16
2.960000E+03	2.812605E-15	9.133388E-16
3.000000E+03	2.913832E-15	8.838582E-16
3.010000E+03	2.939577E-15	8.759247E-16
3.020000E+03	2.965461E-15	8.677534E-16
3.030000E+03	2.991466E-15	8.593394E-16
3.040000E+03	3.017573E-15	8.506780E-16
3.050000E+03	3.043800E-15	8.417745E-16
3.060000E+03	3.070057E-15	8.326060E-16
3.070000E+03	3.096395E-15	8.231880E-16
3.080000E+03	3.122760E-15	8.135082E-16
3.090000E+03	3.149131E-15	8.035643E-16
3.100000E+03	3.175488E-15	7.933548E-16
3.110000E+03	3.201810E-15	7.828784E-16
3.120000E+03	3.228042E-15	7.721266E-16
3.130000E+03	3.254197E-15	7.611079E-16
3.140000E+03	3.280221E-15	7.498154E-16
3.150000E+03	3.306090E-15	7.382510E-16
3.160000E+03	3.331751E-15	7.264104E-16
3.170000E+03	3.357216E-15	7.143044E-16
3.180000E+03	3.382395E-15	7.019238E-16
3.190000E+03	3.407302E-15	6.892812E-16
3.200000E+03	3.431849E-15	6.763701E-16
3.210000E+03	3.456048E-15	6.632052E-16
3.220000E+03	3.479846E-15	6.497891E-16
3.230000E+03	3.503157E-15	6.361202E-16
3.240000E+03	3.525996E-15	6.222165E-16
3.250000E+03	3.548311E-15	6.080851E-16
3.260000E+03	3.570020E-15	5.937296E-16
3.270000E+03	3.591106E-15	5.791664E-16
3.280000E+03	3.611521E-15	5.644081E-16
3.290000E+03	3.631219E-15	5.494691E-16
3.300000E+03	3.650123E-15	5.343611E-16
3.310000E+03	3.668222E-15	5.191073E-16
3.320000E+03	3.685411E-15	5.037197E-16
3.330000E+03	3.701713E-15	4.882298E-16
3.340000E+03	3.717028E-15	4.726544E-16
3.350000E+03	3.731319E-15	4.570214E-16
3.360000E+03	3.744554E-15	4.413611E-16
3.370000E+03	3.756640E-15	4.256993E-16
3.380000E+03	3.767519E-15	4.100690E-16
3.390000E+03	3.777194E-15	3.945128E-16
3.400000E+03	3.785581E-15	3.790665E-16
3.410000E+03	3.792659E-15	3.637759E-16
3.420000E+03	3.798322E-15	3.486818E-16
3.430000E+03	3.802583E-15	3.338402E-16
3.440000E+03	3.805342E-15	3.193000E-16
3.450000E+03	3.806616E-15	3.051245E-16
3.460000E+03	3.806341E-15	2.913727E-16
3.470000E+03	3.804509E-15	2.781117E-16
3.480000E+03	3.801033E-15	2.654050E-16
3.490000E+03	3.795939E-15	2.533259E-16
3.500000E+03	3.789226E-15	2.419453E-16
3.510000E+03	3.780841E-15	2.313281E-16
3.520000E+03	3.770843E-15	2.215408E-16
3.530000E+03	3.759217E-15	2.126350E-16
3.540000E+03	3.746090E-15	2.046543E-16
3.550000E+03	3.731453E-15	1.976106E-16
3.560000E+03	3.715490E-15	1.914945E-16
3.570000E+03	3.698292E-15	1.862573E-16
3.580000E+03	3.680113E-15	1.818285E-16
3.590000E+03	3.661141E-15	1.781135E-16
3.600000E+03	3.641573E-15	1.750062E-16
3.610000E+03	3.621629E-15	1.723976E-16
3.620000E+03	3.601498E-15	1.701788E-16
3.630000E+03	3.581436E-15	1.682499E-16
3.640000E+03	3.561574E-15	1.665145E-16
3.650000E+03	3.542130E-15	1.648912E-16
3.660000E+03	3.523317E-15	1.633104E-16
3.670000E+03	3.505249E-15	1.617104E-16
3.680000E+03	3.488151E-15	1.600466E-16
3.690000E+03	3.472149E-15	1.582813E-16
3.700000E+03	3.457436E-15	1.563904E-16
3.710000E+03	3.444155E-15	1.543572E-16
3.720000E+03	3.432449E-15	1.521738E-16
3.730000E+03	3.422501E-15	1.498423E-16
3.740000E+03	3.414449E-15	1.473698E-16
3.750000E+03	3.408433E-15	1.447702E-16
3.760000E+03	3.404614E-15	1.420648E-16
3.770000E+03	3.403132E-15	1.392793E-16
3.780000E+03	3.404177E-15	1.364469E-16
3.790000E+03	3.407872E-15	1.336023E-16
3.800000E+03	3.414387E-15	1.307853E-16
3.810000E+03	3.423872E-15	1.280359E-16
3.820000E+03	3.436495E-15	1.253931E-16
3.830000E+03	3.452414E-15	1.228914E-16
3.840000E+03	3.471721E-15	1.205584E-16
3.850000E+03	3.494517E-15	1.184164E-16
3.860000E+03	3.520849E-15	1.164809E-16
3.870000E+03	3.550669E-15	1.147593E-16
3.880000E+03	3.583839E-15	1.132518E-16
3.890000E+03	3.620137E-15	1.119528E-16
3.900000E+03	3.659186E-15	1.108493E-16
3.910000E+03	3.700573E-15	1.099255E-16
3.920000E+03	3.743746E-15	1.091604E-16
3.930000E+03	3.788051E-15	1.085293E-16
3.940000E+03	3.832859E-15	1.080079E-16
3.950000E+03	3.877478E-15	1.075689E-16
3.960000E+03	3.921206E-15	1.071837E-16
3.970000E+03	3.963467E-15	1.068259E-16
3.980000E+03	4.003694E-15	1.064671E-16
3.990000E+03	4.041437E-15	1.060809E-16
4.000000E+03	4.076397E-15	1.056435E-16
4.010000E+03	4.108295E-15	1.051313E-16
4.020000E+03	4.136952E-15	1.045246E-16
4.030000E+03	4.162274E-15	1.038077E-16
4.040000E+03	4.184175E-15	1.029689E-16
4.050000E+03	4.202588E-15	1.020009E-16
4.060000E+03	4.217482E-15	1.009023E-16
4.070000E+03	4.228748E-15	9.967394E-17
4.080000E+03	4.236422E-15	9.832423E-17
4.090000E+03	4.240429E-15	9.686119E-17
4.100000E+03	4.240813E-15	9.529669E-17
4.110000E+03	4.237621E-15	9.364283E-17
4.120000E+03	4.231067E-15	9.191452E-17
4.130000E+03	4.221372E-15	9.012498E-17
4.140000E+03	4.208891E-15	8.828809E-17
4.150000E+03	4.194055E-15	8.641675E-17
4.160000E+03	4.177480E-15	8.452452E-17
4.170000E+03	4.159786E-15	8.262248E-17
4.180000E+03	4.141673E-15	8.072090E-17
4.190000E+03	4.123948E-15	7.882983E-17
4.200000E+03	4.107417E-15	7.695732E-17
4.210000E+03	4.092851E-15	7.510871E-17
4.220000E+03	4.080991E-15	7.328650E-17
4.230000E+03	4.072501E-15	7.148992E-17
4.240000E+03	4.067793E-15	6.971220E-17
4.250000E+03	4.067135E-15	6.794332E-17
4.260000E+03	4.070477E-15	6.616962E-17
4.270000E+03	4.077533E-15	6.437797E-17
4.280000E+03	4.087645E-15	6.255555E-17
4.290000E+03	4.099890E-15	6.069315E-17
4.300000E+03	4.113116E-15	5.878616E-17
4.310000E+03	4.125951E-15	5.683535E-17
4.320000E+03	4.136916E-15	5.485103E-17
4.330000E+03	4.144721E-15	5.285945E-17
4.340000E+03	4.148172E-15	5.090367E-17
4.350000E+03	4.146450E-15	4.904986E-17
4.360000E+03	4.139137E-15	4.738635E-17
4.370000E+03	4.126268E-15	4.601451E-17
4.380000E+03	4.108178E-15	4.502835E-17
4.390000E+03	4.085701E-15	4.448925E-17
4.400000E+03	4.059862E-15	4.440017E-17
4.410000E+03	4.031907E-15	4.470752E-17
4.420000E+03	4.003227E-15	4.532330E-17
4.430000E+03	3.975167E-15	4.614977E-17
4.440000E+03	3.949152E-15	4.709986E-17
4.450000E+03	3.926321E-15	4.809981E-17
4.460000E+03	3.907591E-15	4.908989E-17
4.470000E+03	3.893506E-15	5.002185E-17
4.480000E+03	3.884331E-15	5.085886E-17
4.490000E+03	3.879869E-15	5.157101E-17
4.500000E+03	3.879653E-15	5.213720E-17
4.510000E+03	3.882819E-15	5.254311E-17
4.520000E+03	3.888314E-15	5.278332E-17
4.530000E+03	3.894785E-15	5.285998E-17
4.540000E+03	3.900786E-15	5.278453E-17
4.550000E+03	3.904803E-15	5.257463E-17
4.560000E+03	3.905289E-15	5.225004E-17
4.570000E+03	3.900954E-15	5.182932E-17
4.580000E+03	3.890607E-15	5.132210E-17
4.590000E+03	3.873492E-15	5.073359E-17
4.600000E+03	3.849178E-15	5.006441E-17
4.610000E+03	3.817684E-15	4.931310E-17
4.620000E+03	3.779382E-15	4.847735E-17
4.630000E+03	3.735136E-15	4.755687E-17
4.640000E+03	3.686002E-15	4.655025E-17
4.650000E+03	3.633406E-15	4.546100E-17
4.660000E+03	3.578899E-15	4.429759E-17
4.670000E+03	3.524144E-15	4.307416E-17
4.680000E+03	3.470844E-15	4.181051E-17
4.690000E+03	3.420708E-15	4.053055E-17
4.700000E+03	3.375334E-15	3.925889E-17
4.710000E+03	3.336111E-15	3.801986E-17
4.720000E+03	3.304273E-15	3.683900E-17
4.730000E+03	3.280711E-15	3.574409E-17
4.740000E+03	3.266030E-15	3.477488E-17
4.750000E+03	3.260448E-15	3.399245E-17
4.760000E+03	3.263940E-15	3.348405E-17
4.770000E+03	3.276045E-15	3.335062E-17
4.780000E+03	3.296019E-15	3.367826E-17
4.790000E+03	3.322773E-15	3.449720E-17
4.800000E+03	3.354885E-15	3.576298E-17
4.810000E+03	3.390606E-15	3.737668E-17
4.820000E+03	3.428082E-15	3.922391E-17
4.830000E+03	3.465351E-15	4.120050E-17
4.840000E+03	3.500478E-15	4.322228E-17
4.850000E+03	3.531645E-15	4.522428E-17
4.860000E+03	3.557346E-15	4.715848E-17
4.870000E+03	3.576384E-15	4.898782E-17
4.880000E+03	3.588032E-15	5.068364E-17
4.890000E+03	3.592045E-15	5.222513E-17
4.900000E+03	3.588530E-15	5.359802E-17
4.910000E+03	3.578011E-15	5.479629E-17
4.920000E+03	3.561251E-15	5.582200E-17
4.930000E+03	3.539183E-15	5.668603E-17
4.940000E+03	3.512819E-15	5.740643E-17
4.950000E+03	3.483175E-15	5.800609E-17
4.960000E+03	3.451225E-15	5.850963E-17
4.970000E+03	3.417775E-15	5.893850E-17
4.980000E+03	3.383596E-15	5.931233E-17
4.990000E+03	3.349222E-15	5.964480E-17
5.000000E+03	3.315206E-15	5.994695E-17
5.010000E+03	3.281966E-15	6.022462E-17
5.020000E+03	3.249876E-15	6.047971E-17
5.030000E+03	3.219289E-15	6.071026E-17
5.040000E+03	3.190532E-15	6.091137E-17
5.050000E+03	3.163963E-15	6.107715E-17
5.060000E+03	3.139787E-15	6.119824E-17
5.070000E+03	3.118244E-15	6.126753E-17
5.080000E+03	3.099509E-15	6.128030E-17
5.090000E+03	3.083651E-15	6.123458E-17
5.100000E+03	3.070662E-15	6.113232E-17
5.110000E+03	3.060422E-15	6.097846E-17
5.120000E+03	3.052841E-15	6.078264E-17
5.130000E+03	3.047619E-15	6.055297E-17
5.140000E+03	3.044483E-15	6.029865E-17
5.150000E+03	3.043088E-15	6.002617E-17
5.160000E+03	3.043072E-15	5.973986E-17
5.170000E+03	3.044133E-15	5.944323E-17
5.180000E+03	3.045853E-15	5.913517E-17
5.190000E+03	3.048009E-15	5.881651E-17
5.200000E+03	3.050297E-15	5.848465E-17
5.210000E+03	3.052466E-15	5.813631E-17
5.220000E+03	3.054316E-15	5.776799E-17
5.230000E+03	3.055602E-15	5.737473E-17
5.240000E+03	3.056146E-15	5.695235E-17
5.250000E+03	3.055725E-15	5.649596E-17
5.260000E+03	3.054211E-15	5.600299E-17
5.270000E+03	3.051408E-15	5.546985E-17
5.280000E+03	3.047170E-15	5.489418E-17
5.290000E+03	3.041380E-15	5.427403E-17
5.300000E+03	3.033985E-15	5.360743E-17
5.310000E+03	3.024918E-15	5.289065E-17
5.320000E+03	3.014180E-15	5.211913E-17
5.330000E+03	3.001853E-15	5.128660E-17
5.340000E+03	2.988030E-15	5.038427E-17
5.350000E+03	2.972814E-15	4.940106E-17
5.360000E+03	2.956369E-15	4.832488E-17
5.370000E+03	2.938907E-15	4.714442E-17
5.380000E+03	2.920593E-15	4.584966E-17
5.390000E+03	2.901641E-15	4.443558E-17
5.400000E+03	2.882196E-15	4.290275E-17
5.410000E+03	2.862400E-15	4.126124E-17
5.420000E+03	2.842386E-15	3.953313E-17
5.430000E+03	2.822157E-15	3.775451E-17
5.440000E+03	2.801780E-15	3.598162E-17
5.450000E+03	2.781132E-15	3.428981E-17
5.460000E+03	2.760198E-15	3.277723E-17
5.470000E+03	2.738864E-15	3.155465E-17
5.480000E+03	2.717050E-15	3.072861E-17
5.490000E+03	2.694708E-15	3.037438E-17
5.500000E+03	2.671811E-15	3.051061E-17
5.510000E+03	2.648392E-15	3.109197E-17
5.520000E+03	2.624585E-15	3.202568E-17
5.530000E+03	2.600501E-15	3.319845E-17
5.540000E+03	2.576296E-15	3.450242E-17
5.550000E+03	2.552095E-15	3.584929E-17
5.560000E+03	2.528067E-15	3.717567E-17
5.570000E+03	2.504289E-15	3.843910E-17
5.580000E+03	2.480898E-15	3.961582E-17
5.590000E+03	2.457962E-15	4.069381E-17
5.600000E+03	2.435588E-15	4.166993E-17
5.610000E+03	2.413774E-15	4.254439E-17
5.620000E+03	2.392634E-15	4.332249E-17
5.630000E+03	2.372208E-15	4.400972E-17
5.640000E+03	2.352533E-15	4.461258E-17
5.650000E+03	2.333697E-15	4.513919E-17
5.660000E+03	2.315738E-15	4.559725E-17
5.670000E+03	2.298694E-15	4.599477E-17
5.680000E+03	2.282645E-15	4.634087E-17
5.690000E+03	2.267620E-15	4.664338E-17
5.700000E+03	2.253661E-15	4.691005E-17
5.710000E+03	2.240775E-15	4.714725E-17
5.720000E+03	2.228979E-15	4.736055E-17
5.730000E+03	2.218252E-15	4.755377E-17
5.740000E+03	2.208625E-15	4.773100E-17
5.750000E+03	2.199994E-15	4.789252E-17
5.760000E+03	2.192356E-15	4.803997E-17
5.770000E+03	2.185576E-15	4.817145E-17
5.780000E+03	2.179641E-15	4.828705E-17
5.790000E+03	2.174391E-15	4.838312E-17
5.800000E+03	2.169745E-15	4.845756E-17
5.810000E+03	2.165568E-15	4.850694E-17
5.820000E+03	2.161763E-15	4.852871E-17
5.830000E+03	2.158164E-15	4.851882E-17
5.840000E+03	2.154699E-15	4.847528E-17
5.850000E+03	2.151188E-15	4.839372E-17
5.860000E+03	2.147578E-15	4.827274E-17
5.870000E+03	2.143745E-15	4.810917E-17
5.880000E+03	2.139651E-15	4.790193E-17
5.890000E+03	2.135233E-15	4.764946E-17
5.900000E+03	2.130497E-15	4.735172E-17
5.910000E+03	2.125398E-15	4.700773E-17
5.920000E+03	2.119980E-15	4.661865E-17
5.930000E+03	2.114280E-15	4.618553E-17
5.940000E+03	2.108303E-15	4.570887E-17
5.950000E+03	2.102160E-15	4.519150E-17
5.960000E+03	2.095880E-15	4.463433E-17
5.970000E+03	2.089548E-15	4.403933E-17
5.980000E+03	2.083278E-15	4.340885E-17
5.990000E+03	2.077141E-15	4.274406E-17
6.000000E+03	2.071232E-15	4.204665E-17
6.010000E+03	2.065638E-15	4.131857E-17
6.020000E+03	2.060389E-15	4.056096E-17
6.030000E+03	2.055588E-15	3.977692E-17
6.040000E+03	2.051249E-15	3.896797E-17
6.050000E+03	2.047380E-15	3.813534E-17
6.060000E+03	2.043936E-15	3.727912E-17
6.070000E+03	2.040890E-15	3.639933E-17
6.080000E+03	2.038137E-15	3.549393E-17
6.090000E+03	2.035569E-15	3.456026E-17
6.100000E+03	2.033031E-15	3.359425E-17
6.110000E+03	2.030410E-15	3.259185E-17
6.120000E+03	2.027506E-15	3.154738E-17
6.130000E+03	2.024098E-15	3.045544E-17
6.140000E+03	2.020021E-15	2.931280E-17
6.150000E+03	2.015027E-15	2.811834E-17
6.160000E+03	2.008906E-15	2.687713E-17
6.170000E+03	2.001427E-15	2.560172E-17
6.180000E+03	1.992392E-15	2.431579E-17
6.190000E+03	1.981624E-15	2.305628E-17
6.200000E+03	1.968960E-15	2.187474E-17
6.210000E+03	1.954314E-15	2.083767E-17
6.220000E+03	1.937655E-15	2.001977E-17
6.230000E+03	1.919082E-15	1.948900E-17
6.240000E+03	1.898833E-15	1.928327E-17
6.250000E+03	1.877307E-15	1.939036E-17
6.260000E+03	1.855021E-15	1.974818E-17
6.270000E+03	1.832606E-15	2.026904E-17
6.280000E+03	1.810645E-15	2.086497E-17
6.290000E+03	1.789717E-15	2.146415E-17
6.300000E+03	1.770304E-15	2.201565E-17
6.310000E+03	1.752873E-15	2.249019E-17
6.320000E+03	1.737872E-15	2.287702E-17
6.330000E+03	1.725775E-15	2.318073E-17
6.340000E+03	1.717026E-15	2.341665E-17
6.350000E+03	1.712119E-15	2.360769E-17
6.360000E+03	1.711602E-15	2.378006E-17
6.370000E+03	1.716000E-15	2.395760E-17
6.380000E+03	1.725862E-15	2.415869E-17
6.390000E+03	1.741688E-15	2.439394E-17
6.400000E+03	1.763883E-15	2.466513E-17
6.410000E+03	1.792632E-15	2.496401E-17
6.420000E+03	1.827920E-15	2.527567E-17
6.430000E+03	1.869553E-15	2.558285E-17
6.440000E+03	1.917075E-15	2.586846E-17
6.450000E+03	1.969851E-15	2.612010E-17
6.460000E+03	2.027043E-15	2.633243E-17
6.470000E+03	2.087696E-15	2.651135E-17
6.480000E+03	2.150757E-15	2.667779E-17
6.490000E+03	2.215258E-15	2.687262E-17
6.500000E+03	2.280226E-15	2.715544E-17
6.510000E+03	2.344889E-15	2.760301E-17
6.520000E+03	2.408439E-15	2.829505E-17
6.530000E+03	2.470196E-15	2.929769E-17
6.540000E+03	2.529160E-15	3.063990E-17
6.550000E+03	2.584370E-15	3.230853E-17
6.560000E+03	2.634521E-15	3.424800E-17
6.570000E+03	2.678454E-15	3.637969E-17
6.580000E+03	2.715077E-15	3.861514E-17
6.590000E+03	2.743514E-15	4.086838E-17
6.600000E+03	2.763122E-15	4.306290E-17
6.610000E+03	2.773645E-15	4.513726E-17
6.620000E+03	2.775008E-15	4.704265E-17
6.630000E+03	2.767588E-15	4.874730E-17
6.640000E+03	2.751830E-15	5.022916E-17
6.650000E+03	2.728499E-15	5.147897E-17
6.660000E+03	2.698453E-15	5.249577E-17
6.670000E+03	2.662587E-15	5.328514E-17
6.680000E+03	2.621877E-15	5.385907E-17
6.690000E+03	2.577292E-15	5.423386E-17
6.700000E+03	2.529807E-15	5.442956E-17
6.710000E+03	2.480217E-15	5.446497E-17
6.720000E+03	2.429363E-15	5.436208E-17
6.730000E+03	2.377961E-15	5.414171E-17
6.740000E+03	2.326595E-15	5.382283E-17
6.750000E+03	2.275836E-15	5.342506E-17
6.760000E+03	2.226054E-15	5.296432E-17
6.770000E+03	2.177680E-15	5.245865E-17
6.780000E+03	2.130926E-15	5.192134E-17
6.790000E+03	2.086074E-15	5.136766E-17
6.800000E+03	2.043173E-15	5.080688E-17
6.810000E+03	2.002424E-15	5.025159E-17
6.820000E+03	1.963781E-15	4.970739E-17
6.830000E+03	1.927329E-15	4.918209E-17
6.840000E+03	1.893023E-15	4.867914E-17
6.850000E+03	1.860832E-15	4.820126E-17
6.860000E+03	1.830706E-15	4.774971E-17
6.870000E+03	1.802550E-15	4.732386E-17
6.880000E+03	1.776326E-15	4.692392E-17
6.890000E+03	1.751955E-15	4.654862E-17
6.900000E+03	1.729296E-15	4.619477E-17
6.910000E+03	1.708324E-15	4.586217E-17
6.920000E+03	1.688922E-15	4.554808E-17
6.930000E+03	1.671001E-15	4.525057E-17
6.940000E+03	1.654442E-15	4.496699E-17
6.950000E+03	1.639185E-15	4.469636E-17
6.960000E+03	1.625136E-15	4.443707E-17
6.970000E+03	1.612177E-15	4.418698E-17
6.980000E+03	1.600218E-15	4.394493E-17
6.990000E+03	1.589170E-15	4.370993E-17
7.000000E+03	1.578974E-15	4.348195E-17
7.010000E+03	1.569492E-15	4.325863E-17
7.020000E+03	1.560670E-15	4.304000E-17
7.030000E+03	1.552433E-15	4.282527E-17
7.040000E+03	1.544685E-15	4.261285E-17
7.050000E+03	1.537387E-15	4.240258E-17
7.060000E+03	1.530457E-15	4.219270E-17
7.070000E+03	1.523845E-15	4.198206E-17
7.080000E+03	1.517511E-15	4.176940E-17
7.090000E+03	1.511450E-15	4.155415E-17
7.100000E+03	1.505585E-15	4.133340E-17
7.110000E+03	1.499928E-15	4.110647E-17
7.120000E+03	1.494472E-15	4.087194E-17
7.130000E+03	1.489192E-15	4.062760E-17
7.140000E+03	1.484122E-15	4.037269E-17
7.150000E+03	1.479245E-15	4.010492E-17
7.160000E+03	1.474577E-15	3.982263E-17
7.170000E+03	1.470161E-15	3.952489E-17
7.180000E+03	1.465985E-15	3.920942E-17
7.190000E+03	1.462063E-15	3.887480E-17
7.200000E+03	1.458377E-15	3.851931E-17
7.210000E+03	1.454987E-15	3.814382E-17
7.220000E+03	1.451866E-15	3.774762E-17
7.230000E+03	1.448979E-15	3.733065E-17
7.240000E+03	1.446340E-15	3.689492E-17
7.250000E+03	1.443901E-15	3.644153E-17
7.260000E+03	1.441662E-15	3.597332E-17
7.270000E+03	1.439589E-15	3.549252E-17
7.280000E+03	1.437611E-15	3.500040E-17
7.290000E+03	1.435681E-15	3.449838E-17
7.300000E+03	1.433771E-15	3.398775E-17
7.310000E+03	1.431822E-15	3.346802E-17
7.320000E+03	1.429718E-15	3.293649E-17
7.330000E+03	1.427480E-15	3.239271E-17
7.340000E+03	1.424966E-15	3.183162E-17
7.350000E+03	1.422178E-15	3.125065E-17
7.360000E+03	1.419068E-15	3.064555E-17
7.370000E+03	1.415568E-15	3.001128E-17
7.380000E+03	1.411673E-15	2.934443E-17
7.390000E+03	1.407325E-15	2.864152E-17
7.400000E+03	1.402504E-15	2.790125E-17
7.410000E+03	1.397247E-15	2.712550E-17
7.420000E+03	1.391482E-15	2.631627E-17
7.430000E+03	1.385221E-15	2.547966E-17
7.440000E+03	1.378424E-15	2.462323E-17
7.450000E+03	1.371133E-15	2.375833E-17
7.460000E+03	1.363283E-15	2.289618E-17
7.470000E+03	1.354897E-15	2.205077E-17
7.480000E+03	1.345948E-15	2.123538E-17
7.490000E+03	1.336504E-15	2.046312E-17
7.500000E+03	1.326567E-15	1.974246E-17
7.510000E+03	1.316160E-15	1.907651E-17
7.520000E+03	1.305411E-15	1.846328E-17
7.530000E+03	1.294389E-15	1.789551E-17
7.540000E+03	1.283229E-15	1.736644E-17
7.550000E+03	1.271999E-15	1.687172E-17
7.560000E+03	1.260878E-15	1.641562E-17
7.570000E+03	1.249994E-15	1.601157E-17
7.580000E+03	1.239447E-15	1.568347E-17
7.590000E+03	1.229358E-15	1.546419E-17
7.600000E+03	1.219867E-15	1.538921E-17
7.610000E+03	1.211066E-15	1.548474E-17
7.620000E+03	1.202995E-15	1.575552E-17
7.630000E+03	1.195714E-15	1.618126E-17
7.640000E+03	1.189222E-15	1.672315E-17
7.650000E+03	1.183498E-15	1.733731E-17
7.660000E+03	1.178508E-15	1.798443E-17
7.670000E+03	1.174201E-15	1.863390E-17
7.680000E+03	1.170548E-15	1.926459E-17
7.690000E+03	1.167455E-15	1.986208E-17
7.700000E+03	1.164849E-15	2.041786E-17
7.710000E+03	1.162674E-15	2.092747E-17
7.720000E+03	1.160821E-15	2.138736E-17
7.730000E+03	1.159255E-15	2.179619E-17
7.740000E+03	1.157837E-15	2.215135E-17
7.750000E+03	1.156506E-15	2.245279E-17
7.760000E+03	1.155182E-15	2.270132E-17
