#wls	flux	fluxerr
1.600000E+03	3.946446E-17	3.577827E-17
1.640000E+03	3.950423E-17	3.540946E-17
1.680000E+03	3.954813E-17	3.503328E-17
1.720000E+03	3.957234E-17	3.462863E-17
1.760000E+03	3.958739E-17	3.420510E-17
1.800000E+03	3.959238E-17	3.376211E-17
1.840000E+03	3.958648E-17	3.329922E-17
1.880000E+03	3.955857E-17	3.280751E-17
1.920000E+03	3.952892E-17	3.230426E-17
1.960000E+03	3.947642E-17	3.177252E-17
2.000000E+03	3.942075E-17	3.122873E-17
2.040000E+03	3.935140E-17	3.066481E-17
2.080000E+03	3.926813E-17	3.008117E-17
2.120000E+03	3.917085E-17	2.947833E-17
2.160000E+03	3.906857E-17	2.886362E-17
2.200000E+03	3.895211E-17	2.823069E-17
2.240000E+03	3.882179E-17	2.758051E-17
2.280000E+03	3.868652E-17	2.692004E-17
2.320000E+03	3.853817E-17	2.624417E-17
2.360000E+03	3.838561E-17	2.555959E-17
2.400000E+03	3.822929E-17	2.486703E-17
2.440000E+03	3.806988E-17	2.416738E-17
2.480000E+03	3.790827E-17	2.346161E-17
2.520000E+03	3.775281E-17	2.275520E-17
2.560000E+03	3.759725E-17	2.204453E-17
2.600000E+03	3.744321E-17	2.133090E-17
2.640000E+03	3.730599E-17	2.062310E-17
2.680000E+03	3.717368E-17	1.991430E-17
2.720000E+03	3.706792E-17	1.921595E-17
2.760000E+03	3.697768E-17	1.852162E-17
2.800000E+03	3.691182E-17	1.783529E-17
2.840000E+03	3.688498E-17	1.716304E-17
2.880000E+03	3.689385E-17	1.650189E-17
2.920000E+03	3.694196E-17	1.585208E-17
2.960000E+03	3.705018E-17	1.522077E-17
3.000000E+03	3.721171E-17	1.460279E-17
3.010000E+03	3.726596E-17	1.445229E-17
3.020000E+03	3.732161E-17	1.430167E-17
3.030000E+03	3.738413E-17	1.415300E-17
3.040000E+03	3.744827E-17	1.400425E-17
3.050000E+03	3.751949E-17	1.385741E-17
3.060000E+03	3.759786E-17	1.371244E-17
3.070000E+03	3.767822E-17	1.356740E-17
3.080000E+03	3.776597E-17	1.342420E-17
3.090000E+03	3.786121E-17	1.328279E-17
3.100000E+03	3.795887E-17	1.314134E-17
3.110000E+03	3.806430E-17	1.300165E-17
3.120000E+03	3.817763E-17	1.286370E-17
3.130000E+03	3.829388E-17	1.272573E-17
3.140000E+03	3.842345E-17	1.259115E-17
3.150000E+03	3.855629E-17	1.245654E-17
3.160000E+03	3.869768E-17	1.232358E-17
3.170000E+03	3.884278E-17	1.219065E-17
3.180000E+03	3.900187E-17	1.206092E-17
3.190000E+03	3.916509E-17	1.193121E-17
3.200000E+03	3.934271E-17	1.180459E-17
3.210000E+03	3.952495E-17	1.167801E-17
3.220000E+03	3.971709E-17	1.155297E-17
3.230000E+03	3.991938E-17	1.142946E-17
3.240000E+03	4.013211E-17	1.130746E-17
3.250000E+03	4.035560E-17	1.118695E-17
3.260000E+03	4.059016E-17	1.106793E-17
3.270000E+03	4.083614E-17	1.095040E-17
3.280000E+03	4.109392E-17	1.083434E-17
3.290000E+03	4.136388E-17	1.071976E-17
3.300000E+03	4.165134E-17	1.060790E-17
3.310000E+03	4.194695E-17	1.049627E-17
3.320000E+03	4.226097E-17	1.038734E-17
3.330000E+03	4.258414E-17	1.027869E-17
3.340000E+03	4.292676E-17	1.017274E-17
3.350000E+03	4.328451E-17	1.006831E-17
3.360000E+03	4.365803E-17	9.965417E-18
3.370000E+03	4.405284E-17	9.865201E-18
3.380000E+03	4.446477E-17	9.766566E-18
3.390000E+03	4.489457E-17	9.669561E-18
3.400000E+03	4.534303E-17	9.574239E-18
3.410000E+03	4.581591E-17	9.481675E-18
3.420000E+03	4.630924E-17	9.390886E-18
3.430000E+03	4.682890E-17	9.302926E-18
3.440000E+03	4.737104E-17	9.216864E-18
3.450000E+03	4.793677E-17	9.132794E-18
3.460000E+03	4.853223E-17	9.051743E-18
3.470000E+03	4.915874E-17	8.973769E-18
3.480000E+03	4.981270E-17	8.898047E-18
3.490000E+03	5.049553E-17	8.824705E-18
3.500000E+03	5.121884E-17	8.755600E-18
3.510000E+03	5.197424E-17	8.689087E-18
3.520000E+03	5.276344E-17	8.625316E-18
3.530000E+03	5.359338E-17	8.565262E-18
3.540000E+03	5.446606E-17	8.509049E-18
3.550000E+03	5.538360E-17	8.456809E-18
3.560000E+03	5.634825E-17	8.408685E-18
3.570000E+03	5.735713E-17	8.364058E-18
3.580000E+03	5.841794E-17	8.323886E-18
3.590000E+03	5.953335E-17	8.288341E-18
3.600000E+03	6.070619E-17	8.257607E-18
3.610000E+03	6.193943E-17	8.231879E-18
3.620000E+03	6.323623E-17	8.211364E-18
3.630000E+03	6.459994E-17	8.196282E-18
3.640000E+03	6.602843E-17	8.186164E-18
3.650000E+03	6.753671E-17	8.182666E-18
3.660000E+03	6.912312E-17	8.185339E-18
3.670000E+03	7.079188E-17	8.194454E-18
3.680000E+03	7.255338E-17	8.210973E-18
3.690000E+03	7.440045E-17	8.233841E-18
3.700000E+03	7.635008E-17	8.264718E-18
3.710000E+03	7.840153E-17	8.303256E-18
3.720000E+03	8.056033E-17	8.349798E-18
3.730000E+03	8.283230E-17	8.404698E-18
3.740000E+03	8.523013E-17	8.468976E-18
3.750000E+03	8.775399E-17	8.542357E-18
3.760000E+03	9.041755E-17	8.625887E-18
3.770000E+03	9.322154E-17	8.719327E-18
3.780000E+03	9.617365E-17	8.823103E-18
3.790000E+03	9.928924E-17	8.938304E-18
3.800000E+03	1.025774E-16	9.065386E-18
3.810000E+03	1.060402E-16	9.204167E-18
3.820000E+03	1.096871E-16	9.355121E-18
3.830000E+03	1.135364E-16	9.519392E-18
3.840000E+03	1.175989E-16	9.697475E-18
3.850000E+03	1.218782E-16	9.889197E-18
3.860000E+03	1.263941E-16	1.009571E-17
3.870000E+03	1.311591E-16	1.031750E-17
3.880000E+03	1.361858E-16	1.055501E-17
3.890000E+03	1.414779E-16	1.080797E-17
3.900000E+03	1.470569E-16	1.107745E-17
3.910000E+03	1.529355E-16	1.136375E-17
3.920000E+03	1.591163E-16	1.166642E-17
3.930000E+03	1.656307E-16	1.198706E-17
3.940000E+03	1.724701E-16	1.232428E-17
3.950000E+03	1.796552E-16	1.267881E-17
3.960000E+03	1.872073E-16	1.305127E-17
3.970000E+03	1.951138E-16	1.343989E-17
3.980000E+03	2.033941E-16	1.384502E-17
3.990000E+03	2.120559E-16	1.426615E-17
4.000000E+03	2.210938E-16	1.470173E-17
4.010000E+03	2.305386E-16	1.515256E-17
4.020000E+03	2.403833E-16	1.561676E-17
4.030000E+03	2.506320E-16	1.609308E-17
4.040000E+03	2.612879E-16	1.658007E-17
4.050000E+03	2.723527E-16	1.707605E-17
4.060000E+03	2.838268E-16	1.757915E-17
4.070000E+03	2.957091E-16	1.808730E-17
4.080000E+03	3.079971E-16	1.859820E-17
4.090000E+03	3.206866E-16	1.910940E-17
4.100000E+03	3.337722E-16	1.961822E-17
4.110000E+03	3.472642E-16	2.012285E-17
4.120000E+03	3.611209E-16	2.061829E-17
4.130000E+03	3.753499E-16	2.110237E-17
4.140000E+03	3.899602E-16	2.157283E-17
4.150000E+03	4.049046E-16	2.202419E-17
4.160000E+03	4.201901E-16	2.245397E-17
4.170000E+03	4.358251E-16	2.285968E-17
4.180000E+03	4.517569E-16	2.323571E-17
4.190000E+03	4.680125E-16	2.358079E-17
4.200000E+03	4.845349E-16	2.388963E-17
4.210000E+03	5.013498E-16	2.416157E-17
4.220000E+03	5.183949E-16	2.439214E-17
4.230000E+03	5.356936E-16	2.458175E-17
4.240000E+03	5.531771E-16	2.472738E-17
4.250000E+03	5.708417E-16	2.483007E-17
4.260000E+03	5.886583E-16	2.489098E-17
4.270000E+03	6.065950E-16	2.491252E-17
4.280000E+03	6.245917E-16	2.489764E-17
4.290000E+03	6.426608E-16	2.485399E-17
4.300000E+03	6.607122E-16	2.478705E-17
4.310000E+03	6.787301E-16	2.470725E-17
4.320000E+03	6.966469E-16	2.462500E-17
4.330000E+03	7.144488E-16	2.455443E-17
4.340000E+03	7.320987E-16	2.451014E-17
4.350000E+03	7.495362E-16	2.450671E-17
4.360000E+03	7.667616E-16	2.456060E-17
4.370000E+03	7.837268E-16	2.468549E-17
4.380000E+03	8.004495E-16	2.489471E-17
4.390000E+03	8.169005E-16	2.519644E-17
4.400000E+03	8.330910E-16	2.559544E-17
4.410000E+03	8.490438E-16	2.609180E-17
4.420000E+03	8.648227E-16	2.668213E-17
4.430000E+03	8.804429E-16	2.735758E-17
4.440000E+03	8.959574E-16	2.810747E-17
4.450000E+03	9.113971E-16	2.891831E-17
4.460000E+03	9.268889E-16	2.977850E-17
4.470000E+03	9.424742E-16	3.067332E-17
4.480000E+03	9.581957E-16	3.158819E-17
4.490000E+03	9.741565E-16	3.251095E-17
4.500000E+03	9.904252E-16	3.342905E-17
4.510000E+03	1.007063E-15	3.433037E-17
4.520000E+03	1.024088E-15	3.520202E-17
4.530000E+03	1.041534E-15	3.603227E-17
4.540000E+03	1.059449E-15	3.681039E-17
4.550000E+03	1.077797E-15	3.752323E-17
4.560000E+03	1.096552E-15	3.815844E-17
4.570000E+03	1.115699E-15	3.870451E-17
4.580000E+03	1.135103E-15	3.914644E-17
4.590000E+03	1.154741E-15	3.947393E-17
4.600000E+03	1.174445E-15	3.967271E-17
4.610000E+03	1.194128E-15	3.973297E-17
4.620000E+03	1.213663E-15	3.964536E-17
4.630000E+03	1.232916E-15	3.940267E-17
4.640000E+03	1.251714E-15	3.899941E-17
4.650000E+03	1.269955E-15	3.843563E-17
4.660000E+03	1.287470E-15	3.771343E-17
4.670000E+03	1.304170E-15	3.684193E-17
4.680000E+03	1.319907E-15	3.583425E-17
4.690000E+03	1.334586E-15	3.471169E-17
4.700000E+03	1.348132E-15	3.350408E-17
4.710000E+03	1.360497E-15	3.225113E-17
4.720000E+03	1.371664E-15	3.100380E-17
4.730000E+03	1.381649E-15	2.982504E-17
4.740000E+03	1.390507E-15	2.878937E-17
4.750000E+03	1.398330E-15	2.797982E-17
4.760000E+03	1.405207E-15	2.748034E-17
4.770000E+03	1.411321E-15	2.736600E-17
4.780000E+03	1.416791E-15	2.768501E-17
4.790000E+03	1.421797E-15	2.844852E-17
4.800000E+03	1.426426E-15	2.962599E-17
4.810000E+03	1.430777E-15	3.115809E-17
4.820000E+03	1.434963E-15	3.297308E-17
4.830000E+03	1.438979E-15	3.499661E-17
4.840000E+03	1.442941E-15	3.716418E-17
4.850000E+03	1.446847E-15	3.941837E-17
4.860000E+03	1.450687E-15	4.171117E-17
4.870000E+03	1.454536E-15	4.400583E-17
4.880000E+03	1.458360E-15	4.627010E-17
4.890000E+03	1.462121E-15	4.847752E-17
4.900000E+03	1.465840E-15	5.060846E-17
4.910000E+03	1.469470E-15	5.264513E-17
4.920000E+03	1.473056E-15	5.457634E-17
4.930000E+03	1.476488E-15	5.638783E-17
4.940000E+03	1.479842E-15	5.807458E-17
4.950000E+03	1.483043E-15	5.962763E-17
4.960000E+03	1.486078E-15	6.104203E-17
4.970000E+03	1.488941E-15	6.231438E-17
4.980000E+03	1.491689E-15	6.344530E-17
4.990000E+03	1.494229E-15	6.443024E-17
5.000000E+03	1.496595E-15	6.527098E-17
5.010000E+03	1.498823E-15	6.597043E-17
5.020000E+03	1.500894E-15	6.652989E-17
5.030000E+03	1.502852E-15	6.695417E-17
5.040000E+03	1.504659E-15	6.724498E-17
5.050000E+03	1.506400E-15	6.741003E-17
5.060000E+03	1.508051E-15	6.745253E-17
5.070000E+03	1.509711E-15	6.738160E-17
5.080000E+03	1.511400E-15	6.720312E-17
5.090000E+03	1.513175E-15	6.692492E-17
5.100000E+03	1.515098E-15	6.655546E-17
5.110000E+03	1.517235E-15	6.610376E-17
5.120000E+03	1.519654E-15	6.557940E-17
5.130000E+03	1.522420E-15	6.499238E-17
5.140000E+03	1.525598E-15	6.435311E-17
5.150000E+03	1.529271E-15	6.367348E-17
5.160000E+03	1.533433E-15	6.296206E-17
5.170000E+03	1.538150E-15	6.223105E-17
5.180000E+03	1.543447E-15	6.149143E-17
5.190000E+03	1.549341E-15	6.075395E-17
5.200000E+03	1.555834E-15	6.002887E-17
5.210000E+03	1.562918E-15	5.932565E-17
5.220000E+03	1.570576E-15	5.865241E-17
5.230000E+03	1.578780E-15	5.801538E-17
5.240000E+03	1.587497E-15	5.741814E-17
5.250000E+03	1.596685E-15	5.686091E-17
5.260000E+03	1.606297E-15	5.634011E-17
5.270000E+03	1.616280E-15	5.584832E-17
5.280000E+03	1.626574E-15	5.537485E-17
5.290000E+03	1.637115E-15	5.490676E-17
5.300000E+03	1.647833E-15	5.443015E-17
5.310000E+03	1.658655E-15	5.393148E-17
5.320000E+03	1.669502E-15	5.339872E-17
5.330000E+03	1.680291E-15	5.282228E-17
5.340000E+03	1.690938E-15	5.219574E-17
5.350000E+03	1.701355E-15	5.151623E-17
5.360000E+03	1.711482E-15	5.078562E-17
5.370000E+03	1.721177E-15	5.000716E-17
5.380000E+03	1.730380E-15	4.919063E-17
5.390000E+03	1.739038E-15	4.834964E-17
5.400000E+03	1.747014E-15	4.749926E-17
5.410000E+03	1.754292E-15	4.666146E-17
5.420000E+03	1.760748E-15	4.585854E-17
5.430000E+03	1.766382E-15	4.511874E-17
5.440000E+03	1.771118E-15	4.447002E-17
5.450000E+03	1.774898E-15	4.394085E-17
5.460000E+03	1.777761E-15	4.356019E-17
5.470000E+03	1.779682E-15	4.335070E-17
5.480000E+03	1.780677E-15	4.332862E-17
5.490000E+03	1.780773E-15	4.350019E-17
5.500000E+03	1.779997E-15	4.385947E-17
5.510000E+03	1.778378E-15	4.438829E-17
5.520000E+03	1.775936E-15	4.505885E-17
5.530000E+03	1.772691E-15	4.583745E-17
5.540000E+03	1.768659E-15	4.668814E-17
5.550000E+03	1.763856E-15	4.757544E-17
5.560000E+03	1.758274E-15	4.846554E-17
5.570000E+03	1.751986E-15	4.933043E-17
5.580000E+03	1.744990E-15	5.014421E-17
5.590000E+03	1.737290E-15	5.088543E-17
5.600000E+03	1.728975E-15	5.153954E-17
5.610000E+03	1.720036E-15	5.209332E-17
5.620000E+03	1.710542E-15	5.254011E-17
5.630000E+03	1.700541E-15	5.287652E-17
5.640000E+03	1.690056E-15	5.310213E-17
5.650000E+03	1.679158E-15	5.322165E-17
5.660000E+03	1.667894E-15	5.324219E-17
5.670000E+03	1.656309E-15	5.317362E-17
5.680000E+03	1.644427E-15	5.302735E-17
5.690000E+03	1.632325E-15	5.281800E-17
5.700000E+03	1.620039E-15	5.255962E-17
5.710000E+03	1.607643E-15	5.226733E-17
5.720000E+03	1.595247E-15	5.195658E-17
5.730000E+03	1.582956E-15	5.164103E-17
5.740000E+03	1.570870E-15	5.133205E-17
5.750000E+03	1.559130E-15	5.103985E-17
5.760000E+03	1.547895E-15	5.077245E-17
5.770000E+03	1.537360E-15	5.053631E-17
5.780000E+03	1.527661E-15	5.033346E-17
5.790000E+03	1.519029E-15	5.016681E-17
5.800000E+03	1.511621E-15	5.003539E-17
5.810000E+03	1.505609E-15	4.993755E-17
5.820000E+03	1.501144E-15	4.987057E-17
5.830000E+03	1.498345E-15	4.983078E-17
5.840000E+03	1.497275E-15	4.981299E-17
5.850000E+03	1.498012E-15	4.981324E-17
5.860000E+03	1.500495E-15	4.982384E-17
5.870000E+03	1.504672E-15	4.983835E-17
5.880000E+03	1.510393E-15	4.984825E-17
5.890000E+03	1.517506E-15	4.984619E-17
5.900000E+03	1.525802E-15	4.982430E-17
5.910000E+03	1.535022E-15	4.977478E-17
5.920000E+03	1.544940E-15	4.969245E-17
5.930000E+03	1.555287E-15	4.957234E-17
5.940000E+03	1.565823E-15	4.941198E-17
5.950000E+03	1.576352E-15	4.921136E-17
5.960000E+03	1.586659E-15	4.897070E-17
5.970000E+03	1.596607E-15	4.869274E-17
5.980000E+03	1.606024E-15	4.837892E-17
5.990000E+03	1.614864E-15	4.803353E-17
6.000000E+03	1.623019E-15	4.765791E-17
6.010000E+03	1.630497E-15	4.725530E-17
6.020000E+03	1.637262E-15	4.682584E-17
6.030000E+03	1.643316E-15	4.636881E-17
6.040000E+03	1.648670E-15	4.588160E-17
6.050000E+03	1.653324E-15	4.535879E-17
6.060000E+03	1.657350E-15	4.479449E-17
6.070000E+03	1.660754E-15	4.417865E-17
6.080000E+03	1.663542E-15	4.349949E-17
6.090000E+03	1.665786E-15	4.274603E-17
6.100000E+03	1.667463E-15	4.190514E-17
6.110000E+03	1.668611E-15	4.096701E-17
6.120000E+03	1.669240E-15	3.992425E-17
6.130000E+03	1.669329E-15	3.877331E-17
6.140000E+03	1.668925E-15	3.751787E-17
6.150000E+03	1.667978E-15	3.616630E-17
6.160000E+03	1.666508E-15	3.473629E-17
6.170000E+03	1.664516E-15	3.325367E-17
6.180000E+03	1.662009E-15	3.175373E-17
6.190000E+03	1.658980E-15	3.028136E-17
6.200000E+03	1.655499E-15	2.889273E-17
6.210000E+03	1.651556E-15	2.765093E-17
6.220000E+03	1.647214E-15	2.662432E-17
6.230000E+03	1.642520E-15	2.587546E-17
6.240000E+03	1.637519E-15	2.544658E-17
6.250000E+03	1.632252E-15	2.534527E-17
6.260000E+03	1.626756E-15	2.554190E-17
6.270000E+03	1.621041E-15	2.598153E-17
6.280000E+03	1.615193E-15	2.660222E-17
6.290000E+03	1.609236E-15	2.734545E-17
6.300000E+03	1.603235E-15	2.816357E-17
6.310000E+03	1.597265E-15	2.902078E-17
6.320000E+03	1.591421E-15	2.989197E-17
6.330000E+03	1.585832E-15	3.076084E-17
6.340000E+03	1.580575E-15	3.161578E-17
6.350000E+03	1.575820E-15	3.245050E-17
6.360000E+03	1.571698E-15	3.325954E-17
6.370000E+03	1.568320E-15	3.403739E-17
6.380000E+03	1.565813E-15	3.477857E-17
6.390000E+03	1.564317E-15	3.547773E-17
6.400000E+03	1.563917E-15	3.612857E-17
6.410000E+03	1.564729E-15	3.672648E-17
6.420000E+03	1.566825E-15	3.726782E-17
6.430000E+03	1.570264E-15	3.775097E-17
6.440000E+03	1.575054E-15	3.817631E-17
6.450000E+03	1.581223E-15	3.854799E-17
6.460000E+03	1.588771E-15	3.887301E-17
6.470000E+03	1.597598E-15	3.915957E-17
6.480000E+03	1.607632E-15	3.942003E-17
6.490000E+03	1.618764E-15	3.966897E-17
6.500000E+03	1.630802E-15	3.992135E-17
6.510000E+03	1.643534E-15	4.019293E-17
6.520000E+03	1.656708E-15	4.049774E-17
6.530000E+03	1.670057E-15	4.084567E-17
6.540000E+03	1.683253E-15	4.123852E-17
6.550000E+03	1.695917E-15	4.166911E-17
6.560000E+03	1.707702E-15	4.212480E-17
6.570000E+03	1.718220E-15	4.258813E-17
6.580000E+03	1.727147E-15	4.304171E-17
6.590000E+03	1.734173E-15	4.346851E-17
6.600000E+03	1.739031E-15	4.385395E-17
6.610000E+03	1.741516E-15	4.418698E-17
6.620000E+03	1.741513E-15	4.446126E-17
6.630000E+03	1.738911E-15	4.467286E-17
6.640000E+03	1.733744E-15	4.482365E-17
6.650000E+03	1.726124E-15	4.491878E-17
6.660000E+03	1.716181E-15	4.496448E-17
6.670000E+03	1.704150E-15	4.496964E-17
6.680000E+03	1.690237E-15	4.494164E-17
6.690000E+03	1.674796E-15	4.489082E-17
6.700000E+03	1.658075E-15	4.482357E-17
6.710000E+03	1.640397E-15	4.474724E-17
6.720000E+03	1.622027E-15	4.466685E-17
6.730000E+03	1.603257E-15	4.458768E-17
6.740000E+03	1.584334E-15	4.451346E-17
6.750000E+03	1.565480E-15	4.444711E-17
6.760000E+03	1.546884E-15	4.439082E-17
6.770000E+03	1.528708E-15	4.434615E-17
6.780000E+03	1.511063E-15	4.431345E-17
6.790000E+03	1.494099E-15	4.429449E-17
6.800000E+03	1.477875E-15	4.428868E-17
6.810000E+03	1.462451E-15	4.429572E-17
6.820000E+03	1.447888E-15	4.431562E-17
6.830000E+03	1.434165E-15	4.434625E-17
6.840000E+03	1.421336E-15	4.438790E-17
6.850000E+03	1.409398E-15	4.443948E-17
6.860000E+03	1.398300E-15	4.449858E-17
6.870000E+03	1.388065E-15	4.456540E-17
6.880000E+03	1.378672E-15	4.463887E-17
6.890000E+03	1.370073E-15	4.471732E-17
6.900000E+03	1.362258E-15	4.480040E-17
6.910000E+03	1.355176E-15	4.488640E-17
6.920000E+03	1.348812E-15	4.497487E-17
6.930000E+03	1.343111E-15	4.506392E-17
6.940000E+03	1.338058E-15	4.515286E-17
6.950000E+03	1.333617E-15	4.524018E-17
6.960000E+03	1.329730E-15	4.532355E-17
6.970000E+03	1.326400E-15	4.540258E-17
6.980000E+03	1.323531E-15	4.547340E-17
6.990000E+03	1.321146E-15	4.553629E-17
7.000000E+03	1.319188E-15	4.558889E-17
7.010000E+03	1.317601E-15	4.562907E-17
7.020000E+03	1.316372E-15	4.565638E-17
7.030000E+03	1.315468E-15	4.567010E-17
7.040000E+03	1.314860E-15	4.566992E-17
7.050000E+03	1.314523E-15	4.565597E-17
7.060000E+03	1.314433E-15	4.562877E-17
7.070000E+03	1.314573E-15	4.558915E-17
7.080000E+03	1.314908E-15	4.553746E-17
7.090000E+03	1.315465E-15	4.547626E-17
7.100000E+03	1.316196E-15	4.540525E-17
7.110000E+03	1.317134E-15	4.532685E-17
7.120000E+03	1.318229E-15	4.524040E-17
7.130000E+03	1.319495E-15	4.514708E-17
7.140000E+03	1.320942E-15	4.504765E-17
7.150000E+03	1.322518E-15	4.494034E-17
7.160000E+03	1.324247E-15	4.482573E-17
7.170000E+03	1.326067E-15	4.470105E-17
7.180000E+03	1.327994E-15	4.456588E-17
7.190000E+03	1.329953E-15	4.441642E-17
7.200000E+03	1.331948E-15	4.425131E-17
7.210000E+03	1.333893E-15	4.406598E-17
7.220000E+03	1.335779E-15	4.385847E-17
7.230000E+03	1.337509E-15	4.362394E-17
7.240000E+03	1.339067E-15	4.336046E-17
7.250000E+03	1.340369E-15	4.306424E-17
7.260000E+03	1.341332E-15	4.273188E-17
7.270000E+03	1.341934E-15	4.236253E-17
7.280000E+03	1.342094E-15	4.195379E-17
7.290000E+03	1.341752E-15	4.150453E-17
7.300000E+03	1.340855E-15	4.101428E-17
7.310000E+03	1.339357E-15	4.048330E-17
7.320000E+03	1.337221E-15	3.991270E-17
7.330000E+03	1.334424E-15	3.930455E-17
7.340000E+03	1.330953E-15	3.866196E-17
7.350000E+03	1.326814E-15	3.798900E-17
7.360000E+03	1.322049E-15	3.729119E-17
7.370000E+03	1.316652E-15	3.657265E-17
7.380000E+03	1.310694E-15	3.583944E-17
7.390000E+03	1.304239E-15	3.509646E-17
7.400000E+03	1.297378E-15	3.434806E-17
7.410000E+03	1.290140E-15	3.359518E-17
7.420000E+03	1.282635E-15	3.283886E-17
7.430000E+03	1.274877E-15	3.207534E-17
7.440000E+03	1.266949E-15	3.130047E-17
7.450000E+03	1.258853E-15	3.050610E-17
7.460000E+03	1.250570E-15	2.968261E-17
7.470000E+03	1.242126E-15	2.882156E-17
7.480000E+03	1.233473E-15	2.791411E-17
7.490000E+03	1.224577E-15	2.695447E-17
7.500000E+03	1.215380E-15	2.594014E-17
7.510000E+03	1.205896E-15	2.487454E-17
7.520000E+03	1.196085E-15	2.376465E-17
7.530000E+03	1.185948E-15	2.262317E-17
7.540000E+03	1.175508E-15	2.146817E-17
7.550000E+03	1.164809E-15	2.032353E-17
7.560000E+03	1.153919E-15	1.921966E-17
7.570000E+03	1.142926E-15	1.819425E-17
7.580000E+03	1.131933E-15	1.729239E-17
7.590000E+03	1.121067E-15	1.656490E-17
7.600000E+03	1.110403E-15	1.606124E-17
7.610000E+03	1.100073E-15	1.582008E-17
7.620000E+03	1.090185E-15	1.585496E-17
7.630000E+03	1.080863E-15	1.614861E-17
7.640000E+03	1.072156E-15	1.665857E-17
7.650000E+03	1.064169E-15	1.733292E-17
7.660000E+03	1.056904E-15	1.811913E-17
7.670000E+03	1.050412E-15	1.897232E-17
7.680000E+03	1.044646E-15	1.985421E-17
7.690000E+03	1.039617E-15	2.073530E-17
7.700000E+03	1.035247E-15	2.159083E-17
7.710000E+03	1.031529E-15	2.240244E-17
7.720000E+03	1.028392E-15	2.315453E-17
7.730000E+03	1.025786E-15	2.383496E-17
7.740000E+03	1.023635E-15	2.443364E-17
7.750000E+03	1.021923E-15	2.494399E-17
7.760000E+03	1.020572E-15	2.536002E-17
