#wls	flux	fluxerr
1.600000E+03	1.778599E-17	1.635767E-17
1.640000E+03	1.791442E-17	1.629856E-17
1.680000E+03	1.805028E-17	1.623895E-17
1.720000E+03	1.818802E-17	1.617349E-17
1.760000E+03	1.832778E-17	1.610206E-17
1.800000E+03	1.846977E-17	1.602461E-17
1.840000E+03	1.861970E-17	1.594577E-17
1.880000E+03	1.876688E-17	1.585605E-17
1.920000E+03	1.892800E-17	1.576926E-17
1.960000E+03	1.908713E-17	1.567165E-17
2.000000E+03	1.926090E-17	1.557653E-17
2.040000E+03	1.943375E-17	1.547076E-17
2.080000E+03	1.962226E-17	1.536716E-17
2.120000E+03	1.981649E-17	1.525727E-17
2.160000E+03	2.001731E-17	1.514129E-17
2.200000E+03	2.023607E-17	1.502718E-17
2.240000E+03	2.046341E-17	1.490711E-17
2.280000E+03	2.070573E-17	1.478509E-17
2.320000E+03	2.096440E-17	1.466117E-17
2.360000E+03	2.124099E-17	1.453545E-17
2.400000E+03	2.154236E-17	1.441146E-17
2.440000E+03	2.186041E-17	1.428250E-17
2.480000E+03	2.220762E-17	1.415547E-17
2.520000E+03	2.258665E-17	1.403032E-17
2.560000E+03	2.299549E-17	1.390402E-17
2.600000E+03	2.343765E-17	1.377682E-17
2.640000E+03	2.392726E-17	1.365479E-17
2.680000E+03	2.445881E-17	1.353213E-17
2.720000E+03	2.504267E-17	1.341187E-17
2.760000E+03	2.568497E-17	1.329406E-17
2.800000E+03	2.639793E-17	1.318134E-17
2.840000E+03	2.718466E-17	1.307097E-17
2.880000E+03	2.805988E-17	1.296537E-17
2.920000E+03	2.902945E-17	1.286185E-17
2.960000E+03	3.011158E-17	1.276250E-17
3.000000E+03	3.132141E-17	1.266675E-17
3.010000E+03	3.165071E-17	1.264524E-17
3.020000E+03	3.198244E-17	1.262111E-17
3.030000E+03	3.232806E-17	1.259879E-17
3.040000E+03	3.268231E-17	1.257605E-17
3.050000E+03	3.304551E-17	1.255288E-17
3.060000E+03	3.342372E-17	1.253142E-17
3.070000E+03	3.381162E-17	1.250950E-17
3.080000E+03	3.420957E-17	1.248709E-17
3.090000E+03	3.461795E-17	1.246418E-17
3.100000E+03	3.504301E-17	1.244286E-17
3.110000E+03	3.547937E-17	1.242098E-17
3.120000E+03	3.592744E-17	1.239854E-17
3.130000E+03	3.639367E-17	1.237755E-17
3.140000E+03	3.687258E-17	1.235592E-17
3.150000E+03	3.736467E-17	1.233363E-17
3.160000E+03	3.787043E-17	1.231065E-17
3.170000E+03	3.839654E-17	1.228893E-17
3.180000E+03	3.893746E-17	1.226644E-17
3.190000E+03	3.950003E-17	1.224509E-17
3.200000E+03	4.007865E-17	1.222285E-17
3.210000E+03	4.067392E-17	1.219970E-17
3.220000E+03	4.128647E-17	1.217559E-17
3.230000E+03	4.192346E-17	1.215236E-17
3.240000E+03	4.257917E-17	1.212804E-17
3.250000E+03	4.325430E-17	1.210257E-17
3.260000E+03	4.395629E-17	1.207775E-17
3.270000E+03	4.467932E-17	1.205162E-17
3.280000E+03	4.542416E-17	1.202413E-17
3.290000E+03	4.619858E-17	1.199700E-17
3.300000E+03	4.699661E-17	1.196833E-17
3.310000E+03	4.782624E-17	1.193980E-17
3.320000E+03	4.867424E-17	1.190775E-17
3.330000E+03	4.956310E-17	1.187739E-17
3.340000E+03	5.047223E-17	1.184332E-17
3.350000E+03	5.141727E-17	1.180892E-17
3.360000E+03	5.239197E-17	1.177232E-17
3.370000E+03	5.340504E-17	1.173511E-17
3.380000E+03	5.445013E-17	1.169543E-17
3.390000E+03	5.552834E-17	1.165317E-17
3.400000E+03	5.664881E-17	1.160982E-17
3.410000E+03	5.780496E-17	1.156358E-17
3.420000E+03	5.899801E-17	1.151430E-17
3.430000E+03	6.023750E-17	1.146342E-17
3.440000E+03	6.151662E-17	1.140918E-17
3.450000E+03	6.284522E-17	1.135296E-17
3.460000E+03	6.421629E-17	1.129302E-17
3.470000E+03	6.563114E-17	1.122920E-17
3.480000E+03	6.710009E-17	1.116285E-17
3.490000E+03	6.861577E-17	1.109227E-17
3.500000E+03	7.018881E-17	1.101877E-17
3.510000E+03	7.181155E-17	1.094070E-17
3.520000E+03	7.348532E-17	1.085793E-17
3.530000E+03	7.522121E-17	1.077174E-17
3.540000E+03	7.701103E-17	1.068058E-17
3.550000E+03	7.886617E-17	1.058571E-17
3.560000E+03	8.077804E-17	1.048568E-17
3.570000E+03	8.274779E-17	1.038047E-17
3.580000E+03	8.478715E-17	1.027137E-17
3.590000E+03	8.688682E-17	1.015710E-17
3.600000E+03	8.905875E-17	1.003902E-17
3.610000E+03	9.129302E-17	9.916029E-18
3.620000E+03	9.360178E-17	9.789567E-18
3.630000E+03	9.596271E-17	9.657549E-18
3.640000E+03	9.841127E-17	9.523948E-18
3.650000E+03	1.009246E-16	9.386909E-18
3.660000E+03	1.035026E-16	9.247106E-18
3.670000E+03	1.061576E-16	9.106431E-18
3.680000E+03	1.088769E-16	8.964709E-18
3.690000E+03	1.116728E-16	8.824087E-18
3.700000E+03	1.145315E-16	8.684753E-18
3.710000E+03	1.174518E-16	8.548131E-18
3.720000E+03	1.204459E-16	8.416761E-18
3.730000E+03	1.234985E-16	8.291322E-18
3.740000E+03	1.266221E-16	8.174529E-18
3.750000E+03	1.298004E-16	8.067237E-18
3.760000E+03	1.330459E-16	7.972146E-18
3.770000E+03	1.363419E-16	7.890037E-18
3.780000E+03	1.397011E-16	7.823309E-18
3.790000E+03	1.431064E-16	7.772337E-18
3.800000E+03	1.465711E-16	7.738896E-18
3.810000E+03	1.500613E-16	7.721802E-18
3.820000E+03	1.536237E-16	7.723650E-18
3.830000E+03	1.572241E-16	7.742367E-18
3.840000E+03	1.608606E-16	7.777131E-18
3.850000E+03	1.645489E-16	7.827553E-18
3.860000E+03	1.682703E-16	7.891263E-18
3.870000E+03	1.720410E-16	7.967312E-18
3.880000E+03	1.758418E-16	8.052937E-18
3.890000E+03	1.796891E-16	8.146977E-18
3.900000E+03	1.835626E-16	8.246613E-18
3.910000E+03	1.874597E-16	8.349934E-18
3.920000E+03	1.913964E-16	8.456012E-18
3.930000E+03	1.953697E-16	8.563245E-18
3.940000E+03	1.993560E-16	8.669353E-18
3.950000E+03	2.033499E-16	8.773100E-18
3.960000E+03	2.073659E-16	8.874318E-18
3.970000E+03	2.113772E-16	8.971284E-18
3.980000E+03	2.153971E-16	9.064192E-18
3.990000E+03	2.193970E-16	9.151628E-18
4.000000E+03	2.233895E-16	9.234062E-18
4.010000E+03	2.273446E-16	9.310293E-18
4.020000E+03	2.312526E-16	9.380075E-18
4.030000E+03	2.351261E-16	9.444088E-18
4.040000E+03	2.389562E-16	9.502139E-18
4.050000E+03	2.427116E-16	9.553140E-18
4.060000E+03	2.463831E-16	9.596864E-18
4.070000E+03	2.499847E-16	9.633929E-18
4.080000E+03	2.534854E-16	9.663146E-18
4.090000E+03	2.568772E-16	9.684171E-18
4.100000E+03	2.601760E-16	9.697501E-18
4.110000E+03	2.633757E-16	9.702732E-18
4.120000E+03	2.664475E-16	9.698595E-18
4.130000E+03	2.693871E-16	9.684715E-18
4.140000E+03	2.722162E-16	9.661591E-18
4.150000E+03	2.749110E-16	9.628066E-18
4.160000E+03	2.774979E-16	9.584727E-18
4.170000E+03	2.799587E-16	9.530563E-18
4.180000E+03	2.823018E-16	9.465499E-18
4.190000E+03	2.845628E-16	9.390366E-18
4.200000E+03	2.867317E-16	9.304520E-18
4.210000E+03	2.888491E-16	9.209066E-18
4.220000E+03	2.909092E-16	9.103735E-18
4.230000E+03	2.929313E-16	8.989267E-18
4.240000E+03	2.949591E-16	8.867358E-18
4.250000E+03	2.969877E-16	8.738458E-18
4.260000E+03	2.990595E-16	8.604711E-18
4.270000E+03	3.011669E-16	8.467082E-18
4.280000E+03	3.033240E-16	8.327518E-18
4.290000E+03	3.055665E-16	8.188882E-18
4.300000E+03	3.078784E-16	8.053014E-18
4.310000E+03	3.102647E-16	7.922772E-18
4.320000E+03	3.127516E-16	7.802002E-18
4.330000E+03	3.153139E-16	7.693704E-18
4.340000E+03	3.179483E-16	7.601874E-18
4.350000E+03	3.206744E-16	7.531322E-18
4.360000E+03	3.234628E-16	7.485705E-18
4.370000E+03	3.263334E-16	7.469500E-18
4.380000E+03	3.292344E-16	7.484712E-18
4.390000E+03	3.322401E-16	7.534954E-18
4.400000E+03	3.352806E-16	7.618962E-18
4.410000E+03	3.384138E-16	7.736744E-18
4.420000E+03	3.416028E-16	7.884756E-18
4.430000E+03	3.449391E-16	8.061436E-18
4.440000E+03	3.483678E-16	8.261323E-18
4.450000E+03	3.519614E-16	8.481794E-18
4.460000E+03	3.557189E-16	8.718627E-18
4.470000E+03	3.596646E-16	8.968477E-18
4.480000E+03	3.638477E-16	9.228940E-18
4.490000E+03	3.682641E-16	9.496554E-18
4.500000E+03	3.729313E-16	9.768554E-18
4.510000E+03	3.778614E-16	1.004209E-17
4.520000E+03	3.830862E-16	1.031479E-17
4.530000E+03	3.885770E-16	1.058251E-17
4.540000E+03	3.943219E-16	1.084133E-17
4.550000E+03	4.002988E-16	1.108680E-17
4.560000E+03	4.064753E-16	1.131398E-17
4.570000E+03	4.128365E-16	1.151824E-17
4.580000E+03	4.192758E-16	1.169229E-17
4.590000E+03	4.257884E-16	1.183168E-17
4.600000E+03	4.323086E-16	1.193036E-17
4.610000E+03	4.387091E-16	1.198082E-17
4.620000E+03	4.449447E-16	1.197822E-17
4.630000E+03	4.509720E-16	1.191820E-17
4.640000E+03	4.566640E-16	1.179482E-17
4.650000E+03	4.620161E-16	1.160617E-17
4.660000E+03	4.669454E-16	1.134921E-17
4.670000E+03	4.714100E-16	1.102314E-17
4.680000E+03	4.753820E-16	1.062899E-17
4.690000E+03	4.788799E-16	1.017071E-17
4.700000E+03	4.818505E-16	9.653224E-18
4.710000E+03	4.843497E-16	9.087294E-18
4.720000E+03	4.864530E-16	8.488701E-18
4.730000E+03	4.881669E-16	7.878706E-18
4.740000E+03	4.896359E-16	7.290202E-18
4.750000E+03	4.909021E-16	6.766196E-18
4.760000E+03	4.921377E-16	6.363828E-18
4.770000E+03	4.934278E-16	6.144899E-18
4.780000E+03	4.948439E-16	6.159959E-18
4.790000E+03	4.965128E-16	6.427558E-18
4.800000E+03	4.984313E-16	6.924637E-18
4.810000E+03	5.005626E-16	7.602014E-18
4.820000E+03	5.029380E-16	8.406647E-18
4.830000E+03	5.054930E-16	9.291533E-18
4.840000E+03	5.081603E-16	1.022002E-17
4.850000E+03	5.109601E-16	1.116648E-17
4.860000E+03	5.137968E-16	1.211005E-17
4.870000E+03	5.166931E-16	1.303752E-17
4.880000E+03	5.195565E-16	1.393655E-17
4.890000E+03	5.223840E-16	1.479954E-17
4.900000E+03	5.251453E-16	1.562012E-17
4.910000E+03	5.278125E-16	1.639343E-17
4.920000E+03	5.303599E-16	1.711576E-17
4.930000E+03	5.327645E-16	1.778442E-17
4.940000E+03	5.350062E-16	1.839756E-17
4.950000E+03	5.370383E-16	1.895308E-17
4.960000E+03	5.389046E-16	1.945266E-17
4.970000E+03	5.405354E-16	1.989454E-17
4.980000E+03	5.419509E-16	2.028068E-17
4.990000E+03	5.431456E-16	2.061260E-17
5.000000E+03	5.441166E-16	2.089238E-17
5.010000E+03	5.448354E-16	2.112148E-17
5.020000E+03	5.453632E-16	2.130513E-17
5.030000E+03	5.456495E-16	2.144453E-17
5.040000E+03	5.457340E-16	2.154456E-17
5.050000E+03	5.456314E-16	2.160924E-17
5.060000E+03	5.453327E-16	2.164172E-17
5.070000E+03	5.448899E-16	2.164750E-17
5.080000E+03	5.443309E-16	2.163099E-17
5.090000E+03	5.436879E-16	2.159657E-17
5.100000E+03	5.429691E-16	2.154734E-17
5.110000E+03	5.422684E-16	2.148944E-17
5.120000E+03	5.415443E-16	2.142320E-17
5.130000E+03	5.409200E-16	2.135497E-17
5.140000E+03	5.403820E-16	2.128519E-17
5.150000E+03	5.399962E-16	2.121688E-17
5.160000E+03	5.397981E-16	2.115137E-17
5.170000E+03	5.397928E-16	2.108826E-17
5.180000E+03	5.400337E-16	2.102854E-17
5.190000E+03	5.405420E-16	2.097149E-17
5.200000E+03	5.413070E-16	2.091467E-17
5.210000E+03	5.423654E-16	2.085709E-17
5.220000E+03	5.437221E-16	2.079611E-17
5.230000E+03	5.453516E-16	2.072766E-17
5.240000E+03	5.472770E-16	2.064927E-17
5.250000E+03	5.494660E-16	2.055627E-17
5.260000E+03	5.519365E-16	2.044592E-17
5.270000E+03	5.546786E-16	2.031457E-17
5.280000E+03	5.576550E-16	2.015787E-17
5.290000E+03	5.608802E-16	1.997387E-17
5.300000E+03	5.643156E-16	1.975927E-17
5.310000E+03	5.679751E-16	1.951337E-17
5.320000E+03	5.718195E-16	1.923443E-17
5.330000E+03	5.758625E-16	1.892346E-17
5.340000E+03	5.800911E-16	1.858153E-17
5.350000E+03	5.844651E-16	1.820988E-17
5.360000E+03	5.889972E-16	1.781255E-17
5.370000E+03	5.936458E-16	1.739295E-17
5.380000E+03	5.983946E-16	1.695642E-17
5.390000E+03	6.032533E-16	1.651015E-17
5.400000E+03	6.082026E-16	1.606161E-17
5.410000E+03	6.131938E-16	1.561879E-17
5.420000E+03	6.182308E-16	1.519246E-17
5.430000E+03	6.232602E-16	1.479343E-17
5.440000E+03	6.282825E-16	1.443540E-17
5.450000E+03	6.332410E-16	1.413209E-17
5.460000E+03	6.381057E-16	1.389864E-17
5.470000E+03	6.428748E-16	1.375038E-17
5.480000E+03	6.474896E-16	1.369921E-17
5.490000E+03	6.519479E-16	1.375373E-17
5.500000E+03	6.562186E-16	1.391536E-17
5.510000E+03	6.602133E-16	1.417690E-17
5.520000E+03	6.639601E-16	1.452722E-17
5.530000E+03	6.674338E-16	1.494988E-17
5.540000E+03	6.705863E-16	1.542597E-17
5.550000E+03	6.734052E-16	1.593725E-17
5.560000E+03	6.759151E-16	1.646757E-17
5.570000E+03	6.780910E-16	1.700160E-17
5.580000E+03	6.799736E-16	1.752795E-17
5.590000E+03	6.815535E-16	1.803640E-17
5.600000E+03	6.828570E-16	1.852004E-17
5.610000E+03	6.839451E-16	1.897512E-17
5.620000E+03	6.848257E-16	1.939852E-17
5.630000E+03	6.855389E-16	1.978976E-17
5.640000E+03	6.861555E-16	2.015089E-17
5.650000E+03	6.866892E-16	2.048364E-17
5.660000E+03	6.871817E-16	2.079169E-17
5.670000E+03	6.877018E-16	2.108041E-17
5.680000E+03	6.882581E-16	2.135393E-17
5.690000E+03	6.889136E-16	2.161839E-17
5.700000E+03	6.896706E-16	2.187802E-17
5.710000E+03	6.905566E-16	2.213758E-17
5.720000E+03	6.915956E-16	2.240114E-17
5.730000E+03	6.928373E-16	2.267276E-17
5.740000E+03	6.942709E-16	2.295358E-17
5.750000E+03	6.959396E-16	2.324527E-17
5.760000E+03	6.977976E-16	2.354533E-17
5.770000E+03	6.999089E-16	2.385366E-17
5.780000E+03	7.022755E-16	2.416700E-17
5.790000E+03	7.048357E-16	2.447888E-17
5.800000E+03	7.076345E-16	2.478584E-17
5.810000E+03	7.106507E-16	2.508168E-17
5.820000E+03	7.137953E-16	2.535772E-17
5.830000E+03	7.170826E-16	2.560908E-17
5.840000E+03	7.204287E-16	2.582789E-17
5.850000E+03	7.237658E-16	2.600757E-17
5.860000E+03	7.270436E-16	2.614307E-17
5.870000E+03	7.301427E-16	2.622792E-17
5.880000E+03	7.329638E-16	2.625757E-17
5.890000E+03	7.354018E-16	2.622848E-17
5.900000E+03	7.373792E-16	2.613933E-17
5.910000E+03	7.387627E-16	2.598797E-17
5.920000E+03	7.394572E-16	2.577464E-17
5.930000E+03	7.394120E-16	2.550192E-17
5.940000E+03	7.385095E-16	2.517064E-17
5.950000E+03	7.367761E-16	2.478678E-17
5.960000E+03	7.342111E-16	2.435524E-17
5.970000E+03	7.307903E-16	2.387978E-17
5.980000E+03	7.266399E-16	2.336850E-17
5.990000E+03	7.218325E-16	2.282697E-17
6.000000E+03	7.164982E-16	2.226185E-17
6.010000E+03	7.108173E-16	2.168064E-17
6.020000E+03	7.049012E-16	2.108815E-17
6.030000E+03	6.989798E-16	2.049225E-17
6.040000E+03	6.931997E-16	1.989785E-17
6.050000E+03	6.877547E-16	1.931078E-17
6.060000E+03	6.827717E-16	1.873440E-17
6.070000E+03	6.783866E-16	1.817178E-17
6.080000E+03	6.747127E-16	1.762465E-17
6.090000E+03	6.718381E-16	1.709332E-17
6.100000E+03	6.698485E-16	1.657726E-17
6.110000E+03	6.687481E-16	1.607326E-17
6.120000E+03	6.685371E-16	1.557772E-17
6.130000E+03	6.691862E-16	1.508639E-17
6.140000E+03	6.706637E-16	1.459566E-17
6.150000E+03	6.728611E-16	1.410167E-17
6.160000E+03	6.756729E-16	1.360313E-17
6.170000E+03	6.789758E-16	1.310201E-17
6.180000E+03	6.826585E-16	1.260530E-17
6.190000E+03	6.865482E-16	1.212475E-17
6.200000E+03	6.904935E-16	1.167928E-17
6.210000E+03	6.943436E-16	1.129418E-17
6.220000E+03	6.979804E-16	1.099942E-17
6.230000E+03	7.012468E-16	1.082315E-17
6.240000E+03	7.040365E-16	1.078489E-17
6.250000E+03	7.062781E-16	1.088723E-17
6.260000E+03	7.079656E-16	1.111453E-17
6.270000E+03	7.090717E-16	1.143737E-17
6.280000E+03	7.096211E-16	1.182231E-17
6.290000E+03	7.096566E-16	1.223795E-17
6.300000E+03	7.092624E-16	1.265876E-17
6.310000E+03	7.084799E-16	1.306450E-17
6.320000E+03	7.073862E-16	1.344119E-17
6.330000E+03	7.060646E-16	1.377959E-17
6.340000E+03	7.046289E-16	1.407451E-17
6.350000E+03	7.031407E-16	1.432218E-17
6.360000E+03	7.016876E-16	1.452091E-17
6.370000E+03	7.003808E-16	1.467046E-17
6.380000E+03	6.992734E-16	1.476998E-17
6.390000E+03	6.984382E-16	1.481941E-17
6.400000E+03	6.979397E-16	1.481889E-17
6.410000E+03	6.978594E-16	1.476948E-17
6.420000E+03	6.982155E-16	1.467176E-17
6.430000E+03	6.990413E-16	1.452792E-17
6.440000E+03	7.003853E-16	1.434239E-17
6.450000E+03	7.022313E-16	1.412085E-17
6.460000E+03	7.045772E-16	1.387267E-17
6.470000E+03	7.074355E-16	1.361176E-17
6.480000E+03	7.107256E-16	1.335506E-17
6.490000E+03	7.144879E-16	1.312696E-17
6.500000E+03	7.185867E-16	1.295302E-17
6.510000E+03	7.230059E-16	1.286330E-17
6.520000E+03	7.276287E-16	1.288420E-17
6.530000E+03	7.323426E-16	1.303457E-17
6.540000E+03	7.370362E-16	1.332036E-17
6.550000E+03	7.415180E-16	1.373151E-17
6.560000E+03	7.456365E-16	1.424697E-17
6.570000E+03	7.491801E-16	1.483791E-17
6.580000E+03	7.519715E-16	1.547400E-17
6.590000E+03	7.538499E-16	1.612630E-17
6.600000E+03	7.547072E-16	1.676983E-17
6.610000E+03	7.544374E-16	1.738334E-17
6.620000E+03	7.529130E-16	1.794881E-17
6.630000E+03	7.501604E-16	1.845543E-17
6.640000E+03	7.461884E-16	1.889540E-17
6.650000E+03	7.410162E-16	1.926412E-17
6.660000E+03	7.347268E-16	1.956110E-17
6.670000E+03	7.274329E-16	1.978877E-17
6.680000E+03	7.192985E-16	1.995262E-17
6.690000E+03	7.104751E-16	2.005914E-17
6.700000E+03	7.010967E-16	2.011513E-17
6.710000E+03	6.913276E-16	2.012877E-17
6.720000E+03	6.813553E-16	2.010911E-17
6.730000E+03	6.713064E-16	2.006340E-17
6.740000E+03	6.613225E-16	1.999909E-17
6.750000E+03	6.515553E-16	1.992365E-17
6.760000E+03	6.420893E-16	1.984208E-17
6.770000E+03	6.330408E-16	1.975999E-17
6.780000E+03	6.244587E-16	1.968049E-17
6.790000E+03	6.164223E-16	1.960732E-17
6.800000E+03	6.089463E-16	1.954185E-17
6.810000E+03	6.020767E-16	1.948625E-17
6.820000E+03	5.957995E-16	1.944059E-17
6.830000E+03	5.901353E-16	1.940599E-17
6.840000E+03	5.850498E-16	1.938176E-17
6.850000E+03	5.805246E-16	1.936775E-17
6.860000E+03	5.765590E-16	1.936451E-17
6.870000E+03	5.731264E-16	1.937183E-17
6.880000E+03	5.701767E-16	1.938883E-17
6.890000E+03	5.676816E-16	1.941541E-17
6.900000E+03	5.656354E-16	1.945233E-17
6.910000E+03	5.640107E-16	1.949956E-17
6.920000E+03	5.627597E-16	1.955631E-17
6.930000E+03	5.618576E-16	1.962242E-17
6.940000E+03	5.613026E-16	1.969833E-17
6.950000E+03	5.610722E-16	1.978354E-17
6.960000E+03	5.611226E-16	1.987648E-17
6.970000E+03	5.614548E-16	1.997689E-17
6.980000E+03	5.620264E-16	2.008266E-17
6.990000E+03	5.628399E-16	2.019302E-17
7.000000E+03	5.638540E-16	2.030539E-17
7.010000E+03	5.650726E-16	2.041865E-17
7.020000E+03	5.664559E-16	2.053007E-17
7.030000E+03	5.680100E-16	2.063858E-17
7.040000E+03	5.697199E-16	2.074251E-17
7.050000E+03	5.715502E-16	2.083969E-17
7.060000E+03	5.735124E-16	2.093001E-17
7.070000E+03	5.755757E-16	2.101222E-17
7.080000E+03	5.777576E-16	2.108727E-17
7.090000E+03	5.800566E-16	2.115584E-17
7.100000E+03	5.824517E-16	2.121830E-17
7.110000E+03	5.849713E-16	2.127710E-17
7.120000E+03	5.876010E-16	2.133329E-17
7.130000E+03	5.903751E-16	2.138974E-17
7.140000E+03	5.932829E-16	2.144753E-17
7.150000E+03	5.963843E-16	2.151005E-17
7.160000E+03	5.996183E-16	2.157595E-17
7.170000E+03	6.030632E-16	2.164842E-17
7.180000E+03	6.066711E-16	2.172559E-17
7.190000E+03	6.104577E-16	2.180738E-17
7.200000E+03	6.143795E-16	2.189110E-17
7.210000E+03	6.184301E-16	2.197495E-17
7.220000E+03	6.225656E-16	2.205550E-17
7.230000E+03	6.267033E-16	2.212773E-17
7.240000E+03	6.307978E-16	2.218793E-17
7.250000E+03	6.347410E-16	2.223025E-17
7.260000E+03	6.384923E-16	2.225143E-17
7.270000E+03	6.419005E-16	2.224471E-17
7.280000E+03	6.448626E-16	2.220542E-17
7.290000E+03	6.473290E-16	2.213117E-17
7.300000E+03	6.491508E-16	2.201662E-17
7.310000E+03	6.502417E-16	2.185904E-17
7.320000E+03	6.505846E-16	2.165846E-17
7.330000E+03	6.500750E-16	2.141238E-17
7.340000E+03	6.486848E-16	2.112122E-17
7.350000E+03	6.464635E-16	2.078828E-17
7.360000E+03	6.433784E-16	2.041446E-17
7.370000E+03	6.395003E-16	2.000419E-17
7.380000E+03	6.348669E-16	1.956093E-17
7.390000E+03	6.296112E-16	1.909102E-17
7.400000E+03	6.237712E-16	1.859759E-17
7.410000E+03	6.174438E-16	1.808519E-17
7.420000E+03	6.107765E-16	1.755922E-17
7.430000E+03	6.038090E-16	1.702115E-17
7.440000E+03	5.966492E-16	1.647367E-17
7.450000E+03	5.893433E-16	1.591696E-17
7.460000E+03	5.820000E-16	1.535225E-17
7.470000E+03	5.746169E-16	1.477732E-17
7.480000E+03	5.672555E-16	1.419159E-17
7.490000E+03	5.599202E-16	1.359327E-17
7.500000E+03	5.526583E-16	1.298232E-17
7.510000E+03	5.454894E-16	1.235917E-17
7.520000E+03	5.384329E-16	1.172589E-17
7.530000E+03	5.315098E-16	1.108677E-17
7.540000E+03	5.247216E-16	1.044853E-17
7.550000E+03	5.181189E-16	9.822473E-18
7.560000E+03	5.117332E-16	9.223743E-18
7.570000E+03	5.055982E-16	8.672476E-18
7.580000E+03	4.997275E-16	8.193481E-18
7.590000E+03	4.941771E-16	7.815955E-18
7.600000E+03	4.889795E-16	7.568471E-18
7.610000E+03	4.841670E-16	7.472615E-18
7.620000E+03	4.797540E-16	7.535176E-18
7.630000E+03	4.758216E-16	7.746218E-18
7.640000E+03	4.723659E-16	8.080752E-18
7.650000E+03	4.694368E-16	8.508905E-18
7.660000E+03	4.670300E-16	9.000787E-18
7.670000E+03	4.651885E-16	9.531754E-18
7.680000E+03	4.638607E-16	1.008050E-17
7.690000E+03	4.630455E-16	1.063139E-17
7.700000E+03	4.627129E-16	1.117197E-17
7.710000E+03	4.628055E-16	1.169199E-17
7.720000E+03	4.633232E-16	1.218470E-17
7.730000E+03	4.641801E-16	1.264279E-17
7.740000E+03	4.653503E-16	1.306162E-17
7.750000E+03	4.667865E-16	1.343696E-17
7.760000E+03	4.684409E-16	1.376530E-17
