#wls	flux	fluxerr
1.600000E+03	1.103660E-17	1.052949E-17
1.640000E+03	1.132952E-17	1.070803E-17
1.680000E+03	1.163298E-17	1.088846E-17
1.720000E+03	1.195892E-17	1.108129E-17
1.760000E+03	1.230326E-17	1.128188E-17
1.800000E+03	1.266736E-17	1.149064E-17
1.840000E+03	1.305268E-17	1.170797E-17
1.880000E+03	1.346081E-17	1.193433E-17
1.920000E+03	1.389978E-17	1.217567E-17
1.960000E+03	1.435899E-17	1.242148E-17
2.000000E+03	1.485326E-17	1.268336E-17
2.040000E+03	1.537847E-17	1.295626E-17
2.080000E+03	1.593698E-17	1.324063E-17
2.120000E+03	1.653136E-17	1.353694E-17
2.160000E+03	1.717189E-17	1.385172E-17
2.200000E+03	1.784666E-17	1.417330E-17
2.240000E+03	1.857425E-17	1.451437E-17
2.280000E+03	1.935054E-17	1.486918E-17
2.320000E+03	2.017920E-17	1.523799E-17
2.360000E+03	2.106415E-17	1.562100E-17
2.400000E+03	2.201892E-17	1.602511E-17
2.440000E+03	2.302954E-17	1.643677E-17
2.480000E+03	2.411978E-17	1.686957E-17
2.520000E+03	2.528519E-17	1.731629E-17
2.560000E+03	2.653086E-17	1.777631E-17
2.600000E+03	2.786202E-17	1.824875E-17
2.640000E+03	2.928402E-17	1.873240E-17
2.680000E+03	3.081478E-17	1.923350E-17
2.720000E+03	3.243500E-17	1.973452E-17
2.760000E+03	3.417560E-17	2.024881E-17
2.800000E+03	3.602887E-17	2.076549E-17
2.840000E+03	3.799917E-17	2.128091E-17
2.880000E+03	4.009016E-17	2.179076E-17
2.920000E+03	4.232120E-17	2.229880E-17
2.960000E+03	4.466126E-17	2.278185E-17
3.000000E+03	4.714447E-17	2.325106E-17
3.010000E+03	4.778486E-17	2.336398E-17
3.020000E+03	4.843301E-17	2.347492E-17
3.030000E+03	4.908885E-17	2.358374E-17
3.040000E+03	4.975231E-17	2.369032E-17
3.050000E+03	5.042332E-17	2.379453E-17
3.060000E+03	5.110179E-17	2.389623E-17
3.070000E+03	5.178762E-17	2.399529E-17
3.080000E+03	5.248069E-17	2.409158E-17
3.090000E+03	5.318089E-17	2.418494E-17
3.100000E+03	5.388809E-17	2.427525E-17
3.110000E+03	5.460213E-17	2.436235E-17
3.120000E+03	5.532286E-17	2.444610E-17
3.130000E+03	5.605012E-17	2.452635E-17
3.140000E+03	5.678371E-17	2.460295E-17
3.150000E+03	5.752345E-17	2.467576E-17
3.160000E+03	5.826911E-17	2.474461E-17
3.170000E+03	5.902049E-17	2.480936E-17
3.180000E+03	5.977733E-17	2.486986E-17
3.190000E+03	6.053940E-17	2.492595E-17
3.200000E+03	6.130641E-17	2.497747E-17
3.210000E+03	6.210149E-17	2.503370E-17
3.220000E+03	6.287782E-17	2.507564E-17
3.230000E+03	6.365821E-17	2.511256E-17
3.240000E+03	6.444234E-17	2.514430E-17
3.250000E+03	6.522988E-17	2.517072E-17
3.260000E+03	6.602046E-17	2.519167E-17
3.270000E+03	6.681373E-17	2.520700E-17
3.280000E+03	6.763450E-17	2.522597E-17
3.290000E+03	6.843222E-17	2.522963E-17
3.300000E+03	6.923144E-17	2.522726E-17
3.310000E+03	7.003171E-17	2.521872E-17
3.320000E+03	7.083262E-17	2.520388E-17
3.330000E+03	7.163370E-17	2.518263E-17
3.340000E+03	7.246124E-17	2.516412E-17
3.350000E+03	7.326152E-17	2.512966E-17
3.360000E+03	7.406055E-17	2.508843E-17
3.370000E+03	7.485782E-17	2.504035E-17
3.380000E+03	7.568061E-17	2.499450E-17
3.390000E+03	7.647311E-17	2.493240E-17
3.400000E+03	7.726230E-17	2.486320E-17
3.410000E+03	7.804767E-17	2.478682E-17
3.420000E+03	7.885742E-17	2.471221E-17
3.430000E+03	7.963374E-17	2.462125E-17
3.440000E+03	8.040461E-17	2.452297E-17
3.450000E+03	8.116947E-17	2.441734E-17
3.460000E+03	8.195746E-17	2.431314E-17
3.470000E+03	8.270888E-17	2.419269E-17
3.480000E+03	8.345263E-17	2.406486E-17
3.490000E+03	8.421856E-17	2.393830E-17
3.500000E+03	8.494558E-17	2.379572E-17
3.510000E+03	8.566332E-17	2.364584E-17
3.520000E+03	8.640227E-17	2.349715E-17
3.530000E+03	8.710008E-17	2.333280E-17
3.540000E+03	8.778707E-17	2.316135E-17
3.550000E+03	8.849434E-17	2.299111E-17
3.560000E+03	8.915840E-17	2.280571E-17
3.570000E+03	8.981020E-17	2.261353E-17
3.580000E+03	9.048148E-17	2.242271E-17
3.590000E+03	9.110765E-17	2.221735E-17
3.600000E+03	9.172030E-17	2.200568E-17
3.610000E+03	9.235178E-17	2.179559E-17
3.620000E+03	9.293650E-17	2.157176E-17
3.630000E+03	9.350669E-17	2.134221E-17
3.640000E+03	9.409523E-17	2.111458E-17
3.650000E+03	9.463569E-17	2.087414E-17
3.660000E+03	9.519433E-17	2.063592E-17
3.670000E+03	9.570421E-17	2.038559E-17
3.680000E+03	9.619851E-17	2.013077E-17
3.690000E+03	9.671095E-17	1.987868E-17
3.700000E+03	9.717396E-17	1.961563E-17
3.710000E+03	9.765528E-17	1.935571E-17
3.720000E+03	9.808698E-17	1.908565E-17
3.730000E+03	9.850307E-17	1.881261E-17
3.740000E+03	9.893802E-17	1.854337E-17
3.750000E+03	9.932346E-17	1.826528E-17
3.760000E+03	9.972837E-17	1.799146E-17
3.770000E+03	1.000841E-16	1.770970E-17
3.780000E+03	1.004601E-16	1.743269E-17
3.790000E+03	1.007876E-16	1.714866E-17
3.800000E+03	1.011016E-16	1.686408E-17
3.810000E+03	1.014374E-16	1.658499E-17
3.820000E+03	1.017261E-16	1.630026E-17
3.830000E+03	1.020380E-16	1.602151E-17
3.840000E+03	1.023039E-16	1.573802E-17
3.850000E+03	1.025947E-16	1.546096E-17
3.860000E+03	1.028411E-16	1.518003E-17
3.870000E+03	1.031140E-16	1.490597E-17
3.880000E+03	1.033444E-16	1.462884E-17
3.890000E+03	1.036035E-16	1.435896E-17
3.900000E+03	1.038221E-16	1.408675E-17
3.910000E+03	1.040716E-16	1.382211E-17
3.920000E+03	1.042831E-16	1.355582E-17
3.930000E+03	1.044928E-16	1.329283E-17
3.940000E+03	1.047376E-16	1.303771E-17
3.950000E+03	1.049482E-16	1.278173E-17
3.960000E+03	1.051969E-16	1.253370E-17
3.970000E+03	1.054145E-16	1.228520E-17
3.980000E+03	1.056733E-16	1.204462E-17
3.990000E+03	1.059044E-16	1.180382E-17
4.000000E+03	1.061803E-16	1.157076E-17
4.010000E+03	1.064320E-16	1.133761E-17
4.020000E+03	1.067323E-16	1.111191E-17
4.030000E+03	1.070123E-16	1.088607E-17
4.040000E+03	1.073449E-16	1.066727E-17
4.050000E+03	1.076612E-16	1.044815E-17
4.060000E+03	1.080345E-16	1.023551E-17
4.070000E+03	1.083957E-16	1.002225E-17
4.080000E+03	1.088185E-16	9.814776E-18
4.090000E+03	1.092336E-16	9.606241E-18
4.100000E+03	1.097152E-16	9.402704E-18
4.110000E+03	1.101936E-16	9.197553E-18
4.120000E+03	1.107434E-16	8.996514E-18
4.130000E+03	1.112947E-16	8.793222E-18
4.140000E+03	1.119226E-16	8.593088E-18
4.150000E+03	1.125566E-16	8.390004E-18
4.160000E+03	1.132725E-16	8.189087E-18
4.170000E+03	1.139991E-16	7.984510E-18
4.180000E+03	1.147756E-16	7.778596E-18
4.190000E+03	1.156419E-16	7.573413E-18
4.200000E+03	1.165256E-16	7.363619E-18
4.210000E+03	1.175042E-16	7.153747E-18
4.220000E+03	1.185042E-16	6.938858E-18
4.230000E+03	1.196040E-16	6.723358E-18
4.240000E+03	1.207289E-16	6.502812E-18
4.250000E+03	1.219582E-16	6.281619E-18
4.260000E+03	1.232154E-16	6.056013E-18
4.270000E+03	1.245809E-16	5.830578E-18
4.280000E+03	1.259766E-16	5.602470E-18
4.290000E+03	1.274837E-16	5.376771E-18
4.300000E+03	1.290221E-16	5.151954E-18
4.310000E+03	1.306324E-16	4.932501E-18
4.320000E+03	1.323569E-16	4.723463E-18
4.330000E+03	1.341115E-16	4.526322E-18
4.340000E+03	1.359803E-16	4.349712E-18
4.350000E+03	1.378763E-16	4.197628E-18
4.360000E+03	1.398846E-16	4.080554E-18
4.370000E+03	1.419147E-16	4.004094E-18
4.380000E+03	1.440073E-16	3.977434E-18
4.390000E+03	1.462048E-16	4.008114E-18
4.400000E+03	1.484157E-16	4.094258E-18
4.410000E+03	1.507371E-16	4.233330E-18
4.420000E+03	1.530786E-16	4.415534E-18
4.430000E+03	1.554903E-16	4.634072E-18
4.440000E+03	1.580249E-16	4.882346E-18
4.450000E+03	1.605867E-16	5.149760E-18
4.460000E+03	1.632265E-16	5.430901E-18
4.470000E+03	1.659979E-16	5.721497E-18
4.480000E+03	1.687991E-16	6.012766E-18
4.490000E+03	1.717352E-16	6.303701E-18
4.500000E+03	1.747001E-16	6.586326E-18
4.510000E+03	1.777459E-16	6.858782E-18
4.520000E+03	1.809272E-16	7.119855E-18
4.530000E+03	1.841310E-16	7.362022E-18
4.540000E+03	1.874096E-16	7.584396E-18
4.550000E+03	1.908186E-16	7.786492E-18
4.560000E+03	1.942371E-16	7.960764E-18
4.570000E+03	1.977181E-16	8.106835E-18
4.580000E+03	2.012560E-16	8.222047E-18
4.590000E+03	2.049072E-16	8.306352E-18
4.600000E+03	2.085401E-16	8.352139E-18
4.610000E+03	2.122085E-16	8.359499E-18
4.620000E+03	2.159041E-16	8.326109E-18
4.630000E+03	2.196847E-16	8.252314E-18
4.640000E+03	2.234073E-16	8.131062E-18
4.650000E+03	2.271277E-16	7.963184E-18
4.660000E+03	2.308346E-16	7.747309E-18
4.670000E+03	2.345878E-16	7.484795E-18
4.680000E+03	2.382336E-16	7.170693E-18
4.690000E+03	2.418294E-16	6.807895E-18
4.700000E+03	2.453616E-16	6.398122E-18
4.710000E+03	2.488162E-16	5.944834E-18
4.720000E+03	2.522543E-16	5.455797E-18
4.730000E+03	2.555085E-16	4.937949E-18
4.740000E+03	2.586369E-16	4.410588E-18
4.750000E+03	2.616210E-16	3.903281E-18
4.760000E+03	2.644405E-16	3.465196E-18
4.770000E+03	2.670736E-16	3.171323E-18
4.780000E+03	2.694962E-16	3.110445E-18
4.790000E+03	2.716913E-16	3.328635E-18
4.800000E+03	2.737475E-16	3.781261E-18
4.810000E+03	2.755122E-16	4.389094E-18
4.820000E+03	2.770762E-16	5.089296E-18
4.830000E+03	2.784484E-16	5.839189E-18
4.840000E+03	2.796367E-16	6.611688E-18
4.850000E+03	2.806485E-16	7.389321E-18
4.860000E+03	2.814911E-16	8.160354E-18
4.870000E+03	2.821713E-16	8.916563E-18
4.880000E+03	2.826959E-16	9.651969E-18
4.890000E+03	2.830718E-16	1.036211E-17
4.900000E+03	2.833058E-16	1.104359E-17
4.910000E+03	2.834051E-16	1.169385E-17
4.920000E+03	2.833770E-16	1.231095E-17
4.930000E+03	2.832290E-16	1.289346E-17
4.940000E+03	2.829689E-16	1.344040E-17
4.950000E+03	2.825216E-16	1.394707E-17
4.960000E+03	2.820614E-16	1.442122E-17
4.970000E+03	2.815136E-16	1.485891E-17
4.980000E+03	2.808866E-16	1.526037E-17
4.990000E+03	2.801889E-16	1.562607E-17
5.000000E+03	2.794292E-16	1.595664E-17
5.010000E+03	2.786162E-16	1.625290E-17
5.020000E+03	2.776776E-16	1.651097E-17
5.030000E+03	2.767841E-16	1.674145E-17
5.040000E+03	2.758629E-16	1.694076E-17
5.050000E+03	2.749222E-16	1.711007E-17
5.060000E+03	2.738905E-16	1.724562E-17
5.070000E+03	2.729350E-16	1.735865E-17
5.080000E+03	2.719832E-16	1.744544E-17
5.090000E+03	2.710422E-16	1.750723E-17
5.100000E+03	2.700407E-16	1.754015E-17
5.110000E+03	2.691413E-16	1.755547E-17
5.120000E+03	2.682712E-16	1.754922E-17
5.130000E+03	2.673589E-16	1.751735E-17
5.140000E+03	2.665632E-16	1.747088E-17
5.150000E+03	2.657347E-16	1.740056E-17
5.160000E+03	2.650298E-16	1.731714E-17
5.170000E+03	2.643750E-16	1.721618E-17
5.180000E+03	2.636971E-16	1.709329E-17
5.190000E+03	2.631491E-16	1.695867E-17
5.200000E+03	2.625815E-16	1.680287E-17
5.210000E+03	2.621451E-16	1.663571E-17
5.220000E+03	2.616901E-16	1.644773E-17
5.230000E+03	2.613654E-16	1.624837E-17
5.240000E+03	2.610209E-16	1.602824E-17
5.250000E+03	2.608038E-16	1.579641E-17
5.260000E+03	2.605636E-16	1.554366E-17
5.270000E+03	2.603722E-16	1.527441E-17
5.280000E+03	2.603006E-16	1.499275E-17
5.290000E+03	2.601979E-16	1.468998E-17
5.300000E+03	2.602081E-16	1.437449E-17
5.310000E+03	2.601803E-16	1.403812E-17
5.320000E+03	2.601842E-16	1.368529E-17
5.330000E+03	2.602158E-16	1.331646E-17
5.340000E+03	2.603443E-16	1.293599E-17
5.350000E+03	2.604186E-16	1.253757E-17
5.360000E+03	2.605079E-16	1.212644E-17
5.370000E+03	2.606079E-16	1.170464E-17
5.380000E+03	2.607877E-16	1.127799E-17
5.390000E+03	2.608967E-16	1.084348E-17
5.400000E+03	2.610041E-16	1.040879E-17
5.410000E+03	2.611060E-16	9.979413E-18
5.420000E+03	2.611987E-16	9.562151E-18
5.430000E+03	2.612785E-16	9.165252E-18
5.440000E+03	2.613418E-16	8.798517E-18
5.450000E+03	2.614583E-16	8.475606E-18
5.460000E+03	2.614785E-16	8.204186E-18
5.470000E+03	2.614721E-16	7.999708E-18
5.480000E+03	2.614358E-16	7.874587E-18
5.490000E+03	2.613663E-16	7.839241E-18
5.500000E+03	2.612609E-16	7.898273E-18
5.510000E+03	2.610471E-16	8.043133E-18
5.520000E+03	2.608704E-16	8.267510E-18
5.530000E+03	2.606585E-16	8.556757E-18
5.540000E+03	2.604119E-16	8.898042E-18
5.550000E+03	2.601313E-16	9.279153E-18
5.560000E+03	2.598175E-16	9.689099E-18
5.570000E+03	2.594717E-16	1.011836E-17
5.580000E+03	2.590239E-16	1.055602E-17
5.590000E+03	2.586193E-16	1.100119E-17
5.600000E+03	2.581881E-16	1.144570E-17
5.610000E+03	2.577330E-16	1.188529E-17
5.620000E+03	2.571860E-16	1.231319E-17
5.630000E+03	2.566922E-16	1.273347E-17
5.640000E+03	2.561838E-16	1.314085E-17
5.650000E+03	2.555943E-16	1.353018E-17
5.660000E+03	2.550682E-16	1.390776E-17
5.670000E+03	2.545390E-16	1.426931E-17
5.680000E+03	2.539411E-16	1.461046E-17
5.690000E+03	2.534179E-16	1.493899E-17
5.700000E+03	2.528344E-16	1.524688E-17
5.710000E+03	2.523330E-16	1.554260E-17
5.720000E+03	2.517793E-16	1.581806E-17
5.730000E+03	2.513146E-16	1.608229E-17
5.740000E+03	2.508047E-16	1.632705E-17
5.750000E+03	2.503897E-16	1.656174E-17
5.760000E+03	2.499356E-16	1.677798E-17
5.770000E+03	2.495132E-16	1.698081E-17
5.780000E+03	2.491923E-16	1.717552E-17
5.790000E+03	2.488389E-16	1.735341E-17
5.800000E+03	2.485222E-16	1.751968E-17
5.810000E+03	2.482433E-16	1.767492E-17
5.820000E+03	2.480703E-16	1.782452E-17
5.830000E+03	2.478687E-16	1.795936E-17
5.840000E+03	2.477060E-16	1.808475E-17
5.850000E+03	2.475824E-16	1.820118E-17
5.860000E+03	2.474974E-16	1.830912E-17
5.870000E+03	2.475177E-16	1.841399E-17
5.880000E+03	2.475088E-16	1.850627E-17
5.890000E+03	2.475372E-16	1.859133E-17
5.900000E+03	2.476023E-16	1.866955E-17
5.910000E+03	2.477038E-16	1.874133E-17
5.920000E+03	2.478414E-16	1.880702E-17
5.930000E+03	2.480147E-16	1.886698E-17
5.940000E+03	2.482239E-16	1.892155E-17
5.950000E+03	2.484691E-16	1.897105E-17
5.960000E+03	2.487508E-16	1.901581E-17
5.970000E+03	2.490698E-16	1.905612E-17
5.980000E+03	2.493598E-16	1.908712E-17
5.990000E+03	2.497563E-16	1.911934E-17
6.000000E+03	2.501939E-16	1.914789E-17
6.010000E+03	2.506741E-16	1.917295E-17
6.020000E+03	2.511990E-16	1.919470E-17
6.030000E+03	2.517029E-16	1.920810E-17
6.040000E+03	2.523233E-16	1.922356E-17
6.050000E+03	2.529950E-16	1.923595E-17
6.060000E+03	2.536523E-16	1.924009E-17
6.070000E+03	2.544334E-16	1.924621E-17
6.080000E+03	2.552728E-16	1.924901E-17
6.090000E+03	2.561039E-16	1.924312E-17
6.100000E+03	2.570657E-16	1.923857E-17
6.110000E+03	2.580225E-16	1.922468E-17
6.120000E+03	2.591137E-16	1.921131E-17
6.130000E+03	2.602018E-16	1.918764E-17
6.140000E+03	2.614266E-16	1.916336E-17
6.150000E+03	2.626490E-16	1.912750E-17
6.160000E+03	2.640089E-16	1.908953E-17
6.170000E+03	2.653650E-16	1.903836E-17
6.180000E+03	2.667865E-16	1.897818E-17
6.190000E+03	2.683434E-16	1.891299E-17
6.200000E+03	2.698907E-16	1.883159E-17
6.210000E+03	2.714971E-16	1.873784E-17
6.220000E+03	2.731595E-16	1.863049E-17
6.230000E+03	2.749474E-16	1.851316E-17
6.240000E+03	2.767105E-16	1.837456E-17
6.250000E+03	2.785169E-16	1.821820E-17
6.260000E+03	2.803615E-16	1.804262E-17
6.270000E+03	2.822384E-16	1.784628E-17
6.280000E+03	2.841415E-16	1.762765E-17
6.290000E+03	2.860639E-16	1.738517E-17
6.300000E+03	2.879987E-16	1.711730E-17
6.310000E+03	2.899380E-16	1.682250E-17
6.320000E+03	2.918738E-16	1.649930E-17
6.330000E+03	2.937977E-16	1.614628E-17
6.340000E+03	2.957007E-16	1.576214E-17
6.350000E+03	2.975736E-16	1.534569E-17
6.360000E+03	2.994065E-16	1.489593E-17
6.370000E+03	3.011894E-16	1.441207E-17
6.380000E+03	3.029119E-16	1.389362E-17
6.390000E+03	3.045632E-16	1.334047E-17
6.400000E+03	3.060508E-16	1.274955E-17
6.410000E+03	3.075255E-16	1.212874E-17
6.420000E+03	3.088947E-16	1.147622E-17
6.430000E+03	3.101463E-16	1.079473E-17
6.440000E+03	3.111855E-16	1.008571E-17
6.450000E+03	3.121648E-16	9.360730E-18
6.460000E+03	3.129892E-16	8.625585E-18
6.470000E+03	3.135629E-16	7.890644E-18
6.480000E+03	3.140390E-16	7.178196E-18
6.490000E+03	3.142387E-16	6.509866E-18
6.500000E+03	3.143155E-16	5.925139E-18
6.510000E+03	3.140904E-16	5.467850E-18
6.520000E+03	3.137176E-16	5.194995E-18
6.530000E+03	3.130191E-16	5.149746E-18
6.540000E+03	3.121549E-16	5.341280E-18
6.550000E+03	3.109620E-16	5.725001E-18
6.560000E+03	3.095273E-16	6.246530E-18
6.570000E+03	3.079373E-16	6.856542E-18
6.580000E+03	3.060348E-16	7.511781E-18
6.590000E+03	3.039091E-16	8.185197E-18
6.600000E+03	3.016491E-16	8.859053E-18
6.610000E+03	2.991052E-16	9.514909E-18
6.620000E+03	2.963699E-16	1.014531E-17
6.630000E+03	2.934571E-16	1.074369E-17
6.640000E+03	2.903822E-16	1.130567E-17
6.650000E+03	2.871619E-16	1.182851E-17
6.660000E+03	2.838895E-16	1.231398E-17
6.670000E+03	2.804330E-16	1.275517E-17
6.680000E+03	2.768883E-16	1.315548E-17
6.690000E+03	2.732763E-16	1.351580E-17
6.700000E+03	2.696180E-16	1.383753E-17
6.710000E+03	2.659346E-16	1.412248E-17
6.720000E+03	2.622471E-16	1.437278E-17
6.730000E+03	2.585764E-16	1.459078E-17
6.740000E+03	2.548752E-16	1.477512E-17
6.750000E+03	2.512988E-16	1.493625E-17
6.760000E+03	2.477972E-16	1.507303E-17
6.770000E+03	2.443881E-16	1.518821E-17
6.780000E+03	2.410876E-16	1.528452E-17
6.790000E+03	2.379109E-16	1.536466E-17
6.800000E+03	2.348097E-16	1.542714E-17
6.810000E+03	2.319216E-16	1.548261E-17
6.820000E+03	2.291947E-16	1.552941E-17
6.830000E+03	2.265790E-16	1.556566E-17
6.840000E+03	2.242037E-16	1.560172E-17
6.850000E+03	2.220158E-16	1.563543E-17
6.860000E+03	2.199630E-16	1.566447E-17
6.870000E+03	2.181677E-16	1.569881E-17
6.880000E+03	2.165179E-16	1.573164E-17
6.890000E+03	2.151318E-16	1.577268E-17
6.900000E+03	2.138974E-16	1.581481E-17
6.910000E+03	2.129296E-16	1.586749E-17
6.920000E+03	2.121160E-16	1.592331E-17
6.930000E+03	2.115691E-16	1.599152E-17
6.940000E+03	2.111759E-16	1.606440E-17
6.950000E+03	2.109910E-16	1.614676E-17
6.960000E+03	2.110684E-16	1.624343E-17
6.970000E+03	2.112934E-16	1.634620E-17
6.980000E+03	2.117187E-16	1.645967E-17
6.990000E+03	2.123970E-16	1.658845E-17
7.000000E+03	2.132115E-16	1.672389E-17
7.010000E+03	2.142135E-16	1.687040E-17
7.020000E+03	2.153975E-16	1.702793E-17
7.030000E+03	2.167578E-16	1.719637E-17
7.040000E+03	2.182879E-16	1.737551E-17
7.050000E+03	2.200392E-16	1.756976E-17
7.060000E+03	2.218877E-16	1.776951E-17
7.070000E+03	2.238833E-16	1.797895E-17
7.080000E+03	2.260174E-16	1.819761E-17
7.090000E+03	2.282806E-16	1.842497E-17
7.100000E+03	2.306630E-16	1.866041E-17
7.110000E+03	2.331543E-16	1.890330E-17
7.120000E+03	2.357433E-16	1.915291E-17
7.130000E+03	2.384186E-16	1.940849E-17
7.140000E+03	2.411680E-16	1.966922E-17
7.150000E+03	2.439139E-16	1.992893E-17
7.160000E+03	2.467724E-16	2.019727E-17
7.170000E+03	2.496658E-16	2.046807E-17
7.180000E+03	2.525803E-16	2.074038E-17
7.190000E+03	2.555017E-16	2.101320E-17
7.200000E+03	2.584157E-16	2.128554E-17
7.210000E+03	2.612380E-16	2.155065E-17
7.220000E+03	2.640928E-16	2.181894E-17
7.230000E+03	2.668968E-16	2.208374E-17
7.240000E+03	2.695637E-16	2.233810E-17
7.250000E+03	2.722228E-16	2.259294E-17
7.260000E+03	2.747894E-16	2.284145E-17
7.270000E+03	2.771764E-16	2.307656E-17
7.280000E+03	2.795192E-16	2.330974E-17
7.290000E+03	2.816573E-16	2.352780E-17
7.300000E+03	2.837304E-16	2.374258E-17
7.310000E+03	2.855776E-16	2.394077E-17
7.320000E+03	2.873429E-16	2.413458E-17
7.330000E+03	2.888655E-16	2.431061E-17
7.340000E+03	2.902939E-16	2.448142E-17
7.350000E+03	2.914679E-16	2.463356E-17
7.360000E+03	2.925402E-16	2.477990E-17
7.370000E+03	2.933519E-16	2.490694E-17
7.380000E+03	2.939806E-16	2.502112E-17
7.390000E+03	2.945058E-16	2.512907E-17
7.400000E+03	2.947712E-16	2.521724E-17
7.410000E+03	2.948588E-16	2.529230E-17
7.420000E+03	2.948518E-16	2.536110E-17
7.430000E+03	2.945967E-16	2.541000E-17
7.440000E+03	2.941788E-16	2.544587E-17
7.450000E+03	2.936048E-16	2.546876E-17
7.460000E+03	2.928823E-16	2.547874E-17
7.470000E+03	2.920982E-16	2.548276E-17
7.480000E+03	2.911032E-16	2.546713E-17
7.490000E+03	2.899851E-16	2.543881E-17
7.500000E+03	2.887532E-16	2.539785E-17
7.510000E+03	2.874169E-16	2.534432E-17
7.520000E+03	2.859856E-16	2.527828E-17
7.530000E+03	2.844687E-16	2.519975E-17
7.540000E+03	2.828753E-16	2.510879E-17
7.550000E+03	2.812148E-16	2.500542E-17
7.560000E+03	2.794958E-16	2.488967E-17
7.570000E+03	2.777271E-16	2.476156E-17
7.580000E+03	2.759169E-16	2.462111E-17
7.590000E+03	2.740730E-16	2.446834E-17
7.600000E+03	2.722029E-16	2.430326E-17
7.610000E+03	2.703137E-16	2.412591E-17
7.620000E+03	2.683390E-16	2.392980E-17
7.630000E+03	2.664316E-16	2.372805E-17
7.640000E+03	2.645236E-16	2.351414E-17
7.650000E+03	2.626205E-16	2.328813E-17
7.660000E+03	2.607271E-16	2.305009E-17
7.670000E+03	2.587773E-16	2.279390E-17
7.680000E+03	2.569169E-16	2.253217E-17
7.690000E+03	2.550784E-16	2.225873E-17
7.700000E+03	2.532652E-16	2.197375E-17
7.710000E+03	2.514115E-16	2.167146E-17
7.720000E+03	2.496580E-16	2.136400E-17
7.730000E+03	2.479376E-16	2.104559E-17
7.740000E+03	2.461851E-16	2.071081E-17
7.750000E+03	2.445374E-16	2.037140E-17
7.760000E+03	2.428616E-16	2.001644E-17
