#wls	flux	fluxerr
1.596185E+03	2.492999E-16	1.856895E-17
1.636090E+03	2.591417E-16	1.878187E-17
1.675994E+03	2.689563E-16	1.896186E-17
1.715899E+03	2.787470E-16	1.911240E-17
1.755804E+03	2.886844E-16	1.924864E-17
1.795708E+03	2.986285E-16	1.936491E-17
1.835613E+03	3.085941E-16	1.946700E-17
1.875518E+03	3.183699E-16	1.954739E-17
1.915422E+03	3.275031E-16	1.958617E-17
1.955327E+03	3.354648E-16	1.956231E-17
1.995231E+03	3.416511E-16	1.945360E-17
2.035136E+03	3.457177E-16	1.925499E-17
2.075041E+03	3.482913E-16	1.901483E-17
2.114945E+03	3.514334E-16	1.885394E-17
2.154850E+03	3.564379E-16	1.884225E-17
2.194755E+03	3.632785E-16	1.897671E-17
2.234659E+03	3.699436E-16	1.915290E-17
2.274564E+03	3.735448E-16	1.922402E-17
2.314468E+03	3.720147E-16	1.908334E-17
2.354373E+03	3.653657E-16	1.872736E-17
2.394278E+03	3.549018E-16	1.821512E-17
2.434182E+03	3.421726E-16	1.761647E-17
2.474087E+03	3.288083E-16	1.700572E-17
2.513992E+03	3.156983E-16	1.642073E-17
2.553896E+03	3.034793E-16	1.588826E-17
2.593801E+03	2.923598E-16	1.541458E-17
2.633705E+03	2.823373E-16	1.499625E-17
2.673610E+03	2.735466E-16	1.463807E-17
2.713515E+03	2.662308E-16	1.435171E-17
2.753419E+03	2.603645E-16	1.413527E-17
2.793324E+03	2.559282E-16	1.398759E-17
2.833229E+03	2.527964E-16	1.390193E-17
2.873133E+03	2.507946E-16	1.386884E-17
2.913038E+03	2.498440E-16	1.388406E-17
2.952942E+03	2.499017E-16	1.394531E-17
2.992847E+03	2.509382E-16	1.405099E-17
3.002823E+03	2.513619E-16	1.408501E-17
3.012799E+03	2.518484E-16	1.412191E-17
3.022776E+03	2.524322E-16	1.416360E-17
3.032752E+03	2.530501E-16	1.420656E-17
3.042728E+03	2.537749E-16	1.425487E-17
3.052704E+03	2.545893E-16	1.430755E-17
3.062680E+03	2.555245E-16	1.436636E-17
3.072656E+03	2.565459E-16	1.442936E-17
3.082633E+03	2.576527E-16	1.449650E-17
3.092609E+03	2.588776E-16	1.456962E-17
3.102585E+03	2.602202E-16	1.464869E-17
3.112561E+03	2.616483E-16	1.473189E-17
3.122537E+03	2.631952E-16	1.482111E-17
3.132513E+03	2.648294E-16	1.491455E-17
3.142489E+03	2.666172E-16	1.501594E-17
3.152466E+03	2.684951E-16	1.512172E-17
3.162442E+03	2.704971E-16	1.523377E-17
3.172418E+03	2.726251E-16	1.535220E-17
3.182394E+03	2.749129E-16	1.547889E-17
3.192370E+03	2.772977E-16	1.561032E-17
3.202346E+03	2.798455E-16	1.575017E-17
3.212323E+03	2.825255E-16	1.589670E-17
3.222299E+03	2.853385E-16	1.604995E-17
3.232275E+03	2.883171E-16	1.621172E-17
3.242251E+03	2.914290E-16	1.638019E-17
3.252227E+03	2.947054E-16	1.655709E-17
3.262203E+03	2.981443E-16	1.674229E-17
3.272179E+03	3.017101E-16	1.693378E-17
3.282156E+03	3.054632E-16	1.713492E-17
3.292132E+03	3.093326E-16	1.734171E-17
3.302108E+03	3.133426E-16	1.755549E-17
3.312084E+03	3.175157E-16	1.777750E-17
3.322060E+03	3.218071E-16	1.800522E-17
3.332036E+03	3.262020E-16	1.823780E-17
3.342013E+03	3.307157E-16	1.847608E-17
3.351989E+03	3.353281E-16	1.871892E-17
3.361965E+03	3.399838E-16	1.896322E-17
3.371941E+03	3.446901E-16	1.920939E-17
3.381917E+03	3.494198E-16	1.945590E-17
3.391893E+03	3.541432E-16	1.970110E-17
3.401870E+03	3.588302E-16	1.994334E-17
3.411846E+03	3.634829E-16	2.018275E-17
3.421822E+03	3.680389E-16	2.041586E-17
3.431798E+03	3.724707E-16	2.064121E-17
3.441774E+03	3.768202E-16	2.086114E-17
3.451750E+03	3.810041E-16	2.107107E-17
3.461726E+03	3.850440E-16	2.127226E-17
3.471703E+03	3.889627E-16	2.146600E-17
3.481679E+03	3.926959E-16	2.164880E-17
3.491655E+03	3.962104E-16	2.181889E-17
3.501631E+03	3.994815E-16	2.197497E-17
3.511607E+03	4.025550E-16	2.211964E-17
3.521583E+03	4.053578E-16	2.224892E-17
3.531560E+03	4.079181E-16	2.236440E-17
3.541536E+03	4.102692E-16	2.246791E-17
3.551512E+03	4.123890E-16	2.255826E-17
3.561488E+03	4.142918E-16	2.263626E-17
3.571464E+03	4.160260E-16	2.270458E-17
3.581440E+03	4.176146E-16	2.276446E-17
3.591417E+03	4.190842E-16	2.281737E-17
3.601393E+03	4.204644E-16	2.286493E-17
3.611369E+03	4.218154E-16	2.291039E-17
3.621345E+03	4.231441E-16	2.295413E-17
3.631321E+03	4.244888E-16	2.299819E-17
3.641297E+03	4.259427E-16	2.304761E-17
3.651273E+03	4.274934E-16	2.310167E-17
3.661250E+03	4.292097E-16	2.316405E-17
3.671226E+03	4.311602E-16	2.323838E-17
3.681202E+03	4.333875E-16	2.332690E-17
3.691178E+03	4.359099E-16	2.343050E-17
3.701154E+03	4.387956E-16	2.355277E-17
3.711130E+03	4.420875E-16	2.369589E-17
3.721107E+03	4.458276E-16	2.386200E-17
3.731083E+03	4.500573E-16	2.405320E-17
3.741059E+03	4.548399E-16	2.427271E-17
3.751035E+03	4.602131E-16	2.452239E-17
3.761011E+03	4.661896E-16	2.480275E-17
3.770987E+03	4.728481E-16	2.511779E-17
3.780963E+03	4.801719E-16	2.546643E-17
3.790940E+03	4.882309E-16	2.585218E-17
3.800916E+03	4.970204E-16	2.627455E-17
3.810892E+03	5.065733E-16	2.673506E-17
3.820868E+03	5.168901E-16	2.723351E-17
3.830844E+03	5.279369E-16	2.776786E-17
3.840820E+03	5.397109E-16	2.833773E-17
3.850797E+03	5.521931E-16	2.894189E-17
3.860773E+03	5.653015E-16	2.957581E-17
3.870749E+03	5.789576E-16	3.023517E-17
3.880725E+03	5.930636E-16	3.091467E-17
3.890701E+03	6.075266E-16	3.160932E-17
3.900677E+03	6.221911E-16	3.231087E-17
3.910654E+03	6.369564E-16	3.301404E-17
3.920630E+03	6.516195E-16	3.370825E-17
3.930606E+03	6.660142E-16	3.438491E-17
3.940582E+03	6.800173E-16	3.503773E-17
3.950558E+03	6.934096E-16	3.565555E-17
3.960534E+03	7.060431E-16	3.623094E-17
3.970510E+03	7.177451E-16	3.675529E-17
3.980487E+03	7.283498E-16	3.722041E-17
3.990463E+03	7.376941E-16	3.761835E-17
4.000439E+03	7.456282E-16	3.794190E-17
4.010415E+03	7.519918E-16	3.818339E-17
4.020391E+03	7.566925E-16	3.833870E-17
4.030367E+03	7.596228E-16	3.840295E-17
4.040344E+03	7.607551E-16	3.837540E-17
4.050320E+03	7.600647E-16	3.825543E-17
4.060296E+03	7.575990E-16	3.804610E-17
4.070272E+03	7.534607E-16	3.775319E-17
4.080248E+03	7.478094E-16	3.738532E-17
4.090224E+03	7.408388E-16	3.695272E-17
4.100201E+03	7.328098E-16	3.646887E-17
4.110177E+03	7.240215E-16	3.594906E-17
4.120153E+03	7.147958E-16	3.540955E-17
4.130129E+03	7.054327E-16	3.486537E-17
4.140105E+03	6.962990E-16	3.433472E-17
4.150081E+03	6.876612E-16	3.383068E-17
4.160057E+03	6.798401E-16	3.336889E-17
4.170034E+03	6.730570E-16	3.295996E-17
4.180010E+03	6.675061E-16	3.261309E-17
4.189986E+03	6.633605E-16	3.233635E-17
4.199962E+03	6.606976E-16	3.213310E-17
4.209938E+03	6.595689E-16	3.200539E-17
4.219914E+03	6.599715E-16	3.195264E-17
4.229891E+03	6.618247E-16	3.197053E-17
4.239867E+03	6.650143E-16	3.205315E-17
4.249843E+03	6.694090E-16	3.219384E-17
4.259819E+03	6.748030E-16	3.238243E-17
4.269795E+03	6.809747E-16	3.260809E-17
4.279771E+03	6.876819E-16	3.285911E-17
4.289748E+03	6.946838E-16	3.312395E-17
4.299724E+03	7.017269E-16	3.339057E-17
4.309700E+03	7.085553E-16	3.364693E-17
4.319676E+03	7.149504E-16	3.388285E-17
4.329652E+03	7.207503E-16	3.409092E-17
4.339628E+03	7.257895E-16	3.426361E-17
4.349604E+03	7.299914E-16	3.439763E-17
4.359581E+03	7.333711E-16	3.449404E-17
4.369557E+03	7.362049E-16	3.456611E-17
4.379533E+03	7.388433E-16	3.463053E-17
4.389509E+03	7.416597E-16	3.470492E-17
4.399485E+03	7.450519E-16	3.480784E-17
4.409461E+03	7.494475E-16	3.495909E-17
4.419438E+03	7.552113E-16	3.517539E-17
4.429414E+03	7.627092E-16	3.547346E-17
4.439390E+03	7.722357E-16	3.586660E-17
4.449366E+03	7.840500E-16	3.636640E-17
4.459342E+03	7.983387E-16	3.698105E-17
4.469318E+03	8.152178E-16	3.771543E-17
4.479294E+03	8.346725E-16	3.856841E-17
4.489271E+03	8.566272E-16	3.953604E-17
4.499247E+03	8.808485E-16	4.060714E-17
4.509223E+03	9.069935E-16	4.176556E-17
4.519199E+03	9.345559E-16	4.298769E-17
4.529175E+03	9.629098E-16	4.424453E-17
4.539151E+03	9.912842E-16	4.550056E-17
4.549128E+03	1.018778E-15	4.671439E-17
4.559104E+03	1.044450E-15	4.784297E-17
4.569080E+03	1.067286E-15	4.884009E-17
4.579056E+03	1.086324E-15	4.966207E-17
4.589032E+03	1.100690E-15	5.026939E-17
4.599008E+03	1.109713E-15	5.063192E-17
4.608985E+03	1.112908E-15	5.072820E-17
4.618961E+03	1.110157E-15	5.055345E-17
4.628937E+03	1.101666E-15	5.011777E-17
4.638913E+03	1.087961E-15	4.944563E-17
4.648889E+03	1.069933E-15	4.857821E-17
4.658865E+03	1.048656E-15	4.756459E-17
4.668841E+03	1.025417E-15	4.646352E-17
4.678818E+03	1.001513E-15	4.533388E-17
4.688794E+03	9.781821E-16	4.423173E-17
4.698770E+03	9.565454E-16	4.320757E-17
4.708746E+03	9.375098E-16	4.230206E-17
4.718722E+03	9.217252E-16	4.154408E-17
4.728698E+03	9.096437E-16	4.095347E-17
4.738675E+03	9.014569E-16	4.053827E-17
4.748651E+03	8.971524E-16	4.029727E-17
4.758627E+03	8.965562E-16	4.022201E-17
4.768603E+03	8.993506E-16	4.029760E-17
4.778579E+03	9.051212E-16	4.050487E-17
4.788555E+03	9.134165E-16	4.082308E-17
4.798532E+03	9.237203E-16	4.122864E-17
4.808508E+03	9.355569E-16	4.169993E-17
4.818484E+03	9.484686E-16	4.221621E-17
4.828460E+03	9.620916E-16	4.276100E-17
4.838436E+03	9.760857E-16	4.331899E-17
4.848412E+03	9.902222E-16	4.387988E-17
4.858388E+03	1.004312E-15	4.443518E-17
4.868365E+03	1.018254E-15	4.498037E-17
4.878341E+03	1.031925E-15	4.550993E-17
4.888317E+03	1.045242E-15	4.602024E-17
4.898293E+03	1.058044E-15	4.650420E-17
4.908269E+03	1.070155E-15	4.695415E-17
4.918245E+03	1.081289E-15	4.735773E-17
4.928222E+03	1.091109E-15	4.770033E-17
4.938198E+03	1.099191E-15	4.796376E-17
4.948174E+03	1.105110E-15	4.812992E-17
4.958150E+03	1.108437E-15	4.818069E-17
4.968126E+03	1.108862E-15	4.810339E-17
4.978102E+03	1.106170E-15	4.788942E-17
4.988078E+03	1.100373E-15	4.754026E-17
4.998055E+03	1.091707E-15	4.706692E-17
5.008031E+03	1.080605E-15	4.648895E-17
5.018007E+03	1.067708E-15	4.583463E-17
5.027983E+03	1.053798E-15	4.513806E-17
5.037959E+03	1.039731E-15	4.443631E-17
5.047935E+03	1.026349E-15	4.376536E-17
5.057912E+03	1.014396E-15	4.315687E-17
5.067888E+03	1.004506E-15	4.263744E-17
5.077864E+03	9.971222E-16	4.222533E-17
5.087840E+03	9.925227E-16	4.193167E-17
5.097816E+03	9.907921E-16	4.175931E-17
5.107792E+03	9.918495E-16	4.170410E-17
5.117769E+03	9.954811E-16	4.175635E-17
5.127745E+03	1.001366E-15	4.190199E-17
5.137721E+03	1.009154E-15	4.212581E-17
5.147697E+03	1.018486E-15	4.241241E-17
5.157673E+03	1.029006E-15	4.274677E-17
5.167649E+03	1.040464E-15	4.311822E-17
5.177625E+03	1.052680E-15	4.351927E-17
5.187602E+03	1.065612E-15	4.394812E-17
5.197578E+03	1.079286E-15	4.440584E-17
5.207554E+03	1.093810E-15	4.489685E-17
5.217530E+03	1.109380E-15	4.542922E-17
5.227506E+03	1.126172E-15	4.601001E-17
5.237482E+03	1.144384E-15	4.664728E-17
5.247459E+03	1.164166E-15	4.734701E-17
5.257435E+03	1.185609E-15	4.811278E-17
5.267411E+03	1.208713E-15	4.894456E-17
5.277387E+03	1.233424E-15	4.984003E-17
5.287363E+03	1.259588E-15	5.079310E-17
5.297339E+03	1.286983E-15	5.179489E-17
5.307316E+03	1.315308E-15	5.283351E-17
5.317292E+03	1.344230E-15	5.389596E-17
5.327268E+03	1.373412E-15	5.496913E-17
5.337244E+03	1.402493E-15	5.603922E-17
5.347220E+03	1.431105E-15	5.709218E-17
5.357196E+03	1.458972E-15	5.811768E-17
5.367172E+03	1.485838E-15	5.910644E-17
5.377149E+03	1.511481E-15	6.005045E-17
5.387125E+03	1.535816E-15	6.094717E-17
5.397101E+03	1.558774E-15	6.179475E-17
5.407077E+03	1.580435E-15	6.259724E-17
5.417053E+03	1.600907E-15	6.335974E-17
5.427029E+03	1.620342E-15	6.408905E-17
5.437006E+03	1.638882E-15	6.479151E-17
5.446982E+03	1.656596E-15	6.547051E-17
5.456958E+03	1.673610E-15	6.613138E-17
5.466934E+03	1.690007E-15	6.677766E-17
5.476910E+03	1.705797E-15	6.741006E-17
5.486886E+03	1.720864E-15	6.802423E-17
5.496862E+03	1.734722E-15	6.860112E-17
5.506839E+03	1.746728E-15	6.911547E-17
5.516815E+03	1.756100E-15	6.953629E-17
5.526791E+03	1.761944E-15	6.982810E-17
5.536767E+03	1.763245E-15	6.995012E-17
5.546743E+03	1.758908E-15	6.985804E-17
5.556719E+03	1.747855E-15	6.950781E-17
5.566696E+03	1.729132E-15	6.885987E-17
5.576672E+03	1.701922E-15	6.787967E-17
5.586648E+03	1.665724E-15	6.654498E-17
5.596624E+03	1.620440E-15	6.484923E-17
5.606600E+03	1.566529E-15	6.280798E-17
5.616576E+03	1.504959E-15	6.045721E-17
5.626553E+03	1.437272E-15	5.785613E-17
5.636529E+03	1.365494E-15	5.508394E-17
5.646505E+03	1.292014E-15	5.223509E-17
5.656481E+03	1.219353E-15	4.941027E-17
5.666457E+03	1.150048E-15	4.671181E-17
5.676433E+03	1.086430E-15	4.423479E-17
5.686409E+03	1.030519E-15	4.206251E-17
5.696386E+03	9.839538E-16	4.026381E-17
5.706362E+03	9.480434E-16	3.889475E-17
5.716338E+03	9.237511E-16	3.799792E-17
5.726314E+03	9.118435E-16	3.760839E-17
5.736290E+03	9.129262E-16	3.775507E-17
5.746266E+03	9.275402E-16	3.846460E-17
5.756243E+03	9.561546E-16	3.976099E-17
5.766219E+03	9.991718E-16	4.166583E-17
5.776195E+03	1.056866E-15	4.419561E-17
5.786171E+03	1.129228E-15	4.735510E-17
5.796147E+03	1.215881E-15	5.113373E-17
5.806123E+03	1.315829E-15	5.549460E-17
5.816100E+03	1.427363E-15	6.037024E-17
5.826076E+03	1.547891E-15	6.565492E-17
5.836052E+03	1.673961E-15	7.120497E-17
5.846028E+03	1.801297E-15	7.683994E-17
5.856004E+03	1.925084E-15	8.235414E-17
5.865980E+03	2.040307E-15	8.753095E-17
5.875956E+03	2.142195E-15	9.216174E-17
5.885933E+03	2.226652E-15	9.606477E-17
5.895909E+03	2.290708E-15	9.910490E-17
5.905885E+03	2.332696E-15	1.012021E-16
5.915861E+03	2.352406E-15	1.023392E-16
5.925837E+03	2.350983E-15	1.025578E-16
5.935813E+03	2.330675E-15	1.019485E-16
5.945790E+03	2.294574E-15	1.006402E-16
5.955766E+03	2.246160E-15	9.878016E-17
5.965742E+03	2.189042E-15	9.652320E-17
5.975718E+03	2.126561E-15	9.401405E-17
5.985694E+03	2.061714E-15	9.138372E-17
5.995670E+03	1.996927E-15	8.873930E-17
6.005647E+03	1.934099E-15	8.616557E-17
6.015623E+03	1.874532E-15	8.372139E-17
6.025599E+03	1.819118E-15	8.144798E-17
6.035575E+03	1.768291E-15	7.936634E-17
6.045551E+03	1.722228E-15	7.748602E-17
6.055527E+03	1.680917E-15	7.580818E-17
6.065503E+03	1.644176E-15	7.432625E-17
6.075480E+03	1.611807E-15	7.303288E-17
6.085456E+03	1.583561E-15	7.191819E-17
6.095432E+03	1.559220E-15	7.097366E-17
6.105408E+03	1.538540E-15	7.018943E-17
6.115384E+03	1.521276E-15	6.955556E-17
6.125360E+03	1.507202E-15	6.906278E-17
6.135337E+03	1.496055E-15	6.870008E-17
6.145313E+03	1.487530E-15	6.845432E-17
6.155289E+03	1.481317E-15	6.831202E-17
6.165265E+03	1.477069E-15	6.825795E-17
6.175241E+03	1.474377E-15	6.827372E-17
6.185217E+03	1.472802E-15	6.833955E-17
6.195193E+03	1.471855E-15	6.843300E-17
6.205170E+03	1.471030E-15	6.853078E-17
6.215146E+03	1.469787E-15	6.860782E-17
6.225122E+03	1.467533E-15	6.863628E-17
6.235098E+03	1.463739E-15	6.859121E-17
6.245074E+03	1.457976E-15	6.845215E-17
6.255050E+03	1.449909E-15	6.820290E-17
6.265027E+03	1.439494E-15	6.784084E-17
6.275003E+03	1.426951E-15	6.737583E-17
6.284979E+03	1.412893E-15	6.683648E-17
6.294955E+03	1.398273E-15	6.626756E-17
6.304931E+03	1.384351E-15	6.572894E-17
6.314907E+03	1.372681E-15	6.529478E-17
6.324884E+03	1.364909E-15	6.504425E-17
6.334860E+03	1.362742E-15	6.505991E-17
6.344836E+03	1.367741E-15	6.541802E-17
6.354812E+03	1.381290E-15	6.618691E-17
6.364788E+03	1.404472E-15	6.742087E-17
6.374764E+03	1.438013E-15	6.915752E-17
6.384740E+03	1.482207E-15	7.141386E-17
6.394717E+03	1.536812E-15	7.418123E-17
6.404693E+03	1.601078E-15	7.742635E-17
6.414669E+03	1.673573E-15	8.108264E-17
6.424645E+03	1.752323E-15	8.505671E-17
6.434621E+03	1.834824E-15	8.922889E-17
6.444597E+03	1.918138E-15	9.345734E-17
6.454574E+03	1.999235E-15	9.759466E-17
6.464550E+03	2.075221E-15	1.014985E-16
6.474526E+03	2.143658E-15	1.050480E-16
6.484502E+03	2.202851E-15	1.081575E-16
6.494478E+03	2.252009E-15	1.107852E-16
6.504454E+03	2.291296E-15	1.129362E-16
6.514431E+03	2.321829E-15	1.146625E-16
6.524407E+03	2.344948E-15	1.160275E-16
6.534383E+03	2.361680E-15	1.170798E-16
6.544359E+03	2.373343E-15	1.178826E-16
6.554335E+03	2.381264E-15	1.185003E-16
6.564311E+03	2.386835E-15	1.190008E-16
6.574287E+03	2.391055E-15	1.194330E-16
6.584264E+03	2.394663E-15	1.198333E-16
6.594240E+03	2.397975E-15	1.202170E-16
6.604216E+03	2.400780E-15	1.205732E-16
6.614192E+03	2.402523E-15	1.208733E-16
6.624168E+03	2.402273E-15	1.210700E-16
6.634144E+03	2.398891E-15	1.211049E-16
6.644121E+03	2.391061E-15	1.209104E-16
6.654097E+03	2.377613E-15	1.204258E-16
6.664073E+03	2.357549E-15	1.195990E-16
6.674049E+03	2.330216E-15	1.183949E-16
6.684025E+03	2.295272E-15	1.167945E-16
6.694001E+03	2.252781E-15	1.147991E-16
6.703977E+03	2.203161E-15	1.124285E-16
6.713954E+03	2.147048E-15	1.097138E-16
6.723930E+03	2.085315E-15	1.066984E-16
6.733906E+03	2.018927E-15	1.034309E-16
6.743882E+03	1.948915E-15	9.996375E-17
6.753858E+03	1.876316E-15	9.634973E-17
6.763834E+03	1.802237E-15	9.264581E-17
6.773811E+03	1.727700E-15	8.890487E-17
6.783787E+03	1.653805E-15	8.518395E-17
6.793763E+03	1.581575E-15	8.153652E-17
6.803739E+03	1.512032E-15	7.801603E-17
6.813715E+03	1.446170E-15	7.467469E-17
6.823691E+03	1.384881E-15	7.155968E-17
6.833668E+03	1.328989E-15	6.871459E-17
6.843644E+03	1.279232E-15	6.617856E-17
6.853620E+03	1.236219E-15	6.398419E-17
6.863596E+03	1.200439E-15	6.215764E-17
6.873572E+03	1.172290E-15	6.072030E-17
6.883548E+03	1.152081E-15	5.968883E-17
6.893524E+03	1.140006E-15	5.907369E-17
6.903501E+03	1.136133E-15	5.887883E-17
6.913477E+03	1.140449E-15	5.910361E-17
6.923453E+03	1.152726E-15	5.973611E-17
6.933429E+03	1.172640E-15	6.075921E-17
6.943405E+03	1.199592E-15	6.214143E-17
6.953381E+03	1.232779E-15	6.384044E-17
6.963358E+03	1.271171E-15	6.580225E-17
6.973334E+03	1.313438E-15	6.795697E-17
6.983310E+03	1.358043E-15	7.022429E-17
6.993286E+03	1.403297E-15	7.251604E-17
7.003262E+03	1.447402E-15	7.473864E-17
7.013238E+03	1.488557E-15	7.679855E-17
7.023215E+03	1.525107E-15	7.861031E-17
7.033191E+03	1.555672E-15	8.010287E-17
7.043167E+03	1.579209E-15	8.122308E-17
7.053143E+03	1.595084E-15	8.193920E-17
7.063119E+03	1.603147E-15	8.224475E-17
7.073095E+03	1.603706E-15	8.215689E-17
7.083071E+03	1.597495E-15	8.171480E-17
7.093048E+03	1.585523E-15	8.097156E-17
7.103024E+03	1.569103E-15	7.999577E-17
7.113000E+03	1.549622E-15	7.885931E-17
7.122976E+03	1.528508E-15	7.763588E-17
7.132952E+03	1.507127E-15	7.639555E-17
7.142928E+03	1.486721E-15	7.520145E-17
7.152905E+03	1.468333E-15	7.410626E-17
7.162881E+03	1.452849E-15	7.315414E-17
7.172857E+03	1.440858E-15	7.237388E-17
7.182833E+03	1.432759E-15	7.178442E-17
7.192809E+03	1.428696E-15	7.139159E-17
7.202785E+03	1.428549E-15	7.118784E-17
7.212762E+03	1.431990E-15	7.115534E-17
7.222738E+03	1.438439E-15	7.126375E-17
7.232714E+03	1.447080E-15	7.147133E-17
7.242690E+03	1.456924E-15	7.172843E-17
7.252666E+03	1.466872E-15	7.198028E-17
7.262642E+03	1.475731E-15	7.216853E-17
7.272618E+03	1.482286E-15	7.223436E-17
7.282595E+03	1.485494E-15	7.212830E-17
7.292571E+03	1.484457E-15	7.180868E-17
7.302547E+03	1.478516E-15	7.124617E-17
7.312523E+03	1.467336E-15	7.042754E-17
7.322499E+03	1.450927E-15	6.935659E-17
7.332475E+03	1.429561E-15	6.804956E-17
7.342452E+03	1.403846E-15	6.653865E-17
7.352428E+03	1.374551E-15	6.486325E-17
7.362404E+03	1.342539E-15	6.306662E-17
7.372380E+03	1.308703E-15	6.119283E-17
7.382356E+03	1.273945E-15	5.928548E-17
7.392332E+03	1.239032E-15	5.738136E-17
7.402308E+03	1.204579E-15	5.550941E-17
7.412285E+03	1.171126E-15	5.369456E-17
7.422261E+03	1.139019E-15	5.195247E-17
7.432237E+03	1.108541E-15	5.029551E-17
7.442213E+03	1.079813E-15	4.872837E-17
7.452189E+03	1.052918E-15	4.725403E-17
7.462165E+03	1.027820E-15	4.586984E-17
7.472142E+03	1.004434E-15	4.457110E-17
7.482118E+03	9.826268E-16	4.335103E-17
7.492094E+03	9.622393E-16	4.220175E-17
7.502070E+03	9.431063E-16	4.111529E-17
7.512046E+03	9.250778E-16	4.008449E-17
7.522022E+03	9.080288E-16	3.910339E-17
7.531999E+03	8.919183E-16	3.816974E-17
7.541975E+03	8.767209E-16	3.728198E-17
7.551951E+03	8.625097E-16	3.644274E-17
7.561927E+03	8.493943E-16	3.565609E-17
7.571903E+03	8.375591E-16	3.492906E-17
7.581879E+03	8.272155E-16	3.426961E-17
7.591855E+03	8.185910E-16	3.368611E-17
7.601832E+03	8.119397E-16	3.318777E-17
7.611808E+03	8.074995E-16	3.278285E-17
7.621784E+03	8.054698E-16	3.247781E-17
7.631760E+03	8.060206E-16	3.227771E-17
7.641736E+03	8.092727E-16	3.218549E-17
7.651712E+03	8.152483E-16	3.220009E-17
7.661689E+03	8.239028E-16	3.231787E-17
7.671665E+03	8.350745E-16	3.253068E-17
7.681641E+03	8.484664E-16	3.282541E-17
7.691617E+03	8.637235E-16	3.318709E-17
7.701593E+03	8.803250E-16	3.359488E-17
7.711569E+03	8.976833E-16	3.402600E-17
7.721546E+03	9.151610E-16	3.445650E-17
7.731522E+03	9.320725E-16	3.486129E-17
7.741498E+03	9.477772E-16	3.521772E-17
