#wls	flux	fluxerr
1.596185E+03	1.792352E-16	1.304394E-17
1.636090E+03	1.899189E-16	1.367605E-17
1.675994E+03	2.011237E-16	1.433123E-17
1.715899E+03	2.129401E-16	1.501548E-17
1.755804E+03	2.252592E-16	1.572077E-17
1.795708E+03	2.379912E-16	1.644087E-17
1.835613E+03	2.507793E-16	1.715175E-17
1.875518E+03	2.631769E-16	1.782439E-17
1.915422E+03	2.744550E-16	1.841214E-17
1.955327E+03	2.839303E-16	1.887325E-17
1.995231E+03	2.909077E-16	1.916673E-17
2.035136E+03	2.953049E-16	1.929294E-17
2.075041E+03	2.980076E-16	1.931473E-17
2.114945E+03	3.008735E-16	1.935524E-17
2.154850E+03	3.055235E-16	1.951852E-17
2.194755E+03	3.124135E-16	1.983151E-17
2.234659E+03	3.205187E-16	2.022736E-17
2.274564E+03	3.277248E-16	2.057262E-17
2.314468E+03	3.322514E-16	2.075691E-17
2.354373E+03	3.330339E-16	2.071590E-17
2.394278E+03	3.300294E-16	2.044903E-17
2.434182E+03	3.239516E-16	2.000190E-17
2.474087E+03	3.157436E-16	1.943318E-17
2.513992E+03	3.063813E-16	1.880259E-17
2.553896E+03	2.966617E-16	1.815815E-17
2.593801E+03	2.871298E-16	1.753206E-17
2.633705E+03	2.782195E-16	1.694956E-17
2.673610E+03	2.702603E-16	1.642944E-17
2.713515E+03	2.635040E-16	1.598580E-17
2.753419E+03	2.581253E-16	1.562804E-17
2.793324E+03	2.542611E-16	1.536335E-17
2.833229E+03	2.519156E-16	1.519089E-17
2.873133E+03	2.511605E-16	1.511399E-17
2.913038E+03	2.519761E-16	1.513042E-17
2.952942E+03	2.543708E-16	1.523967E-17
2.992847E+03	2.583537E-16	1.544124E-17
3.002823E+03	2.596121E-16	1.550679E-17
3.012799E+03	2.609523E-16	1.557699E-17
3.022776E+03	2.624045E-16	1.565360E-17
3.032752E+03	2.639717E-16	1.573681E-17
3.042728E+03	2.656268E-16	1.582496E-17
3.052704E+03	2.674462E-16	1.592259E-17
3.062680E+03	2.693642E-16	1.602576E-17
3.072656E+03	2.714074E-16	1.613604E-17
3.082633E+03	2.736026E-16	1.625499E-17
3.092609E+03	2.758851E-16	1.637874E-17
3.102585E+03	2.782815E-16	1.650886E-17
3.112561E+03	2.808187E-16	1.664691E-17
3.122537E+03	2.834322E-16	1.678905E-17
3.132513E+03	2.861790E-16	1.693862E-17
3.142489E+03	2.890247E-16	1.709358E-17
3.152466E+03	2.919956E-16	1.725544E-17
3.162442E+03	2.950568E-16	1.742213E-17
3.172418E+03	2.982039E-16	1.759335E-17
3.182394E+03	3.014618E-16	1.777056E-17
3.192370E+03	3.048252E-16	1.795341E-17
3.202346E+03	3.082578E-16	1.813974E-17
3.212323E+03	3.118137E-16	1.833271E-17
3.222299E+03	3.153949E-16	1.852654E-17
3.232275E+03	3.190847E-16	1.872609E-17
3.242251E+03	3.228444E-16	1.892908E-17
3.252227E+03	3.266652E-16	1.913496E-17
3.262203E+03	3.305372E-16	1.934313E-17
3.272179E+03	3.344502E-16	1.955298E-17
3.282156E+03	3.384233E-16	1.976560E-17
3.292132E+03	3.423844E-16	1.997677E-17
3.302108E+03	3.464116E-16	2.019103E-17
3.312084E+03	3.504318E-16	2.040410E-17
3.322060E+03	3.544317E-16	2.061519E-17
3.332036E+03	3.584574E-16	2.082698E-17
3.342013E+03	3.624348E-16	2.103515E-17
3.351989E+03	3.663795E-16	2.124061E-17
3.361965E+03	3.702773E-16	2.144253E-17
3.371941E+03	3.741139E-16	2.164008E-17
3.381917E+03	3.778754E-16	2.183246E-17
3.391893E+03	3.815776E-16	2.202059E-17
3.401870E+03	3.851779E-16	2.220201E-17
3.411846E+03	3.886932E-16	2.237772E-17
3.421822E+03	3.921112E-16	2.254701E-17
3.431798E+03	3.953922E-16	2.270762E-17
3.441774E+03	3.985547E-16	2.286064E-17
3.451750E+03	4.015895E-16	2.300554E-17
3.461726E+03	4.044877E-16	2.314186E-17
3.471703E+03	4.072693E-16	2.327075E-17
3.481679E+03	4.098984E-16	2.339019E-17
3.491655E+03	4.123685E-16	2.349983E-17
3.501631E+03	4.147015E-16	2.360097E-17
3.511607E+03	4.168932E-16	2.369337E-17
3.521583E+03	4.189143E-16	2.377541E-17
3.531560E+03	4.208181E-16	2.385014E-17
3.541536E+03	4.225799E-16	2.391618E-17
3.551512E+03	4.242043E-16	2.397381E-17
3.561488E+03	4.257240E-16	2.402491E-17
3.571464E+03	4.271229E-16	2.406858E-17
3.581440E+03	4.284383E-16	2.410695E-17
3.591417E+03	4.296601E-16	2.413947E-17
3.601393E+03	4.308537E-16	2.416982E-17
3.611369E+03	4.320138E-16	2.419770E-17
3.621345E+03	4.331614E-16	2.422430E-17
3.631321E+03	4.343200E-16	2.425092E-17
3.641297E+03	4.355374E-16	2.428022E-17
3.651273E+03	4.368395E-16	2.431363E-17
3.661250E+03	4.382540E-16	2.435264E-17
3.671226E+03	4.397883E-16	2.439764E-17
3.681202E+03	4.415166E-16	2.445270E-17
3.691178E+03	4.434487E-16	2.451830E-17
3.701154E+03	4.456381E-16	2.459732E-17
3.711130E+03	4.480969E-16	2.469036E-17
3.721107E+03	4.508589E-16	2.479919E-17
3.731083E+03	4.539972E-16	2.492773E-17
3.741059E+03	4.575240E-16	2.507652E-17
3.751035E+03	4.614535E-16	2.524622E-17
3.761011E+03	4.658608E-16	2.544081E-17
3.770987E+03	4.707633E-16	2.566107E-17
3.780963E+03	4.762172E-16	2.590991E-17
3.790940E+03	4.822393E-16	2.618804E-17
3.800916E+03	4.888835E-16	2.649820E-17
3.810892E+03	4.961803E-16	2.684183E-17
3.820868E+03	5.041348E-16	2.721898E-17
3.830844E+03	5.128012E-16	2.763234E-17
3.840820E+03	5.221463E-16	2.807989E-17
3.850797E+03	5.321951E-16	2.856271E-17
3.860773E+03	5.428788E-16	2.907688E-17
3.870749E+03	5.541832E-16	2.962140E-17
3.880725E+03	5.660300E-16	3.019186E-17
3.890701E+03	5.782787E-16	3.078057E-17
3.900677E+03	5.908456E-16	3.138293E-17
3.910654E+03	6.035734E-16	3.199046E-17
3.920630E+03	6.163121E-16	3.259515E-17
3.930606E+03	6.289303E-16	3.319003E-17
3.940582E+03	6.412667E-16	3.376662E-17
3.950558E+03	6.531855E-16	3.431787E-17
3.960534E+03	6.645531E-16	3.483688E-17
3.970510E+03	6.752370E-16	3.531691E-17
3.980487E+03	6.851024E-16	3.575115E-17
3.990463E+03	6.939880E-16	3.613146E-17
4.000439E+03	7.017591E-16	3.645121E-17
4.010415E+03	7.082588E-16	3.670265E-17
4.020391E+03	7.132997E-16	3.687656E-17
4.030367E+03	7.167848E-16	3.696846E-17
4.040344E+03	7.185702E-16	3.697153E-17
4.050320E+03	7.186105E-16	3.688407E-17
4.060296E+03	7.168772E-16	3.670529E-17
4.070272E+03	7.134193E-16	3.643838E-17
4.080248E+03	7.083317E-16	3.608884E-17
4.090224E+03	7.018001E-16	3.566674E-17
4.100201E+03	6.940589E-16	3.518456E-17
4.110177E+03	6.853577E-16	3.465539E-17
4.120153E+03	6.759779E-16	3.409383E-17
4.130129E+03	6.662060E-16	3.351459E-17
4.140105E+03	6.562934E-16	3.293045E-17
4.150081E+03	6.465089E-16	3.235496E-17
4.160057E+03	6.371160E-16	3.180126E-17
4.170034E+03	6.283033E-16	3.127859E-17
4.180010E+03	6.202856E-16	3.079742E-17
4.189986E+03	6.132181E-16	3.036515E-17
4.199962E+03	6.072177E-16	2.998718E-17
4.209938E+03	6.023171E-16	2.966474E-17
4.219914E+03	5.985311E-16	2.939813E-17
4.229891E+03	5.957918E-16	2.918359E-17
4.239867E+03	5.940049E-16	2.901609E-17
4.249843E+03	5.930294E-16	2.888843E-17
4.259819E+03	5.927262E-16	2.879351E-17
4.269795E+03	5.929039E-16	2.872182E-17
4.279771E+03	5.934220E-16	2.866637E-17
4.289748E+03	5.941103E-16	2.861886E-17
4.299724E+03	5.948427E-16	2.857317E-17
4.309700E+03	5.955092E-16	2.852402E-17
4.319676E+03	5.960611E-16	2.846914E-17
4.329652E+03	5.964421E-16	2.840591E-17
4.339628E+03	5.966836E-16	2.833589E-17
4.349604E+03	5.968302E-16	2.826128E-17
4.359581E+03	5.969955E-16	2.818750E-17
4.369557E+03	5.973308E-16	2.812168E-17
4.379533E+03	5.980294E-16	2.807282E-17
4.389509E+03	5.993349E-16	2.805220E-17
4.399485E+03	6.015040E-16	2.807153E-17
4.409461E+03	6.048263E-16	2.814395E-17
4.419438E+03	6.095373E-16	2.827990E-17
4.429414E+03	6.158815E-16	2.849010E-17
4.439390E+03	6.240338E-16	2.878193E-17
4.449366E+03	6.341577E-16	2.916215E-17
4.459342E+03	6.463516E-16	2.963444E-17
4.469318E+03	6.606430E-16	3.019920E-17
4.479294E+03	6.770082E-16	3.085445E-17
4.489271E+03	6.953545E-16	3.159510E-17
4.499247E+03	7.154561E-16	3.241009E-17
4.509223E+03	7.369958E-16	3.328433E-17
4.519199E+03	7.595196E-16	3.419675E-17
4.529175E+03	7.824514E-16	3.512105E-17
4.539151E+03	8.050865E-16	3.602549E-17
4.549128E+03	8.266424E-16	3.687526E-17
4.559104E+03	8.462349E-16	3.763143E-17
4.569080E+03	8.630242E-16	3.825757E-17
4.579056E+03	8.762181E-16	3.871980E-17
4.589032E+03	8.851481E-16	3.899015E-17
4.599008E+03	8.894177E-16	3.905299E-17
4.608985E+03	8.888647E-16	3.890315E-17
4.618961E+03	8.836168E-16	3.854825E-17
4.628937E+03	8.741111E-16	3.800926E-17
4.638913E+03	8.609902E-16	3.731587E-17
4.648889E+03	8.450916E-16	3.650580E-17
4.658865E+03	8.273563E-16	3.562076E-17
4.668841E+03	8.087798E-16	3.470430E-17
4.678818E+03	7.903036E-16	3.379704E-17
4.688794E+03	7.728039E-16	3.293632E-17
4.698770E+03	7.570208E-16	3.215317E-17
4.708746E+03	7.435082E-16	3.147028E-17
4.718722E+03	7.326272E-16	3.090193E-17
4.728698E+03	7.245363E-16	3.045361E-17
4.738675E+03	7.192192E-16	3.012342E-17
4.748651E+03	7.165197E-16	2.990362E-17
4.758627E+03	7.161372E-16	2.978052E-17
4.768603E+03	7.177231E-16	2.973865E-17
4.778579E+03	7.208757E-16	2.976053E-17
4.788555E+03	7.251786E-16	2.982832E-17
4.798532E+03	7.302551E-16	2.992605E-17
4.808508E+03	7.358259E-16	3.004194E-17
4.818484E+03	7.416705E-16	3.016680E-17
4.828460E+03	7.476537E-16	3.029502E-17
4.838436E+03	7.537128E-16	3.042399E-17
4.848412E+03	7.598525E-16	3.055385E-17
4.858388E+03	7.661416E-16	3.068732E-17
4.868365E+03	7.727047E-16	3.082929E-17
4.878341E+03	7.797233E-16	3.098685E-17
4.888317E+03	7.873345E-16	3.116520E-17
4.898293E+03	7.956465E-16	3.136832E-17
4.908269E+03	8.046829E-16	3.159680E-17
4.918245E+03	8.143578E-16	3.184693E-17
4.928222E+03	8.243988E-16	3.210780E-17
4.938198E+03	8.344004E-16	3.236350E-17
4.948174E+03	8.438287E-16	3.259343E-17
4.958150E+03	8.520657E-16	3.277410E-17
4.968126E+03	8.584528E-16	3.288086E-17
4.978102E+03	8.624313E-16	3.289331E-17
4.988078E+03	8.636250E-16	3.279836E-17
4.998055E+03	8.618574E-16	3.259071E-17
5.008031E+03	8.572776E-16	3.227744E-17
5.018007E+03	8.503416E-16	3.187707E-17
5.027983E+03	8.417609E-16	3.141733E-17
5.037959E+03	8.323646E-16	3.092988E-17
5.047935E+03	8.230238E-16	3.044738E-17
5.057912E+03	8.145987E-16	3.000152E-17
5.067888E+03	8.077884E-16	2.961751E-17
5.077864E+03	8.031388E-16	2.931452E-17
5.087840E+03	8.010177E-16	2.910487E-17
5.097816E+03	8.015982E-16	2.899360E-17
5.107792E+03	8.049058E-16	2.898034E-17
5.117769E+03	8.107852E-16	2.905819E-17
5.127745E+03	8.189496E-16	2.921570E-17
5.137721E+03	8.289926E-16	2.943734E-17
5.147697E+03	8.404066E-16	2.970429E-17
5.157673E+03	8.527054E-16	2.999882E-17
5.167649E+03	8.654638E-16	3.030566E-17
5.177625E+03	8.783401E-16	3.061273E-17
5.187602E+03	8.911363E-16	3.091317E-17
5.197578E+03	9.038092E-16	3.120560E-17
5.207554E+03	9.164325E-16	3.149268E-17
5.217530E+03	9.291746E-16	3.178027E-17
5.227506E+03	9.422090E-16	3.207431E-17
5.237482E+03	9.557177E-16	3.238089E-17
5.247459E+03	9.698399E-16	3.270459E-17
5.257435E+03	9.846535E-16	3.304783E-17
5.267411E+03	1.000132E-15	3.340949E-17
5.277387E+03	1.016153E-15	3.378530E-17
5.287363E+03	1.032501E-15	3.416800E-17
5.297339E+03	1.048827E-15	3.454608E-17
5.307316E+03	1.064756E-15	3.490737E-17
5.317292E+03	1.079925E-15	3.524037E-17
5.327268E+03	1.093971E-15	3.553376E-17
5.337244E+03	1.106641E-15	3.578002E-17
5.347220E+03	1.117838E-15	3.597675E-17
5.357196E+03	1.127622E-15	3.612674E-17
5.367172E+03	1.136174E-15	3.623644E-17
5.377149E+03	1.143820E-15	3.631693E-17
5.387125E+03	1.150980E-15	3.638200E-17
5.397101E+03	1.158073E-15	3.644514E-17
5.407077E+03	1.165468E-15	3.651808E-17
5.417053E+03	1.173485E-15	3.661088E-17
5.427029E+03	1.182337E-15	3.672998E-17
5.437006E+03	1.192102E-15	3.687764E-17
5.446982E+03	1.202739E-15	3.705229E-17
5.456958E+03	1.214139E-15	3.725047E-17
5.466934E+03	1.226104E-15	3.746588E-17
5.476910E+03	1.238329E-15	3.768922E-17
5.486886E+03	1.250398E-15	3.790792E-17
5.496862E+03	1.261793E-15	3.810649E-17
5.506839E+03	1.271904E-15	3.826698E-17
5.516815E+03	1.280063E-15	3.836988E-17
5.526791E+03	1.285590E-15	3.839553E-17
5.536767E+03	1.287785E-15	3.832386E-17
5.546743E+03	1.285954E-15	3.813528E-17
5.556719E+03	1.279358E-15	3.780904E-17
5.566696E+03	1.267273E-15	3.732516E-17
5.576672E+03	1.249019E-15	3.666511E-17
5.586648E+03	1.223900E-15	3.581012E-17
5.596624E+03	1.191424E-15	3.474757E-17
5.606600E+03	1.151365E-15	3.347271E-17
5.616576E+03	1.103845E-15	3.199082E-17
5.626553E+03	1.049475E-15	3.032133E-17
5.636529E+03	9.895269E-16	2.850232E-17
5.646505E+03	9.258992E-16	2.658947E-17
5.656481E+03	8.608999E-16	2.464946E-17
5.666457E+03	7.970778E-16	2.275510E-17
5.676433E+03	7.370329E-16	2.097980E-17
5.686409E+03	6.830624E-16	1.938758E-17
5.696386E+03	6.370239E-16	1.802930E-17
5.706362E+03	6.003312E-16	1.694274E-17
5.716338E+03	5.740112E-16	1.615444E-17
5.726314E+03	5.587797E-16	1.568189E-17
5.736290E+03	5.551459E-16	1.553668E-17
5.746266E+03	5.636704E-16	1.573169E-17
5.756243E+03	5.850027E-16	1.628215E-17
5.766219E+03	6.198643E-16	1.720514E-17
5.776195E+03	6.689981E-16	1.851813E-17
5.786171E+03	7.330447E-16	2.023557E-17
5.796147E+03	8.121696E-16	2.235864E-17
5.806123E+03	9.057768E-16	2.486761E-17
5.816100E+03	1.012177E-15	2.771297E-17
5.826076E+03	1.128420E-15	3.081131E-17
5.836052E+03	1.250106E-15	3.404057E-17
5.846028E+03	1.371630E-15	3.724734E-17
5.856004E+03	1.486731E-15	4.026204E-17
5.865980E+03	1.589102E-15	4.291575E-17
5.875956E+03	1.673164E-15	4.506100E-17
5.885933E+03	1.734770E-15	4.659047E-17
5.895909E+03	1.771726E-15	4.745037E-17
5.905885E+03	1.783835E-15	4.764096E-17
5.915861E+03	1.772820E-15	4.721362E-17
5.925837E+03	1.741995E-15	4.626160E-17
5.935813E+03	1.695581E-15	4.490117E-17
5.945790E+03	1.638233E-15	4.325873E-17
5.955766E+03	1.574513E-15	4.145696E-17
5.965742E+03	1.508378E-15	3.960120E-17
5.975718E+03	1.443019E-15	3.777559E-17
5.985694E+03	1.380824E-15	3.604233E-17
5.995670E+03	1.323393E-15	3.444238E-17
6.005647E+03	1.271681E-15	3.299947E-17
6.015623E+03	1.226125E-15	3.172366E-17
6.025599E+03	1.186752E-15	3.061427E-17
6.035575E+03	1.153295E-15	2.966304E-17
6.045551E+03	1.125282E-15	2.885658E-17
6.055527E+03	1.102148E-15	2.817926E-17
6.065503E+03	1.083341E-15	2.761589E-17
6.075480E+03	1.068281E-15	2.715079E-17
6.085456E+03	1.056540E-15	2.677236E-17
6.095432E+03	1.047836E-15	2.647273E-17
6.105408E+03	1.042014E-15	2.624737E-17
6.115384E+03	1.038969E-15	2.609309E-17
6.125360E+03	1.038661E-15	2.600833E-17
6.135337E+03	1.041039E-15	2.599126E-17
6.145313E+03	1.046042E-15	2.603988E-17
6.155289E+03	1.053574E-15	2.615133E-17
6.165265E+03	1.063436E-15	2.632027E-17
6.175241E+03	1.075373E-15	2.654002E-17
6.185217E+03	1.088907E-15	2.679850E-17
6.195193E+03	1.103434E-15	2.708073E-17
6.205170E+03	1.118050E-15	2.736455E-17
6.215146E+03	1.131590E-15	2.762168E-17
6.225122E+03	1.142651E-15	2.781837E-17
6.235098E+03	1.149658E-15	2.791703E-17
6.245074E+03	1.151032E-15	2.788036E-17
6.255050E+03	1.145389E-15	2.767609E-17
6.265027E+03	1.131902E-15	2.728563E-17
6.275003E+03	1.110560E-15	2.671012E-17
6.284979E+03	1.082222E-15	2.597151E-17
6.294955E+03	1.048697E-15	2.511419E-17
6.304931E+03	1.012686E-15	2.420335E-17
6.314907E+03	9.773407E-16	2.331443E-17
6.324884E+03	9.458704E-16	2.252361E-17
6.334860E+03	9.213463E-16	2.190329E-17
6.344836E+03	9.065573E-16	2.151874E-17
6.354812E+03	9.037833E-16	2.142296E-17
6.364788E+03	9.147558E-16	2.165584E-17
6.374764E+03	9.408174E-16	2.224816E-17
6.384740E+03	9.826051E-16	2.321420E-17
6.394717E+03	1.039660E-15	2.454268E-17
6.404693E+03	1.110367E-15	2.619547E-17
6.414669E+03	1.192131E-15	2.811175E-17
6.424645E+03	1.281313E-15	3.020660E-17
6.434621E+03	1.373344E-15	3.237350E-17
6.444597E+03	1.463158E-15	3.449443E-17
6.454574E+03	1.545862E-15	3.645537E-17
6.464550E+03	1.617202E-15	3.815721E-17
6.474526E+03	1.673998E-15	3.952569E-17
6.484502E+03	1.714498E-15	4.051967E-17
6.494478E+03	1.738588E-15	4.113595E-17
6.504454E+03	1.747733E-15	4.140802E-17
6.514431E+03	1.744729E-15	4.140063E-17
6.524407E+03	1.733096E-15	4.119573E-17
6.534383E+03	1.716408E-15	4.087694E-17
6.544359E+03	1.698388E-15	4.053189E-17
6.554335E+03	1.682433E-15	4.024110E-17
6.564311E+03	1.671241E-15	4.006909E-17
6.574287E+03	1.666565E-15	4.005837E-17
6.584264E+03	1.669188E-15	4.022866E-17
6.594240E+03	1.679033E-15	4.057916E-17
6.604216E+03	1.694937E-15	4.108299E-17
6.614192E+03	1.715020E-15	4.169549E-17
6.624168E+03	1.736841E-15	4.235789E-17
6.634144E+03	1.757639E-15	4.300289E-17
6.644121E+03	1.774563E-15	4.356013E-17
6.654097E+03	1.784932E-15	4.396237E-17
6.664073E+03	1.786654E-15	4.415603E-17
6.674049E+03	1.778250E-15	4.410197E-17
6.684025E+03	1.758987E-15	4.377890E-17
6.694001E+03	1.728992E-15	4.318680E-17
6.703977E+03	1.689063E-15	4.234233E-17
6.713954E+03	1.640467E-15	4.127430E-17
6.723930E+03	1.584781E-15	4.001970E-17
6.733906E+03	1.523648E-15	3.861781E-17
6.743882E+03	1.458747E-15	3.710953E-17
6.753858E+03	1.391512E-15	3.553001E-17
6.763834E+03	1.323256E-15	3.391200E-17
6.773811E+03	1.255112E-15	3.228408E-17
6.783787E+03	1.188127E-15	3.067320E-17
6.793763E+03	1.123153E-15	2.910154E-17
6.803739E+03	1.061040E-15	2.759172E-17
6.813715E+03	1.002557E-15	2.616449E-17
6.823691E+03	9.484487E-16	2.484036E-17
6.833668E+03	8.993809E-16	2.363803E-17
6.843644E+03	8.560381E-16	2.257693E-17
6.853620E+03	8.190563E-16	2.167549E-17
6.863596E+03	7.890445E-16	2.095160E-17
6.873572E+03	7.666148E-16	2.042345E-17
6.883548E+03	7.523820E-16	2.010947E-17
6.893524E+03	7.468970E-16	2.002655E-17
6.903501E+03	7.506728E-16	2.019065E-17
6.913477E+03	7.641778E-16	2.061666E-17
6.923453E+03	7.878109E-16	2.131763E-17
6.933429E+03	8.217530E-16	2.230072E-17
6.943405E+03	8.659227E-16	2.356588E-17
6.953381E+03	9.198988E-16	2.510365E-17
6.963358E+03	9.826886E-16	2.688868E-17
6.973334E+03	1.052632E-15	2.887688E-17
6.983310E+03	1.127401E-15	3.100518E-17
6.993286E+03	1.204051E-15	3.319288E-17
7.003262E+03	1.279130E-15	3.534432E-17
7.013238E+03	1.348989E-15	3.735754E-17
7.023215E+03	1.410219E-15	3.913637E-17
7.033191E+03	1.459928E-15	4.059834E-17
7.043167E+03	1.496009E-15	4.168235E-17
7.053143E+03	1.517335E-15	4.235433E-17
7.063119E+03	1.523926E-15	4.261234E-17
7.073095E+03	1.516773E-15	4.248187E-17
7.083071E+03	1.497829E-15	4.201582E-17
7.093048E+03	1.469738E-15	4.128700E-17
7.103024E+03	1.435494E-15	4.037873E-17
7.113000E+03	1.398269E-15	3.937990E-17
7.122976E+03	1.361125E-15	3.837679E-17
7.132952E+03	1.326686E-15	3.744377E-17
7.142928E+03	1.297093E-15	3.664183E-17
7.152905E+03	1.273962E-15	3.601724E-17
7.162881E+03	1.258457E-15	3.560355E-17
7.172857E+03	1.251244E-15	3.542019E-17
7.182833E+03	1.252620E-15	3.547602E-17
7.192809E+03	1.262644E-15	3.577302E-17
7.202785E+03	1.281000E-15	3.630243E-17
7.212762E+03	1.307101E-15	3.704758E-17
7.222738E+03	1.339938E-15	3.797973E-17
7.232714E+03	1.377973E-15	3.905498E-17
7.242690E+03	1.419079E-15	4.021271E-17
7.252666E+03	1.460652E-15	4.137867E-17
7.262642E+03	1.499645E-15	4.246623E-17
7.272618E+03	1.532833E-15	4.338383E-17
7.282595E+03	1.557107E-15	4.404347E-17
7.292571E+03	1.570033E-15	4.437665E-17
7.302547E+03	1.569982E-15	4.433798E-17
7.312523E+03	1.556448E-15	4.391409E-17
7.322499E+03	1.530038E-15	4.312337E-17
7.332475E+03	1.492375E-15	4.201294E-17
7.342452E+03	1.445659E-15	4.064614E-17
7.352428E+03	1.392394E-15	3.909469E-17
7.362404E+03	1.335133E-15	3.743145E-17
7.372380E+03	1.276109E-15	3.571996E-17
7.382356E+03	1.217171E-15	3.401270E-17
7.392332E+03	1.159760E-15	3.235041E-17
7.402308E+03	1.104847E-15	3.076038E-17
7.412285E+03	1.053079E-15	2.926075E-17
7.422261E+03	1.004800E-15	2.786101E-17
7.432237E+03	9.601509E-16	2.656482E-17
7.442213E+03	9.190780E-16	2.537051E-17
7.452189E+03	8.814556E-16	2.427427E-17
7.462165E+03	8.470933E-16	2.327055E-17
7.472142E+03	8.158004E-16	2.235375E-17
7.482118E+03	7.873662E-16	2.151775E-17
7.492094E+03	7.616286E-16	2.075776E-17
7.502070E+03	7.384463E-16	2.006958E-17
7.512046E+03	7.177268E-16	1.945031E-17
7.522022E+03	6.993874E-16	1.889734E-17
7.531999E+03	6.833492E-16	1.840814E-17
7.541975E+03	6.695823E-16	1.798150E-17
7.551951E+03	6.580318E-16	1.761552E-17
7.561927E+03	6.486603E-16	1.730878E-17
7.571903E+03	6.414425E-16	1.706015E-17
7.581879E+03	6.363707E-16	1.686898E-17
7.591855E+03	6.334853E-16	1.673588E-17
7.601832E+03	6.328603E-16	1.666230E-17
7.611808E+03	6.345675E-16	1.664962E-17
7.621784E+03	6.386590E-16	1.669866E-17
7.631760E+03	6.451982E-16	1.681052E-17
7.641736E+03	6.542049E-16	1.698514E-17
7.651712E+03	6.656509E-16	1.722124E-17
7.661689E+03	6.794058E-16	1.751490E-17
7.671665E+03	6.952483E-16	1.785995E-17
7.681641E+03	7.128313E-16	1.824709E-17
7.691617E+03	7.316230E-16	1.866246E-17
7.701593E+03	7.509869E-16	1.908977E-17
7.711569E+03	7.701554E-16	1.950965E-17
7.721546E+03	7.882718E-16	1.990077E-17
7.731522E+03	8.044578E-16	2.024156E-17
7.741498E+03	8.178784E-16	2.051186E-17
