#wls	flux	fluxerr
1.596185E+03	1.597349E-16	4.933659E-18
1.636090E+03	1.711224E-16	5.279299E-18
1.675994E+03	1.831169E-16	5.642663E-18
1.715899E+03	1.956593E-16	6.021825E-18
1.755804E+03	2.086252E-16	6.412865E-18
1.795708E+03	2.217809E-16	6.808508E-18
1.835613E+03	2.346783E-16	7.194957E-18
1.875518E+03	2.468408E-16	7.557602E-18
1.915422E+03	2.574979E-16	7.872936E-18
1.955327E+03	2.659819E-16	8.120721E-18
1.995231E+03	2.718484E-16	8.287663E-18
2.035136E+03	2.752082E-16	8.377458E-18
2.075041E+03	2.770711E-16	8.421128E-18
2.114945E+03	2.794298E-16	8.479337E-18
2.154850E+03	2.841739E-16	8.609249E-18
2.194755E+03	2.919962E-16	8.831438E-18
2.234659E+03	3.021374E-16	9.122474E-18
2.274564E+03	3.126895E-16	9.424446E-18
2.314468E+03	3.218138E-16	9.681922E-18
2.354373E+03	3.282870E-16	9.858353E-18
2.394278E+03	3.315368E-16	9.937001E-18
2.434182E+03	3.317919E-16	9.925238E-18
2.474087E+03	3.293877E-16	9.833593E-18
2.513992E+03	3.250228E-16	9.683360E-18
2.553896E+03	3.193668E-16	9.494819E-18
2.593801E+03	3.129458E-16	9.283835E-18
2.633705E+03	3.063810E-16	9.068965E-18
2.673610E+03	3.000597E-16	8.861700E-18
2.713515E+03	2.942830E-16	8.670884E-18
2.753419E+03	2.893868E-16	8.506297E-18
2.793324E+03	2.854782E-16	8.370913E-18
2.833229E+03	2.827531E-16	8.270256E-18
2.873133E+03	2.812794E-16	8.206062E-18
2.913038E+03	2.810844E-16	8.178838E-18
2.952942E+03	2.822234E-16	8.189893E-18
2.992847E+03	2.846218E-16	8.236745E-18
3.002823E+03	2.854241E-16	8.254185E-18
3.012799E+03	2.862855E-16	8.273269E-18
3.022776E+03	2.872342E-16	8.294811E-18
3.032752E+03	2.882721E-16	8.318858E-18
3.042728E+03	2.893717E-16	8.344609E-18
3.052704E+03	2.906073E-16	8.374204E-18
3.062680E+03	2.918831E-16	8.404872E-18
3.072656E+03	2.932819E-16	8.438997E-18
3.082633E+03	2.947679E-16	8.475539E-18
3.092609E+03	2.963057E-16	8.513472E-18
3.102585E+03	2.979480E-16	8.554310E-18
3.112561E+03	2.996304E-16	8.596197E-18
3.122537E+03	3.013764E-16	8.639801E-18
3.132513E+03	3.032089E-16	8.685776E-18
3.142489E+03	3.050644E-16	8.732294E-18
3.152466E+03	3.069944E-16	8.780833E-18
3.162442E+03	3.089642E-16	8.830389E-18
3.172418E+03	3.109679E-16	8.880793E-18
3.182394E+03	3.129993E-16	8.931865E-18
3.192370E+03	3.150806E-16	8.984235E-18
3.202346E+03	3.171771E-16	9.036910E-18
3.212323E+03	3.192826E-16	9.089712E-18
3.222299E+03	3.214186E-16	9.143253E-18
3.232275E+03	3.235783E-16	9.197334E-18
3.242251E+03	3.257274E-16	9.250981E-18
3.252227E+03	3.278869E-16	9.304786E-18
3.262203E+03	3.300225E-16	9.357779E-18
3.272179E+03	3.321550E-16	9.410550E-18
3.282156E+03	3.342776E-16	9.462904E-18
3.292132E+03	3.363835E-16	9.514649E-18
3.302108E+03	3.384661E-16	9.565596E-18
3.312084E+03	3.405185E-16	9.615559E-18
3.322060E+03	3.425346E-16	9.664361E-18
3.332036E+03	3.445080E-16	9.711824E-18
3.342013E+03	3.464589E-16	9.758519E-18
3.351989E+03	3.483289E-16	9.802809E-18
3.361965E+03	3.501649E-16	9.846010E-18
3.371941E+03	3.519612E-16	9.887968E-18
3.381917E+03	3.536871E-16	9.927823E-18
3.391893E+03	3.553382E-16	9.965457E-18
3.401870E+03	3.569360E-16	1.000147E-17
3.411846E+03	3.584764E-16	1.003577E-17
3.421822E+03	3.599314E-16	1.006755E-17
3.431798E+03	3.613478E-16	1.009815E-17
3.441774E+03	3.626743E-16	1.012612E-17
3.451750E+03	3.639339E-16	1.015212E-17
3.461726E+03	3.651495E-16	1.017678E-17
3.471703E+03	3.662967E-16	1.019944E-17
3.481679E+03	3.673760E-16	1.022012E-17
3.491655E+03	3.683886E-16	1.023884E-17
3.501631E+03	3.693594E-16	1.025630E-17
3.511607E+03	3.702680E-16	1.027195E-17
3.521583E+03	3.711403E-16	1.028650E-17
3.531560E+03	3.719799E-16	1.030006E-17
3.541536E+03	3.727698E-16	1.031216E-17
3.551512E+03	3.735373E-16	1.032356E-17
3.561488E+03	3.743101E-16	1.033502E-17
3.571464E+03	3.750524E-16	1.034555E-17
3.581440E+03	3.758141E-16	1.035654E-17
3.591417E+03	3.765825E-16	1.036763E-17
3.601393E+03	3.773671E-16	1.037908E-17
3.611369E+03	3.781977E-16	1.039171E-17
3.621345E+03	3.790646E-16	1.040525E-17
3.631321E+03	3.799986E-16	1.042053E-17
3.641297E+03	3.810109E-16	1.043787E-17
3.651273E+03	3.821131E-16	1.045757E-17
3.661250E+03	3.833174E-16	1.047996E-17
3.671226E+03	3.846363E-16	1.050537E-17
3.681202E+03	3.860827E-16	1.053414E-17
3.691178E+03	3.876696E-16	1.056662E-17
3.701154E+03	3.894282E-16	1.060364E-17
3.711130E+03	3.913533E-16	1.064505E-17
3.721107E+03	3.934757E-16	1.069166E-17
3.731083E+03	3.957900E-16	1.074332E-17
3.741059E+03	3.983262E-16	1.080082E-17
3.751035E+03	4.011124E-16	1.086491E-17
3.761011E+03	4.041251E-16	1.093491E-17
3.770987E+03	4.073909E-16	1.101155E-17
3.780963E+03	4.109348E-16	1.109545E-17
3.790940E+03	4.147465E-16	1.118633E-17
3.800916E+03	4.188307E-16	1.128429E-17
3.810892E+03	4.232064E-16	1.138980E-17
3.820868E+03	4.278567E-16	1.150240E-17
3.830844E+03	4.327947E-16	1.162240E-17
3.840820E+03	4.380133E-16	1.174959E-17
3.850797E+03	4.435015E-16	1.188364E-17
3.860773E+03	4.492279E-16	1.202370E-17
3.870749E+03	4.552048E-16	1.217006E-17
3.880725E+03	4.613749E-16	1.232118E-17
3.890701E+03	4.677402E-16	1.247708E-17
3.900677E+03	4.742492E-16	1.263638E-17
3.910654E+03	4.808613E-16	1.279798E-17
3.920630E+03	4.875316E-16	1.296067E-17
3.930606E+03	4.942264E-16	1.312356E-17
3.940582E+03	5.008765E-16	1.328479E-17
3.950558E+03	5.074417E-16	1.344332E-17
3.960534E+03	5.138482E-16	1.359719E-17
3.970510E+03	5.200368E-16	1.374486E-17
3.980487E+03	5.259644E-16	1.388519E-17
3.990463E+03	5.315733E-16	1.401670E-17
4.000439E+03	5.367942E-16	1.413759E-17
4.010415E+03	5.415781E-16	1.424660E-17
4.020391E+03	5.458833E-16	1.434267E-17
4.030367E+03	5.496920E-16	1.442540E-17
4.040344E+03	5.529666E-16	1.449382E-17
4.050320E+03	5.557122E-16	1.454814E-17
4.060296E+03	5.579023E-16	1.458770E-17
4.070272E+03	5.595832E-16	1.461377E-17
4.080248E+03	5.607567E-16	1.462644E-17
4.090224E+03	5.614804E-16	1.462726E-17
4.100201E+03	5.618094E-16	1.461771E-17
4.110177E+03	5.617946E-16	1.459916E-17
4.120153E+03	5.615090E-16	1.457352E-17
4.130129E+03	5.610435E-16	1.454319E-17
4.140105E+03	5.604523E-16	1.450958E-17
4.150081E+03	5.598167E-16	1.447481E-17
4.160057E+03	5.592275E-16	1.444123E-17
4.170034E+03	5.587457E-16	1.441040E-17
4.180010E+03	5.584377E-16	1.438404E-17
4.189986E+03	5.583491E-16	1.436329E-17
4.199962E+03	5.585160E-16	1.434906E-17
4.209938E+03	5.589983E-16	1.434286E-17
4.219914E+03	5.597863E-16	1.434442E-17
4.229891E+03	5.609166E-16	1.435463E-17
4.239867E+03	5.623592E-16	1.437271E-17
4.249843E+03	5.641309E-16	1.439904E-17
4.259819E+03	5.661860E-16	1.443242E-17
4.269795E+03	5.685286E-16	1.447295E-17
4.279771E+03	5.711054E-16	1.451922E-17
4.289748E+03	5.739163E-16	1.457121E-17
4.299724E+03	5.769091E-16	1.462759E-17
4.309700E+03	5.800776E-16	1.468816E-17
4.319676E+03	5.833986E-16	1.475233E-17
4.329652E+03	5.868555E-16	1.481965E-17
4.339628E+03	5.904485E-16	1.489014E-17
4.349604E+03	5.941750E-16	1.496369E-17
4.359581E+03	5.980398E-16	1.504042E-17
4.369557E+03	6.020658E-16	1.512089E-17
4.379533E+03	6.062835E-16	1.520585E-17
4.389509E+03	6.107222E-16	1.529601E-17
4.399485E+03	6.154468E-16	1.539297E-17
4.409461E+03	6.205215E-16	1.549831E-17
4.419438E+03	6.259949E-16	1.561319E-17
4.429414E+03	6.319042E-16	1.573852E-17
4.439390E+03	6.382910E-16	1.587526E-17
4.449366E+03	6.451469E-16	1.602317E-17
4.459342E+03	6.524603E-16	1.618190E-17
4.469318E+03	6.601933E-16	1.635047E-17
4.479294E+03	6.682809E-16	1.652722E-17
4.489271E+03	6.766194E-16	1.670955E-17
4.499247E+03	6.850783E-16	1.689423E-17
4.509223E+03	6.935313E-16	1.707811E-17
4.519199E+03	7.017910E-16	1.725660E-17
4.529175E+03	7.096744E-16	1.742522E-17
4.539151E+03	7.169898E-16	1.757931E-17
4.549128E+03	7.235563E-16	1.771450E-17
4.559104E+03	7.291733E-16	1.782596E-17
4.569080E+03	7.336900E-16	1.791012E-17
4.579056E+03	7.369779E-16	1.796396E-17
4.589032E+03	7.389458E-16	1.798539E-17
4.599008E+03	7.395386E-16	1.797321E-17
4.608985E+03	7.387612E-16	1.792770E-17
4.618961E+03	7.366878E-16	1.785081E-17
4.628937E+03	7.334005E-16	1.774464E-17
4.638913E+03	7.290433E-16	1.761283E-17
4.648889E+03	7.238015E-16	1.745996E-17
4.658865E+03	7.178748E-16	1.729092E-17
4.668841E+03	7.114649E-16	1.711066E-17
4.678818E+03	7.047929E-16	1.692454E-17
4.688794E+03	6.980612E-16	1.673743E-17
4.698770E+03	6.914455E-16	1.655356E-17
4.708746E+03	6.851233E-16	1.637715E-17
4.718722E+03	6.792087E-16	1.621089E-17
4.728698E+03	6.738119E-16	1.605738E-17
4.738675E+03	6.690040E-16	1.591824E-17
4.748651E+03	6.648371E-16	1.579466E-17
4.758627E+03	6.613217E-16	1.568680E-17
4.768603E+03	6.584651E-16	1.559478E-17
4.778579E+03	6.562513E-16	1.551814E-17
4.788555E+03	6.546453E-16	1.545598E-17
4.798532E+03	6.536387E-16	1.540805E-17
4.808508E+03	6.531729E-16	1.537289E-17
4.818484E+03	6.532375E-16	1.535021E-17
4.828460E+03	6.537934E-16	1.533903E-17
4.838436E+03	6.548206E-16	1.533881E-17
4.848412E+03	6.562862E-16	1.534876E-17
4.858388E+03	6.581831E-16	1.536864E-17
4.868365E+03	6.604800E-16	1.539769E-17
4.878341E+03	6.631587E-16	1.543544E-17
4.888317E+03	6.661873E-16	1.548110E-17
4.898293E+03	6.695338E-16	1.553388E-17
4.908269E+03	6.731556E-16	1.559278E-17
4.918245E+03	6.769758E-16	1.565599E-17
4.928222E+03	6.809390E-16	1.572219E-17
4.938198E+03	6.849742E-16	1.578975E-17
4.948174E+03	6.889828E-16	1.585637E-17
4.958150E+03	6.929086E-16	1.592079E-17
4.968126E+03	6.966632E-16	1.598097E-17
4.978102E+03	7.002060E-16	1.603601E-17
4.988078E+03	7.035007E-16	1.608511E-17
4.998055E+03	7.065281E-16	1.612785E-17
5.008031E+03	7.093129E-16	1.616484E-17
5.018007E+03	7.119066E-16	1.619726E-17
5.027983E+03	7.143769E-16	1.622669E-17
5.037959E+03	7.168022E-16	1.625491E-17
5.047935E+03	7.192903E-16	1.628437E-17
5.057912E+03	7.219455E-16	1.631742E-17
5.067888E+03	7.248779E-16	1.635654E-17
5.077864E+03	7.281716E-16	1.640358E-17
5.087840E+03	7.319122E-16	1.646044E-17
5.097816E+03	7.361570E-16	1.652834E-17
5.107792E+03	7.409415E-16	1.660804E-17
5.117769E+03	7.462688E-16	1.669954E-17
5.127745E+03	7.521456E-16	1.680293E-17
5.137721E+03	7.585235E-16	1.691708E-17
5.147697E+03	7.653714E-16	1.704124E-17
5.157673E+03	7.726193E-16	1.717380E-17
5.167649E+03	7.801874E-16	1.731296E-17
5.177625E+03	7.880182E-16	1.745739E-17
5.187602E+03	7.960337E-16	1.760536E-17
5.197578E+03	8.041404E-16	1.775478E-17
5.207554E+03	8.122725E-16	1.790419E-17
5.217530E+03	8.203498E-16	1.805183E-17
5.227506E+03	8.283223E-16	1.819662E-17
5.237482E+03	8.361032E-16	1.833665E-17
5.247459E+03	8.436365E-16	1.847074E-17
5.257435E+03	8.508482E-16	1.859729E-17
5.267411E+03	8.576725E-16	1.871491E-17
5.277387E+03	8.640474E-16	1.882230E-17
5.287363E+03	8.699044E-16	1.891802E-17
5.297339E+03	8.751991E-16	1.900116E-17
5.307316E+03	8.798798E-16	1.907068E-17
5.317292E+03	8.839127E-16	1.912591E-17
5.327268E+03	8.872822E-16	1.916659E-17
5.337244E+03	8.899676E-16	1.919235E-17
5.347220E+03	8.920058E-16	1.920406E-17
5.357196E+03	8.934140E-16	1.920217E-17
5.367172E+03	8.942436E-16	1.918784E-17
5.377149E+03	8.945640E-16	1.916264E-17
5.387125E+03	8.944466E-16	1.912816E-17
5.397101E+03	8.939923E-16	1.908658E-17
5.407077E+03	8.932809E-16	1.903966E-17
5.417053E+03	8.924226E-16	1.898976E-17
5.427029E+03	8.915113E-16	1.893891E-17
5.437006E+03	8.906420E-16	1.888912E-17
5.446982E+03	8.899036E-16	1.884228E-17
5.456958E+03	8.893649E-16	1.879983E-17
5.466934E+03	8.890707E-16	1.876270E-17
5.476910E+03	8.890194E-16	1.873084E-17
5.486886E+03	8.891431E-16	1.870279E-17
5.496862E+03	8.891240E-16	1.867185E-17
5.506839E+03	8.886133E-16	1.863075E-17
5.516815E+03	8.872537E-16	1.857204E-17
5.526791E+03	8.846744E-16	1.848806E-17
5.536767E+03	8.805531E-16	1.837221E-17
5.546743E+03	8.746073E-16	1.821876E-17
5.556719E+03	8.666289E-16	1.802356E-17
5.566696E+03	8.564803E-16	1.778396E-17
5.576672E+03	8.441237E-16	1.749938E-17
5.586648E+03	8.295983E-16	1.717084E-17
5.596624E+03	8.130757E-16	1.680211E-17
5.606600E+03	7.947964E-16	1.639834E-17
5.616576E+03	7.751135E-16	1.596696E-17
5.626553E+03	7.544690E-16	1.551719E-17
5.636529E+03	7.333363E-16	1.505884E-17
5.646505E+03	7.122615E-16	1.460314E-17
5.656481E+03	6.918143E-16	1.416175E-17
5.666457E+03	6.725602E-16	1.374614E-17
5.676433E+03	6.550482E-16	1.336741E-17
5.686409E+03	6.398012E-16	1.303602E-17
5.696386E+03	6.272819E-16	1.276118E-17
5.706362E+03	6.179196E-16	1.255134E-17
5.716338E+03	6.120569E-16	1.241315E-17
5.726314E+03	6.100024E-16	1.235253E-17
5.736290E+03	6.119885E-16	1.237381E-17
5.746266E+03	6.181750E-16	1.247986E-17
5.756243E+03	6.286705E-16	1.267248E-17
5.766219E+03	6.434749E-16	1.295127E-17
5.776195E+03	6.625129E-16	1.331433E-17
5.786171E+03	6.855904E-16	1.375739E-17
5.796147E+03	7.123901E-16	1.427374E-17
5.806123E+03	7.424256E-16	1.485332E-17
5.816100E+03	7.750870E-16	1.548367E-17
5.826076E+03	8.095872E-16	1.614887E-17
5.836052E+03	8.450112E-16	1.683055E-17
5.846028E+03	8.803388E-16	1.750836E-17
5.856004E+03	9.144992E-16	1.816105E-17
5.865980E+03	9.464270E-16	1.876762E-17
5.875956E+03	9.751334E-16	1.930869E-17
5.885933E+03	9.997598E-16	1.976759E-17
5.895909E+03	1.019681E-15	2.013233E-17
5.905885E+03	1.034462E-15	2.039477E-17
5.915861E+03	1.043950E-15	2.055231E-17
5.925837E+03	1.048238E-15	2.060727E-17
5.935813E+03	1.047656E-15	2.056656E-17
5.945790E+03	1.042684E-15	2.044000E-17
5.955766E+03	1.033979E-15	2.024080E-17
5.965742E+03	1.022217E-15	1.998249E-17
5.975718E+03	1.008169E-15	1.968037E-17
5.985694E+03	9.925208E-16	1.934800E-17
5.995670E+03	9.759557E-16	1.899880E-17
6.005647E+03	9.590710E-16	1.864445E-17
6.015623E+03	9.423666E-16	1.829467E-17
6.025599E+03	9.262754E-16	1.795783E-17
6.035575E+03	9.111220E-16	1.764017E-17
6.045551E+03	8.971498E-16	1.734630E-17
6.055527E+03	8.845613E-16	1.708005E-17
6.065503E+03	8.734471E-16	1.684304E-17
6.075480E+03	8.638978E-16	1.663691E-17
6.085456E+03	8.559277E-16	1.646181E-17
6.095432E+03	8.495289E-16	1.631746E-17
6.105408E+03	8.446511E-16	1.620277E-17
6.115384E+03	8.412380E-16	1.611657E-17
6.125360E+03	8.391872E-16	1.605677E-17
6.135337E+03	8.383830E-16	1.602107E-17
6.145313E+03	8.386919E-16	1.600684E-17
6.155289E+03	8.399274E-16	1.601044E-17
6.165265E+03	8.419061E-16	1.602832E-17
6.175241E+03	8.444083E-16	1.605625E-17
6.185217E+03	8.471938E-16	1.608963E-17
6.195193E+03	8.500042E-16	1.612356E-17
6.205170E+03	8.525675E-16	1.615289E-17
6.215146E+03	8.546351E-16	1.617292E-17
6.225122E+03	8.559722E-16	1.617926E-17
6.235098E+03	8.563753E-16	1.616812E-17
6.245074E+03	8.557234E-16	1.613729E-17
6.255050E+03	8.539545E-16	1.608567E-17
6.265027E+03	8.511282E-16	1.601444E-17
6.275003E+03	8.473701E-16	1.592606E-17
6.284979E+03	8.429322E-16	1.582529E-17
6.294955E+03	8.381474E-16	1.571843E-17
6.304931E+03	8.334080E-16	1.561285E-17
6.314907E+03	8.291754E-16	1.551718E-17
6.324884E+03	8.258901E-16	1.543962E-17
6.334860E+03	8.239757E-16	1.538803E-17
6.344836E+03	8.238066E-16	1.536932E-17
6.354812E+03	8.256402E-16	1.538820E-17
6.364788E+03	8.296629E-16	1.544802E-17
6.374764E+03	8.359172E-16	1.554946E-17
6.384740E+03	8.442944E-16	1.569040E-17
6.394717E+03	8.546083E-16	1.586727E-17
6.404693E+03	8.665095E-16	1.607352E-17
6.414669E+03	8.795892E-16	1.630149E-17
6.424645E+03	8.933762E-16	1.654243E-17
6.434621E+03	9.073862E-16	1.678734E-17
6.444597E+03	9.211759E-16	1.702807E-17
6.454574E+03	9.343845E-16	1.725795E-17
6.464550E+03	9.467931E-16	1.747300E-17
6.474526E+03	9.583118E-16	1.767163E-17
6.484502E+03	9.690265E-16	1.785545E-17
6.494478E+03	9.791928E-16	1.802925E-17
6.504454E+03	9.891321E-16	1.819895E-17
6.514431E+03	9.992720E-16	1.837244E-17
6.524407E+03	1.009864E-15	1.855434E-17
6.534383E+03	1.020985E-15	1.874606E-17
6.544359E+03	1.032581E-15	1.894656E-17
6.554335E+03	1.044575E-15	1.915445E-17
6.564311E+03	1.056831E-15	1.936723E-17
6.574287E+03	1.069130E-15	1.958086E-17
6.584264E+03	1.081201E-15	1.979042E-17
6.594240E+03	1.092745E-15	1.999042E-17
6.604216E+03	1.103361E-15	2.017357E-17
6.614192E+03	1.112618E-15	2.033203E-17
6.624168E+03	1.120072E-15	2.045771E-17
6.634144E+03	1.125257E-15	2.054217E-17
6.644121E+03	1.127735E-15	2.057748E-17
6.654097E+03	1.127134E-15	2.055691E-17
6.664073E+03	1.123138E-15	2.047478E-17
6.674049E+03	1.115567E-15	2.032788E-17
6.684025E+03	1.104350E-15	2.011500E-17
6.694001E+03	1.089547E-15	1.983730E-17
6.703977E+03	1.071360E-15	1.949853E-17
6.713954E+03	1.050098E-15	1.910433E-17
6.723930E+03	1.026163E-15	1.866208E-17
6.733906E+03	1.000026E-15	1.818036E-17
6.743882E+03	9.722468E-16	1.766938E-17
6.753858E+03	9.433750E-16	1.713911E-17
6.763834E+03	9.139879E-16	1.660004E-17
6.773811E+03	8.846380E-16	1.606218E-17
6.783787E+03	8.558384E-16	1.553482E-17
6.793763E+03	8.280996E-16	1.502720E-17
6.803739E+03	8.018415E-16	1.454689E-17
6.813715E+03	7.774823E-16	1.410144E-17
6.823691E+03	7.553601E-16	1.369693E-17
6.833668E+03	7.357790E-16	1.333884E-17
6.843644E+03	7.190096E-16	1.303201E-17
6.853620E+03	7.052630E-16	1.278023E-17
6.863596E+03	6.947321E-16	1.258695E-17
6.873572E+03	6.875645E-16	1.245480E-17
6.883548E+03	6.838628E-16	1.238560E-17
6.893524E+03	6.837106E-16	1.238083E-17
6.903501E+03	6.871405E-16	1.244104E-17
6.913477E+03	6.941376E-16	1.256592E-17
6.923453E+03	7.046207E-16	1.275400E-17
6.933429E+03	7.184626E-16	1.300294E-17
6.943405E+03	7.354614E-16	1.330907E-17
6.953381E+03	7.552916E-16	1.366649E-17
6.963358E+03	7.776005E-16	1.406881E-17
6.973334E+03	8.019076E-16	1.450734E-17
6.983310E+03	8.276515E-16	1.497192E-17
6.993286E+03	8.542305E-16	1.545166E-17
7.003262E+03	8.809916E-16	1.593477E-17
7.013238E+03	9.072643E-16	1.640914E-17
7.023215E+03	9.324329E-16	1.686363E-17
7.033191E+03	9.559223E-16	1.728786E-17
7.043167E+03	9.772738E-16	1.767355E-17
7.053143E+03	9.961735E-16	1.801503E-17
7.063119E+03	1.012430E-15	1.830886E-17
7.073095E+03	1.026037E-15	1.855490E-17
7.083071E+03	1.037093E-15	1.875497E-17
7.093048E+03	1.045872E-15	1.891402E-17
7.103024E+03	1.052727E-15	1.903844E-17
7.113000E+03	1.058128E-15	1.913672E-17
7.122976E+03	1.062510E-15	1.921673E-17
7.132952E+03	1.066382E-15	1.928766E-17
7.142928E+03	1.070182E-15	1.935747E-17
7.152905E+03	1.074303E-15	1.943324E-17
7.162881E+03	1.079058E-15	1.952064E-17
7.172857E+03	1.084642E-15	1.962322E-17
7.182833E+03	1.091157E-15	1.974281E-17
7.192809E+03	1.098580E-15	1.987899E-17
7.202785E+03	1.106778E-15	2.002941E-17
7.212762E+03	1.115438E-15	2.018838E-17
7.222738E+03	1.124207E-15	2.034950E-17
7.232714E+03	1.132600E-15	2.050404E-17
7.242690E+03	1.140023E-15	2.064123E-17
7.252666E+03	1.145869E-15	2.075006E-17
7.262642E+03	1.149537E-15	2.081964E-17
7.272618E+03	1.150422E-15	2.083902E-17
7.282595E+03	1.148001E-15	2.079869E-17
7.292571E+03	1.141896E-15	2.069175E-17
7.302547E+03	1.131846E-15	2.051346E-17
7.312523E+03	1.117773E-15	2.026236E-17
7.322499E+03	1.099773E-15	1.994013E-17
7.332475E+03	1.078105E-15	1.955143E-17
7.342452E+03	1.053138E-15	1.910289E-17
7.352428E+03	1.025395E-15	1.860397E-17
7.362404E+03	9.954698E-16	1.806537E-17
7.372380E+03	9.639287E-16	1.749735E-17
7.382356E+03	9.314216E-16	1.691167E-17
7.392332E+03	8.984828E-16	1.631801E-17
7.402308E+03	8.656626E-16	1.572633E-17
7.412285E+03	8.334147E-16	1.514488E-17
7.422261E+03	8.020992E-16	1.458019E-17
7.432237E+03	7.720389E-16	1.403812E-17
7.442213E+03	7.434864E-16	1.352329E-17
7.452189E+03	7.166006E-16	1.303860E-17
7.462165E+03	6.915298E-16	1.258675E-17
7.472142E+03	6.683567E-16	1.216929E-17
7.482118E+03	6.471193E-16	1.178691E-17
7.492094E+03	6.278381E-16	1.144004E-17
7.502070E+03	6.105212E-16	1.112884E-17
7.512046E+03	5.951514E-16	1.085303E-17
7.522022E+03	5.817000E-16	1.061213E-17
7.531999E+03	5.701294E-16	1.040548E-17
7.541975E+03	5.603963E-16	1.023234E-17
7.551951E+03	5.524606E-16	1.009201E-17
7.561927E+03	5.462699E-16	9.983569E-18
7.571903E+03	5.417608E-16	9.905911E-18
7.581879E+03	5.388816E-16	9.858129E-18
7.591855E+03	5.375761E-16	9.839239E-18
7.601832E+03	5.377660E-16	9.847854E-18
7.611808E+03	5.393812E-16	9.882732E-18
7.621784E+03	5.423257E-16	9.942164E-18
7.631760E+03	5.464994E-16	1.002436E-17
7.641736E+03	5.518030E-16	1.012753E-17
7.651712E+03	5.580979E-16	1.024919E-17
7.661689E+03	5.652267E-16	1.038648E-17
7.671665E+03	5.730389E-16	1.053667E-17
7.681641E+03	5.813418E-16	1.069626E-17
7.691617E+03	5.899364E-16	1.086160E-17
7.701593E+03	5.986137E-16	1.102887E-17
7.711569E+03	6.071604E-16	1.119415E-17
7.721546E+03	6.153765E-16	1.135376E-17
7.731522E+03	6.230580E-16	1.150393E-17
7.741498E+03	6.300331E-16	1.164147E-17
