#wls	flux	fluxerr
1.596185E+03	1.527905E-16	5.049159E-18
1.636090E+03	1.637935E-16	5.406490E-18
1.675994E+03	1.753120E-16	5.779794E-18
1.715899E+03	1.872299E-16	6.165150E-18
1.755804E+03	1.994654E-16	6.559780E-18
1.795708E+03	2.117042E-16	6.953275E-18
1.835613E+03	2.235785E-16	7.333529E-18
1.875518E+03	2.345616E-16	7.683290E-18
1.915422E+03	2.439868E-16	7.980829E-18
1.955327E+03	2.512738E-16	8.207362E-18
1.995231E+03	2.560779E-16	8.351925E-18
2.035136E+03	2.585506E-16	8.419784E-18
2.075041E+03	2.598182E-16	8.447891E-18
2.114945E+03	2.617400E-16	8.496776E-18
2.154850E+03	2.661514E-16	8.625809E-18
2.194755E+03	2.738492E-16	8.860345E-18
2.234659E+03	2.840913E-16	9.175845E-18
2.274564E+03	2.951730E-16	9.516868E-18
2.314468E+03	3.053174E-16	9.826032E-18
2.354373E+03	3.133620E-16	1.006611E-17
2.394278E+03	3.186620E-16	1.021676E-17
2.434182E+03	3.211516E-16	1.027637E-17
2.474087E+03	3.211999E-16	1.025722E-17
2.513992E+03	3.192515E-16	1.017394E-17
2.553896E+03	3.158082E-16	1.004290E-17
2.593801E+03	3.114472E-16	9.882718E-18
2.633705E+03	3.065609E-16	9.706019E-18
2.673610E+03	3.015625E-16	9.525989E-18
2.713515E+03	2.968289E-16	9.354543E-18
2.753419E+03	2.925475E-16	9.197533E-18
2.793324E+03	2.889943E-16	9.063526E-18
2.833229E+03	2.862379E-16	8.954510E-18
2.873133E+03	2.844064E-16	8.874306E-18
2.913038E+03	2.835468E-16	8.824152E-18
2.952942E+03	2.836990E-16	8.805050E-18
2.992847E+03	2.848032E-16	8.814882E-18
3.002823E+03	2.852469E-16	8.822416E-18
3.012799E+03	2.857082E-16	8.830445E-18
3.022776E+03	2.862468E-16	8.840805E-18
3.032752E+03	2.868643E-16	8.853547E-18
3.042728E+03	2.875032E-16	8.866890E-18
3.052704E+03	2.882385E-16	8.883141E-18
3.062680E+03	2.890636E-16	8.902095E-18
3.072656E+03	2.899133E-16	8.921734E-18
3.082633E+03	2.908707E-16	8.944611E-18
3.092609E+03	2.918416E-16	8.967829E-18
3.102585E+03	2.929086E-16	8.993921E-18
3.112561E+03	2.939790E-16	9.020033E-18
3.122537E+03	2.951347E-16	9.048677E-18
3.132513E+03	2.963125E-16	9.077913E-18
3.142489E+03	2.975078E-16	9.107594E-18
3.152466E+03	2.987444E-16	9.138448E-18
3.162442E+03	3.000171E-16	9.170315E-18
3.172418E+03	3.013212E-16	9.203042E-18
3.182394E+03	3.026236E-16	9.235623E-18
3.192370E+03	3.039478E-16	9.268772E-18
3.202346E+03	3.052891E-16	9.302343E-18
3.212323E+03	3.066427E-16	9.336188E-18
3.222299E+03	3.080042E-16	9.370170E-18
3.232275E+03	3.093415E-16	9.403315E-18
3.242251E+03	3.107048E-16	9.437149E-18
3.252227E+03	3.120353E-16	9.469886E-18
3.262203E+03	3.133831E-16	9.503042E-18
3.272179E+03	3.146898E-16	9.534850E-18
3.282156E+03	3.160051E-16	9.566818E-18
3.292132E+03	3.172718E-16	9.597211E-18
3.302108E+03	3.185391E-16	9.627520E-18
3.312084E+03	3.197767E-16	9.656835E-18
3.322060E+03	3.210075E-16	9.685839E-18
3.332036E+03	3.221760E-16	9.712868E-18
3.342013E+03	3.233313E-16	9.739399E-18
3.351989E+03	3.244445E-16	9.764567E-18
3.361965E+03	3.255388E-16	9.789067E-18
3.371941E+03	3.265863E-16	9.812069E-18
3.381917E+03	3.276104E-16	9.834272E-18
3.391893E+03	3.285842E-16	9.854875E-18
3.401870E+03	3.295312E-16	9.874587E-18
3.411846E+03	3.304261E-16	9.892646E-18
3.421822E+03	3.312926E-16	9.909771E-18
3.431798E+03	3.321302E-16	9.925947E-18
3.441774E+03	3.329154E-16	9.940472E-18
3.451750E+03	3.336726E-16	9.954082E-18
3.461726E+03	3.344026E-16	9.966800E-18
3.471703E+03	3.351069E-16	9.978671E-18
3.481679E+03	3.357871E-16	9.989748E-18
3.491655E+03	3.364455E-16	1.000010E-17
3.501631E+03	3.370624E-16	1.000914E-17
3.511607E+03	3.376859E-16	1.001831E-17
3.521583E+03	3.382972E-16	1.002703E-17
3.531560E+03	3.389003E-16	1.003544E-17
3.541536E+03	3.395212E-16	1.004431E-17
3.551512E+03	3.401218E-16	1.005249E-17
3.561488E+03	3.407503E-16	1.006143E-17
3.571464E+03	3.413909E-16	1.007065E-17
3.581440E+03	3.420707E-16	1.008095E-17
3.591417E+03	3.427750E-16	1.009189E-17
3.601393E+03	3.435313E-16	1.010427E-17
3.611369E+03	3.443260E-16	1.011770E-17
3.621345E+03	3.451865E-16	1.013298E-17
3.631321E+03	3.461004E-16	1.014973E-17
3.641297E+03	3.470952E-16	1.016875E-17
3.651273E+03	3.481784E-16	1.019026E-17
3.661250E+03	3.493386E-16	1.021392E-17
3.671226E+03	3.506220E-16	1.024108E-17
3.681202E+03	3.519984E-16	1.027082E-17
3.691178E+03	3.534945E-16	1.030393E-17
3.701154E+03	3.551179E-16	1.034062E-17
3.711130E+03	3.568761E-16	1.038109E-17
3.721107E+03	3.587760E-16	1.042553E-17
3.731083E+03	3.608244E-16	1.047412E-17
3.741059E+03	3.630274E-16	1.052703E-17
3.751035E+03	3.654086E-16	1.058493E-17
3.761011E+03	3.679371E-16	1.064689E-17
3.770987E+03	3.706523E-16	1.071406E-17
3.780963E+03	3.735398E-16	1.078600E-17
3.790940E+03	3.766014E-16	1.086273E-17
3.800916E+03	3.798552E-16	1.094477E-17
3.810892E+03	3.832660E-16	1.103109E-17
3.820868E+03	3.868834E-16	1.112308E-17
3.830844E+03	3.906519E-16	1.121914E-17
3.840820E+03	3.946004E-16	1.132009E-17
3.850797E+03	3.987211E-16	1.142567E-17
3.860773E+03	4.029708E-16	1.153465E-17
3.870749E+03	4.073891E-16	1.164812E-17
3.880725E+03	4.119117E-16	1.176425E-17
3.890701E+03	4.165571E-16	1.188355E-17
3.900677E+03	4.213080E-16	1.200550E-17
3.910654E+03	4.261285E-16	1.212909E-17
3.920630E+03	4.309980E-16	1.225371E-17
3.930606E+03	4.359112E-16	1.237920E-17
3.940582E+03	4.408284E-16	1.250444E-17
3.950558E+03	4.457426E-16	1.262923E-17
3.960534E+03	4.505964E-16	1.275194E-17
3.970510E+03	4.554163E-16	1.287332E-17
3.980487E+03	4.601293E-16	1.299132E-17
3.990463E+03	4.647469E-16	1.310627E-17
4.000439E+03	4.692331E-16	1.321715E-17
4.010415E+03	4.735705E-16	1.332351E-17
4.020391E+03	4.777447E-16	1.342494E-17
4.030367E+03	4.817452E-16	1.352116E-17
4.040344E+03	4.855811E-16	1.361245E-17
4.050320E+03	4.892174E-16	1.369784E-17
4.060296E+03	4.926719E-16	1.377786E-17
4.070272E+03	4.959350E-16	1.385224E-17
4.080248E+03	4.990334E-16	1.392175E-17
4.090224E+03	5.019816E-16	1.398682E-17
4.100201E+03	5.047828E-16	1.404755E-17
4.110177E+03	5.074744E-16	1.410499E-17
4.120153E+03	5.100657E-16	1.415941E-17
4.130129E+03	5.125836E-16	1.421157E-17
4.140105E+03	5.150408E-16	1.426182E-17
4.150081E+03	5.174964E-16	1.431182E-17
4.160057E+03	5.199484E-16	1.436149E-17
4.170034E+03	5.224391E-16	1.441201E-17
4.180010E+03	5.249789E-16	1.446366E-17
4.189986E+03	5.275910E-16	1.451707E-17
4.199962E+03	5.303097E-16	1.457319E-17
4.209938E+03	5.331227E-16	1.463165E-17
4.219914E+03	5.360574E-16	1.469320E-17
4.229891E+03	5.391085E-16	1.475769E-17
4.239867E+03	5.422955E-16	1.482562E-17
4.249843E+03	5.456053E-16	1.489664E-17
4.259819E+03	5.490219E-16	1.497029E-17
4.269795E+03	5.525676E-16	1.504716E-17
4.279771E+03	5.562059E-16	1.512625E-17
4.289748E+03	5.599260E-16	1.520726E-17
4.299724E+03	5.637147E-16	1.528982E-17
4.309700E+03	5.675573E-16	1.537351E-17
4.319676E+03	5.714380E-16	1.545792E-17
4.329652E+03	5.753268E-16	1.554222E-17
4.339628E+03	5.792208E-16	1.562634E-17
4.349604E+03	5.830770E-16	1.570911E-17
4.359581E+03	5.868945E-16	1.579052E-17
4.369557E+03	5.906614E-16	1.587025E-17
4.379533E+03	5.943571E-16	1.594775E-17
4.389509E+03	5.979827E-16	1.602306E-17
4.399485E+03	6.015459E-16	1.609640E-17
4.409461E+03	6.050575E-16	1.616805E-17
4.419438E+03	6.085146E-16	1.623796E-17
4.429414E+03	6.119378E-16	1.630666E-17
4.439390E+03	6.153169E-16	1.637390E-17
4.449366E+03	6.186356E-16	1.643925E-17
4.459342E+03	6.219098E-16	1.650313E-17
4.469318E+03	6.250834E-16	1.656406E-17
4.479294E+03	6.281578E-16	1.662209E-17
4.489271E+03	6.311011E-16	1.667639E-17
4.499247E+03	6.338505E-16	1.672531E-17
4.509223E+03	6.363764E-16	1.676809E-17
4.519199E+03	6.386335E-16	1.680358E-17
4.529175E+03	6.405629E-16	1.683025E-17
4.539151E+03	6.421313E-16	1.684726E-17
4.549128E+03	6.432841E-16	1.685322E-17
4.559104E+03	6.439969E-16	1.684755E-17
4.569080E+03	6.442157E-16	1.682889E-17
4.579056E+03	6.439335E-16	1.679709E-17
4.589032E+03	6.431416E-16	1.675201E-17
4.599008E+03	6.418430E-16	1.669377E-17
4.608985E+03	6.400533E-16	1.662284E-17
4.618961E+03	6.377882E-16	1.653968E-17
4.628937E+03	6.350874E-16	1.644538E-17
4.638913E+03	6.320232E-16	1.634185E-17
4.648889E+03	6.286186E-16	1.622973E-17
4.658865E+03	6.249606E-16	1.611131E-17
4.668841E+03	6.211173E-16	1.598836E-17
4.678818E+03	6.171362E-16	1.586214E-17
4.688794E+03	6.131095E-16	1.573502E-17
4.698770E+03	6.091040E-16	1.560872E-17
4.708746E+03	6.051616E-16	1.548432E-17
4.718722E+03	6.013718E-16	1.536409E-17
4.728698E+03	5.977546E-16	1.524853E-17
4.738675E+03	5.943752E-16	1.513928E-17
4.748651E+03	5.912606E-16	1.503700E-17
4.758627E+03	5.884508E-16	1.494267E-17
4.768603E+03	5.859591E-16	1.485661E-17
4.778579E+03	5.838123E-16	1.477944E-17
4.788555E+03	5.820116E-16	1.471116E-17
4.798532E+03	5.805730E-16	1.465214E-17
4.808508E+03	5.794983E-16	1.460238E-17
4.818484E+03	5.787853E-16	1.456179E-17
4.828460E+03	5.784193E-16	1.452994E-17
4.838436E+03	5.784114E-16	1.450709E-17
4.848412E+03	5.787320E-16	1.449244E-17
4.858388E+03	5.793875E-16	1.448612E-17
4.868365E+03	5.803536E-16	1.448749E-17
4.878341E+03	5.816135E-16	1.449609E-17
4.888317E+03	5.831491E-16	1.451143E-17
4.898293E+03	5.849593E-16	1.453346E-17
4.908269E+03	5.869944E-16	1.456091E-17
4.918245E+03	5.892610E-16	1.459393E-17
4.928222E+03	5.917178E-16	1.463146E-17
4.938198E+03	5.943526E-16	1.467317E-17
4.948174E+03	5.971443E-16	1.471854E-17
4.958150E+03	6.000744E-16	1.476708E-17
4.968126E+03	6.031266E-16	1.481839E-17
4.978102E+03	6.062981E-16	1.487237E-17
4.988078E+03	6.095706E-16	1.492858E-17
4.998055E+03	6.129402E-16	1.498689E-17
5.008031E+03	6.164169E-16	1.504755E-17
5.018007E+03	6.199958E-16	1.511043E-17
5.027983E+03	6.236957E-16	1.517597E-17
5.037959E+03	6.275284E-16	1.524444E-17
5.047935E+03	6.315083E-16	1.531618E-17
5.057912E+03	6.356410E-16	1.539132E-17
5.067888E+03	6.399614E-16	1.547067E-17
5.077864E+03	6.444638E-16	1.555408E-17
5.087840E+03	6.491794E-16	1.564228E-17
5.097816E+03	6.540962E-16	1.573496E-17
5.107792E+03	6.592378E-16	1.583266E-17
5.117769E+03	6.645928E-16	1.593510E-17
5.127745E+03	6.701544E-16	1.604207E-17
5.137721E+03	6.759204E-16	1.615351E-17
5.147697E+03	6.818630E-16	1.626872E-17
5.157673E+03	6.879593E-16	1.638716E-17
5.167649E+03	6.941815E-16	1.650814E-17
5.177625E+03	7.004980E-16	1.663089E-17
5.187602E+03	7.068842E-16	1.675483E-17
5.197578E+03	7.132912E-16	1.687880E-17
5.207554E+03	7.196897E-16	1.700210E-17
5.217530E+03	7.260161E-16	1.712323E-17
5.227506E+03	7.322497E-16	1.724173E-17
5.237482E+03	7.383368E-16	1.735634E-17
5.247459E+03	7.442462E-16	1.746635E-17
5.257435E+03	7.499145E-16	1.757030E-17
5.267411E+03	7.553252E-16	1.766784E-17
5.277387E+03	7.604302E-16	1.775787E-17
5.287363E+03	7.651962E-16	1.783967E-17
5.297339E+03	7.695937E-16	1.791257E-17
5.307316E+03	7.736091E-16	1.797633E-17
5.317292E+03	7.771997E-16	1.802999E-17
5.327268E+03	7.803625E-16	1.807353E-17
5.337244E+03	7.830886E-16	1.810681E-17
5.347220E+03	7.853752E-16	1.812981E-17
5.357196E+03	7.872247E-16	1.814264E-17
5.367172E+03	7.886449E-16	1.814554E-17
5.377149E+03	7.896482E-16	1.813883E-17
5.387125E+03	7.902387E-16	1.812267E-17
5.397101E+03	7.904467E-16	1.809780E-17
5.407077E+03	7.902919E-16	1.806472E-17
5.417053E+03	7.897933E-16	1.802390E-17
5.427029E+03	7.889677E-16	1.797577E-17
5.437006E+03	7.878159E-16	1.792038E-17
5.446982E+03	7.863675E-16	1.785844E-17
5.456958E+03	7.845970E-16	1.778943E-17
5.466934E+03	7.825042E-16	1.771335E-17
5.476910E+03	7.800535E-16	1.762946E-17
5.486886E+03	7.772280E-16	1.753741E-17
5.496862E+03	7.739476E-16	1.743543E-17
5.506839E+03	7.701689E-16	1.732260E-17
5.516815E+03	7.658024E-16	1.719696E-17
5.526791E+03	7.608105E-16	1.705772E-17
5.536767E+03	7.551219E-16	1.690336E-17
5.546743E+03	7.487283E-16	1.673376E-17
5.556719E+03	7.416097E-16	1.654854E-17
5.566696E+03	7.337830E-16	1.634816E-17
5.576672E+03	7.252938E-16	1.613369E-17
5.586648E+03	7.162271E-16	1.590709E-17
5.596624E+03	7.066854E-16	1.567070E-17
5.606600E+03	6.967778E-16	1.542697E-17
5.616576E+03	6.866882E-16	1.517999E-17
5.626553E+03	6.765684E-16	1.493314E-17
5.636529E+03	6.666251E-16	1.469097E-17
5.646505E+03	6.570333E-16	1.445730E-17
5.656481E+03	6.480013E-16	1.423668E-17
5.666457E+03	6.397246E-16	1.403332E-17
5.676433E+03	6.323906E-16	1.385126E-17
5.686409E+03	6.261830E-16	1.369441E-17
5.696386E+03	6.212402E-16	1.356569E-17
5.706362E+03	6.177263E-16	1.346853E-17
5.716338E+03	6.157252E-16	1.340463E-17
5.726314E+03	6.153398E-16	1.337607E-17
5.736290E+03	6.166251E-16	1.338388E-17
5.746266E+03	6.196040E-16	1.342841E-17
5.756243E+03	6.242566E-16	1.350905E-17
5.766219E+03	6.305451E-16	1.362482E-17
5.776195E+03	6.383854E-16	1.377376E-17
5.786171E+03	6.476556E-16	1.395310E-17
5.796147E+03	6.581953E-16	1.415925E-17
5.806123E+03	6.697975E-16	1.438765E-17
5.816100E+03	6.822511E-16	1.463368E-17
5.826076E+03	6.952859E-16	1.489148E-17
5.836052E+03	7.086189E-16	1.515494E-17
5.846028E+03	7.219532E-16	1.541770E-17
5.856004E+03	7.349879E-16	1.567335E-17
5.865980E+03	7.474409E-16	1.591593E-17
5.875956E+03	7.590271E-16	1.613942E-17
5.885933E+03	7.694912E-16	1.633850E-17
5.895909E+03	7.786528E-16	1.650944E-17
5.905885E+03	7.863573E-16	1.664911E-17
5.915861E+03	7.924794E-16	1.675497E-17
5.925837E+03	7.969969E-16	1.682672E-17
5.935813E+03	7.999066E-16	1.686442E-17
5.945790E+03	8.012677E-16	1.686949E-17
5.955766E+03	8.011844E-16	1.684423E-17
5.965742E+03	7.997972E-16	1.679174E-17
5.975718E+03	7.972744E-16	1.671565E-17
5.985694E+03	7.938148E-16	1.662023E-17
5.995670E+03	7.896021E-16	1.650940E-17
6.005647E+03	7.848217E-16	1.638709E-17
6.015623E+03	7.796889E-16	1.625784E-17
6.025599E+03	7.743719E-16	1.612519E-17
6.035575E+03	7.690233E-16	1.599231E-17
6.045551E+03	7.638126E-16	1.586274E-17
6.055527E+03	7.588533E-16	1.573881E-17
6.065503E+03	7.542381E-16	1.562243E-17
6.075480E+03	7.500613E-16	1.551551E-17
6.085456E+03	7.463967E-16	1.541954E-17
6.095432E+03	7.432632E-16	1.533487E-17
6.105408E+03	7.406845E-16	1.526195E-17
6.115384E+03	7.386898E-16	1.520133E-17
6.125360E+03	7.372464E-16	1.515231E-17
6.135337E+03	7.363420E-16	1.511457E-17
6.145313E+03	7.359408E-16	1.508735E-17
6.155289E+03	7.359846E-16	1.506943E-17
6.165265E+03	7.364302E-16	1.505988E-17
6.175241E+03	7.372175E-16	1.505745E-17
6.185217E+03	7.382715E-16	1.506059E-17
6.195193E+03	7.395405E-16	1.506822E-17
6.205170E+03	7.409644E-16	1.507912E-17
6.215146E+03	7.424783E-16	1.509195E-17
6.225122E+03	7.440500E-16	1.510606E-17
6.235098E+03	7.456369E-16	1.512059E-17
6.245074E+03	7.472470E-16	1.513570E-17
6.255050E+03	7.488463E-16	1.515070E-17
6.265027E+03	7.504895E-16	1.516671E-17
6.275003E+03	7.521893E-16	1.518398E-17
6.284979E+03	7.539983E-16	1.520358E-17
6.294955E+03	7.560062E-16	1.522731E-17
6.304931E+03	7.582638E-16	1.525618E-17
6.314907E+03	7.608511E-16	1.529179E-17
6.324884E+03	7.638718E-16	1.533620E-17
6.334860E+03	7.673752E-16	1.539039E-17
6.344836E+03	7.714492E-16	1.545609E-17
6.354812E+03	7.761167E-16	1.553373E-17
6.364788E+03	7.814193E-16	1.562411E-17
6.374764E+03	7.873519E-16	1.572711E-17
6.384740E+03	7.939262E-16	1.584292E-17
6.394717E+03	8.010937E-16	1.597055E-17
6.404693E+03	8.087996E-16	1.610890E-17
6.414669E+03	8.169726E-16	1.625651E-17
6.424645E+03	8.255424E-16	1.641199E-17
6.434621E+03	8.343906E-16	1.657296E-17
6.444597E+03	8.434493E-16	1.673808E-17
6.454574E+03	8.526095E-16	1.690520E-17
6.464550E+03	8.617918E-16	1.707273E-17
6.474526E+03	8.708907E-16	1.723863E-17
6.484502E+03	8.798309E-16	1.740140E-17
6.494478E+03	8.885075E-16	1.755900E-17
6.504454E+03	8.968459E-16	1.770998E-17
6.514431E+03	9.047652E-16	1.785277E-17
6.524407E+03	9.122083E-16	1.798626E-17
6.534383E+03	9.191420E-16	1.810982E-17
6.544359E+03	9.255222E-16	1.822260E-17
6.554335E+03	9.313387E-16	1.832443E-17
6.564311E+03	9.365168E-16	1.841387E-17
6.574287E+03	9.409760E-16	1.848935E-17
6.584264E+03	9.446359E-16	1.854933E-17
6.594240E+03	9.473677E-16	1.859131E-17
6.604216E+03	9.490547E-16	1.861302E-17
6.614192E+03	9.495900E-16	1.861242E-17
6.624168E+03	9.488604E-16	1.858731E-17
6.634144E+03	9.467430E-16	1.853532E-17
6.644121E+03	9.431707E-16	1.845520E-17
6.654097E+03	9.380819E-16	1.834576E-17
6.664073E+03	9.314466E-16	1.820646E-17
6.674049E+03	9.232513E-16	1.803707E-17
6.684025E+03	9.135684E-16	1.783905E-17
6.694001E+03	9.024590E-16	1.761361E-17
6.703977E+03	8.900524E-16	1.736331E-17
6.713954E+03	8.764647E-16	1.709043E-17
6.723930E+03	8.619036E-16	1.679903E-17
6.733906E+03	8.465694E-16	1.649304E-17
6.743882E+03	8.306515E-16	1.617614E-17
6.753858E+03	8.144244E-16	1.585367E-17
6.763834E+03	7.980948E-16	1.552965E-17
6.773811E+03	7.818981E-16	1.520864E-17
6.783787E+03	7.660769E-16	1.489535E-17
6.793763E+03	7.508487E-16	1.459399E-17
6.803739E+03	7.364165E-16	1.430845E-17
6.813715E+03	7.229523E-16	1.404208E-17
6.823691E+03	7.106348E-16	1.379829E-17
6.833668E+03	6.996206E-16	1.358010E-17
6.843644E+03	6.900068E-16	1.338936E-17
6.853620E+03	6.819057E-16	1.322821E-17
6.863596E+03	6.753821E-16	1.309789E-17
6.873572E+03	6.705148E-16	1.299987E-17
6.883548E+03	6.673231E-16	1.293451E-17
6.893524E+03	6.658156E-16	1.290194E-17
6.903501E+03	6.659784E-16	1.290187E-17
6.913477E+03	6.677620E-16	1.293330E-17
6.923453E+03	6.711296E-16	1.299551E-17
6.933429E+03	6.759855E-16	1.308662E-17
6.943405E+03	6.822230E-16	1.320454E-17
6.953381E+03	6.897011E-16	1.334654E-17
6.963358E+03	6.982957E-16	1.351020E-17
6.973334E+03	7.078156E-16	1.369180E-17
6.983310E+03	7.181057E-16	1.388835E-17
6.993286E+03	7.289502E-16	1.409566E-17
7.003262E+03	7.401673E-16	1.431022E-17
7.013238E+03	7.515647E-16	1.452832E-17
7.023215E+03	7.629573E-16	1.474637E-17
7.033191E+03	7.741607E-16	1.496082E-17
7.043167E+03	7.850519E-16	1.516930E-17
7.053143E+03	7.954617E-16	1.536855E-17
7.063119E+03	8.053340E-16	1.555748E-17
7.073095E+03	8.145703E-16	1.573421E-17
7.083071E+03	8.231292E-16	1.589794E-17
7.093048E+03	8.310121E-16	1.604871E-17
7.103024E+03	8.382134E-16	1.618641E-17
7.113000E+03	8.447608E-16	1.631159E-17
7.122976E+03	8.507102E-16	1.642533E-17
7.132952E+03	8.560918E-16	1.652822E-17
7.142928E+03	8.609509E-16	1.662114E-17
7.152905E+03	8.653251E-16	1.670481E-17
7.162881E+03	8.692232E-16	1.677942E-17
7.172857E+03	8.726846E-16	1.684573E-17
7.182833E+03	8.756798E-16	1.690316E-17
7.192809E+03	8.781565E-16	1.695072E-17
7.202785E+03	8.800718E-16	1.698758E-17
7.212762E+03	8.813294E-16	1.701187E-17
7.222738E+03	8.818473E-16	1.702203E-17
7.232714E+03	8.814974E-16	1.701557E-17
7.242690E+03	8.801610E-16	1.699021E-17
7.252666E+03	8.777353E-16	1.694396E-17
7.262642E+03	8.740921E-16	1.687435E-17
7.272618E+03	8.691347E-16	1.677950E-17
7.282595E+03	8.627884E-16	1.665797E-17
7.292571E+03	8.549913E-16	1.650855E-17
7.302547E+03	8.457621E-16	1.633161E-17
7.312523E+03	8.350920E-16	1.612696E-17
7.322499E+03	8.230718E-16	1.589634E-17
7.332475E+03	8.097502E-16	1.564068E-17
7.342452E+03	7.953003E-16	1.536333E-17
7.352428E+03	7.798318E-16	1.506637E-17
7.362404E+03	7.635646E-16	1.475405E-17
7.372380E+03	7.466459E-16	1.442920E-17
7.382356E+03	7.293026E-16	1.409619E-17
7.392332E+03	7.117203E-16	1.375859E-17
7.402308E+03	6.941070E-16	1.342043E-17
7.412285E+03	6.766217E-16	1.308477E-17
7.422261E+03	6.594621E-16	1.275542E-17
7.432237E+03	6.427708E-16	1.243513E-17
7.442213E+03	6.266855E-16	1.212658E-17
7.452189E+03	6.113255E-16	1.183206E-17
7.462165E+03	5.967911E-16	1.155353E-17
7.472142E+03	5.831652E-16	1.129259E-17
7.482118E+03	5.705141E-16	1.105053E-17
7.492094E+03	5.588885E-16	1.082834E-17
7.502070E+03	5.483258E-16	1.062677E-17
7.512046E+03	5.388512E-16	1.044630E-17
7.522022E+03	5.304690E-16	1.028705E-17
7.531999E+03	5.232050E-16	1.014952E-17
7.541975E+03	5.170362E-16	1.003329E-17
7.551951E+03	5.119727E-16	9.938569E-18
7.561927E+03	5.079786E-16	9.864691E-18
7.571903E+03	5.050421E-16	9.811441E-18
7.581879E+03	5.031357E-16	9.778314E-18
7.591855E+03	5.022270E-16	9.764705E-18
7.601832E+03	5.022691E-16	9.769725E-18
7.611808E+03	5.032384E-16	9.792945E-18
7.621784E+03	5.050683E-16	9.833095E-18
7.631760E+03	5.077154E-16	9.889358E-18
7.641736E+03	5.111220E-16	9.960636E-18
7.651712E+03	5.152250E-16	1.004573E-17
7.661689E+03	5.199470E-16	1.014316E-17
7.671665E+03	5.252367E-16	1.025195E-17
7.681641E+03	5.309991E-16	1.037027E-17
7.691617E+03	5.371675E-16	1.049685E-17
7.701593E+03	5.436648E-16	1.063020E-17
7.711569E+03	5.504038E-16	1.076863E-17
7.721546E+03	5.573322E-16	1.091115E-17
7.731522E+03	5.643601E-16	1.105601E-17
7.741498E+03	5.714357E-16	1.120222E-17
