#wls	flux	fluxerr
1.596185E+03	3.552414E-17	1.478235E-18
1.636090E+03	3.708968E-17	1.541459E-18
1.675994E+03	3.860916E-17	1.602553E-18
1.715899E+03	4.007000E-17	1.660997E-18
1.755804E+03	4.144063E-17	1.715484E-18
1.795708E+03	4.267790E-17	1.764240E-18
1.835613E+03	4.373575E-17	1.805378E-18
1.875518E+03	4.453668E-17	1.835730E-18
1.915422E+03	4.503190E-17	1.853329E-18
1.955327E+03	4.517233E-17	1.856212E-18
1.995231E+03	4.494179E-17	1.843781E-18
2.035136E+03	4.445399E-17	1.820765E-18
2.075041E+03	4.393549E-17	1.796483E-18
2.114945E+03	4.373590E-17	1.785212E-18
2.154850E+03	4.416745E-17	1.799606E-18
2.194755E+03	4.536826E-17	1.845138E-18
2.234659E+03	4.723848E-17	1.917576E-18
2.274564E+03	4.953384E-17	2.006856E-18
2.314468E+03	5.198224E-17	2.101860E-18
2.354373E+03	5.435759E-17	2.193411E-18
2.394278E+03	5.655428E-17	2.277258E-18
2.434182E+03	5.850770E-17	2.350836E-18
2.474087E+03	6.021644E-17	2.414136E-18
2.513992E+03	6.168303E-17	2.467311E-18
2.553896E+03	6.293183E-17	2.511388E-18
2.593801E+03	6.400237E-17	2.547992E-18
2.633705E+03	6.491392E-17	2.577928E-18
2.673610E+03	6.569541E-17	2.602380E-18
2.713515E+03	6.638532E-17	2.622901E-18
2.753419E+03	6.699816E-17	2.640083E-18
2.793324E+03	6.756909E-17	2.655325E-18
2.833229E+03	6.810889E-17	2.669057E-18
2.873133E+03	6.863808E-17	2.682084E-18
2.913038E+03	6.917583E-17	2.695150E-18
2.952942E+03	6.975174E-17	2.709396E-18
2.992847E+03	7.038333E-17	2.725480E-18
3.002823E+03	7.054427E-17	2.729566E-18
3.012799E+03	7.070920E-17	2.733785E-18
3.022776E+03	7.089013E-17	2.738600E-18
3.032752E+03	7.106502E-17	2.743159E-18
3.042728E+03	7.124691E-17	2.747965E-18
3.052704E+03	7.145204E-17	2.753644E-18
3.062680E+03	7.165622E-17	2.759262E-18
3.072656E+03	7.188249E-17	2.765705E-18
3.082633E+03	7.210657E-17	2.772036E-18
3.092609E+03	7.235172E-17	2.779151E-18
3.102585E+03	7.260581E-17	2.786581E-18
3.112561E+03	7.285654E-17	2.793854E-18
3.122537E+03	7.312748E-17	2.801872E-18
3.132513E+03	7.339463E-17	2.809715E-18
3.142489E+03	7.368171E-17	2.818290E-18
3.152466E+03	7.397677E-17	2.827139E-18
3.162442E+03	7.426754E-17	2.835792E-18
3.172418E+03	7.457828E-17	2.845174E-18
3.182394E+03	7.489693E-17	2.854825E-18
3.192370E+03	7.521131E-17	2.864279E-18
3.202346E+03	7.554605E-17	2.874473E-18
3.212323E+03	7.588894E-17	2.884941E-18
3.222299E+03	7.624030E-17	2.895694E-18
3.232275E+03	7.658785E-17	2.906265E-18
3.242251E+03	7.695662E-17	2.917604E-18
3.252227E+03	7.733445E-17	2.929247E-18
3.262203E+03	7.772167E-17	2.941205E-18
3.272179E+03	7.811853E-17	2.953487E-18
3.282156E+03	7.852540E-17	2.966105E-18
3.292132E+03	7.894263E-17	2.979072E-18
3.302108E+03	7.935763E-17	2.991911E-18
3.312084E+03	7.979651E-17	3.005606E-18
3.322060E+03	8.024679E-17	3.019684E-18
3.332036E+03	8.070892E-17	3.034162E-18
3.342013E+03	8.118339E-17	3.049055E-18
3.351989E+03	8.167047E-17	3.064372E-18
3.361965E+03	8.217079E-17	3.080135E-18
3.371941E+03	8.268472E-17	3.096356E-18
3.381917E+03	8.321273E-17	3.113052E-18
3.391893E+03	8.375535E-17	3.130240E-18
3.401870E+03	8.431308E-17	3.147936E-18
3.411846E+03	8.488642E-17	3.166157E-18
3.421822E+03	8.547589E-17	3.184921E-18
3.431798E+03	8.609579E-17	3.204758E-18
3.441774E+03	8.671927E-17	3.224666E-18
3.451750E+03	8.736048E-17	3.245169E-18
3.461726E+03	8.802009E-17	3.266290E-18
3.471703E+03	8.869862E-17	3.288045E-18
3.481679E+03	8.939664E-17	3.310454E-18
3.491655E+03	9.011483E-17	3.333538E-18
3.501631E+03	9.085362E-17	3.357311E-18
3.511607E+03	9.162835E-17	3.382337E-18
3.521583E+03	9.241062E-17	3.407563E-18
3.531560E+03	9.321541E-17	3.433539E-18
3.541536E+03	9.404337E-17	3.460288E-18
3.551512E+03	9.489517E-17	3.487829E-18
3.561488E+03	9.578657E-17	3.516738E-18
3.571464E+03	9.668809E-17	3.545930E-18
3.581440E+03	9.761536E-17	3.575974E-18
3.591417E+03	9.856904E-17	3.606891E-18
3.601393E+03	9.956554E-17	3.639278E-18
3.611369E+03	1.005742E-16	3.672007E-18
3.621345E+03	1.016112E-16	3.705670E-18
3.631321E+03	1.026933E-16	3.740874E-18
3.641297E+03	1.037892E-16	3.776467E-18
3.651273E+03	1.049153E-16	3.813051E-18
3.661250E+03	1.060725E-16	3.850646E-18
3.671226E+03	1.072780E-16	3.889879E-18
3.681202E+03	1.084990E-16	3.929554E-18
3.691178E+03	1.097529E-16	3.970293E-18
3.701154E+03	1.110575E-16	4.012736E-18
3.711130E+03	1.123790E-16	4.055658E-18
3.721107E+03	1.137350E-16	4.099689E-18
3.731083E+03	1.151440E-16	4.145490E-18
3.741059E+03	1.165708E-16	4.191790E-18
3.751035E+03	1.180337E-16	4.239240E-18
3.761011E+03	1.195518E-16	4.288520E-18
3.770987E+03	1.210883E-16	4.338308E-18
3.780963E+03	1.226622E-16	4.389276E-18
3.790940E+03	1.242931E-16	4.442119E-18
3.800916E+03	1.259430E-16	4.495472E-18
3.810892E+03	1.276311E-16	4.550015E-18
3.820868E+03	1.293776E-16	4.606468E-18
3.830844E+03	1.311430E-16	4.663409E-18
3.840820E+03	1.329470E-16	4.721542E-18
3.850797E+03	1.348105E-16	4.781595E-18
3.860773E+03	1.366920E-16	4.842096E-18
3.870749E+03	1.386121E-16	4.903764E-18
3.880725E+03	1.405921E-16	4.967347E-18
3.890701E+03	1.425887E-16	5.031310E-18
3.900677E+03	1.446229E-16	5.096386E-18
3.910654E+03	1.467166E-16	5.163348E-18
3.920630E+03	1.488247E-16	5.230590E-18
3.930606E+03	1.509685E-16	5.298863E-18
3.940582E+03	1.531707E-16	5.368960E-18
3.950558E+03	1.553838E-16	5.439202E-18
3.960534E+03	1.576299E-16	5.510359E-18
3.970510E+03	1.599321E-16	5.583241E-18
3.980487E+03	1.622407E-16	5.656095E-18
3.990463E+03	1.645782E-16	5.729710E-18
4.000439E+03	1.669686E-16	5.804911E-18
4.010415E+03	1.693595E-16	5.879871E-18
4.020391E+03	1.717740E-16	5.955392E-18
4.030367E+03	1.742102E-16	6.031400E-18
4.040344E+03	1.766927E-16	6.108744E-18
4.050320E+03	1.791658E-16	6.185492E-18
4.060296E+03	1.816534E-16	6.262470E-18
4.070272E+03	1.841529E-16	6.339582E-18
4.080248E+03	1.866898E-16	6.417706E-18
4.090224E+03	1.892048E-16	6.494797E-18
4.100201E+03	1.917229E-16	6.571713E-18
4.110177E+03	1.942407E-16	6.648341E-18
4.120153E+03	1.967549E-16	6.724563E-18
4.130129E+03	1.992922E-16	6.801289E-18
4.140105E+03	2.017889E-16	6.876349E-18
4.150081E+03	2.042714E-16	6.950639E-18
4.160057E+03	2.067356E-16	7.024029E-18
4.170034E+03	2.091778E-16	7.096393E-18
4.180010E+03	2.115942E-16	7.167601E-18
4.189986E+03	2.139807E-16	7.237520E-18
4.199962E+03	2.163659E-16	7.307121E-18
4.209938E+03	2.186813E-16	7.374092E-18
4.219914E+03	2.209551E-16	7.439391E-18
4.229891E+03	2.231834E-16	7.502895E-18
4.239867E+03	2.253625E-16	7.564487E-18
4.249843E+03	2.274888E-16	7.624048E-18
4.259819E+03	2.295586E-16	7.681471E-18
4.269795E+03	2.315686E-16	7.736646E-18
4.279771E+03	2.335156E-16	7.789478E-18
4.289748E+03	2.353966E-16	7.839877E-18
4.299724E+03	2.372087E-16	7.887755E-18
4.309700E+03	2.389495E-16	7.933044E-18
4.319676E+03	2.405807E-16	7.974485E-18
4.329652E+03	2.421718E-16	8.014396E-18
4.339628E+03	2.436853E-16	8.051545E-18
4.349604E+03	2.451198E-16	8.085897E-18
4.359581E+03	2.464740E-16	8.117418E-18
4.369557E+03	2.477467E-16	8.146089E-18
4.379533E+03	2.489002E-16	8.170679E-18
4.389509E+03	2.500071E-16	8.193589E-18
4.399485E+03	2.510299E-16	8.213599E-18
4.409461E+03	2.519676E-16	8.230694E-18
4.419438E+03	2.527825E-16	8.243652E-18
4.429414E+03	2.535490E-16	8.254916E-18
4.439390E+03	2.542295E-16	8.263279E-18
4.449366E+03	2.547871E-16	8.267548E-18
4.459342E+03	2.552974E-16	8.270198E-18
4.469318E+03	2.557239E-16	8.270052E-18
4.479294E+03	2.560300E-16	8.265948E-18
4.489271E+03	2.562928E-16	8.260384E-18
4.499247E+03	2.564388E-16	8.251006E-18
4.509223E+03	2.565454E-16	8.240320E-18
4.519199E+03	2.565398E-16	8.225994E-18
4.529175E+03	2.564999E-16	8.210547E-18
4.539151E+03	2.563534E-16	8.191670E-18
4.549128E+03	2.561785E-16	8.171875E-18
4.559104E+03	2.559033E-16	8.148879E-18
4.569080E+03	2.555689E-16	8.124007E-18
4.579056E+03	2.552162E-16	8.098565E-18
4.589032E+03	2.547740E-16	8.070302E-18
4.599008E+03	2.542836E-16	8.040537E-18
4.608985E+03	2.537858E-16	8.010569E-18
4.618961E+03	2.532103E-16	7.978183E-18
4.628937E+03	2.525981E-16	7.944685E-18
4.638913E+03	2.519531E-16	7.910198E-18
4.648889E+03	2.512792E-16	7.874857E-18
4.658865E+03	2.506167E-16	7.839925E-18
4.668841E+03	2.498963E-16	7.803237E-18
4.678818E+03	2.491585E-16	7.766063E-18
4.688794E+03	2.484068E-16	7.728523E-18
4.698770E+03	2.476449E-16	7.690726E-18
4.708746E+03	2.468763E-16	7.652788E-18
4.718722E+03	2.461044E-16	7.614813E-18
4.728698E+03	2.453324E-16	7.576905E-18
4.738675E+03	2.445635E-16	7.539161E-18
4.748651E+03	2.437656E-16	7.500593E-18
4.758627E+03	2.430122E-16	7.463464E-18
4.768603E+03	2.422708E-16	7.426769E-18
4.778579E+03	2.415438E-16	7.390585E-18
4.788555E+03	2.408339E-16	7.354990E-18
4.798532E+03	2.401088E-16	7.318996E-18
4.808508E+03	2.394402E-16	7.284787E-18
4.818484E+03	2.387953E-16	7.251363E-18
4.828460E+03	2.381418E-16	7.217735E-18
4.838436E+03	2.375502E-16	7.186042E-18
4.848412E+03	2.369878E-16	7.155287E-18
4.858388E+03	2.364220E-16	7.124479E-18
4.868365E+03	2.359225E-16	7.095718E-18
4.878341E+03	2.354223E-16	7.066986E-18
4.888317E+03	2.349905E-16	7.040349E-18
4.898293E+03	2.345604E-16	7.013802E-18
4.908269E+03	2.342003E-16	6.989385E-18
4.918245E+03	2.338435E-16	6.965101E-18
4.928222E+03	2.335243E-16	6.941966E-18
4.938198E+03	2.332765E-16	6.920981E-18
4.948174E+03	2.330336E-16	6.900163E-18
4.958150E+03	2.328292E-16	6.880505E-18
4.968126E+03	2.326634E-16	6.862004E-18
4.978102E+03	2.325360E-16	6.844650E-18
4.988078E+03	2.324803E-16	6.829412E-18
4.998055E+03	2.324292E-16	6.814315E-18
5.008031E+03	2.324158E-16	6.800322E-18
5.018007E+03	2.324393E-16	6.787411E-18
5.027983E+03	2.324992E-16	6.775557E-18
5.037959E+03	2.325949E-16	6.764737E-18
5.047935E+03	2.327252E-16	6.754914E-18
5.057912E+03	2.328893E-16	6.746055E-18
5.067888E+03	2.330861E-16	6.738129E-18
5.077864E+03	2.333143E-16	6.731091E-18
5.087840E+03	2.335395E-16	6.723945E-18
5.097816E+03	2.338268E-16	6.718565E-18
5.107792E+03	2.341414E-16	6.713941E-18
5.117769E+03	2.344817E-16	6.710027E-18
5.127745E+03	2.348128E-16	6.705818E-18
5.137721E+03	2.351995E-16	6.703170E-18
5.147697E+03	2.356068E-16	6.701073E-18
5.157673E+03	2.359991E-16	6.698518E-18
5.167649E+03	2.364415E-16	6.697353E-18
5.177625E+03	2.368650E-16	6.695617E-18
5.187602E+03	2.373345E-16	6.695149E-18
5.197578E+03	2.377808E-16	6.693990E-18
5.207554E+03	2.382690E-16	6.693978E-18
5.217530E+03	2.387293E-16	6.693152E-18
5.227506E+03	2.392273E-16	6.693349E-18
5.237482E+03	2.396931E-16	6.692611E-18
5.247459E+03	2.401581E-16	6.691828E-18
5.257435E+03	2.406543E-16	6.691885E-18
5.267411E+03	2.411114E-16	6.690829E-18
5.277387E+03	2.415614E-16	6.689554E-18
5.287363E+03	2.420021E-16	6.688006E-18
5.297339E+03	2.424316E-16	6.686130E-18
5.307316E+03	2.428480E-16	6.683879E-18
5.317292E+03	2.432837E-16	6.682152E-18
5.327268E+03	2.436685E-16	6.679016E-18
5.337244E+03	2.440350E-16	6.675378E-18
5.347220E+03	2.443819E-16	6.671203E-18
5.357196E+03	2.447076E-16	6.666460E-18
5.367172E+03	2.450113E-16	6.661124E-18
5.377149E+03	2.452573E-16	6.654236E-18
5.387125E+03	2.455139E-16	6.647659E-18
5.397101E+03	2.457459E-16	6.640438E-18
5.407077E+03	2.459529E-16	6.632572E-18
5.417053E+03	2.461347E-16	6.624056E-18
5.427029E+03	2.462911E-16	6.614896E-18
5.437006E+03	2.463874E-16	6.604167E-18
5.446982E+03	2.464934E-16	6.593746E-18
5.456958E+03	2.465747E-16	6.582715E-18
5.466934E+03	2.465970E-16	6.570170E-18
5.476910E+03	2.466303E-16	6.557977E-18
5.486886E+03	2.466055E-16	6.544308E-18
5.496862E+03	2.465925E-16	6.531021E-18
5.506839E+03	2.465221E-16	6.516285E-18
5.516815E+03	2.464640E-16	6.501949E-18
5.526791E+03	2.463493E-16	6.486196E-18
5.536767E+03	2.462478E-16	6.470868E-18
5.546743E+03	2.460911E-16	6.454169E-18
5.556719E+03	2.459146E-16	6.437033E-18
5.566696E+03	2.457537E-16	6.420391E-18
5.576672E+03	2.455406E-16	6.402470E-18
5.586648E+03	2.453111E-16	6.384209E-18
5.596624E+03	2.451010E-16	6.366542E-18
5.606600E+03	2.448430E-16	6.347720E-18
5.616576E+03	2.445732E-16	6.328685E-18
5.626553E+03	2.442935E-16	6.309486E-18
5.636529E+03	2.440057E-16	6.290170E-18
5.646505E+03	2.437118E-16	6.270793E-18
5.656481E+03	2.434137E-16	6.251405E-18
5.666457E+03	2.431138E-16	6.232064E-18
5.676433E+03	2.428141E-16	6.212822E-18
5.686409E+03	2.425168E-16	6.193737E-18
5.696386E+03	2.422242E-16	6.174868E-18
5.706362E+03	2.419385E-16	6.156267E-18
5.716338E+03	2.416618E-16	6.137991E-18
5.726314E+03	2.413966E-16	6.120099E-18
5.736290E+03	2.411449E-16	6.102640E-18
5.746266E+03	2.409090E-16	6.085671E-18
5.756243E+03	2.406909E-16	6.069242E-18
5.766219E+03	2.404591E-16	6.052556E-18
5.776195E+03	2.402831E-16	6.037362E-18
5.786171E+03	2.401309E-16	6.022853E-18
5.796147E+03	2.399711E-16	6.008234E-18
5.806123E+03	2.398725E-16	5.995232E-18
5.816100E+03	2.398035E-16	5.983046E-18
5.826076E+03	2.397319E-16	5.970877E-18
5.836052E+03	2.397265E-16	5.960432E-18
5.846028E+03	2.397219E-16	5.950078E-18
5.856004E+03	2.397863E-16	5.941509E-18
5.865980E+03	2.398540E-16	5.933093E-18
5.875956E+03	2.399933E-16	5.926515E-18
5.885933E+03	2.401382E-16	5.920140E-18
5.895909E+03	2.403569E-16	5.915646E-18
5.905885E+03	2.405829E-16	5.911393E-18
5.915861E+03	2.408845E-16	5.909054E-18
5.925837E+03	2.411949E-16	5.906989E-18
5.935813E+03	2.415483E-16	5.906032E-18
5.945790E+03	2.419791E-16	5.907020E-18
5.955766E+03	2.424200E-16	5.908303E-18
5.965742E+03	2.429049E-16	5.910711E-18
5.975718E+03	2.434342E-16	5.914244E-18
5.985694E+03	2.440417E-16	5.919724E-18
5.995670E+03	2.446594E-16	5.925496E-18
6.005647E+03	2.453209E-16	5.932371E-18
6.015623E+03	2.460261E-16	5.940343E-18
6.025599E+03	2.467743E-16	5.949397E-18
6.035575E+03	2.475650E-16	5.959516E-18
6.045551E+03	2.483974E-16	5.970678E-18
6.055527E+03	2.493055E-16	5.983700E-18
6.065503E+03	2.502188E-16	5.996882E-18
6.075480E+03	2.511708E-16	6.011031E-18
6.085456E+03	2.521602E-16	6.026115E-18
6.095432E+03	2.531855E-16	6.042099E-18
6.105408E+03	2.542098E-16	6.058098E-18
6.115384E+03	2.553021E-16	6.075762E-18
6.125360E+03	2.564253E-16	6.094202E-18
6.135337E+03	2.575771E-16	6.113367E-18
6.145313E+03	2.587556E-16	6.133210E-18
6.155289E+03	2.599582E-16	6.153674E-18
6.165265E+03	2.611825E-16	6.174700E-18
6.175241E+03	2.624258E-16	6.196230E-18
6.185217E+03	2.636485E-16	6.217328E-18
6.195193E+03	2.649211E-16	6.239662E-18
6.205170E+03	2.662038E-16	6.262298E-18
6.215146E+03	2.674933E-16	6.285159E-18
6.225122E+03	2.687487E-16	6.307288E-18
6.235098E+03	2.700414E-16	6.330367E-18
6.245074E+03	2.713302E-16	6.353435E-18
6.255050E+03	2.725734E-16	6.375519E-18
6.265027E+03	2.738431E-16	6.398311E-18
6.275003E+03	2.750588E-16	6.419935E-18
6.284979E+03	2.762934E-16	6.442100E-18
6.294955E+03	2.775043E-16	6.463819E-18
6.304931E+03	2.786484E-16	6.484091E-18
6.314907E+03	2.797993E-16	6.504640E-18
6.324884E+03	2.808746E-16	6.523555E-18
6.334860E+03	2.819487E-16	6.542571E-18
6.344836E+03	2.829384E-16	6.559766E-18
6.354812E+03	2.839188E-16	6.576888E-18
6.364788E+03	2.848065E-16	6.592012E-18
6.374764E+03	2.856370E-16	6.605970E-18
6.384740E+03	2.864469E-16	6.619612E-18
6.394717E+03	2.871521E-16	6.631004E-18
6.404693E+03	2.878295E-16	6.641932E-18
6.414669E+03	2.883953E-16	6.650465E-18
6.424645E+03	2.888865E-16	6.657468E-18
6.434621E+03	2.893410E-16	6.663818E-18
6.444597E+03	2.896748E-16	6.667592E-18
6.454574E+03	2.899263E-16	6.669676E-18
6.464550E+03	2.900934E-16	6.670033E-18
6.474526E+03	2.902150E-16	6.669560E-18
6.484502E+03	2.902085E-16	6.666366E-18
6.494478E+03	2.901134E-16	6.661363E-18
6.504454E+03	2.899289E-16	6.654538E-18
6.514431E+03	2.896952E-16	6.646812E-18
6.524407E+03	2.893312E-16	6.636319E-18
6.534383E+03	2.888776E-16	6.623994E-18
6.544359E+03	2.883349E-16	6.609845E-18
6.554335E+03	2.877041E-16	6.593892E-18
6.564311E+03	2.869865E-16	6.576158E-18
6.574287E+03	2.861834E-16	6.556676E-18
6.584264E+03	2.852971E-16	6.535488E-18
6.594240E+03	2.843294E-16	6.512634E-18
6.604216E+03	2.833228E-16	6.489084E-18
6.614192E+03	2.822003E-16	6.463066E-18
6.624168E+03	2.810049E-16	6.435561E-18
6.634144E+03	2.797398E-16	6.406639E-18
6.644121E+03	2.784086E-16	6.376372E-18
6.654097E+03	2.769759E-16	6.343948E-18
6.664073E+03	2.755234E-16	6.311232E-18
6.674049E+03	2.740163E-16	6.277418E-18
6.684025E+03	2.724584E-16	6.242589E-18
6.694001E+03	2.708540E-16	6.206836E-18
6.703977E+03	2.692073E-16	6.170250E-18
6.713954E+03	2.675225E-16	6.132920E-18
6.723930E+03	2.658039E-16	6.094943E-18
6.733906E+03	2.640559E-16	6.056407E-18
6.743882E+03	2.622457E-16	6.016557E-18
6.753858E+03	2.604517E-16	5.977186E-18
6.763834E+03	2.586409E-16	5.937531E-18
6.773811E+03	2.568172E-16	5.897677E-18
6.783787E+03	2.549850E-16	5.857716E-18
6.793763E+03	2.531123E-16	5.816908E-18
6.803739E+03	2.512743E-16	5.776981E-18
6.813715E+03	2.494391E-16	5.737191E-18
6.823691E+03	2.476100E-16	5.697612E-18
6.833668E+03	2.457557E-16	5.657520E-18
6.843644E+03	2.439491E-16	5.618589E-18
6.853620E+03	2.421585E-16	5.580081E-18
6.863596E+03	2.403527E-16	5.541278E-18
6.873572E+03	2.386027E-16	5.503810E-18
6.883548E+03	2.368769E-16	5.466949E-18
6.893524E+03	2.351446E-16	5.429980E-18
6.903501E+03	2.334749E-16	5.394496E-18
6.913477E+03	2.318036E-16	5.359012E-18
6.923453E+03	2.301985E-16	5.325095E-18
6.933429E+03	2.285963E-16	5.291274E-18
6.943405E+03	2.270635E-16	5.259090E-18
6.953381E+03	2.255691E-16	5.227825E-18
6.963358E+03	2.240832E-16	5.196781E-18
6.973334E+03	2.226703E-16	5.167457E-18
6.983310E+03	2.212690E-16	5.138422E-18
6.993286E+03	2.199428E-16	5.111153E-18
7.003262E+03	2.186306E-16	5.084230E-18
7.013238E+03	2.173645E-16	5.058397E-18
7.023215E+03	2.161758E-16	5.034385E-18
7.033191E+03	2.150043E-16	5.010790E-18
7.043167E+03	2.139113E-16	4.989043E-18
7.053143E+03	2.128370E-16	4.967748E-18
7.063119E+03	2.118123E-16	4.947628E-18
7.073095E+03	2.108674E-16	4.929389E-18
7.083071E+03	2.099432E-16	4.911650E-18
7.093048E+03	2.090697E-16	4.895117E-18
7.103024E+03	2.082771E-16	4.880494E-18
7.113000E+03	2.075065E-16	4.866403E-18
7.122976E+03	2.067879E-16	4.853551E-18
7.132952E+03	2.061506E-16	4.842627E-18
7.142928E+03	2.055363E-16	4.832265E-18
7.152905E+03	2.049748E-16	4.823164E-18
7.162881E+03	2.044661E-16	4.815327E-18
7.172857E+03	2.040394E-16	4.809447E-18
7.182833E+03	2.036371E-16	4.804166E-18
7.192809E+03	2.032881E-16	4.800170E-18
7.202785E+03	2.029930E-16	4.797473E-18
7.212762E+03	2.027516E-16	4.796075E-18
7.222738E+03	2.025645E-16	4.795991E-18
7.232714E+03	2.024603E-16	4.797907E-18
7.242690E+03	2.023819E-16	4.800468E-18
7.252666E+03	2.023583E-16	4.804363E-18
7.262642E+03	2.023895E-16	4.809604E-18
7.272618E+03	2.024761E-16	4.816199E-18
7.282595E+03	2.026180E-16	4.824154E-18
7.292571E+03	2.028156E-16	4.833483E-18
7.302547E+03	2.030692E-16	4.844195E-18
7.312523E+03	2.033789E-16	4.856297E-18
7.322499E+03	2.037451E-16	4.869802E-18
7.332475E+03	2.041680E-16	4.884720E-18
7.342452E+03	2.046478E-16	4.901061E-18
7.352428E+03	2.051849E-16	4.918835E-18
7.362404E+03	2.057793E-16	4.938051E-18
7.372380E+03	2.064313E-16	4.958722E-18
7.382356E+03	2.071412E-16	4.980854E-18
7.392332E+03	2.079091E-16	5.004459E-18
7.402308E+03	2.087351E-16	5.029544E-18
7.412285E+03	2.095895E-16	5.055397E-18
7.422261E+03	2.105321E-16	5.083464E-18
7.432237E+03	2.115330E-16	5.113033E-18
7.442213E+03	2.125924E-16	5.144110E-18
7.452189E+03	2.137101E-16	5.176701E-18
7.462165E+03	2.148860E-16	5.210806E-18
7.472142E+03	2.160891E-16	5.245677E-18
7.482118E+03	2.173807E-16	5.282811E-18
7.492094E+03	2.187296E-16	5.321457E-18
7.502070E+03	2.201355E-16	5.361612E-18
7.512046E+03	2.215660E-16	5.402494E-18
7.522022E+03	2.230838E-16	5.445636E-18
7.531999E+03	2.246567E-16	5.490260E-18
7.541975E+03	2.262512E-16	5.535554E-18
7.551951E+03	2.279310E-16	5.583081E-18
7.561927E+03	2.296627E-16	5.632034E-18
7.571903E+03	2.314118E-16	5.681569E-18
7.581879E+03	2.332430E-16	5.733284E-18
7.591855E+03	2.350879E-16	5.785503E-18
7.601832E+03	2.370121E-16	5.839844E-18
7.611808E+03	2.389800E-16	5.895444E-18
7.621784E+03	2.409547E-16	5.951394E-18
7.631760E+03	2.430030E-16	6.009350E-18
7.641736E+03	2.450527E-16	6.067535E-18
7.651712E+03	2.471711E-16	6.127622E-18
7.661689E+03	2.492846E-16	6.187791E-18
7.671665E+03	2.514614E-16	6.249740E-18
7.681641E+03	2.536260E-16	6.311602E-18
7.691617E+03	2.558106E-16	6.374182E-18
7.701593E+03	2.580490E-16	6.438324E-18
7.711569E+03	2.602627E-16	6.502079E-18
7.721546E+03	2.625224E-16	6.567217E-18
7.731522E+03	2.647483E-16	6.631749E-18
7.741498E+03	2.669734E-16	6.696499E-18
