#wls	flux	fluxerr
1.596185E+03	2.590424E-17	1.142618E-18
1.636090E+03	2.692696E-17	1.186119E-18
1.675994E+03	2.790926E-17	1.227674E-18
1.715899E+03	2.883884E-17	1.266743E-18
1.755804E+03	2.970523E-17	1.302872E-18
1.795708E+03	3.046973E-17	1.334372E-18
1.835613E+03	3.110774E-17	1.360183E-18
1.875518E+03	3.157309E-17	1.378311E-18
1.915422E+03	3.181823E-17	1.386715E-18
1.955327E+03	3.182896E-17	1.384824E-18
1.995231E+03	3.159149E-17	1.372088E-18
2.035136E+03	3.118280E-17	1.351902E-18
2.075041E+03	3.077405E-17	1.331713E-18
2.114945E+03	3.059925E-17	1.321632E-18
2.154850E+03	3.088168E-17	1.331223E-18
2.194755E+03	3.171789E-17	1.364523E-18
2.234659E+03	3.303942E-17	1.418441E-18
2.274564E+03	3.467796E-17	1.485626E-18
2.314468E+03	3.643317E-17	1.557416E-18
2.354373E+03	3.817376E-17	1.628164E-18
2.394278E+03	3.980804E-17	1.693959E-18
2.434182E+03	4.129722E-17	1.753170E-18
2.474087E+03	4.263986E-17	1.805769E-18
2.513992E+03	4.382883E-17	1.851487E-18
2.553896E+03	4.489461E-17	1.891645E-18
2.593801E+03	4.584813E-17	1.926735E-18
2.633705E+03	4.670845E-17	1.957580E-18
2.673610E+03	4.749414E-17	1.984981E-18
2.713515E+03	4.823120E-17	2.010038E-18
2.753419E+03	4.891972E-17	2.032765E-18
2.793324E+03	4.959225E-17	2.054519E-18
2.833229E+03	5.025534E-17	2.075568E-18
2.873133E+03	5.092326E-17	2.096497E-18
2.913038E+03	5.160974E-17	2.117857E-18
2.952942E+03	5.233714E-17	2.140549E-18
2.992847E+03	5.310992E-17	2.164728E-18
3.002823E+03	5.330719E-17	2.170879E-18
3.012799E+03	5.350829E-17	2.177161E-18
3.022776E+03	5.372262E-17	2.183956E-18
3.032752E+03	5.393284E-17	2.190559E-18
3.042728E+03	5.415847E-17	2.197761E-18
3.052704E+03	5.438446E-17	2.204950E-18
3.062680E+03	5.462887E-17	2.212858E-18
3.072656E+03	5.487265E-17	2.220712E-18
3.082633E+03	5.513413E-17	2.229252E-18
3.092609E+03	5.539423E-17	2.237706E-18
3.102585E+03	5.567154E-17	2.246825E-18
3.112561E+03	5.594693E-17	2.255833E-18
3.122537E+03	5.623925E-17	2.265492E-18
3.132513E+03	5.652927E-17	2.275025E-18
3.142489E+03	5.683612E-17	2.285200E-18
3.152466E+03	5.714045E-17	2.295239E-18
3.162442E+03	5.746165E-17	2.305920E-18
3.172418E+03	5.779008E-17	2.316854E-18
3.182394E+03	5.811590E-17	2.327646E-18
3.192370E+03	5.845890E-17	2.339088E-18
3.202346E+03	5.879938E-17	2.350391E-18
3.212323E+03	5.915739E-17	2.362354E-18
3.222299E+03	5.952314E-17	2.374585E-18
3.232275E+03	5.988668E-17	2.386686E-18
3.242251E+03	6.026843E-17	2.399471E-18
3.252227E+03	6.064826E-17	2.412135E-18
3.262203E+03	6.104687E-17	2.425503E-18
3.272179E+03	6.145431E-17	2.439175E-18
3.282156E+03	6.186038E-17	2.452747E-18
3.292132E+03	6.228623E-17	2.467055E-18
3.302108E+03	6.272174E-17	2.481698E-18
3.312084E+03	6.315658E-17	2.496264E-18
3.322060E+03	6.361233E-17	2.511605E-18
3.332036E+03	6.407871E-17	2.527315E-18
3.342013E+03	6.454519E-17	2.542975E-18
3.351989E+03	6.503383E-17	2.559454E-18
3.361965E+03	6.553419E-17	2.576337E-18
3.371941E+03	6.604664E-17	2.593639E-18
3.381917E+03	6.656037E-17	2.610932E-18
3.391893E+03	6.709812E-17	2.629107E-18
3.401870E+03	6.764912E-17	2.647740E-18
3.411846E+03	6.820239E-17	2.666398E-18
3.421822E+03	6.878111E-17	2.685987E-18
3.431798E+03	6.937438E-17	2.706077E-18
3.441774E+03	6.998266E-17	2.726685E-18
3.451750E+03	7.059456E-17	2.747363E-18
3.461726E+03	7.123405E-17	2.769044E-18
3.471703E+03	7.188988E-17	2.791286E-18
3.481679E+03	7.256251E-17	2.814104E-18
3.491655E+03	7.324013E-17	2.837039E-18
3.501631E+03	7.394770E-17	2.861054E-18
3.511607E+03	7.467347E-17	2.885691E-18
3.521583E+03	7.541785E-17	2.910963E-18
3.531560E+03	7.618147E-17	2.936891E-18
3.541536E+03	7.695194E-17	2.962995E-18
3.551512E+03	7.775522E-17	2.990272E-18
3.561488E+03	7.857920E-17	3.018250E-18
3.571464E+03	7.942429E-17	3.046944E-18
3.581440E+03	8.027756E-17	3.075853E-18
3.591417E+03	8.116627E-17	3.106019E-18
3.601393E+03	8.207750E-17	3.136942E-18
3.611369E+03	8.301187E-17	3.168643E-18
3.621345E+03	8.396979E-17	3.201133E-18
3.631321E+03	8.495176E-17	3.234427E-18
3.641297E+03	8.594388E-17	3.267992E-18
3.651273E+03	8.697514E-17	3.302927E-18
3.661250E+03	8.803186E-17	3.338706E-18
3.671226E+03	8.911445E-17	3.375342E-18
3.681202E+03	9.022327E-17	3.412842E-18
3.691178E+03	9.134366E-17	3.450649E-18
3.701154E+03	9.250621E-17	3.489913E-18
3.711130E+03	9.369621E-17	3.530074E-18
3.721107E+03	9.491407E-17	3.571142E-18
3.731083E+03	9.616015E-17	3.613126E-18
3.741059E+03	9.743476E-17	3.656032E-18
3.751035E+03	9.872190E-17	3.699255E-18
3.761011E+03	1.000542E-16	3.744014E-18
3.770987E+03	1.014159E-16	3.789711E-18
3.780963E+03	1.028071E-16	3.836345E-18
3.790940E+03	1.042280E-16	3.883916E-18
3.800916E+03	1.056612E-16	3.931778E-18
3.810892E+03	1.071416E-16	3.981217E-18
3.820868E+03	1.086519E-16	4.031585E-18
3.830844E+03	1.101921E-16	4.082880E-18
3.840820E+03	1.117622E-16	4.135088E-18
3.850797E+03	1.133433E-16	4.187514E-18
3.860773E+03	1.149724E-16	4.241514E-18
3.870749E+03	1.166308E-16	4.296396E-18
3.880725E+03	1.183182E-16	4.352136E-18
3.890701E+03	1.200341E-16	4.408717E-18
3.900677E+03	1.217783E-16	4.466120E-18
3.910654E+03	1.235298E-16	4.523574E-18
3.920630E+03	1.253282E-16	4.582527E-18
3.930606E+03	1.271530E-16	4.642214E-18
3.940582E+03	1.290033E-16	4.702600E-18
3.950558E+03	1.308782E-16	4.763651E-18
3.960534E+03	1.327550E-16	4.824534E-18
3.970510E+03	1.346759E-16	4.886779E-18
3.980487E+03	1.366182E-16	4.949553E-18
3.990463E+03	1.385807E-16	5.012809E-18
4.000439E+03	1.405391E-16	5.075664E-18
4.010415E+03	1.425373E-16	5.139706E-18
4.020391E+03	1.445514E-16	5.204059E-18
4.030367E+03	1.465795E-16	5.268657E-18
4.040344E+03	1.485957E-16	5.332561E-18
4.050320E+03	1.506462E-16	5.397430E-18
4.060296E+03	1.527051E-16	5.462335E-18
4.070272E+03	1.547704E-16	5.527194E-18
4.080248E+03	1.568142E-16	5.591016E-18
4.090224E+03	1.588852E-16	5.655535E-18
4.100201E+03	1.609557E-16	5.719762E-18
4.110177E+03	1.630234E-16	5.783609E-18
4.120153E+03	1.650587E-16	5.846036E-18
4.130129E+03	1.671127E-16	5.908847E-18
4.140105E+03	1.691561E-16	5.971008E-18
4.150081E+03	1.711585E-16	6.031445E-18
4.160057E+03	1.731725E-16	6.092015E-18
4.170034E+03	1.751679E-16	6.151659E-18
4.180010E+03	1.771133E-16	6.209274E-18
4.189986E+03	1.790631E-16	6.266774E-18
4.199962E+03	1.809862E-16	6.323074E-18
4.209938E+03	1.828506E-16	6.377053E-18
4.219914E+03	1.847125E-16	6.430684E-18
4.229891E+03	1.865401E-16	6.482862E-18
4.239867E+03	1.883006E-16	6.532451E-18
4.249843E+03	1.900524E-16	6.581489E-18
4.259819E+03	1.917322E-16	6.627788E-18
4.269795E+03	1.933999E-16	6.673423E-18
4.279771E+03	1.950227E-16	6.717273E-18
4.289748E+03	1.965675E-16	6.758202E-18
4.299724E+03	1.980959E-16	6.798343E-18
4.309700E+03	1.995431E-16	6.835474E-18
4.319676E+03	2.009723E-16	6.871774E-18
4.329652E+03	2.023179E-16	6.905007E-18
4.339628E+03	2.036444E-16	6.937383E-18
4.349604E+03	2.049189E-16	6.967791E-18
4.359581E+03	2.061077E-16	6.995097E-18
4.369557E+03	2.072769E-16	7.021551E-18
4.379533E+03	2.083594E-16	7.044892E-18
4.389509E+03	2.094214E-16	7.067368E-18
4.399485E+03	2.103945E-16	7.086682E-18
4.409461E+03	2.113112E-16	7.103941E-18
4.419438E+03	2.122044E-16	7.120261E-18
4.429414E+03	2.130050E-16	7.133334E-18
4.439390E+03	2.137804E-16	7.145428E-18
4.449366E+03	2.144614E-16	7.154237E-18
4.459342E+03	2.151162E-16	7.162056E-18
4.469318E+03	2.156756E-16	7.166588E-18
4.479294E+03	2.161740E-16	7.168991E-18
4.489271E+03	2.166464E-16	7.170434E-18
4.499247E+03	2.170238E-16	7.168646E-18
4.509223E+03	2.173763E-16	7.165956E-18
4.519199E+03	2.176354E-16	7.160111E-18
4.529175E+03	2.178367E-16	7.152306E-18
4.539151E+03	2.180165E-16	7.143736E-18
4.549128E+03	2.181065E-16	7.132176E-18
4.559104E+03	2.181433E-16	7.118834E-18
4.569080E+03	2.181287E-16	7.103783E-18
4.579056E+03	2.180994E-16	7.088224E-18
4.589032E+03	2.179878E-16	7.069969E-18
4.599008E+03	2.178309E-16	7.050233E-18
4.608985E+03	2.176311E-16	7.029099E-18
4.618961E+03	2.174252E-16	7.007769E-18
4.628937E+03	2.171465E-16	6.984092E-18
4.638913E+03	2.168319E-16	6.959275E-18
4.648889E+03	2.164842E-16	6.933407E-18
4.658865E+03	2.161055E-16	6.906571E-18
4.668841E+03	2.157330E-16	6.879953E-18
4.678818E+03	2.153003E-16	6.851442E-18
4.688794E+03	2.148444E-16	6.822226E-18
4.698770E+03	2.143678E-16	6.792388E-18
4.708746E+03	2.138727E-16	6.762007E-18
4.718722E+03	2.133617E-16	6.731166E-18
4.728698E+03	2.128372E-16	6.699941E-18
4.738675E+03	2.123013E-16	6.668407E-18
4.748651E+03	2.117563E-16	6.636637E-18
4.758627E+03	2.112043E-16	6.604700E-18
4.768603E+03	2.106475E-16	6.572663E-18
4.778579E+03	2.100877E-16	6.540590E-18
4.788555E+03	2.095269E-16	6.508540E-18
4.798532E+03	2.089670E-16	6.476571E-18
4.808508E+03	2.084095E-16	6.444737E-18
4.818484E+03	2.078562E-16	6.413089E-18
4.828460E+03	2.073086E-16	6.381671E-18
4.838436E+03	2.067681E-16	6.350530E-18
4.848412E+03	2.062361E-16	6.319706E-18
4.858388E+03	2.057137E-16	6.289232E-18
4.868365E+03	2.052022E-16	6.259147E-18
4.878341E+03	2.047026E-16	6.229480E-18
4.888317E+03	2.041836E-16	6.199275E-18
4.898293E+03	2.037106E-16	6.170524E-18
4.908269E+03	2.032521E-16	6.142263E-18
4.918245E+03	2.028088E-16	6.114509E-18
4.928222E+03	2.023811E-16	6.087276E-18
4.938198E+03	2.019377E-16	6.059620E-18
4.948174E+03	2.015429E-16	6.033469E-18
4.958150E+03	2.011650E-16	6.007869E-18
4.968126E+03	2.008041E-16	5.982820E-18
4.978102E+03	2.004290E-16	5.957388E-18
4.988078E+03	2.001028E-16	5.933454E-18
4.998055E+03	1.997938E-16	5.910069E-18
5.008031E+03	1.994707E-16	5.886302E-18
5.018007E+03	1.991960E-16	5.864004E-18
5.027983E+03	1.989381E-16	5.842232E-18
5.037959E+03	1.986654E-16	5.820061E-18
5.047935E+03	1.984401E-16	5.799311E-18
5.057912E+03	1.981993E-16	5.778139E-18
5.067888E+03	1.980050E-16	5.758352E-18
5.077864E+03	1.977940E-16	5.738112E-18
5.087840E+03	1.976283E-16	5.719212E-18
5.097816E+03	1.974449E-16	5.699829E-18
5.107792E+03	1.973054E-16	5.681737E-18
5.117769E+03	1.971468E-16	5.663124E-18
5.127745E+03	1.970304E-16	5.645748E-18
5.137721E+03	1.968936E-16	5.627813E-18
5.147697E+03	1.967973E-16	5.611062E-18
5.157673E+03	1.966790E-16	5.593706E-18
5.167649E+03	1.965996E-16	5.577483E-18
5.177625E+03	1.964964E-16	5.560612E-18
5.187602E+03	1.963997E-16	5.543950E-18
5.197578E+03	1.963393E-16	5.528338E-18
5.207554E+03	1.962528E-16	5.512017E-18
5.217530E+03	1.961701E-16	5.495836E-18
5.227506E+03	1.961214E-16	5.480632E-18
5.237482E+03	1.960443E-16	5.464666E-18
5.247459E+03	1.959690E-16	5.448780E-18
5.257435E+03	1.959255E-16	5.433810E-18
5.267411E+03	1.958517E-16	5.418034E-18
5.277387E+03	1.957780E-16	5.402296E-18
5.287363E+03	1.957038E-16	5.386582E-18
5.297339E+03	1.956288E-16	5.370886E-18
5.307316E+03	1.955833E-16	5.356041E-18
5.317292E+03	1.955060E-16	5.340361E-18
5.327268E+03	1.954273E-16	5.324690E-18
5.337244E+03	1.953472E-16	5.309028E-18
5.347220E+03	1.952659E-16	5.293381E-18
5.357196E+03	1.951835E-16	5.277756E-18
5.367172E+03	1.951005E-16	5.262164E-18
5.377149E+03	1.950172E-16	5.246619E-18
5.387125E+03	1.949343E-16	5.231138E-18
5.397101E+03	1.948522E-16	5.215738E-18
5.407077E+03	1.947719E-16	5.200441E-18
5.417053E+03	1.946940E-16	5.185271E-18
5.427029E+03	1.946195E-16	5.170250E-18
5.437006E+03	1.945492E-16	5.155407E-18
5.446982E+03	1.944842E-16	5.140765E-18
5.456958E+03	1.944253E-16	5.126350E-18
5.466934E+03	1.943733E-16	5.112183E-18
5.476910E+03	1.943290E-16	5.098283E-18
5.486886E+03	1.942924E-16	5.084655E-18
5.496862E+03	1.942638E-16	5.071298E-18
5.506839E+03	1.942425E-16	5.058199E-18
5.516815E+03	1.942281E-16	5.045343E-18
5.526791E+03	1.942201E-16	5.032715E-18
5.536767E+03	1.941874E-16	5.019509E-18
5.546743E+03	1.941902E-16	5.007284E-18
5.556719E+03	1.941974E-16	4.995235E-18
5.566696E+03	1.942087E-16	4.983347E-18
5.576672E+03	1.941933E-16	4.970838E-18
5.586648E+03	1.942114E-16	4.959248E-18
5.596624E+03	1.942325E-16	4.947793E-18
5.606600E+03	1.942565E-16	4.936469E-18
5.616576E+03	1.942530E-16	4.924508E-18
5.626553E+03	1.942826E-16	4.913444E-18
5.636529E+03	1.943150E-16	4.902511E-18
5.646505E+03	1.943203E-16	4.890954E-18
5.656481E+03	1.943594E-16	4.880305E-18
5.666457E+03	1.944022E-16	4.869808E-18
5.676433E+03	1.944190E-16	4.858719E-18
5.686409E+03	1.944708E-16	4.848565E-18
5.696386E+03	1.944975E-16	4.837845E-18
5.706362E+03	1.945604E-16	4.828084E-18
5.716338E+03	1.946300E-16	4.818545E-18
5.726314E+03	1.946764E-16	4.808493E-18
5.736290E+03	1.947611E-16	4.799444E-18
5.746266E+03	1.948243E-16	4.789922E-18
5.756243E+03	1.949273E-16	4.781439E-18
5.766219E+03	1.950103E-16	4.772519E-18
5.776195E+03	1.951346E-16	4.764670E-18
5.786171E+03	1.952404E-16	4.756425E-18
5.796147E+03	1.953589E-16	4.748547E-18
5.806123E+03	1.955210E-16	4.741786E-18
5.816100E+03	1.956670E-16	4.734687E-18
5.826076E+03	1.958581E-16	4.728736E-18
5.836052E+03	1.960345E-16	4.722482E-18
5.846028E+03	1.962269E-16	4.716670E-18
5.856004E+03	1.964666E-16	4.712049E-18
5.865980E+03	1.966932E-16	4.707167E-18
5.875956E+03	1.969682E-16	4.703496E-18
5.885933E+03	1.972311E-16	4.699587E-18
5.895909E+03	1.975127E-16	4.696177E-18
5.905885E+03	1.978136E-16	4.693277E-18
5.915861E+03	1.981647E-16	4.691621E-18
5.925837E+03	1.985048E-16	4.689756E-18
5.935813E+03	1.988648E-16	4.688413E-18
5.945790E+03	1.992449E-16	4.687596E-18
5.955766E+03	1.996763E-16	4.688036E-18
5.965742E+03	2.000967E-16	4.688269E-18
5.975718E+03	2.005373E-16	4.689027E-18
5.985694E+03	2.009976E-16	4.690302E-18
5.995670E+03	2.014777E-16	4.692090E-18
6.005647E+03	2.020085E-16	4.695113E-18
6.015623E+03	2.025271E-16	4.697904E-18
6.025599E+03	2.030641E-16	4.701179E-18
6.035575E+03	2.036191E-16	4.704928E-18
6.045551E+03	2.041916E-16	4.709138E-18
6.055527E+03	2.047806E-16	4.713792E-18
6.065503E+03	2.053856E-16	4.718872E-18
6.075480E+03	2.060055E-16	4.724360E-18
6.085456E+03	2.066717E-16	4.730972E-18
6.095432E+03	2.073189E-16	4.737216E-18
6.105408E+03	2.079779E-16	4.743800E-18
6.115384E+03	2.086477E-16	4.750702E-18
6.125360E+03	2.093270E-16	4.757896E-18
6.135337E+03	2.100144E-16	4.765352E-18
6.145313E+03	2.107084E-16	4.773040E-18
6.155289E+03	2.114076E-16	4.780930E-18
6.165265E+03	2.121105E-16	4.788992E-18
6.175241E+03	2.128153E-16	4.797190E-18
6.185217E+03	2.135204E-16	4.805492E-18
6.195193E+03	2.141908E-16	4.813114E-18
6.205170E+03	2.148912E-16	4.821515E-18
6.215146E+03	2.155864E-16	4.829911E-18
6.225122E+03	2.162746E-16	4.838265E-18
6.235098E+03	2.169540E-16	4.846541E-18
6.245074E+03	2.176226E-16	4.854700E-18
6.255050E+03	2.182783E-16	4.862702E-18
6.265027E+03	2.189194E-16	4.870514E-18
6.275003E+03	2.195437E-16	4.878093E-18
6.284979E+03	2.201152E-16	4.884649E-18
6.294955E+03	2.207004E-16	4.891659E-18
6.304931E+03	2.212630E-16	4.898329E-18
6.314907E+03	2.218015E-16	4.904628E-18
6.324884E+03	2.223141E-16	4.910525E-18
6.334860E+03	2.227642E-16	4.915218E-18
6.344836E+03	2.232196E-16	4.920212E-18
6.354812E+03	2.236443E-16	4.924717E-18
6.364788E+03	2.240367E-16	4.928704E-18
6.374764E+03	2.243607E-16	4.931387E-18
6.384740E+03	2.246849E-16	4.934281E-18
6.394717E+03	2.249733E-16	4.936599E-18
6.404693E+03	2.252252E-16	4.938332E-18
6.414669E+03	2.254047E-16	4.938700E-18
6.424645E+03	2.255812E-16	4.939230E-18
6.434621E+03	2.257193E-16	4.939152E-18
6.444597E+03	2.257836E-16	4.937696E-18
6.454574E+03	2.258440E-16	4.936397E-18
6.464550E+03	2.258655E-16	4.934495E-18
6.474526E+03	2.258131E-16	4.931227E-18
6.484502E+03	2.257571E-16	4.928136E-18
6.494478E+03	2.256626E-16	4.924462E-18
6.504454E+03	2.254946E-16	4.919445E-18
6.514431E+03	2.253235E-16	4.914622E-18
6.524407E+03	2.250791E-16	4.908461E-18
6.534383E+03	2.248315E-16	4.902485E-18
6.544359E+03	2.245106E-16	4.895162E-18
6.554335E+03	2.241862E-16	4.888006E-18
6.564311E+03	2.238231E-16	4.880248E-18
6.574287E+03	2.233867E-16	4.871126E-18
6.584264E+03	2.229465E-16	4.862153E-18
6.594240E+03	2.224333E-16	4.851811E-18
6.604216E+03	2.219169E-16	4.841617E-18
6.614192E+03	2.213286E-16	4.830065E-18
6.624168E+03	2.207379E-16	4.818670E-18
6.634144E+03	2.200770E-16	4.805942E-18
6.644121E+03	2.194153E-16	4.793390E-18
6.654097E+03	2.186858E-16	4.779543E-18
6.664073E+03	2.179577E-16	4.765910E-18
6.674049E+03	2.171645E-16	4.751027E-18
6.684025E+03	2.163418E-16	4.735666E-18
6.694001E+03	2.155249E-16	4.720593E-18
6.703977E+03	2.146481E-16	4.704364E-18
6.713954E+03	2.137803E-16	4.688480E-18
6.723930E+03	2.128567E-16	4.671514E-18
6.733906E+03	2.119458E-16	4.654961E-18
6.743882E+03	2.109833E-16	4.637405E-18
6.753858E+03	2.100046E-16	4.619614E-18
6.763834E+03	2.090442E-16	4.602342E-18
6.773811E+03	2.080390E-16	4.584196E-18
6.783787E+03	2.070240E-16	4.565936E-18
6.793763E+03	2.060333E-16	4.548312E-18
6.803739E+03	2.050047E-16	4.529944E-18
6.813715E+03	2.039726E-16	4.511586E-18
6.823691E+03	2.029708E-16	4.493980E-18
6.833668E+03	2.019377E-16	4.475761E-18
6.843644E+03	2.009075E-16	4.457674E-18
6.853620E+03	1.999130E-16	4.440451E-18
6.863596E+03	1.988938E-16	4.422741E-18
6.873572E+03	1.978830E-16	4.405279E-18
6.883548E+03	1.968827E-16	4.388101E-18
6.893524E+03	1.959250E-16	4.371928E-18
6.903501E+03	1.949503E-16	4.355422E-18
6.913477E+03	1.939911E-16	4.339308E-18
6.923453E+03	1.930489E-16	4.323615E-18
6.933429E+03	1.921553E-16	4.309048E-18
6.943405E+03	1.912516E-16	4.294292E-18
6.953381E+03	1.903692E-16	4.280047E-18
6.963358E+03	1.895096E-16	4.266345E-18
6.973334E+03	1.886739E-16	4.253211E-18
6.983310E+03	1.878929E-16	4.241338E-18
6.993286E+03	1.871086E-16	4.229416E-18
7.003262E+03	1.863518E-16	4.218141E-18
7.013238E+03	1.856233E-16	4.207529E-18
7.023215E+03	1.849243E-16	4.197610E-18
7.033191E+03	1.842556E-16	4.188397E-18
7.043167E+03	1.836180E-16	4.179915E-18
7.053143E+03	1.830410E-16	4.172833E-18
7.063119E+03	1.824680E-16	4.165864E-18
7.073095E+03	1.819285E-16	4.159678E-18
7.083071E+03	1.814231E-16	4.154295E-18
7.093048E+03	1.809525E-16	4.149728E-18
7.103024E+03	1.805172E-16	4.145994E-18
7.113000E+03	1.801179E-16	4.143107E-18
7.122976E+03	1.797550E-16	4.141083E-18
7.132952E+03	1.794290E-16	4.139931E-18
7.142928E+03	1.791404E-16	4.139667E-18
7.152905E+03	1.788897E-16	4.140306E-18
7.162881E+03	1.786771E-16	4.141855E-18
7.172857E+03	1.785033E-16	4.144331E-18
7.182833E+03	1.783684E-16	4.147743E-18
7.192809E+03	1.782728E-16	4.152099E-18
7.202785E+03	1.782169E-16	4.157415E-18
7.212762E+03	1.782008E-16	4.163698E-18
7.222738E+03	1.782250E-16	4.170960E-18
7.232714E+03	1.782896E-16	4.179209E-18
7.242690E+03	1.783949E-16	4.188455E-18
7.252666E+03	1.785411E-16	4.198706E-18
7.262642E+03	1.787284E-16	4.209973E-18
7.272618E+03	1.789568E-16	4.222261E-18
7.282595E+03	1.792268E-16	4.235580E-18
7.292571E+03	1.795382E-16	4.249938E-18
7.302547E+03	1.798913E-16	4.265341E-18
7.312523E+03	1.802861E-16	4.281795E-18
7.322499E+03	1.807227E-16	4.299308E-18
7.332475E+03	1.811726E-16	4.317205E-18
7.342452E+03	1.816927E-16	4.336848E-18
7.352428E+03	1.822547E-16	4.357564E-18
7.362404E+03	1.828583E-16	4.379356E-18
7.372380E+03	1.835035E-16	4.402225E-18
7.382356E+03	1.841904E-16	4.426181E-18
7.392332E+03	1.849185E-16	4.451218E-18
7.402308E+03	1.856585E-16	4.476632E-18
7.412285E+03	1.864685E-16	4.503831E-18
7.422261E+03	1.873189E-16	4.532109E-18
7.432237E+03	1.882096E-16	4.561465E-18
7.442213E+03	1.891400E-16	4.591894E-18
7.452189E+03	1.900798E-16	4.622661E-18
7.462165E+03	1.910880E-16	4.655208E-18
7.472142E+03	1.921344E-16	4.688808E-18
7.482118E+03	1.932182E-16	4.723445E-18
7.492094E+03	1.943080E-16	4.758356E-18
7.502070E+03	1.954641E-16	4.795025E-18
7.512046E+03	1.966550E-16	4.832684E-18
7.522022E+03	1.978799E-16	4.871319E-18
7.531999E+03	1.991060E-16	4.910131E-18
7.541975E+03	2.003950E-16	4.950640E-18
7.551951E+03	2.017142E-16	4.992051E-18
7.561927E+03	2.030302E-16	5.033539E-18
7.571903E+03	2.044053E-16	5.076653E-18
7.581879E+03	2.058061E-16	5.120572E-18
7.591855E+03	2.071981E-16	5.164440E-18
7.601832E+03	2.086448E-16	5.209843E-18
7.611808E+03	2.101116E-16	5.255926E-18
7.621784E+03	2.115630E-16	5.301804E-18
7.631760E+03	2.130635E-16	5.349096E-18
7.641736E+03	2.145775E-16	5.396915E-18
7.651712E+03	2.160685E-16	5.444343E-18
7.661689E+03	2.176019E-16	5.493036E-18
7.671665E+03	2.191066E-16	5.541198E-18
7.681641E+03	2.206489E-16	5.590508E-18
7.691617E+03	2.221914E-16	5.640029E-18
7.701593E+03	2.236959E-16	5.688787E-18
7.711569E+03	2.252297E-16	5.738497E-18
7.721546E+03	2.267188E-16	5.787274E-18
7.731522E+03	2.282314E-16	5.836862E-18
7.741498E+03	2.296923E-16	5.885336E-18
