#wls	flux	fluxerr
1.596185E+03	2.461771E-17	1.098202E-18
1.636090E+03	2.556915E-17	1.139096E-18
1.675994E+03	2.648586E-17	1.178285E-18
1.715899E+03	2.735202E-17	1.215068E-18
1.755804E+03	2.815302E-17	1.248799E-18
1.795708E+03	2.886242E-17	1.278316E-18
1.835613E+03	2.944722E-17	1.302174E-18
1.875518E+03	2.987455E-17	1.318941E-18
1.915422E+03	3.009474E-17	1.326460E-18
1.955327E+03	3.008949E-17	1.323967E-18
1.995231E+03	2.985682E-17	1.311426E-18
2.035136E+03	2.946444E-17	1.291858E-18
2.075041E+03	2.906906E-17	1.272160E-18
2.114945E+03	2.889696E-17	1.262218E-18
2.154850E+03	2.916400E-17	1.271386E-18
2.194755E+03	2.995105E-17	1.303067E-18
2.234659E+03	3.120414E-17	1.354775E-18
2.274564E+03	3.275390E-17	1.419034E-18
2.314468E+03	3.442278E-17	1.488076E-18
2.354373E+03	3.607530E-17	1.556010E-18
2.394278E+03	3.763742E-17	1.619640E-18
2.434182E+03	3.905960E-17	1.676853E-18
2.474087E+03	4.034685E-17	1.727895E-18
2.513992E+03	4.149954E-17	1.772812E-18
2.553896E+03	4.253201E-17	1.812247E-18
2.593801E+03	4.346149E-17	1.846961E-18
2.633705E+03	4.431349E-17	1.878062E-18
2.673610E+03	4.509005E-17	1.905653E-18
2.713515E+03	4.582323E-17	1.931104E-18
2.753419E+03	4.652092E-17	1.954753E-18
2.793324E+03	4.719788E-17	1.977224E-18
2.833229E+03	4.786813E-17	1.999102E-18
2.873133E+03	4.854514E-17	2.020942E-18
2.913038E+03	4.925044E-17	2.043627E-18
2.952942E+03	4.997990E-17	2.066966E-18
2.992847E+03	5.076324E-17	2.092165E-18
3.002823E+03	5.096545E-17	2.098668E-18
3.012799E+03	5.117148E-17	2.105302E-18
3.022776E+03	5.139034E-17	2.112440E-18
3.032752E+03	5.160539E-17	2.119394E-18
3.042728E+03	5.182648E-17	2.126570E-18
3.052704E+03	5.205688E-17	2.134101E-18
3.062680E+03	5.230511E-17	2.142335E-18
3.072656E+03	5.255286E-17	2.150520E-18
3.082633E+03	5.280871E-17	2.159007E-18
3.092609E+03	5.307237E-17	2.167784E-18
3.102585E+03	5.335275E-17	2.177211E-18
3.112561E+03	5.363141E-17	2.186536E-18
3.122537E+03	5.391729E-17	2.196123E-18
3.132513E+03	5.421956E-17	2.206344E-18
3.142489E+03	5.451963E-17	2.216441E-18
3.152466E+03	5.482671E-17	2.226788E-18
3.162442E+03	5.514078E-17	2.237383E-18
3.172418E+03	5.547134E-17	2.248610E-18
3.182394E+03	5.579954E-17	2.259705E-18
3.192370E+03	5.613489E-17	2.271051E-18
3.202346E+03	5.648713E-17	2.283041E-18
3.212323E+03	5.683717E-17	2.294901E-18
3.222299E+03	5.720449E-17	2.307419E-18
3.232275E+03	5.756981E-17	2.319815E-18
3.242251E+03	5.794303E-17	2.332486E-18
3.252227E+03	5.833427E-17	2.345839E-18
3.262203E+03	5.872396E-17	2.359085E-18
3.272179E+03	5.912222E-17	2.372630E-18
3.282156E+03	5.953943E-17	2.386889E-18
3.292132E+03	5.995566E-17	2.401062E-18
3.302108E+03	6.039154E-17	2.415972E-18
3.312084E+03	6.082689E-17	2.430812E-18
3.322060E+03	6.127222E-17	2.446000E-18
3.332036E+03	6.173834E-17	2.461966E-18
3.342013E+03	6.220470E-17	2.477887E-18
3.351989E+03	6.269266E-17	2.494615E-18
3.361965E+03	6.318140E-17	2.511318E-18
3.371941E+03	6.369263E-17	2.528857E-18
3.381917E+03	6.420521E-17	2.546392E-18
3.391893E+03	6.474120E-17	2.564794E-18
3.401870E+03	6.527916E-17	2.583213E-18
3.411846E+03	6.584148E-17	2.602533E-18
3.421822E+03	6.640639E-17	2.621890E-18
3.431798E+03	6.698537E-17	2.641737E-18
3.441774E+03	6.759016E-17	2.662534E-18
3.451750E+03	6.819858E-17	2.683404E-18
3.461726E+03	6.883391E-17	2.705261E-18
3.471703E+03	6.947347E-17	2.727211E-18
3.481679E+03	7.014105E-17	2.750185E-18
3.491655E+03	7.081362E-17	2.773278E-18
3.501631E+03	7.151523E-17	2.797428E-18
3.511607E+03	7.222244E-17	2.821716E-18
3.521583E+03	7.296001E-17	2.847106E-18
3.531560E+03	7.370380E-17	2.872653E-18
3.541536E+03	7.447904E-17	2.899338E-18
3.551512E+03	7.526126E-17	2.926204E-18
3.561488E+03	7.607618E-17	2.954248E-18
3.571464E+03	7.689863E-17	2.982489E-18
3.581440E+03	7.775502E-17	3.011948E-18
3.591417E+03	7.861964E-17	3.041625E-18
3.601393E+03	7.951937E-17	3.072557E-18
3.611369E+03	8.044150E-17	3.104248E-18
3.621345E+03	8.137289E-17	3.136188E-18
3.631321E+03	8.234114E-17	3.169435E-18
3.641297E+03	8.331920E-17	3.202947E-18
3.651273E+03	8.433537E-17	3.237804E-18
3.661250E+03	8.536191E-17	3.272940E-18
3.671226E+03	8.642774E-17	3.309457E-18
3.681202E+03	8.750438E-17	3.346261E-18
3.691178E+03	8.862142E-17	3.384479E-18
3.701154E+03	8.974976E-17	3.422995E-18
3.711130E+03	9.091955E-17	3.462954E-18
3.721107E+03	9.210101E-17	3.503216E-18
3.731083E+03	9.332505E-17	3.544954E-18
3.741059E+03	9.457660E-17	3.587587E-18
3.751035E+03	9.584020E-17	3.630526E-18
3.761011E+03	9.714766E-17	3.674970E-18
3.770987E+03	9.846719E-17	3.719712E-18
3.780963E+03	9.983137E-17	3.765977E-18
3.790940E+03	1.012075E-16	3.812526E-18
3.800916E+03	1.026291E-16	3.860616E-18
3.810892E+03	1.040623E-16	3.908967E-18
3.820868E+03	1.055415E-16	3.958868E-18
3.830844E+03	1.070318E-16	4.009003E-18
3.840820E+03	1.085684E-16	4.060686E-18
3.850797E+03	1.101156E-16	4.112572E-18
3.860773E+03	1.117093E-16	4.165998E-18
3.870749E+03	1.133125E-16	4.219582E-18
3.880725E+03	1.149622E-16	4.274693E-18
3.890701E+03	1.166396E-16	4.330623E-18
3.900677E+03	1.183245E-16	4.386623E-18
3.910654E+03	1.200554E-16	4.444112E-18
3.920630E+03	1.217921E-16	4.501599E-18
3.930606E+03	1.235742E-16	4.560536E-18
3.940582E+03	1.253601E-16	4.619390E-18
3.950558E+03	1.271902E-16	4.679640E-18
3.960534E+03	1.290219E-16	4.739713E-18
3.970510E+03	1.308964E-16	4.801120E-18
3.980487E+03	1.327697E-16	4.862241E-18
3.990463E+03	1.346841E-16	4.924622E-18
4.000439E+03	1.365940E-16	4.986594E-18
4.010415E+03	1.385430E-16	5.049737E-18
4.020391E+03	1.404841E-16	5.112339E-18
4.030367E+03	1.424616E-16	5.176010E-18
4.040344E+03	1.444273E-16	5.238989E-18
4.050320E+03	1.464266E-16	5.302925E-18
4.060296E+03	1.484097E-16	5.366012E-18
4.070272E+03	1.503984E-16	5.429036E-18
4.080248E+03	1.524157E-16	5.492823E-18
4.090224E+03	1.544095E-16	5.555495E-18
4.100201E+03	1.564281E-16	5.618791E-18
4.110177E+03	1.584182E-16	5.680790E-18
4.120153E+03	1.604291E-16	5.743260E-18
4.130129E+03	1.624058E-16	5.804236E-18
4.140105E+03	1.643989E-16	5.865526E-18
4.150081E+03	1.663523E-16	5.925129E-18
4.160057E+03	1.682901E-16	5.983905E-18
4.170034E+03	1.702375E-16	6.042755E-18
4.180010E+03	1.721367E-16	6.099622E-18
4.189986E+03	1.740409E-16	6.156401E-18
4.199962E+03	1.758910E-16	6.211003E-18
4.209938E+03	1.777128E-16	6.264345E-18
4.219914E+03	1.795331E-16	6.317374E-18
4.229891E+03	1.812912E-16	6.367956E-18
4.239867E+03	1.830138E-16	6.417043E-18
4.249843E+03	1.847291E-16	6.465625E-18
4.259819E+03	1.863748E-16	6.511527E-18
4.269795E+03	1.879790E-16	6.555742E-18
4.279771E+03	1.895710E-16	6.599293E-18
4.289748E+03	1.910876E-16	6.639990E-18
4.299724E+03	1.925581E-16	6.678862E-18
4.309700E+03	1.940130E-16	6.716972E-18
4.319676E+03	1.953882E-16	6.752112E-18
4.329652E+03	1.967145E-16	6.785353E-18
4.339628E+03	1.980235E-16	6.817794E-18
4.349604E+03	1.992504E-16	6.847214E-18
4.359581E+03	2.004269E-16	6.874714E-18
4.369557E+03	2.015529E-16	6.900297E-18
4.379533E+03	2.026607E-16	6.925084E-18
4.389509E+03	2.036839E-16	6.946809E-18
4.399485E+03	2.046544E-16	6.966572E-18
4.409461E+03	2.055707E-16	6.984337E-18
4.419438E+03	2.064655E-16	7.001218E-18
4.429414E+03	2.072705E-16	7.014916E-18
4.439390E+03	2.080184E-16	7.026545E-18
4.449366E+03	2.087084E-16	7.036091E-18
4.459342E+03	2.093399E-16	7.043549E-18
4.469318E+03	2.099126E-16	7.048915E-18
4.479294E+03	2.104607E-16	7.053348E-18
4.489271E+03	2.109160E-16	7.054573E-18
4.499247E+03	2.113129E-16	7.053758E-18
4.509223E+03	2.116521E-16	7.050933E-18
4.519199E+03	2.119343E-16	7.046139E-18
4.529175E+03	2.121605E-16	7.039416E-18
4.539151E+03	2.123319E-16	7.030816E-18
4.549128E+03	2.124499E-16	7.020400E-18
4.559104E+03	2.125160E-16	7.008222E-18
4.569080E+03	2.125319E-16	6.994352E-18
4.579056E+03	2.124993E-16	6.978858E-18
4.589032E+03	2.124545E-16	6.962939E-18
4.599008E+03	2.123310E-16	6.944419E-18
4.608985E+03	2.121650E-16	6.924501E-18
4.618961E+03	2.119590E-16	6.903270E-18
4.628937E+03	2.117150E-16	6.880807E-18
4.638913E+03	2.114355E-16	6.857193E-18
4.648889E+03	2.110887E-16	6.831413E-18
4.658865E+03	2.107450E-16	6.805752E-18
4.668841E+03	2.103729E-16	6.779195E-18
4.678818E+03	2.099746E-16	6.751818E-18
4.688794E+03	2.095525E-16	6.723706E-18
4.698770E+03	2.091090E-16	6.694939E-18
4.708746E+03	2.086462E-16	6.665594E-18
4.718722E+03	2.081665E-16	6.635747E-18
4.728698E+03	2.076722E-16	6.605475E-18
4.738675E+03	2.071653E-16	6.574848E-18
4.748651E+03	2.066148E-16	6.542888E-18
4.758627E+03	2.060891E-16	6.511765E-18
4.768603E+03	2.055570E-16	6.480489E-18
4.778579E+03	2.050203E-16	6.449121E-18
4.788555E+03	2.044808E-16	6.417720E-18
4.798532E+03	2.039077E-16	6.385319E-18
4.808508E+03	2.033679E-16	6.354019E-18
4.818484E+03	2.028304E-16	6.322844E-18
4.828460E+03	2.022964E-16	6.291837E-18
4.838436E+03	2.017351E-16	6.260039E-18
4.848412E+03	2.012126E-16	6.229502E-18
4.858388E+03	2.006975E-16	6.199251E-18
4.868365E+03	2.001911E-16	6.169324E-18
4.878341E+03	1.996624E-16	6.138764E-18
4.888317E+03	1.991762E-16	6.109570E-18
4.898293E+03	1.987013E-16	6.080777E-18
4.908269E+03	1.982070E-16	6.051444E-18
4.918245E+03	1.977572E-16	6.023522E-18
4.928222E+03	1.972892E-16	5.995101E-18
4.938198E+03	1.968667E-16	5.968112E-18
4.948174E+03	1.964585E-16	5.941605E-18
4.958150E+03	1.960335E-16	5.914640E-18
4.968126E+03	1.956547E-16	5.889119E-18
4.978102E+03	1.952598E-16	5.863156E-18
4.988078E+03	1.949112E-16	5.838630E-18
4.998055E+03	1.945466E-16	5.813671E-18
5.008031E+03	1.942282E-16	5.790135E-18
5.018007E+03	1.938938E-16	5.766162E-18
5.027983E+03	1.936051E-16	5.743590E-18
5.037959E+03	1.933001E-16	5.720575E-18
5.047935E+03	1.930403E-16	5.698932E-18
5.057912E+03	1.927635E-16	5.676828E-18
5.067888E+03	1.925002E-16	5.655160E-18
5.077864E+03	1.922807E-16	5.634813E-18
5.087840E+03	1.920430E-16	5.613966E-18
5.097816E+03	1.918479E-16	5.594400E-18
5.107792E+03	1.916336E-16	5.574308E-18
5.117769E+03	1.914302E-16	5.554566E-18
5.127745E+03	1.912673E-16	5.536031E-18
5.137721E+03	1.910834E-16	5.516922E-18
5.147697E+03	1.909084E-16	5.498103E-18
5.157673E+03	1.907414E-16	5.479550E-18
5.167649E+03	1.906121E-16	5.462111E-18
5.177625E+03	1.904592E-16	5.444029E-18
5.187602E+03	1.903123E-16	5.426151E-18
5.197578E+03	1.901706E-16	5.408459E-18
5.207554E+03	1.900637E-16	5.391788E-18
5.217530E+03	1.899305E-16	5.374408E-18
5.227506E+03	1.898007E-16	5.357160E-18
5.237482E+03	1.896736E-16	5.340025E-18
5.247459E+03	1.895486E-16	5.322990E-18
5.257435E+03	1.894254E-16	5.306045E-18
5.267411E+03	1.893334E-16	5.290014E-18
5.277387E+03	1.892122E-16	5.273208E-18
5.287363E+03	1.890915E-16	5.256458E-18
5.297339E+03	1.889712E-16	5.239766E-18
5.307316E+03	1.888509E-16	5.223122E-18
5.317292E+03	1.887308E-16	5.206532E-18
5.327268E+03	1.886109E-16	5.189995E-18
5.337244E+03	1.884911E-16	5.173514E-18
5.347220E+03	1.883719E-16	5.157100E-18
5.357196E+03	1.882534E-16	5.140762E-18
5.367172E+03	1.881361E-16	5.124512E-18
5.377149E+03	1.880205E-16	5.108367E-18
5.387125E+03	1.879074E-16	5.092347E-18
5.397101E+03	1.877973E-16	5.076470E-18
5.407077E+03	1.876912E-16	5.060760E-18
5.417053E+03	1.875900E-16	5.045243E-18
5.427029E+03	1.874944E-16	5.029942E-18
5.437006E+03	1.874056E-16	5.014889E-18
5.446982E+03	1.872950E-16	4.999317E-18
5.456958E+03	1.872228E-16	4.984839E-18
5.466934E+03	1.871604E-16	4.970686E-18
5.476910E+03	1.871083E-16	4.956875E-18
5.486886E+03	1.870671E-16	4.943416E-18
5.496862E+03	1.870363E-16	4.930299E-18
5.506839E+03	1.869861E-16	4.916734E-18
5.516815E+03	1.869749E-16	4.904256E-18
5.526791E+03	1.869723E-16	4.892066E-18
5.536767E+03	1.869775E-16	4.880140E-18
5.546743E+03	1.869605E-16	4.867693E-18
5.556719E+03	1.869794E-16	4.856240E-18
5.566696E+03	1.870043E-16	4.844998E-18
5.576672E+03	1.870345E-16	4.833950E-18
5.586648E+03	1.870400E-16	4.822321E-18
5.596624E+03	1.870795E-16	4.811624E-18
5.606600E+03	1.871232E-16	4.801092E-18
5.616576E+03	1.871414E-16	4.789958E-18
5.626553E+03	1.871930E-16	4.779736E-18
5.636529E+03	1.872190E-16	4.768915E-18
5.646505E+03	1.872784E-16	4.759001E-18
5.656481E+03	1.873419E-16	4.749243E-18
5.666457E+03	1.873802E-16	4.738903E-18
5.676433E+03	1.874527E-16	4.729480E-18
5.686409E+03	1.875006E-16	4.719492E-18
5.696386E+03	1.875834E-16	4.710437E-18
5.706362E+03	1.876425E-16	4.700841E-18
5.716338E+03	1.877376E-16	4.692199E-18
5.726314E+03	1.878101E-16	4.683046E-18
5.736290E+03	1.879197E-16	4.674873E-18
5.746266E+03	1.880078E-16	4.666217E-18
5.756243E+03	1.881343E-16	4.658567E-18
5.766219E+03	1.882406E-16	4.650471E-18
5.776195E+03	1.883867E-16	4.643409E-18
5.786171E+03	1.885137E-16	4.635929E-18
5.796147E+03	1.886521E-16	4.628783E-18
5.806123E+03	1.888324E-16	4.622714E-18
5.816100E+03	1.889954E-16	4.616276E-18
5.826076E+03	1.892016E-16	4.610941E-18
5.836052E+03	1.893918E-16	4.605267E-18
5.846028E+03	1.895963E-16	4.599993E-18
5.856004E+03	1.898456E-16	4.595857E-18
5.865980E+03	1.900805E-16	4.591419E-18
5.875956E+03	1.903312E-16	4.587416E-18
5.885933E+03	1.906282E-16	4.584575E-18
5.895909E+03	1.909117E-16	4.581460E-18
5.905885E+03	1.912122E-16	4.578803E-18
5.915861E+03	1.915298E-16	4.576605E-18
5.925837E+03	1.918951E-16	4.575595E-18
5.935813E+03	1.922477E-16	4.574331E-18
5.945790E+03	1.926179E-16	4.573536E-18
5.955766E+03	1.930058E-16	4.573210E-18
5.965742E+03	1.934416E-16	4.574072E-18
5.975718E+03	1.938647E-16	4.574680E-18
5.985694E+03	1.943050E-16	4.575748E-18
5.995670E+03	1.947625E-16	4.577271E-18
6.005647E+03	1.952366E-16	4.579240E-18
6.015623E+03	1.957273E-16	4.581652E-18
6.025599E+03	1.962649E-16	4.585213E-18
6.035575E+03	1.967870E-16	4.588469E-18
6.045551E+03	1.973240E-16	4.592131E-18
6.055527E+03	1.978752E-16	4.596182E-18
6.065503E+03	1.984398E-16	4.600606E-18
6.075480E+03	1.990171E-16	4.605386E-18
6.085456E+03	1.996061E-16	4.610503E-18
6.095432E+03	2.002059E-16	4.615937E-18
6.105408E+03	2.008154E-16	4.621665E-18
6.115384E+03	2.014335E-16	4.627663E-18
6.125360E+03	2.020591E-16	4.633908E-18
6.135337E+03	2.026909E-16	4.640375E-18
6.145313E+03	2.033275E-16	4.647033E-18
6.155289E+03	2.039677E-16	4.653858E-18
6.165265E+03	2.046100E-16	4.660819E-18
6.175241E+03	2.052529E-16	4.667885E-18
6.185217E+03	2.058947E-16	4.675026E-18
6.195193E+03	2.065341E-16	4.682210E-18
6.205170E+03	2.071692E-16	4.689403E-18
6.215146E+03	2.077984E-16	4.696572E-18
6.225122E+03	2.084201E-16	4.703686E-18
6.235098E+03	2.090325E-16	4.710709E-18
6.245074E+03	2.096339E-16	4.717608E-18
6.255050E+03	2.102225E-16	4.724347E-18
6.265027E+03	2.107966E-16	4.730896E-18
6.275003E+03	2.113211E-16	4.736473E-18
6.284979E+03	2.118608E-16	4.742536E-18
6.294955E+03	2.123809E-16	4.748312E-18
6.304931E+03	2.128796E-16	4.753766E-18
6.314907E+03	2.133555E-16	4.758872E-18
6.324884E+03	2.138069E-16	4.763600E-18
6.334860E+03	2.141988E-16	4.767175E-18
6.344836E+03	2.145970E-16	4.771072E-18
6.354812E+03	2.149666E-16	4.774518E-18
6.364788E+03	2.153066E-16	4.777495E-18
6.374764E+03	2.156157E-16	4.779984E-18
6.384740E+03	2.158591E-16	4.781219E-18
6.394717E+03	2.161040E-16	4.782694E-18
6.404693E+03	2.163157E-16	4.783645E-18
6.414669E+03	2.164936E-16	4.784067E-18
6.424645E+03	2.166034E-16	4.783206E-18
6.434621E+03	2.167128E-16	4.782565E-18
6.444597E+03	2.167879E-16	4.781396E-18
6.454574E+03	2.167944E-16	4.778951E-18
6.464550E+03	2.168008E-16	4.776745E-18
6.474526E+03	2.167733E-16	4.774037E-18
6.484502E+03	2.166782E-16	4.770086E-18
6.494478E+03	2.165842E-16	4.766412E-18
6.504454E+03	2.164577E-16	4.762278E-18
6.514431E+03	2.162652E-16	4.756946E-18
6.524407E+03	2.160748E-16	4.751918E-18
6.534383E+03	2.158522E-16	4.746430E-18
6.544359E+03	2.155629E-16	4.739721E-18
6.554335E+03	2.152744E-16	4.733270E-18
6.564311E+03	2.149524E-16	4.726319E-18
6.574287E+03	2.145627E-16	4.718110E-18
6.584264E+03	2.141730E-16	4.710127E-18
6.594240E+03	2.137157E-16	4.700878E-18
6.604216E+03	2.132585E-16	4.691844E-18
6.614192E+03	2.127342E-16	4.681546E-18
6.624168E+03	2.122105E-16	4.671465E-18
6.634144E+03	2.116212E-16	4.660135E-18
6.644121E+03	2.110337E-16	4.649037E-18
6.654097E+03	2.104155E-16	4.637447E-18
6.664073E+03	2.097346E-16	4.624656E-18
6.674049E+03	2.090583E-16	4.612140E-18
6.684025E+03	2.083220E-16	4.598467E-18
6.694001E+03	2.075929E-16	4.585113E-18
6.703977E+03	2.068069E-16	4.570656E-18
6.713954E+03	2.059984E-16	4.555850E-18
6.723930E+03	2.052015E-16	4.541444E-18
6.733906E+03	2.043533E-16	4.526035E-18
6.743882E+03	2.035199E-16	4.511086E-18
6.753858E+03	2.026389E-16	4.495205E-18
6.763834E+03	2.017764E-16	4.479851E-18
6.773811E+03	2.008705E-16	4.463645E-18
6.783787E+03	1.999866E-16	4.448035E-18
6.793763E+03	1.990633E-16	4.431649E-18
6.803739E+03	1.981345E-16	4.415234E-18
6.813715E+03	1.972331E-16	4.399519E-18
6.823691E+03	1.962985E-16	4.383151E-18
6.833668E+03	1.953642E-16	4.366867E-18
6.843644E+03	1.944625E-16	4.351388E-18
6.853620E+03	1.935339E-16	4.335376E-18
6.863596E+03	1.926413E-16	4.320239E-18
6.873572E+03	1.917254E-16	4.304643E-18
6.883548E+03	1.908187E-16	4.289309E-18
6.893524E+03	1.899527E-16	4.274945E-18
6.903501E+03	1.890690E-16	4.260235E-18
6.913477E+03	1.881992E-16	4.245885E-18
6.923453E+03	1.873745E-16	4.232597E-18
6.933429E+03	1.865368E-16	4.219058E-18
6.943405E+03	1.857174E-16	4.205972E-18
6.953381E+03	1.849175E-16	4.193364E-18
6.963358E+03	1.841677E-16	4.181927E-18
6.973334E+03	1.834106E-16	4.170359E-18
6.983310E+03	1.826767E-16	4.159349E-18
6.993286E+03	1.819672E-16	4.148922E-18
7.003262E+03	1.813118E-16	4.139757E-18
7.013238E+03	1.806538E-16	4.130562E-18
7.023215E+03	1.800232E-16	4.122018E-18
7.033191E+03	1.794208E-16	4.114144E-18
7.043167E+03	1.788757E-16	4.107611E-18
7.053143E+03	1.783321E-16	4.101136E-18
7.063119E+03	1.778192E-16	4.095390E-18
7.073095E+03	1.773375E-16	4.090386E-18
7.083071E+03	1.768878E-16	4.086146E-18
7.093048E+03	1.764708E-16	4.082684E-18
7.103024E+03	1.761149E-16	4.080660E-18
7.113000E+03	1.757648E-16	4.078797E-18
7.122976E+03	1.754489E-16	4.077756E-18
7.132952E+03	1.751680E-16	4.077553E-18
7.142928E+03	1.749223E-16	4.078198E-18
7.152905E+03	1.747124E-16	4.079705E-18
7.162881E+03	1.745387E-16	4.082087E-18
7.172857E+03	1.744291E-16	4.086002E-18
7.182833E+03	1.743286E-16	4.090167E-18
7.192809E+03	1.742655E-16	4.095241E-18
7.202785E+03	1.742399E-16	4.101233E-18
7.212762E+03	1.742520E-16	4.108154E-18
7.222738E+03	1.743024E-16	4.116016E-18
7.232714E+03	1.743911E-16	4.124827E-18
7.242690E+03	1.745184E-16	4.134593E-18
7.252666E+03	1.746843E-16	4.145325E-18
7.262642E+03	1.748894E-16	4.157035E-18
7.272618E+03	1.751335E-16	4.169726E-18
7.282595E+03	1.754170E-16	4.183408E-18
7.292571E+03	1.757397E-16	4.198086E-18
7.302547E+03	1.761019E-16	4.213766E-18
7.312523E+03	1.765037E-16	4.230458E-18
7.322499E+03	1.769451E-16	4.248166E-18
7.332475E+03	1.774261E-16	4.266894E-18
7.342452E+03	1.779466E-16	4.286645E-18
7.352428E+03	1.785066E-16	4.307425E-18
7.362404E+03	1.791061E-16	4.329238E-18
7.372380E+03	1.797449E-16	4.352082E-18
7.382356E+03	1.804227E-16	4.375959E-18
7.392332E+03	1.811396E-16	4.400873E-18
7.402308E+03	1.818952E-16	4.426821E-18
7.412285E+03	1.826892E-16	4.453801E-18
7.422261E+03	1.835212E-16	4.481810E-18
7.432237E+03	1.843909E-16	4.510841E-18
7.442213E+03	1.852978E-16	4.540895E-18
7.452189E+03	1.862118E-16	4.571230E-18
7.462165E+03	1.871914E-16	4.603292E-18
7.472142E+03	1.882064E-16	4.636344E-18
7.482118E+03	1.892563E-16	4.670382E-18
7.492094E+03	1.903401E-16	4.705382E-18
7.502070E+03	1.914570E-16	4.741334E-18
7.512046E+03	1.926062E-16	4.778220E-18
7.522022E+03	1.937864E-16	4.816017E-18
7.531999E+03	1.949655E-16	4.853927E-18
7.541975E+03	1.962044E-16	4.893472E-18
7.551951E+03	1.974708E-16	4.933854E-18
7.561927E+03	1.987632E-16	4.975043E-18
7.571903E+03	2.000802E-16	5.017006E-18
7.581879E+03	2.013881E-16	5.058900E-18
7.591855E+03	2.027490E-16	5.102294E-18
7.601832E+03	2.041294E-16	5.146346E-18
7.611808E+03	2.055274E-16	5.191016E-18
7.621784E+03	2.069076E-16	5.235413E-18
7.631760E+03	2.083340E-16	5.281156E-18
7.641736E+03	2.097715E-16	5.327365E-18
7.651712E+03	2.112176E-16	5.373976E-18
7.661689E+03	2.126359E-16	5.420071E-18
7.671665E+03	2.140916E-16	5.467307E-18
7.681641E+03	2.155482E-16	5.514762E-18
7.691617E+03	2.170031E-16	5.562368E-18
7.701593E+03	2.184183E-16	5.609155E-18
7.711569E+03	2.198607E-16	5.656839E-18
7.721546E+03	2.212924E-16	5.704450E-18
7.731522E+03	2.226749E-16	5.750995E-18
7.741498E+03	2.240759E-16	5.798220E-18
