#wls	flux	fluxerr
1.548287E+03	8.110591E-03	5.615776E-05
1.586994E+03	7.505213E-03	5.196612E-05
1.625702E+03	6.934562E-03	4.801493E-05
1.664409E+03	6.411270E-03	4.439165E-05
1.703116E+03	5.949352E-03	4.119333E-05
1.741823E+03	5.558175E-03	3.848482E-05
1.780530E+03	5.249913E-03	3.635042E-05
1.819237E+03	5.034599E-03	3.485958E-05
1.857945E+03	4.924308E-03	3.409593E-05
1.896652E+03	4.932289E-03	3.415119E-05
1.935359E+03	5.076857E-03	3.515217E-05
1.974066E+03	5.382766E-03	3.727029E-05
2.012773E+03	5.884278E-03	4.074276E-05
2.051481E+03	6.632919E-03	4.592635E-05
2.090188E+03	7.705030E-03	5.334965E-05
2.128895E+03	9.206605E-03	6.374656E-05
2.167602E+03	1.128162E-02	7.811398E-05
2.206309E+03	1.412042E-02	9.776982E-05
2.245016E+03	1.795420E-02	1.243149E-04
2.283724E+03	2.305368E-02	1.596238E-04
2.322431E+03	2.969731E-02	2.056242E-04
2.361138E+03	3.811935E-02	2.639385E-04
2.399845E+03	4.841243E-02	3.352078E-04
2.438552E+03	6.040073E-02	4.182148E-04
2.477260E+03	7.354357E-02	5.092159E-04
2.515967E+03	8.695793E-02	6.020969E-04
2.554674E+03	9.964152E-02	6.899182E-04
2.593381E+03	1.105897E-01	7.657234E-04
2.632088E+03	1.190321E-01	8.241789E-04
2.670795E+03	1.247267E-01	8.636081E-04
2.709503E+03	1.278276E-01	8.850788E-04
2.748210E+03	1.287296E-01	8.913244E-04
2.786917E+03	1.278947E-01	8.855434E-04
2.825624E+03	1.257933E-01	8.709934E-04
2.864331E+03	1.228600E-01	8.506832E-04
2.903039E+03	1.194782E-01	8.272671E-04
2.912715E+03	1.186028E-01	8.212061E-04
2.922392E+03	1.177242E-01	8.151224E-04
2.932069E+03	1.168493E-01	8.090650E-04
2.941746E+03	1.159817E-01	8.030577E-04
2.951422E+03	1.151280E-01	7.971467E-04
2.961099E+03	1.142914E-01	7.913543E-04
2.970776E+03	1.134753E-01	7.857034E-04
2.980453E+03	1.126859E-01	7.802378E-04
2.990130E+03	1.119265E-01	7.749796E-04
2.999806E+03	1.112061E-01	7.699912E-04
3.009483E+03	1.105220E-01	7.652545E-04
3.019160E+03	1.098860E-01	7.608507E-04
3.028837E+03	1.092958E-01	7.567641E-04
3.038514E+03	1.087628E-01	7.530740E-04
3.048190E+03	1.082853E-01	7.497679E-04
3.057867E+03	1.078722E-01	7.469071E-04
3.067544E+03	1.075295E-01	7.445348E-04
3.077221E+03	1.072589E-01	7.426613E-04
3.086898E+03	1.070695E-01	7.413497E-04
3.096574E+03	1.069634E-01	7.406147E-04
3.106251E+03	1.069478E-01	7.405070E-04
3.115928E+03	1.128040E-01	7.810552E-04
3.117815E+03	1.122175E-01	7.769940E-04
3.119702E+03	1.118363E-01	7.743545E-04
3.121589E+03	1.115909E-01	7.726554E-04
3.123476E+03	1.110989E-01	7.692492E-04
3.125363E+03	1.105658E-01	7.655581E-04
3.127250E+03	1.103171E-01	7.638361E-04
3.129137E+03	1.100400E-01	7.619172E-04
3.131024E+03	1.095921E-01	7.588157E-04
3.132911E+03	1.092705E-01	7.565896E-04
3.134798E+03	1.090375E-01	7.549762E-04
3.136685E+03	1.086748E-01	7.524649E-04
3.138572E+03	1.082868E-01	7.497780E-04
3.140459E+03	1.082656E-01	7.496313E-04
3.142346E+03	1.084089E-01	7.506238E-04
3.144233E+03	1.083214E-01	7.500175E-04
3.146120E+03	1.081262E-01	7.486663E-04
3.148007E+03	1.080545E-01	7.481694E-04
3.149894E+03	1.079321E-01	7.473222E-04
3.151781E+03	1.076894E-01	7.456420E-04
3.153668E+03	1.075132E-01	7.444220E-04
3.155554E+03	1.073433E-01	7.432455E-04
3.157441E+03	1.070911E-01	7.414991E-04
3.159328E+03	1.067534E-01	7.391607E-04
3.161215E+03	1.065328E-01	7.376331E-04
3.163102E+03	1.065654E-01	7.378594E-04
3.164989E+03	1.065728E-01	7.379107E-04
3.166876E+03	1.065612E-01	7.378304E-04
3.168763E+03	1.066194E-01	7.382328E-04
3.170650E+03	1.067599E-01	7.392059E-04
3.172537E+03	1.069607E-01	7.405960E-04
3.174424E+03	1.071647E-01	7.420085E-04
3.176311E+03	1.073751E-01	7.434653E-04
3.178198E+03	1.075317E-01	7.445494E-04
3.180085E+03	1.078436E-01	7.467095E-04
3.181972E+03	1.080288E-01	7.479920E-04
3.183859E+03	1.082395E-01	7.494505E-04
3.185746E+03	1.086531E-01	7.523146E-04
3.187633E+03	1.089813E-01	7.545866E-04
3.189520E+03	1.092809E-01	7.566615E-04
3.191407E+03	1.096695E-01	7.593521E-04
3.193294E+03	1.101375E-01	7.625922E-04
3.195181E+03	1.105104E-01	7.651743E-04
3.197068E+03	1.108326E-01	7.674054E-04
3.198955E+03	1.110471E-01	7.688904E-04
3.200842E+03	1.113885E-01	7.712545E-04
3.202729E+03	1.119681E-01	7.752675E-04
3.204616E+03	1.124336E-01	7.784903E-04
3.206503E+03	1.127245E-01	7.805050E-04
3.208390E+03	1.130220E-01	7.825643E-04
3.210277E+03	1.133829E-01	7.850638E-04
3.212164E+03	1.136678E-01	7.870363E-04
3.214051E+03	1.139560E-01	7.890315E-04
3.215938E+03	1.139901E-01	7.892679E-04
3.217825E+03	1.141641E-01	7.904723E-04
3.219712E+03	1.144588E-01	7.925128E-04
3.221599E+03	1.147122E-01	7.942679E-04
3.223486E+03	1.151978E-01	7.976296E-04
3.225373E+03	1.156294E-01	8.006180E-04
3.227260E+03	1.157592E-01	8.015170E-04
3.229147E+03	1.158477E-01	8.021301E-04
3.231033E+03	1.162542E-01	8.049444E-04
3.232920E+03	1.168356E-01	8.089702E-04
3.234807E+03	1.173790E-01	8.127326E-04
3.236694E+03	1.176873E-01	8.148671E-04
3.238581E+03	1.177380E-01	8.152185E-04
3.240468E+03	1.178365E-01	8.159005E-04
3.242355E+03	1.182818E-01	8.189834E-04
3.244242E+03	1.189307E-01	8.234767E-04
3.246129E+03	1.195067E-01	8.274645E-04
3.248016E+03	1.199268E-01	8.303738E-04
3.249903E+03	1.203249E-01	8.331297E-04
3.251790E+03	1.209076E-01	8.371645E-04
3.253677E+03	1.215159E-01	8.413764E-04
3.255564E+03	1.218857E-01	8.439366E-04
3.257451E+03	1.223860E-01	8.474013E-04
3.259338E+03	1.230330E-01	8.518808E-04
3.261225E+03	1.236642E-01	8.562513E-04
3.263112E+03	1.243179E-01	8.607774E-04
3.264999E+03	1.248507E-01	8.644665E-04
3.266886E+03	1.252244E-01	8.670539E-04
3.268773E+03	1.254740E-01	8.687821E-04
3.270660E+03	1.257937E-01	8.709960E-04
3.272547E+03	1.259988E-01	8.724163E-04
3.274434E+03	1.260065E-01	8.724692E-04
3.276321E+03	1.263360E-01	8.747510E-04
3.278208E+03	1.266911E-01	8.772099E-04
3.280095E+03	1.271388E-01	8.803097E-04
3.281982E+03	1.274177E-01	8.822406E-04
3.283869E+03	1.275181E-01	8.829356E-04
3.285756E+03	1.277557E-01	8.845805E-04
3.287643E+03	1.278849E-01	8.854751E-04
3.289530E+03	1.279950E-01	8.862377E-04
3.291417E+03	1.282073E-01	8.877074E-04
3.293304E+03	1.284228E-01	8.891996E-04
3.295191E+03	1.287979E-01	8.917970E-04
3.297078E+03	1.293359E-01	8.955218E-04
3.298965E+03	1.296985E-01	8.980325E-04
3.300852E+03	1.297675E-01	8.985108E-04
3.302739E+03	1.298845E-01	8.993209E-04
3.304626E+03	1.303368E-01	9.024523E-04
3.306512E+03	1.307604E-01	9.053857E-04
3.308399E+03	1.309831E-01	9.069270E-04
3.310286E+03	1.311866E-01	9.083364E-04
3.312173E+03	1.317096E-01	9.119575E-04
3.314060E+03	1.319069E-01	9.133238E-04
3.315947E+03	1.318935E-01	9.132308E-04
3.317834E+03	1.321325E-01	9.148855E-04
3.319721E+03	1.323332E-01	9.162753E-04
3.321608E+03	1.321889E-01	9.152760E-04
3.323495E+03	1.322075E-01	9.154051E-04
3.325382E+03	1.326737E-01	9.186330E-04
3.327269E+03	1.330633E-01	9.213307E-04
3.329156E+03	1.332580E-01	9.226789E-04
3.331043E+03	1.336446E-01	9.253559E-04
3.332930E+03	1.341657E-01	9.289637E-04
3.334817E+03	1.342360E-01	9.294501E-04
3.336704E+03	1.340312E-01	9.280321E-04
3.338591E+03	1.340151E-01	9.279209E-04
3.340478E+03	1.339543E-01	9.274998E-04
3.342365E+03	1.336375E-01	9.253062E-04
3.344252E+03	1.334486E-01	9.239987E-04
3.346139E+03	1.332918E-01	9.229126E-04
3.348026E+03	1.330069E-01	9.209400E-04
3.349913E+03	1.327796E-01	9.193661E-04
3.351800E+03	1.327219E-01	9.189669E-04
3.353687E+03	1.326995E-01	9.188117E-04
3.355574E+03	1.328469E-01	9.198320E-04
3.357461E+03	1.328726E-01	9.200100E-04
3.359348E+03	1.327285E-01	9.190127E-04
3.361235E+03	1.326742E-01	9.186365E-04
3.363122E+03	1.326839E-01	9.187040E-04
3.365009E+03	1.325848E-01	9.180174E-04
3.366896E+03	1.324792E-01	9.172864E-04
3.368783E+03	1.322102E-01	9.154237E-04
3.370670E+03	1.319347E-01	9.135163E-04
3.372557E+03	1.319509E-01	9.136286E-04
3.374444E+03	1.316530E-01	9.115654E-04
3.376331E+03	1.314608E-01	9.102348E-04
3.378218E+03	1.314835E-01	9.103919E-04
3.380105E+03	1.315286E-01	9.107046E-04
3.381991E+03	1.313525E-01	9.094851E-04
3.383878E+03	1.312116E-01	9.085096E-04
3.385765E+03	1.311638E-01	9.081785E-04
3.387652E+03	1.307405E-01	9.052478E-04
3.389539E+03	1.307633E-01	9.054055E-04
3.391426E+03	1.307733E-01	9.054746E-04
3.393313E+03	1.309502E-01	9.066999E-04
3.395200E+03	1.311979E-01	9.084146E-04
3.397087E+03	1.310796E-01	9.075955E-04
3.398974E+03	1.310672E-01	9.075099E-04
3.400861E+03	1.310678E-01	9.075137E-04
3.402748E+03	1.310973E-01	9.077177E-04
3.404635E+03	1.309983E-01	9.070323E-04
3.406522E+03	1.309924E-01	9.069920E-04
3.408409E+03	1.309449E-01	9.066628E-04
3.410296E+03	1.308973E-01	9.063336E-04
3.412183E+03	1.308627E-01	9.060935E-04
3.414070E+03	1.306866E-01	9.048742E-04
3.415957E+03	1.303690E-01	9.026752E-04
3.417844E+03	1.296365E-01	8.976035E-04
3.419731E+03	1.292030E-01	8.946016E-04
3.421618E+03	1.290781E-01	8.937374E-04
3.423505E+03	1.289147E-01	8.926058E-04
3.425392E+03	1.287416E-01	8.914074E-04
3.427279E+03	1.285524E-01	8.900973E-04
3.429166E+03	1.282345E-01	8.878957E-04
3.431053E+03	1.280742E-01	8.867860E-04
3.432940E+03	1.283356E-01	8.885959E-04
3.434827E+03	1.285810E-01	8.902950E-04
3.436714E+03	1.285496E-01	8.900775E-04
3.438601E+03	1.287082E-01	8.911756E-04
3.440488E+03	1.288701E-01	8.922966E-04
3.442375E+03	1.291222E-01	8.940426E-04
3.444262E+03	1.294872E-01	8.965700E-04
3.446149E+03	1.297074E-01	8.980943E-04
3.448036E+03	1.298148E-01	8.988384E-04
3.449923E+03	1.302608E-01	9.019259E-04
3.451810E+03	1.306843E-01	9.048582E-04
3.453697E+03	1.308049E-01	9.056933E-04
3.455584E+03	1.309384E-01	9.066182E-04
3.457470E+03	1.310721E-01	9.075435E-04
3.459357E+03	1.313154E-01	9.092285E-04
3.461244E+03	1.316460E-01	9.115172E-04
3.463131E+03	1.320831E-01	9.145441E-04
3.465018E+03	1.327431E-01	9.191137E-04
3.466905E+03	1.334775E-01	9.241988E-04
3.468792E+03	1.341670E-01	9.289730E-04
3.470679E+03	1.345954E-01	9.319388E-04
3.472566E+03	1.352241E-01	9.362920E-04
3.474453E+03	1.357046E-01	9.396188E-04
3.476340E+03	1.361756E-01	9.428804E-04
3.478227E+03	1.367406E-01	9.467921E-04
3.480114E+03	1.374382E-01	9.516228E-04
3.482001E+03	1.380878E-01	9.561204E-04
3.483888E+03	1.391254E-01	9.633049E-04
3.485775E+03	1.400634E-01	9.697991E-04
3.487662E+03	1.409856E-01	9.761845E-04
3.489549E+03	1.420214E-01	9.833564E-04
3.491436E+03	1.429736E-01	9.899499E-04
3.493323E+03	1.437615E-01	9.954050E-04
3.495210E+03	1.446307E-01	1.001423E-03
3.497097E+03	1.457623E-01	1.009259E-03
3.498984E+03	1.467781E-01	1.016292E-03
3.500871E+03	1.476262E-01	1.022164E-03
3.502758E+03	1.484717E-01	1.028018E-03
3.504645E+03	1.493435E-01	1.034055E-03
3.506532E+03	1.500994E-01	1.039289E-03
3.508419E+03	1.511667E-01	1.046678E-03
3.510306E+03	1.521375E-01	1.053400E-03
3.512193E+03	1.529373E-01	1.058938E-03
3.514080E+03	1.540745E-01	1.066813E-03
3.515967E+03	1.554167E-01	1.076105E-03
3.517854E+03	1.563481E-01	1.082555E-03
3.519741E+03	1.570372E-01	1.087326E-03
3.521628E+03	1.577724E-01	1.092416E-03
3.523515E+03	1.585957E-01	1.098117E-03
3.525402E+03	1.592868E-01	1.102902E-03
3.527289E+03	1.596478E-01	1.105402E-03
3.529176E+03	1.602234E-01	1.109387E-03
3.531063E+03	1.608938E-01	1.114029E-03
3.532949E+03	1.613896E-01	1.117462E-03
3.534836E+03	1.620580E-01	1.122090E-03
3.536723E+03	1.626687E-01	1.126319E-03
3.538610E+03	1.631989E-01	1.129990E-03
3.540497E+03	1.636550E-01	1.133148E-03
3.542384E+03	1.640825E-01	1.136107E-03
3.544271E+03	1.645268E-01	1.139184E-03
3.546158E+03	1.649652E-01	1.142219E-03
3.548045E+03	1.654074E-01	1.145282E-03
3.549932E+03	1.653918E-01	1.145174E-03
3.551819E+03	1.655815E-01	1.146487E-03
3.553706E+03	1.658627E-01	1.148434E-03
3.555593E+03	1.661640E-01	1.150520E-03
3.557480E+03	1.663454E-01	1.151776E-03
3.559367E+03	1.663157E-01	1.151570E-03
3.561254E+03	1.662440E-01	1.151074E-03
3.563141E+03	1.663843E-01	1.152045E-03
3.565028E+03	1.666586E-01	1.153945E-03
3.566915E+03	1.664349E-01	1.152396E-03
3.568802E+03	1.664103E-01	1.152226E-03
3.570689E+03	1.667413E-01	1.154518E-03
3.572576E+03	1.668805E-01	1.155481E-03
3.574463E+03	1.664429E-01	1.152451E-03
3.576350E+03	1.663675E-01	1.151929E-03
3.578237E+03	1.665632E-01	1.153284E-03
3.580124E+03	1.665374E-01	1.153106E-03
3.582011E+03	1.666491E-01	1.153879E-03
3.583898E+03	1.667546E-01	1.154610E-03
3.585785E+03	1.669651E-01	1.156067E-03
3.587672E+03	1.673328E-01	1.158613E-03
3.589559E+03	1.675572E-01	1.160167E-03
3.591446E+03	1.678965E-01	1.162516E-03
3.593333E+03	1.677524E-01	1.161518E-03
3.595220E+03	1.677459E-01	1.161473E-03
3.597107E+03	1.678345E-01	1.162087E-03
3.598994E+03	1.682966E-01	1.165286E-03
3.600881E+03	1.684221E-01	1.166155E-03
3.602768E+03	1.684530E-01	1.166369E-03
3.604655E+03	1.684188E-01	1.166132E-03
3.606542E+03	1.683324E-01	1.165534E-03
3.608428E+03	1.681905E-01	1.164551E-03
3.610315E+03	1.681636E-01	1.164365E-03
3.612202E+03	1.683402E-01	1.165588E-03
3.614089E+03	1.683598E-01	1.165724E-03
3.615976E+03	1.682124E-01	1.164703E-03
3.617863E+03	1.682423E-01	1.164910E-03
3.619750E+03	1.682594E-01	1.165029E-03
3.621637E+03	1.684082E-01	1.166059E-03
3.623524E+03	1.686986E-01	1.168069E-03
3.625411E+03	1.690157E-01	1.170265E-03
3.627298E+03	1.690966E-01	1.170825E-03
3.629185E+03	1.692271E-01	1.171729E-03
3.631072E+03	1.696572E-01	1.174707E-03
3.632959E+03	1.699234E-01	1.176550E-03
3.634846E+03	1.701669E-01	1.178236E-03
3.636733E+03	1.702792E-01	1.179014E-03
3.638620E+03	1.703226E-01	1.179314E-03
3.640507E+03	1.704750E-01	1.180369E-03
3.642394E+03	1.707068E-01	1.181974E-03
3.644281E+03	1.708005E-01	1.182623E-03
3.646168E+03	1.705978E-01	1.181220E-03
3.648055E+03	1.705832E-01	1.181119E-03
3.649942E+03	1.705853E-01	1.181133E-03
3.651829E+03	1.708484E-01	1.182955E-03
3.653716E+03	1.712108E-01	1.185464E-03
3.655603E+03	1.714714E-01	1.187268E-03
3.657490E+03	1.716861E-01	1.188755E-03
3.659377E+03	1.716797E-01	1.188711E-03
3.661264E+03	1.716305E-01	1.188370E-03
3.663151E+03	1.719288E-01	1.190435E-03
3.665038E+03	1.722141E-01	1.192411E-03
3.666925E+03	1.723146E-01	1.193107E-03
3.668812E+03	1.724219E-01	1.193850E-03
3.670699E+03	1.726223E-01	1.195237E-03
3.672586E+03	1.729190E-01	1.197291E-03
3.674473E+03	1.731730E-01	1.199050E-03
3.676360E+03	1.737886E-01	1.203313E-03
3.678247E+03	1.740235E-01	1.204939E-03
3.680134E+03	1.742356E-01	1.206408E-03
3.682021E+03	1.744811E-01	1.208108E-03
3.683907E+03	1.745942E-01	1.208891E-03
3.685794E+03	1.746146E-01	1.209032E-03
3.687681E+03	1.750271E-01	1.211888E-03
3.689568E+03	1.756726E-01	1.216357E-03
3.691455E+03	1.759331E-01	1.218162E-03
3.693342E+03	1.761076E-01	1.219369E-03
3.695229E+03	1.764652E-01	1.221846E-03
3.697116E+03	1.768133E-01	1.224256E-03
3.699003E+03	1.771817E-01	1.226807E-03
3.700890E+03	1.774773E-01	1.228853E-03
3.702777E+03	1.775300E-01	1.229218E-03
3.704664E+03	1.776196E-01	1.229839E-03
3.706551E+03	1.778627E-01	1.231522E-03
3.708438E+03	1.779161E-01	1.231891E-03
3.710325E+03	1.777694E-01	1.230876E-03
3.712212E+03	1.778931E-01	1.231732E-03
3.714099E+03	1.781104E-01	1.233237E-03
3.715986E+03	1.783347E-01	1.234790E-03
3.717873E+03	1.783922E-01	1.235188E-03
3.719760E+03	1.784299E-01	1.235449E-03
3.721647E+03	1.789055E-01	1.238742E-03
3.723534E+03	1.793549E-01	1.241854E-03
3.725421E+03	1.795872E-01	1.243462E-03
3.727308E+03	1.797863E-01	1.244841E-03
3.729195E+03	1.799120E-01	1.245711E-03
3.731082E+03	1.802925E-01	1.248345E-03
3.732969E+03	1.805560E-01	1.250170E-03
3.734856E+03	1.807997E-01	1.251857E-03
3.736743E+03	1.811542E-01	1.254312E-03
3.738630E+03	1.815662E-01	1.257165E-03
3.740517E+03	1.819751E-01	1.259996E-03
3.742404E+03	1.824683E-01	1.263411E-03
3.744291E+03	1.831668E-01	1.268247E-03
3.746178E+03	1.834224E-01	1.270018E-03
3.748065E+03	1.836582E-01	1.271650E-03
3.749952E+03	1.840186E-01	1.274145E-03
3.751839E+03	1.844633E-01	1.277225E-03
3.753726E+03	1.850733E-01	1.281448E-03
3.755613E+03	1.853203E-01	1.283158E-03
3.757500E+03	1.856214E-01	1.285243E-03
3.759386E+03	1.861754E-01	1.289079E-03
3.761273E+03	1.870026E-01	1.294807E-03
3.763160E+03	1.877328E-01	1.299862E-03
3.765047E+03	1.881197E-01	1.302541E-03
3.766934E+03	1.885709E-01	1.305666E-03
3.768821E+03	1.892824E-01	1.310592E-03
3.770708E+03	1.898762E-01	1.314703E-03
3.772595E+03	1.903895E-01	1.318257E-03
3.774482E+03	1.907917E-01	1.321042E-03
3.776369E+03	1.912382E-01	1.324134E-03
3.778256E+03	1.914112E-01	1.325332E-03
3.780143E+03	1.915235E-01	1.326109E-03
3.782030E+03	1.914499E-01	1.325599E-03
3.783917E+03	1.914675E-01	1.325722E-03
3.785804E+03	1.916544E-01	1.327016E-03
3.787691E+03	1.921395E-01	1.330374E-03
3.789578E+03	1.925300E-01	1.333078E-03
3.791465E+03	1.929547E-01	1.336019E-03
3.793352E+03	1.930645E-01	1.336779E-03
3.795239E+03	1.933710E-01	1.338901E-03
3.797126E+03	1.935589E-01	1.340203E-03
3.799013E+03	1.938318E-01	1.342092E-03
3.800900E+03	1.941660E-01	1.344406E-03
3.802787E+03	1.943273E-01	1.345522E-03
3.804674E+03	1.942847E-01	1.345228E-03
3.806561E+03	1.944324E-01	1.346250E-03
3.808448E+03	1.945291E-01	1.346920E-03
3.810335E+03	1.945375E-01	1.346978E-03
3.812222E+03	1.946479E-01	1.347743E-03
3.814109E+03	1.949319E-01	1.349709E-03
3.815996E+03	1.950833E-01	1.350757E-03
3.817883E+03	1.951291E-01	1.351075E-03
3.819770E+03	1.952431E-01	1.351863E-03
3.821657E+03	1.955173E-01	1.353762E-03
3.823544E+03	1.956484E-01	1.354670E-03
3.825431E+03	1.956703E-01	1.354822E-03
3.827318E+03	1.957093E-01	1.355091E-03
3.829205E+03	1.958472E-01	1.356046E-03
3.831092E+03	1.959032E-01	1.356434E-03
3.832979E+03	1.959147E-01	1.356514E-03
3.834865E+03	1.957996E-01	1.355717E-03
3.836752E+03	1.954450E-01	1.353262E-03
3.838639E+03	1.950662E-01	1.350639E-03
3.840526E+03	1.949299E-01	1.349695E-03
3.842413E+03	1.949234E-01	1.349650E-03
3.844300E+03	1.950094E-01	1.350245E-03
3.846187E+03	1.948589E-01	1.349203E-03
3.848074E+03	1.946876E-01	1.348017E-03
3.849961E+03	1.945572E-01	1.347115E-03
3.851848E+03	1.945775E-01	1.347255E-03
3.853735E+03	1.946320E-01	1.347633E-03
3.855622E+03	1.946316E-01	1.347629E-03
3.857509E+03	1.944868E-01	1.346627E-03
3.859396E+03	1.944894E-01	1.346645E-03
3.861283E+03	1.945778E-01	1.347258E-03
3.863170E+03	1.948140E-01	1.348892E-03
3.865057E+03	1.951361E-01	1.351123E-03
3.866944E+03	1.953345E-01	1.352497E-03
3.868831E+03	1.954641E-01	1.353394E-03
3.870718E+03	1.955420E-01	1.353933E-03
3.872605E+03	1.958195E-01	1.355855E-03
3.874492E+03	1.959835E-01	1.356990E-03
3.876379E+03	1.960370E-01	1.357361E-03
3.878266E+03	1.961526E-01	1.358161E-03
3.880153E+03	1.963818E-01	1.359748E-03
3.882040E+03	1.963972E-01	1.359855E-03
3.883927E+03	1.962019E-01	1.358503E-03
3.885814E+03	1.962031E-01	1.358511E-03
3.887701E+03	1.963526E-01	1.359546E-03
3.889588E+03	1.965193E-01	1.360700E-03
3.891475E+03	1.965580E-01	1.360968E-03
3.893362E+03	1.965344E-01	1.360805E-03
3.895249E+03	1.965832E-01	1.361143E-03
3.897136E+03	1.966353E-01	1.361503E-03
3.899023E+03	1.966630E-01	1.361695E-03
3.900910E+03	1.965486E-01	1.360903E-03
3.902797E+03	1.964028E-01	1.359894E-03
3.904684E+03	1.964299E-01	1.360081E-03
3.906571E+03	1.965019E-01	1.360579E-03
3.908458E+03	1.964523E-01	1.360236E-03
3.910344E+03	1.962742E-01	1.359003E-03
3.912231E+03	1.961062E-01	1.357840E-03
3.914118E+03	1.959621E-01	1.356842E-03
3.916005E+03	1.958525E-01	1.356083E-03
3.917892E+03	1.956869E-01	1.354937E-03
3.919779E+03	1.955523E-01	1.354005E-03
3.921666E+03	1.955634E-01	1.354081E-03
3.923553E+03	1.955186E-01	1.353771E-03
3.925440E+03	1.952579E-01	1.351966E-03
3.927327E+03	1.950664E-01	1.350640E-03
3.929214E+03	1.950346E-01	1.350420E-03
3.931101E+03	1.950025E-01	1.350198E-03
3.932988E+03	1.950294E-01	1.350384E-03
3.934875E+03	1.949271E-01	1.349676E-03
3.936762E+03	1.945946E-01	1.347374E-03
3.938649E+03	1.944185E-01	1.346154E-03
3.940536E+03	1.944232E-01	1.346187E-03
3.942423E+03	1.946231E-01	1.347571E-03
3.944310E+03	1.948507E-01	1.349147E-03
3.946197E+03	1.949386E-01	1.349756E-03
3.948084E+03	1.950159E-01	1.350290E-03
3.949971E+03	1.954945E-01	1.353605E-03
3.951858E+03	1.961479E-01	1.358128E-03
3.953745E+03	1.965148E-01	1.360669E-03
3.955632E+03	1.967314E-01	1.362169E-03
3.957519E+03	1.970632E-01	1.364466E-03
3.959406E+03	1.975839E-01	1.368071E-03
3.961293E+03	1.978876E-01	1.370174E-03
3.963180E+03	1.980932E-01	1.371598E-03
3.965067E+03	1.983022E-01	1.373045E-03
3.966954E+03	1.983534E-01	1.373400E-03
3.968841E+03	1.985620E-01	1.374844E-03
3.970728E+03	1.988440E-01	1.376796E-03
3.972615E+03	1.990978E-01	1.378554E-03
