#wls	flux	fluxerr
1.548287E+03	3.035215E-03	6.630161E-05
1.586994E+03	2.912243E-03	6.361540E-05
1.625702E+03	2.809999E-03	6.138198E-05
1.664409E+03	2.731182E-03	5.966027E-05
1.703116E+03	2.678272E-03	5.850449E-05
1.741823E+03	2.654516E-03	5.798556E-05
1.780530E+03	2.663370E-03	5.817897E-05
1.819237E+03	2.710305E-03	5.920421E-05
1.857945E+03	2.800569E-03	6.117596E-05
1.896652E+03	2.942295E-03	6.427182E-05
1.935359E+03	3.146021E-03	6.872203E-05
1.974066E+03	3.425492E-03	7.482682E-05
2.012773E+03	3.797652E-03	8.295633E-05
2.051481E+03	4.286435E-03	9.363335E-05
2.090188E+03	4.921367E-03	1.075029E-04
2.128895E+03	5.738800E-03	1.253589E-04
2.167602E+03	6.783653E-03	1.481828E-04
2.206309E+03	8.109593E-03	1.771468E-04
2.245016E+03	9.774724E-03	2.135201E-04
2.283724E+03	1.183805E-02	2.585917E-04
2.322431E+03	1.435397E-02	3.135495E-04
2.361138E+03	1.735173E-02	3.790328E-04
2.399845E+03	2.082936E-02	4.549985E-04
2.438552E+03	2.471944E-02	5.399739E-04
2.477260E+03	2.889249E-02	6.311302E-04
2.515967E+03	3.312627E-02	7.236133E-04
2.554674E+03	3.715892E-02	8.117029E-04
2.593381E+03	4.074888E-02	8.901223E-04
2.632088E+03	4.373440E-02	9.553382E-04
2.670795E+03	4.603202E-02	1.005527E-03
2.709503E+03	4.760718E-02	1.039935E-03
2.748210E+03	4.849816E-02	1.059398E-03
2.786917E+03	4.877567E-02	1.065460E-03
2.825624E+03	4.854967E-02	1.060523E-03
2.864331E+03	4.794961E-02	1.047415E-03
2.903039E+03	4.711248E-02	1.029129E-03
2.912715E+03	4.688339E-02	1.024125E-03
2.922392E+03	4.664719E-02	1.018965E-03
2.932069E+03	4.640778E-02	1.013735E-03
2.941746E+03	4.616884E-02	1.008516E-03
2.951422E+03	4.593168E-02	1.003335E-03
2.961099E+03	4.569527E-02	9.981711E-04
2.970776E+03	4.546302E-02	9.930978E-04
2.980453E+03	4.523604E-02	9.881397E-04
2.990130E+03	4.501537E-02	9.833194E-04
2.999806E+03	4.480399E-02	9.787020E-04
3.009483E+03	4.460074E-02	9.742621E-04
3.019160E+03	4.441036E-02	9.701035E-04
3.028837E+03	4.422961E-02	9.661551E-04
3.038514E+03	4.406486E-02	9.625562E-04
3.048190E+03	4.391091E-02	9.591933E-04
3.057867E+03	4.377384E-02	9.561992E-04
3.067544E+03	4.365206E-02	9.535389E-04
3.077221E+03	4.354765E-02	9.512582E-04
3.086898E+03	4.345895E-02	9.493207E-04
3.096574E+03	4.338776E-02	9.477655E-04
3.106251E+03	4.333578E-02	9.466301E-04
3.115928E+03	4.330110E-02	9.458724E-04
3.125605E+03	4.328514E-02	9.455239E-04
3.135282E+03	4.328921E-02	9.456128E-04
3.144958E+03	4.331275E-02	9.461269E-04
3.154635E+03	4.335354E-02	9.470181E-04
3.164312E+03	4.341409E-02	9.483407E-04
3.173989E+03	4.349354E-02	9.500761E-04
3.183666E+03	4.358938E-02	9.521697E-04
3.193342E+03	4.370367E-02	9.546661E-04
3.203019E+03	4.383519E-02	9.575392E-04
3.212696E+03	4.398413E-02	9.607927E-04
3.222373E+03	4.414765E-02	9.643644E-04
3.232050E+03	4.432430E-02	9.682232E-04
3.241726E+03	4.451682E-02	9.724286E-04
3.251403E+03	4.472070E-02	9.768823E-04
3.261080E+03	4.493564E-02	9.815775E-04
3.270757E+03	4.515982E-02	9.864745E-04
3.280434E+03	4.539279E-02	9.915635E-04
3.290110E+03	4.563391E-02	9.968304E-04
3.299787E+03	4.587848E-02	1.002173E-03
3.309464E+03	4.612709E-02	1.007603E-03
3.319141E+03	4.637756E-02	1.013075E-03
3.328817E+03	4.662634E-02	1.018509E-03
3.338494E+03	4.687121E-02	1.023858E-03
3.348171E+03	4.711244E-02	1.029128E-03
3.357848E+03	4.734443E-02	1.034195E-03
3.367525E+03	4.756698E-02	1.039056E-03
3.377201E+03	4.777843E-02	1.043675E-03
3.386878E+03	4.797526E-02	1.047975E-03
3.396555E+03	4.815663E-02	1.051937E-03
3.406232E+03	4.831955E-02	1.055496E-03
3.415909E+03	4.846338E-02	1.058637E-03
3.425585E+03	4.858625E-02	1.061321E-03
3.435262E+03	4.868527E-02	1.063484E-03
3.444939E+03	4.875856E-02	1.065085E-03
3.454616E+03	4.880541E-02	1.066109E-03
3.464293E+03	4.882298E-02	1.066493E-03
3.473969E+03	4.880957E-02	1.066200E-03
3.483646E+03	4.876259E-02	1.065173E-03
3.493323E+03	4.867971E-02	1.063363E-03
3.503000E+03	4.856069E-02	1.060763E-03
3.512677E+03	4.840359E-02	1.057331E-03
3.522353E+03	4.820856E-02	1.053071E-03
3.532030E+03	4.797595E-02	1.047990E-03
3.541707E+03	4.770633E-02	1.042100E-03
3.551384E+03	4.740046E-02	1.035419E-03
3.561061E+03	4.705933E-02	1.027967E-03
3.570737E+03	4.668414E-02	1.019771E-03
3.580414E+03	4.627635E-02	1.010864E-03
3.590091E+03	4.583687E-02	1.001264E-03
3.599768E+03	4.536920E-02	9.910478E-04
3.609445E+03	4.487394E-02	9.802292E-04
3.619121E+03	4.435341E-02	9.688588E-04
3.628798E+03	4.381019E-02	9.569926E-04
3.638475E+03	4.324772E-02	9.447059E-04
3.648152E+03	4.266741E-02	9.320296E-04
3.657829E+03	4.207298E-02	9.190449E-04
3.667505E+03	4.146745E-02	9.058176E-04
3.677182E+03	4.085335E-02	8.924032E-04
3.686859E+03	4.023388E-02	8.788714E-04
3.696536E+03	3.961229E-02	8.652934E-04
3.706213E+03	3.899184E-02	8.517403E-04
3.715889E+03	3.837518E-02	8.382699E-04
3.725566E+03	3.776616E-02	8.249663E-04
3.735243E+03	3.716739E-02	8.118868E-04
3.744920E+03	3.658202E-02	7.991000E-04
3.754596E+03	3.601374E-02	7.866864E-04
3.764273E+03	3.546454E-02	7.746896E-04
3.773950E+03	3.493749E-02	7.631767E-04
3.783627E+03	3.443609E-02	7.522240E-04
3.793304E+03	3.396324E-02	7.418951E-04
3.802980E+03	3.352143E-02	7.322442E-04
3.812657E+03	3.311364E-02	7.233364E-04
3.822334E+03	3.274282E-02	7.152361E-04
3.832011E+03	3.241199E-02	7.080094E-04
3.841688E+03	3.212426E-02	7.017244E-04
3.851364E+03	3.188286E-02	6.964510E-04
3.861041E+03	3.169066E-02	6.922527E-04
3.870666E+03	1.892157E-02	4.133240E-04
3.873187E+03	1.889397E-02	4.127210E-04
3.875706E+03	1.935496E-02	4.227910E-04
3.878227E+03	1.970097E-02	4.303491E-04
3.885788E+03	2.000405E-02	4.369697E-04
3.888308E+03	2.080673E-02	4.545035E-04
3.895870E+03	2.211882E-02	4.831648E-04
3.898391E+03	2.277123E-02	4.974160E-04
3.900911E+03	2.370316E-02	5.177731E-04
3.903430E+03	2.439223E-02	5.328252E-04
3.908472E+03	2.550338E-02	5.570973E-04
3.910992E+03	2.578165E-02	5.631759E-04
3.913513E+03	2.613652E-02	5.709278E-04
3.918553E+03	2.636989E-02	5.760255E-04
3.921074E+03	2.610620E-02	5.702654E-04
3.923594E+03	2.633289E-02	5.752172E-04
3.926115E+03	2.660583E-02	5.811793E-04
3.928635E+03	2.662942E-02	5.816946E-04
3.931155E+03	2.696925E-02	5.891179E-04
3.933676E+03	2.691116E-02	5.878489E-04
3.938717E+03	2.681866E-02	5.858284E-04
3.941237E+03	2.650149E-02	5.789002E-04
3.943757E+03	2.675933E-02	5.845324E-04
3.946277E+03	2.649629E-02	5.787866E-04
3.948798E+03	2.626992E-02	5.738418E-04
3.951318E+03	2.663602E-02	5.818388E-04
3.953839E+03	2.660592E-02	5.811813E-04
3.956360E+03	2.672583E-02	5.838006E-04
3.958879E+03	2.669070E-02	5.830332E-04
3.961400E+03	2.722075E-02	5.946117E-04
3.963920E+03	2.778896E-02	6.070237E-04
3.966441E+03	2.798496E-02	6.113051E-04
3.968961E+03	2.865020E-02	6.258367E-04
3.971482E+03	2.877883E-02	6.286465E-04
3.974002E+03	2.926648E-02	6.392987E-04
3.976522E+03	2.948898E-02	6.441589E-04
3.979043E+03	3.038799E-02	6.637970E-04
3.981563E+03	3.095319E-02	6.761434E-04
3.984084E+03	3.085598E-02	6.740197E-04
3.986603E+03	3.113197E-02	6.800486E-04
3.989124E+03	3.112382E-02	6.798705E-04
3.991645E+03	3.102623E-02	6.777387E-04
3.994165E+03	3.169408E-02	6.923274E-04
3.996686E+03	3.211124E-02	7.014399E-04
3.999206E+03	3.289494E-02	7.185589E-04
4.001726E+03	3.364957E-02	7.350431E-04
4.004246E+03	3.485022E-02	7.612701E-04
4.006767E+03	3.495377E-02	7.635322E-04
4.009288E+03	3.636875E-02	7.944410E-04
4.011808E+03	3.678723E-02	8.035823E-04
4.014328E+03	3.658889E-02	7.992499E-04
4.016848E+03	3.640318E-02	7.951931E-04
4.019369E+03	3.674612E-02	8.026843E-04
4.021890E+03	3.716523E-02	8.118393E-04
4.024410E+03	3.714140E-02	8.113189E-04
4.026931E+03	3.837975E-02	8.383694E-04
4.029450E+03	3.928165E-02	8.580705E-04
4.031971E+03	3.983773E-02	8.702177E-04
4.034492E+03	4.059548E-02	8.867701E-04
4.037012E+03	4.131935E-02	9.025822E-04
4.039533E+03	4.255322E-02	9.295350E-04
4.042052E+03	4.402649E-02	9.617172E-04
4.044573E+03	4.531771E-02	9.899226E-04
4.047094E+03	4.650964E-02	1.015959E-03
4.049614E+03	4.673786E-02	1.020945E-03
4.052134E+03	4.725646E-02	1.032273E-03
4.054656E+03	4.798108E-02	1.048101E-03
4.057175E+03	4.797785E-02	1.048031E-03
4.059696E+03	4.840459E-02	1.057353E-03
4.062216E+03	4.824046E-02	1.053767E-03
4.064736E+03	4.799683E-02	1.048445E-03
4.067257E+03	4.848914E-02	1.059200E-03
4.069777E+03	4.872244E-02	1.064296E-03
4.072297E+03	4.872703E-02	1.064396E-03
4.074818E+03	4.904045E-02	1.071242E-03
4.077338E+03	4.958956E-02	1.083237E-03
4.079859E+03	5.008739E-02	1.094112E-03
4.082379E+03	4.992741E-02	1.090617E-03
4.084898E+03	5.054624E-02	1.104135E-03
4.087419E+03	5.108052E-02	1.115806E-03
4.089940E+03	5.141325E-02	1.123074E-03
4.092461E+03	5.134210E-02	1.121520E-03
4.094981E+03	5.168345E-02	1.128976E-03
4.097500E+03	5.172078E-02	1.129792E-03
4.100021E+03	5.184783E-02	1.132567E-03
4.102542E+03	5.250534E-02	1.146930E-03
4.105063E+03	5.298049E-02	1.157309E-03
4.107583E+03	5.295930E-02	1.156846E-03
4.110104E+03	5.297565E-02	1.157203E-03
4.112623E+03	5.259725E-02	1.148937E-03
4.115144E+03	5.286071E-02	1.154692E-03
4.117665E+03	5.335225E-02	1.165429E-03
4.120185E+03	5.366187E-02	1.172193E-03
4.122706E+03	5.317220E-02	1.161497E-03
4.125225E+03	5.344479E-02	1.167451E-03
4.127746E+03	5.359088E-02	1.170642E-03
4.130266E+03	5.331798E-02	1.164681E-03
4.132787E+03	5.285778E-02	1.154628E-03
4.135308E+03	5.273249E-02	1.151891E-03
4.137828E+03	5.290244E-02	1.155604E-03
4.140348E+03	5.278755E-02	1.153094E-03
4.142869E+03	5.255466E-02	1.148007E-03
4.145389E+03	5.267478E-02	1.150631E-03
4.147909E+03	5.299372E-02	1.157598E-03
4.150430E+03	5.378561E-02	1.174896E-03
4.152950E+03	5.456702E-02	1.191965E-03
4.155471E+03	5.461097E-02	1.192925E-03
4.157991E+03	5.459029E-02	1.192473E-03
4.160511E+03	5.481189E-02	1.197314E-03
4.163032E+03	5.504853E-02	1.202483E-03
4.165553E+03	5.508125E-02	1.203198E-03
4.168073E+03	5.534959E-02	1.209059E-03
4.170593E+03	5.546887E-02	1.211665E-03
4.173113E+03	5.553922E-02	1.213202E-03
4.175634E+03	5.501292E-02	1.201705E-03
4.178155E+03	5.480340E-02	1.197129E-03
4.180674E+03	5.460464E-02	1.192787E-03
4.183195E+03	5.469862E-02	1.194840E-03
4.185715E+03	5.515964E-02	1.204910E-03
4.188236E+03	5.489907E-02	1.199218E-03
4.190757E+03	5.452635E-02	1.191076E-03
4.193277E+03	5.407746E-02	1.181271E-03
4.195796E+03	5.353080E-02	1.169330E-03
4.198318E+03	5.311631E-02	1.160276E-03
4.200838E+03	5.275935E-02	1.152478E-03
4.203358E+03	5.298563E-02	1.157421E-03
4.205878E+03	5.289962E-02	1.155542E-03
4.208398E+03	5.350894E-02	1.168852E-03
4.210919E+03	5.378110E-02	1.174797E-03
4.213440E+03	5.378632E-02	1.174911E-03
4.215960E+03	5.337357E-02	1.165895E-03
4.218480E+03	5.296711E-02	1.157016E-03
4.221001E+03	5.274756E-02	1.152221E-03
4.223521E+03	5.307890E-02	1.159458E-03
4.226041E+03	5.362529E-02	1.171394E-03
4.228562E+03	5.455122E-02	1.191620E-03
4.231083E+03	5.497173E-02	1.200805E-03
4.233603E+03	5.564366E-02	1.215483E-03
4.236123E+03	5.704944E-02	1.246191E-03
4.238643E+03	5.802237E-02	1.267444E-03
4.241163E+03	5.778761E-02	1.262316E-03
4.243684E+03	5.785198E-02	1.263722E-03
4.246205E+03	5.840348E-02	1.275769E-03
4.248726E+03	5.900425E-02	1.288892E-03
4.251245E+03	5.932792E-02	1.295962E-03
4.253766E+03	5.963219E-02	1.302609E-03
4.256286E+03	6.005167E-02	1.311772E-03
4.258807E+03	6.023462E-02	1.315768E-03
4.261328E+03	6.051138E-02	1.321814E-03
4.263848E+03	6.061318E-02	1.324038E-03
4.266368E+03	6.069752E-02	1.325880E-03
4.268888E+03	6.114824E-02	1.335725E-03
4.271409E+03	6.183045E-02	1.350628E-03
4.273929E+03	6.227831E-02	1.360411E-03
4.276450E+03	6.325812E-02	1.381814E-03
4.278970E+03	6.428272E-02	1.404195E-03
4.281490E+03	6.519421E-02	1.424106E-03
4.284011E+03	6.624593E-02	1.447080E-03
4.286532E+03	6.739813E-02	1.472248E-03
4.289052E+03	6.907413E-02	1.508859E-03
4.291572E+03	7.131633E-02	1.557838E-03
4.294092E+03	7.307800E-02	1.596320E-03
4.296613E+03	7.448115E-02	1.626970E-03
4.299134E+03	7.591559E-02	1.658304E-03
4.301654E+03	7.721559E-02	1.686701E-03
4.304174E+03	7.860409E-02	1.717032E-03
4.306694E+03	7.967493E-02	1.740423E-03
4.309215E+03	8.087499E-02	1.766637E-03
4.311736E+03	8.253842E-02	1.802974E-03
4.314256E+03	8.413178E-02	1.837779E-03
4.316776E+03	8.597710E-02	1.878088E-03
4.319296E+03	8.841909E-02	1.931431E-03
4.321817E+03	9.114202E-02	1.990911E-03
4.344501E+03	9.300576E-02	2.031623E-03
4.347021E+03	9.589095E-02	2.094647E-03
4.349540E+03	9.805367E-02	2.141889E-03
4.352061E+03	1.002618E-01	2.190124E-03
4.354582E+03	1.028422E-01	2.246491E-03
4.357103E+03	1.052416E-01	2.298903E-03
4.359623E+03	1.074166E-01	2.346413E-03
4.362142E+03	1.092164E-01	2.385729E-03
4.364663E+03	1.109869E-01	2.424405E-03
4.367184E+03	1.126536E-01	2.460811E-03
4.369704E+03	1.142591E-01	2.495883E-03
4.372225E+03	1.153054E-01	2.518737E-03
4.374746E+03	1.169502E-01	2.554665E-03
4.377265E+03	1.185105E-01	2.588750E-03
4.379786E+03	1.197815E-01	2.616512E-03
4.382306E+03	1.206347E-01	2.635151E-03
4.384827E+03	1.212358E-01	2.648281E-03
4.387347E+03	1.219816E-01	2.664573E-03
4.389867E+03	1.226383E-01	2.678916E-03
4.392388E+03	1.231700E-01	2.690532E-03
4.394908E+03	1.239023E-01	2.706528E-03
4.397429E+03	1.247317E-01	2.724646E-03
4.399949E+03	1.254693E-01	2.740759E-03
4.402470E+03	1.258838E-01	2.749813E-03
4.404990E+03	1.262753E-01	2.758365E-03
4.407511E+03	1.261821E-01	2.756327E-03
4.410031E+03	1.259398E-01	2.751036E-03
4.412551E+03	1.260911E-01	2.754341E-03
4.415072E+03	1.260673E-01	2.753822E-03
4.417591E+03	1.265124E-01	2.763543E-03
4.420112E+03	1.269471E-01	2.773039E-03
4.422633E+03	1.274512E-01	2.784051E-03
4.425153E+03	1.274339E-01	2.783673E-03
4.427674E+03	1.277663E-01	2.790933E-03
4.430195E+03	1.287114E-01	2.811578E-03
4.432714E+03	1.296786E-01	2.832707E-03
4.435234E+03	1.294813E-01	2.828397E-03
4.437755E+03	1.293194E-01	2.824859E-03
4.440276E+03	1.302249E-01	2.844640E-03
4.442797E+03	1.311440E-01	2.864716E-03
4.445316E+03	1.311485E-01	2.864814E-03
4.447836E+03	1.314156E-01	2.870649E-03
4.450357E+03	1.318267E-01	2.879628E-03
4.452878E+03	1.318536E-01	2.880216E-03
4.455398E+03	1.317783E-01	2.878573E-03
4.457918E+03	1.315610E-01	2.873825E-03
4.460438E+03	1.311175E-01	2.864137E-03
4.462959E+03	1.311019E-01	2.863796E-03
4.465479E+03	1.312312E-01	2.866621E-03
4.468000E+03	1.310860E-01	2.863449E-03
4.470520E+03	1.312029E-01	2.866002E-03
4.473040E+03	1.311646E-01	2.865167E-03
4.475561E+03	1.306752E-01	2.854476E-03
4.478081E+03	1.306412E-01	2.853734E-03
4.480602E+03	1.305671E-01	2.852114E-03
4.483122E+03	1.303875E-01	2.848191E-03
4.485643E+03	1.300074E-01	2.839888E-03
4.488163E+03	1.294320E-01	2.827320E-03
4.490683E+03	1.285334E-01	2.807689E-03
4.493204E+03	1.277663E-01	2.790934E-03
4.495724E+03	1.269610E-01	2.773343E-03
4.498245E+03	1.260094E-01	2.752555E-03
4.500765E+03	1.254738E-01	2.740856E-03
4.503285E+03	1.251568E-01	2.733932E-03
4.505806E+03	1.245783E-01	2.721294E-03
4.508326E+03	1.240002E-01	2.708666E-03
4.510847E+03	1.235122E-01	2.698006E-03
4.513367E+03	1.233319E-01	2.694068E-03
4.515887E+03	1.233814E-01	2.695149E-03
4.518408E+03	1.234196E-01	2.695984E-03
4.520928E+03	1.233523E-01	2.694514E-03
4.523449E+03	1.235236E-01	2.698257E-03
4.525969E+03	1.234847E-01	2.697406E-03
4.528489E+03	1.236966E-01	2.702034E-03
4.531009E+03	1.238848E-01	2.706146E-03
4.533530E+03	1.237716E-01	2.703673E-03
4.536051E+03	1.238529E-01	2.705449E-03
4.538571E+03	1.238666E-01	2.705748E-03
4.541092E+03	1.236756E-01	2.701576E-03
4.543611E+03	1.238911E-01	2.706284E-03
4.546132E+03	1.239710E-01	2.708029E-03
4.548653E+03	1.236703E-01	2.701460E-03
4.551174E+03	1.239480E-01	2.707526E-03
4.553694E+03	1.239638E-01	2.707871E-03
4.556213E+03	1.237088E-01	2.702302E-03
4.558734E+03	1.236943E-01	2.701985E-03
4.561255E+03	1.238815E-01	2.706075E-03
4.563776E+03	1.240302E-01	2.709323E-03
4.566296E+03	1.240882E-01	2.710588E-03
4.568816E+03	1.238537E-01	2.705466E-03
4.571336E+03	1.241430E-01	2.711785E-03
4.573857E+03	1.240942E-01	2.710721E-03
4.576377E+03	1.240262E-01	2.709235E-03
4.578897E+03	1.240455E-01	2.709657E-03
4.581418E+03	1.246083E-01	2.721951E-03
4.583938E+03	1.251227E-01	2.733186E-03
4.586458E+03	1.251694E-01	2.734207E-03
4.588979E+03	1.252366E-01	2.735675E-03
4.591499E+03	1.248816E-01	2.727920E-03
4.594020E+03	1.249155E-01	2.728661E-03
4.596541E+03	1.246740E-01	2.723385E-03
4.599060E+03	1.240642E-01	2.710064E-03
4.601581E+03	1.234825E-01	2.697358E-03
4.604101E+03	1.233807E-01	2.695134E-03
4.606622E+03	1.234247E-01	2.696096E-03
4.609142E+03	1.233619E-01	2.694723E-03
4.611662E+03	1.228711E-01	2.684002E-03
4.614183E+03	1.226844E-01	2.679924E-03
4.616703E+03	1.228244E-01	2.682982E-03
4.619224E+03	1.227367E-01	2.681066E-03
4.621744E+03	1.228064E-01	2.682589E-03
4.624265E+03	1.230444E-01	2.687787E-03
4.626784E+03	1.227814E-01	2.682042E-03
4.629305E+03	1.224692E-01	2.675223E-03
4.631826E+03	1.224711E-01	2.675265E-03
4.634346E+03	1.226885E-01	2.680015E-03
4.636867E+03	1.230716E-01	2.688381E-03
4.639386E+03	1.238113E-01	2.704541E-03
4.641907E+03	1.241503E-01	2.711945E-03
4.644428E+03	1.246890E-01	2.723712E-03
4.646948E+03	1.253903E-01	2.739031E-03
4.649469E+03	1.259197E-01	2.750595E-03
4.651989E+03	1.266702E-01	2.766990E-03
4.654509E+03	1.276519E-01	2.788433E-03
4.657029E+03	1.282255E-01	2.800964E-03
4.659550E+03	1.286765E-01	2.810816E-03
4.662071E+03	1.291704E-01	2.821604E-03
4.664591E+03	1.296366E-01	2.831789E-03
4.667111E+03	1.302505E-01	2.845198E-03
4.669631E+03	1.308478E-01	2.858245E-03
4.672152E+03	1.315447E-01	2.873470E-03
4.674672E+03	1.323988E-01	2.892127E-03
4.677193E+03	1.334202E-01	2.914437E-03
4.679714E+03	1.343420E-01	2.934573E-03
4.682234E+03	1.346698E-01	2.941734E-03
4.684754E+03	1.351549E-01	2.952331E-03
4.687274E+03	1.355668E-01	2.961327E-03
4.689795E+03	1.359515E-01	2.969731E-03
4.692316E+03	1.364804E-01	2.981285E-03
4.694836E+03	1.366066E-01	2.984041E-03
4.697356E+03	1.367529E-01	2.987237E-03
4.699876E+03	1.370660E-01	2.994077E-03
4.702397E+03	1.373076E-01	2.999354E-03
4.704918E+03	1.373996E-01	3.001365E-03
4.707439E+03	1.372197E-01	2.997434E-03
4.709958E+03	1.371619E-01	2.996172E-03
4.712478E+03	1.372698E-01	2.998529E-03
4.714999E+03	1.372413E-01	2.997906E-03
4.717519E+03	1.369778E-01	2.992150E-03
4.720040E+03	1.370568E-01	2.993876E-03
4.722560E+03	1.367800E-01	2.987828E-03
4.725080E+03	1.363041E-01	2.977433E-03
4.727601E+03	1.359935E-01	2.970647E-03
4.730121E+03	1.352881E-01	2.955240E-03
4.732642E+03	1.345843E-01	2.939867E-03
4.735162E+03	1.339042E-01	2.925010E-03
4.737682E+03	1.332039E-01	2.909712E-03
4.740203E+03	1.324727E-01	2.893741E-03
4.742723E+03	1.319383E-01	2.882066E-03
4.745244E+03	1.313184E-01	2.868524E-03
4.747764E+03	1.306461E-01	2.853841E-03
4.750284E+03	1.301256E-01	2.842470E-03
4.752804E+03	1.295312E-01	2.829485E-03
4.755325E+03	1.291298E-01	2.820718E-03
4.757846E+03	1.287181E-01	2.811724E-03
4.760366E+03	1.282644E-01	2.801813E-03
4.762887E+03	1.276101E-01	2.787522E-03
4.765406E+03	1.270632E-01	2.775574E-03
4.767927E+03	1.266433E-01	2.766403E-03
4.770448E+03	1.259094E-01	2.750370E-03
4.772968E+03	1.251359E-01	2.733475E-03
4.775489E+03	1.243960E-01	2.717312E-03
4.778009E+03	1.236585E-01	2.701202E-03
4.780529E+03	1.230579E-01	2.688081E-03
4.783049E+03	1.225105E-01	2.676125E-03
4.785570E+03	1.216448E-01	2.657214E-03
4.788091E+03	1.208232E-01	2.639268E-03
4.790611E+03	1.200763E-01	2.622953E-03
4.793131E+03	1.193419E-01	2.606911E-03
4.795651E+03	1.185897E-01	2.590478E-03
4.798172E+03	1.177687E-01	2.572545E-03
4.800692E+03	1.166165E-01	2.547376E-03
4.803214E+03	1.152972E-01	2.518557E-03
4.805734E+03	1.143163E-01	2.497131E-03
4.808253E+03	1.135201E-01	2.479739E-03
4.810774E+03	1.126566E-01	2.460876E-03
4.813294E+03	1.116867E-01	2.439690E-03
4.815815E+03	1.107704E-01	2.419674E-03
4.818336E+03	1.104135E-01	2.411877E-03
4.820855E+03	1.100570E-01	2.404091E-03
4.823376E+03	1.095529E-01	2.393078E-03
4.825897E+03	1.087845E-01	2.376293E-03
4.828417E+03	1.080288E-01	2.359787E-03
4.830938E+03	1.074812E-01	2.347824E-03
4.833458E+03	1.069742E-01	2.336750E-03
4.835978E+03	1.063811E-01	2.323793E-03
4.866222E+03	1.023733E-01	2.236248E-03
4.868743E+03	1.015719E-01	2.218741E-03
4.871264E+03	1.008110E-01	2.202120E-03
4.873784E+03	1.000534E-01	2.185571E-03
4.876304E+03	9.970591E-02	2.177980E-03
4.878824E+03	9.945140E-02	2.172421E-03
4.881345E+03	9.916922E-02	2.166257E-03
4.883866E+03	9.905227E-02	2.163702E-03
