#wls	flux	fluxerr
1.548287E+03	1.186735E-03	2.457435E-05
1.586994E+03	1.201335E-03	2.482172E-05
1.625702E+03	1.220392E-03	2.515822E-05
1.664409E+03	1.244577E-03	2.559690E-05
1.703116E+03	1.274381E-03	2.614700E-05
1.741823E+03	1.310596E-03	2.682376E-05
1.780530E+03	1.353588E-03	2.763350E-05
1.819237E+03	1.404283E-03	2.859383E-05
1.857945E+03	1.463707E-03	2.972413E-05
1.896652E+03	1.532718E-03	3.104005E-05
1.935359E+03	1.612245E-03	3.255848E-05
1.974066E+03	1.703610E-03	3.430383E-05
2.012773E+03	1.807929E-03	3.629600E-05
2.051481E+03	1.927087E-03	3.856993E-05
2.090188E+03	2.061677E-03	4.113414E-05
2.128895E+03	2.213341E-03	4.401772E-05
2.167602E+03	2.383807E-03	4.725090E-05
2.206309E+03	2.573956E-03	5.084653E-05
2.245016E+03	2.785444E-03	5.483230E-05
2.283724E+03	3.018877E-03	5.921464E-05
2.322431E+03	3.275658E-03	6.401510E-05
2.361138E+03	3.555924E-03	6.923000E-05
2.399845E+03	3.860041E-03	7.485978E-05
2.438552E+03	4.188099E-03	8.089920E-05
2.477260E+03	4.539930E-03	8.733772E-05
2.515967E+03	4.915114E-03	9.415982E-05
2.554674E+03	5.313036E-03	1.013460E-04
2.593381E+03	5.732925E-03	1.088740E-04
2.632088E+03	6.172980E-03	1.167017E-04
2.670795E+03	6.633055E-03	1.248189E-04
2.709503E+03	7.112091E-03	1.331977E-04
2.748210E+03	7.607825E-03	1.417883E-04
2.786917E+03	8.119774E-03	1.505742E-04
2.825624E+03	8.646067E-03	1.595135E-04
2.864331E+03	9.185367E-03	1.685745E-04
2.903039E+03	9.736784E-03	1.777341E-04
2.912715E+03	9.876474E-03	1.800375E-04
2.922392E+03	1.001713E-02	1.823503E-04
2.932069E+03	1.015738E-02	1.846476E-04
2.941746E+03	1.029970E-02	1.869741E-04
2.951422E+03	1.044141E-02	1.892811E-04
2.961099E+03	1.058369E-02	1.915900E-04
2.970776E+03	1.072642E-02	1.938985E-04
2.980453E+03	1.086948E-02	1.962043E-04
2.990130E+03	1.101273E-02	1.985049E-04
2.999806E+03	1.115737E-02	2.008217E-04
3.009483E+03	1.130055E-02	2.031034E-04
3.019160E+03	1.144481E-02	2.053956E-04
3.028837E+03	1.158861E-02	2.076706E-04
3.038514E+03	1.173176E-02	2.099250E-04
3.048190E+03	1.187543E-02	2.121797E-04
3.057867E+03	1.201803E-02	2.144062E-04
3.067544E+03	1.216072E-02	2.166252E-04
3.077221E+03	1.230327E-02	2.188327E-04
3.086898E+03	1.244402E-02	2.209990E-04
3.096574E+03	1.258411E-02	2.231445E-04
3.106251E+03	1.272469E-02	2.252895E-04
3.115928E+03	1.286263E-02	2.273784E-04
3.125605E+03	1.299903E-02	2.294312E-04
3.135282E+03	1.313500E-02	2.314673E-04
3.144958E+03	1.326878E-02	2.334559E-04
3.154635E+03	1.340003E-02	2.353908E-04
3.164312E+03	1.352982E-02	2.372911E-04
3.173989E+03	1.365633E-02	2.391253E-04
3.183666E+03	1.378206E-02	2.409370E-04
3.193342E+03	1.390374E-02	2.426692E-04
3.203019E+03	1.402384E-02	2.443652E-04
3.212696E+03	1.413906E-02	2.459680E-04
3.222373E+03	1.425186E-02	2.475203E-04
3.232050E+03	1.436037E-02	2.489902E-04
3.241726E+03	1.446559E-02	2.503951E-04
3.251403E+03	1.456708E-02	2.517276E-04
3.261080E+03	1.466440E-02	2.529806E-04
3.270757E+03	1.475712E-02	2.541470E-04
3.280434E+03	1.484481E-02	2.552198E-04
3.290110E+03	1.492708E-02	2.561924E-04
3.299787E+03	1.500489E-02	2.570822E-04
3.309464E+03	1.507787E-02	2.578828E-04
3.319141E+03	1.514563E-02	2.585883E-04
3.328817E+03	1.520784E-02	2.591934E-04
3.338494E+03	1.526420E-02	2.596934E-04
3.348171E+03	1.531577E-02	2.601069E-04
3.357848E+03	1.536098E-02	2.604077E-04
3.367525E+03	1.540096E-02	2.606154E-04
3.377201E+03	1.543555E-02	2.607278E-04
3.386878E+03	1.546462E-02	2.607433E-04
3.396555E+03	1.548935E-02	2.606823E-04
3.406232E+03	1.550846E-02	2.605235E-04
3.415909E+03	1.552317E-02	2.602879E-04
3.425585E+03	1.553349E-02	2.599762E-04
3.435262E+03	1.553948E-02	2.595898E-04
3.444939E+03	1.554123E-02	2.591304E-04
3.454616E+03	1.553886E-02	2.586005E-04
3.464293E+03	1.553360E-02	2.580211E-04
3.473969E+03	1.552559E-02	2.573945E-04
3.483646E+03	1.551495E-02	2.567232E-04
3.493323E+03	1.550184E-02	2.560100E-04
3.503000E+03	1.548644E-02	2.552580E-04
3.512677E+03	1.546892E-02	2.544705E-04
3.522353E+03	1.545048E-02	2.536672E-04
3.532030E+03	1.543031E-02	2.528349E-04
3.541707E+03	1.540958E-02	2.519930E-04
3.551384E+03	1.538754E-02	2.511293E-04
3.561061E+03	1.536624E-02	2.502772E-04
3.570737E+03	1.534492E-02	2.494246E-04
3.580414E+03	1.532379E-02	2.485746E-04
3.590091E+03	1.530304E-02	2.477305E-04
3.599768E+03	1.528288E-02	2.468956E-04
3.609445E+03	1.526434E-02	2.460862E-04
3.619121E+03	1.524677E-02	2.452921E-04
3.628798E+03	1.523117E-02	2.445290E-04
3.638475E+03	1.521693E-02	2.437872E-04
3.648152E+03	1.520503E-02	2.430819E-04
3.657829E+03	1.519490E-02	2.424039E-04
3.667505E+03	1.518746E-02	2.417678E-04
3.677182E+03	1.518289E-02	2.411761E-04
3.686859E+03	1.518067E-02	2.406201E-04
3.696536E+03	1.518166E-02	2.401136E-04
3.706213E+03	1.518605E-02	2.396589E-04
3.715889E+03	1.519400E-02	2.392582E-04
3.725566E+03	1.520502E-02	2.389036E-04
3.735243E+03	1.521931E-02	2.385979E-04
3.744920E+03	1.523829E-02	2.383630E-04
3.754596E+03	1.526027E-02	2.381719E-04
3.764273E+03	1.528665E-02	2.380460E-04
3.773950E+03	1.531757E-02	2.379872E-04
3.783627E+03	1.535259E-02	2.379883E-04
3.793304E+03	1.539188E-02	2.380514E-04
3.802980E+03	1.543560E-02	2.381784E-04
3.812657E+03	1.548390E-02	2.383712E-04
3.822334E+03	1.553692E-02	2.386315E-04
3.832011E+03	1.559480E-02	2.389608E-04
3.841688E+03	1.565714E-02	2.393527E-04
3.851364E+03	1.572410E-02	2.398089E-04
3.861041E+03	1.579630E-02	2.403385E-04
3.870718E+03	1.587335E-02	2.409351E-04
3.880395E+03	1.595537E-02	2.415997E-04
3.890072E+03	1.604246E-02	2.423334E-04
3.899748E+03	1.613423E-02	2.431299E-04
3.909425E+03	1.623079E-02	2.439901E-04
3.919102E+03	1.633268E-02	2.449217E-04
3.928779E+03	1.643905E-02	2.459113E-04
3.938456E+03	1.655041E-02	2.469662E-04
3.948132E+03	1.666638E-02	2.480799E-04
3.957809E+03	1.678743E-02	2.492592E-04
3.967486E+03	1.691272E-02	2.504908E-04
3.977163E+03	1.704270E-02	2.517810E-04
3.986840E+03	1.717737E-02	2.531294E-04
3.996516E+03	1.731588E-02	2.545226E-04
4.006193E+03	1.745905E-02	2.559726E-04
4.015870E+03	1.760560E-02	2.574598E-04
4.025547E+03	1.775631E-02	2.589956E-04
4.035224E+03	1.791072E-02	2.605724E-04
4.044900E+03	1.806834E-02	2.621830E-04
4.054577E+03	1.822951E-02	2.638317E-04
4.064254E+03	1.839371E-02	2.655109E-04
4.073931E+03	1.856044E-02	2.672128E-04
4.083608E+03	1.872999E-02	2.689414E-04
4.093284E+03	1.890142E-02	2.706831E-04
4.102961E+03	1.907501E-02	2.724413E-04
4.112638E+03	1.925060E-02	2.742137E-04
4.122315E+03	1.942726E-02	2.759869E-04
4.131991E+03	1.960522E-02	2.777640E-04
4.141668E+03	1.978392E-02	2.795371E-04
4.151345E+03	1.996321E-02	2.813038E-04
4.161022E+03	2.014253E-02	2.830564E-04
4.170699E+03	2.032210E-02	2.847978E-04
4.180375E+03	2.050099E-02	2.865153E-04
4.190052E+03	2.067943E-02	2.882119E-04
4.199729E+03	2.085651E-02	2.898752E-04
4.209406E+03	2.103281E-02	2.915135E-04
4.219083E+03	2.120745E-02	2.931148E-04
4.228759E+03	2.138029E-02	2.946771E-04
4.238436E+03	2.155081E-02	2.961939E-04
4.248113E+03	2.171958E-02	2.976732E-04
4.257790E+03	2.188537E-02	2.990984E-04
4.267467E+03	2.204874E-02	3.004776E-04
4.277143E+03	2.220918E-02	3.018042E-04
4.286820E+03	2.236617E-02	3.030715E-04
4.296497E+03	2.252027E-02	3.042878E-04
4.306174E+03	2.267064E-02	3.054419E-04
4.315851E+03	2.281752E-02	3.065378E-04
4.325527E+03	2.296078E-02	3.075740E-04
4.335204E+03	2.309964E-02	3.085407E-04
4.344881E+03	2.323406E-02	3.094378E-04
4.354558E+03	2.336428E-02	3.102692E-04
4.364235E+03	2.348963E-02	3.110264E-04
4.373911E+03	2.361041E-02	3.117143E-04
4.383588E+03	2.372630E-02	3.123291E-04
4.393265E+03	2.383731E-02	3.128716E-04
4.402942E+03	2.394316E-02	3.133386E-04
4.412619E+03	2.404423E-02	3.137361E-04
4.422295E+03	2.414025E-02	3.140611E-04
4.431972E+03	2.423132E-02	3.143153E-04
4.441649E+03	2.431785E-02	3.145049E-04
4.451326E+03	2.439929E-02	3.146235E-04
4.461003E+03	2.447578E-02	3.146735E-04
4.470679E+03	2.454774E-02	3.146609E-04
4.480356E+03	2.461535E-02	3.145887E-04
4.490033E+03	2.467806E-02	3.144504E-04
4.499710E+03	2.473638E-02	3.142532E-04
4.509386E+03	2.479077E-02	3.140036E-04
4.519063E+03	2.484045E-02	3.136922E-04
4.528740E+03	2.488653E-02	3.133338E-04
4.538417E+03	2.492825E-02	3.129192E-04
4.548094E+03	2.496610E-02	3.124552E-04
4.557770E+03	2.500027E-02	3.119448E-04
4.567447E+03	2.503089E-02	3.113902E-04
4.577124E+03	2.505791E-02	3.107911E-04
4.586801E+03	2.508175E-02	3.101536E-04
4.596478E+03	2.510232E-02	3.094767E-04
4.606154E+03	2.511982E-02	3.087635E-04
4.615831E+03	2.513410E-02	3.080128E-04
4.625508E+03	2.514599E-02	3.072350E-04
4.635185E+03	2.515561E-02	3.064322E-04
4.644862E+03	2.516258E-02	3.055999E-04
4.654538E+03	2.516762E-02	3.047477E-04
4.664215E+03	2.517096E-02	3.038782E-04
4.673892E+03	2.517270E-02	3.029935E-04
4.683569E+03	2.517306E-02	3.020961E-04
4.693246E+03	2.517244E-02	3.011914E-04
4.702922E+03	2.517100E-02	3.002815E-04
4.712599E+03	2.516918E-02	2.993719E-04
4.722276E+03	2.516710E-02	2.984642E-04
4.731953E+03	2.516490E-02	2.975604E-04
4.741630E+03	2.516299E-02	2.966653E-04
4.751306E+03	2.516149E-02	2.957806E-04
4.760983E+03	2.516019E-02	2.949040E-04
4.770660E+03	2.516011E-02	2.940476E-04
4.780337E+03	2.516072E-02	2.932053E-04
4.790014E+03	2.516246E-02	2.923822E-04
4.799690E+03	2.516564E-02	2.915822E-04
4.809367E+03	2.517037E-02	2.908066E-04
4.819044E+03	2.517671E-02	2.900561E-04
4.828721E+03	2.518473E-02	2.893315E-04
4.838398E+03	2.519451E-02	2.886339E-04
4.848074E+03	2.520634E-02	2.879667E-04
4.857751E+03	2.522060E-02	2.873342E-04
4.867428E+03	2.523672E-02	2.867300E-04
4.877105E+03	2.525531E-02	2.861611E-04
4.886781E+03	2.527642E-02	2.856280E-04
4.896458E+03	2.529976E-02	2.851276E-04
4.906135E+03	2.532564E-02	2.846633E-04
4.915812E+03	2.535434E-02	2.842384E-04
4.925489E+03	2.538528E-02	2.838465E-04
4.935165E+03	2.541903E-02	2.834941E-04
4.944842E+03	2.545529E-02	2.831776E-04
4.954519E+03	2.549432E-02	2.829004E-04
4.964196E+03	2.553607E-02	2.826619E-04
4.973873E+03	2.558024E-02	2.824587E-04
4.983549E+03	2.562708E-02	2.822939E-04
4.993226E+03	2.567676E-02	2.821696E-04
5.002903E+03	2.572871E-02	2.820795E-04
5.012580E+03	2.578313E-02	2.820259E-04
5.022257E+03	2.583993E-02	2.820083E-04
5.031933E+03	2.589908E-02	2.820262E-04
5.041610E+03	2.596070E-02	2.820816E-04
5.051287E+03	2.602419E-02	2.821679E-04
5.060964E+03	2.609002E-02	2.822904E-04
5.070641E+03	2.615777E-02	2.824451E-04
5.080317E+03	2.622734E-02	2.826311E-04
5.089994E+03	2.629893E-02	2.828508E-04
5.099671E+03	2.637184E-02	2.830971E-04
5.109348E+03	2.644653E-02	2.833752E-04
5.119025E+03	2.652260E-02	2.836813E-04
5.128701E+03	2.660019E-02	2.840172E-04
5.138378E+03	2.667868E-02	2.843766E-04
5.148055E+03	2.675848E-02	2.847646E-04
5.157732E+03	2.683921E-02	2.851772E-04
5.167409E+03	2.692077E-02	2.856141E-04
5.177085E+03	2.700305E-02	2.860744E-04
5.186762E+03	2.708595E-02	2.865576E-04
5.196439E+03	2.716942E-02	2.870636E-04
5.206116E+03	2.725361E-02	2.875944E-04
5.215793E+03	2.733788E-02	2.881441E-04
5.225469E+03	2.742273E-02	2.887180E-04
5.235146E+03	2.750752E-02	2.893102E-04
5.244823E+03	2.759266E-02	2.899255E-04
5.254500E+03	2.767778E-02	2.905604E-04
5.264177E+03	2.776250E-02	2.912116E-04
5.273853E+03	2.784717E-02	2.918832E-04
5.283530E+03	2.793136E-02	2.925712E-04
5.293207E+03	2.801462E-02	2.932715E-04
5.302884E+03	2.809736E-02	2.939889E-04
5.312560E+03	2.817908E-02	2.947187E-04
5.322237E+03	2.825940E-02	2.954574E-04
5.331914E+03	2.833844E-02	2.962068E-04
5.341591E+03	2.841646E-02	2.969700E-04
5.351268E+03	2.849307E-02	2.977435E-04
5.360944E+03	2.856851E-02	2.985297E-04
5.370621E+03	2.864223E-02	2.993225E-04
5.380298E+03	2.871478E-02	3.001279E-04
5.389975E+03	2.878590E-02	3.009431E-04
5.399652E+03	2.885563E-02	3.017682E-04
5.409328E+03	2.892430E-02	3.026067E-04
5.419005E+03	2.899170E-02	3.034562E-04
5.428682E+03	2.905821E-02	3.043206E-04
5.438359E+03	2.912361E-02	3.051974E-04
5.448036E+03	2.918798E-02	3.060873E-04
5.457712E+03	2.925171E-02	3.069942E-04
5.467389E+03	2.931463E-02	3.079162E-04
5.477066E+03	2.937682E-02	3.088538E-04
5.486743E+03	2.943843E-02	3.098086E-04
5.496420E+03	2.949950E-02	3.107808E-04
5.506096E+03	2.956051E-02	3.117751E-04
5.515773E+03	2.962093E-02	3.127860E-04
5.525450E+03	2.968147E-02	3.138204E-04
5.535127E+03	2.974165E-02	3.148735E-04
5.544804E+03	2.980190E-02	3.159492E-04
5.554480E+03	2.986228E-02	3.170482E-04
5.564157E+03	2.992261E-02	3.181683E-04
5.573834E+03	2.998327E-02	3.193135E-04
5.583511E+03	3.004409E-02	3.204815E-04
5.593188E+03	3.010541E-02	3.216761E-04
5.602864E+03	3.016674E-02	3.228917E-04
5.612541E+03	3.022876E-02	3.241353E-04
5.622218E+03	3.029122E-02	3.254041E-04
5.631895E+03	3.035391E-02	3.266956E-04
5.641572E+03	3.041716E-02	3.280134E-04
5.651248E+03	3.048105E-02	3.293580E-04
5.660925E+03	3.054533E-02	3.307266E-04
5.670602E+03	3.061002E-02	3.321192E-04
5.680279E+03	3.067519E-02	3.335364E-04
5.689955E+03	3.074056E-02	3.349748E-04
5.699632E+03	3.080676E-02	3.364415E-04
5.709309E+03	3.087318E-02	3.379293E-04
5.718986E+03	3.093988E-02	3.394388E-04
5.728663E+03	3.100684E-02	3.409697E-04
5.738339E+03	3.107408E-02	3.425218E-04
5.748016E+03	3.114156E-02	3.440948E-04
5.757693E+03	3.120899E-02	3.456850E-04
5.767370E+03	3.127637E-02	3.472924E-04
5.777047E+03	3.134395E-02	3.489195E-04
5.786723E+03	3.141109E-02	3.505591E-04
5.796400E+03	3.147808E-02	3.522140E-04
5.806077E+03	3.154487E-02	3.538836E-04
5.815754E+03	3.161079E-02	3.555602E-04
5.825431E+03	3.167638E-02	3.572494E-04
5.835107E+03	3.174130E-02	3.589474E-04
5.844784E+03	3.180546E-02	3.606528E-04
5.854461E+03	3.186877E-02	3.623643E-04
5.864138E+03	3.193086E-02	3.640774E-04
5.873815E+03	3.199222E-02	3.657976E-04
5.883491E+03	3.205249E-02	3.675203E-04
5.893168E+03	3.211122E-02	3.692400E-04
5.902845E+03	3.216893E-02	3.709627E-04
5.912522E+03	3.222549E-02	3.726863E-04
5.922199E+03	3.228046E-02	3.744056E-04
5.931875E+03	3.233439E-02	3.761264E-04
5.941552E+03	3.238708E-02	3.778465E-04
5.951229E+03	3.243816E-02	3.795609E-04
5.960906E+03	3.248807E-02	3.812746E-04
5.970583E+03	3.253639E-02	3.829824E-04
5.980259E+03	3.258266E-02	3.846785E-04
5.989936E+03	3.262646E-02	3.863575E-04
5.999613E+03	3.266827E-02	3.880246E-04
6.009290E+03	3.270731E-02	3.896704E-04
6.018967E+03	3.274415E-02	3.913011E-04
6.028643E+03	3.277833E-02	3.929107E-04
6.038320E+03	3.280973E-02	3.944974E-04
6.047997E+03	3.283765E-02	3.960522E-04
6.057674E+03	3.286258E-02	3.975806E-04
6.067350E+03	3.288385E-02	3.990737E-04
6.077027E+03	3.290165E-02	4.005332E-04
6.086704E+03	3.291595E-02	4.019581E-04
6.096381E+03	3.292631E-02	4.033423E-04
6.106058E+03	3.293271E-02	4.046850E-04
6.115734E+03	3.293572E-02	4.059923E-04
6.125411E+03	3.293495E-02	4.072591E-04
6.135088E+03	3.293040E-02	4.084842E-04
6.144765E+03	3.292231E-02	4.096704E-04
6.154442E+03	3.291062E-02	4.108160E-04
6.164118E+03	3.289533E-02	4.119205E-04
6.173795E+03	3.287672E-02	4.129867E-04
6.183472E+03	3.285437E-02	4.140086E-04
6.193149E+03	3.282892E-02	4.149938E-04
6.202826E+03	3.280034E-02	4.159412E-04
6.212502E+03	3.276824E-02	4.168452E-04
6.222179E+03	3.273289E-02	4.177089E-04
6.231856E+03	3.269460E-02	4.185352E-04
6.241533E+03	3.265297E-02	4.193187E-04
6.251210E+03	3.260791E-02	4.200577E-04
6.260886E+03	3.255941E-02	4.207513E-04
6.270563E+03	3.250777E-02	4.214027E-04
6.280240E+03	3.245255E-02	4.220057E-04
6.289917E+03	3.239372E-02	4.225593E-04
6.299594E+03	3.233189E-02	4.230710E-04
6.309270E+03	3.226703E-02	4.235396E-04
6.318947E+03	3.219911E-02	4.239642E-04
6.328624E+03	3.212873E-02	4.243523E-04
6.338301E+03	3.205588E-02	4.247032E-04
6.347978E+03	3.198049E-02	4.250156E-04
6.357654E+03	3.190255E-02	4.252888E-04
6.367331E+03	3.182236E-02	4.255263E-04
6.377008E+03	3.174024E-02	4.257320E-04
6.386685E+03	3.165579E-02	4.259003E-04
6.396362E+03	3.156903E-02	4.260308E-04
6.406038E+03	3.148062E-02	4.261320E-04
6.415715E+03	3.139017E-02	4.261986E-04
6.425392E+03	3.129804E-02	4.262348E-04
6.435069E+03	3.120422E-02	4.262402E-04
6.444746E+03	3.110834E-02	4.262094E-04
6.454422E+03	3.101113E-02	4.261522E-04
6.464099E+03	3.091220E-02	4.260628E-04
6.473776E+03	3.081194E-02	4.259463E-04
6.483453E+03	3.071036E-02	4.258025E-04
6.493129E+03	3.060745E-02	4.256311E-04
6.502806E+03	3.050325E-02	4.254325E-04
6.512483E+03	3.039778E-02	4.252064E-04
6.522160E+03	3.029106E-02	4.249531E-04
6.531837E+03	3.018346E-02	4.246775E-04
6.541513E+03	3.007501E-02	4.243799E-04
6.551190E+03	2.996578E-02	4.240609E-04
6.560867E+03	2.985545E-02	4.237161E-04
6.570544E+03	2.974473E-02	4.233551E-04
6.580221E+03	2.963300E-02	4.229690E-04
6.589897E+03	2.952100E-02	4.225683E-04
6.599574E+03	2.940807E-02	4.221434E-04
6.609251E+03	2.929496E-02	4.217051E-04
6.618928E+03	2.918173E-02	4.212538E-04
6.628605E+03	2.906775E-02	4.207805E-04
6.638281E+03	2.895377E-02	4.202961E-04
6.647958E+03	2.883953E-02	4.197966E-04
6.657635E+03	2.872538E-02	4.192871E-04
6.667312E+03	2.861109E-02	4.187641E-04
6.676989E+03	2.849671E-02	4.182284E-04
6.686665E+03	2.838265E-02	4.176859E-04
6.696342E+03	2.826864E-02	4.171328E-04
6.706019E+03	2.815511E-02	4.165752E-04
6.715696E+03	2.804174E-02	4.160085E-04
6.725373E+03	2.792865E-02	4.154344E-04
6.735049E+03	2.781621E-02	4.148586E-04
6.744726E+03	2.770419E-02	4.142775E-04
6.754403E+03	2.759264E-02	4.136922E-04
6.764080E+03	2.748162E-02	4.131032E-04
6.773757E+03	2.737124E-02	4.125124E-04
6.783433E+03	2.726155E-02	4.119209E-04
6.793110E+03	2.715260E-02	4.113291E-04
6.802787E+03	2.704450E-02	4.107390E-04
6.812464E+03	2.693727E-02	4.101509E-04
6.822141E+03	2.683070E-02	4.095617E-04
6.831817E+03	2.672515E-02	4.089770E-04
6.841494E+03	2.662035E-02	4.083928E-04
6.851171E+03	2.651639E-02	4.078106E-04
6.860848E+03	2.641368E-02	4.072366E-04
6.870524E+03	2.631159E-02	4.066614E-04
6.880201E+03	2.621050E-02	4.060910E-04
6.889878E+03	2.611053E-02	4.055272E-04
6.899555E+03	2.601136E-02	4.049652E-04
6.909232E+03	2.591305E-02	4.044062E-04
6.918908E+03	2.581568E-02	4.038514E-04
6.928585E+03	2.571930E-02	4.033017E-04
6.938262E+03	2.562365E-02	4.027532E-04
6.947939E+03	2.552910E-02	4.022117E-04
6.957616E+03	2.543503E-02	4.016678E-04
6.967292E+03	2.534218E-02	4.011330E-04
6.976969E+03	2.524962E-02	4.005927E-04
6.986646E+03	2.515802E-02	4.000578E-04
6.996323E+03	2.506714E-02	3.995245E-04
7.006000E+03	2.497702E-02	3.989935E-04
7.015676E+03	2.488740E-02	3.984606E-04
7.025353E+03	2.479798E-02	3.979214E-04
7.035030E+03	2.470948E-02	3.973873E-04
7.044707E+03	2.462127E-02	3.968483E-04
7.054384E+03	2.453316E-02	3.963012E-04
7.064060E+03	2.444574E-02	3.957560E-04
7.073737E+03	2.435817E-02	3.951988E-04
7.083414E+03	2.427110E-02	3.946402E-04
7.093091E+03	2.418398E-02	3.940715E-04
7.102768E+03	2.409714E-02	3.934979E-04
7.112444E+03	2.401034E-02	3.929158E-04
7.122121E+03	2.392335E-02	3.923212E-04
7.131798E+03	2.383678E-02	3.917243E-04
7.141475E+03	2.374979E-02	3.911112E-04
7.151152E+03	2.366306E-02	3.904930E-04
7.160828E+03	2.357601E-02	3.898605E-04
7.170505E+03	2.348933E-02	3.892248E-04
7.180182E+03	2.340274E-02	3.885816E-04
7.189859E+03	2.331631E-02	3.879320E-04
7.199536E+03	2.323012E-02	3.872771E-04
7.209212E+03	2.314419E-02	3.866179E-04
7.218889E+03	2.305891E-02	3.859603E-04
7.228566E+03	2.297372E-02	3.852954E-04
7.238243E+03	2.288930E-02	3.846347E-04
7.247919E+03	2.280512E-02	3.839690E-04
7.257596E+03	2.272180E-02	3.833092E-04
7.267273E+03	2.263884E-02	3.826470E-04
7.276950E+03	2.255691E-02	3.819935E-04
7.286627E+03	2.247572E-02	3.813440E-04
7.296303E+03	2.239564E-02	3.807050E-04
7.305980E+03	2.231642E-02	3.800725E-04
7.315657E+03	2.223868E-02	3.794569E-04
7.325334E+03	2.216188E-02	3.788493E-04
7.335011E+03	2.208662E-02	3.782599E-04
7.344687E+03	2.201289E-02	3.776891E-04
7.354364E+03	2.194042E-02	3.771322E-04
7.364041E+03	2.186948E-02	3.765940E-04
7.373718E+03	2.180034E-02	3.760791E-04
7.383395E+03	2.173265E-02	3.755822E-04
7.393071E+03	2.166639E-02	3.751026E-04
7.402748E+03	2.160149E-02	3.746394E-04
7.412425E+03	2.153843E-02	3.742013E-04
7.422102E+03	2.147659E-02	3.737775E-04
7.431779E+03	2.141615E-02	3.733713E-04
7.441455E+03	2.135703E-02	3.729815E-04
7.451132E+03	2.129942E-02	3.726115E-04
7.460809E+03	2.124266E-02	3.722500E-04
7.470486E+03	2.118722E-02	3.719052E-04
7.480163E+03	2.113274E-02	3.715710E-04
7.489839E+03	2.107911E-02	3.712457E-04
7.499516E+03	2.102655E-02	3.709330E-04
7.509193E+03	2.097468E-02	3.706266E-04
