#wls	flux	fluxerr
1.600000E+03	5.036878E-18	1.859689E-19
1.640000E+03	5.076773E-18	1.869199E-19
1.680000E+03	5.122436E-18	1.880625E-19
1.720000E+03	5.173986E-18	1.893988E-19
1.760000E+03	5.231554E-18	1.909310E-19
1.800000E+03	5.295284E-18	1.926618E-19
1.840000E+03	5.365336E-18	1.945943E-19
1.880000E+03	5.441887E-18	1.967320E-19
1.920000E+03	5.527441E-18	1.991620E-19
1.960000E+03	5.619916E-18	2.018055E-19
2.000000E+03	5.721874E-18	2.047508E-19
2.040000E+03	5.835939E-18	2.080869E-19
2.080000E+03	5.957761E-18	2.116535E-19
2.120000E+03	6.092374E-18	2.156246E-19
2.160000E+03	6.237824E-18	2.199248E-19
2.200000E+03	6.396918E-18	2.246471E-19
2.240000E+03	6.572559E-18	2.298858E-19
2.280000E+03	6.760520E-18	2.354851E-19
2.320000E+03	6.966224E-18	2.416259E-19
2.360000E+03	7.190394E-18	2.483235E-19
2.400000E+03	7.431355E-18	2.555100E-19
2.440000E+03	7.692401E-18	2.632883E-19
2.480000E+03	7.971965E-18	2.715932E-19
2.520000E+03	8.273548E-18	2.805323E-19
2.560000E+03	8.600838E-18	2.902165E-19
2.600000E+03	8.952551E-18	3.005872E-19
2.640000E+03	9.330030E-18	3.116740E-19
2.680000E+03	9.740043E-18	3.236855E-19
2.720000E+03	1.018170E-17	3.365720E-19
2.760000E+03	1.065960E-17	3.504637E-19
2.800000E+03	1.117309E-17	3.653167E-19
2.840000E+03	1.173286E-17	3.814546E-19
2.880000E+03	1.233889E-17	3.988472E-19
2.920000E+03	1.299709E-17	4.176534E-19
2.960000E+03	1.370801E-17	4.378559E-19
3.000000E+03	1.448437E-17	4.598235E-19
3.010000E+03	1.468781E-17	4.655582E-19
3.020000E+03	1.489665E-17	4.714414E-19
3.030000E+03	1.511097E-17	4.774746E-19
3.040000E+03	1.532781E-17	4.835636E-19
3.050000E+03	1.555031E-17	4.898070E-19
3.060000E+03	1.577857E-17	4.962066E-19
3.070000E+03	1.600958E-17	5.026673E-19
3.080000E+03	1.624654E-17	5.092887E-19
3.090000E+03	1.648955E-17	5.160730E-19
3.100000E+03	1.673873E-17	5.230230E-19
3.110000E+03	1.699102E-17	5.300424E-19
3.120000E+03	1.725290E-17	5.373318E-19
3.130000E+03	1.751810E-17	5.446952E-19
3.140000E+03	1.778996E-17	5.522354E-19
3.150000E+03	1.806857E-17	5.599545E-19
3.160000E+03	1.835412E-17	5.678568E-19
3.170000E+03	1.864344E-17	5.758435E-19
3.180000E+03	1.894324E-17	5.841207E-19
3.190000E+03	1.925041E-17	5.925909E-19
3.200000E+03	1.956511E-17	6.012577E-19
3.210000E+03	1.988751E-17	6.101251E-19
3.220000E+03	2.021778E-17	6.191972E-19
3.230000E+03	2.055950E-17	6.285818E-19
3.240000E+03	2.090949E-17	6.381803E-19
3.250000E+03	2.126795E-17	6.479971E-19
3.260000E+03	2.163510E-17	6.580372E-19
3.270000E+03	2.201808E-17	6.685165E-19
3.280000E+03	2.240673E-17	6.791244E-19
3.290000E+03	2.280828E-17	6.900780E-19
3.300000E+03	2.322302E-17	7.013842E-19
3.310000E+03	2.365125E-17	7.130502E-19
3.320000E+03	2.408971E-17	7.249752E-19
3.330000E+03	2.454588E-17	7.373824E-19
3.340000E+03	2.501292E-17	7.500634E-19
3.350000E+03	2.549475E-17	7.631340E-19
3.360000E+03	2.599546E-17	7.767136E-19
3.370000E+03	2.650803E-17	7.905900E-19
3.380000E+03	2.704030E-17	8.049942E-19
3.390000E+03	2.758895E-17	8.198248E-19
3.400000E+03	2.815823E-17	8.352046E-19
3.410000E+03	2.874482E-17	8.510316E-19
3.420000E+03	2.935301E-17	8.674302E-19
3.430000E+03	2.998335E-17	8.844129E-19
3.440000E+03	3.063248E-17	9.018770E-19
3.450000E+03	3.130486E-17	9.199499E-19
3.460000E+03	3.200504E-17	9.387619E-19
3.470000E+03	3.272572E-17	9.580940E-19
3.480000E+03	3.347552E-17	9.781948E-19
3.490000E+03	3.425110E-17	9.989621E-19
3.500000E+03	3.505725E-17	1.020531E-18
3.510000E+03	3.589471E-17	1.042918E-18
3.520000E+03	3.676015E-17	1.066020E-18
3.530000E+03	3.765847E-17	1.089976E-18
3.540000E+03	3.859051E-17	1.114804E-18
3.550000E+03	3.955713E-17	1.140522E-18
3.560000E+03	4.055920E-17	1.167151E-18
3.570000E+03	4.160198E-17	1.194835E-18
3.580000E+03	4.268650E-17	1.223597E-18
3.590000E+03	4.380933E-17	1.253332E-18
3.600000E+03	4.497591E-17	1.284189E-18
3.610000E+03	4.618733E-17	1.316191E-18
3.620000E+03	4.744005E-17	1.349231E-18
3.630000E+03	4.874893E-17	1.383724E-18
3.640000E+03	5.010127E-17	1.419299E-18
3.650000E+03	5.150744E-17	1.456244E-18
3.660000E+03	5.296386E-17	1.494447E-18
3.670000E+03	5.448112E-17	1.534200E-18
3.680000E+03	5.605075E-17	1.575254E-18
3.690000E+03	5.767853E-17	1.617763E-18
3.700000E+03	5.936541E-17	1.661743E-18
3.710000E+03	6.111724E-17	1.707348E-18
3.720000E+03	6.292984E-17	1.754452E-18
3.730000E+03	6.480380E-17	1.803060E-18
3.740000E+03	6.674987E-17	1.853462E-18
3.750000E+03	6.875823E-17	1.905372E-18
3.760000E+03	7.083417E-17	1.958929E-18
3.770000E+03	7.298300E-17	2.014267E-18
3.780000E+03	7.519923E-17	2.071223E-18
3.790000E+03	7.748231E-17	2.129772E-18
3.800000E+03	7.983687E-17	2.190030E-18
3.810000E+03	8.226187E-17	2.251958E-18
3.820000E+03	8.475591E-17	2.315506E-18
3.830000E+03	8.731160E-17	2.380462E-18
3.840000E+03	8.994364E-17	2.447217E-18
3.850000E+03	9.263251E-17	2.515229E-18
3.860000E+03	9.538659E-17	2.584717E-18
3.870000E+03	9.820248E-17	2.655579E-18
3.880000E+03	1.010763E-16	2.727701E-18
3.890000E+03	1.040038E-16	2.800961E-18
3.900000E+03	1.069801E-16	2.875219E-18
3.910000E+03	1.099999E-16	2.950329E-18
3.920000E+03	1.130634E-16	3.026290E-18
3.930000E+03	1.161587E-16	3.102776E-18
3.940000E+03	1.192850E-16	3.179766E-18
3.950000E+03	1.224357E-16	3.257077E-18
3.960000E+03	1.256033E-16	3.334514E-18
3.970000E+03	1.287806E-16	3.411879E-18
3.980000E+03	1.319659E-16	3.489133E-18
3.990000E+03	1.351390E-16	3.565740E-18
4.000000E+03	1.383107E-16	3.641992E-18
4.010000E+03	1.414607E-16	3.717356E-18
4.020000E+03	1.445873E-16	3.791796E-18
4.030000E+03	1.476768E-16	3.864956E-18
4.040000E+03	1.507344E-16	3.936982E-18
4.050000E+03	1.537405E-16	4.007375E-18
4.060000E+03	1.567012E-16	4.076299E-18
4.070000E+03	1.596042E-16	4.143450E-18
4.080000E+03	1.624443E-16	4.208701E-18
4.090000E+03	1.652167E-16	4.271942E-18
4.100000E+03	1.679237E-16	4.333247E-18
4.110000E+03	1.705559E-16	4.392387E-18
4.120000E+03	1.731171E-16	4.449475E-18
4.130000E+03	1.755998E-16	4.504332E-18
4.140000E+03	1.780034E-16	4.556955E-18
4.150000E+03	1.803340E-16	4.607522E-18
4.160000E+03	1.825927E-16	4.656069E-18
4.170000E+03	1.847755E-16	4.702513E-18
4.180000E+03	1.868850E-16	4.746933E-18
4.190000E+03	1.889305E-16	4.789576E-18
4.200000E+03	1.909100E-16	4.830410E-18
4.210000E+03	1.928340E-16	4.869710E-18
4.220000E+03	1.946963E-16	4.907330E-18
4.230000E+03	1.965137E-16	4.943707E-18
4.240000E+03	1.982863E-16	4.978855E-18
4.250000E+03	2.000203E-16	5.012937E-18
4.260000E+03	2.017168E-16	5.045989E-18
4.270000E+03	2.033873E-16	5.078309E-18
4.280000E+03	2.050381E-16	5.110059E-18
4.290000E+03	2.066701E-16	5.141272E-18
4.300000E+03	2.082948E-16	5.172233E-18
4.310000E+03	2.099076E-16	5.202841E-18
4.320000E+03	2.115195E-16	5.233366E-18
4.330000E+03	2.131358E-16	5.263947E-18
4.340000E+03	2.147567E-16	5.294593E-18
4.350000E+03	2.163875E-16	5.325435E-18
4.360000E+03	2.180331E-16	5.356597E-18
4.370000E+03	2.196984E-16	5.388203E-18
4.380000E+03	2.213841E-16	5.420271E-18
4.390000E+03	2.230956E-16	5.452934E-18
4.400000E+03	2.248344E-16	5.486232E-18
4.410000E+03	2.266068E-16	5.520317E-18
4.420000E+03	2.284193E-16	5.555347E-18
4.430000E+03	2.302741E-16	5.591381E-18
4.440000E+03	2.321779E-16	5.628576E-18
4.450000E+03	2.341326E-16	5.666981E-18
4.460000E+03	2.361445E-16	5.706743E-18
4.470000E+03	2.382147E-16	5.747891E-18
4.480000E+03	2.403438E-16	5.790438E-18
4.490000E+03	2.425362E-16	5.834488E-18
4.500000E+03	2.447910E-16	5.880021E-18
4.510000E+03	2.471111E-16	5.927098E-18
4.520000E+03	2.494942E-16	5.975661E-18
4.530000E+03	2.519412E-16	6.025730E-18
4.540000E+03	2.544486E-16	6.077212E-18
4.550000E+03	2.570114E-16	6.129990E-18
4.560000E+03	2.596326E-16	6.184127E-18
4.570000E+03	2.623020E-16	6.239379E-18
4.580000E+03	2.650208E-16	6.295772E-18
4.590000E+03	2.677779E-16	6.353042E-18
4.600000E+03	2.705692E-16	6.411090E-18
4.610000E+03	2.733866E-16	6.469722E-18
4.620000E+03	2.762253E-16	6.528823E-18
4.630000E+03	2.790761E-16	6.588182E-18
4.640000E+03	2.819262E-16	6.647491E-18
4.650000E+03	2.847775E-16	6.706803E-18
4.660000E+03	2.876090E-16	6.765622E-18
4.670000E+03	2.904227E-16	6.824003E-18
4.680000E+03	2.932053E-16	6.881631E-18
4.690000E+03	2.959474E-16	6.938292E-18
4.700000E+03	2.986394E-16	6.993770E-18
4.710000E+03	3.012760E-16	7.047941E-18
4.720000E+03	3.038480E-16	7.100598E-18
4.730000E+03	3.063466E-16	7.151539E-18
4.740000E+03	3.087592E-16	7.200481E-18
4.750000E+03	3.110845E-16	7.247398E-18
4.760000E+03	3.133144E-16	7.292107E-18
4.770000E+03	3.154363E-16	7.334325E-18
4.780000E+03	3.174460E-16	7.373962E-18
4.790000E+03	3.193351E-16	7.410831E-18
4.800000E+03	3.210958E-16	7.444756E-18
4.810000E+03	3.227200E-16	7.475560E-18
4.820000E+03	3.242037E-16	7.503159E-18
4.830000E+03	3.255393E-16	7.527388E-18
4.840000E+03	3.267267E-16	7.548247E-18
4.850000E+03	3.277550E-16	7.565498E-18
4.860000E+03	3.286247E-16	7.579161E-18
4.870000E+03	3.293330E-16	7.589176E-18
4.880000E+03	3.298774E-16	7.595498E-18
4.890000E+03	3.302562E-16	7.598092E-18
4.900000E+03	3.304680E-16	7.596934E-18
4.910000E+03	3.305086E-16	7.591940E-18
4.920000E+03	3.303855E-16	7.583284E-18
4.930000E+03	3.300963E-16	7.570920E-18
4.940000E+03	3.296463E-16	7.554977E-18
4.950000E+03	3.290352E-16	7.535451E-18
4.960000E+03	3.282737E-16	7.512597E-18
4.970000E+03	3.273599E-16	7.486376E-18
4.980000E+03	3.263101E-16	7.457164E-18
4.990000E+03	3.251243E-16	7.424964E-18
5.000000E+03	3.238170E-16	7.390116E-18
5.010000E+03	3.223969E-16	7.352816E-18
5.020000E+03	3.208733E-16	7.313281E-18
5.030000E+03	3.192595E-16	7.271818E-18
5.040000E+03	3.175661E-16	7.228665E-18
5.050000E+03	3.158072E-16	7.184150E-18
5.060000E+03	3.139941E-16	7.138526E-18
5.070000E+03	3.121447E-16	7.092199E-18
5.080000E+03	3.102637E-16	7.045277E-18
5.090000E+03	3.083720E-16	6.998232E-18
5.100000E+03	3.064774E-16	6.951240E-18
5.110000E+03	3.045936E-16	6.904609E-18
5.120000E+03	3.027337E-16	6.858633E-18
5.130000E+03	3.009071E-16	6.813523E-18
5.140000E+03	2.991257E-16	6.769544E-18
5.150000E+03	2.973974E-16	6.726870E-18
5.160000E+03	2.957352E-16	6.685792E-18
5.170000E+03	2.941421E-16	6.646374E-18
5.180000E+03	2.926264E-16	6.608799E-18
5.190000E+03	2.911951E-16	6.573221E-18
5.200000E+03	2.898542E-16	6.539773E-18
5.210000E+03	2.886058E-16	6.508494E-18
5.220000E+03	2.874509E-16	6.479406E-18
5.230000E+03	2.863955E-16	6.452636E-18
5.240000E+03	2.854358E-16	6.428098E-18
5.250000E+03	2.845757E-16	6.405873E-18
5.260000E+03	2.838126E-16	6.385902E-18
5.270000E+03	2.831430E-16	6.368100E-18
5.280000E+03	2.825657E-16	6.352435E-18
5.290000E+03	2.820785E-16	6.338857E-18
5.300000E+03	2.816789E-16	6.327308E-18
5.310000E+03	2.813580E-16	6.317582E-18
5.320000E+03	2.811123E-16	6.309599E-18
5.330000E+03	2.809378E-16	6.303268E-18
5.340000E+03	2.808303E-16	6.298489E-18
5.350000E+03	2.807795E-16	6.295035E-18
5.360000E+03	2.807838E-16	6.292865E-18
5.370000E+03	2.808330E-16	6.291747E-18
5.380000E+03	2.809251E-16	6.291639E-18
5.390000E+03	2.810501E-16	6.292314E-18
5.400000E+03	2.812064E-16	6.293737E-18
5.410000E+03	2.813843E-16	6.295689E-18
5.420000E+03	2.815829E-16	6.298148E-18
5.430000E+03	2.817900E-16	6.300845E-18
5.440000E+03	2.820081E-16	6.303834E-18
5.450000E+03	2.822291E-16	6.306931E-18
5.460000E+03	2.824474E-16	6.310015E-18
5.470000E+03	2.826611E-16	6.313040E-18
5.480000E+03	2.828658E-16	6.315912E-18
5.490000E+03	2.830599E-16	6.318594E-18
5.500000E+03	2.832369E-16	6.320940E-18
5.510000E+03	2.833935E-16	6.322871E-18
5.520000E+03	2.835293E-16	6.324380E-18
5.530000E+03	2.836417E-16	6.325407E-18
5.540000E+03	2.837257E-16	6.325836E-18
5.550000E+03	2.837852E-16	6.325754E-18
5.560000E+03	2.838105E-16	6.324943E-18
5.570000E+03	2.838066E-16	6.323511E-18
5.580000E+03	2.837733E-16	6.321455E-18
5.590000E+03	2.837054E-16	6.318654E-18
5.600000E+03	2.836067E-16	6.315191E-18
5.610000E+03	2.834783E-16	6.311092E-18
5.620000E+03	2.833197E-16	6.306340E-18
5.630000E+03	2.831328E-16	6.300980E-18
5.640000E+03	2.829177E-16	6.295008E-18
5.650000E+03	2.826828E-16	6.288609E-18
5.660000E+03	2.824229E-16	6.281670E-18
5.670000E+03	2.821469E-16	6.274386E-18
5.680000E+03	2.818503E-16	6.266652E-18
5.690000E+03	2.815422E-16	6.258670E-18
5.700000E+03	2.812234E-16	6.250458E-18
5.710000E+03	2.808923E-16	6.241976E-18
5.720000E+03	2.805578E-16	6.233423E-18
5.730000E+03	2.802185E-16	6.224763E-18
5.740000E+03	2.798802E-16	6.216126E-18
5.750000E+03	2.795384E-16	6.207407E-18
5.760000E+03	2.792015E-16	6.198795E-18
5.770000E+03	2.788700E-16	6.190297E-18
5.780000E+03	2.785438E-16	6.181909E-18
5.790000E+03	2.782229E-16	6.173630E-18
5.800000E+03	2.779123E-16	6.165568E-18
5.810000E+03	2.776086E-16	6.157648E-18
5.820000E+03	2.773136E-16	6.149907E-18
5.830000E+03	2.770314E-16	6.142435E-18
5.840000E+03	2.767551E-16	6.135079E-18
5.850000E+03	2.764885E-16	6.127919E-18
5.860000E+03	2.762321E-16	6.120966E-18
5.870000E+03	2.759784E-16	6.114053E-18
5.880000E+03	2.757354E-16	6.107355E-18
5.890000E+03	2.754926E-16	6.100639E-18
5.900000E+03	2.752552E-16	6.094018E-18
5.910000E+03	2.750202E-16	6.087427E-18
5.920000E+03	2.747821E-16	6.080739E-18
5.930000E+03	2.745457E-16	6.074063E-18
5.940000E+03	2.743029E-16	6.067219E-18
5.950000E+03	2.740564E-16	6.060261E-18
5.960000E+03	2.738058E-16	6.053186E-18
5.970000E+03	2.735464E-16	6.045883E-18
5.980000E+03	2.732811E-16	6.038421E-18
5.990000E+03	2.730082E-16	6.030759E-18
6.000000E+03	2.727264E-16	6.022868E-18
6.010000E+03	2.724396E-16	6.014834E-18
6.020000E+03	2.721475E-16	6.006649E-18
6.030000E+03	2.718523E-16	5.998361E-18
6.040000E+03	2.715543E-16	5.989979E-18
6.050000E+03	2.712570E-16	5.981575E-18
6.060000E+03	2.709639E-16	5.973231E-18
6.070000E+03	2.706795E-16	5.965041E-18
6.080000E+03	2.704080E-16	5.957101E-18
6.090000E+03	2.701545E-16	5.949518E-18
6.100000E+03	2.699218E-16	5.942358E-18
6.110000E+03	2.697178E-16	5.935792E-18
6.120000E+03	2.695460E-16	5.929894E-18
6.130000E+03	2.694174E-16	5.924910E-18
6.140000E+03	2.693333E-16	5.920861E-18
6.150000E+03	2.693052E-16	5.918005E-18
6.160000E+03	2.693373E-16	5.916425E-18
6.170000E+03	2.694412E-16	5.916383E-18
6.180000E+03	2.696193E-16	5.917922E-18
6.190000E+03	2.698861E-16	5.921363E-18
6.200000E+03	2.702472E-16	5.926822E-18
6.210000E+03	2.707103E-16	5.934470E-18
6.220000E+03	2.712896E-16	5.944612E-18
6.230000E+03	2.719924E-16	5.957406E-18
6.240000E+03	2.728324E-16	5.973145E-18
6.250000E+03	2.738218E-16	5.992095E-18
6.260000E+03	2.749719E-16	6.014498E-18
6.270000E+03	2.763003E-16	6.040735E-18
6.280000E+03	2.778230E-16	6.071145E-18
6.290000E+03	2.795560E-16	6.106076E-18
6.300000E+03	2.815188E-16	6.145945E-18
6.310000E+03	2.837276E-16	6.191097E-18
6.320000E+03	2.861956E-16	6.241812E-18
6.330000E+03	2.889439E-16	6.298538E-18
6.340000E+03	2.919837E-16	6.361513E-18
6.350000E+03	2.953317E-16	6.431085E-18
6.360000E+03	2.989998E-16	6.507503E-18
6.370000E+03	3.030014E-16	6.591048E-18
6.380000E+03	3.073421E-16	6.681825E-18
6.390000E+03	3.120314E-16	6.780029E-18
6.400000E+03	3.170731E-16	6.885727E-18
6.410000E+03	3.224678E-16	6.998919E-18
6.420000E+03	3.282161E-16	7.119603E-18
6.430000E+03	3.343116E-16	7.247624E-18
6.440000E+03	3.407435E-16	7.382732E-18
6.450000E+03	3.474957E-16	7.524568E-18
6.460000E+03	3.545507E-16	7.672736E-18
6.470000E+03	3.618779E-16	7.826559E-18
6.480000E+03	3.694515E-16	7.985471E-18
6.490000E+03	3.772280E-16	8.148518E-18
6.500000E+03	3.851730E-16	8.314946E-18
6.510000E+03	3.932294E-16	8.483517E-18
6.520000E+03	4.013417E-16	8.653028E-18
6.530000E+03	4.094479E-16	8.822139E-18
6.540000E+03	4.174805E-16	8.989396E-18
6.550000E+03	4.253578E-16	9.153041E-18
6.560000E+03	4.330117E-16	9.311619E-18
6.570000E+03	4.403532E-16	9.463225E-18
6.580000E+03	4.473009E-16	9.606123E-18
6.590000E+03	4.537685E-16	9.738478E-18
6.600000E+03	4.596764E-16	9.858604E-18
6.610000E+03	4.649439E-16	9.964796E-18
6.620000E+03	4.695006E-16	1.005558E-17
6.630000E+03	4.732734E-16	1.012942E-17
6.640000E+03	4.762089E-16	1.018520E-17
6.650000E+03	4.782588E-16	1.022195E-17
6.660000E+03	4.793925E-16	1.023905E-17
6.670000E+03	4.795816E-16	1.023592E-17
6.680000E+03	4.788162E-16	1.021242E-17
6.690000E+03	4.771111E-16	1.016889E-17
6.700000E+03	4.744730E-16	1.010553E-17
6.710000E+03	4.709317E-16	1.002302E-17
6.720000E+03	4.665348E-16	9.922412E-18
6.730000E+03	4.613343E-16	9.804857E-18
6.740000E+03	4.553916E-16	9.671696E-18
6.750000E+03	4.487753E-16	9.524423E-18
6.760000E+03	4.415542E-16	9.364528E-18
6.770000E+03	4.338058E-16	9.193690E-18
6.780000E+03	4.256153E-16	9.013735E-18
6.790000E+03	4.170625E-16	8.826375E-18
6.800000E+03	4.082163E-16	8.633086E-18
6.810000E+03	3.991630E-16	8.435711E-18
6.820000E+03	3.899753E-16	8.235789E-18
6.830000E+03	3.807120E-16	8.034575E-18
6.840000E+03	3.714413E-16	7.833507E-18
6.850000E+03	3.622207E-16	7.633802E-18
6.860000E+03	3.531020E-16	7.436549E-18
6.870000E+03	3.441268E-16	7.242616E-18
6.880000E+03	3.353393E-16	7.052931E-18
6.890000E+03	3.267694E-16	6.868114E-18
6.900000E+03	3.184460E-16	6.688759E-18
6.910000E+03	3.103963E-16	6.515432E-18
6.920000E+03	3.026312E-16	6.348345E-18
6.930000E+03	2.951688E-16	6.187866E-18
6.940000E+03	2.880192E-16	6.034197E-18
6.950000E+03	2.811854E-16	5.887387E-18
6.960000E+03	2.746746E-16	5.747568E-18
6.970000E+03	2.684837E-16	5.614669E-18
6.980000E+03	2.626146E-16	5.488712E-18
6.990000E+03	2.570570E-16	5.369469E-18
7.000000E+03	2.518085E-16	5.256880E-18
7.010000E+03	2.468625E-16	5.150795E-18
7.020000E+03	2.422078E-16	5.050968E-18
7.030000E+03	2.378385E-16	4.957266E-18
7.040000E+03	2.337419E-16	4.869416E-18
7.050000E+03	2.299080E-16	4.787194E-18
7.060000E+03	2.263289E-16	4.710434E-18
7.070000E+03	2.229879E-16	4.638778E-18
7.080000E+03	2.198770E-16	4.572051E-18
7.090000E+03	2.169852E-16	4.510017E-18
7.100000E+03	2.142985E-16	4.452382E-18
7.110000E+03	2.118087E-16	4.398969E-18
7.120000E+03	2.095022E-16	4.349491E-18
7.130000E+03	2.073684E-16	4.303724E-18
7.140000E+03	2.053969E-16	4.261447E-18
7.150000E+03	2.035774E-16	4.222447E-18
7.160000E+03	2.018998E-16	4.186511E-18
7.170000E+03	2.003545E-16	4.153436E-18
7.180000E+03	1.989294E-16	4.122973E-18
7.190000E+03	1.976180E-16	4.094982E-18
7.200000E+03	1.964086E-16	4.069227E-18
7.210000E+03	1.952928E-16	4.045527E-18
7.220000E+03	1.942647E-16	4.023765E-18
7.230000E+03	1.933114E-16	4.003672E-18
7.240000E+03	1.924302E-16	3.985193E-18
7.250000E+03	1.916085E-16	3.968071E-18
7.260000E+03	1.908445E-16	3.952268E-18
7.270000E+03	1.901237E-16	3.937483E-18
7.280000E+03	1.894472E-16	3.923747E-18
7.290000E+03	1.888040E-16	3.910828E-18
7.300000E+03	1.881910E-16	3.898665E-18
7.310000E+03	1.875999E-16	3.887092E-18
7.320000E+03	1.870261E-16	3.876010E-18
7.330000E+03	1.864671E-16	3.865372E-18
7.340000E+03	1.859163E-16	3.855044E-18
7.350000E+03	1.853697E-16	3.844944E-18
7.360000E+03	1.848262E-16	3.835053E-18
7.370000E+03	1.842778E-16	3.825203E-18
7.380000E+03	1.837267E-16	3.815443E-18
7.390000E+03	1.831654E-16	3.805618E-18
7.400000E+03	1.825970E-16	3.795796E-18
7.410000E+03	1.820148E-16	3.785837E-18
7.420000E+03	1.814225E-16	3.775818E-18
7.430000E+03	1.808142E-16	3.765620E-18
7.440000E+03	1.801917E-16	3.755278E-18
7.450000E+03	1.795573E-16	3.744844E-18
7.460000E+03	1.789033E-16	3.734153E-18
7.470000E+03	1.782376E-16	3.723376E-18
7.480000E+03	1.775556E-16	3.712411E-18
7.490000E+03	1.768604E-16	3.701326E-18
7.500000E+03	1.761530E-16	3.690142E-18
7.510000E+03	1.754344E-16	3.678878E-18
7.520000E+03	1.747085E-16	3.667616E-18
7.530000E+03	1.739712E-16	3.656269E-18
7.540000E+03	1.732290E-16	3.644970E-18
7.550000E+03	1.724835E-16	3.633747E-18
7.560000E+03	1.717336E-16	3.622572E-18
7.570000E+03	1.709860E-16	3.611580E-18
7.580000E+03	1.702347E-16	3.600641E-18
7.590000E+03	1.694889E-16	3.589945E-18
7.600000E+03	1.687477E-16	3.579468E-18
7.610000E+03	1.680152E-16	3.569295E-18
7.620000E+03	1.672880E-16	3.559345E-18
7.630000E+03	1.665720E-16	3.549746E-18
7.640000E+03	1.658687E-16	3.540522E-18
7.650000E+03	1.651763E-16	3.531634E-18
7.660000E+03	1.644983E-16	3.523152E-18
7.670000E+03	1.638356E-16	3.515093E-18
7.680000E+03	1.631887E-16	3.507468E-18
7.690000E+03	1.625584E-16	3.500288E-18
7.700000E+03	1.619453E-16	3.493566E-18
7.710000E+03	1.613521E-16	3.487359E-18
7.720000E+03	1.607769E-16	3.481622E-18
7.730000E+03	1.602194E-16	3.476350E-18
7.740000E+03	1.596850E-16	3.471656E-18
7.750000E+03	1.591683E-16	3.467424E-18
7.760000E+03	1.586716E-16	3.463703E-18
