#wls	flux	fluxerr
1.600000E+03	6.039683E-18	1.680485E-19
1.640000E+03	6.169157E-18	1.716507E-19
1.680000E+03	6.305576E-18	1.754461E-19
1.720000E+03	6.449131E-18	1.794401E-19
1.760000E+03	6.597824E-18	1.835771E-19
1.800000E+03	6.756245E-18	1.879847E-19
1.840000E+03	6.920194E-18	1.925461E-19
1.880000E+03	7.094339E-18	1.973911E-19
1.920000E+03	7.274432E-18	2.024017E-19
1.960000E+03	7.462938E-18	2.076463E-19
2.000000E+03	7.660100E-18	2.131318E-19
2.040000E+03	7.866165E-18	2.188649E-19
2.080000E+03	8.083727E-18	2.249179E-19
2.120000E+03	8.308377E-18	2.311682E-19
2.160000E+03	8.542696E-18	2.376874E-19
2.200000E+03	8.784537E-18	2.444159E-19
2.240000E+03	9.038945E-18	2.514941E-19
2.280000E+03	9.301338E-18	2.587944E-19
2.320000E+03	9.574369E-18	2.663906E-19
2.360000E+03	9.858274E-18	2.742894E-19
2.400000E+03	1.015075E-17	2.824267E-19
2.440000E+03	1.045194E-17	2.908063E-19
2.480000E+03	1.076450E-17	2.995025E-19
2.520000E+03	1.108602E-17	3.084477E-19
2.560000E+03	1.141915E-17	3.177161E-19
2.600000E+03	1.175868E-17	3.271624E-19
2.640000E+03	1.210985E-17	3.369327E-19
2.680000E+03	1.246993E-17	3.469506E-19
2.720000E+03	1.283876E-17	3.572122E-19
2.760000E+03	1.321612E-17	3.677109E-19
2.800000E+03	1.359890E-17	3.783604E-19
2.840000E+03	1.399226E-17	3.893044E-19
2.880000E+03	1.439007E-17	4.003722E-19
2.920000E+03	1.480028E-17	4.117848E-19
2.960000E+03	1.521650E-17	4.233648E-19
3.000000E+03	1.564372E-17	4.352507E-19
3.010000E+03	1.575297E-17	4.382902E-19
3.020000E+03	1.586230E-17	4.413319E-19
3.030000E+03	1.597167E-17	4.443747E-19
3.040000E+03	1.608404E-17	4.475010E-19
3.050000E+03	1.619643E-17	4.506280E-19
3.060000E+03	1.630881E-17	4.537547E-19
3.070000E+03	1.642417E-17	4.569641E-19
3.080000E+03	1.653949E-17	4.601725E-19
3.090000E+03	1.665475E-17	4.633791E-19
3.100000E+03	1.677294E-17	4.666673E-19
3.110000E+03	1.689404E-17	4.700365E-19
3.120000E+03	1.701503E-17	4.734027E-19
3.130000E+03	1.713589E-17	4.767651E-19
3.140000E+03	1.725960E-17	4.802071E-19
3.150000E+03	1.738618E-17	4.837286E-19
3.160000E+03	1.751560E-17	4.873293E-19
3.170000E+03	1.764480E-17	4.909237E-19
3.180000E+03	1.777375E-17	4.945113E-19
3.190000E+03	1.790852E-17	4.982610E-19
3.200000E+03	1.804301E-17	5.020027E-19
3.210000E+03	1.818024E-17	5.058206E-19
3.220000E+03	1.832325E-17	5.097995E-19
3.230000E+03	1.846591E-17	5.137684E-19
3.240000E+03	1.861124E-17	5.178117E-19
3.250000E+03	1.875922E-17	5.219286E-19
3.260000E+03	1.890983E-17	5.261189E-19
3.270000E+03	1.906304E-17	5.303813E-19
3.280000E+03	1.921883E-17	5.347157E-19
3.290000E+03	1.938025E-17	5.392068E-19
3.300000E+03	1.954422E-17	5.437686E-19
3.310000E+03	1.971067E-17	5.483996E-19
3.320000E+03	1.988270E-17	5.531856E-19
3.330000E+03	2.005716E-17	5.580395E-19
3.340000E+03	2.023402E-17	5.629601E-19
3.350000E+03	2.041638E-17	5.680335E-19
3.360000E+03	2.060420E-17	5.732591E-19
3.370000E+03	2.079433E-17	5.785489E-19
3.380000E+03	2.099301E-17	5.840765E-19
3.390000E+03	2.119394E-17	5.896667E-19
3.400000E+03	2.139711E-17	5.953191E-19
3.410000E+03	2.160875E-17	6.012073E-19
3.420000E+03	2.182573E-17	6.072441E-19
3.430000E+03	2.204805E-17	6.134293E-19
3.440000E+03	2.227570E-17	6.197629E-19
3.450000E+03	2.251185E-17	6.263331E-19
3.460000E+03	2.275340E-17	6.330533E-19
3.470000E+03	2.300040E-17	6.399253E-19
3.480000E+03	2.325606E-17	6.470384E-19
3.490000E+03	2.351737E-17	6.543084E-19
3.500000E+03	2.378760E-17	6.618267E-19
3.510000E+03	2.406693E-17	6.695981E-19
3.520000E+03	2.435557E-17	6.776286E-19
3.530000E+03	2.465378E-17	6.859253E-19
3.540000E+03	2.495872E-17	6.944092E-19
3.550000E+03	2.527704E-17	7.032656E-19
3.560000E+03	2.560602E-17	7.124183E-19
3.570000E+03	2.594926E-17	7.219679E-19
3.580000E+03	2.630100E-17	7.317538E-19
3.590000E+03	2.667127E-17	7.420554E-19
3.600000E+03	2.705125E-17	7.526270E-19
3.610000E+03	2.745113E-17	7.637524E-19
3.620000E+03	2.786538E-17	7.752776E-19
3.630000E+03	2.829800E-17	7.873140E-19
3.640000E+03	2.875309E-17	7.999756E-19
3.650000E+03	2.922526E-17	8.131119E-19
3.660000E+03	2.971869E-17	8.268401E-19
3.670000E+03	3.023446E-17	8.411898E-19
3.680000E+03	3.077689E-17	8.562811E-19
3.690000E+03	3.134716E-17	8.721472E-19
3.700000E+03	3.194011E-17	8.886443E-19
3.710000E+03	3.256670E-17	9.060770E-19
3.720000E+03	3.322182E-17	9.243038E-19
3.730000E+03	3.391011E-17	9.434534E-19
3.740000E+03	3.463299E-17	9.635650E-19
3.750000E+03	3.539191E-17	9.846798E-19
3.760000E+03	3.618835E-17	1.006838E-18
3.770000E+03	3.702709E-17	1.030174E-18
3.780000E+03	3.790635E-17	1.054636E-18
3.790000E+03	3.882762E-17	1.080268E-18
3.800000E+03	3.979574E-17	1.107202E-18
3.810000E+03	4.081220E-17	1.135482E-18
3.820000E+03	4.187848E-17	1.165148E-18
3.830000E+03	4.299597E-17	1.196239E-18
3.840000E+03	4.416598E-17	1.228791E-18
3.850000E+03	4.538969E-17	1.262837E-18
3.860000E+03	4.666807E-17	1.298404E-18
3.870000E+03	4.800544E-17	1.335612E-18
3.880000E+03	4.939870E-17	1.374375E-18
3.890000E+03	5.085517E-17	1.414897E-18
3.900000E+03	5.236724E-17	1.456965E-18
3.910000E+03	5.393752E-17	1.500653E-18
3.920000E+03	5.556813E-17	1.546020E-18
3.930000E+03	5.724905E-17	1.592786E-18
3.940000E+03	5.898439E-17	1.641067E-18
3.950000E+03	6.076972E-17	1.690738E-18
3.960000E+03	6.259554E-17	1.741536E-18
3.970000E+03	6.445884E-17	1.793376E-18
3.980000E+03	6.635553E-17	1.846146E-18
3.990000E+03	6.826833E-17	1.899363E-18
3.999850E+03	6.954364E-17	1.934844E-18
4.001320E+03	7.291503E-17	2.028643E-18
4.002790E+03	7.484853E-17	2.082437E-18
4.004260E+03	7.624224E-17	2.121213E-18
4.005730E+03	7.833457E-17	2.179425E-18
4.007200E+03	8.230245E-17	2.289820E-18
4.008670E+03	8.649120E-17	2.406359E-18
4.010140E+03	8.939778E-17	2.487226E-18
4.011610E+03	9.235976E-17	2.569634E-18
4.013080E+03	9.516598E-17	2.647709E-18
4.014550E+03	9.860087E-17	2.743274E-18
4.016020E+03	1.035377E-16	2.880627E-18
4.017490E+03	1.057121E-16	2.941123E-18
4.018960E+03	1.066033E-16	2.965917E-18
4.020430E+03	1.081357E-16	3.008552E-18
4.021900E+03	1.099574E-16	3.059235E-18
4.023370E+03	1.111997E-16	3.093798E-18
4.024840E+03	1.122451E-16	3.122884E-18
4.026310E+03	1.136420E-16	3.161748E-18
4.027780E+03	1.155454E-16	3.214703E-18
4.029250E+03	1.189270E-16	3.308786E-18
4.030720E+03	1.209225E-16	3.364306E-18
4.032190E+03	1.234036E-16	3.433335E-18
4.033660E+03	1.283652E-16	3.571376E-18
4.035130E+03	1.305971E-16	3.633472E-18
4.036600E+03	1.320638E-16	3.674280E-18
4.038070E+03	1.343984E-16	3.739231E-18
4.039540E+03	1.381586E-16	3.843848E-18
4.041010E+03	1.410915E-16	3.925446E-18
4.042480E+03	1.425568E-16	3.966214E-18
4.043950E+03	1.456954E-16	4.053536E-18
4.045420E+03	1.479864E-16	4.117276E-18
4.046890E+03	1.490581E-16	4.147092E-18
4.048360E+03	1.511625E-16	4.205641E-18
4.049830E+03	1.522853E-16	4.236880E-18
4.051300E+03	1.536971E-16	4.276160E-18
4.052770E+03	1.550261E-16	4.313135E-18
4.054240E+03	1.551572E-16	4.316782E-18
4.055710E+03	1.544726E-16	4.297734E-18
4.057180E+03	1.533546E-16	4.266630E-18
4.058650E+03	1.533928E-16	4.267692E-18
4.060120E+03	1.529356E-16	4.254973E-18
4.061590E+03	1.515394E-16	4.216127E-18
4.063060E+03	1.514332E-16	4.213172E-18
4.064530E+03	1.513167E-16	4.209931E-18
4.066000E+03	1.515717E-16	4.217024E-18
4.067470E+03	1.510219E-16	4.201729E-18
4.068940E+03	1.512459E-16	4.207961E-18
4.070410E+03	1.510057E-16	4.201277E-18
4.071880E+03	1.488781E-16	4.142083E-18
4.073350E+03	1.461836E-16	4.067118E-18
4.074820E+03	1.425719E-16	3.966632E-18
4.076290E+03	1.381977E-16	3.844934E-18
4.077760E+03	1.339481E-16	3.726700E-18
4.079230E+03	1.314414E-16	3.656959E-18
4.080700E+03	1.290795E-16	3.591245E-18
4.082170E+03	1.259140E-16	3.503175E-18
4.083640E+03	1.221925E-16	3.399635E-18
4.085110E+03	1.196671E-16	3.329374E-18
4.086580E+03	1.183581E-16	3.292956E-18
4.088050E+03	1.154728E-16	3.212680E-18
4.089520E+03	1.114754E-16	3.101464E-18
4.090990E+03	1.085501E-16	3.020076E-18
4.092460E+03	1.072012E-16	2.982549E-18
4.093930E+03	1.041943E-16	2.898891E-18
4.095400E+03	1.012230E-16	2.816224E-18
4.096870E+03	1.007671E-16	2.803538E-18
4.098340E+03	9.825472E-17	2.733639E-18
4.099810E+03	9.414393E-17	2.619269E-18
4.101280E+03	9.092436E-17	2.529694E-18
4.102750E+03	8.845892E-17	2.461101E-18
4.104220E+03	8.658785E-17	2.409044E-18
4.105690E+03	8.501148E-17	2.365186E-18
4.107160E+03	8.311017E-17	2.312287E-18
4.108630E+03	8.101779E-17	2.254073E-18
4.110100E+03	8.118232E-17	2.258651E-18
4.111570E+03	8.237777E-17	2.291911E-18
4.113040E+03	8.155657E-17	2.269063E-18
4.115980E+03	8.130526E-17	2.262071E-18
4.117450E+03	8.078777E-17	2.247673E-18
4.118920E+03	7.903934E-17	2.199029E-18
4.121860E+03	7.723180E-17	2.148739E-18
4.123330E+03	7.515001E-17	2.090820E-18
4.124800E+03	7.453460E-17	2.073698E-18
4.126270E+03	7.500893E-17	2.086894E-18
4.127740E+03	7.567229E-17	2.105350E-18
4.129210E+03	7.826260E-17	2.177418E-18
4.130680E+03	8.106825E-17	2.255476E-18
4.132150E+03	8.207408E-17	2.283460E-18
4.133620E+03	8.282594E-17	2.304379E-18
4.135090E+03	8.420849E-17	2.342844E-18
4.136560E+03	8.476584E-17	2.358350E-18
4.138030E+03	8.444279E-17	2.349362E-18
4.139500E+03	8.516539E-17	2.369466E-18
4.140970E+03	8.645887E-17	2.405453E-18
4.142440E+03	8.724380E-17	2.427292E-18
4.143910E+03	8.937887E-17	2.486693E-18
4.145380E+03	9.249203E-17	2.573307E-18
4.146850E+03	9.450097E-17	2.629200E-18
4.148320E+03	9.784406E-17	2.722211E-18
4.149790E+03	1.011034E-16	2.812892E-18
4.151260E+03	1.038377E-16	2.888965E-18
4.152730E+03	1.070097E-16	2.977216E-18
4.154200E+03	1.111252E-16	3.091717E-18
4.155670E+03	1.165020E-16	3.241311E-18
4.157140E+03	1.201953E-16	3.344064E-18
4.158610E+03	1.220925E-16	3.396849E-18
4.160080E+03	1.245741E-16	3.465891E-18
4.161550E+03	1.279168E-16	3.558892E-18
4.163020E+03	1.305205E-16	3.631331E-18
4.164490E+03	1.309905E-16	3.644409E-18
4.165960E+03	1.326091E-16	3.689441E-18
4.167430E+03	1.339505E-16	3.726759E-18
4.168900E+03	1.346354E-16	3.745816E-18
4.170370E+03	1.352793E-16	3.763730E-18
4.171840E+03	1.365893E-16	3.800175E-18
4.173310E+03	1.383296E-16	3.848595E-18
4.174780E+03	1.400900E-16	3.897574E-18
4.176250E+03	1.414812E-16	3.936280E-18
4.177720E+03	1.416221E-16	3.940197E-18
4.179190E+03	1.423265E-16	3.959795E-18
4.180660E+03	1.430818E-16	3.980811E-18
4.182130E+03	1.417167E-16	3.942830E-18
4.183600E+03	1.414478E-16	3.935347E-18
4.185070E+03	1.423465E-16	3.960351E-18
4.186540E+03	1.431324E-16	3.982216E-18
4.188010E+03	1.411328E-16	3.926583E-18
4.189480E+03	1.395432E-16	3.882358E-18
4.190950E+03	1.405850E-16	3.911345E-18
4.192420E+03	1.390368E-16	3.868269E-18
4.193890E+03	1.377754E-16	3.833173E-18
4.195360E+03	1.371692E-16	3.816310E-18
4.196830E+03	1.346493E-16	3.746200E-18
4.198300E+03	1.332761E-16	3.707995E-18
4.199770E+03	1.300714E-16	3.618835E-18
4.201240E+03	1.260998E-16	3.508337E-18
4.202710E+03	1.244414E-16	3.462196E-18
4.204180E+03	1.232639E-16	3.429438E-18
4.205650E+03	1.220970E-16	3.396970E-18
4.207120E+03	1.201835E-16	3.343733E-18
4.208590E+03	1.190068E-16	3.310996E-18
4.210060E+03	1.188224E-16	3.305864E-18
4.211530E+03	1.173290E-16	3.264317E-18
4.213000E+03	1.163472E-16	3.237001E-18
4.214470E+03	1.149669E-16	3.198596E-18
4.215940E+03	1.123395E-16	3.125498E-18
4.217410E+03	1.089461E-16	3.031087E-18
4.218880E+03	1.059314E-16	2.947212E-18
4.220350E+03	1.027844E-16	2.859657E-18
4.221820E+03	1.004586E-16	2.794949E-18
4.223290E+03	9.960468E-17	2.771191E-18
4.224760E+03	9.879385E-17	2.748632E-18
4.226230E+03	9.726596E-17	2.706123E-18
4.227700E+03	9.464830E-17	2.633295E-18
4.229170E+03	9.171142E-17	2.551585E-18
4.230640E+03	8.807950E-17	2.450538E-18
4.232110E+03	8.643466E-17	2.404775E-18
4.233580E+03	8.491266E-17	2.362430E-18
4.235050E+03	8.092901E-17	2.251598E-18
4.236520E+03	7.892586E-17	2.195866E-18
4.237990E+03	7.849736E-17	2.183945E-18
4.239460E+03	7.858346E-17	2.186340E-18
4.240930E+03	7.667294E-17	2.133186E-18
4.242400E+03	7.486687E-17	2.082937E-18
4.243870E+03	7.216199E-17	2.007682E-18
4.245340E+03	6.988926E-17	1.944451E-18
4.246810E+03	7.025981E-17	1.954760E-18
4.248280E+03	7.132312E-17	1.984343E-18
4.249750E+03	7.052840E-17	1.962233E-18
4.251220E+03	6.912683E-17	1.923238E-18
4.252690E+03	6.814476E-17	1.895915E-18
4.254160E+03	6.861636E-17	1.909036E-18
4.255630E+03	6.985689E-17	1.943550E-18
4.257100E+03	7.235670E-17	2.013099E-18
4.258570E+03	7.502233E-17	2.087262E-18
4.260040E+03	7.583688E-17	2.109924E-18
4.261510E+03	7.573574E-17	2.107110E-18
4.262980E+03	7.542871E-17	2.098568E-18
4.264450E+03	7.531544E-17	2.095416E-18
4.265920E+03	7.734273E-17	2.151820E-18
4.267390E+03	8.063355E-17	2.243376E-18
4.268860E+03	8.308000E-17	2.311441E-18
4.270330E+03	8.486778E-17	2.361180E-18
4.271800E+03	8.612440E-17	2.396142E-18
4.273270E+03	8.662279E-17	2.410008E-18
4.274740E+03	8.661070E-17	2.409671E-18
4.276210E+03	8.652020E-17	2.407153E-18
4.277680E+03	8.696657E-17	2.419572E-18
4.279150E+03	8.727743E-17	2.428221E-18
4.280620E+03	8.684477E-17	2.416183E-18
4.282090E+03	8.630833E-17	2.401258E-18
4.283560E+03	8.693696E-17	2.418748E-18
4.285030E+03	8.789543E-17	2.445414E-18
4.286500E+03	8.673806E-17	2.413214E-18
4.287970E+03	8.514718E-17	2.368953E-18
4.289440E+03	8.444225E-17	2.349340E-18
4.290910E+03	8.338016E-17	2.319791E-18
4.292380E+03	8.274373E-17	2.302084E-18
4.293850E+03	8.225196E-17	2.288402E-18
4.295320E+03	8.185696E-17	2.277412E-18
4.296790E+03	8.216116E-17	2.285876E-18
4.298260E+03	8.231679E-17	2.290206E-18
4.299730E+03	8.271866E-17	2.301386E-18
4.301200E+03	8.220586E-17	2.287119E-18
4.302670E+03	8.122522E-17	2.259836E-18
4.304140E+03	8.023764E-17	2.232360E-18
4.305610E+03	7.914851E-17	2.202058E-18
4.307080E+03	7.728558E-17	2.150228E-18
4.308550E+03	7.506496E-17	2.088446E-18
4.310020E+03	7.417994E-17	2.063823E-18
4.311490E+03	7.291376E-17	2.028595E-18
4.312960E+03	7.226905E-17	2.010658E-18
4.314430E+03	7.208810E-17	2.005624E-18
4.315900E+03	7.128501E-17	1.983281E-18
4.317370E+03	7.052680E-17	1.962186E-18
4.318840E+03	7.006962E-17	1.949466E-18
4.320310E+03	6.866725E-17	1.910449E-18
4.321780E+03	6.660038E-17	1.852945E-18
4.323250E+03	6.516598E-17	1.813037E-18
4.324720E+03	6.388830E-17	1.777490E-18
4.326190E+03	6.251936E-17	1.739404E-18
4.327660E+03	6.144837E-17	1.709607E-18
4.329130E+03	6.091809E-17	1.694853E-18
4.330600E+03	6.021519E-17	1.675297E-18
4.332070E+03	5.928079E-17	1.649300E-18
4.333540E+03	5.946906E-17	1.654539E-18
4.335010E+03	5.954764E-17	1.656725E-18
4.336480E+03	5.810976E-17	1.616720E-18
4.337950E+03	5.762683E-17	1.603284E-18
4.339420E+03	5.767311E-17	1.604572E-18
4.340890E+03	5.774685E-17	1.606623E-18
4.342360E+03	5.747739E-17	1.599126E-18
4.343830E+03	5.695819E-17	1.584681E-18
4.345300E+03	5.822716E-17	1.619986E-18
4.346770E+03	5.912645E-17	1.645006E-18
4.348240E+03	5.834240E-17	1.623192E-18
4.349710E+03	5.857467E-17	1.629654E-18
4.351180E+03	5.918866E-17	1.646737E-18
4.352650E+03	5.958946E-17	1.657888E-18
4.354120E+03	5.977710E-17	1.663108E-18
4.355590E+03	6.040324E-17	1.680528E-18
4.357060E+03	6.115013E-17	1.701308E-18
4.358530E+03	6.079991E-17	1.691565E-18
4.362940E+03	6.047834E-17	1.682618E-18
4.364410E+03	5.995390E-17	1.668027E-18
4.365880E+03	6.048172E-17	1.682712E-18
4.367350E+03	6.167714E-17	1.715970E-18
4.368820E+03	6.324179E-17	1.759501E-18
4.370290E+03	6.473026E-17	1.800913E-18
4.371760E+03	6.554101E-17	1.823470E-18
4.373230E+03	6.618741E-17	1.841454E-18
4.374700E+03	6.668269E-17	1.855233E-18
4.376170E+03	6.789307E-17	1.888908E-18
4.377640E+03	6.900097E-17	1.919732E-18
4.379110E+03	7.149430E-17	1.989101E-18
4.380580E+03	7.355545E-17	2.046446E-18
4.382050E+03	7.477578E-17	2.080398E-18
4.383520E+03	7.622325E-17	2.120669E-18
4.384990E+03	7.711600E-17	2.145507E-18
4.386460E+03	7.805743E-17	2.171699E-18
4.387930E+03	7.819375E-17	2.175492E-18
4.389400E+03	7.870632E-17	2.189752E-18
4.390870E+03	8.019539E-17	2.231181E-18
4.392340E+03	8.266794E-17	2.299971E-18
4.393810E+03	8.358310E-17	2.325433E-18
4.395280E+03	8.342360E-17	2.320995E-18
4.396750E+03	8.394043E-17	2.335374E-18
4.398220E+03	8.605509E-17	2.394208E-18
4.399690E+03	8.807749E-17	2.450475E-18
4.401160E+03	8.984542E-17	2.499662E-18
4.402630E+03	9.070812E-17	2.523663E-18
4.404100E+03	9.146140E-17	2.544621E-18
4.405570E+03	9.094866E-17	2.530355E-18
4.407040E+03	8.982986E-17	2.499228E-18
4.408510E+03	8.976339E-17	2.497379E-18
4.409980E+03	9.074615E-17	2.524721E-18
4.411450E+03	9.220539E-17	2.565320E-18
4.412920E+03	9.376912E-17	2.608825E-18
4.414390E+03	9.312630E-17	2.590941E-18
4.415860E+03	9.150147E-17	2.545735E-18
4.417330E+03	9.094408E-17	2.530227E-18
4.418800E+03	9.093009E-17	2.529838E-18
4.420270E+03	9.146558E-17	2.544736E-18
4.421740E+03	9.171434E-17	2.551657E-18
4.423210E+03	9.169565E-17	2.551137E-18
4.424680E+03	9.214635E-17	2.563677E-18
4.426150E+03	9.248874E-17	2.573202E-18
4.427620E+03	9.272483E-17	2.579771E-18
4.429090E+03	9.293875E-17	2.585722E-18
4.430560E+03	9.355925E-17	2.602986E-18
4.432030E+03	9.272848E-17	2.579872E-18
4.433500E+03	9.160492E-17	2.548613E-18
4.434970E+03	9.251166E-17	2.573840E-18
4.436440E+03	9.273235E-17	2.579980E-18
4.437910E+03	9.214538E-17	2.563649E-18
4.439380E+03	9.214134E-17	2.563536E-18
4.440850E+03	9.285610E-17	2.583422E-18
4.442320E+03	9.360143E-17	2.604159E-18
4.443790E+03	9.336168E-17	2.597488E-18
4.445260E+03	9.371912E-17	2.607433E-18
4.446730E+03	9.407064E-17	2.617213E-18
4.448200E+03	9.389318E-17	2.612275E-18
4.449670E+03	9.335602E-17	2.597330E-18
4.451140E+03	9.263954E-17	2.577397E-18
4.452610E+03	9.239459E-17	2.570582E-18
4.454080E+03	9.251071E-17	2.573812E-18
4.455550E+03	9.286423E-17	2.583648E-18
4.457020E+03	9.309423E-17	2.590047E-18
4.458490E+03	9.321595E-17	2.593433E-18
4.459960E+03	9.417635E-17	2.620153E-18
4.461430E+03	9.483788E-17	2.638558E-18
4.462900E+03	9.474420E-17	2.635952E-18
4.464370E+03	9.473587E-17	2.635720E-18
4.465840E+03	9.456243E-17	2.630894E-18
4.467310E+03	9.422690E-17	2.621559E-18
4.468780E+03	9.507912E-17	2.645269E-18
4.470250E+03	9.607461E-17	2.672966E-18
4.471720E+03	9.670529E-17	2.690512E-18
4.473190E+03	9.767189E-17	2.717405E-18
4.474660E+03	9.900198E-17	2.754410E-18
4.476130E+03	9.989206E-17	2.779174E-18
4.477600E+03	9.944743E-17	2.766803E-18
4.479070E+03	9.931747E-17	2.763187E-18
4.480540E+03	9.951124E-17	2.768578E-18
4.482010E+03	9.968299E-17	2.773356E-18
4.483480E+03	9.985078E-17	2.778025E-18
4.484950E+03	1.001934E-16	2.787558E-18
4.486420E+03	1.009949E-16	2.809857E-18
4.487890E+03	1.009889E-16	2.809689E-18
4.489360E+03	1.006897E-16	2.801364E-18
4.490830E+03	1.007763E-16	2.803773E-18
4.492300E+03	1.009413E-16	2.808364E-18
4.493770E+03	1.006942E-16	2.801491E-18
4.495240E+03	1.009307E-16	2.808069E-18
4.496710E+03	1.018069E-16	2.832448E-18
4.498180E+03	1.012984E-16	2.818300E-18
4.499650E+03	1.004254E-16	2.794010E-18
4.501120E+03	1.001445E-16	2.786195E-18
4.502590E+03	9.929895E-17	2.762671E-18
4.504060E+03	9.842494E-17	2.738354E-18
4.505530E+03	9.812903E-17	2.730122E-18
4.507000E+03	9.727138E-17	2.706260E-18
4.508470E+03	9.659253E-17	2.687373E-18
4.509940E+03	9.620228E-17	2.676516E-18
4.511410E+03	9.548279E-17	2.656498E-18
4.512880E+03	9.477450E-17	2.636792E-18
4.514350E+03	9.381919E-17	2.610214E-18
4.515820E+03	9.183091E-17	2.554896E-18
4.517290E+03	9.000301E-17	2.504041E-18
4.518760E+03	8.975504E-17	2.497142E-18
4.520230E+03	8.901696E-17	2.476607E-18
4.521700E+03	8.714788E-17	2.424606E-18
4.523170E+03	8.665475E-17	2.410886E-18
4.524640E+03	8.585033E-17	2.388506E-18
4.526110E+03	8.474266E-17	2.357689E-18
4.527580E+03	8.389942E-17	2.334228E-18
4.529050E+03	8.319245E-17	2.314559E-18
4.530520E+03	8.322634E-17	2.315502E-18
4.531990E+03	8.343847E-17	2.321403E-18
4.533460E+03	8.294935E-17	2.307795E-18
4.534930E+03	8.326758E-17	2.316649E-18
4.536400E+03	8.323877E-17	2.315847E-18
4.537870E+03	8.275485E-17	2.302384E-18
4.539340E+03	8.230962E-17	2.289996E-18
4.540810E+03	8.316001E-17	2.313656E-18
4.542280E+03	8.313868E-17	2.313062E-18
4.543750E+03	8.221170E-17	2.287272E-18
4.545220E+03	8.163612E-17	2.271258E-18
4.546690E+03	8.081387E-17	2.248382E-18
4.548160E+03	8.116258E-17	2.258084E-18
4.549630E+03	8.134429E-17	2.263139E-18
4.551100E+03	8.135689E-17	2.263490E-18
4.552570E+03	8.196912E-17	2.280523E-18
4.554040E+03	8.251837E-17	2.295804E-18
4.555510E+03	8.207754E-17	2.283539E-18
4.556980E+03	8.151019E-17	2.267754E-18
4.558450E+03	8.092441E-17	2.251457E-18
