#wls	flux	fluxerr
1.600000E+03	5.568343E-18	1.365867E-19
1.640000E+03	5.672868E-18	1.391505E-19
1.680000E+03	5.781526E-18	1.418156E-19
1.720000E+03	5.894446E-18	1.445853E-19
1.760000E+03	6.016063E-18	1.475683E-19
1.800000E+03	6.142259E-18	1.506636E-19
1.840000E+03	6.275360E-18	1.539283E-19
1.880000E+03	6.415556E-18	1.573670E-19
1.920000E+03	6.560843E-18	1.609306E-19
1.960000E+03	6.715828E-18	1.647320E-19
2.000000E+03	6.876299E-18	1.686680E-19
2.040000E+03	7.046939E-18	1.728535E-19
2.080000E+03	7.223492E-18	1.771839E-19
2.120000E+03	7.408432E-18	1.817201E-19
2.160000E+03	7.604309E-18	1.865246E-19
2.200000E+03	7.806784E-18	1.914908E-19
2.240000E+03	8.018399E-18	1.966813E-19
2.280000E+03	8.241774E-18	2.021602E-19
2.320000E+03	8.472468E-18	2.078187E-19
2.360000E+03	8.710680E-18	2.136615E-19
2.400000E+03	8.961452E-18	2.198124E-19
2.440000E+03	9.220211E-18	2.261592E-19
2.480000E+03	9.492071E-18	2.328273E-19
2.520000E+03	9.772350E-18	2.397020E-19
2.560000E+03	1.006120E-17	2.467868E-19
2.600000E+03	1.036381E-17	2.542093E-19
2.640000E+03	1.067532E-17	2.618499E-19
2.680000E+03	1.099836E-17	2.697733E-19
2.720000E+03	1.133305E-17	2.779825E-19
2.760000E+03	1.167679E-17	2.864138E-19
2.800000E+03	1.203485E-17	2.951962E-19
2.840000E+03	1.240455E-17	3.042641E-19
2.880000E+03	1.278847E-17	3.136809E-19
2.920000E+03	1.318649E-17	3.234433E-19
2.960000E+03	1.360113E-17	3.336136E-19
3.000000E+03	1.403494E-17	3.442539E-19
3.010000E+03	1.414556E-17	3.469672E-19
3.020000E+03	1.425930E-17	3.497568E-19
3.030000E+03	1.437331E-17	3.525532E-19
3.040000E+03	1.448759E-17	3.553564E-19
3.050000E+03	1.460497E-17	3.582355E-19
3.060000E+03	1.472547E-17	3.611910E-19
3.070000E+03	1.484621E-17	3.641526E-19
3.080000E+03	1.496719E-17	3.671199E-19
3.090000E+03	1.509127E-17	3.701632E-19
3.100000E+03	1.521555E-17	3.732115E-19
3.110000E+03	1.534290E-17	3.763353E-19
3.120000E+03	1.547333E-17	3.795345E-19
3.130000E+03	1.560685E-17	3.828093E-19
3.140000E+03	1.574053E-17	3.860881E-19
3.150000E+03	1.587435E-17	3.893704E-19
3.160000E+03	1.601413E-17	3.927990E-19
3.170000E+03	1.615404E-17	3.962306E-19
3.180000E+03	1.629697E-17	3.997363E-19
3.190000E+03	1.644291E-17	4.033160E-19
3.200000E+03	1.659187E-17	4.069697E-19
3.210000E+03	1.674089E-17	4.106246E-19
3.220000E+03	1.689582E-17	4.144248E-19
3.230000E+03	1.705373E-17	4.182980E-19
3.240000E+03	1.721162E-17	4.221708E-19
3.250000E+03	1.737543E-17	4.261886E-19
3.260000E+03	1.754215E-17	4.302779E-19
3.270000E+03	1.771177E-17	4.344383E-19
3.280000E+03	1.788427E-17	4.386694E-19
3.290000E+03	1.806263E-17	4.430440E-19
3.300000E+03	1.824382E-17	4.474883E-19
3.310000E+03	1.842783E-17	4.520016E-19
3.320000E+03	1.861763E-17	4.566570E-19
3.330000E+03	1.881020E-17	4.613802E-19
3.340000E+03	1.900550E-17	4.661707E-19
3.350000E+03	1.920652E-17	4.711011E-19
3.360000E+03	1.941323E-17	4.761713E-19
3.370000E+03	1.962562E-17	4.813807E-19
3.375900E+03	1.471228E-17	3.608654E-19
3.377850E+03	1.511815E-17	3.708207E-19
3.379800E+03	1.535013E-17	3.765106E-19
3.381750E+03	1.565893E-17	3.840850E-19
3.383700E+03	1.610367E-17	3.949936E-19
3.385650E+03	1.647749E-17	4.041627E-19
3.387600E+03	1.674345E-17	4.106861E-19
3.389550E+03	1.701974E-17	4.174632E-19
3.391500E+03	1.719704E-17	4.218120E-19
3.393450E+03	1.768906E-17	4.338803E-19
3.395400E+03	1.807323E-17	4.433033E-19
3.397350E+03	1.854456E-17	4.548641E-19
3.399300E+03	1.907943E-17	4.679834E-19
3.401250E+03	1.941926E-17	4.763189E-19
3.403200E+03	1.977830E-17	4.851255E-19
3.405150E+03	2.025111E-17	4.967227E-19
3.407100E+03	2.062493E-17	5.058917E-19
3.409050E+03	2.093522E-17	5.135024E-19
3.411000E+03	2.122038E-17	5.204968E-19
3.412950E+03	2.147895E-17	5.268392E-19
3.414900E+03	2.179662E-17	5.346310E-19
3.416850E+03	2.204632E-17	5.407558E-19
3.418800E+03	2.225613E-17	5.459019E-19
3.420750E+03	2.260926E-17	5.545635E-19
3.422700E+03	2.293432E-17	5.625366E-19
3.424650E+03	2.310572E-17	5.667406E-19
3.426600E+03	2.331110E-17	5.717782E-19
3.428550E+03	2.337167E-17	5.732641E-19
3.430500E+03	2.359330E-17	5.787001E-19
3.432450E+03	2.374696E-17	5.824691E-19
3.434400E+03	2.369525E-17	5.812008E-19
3.436350E+03	2.371889E-17	5.817806E-19
3.438300E+03	2.363763E-17	5.797874E-19
3.440250E+03	2.334360E-17	5.725754E-19
3.442200E+03	2.327120E-17	5.707994E-19
3.444150E+03	2.341896E-17	5.744236E-19
3.446100E+03	2.369673E-17	5.812370E-19
3.448050E+03	2.395973E-17	5.876879E-19
3.450000E+03	2.408237E-17	5.906959E-19
3.451950E+03	2.400996E-17	5.889199E-19
3.453900E+03	2.376321E-17	5.828676E-19
3.455850E+03	2.356966E-17	5.781201E-19
3.457800E+03	2.360069E-17	5.788811E-19
3.459750E+03	2.336428E-17	5.730824E-19
3.461700E+03	2.308798E-17	5.663053E-19
3.463650E+03	2.316629E-17	5.682261E-19
3.465600E+03	2.316777E-17	5.682623E-19
3.467550E+03	2.308946E-17	5.663415E-19
3.469500E+03	2.296978E-17	5.634060E-19
3.471450E+03	2.294319E-17	5.627537E-19
3.473400E+03	2.320323E-17	5.691321E-19
3.475350E+03	2.346180E-17	5.754743E-19
3.477300E+03	2.357852E-17	5.783372E-19
3.479250E+03	2.361546E-17	5.792433E-19
3.481200E+03	2.379572E-17	5.836646E-19
3.483150E+03	2.392427E-17	5.868177E-19
3.485100E+03	2.403213E-17	5.894633E-19
3.487050E+03	2.412374E-17	5.917102E-19
3.489000E+03	2.437492E-17	5.978713E-19
3.490950E+03	2.457587E-17	6.028000E-19
3.492900E+03	2.455813E-17	6.023651E-19
3.494850E+03	2.451677E-17	6.013504E-19
3.496800E+03	2.465566E-17	6.047571E-19
3.498750E+03	2.503834E-17	6.141435E-19
3.500700E+03	2.536339E-17	6.221165E-19
3.502650E+03	2.536487E-17	6.221528E-19
3.504600E+03	2.519200E-17	6.179125E-19
3.506550E+03	2.530428E-17	6.206666E-19
3.508500E+03	2.573572E-17	6.312490E-19
3.510450E+03	2.602089E-17	6.382437E-19
3.512400E+03	2.615978E-17	6.416503E-19
3.514350E+03	2.636664E-17	6.467242E-19
3.516300E+03	2.667397E-17	6.542623E-19
3.518250E+03	2.690446E-17	6.599159E-19
3.520200E+03	2.714086E-17	6.657143E-19
3.522150E+03	2.740978E-17	6.723103E-19
3.524100E+03	2.775700E-17	6.808268E-19
3.526050E+03	2.821356E-17	6.920255E-19
3.528000E+03	2.857703E-17	7.009407E-19
3.529950E+03	2.897006E-17	7.105809E-19
3.531900E+03	2.942957E-17	7.218519E-19
3.533850E+03	2.972803E-17	7.291724E-19
3.535800E+03	2.989500E-17	7.332678E-19
3.537750E+03	3.006196E-17	7.373630E-19
3.539700E+03	3.023926E-17	7.417118E-19
3.541650E+03	3.037224E-17	7.449736E-19
3.543600E+03	3.027768E-17	7.426542E-19
3.545550E+03	3.018607E-17	7.404072E-19
3.547500E+03	3.009299E-17	7.381240E-19
3.549450E+03	3.003389E-17	7.366743E-19
3.551400E+03	2.989204E-17	7.331951E-19
3.553350E+03	2.954629E-17	7.247145E-19
3.555300E+03	2.944582E-17	7.222502E-19
3.557250E+03	2.938081E-17	7.206556E-19
3.559200E+03	2.885776E-17	7.078262E-19
3.561150E+03	2.832880E-17	6.948517E-19
3.563100E+03	2.803182E-17	6.875674E-19
3.565050E+03	2.764913E-17	6.781807E-19
3.567000E+03	2.711575E-17	6.650978E-19
3.568950E+03	2.650405E-17	6.500940E-19
3.570900E+03	2.594406E-17	6.363585E-19
3.572850E+03	2.549637E-17	6.253774E-19
3.574800E+03	2.512107E-17	6.161720E-19
3.576750E+03	2.484035E-17	6.092864E-19
3.578700E+03	2.453597E-17	6.018205E-19
3.580650E+03	2.409714E-17	5.910570E-19
3.582600E+03	2.372480E-17	5.819241E-19
3.584550E+03	2.346328E-17	5.755095E-19
3.586500E+03	2.322244E-17	5.696022E-19
3.588450E+03	2.301263E-17	5.644558E-19
3.590400E+03	2.279839E-17	5.592008E-19
3.592350E+03	2.273781E-17	5.577150E-19
3.594300E+03	2.287374E-17	5.610491E-19
3.596250E+03	2.289147E-17	5.614840E-19
3.598200E+03	2.286044E-17	5.607229E-19
3.600150E+03	2.295353E-17	5.630061E-19
3.602100E+03	2.309833E-17	5.665578E-19
3.604050E+03	2.316333E-17	5.681522E-19
3.606000E+03	2.331700E-17	5.719213E-19
3.607950E+03	2.344998E-17	5.751831E-19
3.609900E+03	2.363615E-17	5.797495E-19
3.611850E+03	2.399371E-17	5.885196E-19
3.613800E+03	2.414590E-17	5.922526E-19
3.615750E+03	2.446948E-17	6.001894E-19
3.617700E+03	2.508562E-17	6.153019E-19
3.619650E+03	2.580517E-17	6.329513E-19
3.621600E+03	2.636368E-17	6.466505E-19
3.623550E+03	2.665624E-17	6.538262E-19
3.625500E+03	2.692366E-17	6.603856E-19
3.627450E+03	2.720144E-17	6.671990E-19
3.629400E+03	2.755457E-17	6.758605E-19
3.631350E+03	2.789736E-17	6.842685E-19
3.633300E+03	2.832290E-17	6.947061E-19
3.635250E+03	2.860510E-17	7.016279E-19
3.637200E+03	2.894789E-17	7.100359E-19
3.639150E+03	2.930250E-17	7.187338E-19
3.641100E+03	2.946356E-17	7.226841E-19
3.643050E+03	2.958767E-17	7.257284E-19
3.645000E+03	2.976497E-17	7.300772E-19
3.646950E+03	2.998217E-17	7.354046E-19
3.648900E+03	2.989204E-17	7.331939E-19
3.650850E+03	2.968961E-17	7.282288E-19
3.652800E+03	2.956698E-17	7.252208E-19
3.654750E+03	2.946503E-17	7.227202E-19
3.656700E+03	2.932467E-17	7.192773E-19
3.658650E+03	2.910599E-17	7.139135E-19
3.660600E+03	2.878241E-17	7.059767E-19
3.662550E+03	2.847212E-17	6.983660E-19
3.664500E+03	2.816184E-17	6.907553E-19
3.666450E+03	2.784417E-17	6.829636E-19
3.668400E+03	2.777029E-17	6.811513E-19
3.670350E+03	2.774518E-17	6.805353E-19
3.672300E+03	2.755753E-17	6.759326E-19
3.674250E+03	2.743193E-17	6.728520E-19
3.676200E+03	2.746149E-17	6.735771E-19
3.678150E+03	2.745114E-17	6.733232E-19
3.680100E+03	2.740386E-17	6.721634E-19
3.682050E+03	2.734920E-17	6.708226E-19
3.684000E+03	2.724134E-17	6.681770E-19
3.685950E+03	2.707290E-17	6.640455E-19
3.687900E+03	2.681876E-17	6.578119E-19
3.689850E+03	2.658236E-17	6.520135E-19
3.691800E+03	2.641982E-17	6.480268E-19
3.693750E+03	2.625139E-17	6.438953E-19
3.695700E+03	2.622479E-17	6.432430E-19
3.697650E+03	2.627060E-17	6.443665E-19
3.699600E+03	2.622922E-17	6.433515E-19
3.701550E+03	2.622922E-17	6.433515E-19
3.703500E+03	2.636368E-17	6.466496E-19
3.705450E+03	2.633265E-17	6.458885E-19
3.707400E+03	2.615092E-17	6.414309E-19
3.709350E+03	2.617160E-17	6.419381E-19
3.711300E+03	2.628094E-17	6.446199E-19
3.713250E+03	2.635629E-17	6.464682E-19
3.715200E+03	2.635925E-17	6.465407E-19
3.717150E+03	2.634595E-17	6.462145E-19
3.719100E+03	2.651587E-17	6.503822E-19
3.721050E+03	2.675374E-17	6.562169E-19
3.723000E+03	2.693991E-17	6.607833E-19
3.724950E+03	2.713791E-17	6.656397E-19
3.726900E+03	2.727089E-17	6.689013E-19
3.728850E+03	2.734181E-17	6.706408E-19
3.730800E+03	2.740978E-17	6.723079E-19
3.732750E+03	2.750286E-17	6.745911E-19
3.734700E+03	2.759447E-17	6.768380E-19
3.736650E+03	2.769494E-17	6.793023E-19
3.738600E+03	2.779393E-17	6.817305E-19
3.740550E+03	2.807023E-17	6.885076E-19
3.742500E+03	2.840121E-17	6.966256E-19
3.744450E+03	2.863908E-17	7.024603E-19
3.746400E+03	2.889913E-17	7.088387E-19
3.748350E+03	2.917986E-17	7.157245E-19
3.750300E+03	2.943991E-17	7.221029E-19
3.752250E+03	2.970734E-17	7.286626E-19
3.754200E+03	3.009002E-17	7.380489E-19
3.756150E+03	3.031904E-17	7.436662E-19
3.758100E+03	3.051999E-17	7.485950E-19
3.760050E+03	3.092483E-17	7.585251E-19
3.762000E+03	3.127649E-17	7.671504E-19
3.763950E+03	3.193694E-17	7.833501E-19
3.765900E+03	3.261809E-17	8.000572E-19
3.767850E+03	3.298895E-17	8.091537E-19
3.769800E+03	3.333617E-17	8.176702E-19
3.771750E+03	3.365828E-17	8.255709E-19
3.773700E+03	3.407493E-17	8.357906E-19
3.775650E+03	3.445023E-17	8.449959E-19
3.777600E+03	3.497032E-17	8.577527E-19
3.779550E+03	3.555690E-17	8.721404E-19
3.781500E+03	3.612871E-17	8.861656E-19
3.783450E+03	3.666801E-17	8.993936E-19
3.785400E+03	3.726937E-17	9.141437E-19
3.787350E+03	3.775253E-17	9.259945E-19
3.789300E+03	3.796381E-17	9.311769E-19
3.791250E+03	3.834207E-17	9.404547E-19
3.793200E+03	3.877351E-17	9.510370E-19
3.795150E+03	3.925961E-17	9.629602E-19
3.797100E+03	3.962456E-17	9.719116E-19
3.799050E+03	3.988314E-17	9.782540E-19
3.801000E+03	4.024365E-17	9.870966E-19
3.802950E+03	4.056723E-17	9.950333E-19
3.804900E+03	4.095730E-17	1.004601E-18
3.806850E+03	4.131191E-17	1.013299E-18
3.808800E+03	4.146262E-17	1.016995E-18
3.810750E+03	4.163549E-17	1.021236E-18
3.812700E+03	4.187042E-17	1.026998E-18
3.814650E+03	4.197385E-17	1.029535E-18
3.816600E+03	4.223241E-17	1.035877E-18
3.818550E+03	4.223241E-17	1.035877E-18
3.820500E+03	4.206250E-17	1.031709E-18
3.822450E+03	4.203295E-17	1.030984E-18
3.824400E+03	4.211126E-17	1.032905E-18
3.826350E+03	4.202704E-17	1.030839E-18
3.828300E+03	4.182904E-17	1.025983E-18
3.830250E+03	4.157343E-17	1.019713E-18
3.832200E+03	4.117894E-17	1.010037E-18
3.834150E+03	4.087456E-17	1.002571E-18
3.836100E+03	4.067361E-17	9.976422E-19
3.838050E+03	4.067066E-17	9.975698E-19
3.840000E+03	4.068692E-17	9.979685E-19
3.841950E+03	4.053620E-17	9.942717E-19
3.843900E+03	4.037811E-17	9.903940E-19
3.845850E+03	4.036628E-17	9.901039E-19
3.847800E+03	4.024956E-17	9.872409E-19
3.849750E+03	4.013579E-17	9.844503E-19
3.851700E+03	3.997474E-17	9.805001E-19
3.853650E+03	3.980778E-17	9.764049E-19
3.855600E+03	3.958910E-17	9.710411E-19
3.857550E+03	3.938372E-17	9.660035E-19
3.859500E+03	3.923154E-17	9.622707E-19
3.861450E+03	3.896262E-17	9.556747E-19
3.863400E+03	3.866269E-17	9.483179E-19
3.865350E+03	3.839673E-17	9.417944E-19
3.867300E+03	3.804508E-17	9.331691E-19
3.869250E+03	3.768013E-17	9.242176E-19
3.871200E+03	3.723096E-17	9.132003E-19
3.873150E+03	3.672121E-17	9.006971E-19
3.875100E+03	3.635478E-17	8.917094E-19
3.877050E+03	3.587900E-17	8.800395E-19
3.879000E+03	3.538256E-17	8.678627E-19
3.880950E+03	3.486985E-17	8.552870E-19
3.882900E+03	3.434385E-17	8.423852E-19
3.884850E+03	3.392275E-17	8.320564E-19
3.886800E+03	3.340857E-17	8.194447E-19
3.888750E+03	3.298009E-17	8.089348E-19
3.890700E+03	3.257967E-17	7.991133E-19
3.892650E+03	3.226348E-17	7.913578E-19
3.894600E+03	3.194876E-17	7.836383E-19
3.896550E+03	3.165768E-17	7.764989E-19
3.898500E+03	3.138582E-17	7.698306E-19
3.900450E+03	3.115533E-17	7.641770E-19
3.902400E+03	3.088641E-17	7.575810E-19
3.904350E+03	3.056431E-17	7.496805E-19
3.906300E+03	3.039735E-17	7.455853E-19
3.908250E+03	3.033825E-17	7.441357E-19
3.910200E+03	3.019493E-17	7.406202E-19
3.912150E+03	3.002944E-17	7.365613E-19
3.914100E+03	2.995557E-17	7.347492E-19
3.916050E+03	3.003830E-17	7.367786E-19
3.918000E+03	3.014026E-17	7.392793E-19
3.919950E+03	3.022300E-17	7.413086E-19
3.921900E+03	3.050077E-17	7.481219E-19
3.923850E+03	3.073570E-17	7.538843E-19
3.925800E+03	3.104007E-17	7.613498E-19
3.927750E+03	3.135775E-17	7.691417E-19
3.929700E+03	3.157495E-17	7.744692E-19
3.931650E+03	3.185863E-17	7.814273E-19
3.933600E+03	3.231962E-17	7.927344E-19
3.935550E+03	3.267423E-17	8.014322E-19
3.937500E+03	3.303032E-17	8.101663E-19
3.939450E+03	3.364645E-17	8.252787E-19
3.941400E+03	3.418132E-17	8.383981E-19
3.943350E+03	3.479302E-17	8.534017E-19
3.945300E+03	3.548303E-17	8.703262E-19
3.947250E+03	3.612428E-17	8.860548E-19
3.949200E+03	3.682759E-17	9.033054E-19
3.951150E+03	3.748952E-17	9.195413E-19
3.953100E+03	3.831398E-17	9.397636E-19
3.955050E+03	3.904684E-17	9.577392E-19
3.957000E+03	3.962161E-17	9.718370E-19
3.958950E+03	4.031753E-17	9.889065E-19
3.960900E+03	4.116120E-17	1.009600E-18
3.962850E+03	4.167981E-17	1.022320E-18
3.964800E+03	4.245256E-17	1.041274E-18
3.966750E+03	4.336716E-17	1.063708E-18
3.968700E+03	4.423152E-17	1.084909E-18
3.970650E+03	4.519191E-17	1.108465E-18
3.972600E+03	4.632667E-17	1.136298E-18
3.974550E+03	4.743038E-17	1.163370E-18
3.976500E+03	4.860946E-17	1.192290E-18
3.978450E+03	5.010029E-17	1.228857E-18
3.980400E+03	5.166352E-17	1.267200E-18
3.982350E+03	5.366115E-17	1.316198E-18
3.984300E+03	5.580210E-17	1.368711E-18
3.986250E+03	5.809376E-17	1.424920E-18
3.988200E+03	6.039872E-17	1.481456E-18
3.990150E+03	6.277754E-17	1.539804E-18
3.992100E+03	6.531300E-17	1.601993E-18
3.994050E+03	6.799029E-17	1.667662E-18
3.996000E+03	7.080353E-17	1.736665E-18
3.997950E+03	7.368028E-17	1.807226E-18
3.999900E+03	7.644032E-17	1.874924E-18
4.001850E+03	7.940870E-17	1.947732E-18
4.003800E+03	8.244208E-17	2.022134E-18
4.005750E+03	8.542965E-17	2.095413E-18
4.007700E+03	8.836995E-17	2.167532E-18
4.009650E+03	9.124819E-17	2.238130E-18
4.011600E+03	9.410574E-17	2.308219E-18
4.013550E+03	9.702240E-17	2.379759E-18
4.015500E+03	9.985334E-17	2.449196E-18
4.017450E+03	1.025351E-16	2.514974E-18
4.019400E+03	1.053040E-16	2.582889E-18
4.021350E+03	1.080818E-16	2.651022E-18
4.023300E+03	1.108965E-16	2.720062E-18
4.025250E+03	1.134112E-16	2.781742E-18
4.027200E+03	1.160501E-16	2.846468E-18
4.029150E+03	1.187230E-16	2.912029E-18
4.031100E+03	1.213279E-16	2.975921E-18
4.033050E+03	1.239549E-16	3.040358E-18
4.035000E+03	1.264461E-16	3.101460E-18
4.036950E+03	1.288263E-16	3.159843E-18
4.038900E+03	1.310855E-16	3.215257E-18
4.040850E+03	1.332368E-16	3.268023E-18
4.042800E+03	1.351487E-16	3.314917E-18
4.044750E+03	1.367548E-16	3.354312E-18
4.046700E+03	1.381526E-16	3.388596E-18
4.048650E+03	1.392489E-16	3.415487E-18
4.050600E+03	1.400010E-16	3.433933E-18
4.052550E+03	1.405787E-16	3.448103E-18
4.054500E+03	1.409422E-16	3.457019E-18
4.056450E+03	1.407176E-16	3.451509E-18
4.058400E+03	1.401872E-16	3.438500E-18
4.060350E+03	1.393849E-16	3.418820E-18
4.062300E+03	1.382974E-16	3.392147E-18
4.064250E+03	1.367593E-16	3.354420E-18
4.066200E+03	1.348016E-16	3.306401E-18
4.068150E+03	1.326177E-16	3.252837E-18
4.070100E+03	1.302714E-16	3.195286E-18
4.072050E+03	1.276502E-16	3.130994E-18
4.074000E+03	1.248296E-16	3.061810E-18
4.075950E+03	1.217504E-16	2.986284E-18
4.077900E+03	1.184703E-16	2.905828E-18
4.079850E+03	1.150852E-16	2.822800E-18
4.081800E+03	1.116839E-16	2.739374E-18
4.083750E+03	1.080418E-16	2.650041E-18
4.085700E+03	1.045549E-16	2.564513E-18
4.087650E+03	1.011758E-16	2.481630E-18
4.089600E+03	9.774639E-17	2.397514E-18
4.091550E+03	9.452684E-17	2.318546E-18
4.093500E+03	9.140776E-17	2.242041E-18
4.095450E+03	8.858124E-17	2.172712E-18
4.097400E+03	8.594088E-17	2.107950E-18
4.099350E+03	8.339212E-17	2.045434E-18
4.101300E+03	8.119355E-17	1.991508E-18
4.103250E+03	7.921513E-17	1.942981E-18
4.105200E+03	7.753517E-17	1.901775E-18
4.107150E+03	7.612265E-17	1.867129E-18
4.109100E+03	7.500563E-17	1.839731E-18
4.111050E+03	7.401273E-17	1.815377E-18
4.113000E+03	7.364629E-17	1.806389E-18
4.114950E+03	7.351036E-17	1.803055E-18
4.116900E+03	7.351776E-17	1.803236E-18
4.118850E+03	7.397283E-17	1.814398E-18
4.120800E+03	7.482537E-17	1.835309E-18
4.122750E+03	7.595421E-17	1.862997E-18
4.124700E+03	7.739333E-17	1.898295E-18
4.126650E+03	7.930230E-17	1.945119E-18
4.128600E+03	8.141371E-17	1.996907E-18
4.130550E+03	8.381618E-17	2.055834E-18
4.132500E+03	8.633389E-17	2.117589E-18
4.134450E+03	8.907916E-17	2.184924E-18
4.136400E+03	9.184067E-17	2.252658E-18
4.138350E+03	9.469675E-17	2.322712E-18
4.140300E+03	9.767841E-17	2.395846E-18
4.142250E+03	1.008448E-16	2.473510E-18
4.144200E+03	1.041574E-16	2.554761E-18
4.146150E+03	1.072114E-16	2.629670E-18
4.148100E+03	1.102907E-16	2.705198E-18
4.150050E+03	1.135103E-16	2.784167E-18
4.152000E+03	1.164741E-16	2.856864E-18
4.153950E+03	1.192047E-16	2.923839E-18
4.155900E+03	1.216943E-16	2.984905E-18
4.157850E+03	1.239771E-16	3.040896E-18
4.159800E+03	1.259526E-16	3.089350E-18
4.161750E+03	1.277448E-16	3.133309E-18
4.163700E+03	1.292504E-16	3.170240E-18
4.165650E+03	1.302891E-16	3.195717E-18
4.167600E+03	1.311357E-16	3.216481E-18
4.169550E+03	1.315775E-16	3.227317E-18
4.171500E+03	1.317947E-16	3.232645E-18
4.173450E+03	1.317962E-16	3.232681E-18
4.175400E+03	1.317135E-16	3.230653E-18
4.177350E+03	1.314223E-16	3.223511E-18
4.179300E+03	1.308772E-16	3.210139E-18
4.181250E+03	1.302211E-16	3.194048E-18
4.183200E+03	1.294203E-16	3.174405E-18
4.185150E+03	1.283890E-16	3.149109E-18
4.187100E+03	1.272719E-16	3.121711E-18
4.189050E+03	1.260412E-16	3.091522E-18
4.191000E+03	1.248237E-16	3.061660E-18
4.192950E+03	1.236121E-16	3.031942E-18
4.194900E+03	1.224168E-16	3.002624E-18
4.196850E+03	1.210723E-16	2.969646E-18
4.198800E+03	1.198326E-16	2.939239E-18
4.200750E+03	1.185708E-16	2.908289E-18
4.202700E+03	1.173563E-16	2.878499E-18
4.204650E+03	1.159068E-16	2.842946E-18
4.206600E+03	1.145933E-16	2.810729E-18
4.208550E+03	1.133211E-16	2.779525E-18
4.210500E+03	1.119884E-16	2.746837E-18
4.212450E+03	1.106393E-16	2.713747E-18
4.214400E+03	1.092992E-16	2.680877E-18
4.216350E+03	1.081069E-16	2.651632E-18
4.218300E+03	1.070150E-16	2.624849E-18
4.220250E+03	1.057280E-16	2.593283E-18
4.222200E+03	1.042653E-16	2.557405E-18
4.224150E+03	1.027862E-16	2.521127E-18
4.226100E+03	1.014299E-16	2.487858E-18
4.228050E+03	1.000351E-16	2.453647E-18
4.230000E+03	9.867724E-17	2.420342E-18
