#wls	flux	fluxerr
1.600000E+03	2.029574E-18	1.973619E-19
1.640000E+03	2.114334E-18	2.050156E-19
1.680000E+03	2.203702E-18	2.130540E-19
1.720000E+03	2.298861E-18	2.215855E-19
1.760000E+03	2.399284E-18	2.305525E-19
1.800000E+03	2.505303E-18	2.399799E-19
1.840000E+03	2.618264E-18	2.499888E-19
1.880000E+03	2.738649E-18	2.606165E-19
1.920000E+03	2.865912E-18	2.718014E-19
1.960000E+03	3.000487E-18	2.835751E-19
2.000000E+03	3.143988E-18	2.960794E-19
2.040000E+03	3.295844E-18	3.092489E-19
2.080000E+03	3.457828E-18	3.232370E-19
2.120000E+03	3.629354E-18	3.379753E-19
2.160000E+03	3.812368E-18	3.536303E-19
2.200000E+03	4.007672E-18	3.702592E-19
2.240000E+03	4.214657E-18	3.877884E-19
2.280000E+03	4.434054E-18	4.062668E-19
2.320000E+03	4.668206E-18	4.258891E-19
2.360000E+03	4.918119E-18	4.467243E-19
2.400000E+03	5.183137E-18	4.686887E-19
2.440000E+03	5.465958E-18	4.920009E-19
2.480000E+03	5.765884E-18	5.165703E-19
2.520000E+03	6.085861E-18	5.426317E-19
2.560000E+03	6.427179E-18	5.702670E-19
2.600000E+03	6.789040E-18	5.993707E-19
2.640000E+03	7.174793E-18	6.302024E-19
2.680000E+03	7.583532E-18	6.626432E-19
2.720000E+03	8.018866E-18	6.969672E-19
2.760000E+03	8.482301E-18	7.332593E-19
2.800000E+03	8.972685E-18	7.713723E-19
2.840000E+03	9.493996E-18	8.115989E-19
2.880000E+03	1.004776E-17	8.540152E-19
2.920000E+03	1.063242E-17	8.984321E-19
2.960000E+03	1.125543E-17	9.454218E-19
3.000000E+03	1.190854E-17	9.942277E-19
3.010000E+03	1.207795E-17	1.006826E-18
3.020000E+03	1.224952E-17	1.019556E-18
3.030000E+03	1.242674E-17	1.032707E-18
3.040000E+03	1.260269E-17	1.045703E-18
3.050000E+03	1.278082E-17	1.058829E-18
3.060000E+03	1.296115E-17	1.072088E-18
3.070000E+03	1.314732E-17	1.085777E-18
3.080000E+03	1.333210E-17	1.099299E-18
3.090000E+03	1.351910E-17	1.112951E-18
3.100000E+03	1.371210E-17	1.127043E-18
3.110000E+03	1.390359E-17	1.140956E-18
3.120000E+03	1.410115E-17	1.155312E-18
3.130000E+03	1.429714E-17	1.169482E-18
3.140000E+03	1.449930E-17	1.184101E-18
3.150000E+03	1.470378E-17	1.198851E-18
3.160000E+03	1.490655E-17	1.213402E-18
3.170000E+03	1.511561E-17	1.228408E-18
3.180000E+03	1.532698E-17	1.243540E-18
3.190000E+03	1.554067E-17	1.258800E-18
3.200000E+03	1.575666E-17	1.274183E-18
3.210000E+03	1.597068E-17	1.289347E-18
3.220000E+03	1.619120E-17	1.304972E-18
3.230000E+03	1.641399E-17	1.320716E-18
3.240000E+03	1.664344E-17	1.336931E-18
3.250000E+03	1.687077E-17	1.352910E-18
3.260000E+03	1.710035E-17	1.369004E-18
3.270000E+03	1.733214E-17	1.385208E-18
3.280000E+03	1.756611E-17	1.401519E-18
3.290000E+03	1.780226E-17	1.417937E-18
3.300000E+03	1.804524E-17	1.434829E-18
3.310000E+03	1.828570E-17	1.451451E-18
3.320000E+03	1.853303E-17	1.468549E-18
3.330000E+03	1.877770E-17	1.485365E-18
3.340000E+03	1.902441E-17	1.502271E-18
3.350000E+03	1.927803E-17	1.519651E-18
3.360000E+03	1.953372E-17	1.537121E-18
3.370000E+03	1.978640E-17	1.554281E-18
3.380000E+03	2.004603E-17	1.571914E-18
3.390000E+03	2.030761E-17	1.589624E-18
3.400000E+03	2.056588E-17	1.607002E-18
3.410000E+03	2.083113E-17	1.624849E-18
3.420000E+03	2.109817E-17	1.642761E-18
3.430000E+03	2.136693E-17	1.660730E-18
3.440000E+03	2.163738E-17	1.678753E-18
3.450000E+03	2.190944E-17	1.696824E-18
3.460000E+03	2.218304E-17	1.714937E-18
3.470000E+03	2.245814E-17	1.733089E-18
3.480000E+03	2.273465E-17	1.751271E-18
3.490000E+03	2.301250E-17	1.769478E-18
3.500000E+03	2.329163E-17	1.787705E-18
3.510000E+03	2.357194E-17	1.805944E-18
3.520000E+03	2.385916E-17	1.824633E-18
3.530000E+03	2.414166E-17	1.842882E-18
3.540000E+03	2.442509E-17	1.861123E-18
3.550000E+03	2.471531E-17	1.879802E-18
3.560000E+03	2.500038E-17	1.898010E-18
3.570000E+03	2.528611E-17	1.916189E-18
3.580000E+03	2.557849E-17	1.934793E-18
3.590000E+03	2.586527E-17	1.952894E-18
3.600000E+03	2.615858E-17	1.971409E-18
3.610000E+03	2.645223E-17	1.989871E-18
3.620000E+03	2.673978E-17	2.007795E-18
3.630000E+03	2.703369E-17	2.026119E-18
3.640000E+03	2.732756E-17	2.044362E-18
3.650000E+03	2.762129E-17	2.062516E-18
3.660000E+03	2.790824E-17	2.080087E-18
3.670000E+03	2.820123E-17	2.098033E-18
3.680000E+03	2.849366E-17	2.115861E-18
3.690000E+03	2.878542E-17	2.133564E-18
3.700000E+03	2.907635E-17	2.151130E-18
3.710000E+03	2.936632E-17	2.168552E-18
3.720000E+03	2.965518E-17	2.185818E-18
3.730000E+03	2.994276E-17	2.202919E-18
3.740000E+03	3.022893E-17	2.219844E-18
3.750000E+03	3.051353E-17	2.236584E-18
3.760000E+03	3.080336E-17	2.253637E-18
3.770000E+03	3.108438E-17	2.269978E-18
3.780000E+03	3.136335E-17	2.286101E-18
3.790000E+03	3.164010E-17	2.301998E-18
3.800000E+03	3.192159E-17	2.318176E-18
3.810000E+03	3.219344E-17	2.333589E-18
3.820000E+03	3.246976E-17	2.349265E-18
3.830000E+03	3.273602E-17	2.364152E-18
3.840000E+03	3.299920E-17	2.378760E-18
3.850000E+03	3.326644E-17	2.393604E-18
3.860000E+03	3.353034E-17	2.408150E-18
3.870000E+03	3.378329E-17	2.421857E-18
3.880000E+03	3.403989E-17	2.435774E-18
3.890000E+03	3.428511E-17	2.448828E-18
3.900000E+03	3.453368E-17	2.462073E-18
3.910000E+03	3.477799E-17	2.474968E-18
3.920000E+03	3.501029E-17	2.486965E-18
3.930000E+03	3.524548E-17	2.499125E-18
3.940000E+03	3.547584E-17	2.510904E-18
3.950000E+03	3.570119E-17	2.522291E-18
3.960000E+03	3.592138E-17	2.533278E-18
3.970000E+03	3.613620E-17	2.543853E-18
3.980000E+03	3.634547E-17	2.554008E-18
3.990000E+03	3.654131E-17	2.563192E-18
4.000000E+03	3.673894E-17	2.572477E-18
4.010000E+03	3.693051E-17	2.581315E-18
4.020000E+03	3.711585E-17	2.589698E-18
4.030000E+03	3.729478E-17	2.597616E-18
4.040000E+03	3.747493E-17	2.605604E-18
4.050000E+03	3.764059E-17	2.612571E-18
4.060000E+03	3.779934E-17	2.619050E-18
4.070000E+03	3.795105E-17	2.625035E-18
4.080000E+03	3.809558E-17	2.630521E-18
4.090000E+03	3.823277E-17	2.635498E-18
4.100000E+03	3.837034E-17	2.640504E-18
4.110000E+03	3.849246E-17	2.644451E-18
4.120000E+03	3.860686E-17	2.647875E-18
4.130000E+03	3.871339E-17	2.650772E-18
4.140000E+03	3.881981E-17	2.653673E-18
4.150000E+03	3.891030E-17	2.655503E-18
4.160000E+03	3.899262E-17	2.656795E-18
4.170000E+03	3.907450E-17	2.658078E-18
4.180000E+03	3.914019E-17	2.658285E-18
4.190000E+03	3.919744E-17	2.657948E-18
4.200000E+03	3.925399E-17	2.657595E-18
4.210000E+03	3.929417E-17	2.656166E-18
4.220000E+03	3.933350E-17	2.654717E-18
4.230000E+03	3.935639E-17	2.652197E-18
4.240000E+03	3.937833E-17	2.649655E-18
4.250000E+03	3.938380E-17	2.646050E-18
4.260000E+03	3.938825E-17	2.642424E-18
4.270000E+03	3.937625E-17	2.637744E-18
4.280000E+03	3.936317E-17	2.633044E-18
4.290000E+03	3.933372E-17	2.627304E-18
4.300000E+03	3.930320E-17	2.621551E-18
4.310000E+03	3.926398E-17	2.615276E-18
4.320000E+03	3.920859E-17	2.607987E-18
4.330000E+03	3.915218E-17	2.600695E-18
4.340000E+03	3.907980E-17	2.592408E-18
4.350000E+03	3.900649E-17	2.584128E-18
4.360000E+03	3.892485E-17	2.575366E-18
4.370000E+03	3.882762E-17	2.565645E-18
4.380000E+03	3.872969E-17	2.555948E-18
4.390000E+03	3.862379E-17	2.545797E-18
4.400000E+03	3.850285E-17	2.534725E-18
4.410000E+03	3.838152E-17	2.523699E-18
4.420000E+03	3.825269E-17	2.512252E-18
4.430000E+03	3.810945E-17	2.499928E-18
4.440000E+03	3.796622E-17	2.487677E-18
4.450000E+03	3.781605E-17	2.475041E-18
4.460000E+03	3.765218E-17	2.461579E-18
4.470000E+03	3.748880E-17	2.448218E-18
4.480000E+03	3.731909E-17	2.434513E-18
4.490000E+03	3.713649E-17	2.420037E-18
4.500000E+03	3.695489E-17	2.405693E-18
4.510000E+03	3.676765E-17	2.391049E-18
4.520000E+03	3.656836E-17	2.375689E-18
4.530000E+03	3.637062E-17	2.360496E-18
4.540000E+03	3.616797E-17	2.345049E-18
4.550000E+03	3.595415E-17	2.328943E-18
4.560000E+03	3.574246E-17	2.313039E-18
4.570000E+03	3.552659E-17	2.296926E-18
4.580000E+03	3.530048E-17	2.280214E-18
4.590000E+03	3.507706E-17	2.263736E-18
4.600000E+03	3.484401E-17	2.246698E-18
4.610000E+03	3.461404E-17	2.229917E-18
4.620000E+03	3.438114E-17	2.213006E-18
4.630000E+03	3.413953E-17	2.195591E-18
4.640000E+03	3.390157E-17	2.178467E-18
4.650000E+03	3.365548E-17	2.160875E-18
4.660000E+03	3.341340E-17	2.143596E-18
4.670000E+03	3.316381E-17	2.125888E-18
4.680000E+03	3.291857E-17	2.108511E-18
4.690000E+03	3.266639E-17	2.090740E-18
4.700000E+03	3.241891E-17	2.073319E-18
4.710000E+03	3.216504E-17	2.055540E-18
4.720000E+03	3.191621E-17	2.038129E-18
4.730000E+03	3.166152E-17	2.020392E-18
4.740000E+03	3.141216E-17	2.003040E-18
4.750000E+03	3.115749E-17	1.985394E-18
4.760000E+03	3.090844E-17	1.968150E-18
4.770000E+03	3.065458E-17	1.950642E-18
4.780000E+03	3.040143E-17	1.933221E-18
4.790000E+03	3.015429E-17	1.916223E-18
4.800000E+03	2.990306E-17	1.899004E-18
4.810000E+03	2.965307E-17	1.881902E-18
4.820000E+03	2.940449E-17	1.864928E-18
4.830000E+03	2.916238E-17	1.848401E-18
4.840000E+03	2.891706E-17	1.831705E-18
4.850000E+03	2.867362E-17	1.815163E-18
4.860000E+03	2.843219E-17	1.798782E-18
4.870000E+03	2.819294E-17	1.782572E-18
4.880000E+03	2.795599E-17	1.766539E-18
4.890000E+03	2.772146E-17	1.750691E-18
4.900000E+03	2.748950E-17	1.735035E-18
4.910000E+03	2.726021E-17	1.719576E-18
4.920000E+03	2.703372E-17	1.704323E-18
4.930000E+03	2.681012E-17	1.689280E-18
4.940000E+03	2.658953E-17	1.674453E-18
4.950000E+03	2.637206E-17	1.659849E-18
4.960000E+03	2.615779E-17	1.645472E-18
4.970000E+03	2.594262E-17	1.631062E-18
4.980000E+03	2.573509E-17	1.617157E-18
4.990000E+03	2.553103E-17	1.603493E-18
5.000000E+03	2.532645E-17	1.589818E-18
5.010000E+03	2.512963E-17	1.576653E-18
5.020000E+03	2.493653E-17	1.563742E-18
5.030000E+03	2.474323E-17	1.550839E-18
5.040000E+03	2.455779E-17	1.538449E-18
5.050000E+03	2.437238E-17	1.526079E-18
5.060000E+03	2.419101E-17	1.513981E-18
5.070000E+03	2.401756E-17	1.502398E-18
5.080000E+03	2.384442E-17	1.490850E-18
5.090000E+03	2.367549E-17	1.479584E-18
5.100000E+03	2.351082E-17	1.468600E-18
5.110000E+03	2.335416E-17	1.458131E-18
5.120000E+03	2.319812E-17	1.447717E-18
5.130000E+03	2.304650E-17	1.437593E-18
5.140000E+03	2.289930E-17	1.427761E-18
5.150000E+03	2.275660E-17	1.418221E-18
5.160000E+03	2.261841E-17	1.408977E-18
5.170000E+03	2.248478E-17	1.400030E-18
5.180000E+03	2.235226E-17	1.391165E-18
5.190000E+03	2.222788E-17	1.382818E-18
5.200000E+03	2.210816E-17	1.374773E-18
5.210000E+03	2.198974E-17	1.366820E-18
5.220000E+03	2.187947E-17	1.359385E-18
5.230000E+03	2.177396E-17	1.352257E-18
5.240000E+03	2.166991E-17	1.345229E-18
5.250000E+03	2.157073E-17	1.338514E-18
5.260000E+03	2.147973E-17	1.332315E-18
5.270000E+03	2.139035E-17	1.326227E-18
5.280000E+03	2.130592E-17	1.320455E-18
5.290000E+03	2.122647E-17	1.315000E-18
5.300000E+03	2.115525E-17	1.310063E-18
5.310000E+03	2.108584E-17	1.305245E-18
5.320000E+03	2.102149E-17	1.300750E-18
5.330000E+03	2.095906E-17	1.296381E-18
5.340000E+03	2.090496E-17	1.292534E-18
5.350000E+03	2.085600E-17	1.289012E-18
5.360000E+03	2.081223E-17	1.285818E-18
5.370000E+03	2.077056E-17	1.282760E-18
5.380000E+03	2.073727E-17	1.280226E-18
5.390000E+03	2.070924E-17	1.278022E-18
5.400000E+03	2.068343E-17	1.275962E-18
5.410000E+03	2.066297E-17	1.274238E-18
5.420000E+03	2.065095E-17	1.273041E-18
5.430000E+03	2.064126E-17	1.271992E-18
5.440000E+03	2.063699E-17	1.271283E-18
5.450000E+03	2.063818E-17	1.270915E-18
5.460000E+03	2.064485E-17	1.270889E-18
5.470000E+03	2.065701E-17	1.271206E-18
5.480000E+03	2.067468E-17	1.271868E-18
5.490000E+03	2.069786E-17	1.272873E-18
5.500000E+03	2.072352E-17	1.274036E-18
5.510000E+03	2.075774E-17	1.275729E-18
5.520000E+03	2.079747E-17	1.277766E-18
5.530000E+03	2.083963E-17	1.279956E-18
5.540000E+03	2.089030E-17	1.282673E-18
5.550000E+03	2.094334E-17	1.285539E-18
5.560000E+03	2.100176E-17	1.288740E-18
5.570000E+03	2.106553E-17	1.292271E-18
5.580000E+03	2.113462E-17	1.296132E-18
5.590000E+03	2.121204E-17	1.300506E-18
5.600000E+03	2.128853E-17	1.304825E-18
5.610000E+03	2.137328E-17	1.309653E-18
5.620000E+03	2.146315E-17	1.314797E-18
5.630000E+03	2.155811E-17	1.320254E-18
5.640000E+03	2.165500E-17	1.325831E-18
5.650000E+03	2.175997E-17	1.331903E-18
5.660000E+03	2.186673E-17	1.338087E-18
5.670000E+03	2.198149E-17	1.344761E-18
5.680000E+03	2.209791E-17	1.351536E-18
5.690000E+03	2.221906E-17	1.358603E-18
5.700000E+03	2.234489E-17	1.365955E-18
5.710000E+03	2.247532E-17	1.373590E-18
5.720000E+03	2.261030E-17	1.381502E-18
5.730000E+03	2.274975E-17	1.389688E-18
5.740000E+03	2.289360E-17	1.398142E-18
5.750000E+03	2.304178E-17	1.406861E-18
5.760000E+03	2.319093E-17	1.415639E-18
5.770000E+03	2.334751E-17	1.424870E-18
5.780000E+03	2.350486E-17	1.434148E-18
5.790000E+03	2.366617E-17	1.443667E-18
5.800000E+03	2.383472E-17	1.453628E-18
5.810000E+03	2.400371E-17	1.463614E-18
5.820000E+03	2.417636E-17	1.473825E-18
5.830000E+03	2.435260E-17	1.484253E-18
5.840000E+03	2.453230E-17	1.494892E-18
5.850000E+03	2.471189E-17	1.505524E-18
5.860000E+03	2.489818E-17	1.516564E-18
5.870000E+03	2.508758E-17	1.527794E-18
5.880000E+03	2.527647E-17	1.538992E-18
5.890000E+03	2.547172E-17	1.550578E-18
5.900000E+03	2.566614E-17	1.562113E-18
5.910000E+03	2.586311E-17	1.573804E-18
5.920000E+03	2.606249E-17	1.585642E-18
5.930000E+03	2.626413E-17	1.597618E-18
5.940000E+03	2.646788E-17	1.609724E-18
5.950000E+03	2.667359E-17	1.621950E-18
5.960000E+03	2.688109E-17	1.634285E-18
5.970000E+03	2.708644E-17	1.646493E-18
5.980000E+03	2.729698E-17	1.659017E-18
5.990000E+03	2.750498E-17	1.671388E-18
6.000000E+03	2.771786E-17	1.684059E-18
6.010000E+03	2.792779E-17	1.696553E-18
6.020000E+03	2.813837E-17	1.709089E-18
6.030000E+03	2.834942E-17	1.721658E-18
6.040000E+03	2.856074E-17	1.734247E-18
6.050000E+03	2.877213E-17	1.746844E-18
6.060000E+03	2.898338E-17	1.759437E-18
6.070000E+03	2.919429E-17	1.772014E-18
6.080000E+03	2.940058E-17	1.784317E-18
6.090000E+03	2.961012E-17	1.796823E-18
6.100000E+03	2.981458E-17	1.809026E-18
6.110000E+03	3.001777E-17	1.821160E-18
6.120000E+03	3.022361E-17	1.833461E-18
6.130000E+03	3.042365E-17	1.845419E-18
6.140000E+03	3.062176E-17	1.857268E-18
6.150000E+03	3.081772E-17	1.868995E-18
6.160000E+03	3.100707E-17	1.880332E-18
6.170000E+03	3.119805E-17	1.891777E-18
6.180000E+03	3.138624E-17	1.903064E-18
6.190000E+03	3.156710E-17	1.913918E-18
6.200000E+03	3.174902E-17	1.924848E-18
6.210000E+03	3.192316E-17	1.935320E-18
6.220000E+03	3.209361E-17	1.945581E-18
6.230000E+03	3.226021E-17	1.955622E-18
6.240000E+03	3.242275E-17	1.965433E-18
6.250000E+03	3.258107E-17	1.975002E-18
6.260000E+03	3.273501E-17	1.984322E-18
6.270000E+03	3.288439E-17	1.993383E-18
6.280000E+03	3.302462E-17	2.001906E-18
6.290000E+03	3.316450E-17	2.010426E-18
6.300000E+03	3.329493E-17	2.018393E-18
6.310000E+03	3.342027E-17	2.026069E-18
6.320000E+03	3.354498E-17	2.033725E-18
6.330000E+03	3.365989E-17	2.040806E-18
6.340000E+03	3.376944E-17	2.047581E-18
6.350000E+03	3.387356E-17	2.054044E-18
6.360000E+03	3.396758E-17	2.059914E-18
6.370000E+03	3.406063E-17	2.065743E-18
6.380000E+03	3.414806E-17	2.071249E-18
6.390000E+03	3.422520E-17	2.076148E-18
6.400000E+03	3.430126E-17	2.081000E-18
6.410000E+03	3.436695E-17	2.085240E-18
6.420000E+03	3.442685E-17	2.089147E-18
6.430000E+03	3.448097E-17	2.092720E-18
6.440000E+03	3.452927E-17	2.095957E-18
6.450000E+03	3.457176E-17	2.098859E-18
6.460000E+03	3.460844E-17	2.101424E-18
6.470000E+03	3.463933E-17	2.103654E-18
6.480000E+03	3.465974E-17	2.105264E-18
6.490000E+03	3.467904E-17	2.106823E-18
6.500000E+03	3.468793E-17	2.107765E-18
6.510000E+03	3.469575E-17	2.108659E-18
6.520000E+03	3.469321E-17	2.108939E-18
6.530000E+03	3.468503E-17	2.108890E-18
6.540000E+03	3.467123E-17	2.108516E-18
6.550000E+03	3.465187E-17	2.107818E-18
6.560000E+03	3.462701E-17	2.106801E-18
6.570000E+03	3.459204E-17	2.105183E-18
6.580000E+03	3.455634E-17	2.103534E-18
6.590000E+03	3.451532E-17	2.101577E-18
6.600000E+03	3.446439E-17	2.099030E-18
6.610000E+03	3.440830E-17	2.096182E-18
6.620000E+03	3.435173E-17	2.093319E-18
6.630000E+03	3.428551E-17	2.089881E-18
6.640000E+03	3.421435E-17	2.086156E-18
6.650000E+03	3.413835E-17	2.082148E-18
6.660000E+03	3.405757E-17	2.077861E-18
6.670000E+03	3.396754E-17	2.073023E-18
6.680000E+03	3.387750E-17	2.068197E-18
6.690000E+03	3.378297E-17	2.063109E-18
6.700000E+03	3.367950E-17	2.057487E-18
6.710000E+03	3.357627E-17	2.051891E-18
6.720000E+03	3.346432E-17	2.045775E-18
6.730000E+03	3.334830E-17	2.039421E-18
6.740000E+03	3.322829E-17	2.032834E-18
6.750000E+03	3.310440E-17	2.026022E-18
6.760000E+03	3.297673E-17	2.018989E-18
6.770000E+03	3.284538E-17	2.011742E-18
6.780000E+03	3.271046E-17	2.004287E-18
6.790000E+03	3.256768E-17	1.996361E-18
6.800000E+03	3.242594E-17	1.988509E-18
6.810000E+03	3.227660E-17	1.980201E-18
6.820000E+03	3.212846E-17	1.971977E-18
6.830000E+03	3.197296E-17	1.963312E-18
6.840000E+03	3.181455E-17	1.954477E-18
6.850000E+03	3.165333E-17	1.945480E-18
6.860000E+03	3.148940E-17	1.936326E-18
6.870000E+03	3.132289E-17	1.927022E-18
6.880000E+03	3.115386E-17	1.917573E-18
6.890000E+03	3.097827E-17	1.907728E-18
6.900000E+03	3.080458E-17	1.898010E-18
6.910000E+03	3.062869E-17	1.888166E-18
6.920000E+03	3.044659E-17	1.877947E-18
6.930000E+03	3.026254E-17	1.867617E-18
6.940000E+03	3.008070E-17	1.857431E-18
6.950000E+03	2.989301E-17	1.846893E-18
6.960000E+03	2.970365E-17	1.836259E-18
6.970000E+03	2.951272E-17	1.825536E-18
6.980000E+03	2.932031E-17	1.814730E-18
6.990000E+03	2.912651E-17	1.803846E-18
7.000000E+03	2.892749E-17	1.792645E-18
7.010000E+03	2.873119E-17	1.781621E-18
7.020000E+03	2.853377E-17	1.770535E-18
7.030000E+03	2.833146E-17	1.759152E-18
7.040000E+03	2.813206E-17	1.747957E-18
7.050000E+03	2.792798E-17	1.736478E-18
7.060000E+03	2.772315E-17	1.724959E-18
7.070000E+03	2.751765E-17	1.713405E-18
7.080000E+03	2.731154E-17	1.701819E-18
7.090000E+03	2.710492E-17	1.690207E-18
7.100000E+03	2.689785E-17	1.678574E-18
7.110000E+03	2.669040E-17	1.666922E-18
7.120000E+03	2.648263E-17	1.655257E-18
7.130000E+03	2.627104E-17	1.643357E-18
7.140000E+03	2.606289E-17	1.631678E-18
7.150000E+03	2.585108E-17	1.619775E-18
7.160000E+03	2.564278E-17	1.608097E-18
7.170000E+03	2.543101E-17	1.596206E-18
7.180000E+03	2.521937E-17	1.584327E-18
7.190000E+03	2.501132E-17	1.572678E-18
7.200000E+03	2.480006E-17	1.560831E-18
7.210000E+03	2.458908E-17	1.549006E-18
7.220000E+03	2.437844E-17	1.537205E-18
7.230000E+03	2.416486E-17	1.525222E-18
7.240000E+03	2.395507E-17	1.513481E-18
7.250000E+03	2.374576E-17	1.501773E-18
7.260000E+03	2.353697E-17	1.490102E-18
7.270000E+03	2.332555E-17	1.478265E-18
7.280000E+03	2.311799E-17	1.466675E-18
7.290000E+03	2.290792E-17	1.454927E-18
7.300000E+03	2.269860E-17	1.443228E-18
7.310000E+03	2.249317E-17	1.431778E-18
7.320000E+03	2.228543E-17	1.420181E-18
7.330000E+03	2.207855E-17	1.408640E-18
7.340000E+03	2.187257E-17	1.397156E-18
7.350000E+03	2.166751E-17	1.385731E-18
7.360000E+03	2.146342E-17	1.374367E-18
7.370000E+03	2.125734E-17	1.362875E-18
7.380000E+03	2.105528E-17	1.351640E-18
7.390000E+03	2.085427E-17	1.340469E-18
7.400000E+03	2.065144E-17	1.329181E-18
7.410000E+03	2.045262E-17	1.318149E-18
7.420000E+03	2.025211E-17	1.307004E-18
7.430000E+03	2.005559E-17	1.296115E-18
7.440000E+03	1.985748E-17	1.285119E-18
7.450000E+03	1.966060E-17	1.274199E-18
7.460000E+03	1.946500E-17	1.263354E-18
7.470000E+03	1.927338E-17	1.252763E-18
7.480000E+03	1.908035E-17	1.242071E-18
7.490000E+03	1.888865E-17	1.231456E-18
7.500000E+03	1.869564E-17	1.220746E-18
7.510000E+03	1.850665E-17	1.210287E-18
7.520000E+03	1.831905E-17	1.199906E-18
7.530000E+03	1.813283E-17	1.189602E-18
7.540000E+03	1.794548E-17	1.179210E-18
7.550000E+03	1.776211E-17	1.169064E-18
7.560000E+03	1.757769E-17	1.158833E-18
7.570000E+03	1.739722E-17	1.148845E-18
7.580000E+03	1.721577E-17	1.138774E-18
7.590000E+03	1.703826E-17	1.128945E-18
7.600000E+03	1.685983E-17	1.119036E-18
7.610000E+03	1.668292E-17	1.109208E-18
7.620000E+03	1.650755E-17	1.099461E-18
7.630000E+03	1.633372E-17	1.089794E-18
7.640000E+03	1.616143E-17	1.080208E-18
7.650000E+03	1.599068E-17	1.070702E-18
7.660000E+03	1.582148E-17	1.061276E-18
7.670000E+03	1.565381E-17	1.051929E-18
7.680000E+03	1.548768E-17	1.042661E-18
7.690000E+03	1.532087E-17	1.033321E-18
7.700000E+03	1.515783E-17	1.024210E-18
7.710000E+03	1.499630E-17	1.015176E-18
7.720000E+03	1.483416E-17	1.006073E-18
7.730000E+03	1.467571E-17	9.971928E-19
7.740000E+03	1.451667E-17	9.882456E-19
7.750000E+03	1.435919E-17	9.793763E-19
7.760000E+03	1.420533E-17	9.707252E-19
