#wls	flux	fluxerr
1.600000E+03	1.703039E-18	1.917546E-19
1.640000E+03	1.772819E-18	1.989890E-19
1.680000E+03	1.847250E-18	2.066806E-19
1.720000E+03	1.925806E-18	2.147636E-19
1.760000E+03	2.009630E-18	2.233589E-19
1.800000E+03	2.097250E-18	2.322950E-19
1.840000E+03	2.190771E-18	2.417977E-19
1.880000E+03	2.289616E-18	2.517940E-19
1.920000E+03	2.394120E-18	2.623115E-19
1.960000E+03	2.504633E-18	2.733789E-19
2.000000E+03	2.622648E-18	2.851479E-19
2.040000E+03	2.747532E-18	2.975371E-19
2.080000E+03	2.879715E-18	3.105805E-19
2.120000E+03	3.019644E-18	3.243129E-19
2.160000E+03	3.167794E-18	3.387706E-19
2.200000E+03	3.326041E-18	3.541381E-19
2.240000E+03	3.493659E-18	3.703196E-19
2.280000E+03	3.671210E-18	3.873565E-19
2.320000E+03	3.859284E-18	4.052914E-19
2.360000E+03	4.060135E-18	4.243388E-19
2.400000E+03	4.272922E-18	4.443865E-19
2.440000E+03	4.498329E-18	4.654810E-19
2.480000E+03	4.737066E-18	4.876695E-19
2.520000E+03	4.989868E-18	5.109994E-19
2.560000E+03	5.259537E-18	5.357267E-19
2.600000E+03	5.544995E-18	5.617072E-19
2.640000E+03	5.847050E-18	5.889883E-19
2.680000E+03	6.168871E-18	6.178513E-19
2.720000E+03	6.506696E-18	6.478794E-19
2.760000E+03	6.866173E-18	6.795952E-19
2.800000E+03	7.245790E-18	7.128027E-19
2.840000E+03	7.649195E-18	7.478132E-19
2.880000E+03	8.071654E-18	7.841144E-19
2.920000E+03	8.519729E-18	8.222949E-19
2.960000E+03	8.991310E-18	8.620949E-19
3.000000E+03	9.490454E-18	9.038471E-19
3.010000E+03	9.618268E-18	9.144613E-19
3.020000E+03	9.747635E-18	9.251769E-19
3.030000E+03	9.878564E-18	9.359939E-19
3.040000E+03	1.001106E-17	9.469119E-19
3.050000E+03	1.014513E-17	9.579305E-19
3.060000E+03	1.028078E-17	9.690496E-19
3.070000E+03	1.042171E-17	9.806167E-19
3.080000E+03	1.056058E-17	9.919386E-19
3.090000E+03	1.070104E-17	1.003359E-18
3.100000E+03	1.084310E-17	1.014879E-18
3.110000E+03	1.098676E-17	1.026496E-18
3.120000E+03	1.113595E-17	1.038576E-18
3.130000E+03	1.128286E-17	1.050390E-18
3.140000E+03	1.143139E-17	1.062300E-18
3.150000E+03	1.158556E-17	1.074679E-18
3.160000E+03	1.173735E-17	1.086781E-18
3.170000E+03	1.189073E-17	1.098975E-18
3.180000E+03	1.204572E-17	1.111260E-18
3.190000E+03	1.220654E-17	1.124026E-18
3.200000E+03	1.236478E-17	1.136495E-18
3.210000E+03	1.252894E-17	1.149448E-18
3.220000E+03	1.269039E-17	1.162095E-18
3.230000E+03	1.285344E-17	1.174827E-18
3.240000E+03	1.302254E-17	1.188050E-18
3.250000E+03	1.318876E-17	1.200949E-18
3.260000E+03	1.336111E-17	1.214345E-18
3.270000E+03	1.353049E-17	1.227406E-18
3.280000E+03	1.370140E-17	1.240544E-18
3.290000E+03	1.387856E-17	1.254183E-18
3.300000E+03	1.405254E-17	1.267470E-18
3.310000E+03	1.423285E-17	1.281263E-18
3.320000E+03	1.440984E-17	1.294691E-18
3.330000E+03	1.459324E-17	1.308628E-18
3.340000E+03	1.477318E-17	1.322187E-18
3.350000E+03	1.495958E-17	1.336257E-18
3.360000E+03	1.514747E-17	1.350392E-18
3.370000E+03	1.533170E-17	1.364132E-18
3.380000E+03	1.552248E-17	1.378385E-18
3.390000E+03	1.570943E-17	1.392229E-18
3.400000E+03	1.590298E-17	1.406587E-18
3.410000E+03	1.609790E-17	1.420996E-18
3.420000E+03	1.628876E-17	1.434975E-18
3.430000E+03	1.648628E-17	1.449470E-18
3.440000E+03	1.667954E-17	1.463518E-18
3.450000E+03	1.687953E-17	1.478086E-18
3.460000E+03	1.708072E-17	1.492685E-18
3.470000E+03	1.727737E-17	1.506816E-18
3.480000E+03	1.748080E-17	1.521464E-18
3.490000E+03	1.768531E-17	1.536133E-18
3.500000E+03	1.788500E-17	1.550310E-18
3.510000E+03	1.809149E-17	1.565002E-18
3.520000E+03	1.829891E-17	1.579701E-18
3.530000E+03	1.850724E-17	1.594404E-18
3.540000E+03	1.871033E-17	1.608582E-18
3.550000E+03	1.892024E-17	1.623272E-18
3.560000E+03	1.913089E-17	1.637952E-18
3.570000E+03	1.934222E-17	1.652613E-18
3.580000E+03	1.955417E-17	1.667254E-18
3.590000E+03	1.976030E-17	1.681325E-18
3.600000E+03	1.997325E-17	1.695902E-18
3.610000E+03	2.018663E-17	1.710442E-18
3.620000E+03	2.040037E-17	1.724938E-18
3.630000E+03	2.061441E-17	1.739385E-18
3.640000E+03	2.082202E-17	1.753218E-18
3.650000E+03	2.103637E-17	1.767545E-18
3.660000E+03	2.125080E-17	1.781807E-18
3.670000E+03	2.146522E-17	1.795995E-18
3.680000E+03	2.167956E-17	1.810105E-18
3.690000E+03	2.189375E-17	1.824130E-18
3.700000E+03	2.210769E-17	1.838062E-18
3.710000E+03	2.232129E-17	1.851897E-18
3.720000E+03	2.252737E-17	1.865040E-18
3.730000E+03	2.273999E-17	1.878656E-18
3.740000E+03	2.295201E-17	1.892154E-18
3.750000E+03	2.316333E-17	1.905527E-18
3.760000E+03	2.337386E-17	1.918769E-18
3.770000E+03	2.358352E-17	1.931873E-18
3.780000E+03	2.379217E-17	1.944831E-18
3.790000E+03	2.399975E-17	1.957637E-18
3.800000E+03	2.420614E-17	1.970284E-18
3.810000E+03	2.441124E-17	1.982764E-18
3.820000E+03	2.461493E-17	1.995069E-18
3.830000E+03	2.481712E-17	2.007195E-18
3.840000E+03	2.501769E-17	2.019132E-18
3.850000E+03	2.521655E-17	2.030874E-18
3.860000E+03	2.541356E-17	2.042412E-18
3.870000E+03	2.560862E-17	2.053741E-18
3.880000E+03	2.580162E-17	2.064853E-18
3.890000E+03	2.599243E-17	2.075739E-18
3.900000E+03	2.618095E-17	2.086394E-18
3.910000E+03	2.636705E-17	2.096809E-18
3.920000E+03	2.655061E-17	2.106978E-18
3.930000E+03	2.673152E-17	2.116893E-18
3.940000E+03	2.690965E-17	2.126547E-18
3.950000E+03	2.708487E-17	2.135931E-18
3.960000E+03	2.725709E-17	2.145042E-18
3.970000E+03	2.742615E-17	2.153869E-18
3.980000E+03	2.759194E-17	2.162405E-18
3.990000E+03	2.775435E-17	2.170646E-18
4.000000E+03	2.791324E-17	2.178583E-18
4.010000E+03	2.807685E-17	2.186860E-18
4.020000E+03	2.822837E-17	2.194170E-18
4.030000E+03	2.837601E-17	2.201156E-18
4.040000E+03	2.851962E-17	2.207810E-18
4.050000E+03	2.865911E-17	2.214128E-18
4.060000E+03	2.879433E-17	2.220102E-18
4.070000E+03	2.892518E-17	2.225726E-18
4.080000E+03	2.905153E-17	2.230995E-18
4.090000E+03	2.917327E-17	2.235902E-18
4.100000E+03	2.929025E-17	2.240441E-18
4.110000E+03	2.940238E-17	2.244606E-18
4.120000E+03	2.950955E-17	2.248393E-18
4.130000E+03	2.962026E-17	2.252453E-18
4.140000E+03	2.971715E-17	2.255467E-18
4.150000E+03	2.980873E-17	2.258086E-18
4.160000E+03	2.989487E-17	2.260305E-18
4.170000E+03	2.997550E-17	2.262122E-18
4.180000E+03	3.005049E-17	2.263531E-18
4.190000E+03	3.011975E-17	2.264527E-18
4.200000E+03	3.018317E-17	2.265108E-18
4.210000E+03	3.024066E-17	2.265269E-18
4.220000E+03	3.029212E-17	2.265007E-18
4.230000E+03	3.034618E-17	2.264968E-18
4.240000E+03	3.038533E-17	2.263849E-18
4.250000E+03	3.041820E-17	2.262300E-18
4.260000E+03	3.044470E-17	2.260315E-18
4.270000E+03	3.046477E-17	2.257895E-18
4.280000E+03	3.047833E-17	2.255037E-18
4.290000E+03	3.048532E-17	2.251739E-18
4.300000E+03	3.048568E-17	2.248002E-18
4.310000E+03	3.047934E-17	2.243824E-18
4.320000E+03	3.046627E-17	2.239204E-18
4.330000E+03	3.044643E-17	2.234143E-18
4.340000E+03	3.041978E-17	2.228643E-18
4.350000E+03	3.039484E-17	2.223329E-18
4.360000E+03	3.035449E-17	2.216951E-18
4.370000E+03	3.030731E-17	2.210140E-18
4.380000E+03	3.025333E-17	2.202900E-18
4.390000E+03	3.019260E-17	2.195236E-18
4.400000E+03	3.012524E-17	2.187157E-18
4.410000E+03	3.005137E-17	2.178673E-18
4.420000E+03	2.997113E-17	2.169795E-18
4.430000E+03	2.988469E-17	2.160536E-18
4.440000E+03	2.979224E-17	2.150910E-18
4.450000E+03	2.969398E-17	2.140932E-18
4.460000E+03	2.959010E-17	2.130617E-18
4.470000E+03	2.948081E-17	2.119979E-18
4.480000E+03	2.936631E-17	2.109033E-18
4.490000E+03	2.924682E-17	2.097795E-18
4.500000E+03	2.912255E-17	2.086281E-18
4.510000E+03	2.899373E-17	2.074505E-18
4.520000E+03	2.886054E-17	2.062482E-18
4.530000E+03	2.872321E-17	2.050227E-18
4.540000E+03	2.858194E-17	2.037755E-18
4.550000E+03	2.843696E-17	2.025081E-18
4.560000E+03	2.828848E-17	2.012219E-18
4.570000E+03	2.813669E-17	1.999184E-18
4.580000E+03	2.798180E-17	1.985988E-18
4.590000E+03	2.781652E-17	1.972115E-18
4.600000E+03	2.765611E-17	1.958647E-18
4.610000E+03	2.749321E-17	1.945060E-18
4.620000E+03	2.732802E-17	1.931368E-18
4.630000E+03	2.716072E-17	1.917582E-18
4.640000E+03	2.699151E-17	1.903716E-18
4.650000E+03	2.682058E-17	1.889783E-18
4.660000E+03	2.664810E-17	1.875794E-18
4.670000E+03	2.646721E-17	1.861265E-18
4.680000E+03	2.629224E-17	1.847203E-18
4.690000E+03	2.611625E-17	1.833119E-18
4.700000E+03	2.593941E-17	1.819025E-18
4.710000E+03	2.576189E-17	1.804930E-18
4.720000E+03	2.557709E-17	1.790372E-18
4.730000E+03	2.539874E-17	1.776312E-18
4.740000E+03	2.522017E-17	1.762281E-18
4.750000E+03	2.504154E-17	1.748289E-18
4.760000E+03	2.485644E-17	1.733889E-18
4.770000E+03	2.467816E-17	1.720006E-18
4.780000E+03	2.450023E-17	1.706189E-18
4.790000E+03	2.432278E-17	1.692444E-18
4.800000E+03	2.413964E-17	1.678342E-18
4.810000E+03	2.396360E-17	1.664772E-18
4.820000E+03	2.378841E-17	1.651298E-18
4.830000E+03	2.360806E-17	1.637501E-18
4.840000E+03	2.343499E-17	1.624244E-18
4.850000E+03	2.325708E-17	1.610686E-18
4.860000E+03	2.308654E-17	1.597672E-18
4.870000E+03	2.291743E-17	1.584788E-18
4.880000E+03	2.274391E-17	1.571632E-18
4.890000E+03	2.257793E-17	1.559026E-18
4.900000E+03	2.240784E-17	1.546168E-18
4.910000E+03	2.224535E-17	1.533862E-18
4.920000E+03	2.207904E-17	1.521321E-18
4.930000E+03	2.192038E-17	1.509334E-18
4.940000E+03	2.175816E-17	1.497129E-18
4.950000E+03	2.160364E-17	1.485479E-18
4.960000E+03	2.144580E-17	1.473627E-18
4.970000E+03	2.129027E-17	1.461958E-18
4.980000E+03	2.114251E-17	1.450845E-18
4.990000E+03	2.099177E-17	1.439551E-18
5.000000E+03	2.084881E-17	1.428813E-18
5.010000E+03	2.070308E-17	1.417907E-18
5.020000E+03	2.055995E-17	1.407200E-18
5.030000E+03	2.041948E-17	1.396696E-18
5.040000E+03	2.028686E-17	1.386748E-18
5.050000E+03	2.015182E-17	1.376654E-18
5.060000E+03	2.001960E-17	1.366771E-18
5.070000E+03	1.989022E-17	1.357101E-18
5.080000E+03	1.976869E-17	1.347983E-18
5.090000E+03	1.964510E-17	1.338742E-18
5.100000E+03	1.952447E-17	1.329720E-18
5.110000E+03	1.940685E-17	1.320918E-18
5.120000E+03	1.929226E-17	1.312338E-18
5.130000E+03	1.918075E-17	1.303983E-18
5.140000E+03	1.907235E-17	1.295854E-18
5.150000E+03	1.896708E-17	1.287952E-18
5.160000E+03	1.886499E-17	1.280279E-18
5.170000E+03	1.876609E-17	1.272836E-18
5.180000E+03	1.867042E-17	1.265625E-18
5.190000E+03	1.857801E-17	1.258648E-18
5.200000E+03	1.848888E-17	1.251905E-18
5.210000E+03	1.840307E-17	1.245399E-18
5.220000E+03	1.832059E-17	1.239129E-18
5.230000E+03	1.824147E-17	1.233098E-18
5.240000E+03	1.816574E-17	1.227306E-18
5.250000E+03	1.809343E-17	1.221756E-18
5.260000E+03	1.802013E-17	1.216149E-18
5.270000E+03	1.795474E-17	1.211086E-18
5.280000E+03	1.789283E-17	1.206267E-18
5.290000E+03	1.783443E-17	1.201694E-18
5.300000E+03	1.777522E-17	1.197076E-18
5.310000E+03	1.772395E-17	1.193000E-18
5.320000E+03	1.767624E-17	1.189173E-18
5.330000E+03	1.762786E-17	1.185309E-18
5.340000E+03	1.758743E-17	1.181988E-18
5.350000E+03	1.754637E-17	1.178632E-18
5.360000E+03	1.751329E-17	1.175820E-18
5.370000E+03	1.747966E-17	1.172978E-18
5.380000E+03	1.745404E-17	1.170680E-18
5.390000E+03	1.742793E-17	1.168357E-18
5.400000E+03	1.740986E-17	1.166580E-18
5.410000E+03	1.739138E-17	1.164782E-18
5.420000E+03	1.738094E-17	1.163529E-18
5.430000E+03	1.737018E-17	1.162260E-18
5.440000E+03	1.736330E-17	1.161259E-18
5.450000E+03	1.736452E-17	1.160804E-18
5.460000E+03	1.736549E-17	1.160339E-18
5.470000E+03	1.737041E-17	1.160144E-18
5.480000E+03	1.737929E-17	1.160219E-18
5.490000E+03	1.739213E-17	1.160565E-18
5.500000E+03	1.741311E-17	1.161459E-18
5.510000E+03	1.743389E-17	1.162345E-18
5.520000E+03	1.745861E-17	1.163500E-18
5.530000E+03	1.748726E-17	1.164922E-18
5.540000E+03	1.751979E-17	1.166608E-18
5.550000E+03	1.755618E-17	1.168555E-18
5.560000E+03	1.759639E-17	1.170761E-18
5.570000E+03	1.764039E-17	1.173222E-18
5.580000E+03	1.768813E-17	1.175937E-18
5.590000E+03	1.773957E-17	1.178901E-18
5.600000E+03	1.779046E-17	1.181831E-18
5.610000E+03	1.784917E-17	1.185284E-18
5.620000E+03	1.791146E-17	1.188976E-18
5.630000E+03	1.797729E-17	1.192907E-18
5.640000E+03	1.804661E-17	1.197071E-18
5.650000E+03	1.811508E-17	1.201181E-18
5.660000E+03	1.819122E-17	1.205801E-18
5.670000E+03	1.827072E-17	1.210645E-18
5.680000E+03	1.834918E-17	1.215422E-18
5.690000E+03	1.843520E-17	1.220701E-18
5.700000E+03	1.852007E-17	1.225904E-18
5.710000E+03	1.861241E-17	1.231604E-18
5.720000E+03	1.870346E-17	1.237219E-18
5.730000E+03	1.880191E-17	1.243324E-18
5.740000E+03	1.889891E-17	1.249334E-18
5.750000E+03	1.899878E-17	1.255534E-18
5.760000E+03	1.910593E-17	1.262216E-18
5.770000E+03	1.921140E-17	1.268788E-18
5.780000E+03	1.931954E-17	1.275536E-18
5.790000E+03	1.943483E-17	1.282757E-18
5.800000E+03	1.954816E-17	1.289848E-18
5.810000E+03	1.966396E-17	1.297104E-18
5.820000E+03	1.978214E-17	1.304517E-18
5.830000E+03	1.990265E-17	1.312084E-18
5.840000E+03	2.002539E-17	1.319799E-18
5.850000E+03	2.015029E-17	1.327656E-18
5.860000E+03	2.027724E-17	1.335650E-18
5.870000E+03	2.040619E-17	1.343775E-18
5.880000E+03	2.053701E-17	1.352025E-18
5.890000E+03	2.066962E-17	1.360395E-18
5.900000E+03	2.080393E-17	1.368877E-18
5.910000E+03	2.093983E-17	1.377465E-18
5.920000E+03	2.107720E-17	1.386152E-18
5.930000E+03	2.121597E-17	1.394931E-18
5.940000E+03	2.135106E-17	1.403472E-18
5.950000E+03	2.149221E-17	1.412413E-18
5.960000E+03	2.163440E-17	1.421425E-18
5.970000E+03	2.177247E-17	1.430170E-18
5.980000E+03	2.191632E-17	1.439297E-18
5.990000E+03	2.205575E-17	1.448137E-18
6.000000E+03	2.220076E-17	1.457348E-18
6.010000E+03	2.234103E-17	1.466251E-18
6.020000E+03	2.248665E-17	1.475511E-18
6.030000E+03	2.262718E-17	1.484442E-18
6.040000E+03	2.277285E-17	1.493714E-18
6.050000E+03	2.291309E-17	1.502637E-18
6.060000E+03	2.305292E-17	1.511539E-18
6.070000E+03	2.319752E-17	1.520761E-18
6.080000E+03	2.333613E-17	1.529598E-18
6.090000E+03	2.347388E-17	1.538385E-18
6.100000E+03	2.361059E-17	1.547113E-18
6.110000E+03	2.374610E-17	1.555772E-18
6.120000E+03	2.388026E-17	1.564351E-18
6.130000E+03	2.401288E-17	1.572840E-18
6.140000E+03	2.414380E-17	1.581228E-18
6.150000E+03	2.427284E-17	1.589504E-18
6.160000E+03	2.439984E-17	1.597659E-18
6.170000E+03	2.452461E-17	1.605681E-18
6.180000E+03	2.464699E-17	1.613559E-18
6.190000E+03	2.476681E-17	1.621283E-18
6.200000E+03	2.488387E-17	1.628842E-18
6.210000E+03	2.499805E-17	1.636227E-18
6.220000E+03	2.510344E-17	1.643053E-18
6.230000E+03	2.521132E-17	1.650058E-18
6.240000E+03	2.531585E-17	1.656863E-18
6.250000E+03	2.541115E-17	1.663080E-18
6.260000E+03	2.550865E-17	1.669462E-18
6.270000E+03	2.559669E-17	1.675243E-18
6.280000E+03	2.568683E-17	1.681183E-18
6.290000E+03	2.576736E-17	1.686513E-18
6.300000E+03	2.584993E-17	1.691999E-18
6.310000E+03	2.592278E-17	1.696869E-18
6.320000E+03	2.599764E-17	1.701891E-18
6.330000E+03	2.606272E-17	1.706292E-18
6.340000E+03	2.612387E-17	1.710457E-18
6.350000E+03	2.618109E-17	1.714384E-18
6.360000E+03	2.624031E-17	1.718462E-18
6.370000E+03	2.628964E-17	1.721912E-18
6.380000E+03	2.633503E-17	1.725122E-18
6.390000E+03	2.637647E-17	1.728093E-18
6.400000E+03	2.641397E-17	1.730824E-18
6.410000E+03	2.644752E-17	1.733315E-18
6.420000E+03	2.647716E-17	1.735568E-18
6.430000E+03	2.650289E-17	1.737581E-18
6.440000E+03	2.652470E-17	1.739357E-18
6.450000E+03	2.654265E-17	1.740896E-18
6.460000E+03	2.655673E-17	1.742199E-18
6.470000E+03	2.656699E-17	1.743267E-18
6.480000E+03	2.656742E-17	1.743707E-18
6.490000E+03	2.657008E-17	1.744310E-18
6.500000E+03	2.656898E-17	1.744682E-18
6.510000E+03	2.655816E-17	1.744431E-18
6.520000E+03	2.654965E-17	1.744348E-18
6.530000E+03	2.653748E-17	1.744040E-18
6.540000E+03	2.651571E-17	1.743116E-18
6.550000E+03	2.649635E-17	1.742364E-18
6.560000E+03	2.646748E-17	1.741002E-18
6.570000E+03	2.643513E-17	1.739425E-18
6.580000E+03	2.640529E-17	1.738027E-18
6.590000E+03	2.636610E-17	1.736028E-18
6.600000E+03	2.632951E-17	1.734213E-18
6.610000E+03	2.628367E-17	1.731802E-18
6.620000E+03	2.623458E-17	1.729189E-18
6.630000E+03	2.618230E-17	1.726380E-18
6.640000E+03	2.613277E-17	1.723764E-18
6.650000E+03	2.607424E-17	1.720567E-18
6.660000E+03	2.601268E-17	1.717183E-18
6.670000E+03	2.594814E-17	1.713613E-18
6.680000E+03	2.588067E-17	1.709862E-18
6.690000E+03	2.581033E-17	1.705933E-18
6.700000E+03	2.573719E-17	1.701830E-18
6.710000E+03	2.566128E-17	1.697555E-18
6.720000E+03	2.558268E-17	1.693114E-18
6.730000E+03	2.549568E-17	1.688127E-18
6.740000E+03	2.541187E-17	1.683362E-18
6.750000E+03	2.532555E-17	1.678441E-18
6.760000E+03	2.523676E-17	1.673368E-18
6.770000E+03	2.513988E-17	1.667768E-18
6.780000E+03	2.504637E-17	1.662402E-18
6.790000E+03	2.495057E-17	1.656894E-18
6.800000E+03	2.484692E-17	1.650875E-18
6.810000E+03	2.474675E-17	1.645097E-18
6.820000E+03	2.463890E-17	1.638818E-18
6.830000E+03	2.453460E-17	1.632784E-18
6.840000E+03	2.442278E-17	1.626260E-18
6.850000E+03	2.431458E-17	1.619986E-18
6.860000E+03	2.419903E-17	1.613232E-18
6.870000E+03	2.408717E-17	1.606733E-18
6.880000E+03	2.396812E-17	1.599763E-18
6.890000E+03	2.384742E-17	1.592693E-18
6.900000E+03	2.372513E-17	1.585526E-18
6.910000E+03	2.360665E-17	1.578621E-18
6.920000E+03	2.348133E-17	1.571269E-18
6.930000E+03	2.335459E-17	1.563829E-18
6.940000E+03	2.322647E-17	1.556307E-18
6.950000E+03	2.309705E-17	1.548705E-18
6.960000E+03	2.296636E-17	1.541028E-18
6.970000E+03	2.283446E-17	1.533277E-18
6.980000E+03	2.270142E-17	1.525458E-18
6.990000E+03	2.256727E-17	1.517573E-18
7.000000E+03	2.243208E-17	1.509626E-18
7.010000E+03	2.229588E-17	1.501619E-18
7.020000E+03	2.215874E-17	1.493557E-18
7.030000E+03	2.201570E-17	1.485105E-18
7.040000E+03	2.187683E-17	1.476943E-18
7.050000E+03	2.173715E-17	1.468734E-18
7.060000E+03	2.159180E-17	1.460149E-18
7.070000E+03	2.145068E-17	1.451857E-18
7.080000E+03	2.130889E-17	1.443528E-18
7.090000E+03	2.116165E-17	1.434838E-18
7.100000E+03	2.101868E-17	1.426444E-18
7.110000E+03	2.087040E-17	1.417697E-18
7.120000E+03	2.072641E-17	1.409248E-18
7.130000E+03	2.057727E-17	1.400456E-18
7.140000E+03	2.043242E-17	1.391963E-18
7.150000E+03	2.028257E-17	1.383136E-18
7.160000E+03	2.013702E-17	1.374609E-18
7.170000E+03	1.998660E-17	1.365756E-18
7.180000E+03	1.983597E-17	1.356895E-18
7.190000E+03	1.968515E-17	1.348027E-18
7.200000E+03	1.953866E-17	1.339461E-18
7.210000E+03	1.938755E-17	1.330585E-18
7.220000E+03	1.923637E-17	1.321709E-18
7.230000E+03	1.908513E-17	1.312834E-18
7.240000E+03	1.893388E-17	1.303964E-18
7.250000E+03	1.878264E-17	1.295099E-18
7.260000E+03	1.863143E-17	1.286241E-18
7.270000E+03	1.848029E-17	1.277392E-18
7.280000E+03	1.832924E-17	1.268554E-18
7.290000E+03	1.817830E-17	1.259728E-18
7.300000E+03	1.802750E-17	1.250915E-18
7.310000E+03	1.787687E-17	1.242117E-18
7.320000E+03	1.772642E-17	1.233335E-18
7.330000E+03	1.757618E-17	1.224571E-18
7.340000E+03	1.742218E-17	1.215547E-18
7.350000E+03	1.727244E-17	1.206822E-18
7.360000E+03	1.712299E-17	1.198120E-18
7.370000E+03	1.697381E-17	1.189439E-18
7.380000E+03	1.682108E-17	1.180510E-18
7.390000E+03	1.667256E-17	1.171877E-18
7.400000E+03	1.652438E-17	1.163269E-18
7.410000E+03	1.637280E-17	1.154421E-18
7.420000E+03	1.622538E-17	1.145867E-18
7.430000E+03	1.607463E-17	1.137078E-18
7.440000E+03	1.592802E-17	1.128579E-18
7.450000E+03	1.577818E-17	1.119850E-18
7.460000E+03	1.563243E-17	1.111407E-18
7.470000E+03	1.548353E-17	1.102735E-18
7.480000E+03	1.533513E-17	1.094093E-18
7.490000E+03	1.519076E-17	1.085731E-18
7.500000E+03	1.504337E-17	1.077144E-18
7.510000E+03	1.489650E-17	1.068584E-18
7.520000E+03	1.475017E-17	1.060052E-18
7.530000E+03	1.460777E-17	1.051790E-18
7.540000E+03	1.446250E-17	1.043308E-18
7.550000E+03	1.431779E-17	1.034852E-18
7.560000E+03	1.417363E-17	1.026420E-18
7.570000E+03	1.403005E-17	1.018013E-18
7.580000E+03	1.388705E-17	1.009630E-18
7.590000E+03	1.374463E-17	1.001271E-18
7.600000E+03	1.360598E-17	9.931667E-19
7.610000E+03	1.346474E-17	9.848535E-19
7.620000E+03	1.332101E-17	9.763360E-19
7.630000E+03	1.318108E-17	9.680735E-19
7.640000E+03	1.304183E-17	9.598384E-19
7.650000E+03	1.290329E-17	9.516306E-19
7.660000E+03	1.276549E-17	9.434532E-19
7.670000E+03	1.262846E-17	9.353063E-19
7.680000E+03	1.249223E-17	9.271929E-19
7.690000E+03	1.235684E-17	9.191148E-19
7.700000E+03	1.221944E-17	9.108586E-19
7.710000E+03	1.208582E-17	9.028557E-19
7.720000E+03	1.195311E-17	8.948926E-19
7.730000E+03	1.182135E-17	8.869703E-19
7.740000E+03	1.168778E-17	8.788823E-19
7.750000E+03	1.155797E-17	8.710469E-19
7.760000E+03	1.142648E-17	8.630526E-19
