#wls	flux	fluxerr
1.568627E+03	5.560921E-04	2.933861E-06
1.607843E+03	5.550194E-04	2.928197E-06
1.647059E+03	5.533993E-04	2.919645E-06
1.686275E+03	5.511165E-04	2.907597E-06
1.725490E+03	5.482392E-04	2.892412E-06
1.764706E+03	5.447212E-04	2.873847E-06
1.803922E+03	5.403630E-04	2.850850E-06
1.843137E+03	5.348285E-04	2.821646E-06
1.882353E+03	5.280882E-04	2.786082E-06
1.921569E+03	5.199935E-04	2.743372E-06
1.960784E+03	5.106731E-04	2.694195E-06
2.000000E+03	5.008030E-04	2.642119E-06
2.039216E+03	4.920085E-04	2.595718E-06
2.078431E+03	4.862128E-04	2.565137E-06
2.117647E+03	4.853119E-04	2.560381E-06
2.156863E+03	4.898470E-04	2.584303E-06
2.196078E+03	4.991985E-04	2.633635E-06
2.235294E+03	5.116903E-04	2.699535E-06
2.274510E+03	5.257810E-04	2.773870E-06
2.313725E+03	5.404173E-04	2.851082E-06
2.352941E+03	5.550625E-04	2.928342E-06
2.392157E+03	5.695430E-04	3.004733E-06
2.431373E+03	5.839905E-04	3.080949E-06
2.470588E+03	5.983412E-04	3.156655E-06
2.509804E+03	6.128606E-04	3.233251E-06
2.549020E+03	6.277266E-04	3.311675E-06
2.588235E+03	6.430105E-04	3.392303E-06
2.627451E+03	6.590809E-04	3.477081E-06
2.666667E+03	6.758957E-04	3.565786E-06
2.705882E+03	6.937133E-04	3.659780E-06
2.745098E+03	7.125851E-04	3.759337E-06
2.784314E+03	7.327695E-04	3.865817E-06
2.823529E+03	7.545281E-04	3.980603E-06
2.862745E+03	7.779146E-04	4.103976E-06
2.901961E+03	8.034065E-04	4.238457E-06
2.941176E+03	8.312717E-04	4.385458E-06
2.950980E+03	8.385657E-04	4.423937E-06
2.960784E+03	8.461698E-04	4.464052E-06
2.970588E+03	8.538682E-04	4.504665E-06
2.980392E+03	8.617775E-04	4.546389E-06
2.990196E+03	8.699173E-04	4.589331E-06
3.000000E+03	8.783092E-04	4.633602E-06
3.009804E+03	8.869495E-04	4.679183E-06
3.019608E+03	8.959471E-04	4.726649E-06
3.029412E+03	9.050753E-04	4.774805E-06
3.039216E+03	9.144444E-04	4.824231E-06
3.049020E+03	9.241625E-04	4.875498E-06
3.058824E+03	9.341169E-04	4.928013E-06
3.068627E+03	9.443040E-04	4.981754E-06
3.078431E+03	9.548355E-04	5.037312E-06
3.088235E+03	9.655958E-04	5.094078E-06
3.098039E+03	9.766971E-04	5.152642E-06
3.107843E+03	9.880218E-04	5.212385E-06
3.117647E+03	9.997988E-04	5.274515E-06
3.127451E+03	1.011795E-03	5.337801E-06
3.137255E+03	1.024006E-03	5.402219E-06
3.147059E+03	1.036663E-03	5.468988E-06
3.156863E+03	1.049645E-03	5.537474E-06
3.166667E+03	1.062949E-03	5.607660E-06
3.176471E+03	1.076570E-03	5.679520E-06
3.186275E+03	1.090625E-03	5.753666E-06
3.196078E+03	1.104989E-03	5.829442E-06
3.205882E+03	1.119776E-03	5.907451E-06
3.215686E+03	1.134862E-03	5.987033E-06
3.225490E+03	1.150481E-03	6.069433E-06
3.235294E+03	1.166387E-03	6.153343E-06
3.245098E+03	1.182694E-03	6.239369E-06
3.254902E+03	1.199395E-03	6.327479E-06
3.264706E+03	1.216610E-03	6.418294E-06
3.274510E+03	1.234208E-03	6.511132E-06
3.284314E+03	1.252309E-03	6.606624E-06
3.294118E+03	1.270786E-03	6.704097E-06
3.303922E+03	1.289759E-03	6.804189E-06
3.313725E+03	1.309229E-03	6.906903E-06
3.323529E+03	1.329325E-03	7.012917E-06
3.333333E+03	1.349927E-03	7.121601E-06
3.343137E+03	1.371044E-03	7.233007E-06
3.352941E+03	1.392821E-03	7.347888E-06
3.362745E+03	1.415152E-03	7.465694E-06
3.372549E+03	1.438324E-03	7.587938E-06
3.382353E+03	1.462252E-03	7.714170E-06
3.392157E+03	1.486990E-03	7.844673E-06
3.401961E+03	1.512606E-03	7.979812E-06
3.411765E+03	1.539447E-03	8.121410E-06
3.421569E+03	1.567362E-03	8.268671E-06
3.431373E+03	1.596610E-03	8.422971E-06
3.441176E+03	1.627352E-03	8.585147E-06
3.450980E+03	1.659778E-03	8.756211E-06
3.460784E+03	1.694244E-03	8.938038E-06
3.470588E+03	1.731016E-03	9.132024E-06
3.480392E+03	1.770261E-03	9.339064E-06
3.490196E+03	1.812586E-03	9.562344E-06
3.500000E+03	1.858085E-03	9.802378E-06
3.509804E+03	1.907403E-03	1.006255E-05
3.519608E+03	1.960882E-03	1.034468E-05
3.529412E+03	2.018655E-03	1.064946E-05
3.539216E+03	2.081047E-03	1.097861E-05
3.549020E+03	2.148157E-03	1.133265E-05
3.558824E+03	2.219885E-03	1.171105E-05
3.568627E+03	2.296687E-03	1.211621E-05
3.578431E+03	2.378129E-03	1.254586E-05
3.588235E+03	2.464512E-03	1.300157E-05
3.598039E+03	2.555850E-03	1.348342E-05
3.607843E+03	2.652007E-03	1.399070E-05
3.617647E+03	2.753326E-03	1.452520E-05
3.627451E+03	2.859497E-03	1.508531E-05
3.637255E+03	2.970687E-03	1.567189E-05
3.647059E+03	3.087077E-03	1.628590E-05
3.656863E+03	3.208516E-03	1.692655E-05
3.666667E+03	3.335018E-03	1.759391E-05
3.676471E+03	3.466777E-03	1.828900E-05
3.686275E+03	3.603630E-03	1.901096E-05
3.696078E+03	3.745766E-03	1.976080E-05
3.705882E+03	3.893005E-03	2.053756E-05
3.715686E+03	4.045527E-03	2.134218E-05
3.725490E+03	4.203315E-03	2.217459E-05
3.735294E+03	4.366338E-03	2.303461E-05
3.745098E+03	4.534343E-03	2.392092E-05
3.754902E+03	4.707663E-03	2.483526E-05
3.764706E+03	4.885787E-03	2.577495E-05
3.774510E+03	5.068795E-03	2.674040E-05
3.784314E+03	5.256527E-03	2.773078E-05
3.794118E+03	5.448564E-03	2.874386E-05
3.803922E+03	5.645115E-03	2.978076E-05
3.813725E+03	5.845432E-03	3.083752E-05
3.823529E+03	6.049392E-03	3.191350E-05
3.833333E+03	6.256564E-03	3.300643E-05
3.843137E+03	6.466202E-03	3.411236E-05
3.852941E+03	6.677883E-03	3.522908E-05
3.862745E+03	6.890591E-03	3.635121E-05
3.872549E+03	7.103604E-03	3.747495E-05
3.882353E+03	7.315525E-03	3.859293E-05
3.892157E+03	7.525012E-03	3.969807E-05
3.901961E+03	7.730536E-03	4.078230E-05
3.911765E+03	7.930401E-03	4.183668E-05
3.921078E+03	7.403443E-03	3.905671E-05
3.922520E+03	7.421114E-03	3.914993E-05
3.923961E+03	7.470984E-03	3.941302E-05
3.925402E+03	7.532079E-03	3.973533E-05
3.926843E+03	7.400687E-03	3.904217E-05
3.928284E+03	7.347938E-03	3.876389E-05
3.929725E+03	7.372057E-03	3.889113E-05
3.931167E+03	7.383033E-03	3.894903E-05
3.932608E+03	7.401025E-03	3.904394E-05
3.934049E+03	7.399513E-03	3.903597E-05
3.935490E+03	7.395526E-03	3.901493E-05
3.936931E+03	7.412574E-03	3.910487E-05
3.938373E+03	7.437729E-03	3.923757E-05
3.939814E+03	7.474561E-03	3.943188E-05
3.941255E+03	7.429562E-03	3.919449E-05
3.942696E+03	7.445185E-03	3.927690E-05
3.944137E+03	7.559165E-03	3.987820E-05
3.945578E+03	7.604251E-03	4.011605E-05
3.947020E+03	7.714048E-03	4.069528E-05
3.948461E+03	7.832828E-03	4.132190E-05
3.949902E+03	7.866543E-03	4.149976E-05
3.951343E+03	7.978732E-03	4.209161E-05
3.952784E+03	8.025011E-03	4.233576E-05
3.954225E+03	8.064200E-03	4.254250E-05
3.955667E+03	8.120381E-03	4.283887E-05
3.957108E+03	8.139560E-03	4.294005E-05
3.958549E+03	8.170900E-03	4.310538E-05
3.959990E+03	8.111611E-03	4.279261E-05
3.961431E+03	8.063334E-03	4.253792E-05
3.962873E+03	8.076372E-03	4.260670E-05
3.964314E+03	8.128919E-03	4.288391E-05
3.965755E+03	8.130012E-03	4.288967E-05
3.967196E+03	8.123353E-03	4.285454E-05
3.968637E+03	8.360606E-03	4.410616E-05
3.970078E+03	8.440230E-03	4.452622E-05
3.971520E+03	8.494049E-03	4.481014E-05
3.972961E+03	8.466018E-03	4.466226E-05
3.974402E+03	8.516568E-03	4.492893E-05
3.975843E+03	8.665909E-03	4.571677E-05
3.977284E+03	8.712441E-03	4.596226E-05
3.978725E+03	8.815984E-03	4.650849E-05
3.980167E+03	8.917962E-03	4.704647E-05
3.981608E+03	9.118168E-03	4.810265E-05
3.983049E+03	9.233014E-03	4.870852E-05
3.984490E+03	9.337074E-03	4.925748E-05
3.985931E+03	9.443771E-03	4.982036E-05
3.987373E+03	9.684197E-03	5.108872E-05
3.988814E+03	9.834924E-03	5.188387E-05
3.990255E+03	9.970675E-03	5.260002E-05
3.991696E+03	1.007544E-02	5.315270E-05
3.993137E+03	1.017694E-02	5.368818E-05
3.994578E+03	1.025160E-02	5.408202E-05
3.996020E+03	1.030695E-02	5.437400E-05
3.997461E+03	1.046443E-02	5.520482E-05
3.998902E+03	1.064572E-02	5.616119E-05
4.000343E+03	1.075205E-02	5.672215E-05
4.001784E+03	1.078922E-02	5.691822E-05
4.003225E+03	1.089744E-02	5.748916E-05
4.004667E+03	1.100410E-02	5.805181E-05
4.006108E+03	1.100254E-02	5.804359E-05
4.007549E+03	1.104586E-02	5.827214E-05
4.008990E+03	1.110364E-02	5.857694E-05
4.010431E+03	1.114622E-02	5.880158E-05
4.011873E+03	1.120413E-02	5.910704E-05
4.013314E+03	1.123324E-02	5.926063E-05
4.014755E+03	1.135325E-02	5.989371E-05
4.016196E+03	1.136889E-02	5.997623E-05
4.017637E+03	1.134034E-02	5.982561E-05
4.019078E+03	1.143509E-02	6.032548E-05
4.020520E+03	1.152996E-02	6.082593E-05
4.021961E+03	1.165814E-02	6.150214E-05
4.023402E+03	1.176175E-02	6.204877E-05
4.024843E+03	1.177683E-02	6.212831E-05
4.026284E+03	1.184481E-02	6.248692E-05
4.027725E+03	1.194615E-02	6.302154E-05
4.029167E+03	1.196905E-02	6.314233E-05
4.030608E+03	1.200222E-02	6.331736E-05
4.032049E+03	1.202347E-02	6.342946E-05
4.033490E+03	1.203106E-02	6.346950E-05
4.034931E+03	1.200700E-02	6.334253E-05
4.036373E+03	1.205312E-02	6.358584E-05
4.037814E+03	1.216613E-02	6.418202E-05
4.039255E+03	1.225783E-02	6.466580E-05
4.040696E+03	1.217981E-02	6.425417E-05
4.042137E+03	1.210685E-02	6.386927E-05
4.043578E+03	1.210851E-02	6.387806E-05
4.045020E+03	1.203715E-02	6.350160E-05
4.046461E+03	1.199065E-02	6.325626E-05
4.047902E+03	1.199311E-02	6.326925E-05
4.049343E+03	1.193018E-02	6.293725E-05
4.050784E+03	1.179484E-02	6.222326E-05
4.052225E+03	1.171535E-02	6.180392E-05
4.053667E+03	1.174784E-02	6.197536E-05
4.055108E+03	1.175536E-02	6.201500E-05
4.056549E+03	1.180777E-02	6.229149E-05
4.057990E+03	1.185765E-02	6.255462E-05
4.059431E+03	1.183241E-02	6.242149E-05
4.060873E+03	1.178121E-02	6.215138E-05
4.062314E+03	1.173947E-02	6.193117E-05
4.063755E+03	1.167950E-02	6.161481E-05
4.065196E+03	1.148697E-02	6.059912E-05
4.066637E+03	1.135487E-02	5.990223E-05
4.068078E+03	1.120095E-02	5.909021E-05
4.069520E+03	1.113881E-02	5.876240E-05
4.070961E+03	1.100629E-02	5.806329E-05
4.072402E+03	1.076071E-02	5.676775E-05
4.073843E+03	1.062609E-02	5.605756E-05
4.075284E+03	1.052174E-02	5.550708E-05
4.076725E+03	1.038683E-02	5.479536E-05
4.078167E+03	1.028658E-02	5.426647E-05
4.079608E+03	1.022367E-02	5.393458E-05
4.081049E+03	1.016330E-02	5.361613E-05
4.082490E+03	1.006624E-02	5.310409E-05
4.083931E+03	9.896652E-03	5.220943E-05
4.085373E+03	9.828133E-03	5.184796E-05
4.086814E+03	9.632012E-03	5.081333E-05
4.088255E+03	9.415557E-03	4.967142E-05
4.089696E+03	9.257450E-03	4.883734E-05
4.091137E+03	9.236535E-03	4.872700E-05
4.092578E+03	9.093021E-03	4.796990E-05
4.094020E+03	8.937958E-03	4.715187E-05
4.095461E+03	8.860721E-03	4.674440E-05
4.096902E+03	8.719811E-03	4.600104E-05
4.098343E+03	8.562775E-03	4.517260E-05
4.099784E+03	8.393782E-03	4.428108E-05
4.101225E+03	8.221260E-03	4.337095E-05
4.102667E+03	8.092229E-03	4.269025E-05
4.104108E+03	7.880892E-03	4.157535E-05
4.105549E+03	7.603924E-03	4.011421E-05
4.106990E+03	7.393560E-03	3.900444E-05
4.108431E+03	7.276963E-03	3.838934E-05
4.109873E+03	7.130694E-03	3.761770E-05
4.111314E+03	6.947739E-03	3.665253E-05
4.112755E+03	6.737826E-03	3.554514E-05
4.114196E+03	6.567850E-03	3.464844E-05
4.115637E+03	6.475438E-03	3.416092E-05
4.117078E+03	6.484423E-03	3.420832E-05
4.118520E+03	6.429897E-03	3.392067E-05
4.119961E+03	6.326361E-03	3.337447E-05
4.121402E+03	6.231466E-03	3.287385E-05
4.122843E+03	6.148250E-03	3.243485E-05
4.124284E+03	6.034784E-03	3.183626E-05
4.125725E+03	5.953397E-03	3.140691E-05
4.127167E+03	6.012714E-03	3.171983E-05
4.128608E+03	6.127706E-03	3.232646E-05
4.130049E+03	6.162041E-03	3.250760E-05
4.131490E+03	6.103299E-03	3.219771E-05
4.132931E+03	6.116392E-03	3.226678E-05
4.134373E+03	6.117390E-03	3.227204E-05
4.135814E+03	6.064134E-03	3.199109E-05
4.137255E+03	6.050212E-03	3.191764E-05
4.138696E+03	6.058578E-03	3.196178E-05
4.140137E+03	6.078548E-03	3.206713E-05
4.141578E+03	6.111402E-03	3.224045E-05
4.143020E+03	6.139207E-03	3.238713E-05
4.144461E+03	6.162747E-03	3.251131E-05
4.145902E+03	6.177281E-03	3.258799E-05
4.147343E+03	6.189590E-03	3.265293E-05
4.148784E+03	6.217413E-03	3.279970E-05
4.150225E+03	6.256731E-03	3.300712E-05
4.151667E+03	6.235485E-03	3.289504E-05
4.153108E+03	6.188192E-03	3.264554E-05
4.154549E+03	6.119390E-03	3.228258E-05
4.155990E+03	6.092541E-03	3.214094E-05
4.157431E+03	6.084805E-03	3.210013E-05
4.158873E+03	6.101071E-03	3.218594E-05
4.160314E+03	6.126262E-03	3.231883E-05
4.161755E+03	6.144191E-03	3.241342E-05
4.163196E+03	6.194394E-03	3.267826E-05
4.164637E+03	6.212836E-03	3.277555E-05
4.166078E+03	6.237968E-03	3.290813E-05
4.167520E+03	6.230640E-03	3.286947E-05
4.168961E+03	6.224933E-03	3.283936E-05
4.170402E+03	6.259241E-03	3.302035E-05
4.171843E+03	6.324965E-03	3.336707E-05
4.173284E+03	6.397097E-03	3.374760E-05
4.174725E+03	6.418617E-03	3.386113E-05
4.176167E+03	6.406298E-03	3.379614E-05
4.177608E+03	6.470442E-03	3.413453E-05
4.179049E+03	6.462214E-03	3.409112E-05
4.180490E+03	6.371953E-03	3.361495E-05
4.181931E+03	6.308271E-03	3.327900E-05
4.183373E+03	6.230889E-03	3.287078E-05
4.184814E+03	6.155505E-03	3.247309E-05
4.186255E+03	6.095581E-03	3.215696E-05
4.187696E+03	6.059156E-03	3.196480E-05
4.189137E+03	6.048731E-03	3.190981E-05
4.190578E+03	5.969318E-03	3.149086E-05
4.192020E+03	6.029931E-03	3.181062E-05
4.193461E+03	6.099915E-03	3.217982E-05
4.194902E+03	6.084735E-03	3.209974E-05
4.196343E+03	6.014466E-03	3.172904E-05
4.197784E+03	6.010272E-03	3.170691E-05
4.199225E+03	6.041367E-03	3.187095E-05
4.200667E+03	5.898573E-03	3.111765E-05
4.202108E+03	5.830493E-03	3.075849E-05
4.203549E+03	5.822418E-03	3.071590E-05
4.204990E+03	5.844578E-03	3.083280E-05
4.206431E+03	5.824028E-03	3.072438E-05
4.207873E+03	5.838412E-03	3.080027E-05
4.209314E+03	5.844916E-03	3.083458E-05
4.210755E+03	5.835258E-03	3.078363E-05
4.212196E+03	5.865757E-03	3.094452E-05
4.213637E+03	5.833838E-03	3.077613E-05
4.215078E+03	5.797552E-03	3.058471E-05
4.216520E+03	5.882873E-03	3.103482E-05
4.217961E+03	5.936780E-03	3.131920E-05
4.219402E+03	5.829771E-03	3.075468E-05
4.220843E+03	5.800033E-03	3.059779E-05
4.222284E+03	5.800258E-03	3.059898E-05
4.223725E+03	5.895064E-03	3.109912E-05
4.225167E+03	5.983511E-03	3.156572E-05
4.226608E+03	6.062446E-03	3.198214E-05
4.228049E+03	6.206337E-03	3.274123E-05
4.229490E+03	6.219015E-03	3.280811E-05
4.230931E+03	6.134253E-03	3.236095E-05
4.232373E+03	6.121596E-03	3.229418E-05
4.233814E+03	6.137679E-03	3.237903E-05
4.235255E+03	6.081388E-03	3.208206E-05
4.236696E+03	6.026421E-03	3.179209E-05
4.238137E+03	6.001863E-03	3.166253E-05
4.239578E+03	6.000982E-03	3.165788E-05
4.241020E+03	5.922141E-03	3.124196E-05
4.242461E+03	5.846182E-03	3.084124E-05
4.243902E+03	5.807013E-03	3.063461E-05
4.245343E+03	5.802838E-03	3.061258E-05
4.246784E+03	5.753522E-03	3.035241E-05
4.248225E+03	5.774964E-03	3.046553E-05
4.249667E+03	5.822851E-03	3.071815E-05
4.251108E+03	5.826888E-03	3.073945E-05
4.252549E+03	5.803726E-03	3.061726E-05
4.253990E+03	5.729656E-03	3.022651E-05
4.255431E+03	5.660829E-03	2.986341E-05
4.256873E+03	5.706066E-03	3.010206E-05
4.258314E+03	5.731959E-03	3.023866E-05
4.259755E+03	5.701537E-03	3.007816E-05
4.261196E+03	5.714414E-03	3.014610E-05
4.262637E+03	5.692670E-03	3.003139E-05
4.264078E+03	5.630418E-03	2.970298E-05
4.265520E+03	5.620810E-03	2.965229E-05
4.266961E+03	5.653973E-03	2.982724E-05
4.268402E+03	5.609081E-03	2.959041E-05
4.269843E+03	5.562626E-03	2.934534E-05
4.271284E+03	5.527324E-03	2.915911E-05
4.272725E+03	5.527040E-03	2.915761E-05
4.274167E+03	5.524208E-03	2.914267E-05
4.275608E+03	5.506648E-03	2.905003E-05
4.277049E+03	5.547326E-03	2.926463E-05
4.278490E+03	5.641149E-03	2.975958E-05
4.279931E+03	5.739147E-03	3.027656E-05
4.281373E+03	5.802638E-03	3.061151E-05
4.282814E+03	5.844338E-03	3.083149E-05
4.284255E+03	5.922357E-03	3.124308E-05
4.285696E+03	6.001605E-03	3.166114E-05
4.287137E+03	6.092892E-03	3.214272E-05
4.288578E+03	6.151742E-03	3.245318E-05
4.290020E+03	6.089239E-03	3.212345E-05
4.291461E+03	6.013741E-03	3.172516E-05
4.292902E+03	6.007629E-03	3.169292E-05
4.294343E+03	6.054860E-03	3.194208E-05
4.295784E+03	6.027824E-03	3.179946E-05
4.297225E+03	6.015131E-03	3.173250E-05
4.298667E+03	6.029859E-03	3.181019E-05
4.300108E+03	6.138788E-03	3.238484E-05
4.301549E+03	6.220656E-03	3.281673E-05
4.302990E+03	6.196204E-03	3.268773E-05
4.304431E+03	6.211443E-03	3.276812E-05
4.305873E+03	6.205775E-03	3.273822E-05
4.307314E+03	6.195217E-03	3.268253E-05
4.308755E+03	6.277732E-03	3.311783E-05
4.310196E+03	6.338324E-03	3.343748E-05
4.311637E+03	6.376576E-03	3.363927E-05
4.313078E+03	6.404319E-03	3.378563E-05
4.314520E+03	6.426342E-03	3.390181E-05
4.315961E+03	6.387171E-03	3.369516E-05
4.317402E+03	6.349963E-03	3.349887E-05
4.318843E+03	6.460177E-03	3.408030E-05
4.320284E+03	6.549655E-03	3.455234E-05
4.321725E+03	6.517852E-03	3.438456E-05
4.323167E+03	6.436351E-03	3.395460E-05
4.324608E+03	6.453453E-03	3.404482E-05
4.326049E+03	6.452265E-03	3.403856E-05
4.327490E+03	6.405178E-03	3.379015E-05
4.328931E+03	6.367296E-03	3.359031E-05
4.330373E+03	6.299926E-03	3.323490E-05
4.331814E+03	6.268977E-03	3.307163E-05
4.333255E+03	6.233448E-03	3.288420E-05
4.334696E+03	6.163062E-03	3.251288E-05
4.336137E+03	6.209274E-03	3.275667E-05
4.337578E+03	6.303456E-03	3.325352E-05
4.339020E+03	6.391647E-03	3.371876E-05
4.340461E+03	6.468600E-03	3.412472E-05
4.341902E+03	6.537486E-03	3.448813E-05
4.343343E+03	6.633627E-03	3.499531E-05
4.344784E+03	6.698511E-03	3.533760E-05
4.346225E+03	6.724019E-03	3.547217E-05
4.347667E+03	6.742953E-03	3.557205E-05
4.349108E+03	6.706844E-03	3.538156E-05
4.350549E+03	6.667864E-03	3.517593E-05
4.351990E+03	6.678013E-03	3.522946E-05
4.353431E+03	6.681549E-03	3.524812E-05
4.354873E+03	6.648815E-03	3.507543E-05
4.356314E+03	6.652032E-03	3.509240E-05
4.357755E+03	6.699468E-03	3.534265E-05
4.359196E+03	6.679661E-03	3.523816E-05
4.360637E+03	6.683480E-03	3.525830E-05
4.362078E+03	6.755356E-03	3.563748E-05
4.363520E+03	6.757058E-03	3.564646E-05
4.364961E+03	6.717157E-03	3.543596E-05
4.366402E+03	6.725887E-03	3.548201E-05
4.367843E+03	6.774712E-03	3.573958E-05
4.369284E+03	6.830748E-03	3.603520E-05
4.370725E+03	6.862906E-03	3.620485E-05
4.372167E+03	6.871334E-03	3.624931E-05
4.373608E+03	6.873776E-03	3.626219E-05
4.375049E+03	6.869238E-03	3.623825E-05
4.376490E+03	6.823090E-03	3.599480E-05
4.377931E+03	6.794101E-03	3.584187E-05
4.379373E+03	6.830170E-03	3.603214E-05
4.380814E+03	6.851992E-03	3.614726E-05
4.382255E+03	6.782147E-03	3.577880E-05
4.383696E+03	6.748026E-03	3.559880E-05
4.385137E+03	6.781275E-03	3.577420E-05
4.386578E+03	6.868282E-03	3.623320E-05
4.388020E+03	6.896597E-03	3.638257E-05
4.389461E+03	6.890725E-03	3.635160E-05
4.390902E+03	6.915318E-03	3.648133E-05
4.392343E+03	6.863419E-03	3.620754E-05
4.393784E+03	6.838991E-03	3.607867E-05
4.395225E+03	6.834153E-03	3.605315E-05
4.396667E+03	6.816419E-03	3.595960E-05
4.399549E+03	6.820982E-03	3.598367E-05
4.400990E+03	6.803498E-03	3.589143E-05
4.402431E+03	6.772477E-03	3.572778E-05
4.403873E+03	6.743895E-03	3.557700E-05
4.405314E+03	6.662841E-03	3.514940E-05
4.406755E+03	6.587965E-03	3.475439E-05
4.408196E+03	6.518177E-03	3.438623E-05
4.409637E+03	6.488771E-03	3.423110E-05
4.411078E+03	6.465323E-03	3.410740E-05
4.412520E+03	6.429959E-03	3.392084E-05
4.413961E+03	6.396950E-03	3.374670E-05
4.415402E+03	6.350917E-03	3.350386E-05
4.416843E+03	6.320119E-03	3.334139E-05
4.418284E+03	6.366009E-03	3.358347E-05
4.419725E+03	6.394233E-03	3.373237E-05
4.422608E+03	6.310678E-03	3.329158E-05
4.424049E+03	6.264413E-03	3.304751E-05
4.425490E+03	6.291928E-03	3.319266E-05
4.426931E+03	6.256033E-03	3.300330E-05
4.428373E+03	6.244098E-03	3.294033E-05
4.429814E+03	6.305408E-03	3.326377E-05
4.431255E+03	6.331793E-03	3.340296E-05
4.432696E+03	6.300755E-03	3.323922E-05
4.434137E+03	6.228301E-03	3.285700E-05
4.435578E+03	6.156768E-03	3.247963E-05
4.437020E+03	6.132722E-03	3.235277E-05
4.438461E+03	6.148479E-03	3.243590E-05
4.439902E+03	6.203503E-03	3.272618E-05
4.441343E+03	6.258690E-03	3.301731E-05
4.442784E+03	6.247060E-03	3.295595E-05
4.444225E+03	6.264827E-03	3.304969E-05
4.445667E+03	6.331665E-03	3.340228E-05
4.447108E+03	6.350609E-03	3.350222E-05
4.448549E+03	6.376153E-03	3.363697E-05
4.449990E+03	6.493112E-03	3.425398E-05
4.451431E+03	6.587591E-03	3.475240E-05
4.454314E+03	6.692228E-03	3.530441E-05
4.455755E+03	6.826580E-03	3.601317E-05
4.457196E+03	6.976735E-03	3.680530E-05
4.458637E+03	7.117195E-03	3.754629E-05
4.460078E+03	7.185082E-03	3.790442E-05
4.461520E+03	7.248356E-03	3.823822E-05
4.462961E+03	7.351930E-03	3.878462E-05
4.464402E+03	7.399167E-03	3.903381E-05
4.465843E+03	7.418818E-03	3.913747E-05
4.467284E+03	7.484911E-03	3.948614E-05
