#wls	flux	fluxerr
1.568627E+03	3.224590E-04	5.831428E-06
1.607843E+03	3.225370E-04	5.810719E-06
1.647059E+03	3.222606E-04	5.783108E-06
1.686275E+03	3.216854E-04	5.749654E-06
1.725490E+03	3.207870E-04	5.709981E-06
1.764706E+03	3.194749E-04	5.662553E-06
1.803922E+03	3.176301E-04	5.605357E-06
1.843137E+03	3.151728E-04	5.537119E-06
1.882353E+03	3.119592E-04	5.455470E-06
1.921569E+03	3.078389E-04	5.357985E-06
1.960784E+03	3.030026E-04	5.248205E-06
2.000000E+03	2.977894E-04	5.132176E-06
2.039216E+03	2.931132E-04	5.025683E-06
2.078431E+03	2.901293E-04	4.948312E-06
2.117647E+03	2.899844E-04	4.919061E-06
2.156863E+03	2.931237E-04	4.944649E-06
2.196078E+03	2.990273E-04	5.015396E-06
2.235294E+03	3.068057E-04	5.115627E-06
2.274510E+03	3.154810E-04	5.228525E-06
2.313725E+03	3.245928E-04	5.346170E-06
2.352941E+03	3.336450E-04	5.460244E-06
2.392157E+03	3.427070E-04	5.571827E-06
2.431373E+03	3.517385E-04	5.680193E-06
2.470588E+03	3.608759E-04	5.787477E-06
2.509804E+03	3.702177E-04	5.895138E-06
2.549020E+03	3.799279E-04	6.005631E-06
2.588235E+03	3.901692E-04	6.121305E-06
2.627451E+03	4.009737E-04	6.242392E-06
2.666667E+03	4.125591E-04	6.371972E-06
2.705882E+03	4.251449E-04	6.513030E-06
2.745098E+03	4.387582E-04	6.665510E-06
2.784314E+03	4.536237E-04	6.832299E-06
2.823529E+03	4.699758E-04	7.016302E-06
2.862745E+03	4.879949E-04	7.219474E-06
2.901961E+03	5.078759E-04	7.443872E-06
2.941176E+03	5.300417E-04	7.694724E-06
2.950980E+03	5.359753E-04	7.761950E-06
2.960784E+03	5.421147E-04	7.831649E-06
2.970588E+03	5.483925E-04	7.902827E-06
2.980392E+03	5.548157E-04	7.975565E-06
2.990196E+03	5.614695E-04	8.051070E-06
3.000000E+03	5.683000E-04	8.128539E-06
3.009804E+03	5.754496E-04	8.209984E-06
3.019608E+03	5.827782E-04	8.293373E-06
3.029412E+03	5.902880E-04	8.378715E-06
3.039216E+03	5.981229E-04	8.468025E-06
3.049020E+03	6.061445E-04	8.559306E-06
3.058824E+03	6.144998E-04	8.654610E-06
3.068627E+03	6.230485E-04	8.751920E-06
3.078431E+03	6.318684E-04	8.852305E-06
3.088235E+03	6.410371E-04	8.956814E-06
3.098039E+03	6.504155E-04	9.063467E-06
3.107843E+03	6.601570E-04	9.174365E-06
3.117647E+03	6.701951E-04	9.288545E-06
3.127451E+03	6.805392E-04	9.406096E-06
3.137255E+03	6.912721E-04	9.528123E-06
3.147059E+03	7.024055E-04	9.654738E-06
3.156863E+03	7.137993E-04	9.783967E-06
3.166667E+03	7.256922E-04	9.919042E-06
3.176471E+03	7.379467E-04	1.005802E-05
3.186275E+03	7.506526E-04	1.020209E-05
3.196078E+03	7.638259E-04	1.035139E-05
3.205882E+03	7.774844E-04	1.050612E-05
3.215686E+03	7.916460E-04	1.066645E-05
3.225490E+03	8.063309E-04	1.083258E-05
3.235294E+03	8.215604E-04	1.100474E-05
3.245098E+03	8.373570E-04	1.118315E-05
3.254902E+03	8.538252E-04	1.136914E-05
3.264706E+03	8.709929E-04	1.156298E-05
3.274510E+03	8.888073E-04	1.176390E-05
3.284314E+03	9.072974E-04	1.197218E-05
3.294118E+03	9.266604E-04	1.219033E-05
3.303922E+03	9.467638E-04	1.241651E-05
3.313725E+03	9.677259E-04	1.265215E-05
3.323529E+03	9.896688E-04	1.289875E-05
3.333333E+03	1.012460E-03	1.315445E-05
3.343137E+03	1.036310E-03	1.342187E-05
3.352941E+03	1.061260E-03	1.370140E-05
3.362745E+03	1.087264E-03	1.399228E-05
3.372549E+03	1.114357E-03	1.429487E-05
3.382353E+03	1.142760E-03	1.461181E-05
3.392157E+03	1.172327E-03	1.494109E-05
3.401961E+03	1.203276E-03	1.528531E-05
3.411765E+03	1.235451E-03	1.564231E-05
3.421569E+03	1.269060E-03	1.601457E-05
3.431373E+03	1.304123E-03	1.640213E-05
3.441176E+03	1.340554E-03	1.680371E-05
3.450980E+03	1.378446E-03	1.722032E-05
3.460784E+03	1.417787E-03	1.765158E-05
3.470588E+03	1.458553E-03	1.809702E-05
3.480392E+03	1.500707E-03	1.855597E-05
3.490196E+03	1.544202E-03	1.902766E-05
3.500000E+03	1.589088E-03	1.951253E-05
3.509804E+03	1.635208E-03	2.000847E-05
3.519608E+03	1.682734E-03	2.051740E-05
3.529412E+03	1.731444E-03	2.103641E-05
3.539216E+03	1.781460E-03	2.156683E-05
3.549020E+03	1.832941E-03	2.211041E-05
3.558824E+03	1.885851E-03	2.266647E-05
3.568627E+03	1.940384E-03	2.323716E-05
3.578431E+03	1.996518E-03	2.382199E-05
3.588235E+03	2.054573E-03	2.442454E-05
3.598039E+03	2.114409E-03	2.504288E-05
3.607843E+03	2.176342E-03	2.568050E-05
3.617647E+03	2.240452E-03	2.633802E-05
3.627451E+03	2.306568E-03	2.701317E-05
3.637255E+03	2.375105E-03	2.771049E-05
3.647059E+03	2.445990E-03	2.842880E-05
3.656863E+03	2.519255E-03	2.916815E-05
3.666667E+03	2.594921E-03	2.992842E-05
3.676471E+03	2.672989E-03	3.070931E-05
3.686275E+03	2.753701E-03	3.151325E-05
3.696078E+03	2.836777E-03	3.233667E-05
3.705882E+03	2.922299E-03	3.318016E-05
3.715686E+03	3.010204E-03	3.404267E-05
3.725490E+03	3.100408E-03	3.492291E-05
3.735294E+03	3.192941E-03	3.582090E-05
3.745098E+03	3.287545E-03	3.673342E-05
3.754902E+03	3.384347E-03	3.766158E-05
3.764706E+03	3.482904E-03	3.860018E-05
3.774510E+03	3.583161E-03	3.954833E-05
3.784314E+03	3.684902E-03	4.050341E-05
3.794118E+03	3.787883E-03	4.146256E-05
3.803922E+03	3.891981E-03	4.242425E-05
3.813725E+03	3.996764E-03	4.338362E-05
3.823529E+03	4.102062E-03	4.433873E-05
3.833333E+03	4.207541E-03	4.528589E-05
3.843137E+03	4.312696E-03	4.621969E-05
3.852941E+03	4.417301E-03	4.713772E-05
3.862745E+03	4.521111E-03	4.803747E-05
3.872549E+03	4.623432E-03	4.891170E-05
3.882353E+03	4.724001E-03	4.975784E-05
3.892157E+03	4.822409E-03	5.057185E-05
3.901961E+03	4.918250E-03	5.134979E-05
3.911765E+03	5.011277E-03	5.208944E-05
3.921569E+03	5.100818E-03	5.278425E-05
3.931373E+03	5.186816E-03	5.343412E-05
3.941176E+03	5.268657E-03	5.403325E-05
3.950980E+03	5.346211E-03	5.458091E-05
3.960784E+03	5.419393E-03	5.507684E-05
3.970588E+03	5.487734E-03	5.551692E-05
3.980392E+03	5.551121E-03	5.590069E-05
3.990196E+03	5.609646E-03	5.622979E-05
4.000000E+03	5.663324E-03	5.650505E-05
4.009804E+03	5.711958E-03	5.672522E-05
4.019608E+03	5.755986E-03	5.689534E-05
4.029412E+03	5.795346E-03	5.701549E-05
4.039216E+03	5.830472E-03	5.709056E-05
4.049020E+03	5.861571E-03	5.712318E-05
4.058824E+03	5.888896E-03	5.711642E-05
4.068627E+03	5.913160E-03	5.707769E-05
4.078431E+03	5.934437E-03	5.700816E-05
4.088235E+03	5.953341E-03	5.691413E-05
4.098039E+03	5.970377E-03	5.680078E-05
4.107843E+03	5.985916E-03	5.667189E-05
4.117647E+03	6.000318E-03	5.653110E-05
4.127451E+03	6.014043E-03	5.638292E-05
4.137255E+03	6.027405E-03	5.623037E-05
4.147059E+03	6.040787E-03	5.607712E-05
4.156863E+03	6.054405E-03	5.592518E-05
4.166667E+03	6.068542E-03	5.577716E-05
4.176471E+03	6.083187E-03	5.563291E-05
4.186275E+03	6.098508E-03	5.549392E-05
4.196078E+03	6.114511E-03	5.536020E-05
4.205882E+03	6.131242E-03	5.523209E-05
4.215686E+03	6.148506E-03	5.510781E-05
4.225490E+03	6.166182E-03	5.498622E-05
4.235294E+03	6.184145E-03	5.486621E-05
4.245098E+03	6.202254E-03	5.474652E-05
4.254902E+03	6.220323E-03	5.462556E-05
4.264706E+03	6.238310E-03	5.450299E-05
4.274510E+03	6.256172E-03	5.437852E-05
4.284314E+03	6.273950E-03	5.425253E-05
4.294118E+03	6.291893E-03	5.412725E-05
4.303922E+03	6.309913E-03	5.400194E-05
4.313725E+03	6.328345E-03	5.387948E-05
4.323529E+03	6.347112E-03	5.375923E-05
4.333333E+03	6.366179E-03	5.364089E-05
4.343137E+03	6.385788E-03	5.352651E-05
4.352941E+03	6.406165E-03	5.341794E-05
4.362745E+03	6.427523E-03	5.331689E-05
4.372549E+03	6.450552E-03	5.322891E-05
4.382353E+03	6.475743E-03	5.315784E-05
4.392157E+03	6.503928E-03	5.311017E-05
4.401961E+03	6.535602E-03	5.308954E-05
4.411765E+03	6.571444E-03	5.310102E-05
4.421569E+03	6.611872E-03	5.314742E-05
4.431373E+03	6.657273E-03	5.323127E-05
4.441176E+03	6.707755E-03	5.335282E-05
4.450980E+03	6.763625E-03	5.351387E-05
4.460784E+03	6.824653E-03	5.371196E-05
4.470588E+03	6.890634E-03	5.394485E-05
4.480392E+03	6.961406E-03	5.421070E-05
4.490196E+03	7.036426E-03	5.450474E-05
4.500000E+03	7.115110E-03	5.482198E-05
4.509804E+03	7.196755E-03	5.515660E-05
4.519608E+03	7.280551E-03	5.550213E-05
4.529412E+03	7.365516E-03	5.585088E-05
4.539216E+03	7.450754E-03	5.619600E-05
4.549020E+03	7.535238E-03	5.652982E-05
4.558824E+03	7.617881E-03	5.684433E-05
4.568627E+03	7.697484E-03	5.713094E-05
4.578431E+03	7.772945E-03	5.738190E-05
4.588235E+03	7.843290E-03	5.759061E-05
4.598039E+03	7.907326E-03	5.774903E-05
4.607843E+03	7.964371E-03	5.785299E-05
4.617647E+03	8.013617E-03	5.789752E-05
4.627451E+03	8.054588E-03	5.788016E-05
4.637255E+03	8.087088E-03	5.780053E-05
4.647059E+03	8.111133E-03	5.765977E-05
4.656863E+03	8.127086E-03	5.746146E-05
4.666667E+03	8.135463E-03	5.721021E-05
4.676471E+03	8.137130E-03	5.691297E-05
4.686275E+03	8.132803E-03	5.657554E-05
4.696078E+03	8.123547E-03	5.620597E-05
4.705882E+03	8.110220E-03	5.581080E-05
4.715686E+03	8.093793E-03	5.539714E-05
4.725490E+03	8.075432E-03	5.497332E-05
4.735294E+03	8.056029E-03	5.454563E-05
4.745098E+03	8.036631E-03	5.412127E-05
4.754902E+03	8.017953E-03	5.370507E-05
4.764706E+03	8.000949E-03	5.330336E-05
4.774510E+03	7.986410E-03	5.292125E-05
4.784314E+03	7.974943E-03	5.256253E-05
4.794118E+03	7.967258E-03	5.223158E-05
4.803922E+03	7.963669E-03	5.193013E-05
4.813725E+03	7.964671E-03	5.166101E-05
4.823529E+03	7.970432E-03	5.142492E-05
4.833333E+03	7.981195E-03	5.122302E-05
4.843137E+03	7.996784E-03	5.105377E-05
4.852941E+03	8.017194E-03	5.091674E-05
4.862745E+03	8.042187E-03	5.081008E-05
4.872549E+03	8.071321E-03	5.073066E-05
4.882353E+03	8.104237E-03	5.067598E-05
4.892157E+03	8.140203E-03	5.064126E-05
4.901961E+03	8.178788E-03	5.062368E-05
4.911765E+03	8.219128E-03	5.061783E-05
4.921569E+03	8.260611E-03	5.061998E-05
4.931373E+03	8.302531E-03	5.062588E-05
4.941176E+03	8.344188E-03	5.063144E-05
4.950980E+03	8.384941E-03	5.063298E-05
4.960784E+03	8.424110E-03	5.062670E-05
4.970588E+03	8.461314E-03	5.061065E-05
4.980392E+03	8.496080E-03	5.058239E-05
4.990196E+03	8.528330E-03	5.054186E-05
5.000000E+03	8.557769E-03	5.048772E-05
5.009804E+03	8.584413E-03	5.042050E-05
5.019608E+03	8.608582E-03	5.034250E-05
5.029412E+03	8.630373E-03	5.025469E-05
5.039216E+03	8.650152E-03	5.015955E-05
5.049020E+03	8.668576E-03	5.006126E-05
5.058824E+03	8.686098E-03	4.996271E-05
5.068627E+03	8.703212E-03	4.986702E-05
5.078431E+03	8.720626E-03	4.977846E-05
5.088235E+03	8.739051E-03	4.970128E-05
5.098039E+03	8.758915E-03	4.963806E-05
5.107843E+03	8.780868E-03	4.959263E-05
5.117647E+03	8.805527E-03	4.956857E-05
5.127451E+03	8.833158E-03	4.956748E-05
5.137255E+03	8.864343E-03	4.959270E-05
5.147059E+03	8.899281E-03	4.964545E-05
5.156863E+03	8.938197E-03	4.972707E-05
5.166667E+03	8.981223E-03	4.983843E-05
5.176471E+03	9.028433E-03	4.998005E-05
5.186275E+03	9.079892E-03	5.015245E-05
5.196078E+03	9.135432E-03	5.035491E-05
5.205882E+03	9.194919E-03	5.058688E-05
5.215686E+03	9.258170E-03	5.084761E-05
5.225490E+03	9.325082E-03	5.113682E-05
5.235294E+03	9.395339E-03	5.145307E-05
5.245098E+03	9.468733E-03	5.179556E-05
5.254902E+03	9.545068E-03	5.216358E-05
5.264706E+03	9.624281E-03	5.255716E-05
5.274510E+03	9.706063E-03	5.297503E-05
5.284314E+03	9.790534E-03	5.341826E-05
5.294118E+03	9.877579E-03	5.388666E-05
5.303922E+03	9.967214E-03	5.438079E-05
5.313725E+03	1.005952E-02	5.490153E-05
5.323529E+03	1.015454E-02	5.544968E-05
5.333333E+03	1.025226E-02	5.602533E-05
5.343137E+03	1.035289E-02	5.662991E-05
5.352941E+03	1.045617E-02	5.726204E-05
5.362745E+03	1.056189E-02	5.792077E-05
5.372549E+03	1.066990E-02	5.860544E-05
5.382353E+03	1.077937E-02	5.931159E-05
5.392157E+03	1.088991E-02	6.003716E-05
5.401961E+03	1.100083E-02	6.077855E-05
5.411765E+03	1.111124E-02	6.153075E-05
5.421569E+03	1.122017E-02	6.228842E-05
5.431373E+03	1.132655E-02	6.304562E-05
5.441176E+03	1.142895E-02	6.379418E-05
5.450980E+03	1.152619E-02	6.452724E-05
5.460784E+03	1.161657E-02	6.523494E-05
5.470588E+03	1.169876E-02	6.590941E-05
5.480392E+03	1.177143E-02	6.654254E-05
5.490196E+03	1.183340E-02	6.712684E-05
5.500000E+03	1.188370E-02	6.765608E-05
5.509804E+03	1.192163E-02	6.812524E-05
5.519608E+03	1.194690E-02	6.853169E-05
5.529412E+03	1.195935E-02	6.887336E-05
5.539216E+03	1.195936E-02	6.915127E-05
5.549020E+03	1.194742E-02	6.936715E-05
5.558824E+03	1.192447E-02	6.952519E-05
5.568627E+03	1.189185E-02	6.963209E-05
5.578431E+03	1.185088E-02	6.969464E-05
5.588235E+03	1.180324E-02	6.972161E-05
5.598039E+03	1.175082E-02	6.972346E-05
5.607843E+03	1.169540E-02	6.970998E-05
5.617647E+03	1.163890E-02	6.969200E-05
5.627451E+03	1.158319E-02	6.968049E-05
5.637255E+03	1.153022E-02	6.968684E-05
5.647059E+03	1.148157E-02	6.972067E-05
5.656863E+03	1.143873E-02	6.979096E-05
5.666667E+03	1.140330E-02	6.990786E-05
5.676471E+03	1.137636E-02	7.007839E-05
5.686275E+03	1.135882E-02	7.030857E-05
5.696078E+03	1.135153E-02	7.060445E-05
5.705882E+03	1.135506E-02	7.097009E-05
5.715686E+03	1.136968E-02	7.140809E-05
5.725490E+03	1.139539E-02	7.191917E-05
5.735294E+03	1.143201E-02	7.250306E-05
5.745098E+03	1.147926E-02	7.315884E-05
5.754902E+03	1.153645E-02	7.388278E-05
5.764706E+03	1.160276E-02	7.467046E-05
5.774510E+03	1.167729E-02	7.551671E-05
5.784314E+03	1.175866E-02	7.641314E-05
5.794118E+03	1.184562E-02	7.735215E-05
5.803922E+03	1.193662E-02	7.832383E-05
5.813725E+03	1.203031E-02	7.931958E-05
5.823529E+03	1.212470E-02	8.032630E-05
5.833333E+03	1.221839E-02	8.133451E-05
5.843137E+03	1.230958E-02	8.233201E-05
5.852941E+03	1.239667E-02	8.330765E-05
5.862745E+03	1.247816E-02	8.425071E-05
5.872549E+03	1.255267E-02	8.515118E-05
5.882353E+03	1.261888E-02	8.599912E-05
5.892157E+03	1.267578E-02	8.678689E-05
5.901961E+03	1.272275E-02	8.750898E-05
5.911765E+03	1.275904E-02	8.815924E-05
5.921569E+03	1.278456E-02	8.873585E-05
5.931373E+03	1.279936E-02	8.923801E-05
5.941176E+03	1.280353E-02	8.966521E-05
5.950980E+03	1.279791E-02	9.002235E-05
5.960784E+03	1.278312E-02	9.031265E-05
5.970588E+03	1.276021E-02	9.054260E-05
5.980392E+03	1.273029E-02	9.071942E-05
5.990196E+03	1.269490E-02	9.085320E-05
6.000000E+03	1.265527E-02	9.095238E-05
6.009804E+03	1.261299E-02	9.102779E-05
6.019608E+03	1.256949E-02	9.108965E-05
6.029412E+03	1.252609E-02	9.114734E-05
6.039216E+03	1.248426E-02	9.121148E-05
6.049020E+03	1.244497E-02	9.128928E-05
6.058824E+03	1.240918E-02	9.138811E-05
6.068627E+03	1.237787E-02	9.151533E-05
6.078431E+03	1.235153E-02	9.167496E-05
6.088235E+03	1.233082E-02	9.187227E-05
6.098039E+03	1.231560E-02	9.210670E-05
6.107843E+03	1.230586E-02	9.237856E-05
6.117647E+03	1.230093E-02	9.268320E-05
6.127451E+03	1.230048E-02	9.301848E-05
6.137255E+03	1.230374E-02	9.337885E-05
6.147059E+03	1.230989E-02	9.375837E-05
6.156863E+03	1.231843E-02	9.415340E-05
6.166667E+03	1.232829E-02	9.455582E-05
6.176471E+03	1.233874E-02	9.496011E-05
6.186275E+03	1.234925E-02	9.536210E-05
6.196078E+03	1.235896E-02	9.575520E-05
6.205882E+03	1.236722E-02	9.613417E-05
6.215686E+03	1.237360E-02	9.649550E-05
6.225490E+03	1.237775E-02	9.683638E-05
6.235294E+03	1.237908E-02	9.715187E-05
6.245098E+03	1.237761E-02	9.744193E-05
6.254902E+03	1.237320E-02	9.770519E-05
6.264706E+03	1.236572E-02	9.794047E-05
6.274510E+03	1.235525E-02	9.814811E-05
6.284314E+03	1.234211E-02	9.833043E-05
6.294118E+03	1.232641E-02	9.848821E-05
6.303922E+03	1.230837E-02	9.862292E-05
6.313725E+03	1.228848E-02	9.873839E-05
6.323529E+03	1.226702E-02	9.883682E-05
6.333333E+03	1.224442E-02	9.892150E-05
6.343137E+03	1.222084E-02	9.899373E-05
6.352941E+03	1.219683E-02	9.905783E-05
6.362745E+03	1.217276E-02	9.911697E-05
6.372549E+03	1.214871E-02	9.917165E-05
6.382353E+03	1.212522E-02	9.922642E-05
6.392157E+03	1.210249E-02	9.928294E-05
6.401961E+03	1.208079E-02	9.934359E-05
6.411765E+03	1.206019E-02	9.940887E-05
6.421569E+03	1.204077E-02	9.947960E-05
6.431373E+03	1.202253E-02	9.955600E-05
6.441176E+03	1.200541E-02	9.963744E-05
6.450980E+03	1.198896E-02	9.972045E-05
6.460784E+03	1.197305E-02	9.980390E-05
6.470588E+03	1.195720E-02	9.988396E-05
6.480392E+03	1.194088E-02	9.995618E-05
6.490196E+03	1.192349E-02	1.000154E-04
6.500000E+03	1.190451E-02	1.000574E-04
6.509804E+03	1.188326E-02	1.000764E-04
6.519608E+03	1.185903E-02	1.000663E-04
6.529412E+03	1.183129E-02	1.000225E-04
6.539216E+03	1.179910E-02	9.993689E-05
6.549020E+03	1.176210E-02	9.980636E-05
6.558824E+03	1.171960E-02	9.962482E-05
6.568627E+03	1.167111E-02	9.938791E-05
6.578431E+03	1.161638E-02	9.909327E-05
6.588235E+03	1.155497E-02	9.873705E-05
6.598039E+03	1.148685E-02	9.831866E-05
6.607843E+03	1.141168E-02	9.783511E-05
6.617647E+03	1.132979E-02	9.728894E-05
6.627451E+03	1.124135E-02	9.668137E-05
6.637255E+03	1.114650E-02	9.601364E-05
6.647059E+03	1.104550E-02	9.528773E-05
6.656863E+03	1.093923E-02	9.451110E-05
6.666667E+03	1.082786E-02	9.368519E-05
6.676471E+03	1.071216E-02	9.281658E-05
6.686275E+03	1.059294E-02	9.191223E-05
6.696078E+03	1.047081E-02	9.097749E-05
6.705882E+03	1.034653E-02	9.001895E-05
6.715686E+03	1.022089E-02	8.904352E-05
6.725490E+03	1.009466E-02	8.805804E-05
6.735294E+03	9.968726E-03	8.707042E-05
6.745098E+03	9.843616E-03	8.608530E-05
6.754902E+03	9.720155E-03	8.511010E-05
6.764706E+03	9.599151E-03	8.415207E-05
6.774510E+03	9.481010E-03	8.321495E-05
6.784314E+03	9.366537E-03	8.230605E-05
6.794118E+03	9.256146E-03	8.142922E-05
6.803922E+03	9.150199E-03	8.058787E-05
6.813725E+03	9.049315E-03	7.978771E-05
6.823529E+03	8.953727E-03	7.903103E-05
6.833333E+03	8.863597E-03	7.831952E-05
6.843137E+03	8.779364E-03	7.765731E-05
6.852941E+03	8.701061E-03	7.704495E-05
6.862745E+03	8.628692E-03	7.648273E-05
6.872549E+03	8.562497E-03	7.597300E-05
6.882353E+03	8.502372E-03	7.551511E-05
6.892157E+03	8.448258E-03	7.510876E-05
6.901961E+03	8.399979E-03	7.475264E-05
6.911765E+03	8.357612E-03	7.444763E-05
6.921569E+03	8.320904E-03	7.419171E-05
6.931373E+03	8.289701E-03	7.398375E-05
6.941176E+03	8.263803E-03	7.382213E-05
6.950980E+03	8.243035E-03	7.370551E-05
6.960784E+03	8.227187E-03	7.363221E-05
6.970588E+03	8.216173E-03	7.360163E-05
6.980392E+03	8.209583E-03	7.361031E-05
6.990196E+03	8.207338E-03	7.365769E-05
7.000000E+03	8.209341E-03	7.374310E-05
7.009804E+03	8.215315E-03	7.386419E-05
7.019608E+03	8.225085E-03	7.401959E-05
7.029412E+03	8.238494E-03	7.420803E-05
7.039216E+03	8.255376E-03	7.442818E-05
7.049020E+03	8.275679E-03	7.467973E-05
7.058824E+03	8.299040E-03	7.495956E-05
7.068627E+03	8.325612E-03	7.526923E-05
7.078431E+03	8.354912E-03	7.560449E-05
7.088235E+03	8.386988E-03	7.596596E-05
7.098039E+03	8.421548E-03	7.635113E-05
7.107843E+03	8.458497E-03	7.675930E-05
7.117647E+03	8.497523E-03	7.718778E-05
7.127451E+03	8.538505E-03	7.763563E-05
7.137255E+03	8.581200E-03	7.810078E-05
7.147059E+03	8.625239E-03	7.858001E-05
7.156863E+03	8.670446E-03	7.907186E-05
7.166667E+03	8.716543E-03	7.957392E-05
7.176471E+03	8.763120E-03	8.008259E-05
7.186275E+03	8.810099E-03	8.059727E-05
7.196078E+03	8.857063E-03	8.111427E-05
7.205882E+03	8.903715E-03	8.163098E-05
7.215686E+03	8.949887E-03	8.214597E-05
7.225490E+03	8.995176E-03	8.265563E-05
7.235294E+03	9.039449E-03	8.315885E-05
7.245098E+03	9.082332E-03	8.365228E-05
7.254902E+03	9.123616E-03	8.413404E-05
7.264706E+03	9.163210E-03	8.460339E-05
7.274510E+03	9.200932E-03	8.505870E-05
7.284314E+03	9.236382E-03	8.549634E-05
7.294118E+03	9.269525E-03	8.591603E-05
7.303922E+03	9.300245E-03	8.631673E-05
7.313725E+03	9.328431E-03	8.669744E-05
7.323529E+03	9.354140E-03	8.705873E-05
7.333333E+03	9.377200E-03	8.739901E-05
7.343137E+03	9.397626E-03	8.771845E-05
7.352941E+03	9.415455E-03	8.801740E-05
7.362745E+03	9.430712E-03	8.829609E-05
7.372549E+03	9.443256E-03	8.855323E-05
7.382353E+03	9.453253E-03	8.879035E-05
7.392157E+03	9.460219E-03	8.900289E-05
7.401961E+03	9.464361E-03	8.919277E-05
7.411765E+03	9.465553E-03	8.935877E-05
7.421569E+03	9.463996E-03	8.950275E-05
7.431373E+03	9.459564E-03	8.962347E-05
7.441176E+03	9.452556E-03	8.972370E-05
7.450980E+03	9.443079E-03	8.980442E-05
7.460784E+03	9.431669E-03	8.987068E-05
7.470588E+03	9.418397E-03	8.992314E-05
7.480392E+03	9.403632E-03	8.996527E-05
7.490196E+03	9.387914E-03	9.000223E-05
7.500000E+03	9.371560E-03	9.003697E-05
7.509804E+03	9.355183E-03	9.007524E-05
7.519608E+03	9.339153E-03	9.012055E-05
7.529412E+03	9.324101E-03	9.017894E-05
7.539216E+03	9.310414E-03	9.025413E-05
7.549020E+03	9.298581E-03	9.035089E-05
7.558824E+03	9.289077E-03	9.047390E-05
7.568627E+03	9.282455E-03	9.062863E-05
7.578431E+03	9.278980E-03	9.081781E-05
7.588235E+03	9.279084E-03	9.104583E-05
7.598039E+03	9.282912E-03	9.131433E-05
7.607843E+03	9.290616E-03	9.162501E-05
