#wls	flux	fluxerr
1.568627E+03	2.551383E-04	6.774149E-06
1.607843E+03	2.566253E-04	6.785446E-06
1.647059E+03	2.578436E-04	6.788670E-06
1.686275E+03	2.588743E-04	6.786018E-06
1.725490E+03	2.596459E-04	6.775667E-06
1.764706E+03	2.600783E-04	6.755615E-06
1.803922E+03	2.601122E-04	6.724429E-06
1.843137E+03	2.596211E-04	6.678994E-06
1.882353E+03	2.584744E-04	6.616156E-06
1.921569E+03	2.565820E-04	6.533877E-06
1.960784E+03	2.539890E-04	6.433594E-06
2.000000E+03	2.510606E-04	6.324806E-06
2.039216E+03	2.485558E-04	6.226682E-06
2.078431E+03	2.474267E-04	6.162764E-06
2.117647E+03	2.487130E-04	6.158207E-06
2.156863E+03	2.527879E-04	6.221106E-06
2.196078E+03	2.592880E-04	6.341261E-06
2.235294E+03	2.674212E-04	6.498240E-06
2.274510E+03	2.764829E-04	6.674173E-06
2.313725E+03	2.858779E-04	6.854244E-06
2.352941E+03	2.953569E-04	7.032247E-06
2.392157E+03	3.048599E-04	7.206615E-06
2.431373E+03	3.143423E-04	7.376183E-06
2.470588E+03	3.239968E-04	7.545343E-06
2.509804E+03	3.338025E-04	7.713406E-06
2.549020E+03	3.439787E-04	7.885209E-06
2.588235E+03	3.545520E-04	8.061031E-06
2.627451E+03	3.657387E-04	8.245407E-06
2.666667E+03	3.775567E-04	8.438257E-06
2.705882E+03	3.901693E-04	8.642693E-06
2.745098E+03	4.036909E-04	8.860613E-06
2.784314E+03	4.182383E-04	9.093853E-06
2.823529E+03	4.339327E-04	9.344230E-06
2.862745E+03	4.510060E-04	9.615791E-06
2.901961E+03	4.695460E-04	9.909327E-06
2.941176E+03	4.898098E-04	1.022905E-05
2.950980E+03	4.951534E-04	1.031309E-05
2.960784E+03	5.006439E-04	1.039947E-05
2.970588E+03	5.062301E-04	1.048711E-05
2.980392E+03	5.119708E-04	1.057719E-05
2.990196E+03	5.178781E-04	1.066995E-05
3.000000E+03	5.239137E-04	1.076456E-05
3.009804E+03	5.301293E-04	1.086204E-05
3.019608E+03	5.365257E-04	1.096240E-05
3.029412E+03	5.431023E-04	1.106557E-05
3.039216E+03	5.498064E-04	1.117045E-05
3.049020E+03	5.566917E-04	1.127811E-05
3.058824E+03	5.638152E-04	1.138965E-05
3.068627E+03	5.710682E-04	1.150285E-05
3.078431E+03	5.785079E-04	1.161883E-05
3.088235E+03	5.861353E-04	1.173756E-05
3.098039E+03	5.940093E-04	1.186019E-05
3.107843E+03	6.020208E-04	1.198450E-05
3.117647E+03	6.102845E-04	1.211272E-05
3.127451E+03	6.187485E-04	1.224380E-05
3.137255E+03	6.274155E-04	1.237773E-05
3.147059E+03	6.362894E-04	1.251455E-05
3.156863E+03	6.454314E-04	1.265543E-05
3.166667E+03	6.548466E-04	1.280040E-05
3.176471E+03	6.644263E-04	1.294729E-05
3.186275E+03	6.743466E-04	1.309950E-05
3.196078E+03	6.844421E-04	1.325374E-05
3.205882E+03	6.948911E-04	1.341342E-05
3.215686E+03	7.055859E-04	1.357640E-05
3.225490E+03	7.165909E-04	1.374386E-05
3.235294E+03	7.279144E-04	1.391590E-05
3.245098E+03	7.395067E-04	1.409150E-05
3.254902E+03	7.514937E-04	1.427300E-05
3.264706E+03	7.637679E-04	1.445828E-05
3.274510E+03	7.764576E-04	1.464971E-05
3.284314E+03	7.894557E-04	1.484518E-05
3.294118E+03	8.028936E-04	1.504708E-05
3.303922E+03	8.167245E-04	1.525447E-05
3.313725E+03	8.310236E-04	1.546865E-05
3.323529E+03	8.456844E-04	1.568756E-05
3.333333E+03	8.609068E-04	1.591480E-05
3.343137E+03	8.765249E-04	1.614721E-05
3.352941E+03	8.927430E-04	1.638846E-05
3.362745E+03	9.093963E-04	1.663540E-05
3.372549E+03	9.266939E-04	1.689175E-05
3.382353E+03	9.445985E-04	1.715671E-05
3.392157E+03	9.630743E-04	1.742950E-05
3.401961E+03	9.822125E-04	1.771164E-05
3.411765E+03	1.002109E-03	1.800472E-05
3.421569E+03	1.022667E-03	1.830686E-05
3.431373E+03	1.044054E-03	1.862086E-05
3.441176E+03	1.066240E-03	1.894608E-05
3.450980E+03	1.089268E-03	1.928305E-05
3.460784E+03	1.113244E-03	1.963352E-05
3.470588E+03	1.138149E-03	1.999690E-05
3.480392E+03	1.164093E-03	2.037496E-05
3.490196E+03	1.191125E-03	2.076833E-05
3.500000E+03	1.219222E-03	2.117636E-05
3.509804E+03	1.248568E-03	2.160204E-05
3.519608E+03	1.279065E-03	2.204338E-05
3.529412E+03	1.310889E-03	2.250319E-05
3.539216E+03	1.343925E-03	2.297920E-05
3.549020E+03	1.378337E-03	2.347396E-05
3.558824E+03	1.414068E-03	2.398619E-05
3.568627E+03	1.451199E-03	2.451699E-05
3.578431E+03	1.489659E-03	2.506487E-05
3.588235E+03	1.529524E-03	2.563081E-05
3.598039E+03	1.570711E-03	2.621311E-05
3.607843E+03	1.613364E-03	2.681390E-05
3.617647E+03	1.657313E-03	2.743006E-05
3.627451E+03	1.702619E-03	2.806226E-05
3.637255E+03	1.749338E-03	2.871117E-05
3.647059E+03	1.797281E-03	2.937337E-05
3.656863E+03	1.846579E-03	3.005071E-05
3.666667E+03	1.897197E-03	3.074236E-05
3.676471E+03	1.948924E-03	3.144459E-05
3.686275E+03	2.001968E-03	3.216050E-05
3.696078E+03	2.056105E-03	3.288622E-05
3.705882E+03	2.111364E-03	3.362198E-05
3.715686E+03	2.167594E-03	3.436510E-05
3.725490E+03	2.224903E-03	3.511708E-05
3.735294E+03	2.283036E-03	3.587369E-05
3.745098E+03	2.342095E-03	3.663631E-05
3.754902E+03	2.401902E-03	3.740196E-05
3.764706E+03	2.462363E-03	3.816901E-05
3.774510E+03	2.523475E-03	3.893726E-05
3.784314E+03	2.585037E-03	3.970348E-05
3.794118E+03	2.646938E-03	4.046587E-05
3.803922E+03	2.709159E-03	4.122404E-05
3.813725E+03	2.771579E-03	4.197608E-05
3.823529E+03	2.833974E-03	4.271855E-05
3.833333E+03	2.896311E-03	4.345098E-05
3.843137E+03	2.958455E-03	4.417134E-05
3.852941E+03	3.020169E-03	4.487616E-05
3.862745E+03	3.081511E-03	4.556636E-05
3.872549E+03	3.142139E-03	4.623699E-05
3.882353E+03	3.202009E-03	4.688757E-05
3.892157E+03	3.260980E-03	4.751618E-05
3.901961E+03	3.318909E-03	4.812097E-05
3.911765E+03	3.375658E-03	4.870016E-05
3.921569E+03	3.431094E-03	4.925211E-05
3.931373E+03	3.484989E-03	4.977383E-05
3.941176E+03	3.537428E-03	5.026687E-05
3.950980E+03	3.588098E-03	5.072714E-05
3.960784E+03	3.637005E-03	5.115512E-05
3.970588E+03	3.684066E-03	5.155003E-05
3.980392E+03	3.729112E-03	5.190993E-05
3.990196E+03	3.772193E-03	5.223597E-05
4.000000E+03	3.813273E-03	5.252810E-05
4.009804E+03	3.852137E-03	5.278382E-05
4.019608E+03	3.888987E-03	5.300637E-05
4.029412E+03	3.923645E-03	5.319381E-05
4.039216E+03	3.956346E-03	5.334980E-05
4.049020E+03	3.986951E-03	5.347293E-05
4.058824E+03	4.015631E-03	5.356595E-05
4.068627E+03	4.042381E-03	5.362924E-05
4.078431E+03	4.067213E-03	5.366341E-05
4.088235E+03	4.090439E-03	5.367298E-05
4.098039E+03	4.112005E-03	5.365764E-05
4.107843E+03	4.132064E-03	5.361975E-05
4.117647E+03	4.150776E-03	5.356173E-05
4.127451E+03	4.168223E-03	5.348498E-05
4.137255E+03	4.184679E-03	5.339327E-05
4.147059E+03	4.200158E-03	5.328704E-05
4.156863E+03	4.214949E-03	5.317016E-05
4.166667E+03	4.229085E-03	5.304327E-05
4.176471E+03	4.242956E-03	5.291135E-05
4.186275E+03	4.256526E-03	5.277410E-05
4.196078E+03	4.270111E-03	5.263548E-05
4.205882E+03	4.283865E-03	5.249742E-05
4.215686E+03	4.297948E-03	5.236188E-05
4.225490E+03	4.312693E-03	5.223286E-05
4.235294E+03	4.328196E-03	5.211139E-05
4.245098E+03	4.344719E-03	5.200052E-05
4.254902E+03	4.362530E-03	5.190324E-05
4.264706E+03	4.381819E-03	5.182157E-05
4.274510E+03	4.402765E-03	5.175736E-05
4.284314E+03	4.425615E-03	5.171318E-05
4.294118E+03	4.450580E-03	5.169112E-05
4.303922E+03	4.477677E-03	5.169101E-05
4.313725E+03	4.507102E-03	5.171468E-05
4.323529E+03	4.538845E-03	5.176161E-05
4.333333E+03	4.572850E-03	5.183072E-05
4.343137E+03	4.609100E-03	5.192143E-05
4.352941E+03	4.647477E-03	5.203201E-05
4.362745E+03	4.687921E-03	5.216143E-05
4.372549E+03	4.730364E-03	5.230857E-05
4.382353E+03	4.774655E-03	5.247136E-05
4.392157E+03	4.820711E-03	5.264854E-05
4.401961E+03	4.868442E-03	5.283879E-05
4.411765E+03	4.917605E-03	5.303912E-05
4.421569E+03	4.968240E-03	5.324971E-05
4.431373E+03	5.020157E-03	5.346824E-05
4.441176E+03	5.073075E-03	5.369149E-05
4.450980E+03	5.127071E-03	5.392007E-05
4.460784E+03	5.181753E-03	5.414970E-05
4.470588E+03	5.237011E-03	5.437911E-05
4.480392E+03	5.292637E-03	5.460605E-05
4.490196E+03	5.348328E-03	5.482735E-05
4.500000E+03	5.403982E-03	5.504201E-05
4.509804E+03	5.459102E-03	5.524500E-05
4.519608E+03	5.513553E-03	5.543508E-05
4.529412E+03	5.567033E-03	5.560942E-05
4.539216E+03	5.619081E-03	5.576363E-05
4.549020E+03	5.669540E-03	5.589647E-05
4.558824E+03	5.718106E-03	5.600530E-05
4.568627E+03	5.764332E-03	5.608618E-05
4.578431E+03	5.808105E-03	5.613848E-05
4.588235E+03	5.849109E-03	5.615966E-05
4.598039E+03	5.887219E-03	5.614911E-05
4.607843E+03	5.922123E-03	5.610445E-05
4.617647E+03	5.953947E-03	5.602753E-05
4.627451E+03	5.982406E-03	5.591628E-05
4.637255E+03	6.007736E-03	5.577358E-05
4.647059E+03	6.029839E-03	5.559916E-05
4.656863E+03	6.048906E-03	5.539543E-05
4.666667E+03	6.065098E-03	5.516445E-05
4.676471E+03	6.078623E-03	5.490868E-05
4.686275E+03	6.089724E-03	5.463087E-05
4.696078E+03	6.098759E-03	5.433469E-05
4.705882E+03	6.106027E-03	5.402324E-05
4.715686E+03	6.111774E-03	5.369905E-05
4.725490E+03	6.116486E-03	5.336671E-05
4.735294E+03	6.120422E-03	5.302873E-05
4.745098E+03	6.123997E-03	5.268887E-05
4.754902E+03	6.127542E-03	5.235010E-05
4.764706E+03	6.131378E-03	5.201525E-05
4.774510E+03	6.135887E-03	5.168755E-05
4.784314E+03	6.141280E-03	5.136874E-05
4.794118E+03	6.147971E-03	5.106222E-05
4.803922E+03	6.156121E-03	5.076917E-05
4.813725E+03	6.166009E-03	5.049175E-05
4.823529E+03	6.177880E-03	5.023178E-05
4.833333E+03	6.191713E-03	4.998886E-05
4.843137E+03	6.207820E-03	4.976530E-05
4.852941E+03	6.226090E-03	4.956000E-05
4.862745E+03	6.246664E-03	4.937385E-05
4.872549E+03	6.269405E-03	4.920559E-05
4.882353E+03	6.294352E-03	4.905534E-05
4.892157E+03	6.321190E-03	4.892050E-05
4.901961E+03	6.349934E-03	4.880110E-05
4.911765E+03	6.380102E-03	4.869338E-05
4.921569E+03	6.411630E-03	4.859688E-05
4.931373E+03	6.444127E-03	4.850870E-05
4.941176E+03	6.477249E-03	4.842638E-05
4.950980E+03	6.510740E-03	4.834823E-05
4.960784E+03	6.544197E-03	4.827150E-05
4.970588E+03	6.577442E-03	4.819522E-05
4.980392E+03	6.610057E-03	4.811669E-05
4.990196E+03	6.641947E-03	4.803566E-05
5.000000E+03	6.672857E-03	4.795074E-05
5.009804E+03	6.702646E-03	4.786143E-05
5.019608E+03	6.731311E-03	4.776821E-05
5.029412E+03	6.758838E-03	4.767152E-05
5.039216E+03	6.785173E-03	4.757151E-05
5.049020E+03	6.810445E-03	4.746963E-05
5.058824E+03	6.834754E-03	4.736709E-05
5.068627E+03	6.858142E-03	4.726471E-05
5.078431E+03	6.880793E-03	4.716428E-05
5.088235E+03	6.902847E-03	4.706724E-05
5.098039E+03	6.924405E-03	4.697479E-05
5.107843E+03	6.945490E-03	4.688756E-05
5.117647E+03	6.966271E-03	4.680718E-05
5.127451E+03	6.986737E-03	4.673404E-05
5.137255E+03	7.006999E-03	4.666937E-05
5.147059E+03	7.027009E-03	4.661332E-05
5.156863E+03	7.046765E-03	4.656636E-05
5.166667E+03	7.066259E-03	4.652890E-05
5.176471E+03	7.085455E-03	4.650120E-05
5.186275E+03	7.104241E-03	4.648300E-05
5.196078E+03	7.122574E-03	4.647450E-05
5.205882E+03	7.140492E-03	4.647641E-05
5.215686E+03	7.157880E-03	4.648847E-05
5.225490E+03	7.174651E-03	4.651056E-05
5.235294E+03	7.190815E-03	4.654319E-05
5.245098E+03	7.206501E-03	4.658764E-05
5.254902E+03	7.221714E-03	4.664434E-05
5.264706E+03	7.236531E-03	4.671420E-05
5.274510E+03	7.251162E-03	4.679893E-05
5.284314E+03	7.265916E-03	4.690091E-05
5.294118E+03	7.281244E-03	4.702337E-05
5.303922E+03	7.297391E-03	4.716824E-05
5.313725E+03	7.315090E-03	4.734040E-05
5.323529E+03	7.334934E-03	4.754356E-05
5.333333E+03	7.357681E-03	4.778248E-05
5.343137E+03	7.384135E-03	4.806229E-05
5.352941E+03	7.415050E-03	4.838786E-05
5.362745E+03	7.451268E-03	4.876472E-05
5.372549E+03	7.493305E-03	4.919639E-05
5.382353E+03	7.541599E-03	4.968593E-05
5.392157E+03	7.596056E-03	5.023299E-05
5.401961E+03	7.656452E-03	5.083641E-05
5.411765E+03	7.721849E-03	5.149028E-05
5.421569E+03	7.791265E-03	5.218834E-05
5.431373E+03	7.863400E-03	5.292208E-05
5.441176E+03	7.936813E-03	5.368190E-05
5.450980E+03	8.010191E-03	5.445886E-05
5.460784E+03	8.081865E-03	5.524140E-05
5.470588E+03	8.150548E-03	5.602032E-05
5.480392E+03	8.214792E-03	5.678507E-05
5.490196E+03	8.273414E-03	5.752666E-05
5.500000E+03	8.325316E-03	5.823648E-05
5.509804E+03	8.369756E-03	5.890814E-05
5.519608E+03	8.405812E-03	5.953384E-05
5.529412E+03	8.433069E-03	6.010915E-05
5.539216E+03	8.451339E-03	6.063115E-05
5.549020E+03	8.460650E-03	6.109837E-05
5.558824E+03	8.460950E-03	6.150873E-05
5.568627E+03	8.452779E-03	6.186446E-05
5.578431E+03	8.436654E-03	6.216764E-05
5.588235E+03	8.413219E-03	6.242142E-05
5.598039E+03	8.383263E-03	6.263010E-05
5.607843E+03	8.347731E-03	6.279933E-05
5.617647E+03	8.307550E-03	6.293480E-05
5.627451E+03	8.263575E-03	6.304185E-05
5.637255E+03	8.216965E-03	6.312834E-05
5.647059E+03	8.168565E-03	6.319998E-05
5.656863E+03	8.119295E-03	6.326321E-05
5.666667E+03	8.070137E-03	6.332522E-05
5.676471E+03	8.021804E-03	6.339129E-05
5.686275E+03	7.975146E-03	6.346796E-05
5.696078E+03	7.930824E-03	6.356047E-05
5.705882E+03	7.889335E-03	6.367292E-05
5.715686E+03	7.851269E-03	6.381027E-05
5.725490E+03	7.817023E-03	6.397608E-05
5.735294E+03	7.786907E-03	6.417328E-05
5.745098E+03	7.761064E-03	6.440351E-05
5.754902E+03	7.739714E-03	6.466910E-05
5.764706E+03	7.722912E-03	6.497105E-05
5.774510E+03	7.710546E-03	6.530897E-05
5.784314E+03	7.702622E-03	6.568348E-05
5.794118E+03	7.698905E-03	6.609313E-05
5.803922E+03	7.699292E-03	6.653754E-05
5.813725E+03	7.703467E-03	6.701450E-05
5.823529E+03	7.711067E-03	6.752129E-05
5.833333E+03	7.721971E-03	6.805726E-05
5.843137E+03	7.735801E-03	6.861947E-05
5.852941E+03	7.752153E-03	6.920462E-05
5.862745E+03	7.770810E-03	6.981104E-05
5.872549E+03	7.791393E-03	7.043554E-05
5.882353E+03	7.813630E-03	7.107582E-05
5.892157E+03	7.837285E-03	7.172984E-05
5.901961E+03	7.862149E-03	7.239575E-05
5.911765E+03	7.887968E-03	7.307127E-05
5.921569E+03	7.914711E-03	7.375613E-05
5.931373E+03	7.942207E-03	7.444872E-05
5.941176E+03	7.970505E-03	7.514950E-05
5.950980E+03	7.999428E-03	7.585677E-05
5.960784E+03	8.029105E-03	7.657176E-05
5.970588E+03	8.059518E-03	7.729425E-05
5.980392E+03	8.090857E-03	7.802609E-05
5.990196E+03	8.123151E-03	7.876755E-05
6.000000E+03	8.156528E-03	7.951993E-05
6.009804E+03	8.191223E-03	8.028556E-05
6.019608E+03	8.227193E-03	8.106411E-05
6.029412E+03	8.264551E-03	8.185676E-05
6.039216E+03	8.303622E-03	8.266685E-05
6.049020E+03	8.344197E-03	8.349242E-05
6.058824E+03	8.386624E-03	8.433706E-05
6.068627E+03	8.430637E-03	8.519826E-05
6.078431E+03	8.476400E-03	8.607779E-05
6.088235E+03	8.523758E-03	8.697419E-05
6.098039E+03	8.572573E-03	8.788617E-05
6.107843E+03	8.622771E-03	8.881304E-05
6.117647E+03	8.674004E-03	8.975127E-05
6.127451E+03	8.725984E-03	9.069790E-05
6.137255E+03	8.778357E-03	9.164920E-05
6.147059E+03	8.830719E-03	9.260088E-05
6.156863E+03	8.882619E-03	9.354806E-05
6.166667E+03	8.933694E-03	9.448673E-05
6.176471E+03	8.983323E-03	9.541004E-05
6.186275E+03	9.030985E-03	9.631216E-05
6.196078E+03	9.076257E-03	9.718816E-05
6.205882E+03	9.118516E-03	9.803096E-05
6.215686E+03	9.157249E-03	9.883452E-05
6.225490E+03	9.192093E-03	9.959439E-05
6.235294E+03	9.222617E-03	1.003053E-04
6.245098E+03	9.248330E-03	1.009613E-04
6.254902E+03	9.269004E-03	1.015592E-04
6.264706E+03	9.284374E-03	1.020955E-04
6.274510E+03	9.294118E-03	1.025660E-04
6.284314E+03	9.298312E-03	1.029707E-04
6.294118E+03	9.296764E-03	1.033069E-04
6.303922E+03	9.289433E-03	1.035735E-04
6.313725E+03	9.276341E-03	1.037701E-04
6.323529E+03	9.257536E-03	1.038966E-04
6.333333E+03	9.233231E-03	1.039548E-04
6.343137E+03	9.203529E-03	1.039453E-04
6.352941E+03	9.168444E-03	1.038677E-04
6.362745E+03	9.128224E-03	1.037245E-04
6.372549E+03	9.083006E-03	1.035166E-04
6.382353E+03	9.033024E-03	1.032463E-04
6.392157E+03	8.978184E-03	1.029121E-04
6.401961E+03	8.918822E-03	1.025177E-04
6.411765E+03	8.855055E-03	1.020639E-04
6.421569E+03	8.786987E-03	1.015516E-04
6.431373E+03	8.714729E-03	1.009820E-04
6.441176E+03	8.638378E-03	1.003558E-04
6.450980E+03	8.558072E-03	9.967446E-05
6.460784E+03	8.474045E-03	9.894050E-05
6.470588E+03	8.386457E-03	9.815561E-05
6.480392E+03	8.295478E-03	9.732166E-05
6.490196E+03	8.201310E-03	9.644089E-05
6.500000E+03	8.104282E-03	9.551710E-05
6.509804E+03	8.004647E-03	9.455323E-05
6.519608E+03	7.902565E-03	9.355115E-05
6.529412E+03	7.798543E-03	9.251685E-05
6.539216E+03	7.692787E-03	9.145285E-05
6.549020E+03	7.585722E-03	9.036425E-05
6.558824E+03	7.477582E-03	8.925395E-05
6.568627E+03	7.368900E-03	8.812844E-05
6.578431E+03	7.259807E-03	8.698945E-05
6.588235E+03	7.150838E-03	8.584356E-05
6.598039E+03	7.042219E-03	8.469368E-05
6.607843E+03	6.934339E-03	8.354473E-05
6.617647E+03	6.827500E-03	8.240058E-05
6.627451E+03	6.721981E-03	8.126485E-05
6.637255E+03	6.618039E-03	8.014093E-05
6.647059E+03	6.516006E-03	7.903310E-05
6.656863E+03	6.416015E-03	7.794330E-05
6.666667E+03	6.318276E-03	7.687433E-05
6.676471E+03	6.223065E-03	7.582988E-05
6.686275E+03	6.130552E-03	7.481232E-05
6.696078E+03	6.040814E-03	7.382288E-05
6.705882E+03	5.954162E-03	7.286568E-05
6.715686E+03	5.870562E-03	7.194060E-05
6.725490E+03	5.790298E-03	7.105144E-05
6.735294E+03	5.713399E-03	7.019883E-05
6.745098E+03	5.639963E-03	6.938429E-05
6.754902E+03	5.570157E-03	6.861016E-05
6.764706E+03	5.503982E-03	6.787673E-05
6.774510E+03	5.441503E-03	6.718511E-05
6.784314E+03	5.382857E-03	6.653724E-05
6.794118E+03	5.328013E-03	6.593301E-05
6.803922E+03	5.277008E-03	6.537315E-05
6.813725E+03	5.229941E-03	6.485914E-05
6.823529E+03	5.186830E-03	6.439144E-05
6.833333E+03	5.147533E-03	6.396854E-05
6.843137E+03	5.112266E-03	6.359337E-05
6.852941E+03	5.080803E-03	6.326331E-05
6.862745E+03	5.053269E-03	6.298016E-05
6.872549E+03	5.029638E-03	6.274381E-05
6.882353E+03	5.009733E-03	6.255226E-05
6.892157E+03	4.993660E-03	6.240702E-05
6.901961E+03	4.981301E-03	6.230680E-05
6.911765E+03	4.972602E-03	6.225114E-05
6.921569E+03	4.967506E-03	6.223948E-05
6.931373E+03	4.965946E-03	6.227117E-05
6.941176E+03	4.967849E-03	6.234546E-05
6.950980E+03	4.973136E-03	6.246153E-05
6.960784E+03	4.981649E-03	6.261756E-05
6.970588E+03	4.993299E-03	6.281255E-05
6.980392E+03	5.008057E-03	6.304633E-05
6.990196E+03	5.025748E-03	6.331683E-05
7.000000E+03	5.046264E-03	6.362283E-05
7.009804E+03	5.069493E-03	6.396306E-05
7.019608E+03	5.095317E-03	6.433618E-05
7.029412E+03	5.123542E-03	6.473987E-05
7.039216E+03	5.154119E-03	6.517365E-05
7.049020E+03	5.186846E-03	6.563511E-05
7.058824E+03	5.221596E-03	6.612275E-05
7.068627E+03	5.258161E-03	6.663408E-05
7.078431E+03	5.296484E-03	6.716851E-05
7.088235E+03	5.336433E-03	6.772450E-05
7.098039E+03	5.377799E-03	6.829951E-05
7.107843E+03	5.420367E-03	6.889097E-05
7.117647E+03	5.464163E-03	6.949930E-05
7.127451E+03	5.508818E-03	7.011997E-05
7.137255E+03	5.554360E-03	7.075345E-05
7.147059E+03	5.600587E-03	7.139730E-05
7.156863E+03	5.647377E-03	7.205008E-05
7.166667E+03	5.694532E-03	7.270942E-05
7.176471E+03	5.742027E-03	7.337511E-05
7.186275E+03	5.789597E-03	7.404391E-05
7.196078E+03	5.837320E-03	7.471693E-05
7.205882E+03	5.884953E-03	7.539121E-05
7.215686E+03	5.932521E-03	7.606719E-05
7.225490E+03	5.979896E-03	7.674338E-05
7.235294E+03	6.027060E-03	7.741967E-05
7.245098E+03	6.074014E-03	7.809622E-05
7.254902E+03	6.120790E-03	7.877358E-05
7.264706E+03	6.167449E-03	7.945269E-05
7.274510E+03	6.213990E-03	8.013369E-05
7.284314E+03	6.260626E-03	8.081949E-05
7.294118E+03	6.307515E-03	8.151228E-05
7.303922E+03	6.354751E-03	8.221348E-05
7.313725E+03	6.402640E-03	8.292724E-05
7.323529E+03	6.451326E-03	8.365563E-05
7.333333E+03	6.501147E-03	8.440325E-05
7.343137E+03	6.552338E-03	8.517341E-05
7.352941E+03	6.605096E-03	8.596891E-05
7.362745E+03	6.659450E-03	8.679043E-05
7.372549E+03	6.715521E-03	8.763984E-05
7.382353E+03	6.773229E-03	8.851638E-05
7.392157E+03	6.832397E-03	8.941806E-05
7.401961E+03	6.892891E-03	9.034342E-05
7.411765E+03	6.954338E-03	9.128788E-05
7.421569E+03	7.016447E-03	9.224790E-05
7.431373E+03	7.079036E-03	9.322138E-05
7.441176E+03	7.141821E-03	9.420484E-05
7.450980E+03	7.204525E-03	9.519490E-05
7.460784E+03	7.266899E-03	9.618850E-05
7.470588E+03	7.328606E-03	9.718141E-05
7.480392E+03	7.389633E-03	9.817367E-05
7.490196E+03	7.449783E-03	9.916288E-05
7.500000E+03	7.508763E-03	1.001453E-04
7.509804E+03	7.566395E-03	1.011187E-04
7.519608E+03	7.622655E-03	1.020830E-04
7.529412E+03	7.677274E-03	1.030347E-04
7.539216E+03	7.730367E-03	1.039752E-04
7.549020E+03	7.781570E-03	1.048997E-04
7.558824E+03	7.830912E-03	1.058083E-04
7.568627E+03	7.878165E-03	1.066978E-04
7.578431E+03	7.923477E-03	1.075701E-04
7.588235E+03	7.966534E-03	1.084207E-04
7.598039E+03	8.007383E-03	1.092500E-04
7.607843E+03	8.045944E-03	1.100568E-04
