#wls	flux	fluxerr
1.568627E+03	2.053328E-04	8.044022E-06
1.607843E+03	2.070579E-04	8.074845E-06
1.647059E+03	2.085970E-04	8.096975E-06
1.686275E+03	2.099410E-04	8.110126E-06
1.725490E+03	2.110693E-04	8.113583E-06
1.764706E+03	2.119172E-04	8.104961E-06
1.803922E+03	2.124346E-04	8.082497E-06
1.843137E+03	2.124822E-04	8.041096E-06
1.882353E+03	2.119888E-04	7.978342E-06
1.921569E+03	2.108447E-04	7.890461E-06
1.960784E+03	2.091219E-04	7.780553E-06
2.000000E+03	2.070865E-04	7.658839E-06
2.039216E+03	2.053006E-04	7.546212E-06
2.078431E+03	2.046631E-04	7.475337E-06
2.117647E+03	2.060094E-04	7.475735E-06
2.156863E+03	2.095953E-04	7.555180E-06
2.196078E+03	2.151646E-04	7.702805E-06
2.235294E+03	2.221050E-04	7.895280E-06
2.274510E+03	2.297342E-04	8.107363E-06
2.313725E+03	2.375987E-04	8.322507E-06
2.352941E+03	2.454994E-04	8.533469E-06
2.392157E+03	2.533198E-04	8.736056E-06
2.431373E+03	2.611105E-04	8.931929E-06
2.470588E+03	2.689298E-04	9.122948E-06
2.509804E+03	2.768544E-04	9.311527E-06
2.549020E+03	2.849667E-04	9.500177E-06
2.588235E+03	2.933494E-04	9.691314E-06
2.627451E+03	3.021281E-04	9.888657E-06
2.666667E+03	3.113423E-04	1.009296E-05
2.705882E+03	3.210747E-04	1.030630E-05
2.745098E+03	3.314576E-04	1.053222E-05
2.784314E+03	3.425847E-04	1.077284E-05
2.823529E+03	3.545082E-04	1.102887E-05
2.862745E+03	3.674345E-04	1.130564E-05
2.901961E+03	3.813872E-04	1.160261E-05
2.941176E+03	3.966027E-04	1.192560E-05
2.950980E+03	4.006464E-04	1.201150E-05
2.960784E+03	4.047121E-04	1.209719E-05
2.970588E+03	4.089077E-04	1.218588E-05
2.980392E+03	4.132393E-04	1.227771E-05
2.990196E+03	4.176109E-04	1.236980E-05
3.000000E+03	4.221420E-04	1.246565E-05
3.009804E+03	4.267790E-04	1.256365E-05
3.019608E+03	4.315225E-04	1.266377E-05
3.029412E+03	4.364288E-04	1.276763E-05
3.039216E+03	4.414439E-04	1.287361E-05
3.049020E+03	4.465692E-04	1.298170E-05
3.058824E+03	4.518061E-04	1.309192E-05
3.068627E+03	4.572137E-04	1.320594E-05
3.078431E+03	4.627373E-04	1.332213E-05
3.088235E+03	4.684377E-04	1.344219E-05
3.098039E+03	4.742005E-04	1.356280E-05
3.107843E+03	4.801459E-04	1.368735E-05
3.117647E+03	4.862180E-04	1.381422E-05
3.127451E+03	4.924803E-04	1.394514E-05
3.137255E+03	4.988765E-04	1.407848E-05
3.147059E+03	5.054098E-04	1.421427E-05
3.156863E+03	5.120836E-04	1.435257E-05
3.166667E+03	5.189644E-04	1.449519E-05
3.176471E+03	5.259942E-04	1.464045E-05
3.186275E+03	5.331770E-04	1.478840E-05
3.196078E+03	5.405814E-04	1.494090E-05
3.205882E+03	5.481483E-04	1.509624E-05
3.215686E+03	5.558820E-04	1.525448E-05
3.225490E+03	5.638534E-04	1.541752E-05
3.235294E+03	5.720019E-04	1.558362E-05
3.245098E+03	5.803320E-04	1.575284E-05
3.254902E+03	5.888485E-04	1.592525E-05
3.264706E+03	5.976256E-04	1.610279E-05
3.274510E+03	6.066001E-04	1.628368E-05
3.284314E+03	6.158478E-04	1.646987E-05
3.294118E+03	6.252327E-04	1.665766E-05
3.303922E+03	6.349020E-04	1.685089E-05
3.313725E+03	6.448630E-04	1.704968E-05
3.323529E+03	6.549751E-04	1.725021E-05
3.333333E+03	6.653908E-04	1.745644E-05
3.343137E+03	6.761164E-04	1.766843E-05
3.352941E+03	6.870061E-04	1.788228E-05
3.362745E+03	6.982171E-04	1.810200E-05
3.372549E+03	7.096780E-04	1.832565E-05
3.382353E+03	7.214724E-04	1.855529E-05
3.392157E+03	7.335257E-04	1.878890E-05
3.401961E+03	7.458426E-04	1.902650E-05
3.411765E+03	7.584258E-04	1.926808E-05
3.421569E+03	7.713625E-04	1.951575E-05
3.431373E+03	7.845732E-04	1.976738E-05
3.441176E+03	7.980600E-04	2.002293E-05
3.450980E+03	8.119124E-04	2.028454E-05
3.460784E+03	8.260469E-04	2.055002E-05
3.470588E+03	8.404652E-04	2.081930E-05
3.480392E+03	8.552577E-04	2.109451E-05
3.490196E+03	8.703370E-04	2.137338E-05
3.500000E+03	8.857037E-04	2.165583E-05
3.509804E+03	9.014533E-04	2.194407E-05
3.519608E+03	9.173997E-04	2.223347E-05
3.529412E+03	9.337341E-04	2.252856E-05
3.539216E+03	9.504646E-04	2.282941E-05
3.549020E+03	9.674018E-04	2.313136E-05
3.558824E+03	9.847477E-04	2.343912E-05
3.568627E+03	1.002513E-03	2.375282E-05
3.578431E+03	1.020501E-03	2.406768E-05
3.588235E+03	1.038924E-03	2.438859E-05
3.598039E+03	1.057686E-03	2.471317E-05
3.607843E+03	1.076793E-03	2.504142E-05
3.617647E+03	1.096361E-03	2.537591E-05
3.627451E+03	1.116288E-03	2.571414E-05
3.637255E+03	1.136581E-03	2.605614E-05
3.647059E+03	1.157245E-03	2.640189E-05
3.656863E+03	1.178400E-03	2.675398E-05
3.666667E+03	1.199938E-03	2.710983E-05
3.676471E+03	1.221865E-03	2.746939E-05
3.686275E+03	1.244304E-03	2.783530E-05
3.696078E+03	1.267020E-03	2.820216E-05
3.705882E+03	1.290257E-03	2.857527E-05
3.715686E+03	1.313900E-03	2.895190E-05
3.725490E+03	1.338075E-03	2.933467E-05
3.735294E+03	1.362535E-03	2.971804E-05
3.745098E+03	1.387534E-03	3.010740E-05
3.754902E+03	1.412947E-03	3.049986E-05
3.764706E+03	1.438908E-03	3.089817E-05
3.774510E+03	1.465153E-03	3.129648E-05
3.784314E+03	1.491947E-03	3.170035E-05
3.794118E+03	1.519158E-03	3.210680E-05
3.803922E+03	1.546784E-03	3.251561E-05
3.813725E+03	1.574823E-03	3.292663E-05
3.823529E+03	1.603416E-03	3.334263E-05
3.833333E+03	1.632274E-03	3.375746E-05
3.843137E+03	1.661683E-03	3.417691E-05
3.852941E+03	1.691495E-03	3.459777E-05
3.862745E+03	1.721856E-03	3.502289E-05
3.872549E+03	1.752460E-03	3.544587E-05
3.882353E+03	1.783450E-03	3.586953E-05
3.892157E+03	1.814978E-03	3.629678E-05
3.901961E+03	1.846883E-03	3.672424E-05
3.911765E+03	1.879156E-03	3.715162E-05
3.921569E+03	1.911790E-03	3.757866E-05
3.931373E+03	1.944775E-03	3.800505E-05
3.941176E+03	1.978102E-03	3.843050E-05
3.950980E+03	2.011928E-03	3.885797E-05
3.960784E+03	2.045904E-03	3.928061E-05
3.970588E+03	2.080361E-03	3.970466E-05
3.980392E+03	2.114938E-03	4.012314E-05
3.990196E+03	2.149970E-03	4.054239E-05
4.000000E+03	2.185269E-03	4.095869E-05
4.009804E+03	2.220816E-03	4.137169E-05
4.019608E+03	2.256594E-03	4.178096E-05
4.029412E+03	2.292584E-03	4.218610E-05
4.039216E+03	2.328762E-03	4.258669E-05
4.049020E+03	2.365107E-03	4.298227E-05
4.058824E+03	2.401594E-03	4.337236E-05
4.068627E+03	2.438197E-03	4.375650E-05
4.078431E+03	2.474885E-03	4.413415E-05
4.088235E+03	2.511827E-03	4.450830E-05
4.098039E+03	2.548593E-03	4.487135E-05
4.107843E+03	2.585344E-03	4.522620E-05
4.117647E+03	2.622039E-03	4.557223E-05
4.127451E+03	2.658638E-03	4.590877E-05
4.137255E+03	2.695093E-03	4.623512E-05
4.147059E+03	2.731355E-03	4.655055E-05
4.156863E+03	2.767372E-03	4.685428E-05
4.166667E+03	2.803085E-03	4.714549E-05
4.176471E+03	2.838436E-03	4.742335E-05
4.186275E+03	2.873139E-03	4.768331E-05
4.196078E+03	2.907563E-03	4.793175E-05
4.205882E+03	2.941420E-03	4.816410E-05
4.215686E+03	2.974412E-03	4.837578E-05
4.225490E+03	3.006685E-03	4.856952E-05
4.235294E+03	3.038392E-03	4.874807E-05
4.245098E+03	3.069007E-03	4.890333E-05
4.254902E+03	3.098689E-03	4.903825E-05
4.264706E+03	3.127148E-03	4.914864E-05
4.274510E+03	3.154793E-03	4.924140E-05
4.284314E+03	3.181358E-03	4.931273E-05
4.294118E+03	3.206582E-03	4.935906E-05
4.303922E+03	3.230679E-03	4.938416E-05
4.313725E+03	3.253635E-03	4.938827E-05
4.323529E+03	3.275437E-03	4.937167E-05
4.333333E+03	3.296085E-03	4.933479E-05
4.343137E+03	3.315350E-03	4.927469E-05
4.352941E+03	3.333495E-03	4.919576E-05
4.362745E+03	3.350557E-03	4.909900E-05
4.372549E+03	3.366583E-03	4.898550E-05
4.382353E+03	3.381392E-03	4.885298E-05
4.392157E+03	3.395524E-03	4.870953E-05
4.401961E+03	3.408566E-03	4.854947E-05
4.411765E+03	3.420587E-03	4.837406E-05
4.421569E+03	3.432133E-03	4.819124E-05
4.431373E+03	3.442796E-03	4.799542E-05
4.441176E+03	3.452882E-03	4.779108E-05
4.450980E+03	3.462218E-03	4.757597E-05
4.460784E+03	3.471345E-03	4.735766E-05
4.470588E+03	3.479848E-03	4.713057E-05
4.480392E+03	3.488026E-03	4.689883E-05
4.490196E+03	3.495698E-03	4.666012E-05
4.500000E+03	3.503157E-03	4.641842E-05
4.509804E+03	3.510456E-03	4.617445E-05
4.519608E+03	3.517409E-03	4.592581E-05
4.529412E+03	3.524540E-03	4.567935E-05
4.539216E+03	3.531185E-03	4.542643E-05
4.549020E+03	3.538098E-03	4.517682E-05
4.558824E+03	3.544852E-03	4.492497E-05
4.568627E+03	3.551723E-03	4.467440E-05
4.578431E+03	3.558515E-03	4.442260E-05
4.588235E+03	3.565504E-03	4.417298E-05
4.598039E+03	3.572490E-03	4.392303E-05
4.607843E+03	3.579981E-03	4.367892E-05
4.617647E+03	3.587539E-03	4.343520E-05
4.627451E+03	3.595200E-03	4.319227E-05
4.637255E+03	3.603229E-03	4.295325E-05
4.647059E+03	3.611658E-03	4.271844E-05
4.656863E+03	3.620282E-03	4.248530E-05
4.666667E+03	3.629363E-03	4.225686E-05
4.676471E+03	3.638695E-03	4.203062E-05
4.686275E+03	3.648541E-03	4.180952E-05
4.696078E+03	3.658925E-03	4.159374E-05
4.705882E+03	3.669638E-03	4.138080E-05
4.715686E+03	3.680937E-03	4.117352E-05
4.725490E+03	3.692613E-03	4.096944E-05
4.735294E+03	3.704920E-03	4.077133E-05
4.745098E+03	3.717880E-03	4.057931E-05
4.754902E+03	3.731280E-03	4.039092E-05
4.764706E+03	3.745372E-03	4.020886E-05
4.774510E+03	3.759939E-03	4.003070E-05
4.784314E+03	3.775236E-03	3.985906E-05
4.794118E+03	3.791040E-03	3.969155E-05
4.803922E+03	3.807604E-03	3.953073E-05
4.813725E+03	3.824705E-03	3.937423E-05
4.823529E+03	3.842593E-03	3.922459E-05
4.833333E+03	3.861280E-03	3.908185E-05
4.843137E+03	3.880539E-03	3.894367E-05
4.852941E+03	3.900617E-03	3.881254E-05
4.862745E+03	3.921283E-03	3.868612E-05
4.872549E+03	3.942543E-03	3.856450E-05
4.882353E+03	3.964886E-03	3.845249E-05
4.892157E+03	3.987832E-03	3.834542E-05
4.901961E+03	4.011382E-03	3.824336E-05
4.911765E+03	4.035781E-03	3.814875E-05
4.921569E+03	4.060783E-03	3.805933E-05
4.931373E+03	4.086634E-03	3.797751E-05
4.941176E+03	4.113329E-03	3.790337E-05
4.950980E+03	4.140614E-03	3.783471E-05
4.960784E+03	4.168733E-03	3.777393E-05
4.970588E+03	4.197423E-03	3.771886E-05
4.980392E+03	4.226924E-03	3.767189E-05
4.990196E+03	4.256970E-03	3.763090E-05
5.000000E+03	4.287800E-03	3.759830E-05
5.009804E+03	4.319136E-03	3.757198E-05
5.019608E+03	4.351218E-03	3.755437E-05
5.029412E+03	4.383760E-03	3.754340E-05
5.039216E+03	4.416996E-03	3.754150E-05
5.049020E+03	4.450900E-03	3.754887E-05
5.058824E+03	4.485174E-03	3.756348E-05
5.068627E+03	4.520046E-03	3.758779E-05
5.078431E+03	4.555209E-03	3.761979E-05
5.088235E+03	4.590887E-03	3.766195E-05
5.098039E+03	4.626761E-03	3.771228E-05
5.107843E+03	4.663050E-03	3.777324E-05
5.117647E+03	4.699422E-03	3.784284E-05
5.127451E+03	4.736090E-03	3.792354E-05
5.137255E+03	4.772990E-03	3.801557E-05
5.147059E+03	4.809764E-03	3.811689E-05
5.156863E+03	4.846331E-03	3.822767E-05
5.166667E+03	4.883174E-03	3.835259E-05
5.176471E+03	4.919628E-03	3.848725E-05
5.186275E+03	4.955588E-03	3.863172E-05
5.196078E+03	4.991234E-03	3.878829E-05
5.205882E+03	5.026154E-03	3.895465E-05
5.215686E+03	5.060810E-03	3.913525E-05
5.225490E+03	5.094179E-03	3.932305E-05
5.235294E+03	5.126704E-03	3.952233E-05
5.245098E+03	5.158232E-03	3.973273E-05
5.254902E+03	5.188598E-03	3.995378E-05
5.264706E+03	5.217325E-03	4.018253E-05
5.274510E+03	5.244231E-03	4.041828E-05
5.284314E+03	5.269741E-03	4.066490E-05
5.294118E+03	5.292751E-03	4.091428E-05
5.303922E+03	5.314002E-03	4.117192E-05
5.313725E+03	5.332710E-03	4.143142E-05
5.323529E+03	5.349036E-03	4.169355E-05
5.333333E+03	5.362561E-03	4.195448E-05
5.343137E+03	5.373529E-03	4.221545E-05
5.352941E+03	5.381624E-03	4.247322E-05
5.362745E+03	5.387222E-03	4.272993E-05
5.372549E+03	5.390436E-03	4.298561E-05
5.382353E+03	5.391077E-03	4.323780E-05
5.392157E+03	5.389492E-03	4.348831E-05
5.401961E+03	5.385595E-03	4.373544E-05
5.411765E+03	5.378929E-03	4.397437E-05
5.421569E+03	5.369674E-03	4.420545E-05
5.431373E+03	5.357453E-03	4.442436E-05
5.441176E+03	5.342882E-03	4.463497E-05
5.450980E+03	5.325092E-03	4.482878E-05
5.460784E+03	5.305111E-03	4.501314E-05
5.470588E+03	5.282459E-03	4.518276E-05
5.480392E+03	5.257603E-03	4.534037E-05
5.490196E+03	5.230407E-03	4.548358E-05
5.500000E+03	5.201352E-03	4.561540E-05
5.509804E+03	5.170612E-03	4.573623E-05
5.519608E+03	5.138063E-03	4.584390E-05
5.529412E+03	5.104171E-03	4.594153E-05
5.539216E+03	5.069095E-03	4.602960E-05
5.549020E+03	5.032986E-03	4.610858E-05
5.558824E+03	4.995702E-03	4.617633E-05
5.568627E+03	4.957669E-03	4.623594E-05
5.578431E+03	4.918733E-03	4.628524E-05
5.588235E+03	4.879299E-03	4.632733E-05
5.598039E+03	4.839482E-03	4.636269E-05
5.607843E+03	4.799386E-03	4.639176E-05
5.617647E+03	4.758835E-03	4.641232E-05
5.627451E+03	4.718203E-03	4.642750E-05
5.637255E+03	4.677573E-03	4.643772E-05
5.647059E+03	4.636760E-03	4.644074E-05
5.656863E+03	4.596375E-03	4.644236E-05
5.666667E+03	4.555693E-03	4.643498E-05
5.676471E+03	4.515574E-03	4.642705E-05
5.686275E+03	4.475554E-03	4.641362E-05
5.696078E+03	4.436205E-03	4.640046E-05
5.705882E+03	4.396815E-03	4.637996E-05
5.715686E+03	4.358193E-03	4.636053E-05
5.725490E+03	4.319880E-03	4.633721E-05
5.735294E+03	4.282165E-03	4.631302E-05
5.745098E+03	4.245085E-03	4.628835E-05
5.754902E+03	4.208669E-03	4.626354E-05
5.764706E+03	4.172706E-03	4.623625E-05
5.774510E+03	4.137465E-03	4.620947E-05
5.784314E+03	4.102965E-03	4.618350E-05
5.794118E+03	4.069226E-03	4.615862E-05
5.803922E+03	4.036031E-03	4.613246E-05
5.813725E+03	4.003857E-03	4.611056E-05
5.823529E+03	3.972254E-03	4.608787E-05
5.833333E+03	3.941234E-03	4.606460E-05
5.843137E+03	3.911255E-03	4.604624E-05
5.852941E+03	3.881873E-03	4.602769E-05
5.862745E+03	3.853311E-03	4.601175E-05
5.872549E+03	3.825569E-03	4.599856E-05
5.882353E+03	3.798645E-03	4.598826E-05
5.892157E+03	3.772535E-03	4.598095E-05
5.901961E+03	3.747014E-03	4.597406E-05
5.911765E+03	3.722297E-03	4.597033E-05
5.921569E+03	3.698371E-03	4.596979E-05
5.931373E+03	3.675228E-03	4.597251E-05
5.941176E+03	3.652855E-03	4.597849E-05
5.950980E+03	3.631029E-03	4.598506E-05
5.960784E+03	3.609951E-03	4.599491E-05
5.970588E+03	3.589811E-03	4.601063E-05
5.980392E+03	3.569972E-03	4.602423E-05
5.990196E+03	3.551040E-03	4.604362E-05
6.000000E+03	3.532791E-03	4.606608E-05
6.009804E+03	3.515003E-03	4.608884E-05
6.019608E+03	3.498066E-03	4.611717E-05
6.029412E+03	3.481556E-03	4.614560E-05
6.039216E+03	3.465656E-03	4.617669E-05
6.049020E+03	3.450348E-03	4.621032E-05
6.058824E+03	3.435612E-03	4.624636E-05
6.068627E+03	3.421230E-03	4.628197E-05
6.078431E+03	3.407579E-03	4.632237E-05
6.088235E+03	3.394242E-03	4.636201E-05
6.098039E+03	3.381399E-03	4.640345E-05
6.107843E+03	3.369225E-03	4.644918E-05
6.117647E+03	3.357309E-03	4.649365E-05
6.127451E+03	3.345631E-03	4.653667E-05
6.137255E+03	3.334564E-03	4.658349E-05
6.147059E+03	3.323892E-03	4.663120E-05
6.156863E+03	3.313403E-03	4.667692E-05
6.166667E+03	3.303466E-03	4.672589E-05
6.176471E+03	3.293678E-03	4.677251E-05
6.186275E+03	3.284214E-03	4.681933E-05
6.196078E+03	3.275249E-03	4.686890E-05
6.205882E+03	3.266384E-03	4.691561E-05
6.215686E+03	3.257796E-03	4.696203E-05
6.225490E+03	3.249280E-03	4.700527E-05
6.235294E+03	3.241203E-03	4.705068E-05
6.245098E+03	3.233363E-03	4.709541E-05
6.254902E+03	3.225557E-03	4.713654E-05
6.264706E+03	3.218154E-03	4.717952E-05
6.274510E+03	3.210768E-03	4.721873E-05
6.284314E+03	3.203765E-03	4.725963E-05
6.294118E+03	3.196762E-03	4.729659E-05
6.303922E+03	3.189941E-03	4.733237E-05
6.313725E+03	3.183297E-03	4.736691E-05
6.323529E+03	3.177013E-03	4.740301E-05
6.333333E+03	3.170711E-03	4.743509E-05
6.343137E+03	3.164578E-03	4.746595E-05
6.352941E+03	3.158426E-03	4.749283E-05
6.362745E+03	3.152630E-03	4.752141E-05
6.372549E+03	3.147004E-03	4.754895E-05
6.382353E+03	3.141552E-03	4.757555E-05
6.392157E+03	3.136280E-03	4.760134E-05
6.401961E+03	3.131006E-03	4.762362E-05
6.411765E+03	3.126109E-03	4.764817E-05
6.421569E+03	3.121227E-03	4.766956E-05
6.431373E+03	3.116739E-03	4.769360E-05
6.441176E+03	3.112285E-03	4.771484E-05
6.450980E+03	3.108248E-03	4.773919E-05
6.460784E+03	3.104269E-03	4.776123E-05
6.470588E+03	3.100548E-03	4.778404E-05
6.480392E+03	3.097283E-03	4.781074E-05
6.490196E+03	3.094122E-03	4.783596E-05
6.500000E+03	3.091265E-03	4.786283E-05
6.509804E+03	3.088915E-03	4.789456E-05
6.519608E+03	3.086720E-03	4.792575E-05
6.529412E+03	3.084884E-03	4.795962E-05
6.539216E+03	3.083427E-03	4.799653E-05
6.549020E+03	3.082371E-03	4.803686E-05
6.558824E+03	3.081735E-03	4.808099E-05
6.568627E+03	3.081541E-03	4.812932E-05
6.578431E+03	3.081812E-03	4.818227E-05
6.588235E+03	3.082571E-03	4.824022E-05
6.598039E+03	3.083841E-03	4.830363E-05
6.607843E+03	3.085646E-03	4.837289E-05
6.617647E+03	3.088010E-03	4.844846E-05
6.627451E+03	3.090957E-03	4.853077E-05
6.637255E+03	3.094512E-03	4.862026E-05
6.647059E+03	3.098699E-03	4.871737E-05
6.656863E+03	3.103544E-03	4.882257E-05
6.666667E+03	3.108885E-03	4.893332E-05
6.676471E+03	3.115121E-03	4.905599E-05
6.686275E+03	3.122089E-03	4.918808E-05
6.696078E+03	3.129818E-03	4.933004E-05
6.705882E+03	3.138139E-03	4.947932E-05
6.715686E+03	3.147459E-03	4.964233E-05
6.725490E+03	3.157613E-03	4.981655E-05
6.735294E+03	3.168625E-03	5.000242E-05
6.745098E+03	3.180327E-03	5.019729E-05
6.754902E+03	3.193129E-03	5.040771E-05
6.764706E+03	3.206861E-03	5.063103E-05
6.774510E+03	3.221352E-03	5.086460E-05
6.784314E+03	3.237014E-03	5.111497E-05
6.794118E+03	3.253478E-03	5.137636E-05
6.803922E+03	3.271161E-03	5.165539E-05
6.813725E+03	3.289685E-03	5.194614E-05
6.823529E+03	3.309471E-03	5.225531E-05
6.833333E+03	3.330136E-03	5.257690E-05
6.843137E+03	3.352105E-03	5.291765E-05
6.852941E+03	3.374986E-03	5.327142E-05
6.862745E+03	3.399207E-03	5.364503E-05
6.872549E+03	3.424370E-03	5.403223E-05
6.882353E+03	3.450694E-03	5.443654E-05
6.892157E+03	3.478407E-03	5.486161E-05
6.901961E+03	3.507094E-03	5.530094E-05
6.911765E+03	3.536976E-03	5.575810E-05
6.921569E+03	3.568281E-03	5.623671E-05
6.931373E+03	3.600578E-03	5.673006E-05
6.941176E+03	3.634088E-03	5.724172E-05
6.950980E+03	3.668813E-03	5.777178E-05
6.960784E+03	3.704752E-03	5.832029E-05
6.970588E+03	3.741901E-03	5.888730E-05
6.980392E+03	3.780254E-03	5.947281E-05
6.990196E+03	3.819804E-03	6.007679E-05
7.000000E+03	3.860536E-03	6.069911E-05
7.009804E+03	3.902435E-03	6.133966E-05
7.019608E+03	3.945237E-03	6.199440E-05
7.029412E+03	3.989406E-03	6.267075E-05
7.039216E+03	4.034671E-03	6.336461E-05
7.049020E+03	4.081000E-03	6.407561E-05
7.058824E+03	4.128100E-03	6.479930E-05
7.068627E+03	4.176439E-03	6.554322E-05
7.078431E+03	4.225451E-03	6.629867E-05
7.088235E+03	4.275342E-03	6.706904E-05
7.098039E+03	4.326321E-03	6.785784E-05
7.107843E+03	4.377786E-03	6.865582E-05
7.117647E+03	4.429928E-03	6.946624E-05
7.127451E+03	4.482670E-03	7.028810E-05
7.137255E+03	4.535923E-03	7.112025E-05
7.147059E+03	4.589591E-03	7.196147E-05
7.156863E+03	4.643570E-03	7.281038E-05
7.166667E+03	4.697746E-03	7.366549E-05
7.176471E+03	4.751997E-03	7.452520E-05
7.186275E+03	4.805889E-03	7.538297E-05
7.196078E+03	4.859881E-03	7.624633E-05
7.205882E+03	4.913211E-03	7.710366E-05
7.215686E+03	4.966334E-03	7.796242E-05
7.225490E+03	5.018453E-03	7.881042E-05
7.235294E+03	5.069694E-03	7.964997E-05
7.245098E+03	5.119865E-03	8.047840E-05
7.254902E+03	5.168764E-03	8.129288E-05
7.264706E+03	5.216181E-03	8.209041E-05
7.274510E+03	5.261569E-03	8.286273E-05
7.284314E+03	5.305375E-03	8.361715E-05
7.294118E+03	5.347054E-03	8.434543E-05
7.303922E+03	5.386054E-03	8.503911E-05
7.313725E+03	5.422517E-03	8.570071E-05
7.323529E+03	5.456269E-03	8.632769E-05
7.333333E+03	5.487160E-03	8.691791E-05
7.343137E+03	5.515072E-03	8.746968E-05
7.352941E+03	5.539915E-03	8.798173E-05
7.362745E+03	5.561616E-03	8.845305E-05
7.372549E+03	5.579741E-03	8.887682E-05
7.382353E+03	5.594930E-03	8.926329E-05
7.392157E+03	5.606399E-03	8.960000E-05
7.401961E+03	5.614472E-03	8.989210E-05
7.411765E+03	5.619150E-03	9.013953E-05
7.421569E+03	5.620465E-03	9.034277E-05
7.431373E+03	5.618481E-03	9.050270E-05
7.441176E+03	5.612917E-03	9.061466E-05
7.450980E+03	5.604601E-03	9.069183E-05
7.460784E+03	5.592922E-03	9.072397E-05
7.470588E+03	5.578363E-03	9.071837E-05
7.480392E+03	5.561050E-03	9.067654E-05
7.490196E+03	5.541111E-03	9.059997E-05
7.500000E+03	5.518312E-03	9.048423E-05
7.509804E+03	5.493502E-03	9.034263E-05
7.519608E+03	5.466082E-03	9.016475E-05
7.529412E+03	5.436536E-03	8.995791E-05
7.539216E+03	5.404980E-03	8.972340E-05
7.549020E+03	5.371528E-03	8.946253E-05
7.558824E+03	5.336290E-03	8.917650E-05
7.568627E+03	5.299023E-03	8.886065E-05
7.578431E+03	5.260531E-03	8.852779E-05
7.588235E+03	5.220216E-03	8.816732E-05
7.598039E+03	5.178525E-03	8.778614E-05
7.607843E+03	5.135549E-03	8.738523E-05
