#wls	flux	fluxerr
1.568627E+03	1.678561E-04	5.711617E-06
1.607843E+03	1.692607E-04	5.735615E-06
1.647059E+03	1.704961E-04	5.752940E-06
1.686275E+03	1.715853E-04	5.764416E-06
1.725490E+03	1.724828E-04	5.768560E-06
1.764706E+03	1.731963E-04	5.765702E-06
1.803922E+03	1.735971E-04	5.751638E-06
1.843137E+03	1.736318E-04	5.724746E-06
1.882353E+03	1.731846E-04	5.681391E-06
1.921569E+03	1.722559E-04	5.621819E-06
1.960784E+03	1.708183E-04	5.545386E-06
2.000000E+03	1.691206E-04	5.460393E-06
2.039216E+03	1.676516E-04	5.382686E-06
2.078431E+03	1.671187E-04	5.334722E-06
2.117647E+03	1.681786E-04	5.336824E-06
2.156863E+03	1.710960E-04	5.396418E-06
2.196078E+03	1.756365E-04	5.505032E-06
2.235294E+03	1.812743E-04	5.645265E-06
2.274510E+03	1.874826E-04	5.800079E-06
2.313725E+03	1.939269E-04	5.958750E-06
2.352941E+03	2.003550E-04	6.113343E-06
2.392157E+03	2.067706E-04	6.263879E-06
2.431373E+03	2.131554E-04	6.409728E-06
2.470588E+03	2.195604E-04	6.552330E-06
2.509804E+03	2.260520E-04	6.693539E-06
2.549020E+03	2.327014E-04	6.835289E-06
2.588235E+03	2.396183E-04	6.980562E-06
2.627451E+03	2.468382E-04	7.130080E-06
2.666667E+03	2.544721E-04	7.286689E-06
2.705882E+03	2.625548E-04	7.450945E-06
2.745098E+03	2.711613E-04	7.624489E-06
2.784314E+03	2.804131E-04	7.810163E-06
2.823529E+03	2.903533E-04	8.008503E-06
2.862745E+03	3.011176E-04	8.222508E-06
2.901961E+03	3.127614E-04	8.452829E-06
2.941176E+03	3.253917E-04	8.701418E-06
2.950980E+03	3.287459E-04	8.767431E-06
2.960784E+03	3.321192E-04	8.833368E-06
2.970588E+03	3.356114E-04	8.901868E-06
2.980392E+03	3.391777E-04	8.971719E-06
2.990196E+03	3.428272E-04	9.043137E-06
3.000000E+03	3.465694E-04	9.116354E-06
3.009804E+03	3.504043E-04	9.191346E-06
3.019608E+03	3.543322E-04	9.268096E-06
3.029412E+03	3.584059E-04	9.347955E-06
3.039216E+03	3.625218E-04	9.428194E-06
3.049020E+03	3.667858E-04	9.511547E-06
3.058824E+03	3.710927E-04	9.595257E-06
3.068627E+03	3.755510E-04	9.682106E-06
3.078431E+03	3.801085E-04	9.770714E-06
3.088235E+03	3.847667E-04	9.861094E-06
3.098039E+03	3.894711E-04	9.951826E-06
3.107843E+03	3.943916E-04	1.004722E-05
3.117647E+03	3.993619E-04	1.014301E-05
3.127451E+03	4.044399E-04	1.024063E-05
3.137255E+03	4.096277E-04	1.034012E-05
3.147059E+03	4.149868E-04	1.044298E-05
3.156863E+03	4.204015E-04	1.054628E-05
3.166667E+03	4.259934E-04	1.065303E-05
3.176471E+03	4.316446E-04	1.076025E-05
3.186275E+03	4.374793E-04	1.087100E-05
3.196078E+03	4.434396E-04	1.098382E-05
3.205882E+03	4.495285E-04	1.109872E-05
3.215686E+03	4.557485E-04	1.121574E-05
3.225490E+03	4.621026E-04	1.133492E-05
3.235294E+03	4.685937E-04	1.145629E-05
3.245098E+03	4.752248E-04	1.157989E-05
3.254902E+03	4.820662E-04	1.170737E-05
3.264706E+03	4.889874E-04	1.183554E-05
3.274510E+03	4.961266E-04	1.196768E-05
3.284314E+03	5.033503E-04	1.210055E-05
3.294118E+03	5.108002E-04	1.223750E-05
3.303922E+03	5.184108E-04	1.237691E-05
3.313725E+03	5.261853E-04	1.251881E-05
3.323529E+03	5.341271E-04	1.266323E-05
3.333333E+03	5.422396E-04	1.281021E-05
3.343137E+03	5.505260E-04	1.295978E-05
3.352941E+03	5.589899E-04	1.311196E-05
3.362745E+03	5.676344E-04	1.326678E-05
3.372549E+03	5.765414E-04	1.342609E-05
3.382353E+03	5.855589E-04	1.358630E-05
3.392157E+03	5.947675E-04	1.374923E-05
3.401961E+03	6.042517E-04	1.391678E-05
3.411765E+03	6.139367E-04	1.408714E-05
3.421569E+03	6.237414E-04	1.425841E-05
3.431373E+03	6.338364E-04	1.443444E-05
3.441176E+03	6.441419E-04	1.461333E-05
3.450980E+03	6.546623E-04	1.479512E-05
3.460784E+03	6.654014E-04	1.497984E-05
3.470588E+03	6.763623E-04	1.516748E-05
3.480392E+03	6.875500E-04	1.535810E-05
3.490196E+03	6.989672E-04	1.555169E-05
3.500000E+03	7.106182E-04	1.574828E-05
3.509804E+03	7.226023E-04	1.594999E-05
3.519608E+03	7.347346E-04	1.615265E-05
3.529412E+03	7.472115E-04	1.636053E-05
3.539216E+03	7.598418E-04	1.656936E-05
3.549020E+03	7.728266E-04	1.678345E-05
3.558824E+03	7.859702E-04	1.699847E-05
3.568627E+03	7.994794E-04	1.721883E-05
3.578431E+03	8.132571E-04	1.744233E-05
3.588235E+03	8.273086E-04	1.766901E-05
3.598039E+03	8.416368E-04	1.789885E-05
3.607843E+03	8.561357E-04	1.812953E-05
3.617647E+03	8.710290E-04	1.836569E-05
3.627451E+03	8.862116E-04	1.860504E-05
3.637255E+03	9.018024E-04	1.884995E-05
3.647059E+03	9.175776E-04	1.909566E-05
3.656863E+03	9.336545E-04	1.934453E-05
3.666667E+03	9.500363E-04	1.959654E-05
3.676471E+03	9.667273E-04	1.985170E-05
3.686275E+03	9.838554E-04	2.011251E-05
3.696078E+03	1.001177E-03	2.037390E-05
3.705882E+03	1.018819E-03	2.063837E-05
3.715686E+03	1.036913E-03	2.090849E-05
3.725490E+03	1.055206E-03	2.117902E-05
3.735294E+03	1.073960E-03	2.145517E-05
3.745098E+03	1.092913E-03	2.173157E-05
3.754902E+03	1.112338E-03	2.201356E-05
3.764706E+03	1.131961E-03	2.229563E-05
3.774510E+03	1.152062E-03	2.258318E-05
3.784314E+03	1.172506E-03	2.287343E-05
3.794118E+03	1.193144E-03	2.316340E-05
3.803922E+03	1.214269E-03	2.345871E-05
3.813725E+03	1.235737E-03	2.375641E-05
3.823529E+03	1.257545E-03	2.405637E-05
3.833333E+03	1.279538E-03	2.435551E-05
3.843137E+03	1.302023E-03	2.465960E-05
3.852941E+03	1.324843E-03	2.496556E-05
3.862745E+03	1.347995E-03	2.527322E-05
3.872549E+03	1.371477E-03	2.558242E-05
3.882353E+03	1.395114E-03	2.588985E-05
3.892157E+03	1.419235E-03	2.620152E-05
3.901961E+03	1.443668E-03	2.651416E-05
3.911765E+03	1.468407E-03	2.682753E-05
3.921569E+03	1.493444E-03	2.714140E-05
3.931373E+03	1.518770E-03	2.745555E-05
3.941176E+03	1.544375E-03	2.776971E-05
3.950980E+03	1.570063E-03	2.808028E-05
3.960784E+03	1.596192E-03	2.839363E-05
3.970588E+03	1.622565E-03	2.870614E-05
3.980392E+03	1.649170E-03	2.901753E-05
3.990196E+03	1.675992E-03	2.932748E-05
4.000000E+03	1.703014E-03	2.963565E-05
4.009804E+03	1.730019E-03	2.993821E-05
4.019608E+03	1.757391E-03	3.024180E-05
4.029412E+03	1.784912E-03	3.054258E-05
4.039216E+03	1.812563E-03	3.084021E-05
4.049020E+03	1.840322E-03	3.113428E-05
4.058824E+03	1.867953E-03	3.142080E-05
4.068627E+03	1.895863E-03	3.170666E-05
4.078431E+03	1.923816E-03	3.198784E-05
4.088235E+03	1.951565E-03	3.226025E-05
4.098039E+03	1.979531E-03	3.253092E-05
4.107843E+03	2.007470E-03	3.279579E-05
4.117647E+03	2.035123E-03	3.305072E-05
4.127451E+03	2.062929E-03	3.330286E-05
4.137255E+03	2.090396E-03	3.354432E-05
4.147059E+03	2.117972E-03	3.378237E-05
4.156863E+03	2.145155E-03	3.400903E-05
4.166667E+03	2.172160E-03	3.422786E-05
4.176471E+03	2.199212E-03	3.444243E-05
4.186275E+03	2.225797E-03	3.464477E-05
4.196078E+03	2.252139E-03	3.483851E-05
4.205882E+03	2.278217E-03	3.502345E-05
4.215686E+03	2.304015E-03	3.519945E-05
4.225490E+03	2.329776E-03	3.537029E-05
4.235294E+03	2.354965E-03	3.552798E-05
4.245098E+03	2.379826E-03	3.567637E-05
4.254902E+03	2.404079E-03	3.581142E-05
4.264706E+03	2.428243E-03	3.594103E-05
4.274510E+03	2.452040E-03	3.606119E-05
4.284314E+03	2.475460E-03	3.617190E-05
4.294118E+03	2.498215E-03	3.626913E-05
4.303922E+03	2.520843E-03	3.636088E-05
4.313725E+03	2.542782E-03	3.643918E-05
4.323529E+03	2.564584E-03	3.651214E-05
4.333333E+03	2.585686E-03	3.657188E-05
4.343137E+03	2.606645E-03	3.662647E-05
4.352941E+03	2.626891E-03	3.666807E-05
4.362745E+03	2.646703E-03	3.670079E-05
4.372549E+03	2.666079E-03	3.672478E-05
4.382353E+03	2.685020E-03	3.674022E-05
4.392157E+03	2.703526E-03	3.674728E-05
4.401961E+03	2.721599E-03	3.674611E-05
4.411765E+03	2.738951E-03	3.673296E-05
4.421569E+03	2.756179E-03	3.671596E-05
4.431373E+03	2.772699E-03	3.668744E-05
4.441176E+03	2.789117E-03	3.665555E-05
4.450980E+03	2.804851E-03	3.661273E-05
4.460784E+03	2.820213E-03	3.656318E-05
4.470588E+03	2.835522E-03	3.651116E-05
4.480392E+03	2.850194E-03	3.644917E-05
4.490196E+03	2.864552E-03	3.638151E-05
4.500000E+03	2.878616E-03	3.630850E-05
4.509804E+03	2.892102E-03	3.622668E-05
4.519608E+03	2.905647E-03	3.614413E-05
4.529412E+03	2.918662E-03	3.605355E-05
4.539216E+03	2.931789E-03	3.596297E-05
4.549020E+03	2.944434E-03	3.586515E-05
4.558824E+03	2.957246E-03	3.576804E-05
4.568627E+03	2.969629E-03	3.566448E-05
4.578431E+03	2.981922E-03	3.555862E-05
4.588235E+03	2.994150E-03	3.545079E-05
4.598039E+03	3.006027E-03	3.533769E-05
4.607843E+03	3.018207E-03	3.522702E-05
4.617647E+03	3.030403E-03	3.511544E-05
4.627451E+03	3.042324E-03	3.499960E-05
4.637255E+03	3.054312E-03	3.488350E-05
4.647059E+03	3.066709E-03	3.477104E-05
4.656863E+03	3.078905E-03	3.465527E-05
4.666667E+03	3.091240E-03	3.454010E-05
4.676471E+03	3.103739E-03	3.442579E-05
4.686275E+03	3.116101E-03	3.430904E-05
4.696078E+03	3.128991E-03	3.419718E-05
4.705882E+03	3.141785E-03	3.408338E-05
4.715686E+03	3.155147E-03	3.397487E-05
4.725490E+03	3.168451E-03	3.386487E-05
4.735294E+03	3.182036E-03	3.375705E-05
4.745098E+03	3.195921E-03	3.365162E-05
4.754902E+03	3.210118E-03	3.354871E-05
4.764706E+03	3.224645E-03	3.344849E-05
4.774510E+03	3.239184E-03	3.334772E-05
4.784314E+03	3.254405E-03	3.325332E-05
4.794118E+03	3.269659E-03	3.315865E-05
4.803922E+03	3.285287E-03	3.306723E-05
4.813725E+03	3.301296E-03	3.297916E-05
4.823529E+03	3.317693E-03	3.289453E-05
4.833333E+03	3.334485E-03	3.281345E-05
4.843137E+03	3.351675E-03	3.273600E-05
4.852941E+03	3.368927E-03	3.265897E-05
4.862745E+03	3.386921E-03	3.258902E-05
4.872549E+03	3.404976E-03	3.251966E-05
4.882353E+03	3.423429E-03	3.245423E-05
4.892157E+03	3.442278E-03	3.239280E-05
4.901961E+03	3.461518E-03	3.233543E-05
4.911765E+03	3.481142E-03	3.228215E-05
4.921569E+03	3.501140E-03	3.223301E-05
4.931373E+03	3.521153E-03	3.218485E-05
4.941176E+03	3.541869E-03	3.214415E-05
4.950980E+03	3.562568E-03	3.210452E-05
4.960784E+03	3.583588E-03	3.206922E-05
4.970588E+03	3.604910E-03	3.203829E-05
4.980392E+03	3.626512E-03	3.201174E-05
4.990196E+03	3.648011E-03	3.198645E-05
5.000000E+03	3.670106E-03	3.196881E-05
5.009804E+03	3.692043E-03	3.195250E-05
5.019608E+03	3.714524E-03	3.194388E-05
5.029412E+03	3.736782E-03	3.193665E-05
5.039216E+03	3.759152E-03	3.193403E-05
5.049020E+03	3.781599E-03	3.193604E-05
5.058824E+03	3.803708E-03	3.193954E-05
5.068627E+03	3.826189E-03	3.195089E-05
5.078431E+03	3.848247E-03	3.196379E-05
5.088235E+03	3.870594E-03	3.198458E-05
5.098039E+03	3.892425E-03	3.200699E-05
5.107843E+03	3.914071E-03	3.203419E-05
5.117647E+03	3.935481E-03	3.206618E-05
5.127451E+03	3.956607E-03	3.210301E-05
5.137255E+03	3.977002E-03	3.214151E-05
5.147059E+03	3.997395E-03	3.218803E-05
5.156863E+03	4.016946E-03	3.223624E-05
5.166667E+03	4.036386E-03	3.229247E-05
5.176471E+03	4.054870E-03	3.235039E-05
5.186275E+03	4.072736E-03	3.241315E-05
5.196078E+03	4.089927E-03	3.248075E-05
5.205882E+03	4.105987E-03	3.254997E-05
5.215686E+03	4.121661E-03	3.262714E-05
5.225490E+03	4.136092E-03	3.270585E-05
5.235294E+03	4.150032E-03	3.279243E-05
5.245098E+03	4.162623E-03	3.288043E-05
5.254902E+03	4.174218E-03	3.297298E-05
5.264706E+03	4.184771E-03	3.306997E-05
5.274510E+03	4.194235E-03	3.317131E-05
5.284314E+03	4.202569E-03	3.327676E-05
5.294118E+03	4.209323E-03	3.338258E-05
5.303922E+03	4.215275E-03	3.349466E-05
5.313725E+03	4.219572E-03	3.360596E-05
5.323529E+03	4.222592E-03	3.371911E-05
5.333333E+03	4.224304E-03	3.383353E-05
5.343137E+03	4.224683E-03	3.394860E-05
5.352941E+03	4.223707E-03	3.406370E-05
5.362745E+03	4.221356E-03	3.417823E-05
5.372549E+03	4.217210E-03	3.428826E-05
5.382353E+03	4.212076E-03	3.439984E-05
5.392157E+03	4.205138E-03	3.450577E-05
5.401961E+03	4.197219E-03	3.461223E-05
5.411765E+03	4.187523E-03	3.471210E-05
5.421569E+03	4.176476E-03	3.480830E-05
5.431373E+03	4.164106E-03	3.490046E-05
5.441176E+03	4.150038E-03	3.498482E-05
5.450980E+03	4.135109E-03	3.506781E-05
5.460784E+03	4.118952E-03	3.514575E-05
5.470588E+03	4.101209E-03	3.521496E-05
5.480392E+03	4.082321E-03	3.527860E-05
5.490196E+03	4.062723E-03	3.533984E-05
5.500000E+03	4.041675E-03	3.539169E-05
5.509804E+03	4.019621E-03	3.543742E-05
5.519608E+03	3.996609E-03	3.547691E-05
5.529412E+03	3.972312E-03	3.550669E-05
5.539216E+03	3.947549E-03	3.553351E-05
5.549020E+03	3.921993E-03	3.555398E-05
5.558824E+03	3.895326E-03	3.556470E-05
5.568627E+03	3.867986E-03	3.556916E-05
5.578431E+03	3.840400E-03	3.557087E-05
5.588235E+03	3.811888E-03	3.556313E-05
5.598039E+03	3.782879E-03	3.554949E-05
5.607843E+03	3.753434E-03	3.553015E-05
5.617647E+03	3.723610E-03	3.550529E-05
5.627451E+03	3.693111E-03	3.547175E-05
5.637255E+03	3.662703E-03	3.543655E-05
5.647059E+03	3.632086E-03	3.539655E-05
5.656863E+03	3.600968E-03	3.534863E-05
5.666667E+03	3.569753E-03	3.529647E-05
5.676471E+03	3.538828E-03	3.524371E-05
5.686275E+03	3.507561E-03	3.518390E-05
5.696078E+03	3.476341E-03	3.512070E-05
5.705882E+03	3.445211E-03	3.505443E-05
5.715686E+03	3.414214E-03	3.498537E-05
5.725490E+03	3.383389E-03	3.491382E-05
5.735294E+03	3.352451E-03	3.483673E-05
5.745098E+03	3.322083E-03	3.476110E-05
5.754902E+03	3.291676E-03	3.468052E-05
5.764706E+03	3.261895E-03	3.460194E-05
5.774510E+03	3.232141E-03	3.451898E-05
5.784314E+03	3.203062E-03	3.443855E-05
5.794118E+03	3.174067E-03	3.435429E-05
5.803922E+03	3.145485E-03	3.426976E-05
5.813725E+03	3.117339E-03	3.418520E-05
5.823529E+03	3.089647E-03	3.410085E-05
5.833333E+03	3.062423E-03	3.401692E-05
5.843137E+03	3.035394E-03	3.393039E-05
5.852941E+03	3.009156E-03	3.384796E-05
5.862745E+03	2.983427E-03	3.376657E-05
5.872549E+03	2.957933E-03	3.368318E-05
5.882353E+03	2.933254E-03	3.360442E-05
5.892157E+03	2.908831E-03	3.352401E-05
5.901961E+03	2.885230E-03	3.344854E-05
5.911765E+03	2.861901E-03	3.337174E-05
5.921569E+03	2.839126E-03	3.329695E-05
5.931373E+03	2.816908E-03	3.322430E-05
5.941176E+03	2.795248E-03	3.315392E-05
5.950980E+03	2.774148E-03	3.308590E-05
5.960784E+03	2.753606E-03	3.302037E-05
5.970588E+03	2.733624E-03	3.295740E-05
5.980392E+03	2.714200E-03	3.289710E-05
5.990196E+03	2.695071E-03	3.283637E-05
6.000000E+03	2.676755E-03	3.278162E-05
6.009804E+03	2.658989E-03	3.272975E-05
6.019608E+03	2.641516E-03	3.267768E-05
6.029412E+03	2.624839E-03	3.263175E-05
6.039216E+03	2.608451E-03	3.258576E-05
6.049020E+03	2.592598E-03	3.254285E-05
6.058824E+03	2.577276E-03	3.250310E-05
6.068627E+03	2.562727E-03	3.246965E-05
6.078431E+03	2.548451E-03	3.243629E-05
6.088235E+03	2.534691E-03	3.240619E-05
6.098039E+03	2.521440E-03	3.237935E-05
6.107843E+03	2.508695E-03	3.235582E-05
6.117647E+03	2.496447E-03	3.233561E-05
6.127451E+03	2.484694E-03	3.231876E-05
6.137255E+03	2.473429E-03	3.230527E-05
6.147059E+03	2.462408E-03	3.229205E-05
6.156863E+03	2.452103E-03	3.228536E-05
6.166667E+03	2.442270E-03	3.228209E-05
6.176471E+03	2.432670E-03	3.227915E-05
6.186275E+03	2.423767E-03	3.228278E-05
6.196078E+03	2.415088E-03	3.228678E-05
6.205882E+03	2.407096E-03	3.229739E-05
6.215686E+03	2.399322E-03	3.230842E-05
6.225490E+03	2.391993E-03	3.232298E-05
6.235294E+03	2.385337E-03	3.234423E-05
6.245098E+03	2.378889E-03	3.236595E-05
6.254902E+03	2.372877E-03	3.239131E-05
6.264706E+03	2.367298E-03	3.242031E-05
6.274510E+03	2.362377E-03	3.245615E-05
6.284314E+03	2.357656E-03	3.249257E-05
6.294118E+03	2.353362E-03	3.253278E-05
6.303922E+03	2.349492E-03	3.257679E-05
6.313725E+03	2.346047E-03	3.262467E-05
6.323529E+03	2.343024E-03	3.267647E-05
6.333333E+03	2.340199E-03	3.272907E-05
6.343137E+03	2.338022E-03	3.278887E-05
6.352941E+03	2.336269E-03	3.285277E-05
6.362745E+03	2.334941E-03	3.292084E-05
6.372549E+03	2.333811E-03	3.298995E-05
6.382353E+03	2.333336E-03	3.306658E-05
6.392157E+03	2.333289E-03	3.314762E-05
6.401961E+03	2.333449E-03	3.322994E-05
6.411765E+03	2.334269E-03	3.332007E-05
6.421569E+03	2.335301E-03	3.341164E-05
6.431373E+03	2.337002E-03	3.351125E-05
6.441176E+03	2.338922E-03	3.361252E-05
6.450980E+03	2.341518E-03	3.372205E-05
6.460784E+03	2.344343E-03	3.383343E-05
6.470588E+03	2.347628E-03	3.395007E-05
6.480392E+03	2.351608E-03	3.407540E-05
6.490196E+03	2.355831E-03	3.420293E-05
6.500000E+03	2.360531E-03	3.433610E-05
6.509804E+03	2.365718E-03	3.447508E-05
6.519608E+03	2.371627E-03	3.462337E-05
6.529412E+03	2.377805E-03	3.477440E-05
6.539216E+03	2.384491E-03	3.493170E-05
6.549020E+03	2.391692E-03	3.509540E-05
6.558824E+03	2.399416E-03	3.526568E-05
6.568627E+03	2.407672E-03	3.544272E-05
6.578431E+03	2.416471E-03	3.562670E-05
6.588235E+03	2.425819E-03	3.581777E-05
6.598039E+03	2.435726E-03	3.601613E-05
6.607843E+03	2.446203E-03	3.622197E-05
6.617647E+03	2.457019E-03	3.643190E-05
6.627451E+03	2.468661E-03	3.665320E-05
6.637255E+03	2.480904E-03	3.688255E-05
6.647059E+03	2.493755E-03	3.712012E-05
6.656863E+03	2.506979E-03	3.736246E-05
6.666667E+03	2.521077E-03	3.761704E-05
6.676471E+03	2.535814E-03	3.788044E-05
6.686275E+03	2.550950E-03	3.814908E-05
6.696078E+03	2.566995E-03	3.843064E-05
6.705882E+03	2.583709E-03	3.872158E-05
6.715686E+03	2.600847E-03	3.901826E-05
6.725490E+03	2.618927E-03	3.932850E-05
6.735294E+03	2.637446E-03	3.964478E-05
6.745098E+03	2.656929E-03	3.997504E-05
6.754902E+03	2.676865E-03	4.031164E-05
6.764706E+03	2.697519E-03	4.065861E-05
6.774510E+03	2.719167E-03	4.102014E-05
6.784314E+03	2.741284E-03	4.138838E-05
6.794118E+03	2.764139E-03	4.176743E-05
6.803922E+03	2.788014E-03	4.216160E-05
6.813725E+03	2.812366E-03	4.256272E-05
6.823529E+03	2.837469E-03	4.297501E-05
6.833333E+03	2.863328E-03	4.339857E-05
6.843137E+03	2.889943E-03	4.383346E-05
6.852941E+03	2.917314E-03	4.427975E-05
6.862745E+03	2.945730E-03	4.474187E-05
6.872549E+03	2.974611E-03	4.521107E-05
6.882353E+03	3.004240E-03	4.569170E-05
6.892157E+03	3.034609E-03	4.618374E-05
6.901961E+03	3.065409E-03	4.668251E-05
6.911765E+03	3.097233E-03	4.719711E-05
6.921569E+03	3.129769E-03	4.772288E-05
6.931373E+03	3.163001E-03	4.825963E-05
6.941176E+03	3.196914E-03	4.880721E-05
6.950980E+03	3.231489E-03	4.936542E-05
6.960784E+03	3.266379E-03	4.992902E-05
6.970588E+03	3.302204E-03	5.050758E-05
6.980392E+03	3.338615E-03	5.109586E-05
6.990196E+03	3.375585E-03	5.169351E-05
7.000000E+03	3.412736E-03	5.229486E-05
7.009804E+03	3.450708E-03	5.290982E-05
7.019608E+03	3.488778E-03	5.352737E-05
7.029412E+03	3.527592E-03	5.415754E-05
7.039216E+03	3.566403E-03	5.478898E-05
7.049020E+03	3.605866E-03	5.543186E-05
7.058824E+03	3.645212E-03	5.607447E-05
7.068627E+03	3.684737E-03	5.672147E-05
7.078431E+03	3.724750E-03	5.737774E-05
7.088235E+03	3.764446E-03	5.803101E-05
7.098039E+03	3.804122E-03	5.868598E-05
7.107843E+03	3.843704E-03	5.934163E-05
7.117647E+03	3.883505E-03	6.000292E-05
7.127451E+03	3.922671E-03	6.065680E-05
7.137255E+03	3.961505E-03	6.130807E-05
7.147059E+03	3.999920E-03	6.195552E-05
7.156863E+03	4.037828E-03	6.259792E-05
7.166667E+03	4.075140E-03	6.323403E-05
7.176471E+03	4.111763E-03	6.386253E-05
7.186275E+03	4.147605E-03	6.448211E-05
7.196078E+03	4.182573E-03	6.509146E-05
7.205882E+03	4.216149E-03	6.568263E-05
7.215686E+03	4.249083E-03	6.626743E-05
7.225490E+03	4.280863E-03	6.683800E-05
7.235294E+03	4.311398E-03	6.739301E-05
7.245098E+03	4.340160E-03	6.792433E-05
7.254902E+03	4.367936E-03	6.844434E-05
7.264706E+03	4.393762E-03	6.893804E-05
7.274510E+03	4.418443E-03	6.941815E-05
7.284314E+03	4.441011E-03	6.986950E-05
7.294118E+03	4.462288E-03	7.030510E-05
7.303922E+03	4.481304E-03	7.070970E-05
7.313725E+03	4.498441E-03	7.108938E-05
7.323529E+03	4.514096E-03	7.145042E-05
7.333333E+03	4.527297E-03	7.177745E-05
7.343137E+03	4.538442E-03	7.207678E-05
7.352941E+03	4.547482E-03	7.234758E-05
7.362745E+03	4.554366E-03	7.258901E-05
7.372549E+03	4.559062E-03	7.280050E-05
7.382353E+03	4.561557E-03	7.298179E-05
7.392157E+03	4.561841E-03	7.313261E-05
7.401961E+03	4.559910E-03	7.325282E-05
7.411765E+03	4.555764E-03	7.334228E-05
7.421569E+03	4.549409E-03	7.340096E-05
7.431373E+03	4.540390E-03	7.342135E-05
7.441176E+03	4.529653E-03	7.341848E-05
7.450980E+03	4.516757E-03	7.338486E-05
7.460784E+03	4.501269E-03	7.331310E-05
7.470588E+03	4.484147E-03	7.321841E-05
7.480392E+03	4.464515E-03	7.308610E-05
7.490196E+03	4.443335E-03	7.293154E-05
7.500000E+03	4.419747E-03	7.274021E-05
7.509804E+03	4.394268E-03	7.252019E-05
7.519608E+03	4.366963E-03	7.227213E-05
7.529412E+03	4.338345E-03	7.200414E-05
7.539216E+03	4.307589E-03	7.170214E-05
7.549020E+03	4.275220E-03	7.137444E-05
7.558824E+03	4.241315E-03	7.102190E-05
7.568627E+03	4.205956E-03	7.064549E-05
7.578431E+03	4.169223E-03	7.024617E-05
7.588235E+03	4.131199E-03	6.982495E-05
7.598039E+03	4.091543E-03	6.937568E-05
7.607843E+03	4.051191E-03	6.891382E-05
