#wls	flux	fluxerr
1.584158E+03	5.173272E-18	6.564206E-22
1.623762E+03	5.550212E-18	7.042494E-22
1.663366E+03	5.872964E-18	7.452023E-22
1.702970E+03	6.126229E-18	7.773383E-22
1.742574E+03	6.296263E-18	7.989135E-22
1.782178E+03	6.352780E-18	8.060848E-22
1.821782E+03	6.263857E-18	7.948016E-22
1.861386E+03	6.001677E-18	7.615344E-22
1.900990E+03	5.554901E-18	7.048443E-22
1.940594E+03	4.943400E-18	6.272529E-22
1.980198E+03	4.233594E-18	5.371877E-22
2.019802E+03	3.536524E-18	4.487387E-22
2.059406E+03	2.977374E-18	3.777898E-22
2.099010E+03	2.655685E-18	3.369717E-22
2.138614E+03	2.633877E-18	3.342045E-22
2.178218E+03	2.959617E-18	3.755366E-22
2.217822E+03	3.694315E-18	4.687603E-22
2.257426E+03	4.909862E-18	6.229973E-22
2.297030E+03	6.670127E-18	8.463519E-22
2.336634E+03	9.010494E-18	1.143314E-21
2.376238E+03	1.194224E-17	1.515314E-21
2.415842E+03	1.546019E-17	1.961696E-21
2.455446E+03	1.956112E-17	2.482050E-21
2.495050E+03	2.424914E-17	3.076899E-21
2.534653E+03	2.953682E-17	3.747836E-21
2.574257E+03	3.545017E-17	4.498163E-21
2.613861E+03	4.201582E-17	5.331259E-21
2.653465E+03	4.926957E-17	6.251664E-21
2.693069E+03	5.723247E-17	7.262052E-21
2.732673E+03	6.591925E-17	8.364291E-21
2.772277E+03	7.531988E-17	9.557108E-21
2.811881E+03	8.539311E-17	1.083527E-20
2.851485E+03	9.606112E-17	1.218890E-20
2.891089E+03	1.071829E-16	1.360010E-20
2.930693E+03	1.185930E-16	1.504790E-20
2.970297E+03	1.300645E-16	1.650348E-20
2.980198E+03	1.329142E-16	1.686508E-20
2.990099E+03	1.357402E-16	1.722366E-20
3.000000E+03	1.385421E-16	1.757918E-20
3.009901E+03	1.413213E-16	1.793182E-20
3.019802E+03	1.441077E-16	1.828538E-20
3.029703E+03	1.469270E-16	1.864311E-20
3.039604E+03	1.497589E-16	1.900245E-20
3.049505E+03	1.526065E-16	1.936376E-20
3.059406E+03	1.554545E-16	1.972514E-20
3.069307E+03	1.582927E-16	2.008527E-20
3.079208E+03	1.610974E-16	2.044115E-20
3.089109E+03	1.638649E-16	2.079231E-20
3.099010E+03	1.665717E-16	2.113577E-20
3.108911E+03	1.692077E-16	2.147024E-20
3.118812E+03	1.717560E-16	2.179359E-20
3.128713E+03	1.742003E-16	2.210374E-20
3.138614E+03	1.765310E-16	2.239947E-20
3.148515E+03	1.787323E-16	2.267879E-20
3.158416E+03	1.807887E-16	2.293971E-20
3.168317E+03	1.826918E-16	2.318120E-20
3.178218E+03	1.844276E-16	2.340144E-20
3.188119E+03	1.859823E-16	2.359872E-20
3.198020E+03	1.873498E-16	2.377223E-20
3.207921E+03	1.885182E-16	2.392048E-20
3.217822E+03	1.894766E-16	2.404209E-20
3.227723E+03	1.902218E-16	2.413665E-20
3.237624E+03	1.907515E-16	2.420386E-20
3.247525E+03	1.910523E-16	2.424203E-20
3.257426E+03	1.911307E-16	2.425197E-20
3.267327E+03	1.909704E-16	2.423163E-20
3.277228E+03	1.905867E-16	2.418294E-20
3.287129E+03	1.899726E-16	2.410502E-20
3.297030E+03	1.891291E-16	2.399799E-20
3.306931E+03	1.880702E-16	2.386362E-20
3.316832E+03	1.867945E-16	2.370176E-20
3.326733E+03	1.853088E-16	2.351324E-20
3.336634E+03	1.836319E-16	2.330046E-20
3.346535E+03	1.817688E-16	2.306405E-20
3.356436E+03	1.797317E-16	2.280557E-20
3.366337E+03	1.775398E-16	2.252745E-20
3.376238E+03	1.752089E-16	2.223168E-20
3.386139E+03	1.727567E-16	2.192053E-20
3.396040E+03	1.702029E-16	2.159649E-20
3.405941E+03	1.675648E-16	2.126175E-20
3.415842E+03	1.648698E-16	2.091979E-20
3.425743E+03	1.621429E-16	2.057378E-20
3.435644E+03	1.593996E-16	2.022569E-20
3.445545E+03	1.566766E-16	1.988018E-20
3.455446E+03	1.539977E-16	1.954026E-20
3.465347E+03	1.513931E-16	1.920976E-20
3.475248E+03	1.488955E-16	1.889285E-20
3.485149E+03	1.465377E-16	1.859368E-20
3.495050E+03	1.443595E-16	1.831729E-20
3.504950E+03	1.424017E-16	1.806887E-20
3.514851E+03	1.407164E-16	1.785503E-20
3.524752E+03	1.393572E-16	1.768256E-20
3.534653E+03	1.383875E-16	1.755952E-20
3.544554E+03	1.378878E-16	1.749612E-20
3.554455E+03	1.379546E-16	1.750460E-20
3.564356E+03	1.386311E-16	1.759043E-20
3.574257E+03	1.398309E-16	1.774267E-20
3.584158E+03	1.414624E-16	1.794968E-20
3.594059E+03	1.434622E-16	1.820344E-20
3.603960E+03	1.457664E-16	1.849581E-20
3.613861E+03	1.483318E-16	1.882133E-20
3.623762E+03	1.511194E-16	1.917503E-20
3.633663E+03	1.540879E-16	1.955170E-20
3.643564E+03	1.572083E-16	1.994763E-20
3.653465E+03	1.604556E-16	2.035968E-20
3.663366E+03	1.638064E-16	2.078484E-20
3.673267E+03	1.672377E-16	2.122023E-20
3.683168E+03	1.707325E-16	2.166367E-20
3.693069E+03	1.742791E-16	2.211369E-20
3.702970E+03	1.778631E-16	2.256845E-20
3.712871E+03	1.814771E-16	2.302702E-20
3.722772E+03	1.851101E-16	2.348801E-20
3.732673E+03	1.887576E-16	2.395083E-20
3.742574E+03	1.924075E-16	2.441395E-20
3.752475E+03	1.960589E-16	2.487726E-20
3.762376E+03	1.996997E-16	2.533924E-20
3.772277E+03	2.033261E-16	2.579937E-20
3.782178E+03	2.069308E-16	2.625676E-20
3.792079E+03	2.105066E-16	2.671048E-20
3.801980E+03	2.140427E-16	2.715917E-20
3.811881E+03	2.175317E-16	2.760187E-20
3.821782E+03	2.209693E-16	2.803806E-20
3.831683E+03	2.243496E-16	2.846697E-20
3.841584E+03	2.276621E-16	2.888728E-20
3.851485E+03	2.309102E-16	2.929942E-20
3.861386E+03	2.340908E-16	2.970301E-20
3.871287E+03	2.372068E-16	3.009838E-20
3.881188E+03	2.402634E-16	3.048622E-20
3.891089E+03	2.432721E-16	3.086798E-20
3.900990E+03	2.462373E-16	3.124422E-20
3.910891E+03	2.491745E-16	3.161691E-20
3.920792E+03	2.521000E-16	3.198812E-20
3.930693E+03	2.550211E-16	3.235876E-20
3.940594E+03	2.579567E-16	3.273124E-20
3.950495E+03	2.609115E-16	3.310616E-20
3.960396E+03	2.639008E-16	3.348546E-20
3.970297E+03	2.669250E-16	3.386919E-20
3.980198E+03	2.699946E-16	3.425867E-20
3.990099E+03	2.731053E-16	3.465338E-20
4.000000E+03	2.762637E-16	3.505413E-20
4.009901E+03	2.794656E-16	3.546041E-20
4.019802E+03	2.827064E-16	3.587161E-20
4.029195E+03	3.803872E-16	4.826597E-20
4.031018E+03	3.718980E-16	4.718881E-20
4.034663E+03	3.603230E-16	4.572009E-20
4.036486E+03	3.455573E-16	4.384653E-20
4.038309E+03	3.387477E-16	4.298248E-20
4.040132E+03	3.299075E-16	4.186078E-20
4.041954E+03	3.185963E-16	4.042553E-20
4.043777E+03	3.080698E-16	3.908986E-20
4.045600E+03	3.046229E-16	3.865249E-20
4.047423E+03	3.051216E-16	3.871578E-20
4.049246E+03	3.001251E-16	3.808179E-20
4.051068E+03	2.899889E-16	3.679564E-20
4.052891E+03	2.817967E-16	3.575616E-20
4.054714E+03	2.728891E-16	3.462590E-20
4.056537E+03	2.647711E-16	3.359584E-20
4.058359E+03	2.598005E-16	3.296513E-20
4.060182E+03	2.644746E-16	3.355821E-20
4.067473E+03	2.600384E-16	3.299531E-20
4.071118E+03	2.585855E-16	3.281096E-20
4.074763E+03	2.549143E-16	3.234513E-20
4.076586E+03	2.553454E-16	3.239983E-20
4.078409E+03	2.589112E-16	3.285228E-20
4.082054E+03	2.626781E-16	3.333025E-20
4.083877E+03	2.643225E-16	3.353889E-20
4.085700E+03	2.629583E-16	3.336580E-20
4.089346E+03	2.681433E-16	3.402369E-20
4.091168E+03	2.699667E-16	3.425507E-20
4.092991E+03	2.723288E-16	3.455478E-20
4.096637E+03	2.808203E-16	3.563223E-20
4.098459E+03	2.827088E-16	3.587185E-20
4.100282E+03	2.832852E-16	3.594499E-20
4.102105E+03	2.887691E-16	3.664082E-20
4.103928E+03	2.941088E-16	3.731835E-20
4.105750E+03	2.952622E-16	3.746470E-20
4.107573E+03	2.999265E-16	3.805653E-20
4.109396E+03	3.046725E-16	3.865874E-20
4.111219E+03	3.072137E-16	3.898117E-20
4.113042E+03	3.134717E-16	3.977523E-20
4.114864E+03	3.241279E-16	4.112735E-20
4.116687E+03	3.349381E-16	4.249901E-20
4.118510E+03	3.423227E-16	4.343601E-20
4.120333E+03	3.466276E-16	4.398225E-20
4.122155E+03	3.403324E-16	4.318346E-20
4.123978E+03	3.447298E-16	4.374144E-20
4.125801E+03	3.486745E-16	4.424196E-20
4.127624E+03	3.588054E-16	4.552742E-20
4.129447E+03	3.634747E-16	4.611989E-20
4.131269E+03	3.644150E-16	4.623920E-20
4.133092E+03	3.555999E-16	4.512068E-20
4.134915E+03	3.493797E-16	4.433143E-20
4.136738E+03	3.533503E-16	4.483524E-20
4.138560E+03	3.558961E-16	4.515826E-20
4.140383E+03	3.495523E-16	4.435332E-20
4.142206E+03	3.477507E-16	4.412472E-20
4.144029E+03	3.483051E-16	4.419506E-20
4.147674E+03	3.536491E-16	4.487313E-20
4.149497E+03	3.515615E-16	4.460825E-20
4.151320E+03	3.458662E-16	4.388559E-20
4.153143E+03	3.461565E-16	4.392242E-20
4.154965E+03	3.523107E-16	4.470329E-20
4.158611E+03	3.485602E-16	4.422741E-20
4.160434E+03	3.406026E-16	4.321769E-20
4.162256E+03	3.407911E-16	4.324161E-20
4.164079E+03	3.428703E-16	4.350543E-20
4.165902E+03	3.370791E-16	4.277061E-20
4.167725E+03	3.336864E-16	4.234012E-20
4.169548E+03	3.321295E-16	4.214256E-20
4.171369E+03	3.233624E-16	4.103014E-20
4.173193E+03	3.240373E-16	4.111578E-20
4.175016E+03	3.323100E-16	4.216546E-20
4.176838E+03	3.327711E-16	4.222397E-20
4.178661E+03	3.350821E-16	4.251719E-20
4.180483E+03	3.344706E-16	4.243960E-20
4.182306E+03	3.286774E-16	4.170452E-20
4.184129E+03	3.326170E-16	4.220440E-20
4.185951E+03	3.298469E-16	4.185291E-20
4.187774E+03	3.296771E-16	4.183136E-20
4.189597E+03	3.263188E-16	4.140524E-20
4.191420E+03	3.285640E-16	4.169011E-20
4.193243E+03	3.247773E-16	4.120964E-20
4.195065E+03	3.192394E-16	4.050695E-20
4.196888E+03	3.083730E-16	3.912816E-20
4.198711E+03	3.002860E-16	3.810203E-20
4.202356E+03	2.967100E-16	3.764828E-20
4.204179E+03	3.053110E-16	3.873962E-20
4.206002E+03	3.008444E-16	3.817287E-20
4.207825E+03	2.997853E-16	3.803848E-20
4.209648E+03	3.038038E-16	3.854837E-20
4.211470E+03	3.073441E-16	3.899758E-20
4.213293E+03	3.069419E-16	3.894655E-20
4.215116E+03	3.040728E-16	3.858250E-20
4.218761E+03	2.991235E-16	3.795449E-20
4.220584E+03	3.004219E-16	3.811924E-20
4.222407E+03	3.017785E-16	3.829137E-20
4.224230E+03	3.075572E-16	3.902460E-20
4.226052E+03	3.137049E-16	3.980466E-20
4.227875E+03	3.240114E-16	4.111240E-20
4.229698E+03	3.218585E-16	4.083923E-20
4.231521E+03	3.306544E-16	4.195530E-20
4.233344E+03	3.370089E-16	4.276159E-20
4.235166E+03	3.490401E-16	4.428818E-20
4.236989E+03	3.555943E-16	4.511980E-20
4.238812E+03	3.584723E-16	4.548498E-20
4.240635E+03	3.626489E-16	4.601492E-20
4.242457E+03	3.681682E-16	4.671524E-20
4.244280E+03	3.748119E-16	4.755823E-20
4.246103E+03	3.789572E-16	4.808420E-20
4.247926E+03	3.840374E-16	4.872879E-20
4.249749E+03	3.902083E-16	4.951179E-20
4.251571E+03	3.845110E-16	4.878888E-20
4.253394E+03	3.862316E-16	4.900720E-20
4.255217E+03	3.925452E-16	4.980830E-20
4.257040E+03	3.929703E-16	4.986223E-20
4.258862E+03	3.909969E-16	4.961183E-20
4.260685E+03	3.941799E-16	5.001571E-20
4.262508E+03	3.966650E-16	5.033103E-20
4.264331E+03	4.012026E-16	5.090678E-20
4.266153E+03	4.065962E-16	5.159115E-20
4.267976E+03	4.107007E-16	5.211194E-20
4.269799E+03	4.137976E-16	5.250489E-20
4.271622E+03	4.116842E-16	5.223673E-20
4.273445E+03	4.030803E-16	5.114502E-20
4.275267E+03	3.970533E-16	5.038027E-20
4.277089E+03	3.965187E-16	5.031243E-20
4.278913E+03	3.957091E-16	5.020970E-20
4.280735E+03	3.841751E-16	4.874621E-20
4.282557E+03	3.718809E-16	4.718624E-20
4.284381E+03	3.680379E-16	4.669862E-20
4.286203E+03	3.636717E-16	4.614461E-20
4.288026E+03	3.545196E-16	4.498334E-20
4.289849E+03	3.477432E-16	4.412351E-20
4.291671E+03	3.401184E-16	4.315603E-20
4.293494E+03	3.404612E-16	4.319952E-20
4.295317E+03	3.386385E-16	4.296824E-20
4.297140E+03	3.359601E-16	4.262840E-20
4.298962E+03	3.374557E-16	4.281815E-20
4.300785E+03	3.451226E-16	4.379097E-20
4.302608E+03	3.485543E-16	4.422640E-20
4.304431E+03	3.586994E-16	4.551366E-20
4.306253E+03	3.607089E-16	4.576863E-20
4.308076E+03	3.612698E-16	4.583980E-20
4.309899E+03	3.621887E-16	4.595639E-20
4.311722E+03	3.688377E-16	4.680005E-20
4.313545E+03	3.730659E-16	4.733654E-20
4.315367E+03	3.751819E-16	4.760503E-20
4.317190E+03	3.788467E-16	4.807003E-20
4.319013E+03	3.827212E-16	4.856164E-20
4.320836E+03	3.851967E-16	4.887574E-20
4.322658E+03	3.997296E-16	5.071974E-20
4.324481E+03	4.148503E-16	5.263833E-20
4.326304E+03	4.246374E-16	5.388017E-20
4.328127E+03	4.380157E-16	5.557768E-20
4.329950E+03	4.507633E-16	5.719515E-20
4.331772E+03	4.613736E-16	5.854143E-20
4.333595E+03	4.774856E-16	6.058580E-20
4.335418E+03	4.890186E-16	6.204916E-20
4.337241E+03	5.000118E-16	6.344403E-20
4.339063E+03	5.097269E-16	6.467672E-20
4.340886E+03	5.167861E-16	6.557244E-20
4.342709E+03	5.275323E-16	6.693595E-20
4.344532E+03	5.347345E-16	6.784980E-20
4.346354E+03	5.406588E-16	6.860150E-20
4.348177E+03	5.522182E-16	7.006821E-20
4.350000E+03	5.600751E-16	7.106513E-20
4.351823E+03	5.704086E-16	7.237629E-20
4.353646E+03	5.738802E-16	7.281678E-20
4.355468E+03	5.789732E-16	7.346300E-20
4.357291E+03	5.811927E-16	7.374462E-20
4.359114E+03	5.819180E-16	7.383664E-20
4.360937E+03	5.885285E-16	7.467541E-20
4.362759E+03	5.937157E-16	7.533358E-20
4.364582E+03	5.894813E-16	7.479630E-20
4.366405E+03	5.879879E-16	7.460680E-20
4.368228E+03	5.871547E-16	7.450108E-20
4.370050E+03	5.821647E-16	7.386792E-20
4.371873E+03	5.766938E-16	7.317374E-20
4.373696E+03	5.797553E-16	7.356219E-20
4.375519E+03	5.766752E-16	7.317137E-20
4.377342E+03	5.729280E-16	7.269590E-20
4.379164E+03	5.652613E-16	7.172311E-20
4.380987E+03	5.570611E-16	7.068262E-20
4.382809E+03	5.514358E-16	6.996886E-20
4.384633E+03	5.512370E-16	6.994363E-20
4.386454E+03	5.486980E-16	6.962146E-20
4.388277E+03	5.457016E-16	6.924127E-20
4.390101E+03	5.428845E-16	6.888381E-20
4.391923E+03	5.458492E-16	6.925999E-20
4.393746E+03	5.445298E-16	6.909257E-20
4.395568E+03	5.410449E-16	6.865039E-20
4.397391E+03	5.375464E-16	6.820647E-20
4.399214E+03	5.396887E-16	6.847829E-20
4.401037E+03	5.418965E-16	6.875843E-20
4.402859E+03	5.426243E-16	6.885077E-20
4.404682E+03	5.429196E-16	6.888823E-20
4.406505E+03	5.455582E-16	6.922303E-20
4.408328E+03	5.506355E-16	6.986726E-20
4.410150E+03	5.530235E-16	7.017026E-20
4.411973E+03	5.532738E-16	7.020202E-20
4.413796E+03	5.563988E-16	7.059852E-20
4.415619E+03	5.603075E-16	7.109449E-20
4.417442E+03	5.603389E-16	7.109846E-20
4.419264E+03	5.580637E-16	7.080978E-20
4.421087E+03	5.563662E-16	7.059439E-20
4.422910E+03	5.492166E-16	6.968721E-20
4.424733E+03	5.463189E-16	6.931953E-20
4.426555E+03	5.475794E-16	6.947947E-20
4.428378E+03	5.543469E-16	7.033815E-20
4.430201E+03	5.601206E-16	7.107074E-20
4.432024E+03	5.638889E-16	7.154889E-20
4.433847E+03	5.634072E-16	7.148776E-20
4.435669E+03	5.678400E-16	7.205021E-20
4.437492E+03	5.719059E-16	7.256612E-20
4.439315E+03	5.768803E-16	7.319729E-20
4.441138E+03	5.748982E-16	7.294579E-20
4.442960E+03	5.821536E-16	7.386638E-20
4.444783E+03	5.887595E-16	7.470457E-20
4.446606E+03	5.940060E-16	7.537027E-20
4.448429E+03	5.937250E-16	7.533461E-20
4.450251E+03	5.952799E-16	7.553190E-20
4.452074E+03	5.982551E-16	7.590940E-20
4.453897E+03	5.976560E-16	7.583339E-20
4.455720E+03	5.958507E-16	7.560432E-20
4.457543E+03	5.965766E-16	7.569642E-20
4.459365E+03	5.974121E-16	7.580244E-20
4.461188E+03	5.938261E-16	7.534742E-20
4.463011E+03	5.929550E-16	7.523690E-20
4.464834E+03	5.940025E-16	7.536981E-20
4.466656E+03	5.932795E-16	7.527807E-20
4.468479E+03	5.938969E-16	7.535640E-20
4.470302E+03	5.939512E-16	7.536329E-20
4.472125E+03	5.926987E-16	7.520436E-20
4.473948E+03	5.955797E-16	7.556991E-20
4.475770E+03	5.947025E-16	7.545861E-20
4.477593E+03	5.934367E-16	7.529800E-20
4.479416E+03	5.934517E-16	7.529990E-20
4.481239E+03	5.931018E-16	7.525550E-20
4.483061E+03	5.915716E-16	7.506134E-20
4.484884E+03	5.902840E-16	7.489797E-20
4.486707E+03	5.905548E-16	7.493232E-20
4.488529E+03	5.915940E-16	7.506418E-20
4.490352E+03	5.935193E-16	7.530846E-20
4.492174E+03	5.961042E-16	7.563645E-20
4.493998E+03	5.984190E-16	7.593016E-20
4.495821E+03	6.020571E-16	7.639177E-20
4.497643E+03	6.080033E-16	7.714625E-20
4.499465E+03	6.153524E-16	7.807874E-20
4.501288E+03	6.156269E-16	7.811356E-20
4.503111E+03	6.175007E-16	7.835132E-20
4.504934E+03	6.192148E-16	7.856882E-20
4.506756E+03	6.224888E-16	7.898423E-20
4.508579E+03	6.240219E-16	7.917876E-20
4.510402E+03	6.237856E-16	7.914877E-20
4.512225E+03	6.240749E-16	7.918547E-20
4.514048E+03	6.249142E-16	7.929197E-20
4.515870E+03	6.269278E-16	7.954746E-20
4.517693E+03	6.329799E-16	8.031538E-20
4.519516E+03	6.386949E-16	8.104052E-20
4.521339E+03	6.363961E-16	8.074884E-20
4.523161E+03	6.374684E-16	8.088488E-20
4.524984E+03	6.361771E-16	8.072103E-20
4.526807E+03	6.378480E-16	8.093305E-20
4.528630E+03	6.425367E-16	8.152797E-20
4.530452E+03	6.449082E-16	8.182887E-20
4.532275E+03	6.448164E-16	8.181722E-20
4.534098E+03	6.500986E-16	8.248745E-20
4.535921E+03	6.547356E-16	8.307581E-20
4.537744E+03	6.567665E-16	8.333350E-20
4.539566E+03	6.568139E-16	8.333951E-20
4.541389E+03	6.560407E-16	8.324139E-20
4.543212E+03	6.601982E-16	8.376891E-20
4.545035E+03	6.636114E-16	8.420199E-20
4.546857E+03	6.649191E-16	8.436792E-20
4.548680E+03	6.638103E-16	8.422722E-20
4.550503E+03	6.615460E-16	8.393992E-20
4.552326E+03	6.612251E-16	8.389919E-20
4.554149E+03	6.600773E-16	8.375355E-20
4.555971E+03	6.553223E-16	8.315021E-20
4.557794E+03	6.519223E-16	8.271880E-20
4.559617E+03	6.477113E-16	8.218449E-20
4.561440E+03	6.459215E-16	8.195738E-20
4.563262E+03	6.457323E-16	8.193337E-20
4.565085E+03	6.410934E-16	8.134477E-20
4.566908E+03	6.349518E-16	8.056549E-20
4.568731E+03	6.316161E-16	8.014224E-20
4.570553E+03	6.300266E-16	7.994055E-20
4.572376E+03	6.283128E-16	7.972309E-20
4.574199E+03	6.264744E-16	7.948982E-20
4.576022E+03	6.229417E-16	7.904158E-20
4.577845E+03	6.203997E-16	7.871903E-20
4.579667E+03	6.155873E-16	7.810841E-20
4.581490E+03	6.156279E-16	7.811355E-20
4.583313E+03	6.135181E-16	7.784585E-20
4.585136E+03	6.118080E-16	7.762886E-20
4.586958E+03	6.098055E-16	7.737477E-20
4.588781E+03	6.100937E-16	7.741134E-20
4.590604E+03	6.076498E-16	7.710124E-20
4.592427E+03	6.085307E-16	7.721301E-20
4.594249E+03	6.084266E-16	7.719979E-20
4.596072E+03	6.078882E-16	7.713147E-20
4.597894E+03	6.110700E-16	7.753519E-20
4.599718E+03	6.112973E-16	7.756403E-20
4.601541E+03	6.131828E-16	7.780326E-20
4.603362E+03	6.174051E-16	7.833900E-20
4.605185E+03	6.207400E-16	7.876214E-20
4.607008E+03	6.223405E-16	7.896521E-20
4.608831E+03	6.259695E-16	7.942567E-20
4.610653E+03	6.248646E-16	7.928548E-20
4.612476E+03	6.256662E-16	7.938718E-20
4.614299E+03	6.275800E-16	7.963000E-20
4.616122E+03	6.289368E-16	7.980216E-20
4.617945E+03	6.318208E-16	8.016808E-20
4.619767E+03	6.348522E-16	8.055271E-20
4.621590E+03	6.351899E-16	8.059555E-20
4.623413E+03	6.354280E-16	8.062577E-20
4.625236E+03	6.351531E-16	8.059087E-20
4.627058E+03	6.350452E-16	8.057718E-20
4.628881E+03	6.352024E-16	8.059712E-20
4.630704E+03	6.353326E-16	8.061364E-20
4.632527E+03	6.374367E-16	8.088060E-20
4.634350E+03	6.374411E-16	8.088116E-20
4.636172E+03	6.401553E-16	8.122554E-20
4.637995E+03	6.411833E-16	8.135597E-20
4.639818E+03	6.401295E-16	8.122226E-20
4.641641E+03	6.396591E-16	8.116256E-20
4.643463E+03	6.386702E-16	8.103708E-20
4.645286E+03	6.362787E-16	8.073362E-20
4.647109E+03	6.308364E-16	8.004308E-20
4.648932E+03	6.286508E-16	7.976576E-20
4.650754E+03	6.264590E-16	7.948765E-20
4.652577E+03	6.263770E-16	7.947724E-20
4.654400E+03	6.250118E-16	7.930400E-20
4.656223E+03	6.237400E-16	7.914263E-20
4.658046E+03	6.251267E-16	7.931857E-20
4.659868E+03	6.263642E-16	7.947559E-20
4.661691E+03	6.276747E-16	7.964186E-20
4.663514E+03	6.271801E-16	7.957910E-20
4.665337E+03	6.266572E-16	7.951274E-20
4.667159E+03	6.265759E-16	7.950242E-20
4.668982E+03	6.288191E-16	7.978703E-20
4.670805E+03	6.292287E-16	7.983900E-20
4.672628E+03	6.292390E-16	7.984030E-20
4.674450E+03	6.301395E-16	7.995456E-20
4.676273E+03	6.321059E-16	8.020405E-20
4.678096E+03	6.347177E-16	8.053544E-20
4.679919E+03	6.377277E-16	8.091735E-20
4.681742E+03	6.407386E-16	8.129937E-20
4.683564E+03	6.424305E-16	8.151405E-20
4.685387E+03	6.445200E-16	8.177917E-20
4.687210E+03	6.470079E-16	8.209484E-20
4.689033E+03	6.503686E-16	8.252125E-20
4.690855E+03	6.518583E-16	8.271025E-20
4.692678E+03	6.515481E-16	8.267088E-20
4.694501E+03	6.515089E-16	8.266591E-20
4.696324E+03	6.519665E-16	8.272396E-20
4.698147E+03	6.543730E-16	8.302929E-20
4.699968E+03	6.545500E-16	8.305175E-20
4.701792E+03	6.538727E-16	8.296580E-20
4.703614E+03	6.562486E-16	8.326726E-20
4.705438E+03	6.566429E-16	8.331728E-20
4.707260E+03	6.574352E-16	8.341781E-20
4.709082E+03	6.567929E-16	8.333630E-20
4.710905E+03	6.545886E-16	8.305659E-20
4.712728E+03	6.525036E-16	8.279204E-20
4.714550E+03	6.493307E-16	8.238944E-20
4.716373E+03	6.455965E-16	8.191563E-20
4.718196E+03	6.411494E-16	8.135135E-20
4.720019E+03	6.383818E-16	8.100018E-20
4.721842E+03	6.352796E-16	8.060656E-20
4.723664E+03	6.312873E-16	8.009999E-20
4.725487E+03	6.275645E-16	7.962762E-20
