#wls	flux	fluxerr
1.584158E+03	8.983417E-19	3.741389E-21
1.623762E+03	9.537375E-19	3.972099E-21
1.663366E+03	9.983548E-19	4.157919E-21
1.702970E+03	1.030079E-18	4.290042E-21
1.742574E+03	1.047009E-18	4.360553E-21
1.782178E+03	1.044623E-18	4.350615E-21
1.821782E+03	1.018272E-18	4.240869E-21
1.861386E+03	9.644236E-19	4.016601E-21
1.900990E+03	8.820711E-19	3.673621E-21
1.940594E+03	7.755401E-19	3.229944E-21
1.980198E+03	6.560549E-19	2.732316E-21
2.019802E+03	5.410176E-19	2.253212E-21
2.059406E+03	4.495033E-19	1.872076E-21
2.099010E+03	3.955088E-19	1.647201E-21
2.138614E+03	3.866654E-19	1.610370E-21
2.178218E+03	4.279760E-19	1.782419E-21
2.217822E+03	5.259033E-19	2.190263E-21
2.257426E+03	6.877503E-19	2.864317E-21
2.297030E+03	9.184654E-19	3.825191E-21
2.336634E+03	1.219532E-18	5.079062E-21
2.376238E+03	1.587703E-18	6.612406E-21
2.415842E+03	2.019501E-18	8.410739E-21
2.455446E+03	2.510697E-18	1.045645E-20
2.495050E+03	3.059800E-18	1.274333E-20
2.534653E+03	3.666681E-18	1.527085E-20
2.574257E+03	4.334408E-18	1.805177E-20
2.613861E+03	5.068299E-18	2.110824E-20
2.653465E+03	5.872815E-18	2.445886E-20
2.693069E+03	6.755800E-18	2.813627E-20
2.732673E+03	7.726373E-18	3.217847E-20
2.772277E+03	8.791994E-18	3.661652E-20
2.811881E+03	9.964081E-18	4.149797E-20
2.851485E+03	1.125163E-17	4.686029E-20
2.891089E+03	1.266454E-17	5.274473E-20
2.930693E+03	1.421376E-17	5.919685E-20
2.970297E+03	1.590695E-17	6.624856E-20
2.980198E+03	1.635449E-17	6.811246E-20
2.990099E+03	1.681182E-17	7.001709E-20
3.000000E+03	1.727663E-17	7.195291E-20
3.009901E+03	1.775450E-17	7.394315E-20
3.019802E+03	1.824706E-17	7.599451E-20
3.029703E+03	1.875857E-17	7.812485E-20
3.039604E+03	1.928845E-17	8.033165E-20
3.049505E+03	1.983656E-17	8.261439E-20
3.059406E+03	2.040558E-17	8.498424E-20
3.069307E+03	2.098938E-17	8.741562E-20
3.079208E+03	2.159491E-17	8.993748E-20
3.089109E+03	2.221314E-17	9.251224E-20
3.099010E+03	2.285128E-17	9.516994E-20
3.108911E+03	2.349988E-17	9.787122E-20
3.118812E+03	2.416642E-17	1.006472E-19
3.128713E+03	2.484399E-17	1.034691E-19
3.138614E+03	2.553433E-17	1.063442E-19
3.148515E+03	2.623625E-17	1.092675E-19
3.158416E+03	2.694528E-17	1.122204E-19
3.168317E+03	2.766635E-17	1.152235E-19
3.178218E+03	2.839491E-17	1.182578E-19
3.188119E+03	2.912603E-17	1.213027E-19
3.198020E+03	2.986812E-17	1.243933E-19
3.207921E+03	3.060936E-17	1.274804E-19
3.217822E+03	3.135471E-17	1.305846E-19
3.227723E+03	3.209874E-17	1.336833E-19
3.237624E+03	3.284288E-17	1.367825E-19
3.247525E+03	3.358497E-17	1.398731E-19
3.257426E+03	3.432264E-17	1.429453E-19
3.267327E+03	3.504967E-17	1.459732E-19
3.277228E+03	3.577076E-17	1.489763E-19
3.287129E+03	3.647556E-17	1.519116E-19
3.297030E+03	3.716859E-17	1.547979E-19
3.306931E+03	3.784674E-17	1.576223E-19
3.316832E+03	3.849901E-17	1.603388E-19
3.326733E+03	3.913361E-17	1.629817E-19
3.336634E+03	3.973935E-17	1.655045E-19
3.346535E+03	4.031675E-17	1.679092E-19
3.356436E+03	4.086249E-17	1.701821E-19
3.366337E+03	4.137349E-17	1.723103E-19
3.376238E+03	4.185086E-17	1.742984E-19
3.386139E+03	4.228825E-17	1.761200E-19
3.396040E+03	4.268375E-17	1.777672E-19
3.405941E+03	4.303989E-17	1.792504E-19
3.415842E+03	4.335591E-17	1.805666E-19
3.425743E+03	4.363181E-17	1.817156E-19
3.435644E+03	4.386831E-17	1.827006E-19
3.445545E+03	4.407068E-17	1.835434E-19
3.455446E+03	4.423745E-17	1.842379E-19
3.465347E+03	4.437182E-17	1.847975E-19
3.475248E+03	4.448141E-17	1.852540E-19
3.485149E+03	4.457092E-17	1.856267E-19
3.495050E+03	4.464929E-17	1.859531E-19
3.504950E+03	4.471555E-17	1.862291E-19
3.514851E+03	4.478319E-17	1.865108E-19
3.524752E+03	4.485542E-17	1.868116E-19
3.534653E+03	4.494201E-17	1.871722E-19
3.544554E+03	4.504852E-17	1.876158E-19
3.554455E+03	4.518236E-17	1.881732E-19
3.564356E+03	4.533858E-17	1.888238E-19
3.574257E+03	4.551807E-17	1.895713E-19
3.584158E+03	4.572282E-17	1.904241E-19
3.594059E+03	4.593830E-17	1.913215E-19
3.603960E+03	4.616808E-17	1.922785E-19
3.613861E+03	4.640353E-17	1.932591E-19
3.623762E+03	4.663675E-17	1.942304E-19
3.633663E+03	4.686939E-17	1.951992E-19
3.643564E+03	4.709801E-17	1.961514E-19
3.653465E+03	4.731726E-17	1.970645E-19
3.663366E+03	4.752836E-17	1.979436E-19
3.673267E+03	4.773042E-17	1.987852E-19
3.683168E+03	4.792053E-17	1.995769E-19
3.693069E+03	4.810437E-17	2.003426E-19
3.702970E+03	4.828251E-17	2.010845E-19
3.712871E+03	4.845069E-17	2.017849E-19
3.722772E+03	4.861521E-17	2.024701E-19
3.732673E+03	4.877720E-17	2.031447E-19
3.742574E+03	4.893792E-17	2.038141E-19
3.752475E+03	4.909629E-17	2.044737E-19
3.762376E+03	4.925859E-17	2.051496E-19
3.764779E+03	3.363613E-17	1.400860E-19
3.766764E+03	3.466605E-17	1.443754E-19
3.768749E+03	3.560138E-17	1.482708E-19
3.770734E+03	3.657868E-17	1.523409E-19
3.772718E+03	3.679826E-17	1.532555E-19
3.774703E+03	3.759728E-17	1.565832E-19
3.776687E+03	3.796285E-17	1.581057E-19
3.778672E+03	3.820409E-17	1.591104E-19
3.780656E+03	3.950146E-17	1.645136E-19
3.782642E+03	4.073903E-17	1.696677E-19
3.784626E+03	4.167907E-17	1.735828E-19
3.786611E+03	4.221424E-17	1.758116E-19
3.788595E+03	4.246144E-17	1.768412E-19
3.790580E+03	4.256833E-17	1.772863E-19
3.792565E+03	4.277382E-17	1.781422E-19
3.794550E+03	4.299201E-17	1.790509E-19
3.796535E+03	4.330352E-17	1.803482E-19
3.798519E+03	4.346196E-17	1.810081E-19
3.800504E+03	4.362454E-17	1.816852E-19
3.802488E+03	4.370383E-17	1.820154E-19
3.804473E+03	4.367680E-17	1.819028E-19
3.806457E+03	4.368496E-17	1.819368E-19
3.808443E+03	4.375227E-17	1.822171E-19
3.810427E+03	4.390556E-17	1.828555E-19
3.812412E+03	4.417468E-17	1.839764E-19
3.814397E+03	4.459720E-17	1.857361E-19
3.816381E+03	4.521463E-17	1.883075E-19
3.818366E+03	4.552698E-17	1.896083E-19
3.820350E+03	4.558413E-17	1.898464E-19
3.822336E+03	4.582268E-17	1.908399E-19
3.824320E+03	4.579105E-17	1.907081E-19
3.826305E+03	4.595635E-17	1.913966E-19
3.828289E+03	4.631910E-17	1.929073E-19
3.830274E+03	4.637076E-17	1.931225E-19
3.832258E+03	4.627804E-17	1.927363E-19
3.834244E+03	4.696238E-17	1.955864E-19
3.836228E+03	4.705061E-17	1.959539E-19
3.838213E+03	4.659711E-17	1.940652E-19
3.840197E+03	4.682256E-17	1.950041E-19
3.842182E+03	4.702139E-17	1.958322E-19
3.844167E+03	4.698620E-17	1.956856E-19
3.846151E+03	4.630807E-17	1.928614E-19
3.848137E+03	4.579954E-17	1.907435E-19
3.850121E+03	4.524053E-17	1.884154E-19
3.852106E+03	4.495086E-17	1.872090E-19
3.854090E+03	4.488356E-17	1.869287E-19
3.856075E+03	4.435537E-17	1.847289E-19
3.858059E+03	4.377644E-17	1.823178E-19
3.860045E+03	4.379289E-17	1.823863E-19
3.862029E+03	4.379279E-17	1.823859E-19
3.864014E+03	4.364409E-17	1.817666E-19
3.865999E+03	4.382799E-17	1.825325E-19
3.867983E+03	4.367321E-17	1.818879E-19
3.869968E+03	4.396056E-17	1.830846E-19
3.871952E+03	4.401972E-17	1.833310E-19
3.873938E+03	4.388251E-17	1.827595E-19
3.875922E+03	4.371357E-17	1.820559E-19
3.877907E+03	4.366056E-17	1.818352E-19
3.879891E+03	4.359957E-17	1.815811E-19
3.881876E+03	4.366578E-17	1.818569E-19
3.883860E+03	4.362846E-17	1.817015E-19
3.885846E+03	4.378289E-17	1.823446E-19
3.887831E+03	4.403067E-17	1.833766E-19
3.889815E+03	4.375698E-17	1.822367E-19
3.891800E+03	4.365135E-17	1.817968E-19
3.893784E+03	4.389486E-17	1.828110E-19
3.895769E+03	4.424123E-17	1.842535E-19
3.897753E+03	4.472153E-17	1.862538E-19
3.899739E+03	4.493112E-17	1.871267E-19
3.901723E+03	4.486017E-17	1.868312E-19
3.903708E+03	4.455376E-17	1.855551E-19
3.905692E+03	4.411997E-17	1.837485E-19
3.907677E+03	4.367038E-17	1.818761E-19
3.909661E+03	4.325291E-17	1.801374E-19
3.911647E+03	4.302691E-17	1.791962E-19
3.913631E+03	4.298891E-17	1.790379E-19
3.915616E+03	4.293785E-17	1.788252E-19
3.917601E+03	4.298112E-17	1.790054E-19
3.919585E+03	4.326375E-17	1.801825E-19
3.921570E+03	4.337594E-17	1.806498E-19
3.923554E+03	4.369185E-17	1.819655E-19
3.925540E+03	4.402257E-17	1.833428E-19
3.927524E+03	4.438930E-17	1.848702E-19
3.929509E+03	4.498722E-17	1.873604E-19
3.931493E+03	4.556006E-17	1.897461E-19
3.933478E+03	4.613109E-17	1.921243E-19
3.935462E+03	4.708339E-17	1.960904E-19
3.937448E+03	4.785404E-17	1.992999E-19
3.939433E+03	4.839880E-17	2.015687E-19
3.941417E+03	4.926900E-17	2.051929E-19
3.943402E+03	4.989477E-17	2.077990E-19
3.945386E+03	5.037002E-17	2.097784E-19
3.947371E+03	5.104825E-17	2.126030E-19
3.949355E+03	5.137567E-17	2.139666E-19
3.951341E+03	5.162206E-17	2.149928E-19
3.953325E+03	5.182702E-17	2.158464E-19
3.955310E+03	5.209186E-17	2.169494E-19
3.957294E+03	5.234086E-17	2.179864E-19
3.959279E+03	5.245188E-17	2.184488E-19
3.961263E+03	5.254465E-17	2.188351E-19
3.963249E+03	5.274769E-17	2.196807E-19
3.965233E+03	5.282352E-17	2.199965E-19
3.967218E+03	5.285523E-17	2.201286E-19
3.969203E+03	5.288808E-17	2.202654E-19
3.971187E+03	5.290034E-17	2.203164E-19
3.973172E+03	5.287338E-17	2.202042E-19
3.975156E+03	5.278428E-17	2.198331E-19
3.977142E+03	5.274994E-17	2.196901E-19
3.979126E+03	5.255374E-17	2.188730E-19
3.981111E+03	5.241531E-17	2.182964E-19
3.983095E+03	5.227866E-17	2.177273E-19
3.985080E+03	5.221771E-17	2.174735E-19
3.987065E+03	5.179631E-17	2.157184E-19
3.989050E+03	5.143342E-17	2.142071E-19
3.991035E+03	5.086106E-17	2.118234E-19
3.993019E+03	5.042747E-17	2.100176E-19
3.995004E+03	4.990201E-17	2.078292E-19
3.996988E+03	4.943090E-17	2.058671E-19
3.998973E+03	4.881312E-17	2.032942E-19
4.000957E+03	4.807543E-17	2.002220E-19
4.002943E+03	4.689187E-17	1.952927E-19
4.004927E+03	4.644288E-17	1.934228E-19
4.006912E+03	4.606139E-17	1.918340E-19
4.008896E+03	4.570539E-17	1.903513E-19
4.010881E+03	4.514085E-17	1.880001E-19
4.012865E+03	4.486970E-17	1.868709E-19
4.014850E+03	4.434956E-17	1.847046E-19
4.016836E+03	4.370234E-17	1.820091E-19
4.018820E+03	4.352838E-17	1.812846E-19
4.020805E+03	4.356621E-17	1.814422E-19
4.022789E+03	4.349579E-17	1.811489E-19
4.024774E+03	4.348903E-17	1.811207E-19
4.026758E+03	4.361206E-17	1.816331E-19
4.028744E+03	4.424995E-17	1.842898E-19
4.030728E+03	4.473885E-17	1.863259E-19
4.032713E+03	4.521495E-17	1.883088E-19
4.034697E+03	4.589302E-17	1.911327E-19
4.036682E+03	4.631688E-17	1.928980E-19
4.038666E+03	4.718619E-17	1.965185E-19
4.040651E+03	4.825154E-17	2.009554E-19
4.042637E+03	4.909057E-17	2.044497E-19
4.044621E+03	4.950797E-17	2.061881E-19
4.046606E+03	4.989943E-17	2.078184E-19
4.048590E+03	4.999443E-17	2.082141E-19
4.050575E+03	5.015114E-17	2.088667E-19
4.052559E+03	5.004152E-17	2.084102E-19
4.054545E+03	5.015432E-17	2.088799E-19
4.056529E+03	5.032682E-17	2.095984E-19
4.058514E+03	5.048891E-17	2.102734E-19
4.060498E+03	5.044747E-17	2.101008E-19
4.062483E+03	5.053948E-17	2.104840E-19
4.064468E+03	5.063820E-17	2.108952E-19
4.066452E+03	5.070883E-17	2.111894E-19
4.068438E+03	5.055962E-17	2.105679E-19
4.070422E+03	5.067936E-17	2.110666E-19
4.072407E+03	5.054396E-17	2.105027E-19
4.074391E+03	5.043116E-17	2.100329E-19
4.076376E+03	5.074809E-17	2.113528E-19
4.078360E+03	5.085320E-17	2.117906E-19
4.080346E+03	5.098158E-17	2.123253E-19
4.082330E+03	5.113766E-17	2.129753E-19
4.084315E+03	5.093695E-17	2.121394E-19
4.086300E+03	5.095910E-17	2.122316E-19
4.088284E+03	5.128415E-17	2.135854E-19
4.090269E+03	5.130341E-17	2.136656E-19
4.092253E+03	5.133480E-17	2.137963E-19
4.094239E+03	5.135301E-17	2.138722E-19
4.096223E+03	5.082907E-17	2.116901E-19
4.098208E+03	5.077915E-17	2.114822E-19
4.100192E+03	5.076122E-17	2.114075E-19
4.102177E+03	5.094420E-17	2.121696E-19
4.104161E+03	5.094193E-17	2.121601E-19
4.106147E+03	5.077054E-17	2.114463E-19
4.108131E+03	5.064549E-17	2.109255E-19
4.110116E+03	5.076774E-17	2.114347E-19
4.112100E+03	5.051731E-17	2.103917E-19
4.114085E+03	5.068883E-17	2.111060E-19
4.116070E+03	5.101178E-17	2.124511E-19
4.118054E+03	5.106766E-17	2.126838E-19
4.120040E+03	5.115058E-17	2.130291E-19
4.122024E+03	5.136951E-17	2.139409E-19
4.124009E+03	5.152936E-17	2.146066E-19
4.125993E+03	5.163773E-17	2.150580E-19
4.127978E+03	5.180608E-17	2.157591E-19
4.129962E+03	5.224434E-17	2.175843E-19
4.131948E+03	5.254809E-17	2.188494E-19
4.133932E+03	5.256416E-17	2.189163E-19
4.135917E+03	5.265611E-17	2.192993E-19
4.137901E+03	5.281959E-17	2.199801E-19
4.139886E+03	5.305265E-17	2.209507E-19
4.141871E+03	5.316808E-17	2.214315E-19
4.143855E+03	5.351796E-17	2.228886E-19
4.145841E+03	5.355671E-17	2.230500E-19
4.147825E+03	5.328546E-17	2.219203E-19
4.149810E+03	5.313796E-17	2.213060E-19
4.151794E+03	5.335559E-17	2.222124E-19
4.153779E+03	5.335529E-17	2.222111E-19
4.155763E+03	5.346368E-17	2.226626E-19
4.157749E+03	5.362733E-17	2.233441E-19
4.159733E+03	5.351470E-17	2.228750E-19
4.161718E+03	5.353508E-17	2.229599E-19
4.163703E+03	5.342203E-17	2.224891E-19
4.165687E+03	5.338004E-17	2.223142E-19
4.167672E+03	5.355008E-17	2.230224E-19
4.169656E+03	5.360847E-17	2.232656E-19
4.171642E+03	5.359879E-17	2.232253E-19
4.173626E+03	5.357513E-17	2.231267E-19
4.175611E+03	5.352013E-17	2.228977E-19
4.177595E+03	5.344520E-17	2.225856E-19
4.179580E+03	5.353958E-17	2.229787E-19
4.181564E+03	5.373288E-17	2.237837E-19
4.183550E+03	5.374277E-17	2.238249E-19
4.185535E+03	5.355457E-17	2.230411E-19
4.187519E+03	5.344166E-17	2.225709E-19
4.189504E+03	5.333665E-17	2.221335E-19
4.191488E+03	5.340782E-17	2.224299E-19
4.193473E+03	5.365353E-17	2.234532E-19
4.195457E+03	5.361029E-17	2.232732E-19
4.197443E+03	5.362441E-17	2.233320E-19
4.199427E+03	5.343647E-17	2.225492E-19
4.201412E+03	5.355731E-17	2.230525E-19
4.203396E+03	5.357120E-17	2.231104E-19
4.205381E+03	5.343661E-17	2.225498E-19
4.207365E+03	5.359423E-17	2.232063E-19
4.209350E+03	5.393058E-17	2.246071E-19
4.211336E+03	5.391638E-17	2.245479E-19
4.213320E+03	5.391626E-17	2.245474E-19
4.215305E+03	5.390189E-17	2.244876E-19
4.217289E+03	5.397046E-17	2.247731E-19
4.219274E+03	5.423283E-17	2.258659E-19
4.221258E+03	5.436248E-17	2.264058E-19
4.223244E+03	5.437926E-17	2.264757E-19
4.225228E+03	5.441505E-17	2.266247E-19
4.227213E+03	5.477439E-17	2.281213E-19
4.229197E+03	5.515000E-17	2.296856E-19
4.231182E+03	5.546423E-17	2.309943E-19
4.233166E+03	5.587971E-17	2.327247E-19
4.235151E+03	5.630811E-17	2.345089E-19
4.237136E+03	5.652848E-17	2.354266E-19
4.239121E+03	5.656660E-17	2.355854E-19
4.241106E+03	5.693450E-17	2.371176E-19
4.243090E+03	5.721517E-17	2.382865E-19
4.245075E+03	5.782336E-17	2.408195E-19
4.247059E+03	5.808624E-17	2.419143E-19
4.249045E+03	5.818888E-17	2.423418E-19
4.251029E+03	5.825169E-17	2.426034E-19
4.253014E+03	5.836794E-17	2.430875E-19
4.254998E+03	5.882162E-17	2.449770E-19
4.256983E+03	5.935285E-17	2.471894E-19
4.258967E+03	5.969547E-17	2.486163E-19
4.260952E+03	6.036879E-17	2.514205E-19
4.262937E+03	6.075709E-17	2.530377E-19
4.264922E+03	6.092048E-17	2.537182E-19
4.266907E+03	6.129308E-17	2.552700E-19
4.268891E+03	6.165173E-17	2.567637E-19
4.270876E+03	6.184706E-17	2.575772E-19
4.272860E+03	6.215674E-17	2.588669E-19
4.274846E+03	6.251004E-17	2.603383E-19
4.276830E+03	6.285051E-17	2.617562E-19
4.278815E+03	6.299853E-17	2.623727E-19
4.280799E+03	6.310243E-17	2.628054E-19
4.282784E+03	6.347164E-17	2.643431E-19
4.284769E+03	6.376506E-17	2.655651E-19
4.286753E+03	6.418139E-17	2.672990E-19
4.288739E+03	6.440804E-17	2.682430E-19
4.290723E+03	6.455330E-17	2.688479E-19
4.292708E+03	6.469760E-17	2.694489E-19
4.294692E+03	6.480234E-17	2.698851E-19
4.296677E+03	6.514223E-17	2.713007E-19
4.298661E+03	6.558980E-17	2.731647E-19
4.300647E+03	6.607199E-17	2.751729E-19
4.302631E+03	6.648027E-17	2.768733E-19
4.304616E+03	6.683947E-17	2.783692E-19
4.306600E+03	6.726437E-17	2.801388E-19
4.308585E+03	6.767515E-17	2.818496E-19
4.310570E+03	6.794514E-17	2.829741E-19
4.312554E+03	6.835362E-17	2.846753E-19
4.314540E+03	6.867503E-17	2.860139E-19
4.316524E+03	6.898945E-17	2.873234E-19
4.318509E+03	6.938387E-17	2.889660E-19
4.320493E+03	6.964412E-17	2.900499E-19
4.322478E+03	6.989355E-17	2.910887E-19
4.324462E+03	7.050348E-17	2.936289E-19
4.326448E+03	7.109827E-17	2.961061E-19
4.328432E+03	7.160435E-17	2.982137E-19
4.330417E+03	7.187569E-17	2.993438E-19
4.332401E+03	7.222109E-17	3.007823E-19
4.334386E+03	7.273367E-17	3.029171E-19
4.336370E+03	7.324088E-17	3.050295E-19
4.338355E+03	7.383705E-17	3.075124E-19
4.340341E+03	7.432097E-17	3.095277E-19
4.342325E+03	7.478409E-17	3.114565E-19
4.344310E+03	7.530315E-17	3.136183E-19
4.346294E+03	7.560822E-17	3.148888E-19
4.348279E+03	7.582296E-17	3.157832E-19
4.350263E+03	7.622266E-17	3.174478E-19
4.352249E+03	7.656026E-17	3.188538E-19
4.354233E+03	7.695629E-17	3.205032E-19
4.356218E+03	7.725402E-17	3.217431E-19
4.358202E+03	7.750456E-17	3.227866E-19
4.360187E+03	7.796452E-17	3.247022E-19
4.362171E+03	7.841628E-17	3.265837E-19
4.364156E+03	7.899307E-17	3.289859E-19
4.366142E+03	7.956843E-17	3.313821E-19
4.368126E+03	8.003734E-17	3.333350E-19
4.370111E+03	8.016085E-17	3.338494E-19
4.372095E+03	8.061430E-17	3.357378E-19
4.374080E+03	8.122858E-17	3.382961E-19
4.376064E+03	8.173729E-17	3.404148E-19
4.378050E+03	8.207634E-17	3.418269E-19
4.380034E+03	8.251508E-17	3.436541E-19
4.382019E+03	8.301086E-17	3.457189E-19
4.384003E+03	8.347091E-17	3.476349E-19
4.385988E+03	8.370805E-17	3.486225E-19
4.387972E+03	8.424951E-17	3.508776E-19
4.389957E+03	8.452969E-17	3.520444E-19
4.391943E+03	8.468686E-17	3.526990E-19
4.393927E+03	8.496248E-17	3.538469E-19
4.395912E+03	8.516093E-17	3.546734E-19
4.397896E+03	8.578263E-17	3.572626E-19
4.399881E+03	8.634886E-17	3.596208E-19
4.401865E+03	8.682763E-17	3.616148E-19
4.403850E+03	8.705477E-17	3.625607E-19
4.405835E+03	8.705447E-17	3.625595E-19
4.407820E+03	8.707259E-17	3.626349E-19
4.409805E+03	8.702421E-17	3.624335E-19
4.411789E+03	8.710299E-17	3.627615E-19
4.413774E+03	8.711665E-17	3.628184E-19
4.415758E+03	8.723259E-17	3.633013E-19
4.417744E+03	8.738197E-17	3.639234E-19
4.419728E+03	8.776892E-17	3.655350E-19
4.421713E+03	8.813123E-17	3.670439E-19
4.423697E+03	8.825471E-17	3.675581E-19
4.425682E+03	8.859252E-17	3.689650E-19
4.427666E+03	8.907689E-17	3.709823E-19
4.429651E+03	8.956221E-17	3.730035E-19
4.431636E+03	8.999325E-17	3.747987E-19
4.433621E+03	9.045739E-17	3.767317E-19
4.435606E+03	9.089811E-17	3.785672E-19
4.437590E+03	9.136379E-17	3.805067E-19
4.439575E+03	9.200169E-17	3.831633E-19
4.441559E+03	9.267989E-17	3.859879E-19
4.443545E+03	9.340134E-17	3.889925E-19
4.445529E+03	9.404154E-17	3.916588E-19
4.447514E+03	9.459897E-17	3.939803E-19
4.449498E+03	9.512613E-17	3.961759E-19
4.451483E+03	9.552800E-17	3.978495E-19
4.453467E+03	9.621597E-17	4.007147E-19
4.455452E+03	9.669703E-17	4.027182E-19
4.457437E+03	9.736693E-17	4.055082E-19
4.459422E+03	9.791117E-17	4.077748E-19
4.461406E+03	9.857107E-17	4.105231E-19
4.463391E+03	9.930197E-17	4.135671E-19
4.465376E+03	9.992747E-17	4.161722E-19
4.467360E+03	1.004759E-16	4.184562E-19
4.469346E+03	1.012242E-16	4.215729E-19
4.471330E+03	1.021277E-16	4.253356E-19
4.473315E+03	1.026659E-16	4.275771E-19
4.475299E+03	1.033026E-16	4.302289E-19
4.477284E+03	1.037836E-16	4.322321E-19
4.479268E+03	1.041356E-16	4.336981E-19
4.481253E+03	1.045697E-16	4.355057E-19
4.483238E+03	1.050776E-16	4.376212E-19
4.485223E+03	1.055920E-16	4.397633E-19
4.487207E+03	1.059395E-16	4.412109E-19
4.489192E+03	1.063583E-16	4.429548E-19
4.491177E+03	1.064017E-16	4.431357E-19
4.493161E+03	1.062363E-16	4.424470E-19
4.495147E+03	1.062069E-16	4.423242E-19
4.497131E+03	1.065152E-16	4.436084E-19
4.499116E+03	1.066080E-16	4.439948E-19
4.501100E+03	1.066588E-16	4.442064E-19
4.503085E+03	1.067780E-16	4.447029E-19
4.505069E+03	1.068552E-16	4.450243E-19
4.507054E+03	1.069616E-16	4.454676E-19
4.509040E+03	1.070850E-16	4.459812E-19
4.511024E+03	1.072600E-16	4.467103E-19
4.513009E+03	1.073805E-16	4.472122E-19
4.514993E+03	1.075501E-16	4.479183E-19
4.516978E+03	1.074848E-16	4.476465E-19
4.518962E+03	1.077854E-16	4.488984E-19
4.520948E+03	1.078649E-16	4.492296E-19
4.522932E+03	1.079458E-16	4.495663E-19
4.524917E+03	1.079290E-16	4.494965E-19
4.526901E+03	1.079586E-16	4.496195E-19
4.528886E+03	1.080743E-16	4.501015E-19
4.530870E+03	1.082113E-16	4.506720E-19
4.532855E+03	1.081028E-16	4.502202E-19
4.534841E+03	1.083802E-16	4.513756E-19
4.536825E+03	1.083706E-16	4.513356E-19
4.538810E+03	1.084135E-16	4.515141E-19
4.540794E+03	1.085329E-16	4.520116E-19
4.542779E+03	1.084528E-16	4.516778E-19
4.544763E+03	1.086605E-16	4.525430E-19
4.546749E+03	1.085168E-16	4.519447E-19
4.548733E+03	1.082767E-16	4.509445E-19
