#wls	flux	fluxerr
1.596488E+03	1.036221E-16	3.233443E-18
1.636400E+03	1.067159E-16	3.310287E-18
1.676312E+03	1.097886E-16	3.384910E-18
1.716224E+03	1.128204E-16	3.456675E-18
1.756136E+03	1.158115E-16	3.525572E-18
1.796049E+03	1.186826E-16	3.589188E-18
1.835961E+03	1.213919E-16	3.646302E-18
1.875873E+03	1.238317E-16	3.693760E-18
1.915785E+03	1.259032E-16	3.728776E-18
1.955697E+03	1.275439E-16	3.749717E-18
1.995610E+03	1.287278E-16	3.756082E-18
2.035522E+03	1.296324E-16	3.753298E-18
2.075434E+03	1.306960E-16	3.754130E-18
2.115346E+03	1.326204E-16	3.778449E-18
2.155258E+03	1.360992E-16	3.845227E-18
2.195171E+03	1.415424E-16	3.964797E-18
2.235083E+03	1.488529E-16	4.132972E-18
2.274995E+03	1.575901E-16	4.336163E-18
2.314907E+03	1.672552E-16	4.559601E-18
2.354819E+03	1.774414E-16	4.791481E-18
2.394732E+03	1.879509E-16	5.025995E-18
2.434644E+03	1.986685E-16	5.259721E-18
2.474556E+03	2.095852E-16	5.492145E-18
2.514468E+03	2.207365E-16	5.723916E-18
2.554380E+03	2.321930E-16	5.956542E-18
2.594293E+03	2.440026E-16	6.190883E-18
2.634205E+03	2.562260E-16	6.428064E-18
2.674117E+03	2.689198E-16	6.669036E-18
2.714029E+03	2.821335E-16	6.914520E-18
2.753941E+03	2.959443E-16	7.165846E-18
2.793854E+03	3.103509E-16	7.422381E-18
2.833766E+03	3.254118E-16	7.684914E-18
2.873678E+03	3.411177E-16	7.952581E-18
2.913590E+03	3.575002E-16	8.225492E-18
2.953502E+03	3.745331E-16	8.502410E-18
2.993414E+03	3.921841E-16	8.782022E-18
3.003393E+03	3.966746E-16	8.851859E-18
3.013371E+03	4.012070E-16	8.921900E-18
3.023349E+03	4.057795E-16	8.992093E-18
3.033327E+03	4.103734E-16	9.062015E-18
3.043305E+03	4.150041E-16	9.132005E-18
3.053283E+03	4.196934E-16	9.202533E-18
3.063261E+03	4.244132E-16	9.272968E-18
3.073239E+03	4.291790E-16	9.343649E-18
3.083217E+03	4.339847E-16	9.414429E-18
3.093195E+03	4.388018E-16	9.484687E-18
3.103173E+03	4.436683E-16	9.555241E-18
3.113151E+03	4.485330E-16	9.624980E-18
3.123129E+03	4.534115E-16	9.694242E-18
3.133107E+03	4.583197E-16	9.763365E-18
3.143085E+03	4.632047E-16	9.831223E-18
3.153063E+03	4.680819E-16	9.898148E-18
3.163041E+03	4.729433E-16	9.963977E-18
3.173019E+03	4.777807E-16	1.002854E-17
3.182997E+03	4.826086E-16	1.009216E-17
3.192975E+03	4.873713E-16	1.015368E-17
3.202954E+03	4.921054E-16	1.021386E-17
3.212932E+03	4.967768E-16	1.027203E-17
3.222910E+03	5.013975E-16	1.032845E-17
3.232888E+03	5.059077E-16	1.038190E-17
3.242866E+03	5.103405E-16	1.043309E-17
3.252844E+03	5.146566E-16	1.048124E-17
3.262822E+03	5.188627E-16	1.052653E-17
3.272800E+03	5.229401E-16	1.056860E-17
3.282778E+03	5.268207E-16	1.060612E-17
3.292756E+03	5.305537E-16	1.064012E-17
3.302734E+03	5.340682E-16	1.066924E-17
3.312712E+03	5.373395E-16	1.069303E-17
3.322690E+03	5.403657E-16	1.071152E-17
3.332668E+03	5.431198E-16	1.072423E-17
3.342646E+03	5.455759E-16	1.073074E-17
3.352624E+03	5.477181E-16	1.073079E-17
3.362602E+03	5.495362E-16	1.072428E-17
3.372580E+03	5.511097E-16	1.071281E-17
3.382558E+03	5.525473E-16	1.069857E-17
3.392536E+03	5.539043E-16	1.068266E-17
3.402514E+03	5.553142E-16	1.066765E-17
3.412493E+03	5.569011E-16	1.065593E-17
3.422471E+03	5.586933E-16	1.064800E-17
3.432449E+03	5.607739E-16	1.064539E-17
3.442427E+03	5.631132E-16	1.064749E-17
3.452405E+03	5.656576E-16	1.065323E-17
3.462383E+03	5.683284E-16	1.066109E-17
3.472361E+03	5.709621E-16	1.066802E-17
3.482339E+03	5.733953E-16	1.067097E-17
3.492317E+03	5.754835E-16	1.066732E-17
3.502295E+03	5.770481E-16	1.065386E-17
3.512273E+03	5.779989E-16	1.062905E-17
3.522251E+03	5.782996E-16	1.059238E-17
3.532229E+03	5.779634E-16	1.054422E-17
3.542207E+03	5.771270E-16	1.048721E-17
3.552185E+03	5.760087E-16	1.042541E-17
3.562163E+03	5.750174E-16	1.036626E-17
3.572141E+03	5.745116E-16	1.031618E-17
3.582119E+03	5.748697E-16	1.028183E-17
3.592097E+03	5.763463E-16	1.026756E-17
3.602075E+03	5.790274E-16	1.027468E-17
3.612053E+03	5.829344E-16	1.030331E-17
3.622032E+03	5.879481E-16	1.035110E-17
3.632010E+03	5.939387E-16	1.041555E-17
3.641988E+03	6.007904E-16	1.049443E-17
3.651966E+03	6.084095E-16	1.058594E-17
3.661944E+03	6.167400E-16	1.068897E-17
3.671922E+03	6.258048E-16	1.080376E-17
3.681900E+03	6.355879E-16	1.092991E-17
3.691878E+03	6.461276E-16	1.106792E-17
3.701856E+03	6.573320E-16	1.121610E-17
3.711834E+03	6.689981E-16	1.137085E-17
3.721812E+03	6.807299E-16	1.152541E-17
3.731790E+03	6.918168E-16	1.166777E-17
3.741768E+03	7.013088E-16	1.178212E-17
3.751746E+03	7.080837E-16	1.184999E-17
3.761724E+03	7.108991E-16	1.185120E-17
3.771702E+03	7.086811E-16	1.176870E-17
3.781680E+03	7.007200E-16	1.159170E-17
3.791658E+03	6.869412E-16	1.132006E-17
3.801636E+03	6.678922E-16	1.096388E-17
3.811614E+03	6.445805E-16	1.054060E-17
3.821592E+03	6.184329E-16	1.007425E-17
3.831571E+03	5.910534E-16	9.591375E-18
3.841549E+03	5.641298E-16	9.119454E-18
3.851527E+03	5.393266E-16	8.685184E-18
3.861505E+03	5.180597E-16	8.310863E-18
3.871483E+03	5.015603E-16	8.015494E-18
3.881461E+03	4.907538E-16	7.812922E-18
3.891439E+03	4.864103E-16	7.714309E-18
3.901417E+03	4.891696E-16	7.728582E-18
3.911395E+03	4.995577E-16	7.862743E-18
3.921373E+03	5.180645E-16	8.123104E-18
3.931351E+03	5.449325E-16	8.512020E-18
3.941329E+03	5.799618E-16	9.024911E-18
3.951307E+03	6.224709E-16	9.649797E-18
3.961285E+03	6.712838E-16	1.036724E-17
3.971263E+03	7.247172E-16	1.115026E-17
3.981241E+03	7.805572E-16	1.196419E-17
3.991219E+03	8.363413E-16	1.277103E-17
4.001197E+03	8.895676E-16	1.353281E-17
4.011175E+03	9.380207E-16	1.421642E-17
4.021153E+03	9.797770E-16	1.479368E-17
4.031132E+03	1.013462E-15	1.524510E-17
4.041110E+03	1.038276E-15	1.556010E-17
4.051088E+03	1.053976E-15	1.573656E-17
4.061066E+03	1.060840E-15	1.578016E-17
4.071044E+03	1.059660E-15	1.570413E-17
4.081022E+03	1.051506E-15	1.552558E-17
4.091000E+03	1.037686E-15	1.526493E-17
4.100978E+03	1.019650E-15	1.494430E-17
4.110956E+03	9.987786E-16	1.458456E-17
4.120934E+03	9.762909E-16	1.420389E-17
4.130912E+03	9.532405E-16	1.381778E-17
4.140890E+03	9.304123E-16	1.343766E-17
4.150868E+03	9.083051E-16	1.307063E-17
4.160846E+03	8.873027E-16	1.272209E-17
4.170824E+03	8.676295E-16	1.239503E-17
4.180802E+03	8.494825E-16	1.209204E-17
4.190780E+03	8.330615E-16	1.181571E-17
4.200758E+03	8.185317E-16	1.156809E-17
4.210736E+03	8.061326E-16	1.135225E-17
4.220714E+03	7.960495E-16	1.117047E-17
4.230692E+03	7.884372E-16	1.102456E-17
4.240671E+03	7.832934E-16	1.091411E-17
4.250649E+03	7.805446E-16	1.083773E-17
4.260627E+03	7.800371E-16	1.079296E-17
4.270605E+03	7.815805E-16	1.077684E-17
4.280583E+03	7.849083E-16	1.078543E-17
4.290561E+03	7.897363E-16	1.081460E-17
4.300539E+03	7.957664E-16	1.086007E-17
4.310517E+03	8.026499E-16	1.091695E-17
4.320495E+03	8.100246E-16	1.098023E-17
4.330473E+03	8.174688E-16	1.104416E-17
4.340451E+03	8.244146E-16	1.110110E-17
4.350429E+03	8.301846E-16	1.114204E-17
4.360407E+03	8.339111E-16	1.115556E-17
4.370385E+03	8.346327E-16	1.112911E-17
4.380363E+03	8.314441E-16	1.105105E-17
4.390341E+03	8.238872E-16	1.091583E-17
4.400319E+03	8.120380E-16	1.072499E-17
4.410297E+03	7.964879E-16	1.048682E-17
4.420275E+03	7.781615E-16	1.021389E-17
4.430253E+03	7.583079E-16	9.922834E-18
4.440231E+03	7.382174E-16	9.630644E-18
4.450210E+03	7.192012E-16	9.354362E-18
4.460188E+03	7.024346E-16	9.109070E-18
4.470166E+03	6.888893E-16	8.907038E-18
4.480144E+03	6.793392E-16	8.757848E-18
4.490122E+03	6.743626E-16	8.668460E-18
4.500100E+03	6.743155E-16	8.642912E-18
4.510078E+03	6.794074E-16	8.683329E-18
4.520056E+03	6.896683E-16	8.789529E-18
4.530034E+03	7.049792E-16	8.959443E-18
4.540012E+03	7.250678E-16	9.189094E-18
4.549990E+03	7.495595E-16	9.473256E-18
4.559968E+03	7.779533E-16	9.805173E-18
4.569946E+03	8.097222E-16	1.017784E-17
4.579924E+03	8.442357E-16	1.058304E-17
4.589902E+03	8.807539E-16	1.101127E-17
4.599880E+03	9.184048E-16	1.145149E-17
4.609858E+03	9.561895E-16	1.189120E-17
4.619836E+03	9.929339E-16	1.231585E-17
4.629814E+03	1.027448E-15	1.271085E-17
4.639792E+03	1.058528E-15	1.306160E-17
4.649771E+03	1.085004E-15	1.335404E-17
4.659749E+03	1.106024E-15	1.357816E-17
4.669727E+03	1.120978E-15	1.372705E-17
4.679705E+03	1.129520E-15	1.379702E-17
4.689683E+03	1.131700E-15	1.378929E-17
4.699661E+03	1.127815E-15	1.370804E-17
4.709639E+03	1.118458E-15	1.356101E-17
4.719617E+03	1.104447E-15	1.335857E-17
4.729595E+03	1.086763E-15	1.311294E-17
4.739573E+03	1.066557E-15	1.283829E-17
4.749551E+03	1.045052E-15	1.254950E-17
4.759529E+03	1.023432E-15	1.226086E-17
4.769507E+03	1.002755E-15	1.198500E-17
4.779485E+03	9.835647E-16	1.172829E-17
4.789463E+03	9.656632E-16	1.148823E-17
4.799441E+03	9.485687E-16	1.125899E-17
4.809419E+03	9.319712E-16	1.103679E-17
4.819397E+03	9.157343E-16	1.081997E-17
4.829375E+03	8.998776E-16	1.060871E-17
4.839353E+03	8.846080E-16	1.040540E-17
4.849331E+03	8.702066E-16	1.021327E-17
4.859310E+03	8.569741E-16	1.003575E-17
4.869288E+03	8.451504E-16	9.875559E-18
4.879266E+03	8.349091E-16	9.734586E-18
4.889244E+03	8.263331E-16	9.613667E-18
4.899222E+03	8.194235E-16	9.512680E-18
4.909200E+03	8.141179E-16	9.430770E-18
4.919178E+03	8.103876E-16	9.367477E-18
4.929156E+03	8.082835E-16	9.323268E-18
4.939134E+03	8.079208E-16	9.299344E-18
4.949112E+03	8.094972E-16	9.297847E-18
4.959090E+03	8.132979E-16	9.321904E-18
4.969068E+03	8.195471E-16	9.373920E-18
4.979046E+03	8.282348E-16	9.453605E-18
4.989024E+03	8.390281E-16	9.557002E-18
4.999002E+03	8.511935E-16	9.675625E-18
5.008980E+03	8.636599E-16	9.797238E-18
5.018958E+03	8.750767E-16	9.906535E-18
5.028936E+03	8.839530E-16	9.986754E-18
5.038914E+03	8.889902E-16	1.002343E-17
5.048892E+03	8.893065E-16	1.000692E-17
5.058870E+03	8.845676E-16	9.933781E-18
5.068849E+03	8.750068E-16	9.806973E-18
5.078827E+03	8.613822E-16	9.635298E-18
5.088805E+03	8.448263E-16	9.431662E-18
5.098783E+03	8.266799E-16	9.211194E-18
5.108761E+03	8.082958E-16	8.989035E-18
5.118739E+03	7.909354E-16	8.779197E-18
5.128717E+03	7.757097E-16	8.593917E-18
5.138695E+03	7.634571E-16	8.442328E-18
5.148673E+03	7.547662E-16	8.330742E-18
5.158651E+03	7.498820E-16	8.261638E-18
5.168629E+03	7.486476E-16	8.233062E-18
5.178607E+03	7.506201E-16	8.239944E-18
5.188585E+03	7.551901E-16	8.275422E-18
5.198563E+03	7.616792E-16	8.331939E-18
5.208541E+03	7.694097E-16	8.401998E-18
5.218519E+03	7.778619E-16	8.479881E-18
5.228497E+03	7.867348E-16	8.562292E-18
5.238475E+03	7.959649E-16	8.648535E-18
5.248453E+03	8.056365E-16	8.739528E-18
5.258431E+03	8.159361E-16	8.837291E-18
5.268409E+03	8.270951E-16	8.944317E-18
5.278388E+03	8.393095E-16	9.062706E-18
5.288366E+03	8.526852E-16	9.193577E-18
5.298344E+03	8.671996E-16	9.336662E-18
5.308322E+03	8.827740E-16	9.491096E-18
5.318300E+03	8.991832E-16	9.654451E-18
5.328278E+03	9.160955E-16	9.823174E-18
5.338256E+03	9.330288E-16	9.992119E-18
5.348234E+03	9.493467E-16	1.015453E-17
5.358212E+03	9.643144E-16	1.030261E-17
5.368190E+03	9.771521E-16	1.042814E-17
5.378168E+03	9.871415E-16	1.052357E-17
5.388146E+03	9.937262E-16	1.058313E-17
5.398124E+03	9.966280E-16	1.060397E-17
5.408102E+03	9.959499E-16	1.058735E-17
5.418080E+03	9.921986E-16	1.053875E-17
5.428058E+03	9.862888E-16	1.046798E-17
5.438036E+03	9.794839E-16	1.038849E-17
5.448014E+03	9.733104E-16	1.031651E-17
5.457992E+03	9.693996E-16	1.026928E-17
5.467970E+03	9.694110E-16	1.026437E-17
5.477949E+03	9.747634E-16	1.031674E-17
5.487927E+03	9.857405E-16	1.042934E-17
5.497905E+03	1.000761E-15	1.058539E-17
5.507883E+03	1.017429E-15	1.075953E-17
5.517861E+03	1.033480E-15	1.092784E-17
5.527839E+03	1.047205E-15	1.107223E-17
5.537817E+03	1.057505E-15	1.118112E-17
5.547795E+03	1.063943E-15	1.124987E-17
5.557773E+03	1.066685E-15	1.128023E-17
5.567751E+03	1.066367E-15	1.127890E-17
5.577729E+03	1.063870E-15	1.125514E-17
5.587707E+03	1.060111E-15	1.121863E-17
5.597685E+03	1.055924E-15	1.117815E-17
5.607663E+03	1.051922E-15	1.114016E-17
5.617641E+03	1.048419E-15	1.110796E-17
5.627619E+03	1.045450E-15	1.108191E-17
5.637597E+03	1.042817E-15	1.105988E-17
5.647575E+03	1.040170E-15	1.103814E-17
5.657553E+03	1.037042E-15	1.101172E-17
5.667531E+03	1.033012E-15	1.097612E-17
5.677509E+03	1.027777E-15	1.092804E-17
5.687488E+03	1.021106E-15	1.086500E-17
5.697466E+03	1.012895E-15	1.078583E-17
5.707444E+03	1.003099E-15	1.068997E-17
5.717422E+03	9.917634E-16	1.057786E-17
5.727400E+03	9.789942E-16	1.045056E-17
5.737378E+03	9.649349E-16	1.030952E-17
5.747356E+03	9.498283E-16	1.015729E-17
5.757334E+03	9.339689E-16	9.996958E-18
5.767312E+03	9.177079E-16	9.832241E-18
5.777290E+03	9.014641E-16	9.667592E-18
5.787268E+03	8.856848E-16	9.507792E-18
5.797246E+03	8.708170E-16	9.357635E-18
5.807224E+03	8.572993E-16	9.221850E-18
5.817202E+03	8.454961E-16	9.104387E-18
5.827180E+03	8.356754E-16	9.008177E-18
5.837158E+03	8.279940E-16	8.934967E-18
5.847136E+03	8.224706E-16	8.885020E-18
5.857114E+03	8.189470E-16	8.856691E-18
5.867092E+03	8.171639E-16	8.847236E-18
5.877070E+03	8.168437E-16	8.853701E-18
5.887048E+03	8.177190E-16	8.873231E-18
5.897027E+03	8.195533E-16	8.903295E-18
5.907005E+03	8.221760E-16	8.942068E-18
5.916983E+03	8.254579E-16	8.988170E-18
5.926961E+03	8.292738E-16	9.040258E-18
5.936939E+03	8.335552E-16	9.097601E-18
5.946917E+03	8.381670E-16	9.158737E-18
5.956895E+03	8.429570E-16	9.222013E-18
5.966873E+03	8.477045E-16	9.285017E-18
5.976851E+03	8.520574E-16	9.343885E-18
5.986829E+03	8.555898E-16	9.393924E-18
5.996807E+03	8.578730E-16	9.430388E-18
6.006785E+03	8.585047E-16	9.448800E-18
6.016763E+03	8.571614E-16	9.445528E-18
6.026741E+03	8.536926E-16	9.418832E-18
6.036719E+03	8.481453E-16	9.369144E-18
6.046697E+03	8.407457E-16	9.298882E-18
6.056675E+03	8.318839E-16	9.212288E-18
6.066653E+03	8.220813E-16	9.115084E-18
6.076631E+03	8.118726E-16	9.013166E-18
6.086609E+03	8.018302E-16	8.912879E-18
6.096588E+03	7.924672E-16	8.819942E-18
6.106566E+03	7.842371E-16	8.739437E-18
6.116544E+03	7.774934E-16	8.675357E-18
6.126522E+03	7.725336E-16	8.631092E-18
6.136500E+03	7.695512E-16	8.608884E-18
6.146478E+03	7.686998E-16	8.610545E-18
6.156456E+03	7.700161E-16	8.636582E-18
6.166434E+03	7.734501E-16	8.686534E-18
6.176412E+03	7.787729E-16	8.757927E-18
6.186390E+03	7.854874E-16	8.845254E-18
6.196368E+03	7.929066E-16	8.940840E-18
6.206346E+03	8.001142E-16	9.034372E-18
6.216324E+03	8.060652E-16	9.114031E-18
6.226302E+03	8.097205E-16	9.167996E-18
6.236280E+03	8.103188E-16	9.187529E-18
6.246258E+03	8.075206E-16	9.168634E-18
6.256236E+03	8.014104E-16	9.112112E-18
6.266214E+03	7.924877E-16	9.023488E-18
6.276192E+03	7.815965E-16	8.912249E-18
6.286170E+03	7.697222E-16	8.789546E-18
6.296148E+03	7.578701E-16	8.666826E-18
6.306127E+03	7.468330E-16	8.553167E-18
6.316105E+03	7.372388E-16	8.455806E-18
6.326083E+03	7.294914E-16	8.379456E-18
6.336061E+03	7.237054E-16	8.325530E-18
6.346039E+03	7.198354E-16	8.293604E-18
6.356017E+03	7.177376E-16	8.282123E-18
6.365995E+03	7.171787E-16	8.288486E-18
6.375973E+03	7.179531E-16	8.310397E-18
6.385951E+03	7.198616E-16	8.345626E-18
6.395929E+03	7.228060E-16	8.393095E-18
6.405907E+03	7.267183E-16	8.452081E-18
6.415885E+03	7.315190E-16	8.521710E-18
6.425863E+03	7.370863E-16	8.600606E-18
6.435841E+03	7.432186E-16	8.686445E-18
6.445819E+03	7.496280E-16	8.775877E-18
6.455797E+03	7.559421E-16	8.864539E-18
6.465775E+03	7.617653E-16	8.947767E-18
6.475753E+03	7.668342E-16	9.022420E-18
6.485731E+03	7.710649E-16	9.087452E-18
6.495709E+03	7.745992E-16	9.144472E-18
6.505687E+03	7.777584E-16	9.197224E-18
6.515666E+03	7.810545E-16	9.251738E-18
6.525644E+03	7.848169E-16	9.311916E-18
6.535622E+03	7.891301E-16	9.378775E-18
6.545600E+03	7.939597E-16	9.451922E-18
6.555578E+03	7.992217E-16	9.530376E-18
6.565556E+03	8.047919E-16	9.612659E-18
6.575534E+03	8.104689E-16	9.696369E-18
6.585512E+03	8.160072E-16	9.778553E-18
6.595490E+03	8.211963E-16	9.856662E-18
6.605468E+03	8.258797E-16	9.928777E-18
6.615446E+03	8.299211E-16	9.993213E-18
6.625424E+03	8.332174E-16	1.004868E-17
6.635402E+03	8.356454E-16	1.009362E-17
6.645380E+03	8.370526E-16	1.012614E-17
6.655358E+03	8.373478E-16	1.014505E-17
6.665336E+03	8.364493E-16	1.014930E-17
6.675314E+03	8.343211E-16	1.013838E-17
6.685292E+03	8.309760E-16	1.011235E-17
6.695270E+03	8.264389E-16	1.007145E-17
6.705248E+03	8.208054E-16	1.001678E-17
6.715227E+03	8.141485E-16	9.949169E-18
6.725205E+03	8.066454E-16	9.870732E-18
6.735183E+03	7.984881E-16	9.783774E-18
6.745161E+03	7.899957E-16	9.692179E-18
6.755139E+03	7.815031E-16	9.600042E-18
6.765117E+03	7.733542E-16	9.511597E-18
6.775095E+03	7.657979E-16	9.429921E-18
6.785073E+03	7.589089E-16	9.355964E-18
6.795051E+03	7.526149E-16	9.288861E-18
6.805029E+03	7.467507E-16	9.226597E-18
6.815007E+03	7.411442E-16	9.167061E-18
6.824985E+03	7.355799E-16	9.107595E-18
6.834963E+03	7.298683E-16	9.045851E-18
6.844941E+03	7.238360E-16	8.979676E-18
6.854919E+03	7.173523E-16	8.907437E-18
6.864897E+03	7.103798E-16	8.828656E-18
6.874875E+03	7.029368E-16	8.743551E-18
6.884853E+03	6.951224E-16	8.653344E-18
6.894831E+03	6.871189E-16	8.560302E-18
6.904809E+03	6.791166E-16	8.466801E-18
6.914787E+03	6.713199E-16	8.375395E-18
6.924766E+03	6.639446E-16	8.288795E-18
6.934744E+03	6.571479E-16	8.208980E-18
6.944722E+03	6.510538E-16	8.137521E-18
6.954700E+03	6.457406E-16	8.075418E-18
6.964678E+03	6.412408E-16	8.023099E-18
6.974656E+03	6.375272E-16	7.980243E-18
6.984634E+03	6.345785E-16	7.946602E-18
6.994612E+03	6.323309E-16	7.921388E-18
7.004590E+03	6.307133E-16	7.903724E-18
7.014568E+03	6.296414E-16	7.892562E-18
7.024546E+03	6.290216E-16	7.886733E-18
7.034524E+03	6.287375E-16	7.884784E-18
7.044502E+03	6.286815E-16	7.885365E-18
7.054480E+03	6.287521E-16	7.887207E-18
7.064458E+03	6.288669E-16	7.889274E-18
7.074436E+03	6.289388E-16	7.890475E-18
7.084414E+03	6.289362E-16	7.890413E-18
7.094392E+03	6.287976E-16	7.888316E-18
7.104370E+03	6.285000E-16	7.883897E-18
7.114348E+03	6.279903E-16	7.876492E-18
7.124326E+03	6.272162E-16	7.865448E-18
7.134305E+03	6.261204E-16	7.850052E-18
7.144283E+03	6.246177E-16	7.829240E-18
7.154261E+03	6.226432E-16	7.802209E-18
7.164239E+03	6.201882E-16	7.768857E-18
7.174217E+03	6.172967E-16	7.729749E-18
7.184195E+03	6.140903E-16	7.686420E-18
7.194173E+03	6.107686E-16	7.641379E-18
7.204151E+03	6.075772E-16	7.597706E-18
7.214129E+03	6.047999E-16	7.558954E-18
7.224107E+03	6.027129E-16	7.528574E-18
7.234085E+03	6.015602E-16	7.509601E-18
7.244063E+03	6.015072E-16	7.504084E-18
7.254041E+03	6.026454E-16	7.513140E-18
7.264019E+03	6.049479E-16	7.536407E-18
7.273997E+03	6.082956E-16	7.572371E-18
7.283975E+03	6.124868E-16	7.618494E-18
7.293953E+03	6.172616E-16	7.671520E-18
7.303931E+03	6.222991E-16	7.727446E-18
7.313909E+03	6.272695E-16	7.782170E-18
7.323887E+03	6.318687E-16	7.831925E-18
7.333865E+03	6.358189E-16	7.873284E-18
7.343844E+03	6.389185E-16	7.903777E-18
7.353822E+03	6.410588E-16	7.922096E-18
7.363800E+03	6.422284E-16	7.928140E-18
7.373778E+03	6.425125E-16	7.923005E-18
7.383756E+03	6.420569E-16	7.908528E-18
7.393734E+03	6.410692E-16	7.887303E-18
7.403712E+03	6.397865E-16	7.862273E-18
7.413690E+03	6.384192E-16	7.836044E-18
7.423668E+03	6.371500E-16	7.810868E-18
7.433646E+03	6.361452E-16	7.788785E-18
7.443624E+03	6.354986E-16	7.770941E-18
7.453602E+03	6.352184E-16	7.757426E-18
7.463580E+03	6.352595E-16	7.747685E-18
7.473558E+03	6.354484E-16	7.739594E-18
7.483536E+03	6.355522E-16	7.730325E-18
7.493514E+03	6.352294E-16	7.715744E-18
7.503492E+03	6.340709E-16	7.690917E-18
7.513470E+03	6.316237E-16	7.650412E-18
7.523448E+03	6.273932E-16	7.588325E-18
7.533426E+03	6.209369E-16	7.499410E-18
7.543405E+03	6.118457E-16	7.378856E-18
7.553383E+03	5.998086E-16	7.223068E-18
7.563361E+03	5.846816E-16	7.030481E-18
7.573339E+03	5.664920E-16	6.801597E-18
7.583317E+03	5.455058E-16	6.539781E-18
7.593295E+03	5.222312E-16	6.251281E-18
7.603273E+03	4.973661E-16	5.944572E-18
7.613251E+03	4.717848E-16	5.630189E-18
7.623229E+03	4.464225E-16	5.319321E-18
7.633207E+03	4.221668E-16	5.022529E-18
7.643185E+03	3.998334E-16	4.749448E-18
7.653163E+03	3.800777E-16	4.507752E-18
7.663141E+03	3.634251E-16	4.303525E-18
7.673119E+03	3.502266E-16	4.140752E-18
7.683097E+03	3.407128E-16	4.021964E-18
7.693075E+03	3.349896E-16	3.948212E-18
7.703053E+03	3.330987E-16	3.919780E-18
7.713031E+03	3.349866E-16	3.935830E-18
7.723009E+03	3.405432E-16	3.994869E-18
7.732987E+03	3.495861E-16	4.094564E-18
7.742965E+03	3.618296E-16	4.231391E-18
