#wls	flux	fluxerr
1.596488E+03	9.945720E-17	2.653191E-21
1.636400E+03	1.024707E-16	2.733582E-21
1.676312E+03	1.054769E-16	2.813777E-21
1.716224E+03	1.084662E-16	2.893520E-21
1.756136E+03	1.114213E-16	2.972352E-21
1.796049E+03	1.142840E-16	3.048719E-21
1.835961E+03	1.170062E-16	3.121339E-21
1.875873E+03	1.195027E-16	3.187939E-21
1.915785E+03	1.216682E-16	3.245706E-21
1.955697E+03	1.234218E-16	3.292487E-21
1.995610E+03	1.247760E-16	3.328612E-21
2.035522E+03	1.258814E-16	3.358100E-21
2.075434E+03	1.271628E-16	3.392282E-21
2.115346E+03	1.293157E-16	3.449716E-21
2.155258E+03	1.330234E-16	3.548625E-21
2.195171E+03	1.387005E-16	3.700071E-21
2.235083E+03	1.462690E-16	3.901973E-21
2.274995E+03	1.553134E-16	4.143246E-21
2.314907E+03	1.653577E-16	4.411196E-21
2.354819E+03	1.760238E-16	4.695731E-21
2.394732E+03	1.871016E-16	4.991251E-21
2.434644E+03	1.985228E-16	5.295930E-21
2.474556E+03	2.102610E-16	5.609066E-21
2.514468E+03	2.223593E-16	5.931807E-21
2.554380E+03	2.348970E-16	6.266271E-21
2.594293E+03	2.479153E-16	6.613555E-21
2.634205E+03	2.615172E-16	6.976410E-21
2.674117E+03	2.757729E-16	7.356703E-21
2.714029E+03	2.907295E-16	7.755694E-21
2.753941E+03	3.064429E-16	8.174877E-21
2.793854E+03	3.229988E-16	8.616532E-21
2.833766E+03	3.404185E-16	9.081230E-21
2.873678E+03	3.587283E-16	9.569675E-21
2.913590E+03	3.780004E-16	1.008379E-20
2.953502E+03	3.981872E-16	1.062230E-20
2.993414E+03	4.192975E-16	1.118546E-20
3.003393E+03	4.247087E-16	1.132981E-20
3.013371E+03	4.301788E-16	1.147573E-20
3.023349E+03	4.357061E-16	1.162318E-20
3.033327E+03	4.412944E-16	1.177226E-20
3.043305E+03	4.469151E-16	1.192220E-20
3.053283E+03	4.526370E-16	1.207484E-20
3.063261E+03	4.584088E-16	1.222881E-20
3.073239E+03	4.642473E-16	1.238456E-20
3.083217E+03	4.701693E-16	1.254254E-20
3.093195E+03	4.761227E-16	1.270136E-20
3.103173E+03	4.821241E-16	1.286146E-20
3.113151E+03	4.881670E-16	1.302266E-20
3.123129E+03	4.942688E-16	1.318544E-20
3.133107E+03	5.003750E-16	1.334833E-20
3.143085E+03	5.065264E-16	1.351243E-20
3.153063E+03	5.126916E-16	1.367689E-20
3.163041E+03	5.188629E-16	1.384153E-20
3.173019E+03	5.250566E-16	1.400675E-20
3.182997E+03	5.312399E-16	1.417170E-20
3.192975E+03	5.374037E-16	1.433613E-20
3.202954E+03	5.435629E-16	1.450044E-20
3.212932E+03	5.496824E-16	1.466368E-20
3.222910E+03	5.557508E-16	1.482557E-20
3.232888E+03	5.617802E-16	1.498641E-20
3.242866E+03	5.677565E-16	1.514584E-20
3.252844E+03	5.736389E-16	1.530276E-20
3.262822E+03	5.794338E-16	1.545735E-20
3.272800E+03	5.851201E-16	1.560904E-20
3.282778E+03	5.906489E-16	1.575653E-20
3.292756E+03	5.960195E-16	1.589980E-20
3.302734E+03	6.012048E-16	1.603813E-20
3.312712E+03	6.061775E-16	1.617078E-20
3.322690E+03	6.109104E-16	1.629704E-20
3.332668E+03	6.153512E-16	1.641551E-20
3.342646E+03	6.195210E-16	1.652674E-20
3.352624E+03	8.698029E-16	2.320342E-20
3.355619E+03	8.610558E-16	2.297008E-20
3.358612E+03	8.522200E-16	2.273437E-20
3.361606E+03	8.435416E-16	2.250286E-20
3.364601E+03	8.322421E-16	2.220142E-20
3.367594E+03	8.218330E-16	2.192374E-20
3.370589E+03	8.129536E-16	2.168687E-20
3.373582E+03	8.034127E-16	2.143235E-20
3.376577E+03	7.940041E-16	2.118136E-20
3.379571E+03	7.854484E-16	2.095312E-20
3.382564E+03	7.775086E-16	2.074132E-20
3.385559E+03	7.674902E-16	2.047406E-20
3.388553E+03	7.552290E-16	2.014697E-20
3.391547E+03	7.434171E-16	1.983187E-20
3.394541E+03	7.318348E-16	1.952289E-20
3.397534E+03	7.195061E-16	1.919400E-20
3.400529E+03	7.081859E-16	1.889202E-20
3.403523E+03	6.991313E-16	1.865047E-20
3.406517E+03	6.923363E-16	1.846921E-20
3.409511E+03	6.852162E-16	1.827927E-20
3.412504E+03	6.784528E-16	1.809884E-20
3.415499E+03	6.723010E-16	1.793473E-20
3.418493E+03	6.664658E-16	1.777907E-20
3.421487E+03	6.607744E-16	1.762724E-20
3.424481E+03	6.557048E-16	1.749200E-20
3.427476E+03	6.530680E-16	1.742166E-20
3.430469E+03	6.532622E-16	1.742684E-20
3.433463E+03	6.537945E-16	1.744104E-20
3.436457E+03	6.569313E-16	1.752472E-20
3.439451E+03	6.607303E-16	1.762606E-20
3.442446E+03	6.634356E-16	1.769823E-20
3.445439E+03	6.676365E-16	1.781030E-20
3.448433E+03	6.754799E-16	1.801953E-20
3.451428E+03	6.855749E-16	1.828883E-20
3.454421E+03	6.945464E-16	1.852816E-20
3.457416E+03	6.978497E-16	1.861628E-20
3.460410E+03	7.012221E-16	1.870625E-20
3.463404E+03	7.064577E-16	1.884592E-20
3.466398E+03	7.132278E-16	1.902652E-20
3.469391E+03	7.226345E-16	1.927746E-20
3.472386E+03	7.315191E-16	1.951447E-20
3.475380E+03	7.407424E-16	1.976052E-20
3.478374E+03	7.469916E-16	1.992722E-20
3.481368E+03	7.527322E-16	2.008036E-20
3.484362E+03	7.609740E-16	2.030023E-20
3.487356E+03	7.689564E-16	2.051317E-20
3.490350E+03	7.746236E-16	2.066435E-20
3.493344E+03	7.775085E-16	2.074131E-20
3.496338E+03	7.810685E-16	2.083628E-20
3.499332E+03	7.891915E-16	2.105297E-20
3.502326E+03	8.003455E-16	2.135052E-20
3.505320E+03	8.077032E-16	2.154680E-20
3.508314E+03	8.116763E-16	2.165279E-20
3.511308E+03	8.175905E-16	2.181056E-20
3.514303E+03	8.226132E-16	2.194455E-20
3.517296E+03	8.194074E-16	2.185903E-20
3.520290E+03	8.136862E-16	2.170641E-20
3.523285E+03	8.095365E-16	2.159571E-20
3.526278E+03	8.064015E-16	2.151208E-20
3.529273E+03	8.038739E-16	2.144465E-20
3.532266E+03	8.009290E-16	2.136609E-20
3.535260E+03	7.982252E-16	2.129396E-20
3.538255E+03	7.953285E-16	2.121669E-20
3.541248E+03	7.885394E-16	2.103558E-20
3.544243E+03	7.799001E-16	2.080511E-20
3.547237E+03	7.730861E-16	2.062333E-20
3.550230E+03	7.655484E-16	2.042225E-20
3.553225E+03	7.556308E-16	2.015769E-20
3.556219E+03	7.469867E-16	1.992709E-20
3.559213E+03	7.392916E-16	1.972181E-20
3.562207E+03	7.316420E-16	1.951775E-20
3.565201E+03	7.272056E-16	1.939940E-20
3.568195E+03	7.233040E-16	1.929531E-20
3.571189E+03	7.201058E-16	1.921000E-20
3.574183E+03	7.197682E-16	1.920099E-20
3.577177E+03	7.193155E-16	1.918891E-20
3.580172E+03	7.173199E-16	1.913568E-20
3.583165E+03	7.137039E-16	1.903922E-20
3.586159E+03	7.116594E-16	1.898468E-20
3.589153E+03	7.132993E-16	1.902842E-20
3.592147E+03	7.164668E-16	1.911292E-20
3.595142E+03	7.203309E-16	1.921600E-20
3.598135E+03	7.254906E-16	1.935364E-20
3.601130E+03	7.320575E-16	1.952883E-20
3.604124E+03	7.382720E-16	1.969461E-20
3.607117E+03	7.419493E-16	1.979271E-20
3.610112E+03	7.460980E-16	1.990338E-20
3.613105E+03	7.511914E-16	2.003926E-20
3.616100E+03	7.552465E-16	2.014743E-20
3.619094E+03	7.583207E-16	2.022944E-20
3.622087E+03	7.611988E-16	2.030622E-20
3.625082E+03	7.655633E-16	2.042265E-20
3.628076E+03	7.702410E-16	2.054743E-20
3.631070E+03	7.727260E-16	2.061373E-20
3.634064E+03	7.754881E-16	2.068741E-20
3.637057E+03	7.758576E-16	2.069727E-20
3.640052E+03	7.749169E-16	2.067217E-20
3.643046E+03	7.762442E-16	2.070758E-20
3.646040E+03	7.790537E-16	2.078253E-20
3.649034E+03	7.800527E-16	2.080918E-20
3.652029E+03	7.788031E-16	2.077584E-20
3.655022E+03	7.801411E-16	2.081153E-20
3.658016E+03	7.828882E-16	2.088482E-20
3.661010E+03	7.843817E-16	2.092466E-20
3.664004E+03	7.842787E-16	2.092191E-20
3.666999E+03	7.836667E-16	2.090559E-20
3.669992E+03	7.822047E-16	2.086658E-20
3.672986E+03	7.805901E-16	2.082351E-20
3.675981E+03	7.786011E-16	2.077045E-20
3.678974E+03	7.754245E-16	2.068571E-20
3.681969E+03	7.725030E-16	2.060777E-20
3.684962E+03	7.694106E-16	2.052528E-20
3.687956E+03	7.661457E-16	2.043818E-20
3.690951E+03	7.635390E-16	2.036864E-20
3.693944E+03	7.626202E-16	2.034413E-20
3.696939E+03	7.644824E-16	2.039381E-20
3.699933E+03	7.644872E-16	2.039394E-20
3.702927E+03	7.614453E-16	2.031279E-20
3.705921E+03	7.588922E-16	2.024468E-20
3.708914E+03	7.581524E-16	2.022495E-20
3.711909E+03	7.582834E-16	2.022844E-20
3.714903E+03	7.604229E-16	2.028552E-20
3.717897E+03	7.645669E-16	2.039607E-20
3.720891E+03	7.674343E-16	2.047256E-20
3.723885E+03	7.707821E-16	2.056187E-20
3.726879E+03	7.777362E-16	2.074738E-20
3.729873E+03	7.859208E-16	2.096572E-20
3.732867E+03	7.934695E-16	2.116709E-20
3.735861E+03	8.019735E-16	2.139395E-20
3.738856E+03	8.114008E-16	2.164543E-20
3.741849E+03	8.210330E-16	2.190239E-20
3.744843E+03	8.313049E-16	2.217641E-20
3.747838E+03	8.409854E-16	2.243465E-20
3.750831E+03	8.491452E-16	2.265233E-20
3.753826E+03	8.585340E-16	2.290279E-20
3.756819E+03	8.681120E-16	2.315830E-20
3.759813E+03	8.767048E-16	2.338752E-20
3.762808E+03	8.843716E-16	2.359205E-20
3.765801E+03	8.917019E-16	2.378760E-20
3.768796E+03	8.994808E-16	2.399511E-20
3.771790E+03	9.054405E-16	2.415410E-20
3.774783E+03	9.083553E-16	2.423185E-20
3.777778E+03	9.100526E-16	2.427713E-20
3.780772E+03	9.111421E-16	2.430620E-20
3.783766E+03	9.119722E-16	2.432834E-20
3.786760E+03	9.115791E-16	2.431785E-20
3.789754E+03	9.082965E-16	2.423028E-20
3.792748E+03	9.027305E-16	2.408180E-20
3.795742E+03	8.954914E-16	2.388869E-20
3.798736E+03	8.876281E-16	2.367892E-20
3.801730E+03	8.783311E-16	2.343091E-20
3.804725E+03	8.674387E-16	2.314033E-20
3.807718E+03	8.556694E-16	2.282637E-20
3.810712E+03	8.430210E-16	2.248895E-20
3.813706E+03	8.277642E-16	2.208195E-20
3.816700E+03	8.107218E-16	2.162732E-20
3.819695E+03	7.926486E-16	2.114519E-20
3.822688E+03	7.745144E-16	2.066143E-20
3.825682E+03	7.562038E-16	2.017296E-20
3.828676E+03	7.365486E-16	1.964863E-20
3.831670E+03	7.162273E-16	1.910652E-20
3.834665E+03	6.954154E-16	1.855133E-20
3.837658E+03	6.751669E-16	1.801117E-20
3.840653E+03	6.555451E-16	1.748773E-20
3.843647E+03	6.355568E-16	1.695451E-20
3.846640E+03	6.154232E-16	1.641741E-20
3.849635E+03	5.961133E-16	1.590229E-20
3.852628E+03	5.783140E-16	1.542746E-20
3.855623E+03	5.604079E-16	1.494979E-20
3.858617E+03	5.429294E-16	1.448352E-20
3.861610E+03	5.268607E-16	1.405486E-20
3.864605E+03	5.124102E-16	1.366937E-20
3.867599E+03	4.998943E-16	1.333549E-20
3.870593E+03	4.878958E-16	1.301541E-20
3.873587E+03	4.771765E-16	1.272945E-20
3.876582E+03	4.674527E-16	1.247006E-20
3.879575E+03	4.596586E-16	1.226214E-20
3.882569E+03	4.544175E-16	1.212232E-20
3.885563E+03	4.507660E-16	1.202491E-20
3.888557E+03	4.490850E-16	1.198007E-20
3.891552E+03	4.486060E-16	1.196729E-20
3.894545E+03	4.480454E-16	1.195233E-20
3.897539E+03	4.474390E-16	1.193616E-20
3.900534E+03	4.485436E-16	1.196563E-20
3.903527E+03	4.517147E-16	1.205022E-20
3.906522E+03	4.566053E-16	1.218069E-20
3.909515E+03	4.638787E-16	1.237472E-20
3.912509E+03	4.726999E-16	1.261003E-20
3.915504E+03	4.829911E-16	1.288457E-20
3.918497E+03	4.952444E-16	1.321144E-20
3.921492E+03	5.097544E-16	1.359852E-20
3.924485E+03	5.258826E-16	1.402877E-20
3.927480E+03	5.425078E-16	1.447227E-20
3.930474E+03	5.595221E-16	1.492616E-20
3.933467E+03	5.794526E-16	1.545783E-20
3.936462E+03	6.003509E-16	1.601533E-20
3.939456E+03	6.224468E-16	1.660477E-20
3.942450E+03	6.458158E-16	1.722818E-20
3.945444E+03	6.695768E-16	1.786204E-20
3.948437E+03	6.934932E-16	1.850005E-20
3.951432E+03	7.184602E-16	1.916609E-20
3.954426E+03	7.437676E-16	1.984120E-20
3.957420E+03	7.688124E-16	2.050931E-20
3.960414E+03	7.928525E-16	2.115062E-20
3.963409E+03	8.165181E-16	2.178194E-20
3.966402E+03	8.403484E-16	2.241765E-20
3.969396E+03	8.632341E-16	2.302816E-20
3.972391E+03	8.848876E-16	2.360580E-20
3.975384E+03	9.055733E-16	2.415763E-20
3.978379E+03	9.257388E-16	2.469557E-20
3.981372E+03	9.456959E-16	2.522796E-20
3.984366E+03	9.646698E-16	2.573412E-20
3.987361E+03	9.821983E-16	2.620172E-20
3.990354E+03	9.994771E-16	2.666266E-20
3.993349E+03	1.015950E-15	2.710210E-20
3.996343E+03	1.031432E-15	2.751511E-20
3.999336E+03	1.045366E-15	2.788681E-20
4.002331E+03	1.058764E-15	2.824424E-20
4.005324E+03	1.071627E-15	2.858738E-20
4.008319E+03	1.084230E-15	2.892359E-20
4.011313E+03	1.095739E-15	2.923061E-20
4.014307E+03	1.106151E-15	2.950836E-20
4.017301E+03	1.115834E-15	2.976668E-20
4.020295E+03	1.124602E-15	3.000056E-20
4.023289E+03	1.133195E-15	3.022980E-20
4.026283E+03	1.140962E-15	3.043700E-20
4.029277E+03	1.147807E-15	3.061961E-20
4.032271E+03	1.154102E-15	3.078753E-20
4.035265E+03	1.159472E-15	3.093079E-20
4.038259E+03	1.163634E-15	3.104182E-20
4.041253E+03	1.166773E-15	3.112556E-20
4.044247E+03	1.169634E-15	3.120188E-20
4.047241E+03	1.172029E-15	3.126577E-20
4.050235E+03	1.173209E-15	3.129724E-20
4.053229E+03	1.173169E-15	3.129616E-20
4.056223E+03	1.172751E-15	3.128503E-20
4.059218E+03	1.172426E-15	3.127634E-20
4.062211E+03	1.171251E-15	3.124501E-20
4.065206E+03	1.169602E-15	3.120102E-20
4.068199E+03	1.167102E-15	3.113433E-20
4.071193E+03	1.163654E-15	3.104234E-20
4.074188E+03	1.159538E-15	3.093255E-20
4.077181E+03	1.155697E-15	3.083006E-20
4.080176E+03	1.151375E-15	3.071478E-20
4.083170E+03	1.145628E-15	3.056148E-20
4.086163E+03	1.139303E-15	3.039273E-20
4.089158E+03	1.131829E-15	3.019337E-20
4.092151E+03	1.124059E-15	2.998608E-20
4.095146E+03	1.116937E-15	2.979610E-20
4.098140E+03	1.109613E-15	2.960071E-20
4.101134E+03	1.102085E-15	2.939989E-20
4.104128E+03	1.093879E-15	2.918099E-20
4.107122E+03	1.086039E-15	2.897182E-20
4.110116E+03	1.078754E-15	2.877749E-20
4.113110E+03	1.071931E-15	2.859549E-20
4.116104E+03	1.064525E-15	2.839791E-20
4.119098E+03	1.056629E-15	2.818727E-20
4.122092E+03	1.049576E-15	2.799913E-20
4.125086E+03	1.042702E-15	2.781574E-20
4.128080E+03	1.036005E-15	2.763710E-20
4.131075E+03	1.030060E-15	2.747851E-20
4.134068E+03	1.024105E-15	2.731964E-20
4.137062E+03	1.019574E-15	2.719877E-20
4.140056E+03	1.015894E-15	2.710061E-20
4.143050E+03	1.011728E-15	2.698948E-20
4.146045E+03	1.007265E-15	2.687041E-20
4.149038E+03	1.002313E-15	2.673830E-20
4.152033E+03	9.973496E-16	2.660590E-20
4.155027E+03	9.920889E-16	2.646556E-20
4.158020E+03	9.868171E-16	2.632493E-20
4.161015E+03	9.825944E-16	2.621228E-20
4.164008E+03	9.784586E-16	2.610195E-20
4.167003E+03	9.739278E-16	2.598109E-20
4.169997E+03	9.699664E-16	2.587541E-20
4.172990E+03	9.663828E-16	2.577981E-20
4.175985E+03	9.629837E-16	2.568913E-20
4.178979E+03	9.598867E-16	2.560652E-20
4.181973E+03	9.563753E-16	2.551284E-20
4.184967E+03	9.523428E-16	2.540527E-20
4.187961E+03	9.485726E-16	2.530470E-20
4.190955E+03	9.447744E-16	2.520337E-20
4.193949E+03	9.403566E-16	2.508552E-20
4.196943E+03	9.353566E-16	2.495214E-20
4.199937E+03	9.309784E-16	2.483534E-20
4.202932E+03	9.269692E-16	2.472839E-20
4.205925E+03	9.225917E-16	2.461161E-20
4.208919E+03	9.183405E-16	2.449821E-20
4.211914E+03	9.146556E-16	2.439990E-20
4.214907E+03	9.109808E-16	2.430187E-20
4.217902E+03	9.077071E-16	2.421454E-20
4.220895E+03	9.054792E-16	2.415511E-20
4.223889E+03	9.041129E-16	2.411866E-20
4.226884E+03	9.027023E-16	2.408103E-20
4.229877E+03	9.013638E-16	2.404532E-20
4.232872E+03	9.007532E-16	2.402903E-20
4.235866E+03	9.013902E-16	2.404603E-20
4.238860E+03	9.022587E-16	2.406920E-20
4.241854E+03	9.031831E-16	2.409386E-20
4.244847E+03	9.043104E-16	2.412393E-20
4.247842E+03	9.058656E-16	2.416542E-20
4.250836E+03	9.077921E-16	2.421681E-20
4.253830E+03	9.102165E-16	2.428148E-20
4.256824E+03	9.133075E-16	2.436394E-20
4.259818E+03	9.164473E-16	2.444770E-20
4.262812E+03	9.196248E-16	2.453246E-20
4.265806E+03	9.225845E-16	2.461142E-20
4.268800E+03	9.257105E-16	2.469481E-20
4.271794E+03	9.293182E-16	2.479105E-20
4.274788E+03	9.323824E-16	2.487279E-20
4.277782E+03	9.346163E-16	2.493239E-20
4.280776E+03	9.370060E-16	2.499613E-20
4.283771E+03	9.392938E-16	2.505716E-20
4.286764E+03	9.415196E-16	2.511654E-20
4.289759E+03	9.439797E-16	2.518217E-20
4.292752E+03	9.464075E-16	2.524693E-20
4.295746E+03	9.485654E-16	2.530450E-20
4.298741E+03	9.505710E-16	2.535800E-20
4.301734E+03	9.519983E-16	2.539608E-20
4.304729E+03	9.531147E-16	2.542586E-20
4.307723E+03	9.535322E-16	2.543699E-20
4.310716E+03	9.533386E-16	2.543183E-20
4.313711E+03	9.524944E-16	2.540931E-20
4.316704E+03	9.514942E-16	2.538263E-20
4.319699E+03	9.509238E-16	2.536741E-20
4.322693E+03	9.499303E-16	2.534091E-20
4.325686E+03	9.484313E-16	2.530092E-20
4.328681E+03	9.467461E-16	2.525597E-20
4.331675E+03	9.451830E-16	2.521427E-20
4.334669E+03	9.434324E-16	2.516757E-20
4.337663E+03	9.413544E-16	2.511213E-20
4.340658E+03	9.394481E-16	2.506128E-20
4.343651E+03	9.376829E-16	2.501419E-20
4.346645E+03	9.358001E-16	2.496396E-20
4.349639E+03	9.347463E-16	2.493585E-20
4.352633E+03	9.341251E-16	2.491928E-20
4.355628E+03	9.333655E-16	2.489902E-20
4.358621E+03	9.327385E-16	2.488229E-20
4.361615E+03	9.323637E-16	2.487229E-20
4.364610E+03	9.327905E-16	2.488368E-20
4.367603E+03	9.336004E-16	2.490528E-20
4.370598E+03	9.340436E-16	2.491710E-20
4.373591E+03	9.350702E-16	2.494449E-20
4.376586E+03	9.363993E-16	2.497994E-20
4.379580E+03	9.373016E-16	2.500402E-20
4.382573E+03	9.379061E-16	2.502014E-20
4.385568E+03	9.383525E-16	2.503205E-20
4.388562E+03	9.376704E-16	2.501385E-20
4.391556E+03	9.358673E-16	2.496575E-20
4.394550E+03	9.337650E-16	2.490967E-20
4.397543E+03	9.314636E-16	2.484828E-20
4.400538E+03	9.283512E-16	2.476525E-20
4.403532E+03	9.242473E-16	2.465577E-20
4.406526E+03	9.193310E-16	2.452462E-20
4.409520E+03	9.137235E-16	2.437503E-20
4.412513E+03	9.070115E-16	2.419598E-20
4.415508E+03	8.995578E-16	2.399714E-20
4.418502E+03	8.920428E-16	2.379666E-20
4.421496E+03	8.846195E-16	2.359863E-20
4.424490E+03	8.769264E-16	2.339341E-20
4.427485E+03	8.691530E-16	2.318604E-20
4.430478E+03	8.615517E-16	2.298327E-20
4.433472E+03	8.539125E-16	2.277948E-20
4.436466E+03	8.459325E-16	2.256660E-20
4.439460E+03	8.376524E-16	2.234571E-20
4.442455E+03	8.293847E-16	2.212516E-20
4.445448E+03	8.214105E-16	2.191243E-20
4.448442E+03	8.133389E-16	2.169711E-20
4.451437E+03	8.056420E-16	2.149178E-20
4.454430E+03	7.982101E-16	2.129352E-20
4.457425E+03	7.911641E-16	2.110556E-20
4.460418E+03	7.846051E-16	2.093059E-20
4.463412E+03	7.788459E-16	2.077695E-20
4.466407E+03	7.738062E-16	2.064251E-20
4.469400E+03	7.693857E-16	2.052459E-20
4.472395E+03	7.657863E-16	2.042857E-20
4.475389E+03	7.631597E-16	2.035850E-20
4.478383E+03	7.614254E-16	2.031223E-20
4.481377E+03	7.606747E-16	2.029221E-20
4.484370E+03	7.609079E-16	2.029843E-20
4.487365E+03	7.616617E-16	2.031854E-20
4.490359E+03	7.630470E-16	2.035549E-20
4.493353E+03	7.649331E-16	2.040581E-20
4.496347E+03	7.674511E-16	2.047298E-20
4.499341E+03	7.704096E-16	2.055190E-20
4.502335E+03	7.739097E-16	2.064527E-20
4.505329E+03	7.778101E-16	2.074932E-20
4.508324E+03	7.821816E-16	2.086594E-20
4.511317E+03	7.865906E-16	2.098355E-20
4.514312E+03	7.914807E-16	2.111401E-20
4.517305E+03	7.973667E-16	2.127102E-20
4.520299E+03	8.030381E-16	2.142232E-20
4.523294E+03	8.089487E-16	2.157999E-20
4.526287E+03	8.156537E-16	2.175886E-20
4.529282E+03	8.220628E-16	2.192983E-20
4.532276E+03	8.277332E-16	2.208110E-20
4.535269E+03	8.339553E-16	2.224708E-20
4.538264E+03	8.413243E-16	2.244366E-20
4.541257E+03	8.486107E-16	2.263804E-20
4.544252E+03	8.556914E-16	2.282693E-20
4.547246E+03	8.630928E-16	2.302437E-20
4.550239E+03	8.710556E-16	2.323679E-20
4.553234E+03	8.798339E-16	2.347097E-20
4.556228E+03	8.888000E-16	2.371015E-20
4.559222E+03	8.976926E-16	2.394737E-20
4.562216E+03	9.067137E-16	2.418803E-20
4.565210E+03	9.155900E-16	2.442482E-20
4.568204E+03	9.246956E-16	2.466772E-20
4.571198E+03	9.337066E-16	2.490811E-20
4.574192E+03	9.425234E-16	2.514331E-20
4.577186E+03	9.514681E-16	2.538192E-20
4.580181E+03	9.605001E-16	2.562286E-20
4.583174E+03	9.700436E-16	2.587745E-20
4.586168E+03	9.798571E-16	2.613924E-20
4.589162E+03	9.895648E-16	2.639821E-20
4.592156E+03	1.000179E-15	2.668135E-20
4.595151E+03	1.010990E-15	2.696976E-20
4.598144E+03	1.021535E-15	2.725108E-20
4.601138E+03	1.032179E-15	2.753501E-20
4.604132E+03	1.042818E-15	2.781883E-20
4.607126E+03	1.053052E-15	2.809182E-20
4.610121E+03	1.063583E-15	2.837277E-20
4.613114E+03	1.074112E-15	2.865364E-20
4.616109E+03	1.084839E-15	2.893980E-20
4.619103E+03	1.095764E-15	2.923125E-20
4.622096E+03	1.106383E-15	2.951452E-20
4.625091E+03	1.116394E-15	2.978158E-20
4.628084E+03	1.125998E-15	3.003779E-20
4.631079E+03	1.135195E-15	3.028313E-20
4.634073E+03	1.142878E-15	3.048808E-20
4.637066E+03	1.149449E-15	3.066339E-20
4.640061E+03	1.155816E-15	3.083323E-20
4.643055E+03	1.161877E-15	3.099492E-20
4.646049E+03	1.167231E-15	3.113775E-20
4.649043E+03	1.171878E-15	3.126170E-20
4.652037E+03	1.176219E-15	3.137750E-20
4.655031E+03	1.180155E-15	3.148251E-20
4.658025E+03	1.183183E-15	3.156328E-20
4.661019E+03	1.185906E-15	3.163593E-20
4.664013E+03	1.187822E-15	3.168704E-20
4.667008E+03	1.189536E-15	3.173276E-20
4.670001E+03	1.191348E-15	3.178110E-20
