#wls	flux	fluxerr
1.596488E+03	8.774809E-17	2.385095E-18
1.636400E+03	9.037998E-17	2.445878E-18
1.676312E+03	9.298344E-17	2.505033E-18
1.716224E+03	9.555607E-17	2.562483E-18
1.756136E+03	9.805971E-17	2.617201E-18
1.796049E+03	1.004727E-16	2.668614E-18
1.835961E+03	1.027199E-16	2.714750E-18
1.875873E+03	1.047257E-16	2.753671E-18
1.915785E+03	1.064066E-16	2.783268E-18
1.955697E+03	1.076932E-16	2.801855E-18
1.995610E+03	1.085806E-16	2.809461E-18
2.035522E+03	1.092110E-16	2.809904E-18
2.075434E+03	1.099462E-16	2.812547E-18
2.115346E+03	1.113739E-16	2.832282E-18
2.155258E+03	1.140877E-16	2.883792E-18
2.195171E+03	1.183972E-16	2.974235E-18
2.235083E+03	1.242151E-16	3.100654E-18
2.274995E+03	1.311507E-16	3.252593E-18
2.314907E+03	1.387824E-16	3.419069E-18
2.354819E+03	1.467708E-16	3.591376E-18
2.394732E+03	1.549218E-16	3.764557E-18
2.434644E+03	1.631506E-16	3.936427E-18
2.474556E+03	1.714303E-16	4.106241E-18
2.514468E+03	1.797903E-16	4.274610E-18
2.554380E+03	1.882531E-16	4.441974E-18
2.594293E+03	1.968790E-16	4.609631E-18
2.634205E+03	2.056793E-16	4.777704E-18
2.674117E+03	2.147065E-16	4.947258E-18
2.714029E+03	2.239690E-16	5.118313E-18
2.753941E+03	2.334911E-16	5.291239E-18
2.793854E+03	2.432871E-16	5.466172E-18
2.833766E+03	2.533318E-16	5.642352E-18
2.873678E+03	2.636262E-16	5.819628E-18
2.913590E+03	2.741402E-16	5.997166E-18
2.953502E+03	2.847919E-16	6.173041E-18
2.993414E+03	2.954996E-16	6.345405E-18
3.003393E+03	2.981762E-16	6.387749E-18
3.013371E+03	3.008552E-16	6.429849E-18
3.023349E+03	3.035183E-16	6.471314E-18
3.033327E+03	3.061821E-16	6.512496E-18
3.043305E+03	3.088248E-16	6.552940E-18
3.053283E+03	3.114766E-16	6.593283E-18
3.063261E+03	3.141156E-16	6.633064E-18
3.073239E+03	3.167671E-16	6.672817E-18
3.083217E+03	3.193929E-16	6.711737E-18
3.093195E+03	3.219862E-16	6.749687E-18
3.103173E+03	3.245723E-16	6.787203E-18
3.113151E+03	3.271123E-16	6.823473E-18
3.123129E+03	3.296310E-16	6.859022E-18
3.133107E+03	3.320888E-16	6.893031E-18
3.143085E+03	3.344940E-16	6.925681E-18
3.153063E+03	3.368384E-16	6.956815E-18
3.163041E+03	3.391136E-16	6.986266E-18
3.173019E+03	3.413268E-16	7.014196E-18
3.182997E+03	3.434359E-16	7.039753E-18
3.192975E+03	3.454634E-16	7.063413E-18
3.202954E+03	3.473663E-16	7.084311E-18
3.212932E+03	3.491656E-16	7.102898E-18
3.222910E+03	3.508331E-16	7.118619E-18
3.232888E+03	3.523723E-16	7.131563E-18
3.242866E+03	3.537535E-16	7.141153E-18
3.252844E+03	3.549623E-16	7.147127E-18
3.262822E+03	3.560000E-16	7.149538E-18
3.272800E+03	3.568351E-16	7.147781E-18
3.282778E+03	3.574678E-16	7.141895E-18
3.292756E+03	3.578664E-16	7.131283E-18
3.302734E+03	3.580318E-16	7.115998E-18
3.312712E+03	3.579503E-16	7.095804E-18
3.322690E+03	3.575949E-16	7.070213E-18
3.332668E+03	3.569746E-16	7.039442E-18
3.342646E+03	3.560882E-16	7.003509E-18
3.352624E+03	3.549422E-16	6.962590E-18
3.362602E+03	3.535375E-16	6.916738E-18
3.372580E+03	3.519293E-16	6.867075E-18
3.382558E+03	3.501207E-16	6.813695E-18
3.392536E+03	3.481798E-16	6.757949E-18
3.402514E+03	3.461315E-16	6.700343E-18
3.412493E+03	3.440126E-16	6.641605E-18
3.422471E+03	3.418525E-16	6.582312E-18
3.432449E+03	3.396696E-16	6.522825E-18
3.442427E+03	3.374831E-16	6.463519E-18
3.452405E+03	3.352722E-16	6.403995E-18
3.462383E+03	3.330330E-16	6.344185E-18
3.472361E+03	3.307294E-16	6.283409E-18
3.482339E+03	3.283530E-16	6.221517E-18
3.492317E+03	3.258778E-16	6.158030E-18
3.502295E+03	3.233205E-16	6.093280E-18
3.512273E+03	3.206965E-16	6.027570E-18
3.522251E+03	3.180763E-16	5.962230E-18
3.532229E+03	3.155642E-16	5.899211E-18
3.542207E+03	3.132649E-16	5.840451E-18
3.552185E+03	3.113301E-16	5.788737E-18
3.562163E+03	3.099273E-16	5.747122E-18
3.572141E+03	3.092015E-16	5.718207E-18
3.582119E+03	3.093170E-16	5.704922E-18
3.592097E+03	3.104100E-16	5.709647E-18
3.602075E+03	3.125090E-16	5.732761E-18
3.612053E+03	3.155461E-16	5.772873E-18
3.622032E+03	3.194858E-16	5.829196E-18
3.632010E+03	3.242558E-16	5.900282E-18
3.641988E+03	3.298052E-16	5.985088E-18
3.651966E+03	3.360601E-16	6.082159E-18
3.661944E+03	3.429539E-16	6.190195E-18
3.671922E+03	3.504231E-16	6.307959E-18
3.681900E+03	3.583755E-16	6.433715E-18
3.691878E+03	3.666773E-16	6.564999E-18
3.701856E+03	3.751718E-16	6.698964E-18
3.711834E+03	3.836158E-16	6.831255E-18
3.721812E+03	3.917130E-16	6.956618E-18
3.731790E+03	3.990728E-16	7.068187E-18
3.741768E+03	4.052321E-16	7.157890E-18
3.751746E+03	4.096743E-16	7.216799E-18
3.761724E+03	4.119332E-16	7.236974E-18
3.771702E+03	4.115782E-16	7.211179E-18
3.781680E+03	4.083773E-16	7.135734E-18
3.791658E+03	4.022953E-16	7.010426E-18
3.801636E+03	3.935816E-16	6.840000E-18
3.811614E+03	3.826901E-16	6.632689E-18
3.821592E+03	3.702751E-16	6.400108E-18
3.831571E+03	3.571594E-16	6.156651E-18
3.841549E+03	3.441877E-16	5.916932E-18
3.851527E+03	3.322391E-16	5.696001E-18
3.861505E+03	3.220923E-16	5.507022E-18
3.871483E+03	3.144568E-16	5.361840E-18
3.881461E+03	3.099329E-16	5.270308E-18
3.891439E+03	3.089949E-16	5.240036E-18
3.901417E+03	3.120577E-16	5.277539E-18
3.911395E+03	3.194556E-16	5.387905E-18
3.921373E+03	3.314536E-16	5.574988E-18
3.931351E+03	3.482315E-16	5.841174E-18
3.941329E+03	3.698507E-16	6.186832E-18
3.951307E+03	3.961939E-16	6.609348E-18
3.961285E+03	4.269469E-16	7.102853E-18
3.971263E+03	4.614774E-16	7.656255E-18
3.981241E+03	4.988840E-16	8.254136E-18
3.991219E+03	5.379706E-16	8.876376E-18
4.001197E+03	5.773097E-16	9.499268E-18
4.011175E+03	6.153385E-16	1.009715E-17
4.021153E+03	6.505339E-16	1.064527E-17
4.031132E+03	6.814858E-16	1.112103E-17
4.041110E+03	7.070840E-16	1.150694E-17
4.051088E+03	7.265506E-16	1.179110E-17
4.061066E+03	7.394634E-16	1.196751E-17
4.071044E+03	7.458072E-16	1.203682E-17
4.081022E+03	7.459535E-16	1.200588E-17
4.091000E+03	7.405372E-16	1.188572E-17
4.100978E+03	7.304405E-16	1.169121E-17
4.110956E+03	7.166612E-16	1.143888E-17
4.120934E+03	7.001819E-16	1.114486E-17
4.130912E+03	6.819603E-16	1.082473E-17
4.140890E+03	6.628173E-16	1.049168E-17
4.150868E+03	6.432710E-16	1.015402E-17
4.160846E+03	6.237470E-16	9.818495E-18
4.170824E+03	6.046277E-16	9.491101E-18
4.180802E+03	5.862239E-16	9.176644E-18
4.190780E+03	5.688510E-16	8.879950E-18
4.200758E+03	5.528343E-16	8.605943E-18
4.210736E+03	5.384427E-16	8.358617E-18
4.220714E+03	5.259349E-16	8.141762E-18
4.230692E+03	5.155611E-16	7.958994E-18
4.240671E+03	5.074407E-16	7.811874E-18
4.250649E+03	5.016885E-16	7.701870E-18
4.260627E+03	4.983482E-16	7.629350E-18
4.270605E+03	4.973481E-16	7.592910E-18
4.280583E+03	4.985830E-16	7.590650E-18
4.290561E+03	5.019034E-16	7.620020E-18
4.300539E+03	5.071187E-16	7.677874E-18
4.310517E+03	5.139958E-16	7.760457E-18
4.320495E+03	5.222348E-16	7.863049E-18
4.330473E+03	5.313697E-16	7.978491E-18
4.340451E+03	5.408380E-16	8.098253E-18
4.350429E+03	5.499630E-16	8.212195E-18
4.360407E+03	5.579057E-16	8.307876E-18
4.370385E+03	5.638305E-16	8.373036E-18
4.380363E+03	5.669511E-16	8.396287E-18
4.390341E+03	5.666179E-16	8.368379E-18
4.400319E+03	5.626798E-16	8.287511E-18
4.410297E+03	5.554295E-16	8.158420E-18
4.420275E+03	5.453435E-16	7.988480E-18
4.430253E+03	5.330766E-16	7.787594E-18
4.440231E+03	5.194214E-16	7.567560E-18
4.450210E+03	5.051932E-16	7.340383E-18
4.460188E+03	4.912701E-16	7.118843E-18
4.470166E+03	4.785243E-16	6.915505E-18
4.480144E+03	4.677687E-16	6.741934E-18
4.490122E+03	4.598311E-16	6.609795E-18
4.500100E+03	4.553932E-16	6.528531E-18
4.510078E+03	4.549415E-16	6.504689E-18
4.520056E+03	4.589050E-16	6.543934E-18
4.530034E+03	4.676169E-16	6.650501E-18
4.540012E+03	4.811483E-16	6.824866E-18
4.549990E+03	4.994298E-16	7.065514E-18
4.559968E+03	5.223808E-16	7.370786E-18
4.569946E+03	5.496844E-16	7.735714E-18
4.579924E+03	5.809140E-16	8.153846E-18
4.589902E+03	6.155015E-16	8.616815E-18
4.599880E+03	6.526422E-16	9.113039E-18
4.609858E+03	6.913272E-16	9.628211E-18
4.619836E+03	7.304048E-16	1.014619E-17
4.629814E+03	7.685216E-16	1.064821E-17
4.639792E+03	8.042721E-16	1.111497E-17
4.649771E+03	8.361917E-16	1.152656E-17
4.659749E+03	8.628782E-16	1.186413E-17
4.669727E+03	8.830565E-16	1.211076E-17
4.679705E+03	8.958435E-16	1.225507E-17
4.689683E+03	9.007644E-16	1.229136E-17
4.699661E+03	8.978521E-16	1.222090E-17
4.709639E+03	8.877089E-16	1.205266E-17
4.719617E+03	8.715201E-16	1.180343E-17
4.729595E+03	8.508604E-16	1.149510E-17
4.739573E+03	8.276632E-16	1.115415E-17
4.749551E+03	8.040583E-16	1.080945E-17
4.759529E+03	7.820892E-16	1.048845E-17
4.769507E+03	7.635282E-16	1.021466E-17
4.779485E+03	7.493220E-16	1.000040E-17
4.789463E+03	7.386749E-16	9.834620E-18
4.799441E+03	7.303850E-16	9.701023E-18
4.809419E+03	7.234084E-16	9.585544E-18
4.819397E+03	7.169652E-16	9.477745E-18
4.829375E+03	7.105805E-16	9.371305E-18
4.839353E+03	7.041226E-16	9.264477E-18
4.849331E+03	6.976871E-16	9.158516E-18
4.859310E+03	6.915287E-16	9.056750E-18
4.869288E+03	6.859307E-16	8.962847E-18
4.879266E+03	6.811880E-16	8.880595E-18
4.889244E+03	6.775432E-16	8.813068E-18
4.899222E+03	6.751074E-16	8.761607E-18
4.909200E+03	6.739216E-16	8.726633E-18
4.919178E+03	6.739974E-16	8.708182E-18
4.929156E+03	6.753096E-16	8.705822E-18
4.939134E+03	6.778321E-16	8.719108E-18
4.949112E+03	6.815794E-16	8.748125E-18
4.959090E+03	6.866627E-16	8.794194E-18
4.969068E+03	6.931722E-16	8.858358E-18
4.979046E+03	7.011270E-16	8.940747E-18
4.989024E+03	7.104100E-16	9.039755E-18
4.999002E+03	7.207295E-16	9.151574E-18
5.008980E+03	7.315540E-16	9.269392E-18
5.018958E+03	7.420245E-16	9.382315E-18
5.028936E+03	7.510972E-16	9.477205E-18
5.038914E+03	7.576975E-16	9.540649E-18
5.048892E+03	7.608285E-16	9.560319E-18
5.058870E+03	7.597445E-16	9.527135E-18
5.068849E+03	7.541076E-16	9.437194E-18
5.078827E+03	7.441678E-16	9.293964E-18
5.088805E+03	7.306021E-16	9.106205E-18
5.098783E+03	7.143929E-16	8.886399E-18
5.108761E+03	6.967418E-16	8.649654E-18
5.118739E+03	6.789160E-16	8.411765E-18
5.128717E+03	6.620535E-16	8.186807E-18
5.138695E+03	6.471209E-16	7.986629E-18
5.148673E+03	6.348741E-16	7.820393E-18
5.158651E+03	6.258166E-16	7.694094E-18
5.168629E+03	6.201413E-16	7.609868E-18
5.178607E+03	6.178386E-16	7.567358E-18
5.188585E+03	6.186864E-16	7.563616E-18
5.198563E+03	6.222436E-16	7.593045E-18
5.208541E+03	6.279579E-16	7.648741E-18
5.218519E+03	6.352873E-16	7.723976E-18
5.228497E+03	6.437553E-16	7.812866E-18
5.238475E+03	6.529973E-16	7.910929E-18
5.248453E+03	6.627938E-16	8.015470E-18
5.258431E+03	6.730537E-16	8.125365E-18
5.268409E+03	6.838301E-16	8.241236E-18
5.278388E+03	6.952840E-16	8.364999E-18
5.288366E+03	7.076143E-16	8.499013E-18
5.298344E+03	7.210343E-16	8.645800E-18
5.308322E+03	7.357258E-16	8.807482E-18
5.318300E+03	7.517274E-16	8.984465E-18
5.328278E+03	7.689271E-16	9.175355E-18
5.338256E+03	7.871053E-16	9.377486E-18
5.348234E+03	8.058200E-16	9.585567E-18
5.358212E+03	8.245129E-16	9.792959E-18
5.368190E+03	8.424545E-16	9.991037E-18
5.378168E+03	8.588706E-16	1.017069E-17
5.388146E+03	8.729143E-16	1.032202E-17
5.398124E+03	8.839145E-16	1.043723E-17
5.408102E+03	8.914322E-16	1.051132E-17
5.418080E+03	8.953325E-16	1.054289E-17
5.428058E+03	8.958968E-16	1.053544E-17
5.438036E+03	8.938726E-16	1.049790E-17
5.448014E+03	8.904736E-16	1.044463E-17
5.457992E+03	8.874029E-16	1.039566E-17
5.467970E+03	8.869729E-16	1.037802E-17
5.477949E+03	8.914879E-16	1.041855E-17
5.487927E+03	9.022624E-16	1.053239E-17
5.497905E+03	9.186178E-16	1.071139E-17
5.507883E+03	9.391374E-16	1.093888E-17
5.517861E+03	9.621147E-16	1.119485E-17
5.527839E+03	9.859463E-16	1.146060E-17
5.537817E+03	1.009172E-15	1.171917E-17
5.547795E+03	1.030500E-15	1.195560E-17
5.557773E+03	1.049025E-15	1.215949E-17
5.567751E+03	1.064165E-15	1.232418E-17
5.577729E+03	1.075585E-15	1.244593E-17
5.587707E+03	1.083420E-15	1.252638E-17
5.597685E+03	1.088008E-15	1.256956E-17
5.607663E+03	1.089913E-15	1.258206E-17
5.617641E+03	1.089826E-15	1.257190E-17
5.627619E+03	1.088423E-15	1.254692E-17
5.637597E+03	1.086319E-15	1.251423E-17
5.647575E+03	1.083941E-15	1.247875E-17
5.657553E+03	1.081533E-15	1.244329E-17
5.667531E+03	1.079107E-15	1.240795E-17
5.677509E+03	1.076550E-15	1.237146E-17
5.687488E+03	1.073546E-15	1.233016E-17
5.697466E+03	1.069650E-15	1.227893E-17
5.707444E+03	1.064386E-15	1.221233E-17
5.717422E+03	1.057190E-15	1.212391E-17
5.727400E+03	1.047580E-15	1.200814E-17
5.737378E+03	1.035254E-15	1.186160E-17
5.747356E+03	1.020031E-15	1.168225E-17
5.757334E+03	1.002046E-15	1.147165E-17
5.767312E+03	9.819553E-16	1.123732E-17
5.777290E+03	9.606119E-16	1.098905E-17
5.787268E+03	9.388897E-16	1.073682E-17
5.797246E+03	9.177079E-16	1.049112E-17
5.807224E+03	8.978689E-16	1.026110E-17
5.817202E+03	8.800601E-16	1.005459E-17
5.827180E+03	8.648040E-16	9.877515E-18
5.837158E+03	8.524631E-16	9.733976E-18
5.847136E+03	8.432027E-16	9.625826E-18
5.857114E+03	8.369953E-16	9.552718E-18
5.867092E+03	8.336415E-16	9.512343E-18
5.877070E+03	8.328043E-16	9.500832E-18
5.887048E+03	8.340782E-16	9.513537E-18
5.897027E+03	8.369678E-16	9.544794E-18
5.907005E+03	8.409642E-16	9.588790E-18
5.916983E+03	8.456754E-16	9.641048E-18
5.926961E+03	8.507701E-16	9.697789E-18
5.936939E+03	8.559512E-16	9.755626E-18
5.946917E+03	8.610466E-16	9.812597E-18
5.956895E+03	8.659513E-16	9.867507E-18
5.966873E+03	8.705601E-16	9.919158E-18
5.976851E+03	8.747837E-16	9.966538E-18
5.986829E+03	8.785167E-16	1.000844E-17
5.996807E+03	8.814671E-16	1.004155E-17
6.006785E+03	8.831393E-16	1.006022E-17
6.016763E+03	8.828650E-16	1.005684E-17
6.026741E+03	8.800825E-16	1.002501E-17
6.036719E+03	8.744880E-16	9.961279E-18
6.046697E+03	8.659682E-16	9.864344E-18
6.056675E+03	8.546895E-16	9.736100E-18
6.066653E+03	8.412445E-16	9.583292E-18
6.076631E+03	8.264510E-16	9.415229E-18
6.086609E+03	8.111986E-16	9.242040E-18
6.096588E+03	7.963956E-16	9.074067E-18
6.106566E+03	7.828977E-16	8.921055E-18
6.116544E+03	7.714188E-16	8.791141E-18
6.126522E+03	7.624639E-16	8.690084E-18
6.136500E+03	7.563650E-16	8.621675E-18
6.146478E+03	7.532867E-16	8.587804E-18
6.156456E+03	7.532051E-16	8.588212E-18
6.166434E+03	7.559542E-16	8.621025E-18
6.176412E+03	7.612095E-16	8.682560E-18
6.186390E+03	7.685237E-16	8.767737E-18
6.196368E+03	7.773048E-16	8.869818E-18
6.206346E+03	7.867423E-16	8.979566E-18
6.216324E+03	7.958593E-16	9.085837E-18
6.226302E+03	8.036403E-16	9.177033E-18
6.236280E+03	8.094110E-16	9.245443E-18
6.246258E+03	8.129916E-16	9.288997E-18
6.256236E+03	8.143203E-16	9.306965E-18
6.266214E+03	8.133787E-16	9.299114E-18
6.276192E+03	8.102376E-16	9.266227E-18
6.286170E+03	8.049213E-16	9.208556E-18
6.296148E+03	7.975487E-16	9.127432E-18
6.306127E+03	7.885848E-16	9.028149E-18
6.316105E+03	7.785672E-16	8.916841E-18
6.326083E+03	7.679756E-16	8.798984E-18
6.336061E+03	7.573737E-16	8.681026E-18
6.346039E+03	7.472509E-16	8.568574E-18
6.356017E+03	7.379183E-16	8.465198E-18
6.365995E+03	7.295504E-16	8.372910E-18
6.375973E+03	7.222199E-16	8.292553E-18
6.385951E+03	7.159723E-16	8.224665E-18
6.395929E+03	7.109304E-16	8.170671E-18
6.405907E+03	7.072369E-16	8.132228E-18
6.415885E+03	7.050574E-16	8.111263E-18
6.425863E+03	7.046439E-16	8.110692E-18
6.435841E+03	7.062449E-16	8.133400E-18
6.445819E+03	7.099943E-16	8.180957E-18
6.455797E+03	7.159071E-16	8.253570E-18
6.465775E+03	7.238490E-16	8.349721E-18
6.475753E+03	7.335635E-16	8.466483E-18
6.485731E+03	7.446389E-16	8.599129E-18
6.495709E+03	7.565543E-16	8.741659E-18
6.505687E+03	7.686947E-16	8.886972E-18
6.515666E+03	7.804667E-16	9.028200E-18
6.525644E+03	7.913954E-16	9.159832E-18
6.535622E+03	8.012197E-16	9.278819E-18
6.545600E+03	8.100244E-16	9.386111E-18
6.555578E+03	8.179418E-16	9.483214E-18
6.565556E+03	8.250443E-16	9.570941E-18
6.575534E+03	8.314859E-16	9.651054E-18
6.585512E+03	8.373159E-16	9.724103E-18
6.595490E+03	8.425272E-16	9.789985E-18
6.605468E+03	8.471606E-16	9.849152E-18
6.615446E+03	8.512230E-16	9.901665E-18
6.625424E+03	8.546357E-16	9.946587E-18
6.635402E+03	8.572731E-16	9.982437E-18
6.645380E+03	8.589466E-16	1.000699E-17
6.655358E+03	8.595182E-16	1.001862E-17
6.665336E+03	8.590167E-16	1.001763E-17
6.675314E+03	8.575158E-16	1.000486E-17
6.685292E+03	8.550834E-16	9.981071E-18
6.695270E+03	8.517287E-16	9.946356E-18
6.705248E+03	8.474317E-16	9.900461E-18
6.715227E+03	8.421489E-16	9.842858E-18
6.725205E+03	8.357947E-16	9.772529E-18
6.735183E+03	8.283083E-16	9.688744E-18
6.745161E+03	8.197304E-16	9.591965E-18
6.755139E+03	8.103060E-16	9.485042E-18
6.765117E+03	8.003930E-16	9.372156E-18
6.775095E+03	7.903348E-16	9.257326E-18
6.785073E+03	7.804795E-16	9.144631E-18
6.795051E+03	7.711154E-16	9.037453E-18
6.805029E+03	7.624433E-16	8.938152E-18
6.815007E+03	7.545930E-16	8.848261E-18
6.824985E+03	7.475942E-16	8.768134E-18
6.834963E+03	7.413632E-16	8.696799E-18
6.844941E+03	7.357178E-16	8.632125E-18
6.854919E+03	7.303958E-16	8.571039E-18
6.864897E+03	7.251197E-16	8.510287E-18
6.874875E+03	7.196320E-16	8.446848E-18
6.884853E+03	7.137308E-16	8.378354E-18
6.894831E+03	7.072554E-16	8.302918E-18
6.904809E+03	7.001980E-16	8.220451E-18
6.914787E+03	6.926245E-16	8.131729E-18
6.924766E+03	6.846628E-16	8.038256E-18
6.934744E+03	6.765097E-16	7.942352E-18
6.944722E+03	6.684222E-16	7.847035E-18
6.954700E+03	6.606369E-16	7.755089E-18
6.964678E+03	6.534238E-16	7.669689E-18
6.974656E+03	6.470008E-16	7.593395E-18
6.984634E+03	6.415616E-16	7.528482E-18
6.994612E+03	6.372331E-16	7.476436E-18
7.004590E+03	6.340839E-16	7.438061E-18
7.014568E+03	6.320888E-16	7.413054E-18
7.024546E+03	6.312027E-16	7.400881E-18
7.034524E+03	6.312983E-16	7.400040E-18
7.044502E+03	6.322099E-16	7.408579E-18
7.054480E+03	6.337341E-16	7.424110E-18
7.064458E+03	6.356501E-16	7.444037E-18
7.074436E+03	6.377277E-16	7.465659E-18
7.084414E+03	6.397253E-16	7.486147E-18
7.094392E+03	6.414098E-16	7.502775E-18
7.104370E+03	6.425630E-16	7.512997E-18
7.114348E+03	6.430175E-16	7.514862E-18
7.124326E+03	6.426341E-16	7.506760E-18
7.134305E+03	6.413108E-16	7.487512E-18
7.144283E+03	6.390619E-16	7.457309E-18
7.154261E+03	6.359573E-16	7.416983E-18
7.164239E+03	6.321184E-16	7.367974E-18
7.174217E+03	6.277334E-16	7.312491E-18
7.184195E+03	6.230229E-16	7.253120E-18
7.194173E+03	6.182173E-16	7.192558E-18
7.204151E+03	6.135198E-16	7.133171E-18
7.214129E+03	6.090936E-16	7.076861E-18
7.224107E+03	6.051161E-16	7.025689E-18
7.234085E+03	6.018369E-16	6.982544E-18
7.244063E+03	5.994845E-16	6.950062E-18
7.254041E+03	5.982460E-16	6.930393E-18
7.264019E+03	5.982783E-16	6.925327E-18
7.273997E+03	5.996826E-16	6.936003E-18
7.283975E+03	6.024817E-16	6.962650E-18
7.293953E+03	6.066139E-16	7.004516E-18
7.303931E+03	6.119360E-16	7.059914E-18
7.313909E+03	6.181915E-16	7.125852E-18
7.323887E+03	6.250121E-16	7.198060E-18
7.333865E+03	6.319305E-16	7.271148E-18
7.343844E+03	6.384421E-16	7.339309E-18
7.353822E+03	6.441014E-16	7.397446E-18
7.363800E+03	6.485158E-16	7.441081E-18
7.373778E+03	6.514158E-16	7.467169E-18
7.383756E+03	6.527704E-16	7.475412E-18
7.393734E+03	6.527397E-16	7.467695E-18
7.403712E+03	6.515826E-16	7.447032E-18
7.413690E+03	6.496963E-16	7.418001E-18
7.423668E+03	6.475217E-16	7.385664E-18
7.433646E+03	6.454731E-16	7.354758E-18
7.443624E+03	6.438553E-16	7.328754E-18
7.453602E+03	6.428479E-16	7.309687E-18
7.463580E+03	6.425379E-16	7.298530E-18
7.473558E+03	6.428575E-16	7.294494E-18
7.483536E+03	6.436424E-16	7.295701E-18
7.493514E+03	6.445476E-16	7.298236E-18
7.503492E+03	6.451449E-16	7.297256E-18
7.513470E+03	6.448917E-16	7.286650E-18
7.523448E+03	6.431758E-16	7.259544E-18
7.533426E+03	6.393770E-16	7.209002E-18
7.543405E+03	6.329051E-16	7.128454E-18
7.553383E+03	6.232751E-16	7.012536E-18
7.563361E+03	6.101914E-16	6.858040E-18
7.573339E+03	5.935350E-16	6.663755E-18
7.583317E+03	5.734063E-16	6.430936E-18
7.593295E+03	5.502236E-16	6.164390E-18
7.603273E+03	5.245617E-16	5.870661E-18
7.613251E+03	4.971818E-16	5.558346E-18
7.623229E+03	4.690093E-16	5.237839E-18
7.633207E+03	4.410013E-16	4.919846E-18
7.643185E+03	4.140679E-16	4.614501E-18
7.653163E+03	3.890863E-16	4.331531E-18
7.663141E+03	3.668237E-16	4.079398E-18
7.673119E+03	3.478936E-16	3.864821E-18
7.683097E+03	3.327432E-16	3.692643E-18
7.693075E+03	3.217152E-16	3.566533E-18
7.703053E+03	3.150759E-16	3.489296E-18
7.713031E+03	3.129883E-16	3.462583E-18
7.723009E+03	3.155685E-16	3.487521E-18
7.732987E+03	3.228766E-16	3.564617E-18
7.742965E+03	3.347783E-16	3.692231E-18
