#wls	flux	fluxerr
1.596488E+03	5.984135E-17	2.481763E-18
1.636400E+03	6.161094E-17	2.540443E-18
1.676312E+03	6.336572E-17	2.597351E-18
1.716224E+03	6.509376E-17	2.651981E-18
1.756136E+03	6.678954E-17	2.704099E-18
1.796049E+03	6.841788E-17	2.752287E-18
1.835961E+03	6.994890E-17	2.795373E-18
1.875873E+03	7.132020E-17	2.830931E-18
1.915785E+03	7.248029E-17	2.857038E-18
1.955697E+03	7.338162E-17	2.871984E-18
1.995610E+03	7.402035E-17	2.875824E-18
2.035522E+03	7.449817E-17	2.872691E-18
2.075434E+03	7.505512E-17	2.871902E-18
2.115346E+03	7.609840E-17	2.888835E-18
2.155258E+03	7.803475E-17	2.938349E-18
2.195171E+03	8.107829E-17	3.027583E-18
2.235083E+03	8.517955E-17	3.153619E-18
2.274995E+03	9.008105E-17	3.305933E-18
2.314907E+03	9.548556E-17	3.472863E-18
2.354819E+03	1.011612E-16	3.645472E-18
2.394732E+03	1.069747E-16	3.818648E-18
2.434644E+03	1.128746E-16	3.990346E-18
2.474556E+03	1.188333E-16	4.159424E-18
2.514468E+03	1.248688E-16	4.326370E-18
2.554380E+03	1.309846E-16	4.491142E-18
2.594293E+03	1.372178E-16	4.654835E-18
2.634205E+03	1.435774E-16	4.817553E-18
2.674117E+03	1.500838E-16	4.979765E-18
2.714029E+03	1.567221E-16	5.140758E-18
2.753941E+03	1.635147E-16	5.301046E-18
2.793854E+03	1.704262E-16	5.459268E-18
2.833766E+03	1.774364E-16	5.614609E-18
2.873678E+03	1.845105E-16	5.765825E-18
2.913590E+03	1.915849E-16	5.910856E-18
2.953502E+03	1.985832E-16	6.047369E-18
2.993414E+03	2.054018E-16	6.172337E-18
3.003393E+03	2.070675E-16	6.201478E-18
3.013371E+03	2.087045E-16	6.229399E-18
3.023349E+03	2.103099E-16	6.256017E-18
3.033327E+03	2.118938E-16	6.281647E-18
3.043305E+03	2.134510E-16	6.306143E-18
3.053283E+03	2.149905E-16	6.329773E-18
3.063261E+03	2.164955E-16	6.352057E-18
3.073239E+03	2.179712E-16	6.373156E-18
3.083217E+03	2.194118E-16	6.392910E-18
3.093195E+03	2.208113E-16	6.411157E-18
3.103173E+03	2.221525E-16	6.427413E-18
3.113151E+03	2.234510E-16	6.442147E-18
3.123129E+03	2.246783E-16	6.454555E-18
3.133107E+03	2.258387E-16	6.464781E-18
3.143085E+03	2.269360E-16	6.472960E-18
3.153063E+03	2.279412E-16	6.478283E-18
3.163041E+03	2.288576E-16	6.480879E-18
3.173019E+03	2.296886E-16	6.480868E-18
3.182997E+03	2.304150E-16	6.477740E-18
3.192975E+03	2.310287E-16	6.471302E-18
3.202954E+03	2.315211E-16	6.461352E-18
3.212932E+03	2.318835E-16	6.447684E-18
3.222910E+03	2.321177E-16	6.430391E-18
3.232888E+03	2.322145E-16	6.409262E-18
3.242866E+03	2.321437E-16	6.383511E-18
3.252844E+03	2.319176E-16	6.353525E-18
3.262822E+03	2.315273E-16	6.319116E-18
3.272800E+03	2.309544E-16	6.279830E-18
3.282778E+03	2.302018E-16	6.235807E-18
3.292756E+03	2.292529E-16	6.186657E-18
3.302734E+03	2.281132E-16	6.132587E-18
3.312712E+03	2.267795E-16	6.073576E-18
3.322690E+03	2.252513E-16	6.009667E-18
3.332668E+03	2.235213E-16	5.940729E-18
3.342646E+03	2.216139E-16	5.867474E-18
3.352624E+03	2.195195E-16	5.789702E-18
3.362602E+03	2.172602E-16	5.708051E-18
3.372580E+03	2.148615E-16	5.623241E-18
3.382558E+03	2.123257E-16	5.535375E-18
3.392536E+03	2.096935E-16	5.445555E-18
3.402514E+03	2.069827E-16	5.354268E-18
3.412493E+03	2.042213E-16	5.262263E-18
3.422471E+03	2.014361E-16	5.170243E-18
3.432449E+03	1.986558E-16	5.078947E-18
3.442427E+03	1.958915E-16	4.988660E-18
3.452405E+03	1.931663E-16	4.899962E-18
3.462383E+03	1.904788E-16	4.812805E-18
3.472361E+03	1.878427E-16	4.727526E-18
3.482339E+03	1.852618E-16	4.644199E-18
3.492317E+03	1.827561E-16	4.563313E-18
3.502295E+03	1.803479E-16	4.485399E-18
3.512273E+03	1.780706E-16	4.411253E-18
3.522251E+03	1.759643E-16	4.341828E-18
3.532229E+03	1.740824E-16	4.278387E-18
3.542207E+03	1.724839E-16	4.222305E-18
3.552185E+03	1.712457E-16	4.175379E-18
3.562163E+03	1.704277E-16	4.138957E-18
3.572141E+03	1.700932E-16	4.114448E-18
3.582119E+03	1.702879E-16	4.102818E-18
3.592097E+03	1.710557E-16	4.104967E-18
3.602075E+03	1.724118E-16	4.121098E-18
3.612053E+03	1.743499E-16	4.150895E-18
3.622032E+03	1.768665E-16	4.194109E-18
3.632010E+03	1.799437E-16	4.250155E-18
3.641988E+03	1.835531E-16	4.318211E-18
3.651966E+03	1.876498E-16	4.397077E-18
3.661944E+03	1.921978E-16	4.485778E-18
3.671922E+03	1.971326E-16	4.582698E-18
3.681900E+03	2.023819E-16	4.686054E-18
3.691878E+03	2.078616E-16	4.793826E-18
3.701856E+03	2.134828E-16	4.903914E-18
3.711834E+03	2.191405E-16	5.013878E-18
3.721812E+03	2.247056E-16	5.120774E-18
3.731790E+03	2.299956E-16	5.220485E-18
3.741768E+03	2.347923E-16	5.308162E-18
3.751746E+03	2.388662E-16	5.378770E-18
3.761724E+03	2.418954E-16	5.425290E-18
3.771702E+03	2.435864E-16	5.441446E-18
3.781680E+03	2.437093E-16	5.422485E-18
3.791658E+03	2.422165E-16	5.367767E-18
3.801636E+03	2.391599E-16	5.278866E-18
3.811614E+03	2.347270E-16	5.160318E-18
3.821592E+03	2.291883E-16	5.018404E-18
3.831571E+03	2.229122E-16	4.861445E-18
3.841549E+03	2.163294E-16	4.698983E-18
3.851527E+03	2.100155E-16	4.543547E-18
3.861505E+03	2.045428E-16	4.407391E-18
3.871483E+03	2.004161E-16	4.301127E-18
3.881461E+03	1.980743E-16	4.233780E-18
3.891439E+03	1.978994E-16	4.213018E-18
3.901417E+03	2.002131E-16	4.245106E-18
3.911395E+03	2.052359E-16	4.334057E-18
3.921373E+03	2.131420E-16	4.482848E-18
3.931351E+03	2.241172E-16	4.694635E-18
3.941329E+03	2.382348E-16	4.970178E-18
3.951307E+03	2.555148E-16	5.309101E-18
3.961285E+03	2.758779E-16	5.708976E-18
3.971263E+03	2.990485E-16	6.163361E-18
3.981241E+03	3.245369E-16	6.661511E-18
3.991219E+03	3.516637E-16	7.188980E-18
4.001197E+03	3.796225E-16	7.728958E-18
4.011175E+03	4.074876E-16	8.262488E-18
4.021153E+03	4.342226E-16	8.768690E-18
4.031132E+03	4.589314E-16	9.229842E-18
4.041110E+03	4.807628E-16	9.629414E-18
4.051088E+03	4.990400E-16	9.954637E-18
4.061066E+03	5.132542E-16	1.019629E-17
4.071044E+03	5.231092E-16	1.034952E-17
4.081022E+03	5.285287E-16	1.041389E-17
4.091000E+03	5.296238E-16	1.039268E-17
4.100978E+03	5.267081E-16	1.029306E-17
4.110956E+03	5.202247E-16	1.012462E-17
4.120934E+03	5.107367E-16	9.899135E-18
4.130912E+03	4.988553E-16	9.629116E-18
4.140890E+03	4.851524E-16	9.326120E-18
4.150868E+03	4.702146E-16	9.001798E-18
4.160846E+03	4.545495E-16	8.666116E-18
4.170824E+03	4.386197E-16	8.328010E-18
4.180802E+03	4.228749E-16	7.996037E-18
4.190780E+03	4.077146E-16	7.677664E-18
4.200758E+03	3.935030E-16	7.379572E-18
4.210736E+03	3.805631E-16	7.107563E-18
4.220714E+03	3.691658E-16	6.866369E-18
4.230692E+03	3.595337E-16	6.659748E-18
4.240671E+03	3.518045E-16	6.489831E-18
4.250649E+03	3.460917E-16	6.358264E-18
4.260627E+03	3.424577E-16	6.265726E-18
4.270605E+03	3.409015E-16	6.211728E-18
4.280583E+03	3.414081E-16	6.195534E-18
4.290561E+03	3.439179E-16	6.215608E-18
4.300539E+03	3.482983E-16	6.269129E-18
4.310517E+03	3.543955E-16	6.352932E-18
4.320495E+03	3.619865E-16	6.462671E-18
4.330473E+03	3.707702E-16	6.592684E-18
4.340451E+03	3.803521E-16	6.735739E-18
4.350429E+03	3.901928E-16	6.882168E-18
4.360407E+03	3.994751E-16	7.017582E-18
4.370385E+03	4.072487E-16	7.125488E-18
4.380363E+03	4.125599E-16	7.189604E-18
4.390341E+03	4.149181E-16	7.201942E-18
4.400319E+03	4.144291E-16	7.164957E-18
4.410297E+03	4.114362E-16	7.085151E-18
4.420275E+03	4.062529E-16	6.968415E-18
4.430253E+03	3.992337E-16	6.821246E-18
4.440231E+03	3.908029E-16	6.651229E-18
4.450210E+03	3.814543E-16	6.467005E-18
4.460188E+03	3.717162E-16	6.277657E-18
4.470166E+03	3.621852E-16	6.093279E-18
4.480144E+03	3.535636E-16	5.925583E-18
4.490122E+03	3.465468E-16	5.785982E-18
4.500100E+03	3.417526E-16	5.684439E-18
4.510078E+03	3.397261E-16	5.629550E-18
4.520056E+03	3.409426E-16	5.628643E-18
4.530034E+03	3.457645E-16	5.687075E-18
4.540012E+03	3.544265E-16	5.808038E-18
4.549990E+03	3.670805E-16	5.993324E-18
4.559968E+03	3.837864E-16	6.243207E-18
4.569946E+03	4.044366E-16	6.555243E-18
4.579924E+03	4.287754E-16	6.924633E-18
4.589902E+03	4.564103E-16	7.344453E-18
4.599880E+03	4.868079E-16	7.805618E-18
4.609858E+03	5.192201E-16	8.295746E-18
4.619836E+03	5.527318E-16	8.799968E-18
4.629814E+03	5.862628E-16	9.301016E-18
4.639792E+03	6.185944E-16	9.779669E-18
4.649771E+03	6.483631E-16	1.021469E-17
4.659749E+03	6.741994E-16	1.058505E-17
4.669727E+03	6.947580E-16	1.087038E-17
4.679705E+03	7.089217E-16	1.105415E-17
4.689683E+03	7.160407E-16	1.112729E-17
4.699661E+03	7.159141E-16	1.108783E-17
4.709639E+03	7.089307E-16	1.094291E-17
4.719617E+03	6.962336E-16	1.071118E-17
4.729595E+03	6.794155E-16	1.041790E-17
4.739573E+03	6.603190E-16	1.009186E-17
4.749551E+03	6.409761E-16	9.764320E-18
4.759529E+03	6.233234E-16	9.464693E-18
4.769507E+03	6.089613E-16	9.216928E-18
4.779485E+03	5.986217E-16	9.031566E-18
4.789463E+03	5.915823E-16	8.897149E-18
4.799441E+03	5.866362E-16	8.795098E-18
4.809419E+03	5.827871E-16	8.710226E-18
4.819397E+03	5.792898E-16	8.631269E-18
4.829375E+03	5.756179E-16	8.550360E-18
4.839353E+03	5.716575E-16	8.465827E-18
4.849331E+03	5.675044E-16	8.379109E-18
4.859310E+03	5.633962E-16	8.293713E-18
4.869288E+03	5.596394E-16	8.214119E-18
4.879266E+03	5.565844E-16	8.145393E-18
4.889244E+03	5.544861E-16	8.091150E-18
4.899222E+03	5.534162E-16	8.052301E-18
4.909200E+03	5.533373E-16	8.028164E-18
4.919178E+03	5.541794E-16	8.017595E-18
4.929156E+03	5.558367E-16	8.018948E-18
4.939134E+03	5.582255E-16	8.030915E-18
4.949112E+03	5.613143E-16	8.052948E-18
4.959090E+03	5.651890E-16	8.086193E-18
4.969068E+03	5.699818E-16	8.132439E-18
4.979046E+03	5.758337E-16	8.193582E-18
4.989024E+03	5.828604E-16	8.271142E-18
4.999002E+03	5.911075E-16	8.365632E-18
5.008980E+03	6.003564E-16	8.473828E-18
5.018958E+03	6.099523E-16	8.586402E-18
5.028936E+03	6.189482E-16	8.690023E-18
5.038914E+03	6.262913E-16	8.770024E-18
5.048892E+03	6.308663E-16	8.811008E-18
5.058870E+03	6.316724E-16	8.799341E-18
5.068849E+03	6.281045E-16	8.727023E-18
5.078827E+03	6.202115E-16	8.595198E-18
5.088805E+03	6.085224E-16	8.411634E-18
5.098783E+03	5.938735E-16	8.188255E-18
5.108761E+03	5.773521E-16	7.940313E-18
5.118739E+03	5.601515E-16	7.684358E-18
5.128717E+03	5.433798E-16	7.435611E-18
5.138695E+03	5.280639E-16	7.208033E-18
5.148673E+03	5.150521E-16	7.013012E-18
5.158651E+03	5.049559E-16	6.858612E-18
5.168629E+03	4.981013E-16	6.748947E-18
5.178607E+03	4.946208E-16	6.685484E-18
5.188585E+03	4.944099E-16	6.666478E-18
5.198563E+03	4.970092E-16	6.685429E-18
5.208541E+03	5.017939E-16	6.733690E-18
5.218519E+03	5.081086E-16	6.802282E-18
5.228497E+03	5.153828E-16	6.883447E-18
5.238475E+03	5.230977E-16	6.970195E-18
5.248453E+03	5.308782E-16	7.057512E-18
5.258431E+03	5.386032E-16	7.143796E-18
5.268409E+03	5.463215E-16	7.229714E-18
5.278388E+03	5.541933E-16	7.317394E-18
5.288366E+03	5.625394E-16	7.411068E-18
5.298344E+03	5.717343E-16	7.515629E-18
5.308322E+03	5.821328E-16	7.635679E-18
5.318300E+03	5.939760E-16	7.774293E-18
5.328278E+03	6.074226E-16	7.933443E-18
5.338256E+03	6.225093E-16	8.113501E-18
5.348234E+03	6.390517E-16	8.311967E-18
5.358212E+03	6.567067E-16	8.524305E-18
5.368190E+03	6.749940E-16	8.744242E-18
5.378168E+03	6.932567E-16	8.963274E-18
5.388146E+03	7.107337E-16	9.171628E-18
5.398124E+03	7.266395E-16	9.359282E-18
5.408102E+03	7.402204E-16	9.516706E-18
5.418080E+03	7.508233E-16	9.635721E-18
5.428058E+03	7.580847E-16	9.711911E-18
5.438036E+03	7.621115E-16	9.746895E-18
5.448014E+03	7.634016E-16	9.747271E-18
5.457992E+03	7.631427E-16	9.728370E-18
5.467970E+03	7.633626E-16	9.716111E-18
5.477949E+03	7.662752E-16	9.738624E-18
5.487927E+03	7.733130E-16	9.813956E-18
5.497905E+03	7.848588E-16	9.946769E-18
5.507883E+03	8.006142E-16	1.013309E-17
5.517861E+03	8.199184E-16	1.036442E-17
5.527839E+03	8.419337E-16	1.063007E-17
5.537817E+03	8.656328E-16	1.091700E-17
5.547795E+03	8.898151E-16	1.121004E-17
5.557773E+03	9.130816E-16	1.149161E-17
5.567751E+03	9.339747E-16	1.174344E-17
5.577729E+03	9.512817E-16	1.195040E-17
5.587707E+03	9.642373E-16	1.210302E-17
5.597685E+03	9.725569E-16	1.219786E-17
5.607663E+03	9.764741E-16	1.223799E-17
5.617641E+03	9.768947E-16	1.223485E-17
5.627619E+03	9.750620E-16	1.220407E-17
5.637597E+03	9.722237E-16	1.216128E-17
5.647575E+03	9.693919E-16	1.211914E-17
5.657553E+03	9.673243E-16	1.208709E-17
5.667531E+03	9.663921E-16	1.206971E-17
5.677509E+03	9.664990E-16	1.206576E-17
5.687488E+03	9.671975E-16	1.206963E-17
5.697466E+03	9.677883E-16	1.207256E-17
5.707444E+03	9.674298E-16	1.206404E-17
5.717422E+03	9.652569E-16	1.203327E-17
5.727400E+03	9.604563E-16	1.197013E-17
5.737378E+03	9.524414E-16	1.186729E-17
5.747356E+03	9.409460E-16	1.172146E-17
5.757334E+03	9.260273E-16	1.153335E-17
5.767312E+03	9.081526E-16	1.130878E-17
5.777290E+03	8.881031E-16	1.105745E-17
5.787268E+03	8.668050E-16	1.079089E-17
5.797246E+03	8.452412E-16	1.052130E-17
5.807224E+03	8.243639E-16	1.026052E-17
5.817202E+03	8.050526E-16	1.001946E-17
5.827180E+03	7.880808E-16	9.807715E-18
5.837158E+03	7.740540E-16	9.632806E-18
5.847136E+03	7.633831E-16	9.499825E-18
5.857114E+03	7.562438E-16	9.410942E-18
5.867092E+03	7.525751E-16	9.365388E-18
5.877070E+03	7.521746E-16	9.360639E-18
5.887048E+03	7.546227E-16	9.391473E-18
5.897027E+03	7.593369E-16	9.450642E-18
5.907005E+03	7.656543E-16	9.529898E-18
5.916983E+03	7.728805E-16	9.620602E-18
5.926961E+03	7.803158E-16	9.714051E-18
5.936939E+03	7.873807E-16	9.803031E-18
5.946917E+03	7.937398E-16	9.883371E-18
5.956895E+03	7.992507E-16	9.953296E-18
5.966873E+03	8.038987E-16	1.001262E-17
5.976851E+03	8.077956E-16	1.006275E-17
5.986829E+03	8.110749E-16	1.010533E-17
5.996807E+03	8.137085E-16	1.014002E-17
6.006785E+03	8.154415E-16	1.016365E-17
6.016763E+03	8.158408E-16	1.017081E-17
6.026741E+03	8.143769E-16	1.015491E-17
6.036719E+03	8.104913E-16	1.010895E-17
6.046697E+03	8.037158E-16	1.002708E-17
6.056675E+03	7.938327E-16	9.906562E-18
6.066653E+03	7.810476E-16	9.749931E-18
6.076631E+03	7.658304E-16	9.563020E-18
6.086609E+03	7.489576E-16	9.355496E-18
6.096588E+03	7.315182E-16	9.140944E-18
6.106566E+03	7.146899E-16	8.934072E-18
6.116544E+03	6.994679E-16	8.747331E-18
6.126522E+03	6.866321E-16	8.590499E-18
6.136500E+03	6.767678E-16	8.470938E-18
6.146478E+03	6.701705E-16	8.392400E-18
6.156456E+03	6.668099E-16	8.354570E-18
6.166434E+03	6.664606E-16	8.354689E-18
6.176412E+03	6.688394E-16	8.389278E-18
6.186390E+03	6.735877E-16	8.453908E-18
6.196368E+03	6.802860E-16	8.543380E-18
6.206346E+03	6.883706E-16	8.650662E-18
6.216324E+03	6.970626E-16	8.766004E-18
6.226302E+03	7.055339E-16	8.879007E-18
6.236280E+03	7.133938E-16	8.984755E-18
6.246258E+03	7.206571E-16	9.083425E-18
6.256236E+03	7.274236E-16	9.176266E-18
6.266214E+03	7.335764E-16	9.261791E-18
6.276192E+03	7.385867E-16	9.333309E-18
6.286170E+03	7.417585E-16	9.381980E-18
6.296148E+03	7.425506E-16	9.400895E-18
6.306127E+03	7.406669E-16	9.386215E-18
6.316105E+03	7.360439E-16	9.337035E-18
6.326083E+03	7.289279E-16	9.256372E-18
6.336061E+03	7.197722E-16	9.149881E-18
6.346039E+03	7.091661E-16	9.024969E-18
6.356017E+03	6.976961E-16	8.889036E-18
6.365995E+03	6.857842E-16	8.747414E-18
6.375973E+03	6.737816E-16	8.604555E-18
6.385951E+03	6.620826E-16	8.465485E-18
6.395929E+03	6.510542E-16	8.334901E-18
6.405907E+03	6.411041E-16	8.218050E-18
6.415885E+03	6.327222E-16	8.121263E-18
6.425863E+03	6.264289E-16	8.051286E-18
6.435841E+03	6.227569E-16	8.015055E-18
6.445819E+03	6.221361E-16	8.018224E-18
6.455797E+03	6.247547E-16	8.063363E-18
6.465775E+03	6.306555E-16	8.151185E-18
6.475753E+03	6.396365E-16	8.279239E-18
6.485731E+03	6.511451E-16	8.440522E-18
6.495709E+03	6.643361E-16	8.624187E-18
6.505687E+03	6.781298E-16	8.816278E-18
6.515666E+03	6.912100E-16	8.999677E-18
6.525644E+03	7.028393E-16	9.164708E-18
6.535622E+03	7.131343E-16	9.312789E-18
6.545600E+03	7.223512E-16	9.447173E-18
6.555578E+03	7.308245E-16	9.572154E-18
6.565556E+03	7.388517E-16	9.691570E-18
6.575534E+03	7.465378E-16	9.806751E-18
6.585512E+03	7.539035E-16	9.917925E-18
6.595490E+03	7.609685E-16	1.002531E-17
6.605468E+03	7.676386E-16	1.012762E-17
6.615446E+03	7.737926E-16	1.022321E-17
6.625424E+03	7.793197E-16	1.031056E-17
6.635402E+03	7.840224E-16	1.038699E-17
6.645380E+03	7.877513E-16	1.045046E-17
6.655358E+03	7.904016E-16	1.049949E-17
6.665336E+03	7.919563E-16	1.053379E-17
6.675314E+03	7.924542E-16	1.055379E-17
6.685292E+03	7.919995E-16	1.056081E-17
6.695270E+03	7.905906E-16	1.055477E-17
6.705248E+03	7.882051E-16	1.053530E-17
6.715227E+03	7.848073E-16	1.050187E-17
6.725205E+03	7.801684E-16	1.045135E-17
6.735183E+03	7.740945E-16	1.038108E-17
6.745161E+03	7.665347E-16	1.029032E-17
6.755139E+03	7.576211E-16	1.018077E-17
6.765117E+03	7.476369E-16	1.005618E-17
6.775095E+03	7.370058E-16	9.922231E-18
6.785073E+03	7.262761E-16	9.786286E-18
6.795051E+03	7.160128E-16	9.655967E-18
6.805029E+03	7.067058E-16	9.537913E-18
6.815007E+03	6.986391E-16	9.435994E-18
6.824985E+03	6.919836E-16	9.352564E-18
6.834963E+03	6.867400E-16	9.287676E-18
6.844941E+03	6.826462E-16	9.237822E-18
6.854919E+03	6.793408E-16	9.198136E-18
6.864897E+03	6.764124E-16	9.163064E-18
6.874875E+03	6.733846E-16	9.126156E-18
6.884853E+03	6.698216E-16	9.081502E-18
6.894831E+03	6.653802E-16	9.024442E-18
6.904809E+03	6.598245E-16	8.951764E-18
6.914787E+03	6.530625E-16	8.862216E-18
6.924766E+03	6.451418E-16	8.756442E-18
6.934744E+03	6.362685E-16	8.637244E-18
6.944722E+03	6.267724E-16	8.509110E-18
6.954700E+03	6.170803E-16	8.377851E-18
6.964678E+03	6.076640E-16	8.249890E-18
6.974656E+03	5.990181E-16	8.131960E-18
6.984634E+03	5.915884E-16	8.030131E-18
6.994612E+03	5.856868E-16	7.948642E-18
7.004590E+03	5.815439E-16	7.890626E-18
7.014568E+03	5.792515E-16	7.857323E-18
7.024546E+03	5.787243E-16	7.847557E-18
7.034524E+03	5.797477E-16	7.858401E-18
7.044502E+03	5.820583E-16	7.886260E-18
7.054480E+03	5.853144E-16	7.926482E-18
7.064458E+03	5.891482E-16	7.974064E-18
7.074436E+03	5.932017E-16	8.024147E-18
7.084414E+03	5.971013E-16	8.071670E-18
7.094392E+03	6.005117E-16	8.112105E-18
7.104370E+03	6.031231E-16	8.141279E-18
7.114348E+03	6.046256E-16	8.155037E-18
7.124326E+03	6.047565E-16	8.149879E-18
7.134305E+03	6.033716E-16	8.123913E-18
7.144283E+03	6.004489E-16	8.076909E-18
7.154261E+03	5.960780E-16	8.010142E-18
7.164239E+03	5.904869E-16	7.926745E-18
7.174217E+03	5.840293E-16	7.831531E-18
7.184195E+03	5.771072E-16	7.729941E-18
7.194173E+03	5.701400E-16	7.627629E-18
7.204151E+03	5.634126E-16	7.528423E-18
7.214129E+03	5.571992E-16	7.435992E-18
7.224107E+03	5.517133E-16	7.353173E-18
7.234085E+03	5.470590E-16	7.281333E-18
7.244063E+03	5.433452E-16	7.221893E-18
7.254041E+03	5.406590E-16	7.175968E-18
7.264019E+03	5.391409E-16	7.145381E-18
7.273997E+03	5.389300E-16	7.131914E-18
7.283975E+03	5.401758E-16	7.137479E-18
7.293953E+03	5.429859E-16	7.163416E-18
7.303931E+03	5.474501E-16	7.210821E-18
7.313909E+03	5.535506E-16	7.279362E-18
7.323887E+03	5.610471E-16	7.365787E-18
7.333865E+03	5.695671E-16	7.465131E-18
7.343844E+03	5.786082E-16	7.570758E-18
7.353822E+03	5.874851E-16	7.673689E-18
7.363800E+03	5.954494E-16	7.764187E-18
7.373778E+03	6.018570E-16	7.833942E-18
7.383756E+03	6.062919E-16	7.877667E-18
7.393734E+03	6.085508E-16	7.892879E-18
7.403712E+03	6.086863E-16	7.880427E-18
7.413690E+03	6.070902E-16	7.845540E-18
7.423668E+03	6.043307E-16	7.795688E-18
7.433646E+03	6.010512E-16	7.739258E-18
7.443624E+03	5.978368E-16	7.683825E-18
7.453602E+03	5.952534E-16	7.636664E-18
7.463580E+03	5.936900E-16	7.602729E-18
7.473558E+03	5.932531E-16	7.583332E-18
7.483536E+03	5.938573E-16	7.577324E-18
7.493514E+03	5.952792E-16	7.581806E-18
7.503492E+03	5.970689E-16	7.591025E-18
7.513470E+03	5.986466E-16	7.597619E-18
7.523448E+03	5.993896E-16	7.593736E-18
7.533426E+03	5.986291E-16	7.570993E-18
7.543405E+03	5.957287E-16	7.521465E-18
7.553383E+03	5.901487E-16	7.438489E-18
7.563361E+03	5.815155E-16	7.317527E-18
7.573339E+03	5.696197E-16	7.156136E-18
7.583317E+03	5.544819E-16	6.954763E-18
7.593295E+03	5.362829E-16	6.715857E-18
7.603273E+03	5.152983E-16	6.443026E-18
7.613251E+03	4.918070E-16	6.139898E-18
7.623229E+03	4.662282E-16	5.811818E-18
7.633207E+03	4.392038E-16	5.466869E-18
7.643185E+03	4.116180E-16	5.116090E-18
7.653163E+03	3.844919E-16	4.772160E-18
7.663141E+03	3.588516E-16	4.447740E-18
7.673119E+03	3.356941E-16	4.155069E-18
7.683097E+03	3.159178E-16	3.905099E-18
7.693075E+03	3.002677E-16	3.706841E-18
7.703053E+03	2.892887E-16	3.566798E-18
7.713031E+03	2.833582E-16	3.489387E-18
7.723009E+03	2.828087E-16	3.478463E-18
7.732987E+03	2.878603E-16	3.536499E-18
7.742965E+03	2.984805E-16	3.662862E-18
