#wls	flux	fluxerr
1.596488E+03	2.008096E-17	2.815599E-18
1.636400E+03	2.063332E-17	2.885020E-18
1.676312E+03	2.117022E-17	2.951657E-18
1.716224E+03	2.168688E-17	3.014842E-18
1.756136E+03	2.217817E-17	3.073870E-18
1.796049E+03	2.263394E-17	3.127352E-18
1.835961E+03	2.303793E-17	3.173076E-18
1.875873E+03	2.337323E-17	3.208769E-18
1.915785E+03	2.361890E-17	3.231645E-18
1.955697E+03	2.376018E-17	3.239801E-18
1.995610E+03	2.379450E-17	3.233026E-18
2.035522E+03	2.375406E-17	3.215824E-18
2.075434E+03	2.371685E-17	3.198824E-18
2.115346E+03	2.380571E-17	3.198521E-18
2.155258E+03	2.413874E-17	3.230516E-18
2.195171E+03	2.477221E-17	3.301904E-18
2.235083E+03	2.566987E-17	3.407359E-18
2.274995E+03	2.673823E-17	3.534042E-18
2.314907E+03	2.787243E-17	3.667820E-18
2.354819E+03	2.899359E-17	3.798193E-18
2.394732E+03	3.005032E-17	3.918431E-18
2.434644E+03	3.101719E-17	4.025301E-18
2.474556E+03	3.188023E-17	4.117118E-18
2.514468E+03	3.263410E-17	4.193349E-18
2.554380E+03	3.327808E-17	4.254072E-18
2.594293E+03	3.380967E-17	4.299153E-18
2.634205E+03	3.422815E-17	4.328696E-18
2.674117E+03	3.453307E-17	4.342850E-18
2.714029E+03	3.472599E-17	4.342031E-18
2.753941E+03	3.480520E-17	4.326250E-18
2.793854E+03	3.477645E-17	4.296457E-18
2.833766E+03	3.464212E-17	4.253179E-18
2.873678E+03	3.441314E-17	4.197995E-18
2.913590E+03	3.409860E-17	4.132229E-18
2.953502E+03	3.371587E-17	4.058189E-18
2.993414E+03	3.328569E-17	3.978531E-18
3.003393E+03	3.317275E-17	3.957995E-18
3.013371E+03	3.305992E-17	3.937484E-18
3.023349E+03	3.294643E-17	3.916906E-18
3.033327E+03	3.283320E-17	3.896372E-18
3.043305E+03	3.272048E-17	3.875911E-18
3.053283E+03	3.261071E-17	3.855811E-18
3.063261E+03	3.250534E-17	3.836242E-18
3.073239E+03	3.240225E-17	3.816951E-18
3.083217E+03	3.230423E-17	3.798266E-18
3.093195E+03	3.221048E-17	3.780089E-18
3.103173E+03	3.212147E-17	3.762473E-18
3.113151E+03	3.203774E-17	3.745477E-18
3.123129E+03	3.196101E-17	3.729300E-18
3.133107E+03	3.188958E-17	3.713738E-18
3.143085E+03	3.182645E-17	3.699136E-18
3.153063E+03	3.177116E-17	3.685437E-18
3.163041E+03	3.172449E-17	3.672724E-18
3.173019E+03	3.168725E-17	3.661085E-18
3.182997E+03	3.166029E-17	3.650613E-18
3.192975E+03	3.164454E-17	3.641407E-18
3.202954E+03	3.164094E-17	3.633566E-18
3.212932E+03	3.165164E-17	3.627328E-18
3.222910E+03	3.167654E-17	3.622674E-18
3.232888E+03	3.171565E-17	3.619592E-18
3.242866E+03	3.177238E-17	3.618460E-18
3.252844E+03	3.184682E-17	3.619276E-18
3.262822E+03	3.194026E-17	3.622173E-18
3.272800E+03	3.205515E-17	3.627415E-18
3.282778E+03	3.219067E-17	3.634892E-18
3.292756E+03	3.235054E-17	3.645008E-18
3.302734E+03	3.253408E-17	3.657668E-18
3.312712E+03	3.274517E-17	3.673287E-18
3.322690E+03	3.298439E-17	3.691913E-18
3.332668E+03	3.325242E-17	3.713596E-18
3.342646E+03	3.355342E-17	3.738779E-18
3.352624E+03	3.388942E-17	3.767660E-18
3.362602E+03	3.426020E-17	3.800188E-18
3.372580E+03	3.466912E-17	3.836707E-18
3.382558E+03	3.511849E-17	3.877440E-18
3.392536E+03	3.561194E-17	3.922756E-18
3.402514E+03	3.614961E-17	3.972632E-18
3.412493E+03	3.673658E-17	4.027591E-18
3.422471E+03	3.737441E-17	4.087761E-18
3.432449E+03	3.806471E-17	4.153276E-18
3.442427E+03	3.881295E-17	4.224689E-18
3.452405E+03	3.962093E-17	4.302145E-18
3.462383E+03	4.049177E-17	4.385930E-18
3.472361E+03	4.142858E-17	4.476331E-18
3.482339E+03	4.243592E-17	4.573778E-18
3.492317E+03	4.351411E-17	4.678249E-18
3.502295E+03	4.466751E-17	4.790147E-18
3.512273E+03	4.589896E-17	4.909712E-18
3.522251E+03	4.721258E-17	5.037315E-18
3.532229E+03	4.860762E-17	5.172803E-18
3.542207E+03	5.008904E-17	5.316630E-18
3.552185E+03	5.165496E-17	5.468521E-18
3.562163E+03	5.330935E-17	5.628817E-18
3.572141E+03	5.505051E-17	5.797259E-18
3.582119E+03	5.687566E-17	5.973477E-18
3.592097E+03	5.878641E-17	6.157562E-18
3.602075E+03	6.077794E-17	6.348929E-18
3.612053E+03	6.284604E-17	6.547064E-18
3.622032E+03	6.498524E-17	6.751324E-18
3.632010E+03	6.718670E-17	6.960727E-18
3.641988E+03	6.944659E-17	7.174812E-18
3.651966E+03	7.175360E-17	7.392356E-18
3.661944E+03	7.409761E-17	7.612269E-18
3.671922E+03	7.646713E-17	7.833333E-18
3.681900E+03	7.885031E-17	8.054306E-18
3.691878E+03	8.123449E-17	8.273877E-18
3.701856E+03	8.360670E-17	8.490719E-18
3.711834E+03	8.595407E-17	8.703530E-18
3.721812E+03	8.826406E-17	8.911058E-18
3.731790E+03	9.052457E-17	9.112109E-18
3.741768E+03	9.272447E-17	9.305602E-18
3.751746E+03	9.485668E-17	9.490875E-18
3.761724E+03	9.690693E-17	9.666558E-18
3.771702E+03	9.887096E-17	9.832294E-18
3.781680E+03	1.007436E-16	9.987640E-18
3.791658E+03	1.025212E-16	1.013232E-17
3.801636E+03	1.042021E-16	1.026624E-17
3.811614E+03	1.057863E-16	1.038949E-17
3.821592E+03	1.072751E-16	1.050228E-17
3.831571E+03	1.086716E-16	1.060501E-17
3.841549E+03	1.099767E-16	1.069781E-17
3.851527E+03	1.112017E-16	1.078189E-17
3.861505E+03	1.123490E-16	1.085756E-17
3.871483E+03	1.134245E-16	1.092544E-17
3.881461E+03	1.144341E-16	1.098616E-17
3.891439E+03	1.153834E-16	1.104031E-17
3.901417E+03	1.162737E-16	1.108809E-17
3.911395E+03	1.171163E-16	1.113061E-17
3.921373E+03	1.179108E-16	1.116788E-17
3.931351E+03	1.186557E-16	1.119981E-17
3.941329E+03	1.193586E-16	1.122715E-17
3.951307E+03	1.200118E-16	1.124923E-17
3.961285E+03	1.206168E-16	1.126623E-17
3.971263E+03	1.211738E-16	1.127821E-17
3.981241E+03	1.216714E-16	1.128415E-17
3.991219E+03	1.221072E-16	1.128391E-17
4.001197E+03	1.224749E-16	1.127695E-17
4.011175E+03	1.227673E-16	1.126270E-17
4.021153E+03	1.229773E-16	1.124056E-17
4.031132E+03	1.230983E-16	1.121003E-17
4.041110E+03	1.231241E-16	1.117062E-17
4.051088E+03	1.230462E-16	1.112167E-17
4.061066E+03	1.228680E-16	1.106361E-17
4.071044E+03	1.225839E-16	1.099602E-17
4.081022E+03	1.221903E-16	1.091868E-17
4.091000E+03	1.216925E-16	1.083220E-17
4.100978E+03	1.210939E-16	1.073698E-17
4.110956E+03	1.203998E-16	1.063361E-17
4.120934E+03	1.196171E-16	1.052278E-17
4.130912E+03	1.187540E-16	1.040531E-17
4.140890E+03	1.178194E-16	1.028206E-17
4.150868E+03	1.168232E-16	1.015399E-17
4.160846E+03	1.157725E-16	1.002177E-17
4.170824E+03	1.146815E-16	9.886685E-18
4.180802E+03	1.135638E-16	9.749961E-18
4.190780E+03	1.124242E-16	9.612026E-18
4.200758E+03	1.112763E-16	9.474077E-18
4.210736E+03	1.101306E-16	9.337017E-18
4.220714E+03	1.089942E-16	9.201444E-18
4.230692E+03	1.078832E-16	9.068702E-18
4.240671E+03	1.068017E-16	8.939130E-18
4.250649E+03	1.057629E-16	8.813780E-18
4.260627E+03	1.047760E-16	8.693378E-18
4.270605E+03	1.038491E-16	8.578551E-18
4.280583E+03	1.029899E-16	8.469860E-18
4.290561E+03	1.022046E-16	8.367750E-18
4.300539E+03	1.014950E-16	8.272284E-18
4.310517E+03	1.008675E-16	8.183903E-18
4.320495E+03	1.003244E-16	8.102706E-18
4.330473E+03	9.986625E-17	8.028641E-18
4.340451E+03	9.949264E-17	7.961591E-18
4.350429E+03	9.920273E-17	7.901395E-18
4.360407E+03	9.899233E-17	7.847629E-18
4.370385E+03	9.886231E-17	7.800273E-18
4.380363E+03	9.881133E-17	7.759137E-18
4.390341E+03	9.883908E-17	7.724107E-18
4.400319E+03	9.894357E-17	7.694941E-18
4.410297E+03	9.913103E-17	7.672038E-18
4.420275E+03	9.939912E-17	7.655123E-18
4.430253E+03	9.975367E-17	7.644552E-18
4.440231E+03	1.001989E-16	7.640549E-18
4.450210E+03	1.007367E-16	7.643157E-18
4.460188E+03	1.013745E-16	7.652836E-18
4.470166E+03	1.021181E-16	7.669894E-18
4.480144E+03	1.029728E-16	7.694620E-18
4.490122E+03	1.039444E-16	7.727315E-18
4.500100E+03	1.050351E-16	7.768005E-18
4.510078E+03	1.062536E-16	7.817187E-18
4.520056E+03	1.075931E-16	7.874230E-18
4.530034E+03	1.090615E-16	7.939559E-18
4.540012E+03	1.106523E-16	8.012559E-18
4.549990E+03	1.123559E-16	8.092400E-18
4.559968E+03	1.141660E-16	8.178492E-18
4.569946E+03	1.160668E-16	8.269592E-18
4.579924E+03	1.180480E-16	8.364861E-18
4.589902E+03	1.200844E-16	8.462432E-18
4.599880E+03	1.221558E-16	8.560834E-18
4.609858E+03	1.242359E-16	8.658183E-18
4.619836E+03	1.262932E-16	8.752302E-18
4.629814E+03	1.283019E-16	8.841430E-18
4.639792E+03	1.302320E-16	8.923578E-18
4.649771E+03	1.320507E-16	8.996605E-18
4.659749E+03	1.337377E-16	9.059274E-18
4.669727E+03	1.352620E-16	9.109651E-18
4.679705E+03	1.366060E-16	9.146759E-18
4.689683E+03	1.377535E-16	9.169733E-18
4.699661E+03	1.387001E-16	9.178526E-18
4.709639E+03	1.394444E-16	9.173274E-18
4.719617E+03	1.399899E-16	9.154468E-18
4.729595E+03	1.403565E-16	9.123620E-18
4.739573E+03	1.405531E-16	9.081546E-18
4.749551E+03	1.406004E-16	9.029758E-18
4.759529E+03	1.405273E-16	8.970304E-18
4.769507E+03	1.403511E-16	8.904415E-18
4.779485E+03	1.400979E-16	8.833877E-18
4.789463E+03	1.398010E-16	8.760865E-18
4.799441E+03	1.394790E-16	8.686597E-18
4.809419E+03	1.391598E-16	8.612843E-18
4.819397E+03	1.388628E-16	8.540799E-18
4.829375E+03	1.386124E-16	8.471935E-18
4.839353E+03	1.384271E-16	8.407337E-18
4.849331E+03	1.383202E-16	8.347733E-18
4.859310E+03	1.383081E-16	8.294034E-18
4.869288E+03	1.383991E-16	8.246637E-18
4.879266E+03	1.385982E-16	8.205719E-18
4.889244E+03	1.389028E-16	8.171031E-18
4.899222E+03	1.393089E-16	8.142220E-18
4.909200E+03	1.398153E-16	8.119114E-18
4.919178E+03	1.404045E-16	8.100612E-18
4.929156E+03	1.410659E-16	8.086025E-18
4.939134E+03	1.417799E-16	8.074172E-18
4.949112E+03	1.425323E-16	8.064209E-18
4.959090E+03	1.433026E-16	8.054955E-18
4.969068E+03	1.440805E-16	8.045840E-18
4.979046E+03	1.448443E-16	8.035663E-18
4.989024E+03	1.455823E-16	8.023820E-18
4.999002E+03	1.462887E-16	8.010038E-18
5.008980E+03	1.469548E-16	7.993909E-18
5.018958E+03	1.475690E-16	7.974861E-18
5.028936E+03	1.481258E-16	7.952679E-18
5.038914E+03	1.486161E-16	7.926962E-18
5.048892E+03	1.490264E-16	7.897087E-18
5.058870E+03	1.493500E-16	7.862804E-18
5.068849E+03	1.495787E-16	7.823801E-18
5.078827E+03	1.497051E-16	7.779810E-18
5.088805E+03	1.497283E-16	7.730910E-18
5.098783E+03	1.496594E-16	7.677792E-18
5.108761E+03	1.495035E-16	7.620834E-18
5.118739E+03	1.492774E-16	7.560991E-18
5.128717E+03	1.490050E-16	7.499554E-18
5.138695E+03	1.487115E-16	7.437847E-18
5.148673E+03	1.484214E-16	7.377124E-18
5.158651E+03	1.481665E-16	7.318974E-18
5.168629E+03	1.479769E-16	7.264870E-18
5.178607E+03	1.478788E-16	7.216044E-18
5.188585E+03	1.479007E-16	7.173823E-18
5.198563E+03	1.480561E-16	7.138780E-18
5.208541E+03	1.483599E-16	7.111538E-18
5.218519E+03	1.488147E-16	7.092132E-18
5.228497E+03	1.494229E-16	7.080584E-18
5.238475E+03	1.501783E-16	7.076511E-18
5.248453E+03	1.510667E-16	7.079173E-18
5.258431E+03	1.520760E-16	7.087945E-18
5.268409E+03	1.531835E-16	7.101732E-18
5.278388E+03	1.543726E-16	7.119749E-18
5.288366E+03	1.556201E-16	7.140918E-18
5.298344E+03	1.569103E-16	7.164545E-18
5.308322E+03	1.582269E-16	7.189910E-18
5.318300E+03	1.595569E-16	7.216470E-18
5.328278E+03	1.608983E-16	7.244187E-18
5.338256E+03	1.622452E-16	7.272853E-18
5.348234E+03	1.636047E-16	7.302839E-18
5.358212E+03	1.649832E-16	7.334493E-18
5.368190E+03	1.663850E-16	7.368054E-18
5.378168E+03	1.678201E-16	7.404021E-18
5.388146E+03	1.693040E-16	7.443122E-18
5.398124E+03	1.708529E-16	7.486120E-18
5.408102E+03	1.724870E-16	7.533943E-18
5.418080E+03	1.742388E-16	7.588036E-18
5.428058E+03	1.761367E-16	7.649679E-18
5.438036E+03	1.782230E-16	7.720726E-18
5.448014E+03	1.805339E-16	7.802771E-18
5.457992E+03	1.831156E-16	7.897836E-18
5.467970E+03	1.860140E-16	8.007933E-18
5.477949E+03	1.892671E-16	8.134730E-18
5.487927E+03	1.929119E-16	8.279866E-18
5.497905E+03	1.969701E-16	8.444346E-18
5.507883E+03	2.014561E-16	8.628871E-18
5.517861E+03	2.063763E-16	8.833804E-18
5.527839E+03	2.116936E-16	9.057646E-18
5.537817E+03	2.173786E-16	9.299258E-18
5.547795E+03	2.233501E-16	9.555293E-18
5.557773E+03	2.295197E-16	9.822122E-18
5.567751E+03	2.357447E-16	1.009379E-17
5.577729E+03	2.418650E-16	1.036357E-17
5.587707E+03	2.476947E-16	1.062363E-17
5.597685E+03	2.530198E-16	1.086486E-17
5.607663E+03	2.576127E-16	1.107749E-17
5.617641E+03	2.612576E-16	1.125217E-17
5.627619E+03	2.637616E-16	1.138044E-17
5.637597E+03	2.649747E-16	1.145557E-17
5.647575E+03	2.648234E-16	1.147400E-17
5.657553E+03	2.633093E-16	1.143538E-17
5.667531E+03	2.604722E-16	1.134092E-17
5.677509E+03	2.564161E-16	1.119461E-17
5.687488E+03	2.512681E-16	1.100144E-17
5.697466E+03	2.451909E-16	1.076798E-17
5.707444E+03	2.383604E-16	1.050141E-17
5.717422E+03	2.309691E-16	1.020975E-17
5.727400E+03	2.231888E-16	9.900158E-18
5.737378E+03	2.151838E-16	9.579580E-18
5.747356E+03	2.070958E-16	9.254042E-18
5.757334E+03	1.990450E-16	8.928695E-18
5.767312E+03	1.911386E-16	8.608201E-18
5.777290E+03	1.834712E-16	8.296739E-18
5.787268E+03	1.761155E-16	7.997581E-18
5.797246E+03	1.691438E-16	7.714043E-18
5.807224E+03	1.625985E-16	7.448152E-18
5.817202E+03	1.565309E-16	7.202392E-18
5.827180E+03	1.509778E-16	6.978642E-18
5.837158E+03	1.459658E-16	6.778356E-18
5.847136E+03	1.415195E-16	6.602931E-18
5.857114E+03	1.376491E-16	6.453144E-18
5.867092E+03	1.343629E-16	6.329695E-18
5.877070E+03	1.316691E-16	6.233305E-18
5.887048E+03	1.295532E-16	6.163648E-18
5.897027E+03	1.280142E-16	6.121039E-18
5.907005E+03	1.270271E-16	6.104655E-18
5.916983E+03	1.265681E-16	6.113716E-18
5.926961E+03	1.265900E-16	6.146300E-18
5.936939E+03	1.270582E-16	6.201054E-18
5.946917E+03	1.279138E-16	6.275415E-18
5.956895E+03	1.290979E-16	6.366763E-18
5.966873E+03	1.305533E-16	6.472508E-18
5.976851E+03	1.322159E-16	6.589657E-18
5.986829E+03	1.340252E-16	6.715346E-18
5.996807E+03	1.359180E-16	6.846501E-18
6.006785E+03	1.378301E-16	6.979924E-18
6.016763E+03	1.397007E-16	7.112545E-18
6.026741E+03	1.414774E-16	7.241632E-18
6.036719E+03	1.431159E-16	7.364826E-18
6.046697E+03	1.445781E-16	7.480031E-18
6.056675E+03	1.458473E-16	7.586235E-18
6.066653E+03	1.469294E-16	7.683564E-18
6.076631E+03	1.478535E-16	7.773384E-18
6.086609E+03	1.486516E-16	7.857251E-18
6.096588E+03	1.493741E-16	7.937720E-18
6.106566E+03	1.500711E-16	8.017385E-18
6.116544E+03	1.508014E-16	8.099385E-18
6.126522E+03	1.516212E-16	8.186767E-18
6.136500E+03	1.525942E-16	8.283054E-18
6.146478E+03	1.537789E-16	8.391559E-18
6.156456E+03	1.552410E-16	8.516064E-18
6.166434E+03	1.570447E-16	8.660340E-18
6.176412E+03	1.592525E-16	8.828131E-18
6.186390E+03	1.619300E-16	9.023449E-18
6.196368E+03	1.651486E-16	9.250681E-18
6.206346E+03	1.689744E-16	9.514019E-18
6.216324E+03	1.734637E-16	9.817174E-18
6.226302E+03	1.786741E-16	1.016398E-17
6.236280E+03	1.846695E-16	1.055873E-17
6.246258E+03	1.914882E-16	1.100429E-17
6.256236E+03	1.991865E-16	1.150463E-17
6.266214E+03	2.077780E-16	1.206129E-17
6.276192E+03	2.172576E-16	1.267473E-17
6.286170E+03	2.275610E-16	1.334196E-17
6.296148E+03	2.385823E-16	1.405744E-17
6.306127E+03	2.501384E-16	1.481094E-17
6.316105E+03	2.619679E-16	1.558734E-17
6.326083E+03	2.737403E-16	1.636711E-17
6.336061E+03	2.850657E-16	1.712675E-17
6.346039E+03	2.955154E-16	1.783997E-17
6.356017E+03	3.046252E-16	1.847783E-17
6.365995E+03	3.120204E-16	1.901632E-17
6.375973E+03	3.173445E-16	1.943210E-17
6.385951E+03	3.203749E-16	1.970967E-17
6.395929E+03	3.210166E-16	1.984117E-17
6.405907E+03	3.193138E-16	1.982729E-17
6.415885E+03	3.154373E-16	1.967666E-17
6.425863E+03	3.096932E-16	1.940659E-17
6.435841E+03	3.024593E-16	1.903928E-17
6.445819E+03	2.941666E-16	1.860072E-17
6.455797E+03	2.852703E-16	1.811892E-17
6.465775E+03	2.762199E-16	1.762206E-17
6.475753E+03	2.673862E-16	1.713379E-17
6.485731E+03	2.590674E-16	1.667350E-17
6.495709E+03	2.514849E-16	1.625593E-17
6.505687E+03	2.447834E-16	1.589111E-17
6.515666E+03	2.390313E-16	1.558425E-17
6.525644E+03	2.342459E-16	1.533729E-17
6.535622E+03	2.303712E-16	1.514734E-17
6.545600E+03	2.273027E-16	1.500829E-17
6.555578E+03	2.249120E-16	1.491228E-17
6.565556E+03	2.230522E-16	1.485008E-17
6.575534E+03	2.215836E-16	1.481281E-17
6.585512E+03	2.203409E-16	1.478968E-17
6.595490E+03	2.191978E-16	1.477237E-17
6.605468E+03	2.180235E-16	1.475211E-17
6.615446E+03	2.167288E-16	1.472282E-17
6.625424E+03	2.152143E-16	1.467761E-17
6.635402E+03	2.134103E-16	1.461154E-17
6.645380E+03	2.112702E-16	1.452117E-17
6.655358E+03	2.087394E-16	1.440249E-17
6.665336E+03	2.058122E-16	1.425478E-17
6.675314E+03	2.024757E-16	1.407685E-17
6.685292E+03	1.987375E-16	1.386891E-17
6.695270E+03	1.946278E-16	1.363277E-17
6.705248E+03	1.901656E-16	1.336948E-17
6.715227E+03	1.854037E-16	1.308253E-17
6.725205E+03	1.803848E-16	1.277470E-17
6.735183E+03	1.751657E-16	1.244987E-17
6.745161E+03	1.698128E-16	1.211261E-17
6.755139E+03	1.643972E-16	1.176795E-17
6.765117E+03	1.589897E-16	1.142094E-17
6.775095E+03	1.536479E-16	1.107576E-17
6.785073E+03	1.484189E-16	1.073588E-17
6.795051E+03	1.433431E-16	1.040433E-17
6.805029E+03	1.384503E-16	1.008342E-17
6.815007E+03	1.337643E-16	9.775042E-18
6.824985E+03	1.293009E-16	9.480517E-18
6.834963E+03	1.250738E-16	9.201045E-18
6.844941E+03	1.210978E-16	8.937893E-18
6.854919E+03	1.173735E-16	8.691310E-18
6.864897E+03	1.139038E-16	8.461708E-18
6.874875E+03	1.106915E-16	8.249484E-18
6.884853E+03	1.077344E-16	8.054682E-18
6.894831E+03	1.050297E-16	7.877267E-18
6.904809E+03	1.025695E-16	7.716850E-18
6.914787E+03	1.003483E-16	7.573196E-18
6.924766E+03	9.836552E-17	7.446425E-18
6.934744E+03	9.661275E-17	7.336082E-18
6.944722E+03	9.508691E-17	7.242097E-18
6.954700E+03	9.378947E-17	7.164744E-18
6.964678E+03	9.271387E-17	7.103683E-18
6.974656E+03	9.185805E-17	7.058911E-18
6.984634E+03	9.122175E-17	7.030560E-18
6.994612E+03	9.080174E-17	7.018533E-18
7.004590E+03	9.059450E-17	7.022704E-18
7.014568E+03	9.059390E-17	7.042739E-18
7.024546E+03	9.079584E-17	7.078458E-18
7.034524E+03	9.119150E-17	7.129304E-18
7.044502E+03	9.177498E-17	7.194942E-18
7.054480E+03	9.253619E-17	7.274700E-18
7.064458E+03	9.346168E-17	7.367631E-18
7.074436E+03	9.454039E-17	7.472966E-18
7.084414E+03	9.575623E-17	7.589525E-18
7.094392E+03	9.709146E-17	7.715982E-18
7.104370E+03	9.852778E-17	7.850953E-18
7.114348E+03	1.000556E-16	7.993731E-18
7.124326E+03	1.016634E-16	8.143446E-18
7.134305E+03	1.033473E-16	8.299837E-18
7.144283E+03	1.051082E-16	8.463014E-18
7.154261E+03	1.069486E-16	8.633222E-18
7.164239E+03	1.088814E-16	8.811552E-18
7.174217E+03	1.109142E-16	8.998678E-18
7.184195E+03	1.130732E-16	9.196776E-18
7.194173E+03	1.153761E-16	9.407371E-18
7.204151E+03	1.178539E-16	9.633068E-18
7.214129E+03	1.205393E-16	9.876656E-18
7.224107E+03	1.234649E-16	1.014093E-17
7.234085E+03	1.266712E-16	1.042935E-17
7.244063E+03	1.301954E-16	1.074516E-17
7.254041E+03	1.340846E-16	1.109242E-17
7.264019E+03	1.383740E-16	1.147428E-17
7.273997E+03	1.431068E-16	1.189453E-17
7.283975E+03	1.483136E-16	1.235597E-17
7.293953E+03	1.540138E-16	1.286051E-17
7.303931E+03	1.602109E-16	1.340867E-17
7.313909E+03	1.668883E-16	1.399938E-17
7.323887E+03	1.739913E-16	1.462826E-17
7.333865E+03	1.814418E-16	1.528899E-17
7.343844E+03	1.891299E-16	1.597244E-17
7.353822E+03	1.969029E-16	1.666582E-17
7.363800E+03	2.045873E-16	1.735446E-17
7.373778E+03	2.119645E-16	1.801969E-17
7.383756E+03	2.188261E-16	1.864359E-17
7.393734E+03	2.249337E-16	1.920549E-17
7.403712E+03	2.300910E-16	1.968818E-17
7.413690E+03	2.341729E-16	2.008039E-17
7.423668E+03	2.371087E-16	2.037546E-17
7.433646E+03	2.388660E-16	2.056997E-17
7.443624E+03	2.394801E-16	2.066632E-17
7.453602E+03	2.390199E-16	2.066984E-17
7.463580E+03	2.375723E-16	2.058749E-17
7.473558E+03	2.352538E-16	2.042888E-17
7.483536E+03	2.321866E-16	2.020415E-17
7.493514E+03	2.284942E-16	1.992369E-17
7.503492E+03	2.242952E-16	1.959755E-17
7.513470E+03	2.196972E-16	1.923487E-17
7.523448E+03	2.148087E-16	1.884497E-17
7.533426E+03	2.097157E-16	1.843527E-17
7.543405E+03	2.045080E-16	1.801359E-17
7.553383E+03	1.992511E-16	1.758564E-17
7.563361E+03	1.940209E-16	1.715814E-17
7.573339E+03	1.888821E-16	1.673684E-17
7.583317E+03	1.838864E-16	1.632638E-17
7.593295E+03	1.790847E-16	1.593138E-17
7.603273E+03	1.745157E-16	1.555539E-17
7.613251E+03	1.702102E-16	1.520129E-17
7.623229E+03	1.661925E-16	1.487142E-17
7.633207E+03	1.624783E-16	1.456731E-17
7.643185E+03	1.590875E-16	1.429094E-17
7.653163E+03	1.560361E-16	1.404391E-17
7.663141E+03	1.533392E-16	1.382778E-17
7.673119E+03	1.510132E-16	1.364420E-17
7.683097E+03	1.490914E-16	1.349639E-17
7.693075E+03	1.476077E-16	1.338764E-17
7.703053E+03	1.465921E-16	1.332090E-17
7.713031E+03	1.460662E-16	1.329840E-17
7.723009E+03	1.460450E-16	1.332175E-17
7.732987E+03	1.465465E-16	1.339287E-17
7.742965E+03	1.475782E-16	1.351271E-17
