#wls	flux	fluxerr
1.596488E+03	1.374634E-17	4.128336E-18
1.636400E+03	1.405903E-17	4.209566E-18
1.676312E+03	1.435624E-17	4.285297E-18
1.716224E+03	1.463658E-17	4.355128E-18
1.756136E+03	1.489501E-17	4.417585E-18
1.796049E+03	1.512593E-17	4.471057E-18
1.835961E+03	1.531795E-17	4.512241E-18
1.875873E+03	1.546137E-17	4.538391E-18
1.915785E+03	1.554311E-17	4.545812E-18
1.955697E+03	1.555277E-17	4.531654E-18
1.995610E+03	1.549249E-17	4.496768E-18
2.035522E+03	1.538175E-17	4.447020E-18
2.075434E+03	1.527431E-17	4.398059E-18
2.115346E+03	1.524733E-17	4.371997E-18
2.155258E+03	1.537481E-17	4.389669E-18
2.195171E+03	1.569013E-17	4.459974E-18
2.235083E+03	1.616839E-17	4.575121E-18
2.274995E+03	1.674790E-17	4.717049E-18
2.314907E+03	1.736294E-17	4.866882E-18
2.354819E+03	1.796394E-17	5.010576E-18
2.394732E+03	1.852014E-17	5.139585E-18
2.434644E+03	1.901885E-17	5.250533E-18
2.474556E+03	1.945265E-17	5.341566E-18
2.514468E+03	1.982077E-17	5.412712E-18
2.554380E+03	2.012675E-17	5.465171E-18
2.594293E+03	2.037082E-17	5.499255E-18
2.634205E+03	2.055568E-17	5.515939E-18
2.674117E+03	2.068641E-17	5.516830E-18
2.714029E+03	2.076330E-17	5.502248E-18
2.753941E+03	2.079359E-17	5.474350E-18
2.793854E+03	2.077925E-17	5.433870E-18
2.833766E+03	2.072964E-17	5.383467E-18
2.873678E+03	2.064952E-17	5.324549E-18
2.913590E+03	2.055050E-17	5.260249E-18
2.953502E+03	2.044413E-17	5.193611E-18
2.993414E+03	2.034326E-17	5.127913E-18
3.003393E+03	2.032003E-17	5.111917E-18
3.013371E+03	2.029940E-17	5.096541E-18
3.023349E+03	2.028070E-17	5.081612E-18
3.033327E+03	2.026448E-17	5.067271E-18
3.043305E+03	2.024994E-17	5.053308E-18
3.053283E+03	2.024047E-17	5.040568E-18
3.063261E+03	2.023527E-17	5.028843E-18
3.073239E+03	2.023452E-17	5.018172E-18
3.083217E+03	2.023842E-17	5.008597E-18
3.093195E+03	2.024722E-17	5.000171E-18
3.103173E+03	2.026025E-17	4.992720E-18
3.113151E+03	2.027968E-17	4.986777E-18
3.123129E+03	2.030491E-17	4.982176E-18
3.133107E+03	2.033629E-17	4.978997E-18
3.143085E+03	2.037421E-17	4.977322E-18
3.153063E+03	2.041906E-17	4.977242E-18
3.163041E+03	2.047131E-17	4.978850E-18
3.173019E+03	2.053139E-17	4.982246E-18
3.182997E+03	2.059981E-17	4.987536E-18
3.192975E+03	2.067709E-17	4.994831E-18
3.202954E+03	2.076379E-17	5.004248E-18
3.212932E+03	2.086046E-17	5.015907E-18
3.222910E+03	2.096771E-17	5.029937E-18
3.232888E+03	2.108523E-17	5.046240E-18
3.242866E+03	2.121559E-17	5.065415E-18
3.252844E+03	2.135853E-17	5.087375E-18
3.262822E+03	2.151477E-17	5.112270E-18
3.272800E+03	2.168508E-17	5.140256E-18
3.282778E+03	2.187024E-17	5.171492E-18
3.292756E+03	2.207110E-17	5.206148E-18
3.302734E+03	2.228849E-17	5.244395E-18
3.312712E+03	2.252333E-17	5.286415E-18
3.322690E+03	2.277653E-17	5.332390E-18
3.332668E+03	2.304907E-17	5.382511E-18
3.342646E+03	2.334195E-17	5.436974E-18
3.352624E+03	2.365621E-17	5.495981E-18
3.362602E+03	2.399291E-17	5.559739E-18
3.372580E+03	2.435316E-17	5.628458E-18
3.382558E+03	2.473810E-17	5.702354E-18
3.392536E+03	2.514777E-17	5.781388E-18
3.402514E+03	2.558555E-17	5.866288E-18
3.412493E+03	2.605157E-17	5.957022E-18
3.422471E+03	2.654703E-17	6.053809E-18
3.432449E+03	2.707315E-17	6.156869E-18
3.442427E+03	2.763115E-17	6.266414E-18
3.452405E+03	2.822223E-17	6.382651E-18
3.462383E+03	2.884632E-17	6.505491E-18
3.472361E+03	2.950704E-17	6.635684E-18
3.482339E+03	3.020424E-17	6.773120E-18
3.492317E+03	3.093895E-17	6.917947E-18
3.502295E+03	3.171071E-17	7.069986E-18
3.512273E+03	3.252305E-17	7.229941E-18
3.522251E+03	3.337529E-17	7.397577E-18
3.532229E+03	3.426798E-17	7.572924E-18
3.542207E+03	3.519993E-17	7.755633E-18
3.552185E+03	3.617429E-17	7.946309E-18
3.562163E+03	3.718948E-17	8.144510E-18
3.572141E+03	3.824352E-17	8.349713E-18
3.582119E+03	3.933904E-17	8.562400E-18
3.592097E+03	4.047179E-17	8.781556E-18
3.602075E+03	4.164398E-17	9.007571E-18
3.612053E+03	4.285056E-17	9.239262E-18
3.622032E+03	4.409326E-17	9.476920E-18
3.632010E+03	4.536619E-17	9.719193E-18
3.641988E+03	4.667064E-17	9.966281E-18
3.651966E+03	4.799984E-17	1.021667E-17
3.661944E+03	4.935470E-17	1.047047E-17
3.671922E+03	5.072770E-17	1.072605E-17
3.681900E+03	5.211723E-17	1.098299E-17
3.691878E+03	5.351948E-17	1.124046E-17
3.701856E+03	5.493275E-17	1.149805E-17
3.711834E+03	5.634842E-17	1.175393E-17
3.721812E+03	5.776458E-17	1.200768E-17
3.731790E+03	5.917712E-17	1.225843E-17
3.741768E+03	6.058195E-17	1.250533E-17
3.751746E+03	6.197509E-17	1.274757E-17
3.761724E+03	6.335273E-17	1.298437E-17
3.771702E+03	6.471124E-17	1.321501E-17
3.781680E+03	6.604724E-17	1.343884E-17
3.791658E+03	6.735755E-17	1.365523E-17
3.801636E+03	6.863933E-17	1.386367E-17
3.811614E+03	6.989005E-17	1.406369E-17
3.821592E+03	7.110746E-17	1.425490E-17
3.831571E+03	7.228943E-17	1.443693E-17
3.841549E+03	7.343133E-17	1.460893E-17
3.851527E+03	7.453755E-17	1.477185E-17
3.861505E+03	7.560390E-17	1.492494E-17
3.871483E+03	7.662614E-17	1.506743E-17
3.881461E+03	7.760947E-17	1.520044E-17
3.891439E+03	7.854672E-17	1.532265E-17
3.901417E+03	7.944342E-17	1.543523E-17
3.911395E+03	8.029231E-17	1.553685E-17
3.921373E+03	8.109578E-17	1.562810E-17
3.931351E+03	8.185631E-17	1.570953E-17
3.941329E+03	8.256633E-17	1.577980E-17
3.951307E+03	8.322823E-17	1.583948E-17
3.961285E+03	8.384086E-17	1.588844E-17
3.971263E+03	8.440326E-17	1.592664E-17
3.981241E+03	8.491429E-17	1.595396E-17
3.991219E+03	8.537289E-17	1.597032E-17
4.001197E+03	8.577802E-17	1.597567E-17
4.011175E+03	8.612897E-17	1.596998E-17
4.021153E+03	8.642493E-17	1.595325E-17
4.031132E+03	8.666213E-17	1.592491E-17
4.041110E+03	8.684757E-17	1.588638E-17
4.051088E+03	8.697792E-17	1.583720E-17
4.061066E+03	8.705075E-17	1.577704E-17
4.071044E+03	8.707406E-17	1.570751E-17
4.081022E+03	8.704289E-17	1.562784E-17
4.091000E+03	8.696294E-17	1.553918E-17
4.100978E+03	8.684032E-17	1.544275E-17
4.110956E+03	8.667153E-17	1.533803E-17
4.120934E+03	8.646353E-17	1.522638E-17
4.130912E+03	8.622044E-17	1.510862E-17
4.140890E+03	8.594647E-17	1.498558E-17
4.150868E+03	8.564629E-17	1.485815E-17
4.160846E+03	8.532473E-17	1.472724E-17
4.170824E+03	8.498662E-17	1.459374E-17
4.180802E+03	8.463722E-17	1.445859E-17
4.190780E+03	8.427839E-17	1.432215E-17
4.200758E+03	8.392201E-17	1.418645E-17
4.210736E+03	8.356673E-17	1.405126E-17
4.220714E+03	8.322444E-17	1.391858E-17
4.230692E+03	8.289386E-17	1.378815E-17
4.240671E+03	8.258657E-17	1.366187E-17
4.250649E+03	8.230129E-17	1.353946E-17
4.260627E+03	8.204599E-17	1.342218E-17
4.270605E+03	8.182525E-17	1.331068E-17
4.280583E+03	8.164346E-17	1.320559E-17
4.290561E+03	8.150448E-17	1.310742E-17
4.300539E+03	8.141206E-17	1.301665E-17
4.310517E+03	8.136623E-17	1.293316E-17
4.320495E+03	8.137602E-17	1.285825E-17
4.330473E+03	8.144081E-17	1.279166E-17
4.340451E+03	8.155952E-17	1.273307E-17
4.350429E+03	8.174020E-17	1.268357E-17
4.360407E+03	8.197806E-17	1.264224E-17
4.370385E+03	8.227753E-17	1.260961E-17
4.380363E+03	8.263985E-17	1.258568E-17
4.390341E+03	8.306602E-17	1.257041E-17
4.400319E+03	8.355696E-17	1.256376E-17
4.410297E+03	8.411371E-17	1.256569E-17
4.420275E+03	8.473713E-17	1.257613E-17
4.430253E+03	8.542824E-17	1.259504E-17
4.440231E+03	8.618471E-17	1.262185E-17
4.450210E+03	8.701366E-17	1.265742E-17
4.460188E+03	8.790927E-17	1.270067E-17
4.470166E+03	8.887842E-17	1.275240E-17
4.480144E+03	8.991461E-17	1.281144E-17
4.490122E+03	9.102043E-17	1.287796E-17
4.500100E+03	9.219489E-17	1.295159E-17
4.510078E+03	9.343590E-17	1.303183E-17
4.520056E+03	9.474051E-17	1.311806E-17
4.530034E+03	9.610129E-17	1.320905E-17
4.540012E+03	9.752007E-17	1.330487E-17
4.549990E+03	9.898687E-17	1.340399E-17
4.559968E+03	1.004900E-16	1.350466E-17
4.569946E+03	1.020239E-16	1.360605E-17
4.579924E+03	1.035820E-16	1.370714E-17
4.589902E+03	1.051449E-16	1.380534E-17
4.599880E+03	1.067039E-16	1.389946E-17
4.609858E+03	1.082454E-16	1.398775E-17
4.619836E+03	1.097555E-16	1.406850E-17
4.629814E+03	1.112163E-16	1.413949E-17
4.639792E+03	1.126220E-16	1.420015E-17
4.649771E+03	1.139515E-16	1.424800E-17
4.659749E+03	1.152014E-16	1.428287E-17
4.669727E+03	1.163529E-16	1.430268E-17
4.679705E+03	1.174021E-16	1.430728E-17
4.689683E+03	1.183429E-16	1.429624E-17
4.699661E+03	1.191719E-16	1.426950E-17
4.709639E+03	1.198880E-16	1.422731E-17
4.719617E+03	1.204930E-16	1.417023E-17
4.729595E+03	1.209866E-16	1.409857E-17
4.739573E+03	1.213838E-16	1.401444E-17
4.749551E+03	1.216841E-16	1.391811E-17
4.759529E+03	1.219018E-16	1.381151E-17
4.769507E+03	1.220523E-16	1.369667E-17
4.779485E+03	1.221389E-16	1.357414E-17
4.789463E+03	1.221780E-16	1.344598E-17
4.799441E+03	1.221778E-16	1.331322E-17
4.809419E+03	1.221591E-16	1.317828E-17
4.819397E+03	1.221289E-16	1.304196E-17
4.829375E+03	1.220936E-16	1.290500E-17
4.839353E+03	1.220670E-16	1.276887E-17
4.849331E+03	1.220618E-16	1.263486E-17
4.859310E+03	1.220757E-16	1.250270E-17
4.869288E+03	1.221182E-16	1.237330E-17
4.879266E+03	1.221882E-16	1.224649E-17
4.889244E+03	1.222961E-16	1.212320E-17
4.899222E+03	1.224373E-16	1.200290E-17
4.909200E+03	1.226059E-16	1.188491E-17
4.919178E+03	1.228031E-16	1.176930E-17
4.929156E+03	1.230292E-16	1.165602E-17
4.939134E+03	1.232704E-16	1.154369E-17
4.949112E+03	1.235208E-16	1.143178E-17
4.959090E+03	1.237833E-16	1.132052E-17
4.969068E+03	1.240475E-16	1.120898E-17
4.979046E+03	1.243073E-16	1.109664E-17
4.989024E+03	1.245529E-16	1.098267E-17
4.999002E+03	1.247834E-16	1.086711E-17
5.008980E+03	1.249943E-16	1.074962E-17
5.018958E+03	1.251816E-16	1.062999E-17
5.028936E+03	1.253416E-16	1.050803E-17
5.038914E+03	1.254717E-16	1.038365E-17
5.048892E+03	1.255697E-16	1.025683E-17
5.058870E+03	1.256300E-16	1.012726E-17
5.068849E+03	1.256571E-16	9.995483E-18
5.078827E+03	1.256566E-16	9.862082E-18
5.088805E+03	1.256222E-16	9.726739E-18
5.098783E+03	1.255625E-16	9.590272E-18
5.108761E+03	1.254789E-16	9.452922E-18
5.118739E+03	1.253872E-16	9.316015E-18
5.128717E+03	1.252870E-16	9.179614E-18
5.138695E+03	1.251963E-16	9.045118E-18
5.148673E+03	1.251161E-16	8.912662E-18
5.158651E+03	1.250610E-16	8.783305E-18
5.168629E+03	1.250404E-16	8.657724E-18
5.178607E+03	1.250633E-16	8.536512E-18
5.188585E+03	1.251371E-16	8.420154E-18
5.198563E+03	1.252634E-16	8.308713E-18
5.208541E+03	1.254509E-16	8.202718E-18
5.218519E+03	1.257057E-16	8.102521E-18
5.228497E+03	1.260193E-16	8.007524E-18
5.238475E+03	1.263940E-16	7.917856E-18
5.248453E+03	1.268217E-16	7.833004E-18
5.258431E+03	1.273060E-16	7.753217E-18
5.268409E+03	1.278362E-16	7.677884E-18
5.278388E+03	1.284012E-16	7.606419E-18
5.288366E+03	1.289985E-16	7.538785E-18
5.298344E+03	1.296214E-16	7.474739E-18
5.308322E+03	1.302645E-16	7.414129E-18
5.318300E+03	1.309233E-16	7.356891E-18
5.328278E+03	1.315902E-16	7.302814E-18
5.338256E+03	1.322735E-16	7.252585E-18
5.348234E+03	1.329650E-16	7.205988E-18
5.358212E+03	1.336726E-16	7.163695E-18
5.368190E+03	1.344019E-16	7.126254E-18
5.378168E+03	1.351611E-16	7.094340E-18
5.388146E+03	1.359611E-16	7.068760E-18
5.398124E+03	1.368109E-16	7.050213E-18
5.408102E+03	1.377361E-16	7.040249E-18
5.418080E+03	1.387466E-16	7.039582E-18
5.428058E+03	1.398690E-16	7.049772E-18
5.438036E+03	1.411272E-16	7.072244E-18
5.448014E+03	1.425470E-16	7.108504E-18
5.457992E+03	1.441498E-16	7.159857E-18
5.467970E+03	1.459705E-16	7.228296E-18
5.477949E+03	1.480205E-16	7.314680E-18
5.487927E+03	1.503155E-16	7.420127E-18
5.497905E+03	1.528472E-16	7.544609E-18
5.507883E+03	1.555949E-16	7.687436E-18
5.517861E+03	1.585285E-16	7.847428E-18
5.527839E+03	1.616031E-16	8.022698E-18
5.537817E+03	1.647808E-16	8.211697E-18
5.547795E+03	1.679932E-16	8.411309E-18
5.557773E+03	1.711793E-16	8.618716E-18
5.567751E+03	1.742649E-16	8.830332E-18
5.577729E+03	1.771634E-16	9.041795E-18
5.587707E+03	1.798025E-16	9.249273E-18
5.597685E+03	1.820849E-16	9.447451E-18
5.607663E+03	1.839413E-16	9.632206E-18
5.617641E+03	1.852853E-16	9.798275E-18
5.627619E+03	1.860612E-16	9.941738E-18
5.637597E+03	1.862168E-16	1.005861E-17
5.647575E+03	1.857371E-16	1.014674E-17
5.657553E+03	1.846031E-16	1.020354E-17
5.667531E+03	1.828404E-16	1.022883E-17
5.677509E+03	1.804695E-16	1.022208E-17
5.687488E+03	1.775458E-16	1.018475E-17
5.697466E+03	1.741321E-16	1.011883E-17
5.707444E+03	1.702951E-16	1.002666E-17
5.717422E+03	1.661248E-16	9.912190E-18
5.727400E+03	1.616907E-16	9.778353E-18
5.737378E+03	1.570786E-16	9.629311E-18
5.747356E+03	1.523653E-16	9.468980E-18
5.757334E+03	1.476227E-16	9.301212E-18
5.767312E+03	1.429112E-16	9.129416E-18
5.777290E+03	1.382992E-16	8.957751E-18
5.787268E+03	1.338281E-16	8.788876E-18
5.797246E+03	1.295467E-16	8.626129E-18
5.807224E+03	1.254915E-16	8.472230E-18
5.817202E+03	1.216927E-16	8.329632E-18
5.827180E+03	1.181742E-16	8.200511E-18
5.837158E+03	1.149502E-16	8.086468E-18
5.847136E+03	1.120379E-16	7.989405E-18
5.857114E+03	1.094451E-16	7.910650E-18
5.867092E+03	1.071758E-16	7.851286E-18
5.877070E+03	1.052295E-16	7.812124E-18
5.887048E+03	1.036020E-16	7.793711E-18
5.897027E+03	1.022826E-16	7.796075E-18
5.907005E+03	1.012671E-16	7.819754E-18
5.916983E+03	1.005351E-16	7.863996E-18
5.926961E+03	1.000736E-16	7.928566E-18
5.936939E+03	9.986036E-17	8.012450E-18
5.946917E+03	9.988128E-17	8.115210E-18
5.956895E+03	1.001072E-16	8.235122E-18
5.966873E+03	1.005212E-16	8.371363E-18
5.976851E+03	1.010923E-16	8.521867E-18
5.986829E+03	1.017997E-16	8.685304E-18
5.996807E+03	1.026197E-16	8.860022E-18
6.006785E+03	1.035269E-16	9.044114E-18
6.016763E+03	1.045082E-16	9.236660E-18
6.026741E+03	1.055396E-16	9.435725E-18
6.036719E+03	1.066116E-16	9.640568E-18
6.046697E+03	1.077152E-16	9.850476E-18
6.056675E+03	1.088468E-16	1.006518E-17
6.066653E+03	1.100040E-16	1.028453E-17
6.076631E+03	1.112008E-16	1.050989E-17
6.086609E+03	1.124413E-16	1.074176E-17
6.096588E+03	1.137459E-16	1.098220E-17
6.106566E+03	1.151349E-16	1.123337E-17
6.116544E+03	1.166326E-16	1.149792E-17
6.126522E+03	1.182626E-16	1.177848E-17
6.136500E+03	1.200625E-16	1.207922E-17
6.146478E+03	1.220566E-16	1.240310E-17
6.156456E+03	1.242823E-16	1.275452E-17
6.166434E+03	1.267742E-16	1.313774E-17
6.176412E+03	1.295633E-16	1.355677E-17
6.186390E+03	1.326930E-16	1.401705E-17
6.196368E+03	1.361889E-16	1.452230E-17
6.206346E+03	1.400918E-16	1.507798E-17
6.216324E+03	1.444215E-16	1.568739E-17
6.226302E+03	1.492016E-16	1.635437E-17
6.236280E+03	1.544587E-16	1.708312E-17
6.246258E+03	1.601960E-16	1.787537E-17
6.256236E+03	1.664033E-16	1.873131E-17
6.266214E+03	1.730659E-16	1.965061E-17
6.276192E+03	1.801451E-16	2.063008E-17
6.286170E+03	1.875808E-16	2.166392E-17
6.296148E+03	1.952883E-16	2.274324E-17
6.306127E+03	2.031512E-16	2.385506E-17
6.316105E+03	2.110476E-16	2.498530E-17
6.326083E+03	2.188066E-16	2.611359E-17
6.336061E+03	2.262608E-16	2.721930E-17
6.346039E+03	2.332267E-16	2.827922E-17
6.356017E+03	2.395141E-16	2.926863E-17
6.365995E+03	2.449683E-16	3.016646E-17
6.375973E+03	2.494272E-16	3.095019E-17
6.385951E+03	2.527878E-16	3.160406E-17
6.395929E+03	2.549825E-16	3.211643E-17
6.405907E+03	2.559918E-16	3.248153E-17
6.415885E+03	2.558453E-16	3.269982E-17
6.425863E+03	2.546101E-16	3.277671E-17
6.435841E+03	2.524167E-16	3.272614E-17
6.445819E+03	2.493911E-16	3.256193E-17
6.455797E+03	2.457011E-16	3.230388E-17
6.465775E+03	2.415040E-16	3.197105E-17
6.475753E+03	2.369758E-16	3.158556E-17
6.485731E+03	2.322547E-16	3.116509E-17
6.495709E+03	2.274592E-16	3.072520E-17
6.505687E+03	2.226989E-16	3.028063E-17
6.515666E+03	2.180497E-16	2.984192E-17
6.525644E+03	2.135614E-16	2.941627E-17
6.535622E+03	2.092526E-16	2.900676E-17
6.545600E+03	2.051422E-16	2.861652E-17
6.555578E+03	2.012050E-16	2.824259E-17
6.565556E+03	1.974229E-16	2.788293E-17
6.575534E+03	1.937629E-16	2.753326E-17
6.585512E+03	1.901862E-16	2.718842E-17
6.595490E+03	1.866523E-16	2.684284E-17
6.605468E+03	1.831156E-16	2.649007E-17
6.615446E+03	1.795517E-16	2.612659E-17
6.625424E+03	1.759169E-16	2.574600E-17
6.635402E+03	1.721921E-16	2.534532E-17
6.645380E+03	1.683586E-16	2.492162E-17
6.655358E+03	1.643999E-16	2.447221E-17
6.665336E+03	1.603230E-16	2.399789E-17
6.675314E+03	1.561205E-16	2.349729E-17
6.685292E+03	1.518075E-16	2.297243E-17
6.695270E+03	1.473995E-16	2.242546E-17
6.705248E+03	1.429165E-16	2.185927E-17
6.715227E+03	1.383829E-16	2.127746E-17
6.725205E+03	1.338210E-16	2.068341E-17
6.735183E+03	1.292678E-16	2.008289E-17
6.745161E+03	1.247436E-16	1.947910E-17
6.755139E+03	1.202807E-16	1.887727E-17
6.765117E+03	1.159056E-16	1.828177E-17
6.775095E+03	1.116423E-16	1.769667E-17
6.785073E+03	1.075088E-16	1.712514E-17
6.795051E+03	1.035301E-16	1.657154E-17
6.805029E+03	9.971427E-17	1.603757E-17
6.815007E+03	9.607632E-17	1.552609E-17
6.824985E+03	9.262484E-17	1.503894E-17
6.834963E+03	8.936563E-17	1.457754E-17
6.844941E+03	8.629939E-17	1.414248E-17
6.854919E+03	8.343323E-17	1.373540E-17
6.864897E+03	8.076130E-17	1.335582E-17
6.874875E+03	7.828475E-17	1.300441E-17
6.884853E+03	7.600086E-17	1.268116E-17
6.894831E+03	7.390614E-17	1.238596E-17
6.904809E+03	7.199420E-17	1.211817E-17
6.914787E+03	7.026548E-17	1.187828E-17
6.924766E+03	6.871086E-17	1.166517E-17
6.934744E+03	6.732816E-17	1.147887E-17
6.944722E+03	6.611511E-17	1.131937E-17
6.954700E+03	6.506087E-17	1.118519E-17
6.964678E+03	6.416773E-17	1.107707E-17
6.974656E+03	6.342940E-17	1.099429E-17
6.984634E+03	6.283983E-17	1.093611E-17
6.994612E+03	6.239712E-17	1.090254E-17
7.004590E+03	6.209933E-17	1.089355E-17
7.014568E+03	6.193838E-17	1.090801E-17
7.024546E+03	6.191019E-17	1.094549E-17
7.034524E+03	6.201469E-17	1.100626E-17
7.044502E+03	6.224357E-17	1.108910E-17
7.054480E+03	6.259659E-17	1.119422E-17
7.064458E+03	6.306541E-17	1.132038E-17
7.074436E+03	6.364787E-17	1.146741E-17
7.084414E+03	6.434007E-17	1.163483E-17
7.094392E+03	6.513852E-17	1.182223E-17
7.104370E+03	6.603819E-17	1.202888E-17
7.114348E+03	6.704138E-17	1.225541E-17
7.124326E+03	6.814280E-17	1.250102E-17
7.134305E+03	6.934494E-17	1.276637E-17
7.144283E+03	7.064955E-17	1.305196E-17
7.154261E+03	7.205998E-17	1.335859E-17
7.164239E+03	7.358126E-17	1.368740E-17
7.174217E+03	7.522003E-17	1.403982E-17
7.184195E+03	7.698214E-17	1.441714E-17
7.194173E+03	7.887988E-17	1.482191E-17
7.204151E+03	8.092455E-17	1.525648E-17
7.214129E+03	8.312850E-17	1.572345E-17
7.224107E+03	8.550482E-17	1.622558E-17
7.234085E+03	8.806679E-17	1.676569E-17
7.244063E+03	9.082722E-17	1.734655E-17
7.254041E+03	9.379453E-17	1.797011E-17
7.264019E+03	9.698089E-17	1.863905E-17
7.273997E+03	1.003953E-16	1.935549E-17
7.283975E+03	1.040324E-16	2.011876E-17
7.293953E+03	1.078868E-16	2.092817E-17
7.303931E+03	1.119527E-16	2.178299E-17
7.313909E+03	1.162057E-16	2.267874E-17
7.323887E+03	1.206104E-16	2.360883E-17
7.333865E+03	1.251335E-16	2.456693E-17
7.343844E+03	1.297151E-16	2.554142E-17
7.353822E+03	1.342978E-16	2.652100E-17
7.363800E+03	1.388123E-16	2.749197E-17
7.373778E+03	1.431792E-16	2.843835E-17
7.383756E+03	1.473309E-16	2.934642E-17
7.393734E+03	1.511873E-16	3.019975E-17
7.403712E+03	1.546733E-16	3.098281E-17
7.413690E+03	1.577331E-16	3.168371E-17
7.423668E+03	1.603182E-16	3.229197E-17
7.433646E+03	1.623945E-16	3.279987E-17
7.443624E+03	1.639434E-16	3.320280E-17
7.453602E+03	1.649612E-16	3.349913E-17
7.463580E+03	1.654535E-16	3.368914E-17
7.473558E+03	1.654544E-16	3.377890E-17
7.483536E+03	1.649867E-16	3.377231E-17
7.493514E+03	1.640973E-16	3.367824E-17
7.503492E+03	1.628330E-16	3.350565E-17
7.513470E+03	1.612441E-16	3.326434E-17
7.523448E+03	1.593824E-16	3.296452E-17
7.533426E+03	1.572995E-16	3.261645E-17
7.543405E+03	1.550405E-16	3.222922E-17
7.553383E+03	1.526643E-16	3.181480E-17
7.563361E+03	1.502062E-16	3.138045E-17
7.573339E+03	1.477142E-16	3.093609E-17
7.583317E+03	1.452275E-16	3.048995E-17
7.593295E+03	1.427826E-16	3.004968E-17
7.603273E+03	1.404122E-16	2.962233E-17
7.613251E+03	1.381417E-16	2.921335E-17
7.623229E+03	1.360072E-16	2.883063E-17
7.633207E+03	1.340244E-16	2.847765E-17
7.643185E+03	1.322245E-16	2.816137E-17
7.653163E+03	1.306194E-16	2.788457E-17
7.663141E+03	1.292326E-16	2.765262E-17
7.673119E+03	1.280818E-16	2.746963E-17
7.683097E+03	1.271789E-16	2.733855E-17
7.693075E+03	1.265472E-16	2.726473E-17
7.703053E+03	1.261954E-16	2.725047E-17
7.713031E+03	1.261302E-16	2.729765E-17
7.723009E+03	1.263645E-16	2.740947E-17
7.732987E+03	1.269082E-16	2.758855E-17
7.742965E+03	1.277556E-16	2.783408E-17
