#wls	flux	fluxerr
1.596488E+03	1.038782E-17	4.196269E-18
1.636400E+03	1.059535E-17	4.267174E-18
1.676312E+03	1.079022E-17	4.332168E-18
1.716224E+03	1.097010E-17	4.390338E-18
1.756136E+03	1.113266E-17	4.440789E-18
1.796049E+03	1.127255E-17	4.481440E-18
1.835961E+03	1.138358E-17	4.509908E-18
1.875873E+03	1.145753E-17	4.523047E-18
1.915785E+03	1.148427E-17	4.517013E-18
1.955697E+03	1.145875E-17	4.490023E-18
1.995610E+03	1.138174E-17	4.442605E-18
2.035522E+03	1.126791E-17	4.380691E-18
2.075434E+03	1.115710E-17	4.319887E-18
2.115346E+03	1.110554E-17	4.281859E-18
2.155258E+03	1.116796E-17	4.287325E-18
2.195171E+03	1.136646E-17	4.344152E-18
2.235083E+03	1.168221E-17	4.444439E-18
2.274995E+03	1.207014E-17	4.570457E-18
2.314907E+03	1.248285E-17	4.703909E-18
2.354819E+03	1.288591E-17	4.831674E-18
2.394732E+03	1.325790E-17	4.945765E-18
2.434644E+03	1.358929E-17	5.042751E-18
2.474556E+03	1.387720E-17	5.121756E-18
2.514468E+03	1.412222E-17	5.183208E-18
2.554380E+03	1.432740E-17	5.228436E-18
2.594293E+03	1.449472E-17	5.258365E-18
2.634205E+03	1.462641E-17	5.274008E-18
2.674117E+03	1.472749E-17	5.277364E-18
2.714029E+03	1.480070E-17	5.269583E-18
2.753941E+03	1.485003E-17	5.252246E-18
2.793854E+03	1.488008E-17	5.227113E-18
2.833766E+03	1.489619E-17	5.196168E-18
2.873678E+03	1.490464E-17	5.161670E-18
2.913590E+03	1.491192E-17	5.125893E-18
2.953502E+03	1.492833E-17	5.092342E-18
2.993414E+03	1.496302E-17	5.064025E-18
3.003393E+03	1.497628E-17	5.058330E-18
3.013371E+03	1.499076E-17	5.052972E-18
3.023349E+03	1.500750E-17	5.048297E-18
3.033327E+03	1.502775E-17	5.044721E-18
3.043305E+03	1.504991E-17	5.041701E-18
3.053283E+03	1.507677E-17	5.040164E-18
3.063261E+03	1.510673E-17	5.039568E-18
3.073239E+03	1.514077E-17	5.040230E-18
3.083217E+03	1.517986E-17	5.042464E-18
3.093195E+03	1.522249E-17	5.045755E-18
3.103173E+03	1.527052E-17	5.050713E-18
3.113151E+03	1.532246E-17	5.056834E-18
3.123129E+03	1.537938E-17	5.064463E-18
3.133107E+03	1.544237E-17	5.073941E-18
3.143085E+03	1.550999E-17	5.084784E-18
3.153063E+03	1.558337E-17	5.097350E-18
3.163041E+03	1.566366E-17	5.112002E-18
3.173019E+03	1.574944E-17	5.128261E-18
3.182997E+03	1.584192E-17	5.146505E-18
3.192975E+03	1.594232E-17	5.167112E-18
3.202954E+03	1.604925E-17	5.189616E-18
3.212932E+03	1.616397E-17	5.214407E-18
3.222910E+03	1.628687E-17	5.241590E-18
3.232888E+03	1.641928E-17	5.271571E-18
3.242866E+03	1.655985E-17	5.303893E-18
3.252844E+03	1.670991E-17	5.338964E-18
3.262822E+03	1.686994E-17	5.376908E-18
3.272800E+03	1.704044E-17	5.417860E-18
3.282778E+03	1.722283E-17	5.462245E-18
3.292756E+03	1.741580E-17	5.509614E-18
3.302734E+03	1.762079E-17	5.560399E-18
3.312712E+03	1.783838E-17	5.614746E-18
3.322690E+03	1.806913E-17	5.672800E-18
3.332668E+03	1.831364E-17	5.734712E-18
3.342646E+03	1.857250E-17	5.800632E-18
3.352624E+03	1.884634E-17	5.870716E-18
3.362602E+03	1.913681E-17	5.945437E-18
3.372580E+03	1.944251E-17	6.024312E-18
3.382558E+03	1.976509E-17	6.107814E-18
3.392536E+03	2.010521E-17	6.196096E-18
3.402514E+03	2.046350E-17	6.289308E-18
3.412493E+03	2.084064E-17	6.387599E-18
3.422471E+03	2.123725E-17	6.491114E-18
3.432449E+03	2.165280E-17	6.599633E-18
3.442427E+03	2.209022E-17	6.713991E-18
3.452405E+03	2.254896E-17	6.833960E-18
3.462383E+03	2.302958E-17	6.959647E-18
3.472361E+03	2.353263E-17	7.091153E-18
3.482339E+03	2.405858E-17	7.228557E-18
3.492317E+03	2.460789E-17	7.371926E-18
3.502295E+03	2.517961E-17	7.520907E-18
3.512273E+03	2.577669E-17	7.676312E-18
3.522251E+03	2.639806E-17	7.837746E-18
3.532229E+03	2.704389E-17	8.005187E-18
3.542207E+03	2.771279E-17	8.178145E-18
3.552185E+03	2.840759E-17	8.357386E-18
3.562163E+03	2.912672E-17	8.542369E-18
3.572141E+03	2.986835E-17	8.732477E-18
3.582119E+03	3.063518E-17	8.928428E-18
3.592097E+03	3.142516E-17	9.129543E-18
3.602075E+03	3.223593E-17	9.335066E-18
3.612053E+03	3.307002E-17	9.545654E-18
3.622032E+03	3.392306E-17	9.759975E-18
3.632010E+03	3.479747E-17	9.978652E-18
3.641988E+03	3.568841E-17	1.020024E-17
3.651966E+03	3.659821E-17	1.042532E-17
3.661944E+03	3.752157E-17	1.065234E-17
3.671922E+03	3.846073E-17	1.088188E-17
3.681900E+03	3.941001E-17	1.111227E-17
3.691878E+03	4.036951E-17	1.134349E-17
3.701856E+03	4.133942E-17	1.157557E-17
3.711834E+03	4.231353E-17	1.180671E-17
3.721812E+03	4.329184E-17	1.203689E-17
3.731790E+03	4.427225E-17	1.226551E-17
3.741768E+03	4.525497E-17	1.249259E-17
3.751746E+03	4.623323E-17	1.271626E-17
3.761724E+03	4.720721E-17	1.293656E-17
3.771702E+03	4.817477E-17	1.315291E-17
3.781680E+03	4.913387E-17	1.336475E-17
3.791658E+03	5.008249E-17	1.357155E-17
3.801636E+03	5.101868E-17	1.377281E-17
3.811614E+03	5.194057E-17	1.396803E-17
3.821592E+03	5.284636E-17	1.415677E-17
3.831571E+03	5.373434E-17	1.433861E-17
3.841549E+03	5.460289E-17	1.451316E-17
3.851527E+03	5.545048E-17	1.468006E-17
3.861505E+03	5.627568E-17	1.483898E-17
3.871483E+03	5.707423E-17	1.498887E-17
3.881461E+03	5.785065E-17	1.513098E-17
3.891439E+03	5.860089E-17	1.526432E-17
3.901417E+03	5.932387E-17	1.538867E-17
3.911395E+03	6.001554E-17	1.550306E-17
3.921373E+03	6.068101E-17	1.560891E-17
3.931351E+03	6.131335E-17	1.570450E-17
3.941329E+03	6.191795E-17	1.579132E-17
3.951307E+03	6.248792E-17	1.586769E-17
3.961285E+03	6.302896E-17	1.593516E-17
3.971263E+03	6.353428E-17	1.599211E-17
3.981241E+03	6.400985E-17	1.604014E-17
3.991219E+03	6.444905E-17	1.607770E-17
4.001197E+03	6.485820E-17	1.610647E-17
4.011175E+03	6.523088E-17	1.612496E-17
4.021153E+03	6.557051E-17	1.613412E-17
4.031132E+03	6.587750E-17	1.613417E-17
4.041110E+03	6.615240E-17	1.612534E-17
4.051088E+03	6.639929E-17	1.610873E-17
4.061066E+03	6.661257E-17	1.608309E-17
4.071044E+03	6.679670E-17	1.604959E-17
4.081022E+03	6.695310E-17	1.600867E-17
4.091000E+03	6.708337E-17	1.596081E-17
4.100978E+03	6.718935E-17	1.590654E-17
4.110956E+03	6.727306E-17	1.584641E-17
4.120934E+03	6.733335E-17	1.578024E-17
4.130912E+03	6.737928E-17	1.571021E-17
4.140890E+03	6.741005E-17	1.563619E-17
4.150868E+03	6.742831E-17	1.555885E-17
4.160846E+03	6.743354E-17	1.547811E-17
4.170824E+03	6.743526E-17	1.539619E-17
4.180802E+03	6.743313E-17	1.531303E-17
4.190780E+03	6.742683E-17	1.522857E-17
4.200758E+03	6.742605E-17	1.514500E-17
4.210736E+03	6.742724E-17	1.506151E-17
4.220714E+03	6.744008E-17	1.498023E-17
4.230692E+03	6.746099E-17	1.490035E-17
4.240671E+03	6.749628E-17	1.482320E-17
4.250649E+03	6.755216E-17	1.475009E-17
4.260627E+03	6.762487E-17	1.468013E-17
4.270605E+03	6.772045E-17	1.461455E-17
4.280583E+03	6.784152E-17	1.455382E-17
4.290561E+03	6.799056E-17	1.449839E-17
4.300539E+03	6.816992E-17	1.444862E-17
4.310517E+03	6.838181E-17	1.440487E-17
4.320495E+03	6.862825E-17	1.436744E-17
4.330473E+03	6.891112E-17	1.433656E-17
4.340451E+03	6.923213E-17	1.431246E-17
4.350429E+03	6.959281E-17	1.429528E-17
4.360407E+03	6.999456E-17	1.428516E-17
4.370385E+03	7.043518E-17	1.428147E-17
4.380363E+03	7.092251E-17	1.428563E-17
4.390341E+03	7.145402E-17	1.429695E-17
4.400319E+03	7.202692E-17	1.431468E-17
4.410297E+03	7.264863E-17	1.434011E-17
4.420275E+03	7.331249E-17	1.437173E-17
4.430253E+03	7.402564E-17	1.441075E-17
4.440231E+03	7.478084E-17	1.445555E-17
4.450210E+03	7.558131E-17	1.450657E-17
4.460188E+03	7.642993E-17	1.456416E-17
4.470166E+03	7.731861E-17	1.462658E-17
4.480144E+03	7.824952E-17	1.469406E-17
4.490122E+03	7.922098E-17	1.476609E-17
4.500100E+03	8.023093E-17	1.484211E-17
4.510078E+03	8.127676E-17	1.492146E-17
4.520056E+03	8.235538E-17	1.500341E-17
4.530034E+03	8.346323E-17	1.508718E-17
4.540012E+03	8.459624E-17	1.517188E-17
4.549990E+03	8.574575E-17	1.525585E-17
4.559968E+03	8.691473E-17	1.533954E-17
4.569946E+03	8.809358E-17	1.542116E-17
4.579924E+03	8.927214E-17	1.549889E-17
4.589902E+03	9.045243E-17	1.557306E-17
4.599880E+03	9.161955E-17	1.564111E-17
4.609858E+03	9.277525E-17	1.570338E-17
4.619836E+03	9.390411E-17	1.575731E-17
4.629814E+03	9.500842E-17	1.580339E-17
4.639792E+03	9.607295E-17	1.583921E-17
4.649771E+03	9.709611E-17	1.586467E-17
4.659749E+03	9.807257E-17	1.587907E-17
4.669727E+03	9.899767E-17	1.588188E-17
4.679705E+03	9.986734E-17	1.587266E-17
4.689683E+03	1.006787E-16	1.585121E-17
4.699661E+03	1.014297E-16	1.581745E-17
4.709639E+03	1.021192E-16	1.577147E-17
4.719617E+03	1.027471E-16	1.571356E-17
4.729595E+03	1.033095E-16	1.564337E-17
4.739573E+03	1.038179E-16	1.556295E-17
4.749551E+03	1.042701E-16	1.547220E-17
4.759529E+03	1.046648E-16	1.537120E-17
4.769507E+03	1.050158E-16	1.526221E-17
4.779485E+03	1.053176E-16	1.514466E-17
4.789463E+03	1.055801E-16	1.502020E-17
4.799441E+03	1.058134E-16	1.489040E-17
4.809419E+03	1.060125E-16	1.475475E-17
4.819397E+03	1.061873E-16	1.461477E-17
4.829375E+03	1.063429E-16	1.447127E-17
4.839353E+03	1.064836E-16	1.432493E-17
4.849331E+03	1.066135E-16	1.417638E-17
4.859310E+03	1.067363E-16	1.402618E-17
4.869288E+03	1.068549E-16	1.387475E-17
4.879266E+03	1.069720E-16	1.372246E-17
4.889244E+03	1.070893E-16	1.356957E-17
4.899222E+03	1.072033E-16	1.341564E-17
4.909200E+03	1.073246E-16	1.326204E-17
4.919178E+03	1.074435E-16	1.310755E-17
4.929156E+03	1.075697E-16	1.295339E-17
4.939134E+03	1.076927E-16	1.279829E-17
4.949112E+03	1.078164E-16	1.264276E-17
4.959090E+03	1.079446E-16	1.248725E-17
4.969068E+03	1.080660E-16	1.233049E-17
4.979046E+03	1.081840E-16	1.217293E-17
4.989024E+03	1.082974E-16	1.201447E-17
4.999002E+03	1.084046E-16	1.185502E-17
5.008980E+03	1.085045E-16	1.169450E-17
5.018958E+03	1.085961E-16	1.153290E-17
5.028936E+03	1.086786E-16	1.137022E-17
5.038914E+03	1.087466E-16	1.120598E-17
5.048892E+03	1.088100E-16	1.104132E-17
5.058870E+03	1.088642E-16	1.087585E-17
5.068849E+03	1.089050E-16	1.070925E-17
5.078827E+03	1.089383E-16	1.054224E-17
5.088805E+03	1.089711E-16	1.037556E-17
5.098783E+03	1.089950E-16	1.020852E-17
5.108761E+03	1.090176E-16	1.004193E-17
5.118739E+03	1.090465E-16	9.876548E-18
5.128717E+03	1.090745E-16	9.711815E-18
5.138695E+03	1.091097E-16	9.548528E-18
5.148673E+03	1.091550E-16	9.387003E-18
5.158651E+03	1.092086E-16	9.227148E-18
5.168629E+03	1.092832E-16	9.070095E-18
5.178607E+03	1.093762E-16	8.915674E-18
5.188585E+03	1.094900E-16	8.764112E-18
5.198563E+03	1.096211E-16	8.615202E-18
5.208541E+03	1.097809E-16	8.469901E-18
5.218519E+03	1.099601E-16	8.327547E-18
5.228497E+03	1.101640E-16	8.188637E-18
5.238475E+03	1.103970E-16	8.053594E-18
5.248453E+03	1.106489E-16	7.921765E-18
5.258431E+03	1.109234E-16	7.793572E-18
5.268409E+03	1.112194E-16	7.669094E-18
5.278388E+03	1.115354E-16	7.548417E-18
5.288366E+03	1.118701E-16	7.431658E-18
5.298344E+03	1.122225E-16	7.318988E-18
5.308322E+03	1.125915E-16	7.210604E-18
5.318300E+03	1.129718E-16	7.106456E-18
5.328278E+03	1.133738E-16	7.007519E-18
5.338256E+03	1.137932E-16	6.913850E-18
5.348234E+03	1.142267E-16	6.825599E-18
5.358212E+03	1.146820E-16	6.743616E-18
5.368190E+03	1.151679E-16	6.668789E-18
5.378168E+03	1.156785E-16	6.601162E-18
5.388146E+03	1.162247E-16	6.541764E-18
5.398124E+03	1.168127E-16	6.491357E-18
5.408102E+03	1.174497E-16	6.450750E-18
5.418080E+03	1.181438E-16	6.420791E-18
5.428058E+03	1.189032E-16	6.402343E-18
5.438036E+03	1.197361E-16	6.396271E-18
5.448014E+03	1.206508E-16	6.403428E-18
5.457992E+03	1.216486E-16	6.424318E-18
5.467970E+03	1.227456E-16	6.460216E-18
5.477949E+03	1.239328E-16	6.511091E-18
5.487927E+03	1.252175E-16	6.577759E-18
5.497905E+03	1.265773E-16	6.659353E-18
5.507883E+03	1.280002E-16	6.755439E-18
5.517861E+03	1.294649E-16	6.865038E-18
5.527839E+03	1.309459E-16	6.986908E-18
5.537817E+03	1.324151E-16	7.119582E-18
5.547795E+03	1.338420E-16	7.261365E-18
5.557773E+03	1.351944E-16	7.410356E-18
5.567751E+03	1.364392E-16	7.564457E-18
5.577729E+03	1.375434E-16	7.721418E-18
5.587707E+03	1.384688E-16	7.878521E-18
5.597685E+03	1.391972E-16	8.034017E-18
5.607663E+03	1.396891E-16	8.184765E-18
5.617641E+03	1.399337E-16	8.329101E-18
5.627619E+03	1.399002E-16	8.464052E-18
5.637597E+03	1.395821E-16	8.587954E-18
5.647575E+03	1.389730E-16	8.699047E-18
5.657553E+03	1.380728E-16	8.795907E-18
5.667531E+03	1.368882E-16	8.877482E-18
5.677509E+03	1.354320E-16	8.943149E-18
5.687488E+03	1.337227E-16	8.992686E-18
5.697466E+03	1.317838E-16	9.026297E-18
5.707444E+03	1.296374E-16	9.044177E-18
5.717422E+03	1.273257E-16	9.048094E-18
5.727400E+03	1.248702E-16	9.038527E-18
5.737378E+03	1.223161E-16	9.017824E-18
5.747356E+03	1.196864E-16	8.986944E-18
5.757334E+03	1.170200E-16	8.948194E-18
5.767312E+03	1.143486E-16	8.903573E-18
5.777290E+03	1.117070E-16	8.855527E-18
5.787268E+03	1.091126E-16	8.805307E-18
5.797246E+03	1.065904E-16	8.754936E-18
5.807224E+03	1.041716E-16	8.707103E-18
5.817202E+03	1.018699E-16	8.663249E-18
5.827180E+03	9.970134E-17	8.625086E-18
5.837158E+03	9.767429E-17	8.593789E-18
5.847136E+03	9.580754E-17	8.571530E-18
5.857114E+03	9.410019E-17	8.558821E-18
5.867092E+03	9.256566E-17	8.557510E-18
5.877070E+03	9.119883E-17	8.567797E-18
5.887048E+03	9.000481E-17	8.590844E-18
5.897027E+03	8.898295E-17	8.627297E-18
5.907005E+03	8.813092E-17	8.677639E-18
5.916983E+03	8.744522E-17	8.742233E-18
5.926961E+03	8.692118E-17	8.821310E-18
5.936939E+03	8.655323E-17	8.914986E-18
5.946917E+03	8.633135E-17	9.022879E-18
5.956895E+03	8.625634E-17	9.145703E-18
5.966873E+03	8.631362E-17	9.282520E-18
5.976851E+03	8.650369E-17	9.433956E-18
5.986829E+03	8.681206E-17	9.598980E-18
5.996807E+03	8.723601E-17	9.777796E-18
6.006785E+03	8.776966E-17	9.970230E-18
6.016763E+03	8.841180E-17	1.017661E-17
6.026741E+03	8.915076E-17	1.039605E-17
6.036719E+03	8.998367E-17	1.062861E-17
6.046697E+03	9.091695E-17	1.087546E-17
6.056675E+03	9.194670E-17	1.113655E-17
6.066653E+03	9.307484E-17	1.141253E-17
6.076631E+03	9.430049E-17	1.170369E-17
6.086609E+03	9.563668E-17	1.201208E-17
6.096588E+03	9.708172E-17	1.233796E-17
6.106566E+03	9.864765E-17	1.268332E-17
6.116544E+03	1.003481E-16	1.305044E-17
6.126522E+03	1.021849E-16	1.344012E-17
6.136500E+03	1.041732E-16	1.385496E-17
6.146478E+03	1.063252E-16	1.429721E-17
6.156456E+03	1.086527E-16	1.476917E-17
6.166434E+03	1.111676E-16	1.527320E-17
6.176412E+03	1.138762E-16	1.581095E-17
6.186390E+03	1.167984E-16	1.638599E-17
6.196368E+03	1.199376E-16	1.699971E-17
6.206346E+03	1.232945E-16	1.765307E-17
6.216324E+03	1.268767E-16	1.834807E-17
6.226302E+03	1.306890E-16	1.908629E-17
6.236280E+03	1.347142E-16	1.986615E-17
6.246258E+03	1.389463E-16	2.068759E-17
6.256236E+03	1.433677E-16	2.154874E-17
6.266214E+03	1.479533E-16	2.244656E-17
6.276192E+03	1.526708E-16	2.337669E-17
6.286170E+03	1.574801E-16	2.433342E-17
6.296148E+03	1.623334E-16	2.530959E-17
6.306127E+03	1.671682E-16	2.629546E-17
6.316105E+03	1.719375E-16	2.728343E-17
6.326083E+03	1.765602E-16	2.826016E-17
6.336061E+03	1.809826E-16	2.921628E-17
6.346039E+03	1.851195E-16	3.013701E-17
6.356017E+03	1.889109E-16	3.101127E-17
6.365995E+03	1.922944E-16	3.182722E-17
6.375973E+03	1.952146E-16	3.257395E-17
6.385951E+03	1.976269E-16	3.324200E-17
6.395929E+03	1.994981E-16	3.382365E-17
6.405907E+03	2.008088E-16	3.431337E-17
6.415885E+03	2.015532E-16	3.470789E-17
6.425863E+03	2.017303E-16	3.500479E-17
6.435841E+03	2.013781E-16	3.520845E-17
6.445819E+03	2.005104E-16	3.531922E-17
6.455797E+03	1.991847E-16	3.534528E-17
6.465775E+03	1.974297E-16	3.528999E-17
6.475753E+03	1.953039E-16	3.516226E-17
6.485731E+03	1.928582E-16	3.496990E-17
6.495709E+03	1.901421E-16	3.472077E-17
6.505687E+03	1.872023E-16	3.442245E-17
6.515666E+03	1.840810E-16	3.408195E-17
6.525644E+03	1.808146E-16	3.370543E-17
6.535622E+03	1.774260E-16	3.329668E-17
6.545600E+03	1.739553E-16	3.286288E-17
6.555578E+03	1.704137E-16	3.240593E-17
6.565556E+03	1.668084E-16	3.192698E-17
6.575534E+03	1.631571E-16	3.142928E-17
6.585512E+03	1.594737E-16	3.091541E-17
6.595490E+03	1.557488E-16	3.038349E-17
6.605468E+03	1.519926E-16	2.983545E-17
6.615446E+03	1.482075E-16	2.927170E-17
6.625424E+03	1.443959E-16	2.869267E-17
6.635402E+03	1.405608E-16	2.809894E-17
6.645380E+03	1.366999E-16	2.749004E-17
6.655358E+03	1.328304E-16	2.686943E-17
6.665336E+03	1.289528E-16	2.623723E-17
6.675314E+03	1.250694E-16	2.559397E-17
6.685292E+03	1.212006E-16	2.494388E-17
6.695270E+03	1.173460E-16	2.428702E-17
6.705248E+03	1.135224E-16	2.362697E-17
6.715227E+03	1.097417E-16	2.296643E-17
6.725205E+03	1.060209E-16	2.230917E-17
6.735183E+03	1.023628E-16	2.165608E-17
6.745161E+03	9.878008E-17	2.101010E-17
6.755139E+03	9.529270E-17	2.037584E-17
6.765117E+03	9.190683E-17	1.975500E-17
6.775095E+03	8.863216E-17	1.915009E-17
6.785073E+03	8.547338E-17	1.856254E-17
6.795051E+03	8.244517E-17	1.799602E-17
6.805029E+03	7.954619E-17	1.745069E-17
6.815007E+03	7.678801E-17	1.692960E-17
6.824985E+03	7.416727E-17	1.643252E-17
6.834963E+03	7.168959E-17	1.596117E-17
6.844941E+03	6.935607E-17	1.551633E-17
6.854919E+03	6.716692E-17	1.509854E-17
6.864897E+03	6.512147E-17	1.470815E-17
6.874875E+03	6.321838E-17	1.434535E-17
6.884853E+03	6.145573E-17	1.401020E-17
6.894831E+03	5.983114E-17	1.370262E-17
6.904809E+03	5.833936E-17	1.342187E-17
6.914787E+03	5.698253E-17	1.316887E-17
6.924766E+03	5.575251E-17	1.294220E-17
6.934744E+03	5.465094E-17	1.274264E-17
6.944722E+03	5.366981E-17	1.256873E-17
6.954700E+03	5.280828E-17	1.242066E-17
6.964678E+03	5.206319E-17	1.229806E-17
6.974656E+03	5.143148E-17	1.220059E-17
6.984634E+03	5.091019E-17	1.212787E-17
6.994612E+03	5.049652E-17	1.207959E-17
7.004590E+03	5.018785E-17	1.205544E-17
7.014568E+03	4.998169E-17	1.205515E-17
7.024546E+03	4.987362E-17	1.207794E-17
7.034524E+03	4.986585E-17	1.212466E-17
7.044502E+03	4.995219E-17	1.219407E-17
7.054480E+03	5.013531E-17	1.228711E-17
7.064458E+03	5.040947E-17	1.240265E-17
7.074436E+03	5.077568E-17	1.254119E-17
7.084414E+03	5.123533E-17	1.270333E-17
7.094392E+03	5.178349E-17	1.288812E-17
7.104370E+03	5.242217E-17	1.309629E-17
7.114348E+03	5.315161E-17	1.332815E-17
7.124326E+03	5.397005E-17	1.358352E-17
7.134305E+03	5.488314E-17	1.386404E-17
7.144283E+03	5.589002E-17	1.416975E-17
7.154261E+03	5.699251E-17	1.450136E-17
7.164239E+03	5.819029E-17	1.485903E-17
7.174217E+03	5.949085E-17	1.524494E-17
7.184195E+03	6.089186E-17	1.565874E-17
7.194173E+03	6.239873E-17	1.610208E-17
7.204151E+03	6.401709E-17	1.657668E-17
7.214129E+03	6.574422E-17	1.708212E-17
7.224107E+03	6.758515E-17	1.761996E-17
7.234085E+03	6.954161E-17	1.819094E-17
7.244063E+03	7.161441E-17	1.879556E-17
7.254041E+03	7.380318E-17	1.943399E-17
7.264019E+03	7.610274E-17	2.010512E-17
7.273997E+03	7.851577E-17	2.080995E-17
7.283975E+03	8.103313E-17	2.154629E-17
7.293953E+03	8.364272E-17	2.231115E-17
7.303931E+03	8.634045E-17	2.310364E-17
7.313909E+03	8.910476E-17	2.391816E-17
7.323887E+03	9.192201E-17	2.475118E-17
7.333865E+03	9.477624E-17	2.559848E-17
7.343844E+03	9.763621E-17	2.645165E-17
7.353822E+03	1.004806E-16	2.730488E-17
7.363800E+03	1.032819E-16	2.815062E-17
7.373778E+03	1.060116E-16	2.898089E-17
7.383756E+03	1.086406E-16	2.978754E-17
7.393734E+03	1.111352E-16	3.056104E-17
7.403712E+03	1.134778E-16	3.129617E-17
7.413690E+03	1.156385E-16	3.198425E-17
7.423668E+03	1.175903E-16	3.261734E-17
7.433646E+03	1.193251E-16	3.319269E-17
7.443624E+03	1.208189E-16	3.370306E-17
7.453602E+03	1.220731E-16	3.414827E-17
7.463580E+03	1.230733E-16	3.452368E-17
7.473558E+03	1.238254E-16	3.483039E-17
7.483536E+03	1.243351E-16	3.506938E-17
7.493514E+03	1.246121E-16	3.524289E-17
7.503492E+03	1.246701E-16	3.535422E-17
7.513470E+03	1.245261E-16	3.540773E-17
7.523448E+03	1.241994E-16	3.540848E-17
7.533426E+03	1.237117E-16	3.536223E-17
7.543405E+03	1.230857E-16	3.527517E-17
7.553383E+03	1.223399E-16	3.515231E-17
7.563361E+03	1.215089E-16	3.500334E-17
7.573339E+03	1.206061E-16	3.483199E-17
7.583317E+03	1.196654E-16	3.464788E-17
7.593295E+03	1.186989E-16	3.445451E-17
7.603273E+03	1.177334E-16	3.425961E-17
7.613251E+03	1.167943E-16	3.407059E-17
7.623229E+03	1.158902E-16	3.389006E-17
7.633207E+03	1.150437E-16	3.372472E-17
7.643185E+03	1.142707E-16	3.357938E-17
7.653163E+03	1.135855E-16	3.345844E-17
7.663141E+03	1.130009E-16	3.336583E-17
7.673119E+03	1.125230E-16	3.330364E-17
7.683097E+03	1.121712E-16	3.327781E-17
7.693075E+03	1.119481E-16	3.328938E-17
7.703053E+03	1.118546E-16	3.333893E-17
7.713031E+03	1.119041E-16	3.343074E-17
7.723009E+03	1.120888E-16	3.356271E-17
7.732987E+03	1.124177E-16	3.373789E-17
7.742965E+03	1.128781E-16	3.395273E-17
