#wls	flux	fluxerr
1.600000E+03	3.059766E-16	3.646155E-16
1.640000E+03	2.876380E-16	3.341176E-16
1.680000E+03	2.706735E-16	3.057631E-16
1.720000E+03	2.550205E-16	2.794343E-16
1.760000E+03	2.407263E-16	2.551290E-16
1.800000E+03	2.277510E-16	2.327391E-16
1.840000E+03	2.161142E-16	2.122106E-16
1.880000E+03	2.057865E-16	1.934294E-16
1.920000E+03	1.967951E-16	1.763275E-16
1.960000E+03	1.891590E-16	1.608150E-16
2.000000E+03	1.828987E-16	1.467916E-16
2.040000E+03	1.780699E-16	1.341743E-16
2.080000E+03	1.747565E-16	1.228875E-16
2.120000E+03	1.730927E-16	1.128764E-16
2.160000E+03	1.732318E-16	1.040861E-16
2.200000E+03	1.754574E-16	9.653353E-17
2.240000E+03	1.800997E-16	9.025792E-17
2.280000E+03	1.876548E-16	8.540015E-17
2.320000E+03	1.988544E-16	8.224199E-17
2.360000E+03	2.146580E-16	8.120752E-17
2.400000E+03	2.364521E-16	8.292130E-17
2.440000E+03	2.661545E-16	8.815223E-17
2.480000E+03	3.063594E-16	9.771928E-17
2.520000E+03	3.605188E-16	1.124508E-16
2.560000E+03	4.327746E-16	1.331701E-16
2.600000E+03	5.273355E-16	1.606362E-16
2.640000E+03	6.468257E-16	1.951448E-16
2.680000E+03	7.903032E-16	2.359594E-16
2.720000E+03	9.515787E-16	2.808007E-16
2.760000E+03	1.119540E-15	3.259685E-16
2.800000E+03	1.280792E-15	3.672069E-16
2.840000E+03	1.424899E-15	4.013124E-16
2.880000E+03	1.548541E-15	4.272837E-16
2.920000E+03	1.654056E-15	4.457285E-16
2.960000E+03	1.743865E-15	4.571540E-16
3.000000E+03	1.815598E-15	4.606830E-16
3.010000E+03	1.830006E-15	4.601233E-16
3.020000E+03	1.842683E-15	4.589026E-16
3.030000E+03	1.853561E-15	4.570044E-16
3.040000E+03	1.862514E-15	4.543997E-16
3.050000E+03	1.869422E-15	4.510632E-16
3.060000E+03	1.874176E-15	4.469739E-16
3.070000E+03	1.876676E-15	4.421158E-16
3.080000E+03	1.876836E-15	4.364784E-16
3.090000E+03	1.874590E-15	4.300575E-16
3.100000E+03	1.869942E-15	4.228684E-16
3.110000E+03	1.862754E-15	4.148955E-16
3.120000E+03	1.853134E-15	4.061820E-16
3.130000E+03	1.841052E-15	3.967418E-16
3.140000E+03	1.826564E-15	3.866107E-16
3.150000E+03	1.809810E-15	3.758442E-16
3.160000E+03	1.790858E-15	3.644852E-16
3.170000E+03	1.769867E-15	3.525976E-16
3.180000E+03	1.747082E-15	3.402639E-16
3.190000E+03	1.722687E-15	3.275564E-16
3.200000E+03	1.696955E-15	3.145660E-16
3.210000E+03	1.670245E-15	3.013997E-16
3.220000E+03	1.642907E-15	2.881626E-16
3.230000E+03	1.615287E-15	2.749582E-16
3.240000E+03	1.587814E-15	2.619032E-16
3.250000E+03	1.561032E-15	2.491300E-16
3.260000E+03	1.535312E-15	2.367380E-16
3.270000E+03	1.511292E-15	2.248630E-16
3.280000E+03	1.489395E-15	2.135983E-16
3.290000E+03	1.470282E-15	2.030602E-16
3.300000E+03	1.454427E-15	1.933216E-16
3.310000E+03	1.442408E-15	1.844495E-16
3.320000E+03	1.434724E-15	1.764785E-16
3.330000E+03	1.431968E-15	1.694326E-16
3.340000E+03	1.434602E-15	1.632996E-16
3.350000E+03	1.443173E-15	1.580606E-16
3.360000E+03	1.458297E-15	1.536906E-16
3.370000E+03	1.480607E-15	1.501559E-16
3.380000E+03	1.510814E-15	1.474235E-16
3.390000E+03	1.549684E-15	1.454618E-16
3.400000E+03	1.598204E-15	1.442570E-16
3.410000E+03	1.657315E-15	1.437882E-16
3.420000E+03	1.728312E-15	1.440620E-16
3.430000E+03	1.812459E-15	1.450745E-16
3.440000E+03	1.911266E-15	1.468316E-16
3.450000E+03	2.026326E-15	1.493283E-16
3.460000E+03	2.159261E-15	1.525391E-16
3.470000E+03	2.311779E-15	1.564154E-16
3.480000E+03	2.485406E-15	1.608597E-16
3.490000E+03	2.681531E-15	1.657251E-16
3.500000E+03	2.901096E-15	1.707946E-16
3.510000E+03	3.144385E-15	1.757757E-16
3.520000E+03	3.410982E-15	1.803185E-16
3.530000E+03	3.699314E-15	1.840337E-16
3.540000E+03	4.006713E-15	1.865745E-16
3.550000E+03	4.329007E-15	1.877464E-16
3.560000E+03	4.660657E-15	1.877054E-16
3.570000E+03	4.994821E-15	1.871990E-16
3.580000E+03	5.323302E-15	1.877426E-16
3.590000E+03	5.637343E-15	1.914790E-16
3.600000E+03	5.928219E-15	2.001299E-16
3.610000E+03	6.191306E-15	2.131253E-16
3.620000E+03	6.424214E-15	2.281762E-16
3.630000E+03	6.625695E-15	2.426912E-16
3.640000E+03	6.795487E-15	2.544827E-16
3.650000E+03	6.933064E-15	2.619604E-16
3.660000E+03	7.038294E-15	2.641811E-16
3.670000E+03	7.110430E-15	2.607883E-16
3.680000E+03	7.148981E-15	2.520365E-16
3.690000E+03	7.153946E-15	2.388122E-16
3.700000E+03	7.126087E-15	2.226386E-16
3.710000E+03	7.067418E-15	2.055568E-16
3.720000E+03	6.982617E-15	1.897120E-16
3.730000E+03	6.878934E-15	1.765780E-16
3.740000E+03	6.766734E-15	1.665425E-16
3.750000E+03	6.658438E-15	1.592820E-16
3.760000E+03	6.567337E-15	1.542885E-16
3.770000E+03	6.506640E-15	1.511239E-16
3.780000E+03	6.489030E-15	1.495871E-16
3.790000E+03	6.525630E-15	1.495978E-16
3.800000E+03	6.625967E-15	1.510010E-16
3.810000E+03	6.797804E-15	1.536381E-16
3.820000E+03	7.046130E-15	1.573708E-16
3.830000E+03	7.372856E-15	1.620250E-16
3.840000E+03	7.775727E-15	1.674688E-16
3.850000E+03	8.248032E-15	1.735865E-16
3.860000E+03	8.777469E-15	1.801526E-16
3.870000E+03	9.347068E-15	1.870199E-16
3.880000E+03	9.937332E-15	1.941217E-16
3.890000E+03	1.052893E-14	2.013057E-16
3.900000E+03	1.110446E-14	2.085492E-16
3.910000E+03	1.165035E-14	2.158320E-16
3.920000E+03	1.215725E-14	2.227220E-16
3.930000E+03	1.261947E-14	2.287491E-16
3.940000E+03	1.303352E-14	2.335974E-16
3.950000E+03	1.339524E-14	2.368517E-16
3.960000E+03	1.370058E-14	2.384165E-16
3.970000E+03	1.394402E-14	2.385438E-16
3.980000E+03	1.411993E-14	2.375414E-16
3.990000E+03	1.422416E-14	2.360683E-16
4.000000E+03	1.425586E-14	2.346564E-16
4.010000E+03	1.421923E-14	2.330462E-16
4.020000E+03	1.412356E-14	2.310032E-16
4.030000E+03	1.398252E-14	2.285338E-16
4.034211E+03	1.313644E-14	1.817037E-15
4.037816E+03	1.308740E-14	1.815423E-15
4.041421E+03	1.303683E-14	1.813805E-15
4.045027E+03	1.297871E-14	1.812096E-15
4.048632E+03	1.297857E-14	1.811236E-15
4.052237E+03	1.307195E-14	1.811706E-15
4.055842E+03	1.310975E-14	1.811371E-15
4.059447E+03	1.310219E-14	1.911944E-15
4.063052E+03	1.312521E-14	1.912295E-15
4.066657E+03	1.313375E-14	1.889320E-15
4.070262E+03	1.311712E-14	1.791831E-15
4.073868E+03	1.309128E-14	1.769735E-15
4.077473E+03	1.306694E-14	1.661416E-15
4.081078E+03	1.299767E-14	1.566160E-15
4.084683E+03	1.287910E-14	1.470992E-15
4.088288E+03	1.277980E-14	1.532641E-15
4.091893E+03	1.273655E-14	1.156959E-15
4.095498E+03	1.261188E-14	1.148450E-15
4.099104E+03	1.253724E-14	1.187705E-15
4.102709E+03	1.245323E-14	1.222852E-15
4.106314E+03	1.229986E-14	1.141477E-15
4.109919E+03	1.216576E-14	1.142845E-15
4.113524E+03	1.208139E-14	1.109301E-15
4.117129E+03	1.200875E-14	1.098600E-15
4.120734E+03	1.199716E-14	1.095948E-15
4.124339E+03	1.186795E-14	1.091282E-15
4.127945E+03	1.168896E-14	1.057424E-15
4.131550E+03	1.166314E-14	1.085285E-15
4.135155E+03	1.186908E-14	9.419472E-16
4.138760E+03	1.211030E-14	9.616130E-16
4.142365E+03	1.226420E-14	9.588361E-16
4.145970E+03	1.224846E-14	8.625359E-16
4.149575E+03	1.228548E-14	7.890415E-16
4.153181E+03	1.228553E-14	7.436726E-16
4.156786E+03	1.234696E-14	7.594492E-16
4.160391E+03	1.243960E-14	7.777621E-16
4.163996E+03	1.246828E-14	8.118144E-16
4.167601E+03	1.262379E-14	8.273166E-16
4.171206E+03	1.272816E-14	8.341313E-16
4.174811E+03	1.286586E-14	8.365643E-16
4.178416E+03	1.308967E-14	8.250500E-16
4.182021E+03	1.325933E-14	9.111188E-16
4.185627E+03	1.337317E-14	1.161198E-15
4.189232E+03	1.335033E-14	1.192251E-15
4.192837E+03	1.339218E-14	1.188794E-15
4.196442E+03	1.347852E-14	1.182525E-15
4.200047E+03	1.355369E-14	1.190648E-15
4.203652E+03	1.369642E-14	1.175737E-15
4.207257E+03	1.381183E-14	1.171601E-15
4.210863E+03	1.392663E-14	1.200028E-15
4.214468E+03	1.407264E-14	1.208291E-15
4.218073E+03	1.411846E-14	1.235689E-15
4.221678E+03	1.415581E-14	1.247287E-15
4.225283E+03	1.423977E-14	1.259476E-15
4.228888E+03	1.429760E-14	1.230149E-15
4.232493E+03	1.427667E-14	9.549844E-16
4.236099E+03	1.425798E-14	1.012588E-15
4.239704E+03	1.434382E-14	9.904907E-16
4.243309E+03	1.449964E-14	1.010491E-15
4.246914E+03	1.454214E-14	9.932235E-16
4.250519E+03	1.462792E-14	9.935463E-16
4.254124E+03	1.476422E-14	1.054674E-15
4.257729E+03	1.492449E-14	9.628293E-16
4.261334E+03	1.506104E-14	9.935762E-16
4.264940E+03	1.518249E-14	1.027242E-15
4.268545E+03	1.531809E-14	1.105779E-15
4.272150E+03	1.544160E-14	1.065460E-15
4.275755E+03	1.556207E-14	1.021995E-15
4.279360E+03	1.564932E-14	1.030778E-15
4.282965E+03	1.578784E-14	9.587972E-16
4.286570E+03	1.599270E-14	9.641932E-16
4.290175E+03	1.606328E-14	9.860336E-16
4.293780E+03	1.623640E-14	9.885242E-16
4.297386E+03	1.641251E-14	1.005288E-15
4.300991E+03	1.645585E-14	8.869248E-16
4.304596E+03	1.650369E-14	9.899350E-16
4.308201E+03	1.650927E-14	9.840051E-16
4.311806E+03	1.643187E-14	1.046280E-15
4.315411E+03	1.635898E-14	9.672063E-16
4.319016E+03	1.628305E-14	9.958979E-16
4.322622E+03	1.621313E-14	1.002104E-15
4.326227E+03	1.620502E-14	9.863998E-16
4.329832E+03	1.616070E-14	9.670530E-16
4.333437E+03	1.605754E-14	1.004571E-15
4.337042E+03	1.591516E-14	9.633043E-16
4.340647E+03	1.577729E-14	1.011542E-15
4.344252E+03	1.566051E-14	1.169588E-15
4.347858E+03	1.560704E-14	1.178864E-15
4.351463E+03	1.556712E-14	1.094910E-15
4.355068E+03	1.559652E-14	1.112888E-15
4.358673E+03	1.566809E-14	1.020818E-15
4.362278E+03	1.575169E-14	1.020053E-15
4.365883E+03	1.583827E-14	9.961814E-16
4.369488E+03	1.591426E-14	9.896419E-16
4.373093E+03	1.608215E-14	9.837495E-16
4.376699E+03	1.627561E-14	9.732655E-16
4.380304E+03	1.641779E-14	9.812488E-16
4.383909E+03	1.660211E-14	9.698313E-16
4.387514E+03	1.681349E-14	9.266355E-16
4.391119E+03	1.705194E-14	6.916067E-16
4.394724E+03	1.730840E-14	6.897736E-16
4.398329E+03	1.751810E-14	6.855258E-16
4.401934E+03	1.775635E-14	6.568340E-16
4.405540E+03	1.814064E-14	7.062843E-16
4.409145E+03	1.844953E-14	7.090048E-16
4.412750E+03	1.864389E-14	7.182923E-16
4.416355E+03	1.890294E-14	7.177622E-16
4.419960E+03	1.929441E-14	6.995865E-16
4.423565E+03	1.963609E-14	7.127196E-16
4.427170E+03	1.990091E-14	6.446913E-16
4.430775E+03	2.015509E-14	6.449267E-16
4.434381E+03	2.037307E-14	6.655367E-16
4.437986E+03	2.060151E-14	6.242640E-16
4.441591E+03	2.087351E-14	6.373904E-16
4.445196E+03	2.131696E-14	5.911136E-16
4.448801E+03	2.169107E-14	5.919448E-16
4.452406E+03	2.195373E-14	5.125787E-16
4.456011E+03	2.230354E-14	5.167203E-16
4.459617E+03	2.263368E-14	5.800076E-16
4.463222E+03	2.299229E-14	5.827508E-16
4.466827E+03	2.332671E-14	6.249040E-16
4.470432E+03	2.370461E-14	6.612668E-16
4.474037E+03	2.399969E-14	6.945041E-16
4.477642E+03	2.429164E-14	7.620928E-16
4.481247E+03	2.454589E-14	7.321198E-16
4.484852E+03	2.492629E-14	7.373337E-16
4.488458E+03	2.532307E-14	7.460438E-16
4.492063E+03	2.568213E-14	7.557341E-16
4.495668E+03	2.603654E-14	8.588998E-16
4.499273E+03	2.644189E-14	8.593939E-16
4.502878E+03	2.682754E-14	9.097375E-16
4.506483E+03	2.709438E-14	8.582992E-16
4.510088E+03	2.737761E-14	8.557175E-16
4.513694E+03	2.771926E-14	8.367817E-16
4.517299E+03	2.803523E-14	8.241649E-16
4.520904E+03	2.835104E-14	8.459575E-16
4.524509E+03	2.867121E-14	1.002652E-15
4.528114E+03	2.898971E-14	1.007700E-15
4.531719E+03	2.927955E-14	1.061166E-15
4.535324E+03	2.957372E-14	1.190540E-15
4.538929E+03	2.986474E-14	1.194066E-15
4.542534E+03	3.012860E-14	1.122574E-15
4.546140E+03	3.040731E-14	1.126384E-15
4.549745E+03	3.069484E-14	1.092922E-15
4.553350E+03	3.096422E-14	1.093289E-15
4.556955E+03	3.124392E-14	1.122068E-15
4.560560E+03	3.147101E-14	1.116900E-15
4.564165E+03	3.168595E-14	1.110009E-15
4.567770E+03	3.188126E-14	1.075396E-15
4.571376E+03	3.213184E-14	8.403190E-16
4.574981E+03	3.226994E-14	8.474746E-16
4.578586E+03	3.228962E-14	7.964188E-16
4.582191E+03	3.232268E-14	6.052147E-16
4.585796E+03	3.239456E-14	5.737739E-16
4.589401E+03	3.248130E-14	6.245390E-16
4.593006E+03	3.253949E-14	6.223867E-16
4.596611E+03	3.260954E-14	6.355785E-16
4.600217E+03	3.262564E-14	6.676409E-16
4.603822E+03	3.254596E-14	6.138435E-16
4.607427E+03	3.251855E-14	6.138449E-16
4.611032E+03	3.244473E-14	6.061714E-16
4.614637E+03	3.234247E-14	6.272241E-16
4.618242E+03	3.215651E-14	6.613656E-16
4.621847E+03	3.189585E-14	6.599907E-16
4.625453E+03	3.147991E-14	7.120788E-16
4.629058E+03	3.112529E-14	7.094861E-16
4.632663E+03	3.086628E-14	7.426071E-16
4.636268E+03	3.066999E-14	7.830705E-16
4.639873E+03	3.037374E-14	7.996822E-16
4.643478E+03	2.998804E-14	7.874304E-16
4.647083E+03	2.964868E-14	7.605361E-16
4.650688E+03	2.935414E-14	7.766415E-16
4.654293E+03	2.902836E-14	7.774344E-16
4.657899E+03	2.868477E-14	7.906164E-16
4.661504E+03	2.841876E-14	7.746429E-16
4.665109E+03	2.821091E-14	7.695985E-16
4.668714E+03	2.795096E-14	7.898813E-16
4.672319E+03	2.766130E-14	7.478248E-16
4.675924E+03	2.740744E-14	7.208341E-16
4.679529E+03	2.714620E-14	7.232109E-16
4.683135E+03	2.690586E-14	7.017649E-16
4.686740E+03	2.664921E-14	6.999170E-16
4.690345E+03	2.642536E-14	8.173499E-16
4.693950E+03	2.617776E-14	8.398359E-16
4.697555E+03	2.597781E-14	9.414285E-16
4.701160E+03	2.585368E-14	9.533873E-16
4.704765E+03	2.577264E-14	9.380997E-16
4.708370E+03	2.568417E-14	9.678336E-16
4.711976E+03	2.559865E-14	9.728888E-16
4.715581E+03	2.549086E-14	9.507782E-16
4.719186E+03	2.539049E-14	9.779970E-16
4.722791E+03	2.531386E-14	9.993363E-16
4.726396E+03	2.518085E-14	9.793447E-16
4.730001E+03	2.506863E-14	9.472620E-16
4.733606E+03	2.499050E-14	9.386858E-16
4.737212E+03	2.491978E-14	8.903670E-16
4.740817E+03	2.482831E-14	8.764705E-16
4.744422E+03	2.472794E-14	7.603732E-16
4.748027E+03	2.462907E-14	7.672256E-16
4.751632E+03	2.456720E-14	8.135472E-16
4.755237E+03	2.451864E-14	7.914838E-16
4.758842E+03	2.451741E-14	7.433521E-16
4.762447E+03	2.448654E-14	7.462862E-16
4.766053E+03	2.443789E-14	7.344646E-16
4.769658E+03	2.440993E-14	7.316473E-16
4.773263E+03	2.440852E-14	7.331618E-16
4.776868E+03	2.442480E-14	7.164578E-16
4.780473E+03	2.450895E-14	7.204116E-16
4.784078E+03	2.462400E-14	6.896543E-16
4.787683E+03	2.470794E-14	7.259791E-16
4.791288E+03	2.472096E-14	7.430505E-16
4.794894E+03	2.473245E-14	7.304661E-16
4.798499E+03	2.481909E-14	6.893908E-16
4.802104E+03	2.487466E-14	6.748764E-16
4.805709E+03	2.497289E-14	6.694956E-16
4.809314E+03	2.514614E-14	6.720974E-16
4.812919E+03	2.535457E-14	6.564594E-16
4.816524E+03	2.553338E-14	6.298564E-16
4.820130E+03	2.566051E-14	6.460211E-16
4.823735E+03	2.576397E-14	6.481488E-16
4.827340E+03	2.584820E-14	6.416190E-16
4.830945E+03	2.589704E-14	6.045734E-16
4.834550E+03	2.597078E-14	5.596107E-16
4.838155E+03	2.592395E-14	5.477577E-16
4.841760E+03	2.585654E-14	5.588965E-16
4.845365E+03	2.582142E-14	5.641663E-16
4.848971E+03	2.580830E-14	5.710881E-16
4.852576E+03	2.584063E-14	5.960823E-16
4.856181E+03	2.587143E-14	7.320955E-16
4.859786E+03	2.586550E-14	7.757953E-16
4.863391E+03	2.588884E-14	7.791675E-16
4.866996E+03	2.593703E-14	7.837841E-16
4.870601E+03	2.599686E-14	7.939129E-16
4.874207E+03	2.605221E-14	8.260942E-16
4.877812E+03	2.612504E-14	8.770151E-16
4.881417E+03	2.621826E-14	8.817768E-16
4.885022E+03	2.624555E-14	8.997657E-16
4.888627E+03	2.619381E-14	9.290844E-16
4.892232E+03	2.615522E-14	9.287881E-16
4.895837E+03	2.618236E-14	9.444082E-16
4.899442E+03	2.620360E-14	9.377788E-16
4.903047E+03	2.615031E-14	8.544593E-16
4.906653E+03	2.616416E-14	8.119973E-16
4.910258E+03	2.626403E-14	8.356665E-16
4.913863E+03	2.629087E-14	8.688884E-16
4.917468E+03	2.629722E-14	8.741158E-16
4.921073E+03	2.630791E-14	8.472518E-16
4.924678E+03	2.633311E-14	7.857534E-16
4.928283E+03	2.635096E-14	7.887696E-16
4.931889E+03	2.635420E-14	8.005189E-16
4.935494E+03	2.637341E-14	8.459492E-16
4.939099E+03	2.637219E-14	9.338846E-16
4.942704E+03	2.629822E-14	9.186847E-16
4.946309E+03	2.621264E-14	9.229289E-16
4.949914E+03	2.610383E-14	9.012024E-16
4.953519E+03	2.601104E-14	8.840305E-16
4.957124E+03	2.596184E-14	1.017585E-15
4.960730E+03	2.591989E-14	1.062261E-15
4.964335E+03	2.586778E-14	1.084583E-15
4.967940E+03	2.582727E-14	1.083051E-15
4.971545E+03	2.579980E-14	1.083269E-15
4.975150E+03	2.572304E-14	1.087773E-15
4.978755E+03	2.561009E-14	1.073177E-15
4.982360E+03	2.552035E-14	1.001881E-15
4.985966E+03	2.541183E-14	9.104090E-16
4.989571E+03	2.525562E-14	9.481591E-16
4.993176E+03	2.511973E-14	9.752731E-16
4.996781E+03	2.500850E-14	9.677240E-16
5.000386E+03	2.490743E-14	9.586902E-16
5.003991E+03	2.484829E-14	8.130243E-16
5.007596E+03	2.479783E-14	7.122125E-16
5.011201E+03	2.477480E-14	6.714526E-16
5.014806E+03	2.479503E-14	6.741458E-16
5.018412E+03	2.482530E-14	6.867262E-16
5.022017E+03	2.487714E-14	6.803866E-16
5.025622E+03	2.495627E-14	6.879202E-16
5.029227E+03	2.505979E-14	6.867091E-16
5.032832E+03	2.515743E-14	6.765924E-16
5.036437E+03	2.519307E-14	6.482588E-16
5.040042E+03	2.520994E-14	6.133956E-16
5.043648E+03	2.528428E-14	6.147057E-16
5.047253E+03	2.538584E-14	6.161728E-16
5.050858E+03	2.544129E-14	6.166136E-16
5.054463E+03	2.552251E-14	6.178724E-16
5.058068E+03	2.571705E-14	6.188925E-16
5.061673E+03	2.591425E-14	6.144341E-16
5.065278E+03	2.602088E-14	6.019635E-16
5.068883E+03	2.613599E-14	6.027962E-16
5.072489E+03	2.628966E-14	5.941079E-16
5.076094E+03	2.648041E-14	5.977032E-16
5.079699E+03	2.671106E-14	6.045323E-16
5.083304E+03	2.692859E-14	6.175606E-16
5.086909E+03	2.717450E-14	6.431876E-16
5.090514E+03	2.741016E-14	6.465322E-16
5.094119E+03	2.762414E-14	6.496063E-16
5.097725E+03	2.784933E-14	6.507112E-16
5.101330E+03	2.805714E-14	6.520182E-16
5.104935E+03	2.825332E-14	6.707970E-16
5.108540E+03	2.844500E-14	6.785872E-16
5.112145E+03	2.861794E-14	6.941410E-16
5.115750E+03	2.877929E-14	6.966345E-16
5.119355E+03	2.899603E-14	6.936294E-16
5.122960E+03	2.922109E-14	7.091633E-16
5.126566E+03	2.939466E-14	7.135426E-16
5.130171E+03	2.955807E-14	7.142534E-16
5.133776E+03	2.972415E-14	6.986185E-16
5.137381E+03	2.987866E-14	7.037667E-16
5.140986E+03	3.001879E-14	7.140974E-16
5.144591E+03	3.014312E-14	7.181076E-16
5.148196E+03	3.026589E-14	7.295204E-16
5.151801E+03	3.040554E-14	7.206459E-16
5.155407E+03	3.055779E-14	7.176742E-16
5.159012E+03	3.068860E-14	7.039689E-16
5.162617E+03	3.081926E-14	7.128225E-16
5.166222E+03	3.096534E-14	7.139440E-16
5.169827E+03	3.108434E-14	7.455562E-16
5.173432E+03	3.123434E-14	7.421093E-16
5.177037E+03	3.140963E-14	7.453874E-16
5.180642E+03	3.156493E-14	7.446485E-16
5.184248E+03	3.169460E-14	7.382884E-16
5.187853E+03	3.184389E-14	7.244768E-16
5.191458E+03	3.201279E-14	7.228899E-16
5.195063E+03	3.217866E-14	7.157052E-16
5.198668E+03	3.237115E-14	7.115021E-16
5.202273E+03	3.257048E-14	7.156929E-16
5.205878E+03	3.279214E-14	7.129750E-16
5.209484E+03	3.299523E-14	6.997922E-16
5.213089E+03	3.319810E-14	7.007745E-16
5.216694E+03	3.340919E-14	6.573730E-16
5.220299E+03	3.362567E-14	6.591917E-16
5.223904E+03	3.387285E-14	6.550402E-16
5.227509E+03	3.410851E-14	6.530125E-16
5.231114E+03	3.435234E-14	6.792433E-16
5.234720E+03	3.459029E-14	6.781314E-16
5.238325E+03	3.485745E-14	6.935529E-16
5.241930E+03	3.514256E-14	6.940184E-16
5.245535E+03	3.539510E-14	6.927683E-16
5.249140E+03	3.564036E-14	6.962446E-16
5.252745E+03	3.589795E-14	6.935997E-16
5.256350E+03	3.615946E-14	6.935219E-16
5.259955E+03	3.640809E-14	6.968543E-16
5.263560E+03	3.662146E-14	6.990160E-16
5.267166E+03	3.682620E-14	6.918140E-16
5.270771E+03	3.705866E-14	6.899187E-16
5.274376E+03	3.726850E-14	6.926519E-16
5.277981E+03	3.744598E-14	6.806703E-16
5.281586E+03	3.760093E-14	6.789004E-16
5.285191E+03	3.774871E-14	6.599074E-16
5.288796E+03	3.786145E-14	6.559383E-16
5.292401E+03	3.794200E-14	6.529429E-16
5.296007E+03	3.802242E-14	6.342049E-16
5.299612E+03	3.809855E-14	6.407882E-16
5.303217E+03	3.817040E-14	6.576009E-16
5.306822E+03	3.826021E-14	6.552771E-16
5.310427E+03	3.835268E-14	6.478380E-16
5.314032E+03	3.842974E-14	6.436423E-16
5.317637E+03	3.849141E-14	6.380641E-16
5.321243E+03	3.855298E-14	6.282446E-16
5.324848E+03	3.864913E-14	6.033356E-16
5.328453E+03	3.872713E-14	5.942414E-16
5.332058E+03	3.876759E-14	5.940534E-16
5.335663E+03	3.885507E-14	5.949884E-16
5.339268E+03	3.896874E-14	6.148469E-16
5.342873E+03	3.905597E-14	6.128728E-16
5.346479E+03	3.915552E-14	6.041543E-16
5.350084E+03	3.930333E-14	5.770617E-16
5.353689E+03	3.943990E-14	5.647142E-16
5.357294E+03	3.954314E-14	5.740246E-16
5.360899E+03	3.965867E-14	5.699692E-16
5.364504E+03	3.981407E-14	5.753014E-16
5.368109E+03	3.995962E-14	5.695326E-16
5.371714E+03	4.011463E-14	5.693498E-16
5.375319E+03	4.026533E-14	5.660683E-16
