#wls	flux	fluxerr
1.600000E+03	4.519967E-17	5.801232E-17
1.640000E+03	4.243524E-17	5.361944E-17
1.680000E+03	3.986612E-17	4.954750E-17
1.720000E+03	3.748969E-17	4.578933E-17
1.760000E+03	3.530289E-17	4.233667E-17
1.800000E+03	3.330233E-17	3.918038E-17
1.840000E+03	3.148753E-17	3.631419E-17
1.880000E+03	2.985432E-17	3.372702E-17
1.920000E+03	2.839613E-17	3.140483E-17
1.960000E+03	2.711509E-17	2.934305E-17
2.000000E+03	2.600792E-17	2.753073E-17
2.040000E+03	2.507004E-17	2.595546E-17
2.080000E+03	2.430483E-17	2.461315E-17
2.120000E+03	2.370992E-17	2.349351E-17
2.160000E+03	2.329070E-17	2.259398E-17
2.200000E+03	2.304772E-17	2.190705E-17
2.240000E+03	2.298710E-17	2.143042E-17
2.280000E+03	2.311427E-17	2.116090E-17
2.320000E+03	2.343945E-17	2.109926E-17
2.360000E+03	2.396752E-17	2.124097E-17
2.400000E+03	2.470646E-17	2.158374E-17
2.440000E+03	2.566403E-17	2.212436E-17
2.480000E+03	2.683819E-17	2.285040E-17
2.520000E+03	2.822430E-17	2.374664E-17
2.560000E+03	2.980919E-17	2.479001E-17
2.600000E+03	3.157157E-17	2.595035E-17
2.640000E+03	3.347293E-17	2.718329E-17
2.680000E+03	3.547429E-17	2.844466E-17
2.720000E+03	3.752228E-17	2.967969E-17
2.760000E+03	3.957143E-17	3.084159E-17
2.800000E+03	4.158564E-17	3.189264E-17
2.840000E+03	4.354142E-17	3.280662E-17
2.880000E+03	4.544602E-17	3.358185E-17
2.920000E+03	4.733926E-17	3.424066E-17
2.960000E+03	4.929382E-17	3.482715E-17
3.000000E+03	5.143492E-17	3.541776E-17
3.010000E+03	5.201663E-17	3.557603E-17
3.020000E+03	5.262720E-17	3.574488E-17
3.030000E+03	5.326457E-17	3.592243E-17
3.040000E+03	5.393535E-17	3.611265E-17
3.050000E+03	5.464365E-17	3.631774E-17
3.060000E+03	5.539109E-17	3.653814E-17
3.070000E+03	5.618822E-17	3.678013E-17
3.080000E+03	5.703743E-17	3.704447E-17
3.090000E+03	5.794148E-17	3.733209E-17
3.100000E+03	5.891235E-17	3.764976E-17
3.110000E+03	5.995084E-17	3.799693E-17
3.120000E+03	6.107016E-17	3.838078E-17
3.130000E+03	6.227524E-17	3.880308E-17
3.140000E+03	6.357467E-17	3.926775E-17
3.150000E+03	6.497782E-17	3.977896E-17
3.160000E+03	6.649809E-17	4.034315E-17
3.170000E+03	6.814030E-17	4.096127E-17
3.180000E+03	6.992308E-17	4.164241E-17
3.190000E+03	7.185657E-17	4.239021E-17
3.200000E+03	7.395883E-17	4.321269E-17
3.210000E+03	7.624259E-17	4.411440E-17
3.220000E+03	7.872540E-17	4.510234E-17
3.230000E+03	8.143023E-17	4.618617E-17
3.240000E+03	8.437475E-17	4.737208E-17
3.250000E+03	8.758611E-17	4.867107E-17
3.260000E+03	9.109019E-17	5.009286E-17
3.270000E+03	9.491127E-17	5.164567E-17
3.280000E+03	9.908017E-17	5.334071E-17
3.290000E+03	1.036396E-16	5.519479E-17
3.300000E+03	1.086184E-16	5.721645E-17
3.310000E+03	1.140573E-16	5.941971E-17
3.320000E+03	1.200107E-16	6.182485E-17
3.330000E+03	1.265181E-16	6.444316E-17
3.340000E+03	1.336437E-16	6.729753E-17
3.350000E+03	1.414353E-16	7.040124E-17
3.360000E+03	1.499618E-16	7.377692E-17
3.370000E+03	1.592925E-16	7.744572E-17
3.380000E+03	1.695018E-16	8.142989E-17
3.390000E+03	1.806776E-16	8.575620E-17
3.400000E+03	1.928923E-16	9.044239E-17
3.410000E+03	2.062452E-16	9.551695E-17
3.420000E+03	2.208430E-16	1.010097E-16
3.430000E+03	2.367827E-16	1.069436E-16
3.440000E+03	2.541743E-16	1.133454E-16
3.450000E+03	2.731431E-16	1.202461E-16
3.460000E+03	2.938003E-16	1.276681E-16
3.470000E+03	3.162702E-16	1.356367E-16
3.480000E+03	3.406927E-16	1.441813E-16
3.490000E+03	3.671869E-16	1.533197E-16
3.500000E+03	3.958984E-16	1.630778E-16
3.510000E+03	4.269464E-16	1.734677E-16
3.520000E+03	4.604775E-16	1.845098E-16
3.530000E+03	4.966228E-16	1.962153E-16
3.540000E+03	5.354916E-16	2.085837E-16
3.550000E+03	5.772230E-16	2.216234E-16
3.560000E+03	6.219336E-16	2.353309E-16
3.570000E+03	6.697329E-16	2.496974E-16
3.580000E+03	7.207225E-16	2.647082E-16
3.590000E+03	7.749697E-16	2.803336E-16
3.600000E+03	8.325797E-16	2.965554E-16
3.610000E+03	8.936548E-16	3.133516E-16
3.620000E+03	9.582025E-16	3.306650E-16
3.630000E+03	1.026336E-15	3.484739E-16
3.640000E+03	1.098037E-15	3.667101E-16
3.650000E+03	1.173406E-15	3.853457E-16
3.660000E+03	1.252438E-15	4.043168E-16
3.670000E+03	1.335149E-15	4.235686E-16
3.680000E+03	1.421546E-15	4.430456E-16
3.690000E+03	1.511628E-15	4.626923E-16
3.700000E+03	1.605426E-15	4.824690E-16
3.710000E+03	1.702874E-15	5.023105E-16
3.720000E+03	1.803929E-15	5.221683E-16
3.730000E+03	1.908584E-15	5.420132E-16
3.740000E+03	2.016707E-15	5.617907E-16
3.750000E+03	2.128186E-15	5.814660E-16
3.760000E+03	2.242876E-15	6.010097E-16
3.770000E+03	2.360721E-15	6.204313E-16
3.780000E+03	2.481301E-15	6.396609E-16
3.790000E+03	2.604463E-15	6.587167E-16
3.800000E+03	2.729795E-15	6.775675E-16
3.810000E+03	2.856961E-15	6.962179E-16
3.820000E+03	2.985410E-15	7.146348E-16
3.830000E+03	3.114592E-15	7.327987E-16
3.840000E+03	3.243967E-15	7.507027E-16
3.850000E+03	3.372857E-15	7.683128E-16
3.860000E+03	3.500348E-15	7.855443E-16
3.870000E+03	3.625911E-15	8.023981E-16
3.880000E+03	3.748458E-15	8.187438E-16
3.890000E+03	3.867328E-15	8.345369E-16
3.900000E+03	3.981594E-15	8.496617E-16
3.910000E+03	4.090536E-15	8.640335E-16
3.920000E+03	4.193291E-15	8.775205E-16
3.930000E+03	4.289150E-15	8.900088E-16
3.940000E+03	4.377592E-15	9.014077E-16
3.950000E+03	4.457994E-15	9.115912E-16
3.960000E+03	4.529948E-15	9.204653E-16
3.970000E+03	4.593167E-15	9.279506E-16
3.980000E+03	4.647498E-15	9.339863E-16
3.990000E+03	4.693021E-15	9.385525E-16
4.000000E+03	4.729645E-15	9.415900E-16
4.010000E+03	4.757812E-15	9.431446E-16
4.020000E+03	4.777680E-15	9.432032E-16
4.030000E+03	4.789920E-15	9.418552E-16
4.040000E+03	4.794893E-15	9.391297E-16
4.050000E+03	4.793346E-15	9.351329E-16
4.060000E+03	4.785986E-15	9.299659E-16
4.070000E+03	4.773473E-15	9.237225E-16
4.080000E+03	4.756691E-15	9.165434E-16
4.090000E+03	4.736442E-15	9.085555E-16
4.100000E+03	4.713436E-15	8.998709E-16
4.110000E+03	4.688560E-15	8.906382E-16
4.120000E+03	4.662496E-15	8.809688E-16
4.130000E+03	4.635991E-15	8.709885E-16
4.140000E+03	4.609757E-15	8.608181E-16
4.150000E+03	4.584463E-15	8.505715E-16
4.160000E+03	4.560740E-15	8.403556E-16
4.170000E+03	4.539168E-15	8.302686E-16
4.180000E+03	4.520284E-15	8.204000E-16
4.190000E+03	4.504497E-15	8.108151E-16
4.200000E+03	4.492330E-15	8.015996E-16
4.210000E+03	4.484178E-15	7.928141E-16
4.220000E+03	4.480234E-15	7.844830E-16
4.230000E+03	4.480959E-15	7.766783E-16
4.240000E+03	4.486533E-15	7.694235E-16
4.250000E+03	4.497168E-15	7.627520E-16
4.260000E+03	4.513031E-15	7.566951E-16
4.270000E+03	4.534165E-15	7.512738E-16
4.280000E+03	4.560718E-15	7.465405E-16
4.290000E+03	4.592636E-15	7.425330E-16
4.300000E+03	4.629963E-15	7.393283E-16
4.310000E+03	4.672542E-15	7.369975E-16
4.320000E+03	4.720242E-15	7.356437E-16
4.330000E+03	4.772808E-15	7.353784E-16
4.340000E+03	4.830092E-15	7.363523E-16
4.350000E+03	4.891841E-15	7.387126E-16
4.360000E+03	4.957696E-15	7.425927E-16
4.370000E+03	5.027441E-15	7.481317E-16
4.380000E+03	5.100617E-15	7.554023E-16
4.390000E+03	5.176996E-15	7.644645E-16
4.400000E+03	5.256262E-15	7.753088E-16
4.410000E+03	5.338087E-15	7.878618E-16
4.420000E+03	5.421948E-15	8.019627E-16
4.430000E+03	5.507582E-15	8.174385E-16
4.440000E+03	5.594407E-15	8.340326E-16
4.450000E+03	5.681816E-15	8.514620E-16
4.460000E+03	5.768997E-15	8.694063E-16
4.470000E+03	5.855162E-15	8.875551E-16
4.480000E+03	5.939230E-15	9.055690E-16
4.490000E+03	6.020078E-15	9.231250E-16
4.500000E+03	6.096487E-15	9.399119E-16
4.510000E+03	6.167097E-15	9.556238E-16
4.520000E+03	6.230705E-15	9.700046E-16
4.530000E+03	6.285981E-15	9.828026E-16
4.540000E+03	6.331778E-15	9.938141E-16
4.550000E+03	6.367102E-15	1.002875E-15
4.560000E+03	6.391163E-15	1.009865E-15
4.570000E+03	6.403338E-15	1.014698E-15
4.580000E+03	6.403366E-15	1.017347E-15
4.590000E+03	6.391288E-15	1.017835E-15
4.600000E+03	6.367448E-15	1.016231E-15
4.610000E+03	6.332486E-15	1.012648E-15
4.620000E+03	6.287229E-15	1.007226E-15
4.630000E+03	6.232823E-15	1.000150E-15
4.640000E+03	6.170592E-15	9.916343E-16
4.650000E+03	6.101993E-15	9.819112E-16
4.660000E+03	6.028549E-15	9.712233E-16
4.670000E+03	5.951720E-15	9.598042E-16
4.680000E+03	5.873071E-15	9.479053E-16
4.690000E+03	5.793924E-15	9.357413E-16
4.700000E+03	5.715473E-15	9.235078E-16
4.710000E+03	5.638954E-15	9.114096E-16
4.720000E+03	5.565143E-15	8.995787E-16
4.730000E+03	5.494759E-15	8.881398E-16
4.740000E+03	5.428390E-15	8.771973E-16
4.750000E+03	5.366298E-15	8.668053E-16
4.760000E+03	5.308633E-15	8.570011E-16
4.770000E+03	5.255383E-15	8.477971E-16
4.780000E+03	5.206392E-15	8.391846E-16
4.790000E+03	5.161328E-15	8.311278E-16
4.800000E+03	5.119942E-15	8.236060E-16
4.810000E+03	5.081626E-15	8.165416E-16
4.820000E+03	5.046090E-15	8.099084E-16
4.830000E+03	5.012686E-15	8.036227E-16
4.840000E+03	4.981134E-15	7.976594E-16
4.850000E+03	4.950861E-15	7.919452E-16
4.860000E+03	4.921652E-15	7.864625E-16
4.870000E+03	4.893270E-15	7.811880E-16
4.880000E+03	4.865536E-15	7.761054E-16
4.890000E+03	4.838441E-15	7.712233E-16
4.900000E+03	4.812149E-15	7.665750E-16
4.910000E+03	4.786884E-15	7.622004E-16
4.920000E+03	4.762926E-15	7.581444E-16
4.930000E+03	4.740694E-15	7.544707E-16
4.940000E+03	4.720730E-15	7.512578E-16
4.950000E+03	4.703577E-15	7.485788E-16
4.960000E+03	4.689801E-15	7.465060E-16
4.970000E+03	4.679929E-15	7.450988E-16
4.980000E+03	4.674621E-15	7.444328E-16
4.990000E+03	4.674301E-15	7.445407E-16
5.000000E+03	4.679542E-15	7.454742E-16
5.010000E+03	4.690646E-15	7.472383E-16
5.020000E+03	4.708032E-15	7.498539E-16
5.030000E+03	4.731925E-15	7.533097E-16
5.040000E+03	4.762399E-15	7.575697E-16
5.050000E+03	4.799521E-15	7.625982E-16
5.060000E+03	4.843146E-15	7.683283E-16
5.070000E+03	4.893128E-15	7.746957E-16
5.080000E+03	4.949217E-15	7.816250E-16
5.090000E+03	5.010917E-15	7.890065E-16
5.100000E+03	5.077857E-15	7.967563E-16
5.110000E+03	5.149442E-15	8.047601E-16
5.120000E+03	5.225124E-15	8.129162E-16
5.130000E+03	5.304266E-15	8.211118E-16
5.140000E+03	5.386144E-15	8.292225E-16
5.150000E+03	5.470128E-15	8.371378E-16
5.160000E+03	5.555586E-15	8.447435E-16
5.170000E+03	5.641768E-15	8.519030E-16
5.180000E+03	5.728045E-15	8.584902E-16
5.190000E+03	5.813670E-15	8.643537E-16
5.200000E+03	5.898021E-15	8.693508E-16
5.210000E+03	5.980412E-15	8.733206E-16
5.220000E+03	6.060154E-15	8.760926E-16
5.230000E+03	6.136553E-15	8.774884E-16
5.240000E+03	6.208969E-15	8.773316E-16
5.250000E+03	6.276634E-15	8.754235E-16
5.260000E+03	6.338910E-15	8.715825E-16
5.270000E+03	6.395106E-15	8.656198E-16
5.280000E+03	6.444625E-15	8.573613E-16
5.290000E+03	6.486714E-15	8.466154E-16
5.300000E+03	6.520946E-15	8.332375E-16
5.310000E+03	6.546777E-15	8.170715E-16
5.320000E+03	6.563967E-15	7.980029E-16
5.330000E+03	6.572127E-15	7.759015E-16
5.340000E+03	6.571205E-15	7.506810E-16
5.350000E+03	6.561228E-15	7.222670E-16
5.360000E+03	6.542446E-15	6.906135E-16
5.370000E+03	6.515128E-15	6.556830E-16
5.380000E+03	6.479828E-15	6.174774E-16
5.390000E+03	6.437163E-15	5.760188E-16
5.400000E+03	6.387865E-15	5.313606E-16
5.410000E+03	6.332680E-15	4.835880E-16
5.420000E+03	6.272577E-15	4.328464E-16
5.430000E+03	6.208316E-15	3.793303E-16
5.440000E+03	6.140707E-15	3.233483E-16
5.450000E+03	6.070309E-15	2.654068E-16
5.460000E+03	5.997634E-15	2.064910E-16
5.470000E+03	5.922889E-15	1.489037E-16
5.480000E+03	5.846241E-15	9.956402E-17
5.490000E+03	5.767763E-15	7.970223E-17
5.500000E+03	5.687421E-15	1.058835E-16
5.510000E+03	5.605508E-15	1.526565E-16
5.520000E+03	5.522361E-15	2.024647E-16
5.530000E+03	5.438088E-15	2.502424E-16
5.540000E+03	5.352942E-15	2.944694E-16
5.550000E+03	5.266958E-15	3.346764E-16
5.560000E+03	5.180217E-15	3.707911E-16
5.570000E+03	5.092793E-15	4.029144E-16
5.580000E+03	5.005009E-15	4.312500E-16
5.590000E+03	4.917160E-15	4.560434E-16
5.600000E+03	4.829786E-15	4.775828E-16
5.610000E+03	4.743382E-15	4.961596E-16
5.620000E+03	4.658860E-15	5.121091E-16
5.630000E+03	4.577043E-15	5.257563E-16
5.640000E+03	4.498870E-15	5.374348E-16
5.650000E+03	4.425267E-15	5.474712E-16
5.660000E+03	4.357239E-15	5.561968E-16
5.670000E+03	4.295662E-15	5.639217E-16
5.680000E+03	4.241429E-15	5.709520E-16
5.690000E+03	4.195252E-15	5.775642E-16
5.700000E+03	4.157819E-15	5.840242E-16
5.710000E+03	4.129615E-15	5.905618E-16
5.720000E+03	4.111043E-15	5.973852E-16
5.730000E+03	4.102375E-15	6.046741E-16
5.740000E+03	4.103758E-15	6.125780E-16
5.750000E+03	4.115205E-15	6.212153E-16
5.760000E+03	4.136601E-15	6.306726E-16
5.770000E+03	4.167694E-15	6.410040E-16
5.780000E+03	4.208054E-15	6.522246E-16
5.790000E+03	4.257152E-15	6.643230E-16
5.800000E+03	4.314359E-15	6.772619E-16
5.810000E+03	4.378824E-15	6.909600E-16
5.820000E+03	4.449605E-15	7.053131E-16
5.830000E+03	4.525690E-15	7.201978E-16
5.840000E+03	4.605838E-15	7.354473E-16
5.850000E+03	4.688876E-15	7.508987E-16
5.860000E+03	4.773507E-15	7.663642E-16
5.870000E+03	4.858590E-15	7.816747E-16
5.880000E+03	4.942799E-15	7.966281E-16
5.890000E+03	5.025148E-15	8.110722E-16
5.900000E+03	5.104694E-15	8.248601E-16
5.910000E+03	5.180569E-15	8.378555E-16
5.920000E+03	5.252256E-15	8.499782E-16
5.930000E+03	5.319409E-15	8.611768E-16
5.940000E+03	5.381913E-15	8.714382E-16
5.950000E+03	5.439884E-15	8.807880E-16
5.960000E+03	5.493606E-15	8.892798E-16
5.970000E+03	5.543623E-15	8.970091E-16
5.980000E+03	5.590716E-15	9.041083E-16
5.990000E+03	5.635717E-15	9.107151E-16
6.000000E+03	5.679577E-15	9.169822E-16
6.010000E+03	5.723506E-15	9.230979E-16
6.020000E+03	5.768594E-15	9.292256E-16
6.030000E+03	5.815944E-15	9.355236E-16
6.040000E+03	5.866740E-15	9.421575E-16
6.050000E+03	5.922044E-15	9.492677E-16
6.060000E+03	5.982753E-15	9.569647E-16
6.070000E+03	6.049687E-15	9.653433E-16
6.080000E+03	6.123495E-15	9.744701E-16
6.090000E+03	6.204692E-15	9.843906E-16
6.100000E+03	6.293398E-15	9.950878E-16
6.110000E+03	6.389735E-15	1.006547E-15
6.120000E+03	6.493390E-15	1.018689E-15
6.130000E+03	6.603783E-15	1.031391E-15
6.140000E+03	6.720191E-15	1.044513E-15
6.150000E+03	6.841559E-15	1.057863E-15
6.160000E+03	6.966506E-15	1.071201E-15
6.170000E+03	7.093549E-15	1.084272E-15
6.180000E+03	7.220938E-15	1.096781E-15
6.190000E+03	7.346692E-15	1.108399E-15
6.200000E+03	7.468873E-15	1.118804E-15
6.210000E+03	7.585442E-15	1.127662E-15
6.220000E+03	7.694319E-15	1.134636E-15
6.230000E+03	7.793684E-15	1.139427E-15
6.240000E+03	7.881820E-15	1.141757E-15
6.250000E+03	7.957159E-15	1.141369E-15
6.260000E+03	8.018642E-15	1.138086E-15
6.270000E+03	8.065195E-15	1.131725E-15
6.280000E+03	8.096370E-15	1.122194E-15
6.290000E+03	8.111702E-15	1.109398E-15
6.300000E+03	8.111331E-15	1.093322E-15
6.310000E+03	8.095490E-15	1.073959E-15
6.320000E+03	8.064474E-15	1.051311E-15
6.330000E+03	8.019079E-15	1.025436E-15
6.340000E+03	7.960084E-15	9.963922E-16
6.350000E+03	7.888294E-15	9.642341E-16
6.360000E+03	7.804747E-15	9.290473E-16
6.370000E+03	7.710451E-15	8.909142E-16
6.380000E+03	7.606440E-15	8.499245E-16
6.390000E+03	7.493764E-15	8.061767E-16
6.400000E+03	7.373484E-15	7.597789E-16
6.410000E+03	7.246741E-15	7.108581E-16
6.420000E+03	7.114534E-15	6.595396E-16
6.430000E+03	6.977947E-15	6.059721E-16
6.440000E+03	6.838135E-15	5.503282E-16
6.450000E+03	6.696172E-15	4.927954E-16
6.460000E+03	6.553104E-15	4.335921E-16
6.470000E+03	6.409860E-15	3.729828E-16
6.480000E+03	6.267488E-15	3.113366E-16
6.490000E+03	6.126662E-15	2.492091E-16
6.500000E+03	5.988172E-15	1.876763E-16
6.510000E+03	5.852489E-15	1.293767E-16
6.520000E+03	5.719727E-15	8.305640E-17
6.530000E+03	5.590088E-15	7.423550E-17
6.540000E+03	5.463492E-15	1.077809E-16
6.550000E+03	5.340059E-15	1.535602E-16
6.560000E+03	5.219880E-15	1.990403E-16
6.570000E+03	5.102720E-15	2.410804E-16
6.580000E+03	4.988269E-15	2.788495E-16
6.590000E+03	4.876366E-15	3.122171E-16
6.600000E+03	4.766720E-15	3.413013E-16
6.610000E+03	4.659151E-15	3.663323E-16
6.620000E+03	4.553547E-15	3.875915E-16
6.630000E+03	4.449970E-15	4.053929E-16
6.640000E+03	4.348325E-15	4.200401E-16
6.650000E+03	4.248875E-15	4.318641E-16
6.660000E+03	4.151711E-15	4.411698E-16
6.670000E+03	4.057113E-15	4.482670E-16
6.680000E+03	3.965346E-15	4.534484E-16
6.690000E+03	3.876696E-15	4.569914E-16
6.700000E+03	3.791451E-15	4.591556E-16
6.710000E+03	3.709889E-15	4.601812E-16
6.720000E+03	3.632311E-15	4.602931E-16
6.730000E+03	3.558911E-15	4.596860E-16
6.740000E+03	3.489892E-15	4.585391E-16
6.750000E+03	3.425465E-15	4.570175E-16
6.760000E+03	3.365768E-15	4.552630E-16
6.770000E+03	3.310872E-15	4.533959E-16
6.780000E+03	3.260897E-15	4.515309E-16
6.790000E+03	3.215901E-15	4.497643E-16
6.800000E+03	3.175921E-15	4.481794E-16
6.810000E+03	3.140973E-15	4.468482E-16
6.820000E+03	3.111054E-15	4.458316E-16
6.830000E+03	3.086141E-15	4.451800E-16
6.840000E+03	3.066221E-15	4.449388E-16
6.850000E+03	3.051185E-15	4.451335E-16
6.860000E+03	3.040931E-15	4.457848E-16
6.870000E+03	3.035355E-15	4.469093E-16
6.880000E+03	3.034255E-15	4.485046E-16
6.890000E+03	3.037462E-15	4.505709E-16
6.900000E+03	3.044748E-15	4.530966E-16
6.910000E+03	3.055825E-15	4.560596E-16
6.920000E+03	3.070463E-15	4.594448E-16
6.930000E+03	3.088392E-15	4.632304E-16
6.940000E+03	3.109390E-15	4.674001E-16
6.950000E+03	3.133145E-15	4.719232E-16
6.960000E+03	3.159483E-15	4.767881E-16
6.970000E+03	3.188229E-15	4.819823E-16
6.980000E+03	3.219286E-15	4.875029E-16
6.990000E+03	3.252519E-15	4.933402E-16
7.000000E+03	3.287866E-15	4.994935E-16
7.010000E+03	3.325329E-15	5.059706E-16
7.020000E+03	3.364852E-15	5.127683E-16
7.030000E+03	3.406459E-15	5.198949E-16
7.040000E+03	3.450093E-15	5.273442E-16
7.050000E+03	3.495760E-15	5.351183E-16
7.060000E+03	3.543357E-15	5.432016E-16
7.070000E+03	3.592875E-15	5.515912E-16
7.080000E+03	3.644092E-15	5.602504E-16
7.090000E+03	3.696865E-15	5.691541E-16
7.100000E+03	3.750956E-15	5.782614E-16
7.110000E+03	3.806022E-15	5.875150E-16
7.120000E+03	3.861799E-15	5.968691E-16
7.130000E+03	3.917822E-15	6.062473E-16
7.140000E+03	3.973608E-15	6.155707E-16
7.150000E+03	4.028614E-15	6.247517E-16
7.160000E+03	4.082241E-15	6.336951E-16
7.170000E+03	4.133889E-15	6.423070E-16
7.180000E+03	4.182767E-15	6.504657E-16
7.190000E+03	4.228258E-15	6.580786E-16
7.200000E+03	4.269581E-15	6.650296E-16
7.210000E+03	4.306062E-15	6.712215E-16
7.220000E+03	4.336947E-15	6.765467E-16
7.230000E+03	4.361581E-15	6.809144E-16
7.240000E+03	4.379432E-15	6.842541E-16
7.250000E+03	4.390002E-15	6.865008E-16
7.260000E+03	4.392845E-15	6.875972E-16
7.270000E+03	4.387691E-15	6.875125E-16
7.280000E+03	4.374461E-15	6.862434E-16
7.290000E+03	4.353156E-15	6.837970E-16
7.300000E+03	4.323860E-15	6.801902E-16
7.310000E+03	4.286898E-15	6.754747E-16
7.320000E+03	4.242659E-15	6.697094E-16
7.330000E+03	4.191587E-15	6.629584E-16
7.340000E+03	4.134323E-15	6.553147E-16
7.350000E+03	4.071527E-15	6.468721E-16
7.360000E+03	4.003917E-15	6.377321E-16
7.370000E+03	3.932203E-15	6.279935E-16
7.380000E+03	3.857225E-15	6.177749E-16
7.390000E+03	3.779787E-15	6.071886E-16
7.400000E+03	3.700648E-15	5.963395E-16
7.410000E+03	3.620705E-15	5.853543E-16
7.420000E+03	3.540649E-15	5.743261E-16
7.430000E+03	3.461289E-15	5.633672E-16
7.440000E+03	3.383312E-15	5.525704E-16
7.450000E+03	3.307461E-15	5.420377E-16
7.460000E+03	3.234389E-15	5.318582E-16
7.470000E+03	3.164708E-15	5.221152E-16
7.480000E+03	3.098942E-15	5.128794E-16
7.490000E+03	3.037653E-15	5.042298E-16
7.500000E+03	2.981270E-15	4.962262E-16
7.510000E+03	2.930254E-15	4.889361E-16
7.520000E+03	2.884977E-15	4.824144E-16
7.530000E+03	2.845682E-15	4.766971E-16
7.540000E+03	2.812752E-15	4.718457E-16
7.550000E+03	2.786291E-15	4.678761E-16
7.560000E+03	2.766532E-15	4.648283E-16
7.570000E+03	2.753580E-15	4.627205E-16
7.580000E+03	2.747404E-15	4.615495E-16
7.590000E+03	2.748059E-15	4.613265E-16
7.600000E+03	2.755422E-15	4.620324E-16
7.610000E+03	2.769342E-15	4.636423E-16
7.620000E+03	2.789632E-15	4.661239E-16
7.630000E+03	2.815923E-15	4.694118E-16
7.640000E+03	2.847887E-15	4.734447E-16
7.650000E+03	2.885134E-15	4.781467E-16
7.660000E+03	2.927096E-15	4.834085E-16
7.670000E+03	2.973275E-15	4.891275E-16
7.680000E+03	3.023101E-15	4.951846E-16
7.690000E+03	3.075983E-15	5.014534E-16
7.700000E+03	3.131336E-15	5.078041E-16
7.710000E+03	3.188547E-15	5.141000E-16
7.720000E+03	3.247128E-15	5.202216E-16
7.730000E+03	3.306602E-15	5.260492E-16
7.740000E+03	3.366510E-15	5.314638E-16
7.750000E+03	3.426554E-15	5.363703E-16
7.760000E+03	3.486424E-15	5.406678E-16
