#wls	flux	fluxerr
1.600000E+03	2.944613E-17	3.981046E-17
1.640000E+03	2.806160E-17	3.755088E-17
1.680000E+03	2.676999E-17	3.544174E-17
1.720000E+03	2.556764E-17	3.347703E-17
1.760000E+03	2.446070E-17	3.166342E-17
1.800000E+03	2.344805E-17	2.999767E-17
1.840000E+03	2.252601E-17	2.847317E-17
1.880000E+03	2.169671E-17	2.709050E-17
1.920000E+03	2.096177E-17	2.584930E-17
1.960000E+03	2.032029E-17	2.474584E-17
2.000000E+03	1.977168E-17	2.377659E-17
2.040000E+03	1.931775E-17	2.294078E-17
2.080000E+03	1.895837E-17	2.223506E-17
2.120000E+03	1.869382E-17	2.165648E-17
2.160000E+03	1.852854E-17	2.120665E-17
2.200000E+03	1.846156E-17	2.088072E-17
2.240000E+03	1.849781E-17	2.068034E-17
2.280000E+03	1.863716E-17	2.060118E-17
2.320000E+03	1.888499E-17	2.064473E-17
2.360000E+03	1.924166E-17	2.080661E-17
2.400000E+03	1.971435E-17	2.108942E-17
2.440000E+03	2.030348E-17	2.148795E-17
2.480000E+03	2.101102E-17	2.199825E-17
2.520000E+03	2.184401E-17	2.262099E-17
2.560000E+03	2.280458E-17	2.335107E-17
2.600000E+03	2.389549E-17	2.418325E-17
2.640000E+03	2.512437E-17	2.511648E-17
2.680000E+03	2.649985E-17	2.614958E-17
2.720000E+03	2.803489E-17	2.728446E-17
2.760000E+03	2.974717E-17	2.852605E-17
2.800000E+03	3.166765E-17	2.989002E-17
2.840000E+03	3.384068E-17	3.140168E-17
2.880000E+03	3.632219E-17	3.309308E-17
2.920000E+03	3.920218E-17	3.502177E-17
2.960000E+03	4.259352E-17	3.725756E-17
3.000000E+03	4.665489E-17	3.989935E-17
3.010000E+03	4.779749E-17	4.063685E-17
3.020000E+03	4.900147E-17	4.141221E-17
3.030000E+03	5.026592E-17	4.222361E-17
3.040000E+03	5.159792E-17	4.307588E-17
3.050000E+03	5.300511E-17	4.397415E-17
3.060000E+03	5.448737E-17	4.491701E-17
3.070000E+03	5.605590E-17	4.591228E-17
3.080000E+03	5.771126E-17	4.695890E-17
3.090000E+03	5.946577E-17	4.806528E-17
3.100000E+03	6.132377E-17	4.923313E-17
3.110000E+03	6.329605E-17	5.046920E-17
3.120000E+03	6.538485E-17	5.177323E-17
3.130000E+03	6.760538E-17	5.315508E-17
3.140000E+03	6.996425E-17	5.461754E-17
3.150000E+03	7.247532E-17	5.616887E-17
3.160000E+03	7.514664E-17	5.781253E-17
3.170000E+03	7.799039E-17	5.955490E-17
3.180000E+03	8.101968E-17	6.140282E-17
3.190000E+03	8.425247E-17	6.336643E-17
3.200000E+03	8.770435E-17	6.545367E-17
3.210000E+03	9.138809E-17	6.767003E-17
3.220000E+03	9.532560E-17	7.002739E-17
3.230000E+03	9.953206E-17	7.253220E-17
3.240000E+03	1.040325E-16	7.519765E-17
3.250000E+03	1.088449E-16	7.803125E-17
3.260000E+03	1.139977E-16	8.104763E-17
3.270000E+03	1.195172E-16	8.425895E-17
3.280000E+03	1.254259E-16	8.767446E-17
3.290000E+03	1.317642E-16	9.131491E-17
3.300000E+03	1.385535E-16	9.518724E-17
3.310000E+03	1.458335E-16	9.931017E-17
3.320000E+03	1.536346E-16	1.036954E-16
3.330000E+03	1.620080E-16	1.083676E-16
3.340000E+03	1.709830E-16	1.133358E-16
3.350000E+03	1.806169E-16	1.186266E-16
3.360000E+03	1.909432E-16	1.242499E-16
3.370000E+03	2.020261E-16	1.302345E-16
3.380000E+03	2.139031E-16	1.365907E-16
3.390000E+03	2.266457E-16	1.433491E-16
3.400000E+03	2.402958E-16	1.505205E-16
3.410000E+03	2.549321E-16	1.581372E-16
3.420000E+03	2.706101E-16	1.662156E-16
3.430000E+03	2.873968E-16	1.747776E-16
3.440000E+03	3.053724E-16	1.838518E-16
3.450000E+03	3.245990E-16	1.934538E-16
3.460000E+03	3.451508E-16	2.036050E-16
3.470000E+03	3.671038E-16	2.143263E-16
3.480000E+03	3.905489E-16	2.256454E-16
3.490000E+03	4.155531E-16	2.375744E-16
3.500000E+03	4.421961E-16	2.501310E-16
3.510000E+03	4.705733E-16	2.633401E-16
3.520000E+03	5.007669E-16	2.772172E-16
3.530000E+03	5.328409E-16	2.917661E-16
3.540000E+03	5.668723E-16	3.069965E-16
3.550000E+03	6.029551E-16	3.229259E-16
3.560000E+03	6.411634E-16	3.395594E-16
3.570000E+03	6.815464E-16	3.568877E-16
3.580000E+03	7.241883E-16	3.749194E-16
3.590000E+03	7.691482E-16	3.936489E-16
3.600000E+03	8.164535E-16	4.130539E-16
3.610000E+03	8.661703E-16	4.331320E-16
3.620000E+03	9.183327E-16	4.538646E-16
3.630000E+03	9.729645E-16	4.752283E-16
3.640000E+03	1.030047E-15	4.971805E-16
3.650000E+03	1.089639E-15	5.197169E-16
3.660000E+03	1.151663E-15	5.427700E-16
3.670000E+03	1.216119E-15	5.663118E-16
3.680000E+03	1.282959E-15	5.902950E-16
3.690000E+03	1.352083E-15	6.146506E-16
3.700000E+03	1.423481E-15	6.393562E-16
3.710000E+03	1.497016E-15	6.643349E-16
3.720000E+03	1.572526E-15	6.895044E-16
3.730000E+03	1.649908E-15	7.148149E-16
3.740000E+03	1.729048E-15	7.402161E-16
3.750000E+03	1.809676E-15	7.655968E-16
3.760000E+03	1.891635E-15	7.909020E-16
3.770000E+03	1.974707E-15	8.160559E-16
3.780000E+03	2.058655E-15	8.409822E-16
3.790000E+03	2.143224E-15	8.656044E-16
3.800000E+03	2.228147E-15	8.898466E-16
3.810000E+03	2.313141E-15	9.136337E-16
3.820000E+03	2.397914E-15	9.368923E-16
3.830000E+03	2.482166E-15	9.595512E-16
3.840000E+03	2.565529E-15	9.815189E-16
3.850000E+03	2.647819E-15	1.002777E-15
3.860000E+03	2.728604E-15	1.023217E-15
3.870000E+03	2.807647E-15	1.042805E-15
3.880000E+03	2.884657E-15	1.061490E-15
3.890000E+03	2.959354E-15	1.079226E-15
3.900000E+03	3.031478E-15	1.095970E-15
3.910000E+03	3.100717E-15	1.111664E-15
3.920000E+03	3.166920E-15	1.126303E-15
3.930000E+03	3.229895E-15	1.139865E-15
3.940000E+03	3.289480E-15	1.152335E-15
3.950000E+03	3.345473E-15	1.163680E-15
3.960000E+03	3.397845E-15	1.173922E-15
3.970000E+03	3.446462E-15	1.183044E-15
3.980000E+03	3.491367E-15	1.191083E-15
3.990000E+03	3.532494E-15	1.198036E-15
4.000000E+03	3.569957E-15	1.203953E-15
4.010000E+03	3.603761E-15	1.208844E-15
4.020000E+03	3.634013E-15	1.212751E-15
4.030000E+03	3.660924E-15	1.215743E-15
4.040000E+03	3.684590E-15	1.217849E-15
4.050000E+03	3.705130E-15	1.219104E-15
4.060000E+03	3.722975E-15	1.219639E-15
4.070000E+03	3.738144E-15	1.219452E-15
4.080000E+03	3.750958E-15	1.218635E-15
4.090000E+03	3.761611E-15	1.217239E-15
4.100000E+03	3.770513E-15	1.215383E-15
4.110000E+03	3.777873E-15	1.213121E-15
4.120000E+03	3.783901E-15	1.210509E-15
4.130000E+03	3.788879E-15	1.207623E-15
4.140000E+03	3.793152E-15	1.204563E-15
4.150000E+03	3.796991E-15	1.201404E-15
4.160000E+03	3.800527E-15	1.198177E-15
4.170000E+03	3.804145E-15	1.194998E-15
4.180000E+03	3.808022E-15	1.191914E-15
4.190000E+03	3.812385E-15	1.188993E-15
4.200000E+03	3.817447E-15	1.186298E-15
4.210000E+03	3.823405E-15	1.183887E-15
4.220000E+03	3.830437E-15	1.181817E-15
4.230000E+03	3.838640E-15	1.180118E-15
4.240000E+03	3.848156E-15	1.178839E-15
4.250000E+03	3.859170E-15	1.178039E-15
4.260000E+03	3.871719E-15	1.177737E-15
4.270000E+03	3.885883E-15	1.177965E-15
4.280000E+03	3.901721E-15	1.178747E-15
4.290000E+03	3.919327E-15	1.180124E-15
4.300000E+03	3.938532E-15	1.182054E-15
4.310000E+03	3.959509E-15	1.184599E-15
4.320000E+03	3.982101E-15	1.187726E-15
4.330000E+03	4.006252E-15	1.191427E-15
4.340000E+03	4.031880E-15	1.195692E-15
4.350000E+03	4.058879E-15	1.200500E-15
4.360000E+03	4.087181E-15	1.205841E-15
4.370000E+03	4.116513E-15	1.211644E-15
4.380000E+03	4.146699E-15	1.217867E-15
4.390000E+03	4.177661E-15	1.224495E-15
4.400000E+03	4.209001E-15	1.231415E-15
4.410000E+03	4.240601E-15	1.238599E-15
4.420000E+03	4.272087E-15	1.245938E-15
4.430000E+03	4.303248E-15	1.253373E-15
4.440000E+03	4.333864E-15	1.260837E-15
4.450000E+03	4.363464E-15	1.268191E-15
4.460000E+03	4.391874E-15	1.275378E-15
4.470000E+03	4.418741E-15	1.282288E-15
4.480000E+03	4.443774E-15	1.288830E-15
4.490000E+03	4.466692E-15	1.294913E-15
4.500000E+03	4.487230E-15	1.300447E-15
4.510000E+03	4.505082E-15	1.305332E-15
4.520000E+03	4.520026E-15	1.309493E-15
4.530000E+03	4.531927E-15	1.312876E-15
4.540000E+03	4.540567E-15	1.315406E-15
4.550000E+03	4.545766E-15	1.317017E-15
4.560000E+03	4.547500E-15	1.317689E-15
4.570000E+03	4.545727E-15	1.317397E-15
4.580000E+03	4.540394E-15	1.316114E-15
4.590000E+03	4.531546E-15	1.313842E-15
4.600000E+03	4.519274E-15	1.310595E-15
4.610000E+03	4.503706E-15	1.306402E-15
4.620000E+03	4.484955E-15	1.301286E-15
4.630000E+03	4.463280E-15	1.295315E-15
4.640000E+03	4.438859E-15	1.288531E-15
4.650000E+03	4.412004E-15	1.281021E-15
4.660000E+03	4.382889E-15	1.272829E-15
4.670000E+03	4.351863E-15	1.264052E-15
4.680000E+03	4.319232E-15	1.254776E-15
4.690000E+03	4.285255E-15	1.245073E-15
4.700000E+03	4.250296E-15	1.235045E-15
4.710000E+03	4.214563E-15	1.224754E-15
4.720000E+03	4.178454E-15	1.214313E-15
4.730000E+03	4.142211E-15	1.203792E-15
4.740000E+03	4.106060E-15	1.193257E-15
4.750000E+03	4.070309E-15	1.182798E-15
4.760000E+03	4.035200E-15	1.172486E-15
4.770000E+03	4.000866E-15	1.162361E-15
4.780000E+03	3.967646E-15	1.152521E-15
4.790000E+03	3.935592E-15	1.142983E-15
4.800000E+03	3.904918E-15	1.133808E-15
4.810000E+03	3.875773E-15	1.125042E-15
4.820000E+03	3.848332E-15	1.116735E-15
4.830000E+03	3.822629E-15	1.108896E-15
4.840000E+03	3.798768E-15	1.101554E-15
4.850000E+03	3.776921E-15	1.094758E-15
4.860000E+03	3.757086E-15	1.088505E-15
4.870000E+03	3.739331E-15	1.082811E-15
4.880000E+03	3.723755E-15	1.077701E-15
4.890000E+03	3.710409E-15	1.073185E-15
4.900000E+03	3.699294E-15	1.069257E-15
4.910000E+03	3.690487E-15	1.065932E-15
4.920000E+03	3.683976E-15	1.063197E-15
4.930000E+03	3.679823E-15	1.061061E-15
4.940000E+03	3.678005E-15	1.059505E-15
4.950000E+03	3.678529E-15	1.058518E-15
4.960000E+03	3.681436E-15	1.058098E-15
4.970000E+03	3.686681E-15	1.058213E-15
4.980000E+03	3.694286E-15	1.058852E-15
4.990000E+03	3.704227E-15	1.059988E-15
5.000000E+03	3.716390E-15	1.061565E-15
5.010000E+03	3.730845E-15	1.063578E-15
5.020000E+03	3.747455E-15	1.065960E-15
5.030000E+03	3.766146E-15	1.068660E-15
5.040000E+03	3.786869E-15	1.071633E-15
5.050000E+03	3.809521E-15	1.074813E-15
5.060000E+03	3.833984E-15	1.078129E-15
5.070000E+03	3.860082E-15	1.081491E-15
5.080000E+03	3.887741E-15	1.084834E-15
5.090000E+03	3.916713E-15	1.088041E-15
5.100000E+03	3.946850E-15	1.091023E-15
5.110000E+03	3.977948E-15	1.093670E-15
5.120000E+03	4.009830E-15	1.095878E-15
5.130000E+03	4.042180E-15	1.097501E-15
5.140000E+03	4.074833E-15	1.098435E-15
5.150000E+03	4.107490E-15	1.098534E-15
5.160000E+03	4.139882E-15	1.097664E-15
5.170000E+03	4.171777E-15	1.095695E-15
5.180000E+03	4.202895E-15	1.092486E-15
5.190000E+03	4.232913E-15	1.087886E-15
5.200000E+03	4.261638E-15	1.081778E-15
5.210000E+03	4.288665E-15	1.073993E-15
5.220000E+03	4.313856E-15	1.064431E-15
5.230000E+03	4.336912E-15	1.052958E-15
5.240000E+03	4.357632E-15	1.039468E-15
5.250000E+03	4.375705E-15	1.023834E-15
5.260000E+03	4.391009E-15	1.005981E-15
5.270000E+03	4.403317E-15	9.858180E-16
5.280000E+03	4.412509E-15	9.632870E-16
5.290000E+03	4.418450E-15	9.383361E-16
5.300000E+03	4.420982E-15	9.109205E-16
5.310000E+03	4.420066E-15	8.810315E-16
5.320000E+03	4.415688E-15	8.486770E-16
5.330000E+03	4.407725E-15	8.138569E-16
5.340000E+03	4.396257E-15	7.766233E-16
5.350000E+03	4.381255E-15	7.370210E-16
5.360000E+03	4.362797E-15	6.951279E-16
5.370000E+03	4.340892E-15	6.510247E-16
5.380000E+03	4.315649E-15	6.048232E-16
5.390000E+03	4.287149E-15	5.566453E-16
5.400000E+03	4.255479E-15	5.066314E-16
5.410000E+03	4.220731E-15	4.549430E-16
5.420000E+03	4.183005E-15	4.017682E-16
5.430000E+03	4.142444E-15	3.473375E-16
5.440000E+03	4.099074E-15	2.919361E-16
5.450000E+03	4.053141E-15	2.359955E-16
5.460000E+03	4.004716E-15	1.802412E-16
5.470000E+03	3.954004E-15	1.263237E-16
5.480000E+03	3.901333E-15	7.953333E-17
5.490000E+03	3.847082E-15	5.992686E-17
5.500000E+03	3.791599E-15	8.595976E-17
5.510000E+03	3.735083E-15	1.301778E-16
5.520000E+03	3.677854E-15	1.768692E-16
5.530000E+03	3.620199E-15	2.222658E-16
5.540000E+03	3.562533E-15	2.652940E-16
5.550000E+03	3.505171E-15	3.056067E-16
5.560000E+03	3.448598E-15	3.431377E-16
5.570000E+03	3.393092E-15	3.779250E-16
5.580000E+03	3.339007E-15	4.100764E-16
5.590000E+03	3.286596E-15	4.397257E-16
5.600000E+03	3.236177E-15	4.670387E-16
5.610000E+03	3.187939E-15	4.921789E-16
5.620000E+03	3.142074E-15	5.153190E-16
5.630000E+03	3.098750E-15	5.366330E-16
5.640000E+03	3.058109E-15	5.562930E-16
5.650000E+03	3.020303E-15	5.744734E-16
5.660000E+03	2.985404E-15	5.913323E-16
5.670000E+03	2.953527E-15	6.070325E-16
5.680000E+03	2.924708E-15	6.217178E-16
5.690000E+03	2.899031E-15	6.355361E-16
5.700000E+03	2.876536E-15	6.486206E-16
5.710000E+03	2.857222E-15	6.610892E-16
5.720000E+03	2.841161E-15	6.730705E-16
5.730000E+03	2.828304E-15	6.846573E-16
5.740000E+03	2.818702E-15	6.959608E-16
5.750000E+03	2.812288E-15	7.070555E-16
5.760000E+03	2.809099E-15	7.180358E-16
5.770000E+03	2.809080E-15	7.289664E-16
5.780000E+03	2.812229E-15	7.399190E-16
5.790000E+03	2.818450E-15	7.509354E-16
5.800000E+03	2.827791E-15	7.620886E-16
5.810000E+03	2.840150E-15	7.734072E-16
5.820000E+03	2.855483E-15	7.849294E-16
5.830000E+03	2.873773E-15	7.966965E-16
5.840000E+03	2.894977E-15	8.087375E-16
5.850000E+03	2.919021E-15	8.210692E-16
5.860000E+03	2.945896E-15	8.337218E-16
5.870000E+03	2.975597E-15	8.467235E-16
5.880000E+03	3.008031E-15	8.600741E-16
5.890000E+03	3.043173E-15	8.737889E-16
5.900000E+03	3.081068E-15	8.879000E-16
5.910000E+03	3.121673E-15	9.024120E-16
5.920000E+03	3.164986E-15	9.173376E-16
5.930000E+03	3.211043E-15	9.326983E-16
5.940000E+03	3.259792E-15	9.484865E-16
5.950000E+03	3.311284E-15	9.647219E-16
5.960000E+03	3.365578E-15	9.814242E-16
5.970000E+03	3.422670E-15	9.985909E-16
5.980000E+03	3.482590E-15	1.016228E-15
5.990000E+03	3.545408E-15	1.034347E-15
6.000000E+03	3.611117E-15	1.052937E-15
6.010000E+03	3.679740E-15	1.071990E-15
6.020000E+03	3.751290E-15	1.091493E-15
6.030000E+03	3.825805E-15	1.111436E-15
6.040000E+03	3.903229E-15	1.131778E-15
6.050000E+03	3.983518E-15	1.152476E-15
6.060000E+03	4.066643E-15	1.173489E-15
6.070000E+03	4.152459E-15	1.194736E-15
6.080000E+03	4.240866E-15	1.216147E-15
6.090000E+03	4.331632E-15	1.237608E-15
6.100000E+03	4.424520E-15	1.258999E-15
6.110000E+03	4.519241E-15	1.280181E-15
6.120000E+03	4.615444E-15	1.300993E-15
6.130000E+03	4.712772E-15	1.321269E-15
6.140000E+03	4.810709E-15	1.340794E-15
6.150000E+03	4.908722E-15	1.359344E-15
6.160000E+03	5.006219E-15	1.376679E-15
6.170000E+03	5.102605E-15	1.392556E-15
6.180000E+03	5.197072E-15	1.406671E-15
6.190000E+03	5.288922E-15	1.418755E-15
6.200000E+03	5.377316E-15	1.428502E-15
6.210000E+03	5.461556E-15	1.435647E-15
6.220000E+03	5.540702E-15	1.439869E-15
6.230000E+03	5.613930E-15	1.440886E-15
6.240000E+03	5.680491E-15	1.438447E-15
6.250000E+03	5.739550E-15	1.432291E-15
6.260000E+03	5.790381E-15	1.422201E-15
6.270000E+03	5.832323E-15	1.407992E-15
6.280000E+03	5.864795E-15	1.389523E-15
6.290000E+03	5.887247E-15	1.366679E-15
6.300000E+03	5.899361E-15	1.339425E-15
6.310000E+03	5.900869E-15	1.307760E-15
6.320000E+03	5.891499E-15	1.271709E-15
6.330000E+03	5.871355E-15	1.231406E-15
6.340000E+03	5.840470E-15	1.186992E-15
6.350000E+03	5.799064E-15	1.138674E-15
6.360000E+03	5.747402E-15	1.086687E-15
6.370000E+03	5.686038E-15	1.031345E-15
6.380000E+03	5.615304E-15	9.729371E-16
6.390000E+03	5.535916E-15	9.118368E-16
6.400000E+03	5.448524E-15	8.484157E-16
6.410000E+03	5.353703E-15	7.830435E-16
6.420000E+03	5.252292E-15	7.161362E-16
6.430000E+03	5.144913E-15	6.480806E-16
6.440000E+03	5.032417E-15	5.792960E-16
6.450000E+03	4.915424E-15	5.101746E-16
6.460000E+03	4.794714E-15	4.411321E-16
6.470000E+03	4.671002E-15	3.725917E-16
6.480000E+03	4.544959E-15	3.050149E-16
6.490000E+03	4.417381E-15	2.389848E-16
6.500000E+03	4.289012E-15	1.754061E-16
6.510000E+03	4.160780E-15	1.163184E-16
6.520000E+03	4.033604E-15	6.894292E-17
6.530000E+03	3.908444E-15	5.953565E-17
6.540000E+03	3.785755E-15	9.313575E-17
6.550000E+03	3.665643E-15	1.366420E-16
6.560000E+03	3.548121E-15	1.791248E-16
6.570000E+03	3.433294E-15	2.182845E-16
6.580000E+03	3.321440E-15	2.535986E-16
6.590000E+03	3.212872E-15	2.850479E-16
6.600000E+03	3.107789E-15	3.127875E-16
6.610000E+03	3.006469E-15	3.370580E-16
6.620000E+03	2.909108E-15	3.581293E-16
6.630000E+03	2.815853E-15	3.762820E-16
6.640000E+03	2.726804E-15	3.917957E-16
6.650000E+03	2.642048E-15	4.049461E-16
6.660000E+03	2.561599E-15	4.159928E-16
6.670000E+03	2.485414E-15	4.251758E-16
6.680000E+03	2.413453E-15	4.327237E-16
6.690000E+03	2.345709E-15	4.388585E-16
6.700000E+03	2.282051E-15	4.437663E-16
6.710000E+03	2.222415E-15	4.476318E-16
6.720000E+03	2.166706E-15	4.506194E-16
6.730000E+03	2.114845E-15	4.528842E-16
6.740000E+03	2.066702E-15	4.545569E-16
6.750000E+03	2.022172E-15	4.557605E-16
6.760000E+03	1.981173E-15	4.566113E-16
6.770000E+03	1.943599E-15	4.572096E-16
6.780000E+03	1.909328E-15	4.576399E-16
6.790000E+03	1.878305E-15	4.579935E-16
6.800000E+03	1.850392E-15	4.583318E-16
6.810000E+03	1.825543E-15	4.587302E-16
6.820000E+03	1.803648E-15	4.592406E-16
6.830000E+03	1.784625E-15	4.599142E-16
6.840000E+03	1.768418E-15	4.608019E-16
6.850000E+03	1.754951E-15	4.619440E-16
6.860000E+03	1.744155E-15	4.633760E-16
6.870000E+03	1.735940E-15	4.651238E-16
6.880000E+03	1.730285E-15	4.672261E-16
6.890000E+03	1.727087E-15	4.696956E-16
6.900000E+03	1.726329E-15	4.725644E-16
6.910000E+03	1.727933E-15	4.758446E-16
6.920000E+03	1.731864E-15	4.795572E-16
6.930000E+03	1.738069E-15	4.837145E-16
6.940000E+03	1.746471E-15	4.883206E-16
6.950000E+03	1.757037E-15	4.933886E-16
6.960000E+03	1.769710E-15	4.989234E-16
6.970000E+03	1.784432E-15	5.049272E-16
6.980000E+03	1.801162E-15	5.114058E-16
6.990000E+03	1.819791E-15	5.183435E-16
7.000000E+03	1.840315E-15	5.257532E-16
7.010000E+03	1.862589E-15	5.336061E-16
7.020000E+03	1.886573E-15	5.419026E-16
7.030000E+03	1.912176E-15	5.506264E-16
7.040000E+03	1.939294E-15	5.597573E-16
7.050000E+03	1.967815E-15	5.692709E-16
7.060000E+03	1.997590E-15	5.791313E-16
7.070000E+03	2.028531E-15	5.893193E-16
7.080000E+03	2.060461E-15	5.997894E-16
7.090000E+03	2.093217E-15	6.104982E-16
7.100000E+03	2.126619E-15	6.213973E-16
7.110000E+03	2.160500E-15	6.324411E-16
7.120000E+03	2.194654E-15	6.435714E-16
7.130000E+03	2.228833E-15	6.547171E-16
7.140000E+03	2.262832E-15	6.658187E-16
7.150000E+03	2.296378E-15	6.767964E-16
7.160000E+03	2.329247E-15	6.875839E-16
7.170000E+03	2.361182E-15	6.981040E-16
7.180000E+03	2.391951E-15	7.082872E-16
7.190000E+03	2.421232E-15	7.180359E-16
7.200000E+03	2.448798E-15	7.272803E-16
7.210000E+03	2.474399E-15	7.359437E-16
7.220000E+03	2.497831E-15	7.439620E-16
7.230000E+03	2.518808E-15	7.512469E-16
7.240000E+03	2.537230E-15	7.577648E-16
7.250000E+03	2.552825E-15	7.634303E-16
7.260000E+03	2.565515E-15	7.682160E-16
7.270000E+03	2.575154E-15	7.720743E-16
7.280000E+03	2.581702E-15	7.749881E-16
7.290000E+03	2.585084E-15	7.769312E-16
7.300000E+03	2.585303E-15	7.778992E-16
7.310000E+03	2.582466E-15	7.779204E-16
7.320000E+03	2.576551E-15	7.769830E-16
7.330000E+03	2.567778E-15	7.751489E-16
7.340000E+03	2.556232E-15	7.724391E-16
7.350000E+03	2.542099E-15	7.689055E-16
7.360000E+03	2.525663E-15	7.646293E-16
7.370000E+03	2.507066E-15	7.596488E-16
7.380000E+03	2.486670E-15	7.540698E-16
7.390000E+03	2.464690E-15	7.479526E-16
7.400000E+03	2.441451E-15	7.413914E-16
7.410000E+03	2.417219E-15	7.344630E-16
7.420000E+03	2.392330E-15	7.272648E-16
7.430000E+03	2.367053E-15	7.198741E-16
7.440000E+03	2.341716E-15	7.123862E-16
7.450000E+03	2.316574E-15	7.048743E-16
7.460000E+03	2.291905E-15	6.974175E-16
7.470000E+03	2.268002E-15	6.900999E-16
7.480000E+03	2.245080E-15	6.829815E-16
7.490000E+03	2.223339E-15	6.761168E-16
7.500000E+03	2.203050E-15	6.695817E-16
7.510000E+03	2.184376E-15	6.634179E-16
7.520000E+03	2.167488E-15	6.576696E-16
7.530000E+03	2.152513E-15	6.523654E-16
7.540000E+03	2.139614E-15	6.475447E-16
7.550000E+03	2.128880E-15	6.432223E-16
7.560000E+03	2.120439E-15	6.394238E-16
7.570000E+03	2.114343E-15	6.361501E-16
7.580000E+03	2.110689E-15	6.334130E-16
7.590000E+03	2.109497E-15	6.312000E-16
7.600000E+03	2.110774E-15	6.294919E-16
7.610000E+03	2.114599E-15	6.282889E-16
7.620000E+03	2.120920E-15	6.275495E-16
7.630000E+03	2.129760E-15	6.272515E-16
7.640000E+03	2.141071E-15	6.273488E-16
7.650000E+03	2.154850E-15	6.278053E-16
7.660000E+03	2.171021E-15	6.285610E-16
7.670000E+03	2.189557E-15	6.295660E-16
7.680000E+03	2.210328E-15	6.307375E-16
7.690000E+03	2.233310E-15	6.320201E-16
7.700000E+03	2.258348E-15	6.333169E-16
7.710000E+03	2.285364E-15	6.345498E-16
7.720000E+03	2.314235E-15	6.356253E-16
7.730000E+03	2.344795E-15	6.364344E-16
7.740000E+03	2.376897E-15	6.368704E-16
7.750000E+03	2.410410E-15	6.368293E-16
7.760000E+03	2.445128E-15	6.361841E-16
