#wls	flux	fluxerr
1.600000E+03	1.633904E-16	1.313178E-16
1.640000E+03	1.588961E-16	1.244570E-16
1.680000E+03	1.543711E-16	1.176764E-16
1.720000E+03	1.499182E-16	1.110746E-16
1.760000E+03	1.453656E-16	1.045436E-16
1.800000E+03	1.408121E-16	9.817884E-17
1.840000E+03	1.361738E-16	9.194348E-17
1.880000E+03	1.314561E-16	8.586538E-17
1.920000E+03	1.266978E-16	7.999119E-17
1.960000E+03	1.220826E-16	7.444857E-17
2.000000E+03	1.176331E-16	6.924900E-17
2.040000E+03	1.135832E-16	6.451411E-17
2.080000E+03	1.101663E-16	6.033688E-17
2.120000E+03	1.077058E-16	5.682856E-17
2.160000E+03	1.065212E-16	5.406243E-17
2.200000E+03	1.069317E-16	5.207679E-17
2.240000E+03	1.094167E-16	5.094839E-17
2.280000E+03	1.143848E-16	5.066609E-17
2.320000E+03	1.223421E-16	5.119992E-17
2.360000E+03	1.338950E-16	5.248545E-17
2.400000E+03	1.495901E-16	5.436168E-17
2.440000E+03	1.700094E-16	5.665513E-17
2.480000E+03	1.954851E-16	5.920284E-17
2.520000E+03	2.258556E-16	6.205073E-17
2.560000E+03	2.605081E-16	6.585507E-17
2.600000E+03	2.978788E-16	7.197032E-17
2.640000E+03	3.359686E-16	8.205160E-17
2.680000E+03	3.725987E-16	9.678645E-17
2.720000E+03	4.060280E-16	1.153226E-16
2.760000E+03	4.347994E-16	1.357389E-16
2.800000E+03	4.582508E-16	1.559999E-16
2.840000E+03	4.758811E-16	1.742602E-16
2.880000E+03	4.874928E-16	1.890909E-16
2.920000E+03	4.933198E-16	1.995881E-16
2.960000E+03	4.939855E-16	2.053628E-16
3.000000E+03	4.904857E-16	2.064975E-16
3.010000E+03	4.891463E-16	2.061202E-16
3.020000E+03	4.877052E-16	2.055140E-16
3.030000E+03	4.860942E-16	2.046513E-16
3.040000E+03	4.844448E-16	2.035887E-16
3.050000E+03	4.827898E-16	2.023418E-16
3.060000E+03	4.810696E-16	2.008873E-16
3.070000E+03	4.795091E-16	1.993209E-16
3.080000E+03	4.779585E-16	1.975816E-16
3.090000E+03	4.764595E-16	1.956884E-16
3.100000E+03	4.752331E-16	1.937330E-16
3.110000E+03	4.742277E-16	1.916940E-16
3.120000E+03	4.733968E-16	1.895523E-16
3.130000E+03	4.728712E-16	1.873594E-16
3.140000E+03	4.726927E-16	1.851294E-16
3.150000E+03	4.729041E-16	1.828757E-16
3.160000E+03	4.735486E-16	1.806100E-16
3.170000E+03	4.746698E-16	1.783428E-16
3.180000E+03	4.763123E-16	1.760834E-16
3.190000E+03	4.786029E-16	1.738688E-16
3.200000E+03	4.814229E-16	1.716445E-16
3.210000E+03	4.849009E-16	1.694449E-16
3.220000E+03	4.891649E-16	1.672997E-16
3.230000E+03	4.941810E-16	1.651800E-16
3.240000E+03	5.000788E-16	1.631103E-16
3.250000E+03	5.067451E-16	1.610331E-16
3.260000E+03	5.144736E-16	1.590200E-16
3.270000E+03	5.230705E-16	1.569856E-16
3.280000E+03	5.328325E-16	1.549941E-16
3.290000E+03	5.436474E-16	1.529835E-16
3.300000E+03	5.555654E-16	1.509407E-16
3.310000E+03	5.688066E-16	1.488962E-16
3.320000E+03	5.832533E-16	1.467880E-16
3.330000E+03	5.990399E-16	1.446220E-16
3.340000E+03	6.163043E-16	1.424022E-16
3.350000E+03	6.349160E-16	1.400719E-16
3.360000E+03	6.550974E-16	1.376589E-16
3.370000E+03	6.767041E-16	1.351151E-16
3.380000E+03	6.999553E-16	1.324751E-16
3.390000E+03	7.248837E-16	1.297406E-16
3.400000E+03	7.514142E-16	1.269049E-16
3.410000E+03	7.796595E-16	1.240061E-16
3.420000E+03	8.095209E-16	1.210591E-16
3.430000E+03	8.410929E-16	1.181211E-16
3.440000E+03	8.743547E-16	1.152383E-16
3.450000E+03	9.092667E-16	1.124564E-16
3.460000E+03	9.457651E-16	1.098098E-16
3.470000E+03	9.838755E-16	1.073197E-16
3.480000E+03	1.023231E-15	1.049278E-16
3.490000E+03	1.064024E-15	1.025901E-16
3.500000E+03	1.105672E-15	1.001425E-16
3.510000E+03	1.148309E-15	9.746569E-17
3.520000E+03	1.191403E-15	9.438255E-17
3.530000E+03	1.234928E-15	9.079919E-17
3.540000E+03	1.278314E-15	8.666698E-17
3.550000E+03	1.321534E-15	8.212848E-17
3.560000E+03	1.364159E-15	7.753013E-17
3.570000E+03	1.405911E-15	7.355339E-17
3.580000E+03	1.446827E-15	7.125561E-17
3.590000E+03	1.486388E-15	7.184156E-17
3.600000E+03	1.524559E-15	7.617667E-17
3.610000E+03	1.561236E-15	8.423489E-17
3.620000E+03	1.596382E-15	9.526900E-17
3.630000E+03	1.630155E-15	1.083437E-16
3.640000E+03	1.662448E-15	1.226205E-16
3.650000E+03	1.693337E-15	1.374572E-16
3.660000E+03	1.723236E-15	1.524036E-16
3.670000E+03	1.751982E-15	1.670836E-16
3.680000E+03	1.779896E-15	1.812503E-16
3.690000E+03	1.807337E-15	1.947274E-16
3.700000E+03	1.834394E-15	2.073586E-16
3.710000E+03	1.861358E-15	2.190434E-16
3.720000E+03	1.888725E-15	2.297332E-16
3.730000E+03	1.916758E-15	2.393731E-16
3.740000E+03	1.946250E-15	2.479887E-16
3.750000E+03	1.977490E-15	2.555534E-16
3.760000E+03	2.011468E-15	2.621346E-16
3.770000E+03	2.048843E-15	2.677583E-16
3.780000E+03	2.090695E-15	2.724998E-16
3.790000E+03	2.137939E-15	2.764021E-16
3.800000E+03	2.191920E-15	2.795475E-16
3.810000E+03	2.253981E-15	2.819945E-16
3.820000E+03	2.325609E-15	2.837917E-16
3.830000E+03	2.408604E-15	2.849922E-16
3.840000E+03	2.504632E-15	2.855962E-16
3.850000E+03	2.615691E-15	2.856078E-16
3.860000E+03	2.744305E-15	2.850552E-16
3.870000E+03	2.892591E-15	2.838995E-16
3.880000E+03	3.063389E-15	2.821743E-16
3.890000E+03	3.259788E-15	2.799548E-16
3.900000E+03	3.484360E-15	2.773194E-16
3.910000E+03	3.739989E-15	2.744308E-16
3.920000E+03	4.027236E-15	2.713614E-16
3.930000E+03	4.345697E-15	2.683229E-16
3.940000E+03	4.692990E-15	2.656741E-16
3.950000E+03	5.065724E-15	2.640090E-16
3.960000E+03	5.458478E-15	2.641466E-16
3.970000E+03	5.866255E-15	2.670667E-16
3.980000E+03	6.284518E-15	2.735183E-16
3.990000E+03	6.711062E-15	2.839548E-16
4.000000E+03	7.141475E-15	2.979886E-16
4.010000E+03	7.569850E-15	3.140248E-16
4.020000E+03	7.987126E-15	3.297061E-16
4.030000E+03	8.380477E-15	3.427029E-16
4.040000E+03	8.734031E-15	3.512508E-16
4.050000E+03	9.027772E-15	3.545531E-16
4.060000E+03	9.240994E-15	3.531749E-16
4.070000E+03	9.352722E-15	3.489618E-16
4.080000E+03	9.348113E-15	3.446407E-16
4.090000E+03	9.221897E-15	3.421408E-16
4.100000E+03	8.982087E-15	3.412546E-16
4.110000E+03	8.647843E-15	3.405367E-16
4.120000E+03	8.244919E-15	3.385742E-16
4.130000E+03	7.801457E-15	3.344185E-16
4.140000E+03	7.344189E-15	3.278256E-16
4.150000E+03	6.895993E-15	3.191419E-16
4.160000E+03	6.473606E-15	3.089045E-16
4.170000E+03	6.088873E-15	2.977543E-16
4.180000E+03	5.749471E-15	2.863048E-16
4.190000E+03	5.459360E-15	2.749939E-16
4.200000E+03	5.220058E-15	2.641555E-16
4.210000E+03	5.032818E-15	2.541372E-16
4.220000E+03	4.898262E-15	2.452496E-16
4.230000E+03	4.817428E-15	2.378435E-16
4.240000E+03	4.791927E-15	2.323094E-16
4.250000E+03	4.824151E-15	2.290436E-16
4.260000E+03	4.916975E-15	2.283868E-16
4.270000E+03	5.073268E-15	2.303851E-16
4.280000E+03	5.294369E-15	2.344955E-16
4.290000E+03	5.580054E-15	2.397266E-16
4.300000E+03	5.927412E-15	2.447969E-16
4.310000E+03	6.329000E-15	2.481681E-16
4.320000E+03	6.771093E-15	2.481951E-16
4.330000E+03	7.233044E-15	2.433834E-16
4.340000E+03	7.685233E-15	2.326769E-16
4.350000E+03	8.090893E-15	2.161407E-16
4.360000E+03	8.409288E-15	1.957510E-16
4.370000E+03	8.603154E-15	1.756339E-16
4.380000E+03	8.655044E-15	1.615791E-16
4.390000E+03	8.561218E-15	1.603606E-16
4.400000E+03	8.339101E-15	1.702046E-16
4.410000E+03	8.025953E-15	1.829635E-16
4.420000E+03	7.662867E-15	1.937294E-16
4.430000E+03	7.286341E-15	2.007464E-16
4.440000E+03	6.926380E-15	2.042778E-16
4.450000E+03	6.608073E-15	2.056101E-16
4.460000E+03	6.351750E-15	2.062070E-16
4.470000E+03	6.173465E-15	2.075362E-16
4.480000E+03	6.086270E-15	2.108571E-16
4.490000E+03	6.101317E-15	2.169834E-16
4.500000E+03	6.229597E-15	2.265931E-16
4.510000E+03	6.480767E-15	2.403457E-16
4.520000E+03	6.862358E-15	2.587572E-16
4.530000E+03	7.379436E-15	2.822181E-16
4.540000E+03	8.034708E-15	3.107683E-16
4.550000E+03	8.825718E-15	3.435663E-16
4.560000E+03	9.742647E-15	3.789589E-16
4.570000E+03	1.076593E-14	4.148099E-16
4.580000E+03	1.186592E-14	4.488317E-16
4.590000E+03	1.300196E-14	4.790114E-16
4.600000E+03	1.412494E-14	5.038579E-16
4.610000E+03	1.518271E-14	5.224217E-16
4.620000E+03	1.612384E-14	5.344367E-16
4.630000E+03	1.690102E-14	5.395163E-16
4.640000E+03	1.747764E-14	5.362436E-16
4.650000E+03	1.782840E-14	5.233238E-16
4.660000E+03	1.794198E-14	5.009876E-16
4.670000E+03	1.781959E-14	4.711888E-16
4.680000E+03	1.747711E-14	4.377152E-16
4.690000E+03	1.694684E-14	4.040808E-16
4.700000E+03	1.627371E-14	3.714375E-16
4.710000E+03	1.550824E-14	3.407688E-16
4.720000E+03	1.469941E-14	3.144991E-16
4.730000E+03	1.388898E-14	2.951648E-16
4.740000E+03	1.310540E-14	2.845692E-16
4.750000E+03	1.237965E-14	2.835386E-16
4.760000E+03	1.174986E-14	2.908090E-16
4.770000E+03	1.125138E-14	3.054136E-16
4.780000E+03	1.090582E-14	3.271011E-16
4.790000E+03	1.071808E-14	3.548356E-16
4.800000E+03	1.068465E-14	3.873495E-16
4.810000E+03	1.079955E-14	4.237679E-16
4.820000E+03	1.105597E-14	4.633142E-16
4.830000E+03	1.144662E-14	5.051813E-16
4.840000E+03	1.196364E-14	5.484898E-16
4.850000E+03	1.259792E-14	5.921814E-16
4.860000E+03	1.333766E-14	6.351155E-16
4.870000E+03	1.416677E-14	6.762480E-16
4.880000E+03	1.506484E-14	7.148872E-16
4.890000E+03	1.600564E-14	7.509477E-16
4.900000E+03	1.695917E-14	7.850825E-16
4.910000E+03	1.789364E-14	8.184496E-16
4.920000E+03	1.877722E-14	8.522587E-16
4.930000E+03	1.958178E-14	8.864555E-16
4.940000E+03	2.028749E-14	9.184992E-16
4.950000E+03	2.088146E-14	9.442124E-16
4.960000E+03	2.135489E-14	9.594179E-16
4.970000E+03	2.169989E-14	9.609014E-16
4.980000E+03	2.190933E-14	9.471488E-16
4.990000E+03	2.197455E-14	9.185335E-16
5.000000E+03	2.188387E-14	8.771606E-16
5.010000E+03	2.162490E-14	8.266725E-16
5.020000E+03	2.118683E-14	7.712021E-16
5.030000E+03	2.056272E-14	7.143944E-16
5.040000E+03	1.975781E-14	6.598978E-16
5.050000E+03	1.880141E-14	6.109785E-16
5.060000E+03	1.774762E-14	5.695288E-16
5.070000E+03	1.666318E-14	5.365328E-16
5.080000E+03	1.561386E-14	5.114054E-16
5.090000E+03	1.465795E-14	4.915073E-16
5.100000E+03	1.384018E-14	4.742218E-16
5.110000E+03	1.318771E-14	4.581904E-16
5.120000E+03	1.271144E-14	4.429510E-16
5.130000E+03	1.241077E-14	4.287179E-16
5.140000E+03	1.227644E-14	4.160692E-16
5.150000E+03	1.228926E-14	4.055848E-16
5.160000E+03	1.242391E-14	3.980645E-16
5.170000E+03	1.265060E-14	3.940565E-16
5.180000E+03	1.293489E-14	3.932194E-16
5.190000E+03	1.324158E-14	3.950964E-16
5.200000E+03	1.354002E-14	3.993298E-16
5.210000E+03	1.381162E-14	4.052441E-16
5.220000E+03	1.404921E-14	4.123334E-16
5.230000E+03	1.425585E-14	4.198670E-16
5.240000E+03	1.444459E-14	4.259690E-16
5.250000E+03	1.463515E-14	4.287851E-16
5.260000E+03	1.484841E-14	4.275651E-16
5.270000E+03	1.510378E-14	4.227249E-16
5.280000E+03	1.541577E-14	4.160081E-16
5.290000E+03	1.579047E-14	4.097247E-16
5.300000E+03	1.622091E-14	4.058628E-16
5.310000E+03	1.668975E-14	4.069876E-16
5.320000E+03	1.717334E-14	4.149660E-16
5.330000E+03	1.764487E-14	4.286393E-16
5.340000E+03	1.807603E-14	4.457318E-16
5.350000E+03	1.844021E-14	4.634822E-16
5.360000E+03	1.871593E-14	4.769698E-16
5.370000E+03	1.888808E-14	4.810113E-16
5.380000E+03	1.894550E-14	4.721729E-16
5.390000E+03	1.888230E-14	4.490348E-16
5.400000E+03	1.869998E-14	4.132112E-16
5.410000E+03	1.840962E-14	3.698551E-16
5.420000E+03	1.803475E-14	3.279007E-16
5.430000E+03	1.761294E-14	3.002521E-16
5.440000E+03	1.719703E-14	2.940220E-16
5.450000E+03	1.682542E-14	2.960825E-16
5.460000E+03	1.654325E-14	2.927557E-16
5.470000E+03	1.639245E-14	2.800757E-16
5.480000E+03	1.640473E-14	2.635735E-16
5.490000E+03	1.659786E-14	2.586718E-16
5.500000E+03	1.696244E-14	2.786735E-16
5.510000E+03	1.743800E-14	3.129635E-16
5.520000E+03	1.793923E-14	3.497432E-16
5.530000E+03	1.837397E-14	3.825566E-16
5.540000E+03	1.866055E-14	4.083087E-16
5.550000E+03	1.874266E-14	4.273189E-16
5.560000E+03	1.860884E-14	4.414863E-16
5.570000E+03	1.830223E-14	4.516232E-16
5.580000E+03	1.790038E-14	4.588222E-16
5.590000E+03	1.748526E-14	4.644641E-16
5.600000E+03	1.712629E-14	4.685594E-16
5.610000E+03	1.687629E-14	4.708518E-16
5.620000E+03	1.676571E-14	4.712434E-16
5.630000E+03	1.679912E-14	4.690071E-16
5.640000E+03	1.696181E-14	4.635166E-16
5.650000E+03	1.722004E-14	4.545180E-16
5.660000E+03	1.752119E-14	4.420066E-16
5.670000E+03	1.779834E-14	4.270725E-16
5.680000E+03	1.798039E-14	4.110504E-16
5.690000E+03	1.800248E-14	3.943231E-16
5.700000E+03	1.781642E-14	3.782242E-16
5.710000E+03	1.740507E-14	3.638275E-16
5.720000E+03	1.679008E-14	3.497287E-16
5.730000E+03	1.602224E-14	3.358337E-16
5.740000E+03	1.516857E-14	3.239485E-16
5.750000E+03	1.430187E-14	3.152939E-16
5.760000E+03	1.349019E-14	3.120264E-16
5.770000E+03	1.279171E-14	3.162496E-16
5.780000E+03	1.225339E-14	3.273788E-16
5.790000E+03	1.191044E-14	3.439962E-16
5.800000E+03	1.178416E-14	3.651673E-16
5.810000E+03	1.188184E-14	3.895952E-16
5.820000E+03	1.220321E-14	4.156770E-16
5.830000E+03	1.274338E-14	4.417434E-16
5.840000E+03	1.349073E-14	4.658943E-16
5.850000E+03	1.442346E-14	4.861669E-16
5.860000E+03	1.550563E-14	5.009825E-16
5.870000E+03	1.668164E-14	5.097097E-16
5.880000E+03	1.787585E-14	5.132318E-16
5.890000E+03	1.900058E-14	5.128954E-16
5.900000E+03	1.996702E-14	5.089242E-16
5.910000E+03	2.069928E-14	5.016405E-16
5.920000E+03	2.115283E-14	4.915879E-16
5.930000E+03	2.132783E-14	4.785878E-16
5.940000E+03	2.126131E-14	4.640164E-16
5.950000E+03	2.100818E-14	4.498588E-16
5.960000E+03	2.062637E-14	4.361526E-16
5.970000E+03	2.016975E-14	4.239147E-16
5.980000E+03	1.968107E-14	4.145647E-16
5.990000E+03	1.918937E-14	4.070208E-16
6.000000E+03	1.871200E-14	4.007965E-16
6.010000E+03	1.825936E-14	3.965397E-16
6.020000E+03	1.783678E-14	3.936816E-16
6.030000E+03	1.744765E-14	3.924814E-16
6.040000E+03	1.709702E-14	3.940379E-16
6.050000E+03	1.679372E-14	3.980757E-16
6.060000E+03	1.654755E-14	4.043699E-16
6.070000E+03	1.636470E-14	4.126722E-16
6.080000E+03	1.624643E-14	4.209140E-16
6.090000E+03	1.618880E-14	4.266200E-16
6.100000E+03	1.618243E-14	4.280489E-16
6.110000E+03	1.621267E-14	4.237817E-16
6.120000E+03	1.626177E-14	4.132759E-16
6.130000E+03	1.631234E-14	3.967449E-16
6.140000E+03	1.635035E-14	3.745268E-16
6.150000E+03	1.636609E-14	3.479315E-16
6.160000E+03	1.635564E-14	3.188242E-16
6.170000E+03	1.632303E-14	2.892014E-16
6.180000E+03	1.627602E-14	2.655123E-16
6.190000E+03	1.622266E-14	2.616018E-16
6.200000E+03	1.616755E-14	2.803298E-16
6.210000E+03	1.611250E-14	3.050224E-16
6.220000E+03	1.605472E-14	3.252421E-16
6.230000E+03	1.598686E-14	3.392811E-16
6.240000E+03	1.589960E-14	3.507026E-16
6.250000E+03	1.578443E-14	3.627383E-16
6.260000E+03	1.563611E-14	3.744511E-16
6.270000E+03	1.545197E-14	3.834123E-16
6.280000E+03	1.523081E-14	3.880541E-16
6.290000E+03	1.497102E-14	3.873804E-16
6.300000E+03	1.466944E-14	3.815670E-16
6.310000E+03	1.431748E-14	3.716041E-16
6.320000E+03	1.390000E-14	3.583288E-16
6.330000E+03	1.340164E-14	3.430185E-16
6.340000E+03	1.281238E-14	3.267524E-16
6.350000E+03	1.213295E-14	3.094882E-16
6.360000E+03	1.137720E-14	2.915580E-16
6.370000E+03	1.057477E-14	2.741109E-16
6.380000E+03	9.769764E-15	2.583321E-16
6.390000E+03	9.008849E-15	2.456237E-16
6.400000E+03	8.333501E-15	2.368444E-16
6.410000E+03	7.777941E-15	2.315241E-16
6.420000E+03	7.367978E-15	2.290209E-16
6.430000E+03	7.122563E-15	2.292656E-16
6.440000E+03	7.057158E-15	2.324769E-16
6.450000E+03	7.189031E-15	2.390160E-16
6.460000E+03	7.538329E-15	2.489643E-16
6.470000E+03	8.127090E-15	2.615448E-16
6.480000E+03	8.981785E-15	2.751930E-16
6.490000E+03	1.013440E-14	2.878695E-16
6.500000E+03	1.161857E-14	2.975342E-16
6.510000E+03	1.346150E-14	3.036877E-16
6.520000E+03	1.567349E-14	3.107460E-16
6.530000E+03	1.823346E-14	3.321898E-16
6.540000E+03	2.102645E-14	3.785720E-16
6.550000E+03	2.379630E-14	4.403189E-16
6.560000E+03	2.623933E-14	5.022020E-16
6.570000E+03	2.807004E-14	5.539185E-16
6.580000E+03	2.909967E-14	5.903956E-16
6.590000E+03	2.930463E-14	6.079577E-16
6.600000E+03	2.880618E-14	6.075956E-16
6.610000E+03	2.779622E-14	5.938937E-16
6.620000E+03	2.647327E-14	5.701890E-16
6.630000E+03	2.501184E-14	5.408068E-16
6.640000E+03	2.354374E-14	5.102267E-16
6.650000E+03	2.215369E-14	4.802043E-16
6.660000E+03	2.088896E-14	4.525673E-16
6.670000E+03	1.977033E-14	4.288866E-16
6.680000E+03	1.879878E-14	4.083187E-16
6.690000E+03	1.796467E-14	3.904891E-16
6.700000E+03	1.725440E-14	3.757541E-16
6.710000E+03	1.665323E-14	3.633723E-16
6.720000E+03	1.614726E-14	3.534251E-16
6.730000E+03	1.572426E-14	3.464577E-16
6.740000E+03	1.537331E-14	3.415094E-16
6.750000E+03	1.508453E-14	3.380324E-16
6.760000E+03	1.484722E-14	3.360831E-16
6.770000E+03	1.464975E-14	3.348058E-16
6.780000E+03	1.447855E-14	3.340692E-16
6.790000E+03	1.431893E-14	3.348952E-16
6.800000E+03	1.415515E-14	3.382198E-16
6.810000E+03	1.397301E-14	3.457188E-16
6.820000E+03	1.376502E-14	3.585280E-16
6.830000E+03	1.353358E-14	3.748166E-16
6.840000E+03	1.328797E-14	3.915173E-16
6.850000E+03	1.303948E-14	4.060396E-16
6.860000E+03	1.280026E-14	4.161571E-16
6.870000E+03	1.258180E-14	4.205555E-16
6.880000E+03	1.239448E-14	4.193867E-16
6.890000E+03	1.224689E-14	4.140869E-16
6.900000E+03	1.214548E-14	4.068523E-16
6.910000E+03	1.209308E-14	3.994840E-16
6.920000E+03	1.208729E-14	3.925031E-16
6.930000E+03	1.212213E-14	3.857822E-16
6.940000E+03	1.219001E-14	3.790076E-16
6.950000E+03	1.228124E-14	3.716174E-16
6.960000E+03	1.238597E-14	3.634908E-16
6.970000E+03	1.249453E-14	3.550656E-16
6.980000E+03	1.259883E-14	3.470275E-16
6.990000E+03	1.269243E-14	3.405862E-16
7.000000E+03	1.276986E-14	3.364777E-16
7.010000E+03	1.282767E-14	3.337922E-16
7.020000E+03	1.286406E-14	3.313933E-16
7.030000E+03	1.287918E-14	3.288009E-16
7.040000E+03	1.287495E-14	3.257920E-16
7.050000E+03	1.285458E-14	3.230163E-16
7.060000E+03	1.282084E-14	3.212909E-16
7.070000E+03	1.277512E-14	3.203222E-16
7.080000E+03	1.271704E-14	3.198998E-16
7.090000E+03	1.264585E-14	3.202933E-16
7.100000E+03	1.255989E-14	3.214491E-16
7.110000E+03	1.245787E-14	3.238781E-16
7.120000E+03	1.234118E-14	3.284691E-16
7.130000E+03	1.221497E-14	3.353051E-16
7.140000E+03	1.208628E-14	3.443596E-16
7.150000E+03	1.196256E-14	3.554649E-16
7.160000E+03	1.185025E-14	3.673708E-16
7.170000E+03	1.175522E-14	3.785782E-16
7.180000E+03	1.168168E-14	3.879970E-16
7.190000E+03	1.163304E-14	3.947757E-16
7.200000E+03	1.161138E-14	3.984544E-16
7.210000E+03	1.161794E-14	3.989335E-16
7.220000E+03	1.165309E-14	3.961824E-16
7.230000E+03	1.171579E-14	3.904578E-16
7.240000E+03	1.180485E-14	3.823563E-16
7.250000E+03	1.191762E-14	3.725702E-16
7.260000E+03	1.205036E-14	3.621470E-16
7.270000E+03	1.219840E-14	3.521911E-16
7.280000E+03	1.235469E-14	3.433643E-16
7.290000E+03	1.251084E-14	3.365357E-16
7.300000E+03	1.265687E-14	3.324693E-16
7.310000E+03	1.278110E-14	3.310204E-16
7.320000E+03	1.287266E-14	3.321300E-16
7.330000E+03	1.292430E-14	3.355397E-16
7.340000E+03	1.293544E-14	3.396448E-16
7.350000E+03	1.291081E-14	3.428909E-16
7.360000E+03	1.285769E-14	3.446518E-16
7.370000E+03	1.278586E-14	3.447440E-16
7.380000E+03	1.270446E-14	3.436864E-16
7.390000E+03	1.262138E-14	3.421269E-16
7.400000E+03	1.254059E-14	3.397392E-16
7.410000E+03	1.246349E-14	3.360879E-16
7.420000E+03	1.238832E-14	3.309462E-16
7.430000E+03	1.231049E-14	3.237724E-16
7.440000E+03	1.222409E-14	3.141935E-16
7.450000E+03	1.212384E-14	3.016552E-16
7.460000E+03	1.200627E-14	2.846527E-16
7.470000E+03	1.187079E-14	2.619725E-16
7.480000E+03	1.171942E-14	2.338259E-16
7.490000E+03	1.155807E-14	2.030112E-16
7.500000E+03	1.139325E-14	1.787892E-16
7.510000E+03	1.122922E-14	1.787341E-16
7.520000E+03	1.106289E-14	2.073000E-16
7.530000E+03	1.088158E-14	2.489499E-16
7.540000E+03	1.067501E-14	2.927794E-16
7.550000E+03	1.043933E-14	3.334983E-16
7.560000E+03	1.017662E-14	3.686263E-16
7.570000E+03	9.893909E-15	3.970167E-16
7.580000E+03	9.601328E-15	4.180490E-16
7.590000E+03	9.310621E-15	4.315984E-16
7.600000E+03	9.034206E-15	4.381581E-16
7.610000E+03	8.783222E-15	4.386969E-16
7.620000E+03	8.567574E-15	4.345381E-16
7.630000E+03	8.395617E-15	4.272171E-16
7.640000E+03	8.273610E-15	4.183411E-16
7.650000E+03	8.206200E-15	4.095150E-16
7.660000E+03	8.195296E-15	4.021202E-16
7.670000E+03	8.239592E-15	3.971879E-16
7.680000E+03	8.335523E-15	3.955533E-16
7.690000E+03	8.478849E-15	3.979052E-16
7.700000E+03	8.664229E-15	4.046340E-16
7.710000E+03	8.885317E-15	4.159256E-16
7.720000E+03	9.135391E-15	4.317387E-16
7.730000E+03	9.406217E-15	4.515780E-16
7.740000E+03	9.688473E-15	4.746421E-16
7.750000E+03	9.971839E-15	4.998717E-16
7.760000E+03	1.024491E-14	5.258417E-16
