#wls	flux	fluxerr
1.600000E+03	1.000564E-16	4.057299E-17
1.640000E+03	1.029257E-16	4.133602E-17
1.680000E+03	1.059343E-16	4.213242E-17
1.720000E+03	1.091733E-16	4.299646E-17
1.760000E+03	1.125270E-16	4.388025E-17
1.800000E+03	1.161314E-16	4.483496E-17
1.840000E+03	1.199116E-16	4.582888E-17
1.880000E+03	1.239218E-16	4.688028E-17
1.920000E+03	1.281741E-16	4.799077E-17
1.960000E+03	1.326814E-16	4.916193E-17
2.000000E+03	1.374093E-16	5.037777E-17
2.040000E+03	1.424663E-16	5.167441E-17
2.080000E+03	1.478201E-16	5.303572E-17
2.120000E+03	1.534856E-16	5.446266E-17
2.160000E+03	1.595298E-16	5.597401E-17
2.200000E+03	1.658663E-16	5.753405E-17
2.240000E+03	1.726152E-16	5.917905E-17
2.280000E+03	1.797408E-16	6.089028E-17
2.320000E+03	1.873152E-16	6.268529E-17
2.360000E+03	1.952997E-16	6.454362E-17
2.400000E+03	2.037090E-16	6.646239E-17
2.440000E+03	2.126167E-16	6.845710E-17
2.480000E+03	2.219774E-16	7.050371E-17
2.520000E+03	2.318641E-16	7.261558E-17
2.560000E+03	2.422241E-16	7.476552E-17
2.600000E+03	2.531279E-16	7.696409E-17
2.640000E+03	2.645130E-16	7.918027E-17
2.680000E+03	2.763754E-16	8.140081E-17
2.720000E+03	2.888463E-16	8.365112E-17
2.760000E+03	3.017750E-16	8.587313E-17
2.800000E+03	3.152851E-16	8.808787E-17
2.840000E+03	3.292788E-16	9.025243E-17
2.880000E+03	3.437190E-16	9.234170E-17
2.920000E+03	3.587921E-16	9.438961E-17
2.960000E+03	3.742919E-16	9.632425E-17
3.000000E+03	3.903109E-16	9.815299E-17
3.010000E+03	3.943729E-16	9.858556E-17
3.020000E+03	3.985122E-16	9.902133E-17
3.030000E+03	4.026461E-16	9.943935E-17
3.040000E+03	4.068548E-16	9.985924E-17
3.050000E+03	4.110550E-16	1.002601E-16
3.060000E+03	4.153274E-16	1.006616E-16
3.070000E+03	4.195878E-16	1.010427E-16
3.080000E+03	4.239174E-16	1.014229E-16
3.090000E+03	4.282313E-16	1.017816E-16
3.100000E+03	4.326952E-16	1.021577E-16
3.110000E+03	4.370555E-16	1.024909E-16
3.120000E+03	4.415627E-16	1.028400E-16
3.130000E+03	4.460462E-16	1.031646E-16
3.140000E+03	4.505885E-16	1.034837E-16
3.150000E+03	4.551024E-16	1.037768E-16
3.160000E+03	4.597562E-16	1.040822E-16
3.170000E+03	4.643769E-16	1.043601E-16
3.180000E+03	4.690477E-16	1.046290E-16
3.190000E+03	4.737661E-16	1.048880E-16
3.200000E+03	4.785296E-16	1.051363E-16
3.210000E+03	4.833358E-16	1.053727E-16
3.220000E+03	4.881818E-16	1.055965E-16
3.230000E+03	4.930648E-16	1.058067E-16
3.240000E+03	4.979818E-16	1.060021E-16
3.250000E+03	5.029297E-16	1.061820E-16
3.260000E+03	5.079053E-16	1.063453E-16
3.270000E+03	5.129927E-16	1.065092E-16
3.280000E+03	5.180136E-16	1.066362E-16
3.290000E+03	5.231393E-16	1.067616E-16
3.300000E+03	5.283664E-16	1.068839E-16
3.310000E+03	5.336032E-16	1.069841E-16
3.320000E+03	5.388459E-16	1.070613E-16
3.330000E+03	5.441779E-16	1.071316E-16
3.340000E+03	5.495071E-16	1.071767E-16
3.350000E+03	5.549170E-16	1.072123E-16
3.360000E+03	5.604028E-16	1.072371E-16
3.370000E+03	5.658719E-16	1.072331E-16
3.380000E+03	5.714071E-16	1.072156E-16
3.390000E+03	5.770031E-16	1.071833E-16
3.400000E+03	5.826545E-16	1.071347E-16
3.410000E+03	5.883556E-16	1.070684E-16
3.420000E+03	5.941006E-16	1.069830E-16
3.430000E+03	5.998834E-16	1.068770E-16
3.440000E+03	6.057848E-16	1.067644E-16
3.450000E+03	6.116241E-16	1.066130E-16
3.460000E+03	6.175686E-16	1.064518E-16
3.470000E+03	6.235243E-16	1.062643E-16
3.480000E+03	6.295706E-16	1.060637E-16
3.490000E+03	6.356994E-16	1.058480E-16
3.500000E+03	6.418168E-16	1.056014E-16
3.510000E+03	6.479153E-16	1.053227E-16
3.520000E+03	6.541575E-16	1.050380E-16
3.530000E+03	6.604486E-16	1.047317E-16
3.540000E+03	6.666951E-16	1.043886E-16
3.550000E+03	6.730570E-16	1.040340E-16
3.560000E+03	6.793563E-16	1.036401E-16
3.570000E+03	6.857510E-16	1.032310E-16
3.580000E+03	6.922302E-16	1.028047E-16
3.590000E+03	6.986999E-16	1.023472E-16
3.600000E+03	7.051499E-16	1.018570E-16
3.610000E+03	7.116514E-16	1.013446E-16
3.620000E+03	7.181925E-16	1.008083E-16
3.630000E+03	7.247611E-16	1.002464E-16
3.640000E+03	7.313447E-16	9.965725E-17
3.650000E+03	7.378515E-16	9.902872E-17
3.660000E+03	7.444285E-16	9.838104E-17
3.670000E+03	7.509828E-16	9.770205E-17
3.680000E+03	7.575796E-16	9.700062E-17
3.690000E+03	7.641270E-16	9.626532E-17
3.700000E+03	7.706887E-16	9.550482E-17
3.710000E+03	7.771740E-16	9.470846E-17
3.720000E+03	7.837205E-16	9.389377E-17
3.730000E+03	7.901624E-16	9.304139E-17
3.740000E+03	7.966345E-16	9.216822E-17
3.750000E+03	8.029737E-16	9.125620E-17
3.760000E+03	8.093850E-16	9.032974E-17
3.770000E+03	8.156342E-16	8.936354E-17
3.780000E+03	8.218512E-16	8.837336E-17
3.790000E+03	8.280195E-16	8.735856E-17
3.800000E+03	8.341230E-16	8.631869E-17
3.810000E+03	8.401458E-16	8.525354E-17
3.820000E+03	8.460720E-16	8.416308E-17
3.830000E+03	8.519535E-16	8.305406E-17
3.840000E+03	8.577065E-16	8.191995E-17
3.850000E+03	8.633166E-16	8.076140E-17
3.860000E+03	8.688986E-16	7.959111E-17
3.870000E+03	8.743065E-16	7.839754E-17
3.880000E+03	8.795902E-16	7.718755E-17
3.890000E+03	8.847965E-16	7.596742E-17
3.900000E+03	8.898474E-16	7.473264E-17
3.910000E+03	8.947291E-16	7.348465E-17
3.920000E+03	8.994879E-16	7.222989E-17
3.930000E+03	9.041673E-16	7.097427E-17
3.940000E+03	9.086355E-16	6.971005E-17
3.950000E+03	9.129384E-16	6.844377E-17
3.960000E+03	9.171194E-16	6.718154E-17
3.970000E+03	9.211094E-16	6.592117E-17
3.980000E+03	9.249519E-16	6.466882E-17
3.990000E+03	9.286347E-16	6.342658E-17
4.000000E+03	9.321467E-16	6.219670E-17
4.010000E+03	9.354781E-16	6.098150E-17
4.020000E+03	9.386204E-16	5.978332E-17
4.030000E+03	9.416162E-16	5.860756E-17
4.040000E+03	9.444573E-16	5.745602E-17
4.050000E+03	9.471375E-16	5.633034E-17
4.060000E+03	9.496523E-16	5.523195E-17
4.070000E+03	9.519987E-16	5.416202E-17
4.080000E+03	9.541753E-16	5.312142E-17
4.090000E+03	9.562259E-16	5.211313E-17
4.100000E+03	9.581050E-16	5.113481E-17
4.110000E+03	9.598989E-16	5.019087E-17
4.120000E+03	9.615633E-16	4.927839E-17
4.130000E+03	9.630579E-16	4.839458E-17
4.140000E+03	9.645069E-16	4.754473E-17
4.150000E+03	9.657908E-16	4.672167E-17
4.160000E+03	9.670318E-16	4.593000E-17
4.170000E+03	9.681556E-16	4.516464E-17
4.180000E+03	9.692066E-16	4.442610E-17
4.190000E+03	9.701914E-16	4.371305E-17
4.200000E+03	9.711182E-16	4.302422E-17
4.210000E+03	9.720308E-16	4.235997E-17
4.220000E+03	9.729036E-16	4.171768E-17
4.230000E+03	9.737479E-16	4.109654E-17
4.240000E+03	9.746085E-16	4.049726E-17
4.250000E+03	9.754960E-16	3.991927E-17
4.260000E+03	9.763907E-16	3.936091E-17
4.270000E+03	9.773374E-16	3.882335E-17
4.280000E+03	9.783486E-16	3.830655E-17
4.290000E+03	9.794377E-16	3.781061E-17
4.300000E+03	9.806183E-16	3.733581E-17
4.310000E+03	9.818764E-16	3.688143E-17
4.320000E+03	9.832835E-16	3.645007E-17
4.330000E+03	9.847982E-16	3.604010E-17
4.340000E+03	9.864368E-16	3.565206E-17
4.350000E+03	9.882410E-16	3.528726E-17
4.360000E+03	9.902246E-16	3.494585E-17
4.370000E+03	9.923755E-16	3.462680E-17
4.380000E+03	9.946829E-16	3.432890E-17
4.390000E+03	9.972109E-16	3.405322E-17
4.400000E+03	9.999248E-16	3.379706E-17
4.410000E+03	1.002865E-15	3.355996E-17
4.420000E+03	1.006000E-15	3.333884E-17
4.430000E+03	1.009372E-15	3.313282E-17
4.440000E+03	1.013001E-15	3.294008E-17
4.450000E+03	1.016860E-15	3.275734E-17
4.460000E+03	1.021014E-15	3.258417E-17
4.470000E+03	1.025420E-15	3.241673E-17
4.480000E+03	1.030120E-15	3.225407E-17
4.490000E+03	1.035138E-15	3.209470E-17
4.500000E+03	1.040495E-15	3.193731E-17
4.510000E+03	1.046193E-15	3.178020E-17
4.520000E+03	1.052254E-15	3.162254E-17
4.530000E+03	1.058720E-15	3.146433E-17
4.540000E+03	1.065611E-15	3.130515E-17
4.550000E+03	1.072961E-15	3.114529E-17
4.560000E+03	1.080746E-15	3.098348E-17
4.570000E+03	1.089009E-15	3.082078E-17
4.580000E+03	1.097696E-15	3.065564E-17
4.590000E+03	1.106798E-15	3.048828E-17
4.600000E+03	1.116286E-15	3.031862E-17
4.610000E+03	1.126140E-15	3.014742E-17
4.620000E+03	1.136317E-15	2.997540E-17
4.630000E+03	1.146754E-15	2.980348E-17
4.640000E+03	1.157441E-15	2.963478E-17
4.650000E+03	1.168293E-15	2.947143E-17
4.660000E+03	1.179300E-15	2.931828E-17
4.670000E+03	1.190414E-15	2.918013E-17
4.680000E+03	1.201556E-15	2.906160E-17
4.690000E+03	1.212723E-15	2.896954E-17
4.700000E+03	1.223876E-15	2.891009E-17
4.710000E+03	1.234951E-15	2.888832E-17
4.720000E+03	1.245956E-15	2.891025E-17
4.730000E+03	1.256837E-15	2.897912E-17
4.740000E+03	1.267599E-15	2.909778E-17
4.750000E+03	1.278203E-15	2.926605E-17
4.760000E+03	1.288686E-15	2.948334E-17
4.770000E+03	1.299022E-15	2.974568E-17
4.780000E+03	1.309224E-15	3.004849E-17
4.790000E+03	1.319291E-15	3.038578E-17
4.800000E+03	1.329242E-15	3.075150E-17
4.810000E+03	1.339077E-15	3.113918E-17
4.820000E+03	1.348814E-15	3.154314E-17
4.830000E+03	1.358469E-15	3.195837E-17
4.840000E+03	1.368023E-15	3.237994E-17
4.850000E+03	1.377502E-15	3.280510E-17
4.860000E+03	1.386947E-15	3.323253E-17
4.870000E+03	1.396342E-15	3.366091E-17
4.880000E+03	1.405703E-15	3.409074E-17
4.890000E+03	1.415036E-15	3.452355E-17
4.900000E+03	1.424346E-15	3.496170E-17
4.910000E+03	1.433613E-15	3.540773E-17
4.920000E+03	1.442841E-15	3.586513E-17
4.930000E+03	1.451995E-15	3.633629E-17
4.940000E+03	1.461062E-15	3.682361E-17
4.950000E+03	1.469980E-15	3.732709E-17
4.960000E+03	1.478746E-15	3.784693E-17
4.970000E+03	1.487329E-15	3.838101E-17
4.980000E+03	1.495670E-15	3.892506E-17
4.990000E+03	1.503781E-15	3.947540E-17
5.000000E+03	1.511646E-15	4.002686E-17
5.010000E+03	1.519252E-15	4.057386E-17
5.020000E+03	1.526593E-15	4.111066E-17
5.030000E+03	1.533661E-15	4.163155E-17
5.040000E+03	1.540466E-15	4.213147E-17
5.050000E+03	1.547003E-15	4.260525E-17
5.060000E+03	1.553281E-15	4.304862E-17
5.070000E+03	1.559296E-15	4.345733E-17
5.080000E+03	1.565039E-15	4.382765E-17
5.090000E+03	1.570536E-15	4.415723E-17
5.100000E+03	1.575764E-15	4.444282E-17
5.110000E+03	1.580750E-15	4.468286E-17
5.120000E+03	1.585489E-15	4.487517E-17
5.130000E+03	1.589975E-15	4.501770E-17
5.140000E+03	1.594236E-15	4.510938E-17
5.150000E+03	1.598268E-15	4.514817E-17
5.160000E+03	1.602078E-15	4.513246E-17
5.170000E+03	1.605675E-15	4.506063E-17
5.180000E+03	1.609046E-15	4.493067E-17
5.190000E+03	1.612190E-15	4.474120E-17
5.200000E+03	1.615105E-15	4.449116E-17
5.210000E+03	1.617801E-15	4.418035E-17
5.220000E+03	1.620237E-15	4.380770E-17
5.230000E+03	1.622403E-15	4.337362E-17
5.240000E+03	1.624303E-15	4.287946E-17
5.250000E+03	1.625925E-15	4.232672E-17
5.260000E+03	1.627222E-15	4.171656E-17
5.270000E+03	1.628213E-15	4.105231E-17
5.280000E+03	1.628854E-15	4.033602E-17
5.290000E+03	1.629147E-15	3.957129E-17
5.300000E+03	1.629083E-15	3.876157E-17
5.310000E+03	1.628633E-15	3.791013E-17
5.320000E+03	1.627787E-15	3.702095E-17
5.330000E+03	1.626534E-15	3.609837E-17
5.340000E+03	1.624862E-15	3.514733E-17
5.350000E+03	1.622742E-15	3.417315E-17
5.360000E+03	1.620178E-15	3.318282E-17
5.370000E+03	1.617142E-15	3.218370E-17
5.380000E+03	1.613622E-15	3.118457E-17
5.390000E+03	1.609596E-15	3.019492E-17
5.400000E+03	1.605059E-15	2.922536E-17
5.410000E+03	1.600033E-15	2.828720E-17
5.420000E+03	1.594498E-15	2.739088E-17
5.430000E+03	1.588462E-15	2.654657E-17
5.440000E+03	1.581996E-15	2.576414E-17
5.450000E+03	1.575117E-15	2.505091E-17
5.460000E+03	1.567887E-15	2.441312E-17
5.470000E+03	1.560357E-15	2.385514E-17
5.480000E+03	1.552584E-15	2.337964E-17
5.490000E+03	1.544659E-15	2.298778E-17
5.500000E+03	1.536628E-15	2.267770E-17
5.510000E+03	1.528566E-15	2.244536E-17
5.520000E+03	1.520516E-15	2.228363E-17
5.530000E+03	1.512565E-15	2.218359E-17
5.540000E+03	1.504745E-15	2.213375E-17
5.550000E+03	1.497110E-15	2.212213E-17
5.560000E+03	1.489680E-15	2.213644E-17
5.570000E+03	1.482508E-15	2.216608E-17
5.580000E+03	1.475571E-15	2.220101E-17
5.590000E+03	1.468926E-15	2.223444E-17
5.600000E+03	1.462558E-15	2.226040E-17
5.610000E+03	1.456480E-15	2.227502E-17
5.620000E+03	1.450706E-15	2.227566E-17
5.630000E+03	1.445251E-15	2.226055E-17
5.640000E+03	1.440134E-15	2.222850E-17
5.650000E+03	1.435346E-15	2.217836E-17
5.660000E+03	1.430935E-15	2.211024E-17
5.670000E+03	1.426888E-15	2.202394E-17
5.680000E+03	1.423233E-15	2.192060E-17
5.690000E+03	1.419951E-15	2.180158E-17
5.700000E+03	1.417043E-15	2.166967E-17
5.710000E+03	1.414509E-15	2.152866E-17
5.720000E+03	1.412343E-15	2.138326E-17
5.730000E+03	1.410510E-15	2.123840E-17
5.740000E+03	1.409014E-15	2.109993E-17
5.750000E+03	1.407818E-15	2.097314E-17
5.760000E+03	1.406914E-15	2.086355E-17
5.770000E+03	1.406294E-15	2.077638E-17
5.780000E+03	1.405941E-15	2.071612E-17
5.790000E+03	1.405839E-15	2.068655E-17
5.800000E+03	1.405985E-15	2.069050E-17
5.810000E+03	1.406362E-15	2.072913E-17
5.820000E+03	1.406964E-15	2.080191E-17
5.830000E+03	1.407758E-15	2.090577E-17
5.840000E+03	1.408733E-15	2.103572E-17
5.850000E+03	1.409881E-15	2.118467E-17
5.860000E+03	1.411178E-15	2.134353E-17
5.870000E+03	1.412602E-15	2.150198E-17
5.880000E+03	1.414129E-15	2.164903E-17
5.890000E+03	1.415737E-15	2.177373E-17
5.900000E+03	1.417422E-15	2.186619E-17
5.910000E+03	1.419141E-15	2.191711E-17
5.920000E+03	1.420870E-15	2.191926E-17
5.930000E+03	1.422572E-15	2.186721E-17
5.940000E+03	1.424205E-15	2.175777E-17
5.950000E+03	1.425741E-15	2.159031E-17
5.960000E+03	1.427136E-15	2.136637E-17
5.970000E+03	1.428351E-15	2.108984E-17
5.980000E+03	1.429360E-15	2.076699E-17
5.990000E+03	1.430131E-15	2.040589E-17
6.000000E+03	1.430638E-15	2.001633E-17
6.010000E+03	1.430876E-15	1.960964E-17
6.020000E+03	1.430851E-15	1.919824E-17
6.030000E+03	1.430560E-15	1.879512E-17
6.040000E+03	1.429992E-15	1.841347E-17
6.050000E+03	1.429190E-15	1.806709E-17
6.060000E+03	1.428133E-15	1.776821E-17
6.070000E+03	1.426864E-15	1.752836E-17
6.080000E+03	1.425377E-15	1.735599E-17
6.090000E+03	1.423691E-15	1.725655E-17
6.100000E+03	1.421831E-15	1.723148E-17
6.110000E+03	1.419810E-15	1.727784E-17
6.120000E+03	1.417673E-15	1.738908E-17
6.130000E+03	1.415427E-15	1.755513E-17
6.140000E+03	1.413120E-15	1.776446E-17
6.150000E+03	1.410786E-15	1.800470E-17
6.160000E+03	1.408457E-15	1.826397E-17
6.170000E+03	1.406149E-15	1.853159E-17
6.180000E+03	1.403898E-15	1.879910E-17
6.190000E+03	1.401741E-15	1.906007E-17
6.200000E+03	1.399685E-15	1.930971E-17
6.210000E+03	1.397766E-15	1.954533E-17
6.220000E+03	1.396025E-15	1.976564E-17
6.230000E+03	1.394495E-15	1.997026E-17
6.240000E+03	1.393242E-15	2.015999E-17
6.250000E+03	1.392315E-15	2.033585E-17
6.260000E+03	1.391767E-15	2.049933E-17
6.270000E+03	1.391684E-15	2.065279E-17
6.280000E+03	1.392115E-15	2.079864E-17
6.290000E+03	1.393135E-15	2.094044E-17
6.300000E+03	1.394810E-15	2.108265E-17
6.310000E+03	1.397215E-15	2.123123E-17
6.320000E+03	1.400429E-15	2.139351E-17
6.330000E+03	1.404527E-15	2.157806E-17
6.340000E+03	1.409562E-15	2.179383E-17
6.350000E+03	1.415636E-15	2.205075E-17
6.360000E+03	1.422797E-15	2.235723E-17
6.370000E+03	1.431128E-15	2.272080E-17
6.380000E+03	1.440690E-15	2.314655E-17
6.390000E+03	1.451509E-15	2.363663E-17
6.400000E+03	1.463640E-15	2.419134E-17
6.410000E+03	1.477111E-15	2.480838E-17
6.420000E+03	1.491921E-15	2.548301E-17
6.430000E+03	1.508054E-15	2.620847E-17
6.440000E+03	1.525507E-15	2.697671E-17
6.450000E+03	1.544211E-15	2.777731E-17
6.460000E+03	1.564107E-15	2.859896E-17
6.470000E+03	1.585110E-15	2.942926E-17
6.480000E+03	1.607100E-15	3.025471E-17
6.490000E+03	1.629946E-15	3.106172E-17
6.500000E+03	1.653463E-15	3.183591E-17
6.510000E+03	1.677454E-15	3.256332E-17
6.520000E+03	1.701746E-15	3.323117E-17
6.530000E+03	1.726030E-15	3.382503E-17
6.540000E+03	1.750062E-15	3.433284E-17
6.550000E+03	1.773466E-15	3.474137E-17
6.560000E+03	1.795897E-15	3.503954E-17
6.570000E+03	1.816914E-15	3.521642E-17
6.580000E+03	1.836105E-15	3.526392E-17
6.590000E+03	1.852964E-15	3.517486E-17
6.600000E+03	1.867057E-15	3.494639E-17
6.610000E+03	1.877904E-15	3.457792E-17
6.620000E+03	1.885096E-15	3.407323E-17
6.630000E+03	1.888259E-15	3.343963E-17
6.640000E+03	1.887100E-15	3.268823E-17
6.650000E+03	1.881433E-15	3.183381E-17
6.660000E+03	1.871223E-15	3.089464E-17
6.670000E+03	1.856535E-15	2.989080E-17
6.680000E+03	1.837620E-15	2.884464E-17
6.690000E+03	1.814833E-15	2.777873E-17
6.700000E+03	1.788606E-15	2.671467E-17
6.710000E+03	1.759483E-15	2.567266E-17
6.720000E+03	1.728025E-15	2.466925E-17
6.730000E+03	1.694812E-15	2.371670E-17
6.740000E+03	1.660397E-15	2.282253E-17
6.750000E+03	1.625369E-15	2.199128E-17
6.760000E+03	1.590197E-15	2.122397E-17
6.770000E+03	1.555374E-15	2.052133E-17
6.780000E+03	1.521258E-15	1.988282E-17
6.790000E+03	1.488195E-15	1.930884E-17
6.800000E+03	1.456447E-15	1.880013E-17
6.810000E+03	1.426198E-15	1.835776E-17
6.820000E+03	1.397602E-15	1.798361E-17
6.830000E+03	1.370738E-15	1.767928E-17
6.840000E+03	1.345635E-15	1.744581E-17
6.850000E+03	1.322243E-15	1.728278E-17
6.860000E+03	1.300535E-15	1.718931E-17
6.870000E+03	1.280423E-15	1.716312E-17
6.880000E+03	1.261782E-15	1.720128E-17
6.890000E+03	1.244475E-15	1.730102E-17
6.900000E+03	1.228406E-15	1.746091E-17
6.910000E+03	1.213431E-15	1.768005E-17
6.920000E+03	1.199410E-15	1.795882E-17
6.930000E+03	1.186253E-15	1.829931E-17
6.940000E+03	1.173819E-15	1.870346E-17
6.950000E+03	1.162003E-15	1.917365E-17
6.960000E+03	1.150728E-15	1.971186E-17
6.970000E+03	1.139898E-15	2.031827E-17
6.980000E+03	1.129446E-15	2.099132E-17
6.990000E+03	1.119335E-15	2.172741E-17
7.000000E+03	1.109500E-15	2.251988E-17
7.010000E+03	1.099929E-15	2.336078E-17
7.020000E+03	1.090610E-15	2.424055E-17
7.030000E+03	1.081522E-15	2.514881E-17
7.040000E+03	1.072678E-15	2.607593E-17
7.050000E+03	1.064076E-15	2.701265E-17
7.060000E+03	1.055693E-15	2.794989E-17
7.070000E+03	1.047555E-15	2.888090E-17
7.080000E+03	1.039651E-15	2.979889E-17
7.090000E+03	1.031981E-15	3.069833E-17
7.100000E+03	1.024534E-15	3.157414E-17
7.110000E+03	1.017323E-15	3.242276E-17
7.120000E+03	1.010346E-15	3.324096E-17
7.130000E+03	1.003605E-15	3.402611E-17
7.140000E+03	9.970713E-16	3.477523E-17
7.150000E+03	9.907706E-16	3.548753E-17
7.160000E+03	9.846884E-16	3.616133E-17
7.170000E+03	9.788355E-16	3.679624E-17
7.180000E+03	9.731849E-16	3.739083E-17
7.190000E+03	9.677472E-16	3.794533E-17
7.200000E+03	9.625201E-16	3.845981E-17
7.210000E+03	9.574888E-16	3.893411E-17
7.220000E+03	9.526632E-16	3.936932E-17
7.230000E+03	9.480406E-16	3.976626E-17
7.240000E+03	9.435940E-16	4.012497E-17
7.250000E+03	9.393451E-16	4.044778E-17
7.260000E+03	9.352911E-16	4.073624E-17
7.270000E+03	9.314048E-16	4.099106E-17
7.280000E+03	9.276955E-16	4.121480E-17
7.290000E+03	9.241604E-16	4.140975E-17
7.300000E+03	9.207966E-16	4.157845E-17
7.310000E+03	9.175890E-16	4.172320E-17
7.320000E+03	9.145587E-16	4.184820E-17
7.330000E+03	9.116668E-16	4.195521E-17
7.340000E+03	9.089344E-16	4.204904E-17
7.350000E+03	9.063583E-16	4.213372E-17
7.360000E+03	9.039237E-16	4.221301E-17
7.370000E+03	9.016275E-16	4.229153E-17
7.380000E+03	8.994667E-16	4.237417E-17
7.390000E+03	8.974382E-16	4.246610E-17
7.400000E+03	8.955390E-16	4.257270E-17
7.410000E+03	8.937781E-16	4.270012E-17
7.420000E+03	8.921283E-16	4.285291E-17
7.430000E+03	8.905984E-16	4.303741E-17
7.440000E+03	8.891975E-16	4.325996E-17
7.450000E+03	8.878980E-16	4.352505E-17
7.460000E+03	8.867089E-16	4.383872E-17
7.470000E+03	8.856268E-16	4.420615E-17
7.480000E+03	8.846605E-16	4.463279E-17
7.490000E+03	8.837824E-16	4.512175E-17
7.500000E+03	8.830132E-16	4.567810E-17
7.510000E+03	8.823374E-16	4.630444E-17
7.520000E+03	8.817637E-16	4.700403E-17
7.530000E+03	8.812761E-16	4.777816E-17
7.540000E+03	8.808833E-16	4.862877E-17
7.550000E+03	8.805941E-16	4.955722E-17
7.560000E+03	8.803801E-16	5.056218E-17
7.570000E+03	8.802624E-16	5.164455E-17
7.580000E+03	8.802375E-16	5.280338E-17
7.590000E+03	8.802767E-16	5.403573E-17
7.600000E+03	8.804139E-16	5.534211E-17
7.610000E+03	8.806206E-16	5.671892E-17
7.620000E+03	8.809182E-16	5.816548E-17
7.630000E+03	8.812781E-16	5.967771E-17
7.640000E+03	8.817222E-16	6.125478E-17
7.650000E+03	8.822346E-16	6.289323E-17
7.660000E+03	8.828246E-16	6.459139E-17
7.670000E+03	8.834763E-16	6.634576E-17
7.680000E+03	8.842124E-16	6.815575E-17
7.690000E+03	8.850041E-16	7.001701E-17
7.700000E+03	8.858615E-16	7.192814E-17
7.710000E+03	8.867816E-16	7.388690E-17
7.720000E+03	8.877750E-16	7.589226E-17
7.730000E+03	8.888259E-16	7.794111E-17
7.740000E+03	8.899319E-16	8.003150E-17
7.750000E+03	8.911037E-16	8.216281E-17
7.760000E+03	8.923392E-16	8.433341E-17
