#wls	flux	fluxerr
1.600000E+03	3.001036E-17	1.525877E-17
1.640000E+03	3.113169E-17	1.573664E-17
1.680000E+03	3.229137E-17	1.622493E-17
1.720000E+03	3.351975E-17	1.673815E-17
1.760000E+03	3.478944E-17	1.726173E-17
1.800000E+03	3.612174E-17	1.780542E-17
1.840000E+03	3.751870E-17	1.836920E-17
1.880000E+03	3.897156E-17	1.894777E-17
1.920000E+03	4.049248E-17	1.954596E-17
1.960000E+03	4.208328E-17	2.016345E-17
2.000000E+03	4.373415E-17	2.079430E-17
2.040000E+03	4.545759E-17	2.144318E-17
2.080000E+03	4.726692E-17	2.211491E-17
2.120000E+03	4.913952E-17	2.279737E-17
2.160000E+03	5.108800E-17	2.349490E-17
2.200000E+03	5.311292E-17	2.420610E-17
2.240000E+03	5.522758E-17	2.493525E-17
2.280000E+03	5.740595E-17	2.566873E-17
2.320000E+03	5.968750E-17	2.642229E-17
2.360000E+03	6.203115E-17	2.717560E-17
2.400000E+03	6.447700E-17	2.794419E-17
2.440000E+03	6.699566E-17	2.871296E-17
2.480000E+03	6.959907E-17	2.948480E-17
2.520000E+03	7.228457E-17	3.025616E-17
2.560000E+03	7.504875E-17	3.102316E-17
2.600000E+03	7.790297E-17	3.178788E-17
2.640000E+03	8.082715E-17	3.253947E-17
2.680000E+03	8.383140E-17	3.327937E-17
2.720000E+03	8.690957E-17	3.400234E-17
2.760000E+03	9.005452E-17	3.470283E-17
2.800000E+03	9.327481E-17	3.538133E-17
2.840000E+03	9.654491E-17	3.602529E-17
2.880000E+03	9.987169E-17	3.663462E-17
2.920000E+03	1.032444E-16	3.720264E-17
2.960000E+03	1.066686E-16	3.772867E-17
3.000000E+03	1.101144E-16	3.819945E-17
3.010000E+03	1.109948E-16	3.831361E-17
3.020000E+03	1.118522E-16	3.841574E-17
3.030000E+03	1.127395E-16	3.852401E-17
3.040000E+03	1.136035E-16	3.862008E-17
3.050000E+03	1.144792E-16	3.871596E-17
3.060000E+03	1.153487E-16	3.880551E-17
3.070000E+03	1.162296E-16	3.889460E-17
3.080000E+03	1.171038E-16	3.897714E-17
3.090000E+03	1.179889E-16	3.905897E-17
3.100000E+03	1.188668E-16	3.913403E-17
3.110000E+03	1.197373E-16	3.920224E-17
3.120000E+03	1.206180E-16	3.926938E-17
3.130000E+03	1.214907E-16	3.932945E-17
3.140000E+03	1.223732E-16	3.938818E-17
3.150000E+03	1.232472E-16	3.943966E-17
3.160000E+03	1.241304E-16	3.948953E-17
3.170000E+03	1.250046E-16	3.953195E-17
3.180000E+03	1.258875E-16	3.957251E-17
3.190000E+03	1.267609E-16	3.960542E-17
3.200000E+03	1.276425E-16	3.963622E-17
3.210000E+03	1.285140E-16	3.965919E-17
3.220000E+03	1.293751E-16	3.967426E-17
3.230000E+03	1.302436E-16	3.968689E-17
3.240000E+03	1.311193E-16	3.969692E-17
3.250000E+03	1.319838E-16	3.969877E-17
3.260000E+03	1.328548E-16	3.969779E-17
3.270000E+03	1.337142E-16	3.968847E-17
3.280000E+03	1.345796E-16	3.967609E-17
3.290000E+03	1.354327E-16	3.965521E-17
3.300000E+03	1.362912E-16	3.963105E-17
3.310000E+03	1.371370E-16	3.959826E-17
3.320000E+03	1.379877E-16	3.956199E-17
3.330000E+03	1.388430E-16	3.952208E-17
3.340000E+03	1.396847E-16	3.947331E-17
3.350000E+03	1.405305E-16	3.942071E-17
3.360000E+03	1.413621E-16	3.935914E-17
3.370000E+03	1.421972E-16	3.929356E-17
3.380000E+03	1.430177E-16	3.921892E-17
3.390000E+03	1.438590E-16	3.914495E-17
3.400000E+03	1.446673E-16	3.905693E-17
3.410000E+03	1.454958E-16	3.896934E-17
3.420000E+03	1.463086E-16	3.887245E-17
3.430000E+03	1.471054E-16	3.876627E-17
3.440000E+03	1.479216E-16	3.866012E-17
3.450000E+03	1.487037E-16	3.853996E-17
3.460000E+03	1.495045E-16	3.841960E-17
3.470000E+03	1.502885E-16	3.828979E-17
3.480000E+03	1.510729E-16	3.815502E-17
3.490000E+03	1.518577E-16	3.801520E-17
3.500000E+03	1.526248E-16	3.786586E-17
3.510000E+03	1.533917E-16	3.771138E-17
3.520000E+03	1.541582E-16	3.755166E-17
3.530000E+03	1.549064E-16	3.738240E-17
3.540000E+03	1.556537E-16	3.720782E-17
3.550000E+03	1.563998E-16	3.702786E-17
3.560000E+03	1.571271E-16	3.683837E-17
3.570000E+03	1.578528E-16	3.664344E-17
3.580000E+03	1.585766E-16	3.644301E-17
3.590000E+03	1.592984E-16	3.623700E-17
3.600000E+03	1.600177E-16	3.602535E-17
3.610000E+03	1.607175E-16	3.580422E-17
3.620000E+03	1.614146E-16	3.557745E-17
3.630000E+03	1.620918E-16	3.534130E-17
3.640000E+03	1.627829E-16	3.510314E-17
3.650000E+03	1.634538E-16	3.485563E-17
3.660000E+03	1.641213E-16	3.460241E-17
3.670000E+03	1.647852E-16	3.434344E-17
3.680000E+03	1.654453E-16	3.407870E-17
3.690000E+03	1.660849E-16	3.380478E-17
3.700000E+03	1.667204E-16	3.352515E-17
3.710000E+03	1.673518E-16	3.323979E-17
3.720000E+03	1.679787E-16	3.294867E-17
3.730000E+03	1.686012E-16	3.265180E-17
3.740000E+03	1.692029E-16	3.234607E-17
3.750000E+03	1.698160E-16	3.203772E-17
3.760000E+03	1.704082E-16	3.172062E-17
3.770000E+03	1.709955E-16	3.139787E-17
3.780000E+03	1.715619E-16	3.106660E-17
3.790000E+03	1.721392E-16	3.073264E-17
3.800000E+03	1.727113E-16	3.039308E-17
3.810000E+03	1.732625E-16	3.004521E-17
3.820000E+03	1.738084E-16	2.969190E-17
3.830000E+03	1.743491E-16	2.933316E-17
3.840000E+03	1.748846E-16	2.896905E-17
3.850000E+03	1.754146E-16	2.859960E-17
3.860000E+03	1.759392E-16	2.822485E-17
3.870000E+03	1.764432E-16	2.784245E-17
3.880000E+03	1.769570E-16	2.745732E-17
3.890000E+03	1.774503E-16	2.706474E-17
3.900000E+03	1.779382E-16	2.666721E-17
3.910000E+03	1.784208E-16	2.626478E-17
3.920000E+03	1.788981E-16	2.585752E-17
3.930000E+03	1.793701E-16	2.544552E-17
3.940000E+03	1.798221E-16	2.502682E-17
3.950000E+03	1.802837E-16	2.460565E-17
3.960000E+03	1.807255E-16	2.417806E-17
3.970000E+03	1.811767E-16	2.374811E-17
3.980000E+03	1.816085E-16	2.331207E-17
3.990000E+03	1.820353E-16	2.287200E-17
4.000000E+03	1.824574E-16	2.242803E-17
4.010000E+03	1.828747E-16	2.198031E-17
4.020000E+03	1.832873E-16	2.152898E-17
4.030000E+03	1.836813E-16	2.107260E-17
4.040000E+03	1.840849E-16	2.061461E-17
4.050000E+03	1.844703E-16	2.015203E-17
4.060000E+03	1.848653E-16	1.968813E-17
4.070000E+03	1.852424E-16	1.922017E-17
4.080000E+03	1.856156E-16	1.874989E-17
4.090000E+03	1.859849E-16	1.827757E-17
4.100000E+03	1.863506E-16	1.780348E-17
4.110000E+03	1.866994E-16	1.732673E-17
4.120000E+03	1.870580E-16	1.685017E-17
4.130000E+03	1.874003E-16	1.637178E-17
4.140000E+03	1.877394E-16	1.589320E-17
4.150000E+03	1.880757E-16	1.541493E-17
4.160000E+03	1.884091E-16	1.493751E-17
4.170000E+03	1.887399E-16	1.446153E-17
4.180000E+03	1.890682E-16	1.398767E-17
4.190000E+03	1.893814E-16	1.351579E-17
4.200000E+03	1.897051E-16	1.304860E-17
4.210000E+03	1.900141E-16	1.258531E-17
4.220000E+03	1.903214E-16	1.212793E-17
4.230000E+03	1.906146E-16	1.167696E-17
4.240000E+03	1.909186E-16	1.123537E-17
4.250000E+03	1.912090E-16	1.080333E-17
4.260000E+03	1.914982E-16	1.038342E-17
4.270000E+03	1.917864E-16	9.977754E-18
4.280000E+03	1.920737E-16	9.588685E-18
4.290000E+03	1.923483E-16	9.218294E-18
4.300000E+03	1.926224E-16	8.870132E-18
4.310000E+03	1.928960E-16	8.547399E-18
4.320000E+03	1.931693E-16	8.253523E-18
4.330000E+03	1.934309E-16	7.991601E-18
4.340000E+03	1.936926E-16	7.765747E-18
4.350000E+03	1.939544E-16	7.579401E-18
4.360000E+03	1.942165E-16	7.435638E-18
4.370000E+03	1.944677E-16	7.336491E-18
4.380000E+03	1.947197E-16	7.284001E-18
4.390000E+03	1.949614E-16	7.278297E-18
4.400000E+03	1.952043E-16	7.319189E-18
4.410000E+03	1.954486E-16	7.404954E-18
4.420000E+03	1.956836E-16	7.532497E-18
4.430000E+03	1.959205E-16	7.698837E-18
4.440000E+03	1.961595E-16	7.900132E-18
4.450000E+03	1.963903E-16	8.131897E-18
4.460000E+03	1.966239E-16	8.390510E-18
4.470000E+03	1.968499E-16	8.671610E-18
4.480000E+03	1.970793E-16	8.971992E-18
4.490000E+03	1.973019E-16	9.287821E-18
4.500000E+03	1.975284E-16	9.616543E-18
4.510000E+03	1.977591E-16	9.955466E-18
4.520000E+03	1.979839E-16	1.030167E-17
4.530000E+03	1.982033E-16	1.065303E-17
4.540000E+03	1.984277E-16	1.100821E-17
4.550000E+03	1.986472E-16	1.136502E-17
4.560000E+03	1.988722E-16	1.172261E-17
4.570000E+03	1.990930E-16	1.207913E-17
4.580000E+03	1.993099E-16	1.243347E-17
4.590000E+03	1.995331E-16	1.278526E-17
4.600000E+03	1.997529E-16	1.313303E-17
4.610000E+03	1.999793E-16	1.347666E-17
4.620000E+03	2.002029E-16	1.381483E-17
4.630000E+03	2.004240E-16	1.414694E-17
4.640000E+03	2.006523E-16	1.447313E-17
4.650000E+03	2.008691E-16	1.479156E-17
4.660000E+03	2.011030E-16	1.510388E-17
4.670000E+03	2.013260E-16	1.540761E-17
4.680000E+03	2.015477E-16	1.570309E-17
4.690000E+03	2.017776E-16	1.599074E-17
4.700000E+03	2.020066E-16	1.626957E-17
4.710000E+03	2.022350E-16	1.653930E-17
4.720000E+03	2.024720E-16	1.680046E-17
4.730000E+03	2.026997E-16	1.705134E-17
4.740000E+03	2.029364E-16	1.729324E-17
4.750000E+03	2.031644E-16	1.752447E-17
4.760000E+03	2.034016E-16	1.774641E-17
4.770000E+03	2.036394E-16	1.795813E-17
4.780000E+03	2.038779E-16	1.815949E-17
4.790000E+03	2.041173E-16	1.835039E-17
4.800000E+03	2.043578E-16	1.853069E-17
4.810000E+03	2.045995E-16	1.870030E-17
4.820000E+03	2.048341E-16	1.885833E-17
4.830000E+03	2.050790E-16	1.900627E-17
4.840000E+03	2.053256E-16	1.914325E-17
4.850000E+03	2.055741E-16	1.926920E-17
4.860000E+03	2.058247E-16	1.938405E-17
4.870000E+03	2.060691E-16	1.948695E-17
4.880000E+03	2.063243E-16	1.957943E-17
4.890000E+03	2.065738E-16	1.965985E-17
4.900000E+03	2.068260E-16	1.972896E-17
4.910000E+03	2.070811E-16	1.978674E-17
4.920000E+03	2.073392E-16	1.983314E-17
4.930000E+03	2.076005E-16	1.986813E-17
4.940000E+03	2.078570E-16	1.989092E-17
4.950000E+03	2.081170E-16	1.990226E-17
4.960000E+03	2.083807E-16	1.990216E-17
4.970000E+03	2.086482E-16	1.989058E-17
4.980000E+03	2.089116E-16	1.986679E-17
4.990000E+03	2.091792E-16	1.983153E-17
5.000000E+03	2.094432E-16	1.978408E-17
5.010000E+03	2.097195E-16	1.972594E-17
5.020000E+03	2.099926E-16	1.965565E-17
5.030000E+03	2.102627E-16	1.957325E-17
5.040000E+03	2.105377E-16	1.947951E-17
5.050000E+03	2.108179E-16	1.937446E-17
5.060000E+03	2.111034E-16	1.925815E-17
5.070000E+03	2.113867E-16	1.912994E-17
5.080000E+03	2.116680E-16	1.898990E-17
5.090000E+03	2.119552E-16	1.883882E-17
5.100000E+03	2.122409E-16	1.867611E-17
5.110000E+03	2.125328E-16	1.850253E-17
5.120000E+03	2.128312E-16	1.831820E-17
5.130000E+03	2.131287E-16	1.812258E-17
5.140000E+03	2.134256E-16	1.791584E-17
5.150000E+03	2.137296E-16	1.769877E-17
5.160000E+03	2.140334E-16	1.747093E-17
5.170000E+03	2.143448E-16	1.723312E-17
5.180000E+03	2.146565E-16	1.698496E-17
5.190000E+03	2.149761E-16	1.672730E-17
5.200000E+03	2.152966E-16	1.645983E-17
5.210000E+03	2.156181E-16	1.618288E-17
5.220000E+03	2.159411E-16	1.589679E-17
5.230000E+03	2.162729E-16	1.560252E-17
5.240000E+03	2.166066E-16	1.529994E-17
5.250000E+03	2.169497E-16	1.499008E-17
5.260000E+03	2.172952E-16	1.467296E-17
5.270000E+03	2.176433E-16	1.434923E-17
5.280000E+03	2.179943E-16	1.401960E-17
5.290000E+03	2.183556E-16	1.368533E-17
5.300000E+03	2.187132E-16	1.334643E-17
5.310000E+03	2.190816E-16	1.300481E-17
5.320000E+03	2.194609E-16	1.266161E-17
5.330000E+03	2.198373E-16	1.231733E-17
5.340000E+03	2.202252E-16	1.197431E-17
5.350000E+03	2.206105E-16	1.163349E-17
5.360000E+03	2.210076E-16	1.129757E-17
5.370000E+03	2.214167E-16	1.096875E-17
5.380000E+03	2.218240E-16	1.064882E-17
5.390000E+03	2.222365E-16	1.034095E-17
5.400000E+03	2.226614E-16	1.004858E-17
5.410000E+03	2.230848E-16	9.774520E-18
5.420000E+03	2.235209E-16	9.523138E-18
5.430000E+03	2.239627E-16	9.298113E-18
5.440000E+03	2.244103E-16	9.103604E-18
5.450000E+03	2.248637E-16	8.943799E-18
5.460000E+03	2.253230E-16	8.822747E-18
5.470000E+03	2.257881E-16	8.744137E-18
5.480000E+03	2.262591E-16	8.711073E-18
5.490000E+03	2.267360E-16	8.725834E-18
5.500000E+03	2.272188E-16	8.789703E-18
5.510000E+03	2.277076E-16	8.902887E-18
5.520000E+03	2.282023E-16	9.064550E-18
5.530000E+03	2.287030E-16	9.272954E-18
5.540000E+03	2.292097E-16	9.525656E-18
5.550000E+03	2.297225E-16	9.819717E-18
5.560000E+03	2.302412E-16	1.015191E-17
5.570000E+03	2.307660E-16	1.051890E-17
5.580000E+03	2.312966E-16	1.091738E-17
5.590000E+03	2.318332E-16	1.134415E-17
5.600000E+03	2.323754E-16	1.179624E-17
5.610000E+03	2.329166E-16	1.227050E-17
5.620000E+03	2.334700E-16	1.276514E-17
5.630000E+03	2.340219E-16	1.327714E-17
5.640000E+03	2.345790E-16	1.380483E-17
5.650000E+03	2.351410E-16	1.434636E-17
5.660000E+03	2.357077E-16	1.490013E-17
5.670000E+03	2.362789E-16	1.546468E-17
5.680000E+03	2.368544E-16	1.603872E-17
5.690000E+03	2.374270E-16	1.662064E-17
5.700000E+03	2.380100E-16	1.721035E-17
5.710000E+03	2.385897E-16	1.780598E-17
5.720000E+03	2.391724E-16	1.840716E-17
5.730000E+03	2.397580E-16	1.901319E-17
5.740000E+03	2.403392E-16	1.962283E-17
5.750000E+03	2.409292E-16	2.023658E-17
5.760000E+03	2.415143E-16	2.085277E-17
5.770000E+03	2.421009E-16	2.147147E-17
5.780000E+03	2.426885E-16	2.209222E-17
5.790000E+03	2.432701E-16	2.271397E-17
5.800000E+03	2.438521E-16	2.333695E-17
5.810000E+03	2.444341E-16	2.396079E-17
5.820000E+03	2.450157E-16	2.458516E-17
5.830000E+03	2.455967E-16	2.520977E-17
5.840000E+03	2.461697E-16	2.583361E-17
5.850000E+03	2.467413E-16	2.645709E-17
5.860000E+03	2.473043E-16	2.707921E-17
5.870000E+03	2.478718E-16	2.770121E-17
5.880000E+03	2.484300E-16	2.832135E-17
5.890000E+03	2.489851E-16	2.894016E-17
5.900000E+03	2.495301E-16	2.955662E-17
5.910000E+03	2.500713E-16	3.017131E-17
5.920000E+03	2.506084E-16	3.078404E-17
5.930000E+03	2.511410E-16	3.139462E-17
5.940000E+03	2.516618E-16	3.200200E-17
5.950000E+03	2.521774E-16	3.260685E-17
5.960000E+03	2.526873E-16	3.320900E-17
5.970000E+03	2.531843E-16	3.380737E-17
5.980000E+03	2.536748E-16	3.440269E-17
5.990000E+03	2.541585E-16	3.499480E-17
6.000000E+03	2.546282E-16	3.558260E-17
6.010000E+03	2.550902E-16	3.616685E-17
6.020000E+03	2.555443E-16	3.674741E-17
6.030000E+03	2.559831E-16	3.732315E-17
6.040000E+03	2.564133E-16	3.789489E-17
6.050000E+03	2.568342E-16	3.846248E-17
6.060000E+03	2.572389E-16	3.902476E-17
6.070000E+03	2.576337E-16	3.958260E-17
6.080000E+03	2.580182E-16	4.013587E-17
6.090000E+03	2.583852E-16	4.068336E-17
6.100000E+03	2.587413E-16	4.122599E-17
6.110000E+03	2.590860E-16	4.176363E-17
6.120000E+03	2.594121E-16	4.229504E-17
6.130000E+03	2.597262E-16	4.282118E-17
6.140000E+03	2.600209E-16	4.334079E-17
6.150000E+03	2.603098E-16	4.385603E-17
6.160000E+03	2.605717E-16	4.436331E-17
6.170000E+03	2.608271E-16	4.486597E-17
6.180000E+03	2.610617E-16	4.536154E-17
6.190000E+03	2.612822E-16	4.585110E-17
6.200000E+03	2.614882E-16	4.633451E-17
6.210000E+03	2.616725E-16	4.681044E-17
6.220000E+03	2.618417E-16	4.727999E-17
6.230000E+03	2.619954E-16	4.774305E-17
6.240000E+03	2.621265E-16	4.819825E-17
6.250000E+03	2.622415E-16	4.864672E-17
6.260000E+03	2.623402E-16	4.908836E-17
6.270000E+03	2.624153E-16	4.952178E-17
6.280000E+03	2.624735E-16	4.994814E-17
6.290000E+03	2.625145E-16	5.036737E-17
6.300000E+03	2.625380E-16	5.077936E-17
6.310000E+03	2.625369E-16	5.118268E-17
6.320000E+03	2.625178E-16	5.157856E-17
6.330000E+03	2.624805E-16	5.196692E-17
6.340000E+03	2.624178E-16	5.234631E-17
6.350000E+03	2.623434E-16	5.271936E-17
6.360000E+03	2.622432E-16	5.308326E-17
6.370000E+03	2.621171E-16	5.343791E-17
6.380000E+03	2.619786E-16	5.378600E-17
6.390000E+03	2.618137E-16	5.412469E-17
6.400000E+03	2.616293E-16	5.445529E-17
6.410000E+03	2.614251E-16	5.477774E-17
6.420000E+03	2.612010E-16	5.509200E-17
6.430000E+03	2.609569E-16	5.539799E-17
6.440000E+03	2.606858E-16	5.569422E-17
6.450000E+03	2.603945E-16	5.598208E-17
6.460000E+03	2.600828E-16	5.626152E-17
6.470000E+03	2.597508E-16	5.653251E-17
6.480000E+03	2.593983E-16	5.679501E-17
6.490000E+03	2.590185E-16	5.704750E-17
6.500000E+03	2.586249E-16	5.729294E-17
6.510000E+03	2.582040E-16	5.752829E-17
6.520000E+03	2.577626E-16	5.775505E-17
6.530000E+03	2.573006E-16	5.797321E-17
6.540000E+03	2.568249E-16	5.818427E-17
6.550000E+03	2.563153E-16	5.838365E-17
6.560000E+03	2.557920E-16	5.857595E-17
6.570000E+03	2.552483E-16	5.875963E-17
6.580000E+03	2.546845E-16	5.893470E-17
6.590000E+03	2.541005E-16	5.910119E-17
6.600000E+03	2.534965E-16	5.925911E-17
6.610000E+03	2.528659E-16	5.940693E-17
6.620000E+03	2.522223E-16	5.954779E-17
6.630000E+03	2.515592E-16	5.968018E-17
6.640000E+03	2.508766E-16	5.980412E-17
6.650000E+03	2.501683E-16	5.991809E-17
6.660000E+03	2.494476E-16	6.002530E-17
6.670000E+03	2.487081E-16	6.012421E-17
6.680000E+03	2.479502E-16	6.021489E-17
6.690000E+03	2.471739E-16	6.029740E-17
6.700000E+03	2.463797E-16	6.037180E-17
6.710000E+03	2.455677E-16	6.043817E-17
6.720000E+03	2.447447E-16	6.049819E-17
6.730000E+03	2.438981E-16	6.054873E-17
6.740000E+03	2.430411E-16	6.059309E-17
6.750000E+03	2.421676E-16	6.062975E-17
6.760000E+03	2.412714E-16	6.065719E-17
6.770000E+03	2.403657E-16	6.067872E-17
6.780000E+03	2.394509E-16	6.069446E-17
6.790000E+03	2.385145E-16	6.070126E-17
6.800000E+03	2.375697E-16	6.070249E-17
6.810000E+03	2.366040E-16	6.069499E-17
6.820000E+03	2.356369E-16	6.068375E-17
6.830000E+03	2.346498E-16	6.066402E-17
6.840000E+03	2.336493E-16	6.063753E-17
6.850000E+03	2.326422E-16	6.060603E-17
6.860000E+03	2.316224E-16	6.056802E-17
6.870000E+03	2.305906E-16	6.052361E-17
6.880000E+03	2.295531E-16	6.047458E-17
6.890000E+03	2.285043E-16	6.041940E-17
6.900000E+03	2.274445E-16	6.035821E-17
6.910000E+03	2.263742E-16	6.029114E-17
6.920000E+03	2.252998E-16	6.021995E-17
6.930000E+03	2.242157E-16	6.014314E-17
6.940000E+03	2.231283E-16	6.006248E-17
6.950000E+03	2.220319E-16	5.997646E-17
6.960000E+03	2.209270E-16	5.988522E-17
6.970000E+03	2.198139E-16	5.978888E-17
6.980000E+03	2.186990E-16	5.968923E-17
6.990000E+03	2.175828E-16	5.958639E-17
7.000000E+03	2.164536E-16	5.947722E-17
7.010000E+03	2.153297E-16	5.936676E-17
7.020000E+03	2.141936E-16	5.925024E-17
7.030000E+03	2.130576E-16	5.913106E-17
7.040000E+03	2.119219E-16	5.900935E-17
7.050000E+03	2.107753E-16	5.888197E-17
7.060000E+03	2.096356E-16	5.875395E-17
7.070000E+03	2.084915E-16	5.862214E-17
7.080000E+03	2.073433E-16	5.848668E-17
7.090000E+03	2.061971E-16	5.834932E-17
7.100000E+03	2.050476E-16	5.820855E-17
7.110000E+03	2.039007E-16	5.806612E-17
7.120000E+03	2.027511E-16	5.792052E-17
7.130000E+03	2.016047E-16	5.777350E-17
7.140000E+03	2.004561E-16	5.762355E-17
7.150000E+03	1.993114E-16	5.747239E-17
7.160000E+03	1.981651E-16	5.731853E-17
7.170000E+03	1.970231E-16	5.716369E-17
7.180000E+03	1.958801E-16	5.700636E-17
7.190000E+03	1.947419E-16	5.684826E-17
7.200000E+03	1.936088E-16	5.668948E-17
7.210000E+03	1.924754E-16	5.652853E-17
7.220000E+03	1.913475E-16	5.636710E-17
7.230000E+03	1.902198E-16	5.620369E-17
7.240000E+03	1.890979E-16	5.603998E-17
7.250000E+03	1.879768E-16	5.587448E-17
7.260000E+03	1.868619E-16	5.570887E-17
7.270000E+03	1.857534E-16	5.554322E-17
7.280000E+03	1.846461E-16	5.537604E-17
7.290000E+03	1.835456E-16	5.520899E-17
7.300000E+03	1.824520E-16	5.504215E-17
7.310000E+03	1.813602E-16	5.487401E-17
7.320000E+03	1.802755E-16	5.470622E-17
7.330000E+03	1.791929E-16	5.453728E-17
7.340000E+03	1.781177E-16	5.436883E-17
7.350000E+03	1.770501E-16	5.420094E-17
7.360000E+03	1.759849E-16	5.403209E-17
7.370000E+03	1.749326E-16	5.386551E-17
7.380000E+03	1.738778E-16	5.369650E-17
7.390000E+03	1.728361E-16	5.352986E-17
7.400000E+03	1.717972E-16	5.336250E-17
7.410000E+03	1.707664E-16	5.319604E-17
7.420000E+03	1.697386E-16	5.302894E-17
7.430000E+03	1.687191E-16	5.286284E-17
7.440000E+03	1.677077E-16	5.269778E-17
7.450000E+03	1.667047E-16	5.253380E-17
7.460000E+03	1.657049E-16	5.236936E-17
7.470000E+03	1.647135E-16	5.220607E-17
7.480000E+03	1.637304E-16	5.204398E-17
7.490000E+03	1.627508E-16	5.188154E-17
7.500000E+03	1.617796E-16	5.172036E-17
7.510000E+03	1.608169E-16	5.156045E-17
7.520000E+03	1.598625E-16	5.140186E-17
7.530000E+03	1.589118E-16	5.124304E-17
7.540000E+03	1.579694E-16	5.108558E-17
7.550000E+03	1.570355E-16	5.092949E-17
7.560000E+03	1.561052E-16	5.077325E-17
7.570000E+03	1.551880E-16	5.061997E-17
7.580000E+03	1.542745E-16	5.046658E-17
7.590000E+03	1.533645E-16	5.031307E-17
7.600000E+03	1.524676E-16	5.016258E-17
7.610000E+03	1.515743E-16	5.001200E-17
7.620000E+03	1.506893E-16	4.986291E-17
7.630000E+03	1.498125E-16	4.971530E-17
7.640000E+03	1.489439E-16	4.956918E-17
7.650000E+03	1.480787E-16	4.942301E-17
7.660000E+03	1.472216E-16	4.927834E-17
7.670000E+03	1.463726E-16	4.913518E-17
7.680000E+03	1.455316E-16	4.899352E-17
7.690000E+03	1.446940E-16	4.885182E-17
7.700000E+03	1.438688E-16	4.871316E-17
7.710000E+03	1.430468E-16	4.857446E-17
7.720000E+03	1.422327E-16	4.843726E-17
7.730000E+03	1.414217E-16	4.830000E-17
7.740000E+03	1.406229E-16	4.816577E-17
7.750000E+03	1.398271E-16	4.803147E-17
7.760000E+03	1.390389E-16	4.789864E-17
