#wls	flux	fluxerr
1.600000E+03	1.893534E-17	1.008096E-17
1.640000E+03	1.957469E-17	1.036592E-17
1.680000E+03	2.024331E-17	1.066104E-17
1.720000E+03	2.093493E-17	1.096258E-17
1.760000E+03	2.165766E-17	1.127431E-17
1.800000E+03	2.241259E-17	1.159628E-17
1.840000E+03	2.319294E-17	1.192443E-17
1.880000E+03	2.400733E-17	1.226264E-17
1.920000E+03	2.485684E-17	1.261082E-17
1.960000E+03	2.574254E-17	1.296883E-17
2.000000E+03	2.666550E-17	1.333647E-17
2.040000E+03	2.761790E-17	1.370911E-17
2.080000E+03	2.861825E-17	1.409513E-17
2.120000E+03	2.964959E-17	1.448530E-17
2.160000E+03	3.072169E-17	1.488353E-17
2.200000E+03	3.183542E-17	1.528929E-17
2.240000E+03	3.299156E-17	1.570194E-17
2.280000E+03	3.419085E-17	1.612075E-17
2.320000E+03	3.543393E-17	1.654489E-17
2.360000E+03	3.672134E-17	1.697344E-17
2.400000E+03	3.805352E-17	1.740536E-17
2.440000E+03	3.943081E-17	1.783949E-17
2.480000E+03	4.086482E-17	1.827968E-17
2.520000E+03	4.233305E-17	1.871437E-17
2.560000E+03	4.385849E-17	1.915233E-17
2.600000E+03	4.542949E-17	1.958680E-17
2.640000E+03	4.704567E-17	2.001601E-17
2.680000E+03	4.870644E-17	2.043808E-17
2.720000E+03	5.042399E-17	2.085635E-17
2.760000E+03	5.218494E-17	2.126338E-17
2.800000E+03	5.398812E-17	2.165692E-17
2.840000E+03	5.584594E-17	2.204000E-17
2.880000E+03	5.774360E-17	2.240477E-17
2.920000E+03	5.969359E-17	2.275406E-17
2.960000E+03	6.168019E-17	2.307976E-17
3.000000E+03	6.370121E-17	2.337911E-17
3.010000E+03	6.422408E-17	2.345407E-17
3.020000E+03	6.473320E-17	2.352141E-17
3.030000E+03	6.525824E-17	2.359191E-17
3.040000E+03	6.576929E-17	2.365470E-17
3.050000E+03	6.629628E-17	2.372055E-17
3.060000E+03	6.682419E-17	2.378401E-17
3.070000E+03	6.735298E-17	2.384504E-17
3.080000E+03	6.788258E-17	2.390358E-17
3.090000E+03	6.841295E-17	2.395960E-17
3.100000E+03	6.894402E-17	2.401305E-17
3.110000E+03	6.949119E-17	2.406924E-17
3.120000E+03	7.002356E-17	2.411741E-17
3.130000E+03	7.057202E-17	2.416821E-17
3.140000E+03	7.110546E-17	2.421092E-17
3.150000E+03	7.165499E-17	2.425616E-17
3.160000E+03	7.220500E-17	2.429854E-17
3.170000E+03	7.275542E-17	2.433802E-17
3.180000E+03	7.330619E-17	2.437455E-17
3.190000E+03	7.385724E-17	2.440811E-17
3.200000E+03	7.442450E-17	2.444388E-17
3.210000E+03	7.497601E-17	2.447131E-17
3.220000E+03	7.552762E-17	2.449563E-17
3.230000E+03	7.609541E-17	2.452200E-17
3.240000E+03	7.666329E-17	2.454514E-17
3.250000E+03	7.723119E-17	2.456500E-17
3.260000E+03	7.779905E-17	2.458155E-17
3.270000E+03	7.836680E-17	2.459474E-17
3.280000E+03	7.893438E-17	2.460454E-17
3.290000E+03	7.950173E-17	2.461090E-17
3.300000E+03	8.006877E-17	2.461377E-17
3.310000E+03	8.065201E-17	2.461819E-17
3.320000E+03	8.121830E-17	2.461398E-17
3.330000E+03	8.180076E-17	2.461119E-17
3.340000E+03	8.238276E-17	2.460472E-17
3.350000E+03	8.296422E-17	2.459454E-17
3.360000E+03	8.354509E-17	2.458060E-17
3.370000E+03	8.412529E-17	2.456288E-17
3.380000E+03	8.470475E-17	2.454134E-17
3.390000E+03	8.528342E-17	2.451593E-17
3.400000E+03	8.587823E-17	2.449149E-17
3.410000E+03	8.645515E-17	2.445824E-17
3.420000E+03	8.704816E-17	2.442582E-17
3.430000E+03	8.762305E-17	2.438459E-17
3.440000E+03	8.821401E-17	2.434408E-17
3.450000E+03	8.880385E-17	2.429946E-17
3.460000E+03	8.939252E-17	2.425070E-17
3.470000E+03	8.997994E-17	2.419776E-17
3.480000E+03	9.058342E-17	2.414526E-17
3.490000E+03	9.116819E-17	2.408386E-17
3.500000E+03	9.176898E-17	2.402278E-17
3.510000E+03	9.235084E-17	2.395282E-17
3.520000E+03	9.294866E-17	2.388306E-17
3.530000E+03	9.354491E-17	2.380890E-17
3.540000E+03	9.413954E-17	2.373033E-17
3.550000E+03	9.473248E-17	2.364731E-17
3.560000E+03	9.532366E-17	2.355983E-17
3.570000E+03	9.591301E-17	2.346786E-17
3.580000E+03	9.651824E-17	2.337569E-17
3.590000E+03	9.710379E-17	2.327466E-17
3.600000E+03	9.770517E-17	2.317332E-17
3.610000E+03	9.830453E-17	2.306736E-17
3.620000E+03	9.888391E-17	2.295259E-17
3.630000E+03	9.947903E-17	2.283736E-17
3.640000E+03	1.000720E-16	2.271746E-17
3.650000E+03	1.006806E-16	2.259692E-17
3.660000E+03	1.012690E-16	2.246761E-17
3.670000E+03	1.018550E-16	2.233359E-17
3.680000E+03	1.024566E-16	2.219879E-17
3.690000E+03	1.030377E-16	2.205531E-17
3.700000E+03	1.036344E-16	2.191096E-17
3.710000E+03	1.042285E-16	2.176179E-17
3.720000E+03	1.048199E-16	2.160783E-17
3.730000E+03	1.054087E-16	2.144906E-17
3.740000E+03	1.059948E-16	2.128548E-17
3.750000E+03	1.065780E-16	2.111710E-17
3.760000E+03	1.071768E-16	2.094751E-17
3.770000E+03	1.077543E-16	2.076950E-17
3.780000E+03	1.083472E-16	2.059021E-17
3.790000E+03	1.089188E-16	2.040261E-17
3.800000E+03	1.095057E-16	2.021366E-17
3.810000E+03	1.100895E-16	2.001988E-17
3.820000E+03	1.106701E-16	1.982128E-17
3.830000E+03	1.112476E-16	1.961789E-17
3.840000E+03	1.118219E-16	1.940973E-17
3.850000E+03	1.123929E-16	1.919682E-17
3.860000E+03	1.129790E-16	1.898230E-17
3.870000E+03	1.135432E-16	1.875993E-17
3.880000E+03	1.141226E-16	1.853592E-17
3.890000E+03	1.146985E-16	1.830720E-17
3.900000E+03	1.152523E-16	1.807089E-17
3.910000E+03	1.158211E-16	1.783290E-17
3.920000E+03	1.163864E-16	1.759033E-17
3.930000E+03	1.169479E-16	1.734323E-17
3.940000E+03	1.175244E-16	1.709435E-17
3.950000E+03	1.180786E-16	1.683830E-17
3.960000E+03	1.186290E-16	1.657790E-17
3.970000E+03	1.191942E-16	1.631578E-17
3.980000E+03	1.197369E-16	1.604685E-17
3.990000E+03	1.202944E-16	1.577626E-17
4.000000E+03	1.208479E-16	1.550153E-17
4.010000E+03	1.213975E-16	1.522279E-17
4.020000E+03	1.219431E-16	1.494012E-17
4.030000E+03	1.224846E-16	1.465365E-17
4.040000E+03	1.230220E-16	1.436352E-17
4.050000E+03	1.235553E-16	1.406985E-17
4.060000E+03	1.240844E-16	1.377281E-17
4.070000E+03	1.246281E-16	1.347459E-17
4.080000E+03	1.251488E-16	1.317127E-17
4.090000E+03	1.256840E-16	1.286704E-17
4.100000E+03	1.261962E-16	1.255826E-17
4.110000E+03	1.267228E-16	1.224894E-17
4.120000E+03	1.272450E-16	1.193744E-17
4.130000E+03	1.277629E-16	1.162406E-17
4.140000E+03	1.282764E-16	1.130915E-17
4.150000E+03	1.287854E-16	1.099307E-17
4.160000E+03	1.292901E-16	1.067626E-17
4.170000E+03	1.297902E-16	1.035917E-17
4.180000E+03	1.303046E-16	1.004378E-17
4.190000E+03	1.307958E-16	9.727753E-18
4.200000E+03	1.312824E-16	9.413242E-18
4.210000E+03	1.317833E-16	9.102299E-18
4.220000E+03	1.322609E-16	8.793147E-18
4.230000E+03	1.327527E-16	8.489289E-18
4.240000E+03	1.332399E-16	8.190533E-18
4.250000E+03	1.337226E-16	7.898123E-18
4.260000E+03	1.341821E-16	7.612408E-18
4.270000E+03	1.346558E-16	7.337128E-18
4.280000E+03	1.351249E-16	7.072956E-18
4.290000E+03	1.355895E-16	6.821865E-18
4.300000E+03	1.360496E-16	6.586027E-18
4.310000E+03	1.365238E-16	6.368665E-18
4.320000E+03	1.369749E-16	6.170519E-18
4.330000E+03	1.374217E-16	5.995087E-18
4.340000E+03	1.378640E-16	5.844969E-18
4.350000E+03	1.383206E-16	5.723414E-18
4.360000E+03	1.387542E-16	5.631088E-18
4.370000E+03	1.392021E-16	5.571307E-18
4.380000E+03	1.396271E-16	5.543782E-18
4.390000E+03	1.400665E-16	5.550483E-18
4.400000E+03	1.404831E-16	5.589652E-18
4.410000E+03	1.409139E-16	5.661710E-18
4.420000E+03	1.413406E-16	5.764222E-18
4.430000E+03	1.417447E-16	5.894205E-18
4.440000E+03	1.421630E-16	6.050620E-18
4.450000E+03	1.425772E-16	6.229981E-18
4.460000E+03	1.429872E-16	6.429515E-18
4.470000E+03	1.433931E-16	6.646509E-18
4.480000E+03	1.437949E-16	6.878391E-18
4.490000E+03	1.441926E-16	7.122767E-18
4.500000E+03	1.445862E-16	7.377447E-18
4.510000E+03	1.449758E-16	7.640450E-18
4.520000E+03	1.453615E-16	7.909995E-18
4.530000E+03	1.457431E-16	8.184494E-18
4.540000E+03	1.461209E-16	8.462531E-18
4.550000E+03	1.464947E-16	8.742848E-18
4.560000E+03	1.468647E-16	9.024328E-18
4.570000E+03	1.472309E-16	9.305976E-18
4.580000E+03	1.475933E-16	9.586904E-18
4.590000E+03	1.479519E-16	9.866323E-18
4.600000E+03	1.483250E-16	1.014476E-17
4.610000E+03	1.486763E-16	1.041914E-17
4.620000E+03	1.490240E-16	1.069009E-17
4.630000E+03	1.493682E-16	1.095710E-17
4.640000E+03	1.497089E-16	1.121970E-17
4.650000E+03	1.500461E-16	1.147747E-17
4.660000E+03	1.503979E-16	1.173141E-17
4.670000E+03	1.507283E-16	1.197841E-17
4.680000E+03	1.510554E-16	1.221951E-17
4.690000E+03	1.513792E-16	1.245442E-17
4.700000E+03	1.516998E-16	1.268285E-17
4.710000E+03	1.520172E-16	1.290456E-17
4.720000E+03	1.523493E-16	1.312085E-17
4.730000E+03	1.526604E-16	1.332845E-17
4.740000E+03	1.529684E-16	1.352867E-17
4.750000E+03	1.532734E-16	1.372132E-17
4.760000E+03	1.535755E-16	1.390624E-17
4.770000E+03	1.538745E-16	1.408325E-17
4.780000E+03	1.541706E-16	1.425221E-17
4.790000E+03	1.544638E-16	1.441296E-17
4.800000E+03	1.547541E-16	1.456538E-17
4.810000E+03	1.550415E-16	1.470934E-17
4.820000E+03	1.553261E-16	1.484473E-17
4.830000E+03	1.556079E-16	1.497142E-17
4.840000E+03	1.558694E-16	1.508764E-17
4.850000E+03	1.561455E-16	1.519665E-17
4.860000E+03	1.564189E-16	1.529668E-17
4.870000E+03	1.566895E-16	1.538765E-17
4.880000E+03	1.569400E-16	1.546778E-17
4.890000E+03	1.572050E-16	1.554039E-17
4.900000E+03	1.574499E-16	1.560202E-17
4.910000E+03	1.577094E-16	1.565602E-17
4.920000E+03	1.579488E-16	1.569890E-17
4.930000E+03	1.582026E-16	1.573406E-17
4.940000E+03	1.584363E-16	1.575801E-17
4.950000E+03	1.586673E-16	1.577243E-17
4.960000E+03	1.588954E-16	1.577729E-17
4.970000E+03	1.591377E-16	1.577425E-17
4.980000E+03	1.593599E-16	1.575991E-17
4.990000E+03	1.595791E-16	1.573593E-17
5.000000E+03	1.597954E-16	1.570231E-17
5.010000E+03	1.599916E-16	1.565739E-17
5.020000E+03	1.602017E-16	1.560449E-17
5.030000E+03	1.604086E-16	1.554195E-17
5.040000E+03	1.605954E-16	1.546816E-17
5.050000E+03	1.607957E-16	1.538641E-17
5.060000E+03	1.609759E-16	1.529349E-17
5.070000E+03	1.611694E-16	1.519265E-17
5.080000E+03	1.613427E-16	1.508075E-17
5.090000E+03	1.615123E-16	1.495945E-17
5.100000E+03	1.616783E-16	1.482882E-17
5.110000E+03	1.618405E-16	1.468894E-17
5.120000E+03	1.619989E-16	1.453989E-17
5.130000E+03	1.621533E-16	1.438177E-17
5.140000E+03	1.623036E-16	1.421472E-17
5.150000E+03	1.624332E-16	1.403742E-17
5.160000E+03	1.625751E-16	1.385291E-17
5.170000E+03	1.626960E-16	1.365852E-17
5.180000E+03	1.628289E-16	1.345723E-17
5.190000E+03	1.629407E-16	1.324651E-17
5.200000E+03	1.630477E-16	1.302798E-17
5.210000E+03	1.631498E-16	1.280190E-17
5.220000E+03	1.632469E-16	1.256858E-17
5.230000E+03	1.633225E-16	1.232711E-17
5.240000E+03	1.634091E-16	1.208036E-17
5.250000E+03	1.634903E-16	1.182748E-17
5.260000E+03	1.635496E-16	1.156780E-17
5.270000E+03	1.636032E-16	1.130304E-17
5.280000E+03	1.636509E-16	1.103379E-17
5.290000E+03	1.636925E-16	1.076072E-17
5.300000E+03	1.637280E-16	1.048455E-17
5.310000E+03	1.637571E-16	1.020615E-17
5.320000E+03	1.637637E-16	9.925478E-18
5.330000E+03	1.637796E-16	9.645572E-18
5.340000E+03	1.637728E-16	9.365730E-18
5.350000E+03	1.637590E-16	9.088275E-18
5.360000E+03	1.637382E-16	8.814736E-18
5.370000E+03	1.637101E-16	8.546828E-18
5.380000E+03	1.636747E-16	8.286471E-18
5.390000E+03	1.636316E-16	8.035802E-18
5.400000E+03	1.635653E-16	7.796438E-18
5.410000E+03	1.634912E-16	7.571747E-18
5.420000E+03	1.634092E-16	7.364499E-18
5.430000E+03	1.633193E-16	7.177623E-18
5.440000E+03	1.632212E-16	7.014134E-18
5.450000E+03	1.631149E-16	6.877039E-18
5.460000E+03	1.629850E-16	6.768569E-18
5.470000E+03	1.628621E-16	6.692588E-18
5.480000E+03	1.627156E-16	6.649942E-18
5.490000E+03	1.625606E-16	6.642760E-18
5.500000E+03	1.623973E-16	6.671794E-18
5.510000E+03	1.622257E-16	6.737002E-18
5.520000E+03	1.620307E-16	6.836946E-18
5.530000E+03	1.618276E-16	6.970772E-18
5.540000E+03	1.616314E-16	7.137144E-18
5.550000E+03	1.614122E-16	7.332396E-18
5.560000E+03	1.611703E-16	7.553904E-18
5.570000E+03	1.609357E-16	7.800388E-18
5.580000E+03	1.606934E-16	8.068537E-18
5.590000E+03	1.604290E-16	8.355054E-18
5.600000E+03	1.601574E-16	8.658274E-18
5.610000E+03	1.598787E-16	8.975990E-18
5.620000E+03	1.595932E-16	9.306190E-18
5.630000E+03	1.592864E-16	9.646178E-18
5.640000E+03	1.589876E-16	9.996044E-18
5.650000E+03	1.586679E-16	1.035254E-17
5.660000E+03	1.583422E-16	1.071525E-17
5.670000E+03	1.580104E-16	1.108300E-17
5.680000E+03	1.576586E-16	1.145375E-17
5.690000E+03	1.573154E-16	1.182861E-17
5.700000E+03	1.569526E-16	1.220467E-17
5.710000E+03	1.565846E-16	1.258226E-17
5.720000E+03	1.562116E-16	1.296071E-17
5.730000E+03	1.558336E-16	1.333948E-17
5.740000E+03	1.554370E-16	1.371682E-17
5.750000E+03	1.550359E-16	1.409344E-17
5.760000E+03	1.546442E-16	1.447023E-17
5.770000E+03	1.542209E-16	1.484295E-17
5.780000E+03	1.538072E-16	1.521516E-17
5.790000E+03	1.533897E-16	1.558526E-17
5.800000E+03	1.529548E-16	1.595159E-17
5.810000E+03	1.525165E-16	1.631526E-17
5.820000E+03	1.520748E-16	1.667606E-17
5.830000E+03	1.516165E-16	1.703231E-17
5.840000E+03	1.511684E-16	1.738680E-17
5.850000E+03	1.507042E-16	1.773636E-17
5.860000E+03	1.502372E-16	1.808234E-17
5.870000E+03	1.497675E-16	1.842463E-17
5.880000E+03	1.492953E-16	1.876311E-17
5.890000E+03	1.488076E-16	1.909601E-17
5.900000E+03	1.483178E-16	1.942488E-17
5.910000E+03	1.478258E-16	1.974962E-17
5.920000E+03	1.473318E-16	2.007017E-17
5.930000E+03	1.468359E-16	2.038646E-17
5.940000E+03	1.463255E-16	2.069666E-17
5.950000E+03	1.458134E-16	2.100245E-17
5.960000E+03	1.452998E-16	2.130380E-17
5.970000E+03	1.447848E-16	2.160067E-17
5.980000E+03	1.442559E-16	2.189115E-17
5.990000E+03	1.437258E-16	2.217705E-17
6.000000E+03	1.431946E-16	2.245836E-17
6.010000E+03	1.426623E-16	2.273506E-17
6.020000E+03	1.421291E-16	2.300714E-17
6.030000E+03	1.415828E-16	2.327259E-17
6.040000E+03	1.410357E-16	2.353337E-17
6.050000E+03	1.404880E-16	2.378947E-17
6.060000E+03	1.399396E-16	2.404090E-17
6.070000E+03	1.393906E-16	2.428767E-17
6.080000E+03	1.388293E-16	2.452768E-17
6.090000E+03	1.382676E-16	2.476301E-17
6.100000E+03	1.377056E-16	2.499366E-17
6.110000E+03	1.371433E-16	2.521966E-17
6.120000E+03	1.365692E-16	2.543884E-17
6.130000E+03	1.359951E-16	2.565337E-17
6.140000E+03	1.354209E-16	2.586327E-17
6.150000E+03	1.348467E-16	2.606855E-17
6.160000E+03	1.342612E-16	2.626701E-17
6.170000E+03	1.336872E-16	2.646312E-17
6.180000E+03	1.331021E-16	2.665244E-17
6.190000E+03	1.325173E-16	2.683721E-17
6.200000E+03	1.319216E-16	2.701520E-17
6.210000E+03	1.313375E-16	2.719097E-17
6.220000E+03	1.307427E-16	2.735998E-17
6.230000E+03	1.301484E-16	2.752456E-17
6.240000E+03	1.295546E-16	2.768473E-17
6.250000E+03	1.289506E-16	2.783818E-17
6.260000E+03	1.283472E-16	2.798728E-17
6.270000E+03	1.277446E-16	2.813205E-17
6.280000E+03	1.271428E-16	2.827254E-17
6.290000E+03	1.265417E-16	2.840879E-17
6.300000E+03	1.259309E-16	2.853843E-17
6.310000E+03	1.253315E-16	2.866630E-17
6.320000E+03	1.247225E-16	2.878763E-17
6.330000E+03	1.241041E-16	2.890243E-17
6.340000E+03	1.234972E-16	2.901558E-17
6.350000E+03	1.228810E-16	2.912228E-17
6.360000E+03	1.222660E-16	2.922499E-17
6.370000E+03	1.216521E-16	2.932376E-17
6.380000E+03	1.210395E-16	2.941862E-17
6.390000E+03	1.204181E-16	2.950716E-17
6.400000E+03	1.197980E-16	2.959187E-17
6.410000E+03	1.191792E-16	2.967280E-17
6.420000E+03	1.185619E-16	2.975001E-17
6.430000E+03	1.179461E-16	2.982353E-17
6.440000E+03	1.173218E-16	2.989091E-17
6.450000E+03	1.166992E-16	2.995470E-17
6.460000E+03	1.160781E-16	3.001493E-17
6.470000E+03	1.154587E-16	3.007166E-17
6.480000E+03	1.148313E-16	3.012242E-17
6.490000E+03	1.142057E-16	3.016976E-17
6.500000E+03	1.135818E-16	3.021374E-17
6.510000E+03	1.129598E-16	3.025440E-17
6.520000E+03	1.123397E-16	3.029180E-17
6.530000E+03	1.117120E-16	3.032345E-17
6.540000E+03	1.110863E-16	3.035193E-17
6.550000E+03	1.104627E-16	3.037729E-17
6.560000E+03	1.098410E-16	3.039958E-17
6.570000E+03	1.092123E-16	3.041631E-17
6.580000E+03	1.085948E-16	3.043261E-17
6.590000E+03	1.079704E-16	3.044345E-17
6.600000E+03	1.073482E-16	3.045142E-17
6.610000E+03	1.067194E-16	3.045403E-17
6.620000E+03	1.061018E-16	3.045641E-17
6.630000E+03	1.054776E-16	3.045353E-17
6.640000E+03	1.048558E-16	3.044799E-17
6.650000E+03	1.042365E-16	3.043983E-17
6.660000E+03	1.036196E-16	3.042910E-17
6.670000E+03	1.029966E-16	3.041333E-17
6.680000E+03	1.023762E-16	3.039509E-17
6.690000E+03	1.017583E-16	3.037444E-17
6.700000E+03	1.011432E-16	3.035143E-17
6.710000E+03	1.005306E-16	3.032612E-17
6.720000E+03	9.991244E-17	3.029601E-17
6.730000E+03	9.930533E-17	3.026623E-17
6.740000E+03	9.869269E-17	3.023177E-17
6.750000E+03	9.807470E-17	3.019268E-17
6.760000E+03	9.746781E-17	3.015406E-17
6.770000E+03	9.685569E-17	3.011092E-17
6.780000E+03	9.625463E-17	3.006835E-17
6.790000E+03	9.564848E-17	3.002135E-17
6.800000E+03	9.504536E-17	2.997251E-17
6.810000E+03	9.443739E-17	2.991936E-17
6.820000E+03	9.384045E-17	2.986697E-17
6.830000E+03	9.323879E-17	2.981037E-17
6.840000E+03	9.264033E-17	2.975212E-17
6.850000E+03	9.204510E-17	2.969227E-17
6.860000E+03	9.145311E-17	2.963087E-17
6.870000E+03	9.085674E-17	2.956548E-17
6.880000E+03	9.027133E-17	2.950111E-17
6.890000E+03	8.968167E-17	2.943285E-17
6.900000E+03	8.909541E-17	2.936323E-17
6.910000E+03	8.850512E-17	2.928982E-17
6.920000E+03	8.792575E-17	2.921762E-17
6.930000E+03	8.734247E-17	2.914174E-17
6.940000E+03	8.677005E-17	2.906713E-17
6.950000E+03	8.619383E-17	2.898894E-17
6.960000E+03	8.561396E-17	2.890722E-17
6.970000E+03	8.504495E-17	2.882691E-17
6.980000E+03	8.447953E-17	2.874559E-17
6.990000E+03	8.391063E-17	2.866089E-17
7.000000E+03	8.334543E-17	2.857529E-17
7.010000E+03	8.278394E-17	2.848881E-17
7.020000E+03	8.222618E-17	2.840151E-17
7.030000E+03	8.166523E-17	2.831102E-17
7.040000E+03	8.111499E-17	2.822219E-17
7.050000E+03	8.056165E-17	2.813026E-17
7.060000E+03	8.001215E-17	2.803766E-17
7.070000E+03	7.946649E-17	2.794445E-17
7.080000E+03	7.892468E-17	2.785064E-17
7.090000E+03	7.838671E-17	2.775629E-17
7.100000E+03	7.784597E-17	2.765906E-17
7.110000E+03	7.730917E-17	2.756136E-17
7.120000E+03	7.677630E-17	2.746323E-17
7.130000E+03	7.624738E-17	2.736470E-17
7.140000E+03	7.572240E-17	2.726580E-17
7.150000E+03	7.520136E-17	2.716656E-17
7.160000E+03	7.467786E-17	2.706471E-17
7.170000E+03	7.416473E-17	2.696490E-17
7.180000E+03	7.364922E-17	2.686255E-17
7.190000E+03	7.313772E-17	2.676000E-17
7.200000E+03	7.263023E-17	2.665728E-17
7.210000E+03	7.212053E-17	2.655213E-17
7.220000E+03	7.162107E-17	2.644916E-17
7.230000E+03	7.111946E-17	2.634383E-17
7.240000E+03	7.062191E-17	2.623846E-17
7.250000E+03	7.012841E-17	2.613307E-17
7.260000E+03	6.963895E-17	2.602768E-17
7.270000E+03	6.915352E-17	2.592233E-17
7.280000E+03	6.867210E-17	2.581703E-17
7.290000E+03	6.818878E-17	2.570957E-17
7.300000E+03	6.771542E-17	2.560446E-17
7.310000E+03	6.724019E-17	2.549725E-17
7.320000E+03	6.676900E-17	2.539020E-17
7.330000E+03	6.630185E-17	2.528333E-17
7.340000E+03	6.583871E-17	2.517666E-17
7.350000E+03	6.537386E-17	2.506802E-17
7.360000E+03	6.491875E-17	2.496181E-17
7.370000E+03	6.446196E-17	2.485369E-17
7.380000E+03	6.400919E-17	2.474586E-17
7.390000E+03	6.356043E-17	2.463834E-17
7.400000E+03	6.311565E-17	2.453114E-17
7.410000E+03	6.267483E-17	2.442428E-17
7.420000E+03	6.223797E-17	2.431778E-17
7.430000E+03	6.179958E-17	2.420951E-17
7.440000E+03	6.137059E-17	2.410378E-17
7.450000E+03	6.094010E-17	2.399632E-17
7.460000E+03	6.051353E-17	2.388929E-17
7.470000E+03	6.009088E-17	2.378270E-17
7.480000E+03	5.967211E-17	2.367656E-17
7.490000E+03	5.925720E-17	2.357089E-17
7.500000E+03	5.884090E-17	2.346361E-17
7.510000E+03	5.843368E-17	2.335891E-17
7.520000E+03	5.802507E-17	2.325263E-17
7.530000E+03	5.762545E-17	2.314894E-17
7.540000E+03	5.722445E-17	2.304371E-17
7.550000E+03	5.682722E-17	2.293902E-17
7.560000E+03	5.643375E-17	2.283488E-17
7.570000E+03	5.604400E-17	2.273129E-17
7.580000E+03	5.565295E-17	2.262623E-17
7.590000E+03	5.527060E-17	2.252378E-17
7.600000E+03	5.488695E-17	2.241989E-17
7.610000E+03	5.451190E-17	2.231862E-17
7.620000E+03	5.413555E-17	2.221592E-17
7.630000E+03	5.376281E-17	2.211384E-17
7.640000E+03	5.339366E-17	2.201236E-17
7.650000E+03	5.302808E-17	2.191151E-17
7.660000E+03	5.266603E-17	2.181128E-17
7.670000E+03	5.230271E-17	2.170969E-17
7.680000E+03	5.194767E-17	2.161072E-17
7.690000E+03	5.159135E-17	2.151042E-17
7.700000E+03	5.124321E-17	2.141273E-17
7.710000E+03	5.089378E-17	2.131373E-17
7.720000E+03	5.054775E-17	2.121537E-17
7.730000E+03	5.020511E-17	2.111768E-17
7.740000E+03	4.986582E-17	2.102064E-17
7.750000E+03	4.952985E-17	2.092426E-17
7.760000E+03	4.919717E-17	2.082854E-17
