#wls	flux	fluxerr
1.600000E+03	3.549279E-16	3.712498E-16
1.640000E+03	3.556970E-16	3.716718E-16
1.680000E+03	3.565087E-16	3.720821E-16
1.720000E+03	3.574640E-16	3.725784E-16
1.760000E+03	3.584456E-16	3.730291E-16
1.800000E+03	3.596067E-16	3.735836E-16
1.840000E+03	3.608830E-16	3.741633E-16
1.880000E+03	3.623706E-16	3.748540E-16
1.920000E+03	3.641097E-16	3.756817E-16
1.960000E+03	3.661390E-16	3.766680E-16
2.000000E+03	3.684952E-16	3.778295E-16
2.040000E+03	3.712647E-16	3.792302E-16
2.080000E+03	3.745304E-16	3.809258E-16
2.120000E+03	3.783211E-16	3.829116E-16
2.160000E+03	3.827138E-16	3.852259E-16
2.200000E+03	3.877820E-16	3.878963E-16
2.240000E+03	3.935468E-16	3.908896E-16
2.280000E+03	4.000283E-16	3.941634E-16
2.320000E+03	4.072460E-16	3.976653E-16
2.360000E+03	4.152193E-16	4.013325E-16
2.400000E+03	4.239687E-16	4.050909E-16
2.440000E+03	4.335161E-16	4.088550E-16
2.480000E+03	4.437951E-16	4.124419E-16
2.520000E+03	4.548380E-16	4.157484E-16
2.560000E+03	4.666830E-16	4.186585E-16
2.600000E+03	4.793759E-16	4.210432E-16
2.640000E+03	4.928848E-16	4.226850E-16
2.680000E+03	5.073234E-16	4.234710E-16
2.720000E+03	5.227329E-16	4.231995E-16
2.760000E+03	5.392588E-16	4.217251E-16
2.800000E+03	5.569418E-16	4.187862E-16
2.840000E+03	5.759763E-16	4.142072E-16
2.880000E+03	5.964231E-16	4.076778E-16
2.920000E+03	6.184658E-16	3.989462E-16
2.960000E+03	6.424952E-16	3.878542E-16
3.000000E+03	6.688326E-16	3.741505E-16
3.010000E+03	6.758743E-16	3.703168E-16
3.020000E+03	6.830825E-16	3.662955E-16
3.030000E+03	6.905040E-16	3.621041E-16
3.040000E+03	6.981453E-16	3.577381E-16
3.050000E+03	7.060138E-16	3.531931E-16
3.060000E+03	7.140768E-16	3.484456E-16
3.070000E+03	7.224225E-16	3.435316E-16
3.080000E+03	7.310595E-16	3.384467E-16
3.090000E+03	7.399160E-16	3.331507E-16
3.100000E+03	7.490820E-16	3.276786E-16
3.110000E+03	7.585674E-16	3.220279E-16
3.120000E+03	7.683825E-16	3.161972E-16
3.130000E+03	7.785385E-16	3.101863E-16
3.140000E+03	7.890470E-16	3.039964E-16
3.150000E+03	7.999204E-16	2.976303E-16
3.160000E+03	8.112120E-16	2.911072E-16
3.170000E+03	8.229359E-16	2.844324E-16
3.180000E+03	8.350657E-16	2.776005E-16
3.190000E+03	8.476982E-16	2.706501E-16
3.200000E+03	8.608089E-16	2.635815E-16
3.210000E+03	8.744142E-16	2.564131E-16
3.220000E+03	8.885731E-16	2.491795E-16
3.230000E+03	9.033452E-16	2.419182E-16
3.240000E+03	9.186667E-16	2.346385E-16
3.250000E+03	9.346399E-16	2.273999E-16
3.260000E+03	9.512423E-16	2.202352E-16
3.270000E+03	9.685769E-16	2.132128E-16
3.280000E+03	9.866199E-16	2.063761E-16
3.290000E+03	1.005387E-15	1.997823E-16
3.300000E+03	1.024933E-15	1.934979E-16
3.310000E+03	1.045266E-15	1.875781E-16
3.320000E+03	1.066429E-15	1.820786E-16
3.330000E+03	1.088370E-15	1.770283E-16
3.340000E+03	1.111156E-15	1.724613E-16
3.350000E+03	1.134709E-15	1.683693E-16
3.360000E+03	1.159025E-15	1.647358E-16
3.370000E+03	1.183997E-15	1.615085E-16
3.380000E+03	1.209683E-15	1.586391E-16
3.390000E+03	1.235905E-15	1.560317E-16
3.400000E+03	1.262608E-15	1.535957E-16
3.410000E+03	1.289733E-15	1.512321E-16
3.420000E+03	1.317167E-15	1.488325E-16
3.430000E+03	1.344796E-15	1.462886E-16
3.440000E+03	1.372552E-15	1.434995E-16
3.450000E+03	1.400321E-15	1.403637E-16
3.460000E+03	1.428046E-15	1.367904E-16
3.470000E+03	1.455538E-15	1.326819E-16
3.480000E+03	1.482857E-15	1.279704E-16
3.490000E+03	1.509893E-15	1.225792E-16
3.500000E+03	1.536602E-15	1.164474E-16
3.510000E+03	1.563014E-15	1.095334E-16
3.520000E+03	1.589093E-15	1.018136E-16
3.530000E+03	1.614926E-15	9.331459E-17
3.540000E+03	1.640534E-15	8.413572E-17
3.550000E+03	1.665999E-15	7.452669E-17
3.560000E+03	1.691298E-15	6.500933E-17
3.570000E+03	1.716488E-15	5.660261E-17
3.580000E+03	1.741438E-15	5.100143E-17
3.590000E+03	1.765891E-15	5.014062E-17
3.600000E+03	1.789717E-15	5.465861E-17
3.610000E+03	1.812825E-15	6.323213E-17
3.620000E+03	1.835154E-15	7.397040E-17
3.630000E+03	1.856467E-15	8.548716E-17
3.640000E+03	1.876545E-15	9.697338E-17
3.650000E+03	1.895119E-15	1.079877E-16
3.660000E+03	1.912028E-15	1.183052E-16
3.670000E+03	1.927140E-15	1.278233E-16
3.680000E+03	1.940666E-15	1.365319E-16
3.690000E+03	1.952784E-15	1.444631E-16
3.700000E+03	1.964013E-15	1.516997E-16
3.710000E+03	1.975106E-15	1.583597E-16
3.720000E+03	1.986859E-15	1.645726E-16
3.730000E+03	2.000285E-15	1.704871E-16
3.740000E+03	2.016522E-15	1.762600E-16
3.750000E+03	2.036618E-15	1.820344E-16
3.760000E+03	2.061703E-15	1.879524E-16
3.770000E+03	2.092865E-15	1.941450E-16
3.780000E+03	2.131132E-15	2.007300E-16
3.790000E+03	2.177408E-15	2.078081E-16
3.800000E+03	2.232549E-15	2.154703E-16
3.810000E+03	2.297259E-15	2.237908E-16
3.820000E+03	2.372203E-15	2.328392E-16
3.830000E+03	2.457812E-15	2.426639E-16
3.840000E+03	2.554375E-15	2.533021E-16
3.850000E+03	2.661865E-15	2.647629E-16
3.860000E+03	2.780168E-15	2.770508E-16
3.870000E+03	2.908724E-15	2.901277E-16
3.880000E+03	3.046676E-15	3.039266E-16
3.890000E+03	3.192704E-15	3.183322E-16
3.900000E+03	3.345334E-15	3.332095E-16
3.910000E+03	3.502546E-15	3.483628E-16
3.920000E+03	3.662188E-15	3.635773E-16
3.930000E+03	3.821766E-15	3.785984E-16
3.940000E+03	3.978631E-15	3.931522E-16
3.950000E+03	4.130276E-15	4.069776E-16
3.960000E+03	4.273944E-15	4.197900E-16
3.970000E+03	4.407382E-15	4.313587E-16
3.980000E+03	4.528447E-15	4.414707E-16
3.990000E+03	4.635399E-15	4.499618E-16
4.000000E+03	4.727127E-15	4.567398E-16
4.010000E+03	4.802864E-15	4.617560E-16
4.020000E+03	4.862708E-15	4.650528E-16
4.030000E+03	4.907073E-15	4.667054E-16
4.040000E+03	4.937074E-15	4.668560E-16
4.050000E+03	4.954404E-15	4.656970E-16
4.060000E+03	4.960965E-15	4.634340E-16
4.070000E+03	4.959165E-15	4.603128E-16
4.080000E+03	4.951436E-15	4.565726E-16
4.090000E+03	4.940298E-15	4.524509E-16
4.100000E+03	4.928141E-15	4.481634E-16
4.110000E+03	4.917105E-15	4.438923E-16
4.120000E+03	4.908846E-15	4.397668E-16
4.130000E+03	4.904868E-15	4.358937E-16
4.140000E+03	4.905977E-15	4.323106E-16
4.150000E+03	4.912751E-15	4.290284E-16
4.160000E+03	4.925188E-15	4.260021E-16
4.170000E+03	4.943150E-15	4.231678E-16
4.180000E+03	4.966161E-15	4.204246E-16
4.190000E+03	4.993473E-15	4.176363E-16
4.200000E+03	5.024178E-15	4.146381E-16
4.210000E+03	5.057446E-15	4.112516E-16
4.220000E+03	5.092071E-15	4.072455E-16
4.230000E+03	5.127142E-15	4.023905E-16
4.240000E+03	5.161530E-15	3.964198E-16
4.250000E+03	5.194369E-15	3.890714E-16
4.260000E+03	5.224775E-15	3.800719E-16
4.270000E+03	5.252122E-15	3.691615E-16
4.280000E+03	5.275786E-15	3.560817E-16
4.290000E+03	5.295254E-15	3.405893E-16
4.300000E+03	5.310333E-15	3.224798E-16
4.310000E+03	5.320466E-15	3.015628E-16
4.320000E+03	5.325370E-15	2.777398E-16
4.330000E+03	5.324556E-15	2.510433E-16
4.340000E+03	5.317522E-15	2.217750E-16
4.350000E+03	5.303759E-15	1.907473E-16
4.360000E+03	5.282810E-15	1.597599E-16
4.370000E+03	5.254917E-15	1.324927E-16
4.380000E+03	5.220899E-15	1.153241E-16
4.390000E+03	5.182554E-15	1.147884E-16
4.400000E+03	5.142311E-15	1.302734E-16
4.410000E+03	5.103189E-15	1.546938E-16
4.420000E+03	5.068487E-15	1.819328E-16
4.430000E+03	5.041730E-15	2.088426E-16
4.440000E+03	5.025845E-15	2.341429E-16
4.450000E+03	5.023243E-15	2.574740E-16
4.460000E+03	5.035350E-15	2.788701E-16
4.470000E+03	5.062877E-15	2.985175E-16
4.480000E+03	5.105729E-15	3.166207E-16
4.490000E+03	5.163218E-15	3.333502E-16
4.500000E+03	5.233948E-15	3.488044E-16
4.510000E+03	5.316309E-15	3.630283E-16
4.520000E+03	5.408156E-15	3.759876E-16
4.530000E+03	5.507041E-15	3.875814E-16
4.540000E+03	5.610384E-15	3.976529E-16
4.550000E+03	5.715283E-15	4.059744E-16
4.560000E+03	5.818675E-15	4.122608E-16
4.570000E+03	5.917526E-15	4.161862E-16
4.580000E+03	6.008520E-15	4.173702E-16
4.590000E+03	6.088732E-15	4.154372E-16
4.600000E+03	6.155105E-15	4.099952E-16
4.610000E+03	6.205110E-15	4.006998E-16
4.620000E+03	6.236638E-15	3.872668E-16
4.630000E+03	6.248286E-15	3.695111E-16
4.640000E+03	6.239215E-15	3.473630E-16
4.650000E+03	6.209626E-15	3.209268E-16
4.660000E+03	6.160507E-15	2.905136E-16
4.670000E+03	6.093565E-15	2.567283E-16
4.680000E+03	6.011176E-15	2.206485E-16
4.690000E+03	5.916046E-15	1.841872E-16
4.700000E+03	5.810842E-15	1.508367E-16
4.710000E+03	5.697913E-15	1.266776E-16
4.720000E+03	5.579420E-15	1.191470E-16
4.730000E+03	5.458022E-15	1.298091E-16
4.740000E+03	5.336998E-15	1.516715E-16
4.750000E+03	5.219723E-15	1.772078E-16
4.760000E+03	5.109051E-15	2.022743E-16
4.770000E+03	5.007398E-15	2.251665E-16
4.780000E+03	4.916984E-15	2.454123E-16
4.790000E+03	4.839675E-15	2.631083E-16
4.800000E+03	4.777119E-15	2.786050E-16
4.810000E+03	4.730560E-15	2.923382E-16
4.820000E+03	4.701026E-15	3.047593E-16
4.830000E+03	4.689201E-15	3.162876E-16
4.840000E+03	4.695449E-15	3.272927E-16
4.850000E+03	4.719896E-15	3.380931E-16
4.860000E+03	4.762272E-15	3.489430E-16
4.870000E+03	4.821874E-15	3.600298E-16
4.880000E+03	4.897255E-15	3.714506E-16
4.890000E+03	4.986303E-15	3.832175E-16
4.900000E+03	5.085840E-15	3.952266E-16
4.910000E+03	5.191815E-15	4.072735E-16
4.920000E+03	5.299470E-15	4.190683E-16
4.930000E+03	5.403449E-15	4.302458E-16
4.940000E+03	5.498696E-15	4.404377E-16
4.950000E+03	5.580410E-15	4.492685E-16
4.960000E+03	5.645241E-15	4.564522E-16
4.970000E+03	5.691035E-15	4.617794E-16
4.980000E+03	5.717668E-15	4.651979E-16
4.990000E+03	5.726617E-15	4.667969E-16
5.000000E+03	5.720745E-15	4.668049E-16
5.010000E+03	5.703976E-15	4.655710E-16
5.020000E+03	5.680691E-15	4.635108E-16
5.030000E+03	5.655240E-15	4.610536E-16
5.040000E+03	5.631302E-15	4.585733E-16
5.050000E+03	5.611730E-15	4.563628E-16
5.060000E+03	5.598408E-15	4.546154E-16
5.070000E+03	5.592112E-15	4.534156E-16
5.080000E+03	5.592862E-15	4.527723E-16
5.090000E+03	5.600135E-15	4.526423E-16
5.100000E+03	5.613160E-15	4.529568E-16
5.110000E+03	5.631188E-15	4.536447E-16
5.120000E+03	5.653756E-15	4.546544E-16
5.130000E+03	5.680571E-15	4.559468E-16
5.140000E+03	5.711868E-15	4.575264E-16
5.150000E+03	5.748168E-15	4.594240E-16
5.160000E+03	5.789969E-15	4.616715E-16
5.170000E+03	5.837913E-15	4.643136E-16
5.180000E+03	5.892308E-15	4.673657E-16
5.190000E+03	5.953208E-15	4.708176E-16
5.200000E+03	6.020115E-15	4.746088E-16
5.210000E+03	6.091940E-15	4.786255E-16
5.220000E+03	6.167210E-15	4.827194E-16
5.230000E+03	6.243916E-15	4.866986E-16
5.240000E+03	6.319906E-15	4.903611E-16
5.250000E+03	6.392728E-15	4.934842E-16
5.260000E+03	6.460178E-15	4.958656E-16
5.270000E+03	6.520283E-15	4.973175E-16
5.280000E+03	6.571259E-15	4.976573E-16
5.290000E+03	6.612039E-15	4.967418E-16
5.300000E+03	6.642058E-15	4.944467E-16
5.310000E+03	6.661496E-15	4.906845E-16
5.320000E+03	6.671242E-15	4.854021E-16
5.330000E+03	6.672550E-15	4.785543E-16
5.340000E+03	6.666977E-15	4.700977E-16
5.350000E+03	6.655943E-15	4.599542E-16
5.360000E+03	6.640607E-15	4.480008E-16
5.370000E+03	6.621357E-15	4.340361E-16
5.380000E+03	6.597956E-15	4.177994E-16
5.390000E+03	6.569266E-15	3.989667E-16
5.400000E+03	6.533873E-15	3.772120E-16
5.410000E+03	6.490217E-15	3.522396E-16
5.420000E+03	6.437182E-15	3.238485E-16
5.430000E+03	6.374600E-15	2.920010E-16
5.440000E+03	6.303884E-15	2.569220E-16
5.450000E+03	6.228327E-15	2.192501E-16
5.460000E+03	6.152718E-15	1.803559E-16
5.470000E+03	6.083007E-15	1.431695E-16
5.480000E+03	6.024782E-15	1.140033E-16
5.490000E+03	5.981905E-15	1.036026E-16
5.500000E+03	5.955854E-15	1.175689E-16
5.510000E+03	5.945443E-15	1.472644E-16
5.520000E+03	5.946548E-15	1.824603E-16
5.530000E+03	5.953003E-15	2.178065E-16
5.540000E+03	5.957406E-15	2.508524E-16
5.550000E+03	5.952777E-15	2.804032E-16
5.560000E+03	5.933261E-15	3.058395E-16
5.570000E+03	5.894806E-15	3.268757E-16
5.580000E+03	5.835526E-15	3.434766E-16
5.590000E+03	5.755894E-15	3.558300E-16
5.600000E+03	5.658469E-15	3.643162E-16
5.610000E+03	5.547765E-15	3.694887E-16
5.620000E+03	5.429797E-15	3.720343E-16
5.630000E+03	5.311113E-15	3.726951E-16
5.640000E+03	5.198575E-15	3.722380E-16
5.650000E+03	5.098322E-15	3.713699E-16
5.660000E+03	5.015732E-15	3.707232E-16
5.670000E+03	4.954804E-15	3.708052E-16
5.680000E+03	4.918098E-15	3.719895E-16
5.690000E+03	4.906902E-15	3.745278E-16
5.700000E+03	4.921147E-15	3.785456E-16
5.710000E+03	4.959850E-15	3.840769E-16
5.720000E+03	5.020971E-15	3.910560E-16
5.730000E+03	5.102048E-15	3.993657E-16
5.740000E+03	5.200107E-15	4.088313E-16
5.750000E+03	5.311851E-15	4.192353E-16
5.760000E+03	5.434143E-15	4.303570E-16
5.770000E+03	5.563798E-15	4.419592E-16
5.780000E+03	5.697749E-15	4.538052E-16
5.790000E+03	5.833066E-15	4.656634E-16
5.800000E+03	5.966867E-15	4.773045E-16
5.810000E+03	6.096541E-15	4.885205E-16
5.820000E+03	6.219294E-15	4.990902E-16
5.830000E+03	6.332680E-15	5.088215E-16
5.840000E+03	6.434232E-15	5.175198E-16
5.850000E+03	6.521911E-15	5.250213E-16
5.860000E+03	6.593986E-15	5.311788E-16
5.870000E+03	6.649447E-15	5.358906E-16
5.880000E+03	6.687809E-15	5.390827E-16
5.890000E+03	6.709421E-15	5.407340E-16
5.900000E+03	6.715191E-15	5.408615E-16
5.910000E+03	6.706481E-15	5.395214E-16
5.920000E+03	6.685167E-15	5.368251E-16
5.930000E+03	6.653344E-15	5.329216E-16
5.940000E+03	6.612972E-15	5.279686E-16
5.950000E+03	6.566189E-15	5.221498E-16
5.960000E+03	6.515015E-15	5.156389E-16
5.970000E+03	6.461083E-15	5.085649E-16
5.980000E+03	6.406094E-15	5.010389E-16
5.990000E+03	6.351234E-15	4.931029E-16
6.000000E+03	6.297722E-15	4.847724E-16
6.010000E+03	6.246324E-15	4.760011E-16
6.020000E+03	6.197578E-15	4.667029E-16
6.030000E+03	6.151946E-15	4.567659E-16
6.040000E+03	6.109681E-15	4.460443E-16
6.050000E+03	6.070537E-15	4.343395E-16
6.060000E+03	6.034332E-15	4.214425E-16
6.070000E+03	6.000347E-15	4.070948E-16
6.080000E+03	5.967559E-15	3.910129E-16
6.090000E+03	5.934529E-15	3.728946E-16
6.100000E+03	5.899697E-15	3.524587E-16
6.110000E+03	5.861229E-15	3.294672E-16
6.120000E+03	5.817584E-15	3.038039E-16
6.130000E+03	5.767670E-15	2.755500E-16
6.140000E+03	5.710697E-15	2.450876E-16
6.150000E+03	5.646905E-15	2.133308E-16
6.160000E+03	5.576868E-15	1.820495E-16
6.170000E+03	5.501926E-15	1.544691E-16
6.180000E+03	5.424149E-15	1.356842E-16
6.190000E+03	5.345939E-15	1.309628E-16
6.200000E+03	5.269855E-15	1.409283E-16
6.210000E+03	5.198376E-15	1.605851E-16
6.220000E+03	5.133891E-15	1.843019E-16
6.230000E+03	5.078483E-15	2.085867E-16
6.240000E+03	5.033610E-15	2.317750E-16
6.250000E+03	5.000334E-15	2.532393E-16
6.260000E+03	4.978732E-15	2.728375E-16
6.270000E+03	4.968663E-15	2.906671E-16
6.280000E+03	4.969329E-15	3.068972E-16
6.290000E+03	4.979472E-15	3.217019E-16
6.300000E+03	4.997614E-15	3.352375E-16
6.310000E+03	5.021873E-15	3.476130E-16
6.320000E+03	5.050322E-15	3.589064E-16
6.330000E+03	5.080656E-15	3.691399E-16
6.340000E+03	5.110724E-15	3.783182E-16
6.350000E+03	5.138432E-15	3.864256E-16
6.360000E+03	5.161961E-15	3.934455E-16
6.370000E+03	5.179855E-15	3.993721E-16
6.380000E+03	5.191277E-15	4.042325E-16
6.390000E+03	5.196014E-15	4.080907E-16
6.400000E+03	5.194437E-15	4.110457E-16
6.410000E+03	5.187626E-15	4.132435E-16
6.420000E+03	5.176884E-15	4.148389E-16
6.430000E+03	5.164148E-15	4.160310E-16
6.440000E+03	5.151182E-15	4.169990E-16
6.450000E+03	5.139977E-15	4.179368E-16
6.460000E+03	5.132157E-15	4.190061E-16
6.470000E+03	5.129252E-15	4.203598E-16
6.480000E+03	5.132304E-15	4.221123E-16
6.490000E+03	5.142017E-15	4.243537E-16
6.500000E+03	5.158690E-15	4.271444E-16
6.510000E+03	5.182277E-15	4.305216E-16
6.520000E+03	5.212207E-15	4.344816E-16
6.530000E+03	5.247788E-15	4.390099E-16
6.540000E+03	5.287627E-15	4.440261E-16
6.550000E+03	5.330258E-15	4.494283E-16
6.560000E+03	5.373791E-15	4.550548E-16
6.570000E+03	5.416139E-15	4.606961E-16
6.580000E+03	5.455211E-15	4.661097E-16
6.590000E+03	5.488938E-15	4.710267E-16
6.600000E+03	5.515499E-15	4.751852E-16
6.610000E+03	5.533550E-15	4.783683E-16
6.620000E+03	5.542173E-15	4.804210E-16
6.630000E+03	5.540987E-15	4.812757E-16
6.640000E+03	5.530181E-15	4.809632E-16
6.650000E+03	5.510197E-15	4.795823E-16
6.660000E+03	5.481896E-15	4.773015E-16
6.670000E+03	5.446195E-15	4.743085E-16
6.680000E+03	5.404099E-15	4.707915E-16
6.690000E+03	5.356320E-15	4.668888E-16
6.700000E+03	5.303755E-15	4.627186E-16
6.710000E+03	5.247026E-15	4.583362E-16
6.720000E+03	5.186584E-15	4.537478E-16
6.730000E+03	5.122962E-15	4.489435E-16
6.740000E+03	5.056618E-15	4.438980E-16
6.750000E+03	4.988072E-15	4.385954E-16
6.760000E+03	4.917890E-15	4.330394E-16
6.770000E+03	4.846996E-15	4.272868E-16
6.780000E+03	4.776182E-15	4.214057E-16
6.790000E+03	4.706625E-15	4.155178E-16
6.800000E+03	4.639274E-15	4.097373E-16
6.810000E+03	4.575307E-15	4.042047E-16
6.820000E+03	4.515591E-15	3.990307E-16
6.830000E+03	4.460890E-15	3.943104E-16
6.840000E+03	4.411770E-15	3.901113E-16
6.850000E+03	4.368661E-15	3.864793E-16
6.860000E+03	4.331613E-15	3.834188E-16
6.870000E+03	4.300776E-15	3.809372E-16
6.880000E+03	4.275969E-15	3.790108E-16
6.890000E+03	4.256963E-15	3.776115E-16
6.900000E+03	4.243434E-15	3.767041E-16
6.910000E+03	4.235030E-15	3.762532E-16
6.920000E+03	4.231133E-15	3.762013E-16
6.930000E+03	4.231314E-15	3.765089E-16
6.940000E+03	4.234893E-15	3.771152E-16
6.950000E+03	4.241149E-15	3.779558E-16
6.960000E+03	4.249536E-15	3.789819E-16
6.970000E+03	4.259307E-15	3.801264E-16
6.980000E+03	4.269794E-15	3.813290E-16
6.990000E+03	4.280359E-15	3.825313E-16
7.000000E+03	4.290329E-15	3.836712E-16
7.010000E+03	4.299273E-15	3.847077E-16
7.020000E+03	4.306599E-15	3.855846E-16
7.030000E+03	4.311757E-15	3.862494E-16
7.040000E+03	4.314386E-15	3.866665E-16
7.050000E+03	4.314123E-15	3.868007E-16
7.060000E+03	4.310695E-15	3.866261E-16
7.070000E+03	4.303872E-15	3.861213E-16
7.080000E+03	4.293694E-15	3.852904E-16
7.090000E+03	4.280270E-15	3.841442E-16
7.100000E+03	4.263853E-15	3.827064E-16
7.110000E+03	4.244753E-15	3.810051E-16
7.120000E+03	4.223528E-15	3.790898E-16
7.130000E+03	4.200678E-15	3.770031E-16
7.140000E+03	4.176898E-15	3.748029E-16
7.150000E+03	4.152836E-15	3.725406E-16
7.160000E+03	4.129130E-15	3.702641E-16
7.170000E+03	4.106311E-15	3.680089E-16
7.180000E+03	4.084906E-15	3.658081E-16
7.190000E+03	4.065489E-15	3.636973E-16
7.200000E+03	4.048251E-15	3.616777E-16
7.210000E+03	4.033421E-15	3.597542E-16
7.220000E+03	4.021272E-15	3.579361E-16
7.230000E+03	4.011732E-15	3.562021E-16
7.240000E+03	4.004953E-15	3.545486E-16
7.250000E+03	4.000770E-15	3.529403E-16
7.260000E+03	3.999189E-15	3.513506E-16
7.270000E+03	4.000095E-15	3.497352E-16
7.280000E+03	4.003381E-15	3.480420E-16
7.290000E+03	4.008712E-15	3.461909E-16
7.300000E+03	4.015722E-15	3.440916E-16
7.310000E+03	4.023934E-15	3.416371E-16
7.320000E+03	4.032833E-15	3.387099E-16
7.330000E+03	4.041736E-15	3.351707E-16
7.340000E+03	4.049811E-15	3.308609E-16
7.350000E+03	4.056319E-15	3.256219E-16
7.360000E+03	4.060425E-15	3.192812E-16
7.370000E+03	4.061286E-15	3.116611E-16
7.380000E+03	4.058068E-15	3.025828E-16
7.390000E+03	4.050026E-15	2.918770E-16
7.400000E+03	4.036299E-15	2.793735E-16
7.410000E+03	4.016151E-15	2.649286E-16
7.420000E+03	3.989090E-15	2.484416E-16
7.430000E+03	3.954477E-15	2.298453E-16
7.440000E+03	3.912186E-15	2.091708E-16
7.450000E+03	3.862151E-15	1.865552E-16
7.460000E+03	3.804636E-15	1.623243E-16
7.470000E+03	3.740330E-15	1.371217E-16
7.480000E+03	3.670320E-15	1.121746E-16
7.490000E+03	3.595769E-15	8.984932E-17
7.500000E+03	3.518195E-15	7.447334E-17
7.510000E+03	3.439351E-15	7.122884E-17
7.520000E+03	3.360926E-15	8.030215E-17
7.530000E+03	3.284903E-15	9.615168E-17
7.540000E+03	3.212900E-15	1.139131E-16
7.550000E+03	3.146453E-15	1.312267E-16
7.560000E+03	3.086992E-15	1.472171E-16
7.570000E+03	3.035449E-15	1.616734E-16
7.580000E+03	2.992833E-15	1.746925E-16
7.590000E+03	2.960007E-15	1.864975E-16
7.600000E+03	2.937527E-15	1.973464E-16
7.610000E+03	2.926037E-15	2.075191E-16
7.620000E+03	2.925805E-15	2.172683E-16
7.630000E+03	2.937043E-15	2.268317E-16
7.640000E+03	2.959906E-15	2.364260E-16
7.650000E+03	2.994133E-15	2.462148E-16
7.660000E+03	3.039382E-15	2.563293E-16
7.670000E+03	3.095170E-15	2.668633E-16
7.680000E+03	3.160698E-15	2.778570E-16
7.690000E+03	3.235093E-15	2.893200E-16
7.700000E+03	3.317172E-15	3.012126E-16
7.710000E+03	3.405641E-15	3.134663E-16
7.720000E+03	3.499115E-15	3.259893E-16
7.730000E+03	3.595946E-15	3.386522E-16
7.740000E+03	3.694513E-15	3.513194E-16
7.750000E+03	3.792919E-15	3.638213E-16
7.760000E+03	3.889541E-15	3.760097E-16
