#wls	flux	fluxerr
1.600000E+03	1.558060E-17	1.636717E-17
1.640000E+03	1.558337E-17	1.636376E-17
1.680000E+03	1.558961E-17	1.636308E-17
1.720000E+03	1.559395E-17	1.635938E-17
1.760000E+03	1.560214E-17	1.635854E-17
1.800000E+03	1.561163E-17	1.635775E-17
1.840000E+03	1.562546E-17	1.635999E-17
1.880000E+03	1.563839E-17	1.635957E-17
1.920000E+03	1.565629E-17	1.636240E-17
1.960000E+03	1.567400E-17	1.636283E-17
2.000000E+03	1.569749E-17	1.636678E-17
2.040000E+03	1.572445E-17	1.637154E-17
2.080000E+03	1.575821E-17	1.638015E-17
2.120000E+03	1.579382E-17	1.638705E-17
2.160000E+03	1.583750E-17	1.639822E-17
2.200000E+03	1.588723E-17	1.641099E-17
2.240000E+03	1.594386E-17	1.642563E-17
2.280000E+03	1.601113E-17	1.644529E-17
2.320000E+03	1.608452E-17	1.646449E-17
2.360000E+03	1.617081E-17	1.648929E-17
2.400000E+03	1.626855E-17	1.651715E-17
2.440000E+03	1.637922E-17	1.654842E-17
2.480000E+03	1.650737E-17	1.658632E-17
2.520000E+03	1.664918E-17	1.662546E-17
2.560000E+03	1.681251E-17	1.667199E-17
2.600000E+03	1.699691E-17	1.672341E-17
2.640000E+03	1.720806E-17	1.678298E-17
2.680000E+03	1.744312E-17	1.684526E-17
2.720000E+03	1.771155E-17	1.691640E-17
2.760000E+03	1.801436E-17	1.699378E-17
2.800000E+03	1.835608E-17	1.707764E-17
2.840000E+03	1.874190E-17	1.716813E-17
2.880000E+03	1.918103E-17	1.726826E-17
2.920000E+03	1.967720E-17	1.737505E-17
2.960000E+03	2.023835E-17	1.748827E-17
3.000000E+03	2.087364E-17	1.760759E-17
3.010000E+03	2.104616E-17	1.763907E-17
3.020000E+03	2.122056E-17	1.766788E-17
3.030000E+03	2.140422E-17	1.770003E-17
3.040000E+03	2.159376E-17	1.773249E-17
3.050000E+03	2.178938E-17	1.776527E-17
3.060000E+03	2.199130E-17	1.779835E-17
3.070000E+03	2.219975E-17	1.783172E-17
3.080000E+03	2.241494E-17	1.786537E-17
3.090000E+03	2.263329E-17	1.789627E-17
3.100000E+03	2.286269E-17	1.793044E-17
3.110000E+03	2.309958E-17	1.796487E-17
3.120000E+03	2.334425E-17	1.799954E-17
3.130000E+03	2.359698E-17	1.803444E-17
3.140000E+03	2.385806E-17	1.806957E-17
3.150000E+03	2.412779E-17	1.810493E-17
3.160000E+03	2.440650E-17	1.814052E-17
3.170000E+03	2.469451E-17	1.817633E-17
3.180000E+03	2.499216E-17	1.821238E-17
3.190000E+03	2.529983E-17	1.824867E-17
3.200000E+03	2.561787E-17	1.828522E-17
3.210000E+03	2.594669E-17	1.832204E-17
3.220000E+03	2.628667E-17	1.835918E-17
3.230000E+03	2.663824E-17	1.839666E-17
3.240000E+03	2.700185E-17	1.843454E-17
3.250000E+03	2.737793E-17	1.847285E-17
3.260000E+03	2.776697E-17	1.851169E-17
3.270000E+03	2.816945E-17	1.855111E-17
3.280000E+03	2.858589E-17	1.859123E-17
3.290000E+03	2.901682E-17	1.863215E-17
3.300000E+03	2.946771E-17	1.867714E-17
3.310000E+03	2.992936E-17	1.872009E-17
3.320000E+03	3.040720E-17	1.876431E-17
3.330000E+03	3.090185E-17	1.881001E-17
3.340000E+03	3.141396E-17	1.885740E-17
3.350000E+03	3.194418E-17	1.890676E-17
3.360000E+03	3.249318E-17	1.895837E-17
3.370000E+03	3.306168E-17	1.901256E-17
3.380000E+03	3.365600E-17	1.907289E-17
3.390000E+03	3.426578E-17	1.913340E-17
3.400000E+03	3.489729E-17	1.919771E-17
3.410000E+03	3.555134E-17	1.926632E-17
3.420000E+03	3.622872E-17	1.933975E-17
3.430000E+03	3.693642E-17	1.942180E-17
3.440000E+03	3.766313E-17	1.950665E-17
3.450000E+03	3.841572E-17	1.959817E-17
3.460000E+03	3.919510E-17	1.969704E-17
3.470000E+03	4.000215E-17	1.980400E-17
3.480000E+03	4.084456E-17	1.992308E-17
3.490000E+03	4.170982E-17	2.004847E-17
3.500000E+03	4.260551E-17	2.018422E-17
3.510000E+03	4.353253E-17	2.033110E-17
3.520000E+03	4.449180E-17	2.048986E-17
3.530000E+03	4.549176E-17	2.066463E-17
3.540000E+03	4.651840E-17	2.084927E-17
3.550000E+03	4.757998E-17	2.104776E-17
3.560000E+03	4.867732E-17	2.126062E-17
3.570000E+03	4.981948E-17	2.149180E-17
3.580000E+03	5.099097E-17	2.173451E-17
3.590000E+03	5.220055E-17	2.199240E-17
3.600000E+03	5.345770E-17	2.226910E-17
3.610000E+03	5.474562E-17	2.255709E-17
3.620000E+03	5.607346E-17	2.285958E-17
3.630000E+03	5.744166E-17	2.317593E-17
3.640000E+03	5.886026E-17	2.350914E-17
3.650000E+03	6.031040E-17	2.385044E-17
3.660000E+03	6.180167E-17	2.420229E-17
3.670000E+03	6.334451E-17	2.456714E-17
3.680000E+03	6.491825E-17	2.493515E-17
3.690000E+03	6.653279E-17	2.530822E-17
3.700000E+03	6.818775E-17	2.568402E-17
3.710000E+03	6.989399E-17	2.606430E-17
3.720000E+03	7.162816E-17	2.643780E-17
3.730000E+03	7.340051E-17	2.680576E-17
3.740000E+03	7.522223E-17	2.716949E-17
3.750000E+03	7.706768E-17	2.751682E-17
3.760000E+03	7.894734E-17	2.784867E-17
3.770000E+03	8.087266E-17	2.816606E-17
3.780000E+03	8.281557E-17	2.845615E-17
3.790000E+03	8.478675E-17	2.871976E-17
3.800000E+03	8.678375E-17	2.895313E-17
3.810000E+03	8.881835E-17	2.915724E-17
3.820000E+03	9.085900E-17	2.931892E-17
3.830000E+03	9.291664E-17	2.943929E-17
3.840000E+03	9.500333E-17	2.951971E-17
3.850000E+03	9.708479E-17	2.954732E-17
3.860000E+03	9.917226E-17	2.952392E-17
3.870000E+03	1.012780E-16	2.945163E-17
3.880000E+03	1.033652E-16	2.931860E-17
3.890000E+03	1.054454E-16	2.912781E-17
3.900000E+03	1.075137E-16	2.887799E-17
3.910000E+03	1.095831E-16	2.857315E-17
3.920000E+03	1.116132E-16	2.820402E-17
3.930000E+03	1.136163E-16	2.777615E-17
3.940000E+03	1.156059E-16	2.729570E-17
3.950000E+03	1.175396E-16	2.675645E-17
3.960000E+03	1.194303E-16	2.616663E-17
3.970000E+03	1.212729E-16	2.553107E-17
3.980000E+03	1.230821E-16	2.485967E-17
3.990000E+03	1.248137E-16	2.415127E-17
4.000000E+03	1.264827E-16	2.341790E-17
4.010000E+03	1.280852E-16	2.266820E-17
4.020000E+03	1.296387E-16	2.191477E-17
4.030000E+03	1.310994E-16	2.115954E-17
4.040000E+03	1.324864E-16	2.041493E-17
4.050000E+03	1.337994E-16	1.968897E-17
4.060000E+03	1.350607E-16	1.899168E-17
4.070000E+03	1.362291E-16	1.832254E-17
4.080000E+03	1.373290E-16	1.768894E-17
4.090000E+03	1.383643E-16	1.709357E-17
4.100000E+03	1.393395E-16	1.653760E-17
4.110000E+03	1.402822E-16	1.602334E-17
4.120000E+03	1.411529E-16	1.554404E-17
4.130000E+03	1.419793E-16	1.509981E-17
4.140000E+03	1.427666E-16	1.468733E-17
4.150000E+03	1.435196E-16	1.430278E-17
4.160000E+03	1.442429E-16	1.394210E-17
4.170000E+03	1.449638E-16	1.360341E-17
4.180000E+03	1.456399E-16	1.327846E-17
4.190000E+03	1.462979E-16	1.296592E-17
4.200000E+03	1.469415E-16	1.266267E-17
4.210000E+03	1.475744E-16	1.236599E-17
4.220000E+03	1.482003E-16	1.207358E-17
4.230000E+03	1.488235E-16	1.178349E-17
4.240000E+03	1.494482E-16	1.149407E-17
4.250000E+03	1.500795E-16	1.120384E-17
4.260000E+03	1.507463E-16	1.091317E-17
4.270000E+03	1.514064E-16	1.061726E-17
4.280000E+03	1.520897E-16	1.031666E-17
4.290000E+03	1.528025E-16	1.001028E-17
4.300000E+03	1.535516E-16	9.697346E-18
4.310000E+03	1.543442E-16	9.377670E-18
4.320000E+03	1.551881E-16	9.052150E-18
4.330000E+03	1.560910E-16	8.723415E-18
4.340000E+03	1.570604E-16	8.396713E-18
4.350000E+03	1.581028E-16	8.080979E-18
4.360000E+03	1.592225E-16	7.789894E-18
4.370000E+03	1.604210E-16	7.542488E-18
4.380000E+03	1.616971E-16	7.362432E-18
4.390000E+03	1.630465E-16	7.273724E-18
4.400000E+03	1.644409E-16	7.273184E-18
4.410000E+03	1.659327E-16	7.335782E-18
4.420000E+03	1.674972E-16	7.433420E-18
4.430000E+03	1.691363E-16	7.544625E-18
4.440000E+03	1.708537E-16	7.654790E-18
4.450000E+03	1.726547E-16	7.755680E-18
4.460000E+03	1.745457E-16	7.844059E-18
4.470000E+03	1.765338E-16	7.920153E-18
4.480000E+03	1.785967E-16	7.984957E-18
4.490000E+03	1.807938E-16	8.044042E-18
4.500000E+03	1.830953E-16	8.099114E-18
4.510000E+03	1.854917E-16	8.152357E-18
4.520000E+03	1.879636E-16	8.204791E-18
4.530000E+03	1.904512E-16	8.254882E-18
4.540000E+03	1.929738E-16	8.303810E-18
4.550000E+03	1.954540E-16	8.347910E-18
4.560000E+03	1.978083E-16	8.382853E-18
4.570000E+03	2.000467E-16	8.407925E-18
4.580000E+03	2.020925E-16	8.418379E-18
4.590000E+03	2.038770E-16	8.409552E-18
4.600000E+03	2.054413E-16	8.380815E-18
4.610000E+03	2.067464E-16	8.327385E-18
4.620000E+03	2.077692E-16	8.243921E-18
4.630000E+03	2.085999E-16	8.127882E-18
4.640000E+03	2.092444E-16	7.971388E-18
4.650000E+03	2.097172E-16	7.765503E-18
4.660000E+03	2.101365E-16	7.505067E-18
4.670000E+03	2.104915E-16	7.183015E-18
4.680000E+03	2.109058E-16	6.805305E-18
4.690000E+03	2.113774E-16	6.390713E-18
4.700000E+03	2.120470E-16	5.992732E-18
4.710000E+03	2.129403E-16	5.705440E-18
4.720000E+03	2.142377E-16	5.667879E-18
4.730000E+03	2.159239E-16	5.939232E-18
4.740000E+03	2.179619E-16	6.406430E-18
4.750000E+03	2.201762E-16	6.950522E-18
4.760000E+03	2.225065E-16	7.497099E-18
4.770000E+03	2.249065E-16	8.007951E-18
4.780000E+03	2.272381E-16	8.464327E-18
4.790000E+03	2.294807E-16	8.864058E-18
4.800000E+03	2.316305E-16	9.211790E-18
4.810000E+03	2.335925E-16	9.510677E-18
4.820000E+03	2.353956E-16	9.768799E-18
4.830000E+03	2.370851E-16	9.994293E-18
4.840000E+03	2.386074E-16	1.019034E-17
4.850000E+03	2.400267E-16	1.036437E-17
4.860000E+03	2.413727E-16	1.052192E-17
4.870000E+03	2.427112E-16	1.066970E-17
4.880000E+03	2.439895E-16	1.080860E-17
4.890000E+03	2.452611E-16	1.094335E-17
4.900000E+03	2.465351E-16	1.107572E-17
4.910000E+03	2.478146E-16	1.120611E-17
4.920000E+03	2.490985E-16	1.133382E-17
4.930000E+03	2.503828E-16	1.145749E-17
4.940000E+03	2.516614E-16	1.157556E-17
4.950000E+03	2.529659E-16	1.168846E-17
4.960000E+03	2.542096E-16	1.179166E-17
4.970000E+03	2.554220E-16	1.188658E-17
4.980000E+03	2.565940E-16	1.197343E-17
4.990000E+03	2.577181E-16	1.205296E-17
5.000000E+03	2.587898E-16	1.212629E-17
5.010000E+03	2.598091E-16	1.219477E-17
5.020000E+03	2.607409E-16	1.225787E-17
5.030000E+03	2.616765E-16	1.232055E-17
5.040000E+03	2.625918E-16	1.238179E-17
5.050000E+03	2.635080E-16	1.244204E-17
5.060000E+03	2.644505E-16	1.250146E-17
5.070000E+03	2.654466E-16	1.256011E-17
5.080000E+03	2.665244E-16	1.261822E-17
5.090000E+03	2.676687E-16	1.267443E-17
5.100000E+03	2.689830E-16	1.273356E-17
5.110000E+03	2.704397E-16	1.279482E-17
5.120000E+03	2.720424E-16	1.285929E-17
5.130000E+03	2.737404E-16	1.292578E-17
5.140000E+03	2.755972E-16	1.299850E-17
5.150000E+03	2.775390E-16	1.307503E-17
5.160000E+03	2.795252E-16	1.315411E-17
5.170000E+03	2.814675E-16	1.323176E-17
5.180000E+03	2.834059E-16	1.330936E-17
5.190000E+03	2.852098E-16	1.337972E-17
5.200000E+03	2.869278E-16	1.344361E-17
5.210000E+03	2.884845E-16	1.349580E-17
5.220000E+03	2.898118E-16	1.353162E-17
5.230000E+03	2.909846E-16	1.355365E-17
5.240000E+03	2.919090E-16	1.355753E-17
5.250000E+03	2.926788E-16	1.354870E-17
5.260000E+03	2.932156E-16	1.352563E-17
5.270000E+03	2.936252E-16	1.349595E-17
5.280000E+03	2.938359E-16	1.345917E-17
5.290000E+03	2.939115E-16	1.342037E-17
5.300000E+03	2.939142E-16	1.338348E-17
5.310000E+03	2.937697E-16	1.334494E-17
5.320000E+03	2.935821E-16	1.330829E-17
5.330000E+03	2.932736E-16	1.326812E-17
5.340000E+03	2.928999E-16	1.322475E-17
5.350000E+03	2.925136E-16	1.317826E-17
5.360000E+03	2.920298E-16	1.312249E-17
5.370000E+03	2.914956E-16	1.305694E-17
5.380000E+03	2.909118E-16	1.297846E-17
5.390000E+03	2.903241E-16	1.288498E-17
5.400000E+03	2.896489E-16	1.276762E-17
5.410000E+03	2.889429E-16	1.262301E-17
5.420000E+03	2.882270E-16	1.244624E-17
5.430000E+03	2.875317E-16	1.223435E-17
5.440000E+03	2.869387E-16	1.199051E-17
5.450000E+03	2.864031E-16	1.171951E-17
5.460000E+03	2.860116E-16	1.144243E-17
5.470000E+03	2.858027E-16	1.119236E-17
5.480000E+03	2.858048E-16	1.101723E-17
5.490000E+03	2.860331E-16	1.097520E-17
5.500000E+03	2.864815E-16	1.109953E-17
5.510000E+03	2.871126E-16	1.134735E-17
5.520000E+03	2.878695E-16	1.166294E-17
5.530000E+03	2.886798E-16	1.199974E-17
5.540000E+03	2.894610E-16	1.232367E-17
5.550000E+03	2.901272E-16	1.261228E-17
5.560000E+03	2.905968E-16	1.285273E-17
5.570000E+03	2.908010E-16	1.303953E-17
5.580000E+03	2.906897E-16	1.317272E-17
5.590000E+03	2.901915E-16	1.325430E-17
5.600000E+03	2.893912E-16	1.329492E-17
5.610000E+03	2.882602E-16	1.330049E-17
5.620000E+03	2.868279E-16	1.327904E-17
5.630000E+03	2.851314E-16	1.323768E-17
5.640000E+03	2.832106E-16	1.318209E-17
5.650000E+03	2.810626E-16	1.311426E-17
5.660000E+03	2.788131E-16	1.304064E-17
5.670000E+03	2.764598E-16	1.296051E-17
5.680000E+03	2.740052E-16	1.287264E-17
5.690000E+03	2.715828E-16	1.278167E-17
5.700000E+03	2.692060E-16	1.268680E-17
5.710000E+03	2.668949E-16	1.258807E-17
5.720000E+03	2.647942E-16	1.249212E-17
5.730000E+03	2.629252E-16	1.240042E-17
5.740000E+03	2.613048E-16	1.231477E-17
5.750000E+03	2.600600E-16	1.224234E-17
5.760000E+03	2.591843E-16	1.218399E-17
5.770000E+03	2.586553E-16	1.213957E-17
5.780000E+03	2.585507E-16	1.211321E-17
5.790000E+03	2.587731E-16	1.210041E-17
5.800000E+03	2.593672E-16	1.210301E-17
5.810000E+03	2.602071E-16	1.211477E-17
5.820000E+03	2.613152E-16	1.213652E-17
5.830000E+03	2.625485E-16	1.216179E-17
5.840000E+03	2.639191E-16	1.219194E-17
5.850000E+03	2.652781E-16	1.222150E-17
5.860000E+03	2.665977E-16	1.225114E-17
5.870000E+03	2.678549E-16	1.228186E-17
5.880000E+03	2.689117E-16	1.230908E-17
5.890000E+03	2.698038E-16	1.233528E-17
5.900000E+03	2.704159E-16	1.235466E-17
5.910000E+03	2.707708E-16	1.236611E-17
5.920000E+03	2.709064E-16	1.236773E-17
5.930000E+03	2.707499E-16	1.235155E-17
5.940000E+03	2.703620E-16	1.231550E-17
5.950000E+03	2.697671E-16	1.225668E-17
5.960000E+03	2.690328E-16	1.217559E-17
5.970000E+03	2.681039E-16	1.206900E-17
5.980000E+03	2.670487E-16	1.194102E-17
5.990000E+03	2.658957E-16	1.179532E-17
6.000000E+03	2.647160E-16	1.163833E-17
6.010000E+03	2.634618E-16	1.147157E-17
6.020000E+03	2.622079E-16	1.130160E-17
6.030000E+03	2.609874E-16	1.113221E-17
6.040000E+03	2.598297E-16	1.096550E-17
6.050000E+03	2.587583E-16	1.080137E-17
6.060000E+03	2.578292E-16	1.063903E-17
6.070000E+03	2.569746E-16	1.047058E-17
6.080000E+03	2.562407E-16	1.029112E-17
6.090000E+03	2.556336E-16	1.009271E-17
6.100000E+03	2.551630E-16	9.866517E-18
6.110000E+03	2.548472E-16	9.602970E-18
6.120000E+03	2.547177E-16	9.292104E-18
6.130000E+03	2.548240E-16	8.924571E-18
6.140000E+03	2.552363E-16	8.494667E-18
6.150000E+03	2.560461E-16	8.006917E-18
6.160000E+03	2.573619E-16	7.487876E-18
6.170000E+03	2.593007E-16	7.004645E-18
6.180000E+03	2.619725E-16	6.685812E-18
6.190000E+03	2.654607E-16	6.715553E-18
6.200000E+03	2.698993E-16	7.161123E-18
6.210000E+03	2.755191E-16	7.875308E-18
6.220000E+03	2.824379E-16	8.718947E-18
6.230000E+03	2.907964E-16	9.611891E-18
6.240000E+03	3.004886E-16	1.051220E-17
6.250000E+03	3.113188E-16	1.140204E-17
6.260000E+03	3.229580E-16	1.227286E-17
6.270000E+03	3.349562E-16	1.311754E-17
6.280000E+03	3.467703E-16	1.392616E-17
6.290000E+03	3.577545E-16	1.468216E-17
6.300000E+03	3.674308E-16	1.537142E-17
6.310000E+03	3.752264E-16	1.597095E-17
6.320000E+03	3.807372E-16	1.646021E-17
6.330000E+03	3.836512E-16	1.681999E-17
6.340000E+03	3.839957E-16	1.704589E-17
6.350000E+03	3.817825E-16	1.713498E-17
6.360000E+03	3.772211E-16	1.709601E-17
6.370000E+03	3.705742E-16	1.694277E-17
6.380000E+03	3.623502E-16	1.670185E-17
6.390000E+03	3.529249E-16	1.639433E-17
6.400000E+03	3.426851E-16	1.604136E-17
6.410000E+03	3.321517E-16	1.566948E-17
6.420000E+03	3.216384E-16	1.529484E-17
6.430000E+03	3.114025E-16	1.493044E-17
6.440000E+03	3.017749E-16	1.459280E-17
6.450000E+03	2.928723E-16	1.428852E-17
6.460000E+03	2.847554E-16	1.402189E-17
6.470000E+03	2.775636E-16	1.380157E-17
6.480000E+03	2.712212E-16	1.362601E-17
6.490000E+03	2.657901E-16	1.350063E-17
6.500000E+03	2.611432E-16	1.342102E-17
6.510000E+03	2.572983E-16	1.338931E-17
6.520000E+03	2.541386E-16	1.339939E-17
6.530000E+03	2.515375E-16	1.344287E-17
6.540000E+03	2.494722E-16	1.351528E-17
6.550000E+03	2.477564E-16	1.360215E-17
6.560000E+03	2.463481E-16	1.369625E-17
6.570000E+03	2.450525E-16	1.378223E-17
6.580000E+03	2.438308E-16	1.385449E-17
6.590000E+03	2.425099E-16	1.390159E-17
6.600000E+03	2.410511E-16	1.392162E-17
6.610000E+03	2.394430E-16	1.391605E-17
6.620000E+03	2.375934E-16	1.388304E-17
6.630000E+03	2.355820E-16	1.383150E-17
6.640000E+03	2.333631E-16	1.376317E-17
6.650000E+03	2.310464E-16	1.368855E-17
6.660000E+03	2.286042E-16	1.360927E-17
6.670000E+03	2.261149E-16	1.353225E-17
6.680000E+03	2.236511E-16	1.346301E-17
6.690000E+03	2.211765E-16	1.339951E-17
6.700000E+03	2.187510E-16	1.334454E-17
6.710000E+03	2.164251E-16	1.329974E-17
6.720000E+03	2.141433E-16	1.325981E-17
6.730000E+03	2.119432E-16	1.322506E-17
6.740000E+03	2.098566E-16	1.319558E-17
6.750000E+03	2.078165E-16	1.316567E-17
6.760000E+03	2.058527E-16	1.313614E-17
6.770000E+03	2.039649E-16	1.310648E-17
6.780000E+03	2.021870E-16	1.307893E-17
6.790000E+03	2.004630E-16	1.305034E-17
6.800000E+03	1.988319E-16	1.302405E-17
6.810000E+03	1.973026E-16	1.300157E-17
6.820000E+03	1.959128E-16	1.298635E-17
6.830000E+03	1.946081E-16	1.297568E-17
6.840000E+03	1.934220E-16	1.297243E-17
6.850000E+03	1.923550E-16	1.297718E-17
6.860000E+03	1.914056E-16	1.299014E-17
6.870000E+03	1.905995E-16	1.301325E-17
6.880000E+03	1.898735E-16	1.304221E-17
6.890000E+03	1.892508E-16	1.307851E-17
6.900000E+03	1.887245E-16	1.312146E-17
6.910000E+03	1.882863E-16	1.317030E-17
6.920000E+03	1.879273E-16	1.322418E-17
6.930000E+03	1.876378E-16	1.328229E-17
6.940000E+03	1.874362E-16	1.334587E-17
6.950000E+03	1.872546E-16	1.341016E-17
6.960000E+03	1.871116E-16	1.347661E-17
6.970000E+03	1.869973E-16	1.354478E-17
6.980000E+03	1.869030E-16	1.361434E-17
6.990000E+03	1.868209E-16	1.368511E-17
7.000000E+03	1.867447E-16	1.375699E-17
7.010000E+03	1.866694E-16	1.382996E-17
7.020000E+03	1.865918E-16	1.390405E-17
7.030000E+03	1.865104E-16	1.397932E-17
7.040000E+03	1.864256E-16	1.405589E-17
7.050000E+03	1.863402E-16	1.413392E-17
7.060000E+03	1.862588E-16	1.421367E-17
7.070000E+03	1.861887E-16	1.429554E-17
7.080000E+03	1.861391E-16	1.438003E-17
7.090000E+03	1.861210E-16	1.446782E-17
7.100000E+03	1.861471E-16	1.455971E-17
7.110000E+03	1.862309E-16	1.465661E-17
7.120000E+03	1.863870E-16	1.475950E-17
7.130000E+03	1.866299E-16	1.486934E-17
7.140000E+03	1.869456E-16	1.498479E-17
7.150000E+03	1.874058E-16	1.511130E-17
7.160000E+03	1.879956E-16	1.524741E-17
7.170000E+03	1.887272E-16	1.539381E-17
7.180000E+03	1.896109E-16	1.555112E-17
7.190000E+03	1.906540E-16	1.571988E-17
7.200000E+03	1.918602E-16	1.590048E-17
7.210000E+03	1.932284E-16	1.609318E-17
7.220000E+03	1.947222E-16	1.629557E-17
7.230000E+03	1.963889E-16	1.651260E-17
7.240000E+03	1.981803E-16	1.674170E-17
7.250000E+03	2.000716E-16	1.698285E-17
7.260000E+03	2.020324E-16	1.723634E-17
7.270000E+03	2.039952E-16	1.750035E-17
7.280000E+03	2.059826E-16	1.778209E-17
7.290000E+03	2.079208E-16	1.808210E-17
7.300000E+03	2.097667E-16	1.840534E-17
7.310000E+03	2.114457E-16	1.875588E-17
7.320000E+03	2.129837E-16	1.914852E-17
7.330000E+03	2.143145E-16	1.959148E-17
7.340000E+03	2.154098E-16	2.009734E-17
7.350000E+03	2.162148E-16	2.067617E-17
7.360000E+03	2.167817E-16	2.134712E-17
7.370000E+03	2.170699E-16	2.211835E-17
7.380000E+03	2.170450E-16	2.299459E-17
7.390000E+03	2.167788E-16	2.398712E-17
7.400000E+03	2.162472E-16	2.509218E-17
7.410000E+03	2.154298E-16	2.630051E-17
7.420000E+03	2.144075E-16	2.761039E-17
7.430000E+03	2.131626E-16	2.900483E-17
7.440000E+03	2.116776E-16	3.046375E-17
7.450000E+03	2.100337E-16	3.198016E-17
7.460000E+03	2.081808E-16	3.352863E-17
7.470000E+03	2.061983E-16	3.510467E-17
7.480000E+03	2.040683E-16	3.669030E-17
7.490000E+03	2.017736E-16	3.826821E-17
7.500000E+03	1.993907E-16	3.984016E-17
7.510000E+03	1.968705E-16	4.138562E-17
7.520000E+03	1.942868E-16	4.290968E-17
7.530000E+03	1.915907E-16	4.439265E-17
7.540000E+03	1.888529E-16	4.584215E-17
7.550000E+03	1.860250E-16	4.723908E-17
7.560000E+03	1.831747E-16	4.859331E-17
7.570000E+03	1.802539E-16	4.988609E-17
7.580000E+03	1.773274E-16	5.112929E-17
7.590000E+03	1.743478E-16	5.230439E-17
7.600000E+03	1.713769E-16	5.342505E-17
7.610000E+03	1.683680E-16	5.447297E-17
7.620000E+03	1.653801E-16	5.546341E-17
7.630000E+03	1.623673E-16	5.637830E-17
7.640000E+03	1.593858E-16	5.723436E-17
7.650000E+03	1.563906E-16	5.801371E-17
7.660000E+03	1.534115E-16	5.872522E-17
7.670000E+03	1.504759E-16	5.937854E-17
7.680000E+03	1.475404E-16	5.995610E-17
7.690000E+03	1.446548E-16	6.047741E-17
7.700000E+03	1.417768E-16	6.092505E-17
7.710000E+03	1.389321E-16	6.130978E-17
7.720000E+03	1.361443E-16	6.164288E-17
7.730000E+03	1.333729E-16	6.190706E-17
7.740000E+03	1.306416E-16	6.211384E-17
7.750000E+03	1.279718E-16	6.227498E-17
7.760000E+03	1.253250E-16	6.237333E-17
