#wls	flux	fluxerr
1.600000E+03	1.053247E-17	1.107166E-17
1.640000E+03	1.054352E-17	1.108012E-17
1.680000E+03	1.055406E-17	1.108759E-17
1.720000E+03	1.056806E-17	1.109819E-17
1.760000E+03	1.058384E-17	1.111007E-17
1.800000E+03	1.060160E-17	1.112337E-17
1.840000E+03	1.062159E-17	1.113827E-17
1.880000E+03	1.064409E-17	1.115495E-17
1.920000E+03	1.066940E-17	1.117360E-17
1.960000E+03	1.069786E-17	1.119445E-17
2.000000E+03	1.072983E-17	1.121775E-17
2.040000E+03	1.076572E-17	1.124374E-17
2.080000E+03	1.080599E-17	1.127273E-17
2.120000E+03	1.085309E-17	1.130705E-17
2.160000E+03	1.090370E-17	1.134299E-17
2.200000E+03	1.096037E-17	1.138296E-17
2.240000E+03	1.102577E-17	1.142940E-17
2.280000E+03	1.109672E-17	1.147869E-17
2.320000E+03	1.117803E-17	1.153541E-17
2.360000E+03	1.126667E-17	1.159598E-17
2.400000E+03	1.136769E-17	1.166512E-17
2.440000E+03	1.148029E-17	1.174140E-17
2.480000E+03	1.160577E-17	1.182554E-17
2.520000E+03	1.174352E-17	1.191617E-17
2.560000E+03	1.189932E-17	1.201838E-17
2.600000E+03	1.207297E-17	1.213097E-17
2.640000E+03	1.226652E-17	1.225497E-17
2.680000E+03	1.248230E-17	1.239149E-17
2.720000E+03	1.272521E-17	1.254401E-17
2.760000E+03	1.299373E-17	1.270944E-17
2.800000E+03	1.329343E-17	1.289149E-17
2.840000E+03	1.362809E-17	1.309182E-17
2.880000E+03	1.400204E-17	1.331227E-17
2.920000E+03	1.442270E-17	1.355726E-17
2.960000E+03	1.489060E-17	1.382428E-17
3.000000E+03	1.541726E-17	1.412066E-17
3.010000E+03	1.555578E-17	1.419678E-17
3.020000E+03	1.570111E-17	1.427728E-17
3.030000E+03	1.585064E-17	1.435974E-17
3.040000E+03	1.600451E-17	1.444419E-17
3.050000E+03	1.616285E-17	1.453068E-17
3.060000E+03	1.632580E-17	1.461926E-17
3.070000E+03	1.649350E-17	1.470998E-17
3.080000E+03	1.666610E-17	1.480290E-17
3.090000E+03	1.684078E-17	1.489542E-17
3.100000E+03	1.702360E-17	1.499286E-17
3.110000E+03	1.721180E-17	1.509265E-17
3.120000E+03	1.740553E-17	1.519485E-17
3.130000E+03	1.760498E-17	1.529951E-17
3.140000E+03	1.781030E-17	1.540668E-17
3.150000E+03	1.802170E-17	1.551643E-17
3.160000E+03	1.823935E-17	1.562881E-17
3.170000E+03	1.846346E-17	1.574388E-17
3.180000E+03	1.869092E-17	1.585890E-17
3.190000E+03	1.892850E-17	1.597950E-17
3.200000E+03	1.917314E-17	1.610296E-17
3.210000E+03	1.942507E-17	1.622934E-17
3.220000E+03	1.968451E-17	1.635869E-17
3.230000E+03	1.995169E-17	1.649108E-17
3.240000E+03	2.022685E-17	1.662655E-17
3.250000E+03	2.051023E-17	1.676516E-17
3.260000E+03	2.080208E-17	1.690696E-17
3.270000E+03	2.110265E-17	1.705200E-17
3.280000E+03	2.141221E-17	1.720032E-17
3.290000E+03	2.172719E-17	1.734892E-17
3.300000E+03	2.205548E-17	1.750391E-17
3.310000E+03	2.239356E-17	1.766231E-17
3.320000E+03	2.274174E-17	1.782415E-17
3.330000E+03	2.310031E-17	1.798944E-17
3.340000E+03	2.346955E-17	1.815821E-17
3.350000E+03	2.384977E-17	1.833046E-17
3.360000E+03	2.424129E-17	1.850621E-17
3.370000E+03	2.464441E-17	1.868544E-17
3.380000E+03	2.505945E-17	1.886814E-17
3.390000E+03	2.548673E-17	1.905428E-17
3.400000E+03	2.592657E-17	1.924382E-17
3.410000E+03	2.637931E-17	1.943670E-17
3.420000E+03	2.684527E-17	1.963287E-17
3.430000E+03	2.732478E-17	1.983223E-17
3.440000E+03	2.781328E-17	2.003116E-17
3.450000E+03	2.832080E-17	2.023655E-17
3.460000E+03	2.884286E-17	2.044476E-17
3.470000E+03	2.937980E-17	2.065563E-17
3.480000E+03	2.993194E-17	2.086897E-17
3.490000E+03	3.049960E-17	2.108456E-17
3.500000E+03	3.108309E-17	2.130217E-17
3.510000E+03	3.168274E-17	2.152152E-17
3.520000E+03	3.229883E-17	2.174230E-17
3.530000E+03	3.293166E-17	2.196418E-17
3.540000E+03	3.358151E-17	2.218678E-17
3.550000E+03	3.424865E-17	2.240971E-17
3.560000E+03	3.493333E-17	2.263250E-17
3.570000E+03	3.563577E-17	2.285468E-17
3.580000E+03	3.635621E-17	2.307572E-17
3.590000E+03	3.709481E-17	2.329505E-17
3.600000E+03	3.785176E-17	2.351206E-17
3.610000E+03	3.862720E-17	2.372609E-17
3.620000E+03	3.941432E-17	2.393224E-17
3.630000E+03	4.022688E-17	2.413813E-17
3.640000E+03	4.105816E-17	2.433880E-17
3.650000E+03	4.190815E-17	2.453342E-17
3.660000E+03	4.277684E-17	2.472111E-17
3.670000E+03	4.366413E-17	2.490095E-17
3.680000E+03	4.456990E-17	2.507198E-17
3.690000E+03	4.549397E-17	2.523320E-17
3.700000E+03	4.643612E-17	2.538357E-17
3.710000E+03	4.739605E-17	2.552204E-17
3.720000E+03	4.837343E-17	2.564752E-17
3.730000E+03	4.936784E-17	2.575888E-17
3.740000E+03	5.037881E-17	2.585501E-17
3.750000E+03	5.140580E-17	2.593477E-17
3.760000E+03	5.244819E-17	2.599702E-17
3.770000E+03	5.350529E-17	2.604065E-17
3.780000E+03	5.457634E-17	2.606455E-17
3.790000E+03	5.566049E-17	2.606765E-17
3.800000E+03	5.675682E-17	2.604890E-17
3.810000E+03	5.786432E-17	2.600735E-17
3.820000E+03	5.897160E-17	2.593754E-17
3.830000E+03	6.009790E-17	2.584775E-17
3.840000E+03	6.123184E-17	2.573271E-17
3.850000E+03	6.237207E-17	2.559182E-17
3.860000E+03	6.351718E-17	2.542464E-17
3.870000E+03	6.466564E-17	2.523086E-17
3.880000E+03	6.581587E-17	2.501036E-17
3.890000E+03	6.696618E-17	2.476324E-17
3.900000E+03	6.811481E-17	2.448978E-17
3.910000E+03	6.925996E-17	2.419055E-17
3.920000E+03	7.039971E-17	2.386635E-17
3.930000E+03	7.153212E-17	2.351826E-17
3.940000E+03	7.265516E-17	2.314769E-17
3.950000E+03	7.376679E-17	2.275632E-17
3.960000E+03	7.486490E-17	2.234619E-17
3.970000E+03	7.594737E-17	2.191960E-17
3.980000E+03	7.699870E-17	2.147546E-17
3.990000E+03	7.804342E-17	2.102421E-17
4.000000E+03	7.906629E-17	2.056514E-17
4.010000E+03	8.006537E-17	2.010153E-17
4.020000E+03	8.103887E-17	1.963670E-17
4.030000E+03	8.198517E-17	1.917392E-17
4.040000E+03	8.290289E-17	1.871634E-17
4.050000E+03	8.379090E-17	1.826686E-17
4.060000E+03	8.464835E-17	1.782800E-17
4.070000E+03	8.547470E-17	1.740189E-17
4.080000E+03	8.626970E-17	1.699016E-17
4.090000E+03	8.703340E-17	1.659388E-17
4.100000E+03	8.776615E-17	1.621361E-17
4.110000E+03	8.845320E-17	1.584655E-17
4.120000E+03	8.912605E-17	1.549773E-17
4.130000E+03	8.977053E-17	1.516327E-17
4.140000E+03	9.038796E-17	1.484166E-17
4.150000E+03	9.097985E-17	1.453104E-17
4.160000E+03	9.154791E-17	1.422923E-17
4.170000E+03	9.209409E-17	1.393384E-17
4.180000E+03	9.262054E-17	1.364235E-17
4.190000E+03	9.312963E-17	1.335218E-17
4.200000E+03	9.360772E-17	1.305850E-17
4.210000E+03	9.409004E-17	1.276338E-17
4.220000E+03	9.456344E-17	1.246217E-17
4.230000E+03	9.503110E-17	1.215273E-17
4.240000E+03	9.549636E-17	1.183316E-17
4.250000E+03	9.596269E-17	1.150194E-17
4.260000E+03	9.643369E-17	1.115795E-17
4.270000E+03	9.691309E-17	1.080064E-17
4.280000E+03	9.738784E-17	1.042834E-17
4.290000E+03	9.789558E-17	1.004576E-17
4.300000E+03	9.842361E-17	9.653219E-18
4.310000E+03	9.897613E-17	9.254404E-18
4.320000E+03	9.955744E-17	8.854929E-18
4.330000E+03	1.001719E-16	8.462843E-18
4.340000E+03	1.008238E-16	8.089174E-18
4.350000E+03	1.014996E-16	7.747037E-18
4.360000E+03	1.022380E-16	7.457158E-18
4.370000E+03	1.030249E-16	7.239005E-18
4.380000E+03	1.038627E-16	7.114441E-18
4.390000E+03	1.047531E-16	7.102434E-18
4.400000E+03	1.056960E-16	7.203985E-18
4.410000E+03	1.066711E-16	7.400864E-18
4.420000E+03	1.077123E-16	7.674730E-18
4.430000E+03	1.087977E-16	8.003535E-18
4.440000E+03	1.099227E-16	8.368788E-18
4.450000E+03	1.110823E-16	8.755266E-18
4.460000E+03	1.122708E-16	9.151089E-18
4.470000E+03	1.134629E-16	9.545678E-18
4.480000E+03	1.146915E-16	9.935741E-18
4.490000E+03	1.159313E-16	1.031503E-17
4.500000E+03	1.171765E-16	1.068030E-17
4.510000E+03	1.184215E-16	1.102934E-17
4.520000E+03	1.196401E-16	1.135879E-17
4.530000E+03	1.208683E-16	1.167170E-17
4.540000E+03	1.220807E-16	1.196585E-17
4.550000E+03	1.232729E-16	1.224134E-17
4.560000E+03	1.244196E-16	1.249646E-17
4.570000E+03	1.255608E-16	1.273620E-17
4.580000E+03	1.266731E-16	1.295945E-17
4.590000E+03	1.277558E-16	1.316741E-17
4.600000E+03	1.288094E-16	1.336144E-17
4.610000E+03	1.298133E-16	1.354068E-17
4.620000E+03	1.308149E-16	1.371131E-17
4.630000E+03	1.317957E-16	1.387259E-17
4.640000E+03	1.327604E-16	1.402610E-17
4.650000E+03	1.336907E-16	1.417093E-17
4.660000E+03	1.346379E-16	1.431342E-17
4.670000E+03	1.355839E-16	1.445255E-17
4.680000E+03	1.365100E-16	1.458713E-17
4.690000E+03	1.374671E-16	1.472332E-17
4.700000E+03	1.384353E-16	1.485968E-17
4.710000E+03	1.394174E-16	1.499709E-17
4.720000E+03	1.403909E-16	1.513365E-17
4.730000E+03	1.414051E-16	1.527506E-17
4.740000E+03	1.424363E-16	1.541903E-17
4.750000E+03	1.434592E-16	1.556300E-17
4.760000E+03	1.445219E-16	1.571219E-17
4.770000E+03	1.455983E-16	1.586368E-17
4.780000E+03	1.466867E-16	1.601708E-17
4.790000E+03	1.477602E-16	1.616912E-17
4.800000E+03	1.488683E-16	1.632482E-17
4.810000E+03	1.499855E-16	1.648093E-17
4.820000E+03	1.510860E-16	1.663411E-17
4.830000E+03	1.522229E-16	1.678965E-17
4.840000E+03	1.533724E-16	1.694436E-17
4.850000E+03	1.545104E-16	1.709497E-17
4.860000E+03	1.556926E-16	1.724709E-17
4.870000E+03	1.568683E-16	1.739456E-17
4.880000E+03	1.580936E-16	1.754311E-17
4.890000E+03	1.593433E-16	1.768955E-17
4.900000E+03	1.605904E-16	1.783058E-17
4.910000E+03	1.618894E-16	1.797202E-17
4.920000E+03	1.632115E-16	1.811058E-17
4.930000E+03	1.645260E-16	1.824283E-17
4.940000E+03	1.658857E-16	1.837474E-17
4.950000E+03	1.672297E-16	1.849974E-17
4.960000E+03	1.686103E-16	1.862393E-17
4.970000E+03	1.699933E-16	1.874396E-17
4.980000E+03	1.713429E-16	1.885641E-17
4.990000E+03	1.727111E-16	1.896762E-17
5.000000E+03	1.740319E-16	1.907100E-17
5.010000E+03	1.753582E-16	1.917298E-17
5.020000E+03	1.766545E-16	1.927021E-17
5.030000E+03	1.778856E-16	1.935926E-17
5.040000E+03	1.791096E-16	1.944664E-17
5.050000E+03	1.802646E-16	1.952552E-17
5.060000E+03	1.814135E-16	1.960246E-17
5.070000E+03	1.824972E-16	1.967057E-17
5.080000E+03	1.835824E-16	1.973649E-17
5.090000E+03	1.846111E-16	1.979337E-17
5.100000E+03	1.856512E-16	1.984798E-17
5.110000E+03	1.866753E-16	1.989698E-17
5.120000E+03	1.876538E-16	1.993702E-17
5.130000E+03	1.886522E-16	1.997504E-17
5.140000E+03	1.896054E-16	2.000424E-17
5.150000E+03	1.905757E-16	2.003146E-17
5.160000E+03	1.914941E-16	2.004963E-17
5.170000E+03	1.924205E-16	2.006526E-17
5.180000E+03	1.932828E-16	2.007088E-17
5.190000E+03	1.941404E-16	2.007253E-17
5.200000E+03	1.949196E-16	2.006227E-17
5.210000E+03	1.956807E-16	2.004569E-17
5.220000E+03	1.963504E-16	2.001444E-17
5.230000E+03	1.969908E-16	1.997377E-17
5.240000E+03	1.975301E-16	1.991508E-17
5.250000E+03	1.979990E-16	1.983999E-17
5.260000E+03	1.984295E-16	1.975005E-17
5.270000E+03	1.987528E-16	1.963662E-17
5.280000E+03	1.990368E-16	1.950457E-17
5.290000E+03	1.992138E-16	1.934532E-17
5.300000E+03	1.993527E-16	1.916361E-17
5.310000E+03	1.993860E-16	1.895085E-17
5.320000E+03	1.993829E-16	1.871154E-17
5.330000E+03	1.992766E-16	1.843717E-17
5.340000E+03	1.991032E-16	1.812893E-17
5.350000E+03	1.989004E-16	1.778799E-17
5.360000E+03	1.986046E-16	1.740657E-17
5.370000E+03	1.982905E-16	1.698947E-17
5.380000E+03	1.978978E-16	1.653024E-17
5.390000E+03	1.974693E-16	1.603223E-17
5.400000E+03	1.970478E-16	1.549983E-17
5.410000E+03	1.965746E-16	1.493138E-17
5.420000E+03	1.961257E-16	1.433879E-17
5.430000E+03	1.956414E-16	1.372789E-17
5.440000E+03	1.951621E-16	1.311780E-17
5.450000E+03	1.947268E-16	1.253453E-17
5.460000E+03	1.942737E-16	1.200609E-17
5.470000E+03	1.938397E-16	1.157562E-17
5.480000E+03	1.934600E-16	1.129177E-17
5.490000E+03	1.930690E-16	1.119640E-17
5.500000E+03	1.926981E-16	1.131347E-17
5.510000E+03	1.923748E-16	1.161384E-17
5.520000E+03	1.920262E-16	1.204683E-17
5.530000E+03	1.916766E-16	1.256782E-17
5.540000E+03	1.913497E-16	1.313832E-17
5.550000E+03	1.909704E-16	1.372118E-17
5.560000E+03	1.905622E-16	1.429364E-17
5.570000E+03	1.901490E-16	1.484021E-17
5.580000E+03	1.896583E-16	1.534354E-17
5.590000E+03	1.891170E-16	1.579829E-17
5.600000E+03	1.885209E-16	1.620035E-17
5.610000E+03	1.879004E-16	1.655134E-17
5.620000E+03	1.871910E-16	1.684670E-17
5.630000E+03	1.864271E-16	1.709192E-17
5.640000E+03	1.856447E-16	1.729385E-17
5.650000E+03	1.847859E-16	1.745122E-17
5.660000E+03	1.838901E-16	1.757193E-17
5.670000E+03	1.829663E-16	1.766105E-17
5.680000E+03	1.820558E-16	1.772656E-17
5.690000E+03	1.811076E-16	1.776713E-17
5.700000E+03	1.801650E-16	1.779016E-17
5.710000E+03	1.792409E-16	1.779963E-17
5.720000E+03	1.783786E-16	1.780216E-17
5.730000E+03	1.775291E-16	1.779483E-17
5.740000E+03	1.767343E-16	1.778338E-17
5.750000E+03	1.760040E-16	1.777009E-17
5.760000E+03	1.753455E-16	1.775680E-17
5.770000E+03	1.747937E-16	1.774792E-17
5.780000E+03	1.742911E-16	1.773826E-17
5.790000E+03	1.738670E-16	1.773126E-17
5.800000E+03	1.735185E-16	1.772679E-17
5.810000E+03	1.732399E-16	1.772421E-17
5.820000E+03	1.730532E-16	1.772535E-17
5.830000E+03	1.728898E-16	1.772247E-17
5.840000E+03	1.727683E-16	1.771648E-17
5.850000E+03	1.726764E-16	1.770488E-17
5.860000E+03	1.726005E-16	1.768494E-17
5.870000E+03	1.725263E-16	1.765380E-17
5.880000E+03	1.724686E-16	1.761167E-17
5.890000E+03	1.723538E-16	1.754991E-17
5.900000E+03	1.721980E-16	1.746931E-17
5.910000E+03	1.719890E-16	1.736809E-17
5.920000E+03	1.717172E-16	1.724502E-17
5.930000E+03	1.713759E-16	1.709944E-17
5.940000E+03	1.709611E-16	1.693120E-17
5.950000E+03	1.705012E-16	1.674345E-17
5.960000E+03	1.699401E-16	1.653105E-17
5.970000E+03	1.693118E-16	1.629769E-17
5.980000E+03	1.686239E-16	1.604423E-17
5.990000E+03	1.678867E-16	1.577145E-17
6.000000E+03	1.671130E-16	1.547992E-17
6.010000E+03	1.663183E-16	1.516994E-17
6.020000E+03	1.655207E-16	1.484145E-17
6.030000E+03	1.647410E-16	1.449394E-17
6.040000E+03	1.640025E-16	1.412645E-17
6.050000E+03	1.633312E-16	1.373751E-17
6.060000E+03	1.627831E-16	1.332738E-17
6.070000E+03	1.623331E-16	1.288895E-17
6.080000E+03	1.620421E-16	1.242164E-17
6.090000E+03	1.619446E-16	1.192238E-17
6.100000E+03	1.620766E-16	1.138830E-17
6.110000E+03	1.624749E-16	1.081744E-17
6.120000E+03	1.631766E-16	1.020984E-17
6.130000E+03	1.642180E-16	9.569427E-18
6.140000E+03	1.656341E-16	8.907065E-18
6.150000E+03	1.674572E-16	8.245688E-18
6.160000E+03	1.697155E-16	7.628177E-18
6.170000E+03	1.724310E-16	7.127385E-18
6.180000E+03	1.756178E-16	6.851602E-18
6.190000E+03	1.792786E-16	6.927140E-18
6.200000E+03	1.834057E-16	7.403823E-18
6.210000E+03	1.879797E-16	8.202323E-18
6.220000E+03	1.929626E-16	9.220922E-18
6.230000E+03	1.982944E-16	1.037527E-17
6.240000E+03	2.038913E-16	1.160420E-17
6.250000E+03	2.096448E-16	1.286411E-17
6.260000E+03	2.154230E-16	1.412221E-17
6.270000E+03	2.210735E-16	1.535173E-17
6.280000E+03	2.264297E-16	1.652917E-17
6.290000E+03	2.313194E-16	1.763304E-17
6.300000E+03	2.355746E-16	1.864378E-17
6.310000E+03	2.390427E-16	1.954419E-17
6.320000E+03	2.415972E-16	2.032026E-17
6.330000E+03	2.431456E-16	2.096200E-17
6.340000E+03	2.436360E-16	2.146401E-17
6.350000E+03	2.430593E-16	2.182575E-17
6.360000E+03	2.414488E-16	2.205137E-17
6.370000E+03	2.388767E-16	2.214930E-17
6.380000E+03	2.354482E-16	2.213142E-17
6.390000E+03	2.312932E-16	2.201217E-17
6.400000E+03	2.265185E-16	2.180382E-17
6.410000E+03	2.213541E-16	2.153049E-17
6.420000E+03	2.159095E-16	2.120480E-17
6.430000E+03	2.103233E-16	2.084224E-17
6.440000E+03	2.047183E-16	2.045683E-17
6.450000E+03	1.991980E-16	2.006082E-17
6.460000E+03	1.938454E-16	1.966446E-17
6.470000E+03	1.887235E-16	1.927606E-17
6.480000E+03	1.838767E-16	1.890201E-17
6.490000E+03	1.793333E-16	1.854701E-17
6.500000E+03	1.751086E-16	1.821434E-17
6.510000E+03	1.711773E-16	1.790304E-17
6.520000E+03	1.675948E-16	1.762046E-17
6.530000E+03	1.643206E-16	1.736395E-17
6.540000E+03	1.613403E-16	1.713347E-17
6.550000E+03	1.586357E-16	1.692858E-17
6.560000E+03	1.561872E-16	1.674850E-17
6.570000E+03	1.539737E-16	1.659222E-17
6.580000E+03	1.519737E-16	1.645847E-17
6.590000E+03	1.501400E-16	1.634297E-17
6.600000E+03	1.485031E-16	1.624956E-17
6.610000E+03	1.470162E-16	1.617347E-17
6.620000E+03	1.456594E-16	1.611248E-17
6.630000E+03	1.444140E-16	1.606420E-17
6.640000E+03	1.432620E-16	1.602615E-17
6.650000E+03	1.421632E-16	1.599311E-17
6.660000E+03	1.411519E-16	1.596817E-17
6.670000E+03	1.401918E-16	1.594645E-17
6.680000E+03	1.392732E-16	1.592614E-17
6.690000E+03	1.383888E-16	1.590581E-17
6.700000E+03	1.375337E-16	1.588448E-17
6.710000E+03	1.366820E-16	1.585889E-17
6.720000E+03	1.358793E-16	1.583432E-17
6.730000E+03	1.351027E-16	1.580826E-17
6.740000E+03	1.343533E-16	1.578118E-17
6.750000E+03	1.336328E-16	1.575371E-17
6.760000E+03	1.329203E-16	1.572388E-17
6.770000E+03	1.322628E-16	1.569779E-17
6.780000E+03	1.316387E-16	1.567339E-17
6.790000E+03	1.310486E-16	1.565123E-17
6.800000E+03	1.304925E-16	1.563172E-17
6.810000E+03	1.299477E-16	1.561250E-17
6.820000E+03	1.294579E-16	1.559904E-17
6.830000E+03	1.289997E-16	1.558874E-17
6.840000E+03	1.285716E-16	1.558155E-17
6.850000E+03	1.281502E-16	1.557473E-17
6.860000E+03	1.277778E-16	1.557349E-17
6.870000E+03	1.274308E-16	1.557506E-17
6.880000E+03	1.271076E-16	1.557936E-17
6.890000E+03	1.267850E-16	1.558369E-17
6.900000E+03	1.265048E-16	1.559337E-17
6.910000E+03	1.262435E-16	1.560580E-17
6.920000E+03	1.259993E-16	1.562103E-17
6.930000E+03	1.257492E-16	1.563647E-17
6.940000E+03	1.255347E-16	1.565755E-17
6.950000E+03	1.253329E-16	1.568162E-17
6.960000E+03	1.251431E-16	1.570871E-17
6.970000E+03	1.249435E-16	1.573610E-17
6.980000E+03	1.247772E-16	1.576912E-17
6.990000E+03	1.246239E-16	1.580504E-17
7.000000E+03	1.244638E-16	1.584110E-17
7.010000E+03	1.243416E-16	1.588273E-17
7.020000E+03	1.242388E-16	1.592726E-17
7.030000E+03	1.241371E-16	1.597211E-17
7.040000E+03	1.240821E-16	1.602293E-17
7.050000E+03	1.240559E-16	1.607729E-17
7.060000E+03	1.240620E-16	1.613551E-17
7.070000E+03	1.240820E-16	1.619521E-17
7.080000E+03	1.241616E-16	1.626231E-17
7.090000E+03	1.242818E-16	1.633441E-17
7.100000E+03	1.244236E-16	1.640903E-17
7.110000E+03	1.246311E-16	1.649205E-17
7.120000E+03	1.248839E-16	1.658084E-17
7.130000E+03	1.251611E-16	1.667262E-17
7.140000E+03	1.255051E-16	1.677304E-17
7.150000E+03	1.258935E-16	1.687908E-17
7.160000E+03	1.263030E-16	1.698757E-17
7.170000E+03	1.267743E-16	1.710390E-17
7.180000E+03	1.272826E-16	1.722473E-17
7.190000E+03	1.278017E-16	1.734658E-17
7.200000E+03	1.283703E-16	1.747486E-17
7.210000E+03	1.289607E-16	1.760611E-17
7.220000E+03	1.295433E-16	1.773689E-17
7.230000E+03	1.301545E-16	1.787299E-17
7.240000E+03	1.307403E-16	1.800824E-17
7.250000E+03	1.313354E-16	1.814905E-17
7.260000E+03	1.319063E-16	1.829301E-17
7.270000E+03	1.324188E-16	1.843812E-17
7.280000E+03	1.329063E-16	1.859250E-17
7.290000E+03	1.333344E-16	1.875551E-17
7.300000E+03	1.336688E-16	1.892722E-17
7.310000E+03	1.339450E-16	1.911813E-17
7.320000E+03	1.341078E-16	1.932647E-17
7.330000E+03	1.341958E-16	1.956415E-17
7.340000E+03	1.341800E-16	1.983351E-17
7.350000E+03	1.340333E-16	2.013675E-17
7.360000E+03	1.337995E-16	2.048606E-17
7.370000E+03	1.334322E-16	2.087907E-17
7.380000E+03	1.329781E-16	2.132643E-17
7.390000E+03	1.324166E-16	2.182678E-17
7.400000E+03	1.317284E-16	2.237688E-17
7.410000E+03	1.309629E-16	2.298321E-17
7.420000E+03	1.300796E-16	2.363526E-17
7.430000E+03	1.291284E-16	2.433688E-17
7.440000E+03	1.280698E-16	2.507452E-17
7.450000E+03	1.269533E-16	2.585055E-17
7.460000E+03	1.257619E-16	2.665423E-17
7.470000E+03	1.244794E-16	2.747409E-17
7.480000E+03	1.231541E-16	2.831276E-17
7.490000E+03	1.217487E-16	2.915418E-17
7.500000E+03	1.203102E-16	3.000212E-17
7.510000E+03	1.188022E-16	3.084068E-17
7.520000E+03	1.172707E-16	3.167502E-17
7.530000E+03	1.156799E-16	3.248953E-17
7.540000E+03	1.140744E-16	3.329080E-17
7.550000E+03	1.124388E-16	3.406939E-17
7.560000E+03	1.107581E-16	3.481573E-17
7.570000E+03	1.090751E-16	3.553851E-17
7.580000E+03	1.073558E-16	3.622290E-17
7.590000E+03	1.056413E-16	3.687889E-17
7.600000E+03	1.038986E-16	3.749198E-17
7.610000E+03	1.021672E-16	3.807335E-17
7.620000E+03	1.004148E-16	3.860882E-17
7.630000E+03	9.867927E-17	3.911067E-17
7.640000E+03	9.692931E-17	3.956499E-17
7.650000E+03	9.520118E-17	3.998501E-17
7.660000E+03	9.346435E-17	4.035707E-17
7.670000E+03	9.175354E-17	4.069520E-17
7.680000E+03	9.003905E-17	4.098593E-17
7.690000E+03	8.835409E-17	4.124394E-17
7.700000E+03	8.666980E-17	4.145592E-17
7.710000E+03	8.501789E-17	4.163704E-17
7.720000E+03	8.337034E-17	4.177410E-17
7.730000E+03	8.175743E-17	4.188265E-17
7.740000E+03	8.015198E-17	4.194957E-17
7.750000E+03	7.858289E-17	4.199063E-17
7.760000E+03	7.702379E-17	4.199280E-17
