#wls	flux	fluxerr
1.600000E+03	7.019548E-17	2.173547E-18
1.640000E+03	6.613368E-17	2.036110E-18
1.680000E+03	6.222860E-17	1.904667E-18
1.720000E+03	5.849916E-17	1.779752E-18
1.760000E+03	5.495593E-17	1.661627E-18
1.800000E+03	5.161413E-17	1.550684E-18
1.840000E+03	4.848244E-17	1.447103E-18
1.880000E+03	4.557996E-17	1.351363E-18
1.920000E+03	4.290718E-17	1.263375E-18
1.960000E+03	4.049167E-17	1.183834E-18
2.000000E+03	3.835444E-17	1.113220E-18
2.040000E+03	3.651272E-17	1.051875E-18
2.080000E+03	3.499847E-17	1.000545E-18
2.120000E+03	3.383853E-17	9.597931E-19
2.160000E+03	3.306006E-17	9.301582E-19
2.200000E+03	3.269910E-17	9.123944E-19
2.240000E+03	3.279098E-17	9.071919E-19
2.280000E+03	3.337030E-17	9.151771E-19
2.320000E+03	3.445785E-17	9.365553E-19
2.360000E+03	3.605398E-17	9.709493E-19
2.400000E+03	3.815177E-17	1.017775E-18
2.440000E+03	4.075831E-17	1.076814E-18
2.480000E+03	4.389731E-17	1.148263E-18
2.520000E+03	4.762018E-17	1.232999E-18
2.560000E+03	5.202133E-17	1.332935E-18
2.600000E+03	5.722619E-17	1.450652E-18
2.640000E+03	6.337892E-17	1.589051E-18
2.680000E+03	7.062086E-17	1.750782E-18
2.720000E+03	7.907904E-17	1.937968E-18
2.760000E+03	8.887325E-17	2.152390E-18
2.800000E+03	1.001356E-16	2.395963E-18
2.840000E+03	1.130378E-16	2.671364E-18
2.880000E+03	1.277869E-16	2.981867E-18
2.920000E+03	1.446190E-16	3.331150E-18
2.960000E+03	1.638227E-16	3.723778E-18
3.000000E+03	1.857150E-16	4.164586E-18
3.010000E+03	1.916572E-16	4.283108E-18
3.020000E+03	1.977850E-16	4.404824E-18
3.030000E+03	2.041229E-16	4.530229E-18
3.040000E+03	2.106559E-16	4.658946E-18
3.050000E+03	2.174092E-16	4.791482E-18
3.060000E+03	2.243882E-16	4.927902E-18
3.070000E+03	2.315878E-16	5.068040E-18
3.080000E+03	2.390129E-16	5.211949E-18
3.090000E+03	2.466796E-16	5.359927E-18
3.100000E+03	2.545931E-16	5.512030E-18
3.110000E+03	2.627476E-16	5.668070E-18
3.120000E+03	2.711595E-16	5.828344E-18
3.130000E+03	2.798342E-16	5.992906E-18
3.140000E+03	2.887649E-16	6.161548E-18
3.150000E+03	2.979684E-16	6.334568E-18
3.160000E+03	3.074499E-16	6.512009E-18
3.170000E+03	3.172020E-16	6.693650E-18
3.180000E+03	3.272420E-16	6.879790E-18
3.190000E+03	3.375749E-16	7.070467E-18
3.200000E+03	3.481926E-16	7.265441E-18
3.210000E+03	3.591263E-16	7.465296E-18
3.220000E+03	3.703547E-16	7.669516E-18
3.230000E+03	3.818826E-16	7.878130E-18
3.240000E+03	3.937430E-16	8.091748E-18
3.250000E+03	4.059140E-16	8.309842E-18
3.260000E+03	4.184159E-16	8.532757E-18
3.270000E+03	4.312411E-16	8.760259E-18
3.280000E+03	4.444117E-16	8.992726E-18
3.290000E+03	4.579217E-16	9.229953E-18
3.300000E+03	4.717960E-16	9.472367E-18
3.310000E+03	4.860470E-16	9.720128E-18
3.320000E+03	5.006727E-16	9.973118E-18
3.330000E+03	5.156895E-16	1.023157E-17
3.340000E+03	5.311328E-16	1.049611E-17
3.350000E+03	5.470261E-16	1.076709E-17
3.360000E+03	5.633810E-16	1.104464E-17
3.370000E+03	5.802306E-16	1.132931E-17
3.380000E+03	5.976311E-16	1.162209E-17
3.390000E+03	6.156127E-16	1.192342E-17
3.400000E+03	6.342312E-16	1.223427E-17
3.410000E+03	6.535714E-16	1.255613E-17
3.420000E+03	6.736955E-16	1.289001E-17
3.430000E+03	6.947004E-16	1.323761E-17
3.440000E+03	7.167228E-16	1.360131E-17
3.450000E+03	7.398918E-16	1.398333E-17
3.460000E+03	7.644087E-16	1.438722E-17
3.470000E+03	7.904596E-16	1.481615E-17
3.480000E+03	8.182043E-16	1.527277E-17
3.490000E+03	8.477115E-16	1.575800E-17
3.500000E+03	8.789246E-16	1.627038E-17
3.510000E+03	9.118110E-16	1.680896E-17
3.520000E+03	9.463042E-16	1.737214E-17
3.530000E+03	9.823870E-16	1.795928E-17
3.540000E+03	1.020026E-15	1.856943E-17
3.550000E+03	1.059164E-15	1.920123E-17
3.560000E+03	1.099791E-15	1.985420E-17
3.570000E+03	1.141870E-15	2.052736E-17
3.580000E+03	1.185338E-15	2.121930E-17
3.590000E+03	1.230178E-15	2.192946E-17
3.600000E+03	1.276345E-15	2.265676E-17
3.610000E+03	1.323737E-15	2.339916E-17
3.620000E+03	1.372354E-15	2.415644E-17
3.630000E+03	1.422111E-15	2.492690E-17
3.640000E+03	1.472944E-15	2.570920E-17
3.650000E+03	1.524756E-15	2.650148E-17
3.660000E+03	1.577502E-15	2.730279E-17
3.670000E+03	1.631073E-15	2.811110E-17
3.680000E+03	1.685386E-15	2.892484E-17
3.690000E+03	1.740349E-15	2.974234E-17
3.700000E+03	1.795867E-15	3.056193E-17
3.710000E+03	1.851810E-15	3.138127E-17
3.720000E+03	1.908067E-15	3.219853E-17
3.730000E+03	1.964529E-15	3.301181E-17
3.740000E+03	2.021079E-15	3.381920E-17
3.750000E+03	2.077558E-15	3.461809E-17
3.760000E+03	2.133879E-15	3.540709E-17
3.770000E+03	2.189837E-15	3.618291E-17
3.780000E+03	2.245334E-15	3.694410E-17
3.790000E+03	2.300232E-15	3.768855E-17
3.800000E+03	2.354354E-15	3.841353E-17
3.810000E+03	2.407556E-15	3.911695E-17
3.820000E+03	2.459695E-15	3.979674E-17
3.830000E+03	2.510585E-15	4.045019E-17
3.840000E+03	2.560121E-15	4.107594E-17
3.850000E+03	2.608122E-15	4.167140E-17
3.860000E+03	2.654405E-15	4.223407E-17
3.870000E+03	2.698872E-15	4.276278E-17
3.880000E+03	2.741390E-15	4.325585E-17
3.890000E+03	2.781751E-15	4.371048E-17
3.900000E+03	2.819876E-15	4.412589E-17
3.910000E+03	2.855655E-15	4.450089E-17
3.920000E+03	2.888947E-15	4.483378E-17
3.930000E+03	2.919665E-15	4.512376E-17
3.940000E+03	2.947736E-15	4.537026E-17
3.950000E+03	2.973105E-15	4.557299E-17
3.960000E+03	2.995694E-15	4.573132E-17
3.970000E+03	3.015485E-15	4.584554E-17
3.980000E+03	3.032444E-15	4.591572E-17
3.990000E+03	3.046679E-15	4.594406E-17
4.000000E+03	3.058127E-15	4.593012E-17
4.010000E+03	3.066948E-15	4.587690E-17
4.020000E+03	3.073173E-15	4.578532E-17
4.030000E+03	3.076981E-15	4.565857E-17
4.040000E+03	3.078535E-15	4.549952E-17
4.050000E+03	3.077957E-15	4.531037E-17
4.060000E+03	3.075541E-15	4.509587E-17
4.070000E+03	3.071423E-15	4.485832E-17
4.080000E+03	3.065983E-15	4.460356E-17
4.090000E+03	3.059399E-15	4.433445E-17
4.100000E+03	3.052013E-15	4.405612E-17
4.110000E+03	3.044144E-15	4.377329E-17
4.120000E+03	3.036081E-15	4.349023E-17
4.130000E+03	3.028189E-15	4.321219E-17
4.140000E+03	3.020729E-15	4.294285E-17
4.150000E+03	3.014059E-15	4.268725E-17
4.160000E+03	3.008493E-15	4.244971E-17
4.170000E+03	3.004298E-15	4.223384E-17
4.180000E+03	3.001758E-15	4.204341E-17
4.190000E+03	3.001136E-15	4.188188E-17
4.200000E+03	3.002637E-15	4.175184E-17
4.210000E+03	3.006541E-15	4.165686E-17
4.220000E+03	3.012965E-15	4.159828E-17
4.230000E+03	3.022066E-15	4.157792E-17
4.240000E+03	3.033967E-15	4.159712E-17
4.250000E+03	3.048765E-15	4.165688E-17
4.260000E+03	3.066522E-15	4.175771E-17
4.270000E+03	3.087305E-15	4.190018E-17
4.280000E+03	3.111059E-15	4.208320E-17
4.290000E+03	3.137794E-15	4.230662E-17
4.300000E+03	3.167459E-15	4.256944E-17
4.310000E+03	3.199979E-15	4.287039E-17
4.320000E+03	3.235237E-15	4.320767E-17
4.330000E+03	3.273078E-15	4.357899E-17
4.340000E+03	3.313312E-15	4.398163E-17
4.350000E+03	3.355605E-15	4.441104E-17
4.360000E+03	3.399409E-15	4.485987E-17
4.370000E+03	3.443796E-15	4.531590E-17
4.380000E+03	3.487363E-15	4.576081E-17
4.390000E+03	3.528720E-15	4.617666E-17
4.400000E+03	3.567274E-15	4.655609E-17
4.410000E+03	3.603052E-15	4.689990E-17
4.420000E+03	3.636705E-15	4.721695E-17
4.430000E+03	3.668863E-15	4.751576E-17
4.440000E+03	3.700349E-15	4.780721E-17
4.450000E+03	3.731870E-15	4.810058E-17
4.460000E+03	3.764119E-15	4.840481E-17
4.470000E+03	3.797735E-15	4.872800E-17
4.480000E+03	3.833188E-15	4.907609E-17
4.490000E+03	3.870746E-15	4.945233E-17
4.500000E+03	3.910587E-15	4.985881E-17
4.510000E+03	3.952557E-15	5.029341E-17
4.520000E+03	3.996343E-15	5.075200E-17
4.530000E+03	4.041411E-15	5.122766E-17
4.540000E+03	4.086936E-15	5.170989E-17
4.550000E+03	4.132034E-15	5.218746E-17
4.560000E+03	4.175583E-15	5.264627E-17
4.570000E+03	4.216471E-15	5.307241E-17
4.580000E+03	4.253592E-15	5.345214E-17
4.590000E+03	4.285926E-15	5.377283E-17
4.600000E+03	4.312523E-15	5.402285E-17
4.610000E+03	4.332773E-15	5.419483E-17
4.620000E+03	4.346298E-15	5.428437E-17
4.630000E+03	4.352953E-15	5.428992E-17
4.640000E+03	4.353074E-15	5.421597E-17
4.650000E+03	4.347209E-15	5.406954E-17
4.660000E+03	4.336205E-15	5.386138E-17
4.670000E+03	4.321288E-15	5.360684E-17
4.680000E+03	4.303739E-15	5.332185E-17
4.690000E+03	4.285168E-15	5.302636E-17
4.700000E+03	4.267096E-15	5.273908E-17
4.710000E+03	4.251066E-15	5.247895E-17
4.720000E+03	4.238647E-15	5.226511E-17
4.730000E+03	4.231085E-15	5.211265E-17
4.740000E+03	4.229469E-15	5.203469E-17
4.750000E+03	4.234639E-15	5.204120E-17
4.760000E+03	4.246947E-15	5.213615E-17
4.770000E+03	4.266455E-15	5.231996E-17
4.780000E+03	4.292922E-15	5.258931E-17
4.790000E+03	4.325578E-15	5.293445E-17
4.800000E+03	4.363412E-15	5.334271E-17
4.810000E+03	4.405102E-15	5.379771E-17
4.820000E+03	4.448998E-15	5.427910E-17
4.830000E+03	4.493363E-15	5.476556E-17
4.840000E+03	4.536387E-15	5.523499E-17
4.850000E+03	4.576215E-15	5.566479E-17
4.860000E+03	4.611166E-15	5.603461E-17
4.870000E+03	4.639916E-15	5.632846E-17
4.880000E+03	4.661240E-15	5.653164E-17
4.890000E+03	4.674391E-15	5.663530E-17
4.900000E+03	4.679040E-15	5.663570E-17
4.910000E+03	4.675050E-15	5.653142E-17
4.920000E+03	4.662776E-15	5.632697E-17
4.930000E+03	4.642752E-15	5.602907E-17
4.940000E+03	4.615719E-15	5.564685E-17
4.950000E+03	4.582634E-15	5.519207E-17
4.960000E+03	4.544371E-15	5.467539E-17
4.970000E+03	4.502046E-15	5.411039E-17
4.980000E+03	4.456581E-15	5.350825E-17
4.990000E+03	4.409047E-15	5.288192E-17
5.000000E+03	4.360459E-15	5.224359E-17
5.010000E+03	4.311685E-15	5.160368E-17
5.020000E+03	4.263764E-15	5.097459E-17
5.030000E+03	4.217532E-15	5.036627E-17
5.040000E+03	4.173811E-15	4.978844E-17
5.050000E+03	4.133424E-15	4.925078E-17
5.060000E+03	4.096981E-15	4.876044E-17
5.070000E+03	4.065048E-15	4.832394E-17
5.080000E+03	4.038009E-15	4.794568E-17
5.090000E+03	4.016127E-15	4.762854E-17
5.100000E+03	3.999459E-15	4.737296E-17
5.110000E+03	3.987886E-15	4.717733E-17
5.120000E+03	3.981166E-15	4.703851E-17
5.130000E+03	3.978871E-15	4.695125E-17
5.140000E+03	3.980487E-15	4.690928E-17
5.150000E+03	3.985335E-15	4.690440E-17
5.160000E+03	3.992752E-15	4.692867E-17
5.170000E+03	4.002056E-15	4.697393E-17
5.180000E+03	4.012494E-15	4.703125E-17
5.190000E+03	4.023455E-15	4.709343E-17
5.200000E+03	4.034259E-15	4.715245E-17
5.210000E+03	4.044308E-15	4.720136E-17
5.220000E+03	4.053094E-15	4.723426E-17
5.230000E+03	4.060148E-15	4.724574E-17
5.240000E+03	4.064961E-15	4.723000E-17
5.250000E+03	4.067142E-15	4.718259E-17
5.260000E+03	4.066301E-15	4.709917E-17
5.270000E+03	4.062069E-15	4.697562E-17
5.280000E+03	4.054308E-15	4.681055E-17
5.290000E+03	4.042784E-15	4.660149E-17
5.300000E+03	4.027506E-15	4.634876E-17
5.310000E+03	4.008548E-15	4.605345E-17
5.320000E+03	3.986259E-15	4.571980E-17
5.330000E+03	3.961073E-15	4.535302E-17
5.340000E+03	3.933537E-15	4.495956E-17
5.350000E+03	3.904417E-15	4.454832E-17
5.360000E+03	3.874504E-15	4.412846E-17
5.370000E+03	3.844779E-15	4.371121E-17
5.380000E+03	3.816090E-15	4.330622E-17
5.390000E+03	3.789408E-15	4.292448E-17
5.400000E+03	3.765504E-15	4.257462E-17
5.410000E+03	3.745035E-15	4.226390E-17
5.420000E+03	3.728486E-15	4.199761E-17
5.430000E+03	3.716009E-15	4.177721E-17
5.440000E+03	3.707546E-15	4.160183E-17
5.450000E+03	3.702698E-15	4.146672E-17
5.460000E+03	3.700864E-15	4.136495E-17
5.470000E+03	3.701270E-15	4.128767E-17
5.480000E+03	3.703051E-15	4.122511E-17
5.490000E+03	3.705332E-15	4.116742E-17
5.500000E+03	3.707221E-15	4.110469E-17
5.510000E+03	3.707927E-15	4.102816E-17
5.520000E+03	3.706822E-15	4.093099E-17
5.530000E+03	3.703312E-15	4.080675E-17
5.540000E+03	3.697205E-15	4.065347E-17
5.550000E+03	3.688252E-15	4.046863E-17
5.560000E+03	3.676484E-15	4.025275E-17
5.570000E+03	3.661999E-15	4.000713E-17
5.580000E+03	3.644934E-15	3.973344E-17
5.590000E+03	3.625509E-15	3.943428E-17
5.600000E+03	3.603974E-15	3.911255E-17
5.610000E+03	3.580553E-15	3.877086E-17
5.620000E+03	3.555549E-15	3.841261E-17
5.630000E+03	3.529148E-15	3.803998E-17
5.640000E+03	3.501643E-15	3.765621E-17
5.650000E+03	3.473242E-15	3.726366E-17
5.660000E+03	3.444190E-15	3.686506E-17
5.670000E+03	3.414730E-15	3.646306E-17
5.680000E+03	3.385066E-15	3.605990E-17
5.690000E+03	3.355444E-15	3.565825E-17
5.700000E+03	3.326105E-15	3.526069E-17
5.710000E+03	3.297253E-15	3.486938E-17
5.720000E+03	3.269119E-15	3.448677E-17
5.730000E+03	3.241951E-15	3.411543E-17
5.740000E+03	3.215879E-15	3.375669E-17
5.750000E+03	3.191074E-15	3.341229E-17
5.760000E+03	3.167681E-15	3.308368E-17
5.770000E+03	3.145783E-15	3.277166E-17
5.780000E+03	3.125505E-15	3.247743E-17
5.790000E+03	3.106883E-15	3.220128E-17
5.800000E+03	3.089964E-15	3.194360E-17
5.810000E+03	3.074753E-15	3.170435E-17
5.820000E+03	3.061274E-15	3.148367E-17
5.830000E+03	3.049547E-15	3.128166E-17
5.840000E+03	3.039584E-15	3.109837E-17
5.850000E+03	3.031369E-15	3.093352E-17
5.860000E+03	3.024911E-15	3.078710E-17
5.870000E+03	3.020214E-15	3.065907E-17
5.880000E+03	3.017250E-15	3.054904E-17
5.890000E+03	3.016008E-15	3.045683E-17
5.900000E+03	3.016470E-15	3.038214E-17
5.910000E+03	3.018608E-15	3.032463E-17
5.920000E+03	3.022350E-15	3.028350E-17
5.930000E+03	3.027680E-15	3.025851E-17
5.940000E+03	3.034484E-15	3.024848E-17
5.950000E+03	3.042746E-15	3.025317E-17
5.960000E+03	3.052392E-15	3.027182E-17
5.970000E+03	3.063392E-15	3.030411E-17
5.980000E+03	3.075735E-15	3.034987E-17
5.990000E+03	3.089423E-15	3.040912E-17
6.000000E+03	3.104476E-15	3.048201E-17
6.010000E+03	3.120857E-15	3.056819E-17
6.020000E+03	3.138661E-15	3.066856E-17
6.030000E+03	3.157847E-15	3.078271E-17
6.040000E+03	3.178450E-15	3.091098E-17
6.050000E+03	3.200410E-15	3.105280E-17
6.060000E+03	3.223658E-15	3.120751E-17
6.070000E+03	3.248074E-15	3.137396E-17
6.080000E+03	3.273470E-15	3.155040E-17
6.090000E+03	3.299588E-15	3.173438E-17
6.100000E+03	3.326052E-15	3.192239E-17
6.110000E+03	3.352427E-15	3.211036E-17
6.120000E+03	3.378185E-15	3.229337E-17
6.130000E+03	3.402724E-15	3.246585E-17
6.140000E+03	3.425237E-15	3.262031E-17
6.150000E+03	3.444933E-15	3.274947E-17
6.160000E+03	3.460959E-15	3.284549E-17
6.170000E+03	3.472359E-15	3.289962E-17
6.180000E+03	3.478258E-15	3.290391E-17
6.190000E+03	3.477945E-15	3.285199E-17
6.200000E+03	3.470903E-15	3.273933E-17
6.210000E+03	3.456953E-15	3.256457E-17
6.220000E+03	3.436378E-15	3.233069E-17
6.230000E+03	3.409811E-15	3.204388E-17
6.240000E+03	3.378252E-15	3.171375E-17
6.250000E+03	3.342595E-15	3.134874E-17
6.260000E+03	3.303437E-15	3.095436E-17
6.270000E+03	3.261611E-15	3.053830E-17
6.280000E+03	3.218003E-15	3.010871E-17
6.290000E+03	3.173800E-15	2.967652E-17
6.300000E+03	3.130225E-15	2.925298E-17
6.310000E+03	3.088567E-15	2.884992E-17
6.320000E+03	3.050082E-15	2.847886E-17
6.330000E+03	3.015943E-15	2.815055E-17
6.340000E+03	2.987340E-15	2.787588E-17
6.350000E+03	2.965354E-15	2.766475E-17
6.360000E+03	2.951042E-15	2.752685E-17
6.370000E+03	2.945516E-15	2.747241E-17
6.380000E+03	2.949832E-15	2.751114E-17
6.390000E+03	2.964971E-15	2.765209E-17
6.400000E+03	2.991877E-15	2.790399E-17
6.410000E+03	3.031372E-15	2.827445E-17
6.420000E+03	3.084134E-15	2.876978E-17
6.430000E+03	3.150474E-15	2.939287E-17
6.440000E+03	3.230524E-15	3.014498E-17
6.450000E+03	3.323835E-15	3.102197E-17
6.460000E+03	3.429541E-15	3.201578E-17
6.470000E+03	3.546107E-15	3.311213E-17
6.480000E+03	3.671364E-15	3.429082E-17
6.490000E+03	3.802546E-15	3.552600E-17
6.500000E+03	3.936278E-15	3.678614E-17
6.510000E+03	4.068631E-15	3.803447E-17
6.520000E+03	4.195437E-15	3.923193E-17
6.530000E+03	4.312362E-15	4.033785E-17
6.540000E+03	4.415162E-15	4.131233E-17
6.550000E+03	4.500075E-15	4.211993E-17
6.560000E+03	4.564088E-15	4.273217E-17
6.570000E+03	4.604965E-15	4.312783E-17
6.580000E+03	4.621616E-15	4.329640E-17
6.590000E+03	4.613894E-15	4.323618E-17
6.600000E+03	4.582783E-15	4.295612E-17
6.610000E+03	4.530017E-15	4.247224E-17
6.620000E+03	4.458078E-15	4.180759E-17
6.630000E+03	4.369980E-15	4.099026E-17
6.640000E+03	4.268916E-15	4.005009E-17
6.650000E+03	4.158012E-15	3.901634E-17
6.660000E+03	4.040512E-15	3.791940E-17
6.670000E+03	3.919236E-15	3.678573E-17
6.680000E+03	3.796787E-15	3.563981E-17
6.690000E+03	3.675235E-15	3.450109E-17
6.700000E+03	3.556419E-15	3.338691E-17
6.710000E+03	3.441802E-15	3.231105E-17
6.720000E+03	3.332343E-15	3.128259E-17
6.730000E+03	3.228842E-15	3.030910E-17
6.740000E+03	3.131733E-15	2.939471E-17
6.750000E+03	3.041364E-15	2.854273E-17
6.760000E+03	2.957680E-15	2.775271E-17
6.770000E+03	2.880707E-15	2.702493E-17
6.780000E+03	2.810242E-15	2.635748E-17
6.790000E+03	2.746094E-15	2.574862E-17
6.800000E+03	2.687909E-15	2.519501E-17
6.810000E+03	2.635475E-15	2.469469E-17
6.820000E+03	2.588416E-15	2.424413E-17
6.830000E+03	2.546480E-15	2.384095E-17
6.840000E+03	2.509343E-15	2.348210E-17
6.850000E+03	2.476772E-15	2.316539E-17
6.860000E+03	2.448493E-15	2.288823E-17
6.870000E+03	2.424194E-15	2.264767E-17
6.880000E+03	2.403556E-15	2.244071E-17
6.890000E+03	2.386352E-15	2.226519E-17
6.900000E+03	2.372228E-15	2.211778E-17
6.910000E+03	2.360851E-15	2.199535E-17
6.920000E+03	2.351836E-15	2.189429E-17
6.930000E+03	2.344868E-15	2.181165E-17
6.940000E+03	2.339600E-15	2.174418E-17
6.950000E+03	2.335629E-15	2.168814E-17
6.960000E+03	2.332762E-15	2.164172E-17
6.970000E+03	2.330616E-15	2.160140E-17
6.980000E+03	2.329000E-15	2.156540E-17
6.990000E+03	2.327758E-15	2.153232E-17
7.000000E+03	2.326665E-15	2.150009E-17
7.010000E+03	2.325637E-15	2.146799E-17
7.020000E+03	2.324584E-15	2.143522E-17
7.030000E+03	2.323398E-15	2.140084E-17
7.040000E+03	2.322063E-15	2.136474E-17
7.050000E+03	2.320494E-15	2.132621E-17
7.060000E+03	2.318692E-15	2.128532E-17
7.070000E+03	2.316554E-15	2.124117E-17
7.080000E+03	2.314131E-15	2.119432E-17
7.090000E+03	2.311375E-15	2.114439E-17
7.100000E+03	2.308254E-15	2.109117E-17
7.110000E+03	2.304866E-15	2.103562E-17
7.120000E+03	2.301179E-15	2.097753E-17
7.130000E+03	2.297298E-15	2.091794E-17
7.140000E+03	2.293273E-15	2.085738E-17
7.150000E+03	2.289248E-15	2.079725E-17
7.160000E+03	2.285303E-15	2.073832E-17
7.170000E+03	2.281598E-15	2.068216E-17
7.180000E+03	2.278174E-15	2.062919E-17
7.190000E+03	2.275215E-15	2.058116E-17
7.200000E+03	2.272769E-15	2.053857E-17
7.210000E+03	2.270895E-15	2.050203E-17
7.220000E+03	2.269628E-15	2.047194E-17
7.230000E+03	2.268969E-15	2.044838E-17
7.240000E+03	2.268894E-15	2.043123E-17
7.250000E+03	2.269313E-15	2.041975E-17
7.260000E+03	2.270197E-15	2.041379E-17
7.270000E+03	2.271461E-15	2.041268E-17
7.280000E+03	2.272974E-15	2.041535E-17
7.290000E+03	2.274683E-15	2.042143E-17
7.300000E+03	2.276458E-15	2.042986E-17
7.310000E+03	2.278254E-15	2.044037E-17
7.320000E+03	2.279961E-15	2.045209E-17
7.330000E+03	2.281516E-15	2.046456E-17
7.340000E+03	2.282909E-15	2.047784E-17
7.350000E+03	2.284061E-15	2.049133E-17
7.360000E+03	2.284939E-15	2.050487E-17
7.370000E+03	2.285558E-15	2.051870E-17
7.380000E+03	2.285849E-15	2.053235E-17
7.390000E+03	2.285826E-15	2.054603E-17
7.400000E+03	2.285411E-15	2.055919E-17
7.410000E+03	2.284562E-15	2.057154E-17
7.420000E+03	2.283265E-15	2.058309E-17
7.430000E+03	2.281452E-15	2.059331E-17
7.440000E+03	2.279045E-15	2.060160E-17
7.450000E+03	2.275953E-15	2.060723E-17
7.460000E+03	2.272075E-15	2.060935E-17
7.470000E+03	2.267305E-15	2.060706E-17
7.480000E+03	2.261535E-15	2.059943E-17
7.490000E+03	2.254661E-15	2.058552E-17
7.500000E+03	2.246587E-15	2.056447E-17
7.510000E+03	2.237200E-15	2.053522E-17
7.520000E+03	2.226534E-15	2.049804E-17
7.530000E+03	2.214497E-15	2.045201E-17
7.540000E+03	2.201126E-15	2.039740E-17
7.550000E+03	2.186608E-15	2.033582E-17
7.560000E+03	2.170995E-15	2.026765E-17
7.570000E+03	2.154686E-15	2.019647E-17
7.580000E+03	2.137994E-15	2.012502E-17
7.590000E+03	2.121486E-15	2.005841E-17
7.600000E+03	2.105810E-15	2.000267E-17
7.610000E+03	2.091617E-15	1.996393E-17
7.620000E+03	2.079533E-15	1.994827E-17
7.630000E+03	2.069717E-15	1.995735E-17
7.640000E+03	2.062284E-15	1.999250E-17
7.650000E+03	2.057176E-15	2.005340E-17
7.660000E+03	2.054375E-15	2.014013E-17
7.670000E+03	2.053848E-15	2.025266E-17
7.680000E+03	2.055554E-15	2.039089E-17
7.690000E+03	2.059315E-15	2.055335E-17
7.700000E+03	2.064964E-15	2.073868E-17
7.710000E+03	2.072235E-15	2.094449E-17
7.720000E+03	2.080780E-15	2.116750E-17
7.730000E+03	2.090349E-15	2.140535E-17
7.740000E+03	2.100520E-15	2.165385E-17
7.750000E+03	2.111049E-15	2.191055E-17
7.760000E+03	2.121540E-15	2.217135E-17
