#wls	flux	fluxerr
1.600000E+03	9.535656E-19	1.287330E-19
1.640000E+03	9.277572E-19	1.248441E-19
1.680000E+03	9.029710E-19	1.211058E-19
1.720000E+03	8.798049E-19	1.175973E-19
1.760000E+03	8.575674E-19	1.142246E-19
1.800000E+03	8.370653E-19	1.110942E-19
1.840000E+03	8.178786E-19	1.081486E-19
1.880000E+03	8.002964E-19	1.054242E-19
1.920000E+03	7.843615E-19	1.029248E-19
1.960000E+03	7.699179E-19	1.006278E-19
2.000000E+03	7.574074E-19	9.858868E-20
2.040000E+03	7.464759E-19	9.675880E-20
2.080000E+03	7.375373E-19	9.518921E-20
2.120000E+03	7.304359E-19	9.385671E-20
2.160000E+03	7.252085E-19	9.276298E-20
2.200000E+03	7.218947E-19	9.190985E-20
2.240000E+03	7.206995E-19	9.131983E-20
2.280000E+03	7.216618E-19	9.099385E-20
2.320000E+03	7.246706E-19	9.091378E-20
2.360000E+03	7.297890E-19	9.108331E-20
2.400000E+03	7.374013E-19	9.154569E-20
2.440000E+03	7.474327E-19	9.228625E-20
2.480000E+03	7.599859E-19	9.331210E-20
2.520000E+03	7.751857E-19	9.463256E-20
2.560000E+03	7.933350E-19	9.627795E-20
2.600000E+03	8.146187E-19	9.826324E-20
2.640000E+03	8.391081E-19	1.005889E-19
2.680000E+03	8.673915E-19	1.033166E-19
2.720000E+03	8.998188E-19	1.064775E-19
2.760000E+03	9.366580E-19	1.100916E-19
2.800000E+03	9.787704E-19	1.142471E-19
2.840000E+03	1.026670E-18	1.189884E-19
2.880000E+03	1.081554E-18	1.244361E-19
2.920000E+03	1.144163E-18	1.306546E-19
2.960000E+03	1.216429E-18	1.378391E-19
3.000000E+03	1.299975E-18	1.461429E-19
3.010000E+03	1.322814E-18	1.484110E-19
3.020000E+03	1.346654E-18	1.507794E-19
3.030000E+03	1.371341E-18	1.532301E-19
3.040000E+03	1.397124E-18	1.557902E-19
3.050000E+03	1.424060E-18	1.584651E-19
3.060000E+03	1.451998E-18	1.612374E-19
3.070000E+03	1.480993E-18	1.641122E-19
3.080000E+03	1.511320E-18	1.671192E-19
3.090000E+03	1.543054E-18	1.702654E-19
3.100000E+03	1.576047E-18	1.735337E-19
3.110000E+03	1.610600E-18	1.769559E-19
3.120000E+03	1.646572E-18	1.805155E-19
3.130000E+03	1.684279E-18	1.842459E-19
3.140000E+03	1.723824E-18	1.881568E-19
3.150000E+03	1.765074E-18	1.922325E-19
3.160000E+03	1.808377E-18	1.965093E-19
3.170000E+03	1.853610E-18	2.009721E-19
3.180000E+03	1.901398E-18	2.056872E-19
3.190000E+03	1.951121E-18	2.105855E-19
3.200000E+03	2.003694E-18	2.157639E-19
3.210000E+03	2.058757E-18	2.211814E-19
3.220000E+03	2.116739E-18	2.268821E-19
3.230000E+03	2.177548E-18	2.328536E-19
3.240000E+03	2.241936E-18	2.391738E-19
3.250000E+03	2.309545E-18	2.458017E-19
3.260000E+03	2.380880E-18	2.527883E-19
3.270000E+03	2.455872E-18	2.601232E-19
3.280000E+03	2.535068E-18	2.678609E-19
3.290000E+03	2.618735E-18	2.760263E-19
3.300000E+03	2.707156E-18	2.846452E-19
3.310000E+03	2.800630E-18	2.937451E-19
3.320000E+03	2.899125E-18	3.033183E-19
3.330000E+03	3.003662E-18	3.134671E-19
3.340000E+03	3.113875E-18	3.241483E-19
3.350000E+03	3.230478E-18	3.354310E-19
3.360000E+03	3.353844E-18	3.473485E-19
3.370000E+03	3.483960E-18	3.598935E-19
3.380000E+03	3.622022E-18	3.731835E-19
3.390000E+03	3.768052E-18	3.872137E-19
3.400000E+03	3.922028E-18	4.019751E-19
3.410000E+03	4.084801E-18	4.175474E-19
3.420000E+03	4.257286E-18	4.340163E-19
3.430000E+03	4.439003E-18	4.513243E-19
3.440000E+03	4.630875E-18	4.695569E-19
3.450000E+03	4.833383E-18	4.887535E-19
3.460000E+03	5.047573E-18	5.090102E-19
3.470000E+03	5.272906E-18	5.302620E-19
3.480000E+03	5.510468E-18	5.526079E-19
3.490000E+03	5.760862E-18	5.760970E-19
3.500000E+03	6.025359E-18	6.008443E-19
3.510000E+03	6.303406E-18	6.267819E-19
3.520000E+03	6.597006E-18	6.540957E-19
3.530000E+03	6.905576E-18	6.827139E-19
3.540000E+03	7.231273E-18	7.128350E-19
3.550000E+03	7.574208E-18	7.444541E-19
3.560000E+03	7.935178E-18	7.776330E-19
3.570000E+03	8.314978E-18	8.124323E-19
3.580000E+03	8.714399E-18	8.489113E-19
3.590000E+03	9.134195E-18	8.871247E-19
3.600000E+03	9.576019E-18	9.272129E-19
3.610000E+03	1.003972E-17	9.691402E-19
3.620000E+03	1.052592E-17	1.012946E-18
3.630000E+03	1.103522E-17	1.058665E-18
3.640000E+03	1.156808E-17	1.106319E-18
3.650000E+03	1.212604E-17	1.156031E-18
3.660000E+03	1.270834E-17	1.207706E-18
3.670000E+03	1.331515E-17	1.261335E-18
3.680000E+03	1.394776E-17	1.317015E-18
3.690000E+03	1.460489E-17	1.374599E-18
3.700000E+03	1.528622E-17	1.434034E-18
3.710000E+03	1.599128E-17	1.495249E-18
3.720000E+03	1.672080E-17	1.558289E-18
3.730000E+03	1.747401E-17	1.623056E-18
3.740000E+03	1.824682E-17	1.689148E-18
3.750000E+03	1.904085E-17	1.756691E-18
3.760000E+03	1.985289E-17	1.825370E-18
3.770000E+03	2.068270E-17	1.895140E-18
3.780000E+03	2.152640E-17	1.965629E-18
3.790000E+03	2.238323E-17	2.036751E-18
3.800000E+03	2.324860E-17	2.108074E-18
3.810000E+03	2.411935E-17	2.179301E-18
3.820000E+03	2.499395E-17	2.250285E-18
3.830000E+03	2.586878E-17	2.320695E-18
3.840000E+03	2.673785E-17	2.389994E-18
3.850000E+03	2.759685E-17	2.457798E-18
3.860000E+03	2.844335E-17	2.523899E-18
3.870000E+03	2.927052E-17	2.587702E-18
3.880000E+03	3.007560E-17	2.648981E-18
3.890000E+03	3.085131E-17	2.707115E-18
3.900000E+03	3.159472E-17	2.761875E-18
3.910000E+03	3.230061E-17	2.812834E-18
3.920000E+03	3.296137E-17	2.859369E-18
3.930000E+03	3.357178E-17	2.901070E-18
3.940000E+03	3.412912E-17	2.937752E-18
3.950000E+03	3.462859E-17	2.969056E-18
3.960000E+03	3.506335E-17	2.994454E-18
3.970000E+03	3.543184E-17	3.013876E-18
3.980000E+03	3.572828E-17	3.026900E-18
3.990000E+03	3.595246E-17	3.033582E-18
4.000000E+03	3.610258E-17	3.033843E-18
4.010000E+03	3.617541E-17	3.027489E-18
4.020000E+03	3.617121E-17	3.014621E-18
4.030000E+03	3.609595E-17	2.995813E-18
4.040000E+03	3.594512E-17	2.970771E-18
4.050000E+03	3.572933E-17	2.940444E-18
4.060000E+03	3.544889E-17	2.904928E-18
4.070000E+03	3.510999E-17	2.864796E-18
4.080000E+03	3.472418E-17	2.821051E-18
4.090000E+03	3.429333E-17	2.773895E-18
4.100000E+03	3.383285E-17	2.724617E-18
4.110000E+03	3.334636E-17	2.673543E-18
4.120000E+03	3.285000E-17	2.621990E-18
4.130000E+03	3.235007E-17	2.570469E-18
4.140000E+03	3.185857E-17	2.519938E-18
4.150000E+03	3.138337E-17	2.471009E-18
4.160000E+03	3.093364E-17	2.424382E-18
4.170000E+03	3.052111E-17	2.380948E-18
4.180000E+03	3.014957E-17	2.340963E-18
4.190000E+03	2.982531E-17	2.304868E-18
4.200000E+03	2.955502E-17	2.273129E-18
4.210000E+03	2.934106E-17	2.245866E-18
4.220000E+03	2.918785E-17	2.223355E-18
4.230000E+03	2.909572E-17	2.205555E-18
4.240000E+03	2.906724E-17	2.192592E-18
4.250000E+03	2.910121E-17	2.184305E-18
4.260000E+03	2.919896E-17	2.180724E-18
4.270000E+03	2.935848E-17	2.181628E-18
4.280000E+03	2.958066E-17	2.187012E-18
4.290000E+03	2.986355E-17	2.196662E-18
4.300000E+03	3.020710E-17	2.210505E-18
4.310000E+03	3.061340E-17	2.228623E-18
4.320000E+03	3.108250E-17	2.250949E-18
4.330000E+03	3.161857E-17	2.277707E-18
4.340000E+03	3.222254E-17	2.308888E-18
4.350000E+03	3.290436E-17	2.345121E-18
4.360000E+03	3.366628E-17	2.386475E-18
4.370000E+03	3.451821E-17	2.433552E-18
4.380000E+03	3.547184E-17	2.487065E-18
4.390000E+03	3.653813E-17	2.547661E-18
4.400000E+03	3.773491E-17	2.616439E-18
4.410000E+03	3.907877E-17	2.694389E-18
4.420000E+03	4.059595E-17	2.783133E-18
4.430000E+03	4.230794E-17	2.883931E-18
4.440000E+03	4.424535E-17	2.998621E-18
4.450000E+03	4.643506E-17	3.128745E-18
4.460000E+03	4.890732E-17	3.276026E-18
4.470000E+03	5.169352E-17	3.442213E-18
4.480000E+03	5.482565E-17	3.629043E-18
4.490000E+03	5.833545E-17	3.838185E-18
4.500000E+03	6.225312E-17	4.071156E-18
4.510000E+03	6.660317E-17	4.329050E-18
4.520000E+03	7.141284E-17	4.613100E-18
4.530000E+03	7.669132E-17	4.923331E-18
4.540000E+03	8.244958E-17	5.259867E-18
4.550000E+03	8.867453E-17	5.621286E-18
4.560000E+03	9.534515E-17	6.005686E-18
4.570000E+03	1.024336E-16	6.410770E-18
4.580000E+03	1.098823E-16	6.832436E-18
4.590000E+03	1.176310E-16	7.266502E-18
4.600000E+03	1.255980E-16	7.707586E-18
4.610000E+03	1.337054E-16	8.150641E-18
4.620000E+03	1.418430E-16	8.588811E-18
4.630000E+03	1.499197E-16	9.016572E-18
4.640000E+03	1.578330E-16	9.427849E-18
4.650000E+03	1.654749E-16	9.816421E-18
4.660000E+03	1.727520E-16	1.017711E-17
4.670000E+03	1.795654E-16	1.050457E-17
4.680000E+03	1.858307E-16	1.079445E-17
4.690000E+03	1.914814E-16	1.104359E-17
4.700000E+03	1.964514E-16	1.124896E-17
4.710000E+03	2.006966E-16	1.140888E-17
4.720000E+03	2.041887E-16	1.152266E-17
4.730000E+03	2.069236E-16	1.159100E-17
4.740000E+03	2.088922E-16	1.161433E-17
4.750000E+03	2.101280E-16	1.159547E-17
4.760000E+03	2.106568E-16	1.153673E-17
4.770000E+03	2.105219E-16	1.144137E-17
4.780000E+03	2.097749E-16	1.131300E-17
4.790000E+03	2.084725E-16	1.115543E-17
4.800000E+03	2.066745E-16	1.097253E-17
4.810000E+03	2.044419E-16	1.076816E-17
4.820000E+03	2.018344E-16	1.054597E-17
4.830000E+03	1.989090E-16	1.030942E-17
4.840000E+03	1.957128E-16	1.006132E-17
4.850000E+03	1.922997E-16	9.804783E-18
4.860000E+03	1.887115E-16	9.542194E-18
4.870000E+03	1.849829E-16	9.275533E-18
4.880000E+03	1.811371E-16	9.006131E-18
4.890000E+03	1.772020E-16	8.735523E-18
4.900000E+03	1.731944E-16	8.464651E-18
4.910000E+03	1.691268E-16	8.194225E-18
4.920000E+03	1.649994E-16	7.924328E-18
4.930000E+03	1.608353E-16	7.656154E-18
4.940000E+03	1.566333E-16	7.389692E-18
4.950000E+03	1.524030E-16	7.125448E-18
4.960000E+03	1.481602E-16	6.864196E-18
4.970000E+03	1.439179E-16	6.606556E-18
4.980000E+03	1.396835E-16	6.352868E-18
4.990000E+03	1.354826E-16	6.104282E-18
5.000000E+03	1.313339E-16	5.861592E-18
5.010000E+03	1.272537E-16	5.625457E-18
5.020000E+03	1.232630E-16	5.396718E-18
5.030000E+03	1.193836E-16	5.176200E-18
5.040000E+03	1.156404E-16	4.964843E-18
5.050000E+03	1.120515E-16	4.763239E-18
5.060000E+03	1.086383E-16	4.572096E-18
5.070000E+03	1.054207E-16	4.392027E-18
5.080000E+03	1.024206E-16	4.223682E-18
5.090000E+03	9.965006E-17	4.067278E-18
5.100000E+03	9.713000E-17	3.923375E-18
5.110000E+03	9.487152E-17	3.792098E-18
5.120000E+03	9.288368E-17	3.673476E-18
5.130000E+03	9.118036E-17	3.567710E-18
5.140000E+03	8.976541E-17	3.474593E-18
5.150000E+03	8.864221E-17	3.393892E-18
5.160000E+03	8.781110E-17	3.325255E-18
5.170000E+03	8.726931E-17	3.268213E-18
5.180000E+03	8.701111E-17	3.222195E-18
5.190000E+03	8.702585E-17	3.186460E-18
5.200000E+03	8.730734E-17	3.160448E-18
5.210000E+03	8.784115E-17	3.143316E-18
5.220000E+03	8.861201E-17	3.134215E-18
5.230000E+03	8.961099E-17	3.132549E-18
5.240000E+03	9.082100E-17	3.137454E-18
5.250000E+03	9.223296E-17	3.148369E-18
5.260000E+03	9.383783E-17	3.164752E-18
5.270000E+03	9.562728E-17	3.186104E-18
5.280000E+03	9.760351E-17	3.212284E-18
5.290000E+03	9.976372E-17	3.242990E-18
5.300000E+03	1.021164E-16	3.278292E-18
5.310000E+03	1.046727E-16	3.318327E-18
5.320000E+03	1.074458E-16	3.363285E-18
5.330000E+03	1.104582E-16	3.413626E-18
5.340000E+03	1.137343E-16	3.469839E-18
5.350000E+03	1.173019E-16	3.532474E-18
5.360000E+03	1.211886E-16	3.602040E-18
5.370000E+03	1.254283E-16	3.679198E-18
5.380000E+03	1.300497E-16	3.764402E-18
5.390000E+03	1.350850E-16	3.858178E-18
5.400000E+03	1.405605E-16	3.960839E-18
5.410000E+03	1.464942E-16	4.072442E-18
5.420000E+03	1.529052E-16	4.193051E-18
5.430000E+03	1.598030E-16	4.322455E-18
5.440000E+03	1.671868E-16	4.460164E-18
5.450000E+03	1.750526E-16	4.605624E-18
5.460000E+03	1.833944E-16	4.758239E-18
5.470000E+03	1.921971E-16	4.917208E-18
5.480000E+03	2.014334E-16	5.081460E-18
5.490000E+03	2.110656E-16	5.249715E-18
5.500000E+03	2.209965E-16	5.419303E-18
5.510000E+03	2.310591E-16	5.586016E-18
5.520000E+03	2.410397E-16	5.744772E-18
5.530000E+03	2.507024E-16	5.890272E-18
5.540000E+03	2.598125E-16	6.017558E-18
5.550000E+03	2.681644E-16	6.122646E-18
5.560000E+03	2.755948E-16	6.202762E-18
5.570000E+03	2.819756E-16	6.256102E-18
5.580000E+03	2.872348E-16	6.282235E-18
5.590000E+03	2.913583E-16	6.282034E-18
5.600000E+03	2.943677E-16	6.257119E-18
5.610000E+03	2.963314E-16	6.210036E-18
5.620000E+03	2.973568E-16	6.144014E-18
5.630000E+03	2.975607E-16	6.062319E-18
5.640000E+03	2.970786E-16	5.968431E-18
5.650000E+03	2.960565E-16	5.865850E-18
5.660000E+03	2.946255E-16	5.757560E-18
5.670000E+03	2.929172E-16	5.646334E-18
5.680000E+03	2.910560E-16	5.534657E-18
5.690000E+03	2.891606E-16	5.424772E-18
5.700000E+03	2.873524E-16	5.318846E-18
5.710000E+03	2.857418E-16	5.218732E-18
5.720000E+03	2.844494E-16	5.126360E-18
5.730000E+03	2.836019E-16	5.043664E-18
5.740000E+03	2.833330E-16	4.972586E-18
5.750000E+03	2.837808E-16	4.915037E-18
5.760000E+03	2.850896E-16	4.872917E-18
5.770000E+03	2.873809E-16	4.847633E-18
5.780000E+03	2.907864E-16	4.840665E-18
5.790000E+03	2.953990E-16	4.852751E-18
5.800000E+03	3.012793E-16	4.884048E-18
5.810000E+03	3.084636E-16	4.934280E-18
5.820000E+03	3.169157E-16	5.002011E-18
5.830000E+03	3.265326E-16	5.084807E-18
5.840000E+03	3.371548E-16	5.179457E-18
5.850000E+03	3.485205E-16	5.281343E-18
5.860000E+03	3.602839E-16	5.384807E-18
5.870000E+03	3.720452E-16	5.483686E-18
5.880000E+03	3.833190E-16	5.570906E-18
5.890000E+03	3.936224E-16	5.639820E-18
5.900000E+03	4.024535E-16	5.683911E-18
5.910000E+03	4.093888E-16	5.698164E-18
5.920000E+03	4.140957E-16	5.679156E-18
5.930000E+03	4.163738E-16	5.625528E-18
5.940000E+03	4.161745E-16	5.538102E-18
5.950000E+03	4.136001E-16	5.419730E-18
5.960000E+03	4.088876E-16	5.274923E-18
5.970000E+03	4.023685E-16	5.109204E-18
5.980000E+03	3.944543E-16	4.928837E-18
5.990000E+03	3.855728E-16	4.739957E-18
6.000000E+03	3.761418E-16	4.548241E-18
6.010000E+03	3.665433E-16	4.358607E-18
6.020000E+03	3.570993E-16	4.174972E-18
6.030000E+03	3.480852E-16	4.000463E-18
6.040000E+03	3.397058E-16	3.837204E-18
6.050000E+03	3.321060E-16	3.686497E-18
6.060000E+03	3.253758E-16	3.548948E-18
6.070000E+03	3.195509E-16	3.424529E-18
6.080000E+03	3.146380E-16	3.312894E-18
6.090000E+03	3.106022E-16	3.213292E-18
6.100000E+03	3.073808E-16	3.124736E-18
6.110000E+03	3.048838E-16	3.046045E-18
6.120000E+03	3.030257E-16	2.976179E-18
6.130000E+03	3.016935E-16	2.913921E-18
6.140000E+03	3.007917E-16	2.858329E-18
6.150000E+03	3.002512E-16	2.808804E-18
6.160000E+03	3.000040E-16	2.764826E-18
6.170000E+03	3.000281E-16	2.726362E-18
6.180000E+03	3.003259E-16	2.693637E-18
6.190000E+03	3.009257E-16	2.667131E-18
6.200000E+03	3.018678E-16	2.647445E-18
6.210000E+03	3.032130E-16	2.635373E-18
6.220000E+03	3.049850E-16	2.631399E-18
6.230000E+03	3.071902E-16	2.635885E-18
6.240000E+03	3.097872E-16	2.648812E-18
6.250000E+03	3.127528E-16	2.670349E-18
6.260000E+03	3.160559E-16	2.700610E-18
6.270000E+03	3.196677E-16	2.739734E-18
6.280000E+03	3.235000E-16	2.787200E-18
6.290000E+03	3.274610E-16	2.842202E-18
6.300000E+03	3.314508E-16	2.903786E-18
6.310000E+03	3.353745E-16	2.970973E-18
6.320000E+03	3.391796E-16	3.043079E-18
6.330000E+03	3.428254E-16	3.119470E-18
6.340000E+03	3.463080E-16	3.199787E-18
6.350000E+03	3.496807E-16	3.284181E-18
6.360000E+03	3.530044E-16	3.372886E-18
6.370000E+03	3.563930E-16	3.466682E-18
6.380000E+03	3.599559E-16	3.566386E-18
6.390000E+03	3.638079E-16	3.672954E-18
6.400000E+03	3.680790E-16	3.787600E-18
6.410000E+03	3.728645E-16	3.911296E-18
6.420000E+03	3.782385E-16	4.044879E-18
6.430000E+03	3.842700E-16	4.189213E-18
6.440000E+03	3.909742E-16	4.344637E-18
6.450000E+03	3.983454E-16	4.511279E-18
6.460000E+03	4.063150E-16	4.688543E-18
6.470000E+03	4.148017E-16	4.875632E-18
6.480000E+03	4.236570E-16	5.070876E-18
6.490000E+03	4.326958E-16	5.272029E-18
6.500000E+03	4.416926E-16	5.476185E-18
6.510000E+03	4.503961E-16	5.679914E-18
6.520000E+03	4.585132E-16	5.879041E-18
6.530000E+03	4.657469E-16	6.069096E-18
6.540000E+03	4.718115E-16	6.245526E-18
6.550000E+03	4.764237E-16	6.403585E-18
6.560000E+03	4.793464E-16	6.538962E-18
6.570000E+03	4.804079E-16	6.648095E-18
6.580000E+03	4.794902E-16	6.728083E-18
6.590000E+03	4.765773E-16	6.777437E-18
6.600000E+03	4.717238E-16	6.795734E-18
6.610000E+03	4.650892E-16	6.784181E-18
6.620000E+03	4.568908E-16	6.745011E-18
6.630000E+03	4.474210E-16	6.681795E-18
6.640000E+03	4.369981E-16	6.598742E-18
6.650000E+03	4.259435E-16	6.500369E-18
6.660000E+03	4.145852E-16	6.391532E-18
6.670000E+03	4.032149E-16	6.276754E-18
6.680000E+03	3.920783E-16	6.160023E-18
6.690000E+03	3.813911E-16	6.044998E-18
6.700000E+03	3.713138E-16	5.934570E-18
6.710000E+03	3.619535E-16	5.830845E-18
6.720000E+03	3.533887E-16	5.735503E-18
6.730000E+03	3.456587E-16	5.649595E-18
6.740000E+03	3.387497E-16	5.573294E-18
6.750000E+03	3.326358E-16	5.506540E-18
6.760000E+03	3.272857E-16	5.449143E-18
6.770000E+03	3.226373E-16	5.400366E-18
6.780000E+03	3.186261E-16	5.359378E-18
6.790000E+03	3.152096E-16	5.325678E-18
6.800000E+03	3.123349E-16	5.298555E-18
6.810000E+03	3.099605E-16	5.277454E-18
6.820000E+03	3.080756E-16	5.262317E-18
6.830000E+03	3.066558E-16	5.252833E-18
6.840000E+03	3.057090E-16	5.249223E-18
6.850000E+03	3.052299E-16	5.251463E-18
6.860000E+03	3.052195E-16	5.259622E-18
6.870000E+03	3.056754E-16	5.273688E-18
6.880000E+03	3.065884E-16	5.293516E-18
6.890000E+03	3.079467E-16	5.318895E-18
6.900000E+03	3.097095E-16	5.349099E-18
6.910000E+03	3.118514E-16	5.383649E-18
6.920000E+03	3.143198E-16	5.421584E-18
6.930000E+03	3.170623E-16	5.461935E-18
6.940000E+03	3.200291E-16	5.503776E-18
6.950000E+03	3.231572E-16	5.545945E-18
6.960000E+03	3.263905E-16	5.587407E-18
6.970000E+03	3.296821E-16	5.627290E-18
6.980000E+03	3.329687E-16	5.664446E-18
6.990000E+03	3.362234E-16	5.698370E-18
7.000000E+03	3.393820E-16	5.727930E-18
7.010000E+03	3.424178E-16	5.752651E-18
7.020000E+03	3.452871E-16	5.771788E-18
7.030000E+03	3.479654E-16	5.784943E-18
7.040000E+03	3.504210E-16	5.791615E-18
7.050000E+03	3.526461E-16	5.791724E-18
7.060000E+03	3.546316E-16	5.785181E-18
7.070000E+03	3.563983E-16	5.772403E-18
7.080000E+03	3.579696E-16	5.753846E-18
7.090000E+03	3.593934E-16	5.730365E-18
7.100000E+03	3.607411E-16	5.703168E-18
7.110000E+03	3.620890E-16	5.673511E-18
7.120000E+03	3.635133E-16	5.642615E-18
7.130000E+03	3.651002E-16	5.611811E-18
7.140000E+03	3.669476E-16	5.582565E-18
7.150000E+03	3.691076E-16	5.555584E-18
7.160000E+03	3.716655E-16	5.532045E-18
7.170000E+03	3.746528E-16	5.512271E-18
7.180000E+03	3.780978E-16	5.496519E-18
7.190000E+03	3.820163E-16	5.484847E-18
7.200000E+03	3.863935E-16	5.476877E-18
7.210000E+03	3.911823E-16	5.471792E-18
7.220000E+03	3.963252E-16	5.468685E-18
7.230000E+03	4.017293E-16	5.466220E-18
7.240000E+03	4.072638E-16	5.462652E-18
7.250000E+03	4.127882E-16	5.456234E-18
7.260000E+03	4.181310E-16	5.444954E-18
7.270000E+03	4.230967E-16	5.426664E-18
7.280000E+03	4.275057E-16	5.399605E-18
7.290000E+03	4.311814E-16	5.362234E-18
7.300000E+03	4.339659E-16	5.313409E-18
7.310000E+03	4.357623E-16	5.252875E-18
7.320000E+03	4.365172E-16	5.180986E-18
7.330000E+03	4.362334E-16	5.098810E-18
7.340000E+03	4.349586E-16	5.007930E-18
7.350000E+03	4.328040E-16	4.910614E-18
7.360000E+03	4.298930E-16	4.809173E-18
7.370000E+03	4.263919E-16	4.706294E-18
7.380000E+03	4.224275E-16	4.604106E-18
7.390000E+03	4.181396E-16	4.504780E-18
7.400000E+03	4.136243E-16	4.409916E-18
7.410000E+03	4.089765E-16	4.321020E-18
7.420000E+03	4.042241E-16	4.238824E-18
7.430000E+03	3.993976E-16	4.164029E-18
7.440000E+03	3.944898E-16	4.096880E-18
7.450000E+03	3.895091E-16	4.037721E-18
7.460000E+03	3.844244E-16	3.986410E-18
7.470000E+03	3.792356E-16	3.943036E-18
7.480000E+03	3.739442E-16	3.907610E-18
7.490000E+03	3.685596E-16	3.880087E-18
7.500000E+03	3.631351E-16	3.860559E-18
7.510000E+03	3.577106E-16	3.848823E-18
7.520000E+03	3.523678E-16	3.845111E-18
7.530000E+03	3.471913E-16	3.849711E-18
7.540000E+03	3.422615E-16	3.862924E-18
7.550000E+03	3.376746E-16	3.885321E-18
7.560000E+03	3.334761E-16	3.917002E-18
7.570000E+03	3.297011E-16	3.958041E-18
7.580000E+03	3.263239E-16	4.007866E-18
7.590000E+03	3.232384E-16	4.064929E-18
7.600000E+03	3.202728E-16	4.126763E-18
7.610000E+03	3.171763E-16	4.189691E-18
7.620000E+03	3.138452E-16	4.251723E-18
7.630000E+03	3.104402E-16	4.314419E-18
7.640000E+03	3.072417E-16	4.381286E-18
7.650000E+03	3.044544E-16	4.455170E-18
7.660000E+03	3.021579E-16	4.537391E-18
7.670000E+03	3.003506E-16	4.628194E-18
7.680000E+03	2.989608E-16	4.726758E-18
7.690000E+03	2.978821E-16	4.831631E-18
7.700000E+03	2.969946E-16	4.940994E-18
7.710000E+03	2.961815E-16	5.052905E-18
7.720000E+03	2.953325E-16	5.165363E-18
7.730000E+03	2.943786E-16	5.276924E-18
7.740000E+03	2.932445E-16	5.385920E-18
7.750000E+03	2.918961E-16	5.491335E-18
7.760000E+03	2.903101E-16	5.592301E-18
