#wls	flux	fluxerr
1.600000E+03	1.030471E-16	3.526084E-18
1.640000E+03	1.022283E-16	3.479338E-18
1.680000E+03	1.014272E-16	3.433082E-18
1.720000E+03	1.006233E-16	3.386618E-18
1.760000E+03	9.983488E-17	3.340566E-18
1.800000E+03	9.907962E-17	3.295509E-18
1.840000E+03	9.835600E-17	3.251383E-18
1.880000E+03	9.764364E-17	3.207504E-18
1.920000E+03	9.697859E-17	3.165047E-18
1.960000E+03	9.635881E-17	3.123921E-18
2.000000E+03	9.578245E-17	3.084041E-18
2.040000E+03	9.524789E-17	3.045332E-18
2.080000E+03	9.478898E-17	3.008846E-18
2.120000E+03	9.438573E-17	2.973903E-18
2.160000E+03	9.405372E-17	2.940955E-18
2.200000E+03	9.377388E-17	2.909364E-18
2.240000E+03	9.357896E-17	2.880101E-18
2.280000E+03	9.345049E-17	2.852543E-18
2.320000E+03	9.338773E-17	2.826618E-18
2.360000E+03	9.339048E-17	2.802272E-18
2.400000E+03	9.345950E-17	2.779477E-18
2.440000E+03	9.359618E-17	2.758223E-18
2.480000E+03	9.381890E-17	2.738992E-18
2.520000E+03	9.409969E-17	2.720906E-18
2.560000E+03	9.445987E-17	2.704527E-18
2.600000E+03	9.490620E-17	2.689981E-18
2.640000E+03	9.543260E-17	2.677022E-18
2.680000E+03	9.608037E-17	2.666729E-18
2.720000E+03	9.683353E-17	2.658555E-18
2.760000E+03	9.772394E-17	2.653271E-18
2.800000E+03	9.875775E-17	2.650918E-18
2.840000E+03	9.997429E-17	2.652409E-18
2.880000E+03	1.014172E-16	2.658717E-18
2.920000E+03	1.031076E-16	2.670177E-18
2.960000E+03	1.051296E-16	2.688706E-18
3.000000E+03	1.075472E-16	2.715597E-18
3.010000E+03	1.082121E-16	2.723551E-18
3.020000E+03	1.089258E-16	2.732599E-18
3.030000E+03	1.096611E-16	2.742053E-18
3.040000E+03	1.104333E-16	2.752289E-18
3.050000E+03	1.112435E-16	2.763324E-18
3.060000E+03	1.120931E-16	2.775181E-18
3.070000E+03	1.129831E-16	2.787880E-18
3.080000E+03	1.139292E-16	2.801793E-18
3.090000E+03	1.149044E-16	2.816248E-18
3.100000E+03	1.159243E-16	2.831616E-18
3.110000E+03	1.170047E-16	2.848271E-18
3.120000E+03	1.181330E-16	2.865892E-18
3.130000E+03	1.193106E-16	2.884504E-18
3.140000E+03	1.205538E-16	2.904483E-18
3.150000E+03	1.218499E-16	2.925510E-18
3.160000E+03	1.232151E-16	2.947959E-18
3.170000E+03	1.246369E-16	2.971516E-18
3.180000E+03	1.261464E-16	2.996905E-18
3.190000E+03	1.277166E-16	3.023462E-18
3.200000E+03	1.293492E-16	3.051217E-18
3.210000E+03	1.310760E-16	3.080898E-18
3.220000E+03	1.328846E-16	3.112193E-18
3.230000E+03	1.347771E-16	3.145131E-18
3.240000E+03	1.367559E-16	3.179745E-18
3.250000E+03	1.388386E-16	3.216420E-18
3.260000E+03	1.410124E-16	3.254839E-18
3.270000E+03	1.432951E-16	3.295385E-18
3.280000E+03	1.456739E-16	3.337739E-18
3.290000E+03	1.481825E-16	3.382645E-18
3.300000E+03	1.507923E-16	3.429422E-18
3.310000E+03	1.535218E-16	3.478460E-18
3.320000E+03	1.563734E-16	3.529789E-18
3.330000E+03	1.593663E-16	3.583808E-18
3.340000E+03	1.624874E-16	3.640187E-18
3.350000E+03	1.657558E-16	3.699321E-18
3.360000E+03	1.691583E-16	3.760881E-18
3.370000E+03	1.727146E-16	3.825269E-18
3.380000E+03	1.764282E-16	3.892525E-18
3.390000E+03	1.803198E-16	3.963068E-18
3.400000E+03	1.843766E-16	4.036567E-18
3.410000E+03	1.886028E-16	4.113078E-18
3.420000E+03	1.930203E-16	4.193036E-18
3.430000E+03	1.976173E-16	4.276136E-18
3.440000E+03	2.024352E-16	4.363228E-18
3.450000E+03	2.074638E-16	4.454040E-18
3.460000E+03	2.127114E-16	4.548696E-18
3.470000E+03	2.181882E-16	4.647362E-18
3.480000E+03	2.239439E-16	4.751039E-18
3.490000E+03	2.299569E-16	4.859199E-18
3.500000E+03	2.362652E-16	4.972583E-18
3.510000E+03	2.428935E-16	5.091635E-18
3.520000E+03	2.498726E-16	5.216926E-18
3.530000E+03	2.572627E-16	5.349618E-18
3.540000E+03	2.651156E-16	5.490691E-18
3.550000E+03	2.734782E-16	5.640995E-18
3.560000E+03	2.824781E-16	5.803034E-18
3.570000E+03	2.921844E-16	5.978067E-18
3.580000E+03	3.027731E-16	6.169509E-18
3.590000E+03	3.143776E-16	6.379857E-18
3.600000E+03	3.270375E-16	6.609664E-18
3.610000E+03	3.407197E-16	6.858015E-18
3.620000E+03	3.552954E-16	7.122080E-18
3.630000E+03	3.705801E-16	7.397971E-18
3.640000E+03	3.864692E-16	7.683443E-18
3.650000E+03	4.026944E-16	7.973050E-18
3.660000E+03	4.190912E-16	8.263480E-18
3.670000E+03	4.354253E-16	8.550104E-18
3.680000E+03	4.514125E-16	8.827398E-18
3.690000E+03	4.668278E-16	9.091079E-18
3.700000E+03	4.813190E-16	9.334464E-18
3.710000E+03	4.946043E-16	9.552348E-18
3.720000E+03	5.064164E-16	9.739884E-18
3.730000E+03	5.165008E-16	9.892557E-18
3.740000E+03	5.247588E-16	1.000890E-17
3.750000E+03	5.312753E-16	1.009098E-17
3.760000E+03	5.363215E-16	1.014432E-17
3.770000E+03	5.405429E-16	1.018145E-17
3.780000E+03	5.447430E-16	1.021761E-17
3.790000E+03	5.498441E-16	1.027006E-17
3.800000E+03	5.567428E-16	1.035524E-17
3.810000E+03	5.663326E-16	1.048929E-17
3.820000E+03	5.794615E-16	1.068722E-17
3.830000E+03	5.970212E-16	1.096458E-17
3.840000E+03	6.197981E-16	1.133471E-17
3.850000E+03	6.486327E-16	1.181173E-17
3.860000E+03	6.842416E-16	1.240722E-17
3.870000E+03	7.272119E-16	1.313022E-17
3.880000E+03	7.780071E-16	1.398737E-17
3.890000E+03	8.365472E-16	1.497546E-17
3.900000E+03	9.023803E-16	1.608467E-17
3.910000E+03	9.745979E-16	1.729720E-17
3.920000E+03	1.051813E-15	1.858711E-17
3.930000E+03	1.132295E-15	1.992282E-17
3.940000E+03	1.214071E-15	2.126906E-17
3.950000E+03	1.295423E-15	2.259556E-17
3.960000E+03	1.374734E-15	2.387439E-17
3.970000E+03	1.450561E-15	2.508107E-17
3.980000E+03	1.521645E-15	2.619473E-17
3.990000E+03	1.586943E-15	2.719862E-17
4.000000E+03	1.645692E-15	2.808104E-17
4.010000E+03	1.697427E-15	2.883556E-17
4.020000E+03	1.741955E-15	2.946055E-17
4.030000E+03	1.778687E-15	2.994773E-17
4.040000E+03	1.806684E-15	3.028310E-17
4.050000E+03	1.824489E-15	3.044436E-17
4.060000E+03	1.830648E-15	3.040963E-17
4.070000E+03	1.824079E-15	3.016365E-17
4.080000E+03	1.804174E-15	2.969927E-17
4.090000E+03	1.771515E-15	2.902901E-17
4.100000E+03	1.728144E-15	2.818905E-17
4.110000E+03	1.676921E-15	2.722821E-17
4.120000E+03	1.620892E-15	2.619748E-17
4.130000E+03	1.562909E-15	2.514379E-17
4.140000E+03	1.505495E-15	2.410798E-17
4.150000E+03	1.450940E-15	2.312639E-17
4.160000E+03	1.401134E-15	2.222836E-17
4.170000E+03	1.357570E-15	2.143641E-17
4.180000E+03	1.321122E-15	2.076285E-17
4.190000E+03	1.291778E-15	2.020595E-17
4.200000E+03	1.269121E-15	1.975757E-17
4.210000E+03	1.252762E-15	1.941024E-17
4.220000E+03	1.242310E-15	1.915651E-17
4.230000E+03	1.237478E-15	1.899068E-17
4.240000E+03	1.237720E-15	1.890315E-17
4.250000E+03	1.242054E-15	1.887791E-17
4.260000E+03	1.249293E-15	1.889607E-17
4.270000E+03	1.258101E-15	1.893690E-17
4.280000E+03	1.267107E-15	1.897953E-17
4.290000E+03	1.275019E-15	1.900466E-17
4.300000E+03	1.281045E-15	1.900079E-17
4.310000E+03	1.284951E-15	1.896491E-17
4.320000E+03	1.287019E-15	1.890159E-17
4.330000E+03	1.287723E-15	1.881822E-17
4.340000E+03	1.287632E-15	1.872334E-17
4.350000E+03	1.287229E-15	1.862413E-17
4.360000E+03	1.286927E-15	1.852661E-17
4.370000E+03	1.286690E-15	1.843025E-17
4.380000E+03	1.286274E-15	1.833156E-17
4.390000E+03	1.285493E-15	1.822798E-17
4.400000E+03	1.284076E-15	1.811574E-17
4.410000E+03	1.281915E-15	1.799349E-17
4.420000E+03	1.279327E-15	1.786582E-17
4.430000E+03	1.277139E-15	1.774432E-17
4.440000E+03	1.276636E-15	1.764668E-17
4.450000E+03	1.279459E-15	1.759511E-17
4.460000E+03	1.287657E-15	1.761697E-17
4.470000E+03	1.303433E-15	1.774109E-17
4.480000E+03	1.329097E-15	1.799721E-17
4.490000E+03	1.366759E-15	1.841167E-17
4.500000E+03	1.418421E-15	1.900879E-17
4.510000E+03	1.485476E-15	1.980428E-17
4.520000E+03	1.568184E-15	2.079844E-17
4.530000E+03	1.665742E-15	2.197746E-17
4.540000E+03	1.776277E-15	2.331377E-17
4.550000E+03	1.896742E-15	2.476500E-17
4.560000E+03	2.022881E-15	2.627391E-17
4.570000E+03	2.150113E-15	2.778026E-17
4.580000E+03	2.274501E-15	2.923334E-17
4.590000E+03	2.392809E-15	3.059244E-17
4.600000E+03	2.502537E-15	3.182709E-17
4.610000E+03	2.602405E-15	3.292296E-17
4.620000E+03	2.691782E-15	3.387417E-17
4.630000E+03	2.769761E-15	3.467154E-17
4.640000E+03	2.834623E-15	3.529605E-17
4.650000E+03	2.883824E-15	3.571885E-17
4.660000E+03	2.914367E-15	3.590617E-17
4.670000E+03	2.923607E-15	3.582931E-17
4.680000E+03	2.909608E-15	3.546889E-17
4.690000E+03	2.872853E-15	3.483531E-17
4.700000E+03	2.817498E-15	3.398306E-17
4.710000E+03	2.749622E-15	3.298867E-17
4.720000E+03	2.675571E-15	3.193021E-17
4.730000E+03	2.601194E-15	3.087826E-17
4.740000E+03	2.530864E-15	2.988445E-17
4.750000E+03	2.466271E-15	2.896782E-17
4.760000E+03	2.405923E-15	2.810982E-17
4.770000E+03	2.346596E-15	2.727215E-17
4.780000E+03	2.285127E-15	2.641801E-17
4.790000E+03	2.219603E-15	2.552576E-17
4.800000E+03	2.149681E-15	2.459213E-17
4.810000E+03	2.077392E-15	2.364099E-17
4.820000E+03	2.007667E-15	2.272850E-17
4.830000E+03	1.946312E-15	2.191954E-17
4.840000E+03	1.897466E-15	2.125892E-17
4.850000E+03	1.862719E-15	2.076216E-17
4.860000E+03	1.842091E-15	2.042698E-17
4.870000E+03	1.834852E-15	2.024295E-17
4.880000E+03	1.839870E-15	2.019537E-17
4.890000E+03	1.855943E-15	2.026909E-17
4.900000E+03	1.882427E-15	2.045534E-17
4.910000E+03	1.919421E-15	2.075352E-17
4.920000E+03	1.967761E-15	2.117097E-17
4.930000E+03	2.028592E-15	2.171823E-17
4.940000E+03	2.103062E-15	2.240566E-17
4.950000E+03	2.191729E-15	2.323716E-17
4.960000E+03	2.292676E-15	2.419049E-17
4.970000E+03	2.399410E-15	2.519576E-17
4.980000E+03	2.501731E-15	2.614569E-17
4.990000E+03	2.588037E-15	2.692048E-17
5.000000E+03	2.647510E-15	2.741062E-17
5.010000E+03	2.671637E-15	2.753243E-17
5.020000E+03	2.656508E-15	2.725092E-17
5.030000E+03	2.604532E-15	2.659624E-17
5.040000E+03	2.523108E-15	2.564869E-17
5.050000E+03	2.422728E-15	2.451835E-17
5.060000E+03	2.315665E-15	2.333129E-17
5.070000E+03	2.213944E-15	2.220884E-17
5.080000E+03	2.127619E-15	2.125054E-17
5.090000E+03	2.064305E-15	2.052995E-17
5.100000E+03	2.029355E-15	2.009702E-17
5.110000E+03	2.024590E-15	1.996610E-17
5.120000E+03	2.047190E-15	2.010572E-17
5.130000E+03	2.091540E-15	2.045774E-17
5.140000E+03	2.151291E-15	2.095779E-17
5.150000E+03	2.220002E-15	2.154172E-17
5.160000E+03	2.291242E-15	2.214654E-17
5.170000E+03	2.359522E-15	2.271928E-17
5.180000E+03	2.420946E-15	2.322310E-17
5.190000E+03	2.473472E-15	2.363941E-17
5.200000E+03	2.516836E-15	2.396681E-17
5.210000E+03	2.552919E-15	2.422424E-17
5.220000E+03	2.585300E-15	2.444644E-17
5.230000E+03	2.618632E-15	2.467773E-17
5.240000E+03	2.658220E-15	2.496800E-17
5.250000E+03	2.709323E-15	2.536606E-17
5.260000E+03	2.775303E-15	2.590243E-17
5.270000E+03	2.856101E-15	2.657549E-17
5.280000E+03	2.949188E-15	2.736083E-17
5.290000E+03	3.050480E-15	2.821998E-17
5.300000E+03	3.154995E-15	2.910670E-17
5.310000E+03	3.257306E-15	2.997120E-17
5.320000E+03	3.352932E-15	3.077292E-17
5.330000E+03	3.439559E-15	3.149150E-17
5.340000E+03	3.516460E-15	3.212128E-17
5.350000E+03	3.583885E-15	3.266549E-17
5.360000E+03	3.642454E-15	3.313065E-17
5.370000E+03	3.692277E-15	3.351855E-17
5.380000E+03	3.731262E-15	3.381094E-17
5.390000E+03	3.754083E-15	3.396044E-17
5.400000E+03	3.753995E-15	3.390700E-17
5.410000E+03	3.726693E-15	3.361286E-17
5.420000E+03	3.672923E-15	3.308575E-17
5.430000E+03	3.598558E-15	3.237928E-17
5.440000E+03	3.515811E-15	3.160347E-17
5.450000E+03	3.443896E-15	3.093069E-17
5.460000E+03	3.403307E-15	3.054419E-17
5.470000E+03	3.408536E-15	3.057310E-17
5.480000E+03	3.464826E-15	3.106357E-17
5.490000E+03	3.569841E-15	3.199408E-17
5.500000E+03	3.713421E-15	3.327334E-17
5.510000E+03	3.874269E-15	3.471061E-17
5.520000E+03	4.022279E-15	3.603643E-17
5.530000E+03	4.127570E-15	3.698334E-17
5.540000E+03	4.169713E-15	3.736829E-17
5.550000E+03	4.139878E-15	3.711173E-17
5.560000E+03	4.042724E-15	3.625467E-17
5.570000E+03	3.897132E-15	3.496541E-17
5.580000E+03	3.728471E-15	3.347063E-17
5.590000E+03	3.559821E-15	3.197678E-17
5.600000E+03	3.408317E-15	3.063743E-17
5.610000E+03	3.284089E-15	2.954362E-17
5.620000E+03	3.187333E-15	2.869732E-17
5.630000E+03	3.106751E-15	2.799708E-17
5.640000E+03	3.025725E-15	2.729316E-17
5.650000E+03	2.929986E-15	2.645647E-17
5.660000E+03	2.811567E-15	2.541436E-17
5.670000E+03	2.669409E-15	2.415636E-17
5.680000E+03	2.510155E-15	2.274165E-17
5.690000E+03	2.347964E-15	2.129788E-17
5.700000E+03	2.198437E-15	1.996638E-17
5.710000E+03	2.073458E-15	1.885545E-17
5.720000E+03	1.979974E-15	1.802900E-17
5.730000E+03	1.921601E-15	1.752102E-17
5.740000E+03	1.898936E-15	1.733815E-17
5.750000E+03	1.909273E-15	1.745694E-17
5.760000E+03	1.948482E-15	1.784080E-17
5.770000E+03	2.012731E-15	1.845572E-17
5.780000E+03	2.098841E-15	1.927350E-17
5.790000E+03	2.204439E-15	2.027321E-17
5.800000E+03	2.328285E-15	2.144426E-17
5.810000E+03	2.470950E-15	2.279270E-17
5.820000E+03	2.633914E-15	2.433302E-17
5.830000E+03	2.816907E-15	2.606362E-17
5.840000E+03	3.015704E-15	2.794623E-17
5.850000E+03	3.222036E-15	2.990484E-17
5.860000E+03	3.425360E-15	3.184180E-17
5.870000E+03	3.614544E-15	3.365338E-17
5.880000E+03	3.779137E-15	3.524153E-17
5.890000E+03	3.912096E-15	3.653940E-17
5.900000E+03	4.012571E-15	3.753766E-17
5.910000E+03	4.084536E-15	3.827210E-17
5.920000E+03	4.133729E-15	3.879530E-17
5.930000E+03	4.165871E-15	3.916002E-17
5.940000E+03	4.185697E-15	3.941008E-17
5.950000E+03	4.196205E-15	3.957319E-17
5.960000E+03	4.197721E-15	3.965203E-17
5.970000E+03	4.188993E-15	3.963433E-17
5.980000E+03	4.168523E-15	3.950545E-17
5.990000E+03	4.135582E-15	3.925794E-17
6.000000E+03	4.089663E-15	3.888639E-17
6.010000E+03	4.030129E-15	3.838416E-17
6.020000E+03	3.956270E-15	3.774381E-17
6.030000E+03	3.867912E-15	3.696302E-17
6.040000E+03	3.766799E-15	3.605778E-17
6.050000E+03	3.657825E-15	3.507440E-17
6.060000E+03	3.547700E-15	3.407692E-17
6.070000E+03	3.444110E-15	3.313925E-17
6.080000E+03	3.355489E-15	3.234298E-17
6.090000E+03	3.289319E-15	3.176112E-17
6.100000E+03	3.249174E-15	3.142939E-17
6.110000E+03	3.233508E-15	3.133416E-17
6.120000E+03	3.237143E-15	3.142648E-17
6.130000E+03	3.252893E-15	3.163753E-17
6.140000E+03	3.271938E-15	3.188208E-17
6.150000E+03	3.285704E-15	3.207668E-17
6.160000E+03	3.289594E-15	3.217611E-17
6.170000E+03	3.285466E-15	3.219810E-17
6.180000E+03	3.279230E-15	3.220027E-17
6.190000E+03	3.276365E-15	3.223645E-17
6.200000E+03	3.279960E-15	3.233735E-17
6.210000E+03	3.290884E-15	3.251199E-17
6.220000E+03	3.308002E-15	3.274967E-17
6.230000E+03	3.328243E-15	3.302035E-17
6.240000E+03	3.347461E-15	3.328308E-17
6.250000E+03	3.362195E-15	3.350323E-17
6.260000E+03	3.370813E-15	3.366415E-17
6.270000E+03	3.373192E-15	3.376410E-17
6.280000E+03	3.369840E-15	3.380766E-17
6.290000E+03	3.362038E-15	3.380720E-17
6.300000E+03	3.351326E-15	3.377787E-17
6.310000E+03	3.338873E-15	3.373114E-17
6.320000E+03	3.325338E-15	3.367347E-17
6.330000E+03	3.310936E-15	3.360687E-17
6.340000E+03	3.295723E-15	3.353174E-17
6.350000E+03	3.279684E-15	3.344777E-17
6.360000E+03	3.262873E-15	3.335538E-17
6.370000E+03	3.245506E-15	3.325662E-17
6.380000E+03	3.228173E-15	3.315743E-17
6.390000E+03	3.211345E-15	3.306258E-17
6.400000E+03	3.194580E-15	3.296746E-17
6.410000E+03	3.176057E-15	3.285316E-17
6.420000E+03	3.153412E-15	3.269498E-17
6.430000E+03	3.125176E-15	3.247727E-17
6.440000E+03	3.091520E-15	3.220137E-17
6.450000E+03	3.054060E-15	3.188368E-17
6.460000E+03	3.015506E-15	3.155225E-17
6.470000E+03	2.979900E-15	3.124936E-17
6.480000E+03	2.951516E-15	3.102006E-17
6.490000E+03	2.933586E-15	3.089888E-17
6.500000E+03	2.927774E-15	3.090405E-17
6.510000E+03	2.934436E-15	3.104011E-17
6.520000E+03	2.953532E-15	3.130742E-17
6.530000E+03	2.984457E-15	3.170032E-17
6.540000E+03	3.026357E-15	3.221038E-17
6.550000E+03	3.077779E-15	3.282275E-17
6.560000E+03	3.136656E-15	3.351585E-17
6.570000E+03	3.200197E-15	3.426014E-17
6.580000E+03	3.265338E-15	3.502292E-17
6.590000E+03	3.328480E-15	3.576551E-17
6.600000E+03	3.385957E-15	3.644821E-17
6.610000E+03	3.434749E-15	3.703800E-17
6.620000E+03	3.472847E-15	3.751261E-17
6.630000E+03	3.499245E-15	3.786047E-17
6.640000E+03	3.513673E-15	3.807794E-17
6.650000E+03	3.516762E-15	3.817121E-17
6.660000E+03	3.509646E-15	3.815199E-17
6.670000E+03	3.493704E-15	3.803477E-17
6.680000E+03	3.470531E-15	3.783650E-17
6.690000E+03	3.441776E-15	3.757488E-17
6.700000E+03	3.409387E-15	3.727096E-17
6.710000E+03	3.375715E-15	3.695035E-17
6.720000E+03	3.342813E-15	3.663553E-17
6.730000E+03	3.311721E-15	3.633800E-17
6.740000E+03	3.281964E-15	3.605263E-17
6.750000E+03	3.252159E-15	3.576432E-17
6.760000E+03	3.220784E-15	3.545635E-17
6.770000E+03	3.186651E-15	3.511561E-17
6.780000E+03	3.149068E-15	3.473445E-17
6.790000E+03	3.107851E-15	3.431078E-17
6.800000E+03	3.063627E-15	3.385149E-17
6.810000E+03	3.017299E-15	3.336657E-17
6.820000E+03	2.969698E-15	3.286523E-17
6.830000E+03	2.921515E-15	3.235516E-17
6.840000E+03	2.873264E-15	3.184217E-17
6.850000E+03	2.825814E-15	3.133595E-17
6.860000E+03	2.780580E-15	3.085234E-17
6.870000E+03	2.739223E-15	3.040987E-17
6.880000E+03	2.703246E-15	3.002540E-17
6.890000E+03	2.673865E-15	2.971262E-17
6.900000E+03	2.652032E-15	2.948228E-17
6.910000E+03	2.638679E-15	2.934488E-17
6.920000E+03	2.634735E-15	2.931095E-17
6.930000E+03	2.640965E-15	2.938912E-17
6.940000E+03	2.657480E-15	2.958077E-17
6.950000E+03	2.683327E-15	2.987541E-17
6.960000E+03	2.716711E-15	3.025311E-17
6.970000E+03	2.755201E-15	3.068687E-17
6.980000E+03	2.795772E-15	3.114302E-17
6.990000E+03	2.835033E-15	3.158381E-17
7.000000E+03	2.870410E-15	3.198058E-17
7.010000E+03	2.900434E-15	3.231697E-17
7.020000E+03	2.924728E-15	3.258880E-17
7.030000E+03	2.943487E-15	3.279829E-17
7.040000E+03	2.957362E-15	3.295276E-17
7.050000E+03	2.967266E-15	3.306242E-17
7.060000E+03	2.973991E-15	3.313617E-17
7.070000E+03	2.978002E-15	3.317927E-17
7.080000E+03	2.979443E-15	3.319342E-17
7.090000E+03	2.978108E-15	3.317640E-17
7.100000E+03	2.973384E-15	3.312146E-17
7.110000E+03	2.964328E-15	3.301822E-17
7.120000E+03	2.950144E-15	3.285789E-17
7.130000E+03	2.929977E-15	3.263106E-17
7.140000E+03	2.903604E-15	3.233534E-17
7.150000E+03	2.871979E-15	3.198148E-17
7.160000E+03	2.837893E-15	3.160063E-17
7.170000E+03	2.804803E-15	3.123140E-17
7.180000E+03	2.775896E-15	3.090933E-17
7.190000E+03	2.753330E-15	3.065854E-17
7.200000E+03	2.738293E-15	3.049235E-17
7.210000E+03	2.731457E-15	3.041836E-17
7.220000E+03	2.732544E-15	3.043356E-17
7.230000E+03	2.740997E-15	3.053192E-17
7.240000E+03	2.756214E-15	3.070686E-17
7.250000E+03	2.777858E-15	3.095483E-17
7.260000E+03	2.805520E-15	3.127144E-17
7.270000E+03	2.838553E-15	3.164972E-17
7.280000E+03	2.875446E-15	3.207304E-17
7.290000E+03	2.914337E-15	3.252086E-17
7.300000E+03	2.952994E-15	3.296854E-17
7.310000E+03	2.989074E-15	3.339008E-17
7.320000E+03	3.020157E-15	3.375862E-17
7.330000E+03	3.044249E-15	3.405196E-17
7.340000E+03	3.059833E-15	3.425316E-17
7.350000E+03	3.066198E-15	3.435423E-17
7.360000E+03	3.063924E-15	3.436154E-17
7.370000E+03	3.055370E-15	3.430148E-17
7.380000E+03	3.043801E-15	3.421062E-17
7.390000E+03	3.031879E-15	3.411889E-17
7.400000E+03	3.021002E-15	3.404219E-17
7.410000E+03	3.011412E-15	3.398336E-17
7.420000E+03	3.002225E-15	3.393262E-17
7.430000E+03	2.991346E-15	3.386635E-17
7.440000E+03	2.976231E-15	3.375572E-17
7.450000E+03	2.955196E-15	3.358143E-17
7.460000E+03	2.928207E-15	3.334274E-17
7.470000E+03	2.896525E-15	3.305365E-17
7.480000E+03	2.862654E-15	3.274243E-17
7.490000E+03	2.830304E-15	3.245144E-17
7.500000E+03	2.802982E-15	3.222108E-17
7.510000E+03	2.782181E-15	3.206902E-17
7.520000E+03	2.763860E-15	3.194914E-17
7.530000E+03	2.736384E-15	3.172685E-17
7.540000E+03	2.687308E-15	3.125637E-17
7.550000E+03	2.609750E-15	3.045488E-17
7.560000E+03	2.502884E-15	2.930910E-17
7.570000E+03	2.371538E-15	2.787165E-17
7.580000E+03	2.225764E-15	2.625729E-17
7.590000E+03	2.077415E-15	2.460357E-17
7.600000E+03	1.936888E-15	2.303284E-17
7.610000E+03	1.812236E-15	2.164153E-17
7.620000E+03	1.709315E-15	2.050149E-17
7.630000E+03	1.632225E-15	1.966490E-17
7.640000E+03	1.583929E-15	1.917132E-17
7.650000E+03	1.566816E-15	1.905429E-17
7.660000E+03	1.582551E-15	1.933942E-17
7.670000E+03	1.631526E-15	2.003736E-17
7.680000E+03	1.713492E-15	2.115134E-17
7.690000E+03	1.827131E-15	2.267150E-17
7.700000E+03	1.968841E-15	2.455955E-17
7.710000E+03	2.132336E-15	2.674277E-17
7.720000E+03	2.309306E-15	2.912147E-17
7.730000E+03	2.490567E-15	3.158270E-17
7.740000E+03	2.666217E-15	3.400179E-17
7.750000E+03	2.826982E-15	3.625925E-17
7.760000E+03	2.966164E-15	3.826596E-17
