#wls	flux	fluxerr
1.600000E+03	4.268460E-17	1.495106E-18
1.640000E+03	4.259478E-17	1.483777E-18
1.680000E+03	4.250167E-17	1.472188E-18
1.720000E+03	4.241983E-17	1.460841E-18
1.760000E+03	4.234104E-17	1.449446E-18
1.800000E+03	4.226468E-17	1.437979E-18
1.840000E+03	4.219754E-17	1.426667E-18
1.880000E+03	4.213891E-17	1.415479E-18
1.920000E+03	4.208808E-17	1.404386E-18
1.960000E+03	4.204438E-17	1.393357E-18
2.000000E+03	4.201433E-17	1.382603E-18
2.040000E+03	4.199012E-17	1.371856E-18
2.080000E+03	4.197826E-17	1.361323E-18
2.120000E+03	4.197818E-17	1.350976E-18
2.160000E+03	4.199625E-17	1.341009E-18
2.200000E+03	4.202512E-17	1.331172E-18
2.240000E+03	4.207804E-17	1.321875E-18
2.280000E+03	4.214791E-17	1.312874E-18
2.320000E+03	4.224130E-17	1.304358E-18
2.360000E+03	4.236472E-17	1.296507E-18
2.400000E+03	4.251180E-17	1.289100E-18
2.440000E+03	4.269594E-17	1.282519E-18
2.480000E+03	4.291139E-17	1.276560E-18
2.520000E+03	4.317193E-17	1.271598E-18
2.560000E+03	4.348513E-17	1.267813E-18
2.600000E+03	4.384670E-17	1.265032E-18
2.640000E+03	4.426544E-17	1.263459E-18
2.680000E+03	4.476281E-17	1.263644E-18
2.720000E+03	4.533089E-17	1.265289E-18
2.760000E+03	4.599284E-17	1.268963E-18
2.800000E+03	4.675523E-17	1.274751E-18
2.840000E+03	4.764369E-17	1.283240E-18
2.880000E+03	4.865678E-17	1.294263E-18
2.920000E+03	4.983590E-17	1.308777E-18
2.960000E+03	5.119082E-17	1.326864E-18
3.000000E+03	5.275228E-17	1.349122E-18
3.010000E+03	5.318310E-17	1.355522E-18
3.020000E+03	5.362694E-17	1.362167E-18
3.030000E+03	5.408424E-17	1.369064E-18
3.040000E+03	5.456118E-17	1.376367E-18
3.050000E+03	5.505825E-17	1.384081E-18
3.060000E+03	5.557028E-17	1.392073E-18
3.070000E+03	5.610352E-17	1.400494E-18
3.080000E+03	5.665858E-17	1.409354E-18
3.090000E+03	5.723037E-17	1.418520E-18
3.100000E+03	5.782525E-17	1.428146E-18
3.110000E+03	5.844392E-17	1.438242E-18
3.120000E+03	5.908139E-17	1.448680E-18
3.130000E+03	5.974990E-17	1.459754E-18
3.140000E+03	6.043881E-17	1.471196E-18
3.150000E+03	6.115473E-17	1.483161E-18
3.160000E+03	6.190434E-17	1.495803E-18
3.170000E+03	6.267711E-17	1.508860E-18
3.180000E+03	6.347981E-17	1.522488E-18
3.190000E+03	6.431939E-17	1.536844E-18
3.200000E+03	6.518536E-17	1.551670E-18
3.210000E+03	6.609064E-17	1.567264E-18
3.220000E+03	6.703068E-17	1.583509E-18
3.230000E+03	6.800689E-17	1.600428E-18
3.240000E+03	6.902667E-17	1.618185E-18
3.250000E+03	7.008566E-17	1.636666E-18
3.260000E+03	7.118554E-17	1.655901E-18
3.270000E+03	7.233407E-17	1.676057E-18
3.280000E+03	7.353323E-17	1.697168E-18
3.290000E+03	7.477896E-17	1.719126E-18
3.300000E+03	7.607337E-17	1.741967E-18
3.310000E+03	7.742489E-17	1.765871E-18
3.320000E+03	7.883600E-17	1.790878E-18
3.330000E+03	8.030936E-17	1.817034E-18
3.340000E+03	8.184778E-17	1.844383E-18
3.350000E+03	8.344794E-17	1.872835E-18
3.360000E+03	8.512573E-17	1.902729E-18
3.370000E+03	8.687171E-17	1.933832E-18
3.380000E+03	8.870245E-17	1.966495E-18
3.390000E+03	9.060876E-17	2.000493E-18
3.400000E+03	9.260786E-17	2.036183E-18
3.410000E+03	9.469764E-17	2.073495E-18
3.420000E+03	9.688942E-17	2.112651E-18
3.430000E+03	9.918154E-17	2.153589E-18
3.440000E+03	1.015791E-16	2.196393E-18
3.450000E+03	1.040946E-16	2.241303E-18
3.460000E+03	1.067270E-16	2.288267E-18
3.470000E+03	1.094895E-16	2.337535E-18
3.480000E+03	1.123888E-16	2.389216E-18
3.490000E+03	1.154317E-16	2.443421E-18
3.500000E+03	1.186183E-16	2.500110E-18
3.510000E+03	1.219633E-16	2.559555E-18
3.520000E+03	1.254824E-16	2.622046E-18
3.530000E+03	1.291686E-16	2.687392E-18
3.540000E+03	1.330466E-16	2.756057E-18
3.550000E+03	1.371174E-16	2.828019E-18
3.560000E+03	1.413913E-16	2.903434E-18
3.570000E+03	1.458869E-16	2.982636E-18
3.580000E+03	1.506075E-16	3.065634E-18
3.590000E+03	1.555653E-16	3.152617E-18
3.600000E+03	1.607801E-16	3.243925E-18
3.610000E+03	1.662587E-16	3.339633E-18
3.620000E+03	1.720074E-16	3.439800E-18
3.630000E+03	1.780233E-16	3.544299E-18
3.640000E+03	1.843314E-16	3.653562E-18
3.650000E+03	1.909187E-16	3.767261E-18
3.660000E+03	1.978106E-16	3.885828E-18
3.670000E+03	2.049923E-16	4.008900E-18
3.680000E+03	2.124891E-16	4.136900E-18
3.690000E+03	2.203053E-16	4.269838E-18
3.700000E+03	2.284335E-16	4.407496E-18
3.710000E+03	2.368754E-16	4.549832E-18
3.720000E+03	2.456430E-16	4.696999E-18
3.730000E+03	2.547243E-16	4.848694E-18
3.740000E+03	2.641289E-16	5.005025E-18
3.750000E+03	2.738536E-16	5.165857E-18
3.760000E+03	2.838935E-16	5.331021E-18
3.770000E+03	2.942416E-16	5.500317E-18
3.780000E+03	3.048889E-16	5.673507E-18
3.790000E+03	3.158245E-16	5.850322E-18
3.800000E+03	3.270351E-16	6.030454E-18
3.810000E+03	3.385048E-16	6.213551E-18
3.820000E+03	3.502299E-16	6.399490E-18
3.830000E+03	3.621757E-16	6.587586E-18
3.840000E+03	3.743337E-16	6.777643E-18
3.850000E+03	3.866485E-16	6.968620E-18
3.860000E+03	3.991366E-16	7.160782E-18
3.870000E+03	4.117369E-16	7.353012E-18
3.880000E+03	4.244313E-16	7.544971E-18
3.890000E+03	4.371681E-16	7.735732E-18
3.900000E+03	4.499251E-16	7.924906E-18
3.910000E+03	4.626619E-16	8.111795E-18
3.920000E+03	4.753370E-16	8.295690E-18
3.930000E+03	4.878901E-16	8.475572E-18
3.940000E+03	5.002935E-16	8.651006E-18
3.950000E+03	5.125022E-16	8.821266E-18
3.960000E+03	5.244712E-16	8.985642E-18
3.970000E+03	5.361562E-16	9.143447E-18
3.980000E+03	5.474961E-16	9.293728E-18
3.990000E+03	5.584669E-16	9.436172E-18
4.000000E+03	5.690294E-16	9.570222E-18
4.010000E+03	5.791478E-16	9.695388E-18
4.020000E+03	5.887905E-16	9.811257E-18
4.030000E+03	5.979123E-16	9.917207E-18
4.040000E+03	6.065094E-16	1.001331E-17
4.050000E+03	6.145484E-16	1.009914E-17
4.060000E+03	6.220204E-16	1.017471E-17
4.070000E+03	6.289412E-16	1.024040E-17
4.080000E+03	6.353160E-16	1.029644E-17
4.090000E+03	6.411227E-16	1.034261E-17
4.100000E+03	6.463987E-16	1.037965E-17
4.110000E+03	6.511705E-16	1.040811E-17
4.120000E+03	6.554703E-16	1.042862E-17
4.130000E+03	6.593185E-16	1.044163E-17
4.140000E+03	6.627733E-16	1.044816E-17
4.150000E+03	6.658627E-16	1.044875E-17
4.160000E+03	6.686180E-16	1.044397E-17
4.170000E+03	6.711213E-16	1.043518E-17
4.180000E+03	6.733919E-16	1.042274E-17
4.190000E+03	6.754832E-16	1.040754E-17
4.200000E+03	6.774348E-16	1.039024E-17
4.210000E+03	6.793343E-16	1.037220E-17
4.220000E+03	6.812075E-16	1.035384E-17
4.230000E+03	6.831118E-16	1.033605E-17
4.240000E+03	6.851046E-16	1.031969E-17
4.250000E+03	6.872266E-16	1.030537E-17
4.260000E+03	6.895317E-16	1.029388E-17
4.270000E+03	6.920556E-16	1.028572E-17
4.280000E+03	6.948586E-16	1.028175E-17
4.290000E+03	6.979647E-16	1.028228E-17
4.300000E+03	7.014028E-16	1.028771E-17
4.310000E+03	7.051608E-16	1.029779E-17
4.320000E+03	7.092654E-16	1.031287E-17
4.330000E+03	7.136494E-16	1.033193E-17
4.340000E+03	7.182870E-16	1.035457E-17
4.350000E+03	7.230624E-16	1.037908E-17
4.360000E+03	7.278515E-16	1.040370E-17
4.370000E+03	7.324942E-16	1.042617E-17
4.380000E+03	7.367861E-16	1.044362E-17
4.390000E+03	7.405221E-16	1.045324E-17
4.400000E+03	7.436530E-16	1.045447E-17
4.410000E+03	7.463134E-16	1.044930E-17
4.420000E+03	7.486494E-16	1.043988E-17
4.430000E+03	7.507990E-16	1.042819E-17
4.440000E+03	7.529282E-16	1.041656E-17
4.450000E+03	7.551481E-16	1.040656E-17
4.460000E+03	7.576250E-16	1.040046E-17
4.470000E+03	7.604687E-16	1.039971E-17
4.480000E+03	7.637764E-16	1.040559E-17
4.490000E+03	7.675874E-16	1.041854E-17
4.500000E+03	7.719552E-16	1.043921E-17
4.510000E+03	7.768570E-16	1.046721E-17
4.520000E+03	7.822350E-16	1.050169E-17
4.530000E+03	7.880160E-16	1.054160E-17
4.540000E+03	7.941202E-16	1.058582E-17
4.550000E+03	8.004221E-16	1.063264E-17
4.560000E+03	8.068333E-16	1.068087E-17
4.570000E+03	8.132585E-16	1.072923E-17
4.580000E+03	8.195976E-16	1.077640E-17
4.590000E+03	8.257713E-16	1.082137E-17
4.600000E+03	8.317084E-16	1.086323E-17
4.610000E+03	8.373590E-16	1.090135E-17
4.620000E+03	8.426575E-16	1.093493E-17
4.630000E+03	8.475513E-16	1.096333E-17
4.640000E+03	8.520411E-16	1.098660E-17
4.650000E+03	8.560973E-16	1.100442E-17
4.660000E+03	8.597492E-16	1.101721E-17
4.670000E+03	8.630371E-16	1.102553E-17
4.680000E+03	8.660254E-16	1.103023E-17
4.690000E+03	8.687907E-16	1.103233E-17
4.700000E+03	8.714727E-16	1.103361E-17
4.710000E+03	8.741882E-16	1.103555E-17
4.720000E+03	8.771306E-16	1.104058E-17
4.730000E+03	8.803546E-16	1.104935E-17
4.740000E+03	8.837532E-16	1.106050E-17
4.750000E+03	8.871768E-16	1.107214E-17
4.760000E+03	8.905091E-16	1.108281E-17
4.770000E+03	8.936566E-16	1.109136E-17
4.780000E+03	8.965761E-16	1.109727E-17
4.790000E+03	8.992061E-16	1.109980E-17
4.800000E+03	9.015575E-16	1.109912E-17
4.810000E+03	9.036673E-16	1.109570E-17
4.820000E+03	9.056119E-16	1.109050E-17
4.830000E+03	9.075141E-16	1.108503E-17
4.840000E+03	9.094990E-16	1.108082E-17
4.850000E+03	9.117308E-16	1.107985E-17
4.860000E+03	9.143738E-16	1.108409E-17
4.870000E+03	9.175435E-16	1.109487E-17
4.880000E+03	9.213806E-16	1.111384E-17
4.890000E+03	9.259683E-16	1.114192E-17
4.900000E+03	9.313527E-16	1.117957E-17
4.910000E+03	9.375380E-16	1.122677E-17
4.920000E+03	9.444961E-16	1.128310E-17
4.930000E+03	9.521275E-16	1.134729E-17
4.940000E+03	9.603091E-16	1.141780E-17
4.950000E+03	9.688698E-16	1.149255E-17
4.960000E+03	9.775589E-16	1.156853E-17
4.970000E+03	9.861582E-16	1.164313E-17
4.980000E+03	9.943766E-16	1.171292E-17
4.990000E+03	1.001977E-15	1.177514E-17
5.000000E+03	1.008753E-15	1.182739E-17
5.010000E+03	1.014583E-15	1.186831E-17
5.020000E+03	1.019405E-15	1.189725E-17
5.030000E+03	1.023291E-15	1.191509E-17
5.040000E+03	1.026352E-15	1.192320E-17
5.050000E+03	1.028813E-15	1.192422E-17
5.060000E+03	1.030932E-15	1.192119E-17
5.070000E+03	1.033005E-15	1.191754E-17
5.080000E+03	1.035307E-15	1.191640E-17
5.090000E+03	1.038060E-15	1.192031E-17
5.100000E+03	1.041448E-15	1.193132E-17
5.110000E+03	1.045607E-15	1.195093E-17
5.120000E+03	1.050543E-15	1.197914E-17
5.130000E+03	1.056240E-15	1.201567E-17
5.140000E+03	1.062560E-15	1.205891E-17
5.150000E+03	1.069351E-15	1.210707E-17
5.160000E+03	1.076431E-15	1.215802E-17
5.170000E+03	1.083565E-15	1.220912E-17
5.180000E+03	1.090589E-15	1.225851E-17
5.190000E+03	1.097335E-15	1.230428E-17
5.200000E+03	1.103685E-15	1.234513E-17
5.210000E+03	1.109623E-15	1.238093E-17
5.220000E+03	1.115133E-15	1.241151E-17
5.230000E+03	1.120299E-15	1.243784E-17
5.240000E+03	1.125175E-15	1.246055E-17
5.250000E+03	1.129850E-15	1.248063E-17
5.260000E+03	1.134421E-15	1.249917E-17
5.270000E+03	1.138885E-15	1.251615E-17
5.280000E+03	1.143265E-15	1.253181E-17
5.290000E+03	1.147489E-15	1.254539E-17
5.300000E+03	1.151468E-15	1.255593E-17
5.310000E+03	1.155031E-15	1.256158E-17
5.320000E+03	1.158008E-15	1.256055E-17
5.330000E+03	1.160249E-15	1.255127E-17
5.340000E+03	1.161543E-15	1.253152E-17
5.350000E+03	1.161777E-15	1.250017E-17
5.360000E+03	1.160835E-15	1.245609E-17
5.370000E+03	1.158676E-15	1.239895E-17
5.380000E+03	1.155313E-15	1.232899E-17
5.390000E+03	1.150889E-15	1.224786E-17
5.400000E+03	1.145565E-15	1.215738E-17
5.410000E+03	1.139666E-15	1.206104E-17
5.420000E+03	1.133563E-15	1.196280E-17
5.430000E+03	1.127707E-15	1.186743E-17
5.440000E+03	1.122586E-15	1.178001E-17
5.450000E+03	1.118695E-15	1.170563E-17
5.460000E+03	1.116491E-15	1.164896E-17
5.470000E+03	1.116340E-15	1.161364E-17
5.480000E+03	1.118548E-15	1.160265E-17
5.490000E+03	1.123244E-15	1.161709E-17
5.500000E+03	1.130330E-15	1.165573E-17
5.510000E+03	1.139149E-15	1.171159E-17
5.520000E+03	1.148887E-15	1.177614E-17
5.530000E+03	1.158689E-15	1.184057E-17
5.540000E+03	1.167738E-15	1.189653E-17
5.550000E+03	1.175282E-15	1.193646E-17
5.560000E+03	1.180727E-15	1.195448E-17
5.570000E+03	1.183680E-15	1.194683E-17
5.580000E+03	1.183930E-15	1.191160E-17
5.590000E+03	1.181455E-15	1.184886E-17
5.600000E+03	1.176341E-15	1.175973E-17
5.610000E+03	1.168848E-15	1.164707E-17
5.620000E+03	1.159218E-15	1.151352E-17
5.630000E+03	1.147764E-15	1.136240E-17
5.640000E+03	1.134780E-15	1.119681E-17
5.650000E+03	1.120569E-15	1.101990E-17
5.660000E+03	1.105406E-15	1.083450E-17
5.670000E+03	1.089596E-15	1.064371E-17
5.680000E+03	1.073470E-15	1.045082E-17
5.690000E+03	1.057355E-15	1.025908E-17
5.700000E+03	1.041621E-15	1.007207E-17
5.710000E+03	1.026672E-15	9.893672E-18
5.720000E+03	1.012901E-15	9.727605E-18
5.730000E+03	1.000691E-15	9.577455E-18
5.740000E+03	9.903939E-16	9.446425E-18
5.750000E+03	9.823187E-16	9.337303E-18
5.760000E+03	9.766841E-16	9.251968E-18
5.770000E+03	9.736408E-16	9.191630E-18
5.780000E+03	9.732643E-16	9.156782E-18
5.790000E+03	9.755404E-16	9.147064E-18
5.800000E+03	9.803193E-16	9.160864E-18
5.810000E+03	9.874406E-16	9.196490E-18
5.820000E+03	9.966215E-16	9.251147E-18
5.830000E+03	1.007529E-15	9.321611E-18
5.840000E+03	1.019781E-15	9.404267E-18
5.850000E+03	1.032967E-15	9.495283E-18
5.860000E+03	1.046670E-15	9.590812E-18
5.870000E+03	1.060484E-15	9.687192E-18
5.880000E+03	1.074042E-15	9.781149E-18
5.890000E+03	1.087041E-15	9.870041E-18
5.900000E+03	1.099201E-15	9.951461E-18
5.910000E+03	1.110340E-15	1.002393E-17
5.920000E+03	1.120315E-15	1.008632E-17
5.930000E+03	1.129025E-15	1.013793E-17
5.940000E+03	1.136383E-15	1.017815E-17
5.950000E+03	1.142348E-15	1.020681E-17
5.960000E+03	1.146892E-15	1.022384E-17
5.970000E+03	1.149991E-15	1.022922E-17
5.980000E+03	1.151670E-15	1.022334E-17
5.990000E+03	1.152005E-15	1.020704E-17
6.000000E+03	1.151083E-15	1.018124E-17
6.010000E+03	1.149040E-15	1.014729E-17
6.020000E+03	1.146045E-15	1.010679E-17
6.030000E+03	1.142274E-15	1.006141E-17
6.040000E+03	1.137960E-15	1.001329E-17
6.050000E+03	1.133274E-15	9.964015E-18
6.060000E+03	1.128477E-15	9.915939E-18
6.070000E+03	1.123745E-15	9.870684E-18
6.080000E+03	1.119326E-15	9.830487E-18
6.090000E+03	1.115415E-15	9.797105E-18
6.100000E+03	1.112205E-15	9.772310E-18
6.110000E+03	1.109868E-15	9.757674E-18
6.120000E+03	1.108547E-15	9.754548E-18
6.130000E+03	1.108351E-15	9.763991E-18
6.140000E+03	1.109404E-15	9.787206E-18
6.150000E+03	1.111806E-15	9.825212E-18
6.160000E+03	1.115693E-15	9.879377E-18
6.170000E+03	1.121185E-15	9.950954E-18
6.180000E+03	1.128420E-15	1.004139E-17
6.190000E+03	1.137463E-15	1.015150E-17
6.200000E+03	1.148369E-15	1.028209E-17
6.210000E+03	1.161171E-15	1.043378E-17
6.220000E+03	1.175744E-15	1.060580E-17
6.230000E+03	1.191799E-15	1.079590E-17
6.240000E+03	1.208829E-15	1.099980E-17
6.250000E+03	1.226257E-15	1.121242E-17
6.260000E+03	1.243373E-15	1.142740E-17
6.270000E+03	1.259447E-15	1.163802E-17
6.280000E+03	1.273833E-15	1.183819E-17
6.290000E+03	1.285928E-15	1.202206E-17
6.300000E+03	1.295271E-15	1.218492E-17
6.310000E+03	1.301551E-15	1.232336E-17
6.320000E+03	1.304644E-15	1.243559E-17
6.330000E+03	1.304537E-15	1.252081E-17
6.340000E+03	1.301447E-15	1.258041E-17
6.350000E+03	1.295681E-15	1.261665E-17
6.360000E+03	1.287692E-15	1.263329E-17
6.370000E+03	1.277981E-15	1.263462E-17
6.380000E+03	1.267101E-15	1.262565E-17
6.390000E+03	1.255627E-15	1.261170E-17
6.400000E+03	1.244066E-15	1.259761E-17
6.410000E+03	1.232914E-15	1.258826E-17
6.420000E+03	1.222516E-15	1.258717E-17
6.430000E+03	1.213170E-15	1.259749E-17
6.440000E+03	1.205056E-15	1.262125E-17
6.450000E+03	1.198230E-15	1.265925E-17
6.460000E+03	1.192722E-15	1.271205E-17
6.470000E+03	1.188383E-15	1.277832E-17
6.480000E+03	1.185077E-15	1.285682E-17
6.490000E+03	1.182582E-15	1.294533E-17
6.500000E+03	1.180681E-15	1.304162E-17
6.510000E+03	1.179139E-15	1.314315E-17
6.520000E+03	1.177705E-15	1.324717E-17
6.530000E+03	1.176185E-15	1.335141E-17
6.540000E+03	1.174332E-15	1.345295E-17
6.550000E+03	1.171975E-15	1.354966E-17
6.560000E+03	1.168859E-15	1.363830E-17
6.570000E+03	1.164821E-15	1.371668E-17
6.580000E+03	1.159693E-15	1.378242E-17
6.590000E+03	1.153358E-15	1.383367E-17
6.600000E+03	1.145757E-15	1.386930E-17
6.610000E+03	1.136918E-15	1.388911E-17
6.620000E+03	1.126893E-15	1.389327E-17
6.630000E+03	1.115863E-15	1.388358E-17
6.640000E+03	1.103978E-15	1.386149E-17
6.650000E+03	1.091453E-15	1.382936E-17
6.660000E+03	1.078493E-15	1.378953E-17
6.670000E+03	1.065293E-15	1.374430E-17
6.680000E+03	1.052045E-15	1.369604E-17
6.690000E+03	1.038894E-15	1.364653E-17
6.700000E+03	1.025985E-15	1.359773E-17
6.710000E+03	1.013433E-15	1.355116E-17
6.720000E+03	1.001328E-15	1.350813E-17
6.730000E+03	9.897417E-16	1.346973E-17
6.740000E+03	9.787309E-16	1.343687E-17
6.750000E+03	9.683522E-16	1.341051E-17
6.760000E+03	9.586222E-16	1.339106E-17
6.770000E+03	9.495750E-16	1.337921E-17
6.780000E+03	9.412087E-16	1.337514E-17
6.790000E+03	9.335426E-16	1.337934E-17
6.800000E+03	9.265906E-16	1.339224E-17
6.810000E+03	9.203231E-16	1.341364E-17
6.820000E+03	9.147490E-16	1.344390E-17
6.830000E+03	9.098765E-16	1.348336E-17
6.840000E+03	9.056865E-16	1.353199E-17
6.850000E+03	9.021727E-16	1.358990E-17
6.860000E+03	8.993412E-16	1.365743E-17
6.870000E+03	8.971685E-16	1.373445E-17
6.880000E+03	8.956541E-16	1.382117E-17
6.890000E+03	8.947648E-16	1.391730E-17
6.900000E+03	8.944868E-16	1.402284E-17
6.910000E+03	8.947849E-16	1.413745E-17
6.920000E+03	8.956005E-16	1.426039E-17
6.930000E+03	8.968782E-16	1.439094E-17
6.940000E+03	8.985780E-16	1.452862E-17
6.950000E+03	9.005954E-16	1.467187E-17
6.960000E+03	9.028553E-16	1.481955E-17
6.970000E+03	9.052467E-16	1.496992E-17
6.980000E+03	9.076796E-16	1.512150E-17
6.990000E+03	9.100484E-16	1.527252E-17
7.000000E+03	9.122369E-16	1.542099E-17
7.010000E+03	9.141647E-16	1.556546E-17
7.020000E+03	9.157371E-16	1.570420E-17
7.030000E+03	9.169051E-16	1.583621E-17
7.040000E+03	9.176003E-16	1.596016E-17
7.050000E+03	9.178484E-16	1.607631E-17
7.060000E+03	9.176193E-16	1.618395E-17
7.070000E+03	9.169812E-16	1.628412E-17
7.080000E+03	9.159894E-16	1.637764E-17
7.090000E+03	9.147270E-16	1.646587E-17
7.100000E+03	9.133442E-16	1.655144E-17
7.110000E+03	9.119547E-16	1.663635E-17
7.120000E+03	9.107290E-16	1.672374E-17
7.130000E+03	9.098162E-16	1.681641E-17
7.140000E+03	9.093932E-16	1.691777E-17
7.150000E+03	9.096015E-16	1.703062E-17
7.160000E+03	9.105956E-16	1.715810E-17
7.170000E+03	9.124670E-16	1.730223E-17
7.180000E+03	9.153213E-16	1.746531E-17
7.190000E+03	9.192175E-16	1.764884E-17
7.200000E+03	9.241641E-16	1.785332E-17
7.210000E+03	9.301582E-16	1.807908E-17
7.220000E+03	9.371131E-16	1.832477E-17
7.230000E+03	9.449586E-16	1.858935E-17
7.240000E+03	9.535412E-16	1.887008E-17
7.250000E+03	9.626701E-16	1.916340E-17
7.260000E+03	9.721506E-16	1.946560E-17
7.270000E+03	9.817474E-16	1.977205E-17
7.280000E+03	9.911760E-16	2.007701E-17
7.290000E+03	1.000205E-15	2.037569E-17
7.300000E+03	1.008548E-15	2.066208E-17
7.310000E+03	1.015976E-15	2.093121E-17
7.320000E+03	1.022279E-15	2.117839E-17
7.330000E+03	1.027263E-15	2.139919E-17
7.340000E+03	1.030801E-15	2.159051E-17
7.350000E+03	1.032814E-15	2.175014E-17
7.360000E+03	1.033271E-15	2.187693E-17
7.370000E+03	1.032192E-15	2.197076E-17
7.380000E+03	1.029639E-15	2.203244E-17
7.390000E+03	1.025693E-15	2.206321E-17
7.400000E+03	1.020491E-15	2.206556E-17
7.410000E+03	1.014156E-15	2.204175E-17
7.420000E+03	1.006853E-15	2.199499E-17
7.430000E+03	9.987133E-16	2.192788E-17
7.440000E+03	9.898840E-16	2.184337E-17
7.450000E+03	9.805190E-16	2.174466E-17
7.460000E+03	9.707165E-16	2.163377E-17
7.470000E+03	9.606232E-16	2.151385E-17
7.480000E+03	9.503264E-16	2.138678E-17
7.490000E+03	9.399281E-16	2.125480E-17
7.500000E+03	9.294719E-16	2.111889E-17
7.510000E+03	9.190462E-16	2.098106E-17
7.520000E+03	9.086725E-16	2.084181E-17
7.530000E+03	8.983643E-16	2.070150E-17
7.540000E+03	8.881489E-16	2.056077E-17
7.550000E+03	8.780331E-16	2.041983E-17
7.560000E+03	8.680644E-16	2.027984E-17
7.570000E+03	8.582809E-16	2.014174E-17
7.580000E+03	8.487682E-16	2.000762E-17
7.590000E+03	8.396200E-16	1.987980E-17
7.600000E+03	8.309365E-16	1.976077E-17
7.610000E+03	8.228603E-16	1.965411E-17
7.620000E+03	8.155303E-16	1.956334E-17
7.630000E+03	8.090866E-16	1.949208E-17
7.640000E+03	8.036616E-16	1.944382E-17
7.650000E+03	7.993692E-16	1.942162E-17
7.660000E+03	7.962949E-16	1.942795E-17
7.670000E+03	7.944865E-16	1.946434E-17
7.680000E+03	7.939468E-16	1.953124E-17
7.690000E+03	7.946410E-16	1.962819E-17
7.700000E+03	7.964443E-16	1.975245E-17
7.710000E+03	7.992319E-16	1.990126E-17
7.720000E+03	8.027954E-16	2.006968E-17
7.730000E+03	8.069142E-16	2.025242E-17
7.740000E+03	8.113022E-16	2.044241E-17
7.750000E+03	8.157115E-16	2.063347E-17
7.760000E+03	8.198545E-16	2.081829E-17
