#wls	flux	fluxerr
1.592040E+03	5.667645E-06	0.000000E+00
1.631841E+03	5.811571E-06	0.000000E+00
1.671642E+03	5.954819E-06	0.000000E+00
1.711443E+03	6.095907E-06	0.000000E+00
1.751244E+03	6.233458E-06	0.000000E+00
1.791045E+03	6.365534E-06	0.000000E+00
1.830846E+03	6.487328E-06	0.000000E+00
1.870647E+03	6.596047E-06	0.000000E+00
1.910448E+03	6.686893E-06	0.000000E+00
1.950249E+03	6.755508E-06	0.000000E+00
1.990050E+03	6.799251E-06	0.000000E+00
2.029851E+03	6.821006E-06	0.000000E+00
2.069652E+03	6.830489E-06	0.000000E+00
2.109453E+03	6.843708E-06	0.000000E+00
2.149254E+03	6.878024E-06	0.000000E+00
2.189055E+03	6.939428E-06	0.000000E+00
2.228856E+03	7.021322E-06	0.000000E+00
2.268657E+03	7.110632E-06	0.000000E+00
2.308458E+03	7.195806E-06	0.000000E+00
2.348259E+03	7.271288E-06	0.000000E+00
2.388060E+03	7.336855E-06	0.000000E+00
2.427861E+03	7.395714E-06	0.000000E+00
2.467662E+03	7.453935E-06	0.000000E+00
2.507463E+03	7.517472E-06	0.000000E+00
2.547264E+03	7.593114E-06	0.000000E+00
2.587065E+03	7.686314E-06	0.000000E+00
2.626866E+03	7.801440E-06	0.000000E+00
2.666667E+03	7.940021E-06	0.000000E+00
2.706468E+03	8.101437E-06	0.000000E+00
2.746269E+03	8.283928E-06	0.000000E+00
2.786070E+03	8.485254E-06	0.000000E+00
2.825871E+03	8.703485E-06	0.000000E+00
2.865672E+03	8.937771E-06	0.000000E+00
2.905473E+03	9.187552E-06	0.000000E+00
2.945274E+03	9.454419E-06	0.000000E+00
2.985075E+03	9.740393E-06	0.000000E+00
2.995025E+03	9.815571E-06	0.000000E+00
3.004975E+03	9.892120E-06	0.000000E+00
3.014925E+03	9.970102E-06	0.000000E+00
3.024876E+03	1.005007E-05	0.000000E+00
3.034826E+03	1.013201E-05	0.000000E+00
3.044776E+03	1.021613E-05	0.000000E+00
3.054726E+03	1.030272E-05	0.000000E+00
3.064677E+03	1.039161E-05	0.000000E+00
3.074627E+03	1.048289E-05	0.000000E+00
3.084577E+03	1.057707E-05	0.000000E+00
3.094527E+03	1.067382E-05	0.000000E+00
3.104478E+03	1.077348E-05	0.000000E+00
3.114428E+03	1.087594E-05	0.000000E+00
3.124378E+03	1.098200E-05	0.000000E+00
3.134328E+03	1.109116E-05	0.000000E+00
3.144279E+03	1.120380E-05	0.000000E+00
3.154229E+03	1.132031E-05	0.000000E+00
3.164179E+03	1.144086E-05	0.000000E+00
3.174129E+03	1.156524E-05	0.000000E+00
3.184080E+03	1.169429E-05	0.000000E+00
3.194030E+03	1.182780E-05	0.000000E+00
3.203980E+03	1.196622E-05	0.000000E+00
3.213930E+03	1.210956E-05	0.000000E+00
3.223881E+03	1.225827E-05	0.000000E+00
3.233831E+03	1.241260E-05	0.000000E+00
3.243781E+03	1.257277E-05	0.000000E+00
3.253731E+03	1.273880E-05	0.000000E+00
3.263682E+03	1.291112E-05	0.000000E+00
3.273632E+03	1.308992E-05	0.000000E+00
3.283582E+03	1.327512E-05	0.000000E+00
3.293532E+03	1.346706E-05	0.000000E+00
3.303483E+03	1.366554E-05	0.000000E+00
3.313433E+03	1.387071E-05	0.000000E+00
3.323383E+03	1.408219E-05	0.000000E+00
3.333333E+03	1.429963E-05	0.000000E+00
3.343284E+03	1.452249E-05	0.000000E+00
3.353234E+03	1.475001E-05	0.000000E+00
3.363184E+03	1.498112E-05	0.000000E+00
3.373134E+03	1.521428E-05	0.000000E+00
3.383085E+03	1.544800E-05	0.000000E+00
3.393035E+03	1.567985E-05	0.000000E+00
3.402985E+03	1.590792E-05	0.000000E+00
3.412935E+03	1.612919E-05	0.000000E+00
3.422886E+03	1.634090E-05	0.000000E+00
3.432836E+03	1.654023E-05	0.000000E+00
3.442786E+03	1.672421E-05	0.000000E+00
3.452736E+03	1.689063E-05	0.000000E+00
3.462687E+03	1.703722E-05	0.000000E+00
3.472637E+03	1.716234E-05	0.000000E+00
3.482587E+03	1.726526E-05	0.000000E+00
3.492537E+03	1.734573E-05	0.000000E+00
3.502488E+03	1.740457E-05	0.000000E+00
3.512438E+03	1.744218E-05	0.000000E+00
3.522388E+03	1.746011E-05	0.000000E+00
3.532338E+03	1.745949E-05	0.000000E+00
3.542289E+03	1.744158E-05	0.000000E+00
3.552239E+03	1.740689E-05	0.000000E+00
3.562189E+03	1.735586E-05	0.000000E+00
3.572139E+03	1.728896E-05	0.000000E+00
3.582090E+03	1.720547E-05	0.000000E+00
3.592040E+03	1.710527E-05	0.000000E+00
3.601990E+03	1.698763E-05	0.000000E+00
3.611940E+03	1.685160E-05	0.000000E+00
3.621891E+03	1.669661E-05	0.000000E+00
3.631841E+03	1.652265E-05	0.000000E+00
3.641791E+03	1.633005E-05	0.000000E+00
3.651741E+03	1.612068E-05	0.000000E+00
3.661692E+03	1.589705E-05	0.000000E+00
3.671642E+03	1.566374E-05	0.000000E+00
3.681592E+03	1.542683E-05	0.000000E+00
3.691542E+03	1.519413E-05	0.000000E+00
3.701493E+03	1.497450E-05	0.000000E+00
3.711443E+03	1.477808E-05	0.000000E+00
3.721393E+03	1.461538E-05	0.000000E+00
3.731343E+03	1.449711E-05	0.000000E+00
3.741294E+03	1.443358E-05	0.000000E+00
3.751244E+03	1.443467E-05	0.000000E+00
3.761194E+03	1.450947E-05	0.000000E+00
3.771144E+03	1.466639E-05	0.000000E+00
3.781095E+03	1.491357E-05	0.000000E+00
3.791045E+03	1.525777E-05	0.000000E+00
3.800995E+03	1.570557E-05	0.000000E+00
3.810945E+03	1.626250E-05	0.000000E+00
3.820896E+03	1.693230E-05	0.000000E+00
3.830846E+03	1.771694E-05	0.000000E+00
3.840796E+03	1.861577E-05	0.000000E+00
3.850746E+03	1.962430E-05	0.000000E+00
3.860697E+03	2.073325E-05	0.000000E+00
3.870647E+03	2.192763E-05	0.000000E+00
3.880597E+03	2.318670E-05	0.000000E+00
3.890547E+03	2.448336E-05	0.000000E+00
3.900498E+03	2.578504E-05	0.000000E+00
3.910448E+03	2.705515E-05	0.000000E+00
3.920398E+03	2.825518E-05	0.000000E+00
3.930348E+03	2.934775E-05	0.000000E+00
3.940299E+03	3.029873E-05	0.000000E+00
3.950249E+03	3.107981E-05	0.000000E+00
3.960199E+03	3.167142E-05	0.000000E+00
3.970149E+03	3.206207E-05	0.000000E+00
3.980100E+03	3.224993E-05	0.000000E+00
3.990050E+03	3.224148E-05	0.000000E+00
4.000000E+03	3.205036E-05	0.000000E+00
4.009950E+03	3.169719E-05	0.000000E+00
4.019900E+03	3.120618E-05	0.000000E+00
4.029851E+03	3.060483E-05	0.000000E+00
4.039801E+03	2.992136E-05	0.000000E+00
4.049751E+03	2.918352E-05	0.000000E+00
4.059701E+03	2.841731E-05	0.000000E+00
4.069652E+03	2.764640E-05	0.000000E+00
4.079602E+03	2.689072E-05	0.000000E+00
4.089552E+03	2.616718E-05	0.000000E+00
4.099502E+03	2.548970E-05	0.000000E+00
4.109453E+03	2.486816E-05	0.000000E+00
4.119403E+03	2.431022E-05	0.000000E+00
4.129353E+03	2.382083E-05	0.000000E+00
4.139303E+03	2.340273E-05	0.000000E+00
4.149254E+03	2.305697E-05	0.000000E+00
4.159204E+03	2.278309E-05	0.000000E+00
4.169154E+03	2.257951E-05	0.000000E+00
4.179104E+03	2.244372E-05	0.000000E+00
4.189055E+03	2.237235E-05	0.000000E+00
4.199005E+03	2.236129E-05	0.000000E+00
4.208955E+03	2.240532E-05	0.000000E+00
4.218905E+03	2.249836E-05	0.000000E+00
4.228856E+03	2.263323E-05	0.000000E+00
4.238806E+03	2.280110E-05	0.000000E+00
4.248756E+03	2.299127E-05	0.000000E+00
4.258706E+03	2.319229E-05	0.000000E+00
4.268657E+03	2.339167E-05	0.000000E+00
4.278607E+03	2.357692E-05	0.000000E+00
4.288557E+03	2.373670E-05	0.000000E+00
4.298507E+03	2.386189E-05	0.000000E+00
4.308458E+03	2.394787E-05	0.000000E+00
4.318408E+03	2.399409E-05	0.000000E+00
4.328358E+03	2.400650E-05	0.000000E+00
4.338308E+03	2.399656E-05	0.000000E+00
4.348259E+03	2.398141E-05	0.000000E+00
4.358209E+03	2.398252E-05	0.000000E+00
4.368159E+03	2.402484E-05	0.000000E+00
4.378109E+03	2.413489E-05	0.000000E+00
4.388060E+03	2.433977E-05	0.000000E+00
4.398010E+03	2.466486E-05	0.000000E+00
4.407960E+03	2.513308E-05	0.000000E+00
4.417910E+03	2.576427E-05	0.000000E+00
4.427861E+03	2.657332E-05	0.000000E+00
4.437811E+03	2.757013E-05	0.000000E+00
4.447761E+03	2.875871E-05	0.000000E+00
4.457711E+03	3.013519E-05	0.000000E+00
4.467662E+03	3.168838E-05	0.000000E+00
4.477612E+03	3.339786E-05	0.000000E+00
4.487562E+03	3.523324E-05	0.000000E+00
4.497512E+03	3.715461E-05	0.000000E+00
4.507463E+03	3.911309E-05	0.000000E+00
4.517413E+03	4.105253E-05	0.000000E+00
4.527363E+03	4.291238E-05	0.000000E+00
4.537313E+03	4.463107E-05	0.000000E+00
4.547264E+03	4.615077E-05	0.000000E+00
4.557214E+03	4.742306E-05	0.000000E+00
4.567164E+03	4.840978E-05	0.000000E+00
4.577114E+03	4.908781E-05	0.000000E+00
4.587065E+03	4.945087E-05	0.000000E+00
4.597015E+03	4.950795E-05	0.000000E+00
4.606965E+03	4.928062E-05	0.000000E+00
4.616915E+03	4.880484E-05	0.000000E+00
4.626866E+03	4.812132E-05	0.000000E+00
4.636816E+03	4.727842E-05	0.000000E+00
4.646766E+03	4.632452E-05	0.000000E+00
4.656716E+03	4.530664E-05	0.000000E+00
4.666667E+03	4.426833E-05	0.000000E+00
4.676617E+03	4.324800E-05	0.000000E+00
4.686567E+03	4.227900E-05	0.000000E+00
4.696517E+03	4.138710E-05	0.000000E+00
4.706468E+03	4.059236E-05	0.000000E+00
4.716418E+03	3.990962E-05	0.000000E+00
4.726368E+03	3.934761E-05	0.000000E+00
4.736318E+03	3.891281E-05	0.000000E+00
4.746269E+03	3.860574E-05	0.000000E+00
4.756219E+03	3.842593E-05	0.000000E+00
4.766169E+03	3.836941E-05	0.000000E+00
4.776119E+03	3.842915E-05	0.000000E+00
4.786070E+03	3.859723E-05	0.000000E+00
4.796020E+03	3.886417E-05	0.000000E+00
4.805970E+03	3.921828E-05	0.000000E+00
4.815920E+03	3.964852E-05	0.000000E+00
4.825871E+03	4.014345E-05	0.000000E+00
4.835821E+03	4.069125E-05	0.000000E+00
4.845771E+03	4.128011E-05	0.000000E+00
4.855721E+03	4.189735E-05	0.000000E+00
4.865672E+03	4.252696E-05	0.000000E+00
4.875622E+03	4.315016E-05	0.000000E+00
4.885572E+03	4.374240E-05	0.000000E+00
4.895522E+03	4.427624E-05	0.000000E+00
4.905473E+03	4.472098E-05	0.000000E+00
4.915423E+03	4.504536E-05	0.000000E+00
4.925373E+03	4.522278E-05	0.000000E+00
4.935323E+03	4.523371E-05	0.000000E+00
4.945274E+03	4.507143E-05	0.000000E+00
4.955224E+03	4.474258E-05	0.000000E+00
4.965174E+03	4.426906E-05	0.000000E+00
4.975124E+03	4.368527E-05	0.000000E+00
4.985075E+03	4.303598E-05	0.000000E+00
4.995025E+03	4.236826E-05	0.000000E+00
5.004975E+03	4.172891E-05	0.000000E+00
5.014925E+03	4.115953E-05	0.000000E+00
5.024876E+03	4.069208E-05	0.000000E+00
5.034826E+03	4.034858E-05	0.000000E+00
5.044776E+03	4.014050E-05	0.000000E+00
5.054726E+03	4.006974E-05	0.000000E+00
5.064677E+03	4.013009E-05	0.000000E+00
5.074627E+03	4.031005E-05	0.000000E+00
5.084577E+03	4.059536E-05	0.000000E+00
5.094527E+03	4.096947E-05	0.000000E+00
5.104478E+03	4.141854E-05	0.000000E+00
5.114428E+03	4.192918E-05	0.000000E+00
5.124378E+03	4.249364E-05	0.000000E+00
5.134328E+03	4.310671E-05	0.000000E+00
5.144279E+03	4.376709E-05	0.000000E+00
5.154229E+03	4.447600E-05	0.000000E+00
5.164179E+03	4.523550E-05	0.000000E+00
5.174129E+03	4.604791E-05	0.000000E+00
5.184080E+03	4.691365E-05	0.000000E+00
5.194030E+03	4.783202E-05	0.000000E+00
5.203980E+03	4.879681E-05	0.000000E+00
5.213930E+03	4.980022E-05	0.000000E+00
5.223881E+03	5.083072E-05	0.000000E+00
5.233831E+03	5.187382E-05	0.000000E+00
5.243781E+03	5.291172E-05	0.000000E+00
5.253731E+03	5.392684E-05	0.000000E+00
5.263682E+03	5.490001E-05	0.000000E+00
5.273632E+03	5.581333E-05	0.000000E+00
5.283582E+03	5.665012E-05	0.000000E+00
5.293532E+03	5.739778E-05	0.000000E+00
5.303483E+03	5.804583E-05	0.000000E+00
5.313433E+03	5.858957E-05	0.000000E+00
5.323383E+03	5.902847E-05	0.000000E+00
5.333333E+03	5.936783E-05	0.000000E+00
5.343284E+03	5.961443E-05	0.000000E+00
5.353234E+03	5.978037E-05	0.000000E+00
5.363184E+03	5.987836E-05	0.000000E+00
5.373134E+03	5.992208E-05	0.000000E+00
5.383085E+03	5.992445E-05	0.000000E+00
5.393035E+03	5.990018E-05	0.000000E+00
5.402985E+03	5.986497E-05	0.000000E+00
5.412935E+03	5.983378E-05	0.000000E+00
5.422886E+03	5.982587E-05	0.000000E+00
5.432836E+03	5.986030E-05	0.000000E+00
5.442786E+03	5.995747E-05	0.000000E+00
5.452736E+03	6.013791E-05	0.000000E+00
5.462687E+03	6.041245E-05	0.000000E+00
5.472637E+03	6.078153E-05	0.000000E+00
5.482587E+03	6.122950E-05	0.000000E+00
5.492537E+03	6.173203E-05	0.000000E+00
5.502488E+03	6.225781E-05	0.000000E+00
5.512438E+03	6.277872E-05	0.000000E+00
5.522388E+03	6.326989E-05	0.000000E+00
5.532338E+03	6.371437E-05	0.000000E+00
5.542289E+03	6.409855E-05	0.000000E+00
5.552239E+03	6.441519E-05	0.000000E+00
5.562189E+03	6.466008E-05	0.000000E+00
5.572139E+03	6.483273E-05	0.000000E+00
5.582090E+03	6.493199E-05	0.000000E+00
5.592040E+03	6.495892E-05	0.000000E+00
5.601990E+03	6.491529E-05	0.000000E+00
5.611940E+03	6.480337E-05	0.000000E+00
5.621891E+03	6.462778E-05	0.000000E+00
5.631841E+03	6.439416E-05	0.000000E+00
5.641791E+03	6.411244E-05	0.000000E+00
5.651741E+03	6.379603E-05	0.000000E+00
5.661692E+03	6.346123E-05	0.000000E+00
5.671642E+03	6.312788E-05	0.000000E+00
5.681592E+03	6.281877E-05	0.000000E+00
5.691542E+03	6.256007E-05	0.000000E+00
5.701493E+03	6.237607E-05	0.000000E+00
5.711443E+03	6.229266E-05	0.000000E+00
5.721393E+03	6.233128E-05	0.000000E+00
5.731343E+03	6.250741E-05	0.000000E+00
5.741294E+03	6.283028E-05	0.000000E+00
5.751244E+03	6.329974E-05	0.000000E+00
5.761194E+03	6.390375E-05	0.000000E+00
5.771144E+03	6.462008E-05	0.000000E+00
5.781095E+03	6.541817E-05	0.000000E+00
5.791045E+03	6.625723E-05	0.000000E+00
5.800995E+03	6.709485E-05	0.000000E+00
5.810945E+03	6.788887E-05	0.000000E+00
5.820896E+03	6.860289E-05	0.000000E+00
5.830846E+03	6.921099E-05	0.000000E+00
5.840796E+03	6.969695E-05	0.000000E+00
5.850746E+03	7.005952E-05	0.000000E+00
5.860697E+03	7.030496E-05	0.000000E+00
5.870647E+03	7.044660E-05	0.000000E+00
5.880597E+03	7.050038E-05	0.000000E+00
5.890547E+03	7.048160E-05	0.000000E+00
5.900498E+03	7.040385E-05	0.000000E+00
5.910448E+03	7.027517E-05	0.000000E+00
5.920398E+03	7.010267E-05	0.000000E+00
5.930348E+03	6.989301E-05	0.000000E+00
5.940299E+03	6.965237E-05	0.000000E+00
5.950249E+03	6.938689E-05	0.000000E+00
5.960199E+03	6.910798E-05	0.000000E+00
5.970149E+03	6.882520E-05	0.000000E+00
5.980100E+03	6.855432E-05	0.000000E+00
5.990050E+03	6.830675E-05	0.000000E+00
6.000000E+03	6.809571E-05	0.000000E+00
6.009950E+03	6.793341E-05	0.000000E+00
6.019900E+03	6.782738E-05	0.000000E+00
6.029851E+03	6.778156E-05	0.000000E+00
6.039801E+03	6.779252E-05	0.000000E+00
6.049751E+03	6.785333E-05	0.000000E+00
6.059701E+03	6.794565E-05	0.000000E+00
6.069652E+03	6.804804E-05	0.000000E+00
6.079602E+03	6.813063E-05	0.000000E+00
6.089552E+03	6.815926E-05	0.000000E+00
6.099502E+03	6.809857E-05	0.000000E+00
6.109453E+03	6.791398E-05	0.000000E+00
6.119403E+03	6.757020E-05	0.000000E+00
6.129353E+03	6.703318E-05	0.000000E+00
6.139303E+03	6.626873E-05	0.000000E+00
6.149254E+03	6.523424E-05	0.000000E+00
6.159204E+03	6.388205E-05	0.000000E+00
6.169154E+03	6.215795E-05	0.000000E+00
6.179104E+03	6.000913E-05	0.000000E+00
6.189055E+03	5.740013E-05	0.000000E+00
6.199005E+03	5.434109E-05	0.000000E+00
6.208955E+03	5.091420E-05	0.000000E+00
6.218905E+03	4.728150E-05	0.000000E+00
6.228856E+03	4.365885E-05	0.000000E+00
6.238806E+03	4.025857E-05	0.000000E+00
6.248756E+03	3.724842E-05	0.000000E+00
6.258706E+03	3.473607E-05	0.000000E+00
6.268657E+03	3.277569E-05	0.000000E+00
6.278607E+03	3.138351E-05	0.000000E+00
6.288557E+03	3.055321E-05	0.000000E+00
6.298507E+03	3.026788E-05	0.000000E+00
6.308458E+03	3.050950E-05	0.000000E+00
6.318408E+03	3.126194E-05	0.000000E+00
6.328358E+03	3.251001E-05	0.000000E+00
6.338308E+03	3.423919E-05	0.000000E+00
6.348259E+03	3.642926E-05	0.000000E+00
6.358209E+03	3.905030E-05	0.000000E+00
6.368159E+03	4.205841E-05	0.000000E+00
6.378109E+03	4.539459E-05	0.000000E+00
6.388060E+03	4.898195E-05	0.000000E+00
6.398010E+03	5.273319E-05	0.000000E+00
6.407960E+03	5.655367E-05	0.000000E+00
6.417910E+03	6.035075E-05	0.000000E+00
6.427861E+03	6.404271E-05	0.000000E+00
6.437811E+03	6.756295E-05	0.000000E+00
6.447761E+03	7.086483E-05	0.000000E+00
6.457711E+03	7.391731E-05	0.000000E+00
6.467662E+03	7.670996E-05	0.000000E+00
6.477612E+03	7.924287E-05	0.000000E+00
6.487562E+03	8.152358E-05	0.000000E+00
6.497512E+03	8.356743E-05	0.000000E+00
6.507463E+03	8.539108E-05	0.000000E+00
6.517413E+03	8.701153E-05	0.000000E+00
6.527363E+03	8.844423E-05	0.000000E+00
6.537313E+03	8.970291E-05	0.000000E+00
6.547264E+03	9.079392E-05	0.000000E+00
6.557214E+03	9.171966E-05	0.000000E+00
6.567164E+03	9.247873E-05	0.000000E+00
6.577114E+03	9.306380E-05	0.000000E+00
6.587065E+03	9.346366E-05	0.000000E+00
6.597015E+03	9.367070E-05	0.000000E+00
6.606965E+03	9.367793E-05	0.000000E+00
6.616915E+03	9.348939E-05	0.000000E+00
6.626866E+03	9.311084E-05	0.000000E+00
6.636816E+03	9.255912E-05	0.000000E+00
6.646766E+03	9.185897E-05	0.000000E+00
6.656716E+03	9.103712E-05	0.000000E+00
6.666667E+03	9.011905E-05	0.000000E+00
6.676617E+03	8.912917E-05	0.000000E+00
6.686567E+03	8.808872E-05	0.000000E+00
6.696517E+03	8.701023E-05	0.000000E+00
6.706468E+03	8.590392E-05	0.000000E+00
6.716418E+03	8.477107E-05	0.000000E+00
6.726368E+03	8.361629E-05	0.000000E+00
6.736318E+03	8.243696E-05	0.000000E+00
6.746269E+03	8.123665E-05	0.000000E+00
6.756219E+03	8.001415E-05	0.000000E+00
6.766169E+03	7.877424E-05	0.000000E+00
6.776119E+03	7.752157E-05	0.000000E+00
6.786070E+03	7.626038E-05	0.000000E+00
6.796020E+03	7.499802E-05	0.000000E+00
6.805970E+03	7.373880E-05	0.000000E+00
6.815920E+03	7.248936E-05	0.000000E+00
6.825871E+03	7.125197E-05	0.000000E+00
6.835821E+03	7.003446E-05	0.000000E+00
6.845771E+03	6.884159E-05	0.000000E+00
6.855721E+03	6.768107E-05	0.000000E+00
6.865672E+03	6.656138E-05	0.000000E+00
6.875622E+03	6.549670E-05	0.000000E+00
6.885572E+03	6.449596E-05	0.000000E+00
6.895522E+03	6.357551E-05	0.000000E+00
6.905473E+03	6.274360E-05	0.000000E+00
6.915423E+03	6.200740E-05	0.000000E+00
6.925373E+03	6.137026E-05	0.000000E+00
6.935323E+03	6.082715E-05	0.000000E+00
6.945274E+03	6.036830E-05	0.000000E+00
6.955224E+03	5.997872E-05	0.000000E+00
6.965174E+03	5.963980E-05	0.000000E+00
6.975124E+03	5.933147E-05	0.000000E+00
6.985075E+03	5.903333E-05	0.000000E+00
6.995025E+03	5.873149E-05	0.000000E+00
7.004975E+03	5.841062E-05	0.000000E+00
7.014925E+03	5.806749E-05	0.000000E+00
7.024876E+03	5.769680E-05	0.000000E+00
7.034826E+03	5.730300E-05	0.000000E+00
7.044776E+03	5.688980E-05	0.000000E+00
7.054726E+03	5.646335E-05	0.000000E+00
7.064677E+03	5.603100E-05	0.000000E+00
7.074627E+03	5.559598E-05	0.000000E+00
7.084577E+03	5.516366E-05	0.000000E+00
7.094527E+03	5.473594E-05	0.000000E+00
7.104478E+03	5.431591E-05	0.000000E+00
7.114428E+03	5.390494E-05	0.000000E+00
7.124378E+03	5.350302E-05	0.000000E+00
7.134328E+03	5.311223E-05	0.000000E+00
7.144279E+03	5.273129E-05	0.000000E+00
7.154229E+03	5.236300E-05	0.000000E+00
7.164179E+03	5.200634E-05	0.000000E+00
7.174129E+03	5.165953E-05	0.000000E+00
7.184080E+03	5.132195E-05	0.000000E+00
7.194030E+03	5.099110E-05	0.000000E+00
7.203980E+03	5.066299E-05	0.000000E+00
7.213930E+03	5.033469E-05	0.000000E+00
7.223881E+03	5.000391E-05	0.000000E+00
7.233831E+03	4.966954E-05	0.000000E+00
7.243781E+03	4.933201E-05	0.000000E+00
7.253731E+03	4.899142E-05	0.000000E+00
7.263682E+03	4.865348E-05	0.000000E+00
7.273632E+03	4.832200E-05	0.000000E+00
7.283582E+03	4.800135E-05	0.000000E+00
7.293532E+03	4.769785E-05	0.000000E+00
7.303483E+03	4.741412E-05	0.000000E+00
7.313433E+03	4.715345E-05	0.000000E+00
7.323383E+03	4.691743E-05	0.000000E+00
7.333333E+03	4.670462E-05	0.000000E+00
7.343284E+03	4.651326E-05	0.000000E+00
7.353234E+03	4.633541E-05	0.000000E+00
7.363184E+03	4.616600E-05	0.000000E+00
7.373134E+03	4.599424E-05	0.000000E+00
7.383085E+03	4.581121E-05	0.000000E+00
7.393035E+03	4.560561E-05	0.000000E+00
7.402985E+03	4.536757E-05	0.000000E+00
7.412935E+03	4.508939E-05	0.000000E+00
7.422886E+03	4.476332E-05	0.000000E+00
7.432836E+03	4.438765E-05	0.000000E+00
7.442786E+03	4.395830E-05	0.000000E+00
7.452736E+03	4.347731E-05	0.000000E+00
7.462687E+03	4.294624E-05	0.000000E+00
7.472637E+03	4.237253E-05	0.000000E+00
7.482587E+03	4.176217E-05	0.000000E+00
7.492537E+03	4.112464E-05	0.000000E+00
7.502488E+03	4.047318E-05	0.000000E+00
7.512438E+03	3.982333E-05	0.000000E+00
7.522388E+03	3.919590E-05	0.000000E+00
7.532338E+03	3.861149E-05	0.000000E+00
7.542289E+03	3.809608E-05	0.000000E+00
7.552239E+03	3.767713E-05	0.000000E+00
7.562189E+03	3.737954E-05	0.000000E+00
7.572139E+03	3.722494E-05	0.000000E+00
7.582090E+03	3.722077E-05	0.000000E+00
7.592040E+03	3.735935E-05	0.000000E+00
7.601990E+03	3.761690E-05	0.000000E+00
7.611940E+03	3.796843E-05	0.000000E+00
7.621891E+03	3.838576E-05	0.000000E+00
7.631841E+03	3.884675E-05	0.000000E+00
7.641791E+03	3.932966E-05	0.000000E+00
7.651741E+03	3.982059E-05	0.000000E+00
7.661692E+03	4.030731E-05	0.000000E+00
7.671642E+03	4.078237E-05	0.000000E+00
7.681592E+03	4.124180E-05	0.000000E+00
7.691542E+03	4.168437E-05	0.000000E+00
7.701493E+03	4.211101E-05	0.000000E+00
7.711443E+03	4.252307E-05	0.000000E+00
7.721393E+03	4.292559E-05	0.000000E+00
