#wls	flux	fluxerr
1.592040E+03	2.915207E-04	1.301547E-05
1.631841E+03	2.991608E-04	1.333324E-05
1.671642E+03	3.067867E-04	1.364855E-05
1.711443E+03	3.143866E-04	1.396083E-05
1.751244E+03	3.218363E-04	1.426449E-05
1.791045E+03	3.290429E-04	1.455542E-05
1.830846E+03	3.358163E-04	1.482521E-05
1.870647E+03	3.419869E-04	1.506645E-05
1.910448E+03	3.473314E-04	1.526942E-05
1.950249E+03	3.516419E-04	1.542519E-05
1.990050E+03	3.547644E-04	1.552724E-05
2.029851E+03	3.568522E-04	1.558260E-05
2.069652E+03	3.584315E-04	1.561445E-05
2.109453E+03	3.603377E-04	1.565923E-05
2.149254E+03	3.634369E-04	1.575434E-05
2.189055E+03	3.680361E-04	1.591263E-05
2.228856E+03	3.737386E-04	1.611641E-05
2.268657E+03	3.798431E-04	1.633509E-05
2.308458E+03	3.857219E-04	1.654153E-05
2.348259E+03	3.911974E-04	1.672814E-05
2.388060E+03	3.963245E-04	1.689734E-05
2.427861E+03	4.013174E-04	1.705828E-05
2.467662E+03	4.065270E-04	1.722583E-05
2.507463E+03	4.123037E-04	1.741462E-05
2.547264E+03	4.189933E-04	1.763889E-05
2.587065E+03	4.269893E-04	1.791469E-05
2.626866E+03	4.365347E-04	1.825149E-05
2.666667E+03	4.477538E-04	1.865369E-05
2.706468E+03	4.605639E-04	1.911695E-05
2.746269E+03	4.748662E-04	1.963628E-05
2.786070E+03	4.904989E-04	2.020414E-05
2.825871E+03	5.073552E-04	2.081530E-05
2.865672E+03	5.253809E-04	2.146672E-05
2.905473E+03	5.445970E-04	2.215843E-05
2.945274E+03	5.651254E-04	2.289450E-05
2.985075E+03	5.872019E-04	2.368345E-05
2.995025E+03	5.929964E-04	2.389017E-05
3.004975E+03	5.989216E-04	2.410148E-05
3.014925E+03	6.049688E-04	2.431698E-05
3.024876E+03	6.111712E-04	2.453801E-05
3.034826E+03	6.175289E-04	2.476453E-05
3.044776E+03	6.240568E-04	2.499712E-05
3.054726E+03	6.307592E-04	2.523591E-05
3.064677E+03	6.376675E-04	2.548214E-05
3.074627E+03	6.447613E-04	2.573495E-05
3.084577E+03	6.520742E-04	2.599564E-05
3.094527E+03	6.596010E-04	2.626398E-05
3.104478E+03	6.673636E-04	2.654080E-05
3.114428E+03	6.753719E-04	2.682645E-05
3.124378E+03	6.836369E-04	2.712132E-05
3.134328E+03	6.921712E-04	2.742587E-05
3.144279E+03	7.010002E-04	2.774106E-05
3.154229E+03	7.101260E-04	2.806691E-05
3.164179E+03	7.195767E-04	2.840449E-05
3.174129E+03	7.293692E-04	2.875440E-05
3.184080E+03	7.395219E-04	2.911731E-05
3.194030E+03	7.500670E-04	2.949441E-05
3.203980E+03	7.609989E-04	2.988544E-05
3.213930E+03	7.723789E-04	3.029270E-05
3.223881E+03	7.841908E-04	3.071551E-05
3.233831E+03	7.964978E-04	3.115624E-05
3.243781E+03	8.092991E-04	3.161478E-05
3.253731E+03	8.226337E-04	3.209256E-05
3.263682E+03	8.365282E-04	3.259052E-05
3.273632E+03	8.509958E-04	3.310908E-05
3.283582E+03	8.660896E-04	3.365019E-05
3.293532E+03	8.818076E-04	3.421367E-05
3.303483E+03	8.981728E-04	3.480029E-05
3.313433E+03	9.152309E-04	3.541169E-05
3.323383E+03	9.329680E-04	3.604722E-05
3.333333E+03	9.513879E-04	3.670690E-05
3.343284E+03	9.704810E-04	3.739022E-05
3.353234E+03	9.902352E-04	3.809660E-05
3.363184E+03	1.010574E-03	3.882296E-05
3.373134E+03	1.031420E-03	3.956624E-05
3.383085E+03	1.052681E-03	4.032274E-05
3.393035E+03	1.074198E-03	4.108637E-05
3.402985E+03	1.095794E-03	4.185030E-05
3.412935E+03	1.117228E-03	4.260524E-05
3.422886E+03	1.138270E-03	4.334247E-05
3.432836E+03	1.158653E-03	4.405192E-05
3.442786E+03	1.178071E-03	4.472206E-05
3.452736E+03	1.196257E-03	4.534288E-05
3.462687E+03	1.212960E-03	4.590511E-05
3.472637E+03	1.228019E-03	4.640290E-05
3.482587E+03	1.241289E-03	4.683107E-05
3.492537E+03	1.252770E-03	4.718990E-05
3.502488E+03	1.262490E-03	4.748078E-05
3.512438E+03	1.270548E-03	4.770769E-05
3.522388E+03	1.277067E-03	4.787559E-05
3.532338E+03	1.282154E-03	4.798873E-05
3.542289E+03	1.285917E-03	4.805135E-05
3.552239E+03	1.288378E-03	4.806460E-05
3.562189E+03	1.289546E-03	4.802899E-05
3.572139E+03	1.289396E-03	4.794383E-05
3.582090E+03	1.287837E-03	4.780601E-05
3.592040E+03	1.284758E-03	4.761166E-05
3.601990E+03	1.280006E-03	4.735541E-05
3.611940E+03	1.273405E-03	4.703110E-05
3.621891E+03	1.264782E-03	4.663266E-05
3.631841E+03	1.253946E-03	4.615350E-05
3.641791E+03	1.240789E-03	4.559004E-05
3.651741E+03	1.225253E-03	4.494061E-05
3.661692E+03	1.207443E-03	4.420957E-05
3.671642E+03	1.187664E-03	4.340850E-05
3.681592E+03	1.166404E-03	4.255558E-05
3.691542E+03	1.144395E-03	4.167782E-05
3.701493E+03	1.122581E-03	4.080968E-05
3.711443E+03	1.102008E-03	3.998910E-05
3.721393E+03	1.083796E-03	3.925640E-05
3.731343E+03	1.069075E-03	3.865202E-05
3.741294E+03	1.058884E-03	3.821276E-05
3.751244E+03	1.054187E-03	3.797242E-05
3.761194E+03	1.055858E-03	3.796135E-05
3.771144E+03	1.064672E-03	3.820603E-05
3.781095E+03	1.081350E-03	3.873088E-05
3.791045E+03	1.106575E-03	3.955868E-05
3.800995E+03	1.140997E-03	4.071079E-05
3.810945E+03	1.185233E-03	4.220731E-05
3.820896E+03	1.239808E-03	4.406479E-05
3.830846E+03	1.305133E-03	4.629567E-05
3.840796E+03	1.381405E-03	4.890454E-05
3.850746E+03	1.468461E-03	5.188331E-05
3.860697E+03	1.565682E-03	5.520780E-05
3.870647E+03	1.671875E-03	5.883379E-05
3.880597E+03	1.785126E-03	6.269202E-05
3.890547E+03	1.902762E-03	6.668726E-05
3.900498E+03	2.021474E-03	7.070267E-05
3.910448E+03	2.137424E-03	7.460397E-05
3.920398E+03	2.246480E-03	7.824776E-05
3.930348E+03	2.344691E-03	8.149802E-05
3.940299E+03	2.428556E-03	8.423568E-05
3.950249E+03	2.495332E-03	8.636884E-05
3.960199E+03	2.543216E-03	8.783889E-05
3.970149E+03	2.571498E-03	8.862556E-05
3.980100E+03	2.580336E-03	8.873853E-05
3.990050E+03	2.570727E-03	8.821640E-05
4.000000E+03	2.544397E-03	8.712235E-05
4.009950E+03	2.503549E-03	8.553549E-05
4.019900E+03	2.450835E-03	8.354950E-05
4.029851E+03	2.389034E-03	8.126166E-05
4.039801E+03	2.321048E-03	7.877255E-05
4.049751E+03	2.249560E-03	7.617456E-05
4.059701E+03	2.177014E-03	7.355106E-05
4.069652E+03	2.105547E-03	7.097446E-05
4.079602E+03	2.036862E-03	6.850177E-05
4.089552E+03	1.972375E-03	6.618000E-05
4.099502E+03	1.913085E-03	6.404162E-05
4.109453E+03	1.859734E-03	6.211032E-05
4.119403E+03	1.812803E-03	6.040068E-05
4.129353E+03	1.772517E-03	5.891880E-05
4.139303E+03	1.738950E-03	5.766555E-05
4.149254E+03	1.712014E-03	5.663647E-05
4.159204E+03	1.691502E-03	5.582319E-05
4.169154E+03	1.677176E-03	5.521633E-05
4.179104E+03	1.668697E-03	5.480333E-05
4.189055E+03	1.665754E-03	5.457258E-05
4.199005E+03	1.667958E-03	5.451006E-05
4.208955E+03	1.674920E-03	5.460178E-05
4.218905E+03	1.686160E-03	5.483102E-05
4.228856E+03	1.701050E-03	5.517635E-05
4.238806E+03	1.718843E-03	5.561270E-05
4.248756E+03	1.738534E-03	5.610690E-05
4.258706E+03	1.758887E-03	5.661867E-05
4.268657E+03	1.778464E-03	5.710171E-05
4.278607E+03	1.795743E-03	5.750739E-05
4.288557E+03	1.809209E-03	5.778796E-05
4.298507E+03	1.817518E-03	5.790147E-05
4.308458E+03	1.819799E-03	5.782162E-05
4.318408E+03	1.815696E-03	5.753856E-05
4.328358E+03	1.805612E-03	5.706671E-05
4.338308E+03	1.790620E-03	5.644137E-05
4.348259E+03	1.772510E-03	5.572010E-05
4.358209E+03	1.753625E-03	5.497716E-05
4.368159E+03	1.736681E-03	5.429770E-05
4.378109E+03	1.724564E-03	5.377119E-05
4.388060E+03	1.720127E-03	5.348512E-05
4.398010E+03	1.725993E-03	5.351886E-05
4.407960E+03	1.744409E-03	5.393928E-05
4.417910E+03	1.777195E-03	5.479915E-05
4.427861E+03	1.825645E-03	5.613455E-05
4.437811E+03	1.890570E-03	5.796625E-05
4.447761E+03	1.972176E-03	6.029614E-05
4.457711E+03	2.070067E-03	6.310783E-05
4.467662E+03	2.183167E-03	6.636423E-05
4.477612E+03	2.309632E-03	7.000534E-05
4.487562E+03	2.446773E-03	7.394631E-05
4.497512E+03	2.591023E-03	7.807680E-05
4.507463E+03	2.737943E-03	8.226140E-05
4.517413E+03	2.882515E-03	8.634904E-05
4.527363E+03	3.019243E-03	9.017612E-05
4.537313E+03	3.142682E-03	9.358252E-05
4.547264E+03	3.247817E-03	9.642281E-05
4.557214E+03	3.330579E-03	9.858148E-05
4.567164E+03	3.388081E-03	9.997927E-05
4.577114E+03	3.418843E-03	1.005795E-04
4.587065E+03	3.422995E-03	1.003931E-04
4.597015E+03	3.401932E-03	9.946805E-05
4.606965E+03	3.358247E-03	9.788688E-05
4.616915E+03	3.295465E-03	9.575820E-05
4.626866E+03	3.217626E-03	9.320423E-05
4.636816E+03	3.128904E-03	9.034964E-05
4.646766E+03	3.033562E-03	8.732020E-05
4.656716E+03	2.935498E-03	8.422962E-05
4.666667E+03	2.838178E-03	8.117782E-05
4.676617E+03	2.744554E-03	7.824883E-05
4.686567E+03	2.656967E-03	7.550821E-05
4.696517E+03	2.577195E-03	7.300471E-05
4.706468E+03	2.506400E-03	7.076904E-05
4.716418E+03	2.445352E-03	6.882040E-05
4.726368E+03	2.394444E-03	6.716723E-05
4.736318E+03	2.353700E-03	6.580736E-05
4.746269E+03	2.323046E-03	6.473599E-05
4.756219E+03	2.302178E-03	6.394189E-05
4.766169E+03	2.290643E-03	6.340984E-05
4.776119E+03	2.287894E-03	6.312216E-05
4.786070E+03	2.293109E-03	6.305385E-05
4.796020E+03	2.305459E-03	6.317998E-05
4.805970E+03	2.323921E-03	6.347064E-05
4.815920E+03	2.347625E-03	6.390048E-05
4.825871E+03	2.375749E-03	6.444576E-05
4.835821E+03	2.407739E-03	6.509027E-05
4.845771E+03	2.443092E-03	6.581945E-05
4.855721E+03	2.481402E-03	6.662142E-05
4.865672E+03	2.522071E-03	6.747941E-05
4.875622E+03	2.564089E-03	6.836588E-05
4.885572E+03	2.605900E-03	6.923910E-05
4.895522E+03	2.645298E-03	7.004075E-05
4.905473E+03	2.679519E-03	7.069862E-05
4.915423E+03	2.705391E-03	7.113076E-05
4.925373E+03	2.719931E-03	7.126139E-05
4.935323E+03	2.720668E-03	7.102913E-05
4.945274E+03	2.706336E-03	7.040495E-05
4.955224E+03	2.677120E-03	6.939781E-05
4.965174E+03	2.634851E-03	6.805916E-05
4.975124E+03	2.582792E-03	6.647661E-05
4.985075E+03	2.525209E-03	6.476229E-05
4.995025E+03	2.466667E-03	6.303437E-05
5.004975E+03	2.411577E-03	6.140543E-05
5.014925E+03	2.363583E-03	5.996703E-05
5.024876E+03	2.325353E-03	5.878460E-05
5.034826E+03	2.298373E-03	5.789292E-05
5.044776E+03	2.283059E-03	5.729940E-05
5.054726E+03	2.278980E-03	5.699008E-05
5.064677E+03	2.285006E-03	5.693374E-05
5.074627E+03	2.299543E-03	5.708814E-05
5.084577E+03	2.320797E-03	5.740661E-05
5.094527E+03	2.347062E-03	5.784535E-05
5.104478E+03	2.376758E-03	5.836423E-05
5.114428E+03	2.408720E-03	5.893389E-05
5.124378E+03	2.442241E-03	5.953660E-05
5.134328E+03	2.477089E-03	6.016630E-05
5.144279E+03	2.513410E-03	6.082627E-05
5.154229E+03	2.551680E-03	6.152768E-05
5.164179E+03	2.592418E-03	6.228254E-05
5.174129E+03	2.636166E-03	6.310326E-05
5.184080E+03	2.683195E-03	6.399562E-05
5.194030E+03	2.733591E-03	6.496087E-05
5.203980E+03	2.787001E-03	6.598992E-05
5.213930E+03	2.842826E-03	6.706792E-05
5.223881E+03	2.900087E-03	6.817141E-05
5.233831E+03	2.957658E-03	6.927374E-05
5.243781E+03	3.014222E-03	7.034425E-05
5.253731E+03	3.068315E-03	7.134924E-05
5.263682E+03	3.118517E-03	7.225659E-05
5.273632E+03	3.163512E-03	7.303702E-05
5.283582E+03	3.202090E-03	7.366409E-05
5.293532E+03	3.233299E-03	7.411774E-05
5.303483E+03	3.256574E-03	7.438693E-05
5.313433E+03	3.271767E-03	7.447033E-05
5.323383E+03	3.279170E-03	7.437660E-05
5.333333E+03	3.279444E-03	7.412266E-05
5.343284E+03	3.273620E-03	7.373344E-05
5.353234E+03	3.262824E-03	7.323573E-05
5.363184E+03	3.248259E-03	7.265763E-05
5.373134E+03	3.230954E-03	7.202299E-05
5.383085E+03	3.211867E-03	7.135373E-05
5.393035E+03	3.191780E-03	7.066763E-05
5.402985E+03	3.171377E-03	6.997998E-05
5.412935E+03	3.151575E-03	6.931105E-05
5.422886E+03	3.133426E-03	6.868379E-05
5.432836E+03	3.118135E-03	6.812419E-05
5.442786E+03	3.107368E-03	6.766789E-05
5.452736E+03	3.102694E-03	6.734808E-05
5.462687E+03	3.105349E-03	6.719021E-05
5.472637E+03	3.115344E-03	6.719309E-05
5.482587E+03	3.130759E-03	6.731396E-05
5.492537E+03	3.148843E-03	6.749276E-05
5.502488E+03	3.167003E-03	6.767359E-05
5.512438E+03	3.183108E-03	6.781110E-05
5.522388E+03	3.195806E-03	6.787697E-05
5.532338E+03	3.204365E-03	6.785639E-05
5.542289E+03	3.208544E-03	6.774504E-05
5.552239E+03	3.208499E-03	6.754704E-05
5.562189E+03	3.204511E-03	6.726907E-05
5.572139E+03	3.196869E-03	6.691784E-05
5.582090E+03	3.185816E-03	6.649903E-05
5.592040E+03	3.171457E-03	6.601544E-05
5.601990E+03	3.153819E-03	6.546813E-05
5.611940E+03	3.132939E-03	6.485835E-05
5.621891E+03	3.108864E-03	6.418759E-05
5.631841E+03	3.081794E-03	6.346042E-05
5.641791E+03	3.052073E-03	6.268430E-05
5.651741E+03	3.020263E-03	6.187111E-05
5.661692E+03	2.987208E-03	6.103833E-05
5.671642E+03	2.953978E-03	6.020787E-05
5.681592E+03	2.921891E-03	5.940646E-05
5.691542E+03	2.892504E-03	5.866545E-05
5.701493E+03	2.867485E-03	5.801807E-05
5.711443E+03	2.848557E-03	5.749842E-05
5.721393E+03	2.837265E-03	5.713668E-05
5.731343E+03	2.834945E-03	5.695857E-05
5.741294E+03	2.842349E-03	5.697792E-05
5.751244E+03	2.859598E-03	5.719584E-05
5.761194E+03	2.886086E-03	5.759895E-05
5.771144E+03	2.920242E-03	5.815481E-05
5.781095E+03	2.959807E-03	5.881763E-05
5.791045E+03	3.001812E-03	5.952794E-05
5.800995E+03	3.042932E-03	6.021972E-05
5.810945E+03	3.079874E-03	6.082817E-05
5.820896E+03	3.109988E-03	6.130167E-05
5.830846E+03	3.131495E-03	6.160603E-05
5.840796E+03	3.143853E-03	6.173171E-05
5.850746E+03	3.147585E-03	6.169000E-05
5.860697E+03	3.143947E-03	6.150642E-05
5.870647E+03	3.134601E-03	6.121425E-05
5.880597E+03	3.121152E-03	6.084534E-05
5.890547E+03	3.104761E-03	6.042266E-05
5.900498E+03	3.086226E-03	5.996201E-05
5.910448E+03	3.065877E-03	5.946995E-05
5.920398E+03	3.043780E-03	5.894788E-05
5.930348E+03	3.019795E-03	5.839322E-05
5.940299E+03	2.994001E-03	5.780761E-05
5.950249E+03	2.966554E-03	5.719417E-05
5.960199E+03	2.937971E-03	5.656294E-05
5.970149E+03	2.908951E-03	5.592737E-05
5.980100E+03	2.880275E-03	5.530245E-05
5.990050E+03	2.852819E-03	5.470488E-05
6.000000E+03	2.827323E-03	5.414869E-05
6.009950E+03	2.804583E-03	5.364893E-05
6.019900E+03	2.785102E-03	5.321495E-05
6.029851E+03	2.769330E-03	5.285512E-05
6.039801E+03	2.757267E-03	5.256914E-05
6.049751E+03	2.748583E-03	5.235052E-05
6.059701E+03	2.742363E-03	5.218162E-05
6.069652E+03	2.737265E-03	5.203682E-05
6.079602E+03	2.731517E-03	5.188238E-05
6.089552E+03	2.723158E-03	5.168116E-05
6.099502E+03	2.710194E-03	5.139542E-05
6.109453E+03	2.690945E-03	5.099353E-05
6.119403E+03	2.664233E-03	5.045342E-05
6.129353E+03	2.629360E-03	4.976208E-05
6.139303E+03	2.585910E-03	4.891187E-05
6.149254E+03	2.533535E-03	4.789635E-05
6.159204E+03	2.471295E-03	4.669791E-05
6.169154E+03	2.397218E-03	4.527940E-05
6.179104E+03	2.308062E-03	4.357967E-05
6.189055E+03	2.199751E-03	4.152184E-05
6.199005E+03	2.069013E-03	3.904417E-05
6.208955E+03	1.916430E-03	3.615760E-05
6.218905E+03	1.750122E-03	3.301505E-05
6.228856E+03	1.584129E-03	2.988092E-05
6.238806E+03	1.431433E-03	2.699954E-05
6.248756E+03	1.300584E-03	2.453170E-05
6.258706E+03	1.195776E-03	2.255611E-05
6.268657E+03	1.118183E-03	2.109471E-05
6.278607E+03	1.067131E-03	2.013469E-05
6.288557E+03	1.041317E-03	1.965155E-05
6.298507E+03	1.039367E-03	1.961952E-05
6.308458E+03	1.060281E-03	2.002008E-05
6.318408E+03	1.103500E-03	2.084302E-05
6.328358E+03	1.168804E-03	2.208470E-05
6.338308E+03	1.256056E-03	2.374313E-05
6.348259E+03	1.364821E-03	2.581076E-05
6.358209E+03	1.493976E-03	2.826713E-05
6.368159E+03	1.641403E-03	3.107293E-05
6.378109E+03	1.803661E-03	3.416385E-05
6.388060E+03	1.976163E-03	3.745370E-05
6.398010E+03	2.153390E-03	4.083849E-05
6.407960E+03	2.329572E-03	4.420918E-05
6.417910E+03	2.499400E-03	4.746521E-05
6.427861E+03	2.658666E-03	5.052663E-05
6.437811E+03	2.804515E-03	5.333893E-05
6.447761E+03	2.935587E-03	5.587587E-05
6.457711E+03	3.051728E-03	5.813400E-05
6.467662E+03	3.153505E-03	6.012360E-05
6.477612E+03	3.242088E-03	6.186642E-05
6.487562E+03	3.318753E-03	6.338623E-05
6.497512E+03	3.384776E-03	6.470690E-05
6.507463E+03	3.441571E-03	6.585495E-05
6.517413E+03	3.490333E-03	6.685283E-05
6.527363E+03	3.532131E-03	6.772061E-05
6.537313E+03	3.568011E-03	6.847794E-05
6.547264E+03	3.598539E-03	6.913538E-05
6.557214E+03	3.623943E-03	6.969700E-05
6.567164E+03	3.644064E-03	7.015940E-05
6.577114E+03	3.658145E-03	7.050762E-05
6.587065E+03	3.665254E-03	7.072332E-05
6.597015E+03	3.664537E-03	7.078950E-05
6.606965E+03	3.655131E-03	7.068891E-05
6.616915E+03	3.636788E-03	7.041612E-05
6.626866E+03	3.609950E-03	6.997908E-05
6.636816E+03	3.575594E-03	6.939607E-05
6.646766E+03	3.535248E-03	6.869622E-05
6.656716E+03	3.490734E-03	6.791450E-05
6.666667E+03	3.443634E-03	6.708132E-05
6.676617E+03	3.395351E-03	6.622382E-05
6.686567E+03	3.346960E-03	6.536283E-05
6.696517E+03	3.298848E-03	6.450586E-05
6.706468E+03	3.251123E-03	6.365499E-05
6.716418E+03	3.203673E-03	6.280798E-05
6.726368E+03	3.156147E-03	6.195792E-05
6.736318E+03	3.108244E-03	6.109882E-05
6.746269E+03	3.059763E-03	6.022666E-05
6.756219E+03	3.010662E-03	5.934051E-05
6.766169E+03	2.961013E-03	5.844169E-05
6.776119E+03	2.911126E-03	5.753625E-05
6.786070E+03	2.861327E-03	5.663057E-05
6.796020E+03	2.811883E-03	5.572992E-05
6.805970E+03	2.763097E-03	5.484029E-05
6.815920E+03	2.715064E-03	5.396359E-05
6.825871E+03	2.667832E-03	5.310080E-05
6.835821E+03	2.621404E-03	5.225203E-05
6.845771E+03	2.575774E-03	5.141716E-05
6.855721E+03	2.531199E-03	5.060141E-05
6.865672E+03	2.487983E-03	4.981089E-05
6.875622E+03	2.446640E-03	4.905601E-05
6.885572E+03	2.407959E-03	4.835276E-05
6.895522E+03	2.372721E-03	4.771707E-05
6.905473E+03	2.341712E-03	4.716505E-05
6.915423E+03	2.315575E-03	4.671003E-05
6.925373E+03	2.294545E-03	4.635724E-05
6.935323E+03	2.278495E-03	4.610455E-05
6.945274E+03	2.266863E-03	4.594103E-05
6.955224E+03	2.258696E-03	4.584779E-05
6.965174E+03	2.252730E-03	4.579943E-05
6.975124E+03	2.247724E-03	4.577095E-05
6.985075E+03	2.242348E-03	4.573528E-05
6.995025E+03	2.235613E-03	4.567220E-05
7.004975E+03	2.226940E-03	4.556976E-05
7.014925E+03	2.216066E-03	4.542237E-05
7.024876E+03	2.203122E-03	4.523249E-05
7.034826E+03	2.188495E-03	4.500789E-05
7.044776E+03	2.172711E-03	4.475923E-05
7.054726E+03	2.156363E-03	4.449861E-05
7.064677E+03	2.139850E-03	4.423425E-05
7.074627E+03	2.123539E-03	4.397373E-05
7.084577E+03	2.107704E-03	4.372274E-05
7.094527E+03	2.092455E-03	4.348361E-05
7.104478E+03	2.077776E-03	4.325611E-05
7.114428E+03	2.063706E-03	4.304110E-05
7.124378E+03	2.050164E-03	4.283696E-05
7.134328E+03	2.037263E-03	4.264614E-05
7.144279E+03	2.025017E-03	4.246898E-05
7.154229E+03	2.013478E-03	4.230669E-05
7.164179E+03	2.002626E-03	4.215893E-05
7.174129E+03	1.992497E-03	4.202656E-05
7.184080E+03	1.982877E-03	4.190512E-05
7.194030E+03	1.973590E-03	4.179099E-05
7.203980E+03	1.964323E-03	4.167758E-05
7.213930E+03	1.954832E-03	4.155971E-05
7.223881E+03	1.944831E-03	4.143126E-05
7.233831E+03	1.934167E-03	4.128891E-05
7.243781E+03	1.922853E-03	4.113288E-05
7.253731E+03	1.910962E-03	4.096462E-05
7.263682E+03	1.898774E-03	4.079010E-05
7.273632E+03	1.886544E-03	4.061477E-05
7.283582E+03	1.874699E-03	4.044782E-05
7.293532E+03	1.863667E-03	4.029857E-05
7.303483E+03	1.853711E-03	4.017288E-05
7.313433E+03	1.845144E-03	4.007765E-05
7.323383E+03	1.838097E-03	4.001598E-05
7.333333E+03	1.832665E-03	3.999019E-05
7.343284E+03	1.828734E-03	3.999801E-05
7.353234E+03	1.826087E-03	4.003497E-05
7.363184E+03	1.824369E-03	4.009347E-05
7.373134E+03	1.823062E-03	4.016226E-05
7.383085E+03	1.821593E-03	4.022881E-05
7.393035E+03	1.819349E-03	4.027950E-05
7.402985E+03	1.815731E-03	4.030097E-05
7.412935E+03	1.810262E-03	4.028236E-05
7.422886E+03	1.802501E-03	4.021357E-05
7.432836E+03	1.792275E-03	4.009029E-05
7.442786E+03	1.779463E-03	3.990940E-05
7.452736E+03	1.764058E-03	3.967028E-05
7.462687E+03	1.746144E-03	3.937431E-05
7.472637E+03	1.725872E-03	3.902434E-05
7.482587E+03	1.703532E-03	3.862647E-05
7.492537E+03	1.679335E-03	3.818500E-05
7.502488E+03	1.653728E-03	3.770966E-05
7.512438E+03	1.627285E-03	3.721324E-05
7.522388E+03	1.600840E-03	3.671462E-05
7.532338E+03	1.575373E-03	3.623620E-05
7.542289E+03	1.552213E-03	3.580881E-05
7.552239E+03	1.532832E-03	3.546687E-05
7.562189E+03	1.518817E-03	3.524792E-05
7.572139E+03	1.511571E-03	3.518568E-05
7.582090E+03	1.511967E-03	3.530191E-05
7.592040E+03	1.519091E-03	3.557683E-05
7.601990E+03	1.531279E-03	3.597274E-05
7.611940E+03	1.546964E-03	3.645385E-05
7.621891E+03	1.564648E-03	3.698549E-05
7.631841E+03	1.583128E-03	3.753962E-05
7.641791E+03	1.601499E-03	3.809485E-05
7.651741E+03	1.619138E-03	3.863633E-05
7.661692E+03	1.635671E-03	3.915496E-05
7.671642E+03	1.650970E-03	3.964738E-05
7.681592E+03	1.664942E-03	4.011108E-05
7.691542E+03	1.677774E-03	4.055029E-05
7.701493E+03	1.689624E-03	4.096855E-05
7.711443E+03	1.700751E-03	4.137193E-05
7.721393E+03	1.711445E-03	4.176733E-05
