#wls	flux	fluxerr
1.592040E+03	4.360216E-04	1.517383E-08
1.631841E+03	4.407091E-04	1.533696E-08
1.671642E+03	4.449608E-04	1.548492E-08
1.711443E+03	4.487680E-04	1.561741E-08
1.751244E+03	4.520350E-04	1.573110E-08
1.791045E+03	4.546655E-04	1.582264E-08
1.830846E+03	4.564620E-04	1.588516E-08
1.870647E+03	4.573893E-04	1.591743E-08
1.910448E+03	4.571423E-04	1.590883E-08
1.950249E+03	4.556431E-04	1.585666E-08
1.990050E+03	4.529547E-04	1.576310E-08
2.029851E+03	4.494470E-04	1.564103E-08
2.069652E+03	4.458362E-04	1.551537E-08
2.109453E+03	4.434781E-04	1.543330E-08
2.149254E+03	4.435969E-04	1.543743E-08
2.189055E+03	4.467186E-04	1.554607E-08
2.228856E+03	4.525846E-04	1.575021E-08
2.268657E+03	4.605323E-04	1.602679E-08
2.308458E+03	4.698420E-04	1.635077E-08
2.348259E+03	4.801005E-04	1.670777E-08
2.388060E+03	4.913085E-04	1.709781E-08
2.427861E+03	5.034921E-04	1.752180E-08
2.467662E+03	5.170130E-04	1.799234E-08
2.507463E+03	5.320751E-04	1.851651E-08
2.547264E+03	5.492255E-04	1.911334E-08
2.587065E+03	5.687130E-04	1.979152E-08
2.626866E+03	5.908174E-04	2.056076E-08
2.666667E+03	6.157613E-04	2.142882E-08
2.706468E+03	6.437767E-04	2.240377E-08
2.746269E+03	6.749820E-04	2.348972E-08
2.786070E+03	7.092280E-04	2.468150E-08
2.825871E+03	7.466067E-04	2.598229E-08
2.865672E+03	7.870538E-04	2.738987E-08
2.905473E+03	8.306971E-04	2.890867E-08
2.945274E+03	8.778418E-04	3.054933E-08
2.985075E+03	9.290622E-04	3.233182E-08
2.995025E+03	9.426311E-04	3.280402E-08
3.004975E+03	9.564734E-04	3.328574E-08
3.014925E+03	9.706466E-04	3.377897E-08
3.024876E+03	9.852136E-04	3.428591E-08
3.034826E+03	1.000199E-03	3.480742E-08
3.044776E+03	1.015582E-03	3.534275E-08
3.054726E+03	1.031422E-03	3.589400E-08
3.064677E+03	1.047732E-03	3.646159E-08
3.074627E+03	1.064527E-03	3.704605E-08
3.084577E+03	1.081872E-03	3.764965E-08
3.094527E+03	1.099735E-03	3.827131E-08
3.104478E+03	1.118237E-03	3.891518E-08
3.114428E+03	1.137301E-03	3.957861E-08
3.124378E+03	1.157100E-03	4.026764E-08
3.134328E+03	1.177513E-03	4.097799E-08
3.144279E+03	1.198718E-03	4.171594E-08
3.154229E+03	1.220697E-03	4.248084E-08
3.164179E+03	1.243537E-03	4.327567E-08
3.174129E+03	1.267224E-03	4.409999E-08
3.184080E+03	1.291850E-03	4.495697E-08
3.194030E+03	1.317508E-03	4.584990E-08
3.203980E+03	1.344196E-03	4.677865E-08
3.213930E+03	1.372015E-03	4.774676E-08
3.223881E+03	1.401071E-03	4.875793E-08
3.233831E+03	1.431423E-03	4.981418E-08
3.243781E+03	1.463078E-03	5.091580E-08
3.253731E+03	1.496209E-03	5.206876E-08
3.263682E+03	1.530885E-03	5.327549E-08
3.273632E+03	1.567125E-03	5.453667E-08
3.283582E+03	1.605115E-03	5.585875E-08
3.293532E+03	1.644938E-03	5.724461E-08
3.303483E+03	1.686736E-03	5.869917E-08
3.313433E+03	1.730543E-03	6.022369E-08
3.323383E+03	1.776454E-03	6.182139E-08
3.333333E+03	1.824738E-03	6.350172E-08
3.343284E+03	1.875388E-03	6.526435E-08
3.353234E+03	1.928573E-03	6.711520E-08
3.363184E+03	1.984412E-03	6.905841E-08
3.373134E+03	2.043094E-03	7.110059E-08
3.383085E+03	2.104826E-03	7.324888E-08
3.393035E+03	2.169646E-03	7.550465E-08
3.402985E+03	2.237861E-03	7.787856E-08
3.412935E+03	2.309681E-03	8.037793E-08
3.416915E+03	1.735716E-03	6.040368E-08
3.418905E+03	1.734667E-03	6.036717E-08
3.420896E+03	1.762979E-03	6.135244E-08
3.422886E+03	1.776046E-03	6.180717E-08
3.424876E+03	1.773541E-03	6.172002E-08
3.426866E+03	1.791640E-03	6.234984E-08
3.428856E+03	1.809704E-03	6.297850E-08
3.430846E+03	1.860705E-03	6.475336E-08
3.432836E+03	1.917145E-03	6.671747E-08
3.434826E+03	1.924111E-03	6.695990E-08
3.436816E+03	1.976489E-03	6.878268E-08
3.438806E+03	2.021108E-03	7.033543E-08
3.440796E+03	2.060106E-03	7.169259E-08
3.442786E+03	2.094609E-03	7.289332E-08
3.444776E+03	2.154496E-03	7.497740E-08
3.446766E+03	2.201700E-03	7.662011E-08
3.448756E+03	2.256646E-03	7.853225E-08
3.450746E+03	2.290724E-03	7.971820E-08
3.452736E+03	2.350554E-03	8.180030E-08
3.454726E+03	2.464609E-03	8.576946E-08
3.456716E+03	2.526506E-03	8.792352E-08
3.458706E+03	2.592523E-03	9.022093E-08
3.460697E+03	2.665738E-03	9.276883E-08
3.462687E+03	2.699289E-03	9.393644E-08
3.464677E+03	2.709438E-03	9.428961E-08
3.466667E+03	2.707357E-03	9.421719E-08
3.468657E+03	2.747963E-03	9.563030E-08
3.470647E+03	2.771592E-03	9.645260E-08
3.472637E+03	2.813758E-03	9.792000E-08
3.474627E+03	2.808073E-03	9.772214E-08
3.476617E+03	2.806440E-03	9.766532E-08
3.478607E+03	2.792876E-03	9.719329E-08
3.480597E+03	2.739346E-03	9.533042E-08
3.482587E+03	2.735918E-03	9.521112E-08
3.484577E+03	2.737590E-03	9.526931E-08
3.486567E+03	2.724324E-03	9.480766E-08
3.488557E+03	2.721562E-03	9.471154E-08
3.490547E+03	2.718436E-03	9.460276E-08
3.492537E+03	2.669041E-03	9.288379E-08
3.494527E+03	2.640357E-03	9.188554E-08
3.496517E+03	2.645900E-03	9.207845E-08
3.498507E+03	2.647978E-03	9.215076E-08
3.500498E+03	2.660444E-03	9.258458E-08
3.502488E+03	2.672321E-03	9.299792E-08
3.504478E+03	2.666061E-03	9.278006E-08
3.506468E+03	2.683354E-03	9.338188E-08
3.508458E+03	2.675878E-03	9.312171E-08
3.510448E+03	2.670909E-03	9.294878E-08
3.512438E+03	2.655942E-03	9.242792E-08
3.514428E+03	2.637030E-03	9.176978E-08
3.516418E+03	2.625588E-03	9.137159E-08
3.518408E+03	2.624520E-03	9.133443E-08
3.520398E+03	2.611155E-03	9.086932E-08
3.522388E+03	2.597098E-03	9.038012E-08
3.524378E+03	2.564361E-03	8.924086E-08
3.526368E+03	2.527512E-03	8.795849E-08
3.528358E+03	2.505108E-03	8.717884E-08
3.530348E+03	2.492863E-03	8.675268E-08
3.532338E+03	2.492218E-03	8.673023E-08
3.534328E+03	2.495225E-03	8.683488E-08
3.536318E+03	2.501706E-03	8.706043E-08
3.538308E+03	2.487953E-03	8.658181E-08
3.540299E+03	2.492093E-03	8.672589E-08
3.542289E+03	2.543192E-03	8.850417E-08
3.544279E+03	2.566880E-03	8.932851E-08
3.546269E+03	2.575080E-03	8.961388E-08
3.548259E+03	2.576211E-03	8.965325E-08
3.550249E+03	2.560801E-03	8.911697E-08
3.552239E+03	2.542135E-03	8.846736E-08
3.554229E+03	2.547495E-03	8.865389E-08
3.556219E+03	2.576252E-03	8.965466E-08
3.558209E+03	2.589832E-03	9.012726E-08
3.560199E+03	2.581954E-03	8.985309E-08
3.562189E+03	2.594570E-03	9.029214E-08
3.564179E+03	2.603333E-03	9.059710E-08
3.566169E+03	2.614431E-03	9.098331E-08
3.568159E+03	2.617219E-03	9.108032E-08
3.570149E+03	2.618197E-03	9.111437E-08
3.572139E+03	2.599037E-03	9.044760E-08
3.574129E+03	2.593418E-03	9.025203E-08
3.576119E+03	2.591503E-03	9.018539E-08
3.578109E+03	2.621800E-03	9.123975E-08
3.580100E+03	2.633955E-03	9.166275E-08
3.582090E+03	2.612612E-03	9.092001E-08
3.584080E+03	2.608330E-03	9.077100E-08
3.586070E+03	2.581324E-03	8.983115E-08
3.588060E+03	2.547834E-03	8.866569E-08
3.590050E+03	2.542680E-03	8.848633E-08
3.592040E+03	2.534612E-03	8.820556E-08
3.594030E+03	2.541734E-03	8.845341E-08
3.596020E+03	2.535753E-03	8.824526E-08
3.598010E+03	2.529323E-03	8.802148E-08
3.600000E+03	2.523076E-03	8.780411E-08
3.601990E+03	2.540208E-03	8.840031E-08
3.603980E+03	2.525067E-03	8.787339E-08
3.605970E+03	2.538865E-03	8.835357E-08
3.607960E+03	2.534537E-03	8.820294E-08
3.609950E+03	2.508591E-03	8.730002E-08
3.611940E+03	2.494219E-03	8.679988E-08
3.613930E+03	2.503843E-03	8.713478E-08
3.615920E+03	2.546025E-03	8.860272E-08
3.617910E+03	2.542155E-03	8.846806E-08
3.619900E+03	2.544752E-03	8.855842E-08
3.621891E+03	2.527361E-03	8.795321E-08
3.623881E+03	2.504043E-03	8.714173E-08
3.625871E+03	2.486275E-03	8.652339E-08
3.627861E+03	2.466295E-03	8.582808E-08
3.629851E+03	2.455160E-03	8.544059E-08
3.631841E+03	2.440791E-03	8.494056E-08
3.633831E+03	2.413451E-03	8.398911E-08
3.635821E+03	2.412765E-03	8.396522E-08
3.637811E+03	2.416149E-03	8.408298E-08
3.639801E+03	2.399709E-03	8.351087E-08
3.641791E+03	2.417968E-03	8.414629E-08
3.643781E+03	2.440018E-03	8.491362E-08
3.645771E+03	2.445010E-03	8.508734E-08
3.647761E+03	2.463241E-03	8.572182E-08
3.649751E+03	2.484236E-03	8.645244E-08
3.651741E+03	2.521707E-03	8.775643E-08
3.653731E+03	2.553594E-03	8.886612E-08
3.655721E+03	2.567257E-03	8.934161E-08
3.657711E+03	2.593390E-03	9.025105E-08
3.659701E+03	2.625703E-03	9.137556E-08
3.661692E+03	2.672567E-03	9.300642E-08
3.663682E+03	2.711225E-03	9.435176E-08
3.665672E+03	2.735054E-03	9.518100E-08
3.667662E+03	2.757753E-03	9.597093E-08
3.669652E+03	2.784558E-03	9.690378E-08
3.671642E+03	2.814303E-03	9.793889E-08
3.673632E+03	2.865104E-03	9.970681E-08
3.675622E+03	2.922902E-03	1.017182E-07
3.677612E+03	2.999483E-03	1.043832E-07
3.679602E+03	3.070749E-03	1.068633E-07
3.681592E+03	3.157765E-03	1.098915E-07
3.683582E+03	3.245015E-03	1.129278E-07
3.685572E+03	3.340287E-03	1.162434E-07
3.687562E+03	3.447898E-03	1.199883E-07
3.689552E+03	3.551288E-03	1.235863E-07
3.691542E+03	3.646871E-03	1.269126E-07
3.693532E+03	3.730650E-03	1.298282E-07
3.695522E+03	3.801796E-03	1.323041E-07
3.697512E+03	3.889875E-03	1.353692E-07
3.699502E+03	3.980850E-03	1.385352E-07
3.701493E+03	4.072073E-03	1.417098E-07
3.703483E+03	4.165666E-03	1.449669E-07
3.705473E+03	4.241526E-03	1.476068E-07
3.707463E+03	4.319734E-03	1.503285E-07
3.709453E+03	4.391156E-03	1.528140E-07
3.711443E+03	4.441338E-03	1.545604E-07
3.713433E+03	4.486539E-03	1.561334E-07
3.715423E+03	4.513548E-03	1.570733E-07
3.717413E+03	4.516222E-03	1.571664E-07
3.719403E+03	4.487437E-03	1.561646E-07
3.721393E+03	4.487879E-03	1.561800E-07
3.723383E+03	4.470380E-03	1.555710E-07
3.725373E+03	4.452576E-03	1.549514E-07
3.727363E+03	4.396891E-03	1.530136E-07
3.729353E+03	4.316016E-03	1.501991E-07
3.731343E+03	4.234919E-03	1.473769E-07
3.733333E+03	4.142315E-03	1.441542E-07
3.735323E+03	4.038440E-03	1.405393E-07
3.737313E+03	3.938759E-03	1.370704E-07
3.739303E+03	3.836240E-03	1.335027E-07
3.741294E+03	3.734942E-03	1.299775E-07
3.743284E+03	3.613756E-03	1.257602E-07
3.745274E+03	3.487097E-03	1.213524E-07
3.747264E+03	3.338759E-03	1.161902E-07
3.749254E+03	3.211233E-03	1.117522E-07
3.751244E+03	3.086860E-03	1.074240E-07
3.753234E+03	2.946819E-03	1.025505E-07
3.755224E+03	2.811960E-03	9.785734E-08
3.757214E+03	2.675805E-03	9.311910E-08
3.759204E+03	2.543277E-03	8.850707E-08
3.761194E+03	2.432608E-03	8.465575E-08
3.763184E+03	2.338242E-03	8.137175E-08
3.765174E+03	2.226456E-03	7.748157E-08
3.767164E+03	2.112315E-03	7.350940E-08
3.769154E+03	2.013623E-03	7.007490E-08
3.771144E+03	1.912942E-03	6.657115E-08
3.773134E+03	1.824393E-03	6.348961E-08
3.775124E+03	1.750565E-03	6.092037E-08
3.777114E+03	1.689639E-03	5.880012E-08
3.779104E+03	1.653752E-03	5.755122E-08
3.781095E+03	1.618967E-03	5.634071E-08
3.783085E+03	1.585844E-03	5.518799E-08
3.785075E+03	1.543846E-03	5.372645E-08
3.787065E+03	1.521336E-03	5.294308E-08
3.789055E+03	1.505172E-03	5.238057E-08
3.791045E+03	1.475689E-03	5.135457E-08
3.793035E+03	1.468148E-03	5.109212E-08
3.795025E+03	1.496971E-03	5.209517E-08
3.797015E+03	1.537014E-03	5.348871E-08
3.799005E+03	1.567572E-03	5.455213E-08
3.800995E+03	1.594976E-03	5.550581E-08
3.802985E+03	1.635383E-03	5.691196E-08
3.804975E+03	1.669637E-03	5.810401E-08
3.806965E+03	1.711323E-03	5.955472E-08
3.808955E+03	1.746566E-03	6.078120E-08
3.810945E+03	1.762979E-03	6.135236E-08
3.812935E+03	1.777103E-03	6.184389E-08
3.814925E+03	1.797100E-03	6.253978E-08
3.816915E+03	1.832996E-03	6.378898E-08
3.818905E+03	1.871929E-03	6.514388E-08
3.820896E+03	1.894131E-03	6.591650E-08
3.822886E+03	1.915104E-03	6.664638E-08
3.824876E+03	1.941500E-03	6.756495E-08
3.826866E+03	1.979142E-03	6.887492E-08
3.828856E+03	2.032961E-03	7.074783E-08
3.830846E+03	2.070418E-03	7.205136E-08
3.832836E+03	2.107241E-03	7.333280E-08
3.834826E+03	2.132612E-03	7.421574E-08
3.836816E+03	2.168575E-03	7.546727E-08
3.838806E+03	2.205395E-03	7.674862E-08
3.840796E+03	2.228730E-03	7.756068E-08
3.842786E+03	2.278044E-03	7.927683E-08
3.844776E+03	2.353346E-03	8.189736E-08
3.846766E+03	2.416417E-03	8.409226E-08
3.848756E+03	2.483774E-03	8.643629E-08
3.850746E+03	2.535844E-03	8.824836E-08
3.852736E+03	2.588308E-03	9.007411E-08
3.854726E+03	2.651803E-03	9.228379E-08
3.856716E+03	2.699670E-03	9.394956E-08
3.858706E+03	2.723790E-03	9.478895E-08
3.860697E+03	2.772330E-03	9.647815E-08
3.862687E+03	2.847242E-03	9.908512E-08
3.864677E+03	2.917176E-03	1.015189E-07
3.866667E+03	3.001502E-03	1.044534E-07
3.868657E+03	3.091357E-03	1.075804E-07
3.870647E+03	3.171973E-03	1.103859E-07
3.872637E+03	3.263129E-03	1.135581E-07
3.874627E+03	3.371102E-03	1.173157E-07
3.876617E+03	3.504089E-03	1.219437E-07
3.878607E+03	3.652196E-03	1.270978E-07
3.880597E+03	3.799585E-03	1.322270E-07
3.882587E+03	3.947714E-03	1.373820E-07
3.884577E+03	4.108921E-03	1.429920E-07
3.886567E+03	4.284781E-03	1.491120E-07
3.888557E+03	4.469928E-03	1.555552E-07
3.890547E+03	4.651715E-03	1.618815E-07
3.892537E+03	4.846854E-03	1.686724E-07
3.894527E+03	5.066015E-03	1.762993E-07
3.896517E+03	5.290038E-03	1.840953E-07
3.898507E+03	5.529145E-03	1.924164E-07
3.900498E+03	5.755051E-03	2.002780E-07
3.902488E+03	6.009272E-03	2.091250E-07
3.904478E+03	6.252872E-03	2.176023E-07
3.906468E+03	6.490836E-03	2.258836E-07
3.908458E+03	6.745029E-03	2.347296E-07
3.910448E+03	6.989969E-03	2.432536E-07
3.912438E+03	7.213849E-03	2.510447E-07
3.914428E+03	7.432843E-03	2.586658E-07
3.916418E+03	7.637951E-03	2.658036E-07
3.918408E+03	7.835296E-03	2.726713E-07
3.920398E+03	8.039733E-03	2.797858E-07
3.922388E+03	8.215538E-03	2.859038E-07
3.924378E+03	8.378278E-03	2.915673E-07
3.926368E+03	8.515223E-03	2.963330E-07
3.928358E+03	8.633770E-03	3.004585E-07
3.930348E+03	8.739083E-03	3.041234E-07
3.932338E+03	8.836371E-03	3.075091E-07
3.934328E+03	8.927850E-03	3.106926E-07
3.936318E+03	9.003000E-03	3.133078E-07
3.938308E+03	9.084296E-03	3.161369E-07
3.940299E+03	9.148463E-03	3.183700E-07
3.942289E+03	9.216503E-03	3.207378E-07
3.944279E+03	9.268854E-03	3.225596E-07
3.946269E+03	9.303204E-03	3.237550E-07
3.948259E+03	9.324781E-03	3.245059E-07
3.950249E+03	9.326747E-03	3.245743E-07
3.952239E+03	9.309797E-03	3.239845E-07
3.954229E+03	9.305667E-03	3.238407E-07
3.956219E+03	9.273475E-03	3.227204E-07
3.958209E+03	9.241199E-03	3.215972E-07
3.960199E+03	9.201250E-03	3.202070E-07
3.962189E+03	9.159682E-03	3.187604E-07
3.964179E+03	9.129424E-03	3.177074E-07
3.966169E+03	9.079284E-03	3.159625E-07
3.968159E+03	9.014549E-03	3.137097E-07
3.970149E+03	8.961868E-03	3.118764E-07
3.972139E+03	8.918232E-03	3.103578E-07
3.974129E+03	8.889013E-03	3.093410E-07
3.976119E+03	8.870435E-03	3.086945E-07
3.978109E+03	8.841844E-03	3.076995E-07
3.980100E+03	8.808573E-03	3.065416E-07
3.982090E+03	8.785962E-03	3.057548E-07
3.984080E+03	8.788651E-03	3.058483E-07
3.986070E+03	8.794403E-03	3.060485E-07
3.988060E+03	8.810926E-03	3.066235E-07
3.990050E+03	8.835944E-03	3.074942E-07
3.992040E+03	8.867165E-03	3.085806E-07
3.994030E+03	8.877578E-03	3.089430E-07
3.996020E+03	8.904223E-03	3.098703E-07
3.998010E+03	8.930906E-03	3.107989E-07
4.000000E+03	8.952202E-03	3.115400E-07
4.001990E+03	8.981274E-03	3.125517E-07
4.003980E+03	8.987871E-03	3.127813E-07
4.005970E+03	8.996798E-03	3.130919E-07
4.007960E+03	9.033715E-03	3.143766E-07
4.009950E+03	9.058231E-03	3.152298E-07
4.011940E+03	9.046933E-03	3.148366E-07
4.013930E+03	9.026230E-03	3.141162E-07
4.015920E+03	8.977354E-03	3.124152E-07
4.017910E+03	8.917423E-03	3.103296E-07
4.019900E+03	8.870654E-03	3.087021E-07
4.021891E+03	8.829250E-03	3.072612E-07
4.023881E+03	8.776772E-03	3.054349E-07
4.025871E+03	8.692785E-03	3.025122E-07
4.027861E+03	8.586623E-03	2.988176E-07
4.029851E+03	8.476302E-03	2.949784E-07
4.031841E+03	8.364958E-03	2.911036E-07
4.033831E+03	8.251009E-03	2.871382E-07
4.035821E+03	8.139190E-03	2.832468E-07
4.037811E+03	8.027920E-03	2.793746E-07
4.039801E+03	7.921153E-03	2.756591E-07
4.041791E+03	7.786565E-03	2.709753E-07
4.043781E+03	7.669742E-03	2.669098E-07
4.045771E+03	7.568598E-03	2.633900E-07
4.047761E+03	7.436473E-03	2.587920E-07
4.049751E+03	7.310344E-03	2.544027E-07
4.051741E+03	7.184826E-03	2.500346E-07
4.053731E+03	7.056344E-03	2.455634E-07
4.055721E+03	6.934131E-03	2.413103E-07
4.057711E+03	6.797000E-03	2.365381E-07
4.059701E+03	6.644917E-03	2.312455E-07
4.061692E+03	6.493003E-03	2.259589E-07
4.063682E+03	6.352850E-03	2.210815E-07
4.065672E+03	6.221530E-03	2.165115E-07
4.067662E+03	6.095792E-03	2.121358E-07
4.069652E+03	5.938387E-03	2.066580E-07
4.071642E+03	5.792859E-03	2.015936E-07
4.073632E+03	5.650174E-03	1.966281E-07
4.075622E+03	5.518937E-03	1.920610E-07
4.077612E+03	5.387761E-03	1.874960E-07
4.079602E+03	5.285716E-03	1.839449E-07
4.081592E+03	5.191521E-03	1.806668E-07
4.083582E+03	5.102865E-03	1.775816E-07
4.085572E+03	5.032195E-03	1.751222E-07
4.087562E+03	4.959763E-03	1.726016E-07
4.089552E+03	4.885809E-03	1.700279E-07
4.091542E+03	4.829432E-03	1.680660E-07
4.093532E+03	4.780400E-03	1.663596E-07
4.095522E+03	4.729714E-03	1.645958E-07
4.097512E+03	4.701660E-03	1.636195E-07
4.099502E+03	4.669964E-03	1.625165E-07
4.101493E+03	4.644541E-03	1.616317E-07
4.103483E+03	4.616453E-03	1.606542E-07
4.105473E+03	4.611037E-03	1.604657E-07
4.107463E+03	4.587568E-03	1.596490E-07
4.109453E+03	4.567148E-03	1.589384E-07
4.111443E+03	4.560160E-03	1.586952E-07
4.113433E+03	4.535070E-03	1.578221E-07
4.115423E+03	4.496906E-03	1.564940E-07
4.117413E+03	4.463085E-03	1.553170E-07
4.119403E+03	4.427878E-03	1.540918E-07
4.121393E+03	4.409997E-03	1.534695E-07
4.123383E+03	4.388039E-03	1.527053E-07
4.125373E+03	4.350657E-03	1.514044E-07
4.127363E+03	4.313773E-03	1.501208E-07
4.129353E+03	4.310248E-03	1.499982E-07
4.131343E+03	4.308269E-03	1.499293E-07
4.133333E+03	4.302564E-03	1.497308E-07
4.135323E+03	4.299226E-03	1.496146E-07
4.137313E+03	4.301742E-03	1.497022E-07
4.139303E+03	4.320622E-03	1.503592E-07
4.141294E+03	4.333152E-03	1.507952E-07
4.143284E+03	4.360684E-03	1.517534E-07
4.145274E+03	4.396130E-03	1.529869E-07
4.147264E+03	4.434280E-03	1.543145E-07
4.149254E+03	4.470407E-03	1.555717E-07
4.151244E+03	4.490194E-03	1.562603E-07
4.153234E+03	4.516164E-03	1.571641E-07
4.155224E+03	4.546907E-03	1.582340E-07
4.157214E+03	4.575772E-03	1.592385E-07
4.159204E+03	4.614350E-03	1.605810E-07
4.161194E+03	4.640280E-03	1.614834E-07
4.163184E+03	4.654959E-03	1.619942E-07
4.165174E+03	4.698254E-03	1.635009E-07
4.167164E+03	4.753659E-03	1.654290E-07
4.169154E+03	4.791381E-03	1.667417E-07
4.171144E+03	4.828726E-03	1.680414E-07
4.173134E+03	4.878875E-03	1.697866E-07
4.175124E+03	4.934044E-03	1.717065E-07
4.177114E+03	4.980043E-03	1.733073E-07
4.179104E+03	5.030388E-03	1.750593E-07
4.181095E+03	5.084584E-03	1.769453E-07
4.183085E+03	5.139699E-03	1.788633E-07
4.185075E+03	5.195049E-03	1.807895E-07
4.187065E+03	5.246590E-03	1.825832E-07
4.189055E+03	5.282733E-03	1.838410E-07
4.191045E+03	5.342169E-03	1.859094E-07
4.193035E+03	5.379845E-03	1.872205E-07
4.195025E+03	5.404949E-03	1.880941E-07
4.197015E+03	5.446939E-03	1.895554E-07
4.199005E+03	5.498469E-03	1.913487E-07
4.200995E+03	5.528420E-03	1.923910E-07
4.202985E+03	5.544550E-03	1.929523E-07
4.204975E+03	5.552696E-03	1.932358E-07
4.206965E+03	5.552493E-03	1.932287E-07
4.208955E+03	5.560955E-03	1.935232E-07
4.210945E+03	5.580404E-03	1.942000E-07
4.212935E+03	5.587408E-03	1.944438E-07
4.214925E+03	5.596791E-03	1.947703E-07
4.216915E+03	5.588664E-03	1.944874E-07
4.218905E+03	5.577764E-03	1.941081E-07
4.220896E+03	5.561264E-03	1.935339E-07
4.222886E+03	5.555167E-03	1.933218E-07
4.224876E+03	5.550578E-03	1.931621E-07
4.226866E+03	5.553416E-03	1.932608E-07
4.228856E+03	5.547144E-03	1.930426E-07
4.230846E+03	5.550202E-03	1.931490E-07
4.232836E+03	5.547997E-03	1.930722E-07
4.234826E+03	5.522644E-03	1.921899E-07
4.236816E+03	5.494217E-03	1.912007E-07
4.238806E+03	5.498875E-03	1.913628E-07
4.240796E+03	5.493870E-03	1.911886E-07
4.242786E+03	5.475901E-03	1.905633E-07
4.244776E+03	5.469877E-03	1.903536E-07
4.246766E+03	5.459075E-03	1.899777E-07
4.248756E+03	5.475190E-03	1.905385E-07
4.250746E+03	5.506179E-03	1.916169E-07
4.252736E+03	5.530524E-03	1.924642E-07
4.254726E+03	5.557484E-03	1.934024E-07
4.256716E+03	5.573878E-03	1.939729E-07
4.258706E+03	5.577791E-03	1.941090E-07
4.260697E+03	5.570581E-03	1.938581E-07
4.262687E+03	5.564203E-03	1.936362E-07
4.264677E+03	5.577601E-03	1.941025E-07
4.266667E+03	5.602642E-03	1.949739E-07
4.268657E+03	5.627698E-03	1.958458E-07
4.270647E+03	5.642048E-03	1.963452E-07
4.272637E+03	5.665719E-03	1.971690E-07
4.274627E+03	5.708482E-03	1.986572E-07
4.276617E+03	5.765584E-03	2.006443E-07
