#wls	flux	fluxerr
1.592040E+03	1.197406E-04	8.158906E-06
1.631841E+03	1.203058E-04	8.166205E-06
1.671642E+03	1.207381E-04	8.163459E-06
1.711443E+03	1.210694E-04	8.152887E-06
1.751244E+03	1.212371E-04	8.130356E-06
1.791045E+03	1.212521E-04	8.096715E-06
1.830846E+03	1.210729E-04	8.049323E-06
1.870647E+03	1.206525E-04	7.985229E-06
1.910448E+03	1.199877E-04	7.904439E-06
1.950249E+03	1.190006E-04	7.802056E-06
1.990050E+03	1.177641E-04	7.683163E-06
2.029851E+03	1.163689E-04	7.553902E-06
2.069652E+03	1.150060E-04	7.426770E-06
2.109453E+03	1.140465E-04	7.325598E-06
2.149254E+03	1.137560E-04	7.266954E-06
2.189055E+03	1.142704E-04	7.258751E-06
2.228856E+03	1.154940E-04	7.294051E-06
2.268657E+03	1.172001E-04	7.357812E-06
2.308458E+03	1.192396E-04	7.440119E-06
2.348259E+03	1.214633E-04	7.531293E-06
2.388060E+03	1.238622E-04	7.630487E-06
2.427861E+03	1.264401E-04	7.737659E-06
2.467662E+03	1.292483E-04	7.855628E-06
2.507463E+03	1.323265E-04	7.986428E-06
2.547264E+03	1.357528E-04	8.134299E-06
2.587065E+03	1.395771E-04	8.301663E-06
2.626866E+03	1.438208E-04	8.489147E-06
2.666667E+03	1.485409E-04	8.699407E-06
2.706468E+03	1.537461E-04	8.932157E-06
2.746269E+03	1.594548E-04	9.187633E-06
2.786070E+03	1.656723E-04	9.465262E-06
2.825871E+03	1.723915E-04	9.763741E-06
2.865672E+03	1.795511E-04	1.007870E-05
2.905473E+03	1.871530E-04	1.040938E-05
2.945274E+03	1.951805E-04	1.075400E-05
2.985075E+03	2.036787E-04	1.111415E-05
2.995025E+03	2.058827E-04	1.120682E-05
3.004975E+03	2.081320E-04	1.130125E-05
3.014925E+03	2.104278E-04	1.139747E-05
3.024876E+03	2.127472E-04	1.149424E-05
3.034826E+03	2.150944E-04	1.159175E-05
3.044776E+03	2.175235E-04	1.169292E-05
3.054726E+03	2.199859E-04	1.179509E-05
3.064677E+03	2.225332E-04	1.190100E-05
3.074627E+03	2.251170E-04	1.200804E-05
3.084577E+03	2.277646E-04	1.211763E-05
3.094527E+03	2.304786E-04	1.222989E-05
3.104478E+03	2.332619E-04	1.234494E-05
3.114428E+03	2.361180E-04	1.246292E-05
3.124378E+03	2.390766E-04	1.258538E-05
3.134328E+03	2.420900E-04	1.270975E-05
3.144279E+03	2.452150E-04	1.283898E-05
3.154229E+03	2.484571E-04	1.297331E-05
3.164179E+03	2.517953E-04	1.311159E-05
3.174129E+03	2.552622E-04	1.325547E-05
3.184080E+03	2.588373E-04	1.340382E-05
3.194030E+03	2.625815E-04	1.355973E-05
3.203980E+03	2.664476E-04	1.372071E-05
3.213930E+03	2.704701E-04	1.388845E-05
3.223881E+03	2.746566E-04	1.406329E-05
3.233831E+03	2.790428E-04	1.424696E-05
3.243781E+03	2.836089E-04	1.443835E-05
3.253731E+03	2.883624E-04	1.463777E-05
3.263682E+03	2.933395E-04	1.484697E-05
3.273632E+03	2.985481E-04	1.506622E-05
3.283582E+03	3.039953E-04	1.529578E-05
3.293532E+03	3.096878E-04	1.553587E-05
3.303483E+03	3.156610E-04	1.578815E-05
3.313433E+03	3.218899E-04	1.605123E-05
3.323383E+03	3.283771E-04	1.632512E-05
3.333333E+03	3.351542E-04	1.661126E-05
3.343284E+03	3.422511E-04	1.691100E-05
3.353234E+03	3.496017E-04	1.722090E-05
3.363184E+03	3.572603E-04	1.754353E-05
3.373134E+03	3.651827E-04	1.787656E-05
3.383085E+03	3.734145E-04	1.822209E-05
3.393035E+03	3.818655E-04	1.857559E-05
3.402985E+03	3.905668E-04	1.893843E-05
3.412935E+03	3.994413E-04	1.930678E-05
3.422886E+03	4.084661E-04	1.967945E-05
3.432836E+03	4.175735E-04	2.005308E-05
3.442786E+03	4.266840E-04	2.042385E-05
3.452736E+03	4.357466E-04	2.078929E-05
3.462687E+03	4.446517E-04	2.114422E-05
3.472637E+03	4.533984E-04	2.148865E-05
3.482587E+03	4.619716E-04	2.182194E-05
3.492537E+03	4.703957E-04	2.214531E-05
3.502488E+03	4.786230E-04	2.245659E-05
3.512438E+03	4.866725E-04	2.275675E-05
3.522388E+03	4.945247E-04	2.304495E-05
3.532338E+03	5.021572E-04	2.332026E-05
3.542289E+03	5.095815E-04	2.358330E-05
3.552239E+03	5.167395E-04	2.383148E-05
3.562189E+03	5.236436E-04	2.406549E-05
3.572139E+03	5.302400E-04	2.428299E-05
3.582090E+03	5.365842E-04	2.448666E-05
3.592040E+03	5.426315E-04	2.467456E-05
3.601990E+03	5.483794E-04	2.484674E-05
3.611940E+03	5.538331E-04	2.500357E-05
3.621891E+03	5.590414E-04	2.514737E-05
3.631841E+03	5.639949E-04	2.527785E-05
3.641791E+03	5.687292E-04	2.539672E-05
3.651741E+03	5.733580E-04	2.550913E-05
3.661692E+03	5.778768E-04	2.561494E-05
3.671642E+03	5.823602E-04	2.571750E-05
3.681592E+03	5.869610E-04	2.582353E-05
3.691542E+03	5.917188E-04	2.593472E-05
3.701493E+03	5.967816E-04	2.605744E-05
3.711443E+03	6.022489E-04	2.619587E-05
3.721393E+03	6.082937E-04	2.635730E-05
3.731343E+03	6.150674E-04	2.654797E-05
3.741294E+03	6.227287E-04	2.677433E-05
3.751244E+03	6.314117E-04	2.704168E-05
3.761194E+03	6.413119E-04	2.735783E-05
3.771144E+03	6.525612E-04	2.772777E-05
3.781095E+03	6.653428E-04	2.815857E-05
3.791045E+03	6.797691E-04	2.865416E-05
3.800995E+03	6.959620E-04	2.921885E-05
3.810945E+03	7.140175E-04	2.985571E-05
3.820896E+03	7.339983E-04	3.056641E-05
3.830846E+03	7.559265E-04	3.135087E-05
3.840796E+03	7.797451E-04	3.220572E-05
3.850746E+03	8.054307E-04	3.312902E-05
3.860697E+03	8.327451E-04	3.411004E-05
3.870647E+03	8.615337E-04	3.514162E-05
3.880597E+03	8.914772E-04	3.621002E-05
3.890547E+03	9.221797E-04	3.729861E-05
3.900498E+03	9.532701E-04	3.839204E-05
3.910448E+03	9.841557E-04	3.946633E-05
3.920398E+03	1.014364E-03	4.050268E-05
3.930348E+03	1.043304E-03	4.147799E-05
3.940299E+03	1.070425E-03	4.237105E-05
3.950249E+03	1.095172E-03	4.316095E-05
3.960199E+03	1.117080E-03	4.383065E-05
3.970149E+03	1.135795E-03	4.436784E-05
3.980100E+03	1.150955E-03	4.476007E-05
3.990050E+03	1.162367E-03	4.500171E-05
4.000000E+03	1.169982E-03	4.509286E-05
4.009950E+03	1.173804E-03	4.503569E-05
4.019900E+03	1.173988E-03	4.483805E-05
4.029851E+03	1.170768E-03	4.451077E-05
4.039801E+03	1.164516E-03	4.406976E-05
4.049751E+03	1.155696E-03	4.353406E-05
4.059701E+03	1.144835E-03	4.292478E-05
4.069652E+03	1.132468E-03	4.226302E-05
4.079602E+03	1.119169E-03	4.157089E-05
4.089552E+03	1.105488E-03	4.086922E-05
4.099502E+03	1.091893E-03	4.017544E-05
4.109453E+03	1.078826E-03	3.950571E-05
4.119403E+03	1.066595E-03	3.887101E-05
4.129353E+03	1.055428E-03	3.827918E-05
4.139303E+03	1.045523E-03	3.773676E-05
4.149254E+03	1.036954E-03	3.724586E-05
4.159204E+03	1.029786E-03	3.680803E-05
4.169154E+03	1.023961E-03	3.642054E-05
4.179104E+03	1.019452E-03	3.608170E-05
4.189055E+03	1.016162E-03	3.578744E-05
4.199005E+03	1.014023E-03	3.553477E-05
4.208955E+03	1.012894E-03	3.531814E-05
4.218905E+03	1.012701E-03	3.513450E-05
4.228856E+03	1.013277E-03	3.497758E-05
4.238806E+03	1.014494E-03	3.484264E-05
4.248756E+03	1.016176E-03	3.472332E-05
4.258706E+03	1.018075E-03	3.461096E-05
4.268657E+03	1.020000E-03	3.449899E-05
4.278607E+03	1.021713E-03	3.437944E-05
4.288557E+03	1.022953E-03	3.424369E-05
4.298507E+03	1.023538E-03	3.408594E-05
4.308458E+03	1.023309E-03	3.390127E-05
4.318408E+03	1.022139E-03	3.368593E-05
4.328358E+03	1.020000E-03	3.343953E-05
4.338308E+03	1.016917E-03	3.316339E-05
4.348259E+03	1.012966E-03	3.286050E-05
4.358209E+03	1.008313E-03	3.253664E-05
4.368159E+03	1.003175E-03	3.219915E-05
4.378109E+03	9.980147E-04	3.186310E-05
4.388060E+03	9.933923E-04	3.154627E-05
4.398010E+03	9.898926E-04	3.126689E-05
4.407960E+03	9.880632E-04	3.104159E-05
4.417910E+03	9.884063E-04	3.088524E-05
4.427861E+03	9.913810E-04	3.081101E-05
4.437811E+03	9.973633E-04	3.082919E-05
4.447761E+03	1.006723E-03	3.094962E-05
4.457711E+03	1.019771E-03	3.118012E-05
4.467662E+03	1.036705E-03	3.152481E-05
4.477612E+03	1.057699E-03	3.198704E-05
4.487562E+03	1.082756E-03	3.256487E-05
4.497512E+03	1.111785E-03	3.325356E-05
4.507463E+03	1.144529E-03	3.404349E-05
4.517413E+03	1.180549E-03	3.491988E-05
4.527363E+03	1.219250E-03	3.586357E-05
4.537313E+03	1.259868E-03	3.685091E-05
4.547264E+03	1.301499E-03	3.785472E-05
4.557214E+03	1.343113E-03	3.884465E-05
4.567164E+03	1.383648E-03	3.979024E-05
4.577114E+03	1.421979E-03	4.065984E-05
4.587065E+03	1.457111E-03	4.142625E-05
4.597015E+03	1.488072E-03	4.206355E-05
4.606965E+03	1.514186E-03	4.255479E-05
4.616915E+03	1.534879E-03	4.288631E-05
4.626866E+03	1.549872E-03	4.305299E-05
4.636816E+03	1.559144E-03	4.305698E-05
4.646766E+03	1.562754E-03	4.290274E-05
4.656716E+03	1.561014E-03	4.260147E-05
4.666667E+03	1.554369E-03	4.216789E-05
4.676617E+03	1.543306E-03	4.161745E-05
4.686567E+03	1.528427E-03	4.096843E-05
4.696517E+03	1.510402E-03	4.024053E-05
4.706468E+03	1.489882E-03	3.945250E-05
4.716418E+03	1.467559E-03	3.862374E-05
4.726368E+03	1.444097E-03	3.777248E-05
4.736318E+03	1.420138E-03	3.691592E-05
4.746269E+03	1.396299E-03	3.607030E-05
4.756219E+03	1.373216E-03	3.525179E-05
4.766169E+03	1.351470E-03	3.447491E-05
4.776119E+03	1.331626E-03	3.375329E-05
4.786070E+03	1.314216E-03	3.309938E-05
4.796020E+03	1.299770E-03	3.252531E-05
4.805970E+03	1.288760E-03	3.204132E-05
4.815920E+03	1.281673E-03	3.165781E-05
4.825871E+03	1.278885E-03	3.138206E-05
4.835821E+03	1.280737E-03	3.122032E-05
4.845771E+03	1.287521E-03	3.117743E-05
4.855721E+03	1.299381E-03	3.125441E-05
4.865672E+03	1.316401E-03	3.145086E-05
4.875622E+03	1.338617E-03	3.176509E-05
4.885572E+03	1.365923E-03	3.219210E-05
4.895522E+03	1.398109E-03	3.272456E-05
4.905473E+03	1.434819E-03	3.335177E-05
4.915423E+03	1.475454E-03	3.405775E-05
4.925373E+03	1.519138E-03	3.482054E-05
4.935323E+03	1.564731E-03	3.561271E-05
4.945274E+03	1.610699E-03	3.639874E-05
4.955224E+03	1.655181E-03	3.713667E-05
4.965174E+03	1.696138E-03	3.778185E-05
4.975124E+03	1.731449E-03	3.828912E-05
4.985075E+03	1.759175E-03	3.861869E-05
4.995025E+03	1.777829E-03	3.874184E-05
5.004975E+03	1.786623E-03	3.864596E-05
5.014925E+03	1.785641E-03	3.833766E-05
5.024876E+03	1.775710E-03	3.783931E-05
5.034826E+03	1.758466E-03	3.718984E-05
5.044776E+03	1.735962E-03	3.643589E-05
5.054726E+03	1.710356E-03	3.562498E-05
5.064677E+03	1.683729E-03	3.480161E-05
5.074627E+03	1.657879E-03	3.400320E-05
5.084577E+03	1.634154E-03	3.325682E-05
5.094527E+03	1.613528E-03	3.258113E-05
5.104478E+03	1.596531E-03	3.198533E-05
5.114428E+03	1.583420E-03	3.147281E-05
5.124378E+03	1.574170E-03	3.104131E-05
5.134328E+03	1.568648E-03	3.068644E-05
5.144279E+03	1.566686E-03	3.040320E-05
5.154229E+03	1.568167E-03	3.018779E-05
5.164179E+03	1.573048E-03	3.003780E-05
5.174129E+03	1.581352E-03	2.995221E-05
5.184080E+03	1.593173E-03	2.993124E-05
5.194030E+03	1.608630E-03	2.997560E-05
5.203980E+03	1.627844E-03	3.008598E-05
5.213930E+03	1.650831E-03	3.026110E-05
5.223881E+03	1.677581E-03	3.049919E-05
5.233831E+03	1.707897E-03	3.079518E-05
5.243781E+03	1.741350E-03	3.113999E-05
5.253731E+03	1.777383E-03	3.152253E-05
5.263682E+03	1.815201E-03	3.192793E-05
5.273632E+03	1.853806E-03	3.233822E-05
5.283582E+03	1.892077E-03	3.273392E-05
5.293532E+03	1.928858E-03	3.309563E-05
5.303483E+03	1.962979E-03	3.340433E-05
5.313433E+03	1.993421E-03	3.364425E-05
5.323383E+03	2.019331E-03	3.380290E-05
5.333333E+03	2.040181E-03	3.387367E-05
5.343284E+03	2.055698E-03	3.385439E-05
5.353234E+03	2.065937E-03	3.374834E-05
5.363184E+03	2.071175E-03	3.356234E-05
5.373134E+03	2.071984E-03	3.330771E-05
5.383085E+03	2.069157E-03	3.299901E-05
5.393035E+03	2.063700E-03	3.265369E-05
5.402985E+03	2.056891E-03	3.229292E-05
5.412935E+03	2.050212E-03	3.194040E-05
5.422886E+03	2.045430E-03	3.162356E-05
5.432836E+03	2.044321E-03	3.136910E-05
5.442786E+03	2.048627E-03	3.120241E-05
5.452736E+03	2.059928E-03	3.114577E-05
5.462687E+03	2.079454E-03	3.121554E-05
5.472637E+03	2.107356E-03	3.141166E-05
5.482587E+03	2.141043E-03	3.169349E-05
5.492537E+03	2.177086E-03	3.200930E-05
5.502488E+03	2.211828E-03	3.230543E-05
5.512438E+03	2.241745E-03	3.253140E-05
5.522388E+03	2.263669E-03	3.264293E-05
5.532338E+03	2.275301E-03	3.260933E-05
5.542289E+03	2.275296E-03	3.241406E-05
5.552239E+03	2.263487E-03	3.205758E-05
5.562189E+03	2.240529E-03	3.155179E-05
5.572139E+03	2.207809E-03	3.091845E-05
5.582090E+03	2.167046E-03	3.018339E-05
5.592040E+03	2.120043E-03	2.937296E-05
5.601990E+03	2.068385E-03	2.850989E-05
5.611940E+03	2.013480E-03	2.761397E-05
5.621891E+03	1.956509E-03	2.670150E-05
5.631841E+03	1.898567E-03	2.578729E-05
5.641791E+03	1.840698E-03	2.488513E-05
5.651741E+03	1.784119E-03	2.401092E-05
5.661692E+03	1.730254E-03	2.318311E-05
5.671642E+03	1.680693E-03	2.242196E-05
5.681592E+03	1.637269E-03	2.175076E-05
5.691542E+03	1.601847E-03	2.119283E-05
5.701493E+03	1.576372E-03	2.077221E-05
5.711443E+03	1.562589E-03	2.051004E-05
5.721393E+03	1.562010E-03	2.042410E-05
5.731343E+03	1.575991E-03	2.053000E-05
5.741294E+03	1.605753E-03	2.084145E-05
5.751244E+03	1.652375E-03	2.137018E-05
5.761194E+03	1.716693E-03	2.212475E-05
5.771144E+03	1.799267E-03	2.311010E-05
5.781095E+03	1.899998E-03	2.432281E-05
5.791045E+03	2.017916E-03	2.574846E-05
5.800995E+03	2.150896E-03	2.735823E-05
5.810945E+03	2.295164E-03	2.910280E-05
5.820896E+03	2.445359E-03	3.091350E-05
5.830846E+03	2.594775E-03	3.270556E-05
5.840796E+03	2.735938E-03	3.438557E-05
5.850746E+03	2.861422E-03	3.586179E-05
5.860697E+03	2.964902E-03	3.705720E-05
5.870647E+03	3.042034E-03	3.792025E-05
5.880597E+03	3.090834E-03	3.842915E-05
5.890547E+03	3.111474E-03	3.858897E-05
5.900498E+03	3.105929E-03	3.842689E-05
5.910448E+03	3.077456E-03	3.798552E-05
5.920398E+03	3.029951E-03	3.731482E-05
5.930348E+03	2.967694E-03	3.646892E-05
5.940299E+03	2.894703E-03	3.549814E-05
5.950249E+03	2.814815E-03	3.445013E-05
5.960199E+03	2.731398E-03	3.336636E-05
5.970149E+03	2.647305E-03	3.228165E-05
5.980100E+03	2.564770E-03	3.122307E-05
5.990050E+03	2.485572E-03	3.021193E-05
6.000000E+03	2.410964E-03	2.926305E-05
6.009950E+03	2.341877E-03	2.838730E-05
6.019900E+03	2.279036E-03	2.759304E-05
6.029851E+03	2.222991E-03	2.688646E-05
6.039801E+03	2.174129E-03	2.627189E-05
6.049751E+03	2.132754E-03	2.575266E-05
6.059701E+03	2.098940E-03	2.532939E-05
6.069652E+03	2.072553E-03	2.500026E-05
6.079602E+03	2.053168E-03	2.476007E-05
6.089552E+03	2.040072E-03	2.460017E-05
6.099502E+03	2.032318E-03	2.450923E-05
6.109453E+03	2.028790E-03	2.447390E-05
6.119403E+03	2.028267E-03	2.447966E-05
6.129353E+03	2.029599E-03	2.451283E-05
6.139303E+03	2.031761E-03	2.456123E-05
6.149254E+03	2.033825E-03	2.461386E-05
6.159204E+03	2.034790E-03	2.465876E-05
6.169154E+03	2.033541E-03	2.468252E-05
6.179104E+03	2.028830E-03	2.466998E-05
6.189055E+03	2.019409E-03	2.460580E-05
6.199005E+03	2.004090E-03	2.447521E-05
6.208955E+03	1.982016E-03	2.426706E-05
6.218905E+03	1.952613E-03	2.397324E-05
6.228856E+03	1.915537E-03	2.358825E-05
6.238806E+03	1.871305E-03	2.311704E-05
6.248756E+03	1.821296E-03	2.257528E-05
6.258706E+03	1.767738E-03	2.198932E-05
6.268657E+03	1.713257E-03	2.139085E-05
6.278607E+03	1.660684E-03	2.081462E-05
6.288557E+03	1.612869E-03	2.029624E-05
6.298507E+03	1.572383E-03	1.986837E-05
6.308458E+03	1.541442E-03	1.955988E-05
6.318408E+03	1.521753E-03	1.939367E-05
6.328358E+03	1.514567E-03	1.938729E-05
6.338308E+03	1.520563E-03	1.955137E-05
6.348259E+03	1.539738E-03	1.988792E-05
6.358209E+03	1.571524E-03	2.039174E-05
6.368159E+03	1.614783E-03	2.105012E-05
6.378109E+03	1.667733E-03	2.184164E-05
6.388060E+03	1.728006E-03	2.273679E-05
6.398010E+03	1.792786E-03	2.369958E-05
6.407960E+03	1.858918E-03	2.468876E-05
6.417910E+03	1.923147E-03	2.566097E-05
6.427861E+03	1.982323E-03	2.657342E-05
6.437811E+03	2.033757E-03	2.738872E-05
6.447761E+03	2.075403E-03	2.807754E-05
6.457711E+03	2.106039E-03	2.862117E-05
6.467662E+03	2.125317E-03	2.901260E-05
6.477612E+03	2.133806E-03	2.925733E-05
6.487562E+03	2.133058E-03	2.937455E-05
6.497512E+03	2.125520E-03	2.939624E-05
6.507463E+03	2.114153E-03	2.936215E-05
6.517413E+03	2.102105E-03	2.931536E-05
6.527363E+03	2.092454E-03	2.929870E-05
6.537313E+03	2.087802E-03	2.934903E-05
6.547264E+03	2.090086E-03	2.949434E-05
6.557214E+03	2.100362E-03	2.975058E-05
6.567164E+03	2.118889E-03	3.012249E-05
6.577114E+03	2.145167E-03	3.060401E-05
6.587065E+03	2.178001E-03	3.117895E-05
6.597015E+03	2.215628E-03	3.182266E-05
6.606965E+03	2.255753E-03	3.250247E-05
6.616915E+03	2.295891E-03	3.318249E-05
6.626866E+03	2.333345E-03	3.382331E-05
6.636816E+03	2.365717E-03	3.438942E-05
6.646766E+03	2.391102E-03	3.485213E-05
6.656716E+03	2.408159E-03	3.519082E-05
6.666667E+03	2.416263E-03	3.539518E-05
6.676617E+03	2.415364E-03	3.546338E-05
6.686567E+03	2.405994E-03	3.540225E-05
6.696517E+03	2.388891E-03	3.522186E-05
6.706468E+03	2.364946E-03	3.493467E-05
6.716418E+03	2.335063E-03	3.455359E-05
6.726368E+03	2.300118E-03	3.409123E-05
6.736318E+03	2.260868E-03	3.355867E-05
6.746269E+03	2.218008E-03	3.296610E-05
6.756219E+03	2.172334E-03	3.232543E-05
6.766169E+03	2.124619E-03	3.164822E-05
6.776119E+03	2.075684E-03	3.094694E-05
6.786070E+03	2.026476E-03	3.023596E-05
6.796020E+03	1.977802E-03	2.952758E-05
6.805970E+03	1.930596E-03	2.883609E-05
6.815920E+03	1.885737E-03	2.817497E-05
6.825871E+03	1.844203E-03	2.755912E-05
6.835821E+03	1.806872E-03	2.700198E-05
6.845771E+03	1.774756E-03	2.651893E-05
6.855721E+03	1.748737E-03	2.612334E-05
6.865672E+03	1.729716E-03	2.582875E-05
6.875622E+03	1.718483E-03	2.564701E-05
6.885572E+03	1.715694E-03	2.558776E-05
6.895522E+03	1.721924E-03	2.565941E-05
6.905473E+03	1.737486E-03	2.586625E-05
6.915423E+03	1.762506E-03	2.620971E-05
6.925373E+03	1.796791E-03	2.668635E-05
6.935323E+03	1.839740E-03	2.728657E-05
6.945274E+03	1.890216E-03	2.799285E-05
6.955224E+03	1.946463E-03	2.877847E-05
6.965174E+03	2.006137E-03	2.960817E-05
6.975124E+03	2.066251E-03	3.043745E-05
6.985075E+03	2.123402E-03	3.121601E-05
6.995025E+03	2.174107E-03	3.189283E-05
7.004975E+03	2.215259E-03	3.242288E-05
7.014925E+03	2.244465E-03	3.277214E-05
7.024876E+03	2.260263E-03	3.292051E-05
7.034826E+03	2.262356E-03	3.286527E-05
7.044776E+03	2.251515E-03	3.261926E-05
7.054726E+03	2.229345E-03	3.220744E-05
7.064677E+03	2.198033E-03	3.166293E-05
7.074627E+03	2.160080E-03	3.102309E-05
7.084577E+03	2.118035E-03	3.032564E-05
7.094527E+03	2.074371E-03	2.960671E-05
7.104478E+03	2.031314E-03	2.889854E-05
7.114428E+03	1.990781E-03	2.822855E-05
7.124378E+03	1.954195E-03	2.761679E-05
7.134328E+03	1.922732E-03	2.707956E-05
7.144279E+03	1.897028E-03	2.662532E-05
7.154229E+03	1.877428E-03	2.625834E-05
7.164179E+03	1.863906E-03	2.597761E-05
7.174129E+03	1.856102E-03	2.577751E-05
7.184080E+03	1.853399E-03	2.564891E-05
7.194030E+03	1.854979E-03	2.558004E-05
7.203980E+03	1.859887E-03	2.555746E-05
7.213930E+03	1.867157E-03	2.556775E-05
7.223881E+03	1.875819E-03	2.559767E-05
7.233831E+03	1.885028E-03	2.563584E-05
7.243781E+03	1.893986E-03	2.567175E-05
7.253731E+03	1.902087E-03	2.569764E-05
7.263682E+03	1.908891E-03	2.570806E-05
7.273632E+03	1.914128E-03	2.569997E-05
7.283582E+03	1.917660E-03	2.567212E-05
7.293532E+03	1.919572E-03	2.562627E-05
7.303483E+03	1.920110E-03	2.556627E-05
7.313433E+03	1.919621E-03	2.549731E-05
7.323383E+03	1.918556E-03	2.542588E-05
7.333333E+03	1.917366E-03	2.535841E-05
7.343284E+03	1.916461E-03	2.530077E-05
7.353234E+03	1.916170E-03	2.525768E-05
7.363184E+03	1.916657E-03	2.523172E-05
7.373134E+03	1.917853E-03	2.522237E-05
7.383085E+03	1.919563E-03	2.522755E-05
7.393035E+03	1.921331E-03	2.524169E-05
7.402985E+03	1.922631E-03	2.525836E-05
7.412935E+03	1.922846E-03	2.526992E-05
7.422886E+03	1.921376E-03	2.526890E-05
7.432836E+03	1.917616E-03	2.524772E-05
7.442786E+03	1.911101E-03	2.520048E-05
7.452736E+03	1.901495E-03	2.512290E-05
7.462687E+03	1.888597E-03	2.501231E-05
7.472637E+03	1.872410E-03	2.486859E-05
7.482587E+03	1.853095E-03	2.469357E-05
7.492537E+03	1.830980E-03	2.449123E-05
7.502488E+03	1.806579E-03	2.426790E-05
7.512438E+03	1.780461E-03	2.403071E-05
7.522388E+03	1.753240E-03	2.378725E-05
7.532338E+03	1.725636E-03	2.354641E-05
7.542289E+03	1.698323E-03	2.331658E-05
7.552239E+03	1.672070E-03	2.310774E-05
7.562189E+03	1.647633E-03	2.292995E-05
7.572139E+03	1.625900E-03	2.279551E-05
7.582090E+03	1.607665E-03	2.271585E-05
7.592040E+03	1.593054E-03	2.269332E-05
7.601990E+03	1.582009E-03	2.272786E-05
7.611940E+03	1.574503E-03	2.281991E-05
7.621891E+03	1.570519E-03	2.297019E-05
7.631841E+03	1.570037E-03	2.317948E-05
7.641791E+03	1.572913E-03	2.344683E-05
7.651741E+03	1.578961E-03	2.377064E-05
7.661692E+03	1.587932E-03	2.414838E-05
7.671642E+03	1.599545E-03	2.457693E-05
7.681592E+03	1.613432E-03	2.505170E-05
7.691542E+03	1.629208E-03	2.556769E-05
7.701493E+03	1.646490E-03	2.611972E-05
7.711443E+03	1.664849E-03	2.670158E-05
7.721393E+03	1.683882E-03	2.730731E-05
