#wls	flux	fluxerr
1.592040E+03	5.994475E-05	3.939215E-06
1.631841E+03	6.071597E-05	3.980788E-06
1.671642E+03	6.145920E-05	4.020092E-06
1.711443E+03	6.219406E-05	4.058409E-06
1.751244E+03	6.289126E-05	4.093826E-06
1.791045E+03	6.356040E-05	4.126975E-06
1.830846E+03	6.417147E-05	4.155916E-06
1.870647E+03	6.471508E-05	4.180062E-06
1.910448E+03	6.515672E-05	4.197217E-06
1.950249E+03	6.550454E-05	4.207951E-06
1.990050E+03	6.575193E-05	4.211883E-06
2.029851E+03	6.595090E-05	4.212387E-06
2.069652E+03	6.622380E-05	4.217275E-06
2.109453E+03	6.677913E-05	4.239738E-06
2.149254E+03	6.778590E-05	4.290301E-06
2.189055E+03	6.933206E-05	4.374233E-06
2.228856E+03	7.140504E-05	4.490400E-06
2.268657E+03	7.386841E-05	4.629900E-06
2.308458E+03	7.663687E-05	4.787131E-06
2.348259E+03	7.964260E-05	4.957644E-06
2.388060E+03	8.286339E-05	5.139871E-06
2.427861E+03	8.632425E-05	5.335175E-06
2.467662E+03	9.005569E-05	5.545234E-06
2.507463E+03	9.411220E-05	5.773162E-06
2.547264E+03	9.855281E-05	6.022291E-06
2.587065E+03	1.034214E-04	6.294967E-06
2.626866E+03	1.087754E-04	6.594317E-06
2.666667E+03	1.146695E-04	6.923215E-06
2.706468E+03	1.211526E-04	7.284145E-06
2.746269E+03	1.282656E-04	7.679030E-06
2.786070E+03	1.360555E-04	8.110123E-06
2.825871E+03	1.445146E-04	8.576354E-06
2.865672E+03	1.536684E-04	9.078609E-06
2.905473E+03	1.634707E-04	9.613538E-06
2.945274E+03	1.738515E-04	1.017641E-05
2.985075E+03	1.846841E-04	1.075928E-05
2.995025E+03	1.874510E-04	1.090737E-05
3.004975E+03	1.902171E-04	1.105500E-05
3.014925E+03	1.930000E-04	1.120317E-05
3.024876E+03	1.957955E-04	1.135164E-05
3.034826E+03	1.985776E-04	1.149889E-05
3.044776E+03	2.013892E-04	1.164742E-05
3.054726E+03	2.041774E-04	1.179417E-05
3.064677E+03	2.069583E-04	1.194004E-05
3.074627E+03	2.097479E-04	1.208598E-05
3.084577E+03	2.124922E-04	1.222888E-05
3.094527E+03	2.152071E-04	1.236964E-05
3.104478E+03	2.179086E-04	1.250921E-05
3.114428E+03	2.205425E-04	1.264446E-05
3.124378E+03	2.231492E-04	1.277773E-05
3.134328E+03	2.256987E-04	1.290732E-05
3.144279E+03	2.282096E-04	1.303428E-05
3.154229E+03	2.306540E-04	1.315704E-05
3.164179E+03	2.330294E-04	1.327547E-05
3.174129E+03	2.353592E-04	1.339092E-05
3.184080E+03	2.376453E-04	1.350349E-05
3.194030E+03	2.398688E-04	1.361214E-05
3.203980E+03	2.420847E-04	1.371998E-05
3.213930E+03	2.442333E-04	1.382364E-05
3.223881E+03	2.463991E-04	1.392791E-05
3.233831E+03	2.485753E-04	1.403241E-05
3.243781E+03	2.507814E-04	1.413823E-05
3.253731E+03	2.530384E-04	1.424654E-05
3.263682E+03	2.553688E-04	1.435859E-05
3.273632E+03	2.578187E-04	1.447697E-05
3.283582E+03	2.603650E-04	1.460034E-05
3.293532E+03	2.630990E-04	1.473380E-05
3.303483E+03	2.659960E-04	1.487592E-05
3.313433E+03	2.690759E-04	1.502777E-05
3.323383E+03	2.724023E-04	1.519287E-05
3.333333E+03	2.759453E-04	1.536948E-05
3.343284E+03	2.797416E-04	1.555960E-05
3.353234E+03	2.838023E-04	1.576379E-05
3.363184E+03	2.881360E-04	1.598246E-05
3.373134E+03	2.927485E-04	1.621588E-05
3.383085E+03	2.976658E-04	1.646540E-05
3.393035E+03	3.028646E-04	1.672968E-05
3.402985E+03	3.083649E-04	1.700975E-05
3.412935E+03	3.141605E-04	1.730520E-05
3.422886E+03	3.202197E-04	1.761421E-05
3.432836E+03	3.265549E-04	1.793740E-05
3.442786E+03	3.331534E-04	1.827402E-05
3.452736E+03	3.400004E-04	1.862319E-05
3.462687E+03	3.470962E-04	1.898486E-05
3.472637E+03	3.543695E-04	1.935509E-05
3.482587E+03	3.617631E-04	1.973070E-05
3.492537E+03	3.692445E-04	2.010990E-05
3.502488E+03	3.767620E-04	2.048986E-05
3.512438E+03	3.842461E-04	2.086679E-05
3.522388E+03	3.917075E-04	2.124128E-05
3.532338E+03	3.990911E-04	2.161035E-05
3.542289E+03	4.063714E-04	2.197264E-05
3.552239E+03	4.135521E-04	2.232837E-05
3.562189E+03	4.205895E-04	2.267521E-05
3.572139E+03	4.274906E-04	2.301355E-05
3.582090E+03	4.342125E-04	2.334113E-05
3.592040E+03	4.407854E-04	2.365961E-05
3.601990E+03	4.471659E-04	2.396669E-05
3.611940E+03	4.533347E-04	2.426139E-05
3.621891E+03	4.592749E-04	2.454284E-05
3.631841E+03	4.649962E-04	2.481162E-05
3.641791E+03	4.704877E-04	2.506721E-05
3.651741E+03	4.757451E-04	2.530941E-05
3.661692E+03	4.807455E-04	2.553707E-05
3.671642E+03	4.855464E-04	2.575330E-05
3.681592E+03	4.901416E-04	2.595782E-05
3.691542E+03	4.945818E-04	2.615335E-05
3.701493E+03	4.988815E-04	2.634069E-05
3.711443E+03	5.030940E-04	2.652269E-05
3.721393E+03	5.073328E-04	2.670534E-05
3.731343E+03	5.116612E-04	2.689196E-05
3.741294E+03	5.161624E-04	2.708690E-05
3.751244E+03	5.210093E-04	2.729916E-05
3.761194E+03	5.263267E-04	2.753519E-05
3.771144E+03	5.322978E-04	2.780445E-05
3.781095E+03	5.390781E-04	2.811488E-05
3.791045E+03	5.468701E-04	2.847683E-05
3.800995E+03	5.558473E-04	2.889906E-05
3.810945E+03	5.661477E-04	2.938846E-05
3.820896E+03	5.779505E-04	2.995398E-05
3.830846E+03	5.913217E-04	3.059866E-05
3.840796E+03	6.063777E-04	3.132812E-05
3.850746E+03	6.231067E-04	3.214135E-05
3.860697E+03	6.415376E-04	3.303941E-05
3.870647E+03	6.616041E-04	3.401846E-05
3.880597E+03	6.831367E-04	3.506940E-05
3.890547E+03	7.059945E-04	3.618463E-05
3.900498E+03	7.299079E-04	3.735003E-05
3.910448E+03	7.545746E-04	3.854988E-05
3.920398E+03	7.796790E-04	3.976788E-05
3.930348E+03	8.048422E-04	4.098462E-05
3.940299E+03	8.297013E-04	4.218164E-05
3.950249E+03	8.539006E-04	4.334095E-05
3.960199E+03	8.771114E-04	4.444604E-05
3.970149E+03	8.990334E-04	4.548195E-05
3.980100E+03	9.193672E-04	4.643391E-05
3.990050E+03	9.378935E-04	4.729121E-05
4.000000E+03	9.544041E-04	4.804385E-05
4.009950E+03	9.686866E-04	4.868164E-05
4.019900E+03	9.806862E-04	4.920239E-05
4.029851E+03	9.903085E-04	4.960195E-05
4.039801E+03	9.976054E-04	4.988350E-05
4.049751E+03	1.002659E-03	5.005174E-05
4.059701E+03	1.005640E-03	5.011571E-05
4.069652E+03	1.006742E-03	5.008563E-05
4.079602E+03	1.006221E-03	4.997465E-05
4.089552E+03	1.004344E-03	4.979641E-05
4.099502E+03	1.001343E-03	4.956276E-05
4.109453E+03	9.974439E-04	4.928512E-05
4.119403E+03	9.928380E-04	4.897320E-05
4.129353E+03	9.876506E-04	4.863333E-05
4.139303E+03	9.820244E-04	4.827268E-05
4.149254E+03	9.761014E-04	4.789833E-05
4.159204E+03	9.699280E-04	4.751265E-05
4.169154E+03	9.636244E-04	4.712157E-05
4.179104E+03	9.572594E-04	4.672847E-05
4.189055E+03	9.509079E-04	4.633705E-05
4.199005E+03	9.445954E-04	4.594854E-05
4.208955E+03	9.383942E-04	4.556644E-05
4.218905E+03	9.323195E-04	4.519146E-05
4.228856E+03	9.264286E-04	4.482635E-05
4.238806E+03	9.207571E-04	4.447278E-05
4.248756E+03	9.153628E-04	4.413348E-05
4.258706E+03	9.102258E-04	4.380744E-05
4.268657E+03	9.053872E-04	4.349657E-05
4.278607E+03	9.008041E-04	4.319872E-05
4.288557E+03	8.964498E-04	4.291256E-05
4.298507E+03	8.922656E-04	4.263523E-05
4.308458E+03	8.882235E-04	4.236536E-05
4.318408E+03	8.842207E-04	4.209801E-05
4.328358E+03	8.802281E-04	4.183180E-05
4.338308E+03	8.761781E-04	4.156352E-05
4.348259E+03	8.720456E-04	4.129200E-05
4.358209E+03	8.678241E-04	4.101695E-05
4.368159E+03	8.635487E-04	4.074007E-05
4.378109E+03	8.593386E-04	4.046697E-05
4.388060E+03	8.553524E-04	4.020511E-05
4.398010E+03	8.518198E-04	3.996519E-05
4.407960E+03	8.489327E-04	3.975610E-05
4.417910E+03	8.469350E-04	3.958904E-05
4.427861E+03	8.460117E-04	3.947243E-05
4.437811E+03	8.463819E-04	3.941618E-05
4.447761E+03	8.482176E-04	3.942794E-05
4.457711E+03	8.516488E-04	3.951337E-05
4.467662E+03	8.568108E-04	3.967831E-05
4.477612E+03	8.638137E-04	3.992739E-05
4.487562E+03	8.726591E-04	4.026020E-05
4.497512E+03	8.833085E-04	4.067449E-05
4.507463E+03	8.956292E-04	4.116366E-05
4.517413E+03	9.094027E-04	4.171728E-05
4.527363E+03	9.243258E-04	4.232105E-05
4.537313E+03	9.400458E-04	4.295856E-05
4.547264E+03	9.561093E-04	4.360891E-05
4.557214E+03	9.720811E-04	4.425220E-05
4.567164E+03	9.875108E-04	4.486798E-05
4.577114E+03	1.001952E-03	4.543611E-05
4.587065E+03	1.015053E-03	4.594100E-05
4.597015E+03	1.026518E-03	4.636957E-05
4.606965E+03	1.036149E-03	4.671336E-05
4.616915E+03	1.043860E-03	4.696893E-05
4.626866E+03	1.049605E-03	4.713480E-05
4.636816E+03	1.053429E-03	4.721344E-05
4.646766E+03	1.055374E-03	4.720723E-05
4.656716E+03	1.055514E-03	4.712001E-05
4.666667E+03	1.053888E-03	4.695399E-05
4.676617E+03	1.050522E-03	4.671075E-05
4.686567E+03	1.045413E-03	4.639069E-05
4.696517E+03	1.038575E-03	4.599481E-05
4.706468E+03	1.030070E-03	4.552640E-05
4.716418E+03	1.019970E-03	4.498905E-05
4.726368E+03	1.008376E-03	4.438760E-05
4.736318E+03	9.954687E-04	4.373045E-05
4.746269E+03	9.814317E-04	4.302596E-05
4.756219E+03	9.665115E-04	4.228525E-05
4.766169E+03	9.509661E-04	4.151982E-05
4.776119E+03	9.350751E-04	4.074202E-05
4.786070E+03	9.191455E-04	3.996529E-05
4.796020E+03	9.035325E-04	3.920508E-05
4.805970E+03	8.885938E-04	3.847679E-05
4.815920E+03	8.747289E-04	3.779750E-05
4.825871E+03	8.623509E-04	3.718474E-05
4.835821E+03	8.518734E-04	3.665591E-05
4.845771E+03	8.436892E-04	3.622736E-05
4.855721E+03	8.381502E-04	3.591356E-05
4.865672E+03	8.355956E-04	3.572829E-05
4.875622E+03	8.362818E-04	3.568169E-05
4.885572E+03	8.404273E-04	3.578216E-05
4.895522E+03	8.481742E-04	3.603482E-05
4.905473E+03	8.595908E-04	3.644157E-05
4.915423E+03	8.745998E-04	3.699813E-05
4.925373E+03	8.930035E-04	3.769518E-05
4.935323E+03	9.144188E-04	3.851566E-05
4.945274E+03	9.382660E-04	3.943436E-05
4.955224E+03	9.637535E-04	4.041743E-05
4.965174E+03	9.899696E-04	4.142626E-05
4.975124E+03	1.015915E-03	4.241894E-05
4.985075E+03	1.040533E-03	4.335147E-05
4.995025E+03	1.062878E-03	4.418496E-05
5.004975E+03	1.082151E-03	4.488687E-05
5.014925E+03	1.097791E-03	4.543485E-05
5.024876E+03	1.109488E-03	4.581706E-05
5.034826E+03	1.117208E-03	4.603325E-05
5.044776E+03	1.121210E-03	4.609510E-05
5.054726E+03	1.121887E-03	4.601981E-05
5.064677E+03	1.119798E-03	4.583117E-05
5.074627E+03	1.115568E-03	4.555544E-05
5.084577E+03	1.109781E-03	4.521707E-05
5.094527E+03	1.103011E-03	4.483980E-05
5.104478E+03	1.095725E-03	4.444287E-05
5.114428E+03	1.088323E-03	4.404256E-05
5.124378E+03	1.081127E-03	4.365195E-05
5.134328E+03	1.074363E-03	4.328015E-05
5.144279E+03	1.068221E-03	4.293459E-05
5.154229E+03	1.062826E-03	4.262015E-05
5.164179E+03	1.058256E-03	4.233977E-05
5.174129E+03	1.054596E-03	4.209661E-05
5.184080E+03	1.051912E-03	4.189307E-05
5.194030E+03	1.050249E-03	4.173066E-05
5.203980E+03	1.049660E-03	4.161122E-05
5.213930E+03	1.050135E-03	4.153407E-05
5.223881E+03	1.051641E-03	4.149762E-05
5.233831E+03	1.054113E-03	4.149902E-05
5.243781E+03	1.057455E-03	4.153428E-05
5.253731E+03	1.061516E-03	4.159724E-05
5.263682E+03	1.066127E-03	4.168111E-05
5.273632E+03	1.071114E-03	4.177899E-05
5.283582E+03	1.076244E-03	4.188168E-05
5.293532E+03	1.081300E-03	4.198077E-05
5.303483E+03	1.086100E-03	4.206918E-05
5.313433E+03	1.090448E-03	4.213951E-05
5.323383E+03	1.094214E-03	4.218684E-05
5.333333E+03	1.097339E-03	4.220906E-05
5.343284E+03	1.099837E-03	4.220690E-05
5.353234E+03	1.101748E-03	4.218207E-05
5.363184E+03	1.103163E-03	4.213827E-05
5.373134E+03	1.104233E-03	4.208132E-05
5.383085E+03	1.105150E-03	4.201868E-05
5.393035E+03	1.106154E-03	4.195951E-05
5.402985E+03	1.107572E-03	4.191613E-05
5.412935E+03	1.109794E-03	4.190324E-05
5.422886E+03	1.113290E-03	4.193829E-05
5.432836E+03	1.118530E-03	4.203868E-05
5.442786E+03	1.125943E-03	4.222002E-05
5.452736E+03	1.135804E-03	4.249209E-05
5.462687E+03	1.148167E-03	4.285632E-05
5.472637E+03	1.162752E-03	4.330159E-05
5.482587E+03	1.178849E-03	4.380105E-05
5.492537E+03	1.195419E-03	4.431582E-05
5.502488E+03	1.211238E-03	4.480052E-05
5.512438E+03	1.225034E-03	4.520842E-05
5.522388E+03	1.235583E-03	4.549502E-05
5.532338E+03	1.241883E-03	4.562425E-05
5.542289E+03	1.243234E-03	4.557157E-05
5.552239E+03	1.239298E-03	4.532584E-05
5.562189E+03	1.230117E-03	4.488989E-05
5.572139E+03	1.216019E-03	4.427692E-05
5.582090E+03	1.197629E-03	4.351081E-05
5.592040E+03	1.175682E-03	4.261927E-05
5.601990E+03	1.150914E-03	4.162969E-05
5.611940E+03	1.124042E-03	4.056861E-05
5.621891E+03	1.095755E-03	3.946130E-05
5.631841E+03	1.066666E-03	3.833015E-05
5.641791E+03	1.037358E-03	3.719614E-05
5.651741E+03	1.008469E-03	3.608218E-05
5.661692E+03	9.807331E-04	3.501428E-05
5.671642E+03	9.549219E-04	3.401967E-05
5.681592E+03	9.319165E-04	3.312919E-05
5.691542E+03	9.126729E-04	3.237609E-05
5.701493E+03	8.981486E-04	3.179338E-05
5.711443E+03	8.892578E-04	3.141227E-05
5.721393E+03	8.868067E-04	3.125993E-05
5.731343E+03	8.915517E-04	3.136151E-05
5.741294E+03	9.041042E-04	3.173692E-05
5.751244E+03	9.249711E-04	3.240220E-05
5.761194E+03	9.544942E-04	3.336755E-05
5.771144E+03	9.928209E-04	3.463628E-05
5.781095E+03	1.039745E-03	3.619939E-05
5.791045E+03	1.094707E-03	3.803565E-05
5.800995E+03	1.156608E-03	4.010545E-05
5.810945E+03	1.223770E-03	4.234928E-05
5.820896E+03	1.293854E-03	4.468538E-05
5.830846E+03	1.363998E-03	4.701470E-05
5.840796E+03	1.430942E-03	4.922518E-05
5.850746E+03	1.491301E-03	5.120137E-05
5.860697E+03	1.542027E-03	5.284030E-05
5.870647E+03	1.580755E-03	5.406305E-05
5.880597E+03	1.606080E-03	5.482421E-05
5.890547E+03	1.617561E-03	5.511140E-05
5.900498E+03	1.615699E-03	5.494438E-05
5.910448E+03	1.601875E-03	5.437261E-05
5.920398E+03	1.577978E-03	5.346238E-05
5.930348E+03	1.546216E-03	5.229018E-05
5.940299E+03	1.508896E-03	5.093536E-05
5.950249E+03	1.468168E-03	4.947131E-05
5.960199E+03	1.425952E-03	4.796318E-05
5.970149E+03	1.383861E-03	4.646529E-05
5.980100E+03	1.343146E-03	4.501949E-05
5.990050E+03	1.304778E-03	4.365798E-05
6.000000E+03	1.269445E-03	4.240324E-05
6.009950E+03	1.237569E-03	4.126877E-05
6.019900E+03	1.209397E-03	4.026215E-05
6.029851E+03	1.185003E-03	3.938515E-05
6.039801E+03	1.164330E-03	3.863524E-05
6.049751E+03	1.147283E-03	3.800865E-05
6.059701E+03	1.133647E-03	3.749762E-05
6.069652E+03	1.123206E-03	3.709449E-05
6.079602E+03	1.115704E-03	3.679033E-05
6.089552E+03	1.110890E-03	3.657642E-05
6.099502E+03	1.108527E-03	3.644454E-05
6.109453E+03	1.108447E-03	3.638889E-05
6.119403E+03	1.110507E-03	3.640438E-05
6.129353E+03	1.114607E-03	3.648756E-05
6.139303E+03	1.120694E-03	3.663637E-05
6.149254E+03	1.128687E-03	3.684795E-05
6.159204E+03	1.138526E-03	3.712015E-05
6.169154E+03	1.150008E-03	3.744615E-05
6.179104E+03	1.162905E-03	3.781843E-05
6.189055E+03	1.176814E-03	3.822371E-05
6.199005E+03	1.191221E-03	3.864533E-05
6.208955E+03	1.205501E-03	3.906295E-05
6.218905E+03	1.218947E-03	3.945379E-05
6.228856E+03	1.230881E-03	3.979605E-05
6.238806E+03	1.240657E-03	4.006900E-05
6.248756E+03	1.247773E-03	4.025672E-05
6.258706E+03	1.251934E-03	4.034992E-05
6.268657E+03	1.253054E-03	4.034615E-05
6.278607E+03	1.251291E-03	4.025075E-05
6.288557E+03	1.247036E-03	4.007653E-05
6.298507E+03	1.240861E-03	3.984204E-05
6.308458E+03	1.233449E-03	3.956934E-05
6.318408E+03	1.225517E-03	3.928144E-05
6.328358E+03	1.217805E-03	3.900209E-05
6.338308E+03	1.210945E-03	3.875139E-05
6.348259E+03	1.205392E-03	3.854388E-05
6.358209E+03	1.201519E-03	3.839125E-05
6.368159E+03	1.199494E-03	3.829878E-05
6.378109E+03	1.199349E-03	3.826733E-05
6.388060E+03	1.200962E-03	3.829285E-05
6.398010E+03	1.204117E-03	3.836833E-05
6.407960E+03	1.208457E-03	3.848229E-05
6.417910E+03	1.213574E-03	3.862167E-05
6.427861E+03	1.219036E-03	3.877270E-05
6.437811E+03	1.224380E-03	3.892062E-05
6.447761E+03	1.229174E-03	3.905171E-05
6.457711E+03	1.233088E-03	3.915554E-05
6.467662E+03	1.235871E-03	3.922412E-05
6.477612E+03	1.237436E-03	3.925477E-05
6.487562E+03	1.237855E-03	3.924978E-05
6.497512E+03	1.237358E-03	3.921654E-05
6.507463E+03	1.236381E-03	3.916886E-05
6.517413E+03	1.235392E-03	3.912159E-05
6.527363E+03	1.234986E-03	3.909349E-05
6.537313E+03	1.235676E-03	3.910081E-05
6.547264E+03	1.237847E-03	3.915564E-05
6.557214E+03	1.241693E-03	3.926408E-05
6.567164E+03	1.247130E-03	3.942344E-05
6.577114E+03	1.253915E-03	3.962594E-05
6.587065E+03	1.261557E-03	3.985609E-05
6.597015E+03	1.269452E-03	4.009474E-05
6.606965E+03	1.276821E-03	4.031731E-05
6.616915E+03	1.282814E-03	4.049700E-05
6.626866E+03	1.286576E-03	4.060685E-05
6.636816E+03	1.287280E-03	4.062079E-05
6.646766E+03	1.284310E-03	4.051943E-05
6.656716E+03	1.277210E-03	4.028851E-05
6.666667E+03	1.265732E-03	3.992017E-05
6.676617E+03	1.249892E-03	3.941504E-05
6.686567E+03	1.229924E-03	3.878046E-05
6.696517E+03	1.206254E-03	3.802994E-05
6.706468E+03	1.179493E-03	3.718271E-05
6.716418E+03	1.150326E-03	3.626032E-05
6.726368E+03	1.119568E-03	3.528850E-05
6.736318E+03	1.087995E-03	3.429163E-05
6.746269E+03	1.056401E-03	3.329473E-05
6.756219E+03	1.025510E-03	3.232055E-05
6.766169E+03	9.960296E-04	3.139132E-05
6.776119E+03	9.685185E-04	3.052465E-05
6.786070E+03	9.435154E-04	2.973746E-05
6.796020E+03	9.214559E-04	2.904346E-05
6.805970E+03	9.027428E-04	2.845533E-05
6.815920E+03	8.876868E-04	2.798286E-05
6.825871E+03	8.765986E-04	2.763585E-05
6.835821E+03	8.697476E-04	2.742282E-05
6.845771E+03	8.673809E-04	2.735159E-05
6.855721E+03	8.697304E-04	2.742954E-05
6.865672E+03	8.770180E-04	2.766374E-05
6.875622E+03	8.894172E-04	2.805975E-05
6.885572E+03	9.070827E-04	2.862257E-05
6.895522E+03	9.300918E-04	2.935476E-05
6.905473E+03	9.584512E-04	3.025670E-05
6.915423E+03	9.920258E-04	3.132430E-05
6.925373E+03	1.030501E-03	3.254780E-05
6.935323E+03	1.073363E-03	3.391117E-05
6.945274E+03	1.119803E-03	3.538906E-05
6.955224E+03	1.168711E-03	3.694656E-05
6.965174E+03	1.218683E-03	3.853949E-05
6.975124E+03	1.268038E-03	4.011482E-05
6.985075E+03	1.314906E-03	4.161340E-05
6.995025E+03	1.357383E-03	4.297502E-05
7.004975E+03	1.393714E-03	4.414405E-05
7.014925E+03	1.422426E-03	4.507358E-05
7.024876E+03	1.442473E-03	4.573029E-05
7.034826E+03	1.453292E-03	4.609597E-05
7.044776E+03	1.454955E-03	4.617251E-05
7.054726E+03	1.448010E-03	4.597691E-05
7.064677E+03	1.433505E-03	4.554200E-05
7.074627E+03	1.412870E-03	4.491285E-05
7.084577E+03	1.387734E-03	4.414088E-05
7.094527E+03	1.359846E-03	4.328149E-05
7.104478E+03	1.330946E-03	4.238987E-05
7.114428E+03	1.302590E-03	4.151549E-05
7.124378E+03	1.276139E-03	4.070175E-05
7.134328E+03	1.252659E-03	3.998277E-05
7.144279E+03	1.232964E-03	3.938473E-05
7.154229E+03	1.217556E-03	3.892391E-05
7.164179E+03	1.206653E-03	3.860759E-05
7.174129E+03	1.200263E-03	3.843638E-05
7.184080E+03	1.198078E-03	3.840086E-05
7.194030E+03	1.199631E-03	3.848632E-05
7.203980E+03	1.204262E-03	3.867201E-05
7.213930E+03	1.211181E-03	3.893286E-05
7.223881E+03	1.219464E-03	3.923935E-05
7.233831E+03	1.228151E-03	3.956080E-05
7.243781E+03	1.236295E-03	3.986675E-05
7.253731E+03	1.243033E-03	4.012936E-05
7.263682E+03	1.247557E-03	4.032236E-05
7.273632E+03	1.249272E-03	4.042637E-05
7.283582E+03	1.247754E-03	4.042730E-05
7.293532E+03	1.242843E-03	4.031962E-05
7.303483E+03	1.234544E-03	4.010307E-05
7.313433E+03	1.223116E-03	3.978564E-05
7.323383E+03	1.208967E-03	3.938020E-05
7.333333E+03	1.192614E-03	3.890318E-05
7.343284E+03	1.174680E-03	3.837467E-05
7.353234E+03	1.155780E-03	3.781444E-05
7.363184E+03	1.136545E-03	3.724300E-05
7.373134E+03	1.117580E-03	3.668009E-05
7.383085E+03	1.099357E-03	3.614121E-05
7.393035E+03	1.082315E-03	3.564092E-05
7.402985E+03	1.066793E-03	3.519049E-05
7.412935E+03	1.053065E-03	3.479921E-05
7.422886E+03	1.041307E-03	3.447321E-05
7.432836E+03	1.031668E-03	3.421772E-05
7.442786E+03	1.024234E-03	3.403599E-05
7.452736E+03	1.019063E-03	3.393035E-05
7.462687E+03	1.016148E-03	3.390101E-05
7.472637E+03	1.015470E-03	3.394779E-05
7.482587E+03	1.016934E-03	3.406799E-05
7.492537E+03	1.020417E-03	3.425794E-05
7.502488E+03	1.025711E-03	3.451105E-05
7.512438E+03	1.032493E-03	3.481691E-05
7.522388E+03	1.040408E-03	3.516378E-05
7.532338E+03	1.048966E-03	3.553537E-05
7.542289E+03	1.057620E-03	3.591327E-05
7.552239E+03	1.065793E-03	3.627786E-05
7.562189E+03	1.072921E-03	3.660980E-05
7.572139E+03	1.078558E-03	3.689360E-05
7.582090E+03	1.082456E-03	3.712029E-05
7.592040E+03	1.084567E-03	3.728785E-05
7.601990E+03	1.085016E-03	3.740002E-05
7.611940E+03	1.084101E-03	3.746671E-05
7.621891E+03	1.082170E-03	3.749948E-05
7.631841E+03	1.079574E-03	3.751030E-05
7.641791E+03	1.076568E-03	3.750773E-05
7.651741E+03	1.073347E-03	3.749850E-05
7.661692E+03	1.070039E-03	3.748698E-05
7.671642E+03	1.066618E-03	3.747215E-05
7.681592E+03	1.063015E-03	3.745154E-05
7.691542E+03	1.059081E-03	3.741977E-05
7.701493E+03	1.054618E-03	3.736971E-05
7.711443E+03	1.049408E-03	3.729336E-05
7.721393E+03	1.043215E-03	3.718207E-05
