#wls	flux	fluxerr
1.592040E+03	3.830034E-05	2.001322E-06
1.631841E+03	3.918909E-05	2.037008E-06
1.671642E+03	4.008418E-05	2.072286E-06
1.711443E+03	4.100585E-05	2.108171E-06
1.751244E+03	4.193868E-05	2.143831E-06
1.791045E+03	4.287505E-05	2.178847E-06
1.830846E+03	4.381873E-05	2.213383E-06
1.870647E+03	4.474884E-05	2.246362E-06
1.910448E+03	4.564961E-05	2.276987E-06
1.950249E+03	4.650822E-05	2.304629E-06
1.990050E+03	4.733354E-05	2.329743E-06
2.029851E+03	4.815198E-05	2.353632E-06
2.069652E+03	4.905818E-05	2.380875E-06
2.109453E+03	5.018954E-05	2.417977E-06
2.149254E+03	5.167911E-05	2.471030E-06
2.189055E+03	5.361866E-05	2.543965E-06
2.228856E+03	5.597844E-05	2.634833E-06
2.268657E+03	5.868189E-05	2.739530E-06
2.308458E+03	6.162661E-05	2.852855E-06
2.348259E+03	6.476378E-05	2.972212E-06
2.388060E+03	6.803713E-05	3.094736E-06
2.427861E+03	7.145182E-05	3.220414E-06
2.467662E+03	7.499430E-05	3.348383E-06
2.507463E+03	7.867548E-05	3.478878E-06
2.547264E+03	8.249383E-05	3.611564E-06
2.587065E+03	8.645436E-05	3.746386E-06
2.626866E+03	9.053012E-05	3.881905E-06
2.666667E+03	9.470855E-05	4.017333E-06
2.706468E+03	9.896655E-05	4.151461E-06
2.746269E+03	1.032417E-04	4.281491E-06
2.786070E+03	1.074839E-04	4.405250E-06
2.825871E+03	1.116157E-04	4.519548E-06
2.865672E+03	1.155602E-04	4.621393E-06
2.905473E+03	1.192018E-04	4.706415E-06
2.945274E+03	1.224785E-04	4.772589E-06
2.985075E+03	1.252583E-04	4.815349E-06
2.995025E+03	1.258613E-04	4.821914E-06
3.004975E+03	1.264340E-04	4.827109E-06
3.014925E+03	1.269755E-04	4.830908E-06
3.024876E+03	1.274706E-04	4.832747E-06
3.034826E+03	1.279353E-04	4.833246E-06
3.044776E+03	1.283558E-04	4.831904E-06
3.054726E+03	1.287464E-04	4.829268E-06
3.064677E+03	1.291065E-04	4.825329E-06
3.074627E+03	1.294211E-04	4.819546E-06
3.084577E+03	1.297052E-04	4.812488E-06
3.094527E+03	1.299591E-04	4.804181E-06
3.104478E+03	1.301691E-04	4.794130E-06
3.114428E+03	1.303507E-04	4.782929E-06
3.124378E+03	1.304911E-04	4.770116E-06
3.134328E+03	1.306209E-04	4.756823E-06
3.144279E+03	1.307135E-04	4.742090E-06
3.154229E+03	1.307715E-04	4.726029E-06
3.164179E+03	1.308121E-04	4.709273E-06
3.174129E+03	1.308383E-04	4.691940E-06
3.184080E+03	1.308538E-04	4.674162E-06
3.194030E+03	1.308622E-04	4.656076E-06
3.203980E+03	1.308537E-04	4.637340E-06
3.213930E+03	1.308466E-04	4.618604E-06
3.223881E+03	1.308317E-04	4.599549E-06
3.233831E+03	1.308274E-04	4.580822E-06
3.243781E+03	1.308522E-04	4.563060E-06
3.253731E+03	1.308705E-04	4.545021E-06
3.263682E+03	1.309279E-04	4.528278E-06
3.273632E+03	1.310026E-04	4.512073E-06
3.283582E+03	1.311265E-04	4.497486E-06
3.293532E+03	1.312782E-04	4.483770E-06
3.303483E+03	1.314632E-04	4.471097E-06
3.313433E+03	1.317124E-04	4.460506E-06
3.323383E+03	1.320051E-04	4.451264E-06
3.333333E+03	1.323591E-04	4.443954E-06
3.343284E+03	1.327792E-04	4.438709E-06
3.353234E+03	1.332699E-04	4.435657E-06
3.363184E+03	1.338360E-04	4.434916E-06
3.373134E+03	1.344690E-04	4.436178E-06
3.383085E+03	1.351858E-04	4.439972E-06
3.393035E+03	1.359905E-04	4.446390E-06
3.402985E+03	1.368868E-04	4.455518E-06
3.412935E+03	1.378783E-04	4.467429E-06
3.422886E+03	1.389680E-04	4.482184E-06
3.432836E+03	1.401590E-04	4.499835E-06
3.442786E+03	1.414411E-04	4.520009E-06
3.452736E+03	1.428290E-04	4.543137E-06
3.462687E+03	1.443240E-04	4.569216E-06
3.472637E+03	1.459400E-04	4.598632E-06
3.482587E+03	1.476388E-04	4.630133E-06
3.492537E+03	1.494589E-04	4.664886E-06
3.502488E+03	1.513870E-04	4.702426E-06
3.512438E+03	1.534228E-04	4.742690E-06
3.522388E+03	1.555524E-04	4.785209E-06
3.532338E+03	1.578018E-04	4.830735E-06
3.542289E+03	1.601442E-04	4.878398E-06
3.552239E+03	1.626065E-04	4.928970E-06
3.562189E+03	1.651620E-04	4.981597E-06
3.572139E+03	1.678252E-04	5.036669E-06
3.582090E+03	1.705975E-04	5.094183E-06
3.592040E+03	1.734811E-04	5.154154E-06
3.601990E+03	1.764788E-04	5.216621E-06
3.611940E+03	1.795944E-04	5.281639E-06
3.621891E+03	1.828180E-04	5.348868E-06
3.631841E+03	1.861836E-04	5.419256E-06
3.641791E+03	1.896835E-04	5.492513E-06
3.651741E+03	1.933101E-04	5.568361E-06
3.661692E+03	1.971012E-04	5.647833E-06
3.671642E+03	2.010362E-04	5.730265E-06
3.681592E+03	2.051554E-04	5.816744E-06
3.691542E+03	2.094391E-04	5.906629E-06
3.701493E+03	2.139142E-04	6.000607E-06
3.711443E+03	2.185929E-04	6.098934E-06
3.721393E+03	2.234877E-04	6.201874E-06
3.731343E+03	2.286116E-04	6.309688E-06
3.741294E+03	2.339772E-04	6.422626E-06
3.751244E+03	2.395796E-04	6.540452E-06
3.761194E+03	2.454644E-04	6.664308E-06
3.771144E+03	2.516253E-04	6.793898E-06
3.781095E+03	2.580529E-04	6.928856E-06
3.791045E+03	2.647713E-04	7.069714E-06
3.800995E+03	2.717844E-04	7.216458E-06
3.810945E+03	2.790930E-04	7.368984E-06
3.820896E+03	2.866937E-04	7.527085E-06
3.830846E+03	2.945787E-04	7.690439E-06
3.840796E+03	3.027145E-04	7.858063E-06
3.850746E+03	3.111223E-04	8.030408E-06
3.860697E+03	3.197355E-04	8.205659E-06
3.870647E+03	3.285417E-04	8.383427E-06
3.880597E+03	3.375014E-04	8.562641E-06
3.890547E+03	3.465466E-04	8.741539E-06
3.900498E+03	3.556486E-04	8.919384E-06
3.910448E+03	3.647764E-04	9.095398E-06
3.920398E+03	3.738050E-04	9.266496E-06
3.930348E+03	3.827506E-04	9.433140E-06
3.940299E+03	3.915135E-04	9.592954E-06
3.950249E+03	4.000665E-04	9.745372E-06
3.960199E+03	4.083606E-04	9.889330E-06
3.970149E+03	4.163231E-04	1.002321E-05
3.980100E+03	4.239313E-04	1.014664E-05
3.990050E+03	4.311395E-04	1.025871E-05
4.000000E+03	4.378766E-04	1.035792E-05
4.009950E+03	4.441278E-04	1.044417E-05
4.019900E+03	4.498333E-04	1.051628E-05
4.029851E+03	4.549945E-04	1.057454E-05
4.039801E+03	4.595723E-04	1.061830E-05
4.049751E+03	4.635970E-04	1.064850E-05
4.059701E+03	4.670870E-04	1.066584E-05
4.069652E+03	4.700476E-04	1.067067E-05
4.079602E+03	4.725231E-04	1.066422E-05
4.089552E+03	4.745928E-04	1.064848E-05
4.099502E+03	4.762836E-04	1.062426E-05
4.109453E+03	4.776728E-04	1.059341E-05
4.119403E+03	4.787537E-04	1.055595E-05
4.129353E+03	4.796466E-04	1.051464E-05
4.139303E+03	4.803087E-04	1.046865E-05
4.149254E+03	4.808238E-04	1.041989E-05
4.159204E+03	4.811952E-04	1.036852E-05
4.169154E+03	4.814529E-04	1.031524E-05
4.179104E+03	4.816500E-04	1.026126E-05
4.189055E+03	4.817621E-04	1.020609E-05
4.199005E+03	4.818627E-04	1.015134E-05
4.208955E+03	4.819471E-04	1.009693E-05
4.218905E+03	4.820341E-04	1.004327E-05
4.228856E+03	4.821162E-04	9.990223E-06
4.238806E+03	4.822596E-04	9.939184E-06
4.248756E+03	4.824537E-04	9.889931E-06
4.258706E+03	4.827138E-04	9.842777E-06
4.268657E+03	4.830516E-04	9.797961E-06
4.278607E+03	4.834782E-04	9.755701E-06
4.288557E+03	4.839753E-04	9.715627E-06
4.298507E+03	4.845954E-04	9.678781E-06
4.308458E+03	4.852947E-04	9.644284E-06
4.318408E+03	4.860993E-04	9.612645E-06
4.328358E+03	4.870135E-04	9.583948E-06
4.338308E+03	4.880173E-04	9.557788E-06
4.348259E+03	4.891383E-04	9.534707E-06
4.358209E+03	4.903818E-04	9.514798E-06
4.368159E+03	4.917302E-04	9.497714E-06
4.378109E+03	4.932132E-04	9.484025E-06
4.388060E+03	4.948378E-04	9.473859E-06
4.398010E+03	4.965907E-04	9.466954E-06
4.407960E+03	4.985053E-04	9.463936E-06
4.417910E+03	5.005671E-04	9.464489E-06
4.427861E+03	5.028006E-04	9.469031E-06
4.437811E+03	5.051768E-04	9.476972E-06
4.447761E+03	5.076798E-04	9.487974E-06
4.457711E+03	5.103150E-04	9.502098E-06
4.467662E+03	5.130399E-04	9.518523E-06
4.477612E+03	5.158332E-04	9.536827E-06
4.487562E+03	5.186960E-04	9.557003E-06
4.497512E+03	5.215816E-04	9.578173E-06
4.507463E+03	5.244644E-04	9.599853E-06
4.517413E+03	5.273342E-04	9.621843E-06
4.527363E+03	5.301031E-04	9.642537E-06
4.537313E+03	5.327681E-04	9.661883E-06
4.547264E+03	5.352529E-04	9.678503E-06
4.557214E+03	5.375018E-04	9.691404E-06
4.567164E+03	5.394824E-04	9.700024E-06
4.577114E+03	5.411007E-04	9.702698E-06
4.587065E+03	5.423401E-04	9.699159E-06
4.597015E+03	5.431708E-04	9.688910E-06
4.606965E+03	5.435941E-04	9.672003E-06
4.616915E+03	5.435541E-04	9.647477E-06
4.626866E+03	5.430917E-04	9.616090E-06
4.636816E+03	5.421657E-04	9.577138E-06
4.646766E+03	5.408080E-04	9.531211E-06
4.656716E+03	5.390541E-04	9.478958E-06
4.666667E+03	5.368816E-04	9.419998E-06
4.676617E+03	5.343366E-04	9.355158E-06
4.686567E+03	5.314507E-04	9.285000E-06
4.696517E+03	5.282607E-04	9.210171E-06
4.706468E+03	5.247912E-04	9.131102E-06
4.716418E+03	5.211326E-04	9.049358E-06
4.726368E+03	5.172959E-04	8.965121E-06
4.736318E+03	5.133753E-04	8.880009E-06
4.746269E+03	5.093855E-04	8.794254E-06
4.756219E+03	5.053865E-04	8.708871E-06
4.766169E+03	5.014810E-04	8.625598E-06
4.776119E+03	4.977209E-04	8.545293E-06
4.786070E+03	4.941692E-04	8.468999E-06
4.796020E+03	4.909443E-04	8.398697E-06
4.805970E+03	4.881547E-04	8.336190E-06
4.815920E+03	4.858939E-04	8.283011E-06
4.825871E+03	4.843105E-04	8.241623E-06
4.835821E+03	4.834691E-04	8.213045E-06
4.845771E+03	4.834582E-04	8.198695E-06
4.855721E+03	4.843039E-04	8.198929E-06
4.865672E+03	4.859825E-04	8.213256E-06
4.875622E+03	4.884920E-04	8.241556E-06
4.885572E+03	4.918043E-04	8.283271E-06
4.895522E+03	4.958863E-04	8.337763E-06
4.905473E+03	5.006814E-04	8.404001E-06
4.915423E+03	5.061641E-04	8.481487E-06
4.925373E+03	5.122801E-04	8.569242E-06
4.935323E+03	5.189544E-04	8.665944E-06
4.945274E+03	5.260638E-04	8.769481E-06
4.955224E+03	5.334956E-04	8.877927E-06
4.965174E+03	5.410934E-04	8.988644E-06
4.975124E+03	5.486753E-04	9.098591E-06
4.985075E+03	5.560290E-04	9.204241E-06
4.995025E+03	5.630101E-04	9.303217E-06
5.004975E+03	5.694292E-04	9.392417E-06
5.014925E+03	5.751735E-04	9.470025E-06
5.024876E+03	5.802324E-04	9.535914E-06
5.034826E+03	5.845907E-04	9.589891E-06
5.044776E+03	5.883530E-04	9.633721E-06
5.054726E+03	5.916256E-04	9.669190E-06
5.064677E+03	5.945026E-04	9.697872E-06
5.074627E+03	5.971346E-04	9.722251E-06
5.084577E+03	5.995653E-04	9.743057E-06
5.094527E+03	6.018611E-04	9.761378E-06
5.104478E+03	6.040379E-04	9.777485E-06
5.114428E+03	6.060698E-04	9.790968E-06
5.124378E+03	6.079763E-04	9.802152E-06
5.134328E+03	6.096839E-04	9.809870E-06
5.144279E+03	6.111836E-04	9.813995E-06
5.154229E+03	6.124541E-04	9.814209E-06
5.164179E+03	6.134779E-04	9.810254E-06
5.174129E+03	6.142166E-04	9.801548E-06
5.184080E+03	6.146699E-04	9.788119E-06
5.194030E+03	6.148331E-04	9.769924E-06
5.203980E+03	6.146341E-04	9.745857E-06
5.213930E+03	6.140604E-04	9.715761E-06
5.223881E+03	6.130823E-04	9.679217E-06
5.233831E+03	6.116732E-04	9.635853E-06
5.243781E+03	6.099028E-04	9.586821E-06
5.253731E+03	6.078011E-04	9.532637E-06
5.263682E+03	6.054095E-04	9.473993E-06
5.273632E+03	6.028140E-04	9.412277E-06
5.283582E+03	6.001018E-04	9.348878E-06
5.293532E+03	5.972975E-04	9.284203E-06
5.303483E+03	5.944849E-04	9.219574E-06
5.313433E+03	5.917255E-04	9.155955E-06
5.323383E+03	5.890789E-04	9.094276E-06
5.333333E+03	5.866002E-04	9.035386E-06
5.343284E+03	5.843418E-04	8.980086E-06
5.353234E+03	5.823512E-04	8.929095E-06
5.363184E+03	5.806671E-04	8.882991E-06
5.373134E+03	5.793223E-04	8.842257E-06
5.383085E+03	5.783364E-04	8.807171E-06
5.393035E+03	5.776969E-04	8.777523E-06
5.402985E+03	5.774358E-04	8.753778E-06
5.412935E+03	5.775131E-04	8.735306E-06
5.422886E+03	5.778914E-04	8.721528E-06
5.432836E+03	5.785181E-04	8.711638E-06
5.442786E+03	5.793281E-04	8.704650E-06
5.452736E+03	5.802403E-04	8.699351E-06
5.462687E+03	5.811786E-04	8.694610E-06
5.472637E+03	5.819955E-04	8.688224E-06
5.482587E+03	5.825822E-04	8.678577E-06
5.492537E+03	5.828211E-04	8.663932E-06
5.502488E+03	5.825382E-04	8.641729E-06
5.512438E+03	5.816470E-04	8.610729E-06
5.522388E+03	5.800233E-04	8.569140E-06
5.532338E+03	5.776032E-04	8.516077E-06
5.542289E+03	5.743828E-04	8.451542E-06
5.552239E+03	5.704087E-04	8.376281E-06
5.562189E+03	5.657814E-04	8.291823E-06
5.572139E+03	5.606755E-04	8.200768E-06
5.582090E+03	5.552575E-04	8.105577E-06
5.592040E+03	5.497128E-04	8.008970E-06
5.601990E+03	5.442089E-04	7.913382E-06
5.611940E+03	5.388904E-04	7.820901E-06
5.621891E+03	5.338921E-04	7.733456E-06
5.631841E+03	5.292785E-04	7.651945E-06
5.641791E+03	5.251105E-04	7.577212E-06
5.651741E+03	5.214408E-04	7.509972E-06
5.661692E+03	5.183401E-04	7.451196E-06
5.671642E+03	5.158498E-04	7.401430E-06
5.681592E+03	5.140431E-04	7.361669E-06
5.691542E+03	5.130346E-04	7.333494E-06
5.701493E+03	5.129008E-04	7.317936E-06
5.711443E+03	5.138065E-04	7.317267E-06
5.721393E+03	5.158095E-04	7.332233E-06
5.731343E+03	5.190423E-04	7.364629E-06
5.741294E+03	5.235637E-04	7.415194E-06
5.751244E+03	5.294270E-04	7.484590E-06
5.761194E+03	5.365956E-04	7.572201E-06
5.771144E+03	5.450737E-04	7.677996E-06
5.781095E+03	5.546906E-04	7.799486E-06
5.791045E+03	5.653244E-04	7.934886E-06
5.800995E+03	5.766752E-04	8.079933E-06
5.810945E+03	5.884630E-04	8.230671E-06
5.820896E+03	6.002908E-04	8.381546E-06
5.830846E+03	6.117744E-04	8.527218E-06
5.840796E+03	6.225073E-04	8.662077E-06
5.850746E+03	6.320483E-04	8.780067E-06
5.860697E+03	6.400949E-04	8.877100E-06
5.870647E+03	6.462748E-04	8.948146E-06
5.880597E+03	6.503841E-04	8.990537E-06
5.890547E+03	6.522454E-04	9.001982E-06
5.900498E+03	6.517400E-04	8.981014E-06
5.910448E+03	6.488811E-04	8.927981E-06
5.920398E+03	6.437351E-04	8.843961E-06
5.930348E+03	6.365284E-04	8.732209E-06
5.940299E+03	6.275273E-04	8.596506E-06
5.950249E+03	6.170965E-04	8.441952E-06
5.960199E+03	6.056224E-04	8.273906E-06
5.970149E+03	5.934808E-04	8.097554E-06
5.980100E+03	5.810500E-04	7.918084E-06
5.990050E+03	5.687098E-04	7.740673E-06
6.000000E+03	5.567031E-04	7.568612E-06
6.009950E+03	5.453404E-04	7.406099E-06
6.019900E+03	5.347858E-04	7.255323E-06
6.029851E+03	5.251983E-04	7.118399E-06
6.039801E+03	5.167324E-04	6.997379E-06
6.049751E+03	5.094314E-04	6.892804E-06
6.059701E+03	5.033497E-04	6.805370E-06
6.069652E+03	4.985461E-04	6.735837E-06
6.079602E+03	4.950590E-04	6.684693E-06
6.089552E+03	4.929236E-04	6.652391E-06
6.099502E+03	4.921611E-04	6.639202E-06
6.109453E+03	4.928276E-04	6.645875E-06
6.119403E+03	4.949513E-04	6.672794E-06
6.129353E+03	4.986149E-04	6.721085E-06
6.139303E+03	5.038390E-04	6.791053E-06
6.149254E+03	5.106997E-04	6.883758E-06
6.159204E+03	5.192358E-04	6.999776E-06
6.169154E+03	5.295133E-04	7.140061E-06
6.179104E+03	5.415490E-04	7.304923E-06
6.189055E+03	5.552854E-04	7.493683E-06
6.199005E+03	5.705168E-04	7.703644E-06
6.208955E+03	5.869407E-04	7.930787E-06
6.218905E+03	6.041016E-04	8.169017E-06
6.228856E+03	6.214114E-04	8.410434E-06
6.238806E+03	6.381811E-04	8.645736E-06
6.248756E+03	6.536827E-04	8.865050E-06
6.258706E+03	6.673038E-04	9.060021E-06
6.268657E+03	6.785130E-04	9.223344E-06
6.278607E+03	6.869333E-04	9.349761E-06
6.288557E+03	6.924100E-04	9.437000E-06
6.298507E+03	6.949497E-04	9.484964E-06
6.308458E+03	6.947462E-04	9.496096E-06
6.318408E+03	6.920930E-04	9.474206E-06
6.328358E+03	6.873742E-04	9.424362E-06
6.338308E+03	6.810367E-04	9.352515E-06
6.348259E+03	6.735779E-04	9.265352E-06
6.358209E+03	6.654990E-04	9.169647E-06
6.368159E+03	6.572243E-04	9.071168E-06
6.378109E+03	6.491569E-04	8.975424E-06
6.388060E+03	6.415230E-04	8.885520E-06
6.398010E+03	6.345296E-04	8.804315E-06
6.407960E+03	6.282573E-04	8.732937E-06
6.417910E+03	6.227313E-04	8.671758E-06
6.427861E+03	6.178438E-04	8.619291E-06
6.437811E+03	6.134850E-04	8.574021E-06
6.447761E+03	6.094648E-04	8.533295E-06
6.457711E+03	6.056618E-04	8.495406E-06
6.467662E+03	6.019147E-04	8.458079E-06
6.477612E+03	5.981158E-04	8.419773E-06
6.487562E+03	5.942019E-04	8.379570E-06
6.497512E+03	5.901674E-04	8.337360E-06
6.507463E+03	5.860375E-04	8.293468E-06
6.517413E+03	5.818170E-04	8.247936E-06
6.527363E+03	5.775528E-04	8.201406E-06
6.537313E+03	5.732168E-04	8.153457E-06
6.547264E+03	5.687938E-04	8.103851E-06
6.557214E+03	5.642634E-04	8.052281E-06
6.567164E+03	5.596044E-04	7.998421E-06
6.577114E+03	5.547953E-04	7.941945E-06
6.587065E+03	5.498143E-04	7.882523E-06
6.597015E+03	5.446365E-04	7.819776E-06
6.606965E+03	5.392241E-04	7.753145E-06
6.616915E+03	5.335416E-04	7.682099E-06
6.626866E+03	5.274808E-04	7.605061E-06
6.636816E+03	5.209840E-04	7.521177E-06
6.646766E+03	5.139842E-04	7.429453E-06
6.656716E+03	5.063869E-04	7.328499E-06
6.666667E+03	4.981298E-04	7.217389E-06
6.676617E+03	4.892532E-04	7.096682E-06
6.686567E+03	4.797828E-04	6.966736E-06
6.696517E+03	4.698042E-04	6.828778E-06
6.706468E+03	4.594439E-04	6.684645E-06
6.716418E+03	4.488704E-04	6.536792E-06
6.726368E+03	4.382192E-04	6.387207E-06
6.736318E+03	4.277013E-04	6.238984E-06
6.746269E+03	4.174634E-04	6.094292E-06
6.756219E+03	4.077050E-04	5.956078E-06
6.766169E+03	3.985663E-04	5.826425E-06
6.776119E+03	3.901861E-04	5.707404E-06
6.786070E+03	3.826818E-04	5.600773E-06
6.796020E+03	3.761618E-04	5.508159E-06
6.805970E+03	3.706779E-04	5.430358E-06
6.815920E+03	3.663319E-04	5.368900E-06
6.825871E+03	3.631850E-04	5.324715E-06
6.835821E+03	3.613154E-04	5.298979E-06
6.845771E+03	3.608058E-04	5.292933E-06
6.855721E+03	3.617457E-04	5.307911E-06
6.865672E+03	3.642300E-04	5.345325E-06
6.875622E+03	3.683666E-04	5.406774E-06
6.885572E+03	3.742155E-04	5.493146E-06
6.895522E+03	3.818838E-04	5.606020E-06
6.905473E+03	3.914198E-04	5.746104E-06
6.915423E+03	4.028506E-04	5.913792E-06
6.925373E+03	4.161639E-04	6.108893E-06
6.935323E+03	4.313033E-04	6.330569E-06
6.945274E+03	4.480730E-04	6.575930E-06
6.955224E+03	4.662455E-04	6.841620E-06
6.965174E+03	4.854200E-04	7.121747E-06
6.975124E+03	5.051426E-04	7.409638E-06
6.985075E+03	5.248024E-04	7.696330E-06
6.995025E+03	5.437486E-04	7.972285E-06
7.004975E+03	5.613292E-04	8.227963E-06
7.014925E+03	5.769255E-04	8.454324E-06
7.024876E+03	5.900412E-04	8.644138E-06
7.034826E+03	6.002942E-04	8.791865E-06
7.044776E+03	6.075458E-04	8.895535E-06
7.054726E+03	6.118356E-04	8.955796E-06
7.064677E+03	6.133302E-04	8.975155E-06
7.074627E+03	6.124413E-04	8.959706E-06
7.084577E+03	6.096283E-04	8.916227E-06
7.094527E+03	6.054693E-04	8.853232E-06
7.104478E+03	6.005707E-04	8.779631E-06
7.114428E+03	5.956079E-04	8.705337E-06
7.124378E+03	5.911618E-04	8.638872E-06
7.134328E+03	5.877884E-04	8.588389E-06
7.144279E+03	5.859489E-04	8.560655E-06
7.154229E+03	5.859558E-04	8.560268E-06
7.164179E+03	5.880766E-04	8.591170E-06
7.174129E+03	5.923784E-04	8.654391E-06
7.184080E+03	5.987788E-04	8.748786E-06
7.194030E+03	6.070543E-04	8.871161E-06
7.203980E+03	6.168352E-04	9.016194E-06
7.213930E+03	6.276777E-04	9.177496E-06
7.223881E+03	6.389261E-04	9.345571E-06
7.233831E+03	6.499375E-04	9.511115E-06
7.243781E+03	6.599096E-04	9.662470E-06
7.253731E+03	6.681222E-04	9.789153E-06
7.263682E+03	6.738233E-04	9.880182E-06
7.273632E+03	6.764869E-04	9.927836E-06
7.283582E+03	6.757346E-04	9.926511E-06
7.293532E+03	6.714015E-04	9.873691E-06
7.303483E+03	6.635578E-04	9.770273E-06
7.313433E+03	6.525569E-04	9.621289E-06
7.323383E+03	6.388044E-04	9.432535E-06
7.333333E+03	6.229321E-04	9.213146E-06
7.343284E+03	6.055366E-04	8.971760E-06
7.353234E+03	5.872964E-04	8.718267E-06
7.363184E+03	5.688200E-04	8.461572E-06
7.373134E+03	5.507195E-04	8.210695E-06
7.383085E+03	5.333995E-04	7.971632E-06
7.393035E+03	5.171901E-04	7.749326E-06
7.402985E+03	5.022797E-04	7.546650E-06
7.412935E+03	4.887268E-04	7.364566E-06
7.422886E+03	4.765376E-04	7.203273E-06
7.432836E+03	4.655844E-04	7.060957E-06
7.442786E+03	4.557840E-04	6.936477E-06
7.452736E+03	4.471142E-04	6.829622E-06
7.462687E+03	4.395023E-04	6.739417E-06
7.472637E+03	4.329249E-04	6.665650E-06
7.482587E+03	4.273300E-04	6.607678E-06
7.492537E+03	4.226416E-04	6.564458E-06
7.502488E+03	4.188106E-04	6.535348E-06
7.512438E+03	4.157653E-04	6.519349E-06
7.522388E+03	4.134024E-04	6.514963E-06
7.532338E+03	4.116143E-04	6.520600E-06
7.542289E+03	4.102246E-04	6.533551E-06
7.552239E+03	4.090180E-04	6.550435E-06
7.562189E+03	4.078289E-04	6.568598E-06
7.572139E+03	4.065071E-04	6.585575E-06
7.582090E+03	4.050300E-04	6.600924E-06
7.592040E+03	4.033851E-04	6.614355E-06
7.601990E+03	4.017313E-04	6.628406E-06
7.611940E+03	4.001905E-04	6.645053E-06
7.621891E+03	3.989171E-04	6.666876E-06
7.631841E+03	3.980620E-04	6.696467E-06
7.641791E+03	3.976538E-04	6.734413E-06
7.651741E+03	3.977570E-04	6.781938E-06
7.661692E+03	3.982757E-04	6.837546E-06
7.671642E+03	3.990850E-04	6.899203E-06
7.681592E+03	4.000361E-04	6.964401E-06
7.691542E+03	4.009287E-04	7.029663E-06
7.701493E+03	4.015295E-04	7.090827E-06
7.711443E+03	4.016472E-04	7.144356E-06
7.721393E+03	4.010864E-04	7.186542E-06
