#wls	flux	fluxerr
1.592040E+03	3.957007E-05	2.126259E-06
1.631841E+03	4.047821E-05	2.163495E-06
1.671642E+03	4.141354E-05	2.201393E-06
1.711443E+03	4.235454E-05	2.238768E-06
1.751244E+03	4.332101E-05	2.276634E-06
1.791045E+03	4.429085E-05	2.313789E-06
1.830846E+03	4.526795E-05	2.350408E-06
1.870647E+03	4.623072E-05	2.385346E-06
1.910448E+03	4.716302E-05	2.417764E-06
1.950249E+03	4.805156E-05	2.446992E-06
1.990050E+03	4.890570E-05	2.473524E-06
2.029851E+03	4.975283E-05	2.498751E-06
2.069652E+03	5.069924E-05	2.527954E-06
2.109453E+03	5.187077E-05	2.567229E-06
2.149254E+03	5.343053E-05	2.624310E-06
2.189055E+03	5.544013E-05	2.701718E-06
2.228856E+03	5.790435E-05	2.799117E-06
2.268657E+03	6.071846E-05	2.910890E-06
2.308458E+03	6.379613E-05	3.032445E-06
2.348259E+03	6.706852E-05	3.160139E-06
2.388060E+03	7.050924E-05	3.292415E-06
2.427861E+03	7.410510E-05	3.428365E-06
2.467662E+03	7.784338E-05	3.567115E-06
2.507463E+03	8.173676E-05	3.708959E-06
2.547264E+03	8.579723E-05	3.854131E-06
2.587065E+03	9.001991E-05	4.002084E-06
2.626866E+03	9.439105E-05	4.151885E-06
2.666667E+03	9.889957E-05	4.302735E-06
2.706468E+03	1.034951E-04	4.452158E-06
2.746269E+03	1.081535E-04	4.598896E-06
2.786070E+03	1.127937E-04	4.739331E-06
2.825871E+03	1.173455E-04	4.870480E-06
2.865672E+03	1.217236E-04	4.988873E-06
2.905473E+03	1.257983E-04	5.089443E-06
2.945274E+03	1.294769E-04	5.168889E-06
2.985075E+03	1.326364E-04	5.222932E-06
2.995025E+03	1.333348E-04	5.232157E-06
3.004975E+03	1.339825E-04	5.239149E-06
3.014925E+03	1.345938E-04	5.244481E-06
3.024876E+03	1.351681E-04	5.248144E-06
3.034826E+03	1.356906E-04	5.249582E-06
3.044776E+03	1.361933E-04	5.250049E-06
3.054726E+03	1.366287E-04	5.247729E-06
3.064677E+03	1.370423E-04	5.244392E-06
3.074627E+03	1.374029E-04	5.238855E-06
3.084577E+03	1.377256E-04	5.231719E-06
3.094527E+03	1.380107E-04	5.223005E-06
3.104478E+03	1.382587E-04	5.212754E-06
3.114428E+03	1.384556E-04	5.200451E-06
3.124378E+03	1.386179E-04	5.186738E-06
3.134328E+03	1.387325E-04	5.171142E-06
3.144279E+03	1.388316E-04	5.154876E-06
3.154229E+03	1.388879E-04	5.136944E-06
3.164179E+03	1.389195E-04	5.118028E-06
3.174129E+03	1.389299E-04	5.098264E-06
3.184080E+03	1.389228E-04	5.077804E-06
3.194030E+03	1.388880E-04	5.056285E-06
3.203980E+03	1.388591E-04	5.034931E-06
3.213930E+03	1.388121E-04	5.012877E-06
3.223881E+03	1.387664E-04	4.990835E-06
3.233831E+03	1.387275E-04	4.968994E-06
3.243781E+03	1.387009E-04	4.947550E-06
3.253731E+03	1.386784E-04	4.926211E-06
3.263682E+03	1.386936E-04	4.906157E-06
3.273632E+03	1.387245E-04	4.886608E-06
3.283582E+03	1.387911E-04	4.868248E-06
3.293532E+03	1.388990E-04	4.851263E-06
3.303483E+03	1.390673E-04	4.836302E-06
3.313433E+03	1.392750E-04	4.822606E-06
3.323383E+03	1.395410E-04	4.810814E-06
3.333333E+03	1.398576E-04	4.800631E-06
3.343284E+03	1.402563E-04	4.793119E-06
3.353234E+03	1.407292E-04	4.787964E-06
3.363184E+03	1.412810E-04	4.785297E-06
3.373134E+03	1.419164E-04	4.785240E-06
3.383085E+03	1.426269E-04	4.787470E-06
3.393035E+03	1.434425E-04	4.792958E-06
3.402985E+03	1.443544E-04	4.801358E-06
3.412935E+03	1.453529E-04	4.812314E-06
3.422886E+03	1.464674E-04	4.826746E-06
3.432836E+03	1.476877E-04	4.844271E-06
3.442786E+03	1.490161E-04	4.864916E-06
3.452736E+03	1.504543E-04	4.888688E-06
3.462687E+03	1.519903E-04	4.915146E-06
3.472637E+03	1.536499E-04	4.945077E-06
3.482587E+03	1.554192E-04	4.977980E-06
3.492537E+03	1.572968E-04	5.013759E-06
3.502488E+03	1.592809E-04	5.052304E-06
3.512438E+03	1.613826E-04	5.093924E-06
3.522388E+03	1.635735E-04	5.137664E-06
3.532338E+03	1.658647E-04	5.183838E-06
3.542289E+03	1.682680E-04	5.232765E-06
3.552239E+03	1.707552E-04	5.283515E-06
3.562189E+03	1.733524E-04	5.336860E-06
3.572139E+03	1.760319E-04	5.391900E-06
3.582090E+03	1.788218E-04	5.449453E-06
3.592040E+03	1.817096E-04	5.509088E-06
3.601990E+03	1.846973E-04	5.570824E-06
3.611940E+03	1.877880E-04	5.634709E-06
3.621891E+03	1.910004E-04	5.701253E-06
3.631841E+03	1.943110E-04	5.769702E-06
3.641791E+03	1.977552E-04	5.841061E-06
3.651741E+03	2.013114E-04	5.914636E-06
3.661692E+03	2.050181E-04	5.991500E-06
3.671642E+03	2.088706E-04	6.071452E-06
3.681592E+03	2.128802E-04	6.154751E-06
3.691542E+03	2.170594E-04	6.241687E-06
3.701493E+03	2.214372E-04	6.333013E-06
3.711443E+03	2.259965E-04	6.428158E-06
3.721393E+03	2.307678E-04	6.527902E-06
3.731343E+03	2.357826E-04	6.633041E-06
3.741294E+03	2.410406E-04	6.743454E-06
3.751244E+03	2.465569E-04	6.859457E-06
3.761194E+03	2.523462E-04	6.981343E-06
3.771144E+03	2.584220E-04	7.109363E-06
3.781095E+03	2.647961E-04	7.243720E-06
3.791045E+03	2.714785E-04	7.384549E-06
3.800995E+03	2.784942E-04	7.532401E-06
3.810945E+03	2.858106E-04	7.686252E-06
3.820896E+03	2.934638E-04	7.846941E-06
3.830846E+03	3.014106E-04	8.013179E-06
3.840796E+03	3.096780E-04	8.185557E-06
3.850746E+03	3.182095E-04	8.362457E-06
3.860697E+03	3.270202E-04	8.544175E-06
3.870647E+03	3.360591E-04	8.729271E-06
3.880597E+03	3.452663E-04	8.916117E-06
3.890547E+03	3.546388E-04	9.104579E-06
3.900498E+03	3.641053E-04	9.292784E-06
3.910448E+03	3.735886E-04	9.478755E-06
3.920398E+03	3.830755E-04	9.662176E-06
3.930348E+03	3.924623E-04	9.840471E-06
3.940299E+03	4.017365E-04	1.001340E-05
3.950249E+03	4.107923E-04	1.017841E-05
3.960199E+03	4.195965E-04	1.033483E-05
3.970149E+03	4.280924E-04	1.048139E-05
3.980100E+03	4.362254E-04	1.061695E-05
3.990050E+03	4.439437E-04	1.074042E-05
4.000000E+03	4.511733E-04	1.085025E-05
4.009950E+03	4.578965E-04	1.094625E-05
4.019900E+03	4.640784E-04	1.102785E-05
4.029851E+03	4.696944E-04	1.109472E-05
4.039801E+03	4.747061E-04	1.114623E-05
4.049751E+03	4.791413E-04	1.118332E-05
4.059701E+03	4.830156E-04	1.120663E-05
4.069652E+03	4.863317E-04	1.121646E-05
4.079602E+03	4.891560E-04	1.121462E-05
4.089552E+03	4.915346E-04	1.120236E-05
4.099502E+03	4.934935E-04	1.118050E-05
4.109453E+03	4.950838E-04	1.115037E-05
4.119403E+03	4.963798E-04	1.111382E-05
4.129353E+03	4.974276E-04	1.107200E-05
4.139303E+03	4.982193E-04	1.102487E-05
4.149254E+03	4.988679E-04	1.097503E-05
4.159204E+03	4.993361E-04	1.092174E-05
4.169154E+03	4.997064E-04	1.086689E-05
4.179104E+03	4.999863E-04	1.081070E-05
4.189055E+03	5.002287E-04	1.075437E-05
4.199005E+03	5.004117E-04	1.069745E-05
4.208955E+03	5.006067E-04	1.064152E-05
4.218905E+03	5.008107E-04	1.058652E-05
4.228856E+03	5.010431E-04	1.053288E-05
4.238806E+03	5.013203E-04	1.048095E-05
4.248756E+03	5.016573E-04	1.043106E-05
4.258706E+03	5.020662E-04	1.038346E-05
4.268657E+03	5.025586E-04	1.033839E-05
4.278607E+03	5.031420E-04	1.029599E-05
4.288557E+03	5.037992E-04	1.025591E-05
4.298507E+03	5.045790E-04	1.021914E-05
4.308458E+03	5.054382E-04	1.018480E-05
4.318408E+03	5.064227E-04	1.015381E-05
4.328358E+03	5.074661E-04	1.012483E-05
4.338308E+03	5.086350E-04	1.009920E-05
4.348259E+03	5.098856E-04	1.007604E-05
4.358209E+03	5.112397E-04	1.005579E-05
4.368159E+03	5.126785E-04	1.003808E-05
4.378109E+03	5.142308E-04	1.002347E-05
4.388060E+03	5.159119E-04	1.001227E-05
4.398010E+03	5.177146E-04	1.000434E-05
4.407960E+03	5.196542E-04	9.999953E-06
4.417910E+03	5.217631E-04	9.999713E-06
4.427861E+03	5.240251E-04	1.000325E-05
4.437811E+03	5.264388E-04	1.001050E-05
4.447761E+03	5.290192E-04	1.002171E-05
4.457711E+03	5.317323E-04	1.003617E-05
4.467662E+03	5.345614E-04	1.005354E-05
4.477612E+03	5.374862E-04	1.007341E-05
4.487562E+03	5.404842E-04	1.009532E-05
4.497512E+03	5.435488E-04	1.011913E-05
4.507463E+03	5.466261E-04	1.014382E-05
4.517413E+03	5.496557E-04	1.016824E-05
4.527363E+03	5.526341E-04	1.019233E-05
4.537313E+03	5.554881E-04	1.021475E-05
4.547264E+03	5.581395E-04	1.023405E-05
4.557214E+03	5.605722E-04	1.024996E-05
4.567164E+03	5.626870E-04	1.026069E-05
4.577114E+03	5.644725E-04	1.026604E-05
4.587065E+03	5.658410E-04	1.026447E-05
4.597015E+03	5.667757E-04	1.025569E-05
4.606965E+03	5.672487E-04	1.023924E-05
4.616915E+03	5.672405E-04	1.021480E-05
4.626866E+03	5.667203E-04	1.018183E-05
4.636816E+03	5.657083E-04	1.014075E-05
4.646766E+03	5.642106E-04	1.009168E-05
4.656716E+03	5.622414E-04	1.003491E-05
4.666667E+03	5.598026E-04	9.970478E-06
4.676617E+03	5.569427E-04	9.899271E-06
4.686567E+03	5.536976E-04	9.821935E-06
4.696517E+03	5.500916E-04	9.738907E-06
4.706468E+03	5.461935E-04	9.651403E-06
4.716418E+03	5.420596E-04	9.560408E-06
4.726368E+03	5.377297E-04	9.466617E-06
4.736318E+03	5.332688E-04	9.371154E-06
4.746269E+03	5.287815E-04	9.275835E-06
4.756219E+03	5.243022E-04	9.181235E-06
4.766169E+03	5.199098E-04	9.088701E-06
4.776119E+03	5.157061E-04	8.999972E-06
4.786070E+03	5.117848E-04	8.916639E-06
4.796020E+03	5.082281E-04	8.840082E-06
4.805970E+03	5.051419E-04	8.772082E-06
4.815920E+03	5.026494E-04	8.714714E-06
4.825871E+03	5.008494E-04	8.669618E-06
4.835821E+03	4.998103E-04	8.637901E-06
4.845771E+03	4.996116E-04	8.620852E-06
4.855721E+03	5.002735E-04	8.618734E-06
4.865672E+03	5.018246E-04	8.631953E-06
4.875622E+03	5.042419E-04	8.660028E-06
4.885572E+03	5.075223E-04	8.702823E-06
4.895522E+03	5.116183E-04	8.759443E-06
4.905473E+03	5.165060E-04	8.829398E-06
4.915423E+03	5.221160E-04	8.911431E-06
4.925373E+03	5.283977E-04	9.004608E-06
4.935323E+03	5.352476E-04	9.107103E-06
4.945274E+03	5.425736E-04	9.217291E-06
4.955224E+03	5.502246E-04	9.332561E-06
4.965174E+03	5.580647E-04	9.450573E-06
4.975124E+03	5.659064E-04	9.568128E-06
4.985075E+03	5.735938E-04	9.682584E-06
4.995025E+03	5.809620E-04	9.791159E-06
5.004975E+03	5.878525E-04	9.891206E-06
5.014925E+03	5.941609E-04	9.980993E-06
5.024876E+03	5.998513E-04	1.005996E-05
5.034826E+03	6.049189E-04	1.012807E-05
5.044776E+03	6.093833E-04	1.018569E-05
5.054726E+03	6.133317E-04	1.023432E-05
5.064677E+03	6.168271E-04	1.027505E-05
5.074627E+03	6.199695E-04	1.030958E-05
5.084577E+03	6.228269E-04	1.033905E-05
5.094527E+03	6.254277E-04	1.036396E-05
5.104478E+03	6.277978E-04	1.038476E-05
5.114428E+03	6.299843E-04	1.040225E-05
5.124378E+03	6.319416E-04	1.041568E-05
5.134328E+03	6.336546E-04	1.042484E-05
5.144279E+03	6.351253E-04	1.042977E-05
5.154229E+03	6.363362E-04	1.043022E-05
5.164179E+03	6.372706E-04	1.042594E-05
5.174129E+03	6.378915E-04	1.041635E-05
5.184080E+03	6.381998E-04	1.040150E-05
5.194030E+03	6.381564E-04	1.038079E-05
5.203980E+03	6.377589E-04	1.035422E-05
5.213930E+03	6.369896E-04	1.032155E-05
5.223881E+03	6.358191E-04	1.028235E-05
5.233831E+03	6.342915E-04	1.023737E-05
5.243781E+03	6.323919E-04	1.018642E-05
5.253731E+03	6.301612E-04	1.013020E-05
5.263682E+03	6.276727E-04	1.006994E-05
5.273632E+03	6.250051E-04	1.000692E-05
5.283582E+03	6.221639E-04	9.941273E-06
5.293532E+03	6.192719E-04	9.874981E-06
5.303483E+03	6.163534E-04	9.808452E-06
5.313433E+03	6.134899E-04	9.742994E-06
5.323383E+03	6.107412E-04	9.679564E-06
5.333333E+03	6.081632E-04	9.619051E-06
5.343284E+03	6.057891E-04	9.561974E-06
5.353234E+03	6.037023E-04	9.509644E-06
5.363184E+03	6.019039E-04	9.462067E-06
5.373134E+03	6.004421E-04	9.419986E-06
5.383085E+03	5.993177E-04	9.383399E-06
5.393035E+03	5.985725E-04	9.352942E-06
5.402985E+03	5.981609E-04	9.327886E-06
5.412935E+03	5.980952E-04	9.308409E-06
5.422886E+03	5.982980E-04	9.293295E-06
5.432836E+03	5.987302E-04	9.281934E-06
5.442786E+03	5.993174E-04	9.273170E-06
5.452736E+03	5.999673E-04	9.265586E-06
5.462687E+03	6.005750E-04	9.257579E-06
5.472637E+03	6.010087E-04	9.247127E-06
5.482587E+03	6.011882E-04	9.233004E-06
5.492537E+03	6.009791E-04	9.213155E-06
5.502488E+03	6.002503E-04	9.185599E-06
5.512438E+03	5.989368E-04	9.149372E-06
5.522388E+03	5.969238E-04	9.102754E-06
5.532338E+03	5.942046E-04	9.045690E-06
5.542289E+03	5.907432E-04	8.977673E-06
5.552239E+03	5.866222E-04	8.900003E-06
5.562189E+03	5.819152E-04	8.813831E-06
5.572139E+03	5.767357E-04	8.720905E-06
5.582090E+03	5.712728E-04	8.624102E-06
5.592040E+03	5.656713E-04	8.525616E-06
5.601990E+03	5.600895E-04	8.427824E-06
5.611940E+03	5.546698E-04	8.332856E-06
5.621891E+03	5.495359E-04	8.242546E-06
5.631841E+03	5.447915E-04	8.158416E-06
5.641791E+03	5.405249E-04	8.081752E-06
5.651741E+03	5.368301E-04	8.013917E-06
5.661692E+03	5.337514E-04	7.955523E-06
5.671642E+03	5.314012E-04	7.908195E-06
5.681592E+03	5.298501E-04	7.872931E-06
5.691542E+03	5.291951E-04	7.851109E-06
5.701493E+03	5.295551E-04	7.844427E-06
5.711443E+03	5.310003E-04	7.853855E-06
5.721393E+03	5.336579E-04	7.881196E-06
5.731343E+03	5.375928E-04	7.927329E-06
5.741294E+03	5.428771E-04	7.993230E-06
5.751244E+03	5.494999E-04	8.078657E-06
5.761194E+03	5.574760E-04	8.183740E-06
5.771144E+03	5.667359E-04	8.307380E-06
5.781095E+03	5.771194E-04	8.447156E-06
5.791045E+03	5.884713E-04	8.600739E-06
5.800995E+03	6.005220E-04	8.764140E-06
5.810945E+03	6.129741E-04	8.932996E-06
5.820896E+03	6.254450E-04	9.101724E-06
5.830846E+03	6.375342E-04	9.264523E-06
5.840796E+03	6.488499E-04	9.415747E-06
5.850746E+03	6.589681E-04	9.549314E-06
5.860697E+03	6.675121E-04	9.659866E-06
5.870647E+03	6.741760E-04	9.743093E-06
5.880597E+03	6.786763E-04	9.795033E-06
5.890547E+03	6.808476E-04	9.813444E-06
5.900498E+03	6.805722E-04	9.796782E-06
5.910448E+03	6.778693E-04	9.745473E-06
5.920398E+03	6.728185E-04	9.660809E-06
5.930348E+03	6.656162E-04	9.545741E-06
5.940299E+03	6.565625E-04	9.404689E-06
5.950249E+03	6.459983E-04	9.242633E-06
5.960199E+03	6.342824E-04	9.064776E-06
5.970149E+03	6.218062E-04	8.876764E-06
5.980100E+03	6.089694E-04	8.684333E-06
5.990050E+03	5.961249E-04	8.492520E-06
6.000000E+03	5.835682E-04	8.305530E-06
6.009950E+03	5.715859E-04	8.127422E-06
6.019900E+03	5.603829E-04	7.961078E-06
6.029851E+03	5.501532E-04	7.809220E-06
6.039801E+03	5.410159E-04	7.673499E-06
6.049751E+03	5.330897E-04	7.555559E-06
6.059701E+03	5.264488E-04	7.456413E-06
6.069652E+03	5.211344E-04	7.376611E-06
6.079602E+03	5.172089E-04	7.317006E-06
6.089552E+03	5.146965E-04	7.277916E-06
6.099502E+03	5.136678E-04	7.260321E-06
6.109453E+03	5.141127E-04	7.264071E-06
6.119403E+03	5.161177E-04	7.290382E-06
6.129353E+03	5.196913E-04	7.339385E-06
6.139303E+03	5.248726E-04	7.411646E-06
6.149254E+03	5.317305E-04	7.508170E-06
6.159204E+03	5.402599E-04	7.628923E-06
6.169154E+03	5.504676E-04	7.774053E-06
6.179104E+03	5.623596E-04	7.943712E-06
6.189055E+03	5.758168E-04	8.136294E-06
6.199005E+03	5.906973E-04	8.349853E-06
6.208955E+03	6.067374E-04	8.580704E-06
6.218905E+03	6.235110E-04	8.822860E-06
6.228856E+03	6.404804E-04	9.068746E-06
6.238806E+03	6.570042E-04	9.309295E-06
6.248756E+03	6.724131E-04	9.535012E-06
6.258706E+03	6.861523E-04	9.737990E-06
6.268657E+03	6.976831E-04	9.910513E-06
6.278607E+03	7.066715E-04	1.004773E-05
6.288557E+03	7.129258E-04	1.014680E-05
6.298507E+03	7.163960E-04	1.020685E-05
6.308458E+03	7.172478E-04	1.023010E-05
6.318408E+03	7.156791E-04	1.021919E-05
6.328358E+03	7.120528E-04	1.017917E-05
6.338308E+03	7.067744E-04	1.011569E-05
6.348259E+03	7.002861E-04	1.003495E-05
6.358209E+03	6.930067E-04	9.942858E-06
6.368159E+03	6.853866E-04	9.845793E-06
6.378109E+03	6.777263E-04	9.748016E-06
6.388060E+03	6.703373E-04	9.653973E-06
6.398010E+03	6.633635E-04	9.565715E-06
6.407960E+03	6.569311E-04	9.485050E-06
6.417910E+03	6.510688E-04	9.412391E-06
6.427861E+03	6.457420E-04	9.347236E-06
6.437811E+03	6.408655E-04	9.288351E-06
6.447761E+03	6.363239E-04	9.234059E-06
6.457711E+03	6.319937E-04	9.182553E-06
6.467662E+03	6.277619E-04	9.132181E-06
6.477612E+03	6.235183E-04	9.081314E-06
6.487562E+03	6.192444E-04	9.029663E-06
6.497512E+03	6.148909E-04	8.976486E-06
6.507463E+03	6.104500E-04	8.921646E-06
6.517413E+03	6.059224E-04	8.865130E-06
6.527363E+03	6.013070E-04	8.806903E-06
6.537313E+03	5.965942E-04	8.746808E-06
6.547264E+03	5.917703E-04	8.684624E-06
6.557214E+03	5.868153E-04	8.620043E-06
6.567164E+03	5.817061E-04	8.552712E-06
6.577114E+03	5.764158E-04	8.482220E-06
6.587065E+03	5.709329E-04	8.408386E-06
6.597015E+03	5.651839E-04	8.330117E-06
6.606965E+03	5.591439E-04	8.247032E-06
6.616915E+03	5.527758E-04	8.158578E-06
6.626866E+03	5.459999E-04	8.063569E-06
6.636816E+03	5.387523E-04	7.961053E-06
6.646766E+03	5.309718E-04	7.850121E-06
6.656716E+03	5.226146E-04	7.730124E-06
6.666667E+03	5.136617E-04	7.600780E-06
6.676617E+03	5.041473E-04	7.462601E-06
6.686567E+03	4.940926E-04	7.315908E-06
6.696517E+03	4.836209E-04	7.162542E-06
6.706468E+03	4.728403E-04	7.004123E-06
6.716418E+03	4.618989E-04	6.842865E-06
6.726368E+03	4.509761E-04	6.681453E-06
6.736318E+03	4.402144E-04	6.522025E-06
6.746269E+03	4.298159E-04	6.367603E-06
6.756219E+03	4.199310E-04	6.220438E-06
6.766169E+03	4.107127E-04	6.082822E-06
6.776119E+03	4.022984E-04	5.956809E-06
6.786070E+03	3.948214E-04	5.844391E-06
6.796020E+03	3.883722E-04	5.746913E-06
6.805970E+03	3.830423E-04	5.665731E-06
6.815920E+03	3.789155E-04	5.602087E-06
6.825871E+03	3.760729E-04	5.557165E-06
6.835821E+03	3.746081E-04	5.532330E-06
6.845771E+03	3.745916E-04	5.528599E-06
6.855721E+03	3.761091E-04	5.547201E-06
6.865672E+03	3.792477E-04	5.589375E-06
6.875622E+03	3.840918E-04	5.656316E-06
6.885572E+03	3.907327E-04	5.749304E-06
6.895522E+03	3.992226E-04	5.869037E-06
6.905473E+03	4.096050E-04	6.016074E-06
6.915423E+03	4.218904E-04	6.190484E-06
6.925373E+03	4.360576E-04	6.391866E-06
6.935323E+03	4.519947E-04	6.618484E-06
6.945274E+03	4.695084E-04	6.867420E-06
6.955224E+03	4.883598E-04	7.135097E-06
6.965174E+03	5.081805E-04	7.416066E-06
6.975124E+03	5.284670E-04	7.702934E-06
6.985075E+03	5.487005E-04	7.988120E-06
6.995025E+03	5.682568E-04	8.262557E-06
7.004975E+03	5.864996E-04	8.517049E-06
7.014925E+03	6.029133E-04	8.744209E-06
7.024876E+03	6.169530E-04	8.936266E-06
7.034826E+03	6.282934E-04	9.088675E-06
7.044776E+03	6.367770E-04	9.199346E-06
7.054726E+03	6.423580E-04	9.267820E-06
7.064677E+03	6.452528E-04	9.297416E-06
7.074627E+03	6.457661E-04	9.292716E-06
7.084577E+03	6.443497E-04	9.260390E-06
7.094527E+03	6.415426E-04	9.208325E-06
7.104478E+03	6.379358E-04	9.145112E-06
7.114428E+03	6.341287E-04	9.079420E-06
7.124378E+03	6.306949E-04	9.019508E-06
7.134328E+03	6.281735E-04	8.973099E-06
7.144279E+03	6.269520E-04	8.945726E-06
7.154229E+03	6.273772E-04	8.942321E-06
7.164179E+03	6.296738E-04	8.966059E-06
7.174129E+03	6.338696E-04	9.017320E-06
7.184080E+03	6.399405E-04	9.095753E-06
7.194030E+03	6.476359E-04	9.197807E-06
7.203980E+03	6.566394E-04	9.319021E-06
7.213930E+03	6.665107E-04	9.453210E-06
7.223881E+03	6.766354E-04	9.591741E-06
7.233831E+03	6.863853E-04	9.725818E-06
7.243781E+03	6.950674E-04	9.845745E-06
7.253731E+03	7.019923E-04	9.941884E-06
7.263682E+03	7.065340E-04	1.000549E-05
7.273632E+03	7.081877E-04	1.002953E-05
7.283582E+03	7.066145E-04	1.000926E-05
7.293532E+03	7.016493E-04	9.942395E-06
7.303483E+03	6.934097E-04	9.830587E-06
7.313433E+03	6.821075E-04	9.676793E-06
7.323383E+03	6.681862E-04	9.487213E-06
7.333333E+03	6.521790E-04	9.269305E-06
7.343284E+03	6.346603E-04	9.031097E-06
7.353234E+03	6.162913E-04	8.781865E-06
7.363184E+03	5.976152E-04	8.529218E-06
7.373134E+03	5.791763E-04	8.280826E-06
7.383085E+03	5.614032E-04	8.042740E-06
7.393035E+03	5.446134E-04	7.819467E-06
7.402985E+03	5.289974E-04	7.613741E-06
7.412935E+03	5.146847E-04	7.427451E-06
7.422886E+03	5.017062E-04	7.261097E-06
7.432836E+03	4.900244E-04	7.114217E-06
7.442786E+03	4.796145E-04	6.986544E-06
7.452736E+03	4.704293E-04	6.877505E-06
7.462687E+03	4.624076E-04	6.786331E-06
7.472637E+03	4.555182E-04	6.712705E-06
7.482587E+03	4.497074E-04	6.655981E-06
7.492537E+03	4.449142E-04	6.615371E-06
7.502488E+03	4.410502E-04	6.589684E-06
7.512438E+03	4.380278E-04	6.577730E-06
7.522388E+03	4.357675E-04	6.578439E-06
7.532338E+03	4.340941E-04	6.589280E-06
7.542289E+03	4.328292E-04	6.607627E-06
7.552239E+03	4.317800E-04	6.630581E-06
7.562189E+03	4.307273E-04	6.654770E-06
7.572139E+03	4.294615E-04	6.676891E-06
7.582090E+03	4.279011E-04	6.695564E-06
7.592040E+03	4.260866E-04	6.711289E-06
7.601990E+03	4.241893E-04	6.726651E-06
7.611940E+03	4.223702E-04	6.744145E-06
7.621891E+03	4.207986E-04	6.766470E-06
7.631841E+03	4.195864E-04	6.795473E-06
7.641791E+03	4.187778E-04	6.831956E-06
7.651741E+03	4.183741E-04	6.876044E-06
7.661692E+03	4.183327E-04	6.927142E-06
7.671642E+03	4.185277E-04	6.983252E-06
7.681592E+03	4.188229E-04	7.042141E-06
7.691542E+03	4.190393E-04	7.100785E-06
7.701493E+03	4.189710E-04	7.155606E-06
7.711443E+03	4.184341E-04	7.203290E-06
7.721393E+03	4.172837E-04	7.241098E-06
