#wls	flux	fluxerr
1.592040E+03	3.172165E-05	1.494961E-06
1.631841E+03	3.244755E-05	1.521879E-06
1.671642E+03	3.317940E-05	1.548579E-06
1.711443E+03	3.392822E-05	1.575554E-06
1.751244E+03	3.468679E-05	1.602445E-06
1.791045E+03	3.545477E-05	1.629213E-06
1.830846E+03	3.621720E-05	1.655154E-06
1.870647E+03	3.696217E-05	1.679715E-06
1.910448E+03	3.768252E-05	1.702570E-06
1.950249E+03	3.836734E-05	1.723234E-06
1.990050E+03	3.901059E-05	1.741451E-06
2.029851E+03	3.964610E-05	1.758742E-06
2.069652E+03	4.035112E-05	1.778504E-06
2.109453E+03	4.122394E-05	1.804966E-06
2.149254E+03	4.238489E-05	1.843196E-06
2.189055E+03	4.389973E-05	1.895753E-06
2.228856E+03	4.573999E-05	1.961063E-06
2.268657E+03	4.783125E-05	2.035620E-06
2.308458E+03	5.010016E-05	2.116048E-06
2.348259E+03	5.247913E-05	2.199296E-06
2.388060E+03	5.494129E-05	2.284091E-06
2.427861E+03	5.747015E-05	2.369621E-06
2.467662E+03	6.005826E-05	2.455462E-06
2.507463E+03	6.270113E-05	2.541318E-06
2.547264E+03	6.540253E-05	2.627230E-06
2.587065E+03	6.813362E-05	2.711934E-06
2.626866E+03	7.090969E-05	2.795945E-06
2.666667E+03	7.367980E-05	2.877170E-06
2.706468E+03	7.644847E-05	2.955736E-06
2.746269E+03	7.917269E-05	3.029948E-06
2.786070E+03	8.180241E-05	3.097912E-06
2.825871E+03	8.431689E-05	3.158916E-06
2.865672E+03	8.667097E-05	3.211383E-06
2.905473E+03	8.879620E-05	3.252967E-06
2.945274E+03	9.068783E-05	3.283749E-06
2.985075E+03	9.229246E-05	3.302091E-06
2.995025E+03	9.265123E-05	3.304861E-06
3.004975E+03	9.298810E-05	3.306740E-06
3.014925E+03	9.330322E-05	3.307740E-06
3.024876E+03	9.360901E-05	3.308307E-06
3.034826E+03	9.389507E-05	3.308077E-06
3.044776E+03	9.417498E-05	3.307534E-06
3.054726E+03	9.442496E-05	3.305847E-06
3.064677E+03	9.466917E-05	3.303870E-06
3.074627E+03	9.490802E-05	3.301618E-06
3.084577E+03	9.511834E-05	3.298289E-06
3.094527E+03	9.532465E-05	3.294742E-06
3.104478E+03	9.552781E-05	3.291007E-06
3.114428E+03	9.570536E-05	3.286313E-06
3.124378E+03	9.588210E-05	3.281519E-06
3.134328E+03	9.605940E-05	3.276672E-06
3.144279E+03	9.622706E-05	3.271424E-06
3.154229E+03	9.638685E-05	3.265839E-06
3.164179E+03	9.654060E-05	3.259982E-06
3.174129E+03	9.670199E-05	3.254316E-06
3.184080E+03	9.686152E-05	3.248518E-06
3.194030E+03	9.702149E-05	3.242669E-06
3.203980E+03	9.719581E-05	3.237229E-06
3.213930E+03	9.737541E-05	3.231894E-06
3.223881E+03	9.757440E-05	3.227129E-06
3.233831E+03	9.777254E-05	3.222260E-06
3.243781E+03	9.800696E-05	3.218507E-06
3.253731E+03	9.824616E-05	3.214827E-06
3.263682E+03	9.851594E-05	3.212059E-06
3.273632E+03	9.880788E-05	3.209920E-06
3.283582E+03	9.913635E-05	3.208867E-06
3.293532E+03	9.949304E-05	3.208618E-06
3.303483E+03	9.988105E-05	3.209265E-06
3.313433E+03	1.003149E-04	3.211260E-06
3.323383E+03	1.007863E-04	3.214324E-06
3.333333E+03	1.012985E-04	3.218546E-06
3.343284E+03	1.018658E-04	3.224367E-06
3.353234E+03	1.024803E-04	3.231512E-06
3.363184E+03	1.031563E-04	3.240418E-06
3.373134E+03	1.038856E-04	3.250806E-06
3.383085E+03	1.046713E-04	3.262752E-06
3.393035E+03	1.055278E-04	3.276687E-06
3.402985E+03	1.064469E-04	3.292325E-06
3.412935E+03	1.074313E-04	3.309733E-06
3.422886E+03	1.084957E-04	3.329335E-06
3.432836E+03	1.096314E-04	3.350835E-06
3.442786E+03	1.108410E-04	3.374289E-06
3.452736E+03	1.121392E-04	3.400117E-06
3.462687E+03	1.135289E-04	3.428371E-06
3.472637E+03	1.149890E-04	3.458383E-06
3.482587E+03	1.165461E-04	3.490926E-06
3.492537E+03	1.181908E-04	3.525685E-06
3.502488E+03	1.199384E-04	3.563078E-06
3.512438E+03	1.217791E-04	3.602782E-06
3.522388E+03	1.237283E-04	3.645218E-06
3.532338E+03	1.257637E-04	3.689686E-06
3.542289E+03	1.279263E-04	3.737359E-06
3.552239E+03	1.301809E-04	3.787159E-06
3.562189E+03	1.325563E-04	3.839896E-06
3.572139E+03	1.350430E-04	3.895244E-06
3.582090E+03	1.376578E-04	3.953649E-06
3.592040E+03	1.403910E-04	4.014788E-06
3.601990E+03	1.432464E-04	4.078723E-06
3.611940E+03	1.462421E-04	4.145925E-06
3.621891E+03	1.493684E-04	4.216068E-06
3.631841E+03	1.526295E-04	4.289224E-06
3.641791E+03	1.560449E-04	4.365888E-06
3.651741E+03	1.596045E-04	4.445728E-06
3.661692E+03	1.633131E-04	4.528820E-06
3.671642E+03	1.671910E-04	4.615678E-06
3.681592E+03	1.712278E-04	4.705949E-06
3.691542E+03	1.754279E-04	4.799701E-06
3.701493E+03	1.798125E-04	4.897453E-06
3.711443E+03	1.843695E-04	4.998809E-06
3.721393E+03	1.891023E-04	5.103807E-06
3.731343E+03	1.940319E-04	5.212946E-06
3.741294E+03	1.991434E-04	5.325757E-06
3.751244E+03	2.044378E-04	5.442209E-06
3.761194E+03	2.099154E-04	5.562246E-06
3.771144E+03	2.155942E-04	5.686280E-06
3.781095E+03	2.214725E-04	5.814201E-06
3.791045E+03	2.275061E-04	5.944785E-06
3.800995E+03	2.337283E-04	6.078848E-06
3.810945E+03	2.401097E-04	6.215570E-06
3.820896E+03	2.466384E-04	6.354591E-06
3.830846E+03	2.533215E-04	6.496055E-06
3.840796E+03	2.600974E-04	6.638337E-06
3.850746E+03	2.669900E-04	6.782023E-06
3.860697E+03	2.739769E-04	6.926514E-06
3.870647E+03	2.809842E-04	7.069933E-06
3.880597E+03	2.880305E-04	7.212745E-06
3.890547E+03	2.950604E-04	7.353571E-06
3.900498E+03	3.020405E-04	7.491603E-06
3.910448E+03	3.089625E-04	7.626667E-06
3.920398E+03	3.157667E-04	7.757329E-06
3.930348E+03	3.224181E-04	7.882796E-06
3.940299E+03	3.288832E-04	8.002316E-06
3.950249E+03	3.351292E-04	8.115181E-06
3.960199E+03	3.411251E-04	8.220738E-06
3.970149E+03	3.468705E-04	8.319077E-06
3.980100E+03	3.523111E-04	8.409008E-06
3.990050E+03	3.574232E-04	8.490091E-06
4.000000E+03	3.621867E-04	8.561980E-06
4.009950E+03	3.665855E-04	8.624431E-06
4.019900E+03	3.706377E-04	8.678011E-06
4.029851E+03	3.742781E-04	8.721335E-06
4.039801E+03	3.775655E-04	8.755920E-06
4.049751E+03	3.804757E-04	8.781339E-06
4.059701E+03	3.830193E-04	8.797982E-06
4.069652E+03	3.852127E-04	8.806354E-06
4.079602E+03	3.870759E-04	8.807046E-06
4.089552E+03	3.886327E-04	8.800713E-06
4.099502E+03	3.899088E-04	8.788049E-06
4.109453E+03	3.909606E-04	8.770424E-06
4.119403E+03	3.917552E-04	8.747185E-06
4.129353E+03	3.923485E-04	8.719673E-06
4.139303E+03	3.927954E-04	8.689171E-06
4.149254E+03	3.930604E-04	8.654958E-06
4.159204E+03	3.932249E-04	8.618886E-06
4.169154E+03	3.932514E-04	8.580179E-06
4.179104E+03	3.931893E-04	8.539961E-06
4.189055E+03	3.930865E-04	8.499305E-06
4.199005E+03	3.929028E-04	8.457369E-06
4.208955E+03	3.927128E-04	8.415787E-06
4.218905E+03	3.924752E-04	8.373690E-06
4.228856E+03	3.922344E-04	8.332044E-06
4.238806E+03	3.920050E-04	8.291169E-06
4.248756E+03	3.918013E-04	8.251374E-06
4.258706E+03	3.916369E-04	8.212950E-06
4.268657E+03	3.915251E-04	8.176172E-06
4.278607E+03	3.914783E-04	8.141299E-06
4.288557E+03	3.915091E-04	8.108582E-06
4.298507E+03	3.916017E-04	8.077690E-06
4.308458E+03	3.918228E-04	8.049987E-06
4.318408E+03	3.921288E-04	8.024565E-06
4.328358E+03	3.925583E-04	8.002201E-06
4.338308E+03	3.931220E-04	7.983096E-06
4.348259E+03	3.938299E-04	7.967432E-06
4.358209E+03	3.946903E-04	7.955365E-06
4.368159E+03	3.956826E-04	7.946454E-06
4.378109E+03	3.968354E-04	7.941266E-06
4.388060E+03	3.981467E-04	7.939738E-06
4.398010E+03	3.996111E-04	7.941746E-06
4.407960E+03	4.011939E-04	7.946592E-06
4.417910E+03	4.029395E-04	7.955127E-06
4.427861E+03	4.047826E-04	7.966033E-06
4.437811E+03	4.067103E-04	7.979032E-06
4.447761E+03	4.087613E-04	7.994864E-06
4.457711E+03	4.108663E-04	8.012152E-06
4.467662E+03	4.130339E-04	8.031049E-06
4.477612E+03	4.152455E-04	8.051182E-06
4.487562E+03	4.174552E-04	8.071648E-06
4.497512E+03	4.196684E-04	8.092551E-06
4.507463E+03	4.218637E-04	8.113473E-06
4.517413E+03	4.239910E-04	8.133451E-06
4.527363E+03	4.260539E-04	8.152556E-06
4.537313E+03	4.280273E-04	8.170314E-06
4.547264E+03	4.298606E-04	8.185766E-06
4.557214E+03	4.315575E-04	8.198993E-06
4.567164E+03	4.330680E-04	8.209057E-06
4.577114E+03	4.344002E-04	8.216127E-06
4.587065E+03	4.355374E-04	8.219898E-06
4.597015E+03	4.364387E-04	8.219615E-06
4.606965E+03	4.371224E-04	8.215635E-06
4.616915E+03	4.375824E-04	8.207857E-06
4.626866E+03	4.377911E-04	8.195776E-06
4.636816E+03	4.377767E-04	8.179933E-06
4.646766E+03	4.375189E-04	8.159959E-06
4.656716E+03	4.370531E-04	8.136521E-06
4.666667E+03	4.363660E-04	8.109380E-06
4.676617E+03	4.354994E-04	8.079316E-06
4.686567E+03	4.344723E-04	8.046683E-06
4.696517E+03	4.332800E-04	8.011390E-06
4.706468E+03	4.319466E-04	7.973884E-06
4.716418E+03	4.305527E-04	7.935645E-06
4.726368E+03	4.290494E-04	7.895765E-06
4.736318E+03	4.275225E-04	7.855808E-06
4.746269E+03	4.260067E-04	7.816405E-06
4.756219E+03	4.245163E-04	7.777797E-06
4.766169E+03	4.231178E-04	7.741185E-06
4.776119E+03	4.218312E-04	7.706912E-06
4.786070E+03	4.207287E-04	7.676275E-06
4.796020E+03	4.198342E-04	7.649683E-06
4.805970E+03	4.192207E-04	7.628434E-06
4.815920E+03	4.189105E-04	7.612905E-06
4.825871E+03	4.189711E-04	7.604285E-06
4.835821E+03	4.194134E-04	7.602740E-06
4.845771E+03	4.202901E-04	7.609185E-06
4.855721E+03	4.215954E-04	7.623478E-06
4.865672E+03	4.233370E-04	7.645722E-06
4.875622E+03	4.255374E-04	7.676285E-06
4.885572E+03	4.281862E-04	7.714944E-06
4.895522E+03	4.312371E-04	7.760829E-06
4.905473E+03	4.346853E-04	7.813825E-06
4.915423E+03	4.384674E-04	7.872759E-06
4.925373E+03	4.425355E-04	7.936747E-06
4.935323E+03	4.468579E-04	8.005199E-06
4.945274E+03	4.513453E-04	8.076494E-06
4.955224E+03	4.559515E-04	8.149791E-06
4.965174E+03	4.606005E-04	8.223723E-06
4.975124E+03	4.651632E-04	8.295977E-06
4.985075E+03	4.696431E-04	8.366616E-06
4.995025E+03	4.738938E-04	8.433034E-06
5.004975E+03	4.779132E-04	8.495204E-06
5.014925E+03	4.816611E-04	8.552419E-06
5.024876E+03	4.850870E-04	8.603795E-06
5.034826E+03	4.882122E-04	8.649723E-06
5.044776E+03	4.910185E-04	8.689894E-06
5.054726E+03	4.935271E-04	8.724699E-06
5.064677E+03	4.957940E-04	8.755137E-06
5.074627E+03	4.978221E-04	8.781271E-06
5.084577E+03	4.996690E-04	8.804126E-06
5.094527E+03	5.013593E-04	8.824143E-06
5.104478E+03	5.028829E-04	8.841153E-06
5.114428E+03	5.042515E-04	8.855365E-06
5.124378E+03	5.054964E-04	8.867336E-06
5.134328E+03	5.065875E-04	8.876544E-06
5.144279E+03	5.075194E-04	8.882904E-06
5.154229E+03	5.083366E-04	8.887201E-06
5.164179E+03	5.089451E-04	8.887801E-06
5.174129E+03	5.093870E-04	8.885447E-06
5.184080E+03	5.096496E-04	8.879931E-06
5.194030E+03	5.096938E-04	8.870583E-06
5.203980E+03	5.095383E-04	8.857741E-06
5.213930E+03	5.091502E-04	8.840847E-06
5.223881E+03	5.085287E-04	8.819904E-06
5.233831E+03	5.077079E-04	8.795517E-06
5.243781E+03	5.067001E-04	8.767916E-06
5.253731E+03	5.054980E-04	8.736985E-06
5.263682E+03	5.041268E-04	8.703175E-06
5.273632E+03	5.026444E-04	8.667498E-06
5.283582E+03	5.010838E-04	8.630535E-06
5.293532E+03	4.994544E-04	8.592452E-06
5.303483E+03	4.977927E-04	8.553885E-06
5.313433E+03	4.961619E-04	8.515930E-06
5.323383E+03	4.945972E-04	8.479188E-06
5.333333E+03	4.931046E-04	8.443764E-06
5.343284E+03	4.917401E-04	8.410616E-06
5.353234E+03	4.905030E-04	8.379730E-06
5.363184E+03	4.894403E-04	8.351907E-06
5.373134E+03	4.885413E-04	8.326958E-06
5.383085E+03	4.878155E-04	8.305044E-06
5.393035E+03	4.873167E-04	8.287071E-06
5.402985E+03	4.869877E-04	8.272066E-06
5.412935E+03	4.868165E-04	8.259819E-06
5.422886E+03	4.868092E-04	8.250432E-06
5.432836E+03	4.869112E-04	8.242980E-06
5.442786E+03	4.871142E-04	8.237321E-06
5.452736E+03	4.873758E-04	8.232744E-06
5.462687E+03	4.876195E-04	8.227959E-06
5.472637E+03	4.878144E-04	8.222445E-06
5.482587E+03	4.878694E-04	8.214667E-06
5.492537E+03	4.877445E-04	8.203955E-06
5.502488E+03	4.873511E-04	8.188824E-06
5.512438E+03	4.866626E-04	8.168841E-06
5.522388E+03	4.856397E-04	8.143353E-06
5.532338E+03	4.842343E-04	8.111570E-06
5.542289E+03	4.824701E-04	8.073903E-06
5.552239E+03	4.803379E-04	8.030214E-06
5.562189E+03	4.778998E-04	7.981553E-06
5.572139E+03	4.752079E-04	7.928802E-06
5.582090E+03	4.723012E-04	7.872618E-06
5.592040E+03	4.692766E-04	7.814625E-06
5.601990E+03	4.661836E-04	7.755647E-06
5.611940E+03	4.631217E-04	7.697338E-06
5.621891E+03	4.601602E-04	7.640845E-06
5.631841E+03	4.573415E-04	7.586866E-06
5.641791E+03	4.547511E-04	7.536808E-06
5.651741E+03	4.524462E-04	7.491607E-06
5.661692E+03	4.504577E-04	7.451758E-06
5.671642E+03	4.488622E-04	7.418515E-06
5.681592E+03	4.477115E-04	7.392712E-06
5.691542E+03	4.470318E-04	7.374764E-06
5.701493E+03	4.468945E-04	7.365824E-06
5.711443E+03	4.473193E-04	7.366197E-06
5.721393E+03	4.483876E-04	7.377194E-06
5.731343E+03	4.500528E-04	7.398025E-06
5.741294E+03	4.523951E-04	7.429985E-06
5.751244E+03	4.553577E-04	7.472113E-06
5.761194E+03	4.589339E-04	7.524279E-06
5.771144E+03	4.630692E-04	7.585567E-06
5.781095E+03	4.676592E-04	7.654249E-06
5.791045E+03	4.726210E-04	7.728956E-06
5.800995E+03	4.778243E-04	7.807551E-06
5.810945E+03	4.830913E-04	7.887127E-06
5.820896E+03	4.882779E-04	7.965338E-06
5.830846E+03	4.932047E-04	8.039271E-06
5.840796E+03	4.976913E-04	8.106008E-06
5.850746E+03	5.015356E-04	8.162281E-06
5.860697E+03	5.046041E-04	8.205958E-06
5.870647E+03	5.067599E-04	8.234845E-06
5.880597E+03	5.078961E-04	8.247251E-06
5.890547E+03	5.079143E-04	8.241625E-06
5.900498E+03	5.068098E-04	8.217933E-06
5.910448E+03	5.045930E-04	8.176393E-06
5.920398E+03	5.012879E-04	8.117434E-06
5.930348E+03	4.970115E-04	8.042990E-06
5.940299E+03	4.918856E-04	7.955064E-06
5.950249E+03	4.860587E-04	7.856086E-06
5.960199E+03	4.796956E-04	7.748743E-06
5.970149E+03	4.729465E-04	7.635474E-06
5.980100E+03	4.660122E-04	7.519528E-06
5.990050E+03	4.590619E-04	7.403644E-06
6.000000E+03	4.522524E-04	7.290344E-06
6.009950E+03	4.457027E-04	7.181547E-06
6.019900E+03	4.395852E-04	7.080019E-06
6.029851E+03	4.339588E-04	6.986705E-06
6.039801E+03	4.289369E-04	6.903416E-06
6.049751E+03	4.245706E-04	6.830968E-06
6.059701E+03	4.209657E-04	6.771054E-06
6.069652E+03	4.181264E-04	6.723733E-06
6.079602E+03	4.161159E-04	6.690016E-06
6.089552E+03	4.149679E-04	6.670444E-06
6.099502E+03	4.147111E-04	6.665477E-06
6.109453E+03	4.153697E-04	6.675508E-06
6.119403E+03	4.169418E-04	6.700512E-06
6.129353E+03	4.194873E-04	6.741464E-06
6.139303E+03	4.229709E-04	6.797814E-06
6.149254E+03	4.274166E-04	6.869966E-06
6.159204E+03	4.328149E-04	6.957792E-06
6.169154E+03	4.391188E-04	7.060566E-06
6.179104E+03	4.463333E-04	7.178405E-06
6.189055E+03	4.543477E-04	7.309565E-06
6.199005E+03	4.631194E-04	7.453389E-06
6.208955E+03	4.724665E-04	7.606969E-06
6.218905E+03	4.822091E-04	7.767428E-06
6.228856E+03	4.920689E-04	7.930299E-06
6.238806E+03	5.017004E-04	8.090018E-06
6.248756E+03	5.108370E-04	8.242287E-06
6.258706E+03	5.191550E-04	8.381866E-06
6.268657E+03	5.263729E-04	8.504185E-06
6.278607E+03	5.323236E-04	8.606503E-06
6.288557E+03	5.368825E-04	8.686754E-06
6.298507E+03	5.400263E-04	8.744502E-06
6.308458E+03	5.416884E-04	8.778604E-06
6.318408E+03	5.420404E-04	8.791772E-06
6.328358E+03	5.411899E-04	8.785681E-06
6.338308E+03	5.393124E-04	8.763115E-06
6.348259E+03	5.366071E-04	8.727254E-06
6.358209E+03	5.332499E-04	8.680902E-06
6.368159E+03	5.294979E-04	8.628202E-06
6.378109E+03	5.254727E-04	8.571102E-06
6.388060E+03	5.213554E-04	8.512526E-06
6.398010E+03	5.172658E-04	8.454410E-06
6.407960E+03	5.133166E-04	8.398583E-06
6.417910E+03	5.095029E-04	8.344959E-06
6.427861E+03	5.058752E-04	8.294354E-06
6.437811E+03	5.024298E-04	8.246707E-06
6.447761E+03	4.991469E-04	8.201687E-06
6.457711E+03	4.959667E-04	8.158307E-06
6.467662E+03	4.929084E-04	8.116874E-06
6.477612E+03	4.899079E-04	8.076330E-06
6.487562E+03	4.869329E-04	8.036133E-06
6.497512E+03	4.839303E-04	7.995398E-06
6.507463E+03	4.809309E-04	7.954621E-06
6.517413E+03	4.778645E-04	7.912632E-06
6.527363E+03	4.747679E-04	7.870029E-06
6.537313E+03	4.715743E-04	7.825694E-06
6.547264E+03	4.683202E-04	7.780220E-06
6.557214E+03	4.649375E-04	7.732466E-06
6.567164E+03	4.614590E-04	7.682961E-06
6.577114E+03	4.578131E-04	7.630506E-06
6.587065E+03	4.540015E-04	7.575112E-06
6.597015E+03	4.500237E-04	7.516757E-06
6.606965E+03	4.458010E-04	7.454115E-06
6.616915E+03	4.413296E-04	7.387104E-06
6.626866E+03	4.365806E-04	7.315224E-06
6.636816E+03	4.315283E-04	7.238027E-06
6.646766E+03	4.261765E-04	7.155562E-06
6.656716E+03	4.204670E-04	7.066833E-06
6.666667E+03	4.144257E-04	6.972258E-06
6.676617E+03	4.080693E-04	6.872103E-06
6.686567E+03	4.014306E-04	6.766906E-06
6.696517E+03	3.945588E-04	6.657483E-06
6.706468E+03	3.875176E-04	6.544905E-06
6.716418E+03	3.803838E-04	6.430462E-06
6.726368E+03	3.732435E-04	6.315613E-06
6.736318E+03	3.661892E-04	6.201923E-06
6.746269E+03	3.593158E-04	6.091014E-06
6.756219E+03	3.527182E-04	5.984505E-06
6.766169E+03	3.465072E-04	5.884298E-06
6.776119E+03	3.407307E-04	5.791226E-06
6.786070E+03	3.354701E-04	5.706700E-06
6.796020E+03	3.308377E-04	5.632656E-06
6.805970E+03	3.268827E-04	5.569963E-06
6.815920E+03	3.236674E-04	5.519720E-06
6.825871E+03	3.212495E-04	5.482946E-06
6.835821E+03	3.196821E-04	5.460583E-06
6.845771E+03	3.190140E-04	5.453504E-06
6.855721E+03	3.192890E-04	5.462500E-06
6.865672E+03	3.205449E-04	5.488258E-06
6.875622E+03	3.228116E-04	5.531333E-06
6.885572E+03	3.261084E-04	5.592100E-06
6.895522E+03	3.304408E-04	5.670697E-06
6.905473E+03	3.357965E-04	5.766954E-06
6.915423E+03	3.421210E-04	5.879983E-06
6.925373E+03	3.493911E-04	6.009423E-06
6.935323E+03	3.574943E-04	6.153381E-06
6.945274E+03	3.663029E-04	6.309693E-06
6.955224E+03	3.756527E-04	6.475565E-06
6.965174E+03	3.853450E-04	6.647597E-06
6.975124E+03	3.951291E-04	6.821481E-06
6.985075E+03	4.048000E-04	6.993690E-06
6.995025E+03	4.140786E-04	7.159405E-06
7.004975E+03	4.226913E-04	7.313888E-06
7.014925E+03	4.304612E-04	7.454062E-06
7.024876E+03	4.371818E-04	7.576331E-06
7.034826E+03	4.427008E-04	7.678022E-06
7.044776E+03	4.470072E-04	7.758913E-06
7.054726E+03	4.500599E-04	7.818252E-06
7.064677E+03	4.519885E-04	7.858253E-06
7.074627E+03	4.528823E-04	7.880438E-06
7.084577E+03	4.529839E-04	7.889000E-06
7.094527E+03	4.524710E-04	7.887013E-06
7.104478E+03	4.516177E-04	7.879244E-06
7.114428E+03	4.507042E-04	7.870585E-06
7.124378E+03	4.499203E-04	7.864363E-06
7.134328E+03	4.495097E-04	7.864860E-06
7.144279E+03	4.496515E-04	7.875249E-06
7.154229E+03	4.504789E-04	7.897910E-06
7.164179E+03	4.520723E-04	7.934308E-06
7.174129E+03	4.544511E-04	7.984846E-06
7.184080E+03	4.575761E-04	8.048899E-06
7.194030E+03	4.613465E-04	8.124761E-06
7.203980E+03	4.656029E-04	8.209687E-06
7.213930E+03	4.701083E-04	8.299550E-06
7.223881E+03	4.746652E-04	8.390904E-06
7.233831E+03	4.789649E-04	8.478319E-06
7.243781E+03	4.826870E-04	8.556125E-06
7.253731E+03	4.855721E-04	8.619704E-06
7.263682E+03	4.873905E-04	8.664936E-06
7.273632E+03	4.878743E-04	8.686991E-06
7.283582E+03	4.869041E-04	8.683651E-06
7.293532E+03	4.844072E-04	8.653506E-06
7.303483E+03	4.803900E-04	8.596549E-06
7.313433E+03	4.749355E-04	8.514134E-06
7.323383E+03	4.681680E-04	8.408353E-06
7.333333E+03	4.603457E-04	8.283717E-06
7.343284E+03	4.516813E-04	8.143946E-06
7.353234E+03	4.424045E-04	7.993079E-06
7.363184E+03	4.327990E-04	7.836168E-06
7.373134E+03	4.231046E-04	7.677504E-06
7.383085E+03	4.135325E-04	7.520894E-06
7.393035E+03	4.042603E-04	7.369566E-06
7.402985E+03	3.954269E-04	7.226071E-06
7.412935E+03	3.871343E-04	7.092312E-06
7.422886E+03	3.794290E-04	6.969192E-06
7.432836E+03	3.723977E-04	6.858370E-06
7.442786E+03	3.660152E-04	6.759463E-06
7.452736E+03	3.603076E-04	6.673030E-06
7.462687E+03	3.552657E-04	6.598993E-06
7.472637E+03	3.508709E-04	6.537101E-06
7.482587E+03	3.470747E-04	6.486547E-06
7.492537E+03	3.438829E-04	6.447535E-06
7.502488E+03	3.412088E-04	6.418537E-06
7.512438E+03	3.390174E-04	6.398986E-06
7.522388E+03	3.372417E-04	6.387687E-06
7.532338E+03	3.358020E-04	6.383191E-06
7.542289E+03	3.346067E-04	6.383797E-06
7.552239E+03	3.335529E-04	6.387572E-06
7.562189E+03	3.325126E-04	6.392066E-06
7.572139E+03	3.314081E-04	6.395769E-06
7.582090E+03	3.301887E-04	6.397666E-06
7.592040E+03	3.288777E-04	6.398167E-06
7.601990E+03	3.275465E-04	6.398627E-06
7.611940E+03	3.262535E-04	6.400172E-06
7.621891E+03	3.251043E-04	6.404871E-06
7.631841E+03	3.241050E-04	6.412864E-06
7.641791E+03	3.232978E-04	6.425016E-06
7.651741E+03	3.226618E-04	6.440941E-06
7.661692E+03	3.222117E-04	6.460970E-06
7.671642E+03	3.218632E-04	6.483440E-06
7.681592E+03	3.215746E-04	6.507520E-06
7.691542E+03	3.212730E-04	6.531737E-06
7.701493E+03	3.208808E-04	6.554488E-06
7.711443E+03	3.203217E-04	6.574167E-06
7.721393E+03	3.195074E-04	6.588894E-06
