#wls	flux	fluxerr
1.573796E+03	5.761402E-15	5.204686E-17
1.613141E+03	6.328714E-15	5.702855E-17
1.652486E+03	6.918575E-15	6.218359E-17
1.691831E+03	7.524443E-15	6.745080E-17
1.731176E+03	8.137045E-15	7.274510E-17
1.770521E+03	8.741036E-15	7.792813E-17
1.809866E+03	9.314757E-15	8.280692E-17
1.849211E+03	9.830634E-15	8.713832E-17
1.888556E+03	1.025642E-14	9.064089E-17
1.927900E+03	1.055977E-14	9.303608E-17
1.967245E+03	1.071801E-14	9.413395E-17
2.006590E+03	1.073095E-14	9.394467E-17
2.045935E+03	1.062365E-14	9.269902E-17
2.085280E+03	1.045923E-14	9.095643E-17
2.124625E+03	1.036054E-14	8.978691E-17
2.163970E+03	1.039582E-14	8.977398E-17
2.203315E+03	1.054556E-14	9.073726E-17
2.242660E+03	1.073741E-14	9.204538E-17
2.282005E+03	1.088854E-14	9.298674E-17
2.321350E+03	1.093431E-14	9.301508E-17
2.360694E+03	1.084687E-14	9.190474E-17
2.400039E+03	1.063292E-14	8.972586E-17
2.439384E+03	1.032082E-14	8.673027E-17
2.478729E+03	9.949700E-15	8.325641E-17
2.518074E+03	9.562304E-15	7.966731E-17
2.557419E+03	9.194042E-15	7.625923E-17
2.596764E+03	8.856285E-15	7.312466E-17
2.636109E+03	8.556052E-15	7.031852E-17
2.675454E+03	8.289413E-15	6.780495E-17
2.714799E+03	8.042813E-15	6.547024E-17
2.754144E+03	7.808133E-15	6.324676E-17
2.793488E+03	7.581823E-15	6.110495E-17
2.832833E+03	7.362490E-15	5.903310E-17
2.872178E+03	7.149418E-15	5.702511E-17
2.911523E+03	6.941885E-15	5.507491E-17
2.950868E+03	6.738757E-15	5.317331E-17
2.960704E+03	6.688476E-15	5.270401E-17
2.970541E+03	6.638326E-15	5.223661E-17
2.980377E+03	6.588288E-15	5.177096E-17
2.990213E+03	6.538393E-15	5.130730E-17
3.000049E+03	6.488773E-15	5.084667E-17
3.009885E+03	6.439589E-15	5.039034E-17
3.019722E+03	6.390753E-15	4.993760E-17
3.029558E+03	6.342093E-15	4.948710E-17
3.039394E+03	6.293564E-15	4.903850E-17
3.049230E+03	6.245179E-15	4.859191E-17
3.059067E+03	6.196935E-15	4.814729E-17
3.068903E+03	6.148729E-15	4.770385E-17
3.078739E+03	6.100396E-15	4.726033E-17
3.088575E+03	6.051843E-15	4.681600E-17
3.098411E+03	6.002939E-15	4.636987E-17
3.108248E+03	5.953600E-15	4.592132E-17
3.118084E+03	5.903728E-15	4.546961E-17
3.127920E+03	5.853234E-15	4.501408E-17
3.137756E+03	5.802055E-15	4.455428E-17
3.147593E+03	5.750126E-15	4.408972E-17
3.157429E+03	5.697386E-15	4.361999E-17
3.167265E+03	5.643815E-15	4.314496E-17
3.177101E+03	5.589366E-15	4.266432E-17
3.186937E+03	5.534028E-15	4.217800E-17
3.196774E+03	5.477787E-15	4.168595E-17
3.206610E+03	5.420671E-15	4.118841E-17
3.216446E+03	5.362693E-15	4.068553E-17
3.226282E+03	5.303866E-15	4.017743E-17
3.236119E+03	5.244271E-15	3.966476E-17
3.245955E+03	5.183936E-15	3.914778E-17
3.255791E+03	5.122968E-15	3.862732E-17
3.265627E+03	5.061436E-15	3.810393E-17
3.275464E+03	4.999433E-15	3.757834E-17
3.285300E+03	4.937094E-15	3.705157E-17
3.295136E+03	4.874531E-15	3.652449E-17
3.304972E+03	4.811874E-15	3.599809E-17
3.314808E+03	4.749256E-15	3.547337E-17
3.324645E+03	4.686825E-15	3.495144E-17
3.334481E+03	4.624767E-15	3.443368E-17
3.344317E+03	4.563235E-15	3.392122E-17
3.354153E+03	4.502455E-15	3.341573E-17
3.363990E+03	4.442675E-15	3.291903E-17
3.373826E+03	4.384184E-15	3.243321E-17
3.383662E+03	4.327354E-15	3.196101E-17
3.393498E+03	4.272553E-15	3.150505E-17
3.403334E+03	4.220183E-15	3.106825E-17
3.413171E+03	4.170521E-15	3.065255E-17
3.423007E+03	4.123711E-15	3.025891E-17
3.432843E+03	4.079703E-15	2.988689E-17
3.442679E+03	4.038297E-15	2.953490E-17
3.452516E+03	3.999205E-15	2.920077E-17
3.462352E+03	3.962142E-15	2.888233E-17
3.472188E+03	3.926888E-15	2.857791E-17
3.482024E+03	3.893238E-15	2.828598E-17
3.491861E+03	3.861104E-15	2.800581E-17
3.501697E+03	3.830419E-15	2.773690E-17
3.511533E+03	3.801189E-15	2.747922E-17
3.521369E+03	3.773419E-15	2.723277E-17
3.531205E+03	3.747153E-15	2.699781E-17
3.541042E+03	3.722370E-15	2.677414E-17
3.550878E+03	3.699047E-15	2.656155E-17
3.560714E+03	3.677070E-15	2.635917E-17
3.570550E+03	3.656209E-15	2.616530E-17
3.580387E+03	3.636123E-15	2.597748E-17
3.590223E+03	3.616304E-15	2.579206E-17
3.600059E+03	3.596014E-15	2.560376E-17
3.609895E+03	3.574494E-15	2.540723E-17
3.619731E+03	3.551338E-15	2.519962E-17
3.629568E+03	3.526020E-15	2.497729E-17
3.639404E+03	3.497939E-15	2.473604E-17
3.649240E+03	3.467042E-15	2.447562E-17
3.659076E+03	3.433142E-15	2.419481E-17
3.668913E+03	3.396027E-15	2.389224E-17
3.678749E+03	3.355916E-15	2.356955E-17
3.688585E+03	3.313056E-15	2.322859E-17
3.698421E+03	3.267655E-15	2.287092E-17
3.708258E+03	3.220289E-15	2.250066E-17
3.718094E+03	3.171569E-15	2.212214E-17
3.727930E+03	3.122202E-15	2.174034E-17
3.737766E+03	3.073043E-15	2.136122E-17
3.747602E+03	3.025039E-15	2.099135E-17
3.757439E+03	2.979057E-15	2.063669E-17
3.767275E+03	2.935817E-15	2.030214E-17
3.777111E+03	2.896013E-15	1.999242E-17
3.786947E+03	2.860089E-15	1.971044E-17
3.796784E+03	2.827624E-15	1.945319E-17
3.806620E+03	2.798026E-15	1.921646E-17
3.816456E+03	2.770857E-15	1.899717E-17
3.826292E+03	2.745674E-15	1.879218E-17
3.836128E+03	2.722147E-15	1.859918E-17
3.845965E+03	2.700031E-15	1.841644E-17
3.855801E+03	2.679333E-15	1.824396E-17
3.865637E+03	2.660051E-15	1.808168E-17
3.875473E+03	2.642096E-15	1.792894E-17
3.885310E+03	2.625300E-15	1.778457E-17
3.895146E+03	2.609357E-15	1.764645E-17
3.904982E+03	2.593787E-15	1.751132E-17
3.914818E+03	2.578175E-15	1.737637E-17
3.924655E+03	2.561978E-15	1.723794E-17
3.934491E+03	2.544524E-15	1.709155E-17
3.944327E+03	2.525078E-15	1.693231E-17
3.954163E+03	2.502862E-15	1.675509E-17
3.963999E+03	2.477212E-15	1.655553E-17
3.973836E+03	2.448006E-15	1.633295E-17
3.983672E+03	2.415198E-15	1.608715E-17
3.993508E+03	2.379033E-15	1.581988E-17
4.003344E+03	2.340896E-15	1.554045E-17
4.013181E+03	2.302293E-15	1.525890E-17
4.023017E+03	2.264444E-15	1.498332E-17
4.032853E+03	2.228409E-15	1.472067E-17
4.042689E+03	2.195011E-15	1.447633E-17
4.052525E+03	2.164699E-15	1.425317E-17
4.062362E+03	2.136935E-15	1.404754E-17
4.072198E+03	2.110948E-15	1.385430E-17
4.082034E+03	2.086051E-15	1.366890E-17
4.091870E+03	2.061522E-15	1.348656E-17
4.101707E+03	2.036746E-15	1.330328E-17
4.111543E+03	2.011403E-15	1.311695E-17
4.121379E+03	1.985741E-15	1.292921E-17
4.131215E+03	1.960224E-15	1.274309E-17
4.141051E+03	1.935446E-15	1.256244E-17
4.150888E+03	1.912128E-15	1.239189E-17
4.160724E+03	1.891055E-15	1.223649E-17
4.170560E+03	1.872871E-15	1.210033E-17
4.180396E+03	1.857381E-15	1.198206E-17
4.190233E+03	1.844352E-15	1.188011E-17
4.200069E+03	1.833700E-15	1.179385E-17
4.209905E+03	1.825347E-15	1.172273E-17
4.219741E+03	1.819434E-15	1.166757E-17
4.229578E+03	1.816275E-15	1.163032E-17
4.239414E+03	1.816436E-15	1.161452E-17
4.249250E+03	1.820615E-15	1.162454E-17
4.259086E+03	1.829339E-15	1.166362E-17
4.268922E+03	1.842302E-15	1.172968E-17
4.278759E+03	1.858854E-15	1.181849E-17
4.288595E+03	1.877354E-15	1.191953E-17
4.298431E+03	1.893118E-15	1.200305E-17
4.308267E+03	1.900613E-15	1.203410E-17
4.318104E+03	1.893877E-15	1.197518E-17
4.327940E+03	1.871331E-15	1.181670E-17
4.337776E+03	1.840652E-15	1.160747E-17
4.347612E+03	1.809406E-15	1.139532E-17
4.357448E+03	1.779935E-15	1.119500E-17
4.367285E+03	1.753162E-15	1.101224E-17
4.377121E+03	1.729720E-15	1.085096E-17
4.386957E+03	1.709415E-15	1.070984E-17
4.396793E+03	1.691794E-15	1.058596E-17
4.406630E+03	1.676434E-15	1.047661E-17
4.416466E+03	1.663030E-15	1.037985E-17
4.426302E+03	1.651324E-15	1.029399E-17
4.436138E+03	1.641042E-15	1.021729E-17
4.445975E+03	1.631894E-15	1.014793E-17
4.455811E+03	1.623598E-15	1.008410E-17
4.465647E+03	1.615898E-15	1.002421E-17
4.475483E+03	1.608618E-15	9.967148E-18
4.485319E+03	1.601578E-15	9.911783E-18
4.495156E+03	1.594687E-15	9.857554E-18
4.504992E+03	1.588051E-15	9.805102E-18
4.514828E+03	1.581827E-15	9.755393E-18
4.524664E+03	1.576217E-15	9.709657E-18
4.534501E+03	1.571513E-15	9.669670E-18
4.544337E+03	1.568002E-15	9.637190E-18
4.554173E+03	1.565899E-15	9.613499E-18
4.564009E+03	1.565163E-15	9.598316E-18
4.573845E+03	1.565647E-15	9.590716E-18
4.583682E+03	1.567105E-15	9.589161E-18
4.593518E+03	1.568929E-15	9.589930E-18
4.603354E+03	1.570349E-15	9.588292E-18
4.613190E+03	1.570578E-15	9.579473E-18
4.623027E+03	1.568949E-15	9.559426E-18
4.632863E+03	1.564724E-15	9.523688E-18
4.642699E+03	1.557264E-15	9.468433E-18
4.652535E+03	1.546268E-15	9.391881E-18
4.662372E+03	1.531499E-15	9.292665E-18
4.672208E+03	1.512890E-15	9.170446E-18
4.682044E+03	1.491062E-15	9.029054E-18
4.691880E+03	1.466755E-15	8.873012E-18
4.701716E+03	1.440720E-15	8.706904E-18
4.711553E+03	1.414050E-15	8.537354E-18
4.721389E+03	1.387810E-15	8.370793E-18
4.731225E+03	1.362895E-15	8.212600E-18
4.741061E+03	1.339964E-15	8.066722E-18
4.750898E+03	1.319582E-15	7.936512E-18
4.760734E+03	1.302136E-15	7.824248E-18
4.770570E+03	1.287676E-15	7.730176E-18
4.780406E+03	1.276146E-15	7.653916E-18
4.790242E+03	1.267429E-15	7.594710E-18
4.800079E+03	1.261158E-15	7.550318E-18
4.809915E+03	1.256902E-15	7.518113E-18
4.819751E+03	1.254111E-15	7.494784E-18
4.829587E+03	1.251782E-15	7.474311E-18
4.839424E+03	1.248767E-15	7.449843E-18
4.849260E+03	1.244134E-15	7.415838E-18
4.859096E+03	1.237536E-15	7.370242E-18
4.868932E+03	1.228851E-15	7.312372E-18
4.878769E+03	1.218137E-15	7.242592E-18
4.888605E+03	1.205967E-15	7.164342E-18
4.898441E+03	1.193078E-15	7.082016E-18
4.908277E+03	1.180144E-15	6.999612E-18
4.918113E+03	1.167615E-15	6.919807E-18
4.927950E+03	1.155858E-15	6.844757E-18
4.937786E+03	1.145138E-15	6.776022E-18
4.947622E+03	1.135386E-15	6.713180E-18
4.957458E+03	1.126448E-15	6.655307E-18
4.967295E+03	1.118203E-15	6.601674E-18
4.977131E+03	1.110589E-15	6.551900E-18
4.986967E+03	1.103616E-15	6.506044E-18
4.996803E+03	1.097218E-15	6.463710E-18
5.006639E+03	1.091202E-15	6.423744E-18
5.016476E+03	1.085325E-15	6.384716E-18
5.026312E+03	1.079371E-15	6.345355E-18
5.036148E+03	1.073182E-15	6.304733E-18
5.045984E+03	1.066606E-15	6.261959E-18
5.055821E+03	1.059563E-15	6.216571E-18
5.065657E+03	1.052146E-15	6.169114E-18
5.075493E+03	1.044509E-15	6.120502E-18
5.085329E+03	1.036823E-15	6.071723E-18
5.095165E+03	1.029180E-15	6.023332E-18
5.105002E+03	1.021726E-15	5.976173E-18
5.114838E+03	1.014566E-15	5.930855E-18
5.124674E+03	1.007749E-15	5.887668E-18
5.134510E+03	1.001312E-15	5.846814E-18
5.144347E+03	9.952873E-16	5.808491E-18
5.154183E+03	9.896274E-16	5.772407E-18
5.164019E+03	9.842810E-16	5.738263E-18
5.173855E+03	9.792122E-16	5.705847E-18
5.183692E+03	9.744133E-16	5.675110E-18
5.193528E+03	9.698702E-16	5.645968E-18
5.203364E+03	9.656476E-16	5.618797E-18
5.213200E+03	9.619407E-16	5.594727E-18
5.223036E+03	9.589538E-16	5.574944E-18
5.232873E+03	9.568512E-16	5.560397E-18
5.242709E+03	9.555417E-16	5.550550E-18
5.252545E+03	9.549639E-16	5.545042E-18
5.262381E+03	9.550982E-16	5.543756E-18
5.272218E+03	9.553590E-16	5.543291E-18
5.282054E+03	9.553353E-16	5.541261E-18
5.291890E+03	9.549387E-16	5.537159E-18
5.301726E+03	9.540919E-16	5.530539E-18
5.311562E+03	9.530696E-16	5.522997E-18
5.321399E+03	9.523596E-16	5.517360E-18
5.331235E+03	9.519445E-16	5.513527E-18
5.341071E+03	9.519766E-16	5.512379E-18
5.350907E+03	9.527356E-16	5.515532E-18
5.360744E+03	9.534894E-16	5.518746E-18
5.370580E+03	9.534870E-16	5.517673E-18
5.380416E+03	9.521364E-16	5.508890E-18
5.390252E+03	9.483824E-16	5.486297E-18
5.400089E+03	9.413070E-16	5.444587E-18
5.409925E+03	9.309052E-16	5.383737E-18
5.419761E+03	9.184908E-16	5.311348E-18
5.429597E+03	9.057841E-16	5.237367E-18
5.439433E+03	8.945270E-16	5.171861E-18
5.449270E+03	8.851145E-16	5.117109E-18
5.459106E+03	8.780952E-16	5.076275E-18
5.468942E+03	8.740824E-16	5.052902E-18
5.478778E+03	8.718187E-16	5.039716E-18
5.488615E+03	8.702319E-16	5.030518E-18
5.498451E+03	8.689742E-16	5.023296E-18
5.508287E+03	8.671685E-16	5.012980E-18
5.518123E+03	8.646206E-16	4.998443E-18
5.527959E+03	8.616740E-16	4.981672E-18
5.537796E+03	8.579781E-16	4.960638E-18
5.547632E+03	8.535452E-16	4.935409E-18
5.557468E+03	8.486741E-16	4.907709E-18
5.567304E+03	8.432444E-16	4.876842E-18
5.577141E+03	8.373906E-16	4.843581E-18
5.586977E+03	8.315187E-16	4.810273E-18
5.596813E+03	8.254542E-16	4.775906E-18
5.606649E+03	8.193933E-16	4.741612E-18
5.616486E+03	8.138706E-16	4.710486E-18
5.626322E+03	8.084269E-16	4.679868E-18
5.636158E+03	8.029768E-16	4.649262E-18
5.645994E+03	7.977777E-16	4.620157E-18
5.655830E+03	7.925698E-16	4.591049E-18
5.665667E+03	7.873903E-16	4.562150E-18
5.675503E+03	7.825424E-16	4.535217E-18
5.685339E+03	7.779096E-16	4.509575E-18
5.695175E+03	7.736510E-16	4.486146E-18
5.705012E+03	7.700960E-16	4.466840E-18
5.714848E+03	7.670682E-16	4.450639E-18
5.724684E+03	7.645371E-16	4.437365E-18
5.734520E+03	7.626326E-16	4.427776E-18
5.744356E+03	7.610310E-16	4.419995E-18
5.754193E+03	7.595349E-16	4.412875E-18
5.764029E+03	7.580210E-16	4.405700E-18
5.773865E+03	7.560822E-16	4.396104E-18
5.783701E+03	7.533786E-16	4.382105E-18
5.793538E+03	7.497050E-16	4.362503E-18
5.803374E+03	7.448705E-16	4.336181E-18
5.813210E+03	7.388373E-16	4.302907E-18
5.823046E+03	7.316872E-16	4.263149E-18
5.832883E+03	7.236368E-16	4.218158E-18
5.842719E+03	7.150527E-16	4.170064E-18
5.852555E+03	7.062860E-16	4.120909E-18
5.862391E+03	6.974049E-16	4.071088E-18
5.872227E+03	6.884648E-16	4.020921E-18
5.882064E+03	6.796355E-16	3.971399E-18
5.891900E+03	6.709539E-16	3.922736E-18
5.901736E+03	6.625738E-16	3.875832E-18
5.911572E+03	6.546864E-16	3.831806E-18
5.921409E+03	6.473224E-16	3.790842E-18
5.931245E+03	6.405643E-16	3.753427E-18
5.941081E+03	6.345680E-16	3.720480E-18
5.950917E+03	6.290360E-16	3.690261E-18
5.960753E+03	6.237678E-16	3.661598E-18
5.970590E+03	6.187054E-16	3.634153E-18
5.980426E+03	6.136447E-16	3.606727E-18
5.990262E+03	6.085324E-16	3.579004E-18
6.000098E+03	6.034569E-16	3.551505E-18
6.009935E+03	5.984127E-16	3.524196E-18
6.019771E+03	5.935079E-16	3.497715E-18
6.029607E+03	5.889918E-16	3.473530E-18
6.039443E+03	5.850614E-16	3.452811E-18
6.049279E+03	5.820451E-16	3.437501E-18
6.059116E+03	5.802953E-16	3.429695E-18
6.068952E+03	5.800309E-16	3.430702E-18
6.078788E+03	5.814769E-16	3.441872E-18
6.088624E+03	5.847272E-16	3.463785E-18
6.098461E+03	5.892760E-16	3.493467E-18
6.108297E+03	5.944080E-16	3.526690E-18
6.118133E+03	5.989603E-16	3.556559E-18
6.127969E+03	6.005389E-16	3.568838E-18
6.137806E+03	5.965003E-16	3.547762E-18
6.147642E+03	5.866983E-16	3.492375E-18
6.157478E+03	5.739043E-16	3.419100E-18
6.167314E+03	5.606572E-16	3.343027E-18
6.177150E+03	5.489425E-16	3.275996E-18
6.186987E+03	5.393739E-16	3.221693E-18
6.196823E+03	5.321489E-16	3.181330E-18
6.206659E+03	5.272584E-16	3.154887E-18
6.216495E+03	5.243098E-16	3.140050E-18
6.226332E+03	5.227987E-16	3.133823E-18
6.236168E+03	5.222523E-16	3.133393E-18
6.246004E+03	5.222542E-16	3.136275E-18
6.255840E+03	5.224142E-16	3.140130E-18
6.265676E+03	5.224265E-16	3.143123E-18
6.275513E+03	5.221332E-16	3.144297E-18
6.285349E+03	5.214364E-16	3.143059E-18
6.295185E+03	5.202716E-16	3.139009E-18
6.305021E+03	5.187013E-16	3.132519E-18
6.314858E+03	5.167815E-16	3.123918E-18
6.324694E+03	5.145993E-16	3.113727E-18
6.334530E+03	5.122268E-16	3.102375E-18
6.344366E+03	5.097260E-16	3.090236E-18
6.354203E+03	5.071634E-16	3.077711E-18
6.364039E+03	5.046081E-16	3.065215E-18
6.373875E+03	5.021326E-16	3.053192E-18
6.383711E+03	4.998014E-16	3.042031E-18
6.393547E+03	4.976297E-16	3.031830E-18
6.403384E+03	4.956510E-16	3.022794E-18
6.413220E+03	4.938670E-16	3.014938E-18
6.423056E+03	4.923176E-16	3.008506E-18
6.432892E+03	4.910340E-16	3.003694E-18
6.442729E+03	4.900241E-16	3.000555E-18
6.452565E+03	4.893832E-16	2.999678E-18
6.462401E+03	4.892017E-16	3.001624E-18
6.472237E+03	4.895470E-16	3.006815E-18
6.482073E+03	4.904749E-16	3.015603E-18
6.491910E+03	4.920000E-16	3.028090E-18
6.501746E+03	4.940855E-16	3.044059E-18
6.511582E+03	4.965508E-16	3.062407E-18
6.521418E+03	4.991299E-16	3.081500E-18
6.531255E+03	5.015263E-16	3.099507E-18
6.541091E+03	5.033064E-16	3.113741E-18
6.550927E+03	5.040147E-16	3.121370E-18
6.560763E+03	5.032879E-16	3.120121E-18
6.570600E+03	5.010132E-16	3.109265E-18
6.580436E+03	4.971807E-16	3.088710E-18
6.590272E+03	4.919130E-16	3.059189E-18
6.600108E+03	4.855927E-16	3.023054E-18
6.609944E+03	4.786680E-16	2.983078E-18
6.619781E+03	4.715756E-16	2.941972E-18
6.629617E+03	4.647015E-16	2.902144E-18
6.639453E+03	4.583958E-16	2.865786E-18
6.649289E+03	4.529294E-16	2.834604E-18
6.659126E+03	4.483779E-16	2.809088E-18
6.668962E+03	4.447708E-16	2.789442E-18
6.678798E+03	4.420559E-16	2.775356E-18
6.688634E+03	4.400044E-16	2.765408E-18
6.698470E+03	4.383282E-16	2.757801E-18
6.708307E+03	4.368065E-16	2.751151E-18
6.718143E+03	4.352745E-16	2.744421E-18
6.727979E+03	4.336318E-16	2.736979E-18
6.737815E+03	4.317997E-16	2.728323E-18
6.747652E+03	4.298086E-16	2.718642E-18
6.757488E+03	4.276965E-16	2.708174E-18
6.767324E+03	4.255028E-16	2.697167E-18
6.777160E+03	4.232166E-16	2.685548E-18
6.786997E+03	4.208210E-16	2.673210E-18
6.796833E+03	4.182664E-16	2.659833E-18
6.806669E+03	4.155674E-16	2.645508E-18
6.816505E+03	4.127076E-16	2.630128E-18
6.826341E+03	4.097002E-16	2.613772E-18
6.836178E+03	4.066765E-16	2.597277E-18
6.846014E+03	4.037592E-16	2.581426E-18
6.855850E+03	4.010552E-16	2.566907E-18
6.865686E+03	3.985506E-16	2.553633E-18
6.875523E+03	3.961850E-16	2.541223E-18
6.885359E+03	3.939197E-16	2.529430E-18
6.895195E+03	3.916927E-16	2.517858E-18
6.905031E+03	3.894580E-16	2.506212E-18
6.914867E+03	3.872000E-16	2.494391E-18
6.924704E+03	3.849765E-16	2.482768E-18
6.934540E+03	3.828633E-16	2.471832E-18
6.944376E+03	3.809341E-16	2.462062E-18
6.954212E+03	3.791560E-16	2.453250E-18
6.964049E+03	3.774927E-16	2.445163E-18
6.973885E+03	3.759164E-16	2.437624E-18
6.983721E+03	3.743895E-16	2.430391E-18
6.993557E+03	3.728912E-16	2.423329E-18
7.003393E+03	3.714048E-16	2.416332E-18
7.013230E+03	3.699493E-16	2.409521E-18
7.023066E+03	3.685845E-16	2.403290E-18
7.032902E+03	3.673180E-16	2.397688E-18
7.042738E+03	3.660862E-16	2.392304E-18
7.052575E+03	3.647934E-16	2.386511E-18
7.062411E+03	3.633590E-16	2.379781E-18
7.072247E+03	3.617414E-16	2.371838E-18
7.082083E+03	3.599266E-16	2.362586E-18
7.091920E+03	3.579054E-16	2.351960E-18
7.101756E+03	3.557034E-16	2.340125E-18
7.111592E+03	3.533764E-16	2.327443E-18
7.121428E+03	3.509391E-16	2.314010E-18
7.131264E+03	3.483681E-16	2.299668E-18
7.141101E+03	3.455923E-16	2.283944E-18
7.150937E+03	3.425902E-16	2.266692E-18
7.160773E+03	3.393892E-16	2.248088E-18
7.170609E+03	3.360534E-16	2.228552E-18
7.180446E+03	3.326897E-16	2.208791E-18
7.190282E+03	3.294217E-16	2.189626E-18
7.200118E+03	3.264096E-16	2.172126E-18
7.209954E+03	3.238182E-16	2.157393E-18
7.219790E+03	3.216115E-16	2.145197E-18
7.229627E+03	3.197583E-16	2.135340E-18
7.239463E+03	3.182474E-16	2.127755E-18
7.249299E+03	3.169704E-16	2.121724E-18
7.259135E+03	3.158338E-16	2.116626E-18
7.268972E+03	3.148219E-16	2.112361E-18
7.278808E+03	3.139334E-16	2.108921E-18
7.288644E+03	3.132179E-16	2.106644E-18
7.298480E+03	3.127798E-16	2.106237E-18
7.308317E+03	3.126500E-16	2.107915E-18
7.318153E+03	3.129000E-16	2.112171E-18
7.327989E+03	3.136199E-16	2.119620E-18
7.337825E+03	3.146242E-16	2.129021E-18
7.347661E+03	3.157220E-16	2.139087E-18
7.357498E+03	3.168585E-16	2.149451E-18
7.367334E+03	3.179067E-16	2.159250E-18
7.377170E+03	3.188899E-16	2.168641E-18
7.387006E+03	3.199110E-16	2.178324E-18
7.396843E+03	3.210732E-16	2.189004E-18
7.406679E+03	3.225294E-16	2.201729E-18
7.416515E+03	3.245168E-16	2.218128E-18
7.426351E+03	3.270680E-16	2.238439E-18
7.436187E+03	3.302311E-16	2.263007E-18
7.446024E+03	3.339923E-16	2.291755E-18
7.455860E+03	3.380142E-16	2.322381E-18
7.465696E+03	3.418197E-16	2.351611E-18
7.475532E+03	3.447325E-16	2.374780E-18
7.485369E+03	3.456030E-16	2.383934E-18
7.495205E+03	3.435373E-16	2.372843E-18
7.505041E+03	3.394429E-16	2.347701E-18
7.514877E+03	3.342688E-16	2.315023E-18
7.524714E+03	3.287075E-16	2.279582E-18
7.534550E+03	3.232746E-16	2.244944E-18
7.544386E+03	3.181754E-16	2.212540E-18
7.554222E+03	3.134932E-16	2.182960E-18
7.564058E+03	3.093614E-16	2.157142E-18
7.573895E+03	3.058047E-16	2.135275E-18
7.583731E+03	3.028758E-16	2.117744E-18
7.593567E+03	3.006811E-16	2.105310E-18
7.603403E+03	2.991895E-16	2.097775E-18
7.613240E+03	2.983733E-16	2.094967E-18
7.623076E+03	2.982633E-16	2.097119E-18
7.632912E+03	2.987683E-16	2.103612E-18
