#wls	flux	fluxerr
1.573796E+03	3.782398E-15	0.000000E+00
1.613141E+03	4.176180E-15	0.000000E+00
1.652486E+03	4.588207E-15	0.000000E+00
1.691831E+03	5.013970E-15	0.000000E+00
1.731176E+03	5.446888E-15	0.000000E+00
1.770521E+03	5.876034E-15	0.000000E+00
1.809866E+03	6.285796E-15	0.000000E+00
1.849211E+03	6.656068E-15	0.000000E+00
1.888556E+03	6.963003E-15	0.000000E+00
1.927900E+03	7.181952E-15	0.000000E+00
1.967245E+03	7.293817E-15	0.000000E+00
2.006590E+03	7.293753E-15	0.000000E+00
2.045935E+03	7.198649E-15	0.000000E+00
2.085280E+03	7.058985E-15	0.000000E+00
2.124625E+03	6.953774E-15	0.000000E+00
2.163970E+03	6.932964E-15	0.000000E+00
2.203315E+03	6.990481E-15	0.000000E+00
2.242660E+03	7.081457E-15	0.000000E+00
2.282005E+03	7.150013E-15	0.000000E+00
2.321350E+03	7.152720E-15	0.000000E+00
2.360694E+03	7.070658E-15	0.000000E+00
2.400039E+03	6.907766E-15	0.000000E+00
2.439384E+03	6.682567E-15	0.000000E+00
2.478729E+03	6.420183E-15	0.000000E+00
2.518074E+03	6.146165E-15	0.000000E+00
2.557419E+03	5.879676E-15	0.000000E+00
2.596764E+03	5.627902E-15	0.000000E+00
2.636109E+03	5.396240E-15	0.000000E+00
2.675454E+03	5.186192E-15	0.000000E+00
2.714799E+03	4.992584E-15	0.000000E+00
2.754144E+03	4.810459E-15	0.000000E+00
2.793488E+03	4.636810E-15	0.000000E+00
2.832833E+03	4.470001E-15	0.000000E+00
2.872178E+03	4.309028E-15	0.000000E+00
2.911523E+03	4.153086E-15	0.000000E+00
2.950868E+03	4.001307E-15	0.000000E+00
2.960704E+03	3.963895E-15	0.000000E+00
2.970541E+03	3.926654E-15	0.000000E+00
2.980377E+03	3.889581E-15	0.000000E+00
2.990213E+03	3.852674E-15	0.000000E+00
3.000049E+03	3.816041E-15	0.000000E+00
3.009885E+03	3.779779E-15	0.000000E+00
3.019722E+03	3.743811E-15	0.000000E+00
3.029558E+03	3.708067E-15	0.000000E+00
3.039394E+03	3.672515E-15	0.000000E+00
3.049230E+03	3.637159E-15	0.000000E+00
3.059067E+03	3.602018E-15	0.000000E+00
3.068903E+03	3.567030E-15	0.000000E+00
3.078739E+03	3.532110E-15	0.000000E+00
3.088575E+03	3.497206E-15	0.000000E+00
3.098411E+03	3.462261E-15	0.000000E+00
3.108248E+03	3.427221E-15	0.000000E+00
3.118084E+03	3.392041E-15	0.000000E+00
3.127920E+03	3.356693E-15	0.000000E+00
3.137756E+03	3.321140E-15	0.000000E+00
3.147593E+03	3.285364E-15	0.000000E+00
3.157429E+03	3.249339E-15	0.000000E+00
3.167265E+03	3.213052E-15	0.000000E+00
3.177101E+03	3.176505E-15	0.000000E+00
3.186937E+03	3.139690E-15	0.000000E+00
3.196774E+03	3.102621E-15	0.000000E+00
3.206610E+03	3.065302E-15	0.000000E+00
3.216446E+03	3.027760E-15	0.000000E+00
3.226282E+03	2.990014E-15	0.000000E+00
3.236119E+03	2.952101E-15	0.000000E+00
3.245955E+03	2.914058E-15	0.000000E+00
3.255791E+03	2.875929E-15	0.000000E+00
3.265627E+03	2.837757E-15	0.000000E+00
3.275464E+03	2.799602E-15	0.000000E+00
3.285300E+03	2.761523E-15	0.000000E+00
3.295136E+03	2.723580E-15	0.000000E+00
3.304972E+03	2.685849E-15	0.000000E+00
3.314808E+03	2.648403E-15	0.000000E+00
3.324645E+03	2.611322E-15	0.000000E+00
3.334481E+03	2.574700E-15	0.000000E+00
3.344317E+03	2.538638E-15	0.000000E+00
3.354153E+03	2.503241E-15	0.000000E+00
3.363990E+03	2.468646E-15	0.000000E+00
3.373826E+03	2.434973E-15	0.000000E+00
3.383662E+03	2.402367E-15	0.000000E+00
3.393498E+03	2.370962E-15	0.000000E+00
3.403334E+03	2.340888E-15	0.000000E+00
3.413171E+03	2.312214E-15	0.000000E+00
3.423007E+03	2.284987E-15	0.000000E+00
3.432843E+03	2.259209E-15	0.000000E+00
3.442679E+03	2.234816E-15	0.000000E+00
3.452516E+03	2.211741E-15	0.000000E+00
3.462352E+03	2.189892E-15	0.000000E+00
3.472188E+03	2.169178E-15	0.000000E+00
3.482024E+03	2.149525E-15	0.000000E+00
3.491861E+03	2.130861E-15	0.000000E+00
3.501697E+03	2.113142E-15	0.000000E+00
3.511533E+03	2.096319E-15	0.000000E+00
3.521369E+03	2.080350E-15	0.000000E+00
3.531205E+03	2.065184E-15	0.000000E+00
3.541042E+03	2.050747E-15	0.000000E+00
3.550878E+03	2.036943E-15	0.000000E+00
3.560714E+03	2.023624E-15	0.000000E+00
3.570550E+03	2.010593E-15	0.000000E+00
3.580387E+03	1.997594E-15	0.000000E+00
3.590223E+03	1.984299E-15	0.000000E+00
3.600059E+03	1.970361E-15	0.000000E+00
3.609895E+03	1.955426E-15	0.000000E+00
3.619731E+03	1.939201E-15	0.000000E+00
3.629568E+03	1.921428E-15	0.000000E+00
3.639404E+03	1.901934E-15	0.000000E+00
3.649240E+03	1.880633E-15	0.000000E+00
3.659076E+03	1.857506E-15	0.000000E+00
3.668913E+03	1.832632E-15	0.000000E+00
3.678749E+03	1.806161E-15	0.000000E+00
3.688585E+03	1.778326E-15	0.000000E+00
3.698421E+03	1.749397E-15	0.000000E+00
3.708258E+03	1.719731E-15	0.000000E+00
3.718094E+03	1.689713E-15	0.000000E+00
3.727930E+03	1.659759E-15	0.000000E+00
3.737766E+03	1.630313E-15	0.000000E+00
3.747602E+03	1.601820E-15	0.000000E+00
3.757439E+03	1.574677E-15	0.000000E+00
3.767275E+03	1.549226E-15	0.000000E+00
3.777111E+03	1.525707E-15	0.000000E+00
3.786947E+03	1.504207E-15	0.000000E+00
3.796784E+03	1.484653E-15	0.000000E+00
3.806620E+03	1.466845E-15	0.000000E+00
3.816456E+03	1.450551E-15	0.000000E+00
3.826292E+03	1.435521E-15	0.000000E+00
3.836128E+03	1.421539E-15	0.000000E+00
3.845965E+03	1.408416E-15	0.000000E+00
3.855801E+03	1.396004E-15	0.000000E+00
3.865637E+03	1.384179E-15	0.000000E+00
3.875473E+03	1.372797E-15	0.000000E+00
3.885310E+03	1.361698E-15	0.000000E+00
3.895146E+03	1.350688E-15	0.000000E+00
3.904982E+03	1.339554E-15	0.000000E+00
3.914818E+03	1.328053E-15	0.000000E+00
3.924655E+03	1.315927E-15	0.000000E+00
3.934491E+03	1.302880E-15	0.000000E+00
3.944327E+03	1.288625E-15	0.000000E+00
3.954163E+03	1.272889E-15	0.000000E+00
3.963999E+03	1.255476E-15	0.000000E+00
3.973836E+03	1.236321E-15	0.000000E+00
3.983672E+03	1.215509E-15	0.000000E+00
3.993508E+03	1.193315E-15	0.000000E+00
4.003344E+03	1.170216E-15	0.000000E+00
4.013181E+03	1.146791E-15	0.000000E+00
4.023017E+03	1.123609E-15	0.000000E+00
4.032853E+03	1.101155E-15	0.000000E+00
4.042689E+03	1.079797E-15	0.000000E+00
4.052525E+03	1.059694E-15	0.000000E+00
4.062362E+03	1.040815E-15	0.000000E+00
4.072198E+03	1.022987E-15	0.000000E+00
4.082034E+03	1.005989E-15	0.000000E+00
4.091870E+03	9.895973E-16	0.000000E+00
4.101707E+03	9.736266E-16	0.000000E+00
4.111543E+03	9.580149E-16	0.000000E+00
4.121379E+03	9.428106E-16	0.000000E+00
4.131215E+03	9.281635E-16	0.000000E+00
4.141051E+03	9.142960E-16	0.000000E+00
4.150888E+03	9.014553E-16	0.000000E+00
4.160724E+03	8.898811E-16	0.000000E+00
4.170560E+03	8.797253E-16	0.000000E+00
4.180396E+03	8.710382E-16	0.000000E+00
4.190233E+03	8.637928E-16	0.000000E+00
4.200069E+03	8.579491E-16	0.000000E+00
4.209905E+03	8.534926E-16	0.000000E+00
4.219741E+03	8.504410E-16	0.000000E+00
4.229578E+03	8.488694E-16	0.000000E+00
4.239414E+03	8.488771E-16	0.000000E+00
4.249250E+03	8.505405E-16	0.000000E+00
4.259086E+03	8.538314E-16	0.000000E+00
4.268922E+03	8.585095E-16	0.000000E+00
4.278759E+03	8.640337E-16	0.000000E+00
4.288595E+03	8.694600E-16	0.000000E+00
4.298431E+03	8.734076E-16	0.000000E+00
4.308267E+03	8.743463E-16	0.000000E+00
4.318104E+03	8.711783E-16	0.000000E+00
4.327940E+03	8.639577E-16	0.000000E+00
4.337776E+03	8.539498E-16	0.000000E+00
4.347612E+03	8.427919E-16	0.000000E+00
4.357448E+03	8.316939E-16	0.000000E+00
4.367285E+03	8.213309E-16	0.000000E+00
4.377121E+03	8.120191E-16	0.000000E+00
4.386957E+03	8.038191E-16	0.000000E+00
4.396793E+03	7.966752E-16	0.000000E+00
4.406630E+03	7.904785E-16	0.000000E+00
4.416466E+03	7.851149E-16	0.000000E+00
4.426302E+03	7.804753E-16	0.000000E+00
4.436138E+03	7.764476E-16	0.000000E+00
4.445975E+03	7.729291E-16	0.000000E+00
4.455811E+03	7.698138E-16	0.000000E+00
4.465647E+03	7.669968E-16	0.000000E+00
4.475483E+03	7.644162E-16	0.000000E+00
4.485319E+03	7.620104E-16	0.000000E+00
4.495156E+03	7.597638E-16	0.000000E+00
4.504992E+03	7.577146E-16	0.000000E+00
4.514828E+03	7.559222E-16	0.000000E+00
4.524664E+03	7.544864E-16	0.000000E+00
4.534501E+03	7.535178E-16	0.000000E+00
4.544337E+03	7.531185E-16	0.000000E+00
4.554173E+03	7.533539E-16	0.000000E+00
4.564009E+03	7.541978E-16	0.000000E+00
4.573845E+03	7.555440E-16	0.000000E+00
4.583682E+03	7.572060E-16	0.000000E+00
4.593518E+03	7.589129E-16	0.000000E+00
4.603354E+03	7.603313E-16	0.000000E+00
4.613190E+03	7.611085E-16	0.000000E+00
4.623027E+03	7.609047E-16	0.000000E+00
4.632863E+03	7.593965E-16	0.000000E+00
4.642699E+03	7.563132E-16	0.000000E+00
4.652535E+03	7.514867E-16	0.000000E+00
4.662372E+03	7.448264E-16	0.000000E+00
4.672208E+03	7.363980E-16	0.000000E+00
4.682044E+03	7.263870E-16	0.000000E+00
4.691880E+03	7.150976E-16	0.000000E+00
4.701716E+03	7.029198E-16	0.000000E+00
4.711553E+03	6.902963E-16	0.000000E+00
4.721389E+03	6.776746E-16	0.000000E+00
4.731225E+03	6.654561E-16	0.000000E+00
4.741061E+03	6.539761E-16	0.000000E+00
4.750898E+03	6.434956E-16	0.000000E+00
4.760734E+03	6.341931E-16	0.000000E+00
4.770570E+03	6.261412E-16	0.000000E+00
4.780406E+03	6.193437E-16	0.000000E+00
4.790242E+03	6.137331E-16	0.000000E+00
4.800079E+03	6.091715E-16	0.000000E+00
4.809915E+03	6.054406E-16	0.000000E+00
4.819751E+03	6.022658E-16	0.000000E+00
4.829587E+03	5.992818E-16	0.000000E+00
4.839424E+03	5.961174E-16	0.000000E+00
4.849260E+03	5.924646E-16	0.000000E+00
4.859096E+03	5.881285E-16	0.000000E+00
4.868932E+03	5.830474E-16	0.000000E+00
4.878769E+03	5.772868E-16	0.000000E+00
4.888605E+03	5.709996E-16	0.000000E+00
4.898441E+03	5.644282E-16	0.000000E+00
4.908277E+03	5.577950E-16	0.000000E+00
4.918113E+03	5.512971E-16	0.000000E+00
4.927950E+03	5.450856E-16	0.000000E+00
4.937786E+03	5.392382E-16	0.000000E+00
4.947622E+03	5.337672E-16	0.000000E+00
4.957458E+03	5.286627E-16	0.000000E+00
4.967295E+03	5.238885E-16	0.000000E+00
4.977131E+03	5.194121E-16	0.000000E+00
4.986967E+03	5.152046E-16	0.000000E+00
4.996803E+03	5.112226E-16	0.000000E+00
5.006639E+03	5.074007E-16	0.000000E+00
5.016476E+03	5.036508E-16	0.000000E+00
5.026312E+03	4.999035E-16	0.000000E+00
5.036148E+03	4.960784E-16	0.000000E+00
5.045984E+03	4.921431E-16	0.000000E+00
5.055821E+03	4.880639E-16	0.000000E+00
5.065657E+03	4.838734E-16	0.000000E+00
5.075493E+03	4.796066E-16	0.000000E+00
5.085329E+03	4.753132E-16	0.000000E+00
5.095165E+03	4.710516E-16	0.000000E+00
5.105002E+03	4.668711E-16	0.000000E+00
5.114838E+03	4.628038E-16	0.000000E+00
5.124674E+03	4.588832E-16	0.000000E+00
5.134510E+03	4.551232E-16	0.000000E+00
5.144347E+03	4.515295E-16	0.000000E+00
5.154183E+03	4.480956E-16	0.000000E+00
5.164019E+03	4.448044E-16	0.000000E+00
5.173855E+03	4.416439E-16	0.000000E+00
5.183692E+03	4.386042E-16	0.000000E+00
5.193528E+03	4.356921E-16	0.000000E+00
5.203364E+03	4.329336E-16	0.000000E+00
5.213200E+03	4.303709E-16	0.000000E+00
5.223036E+03	4.280533E-16	0.000000E+00
5.232873E+03	4.260261E-16	0.000000E+00
5.242709E+03	4.242990E-16	0.000000E+00
5.252545E+03	4.228638E-16	0.000000E+00
5.262381E+03	4.216641E-16	0.000000E+00
5.272218E+03	4.205961E-16	0.000000E+00
5.282054E+03	4.195624E-16	0.000000E+00
5.291890E+03	4.184897E-16	0.000000E+00
5.301726E+03	4.173691E-16	0.000000E+00
5.311562E+03	4.162408E-16	0.000000E+00
5.321399E+03	4.151623E-16	0.000000E+00
5.331235E+03	4.141653E-16	0.000000E+00
5.341071E+03	4.132635E-16	0.000000E+00
5.350907E+03	4.123899E-16	0.000000E+00
5.360744E+03	4.113543E-16	0.000000E+00
5.370580E+03	4.098838E-16	0.000000E+00
5.380416E+03	4.076766E-16	0.000000E+00
5.390252E+03	4.044597E-16	0.000000E+00
5.400089E+03	4.000796E-16	0.000000E+00
5.409925E+03	3.946429E-16	0.000000E+00
5.419761E+03	3.885340E-16	0.000000E+00
5.429597E+03	3.822944E-16	0.000000E+00
5.439433E+03	3.764140E-16	0.000000E+00
5.449270E+03	3.712537E-16	0.000000E+00
5.459106E+03	3.670204E-16	0.000000E+00
5.468942E+03	3.637594E-16	0.000000E+00
5.478778E+03	3.613289E-16	0.000000E+00
5.488615E+03	3.595110E-16	0.000000E+00
5.498451E+03	3.580810E-16	0.000000E+00
5.508287E+03	3.568210E-16	0.000000E+00
5.518123E+03	3.555735E-16	0.000000E+00
5.527959E+03	3.542300E-16	0.000000E+00
5.537796E+03	3.527089E-16	0.000000E+00
5.547632E+03	3.509634E-16	0.000000E+00
5.557468E+03	3.489842E-16	0.000000E+00
5.567304E+03	3.468026E-16	0.000000E+00
5.577141E+03	3.444742E-16	0.000000E+00
5.586977E+03	3.420844E-16	0.000000E+00
5.596813E+03	3.397177E-16	0.000000E+00
5.606649E+03	3.374515E-16	0.000000E+00
5.616486E+03	3.353579E-16	0.000000E+00
5.626322E+03	3.334313E-16	0.000000E+00
5.636158E+03	3.316481E-16	0.000000E+00
5.645994E+03	3.299956E-16	0.000000E+00
5.655830E+03	3.284554E-16	0.000000E+00
5.665667E+03	3.270266E-16	0.000000E+00
5.675503E+03	3.257313E-16	0.000000E+00
5.685339E+03	3.245871E-16	0.000000E+00
5.695175E+03	3.236131E-16	0.000000E+00
5.705012E+03	3.228353E-16	0.000000E+00
5.714848E+03	3.222423E-16	0.000000E+00
5.724684E+03	3.217993E-16	0.000000E+00
5.734520E+03	3.214660E-16	0.000000E+00
5.744356E+03	3.211567E-16	0.000000E+00
5.754193E+03	3.207872E-16	0.000000E+00
5.764029E+03	3.202388E-16	0.000000E+00
5.773865E+03	3.194054E-16	0.000000E+00
5.783701E+03	3.181713E-16	0.000000E+00
5.793538E+03	3.164519E-16	0.000000E+00
5.803374E+03	3.142020E-16	0.000000E+00
5.813210E+03	3.114176E-16	0.000000E+00
5.823046E+03	3.081395E-16	0.000000E+00
5.832883E+03	3.044606E-16	0.000000E+00
5.842719E+03	3.004859E-16	0.000000E+00
5.852555E+03	2.963248E-16	0.000000E+00
5.862391E+03	2.920541E-16	0.000000E+00
5.872227E+03	2.877470E-16	0.000000E+00
5.882064E+03	2.834548E-16	0.000000E+00
5.891900E+03	2.792446E-16	0.000000E+00
5.901736E+03	2.751647E-16	0.000000E+00
5.911572E+03	2.712735E-16	0.000000E+00
5.921409E+03	2.676147E-16	0.000000E+00
5.931245E+03	2.642271E-16	0.000000E+00
5.941081E+03	2.611096E-16	0.000000E+00
5.950917E+03	2.582420E-16	0.000000E+00
5.960753E+03	2.555784E-16	0.000000E+00
5.970590E+03	2.530850E-16	0.000000E+00
5.980426E+03	2.507251E-16	0.000000E+00
5.990262E+03	2.484799E-16	0.000000E+00
6.000098E+03	2.463536E-16	0.000000E+00
6.009935E+03	2.443782E-16	0.000000E+00
6.019771E+03	2.426020E-16	0.000000E+00
6.029607E+03	2.410911E-16	0.000000E+00
6.039443E+03	2.399280E-16	0.000000E+00
6.049279E+03	2.392024E-16	0.000000E+00
6.059116E+03	2.389930E-16	0.000000E+00
6.068952E+03	2.393565E-16	0.000000E+00
6.078788E+03	2.403059E-16	0.000000E+00
6.088624E+03	2.417586E-16	0.000000E+00
6.098461E+03	2.435202E-16	0.000000E+00
6.108297E+03	2.452458E-16	0.000000E+00
6.118133E+03	2.464302E-16	0.000000E+00
6.127969E+03	2.464748E-16	0.000000E+00
6.137806E+03	2.449177E-16	0.000000E+00
6.147642E+03	2.417669E-16	0.000000E+00
6.157478E+03	2.375229E-16	0.000000E+00
6.167314E+03	2.328667E-16	0.000000E+00
6.177150E+03	2.283916E-16	0.000000E+00
6.186987E+03	2.244687E-16	0.000000E+00
6.196823E+03	2.212728E-16	0.000000E+00
6.206659E+03	2.188439E-16	0.000000E+00
6.216495E+03	2.171124E-16	0.000000E+00
6.226332E+03	2.159573E-16	0.000000E+00
6.236168E+03	2.152379E-16	0.000000E+00
6.246004E+03	2.148020E-16	0.000000E+00
6.255840E+03	2.145172E-16	0.000000E+00
6.265676E+03	2.142786E-16	0.000000E+00
6.275513E+03	2.140085E-16	0.000000E+00
6.285349E+03	2.136500E-16	0.000000E+00
6.295185E+03	2.131889E-16	0.000000E+00
6.305021E+03	2.126175E-16	0.000000E+00
6.314858E+03	2.119496E-16	0.000000E+00
6.324694E+03	2.112019E-16	0.000000E+00
6.334530E+03	2.103931E-16	0.000000E+00
6.344366E+03	2.095492E-16	0.000000E+00
6.354203E+03	2.086817E-16	0.000000E+00
6.364039E+03	2.078163E-16	0.000000E+00
6.373875E+03	2.069699E-16	0.000000E+00
6.383711E+03	2.061560E-16	0.000000E+00
6.393547E+03	2.053847E-16	0.000000E+00
6.403384E+03	2.046665E-16	0.000000E+00
6.413220E+03	2.040086E-16	0.000000E+00
6.423056E+03	2.034201E-16	0.000000E+00
6.432892E+03	2.029135E-16	0.000000E+00
6.442729E+03	2.025064E-16	0.000000E+00
6.452565E+03	2.022300E-16	0.000000E+00
6.462401E+03	2.021018E-16	0.000000E+00
6.472237E+03	2.021423E-16	0.000000E+00
6.482073E+03	2.023694E-16	0.000000E+00
6.491910E+03	2.027731E-16	0.000000E+00
6.501746E+03	2.033221E-16	0.000000E+00
6.511582E+03	2.039581E-16	0.000000E+00
6.521418E+03	2.045832E-16	0.000000E+00
6.531255E+03	2.050909E-16	0.000000E+00
6.541091E+03	2.053521E-16	0.000000E+00
6.550927E+03	2.052378E-16	0.000000E+00
6.560763E+03	2.046514E-16	0.000000E+00
6.570600E+03	2.035475E-16	0.000000E+00
6.580436E+03	2.019265E-16	0.000000E+00
6.590272E+03	1.998508E-16	0.000000E+00
6.600108E+03	1.974272E-16	0.000000E+00
6.609944E+03	1.947889E-16	0.000000E+00
6.619781E+03	1.920860E-16	0.000000E+00
6.629617E+03	1.894526E-16	0.000000E+00
6.639453E+03	1.870103E-16	0.000000E+00
6.649289E+03	1.848411E-16	0.000000E+00
6.659126E+03	1.829970E-16	0.000000E+00
6.668962E+03	1.814856E-16	0.000000E+00
6.678798E+03	1.802863E-16	0.000000E+00
6.688634E+03	1.793389E-16	0.000000E+00
6.698470E+03	1.785721E-16	0.000000E+00
6.708307E+03	1.779078E-16	0.000000E+00
6.718143E+03	1.772839E-16	0.000000E+00
6.727979E+03	1.766582E-16	0.000000E+00
6.737815E+03	1.759979E-16	0.000000E+00
6.747652E+03	1.752899E-16	0.000000E+00
6.757488E+03	1.745306E-16	0.000000E+00
6.767324E+03	1.737219E-16	0.000000E+00
6.777160E+03	1.728561E-16	0.000000E+00
6.786997E+03	1.719223E-16	0.000000E+00
6.796833E+03	1.709218E-16	0.000000E+00
6.806669E+03	1.698493E-16	0.000000E+00
6.816505E+03	1.687104E-16	0.000000E+00
6.826341E+03	1.675182E-16	0.000000E+00
6.836178E+03	1.663092E-16	0.000000E+00
6.846014E+03	1.651083E-16	0.000000E+00
6.855850E+03	1.639422E-16	0.000000E+00
6.865686E+03	1.628182E-16	0.000000E+00
6.875523E+03	1.617268E-16	0.000000E+00
6.885359E+03	1.606604E-16	0.000000E+00
6.895195E+03	1.596081E-16	0.000000E+00
6.905031E+03	1.585600E-16	0.000000E+00
6.914867E+03	1.575228E-16	0.000000E+00
6.924704E+03	1.565067E-16	0.000000E+00
6.934540E+03	1.555340E-16	0.000000E+00
6.944376E+03	1.546144E-16	0.000000E+00
6.954212E+03	1.537509E-16	0.000000E+00
6.964049E+03	1.529377E-16	0.000000E+00
6.973885E+03	1.521685E-16	0.000000E+00
6.983721E+03	1.514289E-16	0.000000E+00
6.993557E+03	1.507098E-16	0.000000E+00
7.003393E+03	1.500064E-16	0.000000E+00
7.013230E+03	1.493214E-16	0.000000E+00
7.023066E+03	1.486462E-16	0.000000E+00
7.032902E+03	1.479757E-16	0.000000E+00
7.042738E+03	1.472896E-16	0.000000E+00
7.052575E+03	1.465646E-16	0.000000E+00
7.062411E+03	1.457680E-16	0.000000E+00
7.072247E+03	1.448855E-16	0.000000E+00
7.082083E+03	1.439037E-16	0.000000E+00
7.091920E+03	1.428286E-16	0.000000E+00
7.101756E+03	1.416594E-16	0.000000E+00
7.111592E+03	1.404087E-16	0.000000E+00
7.121428E+03	1.390825E-16	0.000000E+00
7.131264E+03	1.376804E-16	0.000000E+00
7.141101E+03	1.361975E-16	0.000000E+00
7.150937E+03	1.346424E-16	0.000000E+00
7.160773E+03	1.330313E-16	0.000000E+00
7.170609E+03	1.313890E-16	0.000000E+00
7.180446E+03	1.297579E-16	0.000000E+00
7.190282E+03	1.281839E-16	0.000000E+00
7.200118E+03	1.267128E-16	0.000000E+00
7.209954E+03	1.253752E-16	0.000000E+00
7.219790E+03	1.241887E-16	0.000000E+00
7.229627E+03	1.231524E-16	0.000000E+00
7.239463E+03	1.222585E-16	0.000000E+00
7.249299E+03	1.214815E-16	0.000000E+00
7.259135E+03	1.208063E-16	0.000000E+00
7.268972E+03	1.202271E-16	0.000000E+00
7.278808E+03	1.197407E-16	0.000000E+00
7.288644E+03	1.193712E-16	0.000000E+00
7.298480E+03	1.191330E-16	0.000000E+00
7.308317E+03	1.190475E-16	0.000000E+00
7.318153E+03	1.191374E-16	0.000000E+00
7.327989E+03	1.194009E-16	0.000000E+00
7.337825E+03	1.198182E-16	0.000000E+00
7.347661E+03	1.203634E-16	0.000000E+00
7.357498E+03	1.210075E-16	0.000000E+00
7.367334E+03	1.217388E-16	0.000000E+00
7.377170E+03	1.225560E-16	0.000000E+00
7.387006E+03	1.234744E-16	0.000000E+00
7.396843E+03	1.245264E-16	0.000000E+00
7.406679E+03	1.257434E-16	0.000000E+00
7.416515E+03	1.271592E-16	0.000000E+00
7.426351E+03	1.287799E-16	0.000000E+00
7.436187E+03	1.305809E-16	0.000000E+00
7.446024E+03	1.325031E-16	0.000000E+00
7.455860E+03	1.344093E-16	0.000000E+00
7.465696E+03	1.361054E-16	0.000000E+00
7.475532E+03	1.373340E-16	0.000000E+00
7.485369E+03	1.378475E-16	0.000000E+00
7.495205E+03	1.375177E-16	0.000000E+00
7.505041E+03	1.364358E-16	0.000000E+00
7.514877E+03	1.348223E-16	0.000000E+00
7.524714E+03	1.329187E-16	0.000000E+00
7.534550E+03	1.309218E-16	0.000000E+00
7.544386E+03	1.289700E-16	0.000000E+00
7.554222E+03	1.271560E-16	0.000000E+00
7.564058E+03	1.255461E-16	0.000000E+00
7.573895E+03	1.241736E-16	0.000000E+00
7.583731E+03	1.230716E-16	0.000000E+00
7.593567E+03	1.222594E-16	0.000000E+00
7.603403E+03	1.217447E-16	0.000000E+00
7.613240E+03	1.215233E-16	0.000000E+00
7.623076E+03	1.215906E-16	0.000000E+00
7.632912E+03	1.219282E-16	0.000000E+00
