#wls	flux	fluxerr
1.573796E+03	1.695755E-16	7.402864E-18
1.613141E+03	1.742397E-16	7.521529E-18
1.652486E+03	1.783868E-16	7.612072E-18
1.691831E+03	1.819677E-16	7.673082E-18
1.731176E+03	1.849315E-16	7.703211E-18
1.770521E+03	1.871943E-16	7.699884E-18
1.809866E+03	1.885790E-16	7.656954E-18
1.849211E+03	1.889288E-16	7.569516E-18
1.888556E+03	1.881074E-16	7.433854E-18
1.927900E+03	1.860528E-16	7.249508E-18
1.967245E+03	1.829691E-16	7.026433E-18
2.006590E+03	1.794992E-16	6.790791E-18
2.045935E+03	1.767992E-16	6.586414E-18
2.085280E+03	1.765024E-16	6.471949E-18
2.124625E+03	1.801843E-16	6.500048E-18
2.163970E+03	1.886871E-16	6.693461E-18
2.203315E+03	2.016916E-16	7.032233E-18
2.242660E+03	2.179069E-16	7.463720E-18
2.282005E+03	2.358041E-16	7.930307E-18
2.321350E+03	2.542614E-16	8.391534E-18
2.360694E+03	2.725856E-16	8.823620E-18
2.400039E+03	2.904325E-16	9.215647E-18
2.439384E+03	3.076825E-16	9.564594E-18
2.478729E+03	3.243691E-16	9.872472E-18
2.518074E+03	3.403375E-16	1.013566E-17
2.557419E+03	3.551419E-16	1.034254E-17
2.596764E+03	3.681043E-16	1.047614E-17
2.636109E+03	3.795575E-16	1.054947E-17
2.675454E+03	3.905914E-16	1.059529E-17
2.714799E+03	4.021517E-16	1.063972E-17
2.754144E+03	4.148805E-16	1.069860E-17
2.793488E+03	4.292960E-16	1.078300E-17
2.832833E+03	4.458477E-16	1.090100E-17
2.872178E+03	4.650403E-16	1.106094E-17
2.911523E+03	4.874113E-16	1.127077E-17
2.950868E+03	5.135325E-16	1.153804E-17
2.960704E+03	5.207022E-16	1.161431E-17
2.970541E+03	5.281648E-16	1.169498E-17
2.980377E+03	5.359112E-16	1.177973E-17
2.990213E+03	5.439718E-16	1.186911E-17
3.000049E+03	5.523555E-16	1.196320E-17
3.009885E+03	5.610898E-16	1.206246E-17
3.019722E+03	5.701794E-16	1.216685E-17
3.029558E+03	5.796452E-16	1.227669E-17
3.039394E+03	5.894948E-16	1.239200E-17
3.049230E+03	5.997280E-16	1.251262E-17
3.059067E+03	6.103649E-16	1.263885E-17
3.068903E+03	6.214075E-16	1.277057E-17
3.078739E+03	6.328762E-16	1.290806E-17
3.088575E+03	6.447396E-16	1.305055E-17
3.098411E+03	6.570336E-16	1.319863E-17
3.108248E+03	6.697450E-16	1.335189E-17
3.118084E+03	6.828746E-16	1.351024E-17
3.127920E+03	6.964069E-16	1.367324E-17
3.137756E+03	7.103758E-16	1.384144E-17
3.147593E+03	7.247473E-16	1.401407E-17
3.157429E+03	7.395183E-16	1.419098E-17
3.167265E+03	7.546847E-16	1.437199E-17
3.177101E+03	7.702585E-16	1.455726E-17
3.186937E+03	7.861972E-16	1.474591E-17
3.196774E+03	8.025253E-16	1.493834E-17
3.206610E+03	8.191775E-16	1.513328E-17
3.216446E+03	8.361727E-16	1.533106E-17
3.226282E+03	8.534748E-16	1.553101E-17
3.236119E+03	8.710613E-16	1.573270E-17
3.245955E+03	8.889069E-16	1.593572E-17
3.255791E+03	9.069636E-16	1.613923E-17
3.265627E+03	9.251991E-16	1.634272E-17
3.275464E+03	9.435774E-16	1.654565E-17
3.285300E+03	9.620590E-16	1.674742E-17
3.295136E+03	9.805827E-16	1.694710E-17
3.304972E+03	9.991042E-16	1.714408E-17
3.314808E+03	1.017557E-15	1.733739E-17
3.324645E+03	1.035930E-15	1.752705E-17
3.334481E+03	1.054134E-15	1.771176E-17
3.344317E+03	1.072093E-15	1.789050E-17
3.354153E+03	1.089783E-15	1.806316E-17
3.363990E+03	1.107090E-15	1.822812E-17
3.373826E+03	1.123938E-15	1.838444E-17
3.383662E+03	1.140147E-15	1.852958E-17
3.393498E+03	1.155555E-15	1.866127E-17
3.403334E+03	1.169832E-15	1.877467E-17
3.413171E+03	1.182659E-15	1.886522E-17
3.423007E+03	1.193827E-15	1.893017E-17
3.432843E+03	1.203488E-15	1.897258E-17
3.442679E+03	1.211957E-15	1.899795E-17
3.452516E+03	1.219557E-15	1.901177E-17
3.462352E+03	1.226541E-15	1.901832E-17
3.472188E+03	1.233102E-15	1.902085E-17
3.482024E+03	1.239395E-15	1.902193E-17
3.491861E+03	1.245540E-15	1.902346E-17
3.501697E+03	1.251701E-15	1.902792E-17
3.511533E+03	1.257947E-15	1.903634E-17
3.521369E+03	1.264435E-15	1.905107E-17
3.531205E+03	1.271268E-15	1.907355E-17
3.541042E+03	1.278564E-15	1.910547E-17
3.550878E+03	1.286417E-15	1.914812E-17
3.560714E+03	1.294932E-15	1.920294E-17
3.570550E+03	1.304205E-15	1.927121E-17
3.580387E+03	1.314297E-15	1.935368E-17
3.590223E+03	1.325269E-15	1.945114E-17
3.600059E+03	1.337161E-15	1.956400E-17
3.609895E+03	1.349968E-15	1.969207E-17
3.619731E+03	1.363691E-15	1.983524E-17
3.629568E+03	1.378243E-15	1.999210E-17
3.639404E+03	1.393552E-15	2.016154E-17
3.649240E+03	1.409484E-15	2.034150E-17
3.659076E+03	1.425812E-15	2.052868E-17
3.668913E+03	1.442301E-15	2.071964E-17
3.678749E+03	1.458550E-15	2.090862E-17
3.688585E+03	1.474114E-15	2.108926E-17
3.698421E+03	1.488500E-15	2.125455E-17
3.708258E+03	1.501216E-15	2.139756E-17
3.718094E+03	1.511754E-15	2.151117E-17
3.727930E+03	1.519789E-15	2.159085E-17
3.737766E+03	1.525244E-15	2.163564E-17
3.747602E+03	1.528202E-15	2.164681E-17
3.757439E+03	1.528920E-15	2.162807E-17
3.767275E+03	1.527782E-15	2.158489E-17
3.777111E+03	1.525304E-15	2.152458E-17
3.786947E+03	1.522030E-15	2.145476E-17
3.796784E+03	1.518583E-15	2.138417E-17
3.806620E+03	1.515571E-15	2.132128E-17
3.816456E+03	1.513598E-15	2.127450E-17
3.826292E+03	1.513284E-15	2.125240E-17
3.836128E+03	1.515181E-15	2.126260E-17
3.845965E+03	1.519699E-15	2.131075E-17
3.855801E+03	1.527102E-15	2.140039E-17
3.865637E+03	1.537506E-15	2.153303E-17
3.875473E+03	1.550832E-15	2.170745E-17
3.885310E+03	1.566810E-15	2.191978E-17
3.895146E+03	1.585066E-15	2.216472E-17
3.904982E+03	1.605048E-15	2.243449E-17
3.914818E+03	1.626168E-15	2.272083E-17
3.924655E+03	1.647760E-15	2.301440E-17
3.934491E+03	1.669214E-15	2.330668E-17
3.944327E+03	1.690046E-15	2.359092E-17
3.954163E+03	1.709831E-15	2.386117E-17
3.963999E+03	1.728227E-15	2.411267E-17
3.973836E+03	1.744983E-15	2.434192E-17
3.983672E+03	1.759858E-15	2.454558E-17
3.993508E+03	1.772720E-15	2.472180E-17
4.003344E+03	1.783489E-15	2.486947E-17
4.013181E+03	1.792137E-15	2.498821E-17
4.023017E+03	1.798648E-15	2.507779E-17
4.032853E+03	1.803085E-15	2.513910E-17
4.042689E+03	1.805460E-15	2.517229E-17
4.052525E+03	1.805838E-15	2.517826E-17
4.062362E+03	1.804331E-15	2.515858E-17
4.072198E+03	1.800979E-15	2.511379E-17
4.082034E+03	1.795917E-15	2.504577E-17
4.091870E+03	1.789176E-15	2.495493E-17
4.101707E+03	1.780803E-15	2.484193E-17
4.111543E+03	1.770739E-15	2.470594E-17
4.121379E+03	1.758860E-15	2.454522E-17
4.131215E+03	1.744993E-15	2.435733E-17
4.141051E+03	1.729015E-15	2.414051E-17
4.150888E+03	1.710977E-15	2.389549E-17
4.160724E+03	1.691051E-15	2.362463E-17
4.170560E+03	1.669731E-15	2.333481E-17
4.180396E+03	1.647818E-15	2.303717E-17
4.190233E+03	1.626374E-15	2.274659E-17
4.200069E+03	1.606493E-15	2.247838E-17
4.209905E+03	1.589278E-15	2.224798E-17
4.219741E+03	1.575700E-15	2.206905E-17
4.229578E+03	1.566470E-15	2.195165E-17
4.239414E+03	1.561832E-15	2.189930E-17
4.249250E+03	1.561674E-15	2.191057E-17
4.259086E+03	1.565570E-15	2.197962E-17
4.268922E+03	1.572749E-15	2.209577E-17
4.278759E+03	1.582144E-15	2.224413E-17
4.288595E+03	1.592468E-15	2.240666E-17
4.298431E+03	1.602395E-15	2.256464E-17
4.308267E+03	1.610533E-15	2.269837E-17
4.318104E+03	1.615594E-15	2.278956E-17
4.327940E+03	1.616817E-15	2.282725E-17
4.337776E+03	1.613932E-15	2.280742E-17
4.347612E+03	1.607151E-15	2.273280E-17
4.357448E+03	1.597085E-15	2.261182E-17
4.367285E+03	1.584607E-15	2.245662E-17
4.377121E+03	1.570660E-15	2.228041E-17
4.386957E+03	1.556229E-15	2.209701E-17
4.396793E+03	1.542238E-15	2.191949E-17
4.406630E+03	1.529465E-15	2.175884E-17
4.416466E+03	1.518570E-15	2.162444E-17
4.426302E+03	1.510039E-15	2.152324E-17
4.436138E+03	1.504274E-15	2.146098E-17
4.445975E+03	1.501573E-15	2.144200E-17
4.455811E+03	1.502117E-15	2.146892E-17
4.465647E+03	1.505930E-15	2.154215E-17
4.475483E+03	1.512812E-15	2.165886E-17
4.485319E+03	1.522341E-15	2.181308E-17
4.495156E+03	1.533902E-15	2.199602E-17
4.504992E+03	1.546697E-15	2.219618E-17
4.514828E+03	1.559759E-15	2.239967E-17
4.524664E+03	1.572219E-15	2.259392E-17
4.534501E+03	1.583343E-15	2.276828E-17
4.544337E+03	1.592531E-15	2.291404E-17
4.554173E+03	1.599280E-15	2.302380E-17
4.564009E+03	1.603164E-15	2.309132E-17
4.573845E+03	1.603874E-15	2.311203E-17
4.583682E+03	1.601170E-15	2.308237E-17
4.593518E+03	1.594957E-15	2.300085E-17
4.603354E+03	1.585277E-15	2.286801E-17
4.613190E+03	1.572287E-15	2.268605E-17
4.623027E+03	1.556345E-15	2.246011E-17
4.632863E+03	1.537973E-15	2.219769E-17
4.642699E+03	1.517772E-15	2.190747E-17
4.652535E+03	1.496447E-15	2.159965E-17
4.662372E+03	1.474765E-15	2.128532E-17
4.672208E+03	1.453510E-15	2.097583E-17
4.682044E+03	1.433435E-15	2.068209E-17
4.691880E+03	1.415290E-15	2.041492E-17
4.701716E+03	1.399776E-15	2.018447E-17
4.711553E+03	1.387531E-15	1.999990E-17
4.721389E+03	1.379089E-15	1.986889E-17
4.731225E+03	1.374813E-15	1.979658E-17
4.741061E+03	1.374776E-15	1.978393E-17
4.750898E+03	1.378842E-15	1.982886E-17
4.760734E+03	1.386551E-15	1.992463E-17
4.770570E+03	1.397158E-15	2.006038E-17
4.780406E+03	1.409643E-15	2.022133E-17
4.790242E+03	1.422941E-15	2.039211E-17
4.800079E+03	1.435978E-15	2.055726E-17
4.809915E+03	1.447747E-15	2.070235E-17
4.819751E+03	1.457307E-15	2.081397E-17
4.829587E+03	1.463873E-15	2.088099E-17
4.839424E+03	1.466865E-15	2.089532E-17
4.849260E+03	1.465923E-15	2.085204E-17
4.859096E+03	1.461059E-15	2.075155E-17
4.868932E+03	1.452543E-15	2.059798E-17
4.878769E+03	1.440973E-15	2.040006E-17
4.888605E+03	1.427191E-15	2.016997E-17
4.898441E+03	1.412213E-15	1.992225E-17
4.908277E+03	1.396957E-15	1.966998E-17
4.918113E+03	1.382185E-15	1.942397E-17
4.927950E+03	1.368435E-15	1.919176E-17
4.937786E+03	1.355959E-15	1.897688E-17
4.947622E+03	1.344648E-15	1.877772E-17
4.957458E+03	1.334150E-15	1.858936E-17
4.967295E+03	1.324010E-15	1.840543E-17
4.977131E+03	1.313760E-15	1.821946E-17
4.986967E+03	1.302949E-15	1.802528E-17
4.996803E+03	1.291314E-15	1.781939E-17
5.006639E+03	1.278864E-15	1.760205E-17
5.016476E+03	1.265817E-15	1.737639E-17
5.026312E+03	1.252581E-15	1.714813E-17
5.036148E+03	1.239704E-15	1.692486E-17
5.045984E+03	1.227811E-15	1.671508E-17
5.055821E+03	1.217414E-15	1.652570E-17
5.065657E+03	1.208830E-15	1.636092E-17
5.075493E+03	1.202212E-15	1.622259E-17
5.085329E+03	1.197501E-15	1.610977E-17
5.095165E+03	1.194467E-15	1.601918E-17
5.105002E+03	1.192721E-15	1.594546E-17
5.114838E+03	1.191859E-15	1.588310E-17
5.124674E+03	1.191512E-15	1.582716E-17
5.134510E+03	1.191342E-15	1.577312E-17
5.144347E+03	1.191131E-15	1.571813E-17
5.154183E+03	1.190736E-15	1.566040E-17
5.164019E+03	1.190114E-15	1.559940E-17
5.173855E+03	1.189260E-15	1.553516E-17
5.183692E+03	1.188204E-15	1.546817E-17
5.193528E+03	1.186983E-15	1.539900E-17
5.203364E+03	1.185586E-15	1.532755E-17
5.213200E+03	1.184004E-15	1.525382E-17
5.223036E+03	1.182195E-15	1.517734E-17
5.232873E+03	1.180106E-15	1.509752E-17
5.242709E+03	1.177634E-15	1.501317E-17
5.252545E+03	1.174685E-15	1.492318E-17
5.262381E+03	1.171138E-15	1.482614E-17
5.272218E+03	1.166852E-15	1.472043E-17
5.282054E+03	1.161737E-15	1.460506E-17
5.291890E+03	1.155786E-15	1.448011E-17
5.301726E+03	1.149129E-15	1.434738E-17
5.311562E+03	1.142001E-15	1.420994E-17
5.321399E+03	1.134729E-15	1.407193E-17
5.331235E+03	1.127708E-15	1.393831E-17
5.341071E+03	1.121298E-15	1.381352E-17
5.350907E+03	1.115703E-15	1.370000E-17
5.360744E+03	1.110986E-15	1.359845E-17
5.370580E+03	1.107044E-15	1.350746E-17
5.380416E+03	1.103682E-15	1.342454E-17
5.390252E+03	1.100665E-15	1.334671E-17
5.400089E+03	1.097778E-15	1.327130E-17
5.409925E+03	1.094874E-15	1.319647E-17
5.419761E+03	1.091894E-15	1.312147E-17
5.429597E+03	1.088823E-15	1.304610E-17
5.439433E+03	1.085646E-15	1.297014E-17
5.449270E+03	1.082272E-15	1.289249E-17
5.459106E+03	1.078572E-15	1.281158E-17
5.468942E+03	1.074414E-15	1.272585E-17
5.478778E+03	1.069655E-15	1.263363E-17
5.488615E+03	1.064222E-15	1.253408E-17
5.498451E+03	1.058147E-15	1.242759E-17
5.508287E+03	1.051590E-15	1.231610E-17
5.518123E+03	1.044828E-15	1.220283E-17
5.527959E+03	1.038128E-15	1.209090E-17
5.537796E+03	1.031735E-15	1.198313E-17
5.547632E+03	1.025860E-15	1.188188E-17
5.557468E+03	1.020632E-15	1.178860E-17
5.567304E+03	1.016074E-15	1.170344E-17
5.577141E+03	1.012128E-15	1.162569E-17
5.586977E+03	1.008677E-15	1.155392E-17
5.596813E+03	1.005537E-15	1.148597E-17
5.606649E+03	1.002524E-15	1.141969E-17
5.616486E+03	9.994446E-16	1.135288E-17
5.626322E+03	9.962229E-16	1.128468E-17
5.636158E+03	9.928064E-16	1.121451E-17
5.645994E+03	9.891907E-16	1.114233E-17
5.655830E+03	9.853830E-16	1.106824E-17
5.665667E+03	9.814474E-16	1.099298E-17
5.675503E+03	9.773939E-16	1.091669E-17
5.685339E+03	9.732691E-16	1.083991E-17
5.695175E+03	9.691060E-16	1.076300E-17
5.705012E+03	9.650047E-16	1.068711E-17
5.714848E+03	9.611760E-16	1.061457E-17
5.724684E+03	9.578969E-16	1.054842E-17
5.734520E+03	9.554697E-16	1.049195E-17
5.744356E+03	9.541813E-16	1.044824E-17
5.754193E+03	9.542784E-16	1.041990E-17
5.764029E+03	9.559291E-16	1.040868E-17
5.773865E+03	9.591322E-16	1.041443E-17
5.783701E+03	9.637605E-16	1.043569E-17
5.793538E+03	9.695431E-16	1.046944E-17
5.803374E+03	9.760445E-16	1.051092E-17
5.813210E+03	9.827485E-16	1.055459E-17
5.823046E+03	9.891015E-16	1.059455E-17
5.832883E+03	9.946471E-16	1.062600E-17
5.842719E+03	9.989692E-16	1.064465E-17
5.852555E+03	1.001810E-15	1.064791E-17
5.862391E+03	1.003102E-15	1.063526E-17
5.872227E+03	1.002894E-15	1.060737E-17
5.882064E+03	1.001358E-15	1.056627E-17
5.891900E+03	9.987060E-16	1.051433E-17
5.901736E+03	9.951916E-16	1.045434E-17
5.911572E+03	9.910600E-16	1.038901E-17
5.921409E+03	9.865700E-16	1.032114E-17
5.931245E+03	9.819184E-16	1.025286E-17
5.941081E+03	9.773211E-16	1.018648E-17
5.950917E+03	9.729228E-16	1.012357E-17
5.960753E+03	9.688744E-16	1.006574E-17
5.970590E+03	9.652975E-16	1.001428E-17
5.980426E+03	9.622529E-16	9.969882E-18
5.990262E+03	9.597835E-16	9.933017E-18
6.000098E+03	9.578718E-16	9.903549E-18
6.009935E+03	9.564221E-16	9.880541E-18
6.019771E+03	9.553336E-16	9.863009E-18
6.029607E+03	9.544784E-16	9.849694E-18
6.039443E+03	9.537271E-16	9.839331E-18
6.049279E+03	9.529949E-16	9.831112E-18
6.059116E+03	9.522310E-16	9.824582E-18
6.068952E+03	9.514034E-16	9.819479E-18
6.078788E+03	9.504623E-16	9.815351E-18
6.088624E+03	9.493154E-16	9.811305E-18
6.098461E+03	9.476770E-16	9.804437E-18
6.108297E+03	9.452128E-16	9.791320E-18
6.118133E+03	9.415360E-16	9.767922E-18
6.127969E+03	9.363132E-16	9.730624E-18
6.137806E+03	9.293908E-16	9.677610E-18
6.147642E+03	9.209355E-16	9.610376E-18
6.157478E+03	9.114837E-16	9.534277E-18
6.167314E+03	9.017362E-16	9.456434E-18
6.177150E+03	8.924418E-16	9.384541E-18
6.186987E+03	8.841557E-16	9.324347E-18
6.196823E+03	8.772937E-16	9.280200E-18
6.206659E+03	8.721106E-16	9.254813E-18
6.216495E+03	8.687009E-16	9.249244E-18
6.226332E+03	8.670452E-16	9.263363E-18
6.236168E+03	8.670161E-16	9.295896E-18
6.246004E+03	8.683420E-16	9.344014E-18
6.255840E+03	8.706784E-16	9.404067E-18
6.265676E+03	8.736443E-16	9.471961E-18
6.275513E+03	8.767736E-16	9.542618E-18
6.285349E+03	8.796624E-16	9.611566E-18
6.295185E+03	8.819359E-16	9.674579E-18
6.305021E+03	8.834437E-16	9.729837E-18
6.314858E+03	8.841281E-16	9.776521E-18
6.324694E+03	8.841322E-16	9.816026E-18
6.334530E+03	8.837272E-16	9.851203E-18
6.344366E+03	8.833068E-16	9.886325E-18
6.354203E+03	8.833236E-16	9.926396E-18
6.364039E+03	8.842455E-16	9.976679E-18
6.373875E+03	8.864962E-16	1.004202E-17
6.383711E+03	8.904632E-16	1.012694E-17
6.393547E+03	8.964310E-16	1.023484E-17
6.403384E+03	9.045628E-16	1.036779E-17
6.413220E+03	9.148801E-16	1.052624E-17
6.423056E+03	9.272132E-16	1.070845E-17
6.432892E+03	9.412539E-16	1.091102E-17
6.442729E+03	9.565560E-16	1.112890E-17
6.452565E+03	9.726056E-16	1.135615E-17
6.462401E+03	9.888193E-16	1.158594E-17
6.472237E+03	1.004617E-15	1.181138E-17
6.482073E+03	1.019529E-15	1.202677E-17
6.491910E+03	1.033084E-15	1.222635E-17
6.501746E+03	1.044896E-15	1.240527E-17
6.511582E+03	1.054608E-15	1.255900E-17
6.521418E+03	1.061825E-15	1.268251E-17
6.531255E+03	1.066249E-15	1.277191E-17
6.541091E+03	1.067514E-15	1.282243E-17
6.550927E+03	1.065353E-15	1.283051E-17
6.560763E+03	1.059618E-15	1.279400E-17
6.570600E+03	1.050401E-15	1.271366E-17
6.580436E+03	1.037967E-15	1.259238E-17
6.590272E+03	1.022818E-15	1.243604E-17
6.600108E+03	1.005674E-15	1.225319E-17
6.609944E+03	9.873813E-16	1.205406E-17
6.619781E+03	9.687143E-16	1.184809E-17
6.629617E+03	9.503876E-16	1.164407E-17
6.639453E+03	9.329538E-16	1.144886E-17
6.649289E+03	9.168056E-16	1.126739E-17
6.659126E+03	9.020897E-16	1.110159E-17
6.668962E+03	8.888122E-16	1.095166E-17
6.678798E+03	8.768315E-16	1.081597E-17
6.688634E+03	8.659017E-16	1.069157E-17
6.698470E+03	8.557630E-16	1.057534E-17
6.708307E+03	8.461106E-16	1.046356E-17
6.718143E+03	8.367220E-16	1.035354E-17
6.727979E+03	8.274111E-16	1.024302E-17
6.737815E+03	8.181080E-16	1.013118E-17
6.747652E+03	8.088840E-16	1.001894E-17
6.757488E+03	7.998726E-16	9.907995E-18
6.767324E+03	7.912571E-16	9.800666E-18
6.777160E+03	7.832151E-16	9.699196E-18
6.786997E+03	7.759363E-16	9.605969E-18
6.796833E+03	7.695347E-16	9.522430E-18
6.806669E+03	7.640257E-16	9.448791E-18
6.816505E+03	7.593690E-16	9.384571E-18
6.826341E+03	7.554702E-16	9.328613E-18
6.836178E+03	7.521999E-16	9.279328E-18
6.846014E+03	7.493687E-16	9.234389E-18
6.855850E+03	7.468290E-16	9.191991E-18
6.865686E+03	7.444470E-16	9.150502E-18
6.875523E+03	7.421055E-16	9.108508E-18
6.885359E+03	7.397525E-16	9.065397E-18
6.895195E+03	7.373567E-16	9.020822E-18
6.905031E+03	7.349271E-16	8.974928E-18
6.914867E+03	7.324837E-16	8.927996E-18
6.924704E+03	7.299924E-16	8.879651E-18
6.934540E+03	7.274578E-16	8.829992E-18
6.944376E+03	7.248360E-16	8.778530E-18
6.954212E+03	7.221258E-16	8.725302E-18
6.964049E+03	7.193121E-16	8.670178E-18
6.973885E+03	7.164199E-16	8.613515E-18
6.983721E+03	7.134789E-16	8.555725E-18
6.993557E+03	7.105175E-16	8.497202E-18
7.003393E+03	7.075758E-16	8.438479E-18
7.013230E+03	7.046986E-16	8.380141E-18
7.023066E+03	7.018937E-16	8.322330E-18
7.032902E+03	6.992301E-16	8.265911E-18
7.042738E+03	6.967563E-16	8.211498E-18
7.052575E+03	6.945360E-16	8.159880E-18
7.062411E+03	6.926116E-16	8.111586E-18
7.072247E+03	6.909858E-16	8.066678E-18
7.082083E+03	6.896245E-16	8.024792E-18
7.091920E+03	6.884442E-16	7.984995E-18
7.101756E+03	6.873586E-16	7.946339E-18
7.111592E+03	6.862166E-16	7.907143E-18
7.121428E+03	6.849362E-16	7.866547E-18
7.131264E+03	6.834303E-16	7.823645E-18
7.141101E+03	6.816936E-16	7.778481E-18
7.150937E+03	6.797574E-16	7.731517E-18
7.160773E+03	6.776940E-16	7.683677E-18
7.170609E+03	6.756393E-16	7.636595E-18
7.180446E+03	6.736664E-16	7.591179E-18
7.190282E+03	6.718577E-16	7.548435E-18
7.200118E+03	6.702076E-16	7.508373E-18
7.209954E+03	6.687154E-16	7.471063E-18
7.219790E+03	6.672826E-16	7.435487E-18
7.229627E+03	6.658237E-16	7.400786E-18
7.239463E+03	6.642661E-16	7.366255E-18
7.249299E+03	6.625465E-16	7.331301E-18
7.259135E+03	6.606557E-16	7.295930E-18
7.268972E+03	6.586367E-16	7.260729E-18
7.278808E+03	6.565928E-16	7.226936E-18
7.288644E+03	6.546755E-16	7.196317E-18
7.298480E+03	6.529974E-16	7.170199E-18
7.308317E+03	6.517045E-16	7.150278E-18
7.318153E+03	6.508270E-16	7.136974E-18
7.327989E+03	6.503834E-16	7.130591E-18
7.337825E+03	6.502732E-16	7.130130E-18
7.347661E+03	6.503363E-16	7.133950E-18
7.357498E+03	6.504545E-16	7.140867E-18
7.367334E+03	6.506083E-16	7.150778E-18
7.377170E+03	6.507853E-16	7.163661E-18
7.387006E+03	6.511027E-16	7.180915E-18
7.396843E+03	6.516971E-16	7.204170E-18
7.406679E+03	6.527365E-16	7.235413E-18
7.416515E+03	6.542752E-16	7.275403E-18
7.426351E+03	6.562441E-16	7.323534E-18
7.436187E+03	6.584340E-16	7.377634E-18
7.446024E+03	6.605941E-16	7.435024E-18
7.455860E+03	6.624544E-16	7.492746E-18
7.465696E+03	6.636936E-16	7.547097E-18
7.475532E+03	6.639296E-16	7.593563E-18
7.485369E+03	6.626984E-16	7.626550E-18
7.495205E+03	6.596163E-16	7.641220E-18
7.505041E+03	6.543257E-16	7.632869E-18
7.514877E+03	6.466558E-16	7.598807E-18
7.524714E+03	6.366317E-16	7.538543E-18
7.534550E+03	6.246343E-16	7.455772E-18
7.544386E+03	6.114583E-16	7.359262E-18
7.554222E+03	5.981491E-16	7.261105E-18
7.564058E+03	5.857159E-16	7.173377E-18
7.573895E+03	5.750357E-16	7.106972E-18
7.583731E+03	5.667478E-16	7.070255E-18
7.593567E+03	5.612199E-16	7.068520E-18
7.603403E+03	5.584342E-16	7.102401E-18
7.613240E+03	5.581249E-16	7.169398E-18
7.623076E+03	5.599289E-16	7.265672E-18
7.632912E+03	5.634006E-16	7.386158E-18
