#wls	flux	fluxerr
1.573796E+03	3.754327E-19	1.512886E-19
1.613141E+03	3.905176E-19	1.564515E-19
1.652486E+03	4.050801E-19	1.613152E-19
1.691831E+03	4.193595E-19	1.659757E-19
1.731176E+03	4.328160E-19	1.702203E-19
1.770521E+03	4.453151E-19	1.740001E-19
1.809866E+03	4.563053E-19	1.771063E-19
1.849211E+03	4.649749E-19	1.792356E-19
1.888556E+03	4.706981E-19	1.801654E-19
1.927900E+03	4.728347E-19	1.796752E-19
1.967245E+03	4.711255E-19	1.776963E-19
2.006590E+03	4.666842E-19	1.746781E-19
2.045935E+03	4.623124E-19	1.716852E-19
2.085280E+03	4.620778E-19	1.702159E-19
2.124625E+03	4.707973E-19	1.719925E-19
2.163970E+03	4.916825E-19	1.780949E-19
2.203315E+03	5.253975E-19	1.886441E-19
2.242660E+03	5.698372E-19	2.027633E-19
2.282005E+03	6.223913E-19	2.194204E-19
2.321350E+03	6.797694E-19	2.373769E-19
2.360694E+03	7.403378E-19	2.560093E-19
2.400039E+03	8.026353E-19	2.747737E-19
2.439384E+03	8.664038E-19	2.935535E-19
2.478729E+03	9.317403E-19	3.123540E-19
2.518074E+03	9.990641E-19	3.312857E-19
2.557419E+03	1.069220E-18	3.505918E-19
2.596764E+03	1.142801E-18	3.704204E-19
2.636109E+03	1.220961E-18	3.910892E-19
2.675454E+03	1.304784E-18	4.128756E-19
2.714799E+03	1.395510E-18	4.360862E-19
2.754144E+03	1.494819E-18	4.611424E-19
2.793488E+03	1.604088E-18	4.883431E-19
2.832833E+03	1.725465E-18	5.181947E-19
2.872178E+03	1.861111E-18	5.511675E-19
2.911523E+03	2.013813E-18	5.878748E-19
2.950868E+03	2.186045E-18	6.287878E-19
2.960704E+03	2.232853E-18	6.398408E-19
2.970541E+03	2.280659E-18	6.510703E-19
2.980377E+03	2.330595E-18	6.627938E-19
2.990213E+03	2.381647E-18	6.747169E-19
3.000049E+03	2.434679E-18	6.870796E-19
3.009885E+03	2.489460E-18	6.998097E-19
3.019722E+03	2.546414E-18	7.130198E-19
3.029558E+03	2.605199E-18	7.266066E-19
3.039394E+03	2.666268E-18	7.406894E-19
3.049230E+03	2.729315E-18	7.551758E-19
3.059067E+03	2.794447E-18	7.700878E-19
3.068903E+03	2.862117E-18	7.855423E-19
3.078739E+03	2.931943E-18	8.014256E-19
3.088575E+03	3.004395E-18	8.178582E-19
3.098411E+03	3.079076E-18	8.347229E-19
3.108248E+03	3.156474E-18	8.521430E-19
3.118084E+03	3.236175E-18	8.699975E-19
3.127920E+03	3.318684E-18	8.884132E-19
3.137756E+03	3.403566E-18	9.072640E-19
3.147593E+03	3.491341E-18	9.266791E-19
3.157429E+03	3.581556E-18	9.465280E-19
3.167265E+03	3.674229E-18	9.668064E-19
3.177101E+03	3.769898E-18	9.876462E-19
3.186937E+03	3.868606E-18	1.009047E-18
3.196774E+03	3.969848E-18	1.030868E-18
3.206610E+03	4.074181E-18	1.053242E-18
3.216446E+03	4.181070E-18	1.076020E-18
3.226282E+03	4.291081E-18	1.099338E-18
3.236119E+03	4.403647E-18	1.123040E-18
3.245955E+03	4.519346E-18	1.147261E-18
3.255791E+03	4.637573E-18	1.171839E-18
3.265627E+03	4.758914E-18	1.196910E-18
3.275464E+03	4.883358E-18	1.222461E-18
3.285300E+03	5.010244E-18	1.248313E-18
3.295136E+03	5.140169E-18	1.274607E-18
3.304972E+03	5.272426E-18	1.301156E-18
3.314808E+03	5.407619E-18	1.328099E-18
3.324645E+03	5.545001E-18	1.355242E-18
3.334481E+03	5.685886E-18	1.382897E-18
3.344317E+03	5.828081E-18	1.410520E-18
3.354153E+03	5.973628E-18	1.438596E-18
3.363990E+03	6.120985E-18	1.466744E-18
3.373826E+03	6.270014E-18	1.494923E-18
3.383662E+03	6.422113E-18	1.523458E-18
3.393498E+03	6.574853E-18	1.551764E-18
3.403334E+03	6.730423E-18	1.580352E-18
3.413171E+03	6.887114E-18	1.608812E-18
3.423007E+03	7.045573E-18	1.637290E-18
3.432843E+03	7.205660E-18	1.665745E-18
3.442679E+03	7.366378E-18	1.693943E-18
3.452516E+03	7.528400E-18	1.722035E-18
3.462352E+03	7.691575E-18	1.749980E-18
3.472188E+03	7.854859E-18	1.777538E-18
3.482024E+03	8.018944E-18	1.804864E-18
3.491861E+03	8.183663E-18	1.831916E-18
3.501697E+03	8.347928E-18	1.858450E-18
3.511533E+03	8.512464E-18	1.884629E-18
3.521369E+03	8.677100E-18	1.910412E-18
3.531205E+03	8.841668E-18	1.935762E-18
3.541042E+03	9.006003E-18	1.960644E-18
3.550878E+03	9.168978E-18	1.984815E-18
3.560714E+03	9.331394E-18	2.008450E-18
3.570550E+03	9.492119E-18	2.031311E-18
3.580387E+03	9.652989E-18	2.053794E-18
3.590223E+03	9.811892E-18	2.075452E-18
3.600059E+03	9.969706E-18	2.096477E-18
3.609895E+03	1.012633E-17	2.116850E-18
3.619731E+03	1.028167E-17	2.136559E-18
3.629568E+03	1.043460E-17	2.155376E-18
3.639404E+03	1.058609E-17	2.173507E-18
3.649240E+03	1.073608E-17	2.190947E-18
3.659076E+03	1.088452E-17	2.207692E-18
3.668913E+03	1.103139E-17	2.223743E-18
3.678749E+03	1.117558E-17	2.238886E-18
3.688585E+03	1.131923E-17	2.253555E-18
3.698421E+03	1.146021E-17	2.267330E-18
3.708258E+03	1.159957E-17	2.280434E-18
3.718094E+03	1.173628E-17	2.292665E-18
3.727930E+03	1.187252E-17	2.304463E-18
3.737766E+03	1.200728E-17	2.315630E-18
3.747602E+03	1.213949E-17	2.325972E-18
3.757439E+03	1.227032E-17	2.335719E-18
3.767275E+03	1.239983E-17	2.344891E-18
3.777111E+03	1.252812E-17	2.353508E-18
3.786947E+03	1.265526E-17	2.361594E-18
3.796784E+03	1.278135E-17	2.369170E-18
3.806620E+03	1.290538E-17	2.376056E-18
3.816456E+03	1.302970E-17	2.382687E-18
3.826292E+03	1.315217E-17	2.388680E-18
3.836128E+03	1.327405E-17	2.394266E-18
3.845965E+03	1.339546E-17	2.399471E-18
3.855801E+03	1.351653E-17	2.404323E-18
3.865637E+03	1.363742E-17	2.408849E-18
3.875473E+03	1.375714E-17	2.412882E-18
3.885310E+03	1.387810E-17	2.416844E-18
3.895146E+03	1.399821E-17	2.420372E-18
3.904982E+03	1.411988E-17	2.423886E-18
3.914818E+03	1.424106E-17	2.427029E-18
3.924655E+03	1.436305E-17	2.430025E-18
3.934491E+03	1.448604E-17	2.432907E-18
3.944327E+03	1.461023E-17	2.435706E-18
3.954163E+03	1.473584E-17	2.438454E-18
3.963999E+03	1.486197E-17	2.441001E-18
3.973836E+03	1.499110E-17	2.443751E-18
3.983672E+03	1.512121E-17	2.446371E-18
3.993508E+03	1.525484E-17	2.449262E-18
4.003344E+03	1.538998E-17	2.452098E-18
4.013181E+03	1.552806E-17	2.455099E-18
4.023017E+03	1.566936E-17	2.458302E-18
4.032853E+03	1.581419E-17	2.461747E-18
4.042689E+03	1.596176E-17	2.465299E-18
4.052525E+03	1.611466E-17	2.469351E-18
4.062362E+03	1.627098E-17	2.473595E-18
4.072198E+03	1.643224E-17	2.478249E-18
4.082034E+03	1.659881E-17	2.483356E-18
4.091870E+03	1.677109E-17	2.488961E-18
4.101707E+03	1.694952E-17	2.495107E-18
4.111543E+03	1.713450E-17	2.501840E-18
4.121379E+03	1.732534E-17	2.509036E-18
4.131215E+03	1.752480E-17	2.517076E-18
4.141051E+03	1.773103E-17	2.525671E-18
4.150888E+03	1.794566E-17	2.535032E-18
4.160724E+03	1.816800E-17	2.545038E-18
4.170560E+03	1.840089E-17	2.556058E-18
4.180396E+03	1.864246E-17	2.567806E-18
4.190233E+03	1.889437E-17	2.580484E-18
4.200069E+03	1.915711E-17	2.594129E-18
4.209905E+03	1.943116E-17	2.608771E-18
4.219741E+03	1.971577E-17	2.624280E-18
4.229578E+03	2.001258E-17	2.640844E-18
4.239414E+03	2.032203E-17	2.658483E-18
4.249250E+03	2.064450E-17	2.677216E-18
4.259086E+03	2.097913E-17	2.696893E-18
4.268922E+03	2.132747E-17	2.717681E-18
4.278759E+03	2.168984E-17	2.739582E-18
4.288595E+03	2.206648E-17	2.762592E-18
4.298431E+03	2.245634E-17	2.786542E-18
4.308267E+03	2.286089E-17	2.811580E-18
4.318104E+03	2.327904E-17	2.837537E-18
4.327940E+03	2.371235E-17	2.864569E-18
4.337776E+03	2.416114E-17	2.892680E-18
4.347612E+03	2.462440E-17	2.921712E-18
4.357448E+03	2.510380E-17	2.951829E-18
4.367285E+03	2.559963E-17	2.983030E-18
4.377121E+03	2.611073E-17	3.015145E-18
4.386957E+03	2.663870E-17	3.048326E-18
4.396793E+03	2.718224E-17	3.082391E-18
4.406630E+03	2.774288E-17	3.117481E-18
4.416466E+03	2.831914E-17	3.153400E-18
4.426302E+03	2.891247E-17	3.190279E-18
4.436138E+03	2.952277E-17	3.228080E-18
4.445975E+03	3.014837E-17	3.266590E-18
4.455811E+03	3.078900E-17	3.305761E-18
4.465647E+03	3.144597E-17	3.345712E-18
4.475483E+03	3.211739E-17	3.386220E-18
4.485319E+03	3.280452E-17	3.427403E-18
4.495156E+03	3.350534E-17	3.469034E-18
4.504992E+03	3.421943E-17	3.511060E-18
4.514828E+03	3.494806E-17	3.553602E-18
4.524664E+03	3.568912E-17	3.596438E-18
4.534501E+03	3.644396E-17	3.639700E-18
4.544337E+03	3.721045E-17	3.683172E-18
4.554173E+03	3.798823E-17	3.726821E-18
4.564009E+03	3.877882E-17	3.770790E-18
4.573845E+03	3.957834E-17	3.814684E-18
4.583682E+03	4.039220E-17	3.859011E-18
4.593518E+03	4.121475E-17	3.903211E-18
4.603354E+03	4.204787E-17	3.947449E-18
4.613190E+03	4.289366E-17	3.991905E-18
4.623027E+03	4.375046E-17	4.036405E-18
4.632863E+03	4.461867E-17	4.080966E-18
4.642699E+03	4.550085E-17	4.125801E-18
4.652535E+03	4.639363E-17	4.170581E-18
4.662372E+03	4.730194E-17	4.215727E-18
4.672208E+03	4.822261E-17	4.260927E-18
4.682044E+03	4.916095E-17	4.306625E-18
4.691880E+03	5.011620E-17	4.352715E-18
4.701716E+03	5.108976E-17	4.399287E-18
4.711553E+03	5.208324E-17	4.446437E-18
4.721389E+03	5.309838E-17	4.494272E-18
4.731225E+03	5.413703E-17	4.542900E-18
4.741061E+03	5.519888E-17	4.592246E-18
4.750898E+03	5.629065E-17	4.642814E-18
4.760734E+03	5.741228E-17	4.694534E-18
4.770570E+03	5.856607E-17	4.747531E-18
4.780406E+03	5.975445E-17	4.801928E-18
4.790242E+03	6.097740E-17	4.857654E-18
4.800079E+03	6.224240E-17	4.915221E-18
4.809915E+03	6.354700E-17	4.974352E-18
4.819751E+03	6.489630E-17	5.035358E-18
4.829587E+03	6.629291E-17	5.098345E-18
4.839424E+03	6.773943E-17	5.163413E-18
4.849260E+03	6.923846E-17	5.230654E-18
4.859096E+03	7.078980E-17	5.299944E-18
4.868932E+03	7.239859E-17	5.371557E-18
4.878769E+03	7.406727E-17	5.445554E-18
4.888605E+03	7.579815E-17	5.521983E-18
4.898441E+03	7.759050E-17	5.600664E-18
4.908277E+03	7.944933E-17	5.681832E-18
4.918113E+03	8.137335E-17	5.765262E-18
4.927950E+03	8.337053E-17	5.851385E-18
4.937786E+03	8.543613E-17	5.939728E-18
4.947622E+03	8.757143E-17	6.030244E-18
4.957458E+03	8.978048E-17	6.123078E-18
4.967295E+03	9.206423E-17	6.218152E-18
4.977131E+03	9.442307E-17	6.315351E-18
4.986967E+03	9.685379E-17	6.414324E-18
4.996803E+03	9.935595E-17	6.514913E-18
5.006639E+03	1.019324E-16	6.617171E-18
5.016476E+03	1.045784E-16	6.720673E-18
5.026312E+03	1.072961E-16	6.825432E-18
5.036148E+03	1.100836E-16	6.931213E-18
5.045984E+03	1.129345E-16	7.037505E-18
5.055821E+03	1.158455E-16	7.144018E-18
5.065657E+03	1.188169E-16	7.250687E-18
5.075493E+03	1.218404E-16	7.356930E-18
5.085329E+03	1.249153E-16	7.462655E-18
5.095165E+03	1.280316E-16	7.567224E-18
5.105002E+03	1.311874E-16	7.670503E-18
5.114838E+03	1.343714E-16	7.771827E-18
5.124674E+03	1.375756E-16	7.870764E-18
5.134510E+03	1.407916E-16	7.966880E-18
5.144347E+03	1.440151E-16	8.059995E-18
5.154183E+03	1.472314E-16	8.149380E-18
5.164019E+03	1.504350E-16	8.234853E-18
5.173855E+03	1.536096E-16	8.315674E-18
5.183692E+03	1.567433E-16	8.391383E-18
5.193528E+03	1.598237E-16	8.461530E-18
5.203364E+03	1.628432E-16	8.525950E-18
5.213200E+03	1.657774E-16	8.583653E-18
5.223036E+03	1.686233E-16	8.634788E-18
5.232873E+03	1.713671E-16	8.678976E-18
5.242709E+03	1.739830E-16	8.715287E-18
5.252545E+03	1.764679E-16	8.743958E-18
5.262381E+03	1.787958E-16	8.764134E-18
5.272218E+03	1.809638E-16	8.776117E-18
5.282054E+03	1.829580E-16	8.779696E-18
5.291890E+03	1.847530E-16	8.774144E-18
5.301726E+03	1.863414E-16	8.759615E-18
5.311562E+03	1.877167E-16	8.736318E-18
5.321399E+03	1.888555E-16	8.703678E-18
5.331235E+03	1.897592E-16	8.662284E-18
5.341071E+03	1.904126E-16	8.611951E-18
5.350907E+03	1.908078E-16	8.552821E-18
5.360744E+03	1.909387E-16	8.485110E-18
5.370580E+03	1.908009E-16	8.409082E-18
5.380416E+03	1.903922E-16	8.325075E-18
5.390252E+03	1.897133E-16	8.233506E-18
5.400089E+03	1.887674E-16	8.134877E-18
5.409925E+03	1.875622E-16	8.029824E-18
5.419761E+03	1.861097E-16	7.919113E-18
5.429597E+03	1.844254E-16	7.803566E-18
5.439433E+03	1.825271E-16	7.683837E-18
5.449270E+03	1.804343E-16	7.560532E-18
5.459106E+03	1.781675E-16	7.434265E-18
5.468942E+03	1.757479E-16	7.305646E-18
5.478778E+03	1.731966E-16	7.175253E-18
5.488615E+03	1.705344E-16	7.043642E-18
5.498451E+03	1.677819E-16	6.911345E-18
5.508287E+03	1.649589E-16	6.778860E-18
5.518123E+03	1.620799E-16	6.646472E-18
5.527959E+03	1.591728E-16	6.515019E-18
5.537796E+03	1.562455E-16	6.384531E-18
5.547632E+03	1.533190E-16	6.255576E-18
5.557468E+03	1.504080E-16	6.128497E-18
5.567304E+03	1.475262E-16	6.003596E-18
5.577141E+03	1.446859E-16	5.881152E-18
5.586977E+03	1.418985E-16	5.761409E-18
5.596813E+03	1.391701E-16	5.644421E-18
5.606649E+03	1.365176E-16	5.530696E-18
5.616486E+03	1.339411E-16	5.420079E-18
5.626322E+03	1.314514E-16	5.312863E-18
5.636158E+03	1.290546E-16	5.209156E-18
5.645994E+03	1.267520E-16	5.108900E-18
5.655830E+03	1.245553E-16	5.012454E-18
5.665667E+03	1.224608E-16	4.919575E-18
5.675503E+03	1.204753E-16	4.830441E-18
5.685339E+03	1.186008E-16	4.745056E-18
5.695175E+03	1.168361E-16	4.663286E-18
5.705012E+03	1.151858E-16	4.585251E-18
5.714848E+03	1.136509E-16	4.510909E-18
5.724684E+03	1.122319E-16	4.440219E-18
5.734520E+03	1.109292E-16	4.373122E-18
5.744356E+03	1.097398E-16	4.309430E-18
5.754193E+03	1.086668E-16	4.249192E-18
5.764029E+03	1.077067E-16	4.192201E-18
5.773865E+03	1.068653E-16	4.138597E-18
5.783701E+03	1.061359E-16	4.088044E-18
5.793538E+03	1.055210E-16	4.040550E-18
5.803374E+03	1.050171E-16	3.995884E-18
5.813210E+03	1.046264E-16	3.954033E-18
5.823046E+03	1.043483E-16	3.914868E-18
5.832883E+03	1.041820E-16	3.878248E-18
5.842719E+03	1.041241E-16	3.843921E-18
5.852555E+03	1.041768E-16	3.811845E-18
5.862391E+03	1.043394E-16	3.781859E-18
5.872227E+03	1.046087E-16	3.753700E-18
5.882064E+03	1.049868E-16	3.727292E-18
5.891900E+03	1.054734E-16	3.702460E-18
5.901736E+03	1.060650E-16	3.678917E-18
5.911572E+03	1.067641E-16	3.656569E-18
5.921409E+03	1.075701E-16	3.635212E-18
5.931245E+03	1.084799E-16	3.614538E-18
5.941081E+03	1.094958E-16	3.594425E-18
5.950917E+03	1.106173E-16	3.574648E-18
5.960753E+03	1.118411E-16	3.554874E-18
5.970590E+03	1.131694E-16	3.534955E-18
5.980426E+03	1.146018E-16	3.514639E-18
5.990262E+03	1.161344E-16	3.493569E-18
6.000098E+03	1.177696E-16	3.471577E-18
6.009935E+03	1.195064E-16	3.448383E-18
6.019771E+03	1.213407E-16	3.423619E-18
6.029607E+03	1.232743E-16	3.397091E-18
6.039443E+03	1.253029E-16	3.368427E-18
6.049279E+03	1.274315E-16	3.337515E-18
6.059116E+03	1.296485E-16	3.303807E-18
6.068952E+03	1.319622E-16	3.267289E-18
6.078788E+03	1.343638E-16	3.227514E-18
6.088624E+03	1.368549E-16	3.184317E-18
6.098461E+03	1.394332E-16	3.137457E-18
6.108297E+03	1.420929E-16	3.086641E-18
6.118133E+03	1.448355E-16	3.031774E-18
6.127969E+03	1.476589E-16	2.972721E-18
6.137806E+03	1.505573E-16	2.909325E-18
6.147642E+03	1.535334E-16	2.841660E-18
6.157478E+03	1.565865E-16	2.769805E-18
6.167314E+03	1.597124E-16	2.693873E-18
6.177150E+03	1.629153E-16	2.614246E-18
6.186987E+03	1.661960E-16	2.531384E-18
6.196823E+03	1.695555E-16	2.445945E-18
6.206659E+03	1.729904E-16	2.358765E-18
6.216495E+03	1.765066E-16	2.271129E-18
6.226332E+03	1.801059E-16	2.184642E-18
6.236168E+03	1.837852E-16	2.101340E-18
6.246004E+03	1.875563E-16	2.024010E-18
6.255840E+03	1.914119E-16	1.955871E-18
6.265676E+03	1.953541E-16	1.900928E-18
6.275513E+03	1.993956E-16	1.863848E-18
6.285349E+03	2.035288E-16	1.849380E-18
6.295185E+03	2.077616E-16	1.862231E-18
6.305021E+03	2.120968E-16	1.906131E-18
6.314858E+03	2.165371E-16	1.982175E-18
6.324694E+03	2.210849E-16	2.089302E-18
6.334530E+03	2.257361E-16	2.225315E-18
6.344366E+03	2.304982E-16	2.387557E-18
6.354203E+03	2.353719E-16	2.573171E-18
6.364039E+03	2.403579E-16	2.779449E-18
6.373875E+03	2.454563E-16	3.003966E-18
6.383711E+03	2.506602E-16	3.244543E-18
6.393547E+03	2.559815E-16	3.499560E-18
6.403384E+03	2.614055E-16	3.767325E-18
6.413220E+03	2.669362E-16	4.046622E-18
6.423056E+03	2.725691E-16	4.336300E-18
6.432892E+03	2.783061E-16	4.635443E-18
6.442729E+03	2.841185E-16	4.942730E-18
6.452565E+03	2.900207E-16	5.257617E-18
6.462401E+03	2.959968E-16	5.579101E-18
6.472237E+03	3.020367E-16	5.906302E-18
6.482073E+03	3.081296E-16	6.238327E-18
6.491910E+03	3.142633E-16	6.574263E-18
6.501746E+03	3.204163E-16	6.912976E-18
6.511582E+03	3.265908E-16	7.253833E-18
6.521418E+03	3.327632E-16	7.595625E-18
6.531255E+03	3.389173E-16	7.937272E-18
6.541091E+03	3.450267E-16	8.277425E-18
6.550927E+03	3.510914E-16	8.615338E-18
6.560763E+03	3.570838E-16	8.949586E-18
6.570600E+03	3.629844E-16	9.278911E-18
6.580436E+03	3.687737E-16	9.602029E-18
6.590272E+03	3.744314E-16	9.917620E-18
6.600108E+03	3.799377E-16	1.022437E-17
6.609944E+03	3.852823E-16	1.052121E-17
6.619781E+03	3.904252E-16	1.080626E-17
6.629617E+03	3.953666E-16	1.107876E-17
6.639453E+03	4.000778E-16	1.133714E-17
6.649289E+03	4.045289E-16	1.157982E-17
6.659126E+03	4.087238E-16	1.180620E-17
6.668962E+03	4.126455E-16	1.201512E-17
6.678798E+03	4.162567E-16	1.220486E-17
6.688634E+03	4.195641E-16	1.237503E-17
6.698470E+03	4.225322E-16	1.252405E-17
6.708307E+03	4.251828E-16	1.265207E-17
6.718143E+03	4.274704E-16	1.275732E-17
6.727979E+03	4.293978E-16	1.283953E-17
6.737815E+03	4.309676E-16	1.289847E-17
6.747652E+03	4.321629E-16	1.293341E-17
6.757488E+03	4.329780E-16	1.294404E-17
6.767324E+03	4.334217E-16	1.293055E-17
6.777160E+03	4.334799E-16	1.289249E-17
6.786997E+03	4.331523E-16	1.282993E-17
6.796833E+03	4.324402E-16	1.274308E-17
6.806669E+03	4.313572E-16	1.263254E-17
6.816505E+03	4.298961E-16	1.249840E-17
6.826341E+03	4.280726E-16	1.234150E-17
6.836178E+03	4.258817E-16	1.216213E-17
6.846014E+03	4.233312E-16	1.196102E-17
6.855850E+03	4.204291E-16	1.173898E-17
6.865686E+03	4.171968E-16	1.149726E-17
6.875523E+03	4.136448E-16	1.123684E-17
6.885359E+03	4.097611E-16	1.095815E-17
6.895195E+03	4.055925E-16	1.066327E-17
6.905031E+03	4.011174E-16	1.035248E-17
6.914867E+03	3.963722E-16	1.002764E-17
6.924704E+03	3.913713E-16	9.690068E-18
6.934540E+03	3.861063E-16	9.340543E-18
6.944376E+03	3.806261E-16	8.981285E-18
6.954212E+03	3.749231E-16	8.613170E-18
6.964049E+03	3.690141E-16	8.237686E-18
6.973885E+03	3.629250E-16	7.856546E-18
6.983721E+03	3.566616E-16	7.471035E-18
6.993557E+03	3.502501E-16	7.082902E-18
7.003393E+03	3.436965E-16	6.693507E-18
7.013230E+03	3.370267E-16	6.304640E-18
7.023066E+03	3.302470E-16	5.917762E-18
7.032902E+03	3.233827E-16	5.534746E-18
7.042738E+03	3.164399E-16	5.157214E-18
7.052575E+03	3.094431E-16	4.787216E-18
7.062411E+03	3.023983E-16	4.426667E-18
7.072247E+03	2.953287E-16	4.077971E-18
7.082083E+03	2.882484E-16	3.743684E-18
7.091920E+03	2.811627E-16	3.426657E-18
7.101756E+03	2.740930E-16	3.130461E-18
7.111592E+03	2.670442E-16	2.859085E-18
7.121428E+03	2.600362E-16	2.617364E-18
7.131264E+03	2.530732E-16	2.410546E-18
7.141101E+03	2.461736E-16	2.244223E-18
7.150937E+03	2.393477E-16	2.123292E-18
7.160773E+03	2.325986E-16	2.050797E-18
7.170609E+03	2.259429E-16	2.026746E-18
7.180446E+03	2.193900E-16	2.046283E-18
7.190282E+03	2.129424E-16	2.101514E-18
7.200118E+03	2.066144E-16	2.183907E-18
7.209954E+03	2.004074E-16	2.285327E-18
7.219790E+03	1.943339E-16	2.398983E-18
7.229627E+03	1.883997E-16	2.519442E-18
7.239463E+03	1.826045E-16	2.642504E-18
7.249299E+03	1.769635E-16	2.765288E-18
7.259135E+03	1.714648E-16	2.885386E-18
7.268972E+03	1.661271E-16	3.001530E-18
7.278808E+03	1.609429E-16	3.112538E-18
7.288644E+03	1.559191E-16	3.217859E-18
7.298480E+03	1.510524E-16	3.317036E-18
7.308317E+03	1.463485E-16	3.410018E-18
7.318153E+03	1.418075E-16	3.496816E-18
7.327989E+03	1.374291E-16	3.577558E-18
7.337825E+03	1.332085E-16	3.652351E-18
7.347661E+03	1.291490E-16	3.721583E-18
7.357498E+03	1.252486E-16	3.785575E-18
7.367334E+03	1.215019E-16	3.844572E-18
7.377170E+03	1.179103E-16	3.899060E-18
7.387006E+03	1.144711E-16	3.949426E-18
7.396843E+03	1.111811E-16	3.996060E-18
7.406679E+03	1.080339E-16	4.039223E-18
7.416515E+03	1.050293E-16	4.079414E-18
7.426351E+03	1.021635E-16	4.116998E-18
7.436187E+03	9.942934E-17	4.152196E-18
7.446024E+03	9.682889E-17	4.185595E-18
7.455860E+03	9.435170E-17	4.217247E-18
7.465696E+03	9.199366E-17	4.247446E-18
7.475532E+03	8.975587E-17	4.276717E-18
7.485369E+03	8.762823E-17	4.305050E-18
7.495205E+03	8.560921E-17	4.332814E-18
7.505041E+03	8.369456E-17	4.360234E-18
7.514877E+03	8.188016E-17	4.387519E-18
7.524714E+03	8.015943E-17	4.414726E-18
7.534550E+03	7.853088E-17	4.442161E-18
7.544386E+03	7.699051E-17	4.469982E-18
7.554222E+03	7.553423E-17	4.498317E-18
7.564058E+03	7.415566E-17	4.527136E-18
7.573895E+03	7.285566E-17	4.556823E-18
7.583731E+03	7.162558E-17	4.587161E-18
7.593567E+03	7.046400E-17	4.618357E-18
7.603403E+03	6.936498E-17	4.650309E-18
7.613240E+03	6.832930E-17	4.683339E-18
7.623076E+03	6.734906E-17	4.717169E-18
7.632912E+03	6.642304E-17	4.751951E-18
