#wls	flux	fluxerr
1.583218E+03	1.957896E-05	1.247365E-06
1.622798E+03	2.041751E-05	1.296267E-06
1.662379E+03	2.105995E-05	1.332278E-06
1.701959E+03	2.150702E-05	1.355567E-06
1.741540E+03	2.170117E-05	1.362647E-06
1.781120E+03	2.160582E-05	1.351405E-06
1.820701E+03	2.113337E-05	1.316594E-06
1.860281E+03	2.023102E-05	1.255227E-06
1.899861E+03	1.887702E-05	1.166301E-06
1.939442E+03	1.709693E-05	1.051764E-06
1.979022E+03	1.505089E-05	9.217961E-07
2.018603E+03	1.301809E-05	7.936702E-07
2.058183E+03	1.133505E-05	6.878329E-07
2.097764E+03	1.031216E-05	6.227607E-07
2.137344E+03	1.014253E-05	6.095007E-07
2.176925E+03	1.091048E-05	6.523342E-07
2.216505E+03	1.262404E-05	7.508691E-07
2.256085E+03	1.522886E-05	9.009753E-07
2.295666E+03	1.859571E-05	1.094148E-06
2.335246E+03	2.255572E-05	1.319699E-06
2.374827E+03	2.695311E-05	1.567896E-06
2.414407E+03	3.163097E-05	1.829132E-06
2.453988E+03	3.649668E-05	2.097696E-06
2.493568E+03	4.149000E-05	2.369847E-06
2.533149E+03	4.658210E-05	2.643704E-06
2.572729E+03	5.176632E-05	2.918675E-06
2.612310E+03	5.705057E-05	3.194991E-06
2.651890E+03	6.246842E-05	3.474290E-06
2.691470E+03	6.802763E-05	3.756730E-06
2.731051E+03	7.375369E-05	4.043423E-06
2.770631E+03	7.969346E-05	4.336597E-06
2.810212E+03	8.587837E-05	4.637562E-06
2.849792E+03	9.236201E-05	4.948756E-06
2.889373E+03	9.915781E-05	5.270381E-06
2.928953E+03	1.063693E-04	5.607356E-06
2.968534E+03	1.139912E-04	5.958716E-06
2.978429E+03	1.159851E-04	6.049992E-06
2.988324E+03	1.179988E-04	6.141805E-06
2.998219E+03	1.200327E-04	6.234162E-06
3.008114E+03	1.221185E-04	6.328696E-06
3.018009E+03	1.242796E-04	6.426604E-06
3.027904E+03	1.265415E-04	6.529167E-06
3.037799E+03	1.288480E-04	6.633462E-06
3.047694E+03	1.312720E-04	6.743208E-06
3.057590E+03	1.337578E-04	6.855514E-06
3.067485E+03	1.363280E-04	6.971506E-06
3.077380E+03	1.389796E-04	7.090997E-06
3.087275E+03	1.416824E-04	7.212428E-06
3.097170E+03	1.444607E-04	7.337005E-06
3.107065E+03	1.473123E-04	7.464585E-06
3.116960E+03	1.502350E-04	7.595036E-06
3.126855E+03	1.531986E-04	7.726800E-06
3.136750E+03	1.562581E-04	7.862630E-06
3.146646E+03	1.593549E-04	7.999543E-06
3.156541E+03	1.625161E-04	8.138886E-06
3.166436E+03	1.657407E-04	8.280581E-06
3.176331E+03	1.690280E-04	8.424559E-06
3.186226E+03	1.724074E-04	8.572269E-06
3.196121E+03	1.758181E-04	8.720650E-06
3.206016E+03	1.793208E-04	8.872690E-06
3.215911E+03	1.828534E-04	9.025296E-06
3.225806E+03	1.864783E-04	9.181520E-06
3.235702E+03	1.901646E-04	9.339801E-06
3.245597E+03	1.939445E-04	9.501707E-06
3.255492E+03	1.977870E-04	9.665668E-06
3.265387E+03	2.016924E-04	9.831681E-06
3.275282E+03	2.056944E-04	1.000136E-05
3.285177E+03	2.097612E-04	1.017312E-05
3.295072E+03	2.139274E-04	1.034861E-05
3.304967E+03	2.181948E-04	1.052787E-05
3.314862E+03	2.225311E-04	1.070931E-05
3.324758E+03	2.269717E-04	1.089460E-05
3.334653E+03	2.315191E-04	1.108381E-05
3.344548E+03	2.361755E-04	1.127701E-05
3.354443E+03	2.409432E-04	1.147427E-05
3.364338E+03	2.458242E-04	1.167562E-05
3.374233E+03	2.508215E-04	1.188118E-05
3.384128E+03	2.559373E-04	1.209098E-05
3.394023E+03	2.612113E-04	1.230687E-05
3.403918E+03	2.666098E-04	1.252718E-05
3.413814E+03	2.721354E-04	1.275200E-05
3.423709E+03	2.778289E-04	1.298317E-05
3.433604E+03	2.836561E-04	1.321903E-05
3.443499E+03	2.896582E-04	1.346144E-05
3.453394E+03	2.958392E-04	1.371053E-05
3.463289E+03	3.022028E-04	1.396638E-05
3.473184E+03	3.087535E-04	1.422914E-05
3.483079E+03	3.154950E-04	1.449888E-05
3.492974E+03	3.224317E-04	1.477575E-05
3.502870E+03	3.296081E-04	1.506170E-05
3.512765E+03	3.369886E-04	1.535500E-05
3.522660E+03	3.445778E-04	1.565579E-05
3.532555E+03	3.524208E-04	1.596601E-05
3.542450E+03	3.605230E-04	1.628583E-05
3.552345E+03	3.688485E-04	1.661350E-05
3.562240E+03	3.774852E-04	1.695290E-05
3.572135E+03	3.863974E-04	1.730230E-05
3.582030E+03	3.955478E-04	1.765992E-05
3.591926E+03	4.050269E-04	1.802970E-05
3.601821E+03	4.148414E-04	1.841180E-05
3.611716E+03	4.249542E-04	1.880446E-05
3.621611E+03	4.353709E-04	1.920778E-05
3.631506E+03	4.461412E-04	1.962386E-05
3.641401E+03	4.573164E-04	2.005478E-05
3.651296E+03	4.688142E-04	2.049679E-05
3.661191E+03	4.806859E-04	2.095200E-05
3.671086E+03	4.929376E-04	2.142053E-05
3.680982E+03	5.056223E-04	2.190452E-05
3.690877E+03	5.187474E-04	2.240412E-05
3.700772E+03	5.322743E-04	2.291748E-05
3.710667E+03	5.462562E-04	2.344674E-05
3.720562E+03	5.606537E-04	2.399004E-05
3.730457E+03	5.755686E-04	2.455154E-05
3.740352E+03	5.909615E-04	2.512938E-05
3.750247E+03	6.068883E-04	2.572573E-05
3.760142E+03	6.233088E-04	2.633869E-05
3.770038E+03	6.402795E-04	2.697044E-05
3.779933E+03	6.577595E-04	2.761907E-05
3.789828E+03	6.758554E-04	2.828881E-05
3.799723E+03	6.944763E-04	2.897566E-05
3.809618E+03	7.137299E-04	2.968388E-05
3.819513E+03	7.336258E-04	3.041364E-05
3.829408E+03	7.541213E-04	3.116293E-05
3.839303E+03	7.752758E-04	3.193395E-05
3.849198E+03	7.970980E-04	3.272683E-05
3.859094E+03	8.195959E-04	3.354164E-05
3.868989E+03	8.427779E-04	3.437847E-05
3.878884E+03	8.667050E-04	3.523954E-05
3.888779E+03	8.913864E-04	3.612496E-05
3.898674E+03	9.167762E-04	3.703259E-05
3.908569E+03	9.429364E-04	3.796467E-05
3.918464E+03	9.699293E-04	3.892342E-05
3.928359E+03	9.977087E-04	3.990670E-05
3.938255E+03	1.026282E-03	4.091452E-05
3.948150E+03	1.055769E-03	4.195134E-05
3.958045E+03	1.086064E-03	4.301269E-05
3.967940E+03	1.117232E-03	4.410083E-05
3.977835E+03	1.149279E-03	4.521570E-05
3.987730E+03	1.182269E-03	4.635953E-05
3.997625E+03	1.216152E-03	4.753003E-05
4.007520E+03	1.250992E-03	4.872938E-05
4.017415E+03	1.286796E-03	4.995755E-05
4.027311E+03	1.323510E-03	5.121216E-05
4.037206E+03	1.361258E-03	5.249768E-05
4.047101E+03	1.400046E-03	5.381402E-05
4.056996E+03	1.439821E-03	5.515878E-05
4.066891E+03	1.480585E-03	5.653183E-05
4.076786E+03	1.522405E-03	5.793533E-05
4.086681E+03	1.565284E-03	5.936912E-05
4.096576E+03	1.609226E-03	6.083307E-05
4.106471E+03	1.654235E-03	6.232698E-05
4.116367E+03	1.700375E-03	6.385302E-05
4.126262E+03	1.747527E-03	6.540633E-05
4.136157E+03	1.795878E-03	6.699372E-05
4.146052E+03	1.845242E-03	6.860794E-05
4.155947E+03	1.895748E-03	7.025347E-05
4.165842E+03	1.947396E-03	7.193008E-05
4.175737E+03	2.000122E-03	7.363518E-05
4.185632E+03	2.053992E-03	7.537088E-05
4.195527E+03	2.109004E-03	7.713689E-05
4.205423E+03	2.165093E-03	7.893063E-05
4.215318E+03	2.222322E-03	8.075417E-05
4.225213E+03	2.280689E-03	8.260723E-05
4.235108E+03	2.340127E-03	8.448717E-05
4.245003E+03	2.400698E-03	8.639609E-05
4.254898E+03	2.462332E-03	8.833133E-05
4.264793E+03	2.525026E-03	9.029258E-05
4.274688E+03	2.588774E-03	9.227959E-05
4.284583E+03	2.653641E-03	9.429450E-05
4.294479E+03	2.719486E-03	9.633225E-05
4.304374E+03	2.786372E-03	9.839501E-05
4.314269E+03	2.854227E-03	1.004802E-04
4.324164E+03	2.923045E-03	1.025876E-04
4.334059E+03	2.992823E-03	1.047170E-04
4.343954E+03	3.063487E-03	1.068661E-04
4.353849E+03	3.135104E-03	1.090370E-04
4.363744E+03	3.207532E-03	1.112250E-04
4.373639E+03	3.280838E-03	1.134326E-04
4.383535E+03	3.354882E-03	1.156549E-04
4.393430E+03	3.429733E-03	1.178946E-04
4.403325E+03	3.505321E-03	1.201494E-04
4.413220E+03	3.581576E-03	1.224172E-04
4.423115E+03	3.658427E-03	1.246957E-04
4.433010E+03	3.736018E-03	1.269901E-04
4.442905E+03	3.814068E-03	1.292913E-04
4.452800E+03	3.892720E-03	1.316043E-04
4.462695E+03	3.971907E-03	1.339273E-04
4.472591E+03	4.051561E-03	1.362583E-04
4.482486E+03	4.131616E-03	1.385955E-04
4.492381E+03	4.212148E-03	1.409420E-04
4.502276E+03	4.293095E-03	1.432960E-04
4.512171E+03	4.374393E-03	1.456558E-04
4.522066E+03	4.455978E-03	1.480198E-04
4.531961E+03	4.537935E-03	1.503913E-04
4.541856E+03	4.620061E-03	1.527639E-04
4.551751E+03	4.702370E-03	1.551386E-04
4.561647E+03	4.784889E-03	1.575168E-04
4.571542E+03	4.867490E-03	1.598949E-04
4.581437E+03	4.950275E-03	1.622768E-04
4.591332E+03	5.033054E-03	1.646566E-04
4.601227E+03	5.115934E-03	1.670386E-04
4.611122E+03	5.198816E-03	1.694201E-04
4.621017E+03	5.281807E-03	1.718051E-04
4.630912E+03	5.364745E-03	1.741891E-04
4.640807E+03	5.447675E-03	1.765740E-04
4.650703E+03	5.530585E-03	1.789601E-04
4.660598E+03	5.613537E-03	1.813501E-04
4.670493E+03	5.696514E-03	1.837440E-04
4.680388E+03	5.779508E-03	1.861422E-04
4.690283E+03	5.862511E-03	1.885451E-04
4.700178E+03	5.945588E-03	1.909555E-04
4.710073E+03	6.028728E-03	1.933737E-04
4.719968E+03	6.111983E-03	1.958019E-04
4.729863E+03	6.195335E-03	1.982404E-04
4.739759E+03	6.278905E-03	2.006936E-04
4.749654E+03	6.362577E-03	2.031584E-04
4.759549E+03	6.446464E-03	2.056394E-04
4.769444E+03	6.530580E-03	2.081374E-04
4.779339E+03	6.614943E-03	2.106539E-04
4.789234E+03	6.699476E-03	2.131871E-04
4.799129E+03	6.784178E-03	2.157376E-04
4.809024E+03	6.868948E-03	2.183030E-04
4.818919E+03	6.953612E-03	2.208785E-04
4.828815E+03	7.038145E-03	2.234641E-04
4.838710E+03	7.122503E-03	2.260592E-04
4.848605E+03	7.206412E-03	2.286557E-04
4.858500E+03	7.289904E-03	2.312555E-04
4.868395E+03	7.372934E-03	2.338579E-04
4.878290E+03	7.455285E-03	2.364569E-04
4.888185E+03	7.537076E-03	2.390568E-04
4.898080E+03	7.618011E-03	2.416490E-04
4.907975E+03	7.698287E-03	2.442401E-04
4.917871E+03	7.777620E-03	2.468212E-04
4.927766E+03	7.856132E-03	2.493967E-04
4.937661E+03	7.933710E-03	2.519632E-04
4.947556E+03	8.010408E-03	2.545226E-04
4.957451E+03	8.086207E-03	2.570746E-04
4.967346E+03	8.161005E-03	2.596161E-04
4.977241E+03	8.234975E-03	2.621527E-04
4.987136E+03	8.308109E-03	2.646845E-04
4.997031E+03	8.380338E-03	2.672092E-04
5.006927E+03	8.451757E-03	2.697300E-04
5.016822E+03	8.522483E-03	2.722508E-04
5.026717E+03	8.592632E-03	2.747753E-04
5.036612E+03	8.662147E-03	2.773017E-04
5.046507E+03	8.731156E-03	2.798342E-04
5.056402E+03	8.799788E-03	2.823770E-04
5.066297E+03	8.868176E-03	2.849343E-04
5.076192E+03	8.936267E-03	2.875046E-04
5.086087E+03	9.004286E-03	2.900950E-04
5.095983E+03	9.072351E-03	2.927095E-04
5.105878E+03	9.140413E-03	2.953465E-04
5.115773E+03	9.208671E-03	2.980125E-04
5.125668E+03	9.277056E-03	3.007052E-04
5.135563E+03	9.345844E-03	3.034338E-04
5.145458E+03	9.415035E-03	3.061982E-04
5.155353E+03	9.484611E-03	3.089980E-04
5.165248E+03	9.554645E-03	3.118356E-04
5.175143E+03	9.625181E-03	3.147125E-04
5.185039E+03	9.696170E-03	3.176273E-04
5.194934E+03	9.767637E-03	3.205807E-04
5.204829E+03	9.839689E-03	3.235765E-04
5.214724E+03	9.912132E-03	3.266083E-04
5.224619E+03	9.985055E-03	3.296791E-04
5.234514E+03	1.005822E-02	3.327812E-04
5.244409E+03	1.013181E-02	3.359201E-04
5.254304E+03	1.020554E-02	3.390874E-04
5.264199E+03	1.027937E-02	3.422811E-04
5.274095E+03	1.035332E-02	3.455020E-04
5.283990E+03	1.042711E-02	3.487405E-04
5.293885E+03	1.050063E-02	3.519933E-04
5.303780E+03	1.057381E-02	3.552574E-04
5.313675E+03	1.064652E-02	3.585288E-04
5.323570E+03	1.071857E-02	3.618006E-04
5.333465E+03	1.078985E-02	3.650685E-04
5.343360E+03	1.086023E-02	3.683288E-04
5.353255E+03	1.092953E-02	3.715739E-04
5.363151E+03	1.099750E-02	3.747960E-04
5.373046E+03	1.106418E-02	3.779953E-04
5.382941E+03	1.112924E-02	3.811602E-04
5.392836E+03	1.119271E-02	3.842914E-04
5.402731E+03	1.125430E-02	3.873779E-04
5.412626E+03	1.131405E-02	3.904207E-04
5.422521E+03	1.137168E-02	3.934098E-04
5.432416E+03	1.142694E-02	3.963352E-04
5.442311E+03	1.147991E-02	3.991993E-04
5.452207E+03	1.153037E-02	4.019934E-04
5.462102E+03	1.157857E-02	4.047255E-04
5.471997E+03	1.162431E-02	4.073877E-04
5.481892E+03	1.166766E-02	4.099819E-04
5.491787E+03	1.170883E-02	4.125141E-04
5.501682E+03	1.174758E-02	4.149754E-04
5.511577E+03	1.178405E-02	4.173695E-04
5.521472E+03	1.181840E-02	4.197016E-04
5.531368E+03	1.185035E-02	4.219611E-04
5.541263E+03	1.188036E-02	4.241631E-04
5.551158E+03	1.190832E-02	4.263029E-04
5.561053E+03	1.193436E-02	4.283849E-04
5.570948E+03	1.195856E-02	4.304107E-04
5.580843E+03	1.198134E-02	4.323947E-04
5.590738E+03	1.200256E-02	4.343317E-04
5.600633E+03	1.202258E-02	4.362336E-04
5.610528E+03	1.204165E-02	4.381090E-04
5.620424E+03	1.205991E-02	4.399632E-04
5.630319E+03	1.207753E-02	4.418011E-04
5.640214E+03	1.209491E-02	4.436373E-04
5.650109E+03	1.211210E-02	4.454737E-04
5.660004E+03	1.212954E-02	4.473256E-04
5.669899E+03	1.214726E-02	4.491947E-04
5.679794E+03	1.216567E-02	4.510962E-04
5.689689E+03	1.218485E-02	4.530323E-04
5.699584E+03	1.220506E-02	4.550133E-04
5.709480E+03	1.222656E-02	4.570491E-04
5.719375E+03	1.224961E-02	4.591497E-04
5.729270E+03	1.227409E-02	4.613106E-04
5.739165E+03	1.230044E-02	4.635493E-04
5.749060E+03	1.232863E-02	4.658643E-04
5.758955E+03	1.235869E-02	4.682576E-04
5.768850E+03	1.239089E-02	4.707397E-04
5.778745E+03	1.242498E-02	4.733021E-04
5.788640E+03	1.246128E-02	4.759570E-04
5.798536E+03	1.249950E-02	4.786938E-04
5.808431E+03	1.253978E-02	4.815185E-04
5.818326E+03	1.258188E-02	4.844227E-04
5.828221E+03	1.262590E-02	4.874100E-04
5.838116E+03	1.267143E-02	4.904656E-04
5.848011E+03	1.271852E-02	4.935914E-04
5.857906E+03	1.276694E-02	4.967796E-04
5.867801E+03	1.281649E-02	5.000216E-04
5.877696E+03	1.286680E-02	5.033039E-04
5.887592E+03	1.291796E-02	5.066301E-04
5.897487E+03	1.296949E-02	5.099812E-04
5.907382E+03	1.302124E-02	5.133514E-04
5.917277E+03	1.307294E-02	5.167303E-04
5.927172E+03	1.312434E-02	5.201075E-04
5.937067E+03	1.317529E-02	5.234772E-04
5.946962E+03	1.322555E-02	5.268296E-04
5.956857E+03	1.327489E-02	5.301552E-04
5.966752E+03	1.332321E-02	5.334490E-04
5.976648E+03	1.337016E-02	5.366976E-04
5.986543E+03	1.341569E-02	5.398978E-04
5.996438E+03	1.345961E-02	5.430420E-04
6.006333E+03	1.350190E-02	5.461281E-04
6.016228E+03	1.354241E-02	5.491497E-04
6.026123E+03	1.358112E-02	5.521061E-04
6.036018E+03	1.361783E-02	5.549874E-04
6.045913E+03	1.365268E-02	5.577993E-04
6.055808E+03	1.368545E-02	5.605326E-04
6.065704E+03	1.371648E-02	5.631994E-04
6.075599E+03	1.374557E-02	5.657920E-04
6.085494E+03	1.377281E-02	5.683131E-04
6.095389E+03	1.379842E-02	5.707707E-04
6.105284E+03	1.382249E-02	5.731689E-04
6.115179E+03	1.384515E-02	5.755119E-04
6.125074E+03	1.386637E-02	5.777984E-04
6.134969E+03	1.388667E-02	5.800494E-04
6.144864E+03	1.390617E-02	5.822700E-04
6.154760E+03	1.392501E-02	5.844652E-04
6.164655E+03	1.394358E-02	5.866519E-04
6.174550E+03	1.396191E-02	5.888309E-04
6.184445E+03	1.398027E-02	5.910131E-04
6.194340E+03	1.399880E-02	5.932050E-04
6.204235E+03	1.401791E-02	5.954239E-04
6.214130E+03	1.403763E-02	5.976708E-04
6.224025E+03	1.405836E-02	5.999629E-04
6.233920E+03	1.408010E-02	6.023006E-04
6.243816E+03	1.410352E-02	6.047125E-04
6.253711E+03	1.412857E-02	6.071977E-04
6.263606E+03	1.415566E-02	6.097733E-04
6.273501E+03	1.418499E-02	6.124490E-04
6.283396E+03	1.421677E-02	6.152342E-04
6.293291E+03	1.425118E-02	6.181371E-04
6.303186E+03	1.428850E-02	6.211713E-04
6.313081E+03	1.432887E-02	6.243434E-04
6.322976E+03	1.437239E-02	6.276581E-04
6.332872E+03	1.441912E-02	6.311195E-04
6.342767E+03	1.446908E-02	6.347290E-04
6.352662E+03	1.452214E-02	6.384816E-04
6.362557E+03	1.457837E-02	6.423816E-04
6.372452E+03	1.463754E-02	6.464196E-04
6.382347E+03	1.469953E-02	6.505904E-04
6.392242E+03	1.476383E-02	6.548729E-04
6.402137E+03	1.483023E-02	6.592586E-04
6.412032E+03	1.489847E-02	6.637353E-04
6.421928E+03	1.496807E-02	6.682828E-04
6.431823E+03	1.503886E-02	6.728938E-04
6.441718E+03	1.511015E-02	6.775372E-04
6.451613E+03	1.518169E-02	6.822021E-04
6.461508E+03	1.525291E-02	6.868624E-04
6.471403E+03	1.532335E-02	6.914981E-04
6.481298E+03	1.539242E-02	6.960811E-04
6.491193E+03	1.545966E-02	7.005909E-04
6.501088E+03	1.552446E-02	7.049986E-04
6.510984E+03	1.558622E-02	7.092767E-04
6.520879E+03	1.564418E-02	7.133893E-04
6.530774E+03	1.569813E-02	7.173256E-04
6.540669E+03	1.574738E-02	7.210527E-04
6.550564E+03	1.579126E-02	7.245383E-04
6.560459E+03	1.582967E-02	7.277771E-04
6.570354E+03	1.586187E-02	7.307327E-04
6.580249E+03	1.588771E-02	7.333966E-04
6.590144E+03	1.590675E-02	7.357462E-04
6.600040E+03	1.591891E-02	7.377769E-04
6.609935E+03	1.592391E-02	7.394726E-04
6.619830E+03	1.592146E-02	7.408185E-04
6.629725E+03	1.591190E-02	7.418286E-04
6.639620E+03	1.589491E-02	7.424852E-04
6.649515E+03	1.587060E-02	7.427920E-04
6.659410E+03	1.583930E-02	7.427623E-04
6.669305E+03	1.580086E-02	7.423871E-04
6.679200E+03	1.575590E-02	7.416942E-04
6.689096E+03	1.570437E-02	7.406788E-04
6.698991E+03	1.564680E-02	7.393644E-04
6.708886E+03	1.558337E-02	7.377584E-04
6.718781E+03	1.551449E-02	7.358780E-04
6.728676E+03	1.544059E-02	7.337430E-04
6.738571E+03	1.536211E-02	7.313728E-04
6.748466E+03	1.527952E-02	7.287881E-04
6.758361E+03	1.519327E-02	7.260101E-04
6.768256E+03	1.510347E-02	7.230430E-04
6.778152E+03	1.501113E-02	7.199342E-04
6.788047E+03	1.491616E-02	7.166791E-04
6.797942E+03	1.481920E-02	7.133072E-04
6.807837E+03	1.472068E-02	7.098397E-04
6.817732E+03	1.462102E-02	7.062964E-04
6.827627E+03	1.452046E-02	7.026885E-04
6.837522E+03	1.441957E-02	6.990432E-04
6.847417E+03	1.431854E-02	6.953702E-04
6.857312E+03	1.421771E-02	6.916860E-04
6.867208E+03	1.411742E-02	6.880072E-04
6.877103E+03	1.401796E-02	6.843486E-04
6.886998E+03	1.391980E-02	6.807328E-04
6.896893E+03	1.382268E-02	6.771483E-04
6.906788E+03	1.372720E-02	6.736239E-04
6.916683E+03	1.363355E-02	6.701702E-04
6.926578E+03	1.354177E-02	6.667897E-04
6.936473E+03	1.345203E-02	6.634910E-04
6.946368E+03	1.336467E-02	6.602917E-04
6.956264E+03	1.327947E-02	6.571820E-04
6.966159E+03	1.319674E-02	6.541773E-04
6.976054E+03	1.311641E-02	6.512746E-04
6.985949E+03	1.303889E-02	6.484957E-04
6.995844E+03	1.296376E-02	6.458203E-04
7.005739E+03	1.289141E-02	6.432680E-04
7.015634E+03	1.282187E-02	6.408413E-04
7.025529E+03	1.275485E-02	6.385273E-04
7.035425E+03	1.269054E-02	6.363346E-04
7.045320E+03	1.262892E-02	6.342647E-04
7.055215E+03	1.257000E-02	6.323177E-04
7.065110E+03	1.251361E-02	6.304859E-04
7.075005E+03	1.245989E-02	6.287769E-04
7.084900E+03	1.240862E-02	6.271808E-04
7.094795E+03	1.235978E-02	6.256973E-04
7.104690E+03	1.231347E-02	6.243313E-04
7.114585E+03	1.226931E-02	6.230655E-04
7.124481E+03	1.222742E-02	6.219049E-04
7.134376E+03	1.218771E-02	6.208467E-04
7.144271E+03	1.215009E-02	6.198870E-04
7.154166E+03	1.211435E-02	6.190148E-04
7.164061E+03	1.208038E-02	6.182256E-04
7.173956E+03	1.204811E-02	6.175158E-04
7.183851E+03	1.201758E-02	6.168887E-04
7.193746E+03	1.198840E-02	6.163238E-04
7.203641E+03	1.196060E-02	6.158237E-04
7.213537E+03	1.193409E-02	6.153839E-04
7.223432E+03	1.190877E-02	6.149992E-04
7.233327E+03	1.188436E-02	6.146563E-04
7.243222E+03	1.186091E-02	6.143574E-04
7.253117E+03	1.183816E-02	6.140893E-04
7.263012E+03	1.181600E-02	6.138467E-04
7.272907E+03	1.179431E-02	6.136237E-04
7.282802E+03	1.177315E-02	6.134232E-04
7.292697E+03	1.175209E-02	6.132236E-04
7.302593E+03	1.173135E-02	6.130359E-04
7.312488E+03	1.171052E-02	6.128388E-04
7.322383E+03	1.168965E-02	6.126350E-04
7.332278E+03	1.166882E-02	6.124287E-04
7.342173E+03	1.164762E-02	6.121985E-04
7.352068E+03	1.162612E-02	6.119486E-04
7.361963E+03	1.160427E-02	6.116755E-04
7.371858E+03	1.158198E-02	6.113752E-04
7.381753E+03	1.155922E-02	6.110448E-04
7.391649E+03	1.153607E-02	6.106900E-04
7.401544E+03	1.151219E-02	6.102921E-04
7.411439E+03	1.148787E-02	6.098664E-04
7.421334E+03	1.146310E-02	6.094118E-04
7.431229E+03	1.143752E-02	6.089100E-04
7.441124E+03	1.141163E-02	6.083869E-04
7.451019E+03	1.138495E-02	6.078174E-04
7.460914E+03	1.135800E-02	6.072286E-04
7.470809E+03	1.133047E-02	6.066042E-04
7.480705E+03	1.130272E-02	6.059634E-04
7.490600E+03	1.127450E-02	6.052926E-04
7.500495E+03	1.124600E-02	6.046025E-04
7.510390E+03	1.121745E-02	6.039053E-04
7.520285E+03	1.118894E-02	6.032048E-04
7.530180E+03	1.116036E-02	6.024962E-04
7.540075E+03	1.113179E-02	6.017838E-04
7.549970E+03	1.110364E-02	6.010888E-04
7.559865E+03	1.107581E-02	6.004066E-04
7.569761E+03	1.104856E-02	5.997512E-04
7.579656E+03	1.102178E-02	5.991168E-04
7.589551E+03	1.099556E-02	5.985082E-04
7.599446E+03	1.097028E-02	5.979466E-04
7.609341E+03	1.094568E-02	5.974173E-04
7.619236E+03	1.092214E-02	5.969418E-04
7.629131E+03	1.089972E-02	5.965227E-04
7.639026E+03	1.087810E-02	5.961441E-04
7.648921E+03	1.085782E-02	5.958347E-04
7.658817E+03	1.083872E-02	5.955864E-04
7.668712E+03	1.082066E-02	5.953917E-04
7.678607E+03	1.080396E-02	5.952687E-04
