#wls	flux	fluxerr
1.586515E+03	2.251727E-02	4.905584E-06
1.626177E+03	2.284730E-02	4.977481E-06
1.665840E+03	2.318968E-02	5.052070E-06
1.705503E+03	2.354189E-02	5.128801E-06
1.745166E+03	2.390332E-02	5.207539E-06
1.784829E+03	2.427698E-02	5.288942E-06
1.824492E+03	2.466405E-02	5.373266E-06
1.864155E+03	2.506197E-02	5.459956E-06
1.903818E+03	2.547373E-02	5.549659E-06
1.943480E+03	2.590044E-02	5.642617E-06
1.983143E+03	2.634321E-02	5.739077E-06
2.022806E+03	2.680139E-02	5.838892E-06
2.062469E+03	2.727796E-02	5.942714E-06
2.102132E+03	2.777413E-02	6.050807E-06
2.141795E+03	2.828947E-02	6.163075E-06
2.181458E+03	2.882889E-02	6.280587E-06
2.221120E+03	2.939390E-02	6.403677E-06
2.260783E+03	2.998452E-02	6.532344E-06
2.300446E+03	3.060612E-02	6.667761E-06
2.340109E+03	3.126091E-02	6.810409E-06
2.379772E+03	3.195148E-02	6.960851E-06
2.419435E+03	3.268416E-02	7.120466E-06
2.459098E+03	3.346243E-02	7.290014E-06
2.498761E+03	3.429205E-02	7.470748E-06
2.538423E+03	3.517788E-02	7.663727E-06
2.578086E+03	3.613055E-02	7.871268E-06
2.617749E+03	3.715522E-02	8.094495E-06
2.657412E+03	3.826486E-02	8.336232E-06
2.697075E+03	3.947073E-02	8.598932E-06
2.736738E+03	4.078449E-02	8.885138E-06
2.776401E+03	4.222667E-02	9.199319E-06
2.816063E+03	4.381313E-02	9.544932E-06
2.855726E+03	4.557217E-02	9.928143E-06
2.895389E+03	4.753216E-02	1.035513E-05
2.935052E+03	4.973413E-02	1.083483E-05
2.974715E+03	5.223533E-02	1.137972E-05
2.984631E+03	5.291491E-02	1.152777E-05
2.994546E+03	5.361904E-02	1.168117E-05
3.004462E+03	5.434928E-02	1.184025E-05
3.014378E+03	5.510901E-02	1.200576E-05
3.024294E+03	5.589853E-02	1.217776E-05
3.034209E+03	5.671993E-02	1.235670E-05
3.044125E+03	5.757553E-02	1.254310E-05
3.054041E+03	5.846961E-02	1.273788E-05
3.063956E+03	5.940329E-02	1.294128E-05
3.073872E+03	6.037972E-02	1.315400E-05
3.083788E+03	6.140401E-02	1.337714E-05
3.093704E+03	6.247820E-02	1.361116E-05
3.103619E+03	6.360815E-02	1.385732E-05
3.113535E+03	6.479662E-02	1.411623E-05
3.123451E+03	6.605024E-02	1.438934E-05
3.133366E+03	6.737261E-02	1.467742E-05
3.143282E+03	6.877124E-02	1.498211E-05
3.153198E+03	7.025063E-02	1.530440E-05
3.163114E+03	7.181929E-02	1.564614E-05
3.173029E+03	7.348450E-02	1.600891E-05
3.182945E+03	7.525212E-02	1.639399E-05
3.192861E+03	7.713229E-02	1.680359E-05
3.202776E+03	7.913376E-02	1.723962E-05
3.212692E+03	8.126380E-02	1.770365E-05
3.222608E+03	8.353395E-02	1.819821E-05
3.232524E+03	8.595412E-02	1.872545E-05
3.242439E+03	8.853441E-02	1.928757E-05
3.252355E+03	9.128261E-02	1.988627E-05
3.262271E+03	9.421027E-02	2.052407E-05
3.272186E+03	9.732584E-02	2.120281E-05
3.282102E+03	1.006360E-01	2.192393E-05
3.292018E+03	1.041421E-01	2.268776E-05
3.301934E+03	1.078461E-01	2.349467E-05
3.311849E+03	1.117440E-01	2.434384E-05
3.321765E+03	1.158144E-01	2.523060E-05
3.331681E+03	1.200416E-01	2.615149E-05
3.341596E+03	1.243878E-01	2.709833E-05
3.343282E+03	1.686587E-01	3.674290E-05
3.346210E+03	1.710094E-01	3.725501E-05
3.349138E+03	1.723156E-01	3.753955E-05
3.352066E+03	1.721489E-01	3.750325E-05
3.354995E+03	1.713093E-01	3.732033E-05
3.357923E+03	1.694685E-01	3.691930E-05
3.360851E+03	1.659410E-01	3.615083E-05
3.363779E+03	1.622693E-01	3.535093E-05
3.366707E+03	1.591618E-01	3.467395E-05
3.369636E+03	1.561027E-01	3.400752E-05
3.372564E+03	1.532330E-01	3.338233E-05
3.375492E+03	1.503475E-01	3.275373E-05
3.378420E+03	1.470964E-01	3.204545E-05
3.381349E+03	1.440222E-01	3.137573E-05
3.384277E+03	1.419742E-01	3.092956E-05
3.387205E+03	1.405614E-01	3.062177E-05
3.390133E+03	1.386689E-01	3.020948E-05
3.393061E+03	1.359274E-01	2.961224E-05
3.395989E+03	1.336766E-01	2.912190E-05
3.398917E+03	1.333809E-01	2.905749E-05
3.401845E+03	1.352185E-01	2.945780E-05
3.404773E+03	1.381490E-01	3.009623E-05
3.407702E+03	1.412987E-01	3.078239E-05
3.410630E+03	1.447297E-01	3.152984E-05
3.413558E+03	1.491125E-01	3.248464E-05
3.416486E+03	1.550658E-01	3.378159E-05
3.419414E+03	1.626072E-01	3.542451E-05
3.422342E+03	1.684343E-01	3.669396E-05
3.425271E+03	1.734957E-01	3.779660E-05
3.428199E+03	1.787939E-01	3.895083E-05
3.431127E+03	1.831339E-01	3.989631E-05
3.434056E+03	1.863149E-01	4.058931E-05
3.436984E+03	1.900301E-01	4.139866E-05
3.439912E+03	1.942618E-01	4.232055E-05
3.442840E+03	1.967286E-01	4.285794E-05
3.445768E+03	1.968603E-01	4.288664E-05
3.448696E+03	1.963325E-01	4.277165E-05
3.451624E+03	1.951277E-01	4.250918E-05
3.454552E+03	1.927645E-01	4.199436E-05
3.457480E+03	1.907046E-01	4.154559E-05
3.460409E+03	1.900345E-01	4.139960E-05
3.463337E+03	1.894892E-01	4.128081E-05
3.466265E+03	1.881065E-01	4.097958E-05
3.469194E+03	1.864210E-01	4.061240E-05
3.472122E+03	1.845400E-01	4.020260E-05
3.475050E+03	1.826233E-01	3.978504E-05
3.477978E+03	1.815261E-01	3.954602E-05
3.480906E+03	1.806605E-01	3.935744E-05
3.483834E+03	1.790469E-01	3.900592E-05
3.486763E+03	1.776935E-01	3.871107E-05
3.489691E+03	1.777326E-01	3.871958E-05
3.492619E+03	1.781955E-01	3.882042E-05
3.495547E+03	1.776113E-01	3.869315E-05
3.498475E+03	1.767601E-01	3.850772E-05
3.501403E+03	1.760655E-01	3.835640E-05
3.504331E+03	1.747213E-01	3.806356E-05
3.507259E+03	1.736781E-01	3.783628E-05
3.510187E+03	1.743970E-01	3.799290E-05
3.513116E+03	1.754057E-01	3.821265E-05
3.516044E+03	1.753946E-01	3.821022E-05
3.518972E+03	1.750275E-01	3.813025E-05
3.521901E+03	1.746622E-01	3.805067E-05
3.524829E+03	1.746901E-01	3.805674E-05
3.527757E+03	1.757321E-01	3.828375E-05
3.530685E+03	1.772630E-01	3.861726E-05
3.533613E+03	1.775610E-01	3.868216E-05
3.536541E+03	1.763468E-01	3.841765E-05
3.539470E+03	1.750598E-01	3.813727E-05
3.542398E+03	1.749112E-01	3.810489E-05
3.545326E+03	1.757265E-01	3.828250E-05
3.548254E+03	1.764704E-01	3.844457E-05
3.551182E+03	1.764443E-01	3.843888E-05
3.554110E+03	1.758810E-01	3.831616E-05
3.557038E+03	1.751170E-01	3.814972E-05
3.559966E+03	1.744187E-01	3.799759E-05
3.562894E+03	1.742573E-01	3.796243E-05
3.565824E+03	1.746718E-01	3.805273E-05
3.568752E+03	1.751519E-01	3.815732E-05
3.571680E+03	1.752374E-01	3.817594E-05
3.574608E+03	1.750988E-01	3.814575E-05
3.577536E+03	1.750580E-01	3.813685E-05
3.580464E+03	1.750365E-01	3.813218E-05
3.583392E+03	1.747096E-01	3.806095E-05
3.586320E+03	1.745034E-01	3.801602E-05
3.589248E+03	1.745049E-01	3.801635E-05
3.592176E+03	1.744726E-01	3.800931E-05
3.595105E+03	1.747636E-01	3.807271E-05
3.598033E+03	1.758041E-01	3.829938E-05
3.600961E+03	1.773576E-01	3.863781E-05
3.603889E+03	1.786977E-01	3.892974E-05
3.606817E+03	1.795190E-01	3.910867E-05
3.609745E+03	1.797186E-01	3.915216E-05
3.612673E+03	1.796873E-01	3.914533E-05
3.615601E+03	1.801885E-01	3.925453E-05
3.618529E+03	1.812755E-01	3.949133E-05
3.621459E+03	1.823267E-01	3.972034E-05
3.624387E+03	1.835374E-01	3.998409E-05
3.627315E+03	1.851206E-01	4.032898E-05
3.630243E+03	1.862598E-01	4.057716E-05
3.633171E+03	1.867598E-01	4.068609E-05
3.636099E+03	1.872953E-01	4.080275E-05
3.639027E+03	1.882032E-01	4.100052E-05
3.641955E+03	1.891640E-01	4.120985E-05
3.644883E+03	1.900005E-01	4.139207E-05
3.647812E+03	1.906061E-01	4.152401E-05
3.650740E+03	1.912471E-01	4.166364E-05
3.653668E+03	1.923136E-01	4.189597E-05
3.656596E+03	1.930073E-01	4.204711E-05
3.659524E+03	1.927255E-01	4.198570E-05
3.662452E+03	1.919118E-01	4.180845E-05
3.665381E+03	1.914350E-01	4.170457E-05
3.668309E+03	1.916674E-01	4.175519E-05
3.671237E+03	1.924314E-01	4.192163E-05
3.674166E+03	1.934079E-01	4.213437E-05
3.677094E+03	1.942248E-01	4.231231E-05
3.680022E+03	1.948110E-01	4.244002E-05
3.682950E+03	1.956274E-01	4.261787E-05
3.685878E+03	1.967093E-01	4.285356E-05
3.688806E+03	1.975430E-01	4.303519E-05
3.691734E+03	1.980929E-01	4.315499E-05
3.694662E+03	1.988198E-01	4.331334E-05
3.697590E+03	1.999541E-01	4.356044E-05
3.700519E+03	2.009639E-01	4.378043E-05
3.703447E+03	2.013182E-01	4.385762E-05
3.706375E+03	2.015130E-01	4.390005E-05
3.709303E+03	2.022389E-01	4.405820E-05
3.712231E+03	2.033012E-01	4.428960E-05
3.715159E+03	2.040443E-01	4.445149E-05
3.718087E+03	2.042031E-01	4.448608E-05
3.721016E+03	2.040254E-01	4.444738E-05
3.723944E+03	2.039186E-01	4.442410E-05
3.726873E+03	2.036700E-01	4.436995E-05
3.729801E+03	2.032090E-01	4.426952E-05
3.732729E+03	2.029782E-01	4.421923E-05
3.735657E+03	2.029950E-01	4.422288E-05
3.738585E+03	2.028877E-01	4.419951E-05
3.741513E+03	2.023383E-01	4.407982E-05
3.744441E+03	2.012760E-01	4.384838E-05
3.747369E+03	2.001075E-01	4.359382E-05
3.750297E+03	1.989392E-01	4.333932E-05
3.753226E+03	1.977003E-01	4.306942E-05
3.756154E+03	1.963202E-01	4.276876E-05
3.759082E+03	1.950816E-01	4.249893E-05
3.762010E+03	1.941085E-01	4.228693E-05
3.764939E+03	1.934537E-01	4.214426E-05
3.767867E+03	1.932229E-01	4.209400E-05
3.770795E+03	1.932573E-01	4.210149E-05
3.773723E+03	1.931326E-01	4.207432E-05
3.776651E+03	1.927782E-01	4.199710E-05
3.779580E+03	1.926181E-01	4.196224E-05
3.782508E+03	1.928289E-01	4.200815E-05
3.785436E+03	1.933399E-01	4.211948E-05
3.788364E+03	1.940274E-01	4.226923E-05
3.791292E+03	1.947500E-01	4.242666E-05
3.794220E+03	1.955077E-01	4.259172E-05
3.797148E+03	1.963357E-01	4.277211E-05
3.800076E+03	1.972342E-01	4.296784E-05
3.803004E+03	1.980443E-01	4.314432E-05
3.805933E+03	1.989598E-01	4.334376E-05
3.808861E+03	2.000693E-01	4.358547E-05
3.811789E+03	2.012492E-01	4.384251E-05
3.814717E+03	2.022522E-01	4.406100E-05
3.817646E+03	2.029726E-01	4.421795E-05
3.820574E+03	2.037458E-01	4.438639E-05
3.823502E+03	2.049421E-01	4.464700E-05
3.826430E+03	2.065085E-01	4.498824E-05
3.829358E+03	2.080922E-01	4.533325E-05
3.832287E+03	2.094108E-01	4.562051E-05
3.835215E+03	2.103765E-01	4.583089E-05
3.838143E+03	2.112714E-01	4.602584E-05
3.841071E+03	2.123423E-01	4.625913E-05
3.843999E+03	2.134833E-01	4.650770E-05
3.846927E+03	2.146065E-01	4.675240E-05
3.849855E+03	2.156588E-01	4.698164E-05
3.852783E+03	2.166227E-01	4.719163E-05
3.855711E+03	2.175159E-01	4.738619E-05
3.858640E+03	2.184087E-01	4.758070E-05
3.861569E+03	2.194422E-01	4.780584E-05
3.864497E+03	2.205987E-01	4.805779E-05
3.867425E+03	2.217550E-01	4.830968E-05
3.870353E+03	2.230869E-01	4.859985E-05
3.873281E+03	2.245770E-01	4.892446E-05
3.876209E+03	2.261372E-01	4.926435E-05
3.879137E+03	2.275736E-01	4.957728E-05
3.882065E+03	2.288160E-01	4.984792E-05
3.884994E+03	2.296708E-01	5.003416E-05
3.887922E+03	2.299974E-01	5.010529E-05
3.890850E+03	2.300774E-01	5.012272E-05
3.893778E+03	2.303156E-01	5.017462E-05
3.896706E+03	2.304834E-01	5.021116E-05
3.899634E+03	2.305806E-01	5.023233E-05
3.902562E+03	2.308712E-01	5.029564E-05
3.905490E+03	2.313200E-01	5.039340E-05
3.908418E+03	2.318038E-01	5.049880E-05
3.911347E+03	2.323753E-01	5.062331E-05
3.914275E+03	2.329466E-01	5.074775E-05
3.917204E+03	2.332012E-01	5.080322E-05
3.920132E+03	2.331392E-01	5.078971E-05
3.923060E+03	2.329542E-01	5.074942E-05
3.925988E+03	2.327340E-01	5.070143E-05
3.928916E+03	2.326366E-01	5.068023E-05
3.931844E+03	2.328205E-01	5.072027E-05
3.934772E+03	2.330920E-01	5.077942E-05
3.937701E+03	2.332931E-01	5.082323E-05
3.940629E+03	2.333184E-01	5.082874E-05
3.943557E+03	2.333437E-01	5.083425E-05
3.946485E+03	2.335092E-01	5.087031E-05
3.949413E+03	2.337100E-01	5.091404E-05
3.952341E+03	2.339631E-01	5.096917E-05
3.955269E+03	2.342863E-01	5.103959E-05
3.958197E+03	2.345041E-01	5.108703E-05
3.961126E+03	2.345812E-01	5.110383E-05
3.964055E+03	2.346057E-01	5.110915E-05
3.966983E+03	2.351038E-01	5.121767E-05
3.969911E+03	2.362158E-01	5.145991E-05
3.972839E+03	2.374852E-01	5.173645E-05
3.975767E+03	2.386138E-01	5.198232E-05
3.978695E+03	2.396720E-01	5.221285E-05
3.981623E+03	2.408526E-01	5.247004E-05
3.984551E+03	2.422607E-01	5.277680E-05
3.987479E+03	2.435457E-01	5.305673E-05
3.990408E+03	2.445148E-01	5.326785E-05
3.993336E+03	2.450980E-01	5.339490E-05
3.996264E+03	2.451728E-01	5.341120E-05
3.999192E+03	2.449321E-01	5.335875E-05
4.002120E+03	2.447439E-01	5.331774E-05
4.005048E+03	2.447133E-01	5.331109E-05
4.007976E+03	2.449103E-01	5.335401E-05
4.010904E+03	2.453173E-01	5.344266E-05
4.013832E+03	2.458118E-01	5.355039E-05
4.016762E+03	2.463585E-01	5.366947E-05
4.019690E+03	2.468525E-01	5.377709E-05
4.022618E+03	2.473112E-01	5.387703E-05
4.025546E+03	2.477172E-01	5.396548E-05
4.028474E+03	2.479306E-01	5.401196E-05
4.031402E+03	2.479339E-01	5.401267E-05
4.034330E+03	2.479371E-01	5.401336E-05
4.037258E+03	2.480101E-01	5.402926E-05
4.040186E+03	2.479081E-01	5.400703E-05
4.043115E+03	2.477711E-01	5.397720E-05
4.046043E+03	2.479313E-01	5.401209E-05
4.048971E+03	2.482138E-01	5.407364E-05
4.051899E+03	2.485835E-01	5.415417E-05
4.054827E+03	2.492676E-01	5.430321E-05
4.057755E+03	2.501611E-01	5.449786E-05
4.060684E+03	2.508447E-01	5.464677E-05
4.063612E+03	2.512311E-01	5.473094E-05
4.066540E+03	2.514074E-01	5.476936E-05
4.069469E+03	2.513742E-01	5.476211E-05
4.072397E+03	2.511836E-01	5.472059E-05
4.075325E+03	2.509232E-01	5.466386E-05
4.078253E+03	2.506452E-01	5.460330E-05
4.081181E+03	2.502102E-01	5.450853E-05
4.084109E+03	2.496006E-01	5.437572E-05
4.087037E+03	2.488863E-01	5.422012E-05
4.089965E+03	2.482419E-01	5.407973E-05
4.092893E+03	2.475454E-01	5.392799E-05
4.095822E+03	2.466221E-01	5.372684E-05
4.098750E+03	2.455594E-01	5.349534E-05
4.101678E+03	2.445317E-01	5.327145E-05
4.104606E+03	2.435916E-01	5.306664E-05
4.107535E+03	2.426689E-01	5.286563E-05
4.110462E+03	2.417814E-01	5.267229E-05
4.113391E+03	2.411380E-01	5.253212E-05
4.116319E+03	2.407562E-01	5.244894E-05
4.119247E+03	2.405835E-01	5.241132E-05
4.122176E+03	2.406025E-01	5.241545E-05
4.125104E+03	2.408130E-01	5.246130E-05
4.128032E+03	2.412847E-01	5.256406E-05
4.130960E+03	2.418433E-01	5.268575E-05
4.133888E+03	2.422970E-01	5.278459E-05
4.136816E+03	2.424372E-01	5.281513E-05
4.139744E+03	2.421594E-01	5.275460E-05
4.142672E+03	2.417076E-01	5.265618E-05
4.145600E+03	2.415515E-01	5.262218E-05
4.148529E+03	2.417958E-01	5.267540E-05
4.151457E+03	2.421096E-01	5.274374E-05
4.154385E+03	2.423188E-01	5.278933E-05
4.157313E+03	2.425626E-01	5.284243E-05
4.160242E+03	2.427193E-01	5.287657E-05
4.163170E+03	2.426845E-01	5.286899E-05
4.166098E+03	2.425279E-01	5.283487E-05
4.169026E+03	2.422671E-01	5.277805E-05
4.171954E+03	2.419019E-01	5.269850E-05
4.174882E+03	2.415368E-01	5.261894E-05
4.177811E+03	2.413281E-01	5.257347E-05
4.180739E+03	2.412409E-01	5.255448E-05
4.183667E+03	2.411189E-01	5.252791E-05
4.186595E+03	2.409622E-01	5.249376E-05
4.189523E+03	2.409097E-01	5.248232E-05
4.192451E+03	2.409959E-01	5.250110E-05
4.195379E+03	2.411690E-01	5.253880E-05
4.198307E+03	2.414980E-01	5.261047E-05
4.201235E+03	2.418789E-01	5.269347E-05
4.204164E+03	2.421209E-01	5.274618E-05
4.207092E+03	2.422760E-01	5.277996E-05
4.210021E+03	2.425004E-01	5.282884E-05
4.212949E+03	2.426898E-01	5.287011E-05
4.215877E+03	2.427577E-01	5.288490E-05
4.218805E+03	2.427041E-01	5.287322E-05
4.221733E+03	2.426851E-01	5.286908E-05
4.224661E+03	2.428394E-01	5.290268E-05
4.227589E+03	2.431149E-01	5.296270E-05
4.230518E+03	2.434249E-01	5.303024E-05
4.233446E+03	2.437002E-01	5.309020E-05
4.236374E+03	2.439925E-01	5.315387E-05
4.239302E+03	2.441114E-01	5.317978E-05
4.242230E+03	2.439703E-01	5.314905E-05
4.245158E+03	2.437774E-01	5.310702E-05
4.248086E+03	2.435671E-01	5.306119E-05
4.251014E+03	2.433739E-01	5.301911E-05
4.253942E+03	2.431116E-01	5.296196E-05
4.256872E+03	2.428666E-01	5.290858E-05
4.259799E+03	2.427946E-01	5.289292E-05
4.262728E+03	2.427571E-01	5.288474E-05
4.265656E+03	2.425639E-01	5.284265E-05
4.268584E+03	2.420940E-01	5.274027E-05
4.271512E+03	2.416068E-01	5.263412E-05
4.274440E+03	2.412925E-01	5.256565E-05
4.277368E+03	2.409265E-01	5.248592E-05
4.280296E+03	2.403010E-01	5.234967E-05
4.283225E+03	2.392956E-01	5.213063E-05
4.286153E+03	2.381348E-01	5.187775E-05
4.289081E+03	2.371989E-01	5.167387E-05
4.292009E+03	2.366779E-01	5.156035E-05
4.294937E+03	2.363123E-01	5.148071E-05
4.297865E+03	2.357396E-01	5.135596E-05
4.300793E+03	2.350115E-01	5.119733E-05
4.303721E+03	2.344045E-01	5.106509E-05
4.306650E+03	2.337976E-01	5.093289E-05
4.309579E+03	2.331044E-01	5.078187E-05
4.312507E+03	2.323943E-01	5.062717E-05
4.315435E+03	2.318567E-01	5.051005E-05
4.318363E+03	2.316126E-01	5.045686E-05
4.321291E+03	2.316271E-01	5.046003E-05
4.324219E+03	2.316933E-01	5.047443E-05
4.327147E+03	2.316732E-01	5.047006E-05
4.330075E+03	2.316013E-01	5.045439E-05
4.333003E+03	2.316673E-01	5.046877E-05
4.335932E+03	2.319399E-01	5.052816E-05
4.338860E+03	2.323330E-01	5.061379E-05
4.341788E+03	2.327086E-01	5.069561E-05
4.344716E+03	2.330323E-01	5.076614E-05
4.347644E+03	2.333043E-01	5.082538E-05
4.350572E+03	2.335761E-01	5.088460E-05
4.353500E+03	2.337787E-01	5.092874E-05
4.356428E+03	2.339469E-01	5.096537E-05
4.359357E+03	2.340633E-01	5.099074E-05
4.362286E+03	2.341106E-01	5.100104E-05
4.365214E+03	2.341581E-01	5.101137E-05
4.368142E+03	2.342568E-01	5.103287E-05
4.371070E+03	2.344415E-01	5.107312E-05
4.373998E+03	2.346777E-01	5.112458E-05
4.376926E+03	2.348449E-01	5.116099E-05
4.379854E+03	2.349605E-01	5.118618E-05
4.382782E+03	2.350759E-01	5.121131E-05
4.385710E+03	2.350537E-01	5.120648E-05
4.388639E+03	2.349284E-01	5.117916E-05
4.391567E+03	2.348202E-01	5.115559E-05
4.394495E+03	2.347462E-01	5.113947E-05
4.397423E+03	2.347238E-01	5.113459E-05
4.400351E+03	2.348731E-01	5.116711E-05
4.403280E+03	2.352624E-01	5.125193E-05
4.406207E+03	2.358577E-01	5.138162E-05
4.409136E+03	2.364012E-01	5.150002E-05
4.412064E+03	2.366870E-01	5.156228E-05
4.414993E+03	2.368868E-01	5.160580E-05
4.417921E+03	2.372410E-01	5.168295E-05
4.420849E+03	2.377149E-01	5.178619E-05
4.423777E+03	2.382401E-01	5.190060E-05
4.426705E+03	2.388336E-01	5.202990E-05
4.429633E+03	2.394439E-01	5.216285E-05
4.432561E+03	2.399512E-01	5.227337E-05
4.435489E+03	2.402868E-01	5.234648E-05
4.438417E+03	2.404680E-01	5.238595E-05
4.441346E+03	2.405634E-01	5.240673E-05
4.444274E+03	2.406246E-01	5.242006E-05
4.447202E+03	2.407541E-01	5.244827E-05
4.450130E+03	2.409519E-01	5.249137E-05
4.453058E+03	2.411326E-01	5.253072E-05
4.455987E+03	2.412617E-01	5.255884E-05
4.458915E+03	2.413222E-01	5.257202E-05
4.461843E+03	2.414511E-01	5.260011E-05
4.464771E+03	2.415800E-01	5.262817E-05
4.467700E+03	2.416231E-01	5.263758E-05
4.470628E+03	2.416491E-01	5.264324E-05
4.473556E+03	2.416749E-01	5.264886E-05
4.476484E+03	2.416325E-01	5.263961E-05
4.479412E+03	2.416582E-01	5.264520E-05
4.482340E+03	2.417180E-01	5.265823E-05
4.485268E+03	2.417437E-01	5.266383E-05
4.488196E+03	2.418887E-01	5.269543E-05
4.491124E+03	2.420679E-01	5.273445E-05
4.494053E+03	2.420420E-01	5.272882E-05
4.496981E+03	2.417599E-01	5.266735E-05
4.499909E+03	2.413242E-01	5.257244E-05
4.502837E+03	2.408545E-01	5.247012E-05
4.505766E+03	2.404703E-01	5.238641E-05
4.508694E+03	2.402055E-01	5.232872E-05
4.511622E+03	2.399236E-01	5.226731E-05
4.514550E+03	2.396760E-01	5.221337E-05
4.517478E+03	2.394113E-01	5.215571E-05
4.520407E+03	2.390785E-01	5.208320E-05
4.523335E+03	2.387115E-01	5.200326E-05
4.526263E+03	2.384470E-01	5.194563E-05
4.529191E+03	2.384210E-01	5.193996E-05
4.532119E+03	2.384631E-01	5.194913E-05
4.535047E+03	2.383348E-01	5.192118E-05
4.537975E+03	2.381214E-01	5.187469E-05
4.540903E+03	2.377547E-01	5.179481E-05
4.543831E+03	2.372688E-01	5.168896E-05
4.546760E+03	2.368173E-01	5.159060E-05
4.549688E+03	2.363488E-01	5.148852E-05
4.552617E+03	2.357272E-01	5.135311E-05
4.555544E+03	2.348506E-01	5.116214E-05
4.558473E+03	2.337873E-01	5.093050E-05
4.561401E+03	2.327582E-01	5.070631E-05
4.564329E+03	2.318314E-01	5.050441E-05
4.567257E+03	2.309900E-01	5.032110E-05
4.570185E+03	2.302678E-01	5.016377E-05
4.573114E+03	2.296818E-01	5.003611E-05
4.576042E+03	2.290619E-01	4.990106E-05
4.578970E+03	2.282893E-01	4.973276E-05
4.581898E+03	2.275340E-01	4.956821E-05
4.584826E+03	2.269827E-01	4.944810E-05
4.587754E+03	2.266011E-01	4.936498E-05
4.590682E+03	2.263047E-01	4.930041E-05
4.593610E+03	2.260592E-01	4.924691E-05
4.596538E+03	2.258137E-01	4.919345E-05
4.599467E+03	2.254156E-01	4.910671E-05
4.602396E+03	2.248141E-01	4.897567E-05
4.605324E+03	2.242296E-01	4.884834E-05
4.608252E+03	2.238150E-01	4.875801E-05
4.611180E+03	2.236208E-01	4.871572E-05
4.614108E+03	2.235452E-01	4.869924E-05
4.617036E+03	2.235036E-01	4.869016E-05
4.619964E+03	2.233432E-01	4.865524E-05
4.622892E+03	2.230137E-01	4.858344E-05
4.625821E+03	2.227179E-01	4.851902E-05
