#wls	flux	fluxerr
1.590552E+03	1.482530E-15	1.566942E-19
1.630316E+03	1.625831E-15	1.718402E-19
1.670080E+03	1.773149E-15	1.874108E-19
1.709844E+03	1.918155E-15	2.027370E-19
1.749607E+03	2.052251E-15	2.169101E-19
1.789371E+03	2.164016E-15	2.287230E-19
1.829135E+03	2.239349E-15	2.366852E-19
1.868899E+03	2.267622E-15	2.396735E-19
1.908663E+03	2.245760E-15	2.373627E-19
1.948426E+03	2.182886E-15	2.307174E-19
1.988190E+03	2.103647E-15	2.223423E-19
2.027954E+03	2.042530E-15	2.158826E-19
2.067718E+03	2.035947E-15	2.151868E-19
2.107482E+03	2.102364E-15	2.222066E-19
2.147245E+03	2.228023E-15	2.354880E-19
2.187009E+03	2.370255E-15	2.505210E-19
2.226773E+03	2.474984E-15	2.615902E-19
2.266537E+03	2.529366E-15	2.673380E-19
2.306301E+03	2.573375E-15	2.719894E-19
2.346064E+03	2.678710E-15	2.831227E-19
2.385828E+03	2.907004E-15	3.072519E-19
2.425592E+03	3.261226E-15	3.446909E-19
2.465356E+03	3.660581E-15	3.869002E-19
2.505120E+03	3.993609E-15	4.220991E-19
2.544883E+03	4.189930E-15	4.428489E-19
2.584647E+03	4.233795E-15	4.474852E-19
2.624411E+03	4.194719E-15	4.433551E-19
2.664175E+03	4.184307E-15	4.422545E-19
2.703939E+03	4.282975E-15	4.526831E-19
2.743702E+03	4.544955E-15	4.803727E-19
2.783466E+03	4.972362E-15	5.255469E-19
2.823230E+03	5.443565E-15	5.753500E-19
2.862994E+03	5.743178E-15	6.070171E-19
2.902758E+03	5.714720E-15	6.040093E-19
2.942521E+03	5.399758E-15	5.707197E-19
2.982285E+03	4.929978E-15	5.210670E-19
2.992226E+03	4.803817E-15	5.077326E-19
3.002167E+03	4.679697E-15	4.946139E-19
3.012108E+03	4.562790E-15	4.822575E-19
3.022049E+03	4.456593E-15	4.710332E-19
3.031990E+03	4.365335E-15	4.613878E-19
3.041931E+03	4.291090E-15	4.535406E-19
3.051872E+03	4.237565E-15	4.478834E-19
3.061813E+03	4.204051E-15	4.443411E-19
3.071754E+03	4.191485E-15	4.430130E-19
3.081695E+03	4.198077E-15	4.437098E-19
3.091636E+03	4.221651E-15	4.462013E-19
3.101577E+03	4.259398E-15	4.501910E-19
3.111518E+03	4.308827E-15	4.554153E-19
3.121459E+03	4.366901E-15	4.615533E-19
3.131399E+03	4.432049E-15	4.684390E-19
3.141340E+03	4.501421E-15	4.757712E-19
3.151281E+03	4.573077E-15	4.833448E-19
3.161222E+03	4.644679E-15	4.909127E-19
3.171163E+03	4.713806E-15	4.982189E-19
3.181104E+03	4.777887E-15	5.049918E-19
3.191045E+03	4.834863E-15	5.110139E-19
3.200986E+03	4.882664E-15	5.160661E-19
3.210927E+03	4.920287E-15	5.200426E-19
3.220868E+03	4.946559E-15	5.228193E-19
3.230809E+03	4.962229E-15	5.244756E-19
3.240750E+03	4.967495E-15	5.250321E-19
3.250691E+03	4.964338E-15	5.246985E-19
3.260632E+03	4.953596E-15	5.235631E-19
3.270573E+03	4.938387E-15	5.219556E-19
3.280514E+03	4.920443E-15	5.200590E-19
3.290455E+03	4.902269E-15	5.181382E-19
3.300396E+03	4.885901E-15	5.164081E-19
3.310337E+03	4.873535E-15	5.151012E-19
3.320278E+03	4.867056E-15	5.144164E-19
3.330219E+03	4.867636E-15	5.144777E-19
3.340159E+03	4.876058E-15	5.153678E-19
3.350100E+03	4.892913E-15	5.171492E-19
3.360041E+03	4.918146E-15	5.198162E-19
3.369982E+03	4.951181E-15	5.233079E-19
3.379923E+03	4.990642E-15	5.274785E-19
3.380391E+03	6.065018E-15	6.410332E-19
3.382277E+03	6.101466E-15	6.448855E-19
3.384164E+03	6.144722E-15	6.494573E-19
3.386050E+03	6.182522E-15	6.534526E-19
3.387937E+03	6.209015E-15	6.562528E-19
3.389823E+03	6.226836E-15	6.581363E-19
3.391709E+03	6.245800E-15	6.601407E-19
3.393596E+03	6.276860E-15	6.634235E-19
3.395482E+03	6.311334E-15	6.670672E-19
3.397369E+03	6.333923E-15	6.694547E-19
3.399254E+03	6.350100E-15	6.711645E-19
3.401141E+03	6.366286E-15	6.728752E-19
3.403027E+03	6.380214E-15	6.743473E-19
3.404914E+03	6.396608E-15	6.760801E-19
3.406800E+03	6.415847E-15	6.781135E-19
3.408686E+03	6.422996E-15	6.788691E-19
3.410572E+03	6.413320E-15	6.778464E-19
3.412459E+03	6.394565E-15	6.758642E-19
3.414346E+03	6.374485E-15	6.737418E-19
3.416232E+03	6.355537E-15	6.717391E-19
3.418118E+03	6.335071E-15	6.695760E-19
3.420004E+03	6.312333E-15	6.671727E-19
3.421891E+03	6.282397E-15	6.640087E-19
3.423777E+03	6.244123E-15	6.599633E-19
3.425664E+03	6.207354E-15	6.560771E-19
3.427550E+03	6.171903E-15	6.523302E-19
3.429436E+03	6.130760E-15	6.479817E-19
3.431323E+03	6.081081E-15	6.427308E-19
3.433209E+03	6.028354E-15	6.371580E-19
3.435096E+03	5.978837E-15	6.319243E-19
3.436981E+03	5.940112E-15	6.278313E-19
3.438868E+03	5.911617E-15	6.248196E-19
3.440754E+03	5.879512E-15	6.214264E-19
3.442641E+03	5.836968E-15	6.169297E-19
3.444528E+03	5.798775E-15	6.128930E-19
3.446413E+03	5.770061E-15	6.098581E-19
3.448300E+03	5.742290E-15	6.069229E-19
3.450186E+03	5.719639E-15	6.045288E-19
3.452073E+03	5.710274E-15	6.035390E-19
3.453958E+03	5.713825E-15	6.039143E-19
3.455845E+03	5.724599E-15	6.050531E-19
3.457731E+03	5.757040E-15	6.084819E-19
3.459618E+03	5.786648E-15	6.116112E-19
3.461505E+03	5.816272E-15	6.147423E-19
3.463390E+03	5.849144E-15	6.182166E-19
3.465277E+03	5.870625E-15	6.204870E-19
3.467163E+03	5.870060E-15	6.204273E-19
3.469050E+03	5.874445E-15	6.208908E-19
3.470936E+03	5.901285E-15	6.237276E-19
3.472822E+03	5.918628E-15	6.255606E-19
3.474708E+03	5.912191E-15	6.248803E-19
3.476595E+03	5.895669E-15	6.231340E-19
3.478481E+03	5.891901E-15	6.227358E-19
3.480368E+03	5.904133E-15	6.240287E-19
3.482254E+03	5.916376E-15	6.253226E-19
3.484140E+03	5.937963E-15	6.276042E-19
3.486027E+03	5.971188E-15	6.311158E-19
3.487913E+03	5.987469E-15	6.328366E-19
3.489800E+03	5.986415E-15	6.327253E-19
3.491685E+03	5.997378E-15	6.338840E-19
3.493572E+03	6.030092E-15	6.373416E-19
3.495458E+03	6.060725E-15	6.405794E-19
3.497345E+03	6.070010E-15	6.415607E-19
3.499232E+03	6.071098E-15	6.416758E-19
3.501117E+03	6.077536E-15	6.423562E-19
3.503004E+03	6.090283E-15	6.437035E-19
3.504890E+03	6.115452E-15	6.463637E-19
3.506777E+03	6.142166E-15	6.491871E-19
3.508663E+03	6.148075E-15	6.498117E-19
3.510549E+03	6.149406E-15	6.499523E-19
3.512435E+03	6.155139E-15	6.505583E-19
3.514322E+03	6.157822E-15	6.508419E-19
3.516209E+03	6.150187E-15	6.500349E-19
3.518095E+03	6.129551E-15	6.478538E-19
3.519981E+03	6.101451E-15	6.448838E-19
3.521867E+03	6.074875E-15	6.420750E-19
3.523754E+03	6.053461E-15	6.398116E-19
3.525640E+03	6.037019E-15	6.380738E-19
3.527526E+03	6.029574E-15	6.372869E-19
3.529412E+03	6.021365E-15	6.364193E-19
3.531299E+03	6.001666E-15	6.343372E-19
3.533186E+03	5.970087E-15	6.309995E-19
3.535072E+03	5.928342E-15	6.265874E-19
3.536958E+03	5.889459E-15	6.224776E-19
3.538844E+03	5.869160E-15	6.203321E-19
3.540731E+03	5.861706E-15	6.195443E-19
3.542617E+03	5.847733E-15	6.180674E-19
3.544504E+03	5.826276E-15	6.157996E-19
3.546389E+03	5.817097E-15	6.148295E-19
3.548276E+03	5.817901E-15	6.149144E-19
3.550162E+03	5.815831E-15	6.146957E-19
3.552049E+03	5.811654E-15	6.142542E-19
3.553936E+03	5.795571E-15	6.125543E-19
3.555821E+03	5.763926E-15	6.092096E-19
3.557708E+03	5.734577E-15	6.061076E-19
3.559594E+03	5.717136E-15	6.042642E-19
3.561481E+03	5.707961E-15	6.032945E-19
3.563367E+03	5.698595E-15	6.023046E-19
3.565253E+03	5.682883E-15	6.006438E-19
3.567139E+03	5.664091E-15	5.986576E-19
3.569026E+03	5.643755E-15	5.965083E-19
3.570913E+03	5.622838E-15	5.942975E-19
3.572799E+03	5.604419E-15	5.923508E-19
3.574685E+03	5.586575E-15	5.904648E-19
3.576571E+03	5.571426E-15	5.888636E-19
3.578458E+03	5.561477E-15	5.878120E-19
3.580344E+03	5.555769E-15	5.872088E-19
3.582231E+03	5.548137E-15	5.864021E-19
3.584116E+03	5.541858E-15	5.857385E-19
3.586003E+03	5.540210E-15	5.855643E-19
3.587890E+03	5.536446E-15	5.851664E-19
3.589776E+03	5.530177E-15	5.845038E-19
3.591663E+03	5.527964E-15	5.842700E-19
3.593548E+03	5.525370E-15	5.839958E-19
3.595435E+03	5.522974E-15	5.837426E-19
3.597321E+03	5.531017E-15	5.845926E-19
3.599208E+03	5.549505E-15	5.865467E-19
3.601094E+03	5.572650E-15	5.889929E-19
3.602980E+03	5.594459E-15	5.912980E-19
3.604867E+03	5.611838E-15	5.931348E-19
3.606753E+03	5.634650E-15	5.955459E-19
3.608640E+03	5.667157E-15	5.989817E-19
3.610525E+03	5.704334E-15	6.029111E-19
3.612412E+03	5.743474E-15	6.070479E-19
3.614298E+03	5.778963E-15	6.107989E-19
3.616185E+03	5.800917E-15	6.131193E-19
3.618071E+03	5.810875E-15	6.141718E-19
3.619957E+03	5.828792E-15	6.160655E-19
3.621843E+03	5.859136E-15	6.192726E-19
3.623730E+03	5.890861E-15	6.226257E-19
3.625617E+03	5.920089E-15	6.257150E-19
3.627503E+03	5.947981E-15	6.286630E-19
3.629389E+03	5.972013E-15	6.312030E-19
3.631275E+03	5.997425E-15	6.338889E-19
3.633162E+03	6.033541E-15	6.377062E-19
3.635048E+03	6.072210E-15	6.417932E-19
3.636935E+03	6.103135E-15	6.450617E-19
3.638820E+03	6.128056E-15	6.476958E-19
3.640707E+03	6.148722E-15	6.498800E-19
3.642594E+03	6.168434E-15	6.519635E-19
3.644480E+03	6.189525E-15	6.541927E-19
3.646367E+03	6.208691E-15	6.562183E-19
3.648252E+03	6.226315E-15	6.580811E-19
3.650139E+03	6.237530E-15	6.592664E-19
3.652025E+03	6.237459E-15	6.592590E-19
3.653912E+03	6.225898E-15	6.580370E-19
3.655798E+03	6.203420E-15	6.556613E-19
3.657684E+03	6.181130E-15	6.533053E-19
3.659571E+03	6.173071E-15	6.524535E-19
3.661457E+03	6.173010E-15	6.524471E-19
3.663344E+03	6.171982E-15	6.523384E-19
3.665230E+03	6.173106E-15	6.524572E-19
3.667116E+03	6.174626E-15	6.526179E-19
3.669002E+03	6.171857E-15	6.523252E-19
3.670889E+03	6.164205E-15	6.515165E-19
3.672775E+03	6.150301E-15	6.500468E-19
3.674662E+03	6.128572E-15	6.477503E-19
3.676547E+03	6.102924E-15	6.450394E-19
3.678434E+03	6.074917E-15	6.420793E-19
3.680321E+03	6.044941E-15	6.389110E-19
3.682207E+03	6.013581E-15	6.355965E-19
3.684093E+03	5.991215E-15	6.332325E-19
3.685979E+03	5.977656E-15	6.317994E-19
3.687866E+03	5.957430E-15	6.296617E-19
3.689752E+03	5.930336E-15	6.267980E-19
3.691639E+03	5.903229E-15	6.239330E-19
3.693524E+03	5.877876E-15	6.212533E-19
3.695411E+03	5.851530E-15	6.184687E-19
3.697298E+03	5.821836E-15	6.153302E-19
3.699184E+03	5.786432E-15	6.115883E-19
3.701071E+03	5.745315E-15	6.072424E-19
3.702956E+03	5.706729E-15	6.031642E-19
3.704843E+03	5.669303E-15	5.992085E-19
3.706729E+03	5.634215E-15	5.955000E-19
3.708616E+03	5.607959E-15	5.927249E-19
3.710502E+03	5.583657E-15	5.901563E-19
3.712388E+03	5.557376E-15	5.873786E-19
3.714275E+03	5.532460E-15	5.847450E-19
3.716161E+03	5.508910E-15	5.822560E-19
3.718048E+03	5.487515E-15	5.799946E-19
3.719934E+03	5.476357E-15	5.788154E-19
3.721820E+03	5.481361E-15	5.793442E-19
3.723706E+03	5.491104E-15	5.803740E-19
3.725593E+03	5.490404E-15	5.803000E-19
3.727479E+03	5.477868E-15	5.789750E-19
3.729366E+03	5.463550E-15	5.774617E-19
3.731252E+03	5.457718E-15	5.768453E-19
3.733138E+03	5.461170E-15	5.772102E-19
3.735025E+03	5.460083E-15	5.770953E-19
3.736911E+03	5.445756E-15	5.755810E-19
3.738798E+03	5.429247E-15	5.738362E-19
3.740683E+03	5.425589E-15	5.734495E-19
3.742570E+03	5.435585E-15	5.745060E-19
3.744456E+03	5.449945E-15	5.760238E-19
3.746343E+03	5.463925E-15	5.775014E-19
3.748229E+03	5.478710E-15	5.790640E-19
3.750115E+03	5.494499E-15	5.807328E-19
3.752002E+03	5.510700E-15	5.824452E-19
3.753888E+03	5.527709E-15	5.842429E-19
3.755775E+03	5.544336E-15	5.860003E-19
3.757660E+03	5.565147E-15	5.881998E-19
3.759547E+03	5.588556E-15	5.906740E-19
3.761433E+03	5.609006E-15	5.928355E-19
3.763320E+03	5.629277E-15	5.949779E-19
3.765206E+03	5.648173E-15	5.969752E-19
3.767092E+03	5.665695E-15	5.988272E-19
3.768979E+03	5.681444E-15	6.004917E-19
3.770865E+03	5.694820E-15	6.019055E-19
3.772752E+03	5.704230E-15	6.029000E-19
3.774638E+03	5.718626E-15	6.044215E-19
3.776524E+03	5.743391E-15	6.070391E-19
3.778410E+03	5.768973E-15	6.097430E-19
3.780297E+03	5.789796E-15	6.119438E-19
3.782183E+03	5.804656E-15	6.135144E-19
3.784070E+03	5.812949E-15	6.143909E-19
3.785956E+03	5.822447E-15	6.153948E-19
3.787842E+03	5.838143E-15	6.170538E-19
3.789729E+03	5.853255E-15	6.186510E-19
3.791615E+03	5.859392E-15	6.192997E-19
3.793502E+03	5.859344E-15	6.192946E-19
3.795387E+03	5.857900E-15	6.191420E-19
3.797274E+03	5.853060E-15	6.186304E-19
3.799160E+03	5.850618E-15	6.183723E-19
3.801047E+03	5.853780E-15	6.187065E-19
3.802934E+03	5.858949E-15	6.192529E-19
3.804819E+03	5.869732E-15	6.203925E-19
3.806706E+03	5.889539E-15	6.224859E-19
3.808592E+03	5.910766E-15	6.247295E-19
3.810479E+03	5.928805E-15	6.266361E-19
3.812365E+03	5.943048E-15	6.281416E-19
3.814251E+03	5.953295E-15	6.292245E-19
3.816137E+03	5.963551E-15	6.303085E-19
3.818024E+03	5.978033E-15	6.318392E-19
3.819910E+03	5.992930E-15	6.334137E-19
3.821797E+03	6.005229E-15	6.347137E-19
3.823683E+03	6.018344E-15	6.360998E-19
3.825569E+03	6.035090E-15	6.378698E-19
3.827456E+03	6.053864E-15	6.398541E-19
3.829342E+03	6.073861E-15	6.419676E-19
3.831229E+03	6.091661E-15	6.438489E-19
3.833114E+03	6.099811E-15	6.447104E-19
3.835001E+03	6.098704E-15	6.445934E-19
3.836887E+03	6.100218E-15	6.447534E-19
3.838774E+03	6.107783E-15	6.455529E-19
3.840660E+03	6.116768E-15	6.465026E-19
3.842546E+03	6.123744E-15	6.472399E-19
3.844433E+03	6.123059E-15	6.471675E-19
3.846319E+03	6.112280E-15	6.460282E-19
3.848206E+03	6.101494E-15	6.448882E-19
3.850091E+03	6.095754E-15	6.442816E-19
3.851978E+03	6.095267E-15	6.442301E-19
3.853864E+03	6.105499E-15	6.453115E-19
3.855751E+03	6.122619E-15	6.471210E-19
3.857638E+03	6.131659E-15	6.480765E-19
3.859523E+03	6.133419E-15	6.482625E-19
3.861410E+03	6.135791E-15	6.485132E-19
3.863296E+03	6.139179E-15	6.488713E-19
3.865183E+03	6.143180E-15	6.492941E-19
3.867069E+03	6.148807E-15	6.498889E-19
3.868955E+03	6.151803E-15	6.502056E-19
3.870841E+03	6.145470E-15	6.495362E-19
3.872728E+03	6.131215E-15	6.480296E-19
3.874615E+03	6.116748E-15	6.465005E-19
3.876501E+03	6.106335E-15	6.453999E-19
3.878387E+03	6.098760E-15	6.445992E-19
3.880273E+03	6.094637E-15	6.441635E-19
3.882160E+03	6.091733E-15	6.438565E-19
3.884046E+03	6.090455E-15	6.437214E-19
3.885933E+03	6.099152E-15	6.446407E-19
3.887818E+03	6.117021E-15	6.465293E-19
3.889705E+03	6.137961E-15	6.487426E-19
3.891591E+03	6.158307E-15	6.508930E-19
3.893478E+03	6.180913E-15	6.532823E-19
3.895365E+03	6.210472E-15	6.564065E-19
3.897250E+03	6.246177E-15	6.601803E-19
3.899137E+03	6.281095E-15	6.638709E-19
3.901023E+03	6.311549E-15	6.670896E-19
3.902910E+03	6.341415E-15	6.702463E-19
3.904796E+03	6.374575E-15	6.737511E-19
3.906682E+03	6.406945E-15	6.771724E-19
3.908568E+03	6.429934E-15	6.796021E-19
3.910455E+03	6.442711E-15	6.809526E-19
3.912342E+03	6.449155E-15	6.816337E-19
3.914227E+03	6.455194E-15	6.822720E-19
3.916114E+03	6.465132E-15	6.833223E-19
3.918000E+03	6.475897E-15	6.844602E-19
3.919887E+03	6.485238E-15	6.854474E-19
3.921773E+03	6.499712E-15	6.869773E-19
3.923659E+03	6.516457E-15	6.887471E-19
3.925545E+03	6.529521E-15	6.901278E-19
3.927432E+03	6.539310E-15	6.911625E-19
3.929319E+03	6.548286E-15	6.921112E-19
3.931205E+03	6.558502E-15	6.931910E-19
3.933091E+03	6.570372E-15	6.944455E-19
3.934977E+03	6.580607E-15	6.955273E-19
3.936864E+03	6.584883E-15	6.959793E-19
3.938750E+03	6.583400E-15	6.958225E-19
3.940637E+03	6.582739E-15	6.957527E-19
3.942522E+03	6.584139E-15	6.959006E-19
3.944409E+03	6.585127E-15	6.960051E-19
3.946295E+03	6.589003E-15	6.964148E-19
3.948182E+03	6.594532E-15	6.969991E-19
3.950069E+03	6.596764E-15	6.972350E-19
3.951954E+03	6.596315E-15	6.971875E-19
3.953841E+03	6.596897E-15	6.972491E-19
3.955727E+03	6.595415E-15	6.970924E-19
3.957614E+03	6.593519E-15	6.968920E-19
3.959500E+03	6.589139E-15	6.964291E-19
3.961386E+03	6.581447E-15	6.956161E-19
3.963272E+03	6.573541E-15	6.947805E-19
3.965159E+03	6.565215E-15	6.939005E-19
3.967046E+03	6.555433E-15	6.928666E-19
3.968932E+03	6.546264E-15	6.918975E-19
3.970818E+03	6.541232E-15	6.913657E-19
3.972704E+03	6.541379E-15	6.913812E-19
3.974591E+03	6.543392E-15	6.915939E-19
3.976477E+03	6.543746E-15	6.916313E-19
3.978364E+03	6.538496E-15	6.910764E-19
3.980249E+03	6.527219E-15	6.898845E-19
3.982136E+03	6.515309E-15	6.886257E-19
3.984023E+03	6.509623E-15	6.880248E-19
3.985909E+03	6.511001E-15	6.881704E-19
3.987795E+03	6.512380E-15	6.883162E-19
3.989681E+03	6.508974E-15	6.879562E-19
3.991568E+03	6.503691E-15	6.873977E-19
3.993454E+03	6.504440E-15	6.874770E-19
3.995341E+03	6.514774E-15	6.885692E-19
3.997226E+03	6.528033E-15	6.899706E-19
3.999113E+03	6.539633E-15	6.911967E-19
4.000999E+03	6.552285E-15	6.925339E-19
4.002886E+03	6.563486E-15	6.937177E-19
4.004773E+03	6.571146E-15	6.945274E-19
4.006658E+03	6.577558E-15	6.952050E-19
4.008545E+03	6.582512E-15	6.957286E-19
4.010431E+03	6.583288E-15	6.958107E-19
4.012318E+03	6.582810E-15	6.957602E-19
4.014204E+03	6.584422E-15	6.959306E-19
4.016090E+03	6.587500E-15	6.962558E-19
4.017976E+03	6.591834E-15	6.967139E-19
4.019863E+03	6.598892E-15	6.974599E-19
4.021750E+03	6.608679E-15	6.984944E-19
4.023636E+03	6.620568E-15	6.997509E-19
4.025522E+03	6.632676E-15	7.010306E-19
4.027408E+03	6.644162E-15	7.022446E-19
4.029295E+03	6.655866E-15	7.034817E-19
4.031181E+03	6.669677E-15	7.049415E-19
4.033068E+03	6.686018E-15	7.066686E-19
4.034953E+03	6.702371E-15	7.083969E-19
4.036840E+03	6.718525E-15	7.101043E-19
4.038726E+03	6.734270E-15	7.117685E-19
4.040613E+03	6.745819E-15	7.129891E-19
4.042500E+03	6.753167E-15	7.137657E-19
4.044385E+03	6.759255E-15	7.144092E-19
4.046272E+03	6.766189E-15	7.151421E-19
4.048158E+03	6.774391E-15	7.160090E-19
4.050045E+03	6.779437E-15	7.165423E-19
4.051931E+03	6.779002E-15	7.164963E-19
4.053817E+03	6.777721E-15	7.163609E-19
4.055703E+03	6.777492E-15	7.163367E-19
4.057590E+03	6.777683E-15	7.163570E-19
4.059477E+03	6.777872E-15	7.163770E-19
4.061363E+03	6.776369E-15	7.162180E-19
4.063249E+03	6.776342E-15	7.162152E-19
4.065135E+03	6.782234E-15	7.168380E-19
4.067022E+03	6.793629E-15	7.180423E-19
4.068908E+03	6.805029E-15	7.192473E-19
4.070794E+03	6.813051E-15	7.200951E-19
4.072681E+03	6.820017E-15	7.208314E-19
4.074567E+03	6.827621E-15	7.216351E-19
4.076454E+03	6.834594E-15	7.223721E-19
4.078340E+03	6.840722E-15	7.230197E-19
4.080226E+03	6.844942E-15	7.234658E-19
4.082112E+03	6.846829E-15	7.236653E-19
4.083999E+03	6.851264E-15	7.241339E-19
4.085885E+03	6.859096E-15	7.249618E-19
4.087772E+03	6.869271E-15	7.260372E-19
4.089657E+03	6.879450E-15	7.271130E-19
4.091544E+03	6.889210E-15	7.281446E-19
4.093430E+03	6.902166E-15	7.295140E-19
4.095317E+03	6.919598E-15	7.313564E-19
4.097204E+03	6.936402E-15	7.331325E-19
4.099089E+03	6.948532E-15	7.344146E-19
4.100976E+03	6.957473E-15	7.353595E-19
4.102862E+03	6.964925E-15	7.361472E-19
4.104749E+03	6.967050E-15	7.363718E-19
4.106635E+03	6.962134E-15	7.358522E-19
4.108521E+03	6.953369E-15	7.349258E-19
4.110408E+03	6.943527E-15	7.338855E-19
4.112294E+03	6.934315E-15	7.329119E-19
4.114181E+03	6.921887E-15	7.315984E-19
4.116067E+03	6.910729E-15	7.304190E-19
4.117953E+03	6.904049E-15	7.297130E-19
4.119839E+03	6.899928E-15	7.292775E-19
4.121726E+03	6.893447E-15	7.285924E-19
4.123612E+03	6.880535E-15	7.272277E-19
4.125499E+03	6.863326E-15	7.254088E-19
4.127384E+03	6.845885E-15	7.235655E-19
4.129271E+03	6.831857E-15	7.220828E-19
4.131158E+03	6.821246E-15	7.209613E-19
4.133044E+03	6.809335E-15	7.197024E-19
4.134931E+03	6.792048E-15	7.178752E-19
4.136816E+03	6.774099E-15	7.159781E-19
4.138703E+03	6.759354E-15	7.144197E-19
4.140589E+03	6.748675E-15	7.132910E-19
4.142476E+03	6.735837E-15	7.119341E-19
4.144362E+03	6.712449E-15	7.094621E-19
4.146248E+03	6.683661E-15	7.064194E-19
4.148135E+03	6.656354E-15	7.035333E-19
4.150021E+03	6.629883E-15	7.007355E-19
4.151908E+03	6.603819E-15	6.979807E-19
4.153793E+03	6.574930E-15	6.949273E-19
4.155680E+03	6.543646E-15	6.916207E-19
4.157566E+03	6.519015E-15	6.890174E-19
4.159453E+03	6.498461E-15	6.868449E-19
4.161339E+03	6.472492E-15	6.841002E-19
4.163225E+03	6.441967E-15	6.808739E-19
4.165111E+03	6.411199E-15	6.776220E-19
4.166998E+03	6.380836E-15	6.744127E-19
4.168885E+03	6.350661E-15	6.712235E-19
4.170771E+03	6.321324E-15	6.681228E-19
4.172657E+03	6.292177E-15	6.650421E-19
4.174543E+03	6.259326E-15	6.615700E-19
4.176430E+03	6.222334E-15	6.576602E-19
4.178316E+03	6.183362E-15	6.535410E-19
4.180203E+03	6.143922E-15	6.493725E-19
4.182089E+03	6.105966E-15	6.453608E-19
4.183975E+03	6.070144E-15	6.415746E-19
4.185862E+03	6.037326E-15	6.381060E-19
4.187748E+03	6.004047E-15	6.345886E-19
4.189635E+03	5.968785E-15	6.308616E-19
4.191520E+03	5.932841E-15	6.270626E-19
4.193407E+03	5.902077E-15	6.238111E-19
4.195293E+03	5.875197E-15	6.209701E-19
4.197180E+03	5.844816E-15	6.177590E-19
4.199066E+03	5.813538E-15	6.144531E-19
4.200952E+03	5.787671E-15	6.117191E-19
