#wls	flux	fluxerr
1.600000E+03	4.737332E-16	2.461749E-16
1.640000E+03	4.947370E-16	2.424614E-16
1.680000E+03	5.158102E-16	2.363114E-16
1.720000E+03	5.365021E-16	2.273655E-16
1.760000E+03	5.562867E-16	2.153312E-16
1.800000E+03	5.744369E-16	1.999853E-16
1.840000E+03	5.901171E-16	1.812861E-16
1.880000E+03	6.023169E-16	1.594420E-16
1.920000E+03	6.097934E-16	1.350274E-16
1.960000E+03	6.111916E-16	1.092012E-16
2.000000E+03	6.050402E-16	8.398279E-17
2.040000E+03	5.899422E-16	6.264208E-17
2.080000E+03	5.653227E-16	4.923810E-17
2.120000E+03	5.339217E-16	4.442850E-17
2.160000E+03	5.029246E-16	4.331824E-17
2.200000E+03	4.803885E-16	4.269093E-17
2.240000E+03	4.728261E-16	4.360830E-17
2.280000E+03	4.851986E-16	4.873387E-17
2.320000E+03	5.206858E-16	5.895553E-17
2.360000E+03	5.815108E-16	7.309571E-17
2.400000E+03	6.705279E-16	8.936962E-17
2.440000E+03	7.914658E-16	1.053900E-16
2.480000E+03	9.483142E-16	1.176401E-16
2.520000E+03	1.144183E-15	1.215295E-16
2.560000E+03	1.379128E-15	1.138464E-16
2.600000E+03	1.647340E-15	1.043212E-16
2.640000E+03	1.936033E-15	1.341800E-16
2.680000E+03	2.232856E-15	2.225926E-16
2.720000E+03	2.530069E-15	3.469761E-16
2.760000E+03	2.820124E-15	4.897305E-16
2.800000E+03	3.094940E-15	6.384190E-16
2.840000E+03	3.346781E-15	7.820817E-16
2.880000E+03	3.569276E-15	9.107786E-16
2.920000E+03	3.758419E-15	1.016154E-15
2.960000E+03	3.913069E-15	1.092060E-15
3.000000E+03	4.033919E-15	1.134603E-15
3.010000E+03	4.059006E-15	1.139766E-15
3.020000E+03	4.082268E-15	1.142757E-15
3.030000E+03	4.103517E-15	1.143514E-15
3.040000E+03	4.122859E-15	1.142063E-15
3.050000E+03	4.140488E-15	1.138460E-15
3.060000E+03	4.156229E-15	1.132667E-15
3.070000E+03	4.170277E-15	1.124755E-15
3.080000E+03	4.182643E-15	1.114749E-15
3.090000E+03	4.193339E-15	1.102683E-15
3.100000E+03	4.202380E-15	1.088597E-15
3.110000E+03	4.209952E-15	1.072582E-15
3.120000E+03	4.215981E-15	1.054669E-15
3.130000E+03	4.220564E-15	1.034937E-15
3.140000E+03	4.223714E-15	1.013452E-15
3.150000E+03	4.225442E-15	9.902870E-16
3.160000E+03	4.225841E-15	9.655401E-16
3.170000E+03	4.225001E-15	9.393145E-16
3.180000E+03	4.222773E-15	9.116679E-16
3.190000E+03	4.219400E-15	8.827524E-16
3.200000E+03	4.214810E-15	8.526583E-16
3.210000E+03	4.209085E-15	8.215170E-16
3.220000E+03	4.202226E-15	7.894525E-16
3.230000E+03	4.194164E-15	7.565854E-16
3.240000E+03	4.185116E-15	7.230986E-16
3.250000E+03	4.174868E-15	6.891080E-16
3.260000E+03	4.163625E-15	6.548136E-16
3.270000E+03	4.151379E-15	6.203878E-16
3.280000E+03	4.137989E-15	5.859958E-16
3.290000E+03	4.123642E-15	5.518607E-16
3.300000E+03	4.108198E-15	5.181662E-16
3.310000E+03	4.091711E-15	4.851274E-16
3.320000E+03	4.074173E-15	4.529494E-16
3.330000E+03	4.055640E-15	4.218348E-16
3.340000E+03	4.036059E-15	3.919543E-16
3.350000E+03	4.015454E-15	3.634553E-16
3.360000E+03	3.993870E-15	3.364439E-16
3.370000E+03	3.971432E-15	3.109815E-16
3.380000E+03	3.948191E-15	2.870704E-16
3.390000E+03	3.924286E-15	2.646764E-16
3.400000E+03	3.899892E-15	2.437415E-16
3.410000E+03	3.875168E-15	2.242069E-16
3.420000E+03	3.850352E-15	2.060506E-16
3.430000E+03	3.825703E-15	1.893140E-16
3.440000E+03	3.801459E-15	1.741228E-16
3.450000E+03	3.777944E-15	1.606945E-16
3.460000E+03	3.755532E-15	1.492987E-16
3.470000E+03	3.734773E-15	1.401771E-16
3.480000E+03	3.716474E-15	1.334380E-16
3.490000E+03	3.701614E-15	1.289955E-16
3.500000E+03	3.691250E-15	1.265995E-16
3.510000E+03	3.686027E-15	1.258974E-16
3.520000E+03	3.685966E-15	1.264899E-16
3.530000E+03	3.690431E-15	1.279735E-16
3.540000E+03	3.698508E-15	1.299895E-16
3.550000E+03	3.709162E-15	1.322505E-16
3.560000E+03	3.721682E-15	1.345562E-16
3.570000E+03	3.736143E-15	1.367973E-16
3.580000E+03	3.753316E-15	1.389328E-16
3.590000E+03	3.774459E-15	1.409648E-16
3.600000E+03	3.800830E-15	1.429131E-16
3.610000E+03	3.833206E-15	1.447984E-16
3.620000E+03	3.871029E-15	1.466145E-16
3.630000E+03	3.912012E-15	1.483235E-16
3.640000E+03	3.952196E-15	1.498630E-16
3.650000E+03	3.986035E-15	1.511422E-16
3.660000E+03	4.007502E-15	1.520591E-16
3.670000E+03	4.011405E-15	1.525086E-16
3.680000E+03	3.994547E-15	1.523937E-16
3.690000E+03	3.956368E-15	1.516440E-16
3.700000E+03	3.899132E-15	1.502437E-16
3.710000E+03	3.827225E-15	1.482356E-16
3.720000E+03	3.746611E-15	1.457349E-16
3.730000E+03	3.663927E-15	1.429206E-16
3.740000E+03	3.585615E-15	1.400099E-16
3.750000E+03	3.517864E-15	1.372469E-16
3.760000E+03	3.465949E-15	1.348590E-16
3.770000E+03	3.434486E-15	1.330514E-16
3.780000E+03	3.427039E-15	1.319863E-16
3.790000E+03	3.446043E-15	1.317800E-16
3.800000E+03	3.492625E-15	1.324980E-16
3.810000E+03	3.566306E-15	1.341458E-16
3.820000E+03	3.664811E-15	1.366611E-16
3.830000E+03	3.783917E-15	1.399098E-16
3.840000E+03	3.917580E-15	1.436943E-16
3.850000E+03	4.058462E-15	1.477764E-16
3.860000E+03	4.198636E-15	1.519038E-16
3.870000E+03	4.330399E-15	1.558388E-16
3.880000E+03	4.447159E-15	1.593837E-16
3.890000E+03	4.544002E-15	1.623904E-16
3.900000E+03	4.617882E-15	1.647582E-16
3.910000E+03	4.667589E-15	1.664232E-16
3.920000E+03	4.693454E-15	1.673452E-16
3.930000E+03	4.697266E-15	1.675187E-16
3.940000E+03	4.681976E-15	1.669832E-16
3.950000E+03	4.651648E-15	1.658358E-16
3.960000E+03	4.611077E-15	1.642226E-16
3.970000E+03	4.565608E-15	1.623291E-16
3.980000E+03	4.520306E-15	1.603465E-16
3.990000E+03	4.479522E-15	1.584562E-16
4.000000E+03	4.446184E-15	1.568056E-16
4.010000E+03	4.421512E-15	1.554938E-16
4.020000E+03	4.404782E-15	1.545548E-16
4.030000E+03	4.393797E-15	1.539589E-16
4.040000E+03	4.385247E-15	1.536157E-16
4.050000E+03	4.375734E-15	1.534110E-16
4.060000E+03	4.362445E-15	1.532335E-16
4.070000E+03	4.343934E-15	1.530020E-16
4.080000E+03	4.320213E-15	1.526709E-16
4.090000E+03	4.292480E-15	1.522229E-16
4.100000E+03	4.262499E-15	1.516494E-16
4.110000E+03	4.232070E-15	1.509406E-16
4.120000E+03	4.202347E-15	1.500746E-16
4.130000E+03	4.173597E-15	1.490184E-16
4.140000E+03	4.145210E-15	1.477364E-16
4.150000E+03	4.115965E-15	1.462024E-16
4.160000E+03	4.084655E-15	1.444175E-16
4.170000E+03	4.050372E-15	1.424096E-16
4.180000E+03	4.012998E-15	1.402358E-16
4.190000E+03	3.973185E-15	1.379678E-16
4.200000E+03	3.932016E-15	1.356733E-16
4.210000E+03	3.890667E-15	1.334002E-16
4.220000E+03	3.849878E-15	1.311586E-16
4.230000E+03	3.809807E-15	1.289237E-16
4.240000E+03	3.769869E-15	1.266373E-16
4.250000E+03	3.729250E-15	1.242300E-16
4.260000E+03	3.687215E-15	1.216371E-16
4.270000E+03	3.643813E-15	1.188259E-16
4.280000E+03	3.600011E-15	1.158025E-16
4.290000E+03	3.557854E-15	1.126242E-16
4.300000E+03	3.520051E-15	1.093930E-16
4.310000E+03	3.489372E-15	1.062449E-16
4.320000E+03	3.468267E-15	1.033475E-16
4.330000E+03	3.458150E-15	1.008860E-16
4.340000E+03	3.459441E-15	9.906184E-17
4.350000E+03	3.471355E-15	9.806121E-17
4.360000E+03	3.492482E-15	9.801409E-17
4.370000E+03	3.521100E-15	9.893546E-17
4.380000E+03	3.555376E-15	1.007106E-16
4.390000E+03	3.593783E-15	1.031516E-16
4.400000E+03	3.635183E-15	1.060654E-16
4.410000E+03	3.678696E-15	1.092888E-16
4.420000E+03	3.723629E-15	1.126890E-16
4.430000E+03	3.769015E-15	1.161405E-16
4.440000E+03	3.813723E-15	1.195280E-16
4.450000E+03	3.856447E-15	1.227504E-16
4.460000E+03	3.895939E-15	1.257290E-16
4.470000E+03	3.931099E-15	1.284105E-16
4.480000E+03	3.961240E-15	1.307704E-16
4.490000E+03	3.985895E-15	1.327985E-16
4.500000E+03	4.004772E-15	1.344943E-16
4.510000E+03	4.017565E-15	1.358561E-16
4.520000E+03	4.023586E-15	1.368643E-16
4.530000E+03	4.021978E-15	1.374907E-16
4.540000E+03	4.011739E-15	1.377023E-16
4.550000E+03	3.991857E-15	1.374681E-16
4.560000E+03	3.961674E-15	1.367753E-16
4.570000E+03	3.920946E-15	1.356325E-16
4.580000E+03	3.870109E-15	1.340771E-16
4.590000E+03	3.810207E-15	1.321695E-16
4.600000E+03	3.742861E-15	1.299871E-16
4.610000E+03	3.670092E-15	1.276135E-16
4.620000E+03	3.594238E-15	1.251384E-16
4.630000E+03	3.517489E-15	1.226424E-16
4.640000E+03	3.441865E-15	1.201960E-16
4.650000E+03	3.368888E-15	1.178467E-16
4.660000E+03	3.299481E-15	1.156142E-16
4.670000E+03	3.234125E-15	1.134966E-16
4.680000E+03	3.172861E-15	1.114792E-16
4.690000E+03	3.115737E-15	1.095592E-16
4.700000E+03	3.062936E-15	1.077525E-16
4.710000E+03	3.014712E-15	1.060865E-16
4.720000E+03	2.971437E-15	1.045916E-16
4.730000E+03	2.933387E-15	1.032853E-16
4.740000E+03	2.900535E-15	1.021652E-16
4.750000E+03	2.872453E-15	1.012086E-16
4.760000E+03	2.848406E-15	1.003770E-16
4.770000E+03	2.827408E-15	9.962043E-17
4.780000E+03	2.808743E-15	9.889680E-17
4.790000E+03	2.792076E-15	9.817957E-17
4.800000E+03	2.777613E-15	9.747120E-17
4.810000E+03	2.766151E-15	9.681216E-17
4.820000E+03	2.758731E-15	9.626754E-17
4.830000E+03	2.756410E-15	9.590927E-17
4.840000E+03	2.759865E-15	9.578718E-17
4.850000E+03	2.769070E-15	9.590954E-17
4.860000E+03	2.783166E-15	9.624301E-17
4.870000E+03	2.800264E-15	9.671493E-17
4.880000E+03	2.817899E-15	9.723524E-17
4.890000E+03	2.833264E-15	9.770780E-17
4.900000E+03	2.843934E-15	9.805330E-17
4.910000E+03	2.848366E-15	9.822122E-17
4.920000E+03	2.846412E-15	9.820450E-17
4.930000E+03	2.839465E-15	9.804162E-17
4.940000E+03	2.830109E-15	9.780355E-17
4.950000E+03	2.821671E-15	9.758426E-17
4.960000E+03	2.817337E-15	9.747775E-17
4.970000E+03	2.819506E-15	9.755858E-17
4.980000E+03	2.829342E-15	9.786581E-17
4.990000E+03	2.846681E-15	9.839510E-17
5.000000E+03	2.870156E-15	9.909787E-17
5.010000E+03	2.897468E-15	9.988935E-17
5.020000E+03	2.926102E-15	1.006740E-16
5.030000E+03	2.953602E-15	1.013584E-16
5.040000E+03	2.978092E-15	1.018769E-16
5.050000E+03	2.998406E-15	1.022027E-16
5.060000E+03	3.014011E-15	1.023453E-16
5.070000E+03	3.024956E-15	1.023397E-16
5.080000E+03	3.031624E-15	1.022242E-16
5.090000E+03	3.034648E-15	1.020281E-16
5.100000E+03	3.034708E-15	1.017687E-16
5.110000E+03	3.032440E-15	1.014561E-16
5.120000E+03	3.028513E-15	1.011015E-16
5.130000E+03	3.023425E-15	1.007152E-16
5.140000E+03	3.017419E-15	1.003038E-16
5.150000E+03	3.010354E-15	9.986326E-17
5.160000E+03	3.001700E-15	9.937893E-17
5.170000E+03	2.990505E-15	9.882231E-17
5.180000E+03	2.975652E-15	9.815701E-17
5.190000E+03	2.955924E-15	9.734144E-17
5.200000E+03	2.930507E-15	9.634502E-17
5.210000E+03	2.899207E-15	9.515485E-17
5.220000E+03	2.862615E-15	9.378453E-17
5.230000E+03	2.821960E-15	9.227123E-17
5.240000E+03	2.779038E-15	9.067117E-17
5.250000E+03	2.735866E-15	8.904473E-17
5.260000E+03	2.694126E-15	8.743256E-17
5.270000E+03	2.655146E-15	8.585289E-17
5.280000E+03	2.619555E-15	8.429693E-17
5.290000E+03	2.587389E-15	8.274175E-17
5.300000E+03	2.558183E-15	8.115863E-17
5.310000E+03	2.531040E-15	7.951614E-17
5.320000E+03	2.504964E-15	7.778640E-17
5.330000E+03	2.478911E-15	7.594047E-17
5.340000E+03	2.451925E-15	7.394855E-17
5.350000E+03	2.423235E-15	7.177921E-17
5.360000E+03	2.392225E-15	6.939841E-17
5.370000E+03	2.358659E-15	6.678590E-17
5.380000E+03	2.322673E-15	6.395196E-17
5.390000E+03	2.284862E-15	6.096255E-17
5.400000E+03	2.246419E-15	5.797232E-17
5.410000E+03	2.208955E-15	5.524137E-17
5.420000E+03	2.174384E-15	5.311350E-17
5.430000E+03	2.144588E-15	5.191227E-17
5.440000E+03	2.120991E-15	5.177951E-17
5.450000E+03	2.104205E-15	5.259343E-17
5.460000E+03	2.094148E-15	5.406614E-17
5.470000E+03	2.090121E-15	5.589886E-17
5.480000E+03	2.090983E-15	5.786658E-17
5.490000E+03	2.095420E-15	5.982611E-17
5.500000E+03	2.102109E-15	6.168915E-17
5.510000E+03	2.109796E-15	6.339750E-17
5.520000E+03	2.117432E-15	6.491754E-17
5.530000E+03	2.124205E-15	6.624187E-17
5.540000E+03	2.129579E-15	6.738875E-17
5.550000E+03	2.133078E-15	6.838453E-17
5.560000E+03	2.134419E-15	6.925166E-17
5.570000E+03	2.133369E-15	6.999375E-17
5.580000E+03	2.129847E-15	7.060234E-17
5.590000E+03	2.123977E-15	7.106876E-17
5.600000E+03	2.116146E-15	7.139401E-17
5.610000E+03	2.107120E-15	7.159675E-17
5.620000E+03	2.097956E-15	7.171029E-17
5.630000E+03	2.089964E-15	7.178043E-17
5.640000E+03	2.084613E-15	7.186434E-17
5.650000E+03	2.083201E-15	7.202073E-17
5.660000E+03	2.086702E-15	7.230296E-17
5.670000E+03	2.095620E-15	7.274885E-17
5.680000E+03	2.109819E-15	7.336741E-17
5.690000E+03	2.128430E-15	7.413151E-17
5.700000E+03	2.150098E-15	7.498995E-17
5.710000E+03	2.173126E-15	7.587994E-17
5.720000E+03	2.195708E-15	7.674025E-17
5.730000E+03	2.216273E-15	7.752595E-17
5.740000E+03	2.233608E-15	7.821000E-17
5.750000E+03	2.247034E-15	7.878464E-17
5.760000E+03	2.256291E-15	7.925252E-17
5.770000E+03	2.261444E-15	7.961848E-17
5.780000E+03	2.262622E-15	7.987883E-17
5.790000E+03	2.260096E-15	8.002977E-17
5.800000E+03	2.253985E-15	8.006483E-17
5.810000E+03	2.244441E-15	7.998700E-17
5.820000E+03	2.231588E-15	7.980929E-17
5.830000E+03	2.215600E-15	7.955537E-17
5.840000E+03	2.196786E-15	7.925571E-17
5.850000E+03	2.175596E-15	7.893845E-17
5.860000E+03	2.152675E-15	7.862030E-17
5.870000E+03	2.128823E-15	7.829889E-17
5.880000E+03	2.105034E-15	7.795970E-17
5.890000E+03	2.082252E-15	7.758088E-17
5.900000E+03	2.061388E-15	7.714786E-17
5.910000E+03	2.043116E-15	7.665844E-17
5.920000E+03	2.027880E-15	7.613034E-17
5.930000E+03	2.015761E-15	7.559552E-17
5.940000E+03	2.006478E-15	7.509127E-17
5.950000E+03	1.999400E-15	7.464713E-17
5.960000E+03	1.993601E-15	7.427490E-17
5.970000E+03	1.987970E-15	7.396590E-17
5.980000E+03	1.981230E-15	7.368761E-17
5.990000E+03	1.972194E-15	7.339383E-17
6.000000E+03	1.959682E-15	7.302756E-17
6.010000E+03	1.942677E-15	7.253277E-17
6.020000E+03	1.920393E-15	7.186043E-17
6.030000E+03	1.892284E-15	7.097086E-17
6.040000E+03	1.858305E-15	6.984483E-17
6.050000E+03	1.818846E-15	6.848210E-17
6.060000E+03	1.774962E-15	6.691410E-17
6.070000E+03	1.728292E-15	6.520420E-17
6.080000E+03	1.680974E-15	6.344393E-17
6.090000E+03	1.635493E-15	6.174338E-17
6.100000E+03	1.594404E-15	6.021473E-17
6.110000E+03	1.560050E-15	5.895770E-17
6.120000E+03	1.534301E-15	5.804918E-17
6.130000E+03	1.518343E-15	5.753556E-17
6.140000E+03	1.512569E-15	5.742901E-17
6.150000E+03	1.516565E-15	5.770919E-17
6.160000E+03	1.529190E-15	5.832747E-17
6.170000E+03	1.548653E-15	5.921026E-17
6.180000E+03	1.572661E-15	6.026538E-17
6.190000E+03	1.598581E-15	6.138901E-17
6.200000E+03	1.623665E-15	6.247375E-17
6.210000E+03	1.645222E-15	6.341533E-17
6.220000E+03	1.660848E-15	6.412063E-17
6.230000E+03	1.668583E-15	6.451300E-17
6.240000E+03	1.667049E-15	6.453875E-17
6.250000E+03	1.655661E-15	6.417631E-17
6.260000E+03	1.634730E-15	6.344017E-17
6.270000E+03	1.605452E-15	6.238012E-17
6.280000E+03	1.570003E-15	6.108326E-17
6.290000E+03	1.531339E-15	5.966499E-17
6.300000E+03	1.492779E-15	5.825360E-17
6.310000E+03	1.457745E-15	5.698069E-17
6.320000E+03	1.429222E-15	5.595999E-17
6.330000E+03	1.409411E-15	5.527397E-17
6.340000E+03	1.399612E-15	5.496842E-17
6.350000E+03	1.400008E-15	5.504331E-17
6.360000E+03	1.409769E-15	5.545715E-17
6.370000E+03	1.427268E-15	5.613700E-17
6.380000E+03	1.450352E-15	5.699035E-17
6.390000E+03	1.476509E-15	5.791387E-17
6.400000E+03	1.503324E-15	5.881291E-17
6.410000E+03	1.528757E-15	5.961318E-17
6.420000E+03	1.551203E-15	6.026314E-17
6.430000E+03	1.569704E-15	6.074020E-17
6.440000E+03	1.583896E-15	6.104577E-17
6.450000E+03	1.593839E-15	6.119575E-17
6.460000E+03	1.599795E-15	6.120891E-17
6.470000E+03	1.602123E-15	6.110237E-17
6.480000E+03	1.601102E-15	6.088986E-17
6.490000E+03	1.596955E-15	6.058863E-17
6.500000E+03	1.589837E-15	6.022094E-17
6.510000E+03	1.579959E-15	5.981486E-17
6.520000E+03	1.567638E-15	5.939819E-17
6.530000E+03	1.553307E-15	5.899165E-17
6.540000E+03	1.537556E-15	5.860931E-17
6.550000E+03	1.520985E-15	5.825546E-17
6.560000E+03	1.504122E-15	5.792508E-17
6.570000E+03	1.487423E-15	5.760894E-17
6.580000E+03	1.471133E-15	5.729301E-17
6.590000E+03	1.455360E-15	5.696440E-17
6.600000E+03	1.440101E-15	5.661489E-17
6.610000E+03	1.425208E-15	5.623977E-17
6.620000E+03	1.410627E-15	5.584560E-17
6.630000E+03	1.396180E-15	5.543835E-17
6.640000E+03	1.381845E-15	5.503011E-17
6.650000E+03	1.367571E-15	5.462873E-17
6.660000E+03	1.353364E-15	5.424015E-17
6.670000E+03	1.339264E-15	5.386704E-17
6.680000E+03	1.325263E-15	5.350550E-17
6.690000E+03	1.311363E-15	5.314970E-17
6.700000E+03	1.297551E-15	5.279325E-17
6.710000E+03	1.283831E-15	5.243167E-17
6.720000E+03	1.270145E-15	5.206067E-17
6.730000E+03	1.256546E-15	5.168339E-17
6.740000E+03	1.243063E-15	5.130381E-17
6.750000E+03	1.229802E-15	5.092916E-17
6.760000E+03	1.216931E-15	5.056703E-17
6.770000E+03	1.204666E-15	5.022345E-17
6.780000E+03	1.193259E-15	4.990351E-17
6.790000E+03	1.182877E-15	4.960846E-17
6.800000E+03	1.173683E-15	4.934141E-17
6.810000E+03	1.165730E-15	4.910435E-17
6.820000E+03	1.158967E-15	4.889859E-17
6.830000E+03	1.153231E-15	4.872333E-17
6.840000E+03	1.148260E-15	4.857369E-17
6.850000E+03	1.143710E-15	4.843864E-17
6.860000E+03	1.139167E-15	4.829982E-17
6.870000E+03	1.134251E-15	4.813705E-17
6.880000E+03	1.128607E-15	4.793028E-17
6.890000E+03	1.121960E-15	4.766425E-17
6.900000E+03	1.114219E-15	4.733507E-17
6.910000E+03	1.105455E-15	4.694960E-17
6.920000E+03	1.095910E-15	4.652520E-17
6.930000E+03	1.086037E-15	4.608917E-17
6.940000E+03	1.076462E-15	4.567476E-17
6.950000E+03	1.067879E-15	4.531423E-17
6.960000E+03	1.061032E-15	4.503792E-17
6.970000E+03	1.056642E-15	4.487135E-17
6.980000E+03	1.055260E-15	4.483092E-17
6.990000E+03	1.057249E-15	4.492650E-17
7.000000E+03	1.062681E-15	4.516032E-17
7.010000E+03	1.071381E-15	4.553031E-17
7.020000E+03	1.082817E-15	4.602415E-17
7.030000E+03	1.096227E-15	4.662119E-17
7.040000E+03	1.110657E-15	4.728989E-17
7.050000E+03	1.125121E-15	4.799198E-17
7.060000E+03	1.138620E-15	4.868204E-17
7.070000E+03	1.150351E-15	4.931736E-17
7.080000E+03	1.159579E-15	4.985753E-17
7.090000E+03	1.165898E-15	5.028105E-17
7.100000E+03	1.169043E-15	5.057968E-17
7.110000E+03	1.168999E-15	5.075963E-17
7.120000E+03	1.165855E-15	5.082874E-17
7.130000E+03	1.159948E-15	5.079714E-17
7.140000E+03	1.151650E-15	5.066790E-17
7.150000E+03	1.141506E-15	5.044721E-17
7.160000E+03	1.130103E-15	5.014393E-17
7.170000E+03	1.118056E-15	4.977309E-17
7.180000E+03	1.105937E-15	4.935517E-17
7.190000E+03	1.094278E-15	4.891637E-17
7.200000E+03	1.083544E-15	4.848560E-17
7.210000E+03	1.074039E-15	4.808807E-17
7.220000E+03	1.066004E-15	4.774677E-17
7.230000E+03	1.059507E-15	4.747627E-17
7.240000E+03	1.054626E-15	4.728934E-17
7.250000E+03	1.051295E-15	4.718918E-17
7.260000E+03	1.049393E-15	4.717266E-17
7.270000E+03	1.048713E-15	4.722802E-17
7.280000E+03	1.048945E-15	4.733379E-17
7.290000E+03	1.049669E-15	4.745896E-17
7.300000E+03	1.050381E-15	4.756529E-17
7.310000E+03	1.050414E-15	4.760546E-17
7.320000E+03	1.049150E-15	4.753531E-17
7.330000E+03	1.045854E-15	4.730946E-17
7.340000E+03	1.039818E-15	4.689143E-17
7.350000E+03	1.030513E-15	4.626372E-17
7.360000E+03	1.017449E-15	4.542266E-17
7.370000E+03	1.000471E-15	4.438997E-17
7.380000E+03	9.796220E-16	4.320067E-17
7.390000E+03	9.553280E-16	4.190384E-17
7.400000E+03	9.283691E-16	4.055443E-17
7.410000E+03	8.998300E-16	3.920706E-17
7.420000E+03	8.710856E-16	3.791499E-17
7.430000E+03	8.436092E-16	3.672570E-17
7.440000E+03	8.187986E-16	3.568115E-17
7.450000E+03	7.978904E-16	3.482104E-17
7.460000E+03	7.818348E-16	3.417992E-17
7.470000E+03	7.712251E-16	3.378238E-17
7.480000E+03	7.663075E-16	3.363946E-17
7.490000E+03	7.670057E-16	3.374713E-17
7.500000E+03	7.729955E-16	3.408970E-17
7.510000E+03	7.837383E-16	3.464325E-17
7.520000E+03	7.985686E-16	3.538040E-17
7.530000E+03	8.167977E-16	3.627393E-17
7.540000E+03	8.376725E-16	3.729219E-17
7.550000E+03	8.605148E-16	3.840289E-17
7.560000E+03	8.847037E-16	3.957254E-17
7.570000E+03	9.096784E-16	4.076917E-17
7.580000E+03	9.349294E-16	4.196535E-17
7.590000E+03	9.599618E-16	4.313967E-17
7.600000E+03	9.843287E-16	4.427973E-17
7.610000E+03	1.007630E-15	4.538085E-17
7.620000E+03	1.029442E-15	4.643934E-17
7.630000E+03	1.049426E-15	4.745224E-17
7.640000E+03	1.067217E-15	4.840799E-17
7.650000E+03	1.082617E-15	4.929435E-17
7.660000E+03	1.095421E-15	5.009217E-17
7.670000E+03	1.105536E-15	5.078339E-17
7.680000E+03	1.112954E-15	5.135313E-17
7.690000E+03	1.117791E-15	5.179354E-17
7.700000E+03	1.120187E-15	5.210088E-17
7.710000E+03	1.120387E-15	5.227936E-17
7.720000E+03	1.118716E-15	5.233991E-17
7.730000E+03	1.115496E-15	5.229530E-17
7.740000E+03	1.111024E-15	5.215811E-17
7.750000E+03	1.105639E-15	5.194330E-17
7.760000E+03	1.099620E-15	5.166354E-17
