#wls	flux	fluxerr
1.600000E+03	2.956765E-16	1.641581E-16
1.640000E+03	2.841883E-16	1.508720E-16
1.680000E+03	2.716046E-16	1.371525E-16
1.720000E+03	2.580109E-16	1.232107E-16
1.760000E+03	2.436998E-16	1.093649E-16
1.800000E+03	2.288718E-16	9.588245E-17
1.840000E+03	2.138580E-16	8.307615E-17
1.880000E+03	1.990363E-16	7.124993E-17
1.920000E+03	1.848463E-16	6.069150E-17
1.960000E+03	1.717197E-16	5.163672E-17
2.000000E+03	1.600947E-16	4.426532E-17
2.040000E+03	1.504109E-16	3.867974E-17
2.080000E+03	1.430524E-16	3.485881E-17
2.120000E+03	1.383192E-16	3.262998E-17
2.160000E+03	1.364765E-16	3.171811E-17
2.200000E+03	1.377348E-16	3.183346E-17
2.240000E+03	1.424586E-16	3.278037E-17
2.280000E+03	1.510914E-16	3.442114E-17
2.320000E+03	1.642638E-16	3.663123E-17
2.360000E+03	1.826875E-16	3.919135E-17
2.400000E+03	2.072799E-16	4.173523E-17
2.440000E+03	2.390585E-16	4.365867E-17
2.480000E+03	2.791947E-16	4.410513E-17
2.520000E+03	3.288062E-16	4.206313E-17
2.560000E+03	3.884996E-16	3.710413E-17
2.600000E+03	4.575200E-16	3.269246E-17
2.640000E+03	5.332602E-16	4.097900E-17
2.680000E+03	6.140448E-16	6.665386E-17
2.720000E+03	6.997243E-16	1.031508E-16
2.760000E+03	7.896508E-16	1.462706E-16
2.800000E+03	8.819396E-16	1.933573E-16
2.840000E+03	9.738623E-16	2.418201E-16
2.880000E+03	1.062369E-15	2.888560E-16
2.920000E+03	1.144331E-15	3.315375E-16
2.960000E+03	1.217431E-15	3.672357E-16
3.000000E+03	1.280072E-15	3.938108E-16
3.010000E+03	1.294046E-15	3.988579E-16
3.020000E+03	1.307275E-15	4.032124E-16
3.030000E+03	1.319811E-15	4.068780E-16
3.040000E+03	1.331650E-15	4.098427E-16
3.050000E+03	1.342851E-15	4.121160E-16
3.060000E+03	1.353418E-15	4.136916E-16
3.070000E+03	1.363295E-15	4.145479E-16
3.080000E+03	1.372611E-15	4.147210E-16
3.090000E+03	1.381321E-15	4.141949E-16
3.100000E+03	1.389498E-15	4.129919E-16
3.110000E+03	1.397107E-15	4.111021E-16
3.120000E+03	1.404285E-15	4.085689E-16
3.130000E+03	1.411002E-15	4.053868E-16
3.140000E+03	1.417346E-15	4.015854E-16
3.150000E+03	1.423351E-15	3.971796E-16
3.160000E+03	1.429055E-15	3.921857E-16
3.170000E+03	1.434555E-15	3.866364E-16
3.180000E+03	1.439896E-15	3.805500E-16
3.190000E+03	1.445127E-15	3.739457E-16
3.200000E+03	1.450356E-15	3.668572E-16
3.210000E+03	1.455637E-15	3.593041E-16
3.220000E+03	1.461034E-15	3.513066E-16
3.230000E+03	1.466664E-15	3.428971E-16
3.240000E+03	1.472595E-15	3.340950E-16
3.250000E+03	1.478903E-15	3.249193E-16
3.260000E+03	1.485718E-15	3.153997E-16
3.270000E+03	1.493172E-15	3.055633E-16
3.280000E+03	1.501303E-15	2.954162E-16
3.290000E+03	1.510304E-15	2.849928E-16
3.300000E+03	1.520177E-15	2.742895E-16
3.310000E+03	1.531168E-15	2.633466E-16
3.320000E+03	1.543337E-15	2.521688E-16
3.330000E+03	1.556799E-15	2.407707E-16
3.340000E+03	1.571761E-15	2.291820E-16
3.350000E+03	1.588299E-15	2.174138E-16
3.360000E+03	1.606535E-15	2.054900E-16
3.370000E+03	1.626683E-15	1.934537E-16
3.380000E+03	1.648821E-15	1.813425E-16
3.390000E+03	1.673071E-15	1.692190E-16
3.400000E+03	1.699594E-15	1.571767E-16
3.410000E+03	1.728500E-15	1.453418E-16
3.420000E+03	1.759892E-15	1.338929E-16
3.430000E+03	1.793866E-15	1.230765E-16
3.440000E+03	1.830468E-15	1.132179E-16
3.450000E+03	1.869839E-15	1.047299E-16
3.460000E+03	1.912095E-15	9.807113E-17
3.470000E+03	1.957251E-15	9.365870E-17
3.480000E+03	2.005605E-15	9.175920E-17
3.490000E+03	2.057340E-15	9.235881E-17
3.500000E+03	2.112751E-15	9.516448E-17
3.510000E+03	2.172178E-15	9.970272E-17
3.520000E+03	2.235943E-15	1.054557E-16
3.530000E+03	2.304415E-15	1.119649E-16
3.540000E+03	2.377886E-15	1.188669E-16
3.550000E+03	2.456686E-15	1.258992E-16
3.560000E+03	2.540951E-15	1.328705E-16
3.570000E+03	2.630670E-15	1.396407E-16
3.580000E+03	2.725670E-15	1.460997E-16
3.590000E+03	2.825444E-15	1.521436E-16
3.600000E+03	2.929053E-15	1.576611E-16
3.610000E+03	3.035192E-15	1.625344E-16
3.620000E+03	3.141886E-15	1.666283E-16
3.630000E+03	3.246804E-15	1.698176E-16
3.640000E+03	3.346660E-15	1.719701E-16
3.650000E+03	3.437790E-15	1.729921E-16
3.660000E+03	3.515896E-15	1.728252E-16
3.670000E+03	3.576128E-15	1.714528E-16
3.680000E+03	3.613782E-15	1.689242E-16
3.690000E+03	3.624632E-15	1.653449E-16
3.700000E+03	3.605504E-15	1.608655E-16
3.710000E+03	3.554956E-15	1.556680E-16
3.720000E+03	3.473977E-15	1.499548E-16
3.730000E+03	3.366272E-15	1.439339E-16
3.740000E+03	3.237993E-15	1.378046E-16
3.750000E+03	3.097391E-15	1.317639E-16
3.760000E+03	2.953731E-15	1.259996E-16
3.770000E+03	2.816470E-15	1.207002E-16
3.780000E+03	2.694156E-15	1.160443E-16
3.790000E+03	2.594147E-15	1.122106E-16
3.800000E+03	2.522106E-15	1.093586E-16
3.810000E+03	2.482408E-15	1.076361E-16
3.820000E+03	2.478280E-15	1.071709E-16
3.830000E+03	2.512159E-15	1.080731E-16
3.840000E+03	2.585862E-15	1.104338E-16
3.850000E+03	2.700683E-15	1.143260E-16
3.860000E+03	2.857231E-15	1.197982E-16
3.870000E+03	3.055018E-15	1.268589E-16
3.880000E+03	3.291929E-15	1.354551E-16
3.890000E+03	3.563948E-15	1.454574E-16
3.900000E+03	3.864433E-15	1.566216E-16
3.910000E+03	4.184041E-15	1.685754E-16
3.920000E+03	4.510784E-15	1.808133E-16
3.930000E+03	4.830598E-15	1.927243E-16
3.940000E+03	5.128041E-15	2.036386E-16
3.950000E+03	5.387962E-15	2.129188E-16
3.960000E+03	5.596866E-15	2.200370E-16
3.970000E+03	5.744200E-15	2.246336E-16
3.980000E+03	5.823997E-15	2.265727E-16
3.990000E+03	5.834933E-15	2.259191E-16
4.000000E+03	5.780759E-15	2.229234E-16
4.010000E+03	5.668961E-15	2.179431E-16
4.020000E+03	5.510023E-15	2.114024E-16
4.030000E+03	5.315463E-15	2.037190E-16
4.040000E+03	5.097043E-15	1.952898E-16
4.050000E+03	4.865385E-15	1.864597E-16
4.060000E+03	4.629625E-15	1.775259E-16
4.070000E+03	4.397375E-15	1.687467E-16
4.080000E+03	4.174477E-15	1.603309E-16
4.090000E+03	3.965386E-15	1.524465E-16
4.100000E+03	3.773509E-15	1.452255E-16
4.110000E+03	3.601335E-15	1.387622E-16
4.120000E+03	3.450476E-15	1.331114E-16
4.130000E+03	3.322192E-15	1.283081E-16
4.140000E+03	3.217044E-15	1.243559E-16
4.150000E+03	3.135205E-15	1.212423E-16
4.160000E+03	3.076396E-15	1.189385E-16
4.170000E+03	3.039886E-15	1.174012E-16
4.180000E+03	3.024458E-15	1.165721E-16
4.190000E+03	3.028513E-15	1.163807E-16
4.200000E+03	3.049942E-15	1.167367E-16
4.210000E+03	3.086377E-15	1.175366E-16
4.220000E+03	3.135083E-15	1.186570E-16
4.230000E+03	3.193215E-15	1.199619E-16
4.240000E+03	3.257850E-15	1.213044E-16
4.250000E+03	3.325984E-15	1.225276E-16
4.260000E+03	3.394681E-15	1.234741E-16
4.270000E+03	3.460953E-15	1.239891E-16
4.280000E+03	3.521756E-15	1.239329E-16
4.290000E+03	3.573981E-15	1.232001E-16
4.300000E+03	3.614477E-15	1.217431E-16
4.310000E+03	3.640326E-15	1.196021E-16
4.320000E+03	3.648961E-15	1.169193E-16
4.330000E+03	3.638818E-15	1.139477E-16
4.340000E+03	3.609502E-15	1.110119E-16
4.350000E+03	3.562447E-15	1.084512E-16
4.360000E+03	3.500996E-15	1.065297E-16
4.370000E+03	3.430338E-15	1.053727E-16
4.380000E+03	3.357109E-15	1.049670E-16
4.390000E+03	3.288417E-15	1.052138E-16
4.400000E+03	3.231301E-15	1.060158E-16
4.410000E+03	3.191886E-15	1.073231E-16
4.420000E+03	3.175154E-15	1.091491E-16
4.430000E+03	3.184931E-15	1.115582E-16
4.440000E+03	3.223952E-15	1.146404E-16
4.450000E+03	3.294075E-15	1.184911E-16
4.460000E+03	3.396434E-15	1.231955E-16
4.470000E+03	3.531508E-15	1.288177E-16
4.480000E+03	3.699050E-15	1.353916E-16
4.490000E+03	3.897966E-15	1.429136E-16
4.500000E+03	4.125914E-15	1.513282E-16
4.510000E+03	4.378885E-15	1.605144E-16
4.520000E+03	4.650721E-15	1.702705E-16
4.530000E+03	4.932684E-15	1.803007E-16
4.540000E+03	5.213461E-15	1.902176E-16
4.550000E+03	5.479524E-15	1.995584E-16
4.560000E+03	5.716046E-15	2.078198E-16
4.570000E+03	5.908711E-15	2.145247E-16
4.580000E+03	6.045463E-15	2.192829E-16
4.590000E+03	6.118266E-15	2.218485E-16
4.600000E+03	6.124459E-15	2.221589E-16
4.610000E+03	6.066733E-15	2.203242E-16
4.620000E+03	5.952786E-15	2.166093E-16
4.630000E+03	5.793614E-15	2.113718E-16
4.640000E+03	5.601869E-15	2.050101E-16
4.650000E+03	5.390457E-15	1.979257E-16
4.660000E+03	5.170863E-15	1.904760E-16
4.670000E+03	4.952887E-15	1.829753E-16
4.680000E+03	4.743852E-15	1.756706E-16
4.690000E+03	4.548871E-15	1.687510E-16
4.700000E+03	4.371065E-15	1.623491E-16
4.710000E+03	4.211917E-15	1.565464E-16
4.720000E+03	4.071842E-15	1.513873E-16
4.730000E+03	3.950585E-15	1.468907E-16
4.740000E+03	3.847450E-15	1.430593E-16
4.750000E+03	3.761615E-15	1.398914E-16
4.760000E+03	3.692273E-15	1.373830E-16
4.770000E+03	3.638444E-15	1.355125E-16
4.780000E+03	3.599245E-15	1.342418E-16
4.790000E+03	3.573669E-15	1.335037E-16
4.800000E+03	3.560832E-15	1.332158E-16
4.810000E+03	3.560129E-15	1.332969E-16
4.820000E+03	3.571316E-15	1.336851E-16
4.830000E+03	3.594573E-15	1.343534E-16
4.840000E+03	3.630497E-15	1.353172E-16
4.850000E+03	3.679760E-15	1.366217E-16
4.860000E+03	3.742719E-15	1.383189E-16
4.870000E+03	3.818787E-15	1.404324E-16
4.880000E+03	3.905792E-15	1.429241E-16
4.890000E+03	3.999564E-15	1.456757E-16
4.900000E+03	4.093636E-15	1.484806E-16
4.910000E+03	4.179684E-15	1.510643E-16
4.920000E+03	4.248295E-15	1.531159E-16
4.930000E+03	4.290432E-15	1.543395E-16
4.940000E+03	4.299168E-15	1.545095E-16
4.950000E+03	4.271079E-15	1.535101E-16
4.960000E+03	4.207239E-15	1.513620E-16
4.970000E+03	4.113187E-15	1.482200E-16
4.980000E+03	3.997680E-15	1.443374E-16
4.990000E+03	3.871372E-15	1.400325E-16
5.000000E+03	3.745132E-15	1.356419E-16
5.010000E+03	3.628446E-15	1.314712E-16
5.020000E+03	3.528989E-15	1.277815E-16
5.030000E+03	3.451913E-15	1.247618E-16
5.040000E+03	3.400157E-15	1.225363E-16
5.050000E+03	3.374691E-15	1.211683E-16
5.060000E+03	3.374805E-15	1.206665E-16
5.070000E+03	3.398476E-15	1.209944E-16
5.080000E+03	3.442815E-15	1.220810E-16
5.090000E+03	3.504410E-15	1.238307E-16
5.100000E+03	3.579745E-15	1.261364E-16
5.110000E+03	3.665657E-15	1.288949E-16
5.120000E+03	3.759564E-15	1.320143E-16
5.130000E+03	3.859977E-15	1.354307E-16
5.140000E+03	3.966291E-15	1.391013E-16
5.150000E+03	4.078889E-15	1.430098E-16
5.160000E+03	4.198858E-15	1.471633E-16
5.170000E+03	4.327281E-15	1.515738E-16
5.180000E+03	4.465164E-15	1.562595E-16
5.190000E+03	4.612676E-15	1.612162E-16
5.200000E+03	4.769005E-15	1.664062E-16
5.210000E+03	4.931921E-15	1.717388E-16
5.220000E+03	5.098020E-15	1.770804E-16
5.230000E+03	5.262667E-15	1.822599E-16
5.240000E+03	5.420277E-15	1.870870E-16
5.250000E+03	5.564835E-15	1.913756E-16
5.260000E+03	5.690420E-15	1.949591E-16
5.270000E+03	5.791652E-15	1.976916E-16
5.280000E+03	5.864490E-15	1.994544E-16
5.290000E+03	5.906724E-15	2.001502E-16
5.300000E+03	5.918596E-15	1.997145E-16
5.310000E+03	5.902764E-15	1.981246E-16
5.320000E+03	5.864383E-15	1.954273E-16
5.330000E+03	5.810292E-15	1.917375E-16
5.340000E+03	5.748533E-15	1.872428E-16
5.350000E+03	5.687114E-15	1.821727E-16
5.360000E+03	5.633028E-15	1.767685E-16
5.370000E+03	5.591590E-15	1.712639E-16
5.380000E+03	5.565604E-15	1.658649E-16
5.390000E+03	5.555490E-15	1.607694E-16
5.400000E+03	5.559221E-15	1.561802E-16
5.410000E+03	5.572733E-15	1.523122E-16
5.420000E+03	5.590948E-15	1.493703E-16
5.430000E+03	5.608169E-15	1.474691E-16
5.440000E+03	5.619305E-15	1.465751E-16
5.450000E+03	5.620593E-15	1.465024E-16
5.460000E+03	5.610170E-15	1.470010E-16
5.470000E+03	5.588401E-15	1.478790E-16
5.480000E+03	5.557769E-15	1.490729E-16
5.490000E+03	5.522283E-15	1.506238E-16
5.500000E+03	5.486523E-15	1.525931E-16
5.510000E+03	5.454770E-15	1.549883E-16
5.520000E+03	5.430488E-15	1.577453E-16
5.530000E+03	5.415524E-15	1.607398E-16
5.540000E+03	5.409818E-15	1.638161E-16
5.550000E+03	5.411708E-15	1.668166E-16
5.560000E+03	5.417531E-15	1.695689E-16
5.570000E+03	5.422360E-15	1.718968E-16
5.580000E+03	5.420593E-15	1.736265E-16
5.590000E+03	5.406379E-15	1.745911E-16
5.600000E+03	5.374854E-15	1.746642E-16
5.610000E+03	5.322719E-15	1.737776E-16
5.620000E+03	5.248878E-15	1.719415E-16
5.630000E+03	5.154724E-15	1.692523E-16
5.640000E+03	5.043804E-15	1.658779E-16
5.650000E+03	4.921442E-15	1.620414E-16
5.660000E+03	4.793988E-15	1.579910E-16
5.670000E+03	4.667861E-15	1.539671E-16
5.680000E+03	4.549048E-15	1.501846E-16
5.690000E+03	4.442445E-15	1.468128E-16
5.700000E+03	4.351613E-15	1.439708E-16
5.710000E+03	4.278681E-15	1.417268E-16
5.720000E+03	4.224383E-15	1.401011E-16
5.730000E+03	4.188247E-15	1.390725E-16
5.740000E+03	4.168651E-15	1.385793E-16
5.750000E+03	4.163170E-15	1.385308E-16
5.760000E+03	4.168814E-15	1.388164E-16
5.770000E+03	4.182149E-15	1.393130E-16
5.780000E+03	4.199793E-15	1.399040E-16
5.790000E+03	4.218437E-15	1.404827E-16
5.800000E+03	4.235240E-15	1.409653E-16
5.810000E+03	4.248163E-15	1.413000E-16
5.820000E+03	4.255846E-15	1.414579E-16
5.830000E+03	4.257575E-15	1.414274E-16
5.840000E+03	4.253454E-15	1.412179E-16
5.850000E+03	4.243713E-15	1.408398E-16
5.860000E+03	4.228874E-15	1.403144E-16
5.870000E+03	4.209206E-15	1.396587E-16
5.880000E+03	4.185039E-15	1.388941E-16
5.890000E+03	4.156508E-15	1.380341E-16
5.900000E+03	4.123946E-15	1.370923E-16
5.910000E+03	4.087924E-15	1.360822E-16
5.920000E+03	4.049397E-15	1.350230E-16
5.930000E+03	4.009912E-15	1.339491E-16
5.940000E+03	3.971232E-15	1.329028E-16
5.950000E+03	3.935305E-15	1.319365E-16
5.960000E+03	3.903977E-15	1.311043E-16
5.970000E+03	3.878604E-15	1.304470E-16
5.980000E+03	3.860073E-15	1.299903E-16
5.990000E+03	3.848441E-15	1.297298E-16
6.000000E+03	3.843365E-15	1.296477E-16
6.010000E+03	3.844005E-15	1.297115E-16
6.020000E+03	3.849486E-15	1.298920E-16
6.030000E+03	3.858940E-15	1.301662E-16
6.040000E+03	3.871794E-15	1.305255E-16
6.050000E+03	3.887589E-15	1.309685E-16
6.060000E+03	3.905768E-15	1.314921E-16
6.070000E+03	3.925521E-15	1.320854E-16
6.080000E+03	3.945192E-15	1.327086E-16
6.090000E+03	3.962202E-15	1.332901E-16
6.100000E+03	3.973221E-15	1.337294E-16
6.110000E+03	3.974183E-15	1.338941E-16
6.120000E+03	3.961223E-15	1.336466E-16
6.130000E+03	3.931419E-15	1.328666E-16
6.140000E+03	3.883527E-15	1.314765E-16
6.150000E+03	3.818508E-15	1.294677E-16
6.160000E+03	3.739534E-15	1.269129E-16
6.170000E+03	3.651556E-15	1.239631E-16
6.180000E+03	3.560721E-15	1.208341E-16
6.190000E+03	3.473503E-15	1.177760E-16
6.200000E+03	3.395538E-15	1.150234E-16
6.210000E+03	3.331513E-15	1.127764E-16
6.220000E+03	3.284516E-15	1.111635E-16
6.230000E+03	3.256382E-15	1.102466E-16
6.240000E+03	3.247745E-15	1.100249E-16
6.250000E+03	3.258236E-15	1.104511E-16
6.260000E+03	3.287076E-15	1.114614E-16
6.270000E+03	3.332894E-15	1.129788E-16
6.280000E+03	3.393990E-15	1.149283E-16
6.290000E+03	3.468474E-15	1.172444E-16
6.300000E+03	3.553978E-15	1.198594E-16
6.310000E+03	3.647762E-15	1.227010E-16
6.320000E+03	3.746689E-15	1.256856E-16
6.330000E+03	3.847124E-15	1.287097E-16
6.340000E+03	3.945201E-15	1.316554E-16
6.350000E+03	4.037060E-15	1.343952E-16
6.360000E+03	4.119018E-15	1.367968E-16
6.370000E+03	4.188185E-15	1.387420E-16
6.380000E+03	4.242419E-15	1.401255E-16
6.390000E+03	4.280927E-15	1.408760E-16
6.400000E+03	4.304190E-15	1.409567E-16
6.410000E+03	4.313812E-15	1.403649E-16
6.420000E+03	4.312333E-15	1.391304E-16
6.430000E+03	4.302883E-15	1.373099E-16
6.440000E+03	4.288724E-15	1.349759E-16
6.450000E+03	4.272985E-15	1.322131E-16
6.460000E+03	4.258176E-15	1.291108E-16
6.470000E+03	4.246260E-15	1.257796E-16
6.480000E+03	4.238216E-15	1.223608E-16
6.490000E+03	4.234335E-15	1.190593E-16
6.500000E+03	4.234143E-15	1.161501E-16
6.510000E+03	4.236660E-15	1.139636E-16
6.520000E+03	4.240448E-15	1.128145E-16
6.530000E+03	4.243940E-15	1.129021E-16
6.540000E+03	4.245360E-15	1.142130E-16
6.550000E+03	4.243086E-15	1.165129E-16
6.560000E+03	4.235795E-15	1.194201E-16
6.570000E+03	4.222614E-15	1.225196E-16
6.580000E+03	4.203493E-15	1.254629E-16
6.590000E+03	4.178904E-15	1.280062E-16
6.600000E+03	4.150018E-15	1.300250E-16
6.610000E+03	4.118484E-15	1.314964E-16
6.620000E+03	4.086251E-15	1.324719E-16
6.630000E+03	4.055105E-15	1.330415E-16
6.640000E+03	4.026680E-15	1.333142E-16
6.650000E+03	4.001750E-15	1.333803E-16
6.660000E+03	3.980726E-15	1.333176E-16
6.670000E+03	3.963027E-15	1.331649E-16
6.680000E+03	3.947450E-15	1.329309E-16
6.690000E+03	3.932347E-15	1.326003E-16
6.700000E+03	3.915712E-15	1.321381E-16
6.710000E+03	3.895702E-15	1.315097E-16
6.720000E+03	3.870680E-15	1.306855E-16
6.730000E+03	3.839662E-15	1.296583E-16
6.740000E+03	3.802352E-15	1.284446E-16
6.750000E+03	3.759009E-15	1.270779E-16
6.760000E+03	3.710752E-15	1.256159E-16
6.770000E+03	3.659196E-15	1.241260E-16
6.780000E+03	3.606377E-15	1.226835E-16
6.790000E+03	3.554367E-15	1.213584E-16
6.800000E+03	3.505223E-15	1.202137E-16
6.810000E+03	3.460735E-15	1.192940E-16
6.820000E+03	3.422339E-15	1.186213E-16
6.830000E+03	3.390940E-15	1.181886E-16
6.840000E+03	3.366905E-15	1.179657E-16
6.850000E+03	3.350216E-15	1.179119E-16
6.860000E+03	3.340539E-15	1.179865E-16
6.870000E+03	3.337189E-15	1.181522E-16
6.880000E+03	3.339201E-15	1.183787E-16
6.890000E+03	3.345547E-15	1.186485E-16
6.900000E+03	3.355028E-15	1.189478E-16
6.910000E+03	3.366316E-15	1.192620E-16
6.920000E+03	3.378176E-15	1.195763E-16
6.930000E+03	3.389306E-15	1.198653E-16
6.940000E+03	3.398633E-15	1.200998E-16
6.950000E+03	3.405231E-15	1.202432E-16
6.960000E+03	3.408457E-15	1.202590E-16
6.970000E+03	3.407966E-15	1.201164E-16
6.980000E+03	3.403904E-15	1.198054E-16
6.990000E+03	3.396656E-15	1.193352E-16
7.000000E+03	3.386998E-15	1.187453E-16
7.010000E+03	3.375800E-15	1.180947E-16
7.020000E+03	3.363945E-15	1.174526E-16
7.030000E+03	3.352145E-15	1.168829E-16
7.040000E+03	3.341039E-15	1.164401E-16
7.050000E+03	3.330959E-15	1.161579E-16
7.060000E+03	3.322266E-15	1.160606E-16
7.070000E+03	3.315025E-15	1.161513E-16
7.080000E+03	3.309423E-15	1.164250E-16
7.090000E+03	3.305756E-15	1.168662E-16
7.100000E+03	3.304312E-15	1.174447E-16
7.110000E+03	3.305371E-15	1.181200E-16
7.120000E+03	3.309064E-15	1.188447E-16
7.130000E+03	3.315451E-15	1.195759E-16
7.140000E+03	3.324277E-15	1.202742E-16
7.150000E+03	3.334926E-15	1.209064E-16
7.160000E+03	3.346673E-15	1.214549E-16
7.170000E+03	3.358327E-15	1.219001E-16
7.180000E+03	3.368767E-15	1.222315E-16
7.190000E+03	3.376852E-15	1.224361E-16
7.200000E+03	3.381721E-15	1.225026E-16
7.210000E+03	3.382755E-15	1.224180E-16
7.220000E+03	3.379873E-15	1.221794E-16
7.230000E+03	3.373493E-15	1.218004E-16
7.240000E+03	3.364537E-15	1.213178E-16
7.250000E+03	3.354176E-15	1.207869E-16
7.260000E+03	3.343732E-15	1.202749E-16
7.270000E+03	3.334497E-15	1.198488E-16
7.280000E+03	3.327582E-15	1.195616E-16
7.290000E+03	3.323859E-15	1.194457E-16
7.300000E+03	3.323755E-15	1.195029E-16
7.310000E+03	3.327270E-15	1.197072E-16
7.320000E+03	3.333951E-15	1.200093E-16
7.330000E+03	3.343002E-15	1.203489E-16
7.340000E+03	3.352891E-15	1.206472E-16
7.350000E+03	3.361808E-15	1.208296E-16
7.360000E+03	3.367499E-15	1.208227E-16
7.370000E+03	3.367269E-15	1.205554E-16
7.380000E+03	3.358180E-15	1.199648E-16
7.390000E+03	3.337258E-15	1.189991E-16
7.400000E+03	3.301789E-15	1.176206E-16
7.410000E+03	3.249730E-15	1.158102E-16
7.420000E+03	3.179815E-15	1.135600E-16
7.430000E+03	3.092271E-15	1.108882E-16
7.440000E+03	2.988663E-15	1.078286E-16
7.450000E+03	2.872176E-15	1.044427E-16
7.460000E+03	2.746902E-15	1.008026E-16
7.470000E+03	2.617738E-15	9.700377E-17
7.480000E+03	2.489759E-15	9.315800E-17
7.490000E+03	2.367508E-15	8.937943E-17
7.500000E+03	2.255010E-15	8.578921E-17
7.510000E+03	2.155139E-15	8.249020E-17
7.520000E+03	2.070089E-15	7.957867E-17
7.530000E+03	2.001087E-15	7.712656E-17
7.540000E+03	1.948656E-15	7.518584E-17
7.550000E+03	1.912991E-15	7.380022E-17
7.560000E+03	1.893825E-15	7.299948E-17
7.570000E+03	1.890726E-15	7.281016E-17
7.580000E+03	1.903102E-15	7.325211E-17
7.590000E+03	1.930333E-15	7.433597E-17
7.600000E+03	1.971744E-15	7.605292E-17
7.610000E+03	2.026635E-15	7.836982E-17
7.620000E+03	2.094011E-15	8.122014E-17
7.630000E+03	2.172964E-15	8.452583E-17
7.640000E+03	2.262119E-15	8.818536E-17
7.650000E+03	2.359967E-15	9.209386E-17
7.660000E+03	2.464625E-15	9.613876E-17
7.670000E+03	2.574029E-15	1.002101E-16
7.680000E+03	2.686048E-15	1.042070E-16
7.690000E+03	2.798449E-15	1.080388E-16
7.700000E+03	2.909211E-15	1.116386E-16
7.710000E+03	3.016661E-15	1.149702E-16
7.720000E+03	3.119353E-15	1.180212E-16
7.730000E+03	3.216265E-15	1.208049E-16
7.740000E+03	3.306664E-15	1.233465E-16
7.750000E+03	3.390072E-15	1.256711E-16
7.760000E+03	3.465930E-15	1.277844E-16
