#wls	flux	fluxerr
1.600000E+03	2.357455E-16	1.628750E-18
1.640000E+03	2.443278E-16	1.683849E-18
1.680000E+03	2.536218E-16	1.743446E-18
1.720000E+03	2.637227E-16	1.808144E-18
1.760000E+03	2.746538E-16	1.878043E-18
1.800000E+03	2.865150E-16	1.953765E-18
1.840000E+03	2.993589E-16	2.035598E-18
1.880000E+03	3.132911E-16	2.124184E-18
1.920000E+03	3.283946E-16	2.220000E-18
1.960000E+03	3.447546E-16	2.323528E-18
2.000000E+03	3.624066E-16	2.434907E-18
2.040000E+03	3.814383E-16	2.554617E-18
2.080000E+03	4.019115E-16	2.682954E-18
2.120000E+03	4.238068E-16	2.819666E-18
2.160000E+03	4.470997E-16	2.964463E-18
2.200000E+03	4.716765E-16	3.116463E-18
2.240000E+03	4.973843E-16	3.274536E-18
2.280000E+03	5.241671E-16	3.438195E-18
2.320000E+03	5.520124E-16	3.607239E-18
2.360000E+03	5.811795E-16	3.783239E-18
2.400000E+03	6.118948E-16	3.967518E-18
2.440000E+03	6.443471E-16	4.161131E-18
2.480000E+03	6.787703E-16	4.365398E-18
2.520000E+03	7.152948E-16	4.580947E-18
2.560000E+03	7.539691E-16	4.807861E-18
2.600000E+03	7.949035E-16	5.046608E-18
2.640000E+03	8.380284E-16	5.296498E-18
2.680000E+03	8.833009E-16	5.557012E-18
2.720000E+03	9.305241E-16	5.826664E-18
2.760000E+03	9.795624E-16	6.104374E-18
2.800000E+03	1.030140E-15	6.388199E-18
2.840000E+03	1.082037E-15	6.676571E-18
2.880000E+03	1.135081E-15	6.968246E-18
2.920000E+03	1.189211E-15	7.262670E-18
2.960000E+03	1.244532E-15	7.560317E-18
3.000000E+03	1.301369E-15	7.862967E-18
3.010000E+03	1.315862E-15	7.939672E-18
3.020000E+03	1.330507E-15	8.017011E-18
3.030000E+03	1.345278E-15	8.094832E-18
3.040000E+03	1.360241E-15	8.173524E-18
3.050000E+03	1.375375E-15	8.252954E-18
3.060000E+03	1.390687E-15	8.333163E-18
3.070000E+03	1.406186E-15	8.414199E-18
3.080000E+03	1.421944E-15	8.496479E-18
3.090000E+03	1.437912E-15	8.579712E-18
3.100000E+03	1.454163E-15	8.664319E-18
3.110000E+03	1.470682E-15	8.750206E-18
3.120000E+03	1.487512E-15	8.837629E-18
3.130000E+03	1.504673E-15	8.926684E-18
3.140000E+03	1.522183E-15	9.017472E-18
3.150000E+03	1.540061E-15	9.110101E-18
3.160000E+03	1.558360E-15	9.204867E-18
3.170000E+03	1.577072E-15	9.301719E-18
3.180000E+03	1.596254E-15	9.400971E-18
3.190000E+03	1.615931E-15	9.502760E-18
3.200000E+03	1.636133E-15	9.607252E-18
3.210000E+03	1.656917E-15	9.714764E-18
3.220000E+03	1.678260E-15	9.825149E-18
3.230000E+03	1.700282E-15	9.939084E-18
3.240000E+03	1.722933E-15	1.005626E-17
3.250000E+03	1.746339E-15	1.017740E-17
3.260000E+03	1.770478E-15	1.030236E-17
3.270000E+03	1.795426E-15	1.043154E-17
3.280000E+03	1.821221E-15	1.056515E-17
3.290000E+03	1.847882E-15	1.070328E-17
3.300000E+03	1.875510E-15	1.084649E-17
3.310000E+03	1.904092E-15	1.099467E-17
3.320000E+03	1.933664E-15	1.114800E-17
3.330000E+03	1.964304E-15	1.130691E-17
3.340000E+03	1.995921E-15	1.147084E-17
3.350000E+03	2.028414E-15	1.163918E-17
3.360000E+03	2.061643E-15	1.181112E-17
3.370000E+03	2.095511E-15	1.198607E-17
3.380000E+03	2.129898E-15	1.216332E-17
3.390000E+03	2.164768E-15	1.234266E-17
3.400000E+03	2.200103E-15	1.252396E-17
3.410000E+03	2.235775E-15	1.270651E-17
3.420000E+03	2.271591E-15	1.288917E-17
3.430000E+03	2.307123E-15	1.306953E-17
3.440000E+03	2.341813E-15	1.324443E-17
3.450000E+03	2.374953E-15	1.340990E-17
3.460000E+03	2.405885E-15	1.356228E-17
3.470000E+03	2.434289E-15	1.369982E-17
3.480000E+03	2.460099E-15	1.382222E-17
3.490000E+03	2.483654E-15	1.393146E-17
3.500000E+03	2.505596E-15	1.403120E-17
3.510000E+03	2.526930E-15	1.412709E-17
3.520000E+03	2.548547E-15	1.422413E-17
3.530000E+03	2.571165E-15	1.432632E-17
3.540000E+03	2.595232E-15	1.443611E-17
3.550000E+03	2.620722E-15	1.455332E-17
3.560000E+03	2.647073E-15	1.467480E-17
3.570000E+03	2.673180E-15	1.479440E-17
3.580000E+03	2.697696E-15	1.490470E-17
3.590000E+03	2.718872E-15	1.499609E-17
3.600000E+03	2.734540E-15	1.505673E-17
3.610000E+03	2.745367E-15	1.509044E-17
3.620000E+03	2.752523E-15	1.510378E-17
3.630000E+03	2.756687E-15	1.510058E-17
3.640000E+03	2.758408E-15	1.508392E-17
3.650000E+03	2.758079E-15	1.505602E-17
3.660000E+03	2.756179E-15	1.501955E-17
3.670000E+03	2.753209E-15	1.497728E-17
3.680000E+03	2.749877E-15	1.493308E-17
3.690000E+03	2.747005E-15	1.489143E-17
3.700000E+03	2.745320E-15	1.485624E-17
3.710000E+03	2.745500E-15	1.483115E-17
3.720000E+03	2.748168E-15	1.481947E-17
3.730000E+03	2.753710E-15	1.482320E-17
3.740000E+03	2.762310E-15	1.484324E-17
3.750000E+03	2.774057E-15	1.488000E-17
3.760000E+03	2.788962E-15	1.493344E-17
3.770000E+03	2.807123E-15	1.500400E-17
3.780000E+03	2.828608E-15	1.509195E-17
3.790000E+03	2.853180E-15	1.519593E-17
3.800000E+03	2.880247E-15	1.531271E-17
3.810000E+03	2.908890E-15	1.543734E-17
3.820000E+03	2.937960E-15	1.556369E-17
3.830000E+03	2.966175E-15	1.568498E-17
3.840000E+03	2.992236E-15	1.579437E-17
3.850000E+03	3.015165E-15	1.588677E-17
3.860000E+03	3.034448E-15	1.595957E-17
3.870000E+03	3.050066E-15	1.601278E-17
3.880000E+03	3.062613E-15	1.604961E-17
3.890000E+03	3.073275E-15	1.607637E-17
3.900000E+03	3.083453E-15	1.610041E-17
3.910000E+03	3.094284E-15	1.612769E-17
3.920000E+03	3.106344E-15	1.616118E-17
3.930000E+03	3.119603E-15	1.620069E-17
3.940000E+03	3.133544E-15	1.624352E-17
3.950000E+03	3.147450E-15	1.628593E-17
3.960000E+03	3.160391E-15	1.632313E-17
3.970000E+03	3.171424E-15	1.635029E-17
3.980000E+03	3.179784E-15	1.636352E-17
3.990000E+03	3.185068E-15	1.636083E-17
4.000000E+03	3.186980E-15	1.634079E-17
4.010000E+03	3.185433E-15	1.630306E-17
4.020000E+03	3.180630E-15	1.624876E-17
4.030000E+03	3.172974E-15	1.618006E-17
4.040000E+03	3.163201E-15	1.610078E-17
4.050000E+03	3.152125E-15	1.601511E-17
4.060000E+03	3.140640E-15	1.592763E-17
4.070000E+03	3.129312E-15	1.584121E-17
4.080000E+03	3.118566E-15	1.575801E-17
4.090000E+03	3.108707E-15	1.567954E-17
4.100000E+03	3.099621E-15	1.560520E-17
4.110000E+03	3.091071E-15	1.553379E-17
4.120000E+03	3.082461E-15	1.546231E-17
4.130000E+03	3.072974E-15	1.538667E-17
4.140000E+03	3.061594E-15	1.530181E-17
4.150000E+03	3.047183E-15	1.520212E-17
4.160000E+03	3.028684E-15	1.508240E-17
4.170000E+03	3.005374E-15	1.493918E-17
4.180000E+03	2.977280E-15	1.477274E-17
4.190000E+03	2.945497E-15	1.458861E-17
4.200000E+03	2.911796E-15	1.439565E-17
4.210000E+03	2.878369E-15	1.420474E-17
4.220000E+03	2.847255E-15	1.402590E-17
4.230000E+03	2.820328E-15	1.386829E-17
4.240000E+03	2.798975E-15	1.373862E-17
4.250000E+03	2.783830E-15	1.363982E-17
4.260000E+03	2.775039E-15	1.357247E-17
4.270000E+03	2.772486E-15	1.353583E-17
4.280000E+03	2.776115E-15	1.352946E-17
4.290000E+03	2.785855E-15	1.355286E-17
4.300000E+03	2.801662E-15	1.360566E-17
4.310000E+03	2.823559E-15	1.368783E-17
4.320000E+03	2.851560E-15	1.379927E-17
4.330000E+03	2.885701E-15	1.394002E-17
4.340000E+03	2.925660E-15	1.410837E-17
4.350000E+03	2.970727E-15	1.430075E-17
4.360000E+03	3.018810E-15	1.450702E-17
4.370000E+03	3.065392E-15	1.470541E-17
4.380000E+03	3.101385E-15	1.485246E-17
4.390000E+03	3.109416E-15	1.486538E-17
4.400000E+03	3.089702E-15	1.474587E-17
4.410000E+03	3.060036E-15	1.457941E-17
4.420000E+03	3.030861E-15	1.441589E-17
4.430000E+03	3.006960E-15	1.427801E-17
4.440000E+03	2.990040E-15	1.417372E-17
4.450000E+03	2.980279E-15	1.410369E-17
4.460000E+03	2.976933E-15	1.406425E-17
4.470000E+03	2.978719E-15	1.404916E-17
4.480000E+03	2.984151E-15	1.405133E-17
4.490000E+03	2.991429E-15	1.406219E-17
4.500000E+03	2.998663E-15	1.407284E-17
4.510000E+03	3.004147E-15	1.407527E-17
4.520000E+03	3.006451E-15	1.406285E-17
4.530000E+03	3.004529E-15	1.403074E-17
4.540000E+03	2.998167E-15	1.397806E-17
4.550000E+03	2.987944E-15	1.390760E-17
4.560000E+03	2.975067E-15	1.382505E-17
4.570000E+03	2.960695E-15	1.373585E-17
4.580000E+03	2.945651E-15	1.364383E-17
4.590000E+03	2.930348E-15	1.355092E-17
4.600000E+03	2.914810E-15	1.345723E-17
4.610000E+03	2.898732E-15	1.336136E-17
4.620000E+03	2.881588E-15	1.326090E-17
4.630000E+03	2.863225E-15	1.315515E-17
4.640000E+03	2.844087E-15	1.304620E-17
4.650000E+03	2.824952E-15	1.293761E-17
4.660000E+03	2.806498E-15	1.283247E-17
4.670000E+03	2.789283E-15	1.273332E-17
4.680000E+03	2.773547E-15	1.264122E-17
4.690000E+03	2.759216E-15	1.255580E-17
4.700000E+03	2.745847E-15	1.247502E-17
4.710000E+03	2.732789E-15	1.239589E-17
4.720000E+03	2.719485E-15	1.231588E-17
4.730000E+03	2.705461E-15	1.223286E-17
4.740000E+03	2.690510E-15	1.214590E-17
4.750000E+03	2.674624E-15	1.205500E-17
4.760000E+03	2.657887E-15	1.196053E-17
4.770000E+03	2.640640E-15	1.186405E-17
4.780000E+03	2.623212E-15	1.176704E-17
4.790000E+03	2.605957E-15	1.167110E-17
4.800000E+03	2.589292E-15	1.157808E-17
4.810000E+03	2.573425E-15	1.148889E-17
4.820000E+03	2.558579E-15	1.140451E-17
4.830000E+03	2.544763E-15	1.132496E-17
4.840000E+03	2.532123E-15	1.125086E-17
4.850000E+03	2.520739E-15	1.118254E-17
4.860000E+03	2.510844E-15	1.112100E-17
4.870000E+03	2.502677E-15	1.106728E-17
4.880000E+03	2.496682E-15	1.102329E-17
4.890000E+03	2.493333E-15	1.099107E-17
4.900000E+03	2.492974E-15	1.097208E-17
4.910000E+03	2.495776E-15	1.096702E-17
4.920000E+03	2.501731E-15	1.097577E-17
4.930000E+03	2.510589E-15	1.099718E-17
4.940000E+03	2.521643E-15	1.102810E-17
4.950000E+03	2.534033E-15	1.106472E-17
4.960000E+03	2.546728E-15	1.110252E-17
4.970000E+03	2.558764E-15	1.113730E-17
4.980000E+03	2.569236E-15	1.116515E-17
4.990000E+03	2.577606E-15	1.118375E-17
5.000000E+03	2.583838E-15	1.119299E-17
5.010000E+03	2.588325E-15	1.119463E-17
5.020000E+03	2.591552E-15	1.119078E-17
5.030000E+03	2.594080E-15	1.118390E-17
5.040000E+03	2.596309E-15	1.117572E-17
5.050000E+03	2.598235E-15	1.116623E-17
5.060000E+03	2.599077E-15	1.115209E-17
5.070000E+03	2.597702E-15	1.112846E-17
5.080000E+03	2.593257E-15	1.109174E-17
5.090000E+03	2.585368E-15	1.104040E-17
5.100000E+03	2.574101E-15	1.097478E-17
5.110000E+03	2.559947E-15	1.089706E-17
5.120000E+03	2.543886E-15	1.081144E-17
5.130000E+03	2.526979E-15	1.072248E-17
5.140000E+03	2.510168E-15	1.063417E-17
5.150000E+03	2.494040E-15	1.054902E-17
5.160000E+03	2.478951E-15	1.046848E-17
5.170000E+03	2.465109E-15	1.039344E-17
5.180000E+03	2.452657E-15	1.032447E-17
5.190000E+03	2.441529E-15	1.026125E-17
5.200000E+03	2.431610E-15	1.020328E-17
5.210000E+03	2.422595E-15	1.014926E-17
5.220000E+03	2.414161E-15	1.009782E-17
5.230000E+03	2.405855E-15	1.004706E-17
5.240000E+03	2.397355E-15	9.995629E-18
5.250000E+03	2.388280E-15	9.941957E-18
5.260000E+03	2.378274E-15	9.884564E-18
5.270000E+03	2.366890E-15	9.821623E-18
5.280000E+03	2.353581E-15	9.750892E-18
5.290000E+03	2.337878E-15	9.670468E-18
5.300000E+03	2.319476E-15	9.579144E-18
5.310000E+03	2.298220E-15	9.476334E-18
5.320000E+03	2.274385E-15	9.363220E-18
5.330000E+03	2.248879E-15	9.243589E-18
5.340000E+03	2.222918E-15	9.122467E-18
5.350000E+03	2.197661E-15	9.004605E-18
5.360000E+03	2.174047E-15	8.893838E-18
5.370000E+03	2.152757E-15	8.792911E-18
5.380000E+03	2.133979E-15	8.702547E-18
5.390000E+03	2.117500E-15	8.621831E-18
5.400000E+03	2.102967E-15	8.549284E-18
5.410000E+03	2.090432E-15	8.485079E-18
5.420000E+03	2.080534E-15	8.431773E-18
5.430000E+03	2.074480E-15	8.394197E-18
5.440000E+03	2.073914E-15	8.378925E-18
5.450000E+03	2.080348E-15	8.391953E-18
5.460000E+03	2.094276E-15	8.435141E-18
5.470000E+03	2.113173E-15	8.498191E-18
5.480000E+03	2.128315E-15	8.545983E-18
5.490000E+03	2.121655E-15	8.506234E-18
5.500000E+03	2.079173E-15	8.323217E-18
5.510000E+03	2.023134E-15	8.086578E-18
5.520000E+03	1.969936E-15	7.862003E-18
5.530000E+03	1.927450E-15	7.680810E-18
5.540000E+03	1.898475E-15	7.553927E-18
5.550000E+03	1.883342E-15	7.482428E-18
5.560000E+03	1.881158E-15	7.462516E-18
5.570000E+03	1.890032E-15	7.486474E-18
5.580000E+03	1.907651E-15	7.544953E-18
5.590000E+03	1.931547E-15	7.628055E-18
5.600000E+03	1.959026E-15	7.725036E-18
5.610000E+03	1.987379E-15	7.825178E-18
5.620000E+03	2.014385E-15	7.919731E-18
5.630000E+03	2.038689E-15	8.003400E-18
5.640000E+03	2.059562E-15	8.073376E-18
5.650000E+03	2.076714E-15	8.128582E-18
5.660000E+03	2.090380E-15	8.170004E-18
5.670000E+03	2.100928E-15	8.199143E-18
5.680000E+03	2.108594E-15	8.216965E-18
5.690000E+03	2.113451E-15	8.223808E-18
5.700000E+03	2.115314E-15	8.219000E-18
5.710000E+03	2.113864E-15	8.201358E-18
5.720000E+03	2.108874E-15	8.170059E-18
5.730000E+03	2.100203E-15	8.124611E-18
5.740000E+03	2.087987E-15	8.065606E-18
5.750000E+03	2.072784E-15	7.995254E-18
5.760000E+03	2.055498E-15	7.917089E-18
5.770000E+03	2.037073E-15	7.834773E-18
5.780000E+03	2.018505E-15	7.752152E-18
5.790000E+03	2.000674E-15	7.672599E-18
5.800000E+03	1.983968E-15	7.597592E-18
5.810000E+03	1.968385E-15	7.527101E-18
5.820000E+03	1.953549E-15	7.459672E-18
5.830000E+03	1.939004E-15	7.393555E-18
5.840000E+03	1.924392E-15	7.327375E-18
5.850000E+03	1.909627E-15	7.260817E-18
5.860000E+03	1.894904E-15	7.194613E-18
5.870000E+03	1.880866E-15	7.131210E-18
5.880000E+03	1.868283E-15	7.073503E-18
5.890000E+03	1.857637E-15	7.023300E-18
5.900000E+03	1.848961E-15	6.980687E-18
5.910000E+03	1.841834E-15	6.944047E-18
5.920000E+03	1.835406E-15	6.910160E-18
5.930000E+03	1.828602E-15	6.874973E-18
5.940000E+03	1.820315E-15	6.834331E-18
5.950000E+03	1.809914E-15	6.785896E-18
5.960000E+03	1.797450E-15	6.729894E-18
5.970000E+03	1.783549E-15	6.668695E-18
5.980000E+03	1.768949E-15	6.605079E-18
5.990000E+03	1.754519E-15	6.542296E-18
6.000000E+03	1.741003E-15	6.483111E-18
6.010000E+03	1.728959E-15	6.429591E-18
6.020000E+03	1.718848E-15	6.383422E-18
6.030000E+03	1.710822E-15	6.345142E-18
6.040000E+03	1.704832E-15	6.314536E-18
6.050000E+03	1.700480E-15	6.290106E-18
6.060000E+03	1.697200E-15	6.269739E-18
6.070000E+03	1.694125E-15	6.250219E-18
6.080000E+03	1.690330E-15	6.228136E-18
6.090000E+03	1.684785E-15	6.199714E-18
6.100000E+03	1.676683E-15	6.162011E-18
6.110000E+03	1.665605E-15	6.113531E-18
6.120000E+03	1.651509E-15	6.054154E-18
6.130000E+03	1.634640E-15	5.984825E-18
6.140000E+03	1.615657E-15	5.907989E-18
6.150000E+03	1.595511E-15	5.827151E-18
6.160000E+03	1.575280E-15	5.746255E-18
6.170000E+03	1.556068E-15	5.669323E-18
6.180000E+03	1.538899E-15	5.600067E-18
6.190000E+03	1.524379E-15	5.540664E-18
6.200000E+03	1.512606E-15	5.491438E-18
6.210000E+03	1.503251E-15	5.451158E-18
6.220000E+03	1.495735E-15	5.417692E-18
6.230000E+03	1.489416E-15	5.388703E-18
6.240000E+03	1.483765E-15	5.362266E-18
6.250000E+03	1.478539E-15	5.337488E-18
6.260000E+03	1.474018E-15	5.315385E-18
6.270000E+03	1.470930E-15	5.298563E-18
6.280000E+03	1.470030E-15	5.289729E-18
6.290000E+03	1.471959E-15	5.291165E-18
6.300000E+03	1.477241E-15	5.304722E-18
6.310000E+03	1.485884E-15	5.330392E-18
6.320000E+03	1.497472E-15	5.366655E-18
6.330000E+03	1.511146E-15	5.410409E-18
6.340000E+03	1.526111E-15	5.458793E-18
6.350000E+03	1.541807E-15	5.509798E-18
6.360000E+03	1.557745E-15	5.561673E-18
6.370000E+03	1.573440E-15	5.612698E-18
6.380000E+03	1.588477E-15	5.661395E-18
6.390000E+03	1.602223E-15	5.705526E-18
6.400000E+03	1.613712E-15	5.741670E-18
6.410000E+03	1.621677E-15	5.765335E-18
6.420000E+03	1.624898E-15	5.772219E-18
6.430000E+03	1.622717E-15	5.760023E-18
6.440000E+03	1.615651E-15	5.730620E-18
6.450000E+03	1.604929E-15	5.688403E-18
6.460000E+03	1.591969E-15	5.638418E-18
6.470000E+03	1.578145E-15	5.585539E-18
6.480000E+03	1.564634E-15	5.533924E-18
6.490000E+03	1.552320E-15	5.486700E-18
6.500000E+03	1.541737E-15	5.445729E-18
6.510000E+03	1.532635E-15	5.410116E-18
6.520000E+03	1.522725E-15	5.371774E-18
6.530000E+03	1.505729E-15	5.308565E-18
6.540000E+03	1.480399E-15	5.216137E-18
6.550000E+03	1.454580E-15	5.122160E-18
6.560000E+03	1.431762E-15	5.038910E-18
6.570000E+03	1.412907E-15	4.969751E-18
6.580000E+03	1.397909E-15	4.914283E-18
6.590000E+03	1.386350E-15	4.871007E-18
6.600000E+03	1.377657E-15	4.837887E-18
6.610000E+03	1.371106E-15	4.812364E-18
6.620000E+03	1.366033E-15	4.792093E-18
6.630000E+03	1.361810E-15	4.774866E-18
6.640000E+03	1.357761E-15	4.758298E-18
6.650000E+03	1.353388E-15	4.740648E-18
6.660000E+03	1.348322E-15	4.720617E-18
6.670000E+03	1.342299E-15	4.697289E-18
6.680000E+03	1.335312E-15	4.670635E-18
6.690000E+03	1.327508E-15	4.641176E-18
6.700000E+03	1.318986E-15	4.609260E-18
6.710000E+03	1.309886E-15	4.575372E-18
6.720000E+03	1.300354E-15	4.540026E-18
6.730000E+03	1.290386E-15	4.503208E-18
6.740000E+03	1.279997E-15	4.464968E-18
6.750000E+03	1.269212E-15	4.425396E-18
6.760000E+03	1.258070E-15	4.384622E-18
6.770000E+03	1.246742E-15	4.343247E-18
6.780000E+03	1.235463E-15	4.302088E-18
6.790000E+03	1.224459E-15	4.261927E-18
6.800000E+03	1.213908E-15	4.223380E-18
6.810000E+03	1.203995E-15	4.187091E-18
6.820000E+03	1.194845E-15	4.153484E-18
6.830000E+03	1.186525E-15	4.122794E-18
6.840000E+03	1.179113E-15	4.095282E-18
6.850000E+03	1.172615E-15	4.070965E-18
6.860000E+03	1.167019E-15	4.049799E-18
6.870000E+03	1.162286E-15	4.031640E-18
6.880000E+03	1.158337E-15	4.016210E-18
6.890000E+03	1.155142E-15	4.003402E-18
6.900000E+03	1.152607E-15	3.992882E-18
6.910000E+03	1.150669E-15	3.984433E-18
6.920000E+03	1.149364E-15	3.978177E-18
6.930000E+03	1.148708E-15	3.974162E-18
6.940000E+03	1.148720E-15	3.972452E-18
6.950000E+03	1.149394E-15	3.973024E-18
6.960000E+03	1.150635E-15	3.975543E-18
6.970000E+03	1.152328E-15	3.979611E-18
6.980000E+03	1.154318E-15	3.984689E-18
6.990000E+03	1.156417E-15	3.990125E-18
7.000000E+03	1.158411E-15	3.995187E-18
7.010000E+03	1.160169E-15	3.999417E-18
7.020000E+03	1.161482E-15	4.002099E-18
7.030000E+03	1.162212E-15	4.002757E-18
7.040000E+03	1.162279E-15	4.001121E-18
7.050000E+03	1.161581E-15	3.996844E-18
7.060000E+03	1.160049E-15	3.989688E-18
7.070000E+03	1.157619E-15	3.979440E-18
7.080000E+03	1.154234E-15	3.965910E-18
7.090000E+03	1.149862E-15	3.948992E-18
7.100000E+03	1.144421E-15	3.928409E-18
7.110000E+03	1.137893E-15	3.904107E-18
7.120000E+03	1.130320E-15	3.876235E-18
7.130000E+03	1.121766E-15	3.845019E-18
7.140000E+03	1.112301E-15	3.810704E-18
7.150000E+03	1.102050E-15	3.773724E-18
7.160000E+03	1.091064E-15	3.734256E-18
7.170000E+03	1.079477E-15	3.692764E-18
7.180000E+03	1.067349E-15	3.649458E-18
7.190000E+03	1.054758E-15	3.604611E-18
7.200000E+03	1.041765E-15	3.558432E-18
7.210000E+03	1.028511E-15	3.511402E-18
7.220000E+03	1.015063E-15	3.463758E-18
7.230000E+03	1.001571E-15	3.416010E-18
7.240000E+03	9.881440E-16	3.368532E-18
7.250000E+03	9.749229E-16	3.321804E-18
7.260000E+03	9.620041E-16	3.276156E-18
7.270000E+03	9.494994E-16	3.231967E-18
7.280000E+03	9.375253E-16	3.189631E-18
7.290000E+03	9.261478E-16	3.149373E-18
7.300000E+03	9.154590E-16	3.111503E-18
7.310000E+03	9.054685E-16	3.076051E-18
7.320000E+03	8.962317E-16	3.043203E-18
7.330000E+03	8.877958E-16	3.013116E-18
7.340000E+03	8.801391E-16	2.985715E-18
7.350000E+03	8.732972E-16	2.961117E-18
7.360000E+03	8.672735E-16	2.939330E-18
7.370000E+03	8.621096E-16	2.920494E-18
7.380000E+03	8.578085E-16	2.904616E-18
7.390000E+03	8.543752E-16	2.891710E-18
7.400000E+03	8.517818E-16	2.881679E-18
7.410000E+03	8.499667E-16	2.874313E-18
7.420000E+03	8.488926E-16	2.869484E-18
7.430000E+03	8.485299E-16	2.867091E-18
7.440000E+03	8.488522E-16	2.867043E-18
7.450000E+03	8.498409E-16	2.869277E-18
7.460000E+03	8.514182E-16	2.873530E-18
7.470000E+03	8.535530E-16	2.879696E-18
7.480000E+03	8.561942E-16	2.887605E-18
7.490000E+03	8.593249E-16	2.897199E-18
7.500000E+03	8.629503E-16	2.908498E-18
7.510000E+03	8.670823E-16	2.921541E-18
7.520000E+03	8.717691E-16	2.936495E-18
7.530000E+03	8.769599E-16	2.953188E-18
7.540000E+03	8.826143E-16	2.971488E-18
7.550000E+03	8.886082E-16	2.990978E-18
7.560000E+03	8.948038E-16	3.011198E-18
7.570000E+03	9.010225E-16	3.031550E-18
7.580000E+03	9.072052E-16	3.051840E-18
7.590000E+03	9.133109E-16	3.071934E-18
7.600000E+03	9.193224E-16	3.091779E-18
7.610000E+03	9.251410E-16	3.111046E-18
7.620000E+03	9.307344E-16	3.129633E-18
7.630000E+03	9.359818E-16	3.147136E-18
7.640000E+03	9.407370E-16	3.163071E-18
7.650000E+03	9.449111E-16	3.177141E-18
7.660000E+03	9.483633E-16	3.188878E-18
7.670000E+03	9.510041E-16	3.197985E-18
7.680000E+03	9.527674E-16	3.204244E-18
7.690000E+03	9.535973E-16	3.207468E-18
7.700000E+03	9.534437E-16	3.207492E-18
7.710000E+03	9.522946E-16	3.204277E-18
7.720000E+03	9.501058E-16	3.197676E-18
7.730000E+03	9.469820E-16	3.188040E-18
7.740000E+03	9.430221E-16	3.175702E-18
7.750000E+03	9.384353E-16	3.161367E-18
7.760000E+03	9.335343E-16	3.146088E-18
