#wls	flux	fluxerr
1.600000E+03	1.009093E-16	2.371586E-17
1.640000E+03	1.011825E-16	2.367112E-17
1.680000E+03	1.015497E-16	2.364465E-17
1.720000E+03	1.019759E-16	2.362794E-17
1.760000E+03	1.024818E-16	2.362546E-17
1.800000E+03	1.030884E-16	2.364165E-17
1.840000E+03	1.037793E-16	2.367227E-17
1.880000E+03	1.046138E-16	2.373031E-17
1.920000E+03	1.055566E-16	2.380714E-17
1.960000E+03	1.066486E-16	2.391133E-17
2.000000E+03	1.078928E-16	2.404277E-17
2.040000E+03	1.093309E-16	2.420988E-17
2.080000E+03	1.109466E-16	2.440804E-17
2.120000E+03	1.127623E-16	2.464112E-17
2.160000E+03	1.148205E-16	2.491717E-17
2.200000E+03	1.170836E-16	2.522669E-17
2.240000E+03	1.196131E-16	2.558157E-17
2.280000E+03	1.223689E-16	2.597164E-17
2.320000E+03	1.253489E-16	2.639496E-17
2.360000E+03	1.285694E-16	2.685338E-17
2.400000E+03	1.319812E-16	2.733499E-17
2.440000E+03	1.356144E-16	2.784449E-17
2.480000E+03	1.393886E-16	2.836381E-17
2.520000E+03	1.433234E-16	2.889554E-17
2.560000E+03	1.473453E-16	2.942355E-17
2.600000E+03	1.514370E-16	2.994329E-17
2.640000E+03	1.555716E-16	3.044851E-17
2.680000E+03	1.596453E-16	3.091821E-17
2.720000E+03	1.636070E-16	3.134239E-17
2.760000E+03	1.673481E-16	3.170059E-17
2.800000E+03	1.707898E-16	3.197890E-17
2.840000E+03	1.737947E-16	3.215334E-17
2.880000E+03	1.762131E-16	3.219907E-17
2.920000E+03	1.778866E-16	3.209114E-17
2.960000E+03	1.786977E-16	3.181359E-17
3.000000E+03	1.785753E-16	3.135996E-17
3.010000E+03	1.783796E-16	3.121645E-17
3.020000E+03	1.781066E-16	3.105920E-17
3.030000E+03	1.777755E-16	3.089168E-17
3.040000E+03	1.773851E-16	3.071379E-17
3.050000E+03	1.769346E-16	3.052550E-17
3.060000E+03	1.764036E-16	3.032343E-17
3.070000E+03	1.758122E-16	3.011117E-17
3.080000E+03	1.751412E-16	2.988558E-17
3.090000E+03	1.744304E-16	2.965357E-17
3.100000E+03	1.736428E-16	2.940896E-17
3.110000E+03	1.728184E-16	2.915864E-17
3.120000E+03	1.719230E-16	2.889696E-17
3.130000E+03	1.709975E-16	2.863091E-17
3.140000E+03	1.700103E-16	2.835528E-17
3.150000E+03	1.690033E-16	2.807718E-17
3.160000E+03	1.679835E-16	2.779779E-17
3.170000E+03	1.669241E-16	2.751273E-17
3.180000E+03	1.658697E-16	2.722942E-17
3.190000E+03	1.648306E-16	2.694957E-17
3.200000E+03	1.638019E-16	2.667232E-17
3.210000E+03	1.628134E-16	2.640250E-17
3.220000E+03	1.618785E-16	2.614221E-17
3.230000E+03	1.610113E-16	2.589364E-17
3.240000E+03	1.602262E-16	2.565893E-17
3.250000E+03	1.595529E-16	2.544268E-17
3.260000E+03	1.589738E-16	2.524186E-17
3.270000E+03	1.585322E-16	2.506316E-17
3.280000E+03	1.582392E-16	2.490802E-17
3.290000E+03	1.581036E-16	2.477752E-17
3.300000E+03	1.581324E-16	2.467247E-17
3.310000E+03	1.583162E-16	2.459101E-17
3.320000E+03	1.586865E-16	2.453772E-17
3.330000E+03	1.592427E-16	2.451212E-17
3.340000E+03	1.599676E-16	2.451118E-17
3.350000E+03	1.608702E-16	2.453590E-17
3.360000E+03	1.619571E-16	2.458691E-17
3.370000E+03	1.631893E-16	2.465793E-17
3.380000E+03	1.645835E-16	2.475114E-17
3.390000E+03	1.661254E-16	2.486406E-17
3.400000E+03	1.677998E-16	2.499409E-17
3.410000E+03	1.695897E-16	2.513842E-17
3.420000E+03	1.714915E-16	2.529627E-17
3.430000E+03	1.734727E-16	2.546259E-17
3.440000E+03	1.755423E-16	2.563853E-17
3.450000E+03	1.776669E-16	2.581904E-17
3.460000E+03	1.798271E-16	2.600118E-17
3.470000E+03	1.820178E-16	2.618412E-17
3.480000E+03	1.842198E-16	2.636505E-17
3.490000E+03	1.864283E-16	2.654323E-17
3.500000E+03	1.886102E-16	2.671395E-17
3.510000E+03	1.907603E-16	2.687657E-17
3.520000E+03	1.928592E-16	2.702838E-17
3.530000E+03	1.949001E-16	2.716857E-17
3.540000E+03	1.968473E-16	2.729231E-17
3.550000E+03	1.986903E-16	2.739835E-17
3.560000E+03	2.003894E-16	2.748149E-17
3.570000E+03	2.019424E-16	2.754175E-17
3.580000E+03	2.033042E-16	2.757333E-17
3.590000E+03	2.044534E-16	2.757379E-17
3.600000E+03	2.053452E-16	2.753762E-17
3.610000E+03	2.059769E-16	2.746503E-17
3.620000E+03	2.063831E-16	2.736121E-17
3.630000E+03	2.065498E-16	2.722487E-17
3.640000E+03	2.065046E-16	2.706015E-17
3.650000E+03	2.062554E-16	2.686861E-17
3.660000E+03	2.058514E-16	2.665706E-17
3.670000E+03	2.053128E-16	2.642850E-17
3.680000E+03	2.046789E-16	2.618827E-17
3.690000E+03	2.039856E-16	2.594117E-17
3.700000E+03	2.033073E-16	2.569674E-17
3.710000E+03	2.026805E-16	2.545956E-17
3.720000E+03	2.021876E-16	2.523980E-17
3.730000E+03	2.018716E-16	2.504249E-17
3.740000E+03	2.018052E-16	2.487619E-17
3.750000E+03	2.020484E-16	2.474768E-17
3.760000E+03	2.026476E-16	2.466187E-17
3.770000E+03	2.036611E-16	2.462499E-17
3.780000E+03	2.051209E-16	2.463991E-17
3.790000E+03	2.070670E-16	2.471037E-17
3.800000E+03	2.095110E-16	2.483659E-17
3.810000E+03	2.124615E-16	2.501841E-17
3.820000E+03	2.159228E-16	2.525513E-17
3.830000E+03	2.198602E-16	2.554152E-17
3.840000E+03	2.242429E-16	2.587290E-17
3.850000E+03	2.290363E-16	2.624427E-17
3.860000E+03	2.341761E-16	2.664732E-17
3.870000E+03	2.396051E-16	2.707478E-17
3.880000E+03	2.452325E-16	2.751579E-17
3.890000E+03	2.509879E-16	2.796204E-17
3.900000E+03	2.567910E-16	2.840436E-17
3.910000E+03	2.625454E-16	2.883208E-17
3.920000E+03	2.681961E-16	2.923933E-17
3.930000E+03	2.736703E-16	2.961850E-17
3.940000E+03	2.789069E-16	2.996349E-17
3.950000E+03	2.838674E-16	3.027077E-17
3.960000E+03	2.885281E-16	3.053853E-17
3.970000E+03	2.928794E-16	3.076652E-17
3.980000E+03	2.969176E-16	3.095512E-17
3.990000E+03	3.006681E-16	3.110775E-17
4.000000E+03	3.041414E-16	3.122620E-17
4.010000E+03	3.073817E-16	3.131568E-17
4.020000E+03	3.104225E-16	3.138017E-17
4.030000E+03	3.133099E-16	3.142484E-17
4.040000E+03	3.160931E-16	3.145497E-17
4.050000E+03	3.188134E-16	3.147494E-17
4.060000E+03	3.215214E-16	3.148991E-17
4.070000E+03	3.242665E-16	3.150477E-17
4.080000E+03	3.270889E-16	3.152335E-17
4.090000E+03	3.300433E-16	3.155078E-17
4.100000E+03	3.331661E-16	3.159025E-17
4.110000E+03	3.364917E-16	3.164467E-17
4.120000E+03	3.400681E-16	3.171813E-17
4.130000E+03	3.439248E-16	3.181286E-17
4.140000E+03	3.480970E-16	3.193151E-17
4.150000E+03	3.526092E-16	3.207568E-17
4.160000E+03	3.574990E-16	3.224808E-17
4.170000E+03	3.627851E-16	3.244962E-17
4.180000E+03	3.684910E-16	3.268158E-17
4.190000E+03	3.746365E-16	3.294491E-17
4.200000E+03	3.812374E-16	3.324010E-17
4.210000E+03	3.882983E-16	3.356668E-17
4.220000E+03	3.958355E-16	3.392517E-17
4.230000E+03	4.038461E-16	3.431443E-17
4.240000E+03	4.123320E-16	3.473376E-17
4.250000E+03	4.212925E-16	3.518226E-17
4.260000E+03	4.307328E-16	3.565952E-17
4.270000E+03	4.406307E-16	3.616292E-17
4.280000E+03	4.509852E-16	3.669162E-17
4.290000E+03	4.617817E-16	3.724374E-17
4.300000E+03	4.729979E-16	3.781681E-17
4.310000E+03	4.845913E-16	3.840690E-17
4.320000E+03	4.965313E-16	3.901110E-17
4.330000E+03	5.087348E-16	3.962257E-17
4.340000E+03	5.211273E-16	4.023535E-17
4.350000E+03	5.336098E-16	4.084182E-17
4.360000E+03	5.460655E-16	4.143334E-17
4.370000E+03	5.583995E-16	4.200317E-17
4.380000E+03	5.705271E-16	4.254565E-17
4.390000E+03	5.823875E-16	4.305706E-17
4.400000E+03	5.939527E-16	4.353626E-17
4.410000E+03	6.052186E-16	4.398392E-17
4.420000E+03	6.162080E-16	4.440263E-17
4.430000E+03	6.269849E-16	4.479790E-17
4.440000E+03	6.375974E-16	4.517391E-17
4.450000E+03	6.480885E-16	4.553439E-17
4.460000E+03	6.584612E-16	4.588017E-17
4.470000E+03	6.686994E-16	4.621075E-17
4.480000E+03	6.787213E-16	4.652118E-17
4.490000E+03	6.884088E-16	4.680412E-17
4.500000E+03	6.976206E-16	4.705072E-17
4.510000E+03	7.061365E-16	4.724702E-17
4.520000E+03	7.137283E-16	4.737895E-17
4.530000E+03	7.201615E-16	4.743249E-17
4.540000E+03	7.251775E-16	4.739241E-17
4.550000E+03	7.285403E-16	4.724545E-17
4.560000E+03	7.300405E-16	4.698041E-17
4.570000E+03	7.295102E-16	4.658911E-17
4.580000E+03	7.268254E-16	4.606638E-17
4.590000E+03	7.219373E-16	4.541196E-17
4.600000E+03	7.148668E-16	4.462993E-17
4.610000E+03	7.057081E-16	4.372885E-17
4.620000E+03	6.946059E-16	4.272012E-17
4.630000E+03	6.818059E-16	4.162100E-17
4.640000E+03	6.675773E-16	4.044973E-17
4.650000E+03	6.522283E-16	3.922637E-17
4.660000E+03	6.361073E-16	3.797280E-17
4.670000E+03	6.195447E-16	3.670926E-17
4.680000E+03	6.028959E-16	3.545687E-17
4.690000E+03	5.864636E-16	3.423306E-17
4.700000E+03	5.705350E-16	3.305388E-17
4.710000E+03	5.553656E-16	3.193309E-17
4.720000E+03	5.411525E-16	3.088066E-17
4.730000E+03	5.280609E-16	2.990450E-17
4.740000E+03	5.161904E-16	2.900852E-17
4.750000E+03	5.056232E-16	2.819555E-17
4.760000E+03	4.963873E-16	2.746527E-17
4.770000E+03	4.884685E-16	2.681503E-17
4.780000E+03	4.818384E-16	2.624142E-17
4.790000E+03	4.764235E-16	2.573868E-17
4.800000E+03	4.721284E-16	2.529997E-17
4.810000E+03	4.688580E-16	2.491867E-17
4.820000E+03	4.664775E-16	2.458620E-17
4.830000E+03	4.648748E-16	2.429542E-17
4.840000E+03	4.639214E-16	2.403853E-17
4.850000E+03	4.635004E-16	2.380854E-17
4.860000E+03	4.635013E-16	2.359902E-17
4.870000E+03	4.638463E-16	2.340535E-17
4.880000E+03	4.644563E-16	2.322302E-17
4.890000E+03	4.652912E-16	2.304957E-17
4.900000E+03	4.663343E-16	2.288377E-17
4.910000E+03	4.675820E-16	2.272507E-17
4.920000E+03	4.690629E-16	2.257446E-17
4.930000E+03	4.708148E-16	2.243331E-17
4.940000E+03	4.729019E-16	2.230419E-17
4.950000E+03	4.754024E-16	2.219015E-17
4.960000E+03	4.783930E-16	2.209405E-17
4.970000E+03	4.819626E-16	2.201915E-17
4.980000E+03	4.862099E-16	2.196893E-17
4.990000E+03	4.912350E-16	2.194676E-17
5.000000E+03	4.971209E-16	2.195501E-17
5.010000E+03	5.039643E-16	2.199648E-17
5.020000E+03	5.118631E-16	2.207377E-17
5.030000E+03	5.208812E-16	2.218783E-17
5.040000E+03	5.311077E-16	2.234051E-17
5.050000E+03	5.425996E-16	2.253208E-17
5.060000E+03	5.554072E-16	2.276244E-17
5.070000E+03	5.695677E-16	2.303077E-17
5.080000E+03	5.851085E-16	2.333578E-17
5.090000E+03	6.020270E-16	2.367491E-17
5.100000E+03	6.203137E-16	2.404534E-17
5.110000E+03	6.399315E-16	2.444316E-17
5.120000E+03	6.608192E-16	2.486366E-17
5.130000E+03	6.828910E-16	2.530135E-17
5.140000E+03	7.060411E-16	2.575021E-17
5.150000E+03	7.301217E-16	2.620296E-17
5.160000E+03	7.549632E-16	2.665195E-17
5.170000E+03	7.803762E-16	2.708925E-17
5.180000E+03	8.061274E-16	2.750593E-17
5.190000E+03	8.319750E-16	2.789341E-17
5.200000E+03	8.576459E-16	2.824268E-17
5.210000E+03	8.828396E-16	2.854463E-17
5.220000E+03	9.072696E-16	2.879136E-17
5.230000E+03	9.306061E-16	2.897444E-17
5.240000E+03	9.525590E-16	2.908753E-17
5.250000E+03	9.728096E-16	2.912425E-17
5.260000E+03	9.910894E-16	2.908055E-17
5.270000E+03	1.007161E-15	2.895405E-17
5.280000E+03	1.020798E-15	2.874329E-17
5.290000E+03	1.031865E-15	2.844997E-17
5.300000E+03	1.040252E-15	2.807687E-17
5.310000E+03	1.045923E-15	2.762903E-17
5.320000E+03	1.048910E-15	2.711331E-17
5.330000E+03	1.049318E-15	2.653843E-17
5.340000E+03	1.047289E-15	2.591365E-17
5.350000E+03	1.043060E-15	2.525031E-17
5.360000E+03	1.036894E-15	2.455967E-17
5.370000E+03	1.029113E-15	2.385384E-17
5.380000E+03	1.020044E-15	2.314420E-17
5.390000E+03	1.010075E-15	2.244283E-17
5.400000E+03	9.995844E-16	2.176077E-17
5.410000E+03	9.889290E-16	2.110779E-17
5.420000E+03	9.784876E-16	2.049353E-17
5.430000E+03	9.685845E-16	1.992585E-17
5.440000E+03	9.594675E-16	1.941057E-17
5.450000E+03	9.513461E-16	1.895248E-17
5.460000E+03	9.442539E-16	1.855269E-17
5.470000E+03	9.380672E-16	1.820928E-17
5.480000E+03	9.324398E-16	1.791620E-17
5.490000E+03	9.267330E-16	1.766202E-17
5.500000E+03	9.204645E-16	1.743841E-17
5.510000E+03	9.142214E-16	1.725696E-17
5.520000E+03	9.084922E-16	1.712546E-17
5.530000E+03	9.035258E-16	1.704598E-17
5.540000E+03	8.993511E-16	1.701639E-17
5.550000E+03	8.958739E-16	1.703224E-17
5.560000E+03	8.929623E-16	1.708835E-17
5.570000E+03	8.904352E-16	1.717862E-17
5.580000E+03	8.881271E-16	1.729718E-17
5.590000E+03	8.858973E-16	1.743859E-17
5.600000E+03	8.836472E-16	1.759822E-17
5.610000E+03	8.812972E-16	1.777182E-17
5.620000E+03	8.788195E-16	1.795622E-17
5.630000E+03	8.761994E-16	1.814858E-17
5.640000E+03	8.734644E-16	1.834711E-17
5.650000E+03	8.706429E-16	1.855017E-17
5.660000E+03	8.677936E-16	1.875698E-17
5.670000E+03	8.649655E-16	1.896675E-17
5.680000E+03	8.622281E-16	1.917937E-17
5.690000E+03	8.596333E-16	1.939454E-17
5.700000E+03	8.572472E-16	1.961251E-17
5.710000E+03	8.551133E-16	1.983320E-17
5.720000E+03	8.532846E-16	2.005691E-17
5.730000E+03	8.517956E-16	2.028369E-17
5.740000E+03	8.506621E-16	2.051324E-17
5.750000E+03	8.498955E-16	2.074527E-17
5.760000E+03	8.495019E-16	2.097943E-17
5.770000E+03	8.494571E-16	2.121468E-17
5.780000E+03	8.497396E-16	2.145005E-17
5.790000E+03	8.502985E-16	2.168386E-17
5.800000E+03	8.510875E-16	2.191452E-17
5.810000E+03	8.520344E-16	2.213975E-17
5.820000E+03	8.530681E-16	2.235727E-17
5.830000E+03	8.541129E-16	2.256464E-17
5.840000E+03	8.550911E-16	2.275937E-17
5.850000E+03	8.559349E-16	2.293916E-17
5.860000E+03	8.565549E-16	2.310117E-17
5.870000E+03	8.568933E-16	2.324337E-17
5.880000E+03	8.569007E-16	2.336399E-17
5.890000E+03	8.565139E-16	2.346092E-17
5.900000E+03	8.556986E-16	2.353286E-17
5.910000E+03	8.544510E-16	2.357940E-17
5.920000E+03	8.527407E-16	2.359948E-17
5.930000E+03	8.505940E-16	2.359364E-17
5.940000E+03	8.480356E-16	2.356248E-17
5.950000E+03	8.450886E-16	2.350659E-17
5.960000E+03	8.418133E-16	2.342769E-17
5.970000E+03	8.382729E-16	2.332762E-17
5.980000E+03	8.345303E-16	2.320827E-17
5.990000E+03	8.306697E-16	2.307216E-17
6.000000E+03	8.267601E-16	2.292141E-17
6.010000E+03	8.228764E-16	2.275831E-17
6.020000E+03	8.190879E-16	2.258501E-17
6.030000E+03	8.154477E-16	2.240318E-17
6.040000E+03	8.120143E-16	2.221465E-17
6.050000E+03	8.088108E-16	2.202025E-17
6.060000E+03	8.058637E-16	2.182088E-17
6.070000E+03	8.031949E-16	2.161732E-17
6.080000E+03	8.007915E-16	2.140938E-17
6.090000E+03	7.986460E-16	2.119703E-17
6.100000E+03	7.967345E-16	2.097983E-17
6.110000E+03	7.950426E-16	2.075759E-17
6.120000E+03	7.935207E-16	2.052924E-17
6.130000E+03	7.921412E-16	2.029434E-17
6.140000E+03	7.908621E-16	2.005214E-17
6.150000E+03	7.896604E-16	1.980241E-17
6.160000E+03	7.884961E-16	1.954460E-17
6.170000E+03	7.873521E-16	1.927878E-17
6.180000E+03	7.861970E-16	1.900474E-17
6.190000E+03	7.850389E-16	1.872331E-17
6.200000E+03	7.838928E-16	1.843554E-17
6.210000E+03	7.828017E-16	1.814316E-17
6.220000E+03	7.817949E-16	1.784760E-17
6.230000E+03	7.809141E-16	1.755058E-17
6.240000E+03	7.801703E-16	1.725320E-17
6.250000E+03	7.795858E-16	1.695684E-17
6.260000E+03	7.791370E-16	1.666200E-17
6.270000E+03	7.788049E-16	1.636939E-17
6.280000E+03	7.785364E-16	1.607918E-17
6.290000E+03	7.782749E-16	1.579167E-17
6.300000E+03	7.779317E-16	1.550674E-17
6.310000E+03	7.774042E-16	1.522428E-17
6.320000E+03	7.765806E-16	1.494429E-17
6.330000E+03	7.753674E-16	1.466737E-17
6.340000E+03	7.736254E-16	1.439356E-17
6.350000E+03	7.712686E-16	1.412408E-17
6.360000E+03	7.681992E-16	1.386014E-17
6.370000E+03	7.643295E-16	1.360316E-17
6.380000E+03	7.596181E-16	1.335544E-17
6.390000E+03	7.540286E-16	1.311918E-17
6.400000E+03	7.475730E-16	1.289724E-17
6.410000E+03	7.402918E-16	1.269261E-17
6.420000E+03	7.322805E-16	1.250876E-17
6.430000E+03	7.236427E-16	1.234881E-17
6.440000E+03	7.145577E-16	1.221663E-17
6.450000E+03	7.052146E-16	1.211568E-17
6.460000E+03	6.958259E-16	1.204839E-17
6.470000E+03	6.866296E-16	1.201632E-17
6.480000E+03	6.778571E-16	1.202083E-17
6.490000E+03	6.696948E-16	1.206263E-17
6.500000E+03	6.622720E-16	1.214165E-17
6.510000E+03	6.556128E-16	1.225619E-17
6.520000E+03	6.496389E-16	1.240280E-17
6.530000E+03	6.441111E-16	1.257502E-17
6.540000E+03	6.389923E-16	1.277019E-17
6.550000E+03	6.346103E-16	1.299326E-17
6.560000E+03	6.311448E-16	1.324695E-17
6.570000E+03	6.286436E-16	1.353176E-17
6.580000E+03	6.270616E-16	1.384649E-17
6.590000E+03	6.262757E-16	1.418832E-17
6.600000E+03	6.261415E-16	1.455385E-17
6.610000E+03	6.264931E-16	1.493898E-17
6.620000E+03	6.271655E-16	1.533938E-17
6.630000E+03	6.280043E-16	1.575070E-17
6.640000E+03	6.288721E-16	1.616875E-17
6.650000E+03	6.296664E-16	1.658995E-17
6.660000E+03	6.302780E-16	1.701039E-17
6.670000E+03	6.306418E-16	1.742713E-17
6.680000E+03	6.307133E-16	1.783771E-17
6.690000E+03	6.304534E-16	1.823978E-17
6.700000E+03	6.298465E-16	1.863160E-17
6.710000E+03	6.288985E-16	1.901212E-17
6.720000E+03	6.276194E-16	1.938044E-17
6.730000E+03	6.260347E-16	1.973627E-17
6.740000E+03	6.241549E-16	2.007890E-17
6.750000E+03	6.220240E-16	2.040881E-17
6.760000E+03	6.196673E-16	2.072600E-17
6.770000E+03	6.171273E-16	2.103118E-17
6.780000E+03	6.144402E-16	2.132494E-17
6.790000E+03	6.116435E-16	2.160808E-17
6.800000E+03	6.087745E-16	2.188150E-17
6.810000E+03	6.058707E-16	2.214622E-17
6.820000E+03	6.029678E-16	2.240331E-17
6.830000E+03	6.001076E-16	2.265418E-17
6.840000E+03	5.973074E-16	2.289942E-17
6.850000E+03	5.946170E-16	2.314094E-17
6.860000E+03	5.920464E-16	2.337918E-17
6.870000E+03	5.896227E-16	2.361534E-17
6.880000E+03	5.873532E-16	2.384984E-17
6.890000E+03	5.852547E-16	2.408354E-17
6.900000E+03	5.833320E-16	2.431682E-17
6.910000E+03	5.815856E-16	2.454991E-17
6.920000E+03	5.800129E-16	2.478289E-17
6.930000E+03	5.786024E-16	2.501545E-17
6.940000E+03	5.773628E-16	2.524813E-17
6.950000E+03	5.762753E-16	2.548029E-17
6.960000E+03	5.753437E-16	2.571225E-17
6.970000E+03	5.745741E-16	2.594443E-17
6.980000E+03	5.739541E-16	2.617642E-17
6.990000E+03	5.734879E-16	2.640854E-17
7.000000E+03	5.731968E-16	2.664193E-17
7.010000E+03	5.730756E-16	2.687648E-17
7.020000E+03	5.731416E-16	2.711315E-17
7.030000E+03	5.734057E-16	2.735263E-17
7.040000E+03	5.738716E-16	2.759523E-17
7.050000E+03	5.745561E-16	2.784193E-17
7.060000E+03	5.754595E-16	2.809290E-17
7.070000E+03	5.765937E-16	2.834886E-17
7.080000E+03	5.779450E-16	2.860928E-17
7.090000E+03	5.795240E-16	2.887480E-17
7.100000E+03	5.813147E-16	2.914474E-17
7.110000E+03	5.832956E-16	2.941808E-17
7.120000E+03	5.854544E-16	2.969426E-17
7.130000E+03	5.877665E-16	2.997206E-17
7.140000E+03	5.901953E-16	3.024959E-17
7.150000E+03	5.927004E-16	3.052474E-17
7.160000E+03	5.952608E-16	3.079635E-17
7.170000E+03	5.978236E-16	3.106158E-17
7.180000E+03	6.003572E-16	3.131867E-17
7.190000E+03	6.028149E-16	3.156501E-17
7.200000E+03	6.051508E-16	3.179805E-17
7.210000E+03	6.073359E-16	3.201606E-17
7.220000E+03	6.093357E-16	3.221706E-17
7.230000E+03	6.111032E-16	3.239837E-17
7.240000E+03	6.126182E-16	3.255874E-17
7.250000E+03	6.138400E-16	3.269584E-17
7.260000E+03	6.147632E-16	3.280923E-17
7.270000E+03	6.153543E-16	3.289698E-17
7.280000E+03	6.155991E-16	3.295823E-17
7.290000E+03	6.154784E-16	3.299185E-17
7.300000E+03	6.149843E-16	3.299739E-17
7.310000E+03	6.141044E-16	3.297413E-17
7.320000E+03	6.128453E-16	3.292245E-17
7.330000E+03	6.111866E-16	3.284129E-17
7.340000E+03	6.091515E-16	3.273197E-17
7.350000E+03	6.067301E-16	3.259407E-17
7.360000E+03	6.039498E-16	3.242919E-17
7.370000E+03	6.008219E-16	3.223813E-17
7.380000E+03	5.973890E-16	3.202337E-17
7.390000E+03	5.936788E-16	3.178661E-17
7.400000E+03	5.897510E-16	3.153127E-17
7.410000E+03	5.856428E-16	3.125962E-17
7.420000E+03	5.814301E-16	3.097594E-17
7.430000E+03	5.771804E-16	3.068409E-17
7.440000E+03	5.729820E-16	3.038897E-17
7.450000E+03	5.689054E-16	3.009452E-17
7.460000E+03	5.650530E-16	2.980633E-17
7.470000E+03	5.615203E-16	2.952953E-17
7.480000E+03	5.583874E-16	2.926838E-17
7.490000E+03	5.557453E-16	2.902764E-17
7.500000E+03	5.536874E-16	2.881207E-17
7.510000E+03	5.522712E-16	2.862451E-17
7.520000E+03	5.515817E-16	2.846910E-17
7.530000E+03	5.516721E-16	2.834824E-17
7.540000E+03	5.525846E-16	2.826370E-17
7.550000E+03	5.543565E-16	2.821690E-17
7.560000E+03	5.570054E-16	2.820819E-17
7.570000E+03	5.605356E-16	2.823719E-17
7.580000E+03	5.649534E-16	2.830359E-17
7.590000E+03	5.702296E-16	2.840525E-17
7.600000E+03	5.763293E-16	2.853978E-17
7.610000E+03	5.832201E-16	2.870491E-17
7.620000E+03	5.908341E-16	2.889668E-17
7.630000E+03	5.991067E-16	2.911133E-17
7.640000E+03	6.079542E-16	2.934429E-17
7.650000E+03	6.172814E-16	2.959054E-17
7.660000E+03	6.269835E-16	2.984476E-17
7.670000E+03	6.369470E-16	3.010135E-17
7.680000E+03	6.470682E-16	3.035539E-17
7.690000E+03	6.571942E-16	3.059983E-17
7.700000E+03	6.672211E-16	3.083016E-17
7.710000E+03	6.769983E-16	3.103991E-17
7.720000E+03	6.864024E-16	3.122412E-17
7.730000E+03	6.953029E-16	3.137778E-17
7.740000E+03	7.035645E-16	3.149586E-17
7.750000E+03	7.110865E-16	3.157515E-17
7.760000E+03	7.177371E-16	3.161129E-17
