#wls	flux	fluxerr
1.600000E+03	9.110683E-18	2.895025E-19
1.640000E+03	9.216061E-18	2.922222E-19
1.680000E+03	9.327367E-18	2.950985E-19
1.720000E+03	9.448268E-18	2.982450E-19
1.760000E+03	9.577685E-18	3.016247E-19
1.800000E+03	9.717822E-18	3.053038E-19
1.840000E+03	9.867658E-18	3.092468E-19
1.880000E+03	1.002784E-17	3.134701E-19
1.920000E+03	1.020075E-17	3.180449E-19
1.960000E+03	1.038722E-17	3.229918E-19
2.000000E+03	1.058636E-17	3.282784E-19
2.040000E+03	1.080082E-17	3.339819E-19
2.080000E+03	1.103342E-17	3.401834E-19
2.120000E+03	1.128167E-17	3.467994E-19
2.160000E+03	1.154852E-17	3.539144E-19
2.200000E+03	1.183716E-17	3.616175E-19
2.240000E+03	1.214713E-17	3.698866E-19
2.280000E+03	1.247991E-17	3.787573E-19
2.320000E+03	1.283910E-17	3.883291E-19
2.360000E+03	1.322451E-17	3.985848E-19
2.400000E+03	1.364011E-17	4.096318E-19
2.440000E+03	1.408807E-17	4.215218E-19
2.480000E+03	1.457072E-17	4.343093E-19
2.520000E+03	1.509059E-17	4.480539E-19
2.560000E+03	1.565277E-17	4.628883E-19
2.600000E+03	1.625567E-17	4.787455E-19
2.640000E+03	1.690970E-17	4.959110E-19
2.680000E+03	1.761130E-17	5.142556E-19
2.720000E+03	1.837199E-17	5.340900E-19
2.760000E+03	1.919385E-17	5.554449E-19
2.800000E+03	2.007911E-17	5.783523E-19
2.840000E+03	2.103876E-17	6.030940E-19
2.880000E+03	2.207915E-17	6.298111E-19
2.920000E+03	2.320108E-17	6.584833E-19
2.960000E+03	2.442110E-17	6.895325E-19
3.000000E+03	2.574116E-17	7.229590E-19
3.010000E+03	2.608907E-17	7.317438E-19
3.020000E+03	2.644305E-17	7.406677E-19
3.030000E+03	2.680326E-17	7.497340E-19
3.040000E+03	2.717326E-17	7.590409E-19
3.050000E+03	2.754976E-17	7.684962E-19
3.060000E+03	2.793645E-17	7.782007E-19
3.070000E+03	2.832637E-17	7.879601E-19
3.080000E+03	2.872679E-17	7.979754E-19
3.090000E+03	2.913791E-17	8.082509E-19
3.100000E+03	2.955261E-17	8.185877E-19
3.110000E+03	2.997834E-17	8.291915E-19
3.120000E+03	3.041534E-17	8.400670E-19
3.130000E+03	3.085625E-17	8.510097E-19
3.140000E+03	3.130876E-17	8.622307E-19
3.150000E+03	3.177308E-17	8.737344E-19
3.160000E+03	3.224555E-17	8.854181E-19
3.170000E+03	3.272629E-17	8.972843E-19
3.180000E+03	3.321540E-17	9.093343E-19
3.190000E+03	3.371705E-17	9.216805E-19
3.200000E+03	3.422739E-17	9.342163E-19
3.210000E+03	3.474651E-17	9.469429E-19
3.220000E+03	3.527871E-17	9.599755E-19
3.230000E+03	3.581998E-17	9.732037E-19
3.240000E+03	3.637471E-17	9.867446E-19
3.250000E+03	3.693445E-17	1.000368E-18
3.260000E+03	3.751228E-17	1.014426E-18
3.270000E+03	3.809529E-17	1.028568E-18
3.280000E+03	3.869234E-17	1.043031E-18
3.290000E+03	3.929912E-17	1.057698E-18
3.300000E+03	3.992027E-17	1.072692E-18
3.310000E+03	4.055135E-17	1.087890E-18
3.320000E+03	4.119241E-17	1.103294E-18
3.330000E+03	4.184819E-17	1.119027E-18
3.340000E+03	4.251412E-17	1.134966E-18
3.350000E+03	4.319017E-17	1.151109E-18
3.360000E+03	4.388126E-17	1.167584E-18
3.370000E+03	4.458258E-17	1.184261E-18
3.380000E+03	4.529913E-17	1.201271E-18
3.390000E+03	4.602597E-17	1.218482E-18
3.400000E+03	4.676306E-17	1.235889E-18
3.410000E+03	4.751553E-17	1.253627E-18
3.420000E+03	4.827826E-17	1.271559E-18
3.430000E+03	4.905114E-17	1.289679E-18
3.440000E+03	4.983946E-17	1.308125E-18
3.450000E+03	5.063787E-17	1.326754E-18
3.460000E+03	5.144626E-17	1.345561E-18
3.470000E+03	5.227003E-17	1.364686E-18
3.480000E+03	5.310924E-17	1.384127E-18
3.490000E+03	5.395259E-17	1.403588E-18
3.500000E+03	5.481116E-17	1.423357E-18
3.510000E+03	5.567920E-17	1.443280E-18
3.520000E+03	5.656235E-17	1.463502E-18
3.530000E+03	5.745470E-17	1.483868E-18
3.540000E+03	5.836199E-17	1.504526E-18
3.550000E+03	5.927212E-17	1.525159E-18
3.560000E+03	6.020299E-17	1.546227E-18
3.570000E+03	6.113619E-17	1.567256E-18
3.580000E+03	6.208376E-17	1.588551E-18
3.590000E+03	6.303932E-17	1.609948E-18
3.600000E+03	6.400897E-17	1.631601E-18
3.610000E+03	6.498615E-17	1.653340E-18
3.620000E+03	6.597059E-17	1.675158E-18
3.630000E+03	6.696853E-17	1.697209E-18
3.640000E+03	6.797323E-17	1.719322E-18
3.650000E+03	6.898436E-17	1.741487E-18
3.660000E+03	7.000834E-17	1.763864E-18
3.670000E+03	7.103821E-17	1.786276E-18
3.680000E+03	7.207364E-17	1.808712E-18
3.690000E+03	7.312120E-17	1.831338E-18
3.700000E+03	7.417375E-17	1.853971E-18
3.710000E+03	7.523090E-17	1.876601E-18
3.720000E+03	7.629946E-17	1.899397E-18
3.730000E+03	7.737204E-17	1.922171E-18
3.740000E+03	7.844826E-17	1.944916E-18
3.750000E+03	7.953511E-17	1.967801E-18
3.760000E+03	8.062501E-17	1.990638E-18
3.770000E+03	8.171760E-17	2.013417E-18
3.780000E+03	8.281250E-17	2.036129E-18
3.790000E+03	8.391697E-17	2.058950E-18
3.800000E+03	8.503079E-17	2.081873E-18
3.810000E+03	8.613843E-17	2.104517E-18
3.820000E+03	8.725486E-17	2.127248E-18
3.830000E+03	8.837211E-17	2.149869E-18
3.840000E+03	8.948985E-17	2.172374E-18
3.850000E+03	9.061570E-17	2.194945E-18
3.860000E+03	9.173351E-17	2.217190E-18
3.870000E+03	9.285892E-17	2.239489E-18
3.880000E+03	9.399182E-17	2.261837E-18
3.890000E+03	9.511573E-17	2.283836E-18
3.900000E+03	9.624668E-17	2.305872E-18
3.910000E+03	9.737628E-17	2.327743E-18
3.920000E+03	9.850427E-17	2.349442E-18
3.930000E+03	9.963880E-17	2.371164E-18
3.940000E+03	1.007713E-16	2.392706E-18
3.950000E+03	1.019017E-16	2.414061E-18
3.960000E+03	1.030296E-16	2.435225E-18
3.970000E+03	1.041548E-16	2.456192E-18
3.980000E+03	1.052772E-16	2.476958E-18
3.990000E+03	1.064051E-16	2.497723E-18
4.000000E+03	1.075299E-16	2.518278E-18
4.010000E+03	1.086512E-16	2.538619E-18
4.020000E+03	1.097688E-16	2.558741E-18
4.030000E+03	1.108825E-16	2.578638E-18
4.040000E+03	1.120009E-16	2.598512E-18
4.050000E+03	1.131059E-16	2.617943E-18
4.060000E+03	1.142152E-16	2.637340E-18
4.070000E+03	1.153194E-16	2.656489E-18
4.080000E+03	1.164181E-16	2.675378E-18
4.090000E+03	1.175108E-16	2.694000E-18
4.100000E+03	1.185970E-16	2.712344E-18
4.110000E+03	1.196763E-16	2.730400E-18
4.120000E+03	1.207479E-16	2.748152E-18
4.130000E+03	1.218203E-16	2.765795E-18
4.140000E+03	1.228743E-16	2.782895E-18
4.150000E+03	1.239182E-16	2.799640E-18
4.160000E+03	1.249604E-16	2.816223E-18
4.170000E+03	1.259810E-16	2.832197E-18
4.180000E+03	1.269975E-16	2.847960E-18
4.190000E+03	1.279898E-16	2.863059E-18
4.200000E+03	1.289656E-16	2.877676E-18
4.210000E+03	1.299332E-16	2.891995E-18
4.220000E+03	1.308715E-16	2.905549E-18
4.230000E+03	1.317979E-16	2.918731E-18
4.240000E+03	1.326913E-16	2.931075E-18
4.250000E+03	1.335590E-16	2.942749E-18
4.260000E+03	1.343991E-16	2.953717E-18
4.270000E+03	1.352091E-16	2.963928E-18
4.280000E+03	1.359868E-16	2.973339E-18
4.290000E+03	1.367299E-16	2.981908E-18
4.300000E+03	1.374361E-16	2.989588E-18
4.310000E+03	1.381029E-16	2.996335E-18
4.320000E+03	1.387183E-16	3.001896E-18
4.330000E+03	1.392998E-16	3.006656E-18
4.340000E+03	1.398259E-16	3.010158E-18
4.350000E+03	1.403044E-16	3.012583E-18
4.360000E+03	1.407337E-16	3.013906E-18
4.370000E+03	1.411127E-16	3.014107E-18
4.380000E+03	1.414403E-16	3.013176E-18
4.390000E+03	1.417063E-16	3.010903E-18
4.400000E+03	1.419206E-16	3.007512E-18
4.410000E+03	1.420837E-16	3.003023E-18
4.420000E+03	1.421970E-16	2.997470E-18
4.430000E+03	1.422523E-16	2.990695E-18
4.440000E+03	1.422707E-16	2.983147E-18
4.450000E+03	1.422352E-16	2.974477E-18
4.460000E+03	1.421480E-16	2.964741E-18
4.470000E+03	1.420307E-16	2.954397E-18
4.480000E+03	1.418670E-16	2.943113E-18
4.490000E+03	1.416690E-16	2.931145E-18
4.500000E+03	1.414395E-16	2.918558E-18
4.510000E+03	1.411721E-16	2.905227E-18
4.520000E+03	1.408790E-16	2.891405E-18
4.530000E+03	1.405626E-16	2.877151E-18
4.540000E+03	1.402169E-16	2.862342E-18
4.550000E+03	1.398535E-16	2.847223E-18
4.560000E+03	1.394750E-16	2.831845E-18
4.570000E+03	1.390749E-16	2.816084E-18
4.580000E+03	1.386645E-16	2.800171E-18
4.590000E+03	1.382372E-16	2.783975E-18
4.600000E+03	1.378042E-16	2.767720E-18
4.610000E+03	1.373672E-16	2.751448E-18
4.620000E+03	1.369196E-16	2.735022E-18
4.630000E+03	1.364716E-16	2.718651E-18
4.640000E+03	1.360251E-16	2.702372E-18
4.650000E+03	1.355730E-16	2.686045E-18
4.660000E+03	1.351252E-16	2.669867E-18
4.670000E+03	1.346748E-16	2.653699E-18
4.680000E+03	1.342314E-16	2.637734E-18
4.690000E+03	1.337877E-16	2.621825E-18
4.700000E+03	1.333532E-16	2.606161E-18
4.710000E+03	1.329288E-16	2.590755E-18
4.720000E+03	1.325071E-16	2.575466E-18
4.730000E+03	1.320893E-16	2.560315E-18
4.740000E+03	1.316920E-16	2.545624E-18
4.750000E+03	1.312920E-16	2.530942E-18
4.760000E+03	1.309062E-16	2.516593E-18
4.770000E+03	1.305346E-16	2.502579E-18
4.780000E+03	1.301704E-16	2.488766E-18
4.790000E+03	1.298216E-16	2.475307E-18
4.800000E+03	1.294812E-16	2.462065E-18
4.810000E+03	1.291572E-16	2.449192E-18
4.820000E+03	1.288425E-16	2.436551E-18
4.830000E+03	1.285448E-16	2.424289E-18
4.840000E+03	1.282571E-16	2.412270E-18
4.850000E+03	1.279871E-16	2.400639E-18
4.860000E+03	1.277278E-16	2.389261E-18
4.870000E+03	1.274868E-16	2.378278E-18
4.880000E+03	1.272567E-16	2.367552E-18
4.890000E+03	1.270382E-16	2.357091E-18
4.900000E+03	1.268385E-16	2.347030E-18
4.910000E+03	1.266579E-16	2.337373E-18
4.920000E+03	1.264890E-16	2.327980E-18
4.930000E+03	1.263395E-16	2.318993E-18
4.940000E+03	1.262020E-16	2.310274E-18
4.950000E+03	1.260768E-16	2.301827E-18
4.960000E+03	1.259711E-16	2.293781E-18
4.970000E+03	1.258778E-16	2.286008E-18
4.980000E+03	1.258038E-16	2.278632E-18
4.990000E+03	1.257494E-16	2.271655E-18
5.000000E+03	1.257003E-16	2.264816E-18
5.010000E+03	1.256775E-16	2.258497E-18
5.020000E+03	1.256599E-16	2.252315E-18
5.030000E+03	1.256614E-16	2.246518E-18
5.040000E+03	1.256819E-16	2.241105E-18
5.050000E+03	1.257142E-16	2.235945E-18
5.060000E+03	1.257651E-16	2.231158E-18
5.070000E+03	1.258274E-16	2.226617E-18
5.080000E+03	1.259007E-16	2.222313E-18
5.090000E+03	1.259918E-16	2.218368E-18
5.100000E+03	1.260934E-16	2.214650E-18
5.110000E+03	1.262120E-16	2.211276E-18
5.120000E+03	1.263472E-16	2.208235E-18
5.130000E+03	1.264917E-16	2.205400E-18
5.140000E+03	1.266446E-16	2.202758E-18
5.150000E+03	1.268125E-16	2.200422E-18
5.160000E+03	1.269879E-16	2.198263E-18
5.170000E+03	1.271698E-16	2.196266E-18
5.180000E+03	1.273717E-16	2.194660E-18
5.190000E+03	1.275715E-16	2.193070E-18
5.200000E+03	1.277825E-16	2.191721E-18
5.210000E+03	1.280036E-16	2.190599E-18
5.220000E+03	1.282267E-16	2.189564E-18
5.230000E+03	1.284577E-16	2.188718E-18
5.240000E+03	1.286883E-16	2.187924E-18
5.250000E+03	1.289172E-16	2.187159E-18
5.260000E+03	1.291497E-16	2.186518E-18
5.270000E+03	1.293847E-16	2.185980E-18
5.280000E+03	1.296131E-16	2.185396E-18
5.290000E+03	1.298332E-16	2.184740E-18
5.300000E+03	1.300502E-16	2.184103E-18
5.310000E+03	1.302620E-16	2.183450E-18
5.320000E+03	1.304594E-16	2.182632E-18
5.330000E+03	1.306400E-16	2.181613E-18
5.340000E+03	1.308087E-16	2.180474E-18
5.350000E+03	1.309627E-16	2.179176E-18
5.360000E+03	1.310923E-16	2.177561E-18
5.370000E+03	1.312019E-16	2.175703E-18
5.380000E+03	1.312813E-16	2.173440E-18
5.390000E+03	1.313348E-16	2.170846E-18
5.400000E+03	1.313520E-16	2.167755E-18
5.410000E+03	1.313301E-16	2.164122E-18
5.420000E+03	1.312797E-16	2.160130E-18
5.430000E+03	1.311837E-16	2.155499E-18
5.440000E+03	1.310389E-16	2.150183E-18
5.450000E+03	1.308496E-16	2.144257E-18
5.460000E+03	1.306059E-16	2.137561E-18
5.470000E+03	1.303124E-16	2.130175E-18
5.480000E+03	1.299675E-16	2.122072E-18
5.490000E+03	1.295631E-16	2.113124E-18
5.500000E+03	1.291064E-16	2.103446E-18
5.510000E+03	1.285920E-16	2.092954E-18
5.520000E+03	1.280290E-16	2.081794E-18
5.530000E+03	1.274139E-16	2.069909E-18
5.540000E+03	1.267568E-16	2.057466E-18
5.550000E+03	1.260618E-16	2.044526E-18
5.560000E+03	1.253258E-16	2.031041E-18
5.570000E+03	1.245595E-16	2.017181E-18
5.580000E+03	1.237602E-16	2.002903E-18
5.590000E+03	1.229381E-16	1.988368E-18
5.600000E+03	1.220970E-16	1.973635E-18
5.610000E+03	1.212338E-16	1.958652E-18
5.620000E+03	1.203582E-16	1.943576E-18
5.630000E+03	1.194671E-16	1.928350E-18
5.640000E+03	1.185696E-16	1.913122E-18
5.650000E+03	1.176686E-16	1.897934E-18
5.660000E+03	1.167604E-16	1.882723E-18
5.670000E+03	1.158535E-16	1.867626E-18
5.680000E+03	1.149500E-16	1.852671E-18
5.690000E+03	1.140460E-16	1.837794E-18
5.700000E+03	1.131492E-16	1.823116E-18
5.710000E+03	1.122614E-16	1.808663E-18
5.720000E+03	1.113782E-16	1.794363E-18
5.730000E+03	1.105068E-16	1.780328E-18
5.740000E+03	1.096426E-16	1.766482E-18
5.750000E+03	1.087985E-16	1.753029E-18
5.760000E+03	1.079579E-16	1.739701E-18
5.770000E+03	1.071392E-16	1.726791E-18
5.780000E+03	1.063316E-16	1.714123E-18
5.790000E+03	1.055415E-16	1.701799E-18
5.800000E+03	1.047694E-16	1.689825E-18
5.810000E+03	1.040103E-16	1.678118E-18
5.820000E+03	1.032702E-16	1.666773E-18
5.830000E+03	1.025494E-16	1.655795E-18
5.840000E+03	1.018429E-16	1.645098E-18
5.850000E+03	1.011562E-16	1.634773E-18
5.860000E+03	1.004896E-16	1.624821E-18
5.870000E+03	9.984309E-17	1.615243E-18
5.880000E+03	9.921158E-17	1.605954E-18
5.890000E+03	9.860039E-17	1.597039E-18
5.900000E+03	9.800951E-17	1.588498E-18
5.910000E+03	9.743892E-17	1.580329E-18
5.920000E+03	9.688340E-17	1.572446E-18
5.930000E+03	9.634805E-17	1.564933E-18
5.940000E+03	9.583276E-17	1.557786E-18
5.950000E+03	9.533235E-17	1.550921E-18
5.960000E+03	9.485174E-17	1.544417E-18
5.970000E+03	9.439076E-17	1.538272E-18
5.980000E+03	9.394923E-17	1.532482E-18
5.990000E+03	9.352694E-17	1.527043E-18
6.000000E+03	9.311873E-17	1.521872E-18
6.010000E+03	9.272933E-17	1.517046E-18
6.020000E+03	9.235851E-17	1.512560E-18
6.030000E+03	9.200601E-17	1.508411E-18
6.040000E+03	9.166669E-17	1.504515E-18
6.050000E+03	9.135002E-17	1.501027E-18
6.060000E+03	9.104600E-17	1.497783E-18
6.070000E+03	9.075917E-17	1.494858E-18
6.080000E+03	9.048441E-17	1.492169E-18
6.090000E+03	9.023107E-17	1.489870E-18
6.100000E+03	8.998916E-17	1.487796E-18
6.110000E+03	8.976315E-17	1.486022E-18
6.120000E+03	8.955268E-17	1.484543E-18
6.130000E+03	8.935740E-17	1.483352E-18
6.140000E+03	8.917687E-17	1.482445E-18
6.150000E+03	8.900596E-17	1.481736E-18
6.160000E+03	8.885376E-17	1.481377E-18
6.170000E+03	8.871031E-17	1.481203E-18
6.180000E+03	8.857992E-17	1.481286E-18
6.190000E+03	8.846211E-17	1.481620E-18
6.200000E+03	8.835161E-17	1.482117E-18
6.210000E+03	8.825741E-17	1.482927E-18
6.220000E+03	8.816944E-17	1.483884E-18
6.230000E+03	8.809663E-17	1.485138E-18
6.240000E+03	8.802888E-17	1.486520E-18
6.250000E+03	8.797028E-17	1.488099E-18
6.260000E+03	8.792015E-17	1.489865E-18
6.270000E+03	8.787307E-17	1.491726E-18
6.280000E+03	8.783776E-17	1.493831E-18
6.290000E+03	8.780866E-17	1.496088E-18
6.300000E+03	8.778024E-17	1.498401E-18
6.310000E+03	8.775635E-17	1.500836E-18
6.320000E+03	8.773604E-17	1.503380E-18
6.330000E+03	8.772311E-17	1.506096E-18
6.340000E+03	8.770226E-17	1.508723E-18
6.350000E+03	8.768666E-17	1.511487E-18
6.360000E+03	8.767039E-17	1.514286E-18
6.370000E+03	8.765223E-17	1.517100E-18
6.380000E+03	8.763088E-17	1.519906E-18
6.390000E+03	8.760020E-17	1.522597E-18
6.400000E+03	8.756824E-17	1.525313E-18
6.410000E+03	8.752391E-17	1.527859E-18
6.420000E+03	8.747033E-17	1.530289E-18
6.430000E+03	8.740573E-17	1.532572E-18
6.440000E+03	8.733296E-17	1.534755E-18
6.450000E+03	8.724052E-17	1.536634E-18
6.460000E+03	8.713102E-17	1.538251E-18
6.470000E+03	8.700224E-17	1.539563E-18
6.480000E+03	8.685185E-17	1.540526E-18
6.490000E+03	8.667274E-17	1.541009E-18
6.500000E+03	8.647211E-17	1.541136E-18
6.510000E+03	8.624310E-17	1.540780E-18
6.520000E+03	8.598408E-17	1.539907E-18
6.530000E+03	8.568948E-17	1.538411E-18
6.540000E+03	8.536887E-17	1.536459E-18
6.550000E+03	8.501411E-17	1.533898E-18
6.560000E+03	8.463661E-17	1.530930E-18
6.570000E+03	8.422957E-17	1.527426E-18
6.580000E+03	8.380499E-17	1.523600E-18
6.590000E+03	8.335635E-17	1.519328E-18
6.600000E+03	8.289553E-17	1.514822E-18
6.610000E+03	8.241585E-17	1.509958E-18
6.620000E+03	8.192429E-17	1.504859E-18
6.630000E+03	8.142749E-17	1.499644E-18
6.640000E+03	8.091845E-17	1.494183E-18
6.650000E+03	8.040355E-17	1.488590E-18
6.660000E+03	7.988450E-17	1.482894E-18
6.670000E+03	7.936285E-17	1.477123E-18
6.680000E+03	7.884441E-17	1.471384E-18
6.690000E+03	7.832172E-17	1.465536E-18
6.700000E+03	7.780039E-17	1.459682E-18
6.710000E+03	7.728153E-17	1.453842E-18
6.720000E+03	7.676614E-17	1.448035E-18
6.730000E+03	7.625513E-17	1.442278E-18
6.740000E+03	7.574936E-17	1.436585E-18
6.750000E+03	7.524958E-17	1.430972E-18
6.760000E+03	7.475650E-17	1.425451E-18
6.770000E+03	7.427073E-17	1.420034E-18
6.780000E+03	7.379285E-17	1.414733E-18
6.790000E+03	7.332338E-17	1.409558E-18
6.800000E+03	7.286685E-17	1.404596E-18
6.810000E+03	7.241547E-17	1.399698E-18
6.820000E+03	7.196970E-17	1.394874E-18
6.830000E+03	7.153792E-17	1.390286E-18
6.840000E+03	7.111638E-17	1.385863E-18
6.850000E+03	7.070532E-17	1.381609E-18
6.860000E+03	7.030494E-17	1.377530E-18
6.870000E+03	6.991541E-17	1.373631E-18
6.880000E+03	6.953688E-17	1.369915E-18
6.890000E+03	6.916948E-17	1.366386E-18
6.900000E+03	6.881328E-17	1.363047E-18
6.910000E+03	6.846836E-17	1.359900E-18
6.920000E+03	6.813476E-17	1.356947E-18
6.930000E+03	6.781253E-17	1.354192E-18
6.940000E+03	6.750165E-17	1.351634E-18
6.950000E+03	6.719830E-17	1.349198E-18
6.960000E+03	6.691010E-17	1.347038E-18
6.970000E+03	6.663317E-17	1.345079E-18
6.980000E+03	6.636746E-17	1.343321E-18
6.990000E+03	6.611292E-17	1.341763E-18
7.000000E+03	6.586946E-17	1.340405E-18
7.010000E+03	6.563324E-17	1.339171E-18
7.020000E+03	6.541168E-17	1.338213E-18
7.030000E+03	6.520089E-17	1.337454E-18
7.040000E+03	6.499708E-17	1.336816E-18
7.050000E+03	6.480753E-17	1.336451E-18
7.060000E+03	6.462843E-17	1.336282E-18
7.070000E+03	6.445592E-17	1.336230E-18
7.080000E+03	6.429729E-17	1.336448E-18
7.090000E+03	6.414500E-17	1.336780E-18
7.100000E+03	6.400628E-17	1.337378E-18
7.110000E+03	6.387362E-17	1.338087E-18
7.120000E+03	6.375423E-17	1.339059E-18
7.130000E+03	6.364063E-17	1.340138E-18
7.140000E+03	6.353631E-17	1.341399E-18
7.150000E+03	6.344481E-17	1.342918E-18
7.160000E+03	6.335862E-17	1.344538E-18
7.170000E+03	6.328128E-17	1.346333E-18
7.180000E+03	6.321263E-17	1.348303E-18
7.190000E+03	6.315249E-17	1.350445E-18
7.200000E+03	6.310073E-17	1.352756E-18
7.210000E+03	6.305720E-17	1.355235E-18
7.220000E+03	6.302175E-17	1.357879E-18
7.230000E+03	6.299420E-17	1.360687E-18
7.240000E+03	6.297444E-17	1.363656E-18
7.250000E+03	6.295863E-17	1.366705E-18
7.260000E+03	6.295397E-17	1.369989E-18
7.270000E+03	6.295663E-17	1.373429E-18
7.280000E+03	6.296281E-17	1.376941E-18
7.290000E+03	6.297604E-17	1.380603E-18
7.300000E+03	6.299985E-17	1.384494E-18
7.310000E+03	6.302672E-17	1.388449E-18
7.320000E+03	6.306023E-17	1.392548E-18
7.330000E+03	6.310021E-17	1.396789E-18
7.340000E+03	6.314654E-17	1.401169E-18
7.350000E+03	6.319908E-17	1.405686E-18
7.360000E+03	6.325397E-17	1.410255E-18
7.370000E+03	6.331852E-17	1.415039E-18
7.380000E+03	6.338886E-17	1.419954E-18
7.390000E+03	6.346113E-17	1.424912E-18
7.400000E+03	6.353892E-17	1.429996E-18
7.410000E+03	6.362208E-17	1.435203E-18
7.420000E+03	6.371049E-17	1.440530E-18
7.430000E+03	6.380398E-17	1.445975E-18
7.440000E+03	6.390242E-17	1.451535E-18
7.450000E+03	6.400568E-17	1.457207E-18
7.460000E+03	6.410978E-17	1.462902E-18
7.470000E+03	6.422219E-17	1.468791E-18
7.480000E+03	6.433511E-17	1.474696E-18
7.490000E+03	6.445221E-17	1.480700E-18
7.500000E+03	6.457331E-17	1.486801E-18
7.510000E+03	6.469823E-17	1.492995E-18
7.520000E+03	6.482292E-17	1.499189E-18
7.530000E+03	6.495495E-17	1.505558E-18
7.540000E+03	6.508635E-17	1.511918E-18
7.550000E+03	6.522082E-17	1.518354E-18
7.560000E+03	6.535812E-17	1.524862E-18
7.570000E+03	6.549806E-17	1.531438E-18
7.580000E+03	6.564041E-17	1.538076E-18
7.590000E+03	6.578494E-17	1.544771E-18
7.600000E+03	6.592744E-17	1.551425E-18
7.610000E+03	6.607159E-17	1.558124E-18
7.620000E+03	6.621713E-17	1.564861E-18
7.630000E+03	6.636380E-17	1.571631E-18
7.640000E+03	6.651130E-17	1.578428E-18
7.650000E+03	6.665530E-17	1.585147E-18
7.660000E+03	6.680355E-17	1.591973E-18
7.670000E+03	6.694764E-17	1.598705E-18
7.680000E+03	6.709125E-17	1.605432E-18
7.690000E+03	6.722995E-17	1.612047E-18
7.700000E+03	6.737154E-17	1.618736E-18
7.710000E+03	6.750742E-17	1.625292E-18
7.720000E+03	6.764129E-17	1.631805E-18
7.730000E+03	6.777271E-17	1.638263E-18
7.740000E+03	6.790126E-17	1.644655E-18
7.750000E+03	6.802645E-17	1.650970E-18
7.760000E+03	6.814363E-17	1.657093E-18
