#wls	flux	fluxerr
1.600000E+03	5.943547E-18	1.787083E-19
1.640000E+03	5.989399E-18	1.797167E-19
1.680000E+03	6.038109E-18	1.807954E-19
1.720000E+03	6.090950E-18	1.819814E-19
1.760000E+03	6.148156E-18	1.832805E-19
1.800000E+03	6.207814E-18	1.846344E-19
1.840000E+03	6.272333E-18	1.861136E-19
1.880000E+03	6.342009E-18	1.877253E-19
1.920000E+03	6.414926E-18	1.894111E-19
1.960000E+03	6.494742E-18	1.912776E-19
2.000000E+03	6.578441E-18	1.932340E-19
2.040000E+03	6.669804E-18	1.953893E-19
2.080000E+03	6.765797E-18	1.976524E-19
2.120000E+03	6.869162E-18	2.001013E-19
2.160000E+03	6.980399E-18	2.027479E-19
2.200000E+03	7.098836E-18	2.055696E-19
2.240000E+03	7.226246E-18	2.086150E-19
2.280000E+03	7.362013E-18	2.118629E-19
2.320000E+03	7.508051E-18	2.153648E-19
2.360000E+03	7.663821E-18	2.191013E-19
2.400000E+03	7.830084E-18	2.230899E-19
2.440000E+03	8.010369E-18	2.274265E-19
2.480000E+03	8.202992E-18	2.320579E-19
2.520000E+03	8.408957E-18	2.370070E-19
2.560000E+03	8.630807E-18	2.423394E-19
2.600000E+03	8.869856E-18	2.480851E-19
2.640000E+03	9.126036E-18	2.542345E-19
2.680000E+03	9.400826E-18	2.608211E-19
2.720000E+03	9.699050E-18	2.679695E-19
2.760000E+03	1.001949E-17	2.756358E-19
2.800000E+03	1.036415E-17	2.838644E-19
2.840000E+03	1.073699E-17	2.927516E-19
2.880000E+03	1.114061E-17	3.023550E-19
2.920000E+03	1.157603E-17	3.126873E-19
2.960000E+03	1.204820E-17	3.238656E-19
3.000000E+03	1.255861E-17	3.359120E-19
3.010000E+03	1.269210E-17	3.390549E-19
3.020000E+03	1.283031E-17	3.423124E-19
3.030000E+03	1.296922E-17	3.455773E-19
3.040000E+03	1.311303E-17	3.489608E-19
3.050000E+03	1.325973E-17	3.524095E-19
3.060000E+03	1.340727E-17	3.558682E-19
3.070000E+03	1.355995E-17	3.594510E-19
3.080000E+03	1.371357E-17	3.630457E-19
3.090000E+03	1.387253E-17	3.667689E-19
3.100000E+03	1.403474E-17	3.705645E-19
3.110000E+03	1.420029E-17	3.744346E-19
3.120000E+03	1.436698E-17	3.783209E-19
3.130000E+03	1.453941E-17	3.823439E-19
3.140000E+03	1.471540E-17	3.864459E-19
3.150000E+03	1.489507E-17	3.906292E-19
3.160000E+03	1.507847E-17	3.948954E-19
3.170000E+03	1.526572E-17	3.992462E-19
3.180000E+03	1.545688E-17	4.036834E-19
3.190000E+03	1.565207E-17	4.082093E-19
3.200000E+03	1.585135E-17	4.128251E-19
3.210000E+03	1.605486E-17	4.175335E-19
3.220000E+03	1.626266E-17	4.223361E-19
3.230000E+03	1.647488E-17	4.272352E-19
3.240000E+03	1.669422E-17	4.323004E-19
3.250000E+03	1.691561E-17	4.373996E-19
3.260000E+03	1.714173E-17	4.426016E-19
3.270000E+03	1.737267E-17	4.479084E-19
3.280000E+03	1.761133E-17	4.533936E-19
3.290000E+03	1.785235E-17	4.589187E-19
3.300000E+03	1.809857E-17	4.645561E-19
3.310000E+03	1.835294E-17	4.703807E-19
3.320000E+03	1.860995E-17	4.762506E-19
3.330000E+03	1.887545E-17	4.823147E-19
3.340000E+03	1.914377E-17	4.884272E-19
3.350000E+03	1.942093E-17	4.947411E-19
3.360000E+03	1.970109E-17	5.011068E-19
3.370000E+03	1.999045E-17	5.076812E-19
3.380000E+03	2.028302E-17	5.143113E-19
3.390000E+03	2.058515E-17	5.211572E-19
3.400000E+03	2.089072E-17	5.280629E-19
3.410000E+03	2.120624E-17	5.351923E-19
3.420000E+03	2.152871E-17	5.424686E-19
3.430000E+03	2.185495E-17	5.498104E-19
3.440000E+03	2.219175E-17	5.573883E-19
3.450000E+03	2.253600E-17	5.651223E-19
3.460000E+03	2.288784E-17	5.730154E-19
3.470000E+03	2.324749E-17	5.810715E-19
3.480000E+03	2.361149E-17	5.892036E-19
3.490000E+03	2.398717E-17	5.975934E-19
3.500000E+03	2.437118E-17	6.061560E-19
3.510000E+03	2.476370E-17	6.148947E-19
3.520000E+03	2.516490E-17	6.238128E-19
3.530000E+03	2.557500E-17	6.329140E-19
3.540000E+03	2.599418E-17	6.422018E-19
3.550000E+03	2.642264E-17	6.516799E-19
3.560000E+03	2.686057E-17	6.613516E-19
3.570000E+03	2.730818E-17	6.712207E-19
3.580000E+03	2.776568E-17	6.812909E-19
3.590000E+03	2.823328E-17	6.915658E-19
3.600000E+03	2.871116E-17	7.020489E-19
3.610000E+03	2.919954E-17	7.127436E-19
3.620000E+03	2.969865E-17	7.236541E-19
3.630000E+03	3.020868E-17	7.347835E-19
3.640000E+03	3.072986E-17	7.461358E-19
3.650000E+03	3.126237E-17	7.577137E-19
3.660000E+03	3.181118E-17	7.696360E-19
3.670000E+03	3.236710E-17	7.816785E-19
3.680000E+03	3.293500E-17	7.939572E-19
3.690000E+03	3.351509E-17	8.064756E-19
3.700000E+03	3.410755E-17	8.192363E-19
3.710000E+03	3.471261E-17	8.322430E-19
3.720000E+03	3.533567E-17	8.456229E-19
3.730000E+03	3.596657E-17	8.591310E-19
3.740000E+03	3.661063E-17	8.728930E-19
3.750000E+03	3.726804E-17	8.869112E-19
3.760000E+03	3.794452E-17	9.013198E-19
3.770000E+03	3.862921E-17	9.158584E-19
3.780000E+03	3.932771E-17	9.306585E-19
3.790000E+03	4.004017E-17	9.457213E-19
3.800000E+03	4.077270E-17	9.611889E-19
3.810000E+03	4.151357E-17	9.767826E-19
3.820000E+03	4.226874E-17	9.926412E-19
3.830000E+03	4.304456E-17	1.008911E-18
3.840000E+03	4.382867E-17	1.025300E-18
3.850000E+03	4.462726E-17	1.041952E-18
3.860000E+03	4.544696E-17	1.059019E-18
3.870000E+03	4.627468E-17	1.076193E-18
3.880000E+03	4.711687E-17	1.093623E-18
3.890000E+03	4.797345E-17	1.111306E-18
3.900000E+03	4.885141E-17	1.129400E-18
3.910000E+03	4.973662E-17	1.147576E-18
3.920000E+03	5.063585E-17	1.165989E-18
3.930000E+03	5.155633E-17	1.184804E-18
3.940000E+03	5.248308E-17	1.203674E-18
3.950000E+03	5.342315E-17	1.222758E-18
3.960000E+03	5.438398E-17	1.242226E-18
3.970000E+03	5.534973E-17	1.261713E-18
3.980000E+03	5.632765E-17	1.281383E-18
3.990000E+03	5.731724E-17	1.301223E-18
4.000000E+03	5.832629E-17	1.321408E-18
4.010000E+03	5.933771E-17	1.341549E-18
4.020000E+03	6.035900E-17	1.361815E-18
4.030000E+03	6.138948E-17	1.382188E-18
4.040000E+03	6.243719E-17	1.402850E-18
4.050000E+03	6.348371E-17	1.423383E-18
4.060000E+03	6.453685E-17	1.443963E-18
4.070000E+03	6.559562E-17	1.464566E-18
4.080000E+03	6.666840E-17	1.485380E-18
4.090000E+03	6.773532E-17	1.505960E-18
4.100000E+03	6.880453E-17	1.526488E-18
4.110000E+03	6.987471E-17	1.546934E-18
4.120000E+03	7.094459E-17	1.567271E-18
4.130000E+03	7.201272E-17	1.587466E-18
4.140000E+03	7.308795E-17	1.607716E-18
4.150000E+03	7.414837E-17	1.627537E-18
4.160000E+03	7.520255E-17	1.647120E-18
4.170000E+03	7.624884E-17	1.666431E-18
4.180000E+03	7.728563E-17	1.685434E-18
4.190000E+03	7.831121E-17	1.704095E-18
4.200000E+03	7.932385E-17	1.722379E-18
4.210000E+03	8.032184E-17	1.740249E-18
4.220000E+03	8.130343E-17	1.757671E-18
4.230000E+03	8.226690E-17	1.774611E-18
4.240000E+03	8.321051E-17	1.791033E-18
4.250000E+03	8.413262E-17	1.806905E-18
4.260000E+03	8.503156E-17	1.822196E-18
4.270000E+03	8.589387E-17	1.836622E-18
4.280000E+03	8.674176E-17	1.850661E-18
4.290000E+03	8.756204E-17	1.864035E-18
4.300000E+03	8.835343E-17	1.876722E-18
4.310000E+03	8.911476E-17	1.888701E-18
4.320000E+03	8.983265E-17	1.899694E-18
4.330000E+03	9.053083E-17	1.910209E-18
4.340000E+03	9.119624E-17	1.919973E-18
4.350000E+03	9.181553E-17	1.928712E-18
4.360000E+03	9.241315E-17	1.936945E-18
4.370000E+03	9.297578E-17	1.944397E-18
4.380000E+03	9.348970E-17	1.950787E-18
4.390000E+03	9.397931E-17	1.956631E-18
4.400000E+03	9.441861E-17	1.961391E-18
4.410000E+03	9.483363E-17	1.965617E-18
4.420000E+03	9.519871E-17	1.968780E-18
4.430000E+03	9.553976E-17	1.971423E-18
4.440000E+03	9.583072E-17	1.973014E-18
4.450000E+03	9.608456E-17	1.973825E-18
4.460000E+03	9.631443E-17	1.974132E-18
4.470000E+03	9.649438E-17	1.973408E-18
4.480000E+03	9.663783E-17	1.971932E-18
4.490000E+03	9.674527E-17	1.969721E-18
4.500000E+03	9.681737E-17	1.966793E-18
4.510000E+03	9.686804E-17	1.963434E-18
4.520000E+03	9.687205E-17	1.959138E-18
4.530000E+03	9.684356E-17	1.954196E-18
4.540000E+03	9.678378E-17	1.948637E-18
4.550000E+03	9.669400E-17	1.942492E-18
4.560000E+03	9.657560E-17	1.935793E-18
4.570000E+03	9.641707E-17	1.928312E-18
4.580000E+03	9.624585E-17	1.920603E-18
4.590000E+03	9.605050E-17	1.912440E-18
4.600000E+03	9.583262E-17	1.903858E-18
4.610000E+03	9.559379E-17	1.894891E-18
4.620000E+03	9.532290E-17	1.885323E-18
4.630000E+03	9.504710E-17	1.875693E-18
4.640000E+03	9.475519E-17	1.865782E-18
4.650000E+03	9.443622E-17	1.855376E-18
4.660000E+03	9.411695E-17	1.845005E-18
4.670000E+03	9.377385E-17	1.834206E-18
4.680000E+03	9.343343E-17	1.823502E-18
4.690000E+03	9.307226E-17	1.812436E-18
4.700000E+03	9.270426E-17	1.801281E-18
4.710000E+03	9.234308E-17	1.790302E-18
4.720000E+03	9.196550E-17	1.779049E-18
4.730000E+03	9.158513E-17	1.767788E-18
4.740000E+03	9.120318E-17	1.756541E-18
4.750000E+03	9.082085E-17	1.745334E-18
4.760000E+03	9.043926E-17	1.734186E-18
4.770000E+03	9.005947E-17	1.723118E-18
4.780000E+03	8.968250E-17	1.712150E-18
4.790000E+03	8.930931E-17	1.701299E-18
4.800000E+03	8.894079E-17	1.690583E-18
4.810000E+03	8.857777E-17	1.680016E-18
4.820000E+03	8.822105E-17	1.669613E-18
4.830000E+03	8.785979E-17	1.659169E-18
4.840000E+03	8.751784E-17	1.649134E-18
4.850000E+03	8.718420E-17	1.639298E-18
4.860000E+03	8.684808E-17	1.629459E-18
4.870000E+03	8.653279E-17	1.620053E-18
4.880000E+03	8.621610E-17	1.610663E-18
4.890000E+03	8.592105E-17	1.601718E-18
4.900000E+03	8.562548E-17	1.592805E-18
4.910000E+03	8.534102E-17	1.584138E-18
4.920000E+03	8.507904E-17	1.575928E-18
4.930000E+03	8.481753E-17	1.567765E-18
4.940000E+03	8.456785E-17	1.559859E-18
4.950000E+03	8.433015E-17	1.552212E-18
4.960000E+03	8.410454E-17	1.544825E-18
4.970000E+03	8.389110E-17	1.537698E-18
4.980000E+03	8.368989E-17	1.530830E-18
4.990000E+03	8.350089E-17	1.524221E-18
5.000000E+03	8.332409E-17	1.517870E-18
5.010000E+03	8.315941E-17	1.511773E-18
5.020000E+03	8.300673E-17	1.505928E-18
5.030000E+03	8.285522E-17	1.500137E-18
5.040000E+03	8.272617E-17	1.494787E-18
5.050000E+03	8.259793E-17	1.489483E-18
5.060000E+03	8.249170E-17	1.484608E-18
5.070000E+03	8.239646E-17	1.479963E-18
5.080000E+03	8.230129E-17	1.475350E-18
5.090000E+03	8.221652E-17	1.470955E-18
5.100000E+03	8.215239E-17	1.466961E-18
5.110000E+03	8.208728E-17	1.462979E-18
5.120000E+03	8.203138E-17	1.459193E-18
5.130000E+03	8.198421E-17	1.455593E-18
5.140000E+03	8.194530E-17	1.452171E-18
5.150000E+03	8.192466E-17	1.449103E-18
5.160000E+03	8.190065E-17	1.446007E-18
5.170000E+03	8.188322E-17	1.443057E-18
5.180000E+03	8.186125E-17	1.440060E-18
5.190000E+03	8.185513E-17	1.437374E-18
5.200000E+03	8.185368E-17	1.434802E-18
5.210000E+03	8.185620E-17	1.432332E-18
5.220000E+03	8.186196E-17	1.429952E-18
5.230000E+03	8.185970E-17	1.427465E-18
5.240000E+03	8.186968E-17	1.425226E-18
5.250000E+03	8.187009E-17	1.422856E-18
5.260000E+03	8.188109E-17	1.420706E-18
5.270000E+03	8.188090E-17	1.418398E-18
5.280000E+03	8.188964E-17	1.416282E-18
5.290000E+03	8.188549E-17	1.413982E-18
5.300000E+03	8.187809E-17	1.411665E-18
5.310000E+03	8.186661E-17	1.409317E-18
5.320000E+03	8.186064E-17	1.407106E-18
5.330000E+03	8.183846E-17	1.404658E-18
5.340000E+03	8.180973E-17	1.402141E-18
5.350000E+03	8.177374E-17	1.399544E-18
5.360000E+03	8.172975E-17	1.396855E-18
5.370000E+03	8.167717E-17	1.394067E-18
5.380000E+03	8.161542E-17	1.391169E-18
5.390000E+03	8.153369E-17	1.387980E-18
5.400000E+03	8.145242E-17	1.384850E-18
5.410000E+03	8.136099E-17	1.381597E-18
5.420000E+03	8.125927E-17	1.378222E-18
5.430000E+03	8.113694E-17	1.374551E-18
5.440000E+03	8.101471E-17	1.370936E-18
5.450000E+03	8.087194E-17	1.367028E-18
5.460000E+03	8.072914E-17	1.363176E-18
5.470000E+03	8.056535E-17	1.359027E-18
5.480000E+03	8.038996E-17	1.354739E-18
5.490000E+03	8.021164E-17	1.350457E-18
5.500000E+03	8.000891E-17	1.345821E-18
5.510000E+03	7.979364E-17	1.341030E-18
5.520000E+03	7.956732E-17	1.336109E-18
5.530000E+03	7.934093E-17	1.331241E-18
5.540000E+03	7.909473E-17	1.326095E-18
5.550000E+03	7.883903E-17	1.320843E-18
5.560000E+03	7.857394E-17	1.315488E-18
5.570000E+03	7.829953E-17	1.310028E-18
5.580000E+03	7.800609E-17	1.304303E-18
5.590000E+03	7.771368E-17	1.298645E-18
5.600000E+03	7.741273E-17	1.292896E-18
5.610000E+03	7.710371E-17	1.287061E-18
5.620000E+03	7.678717E-17	1.281150E-18
5.630000E+03	7.645407E-17	1.275010E-18
5.640000E+03	7.612450E-17	1.268977E-18
5.650000E+03	7.577991E-17	1.262740E-18
5.660000E+03	7.544026E-17	1.256631E-18
5.670000E+03	7.508725E-17	1.250345E-18
5.680000E+03	7.474072E-17	1.244210E-18
5.690000E+03	7.438253E-17	1.237924E-18
5.700000E+03	7.403233E-17	1.231814E-18
5.710000E+03	7.367217E-17	1.225580E-18
5.720000E+03	7.331221E-17	1.219389E-18
5.730000E+03	7.295321E-17	1.213255E-18
5.740000E+03	7.259588E-17	1.207187E-18
5.750000E+03	7.225006E-17	1.201348E-18
5.760000E+03	7.189812E-17	1.195445E-18
5.770000E+03	7.154987E-17	1.189640E-18
5.780000E+03	7.120591E-17	1.183943E-18
5.790000E+03	7.086681E-17	1.178361E-18
5.800000E+03	7.053311E-17	1.172903E-18
5.810000E+03	7.019646E-17	1.167429E-18
5.820000E+03	6.987508E-17	1.162243E-18
5.830000E+03	6.956052E-17	1.157202E-18
5.840000E+03	6.925320E-17	1.152313E-18
5.850000E+03	6.895345E-17	1.147582E-18
5.860000E+03	6.865299E-17	1.142869E-18
5.870000E+03	6.836946E-17	1.138468E-18
5.880000E+03	6.808587E-17	1.134096E-18
5.890000E+03	6.781967E-17	1.130043E-18
5.900000E+03	6.756246E-17	1.126168E-18
5.910000E+03	6.730594E-17	1.122332E-18
5.920000E+03	6.706727E-17	1.118823E-18
5.930000E+03	6.682964E-17	1.115359E-18
5.940000E+03	6.660165E-17	1.112082E-18
5.950000E+03	6.639174E-17	1.109135E-18
5.960000E+03	6.618319E-17	1.106238E-18
5.970000E+03	6.598443E-17	1.103531E-18
5.980000E+03	6.579544E-17	1.101013E-18
5.990000E+03	6.562449E-17	1.098825E-18
6.000000E+03	6.545495E-17	1.096686E-18
6.010000E+03	6.529504E-17	1.094735E-18
6.020000E+03	6.514468E-17	1.092970E-18
6.030000E+03	6.500372E-17	1.091389E-18
6.040000E+03	6.487204E-17	1.089990E-18
6.050000E+03	6.474945E-17	1.088771E-18
6.060000E+03	6.463577E-17	1.087727E-18
6.070000E+03	6.453079E-17	1.086857E-18
6.080000E+03	6.443425E-17	1.086155E-18
6.090000E+03	6.434591E-17	1.085618E-18
6.100000E+03	6.425737E-17	1.085105E-18
6.110000E+03	6.418454E-17	1.084884E-18
6.120000E+03	6.411898E-17	1.084813E-18
6.130000E+03	6.406031E-17	1.084886E-18
6.140000E+03	6.400012E-17	1.084961E-18
6.150000E+03	6.395411E-17	1.085304E-18
6.160000E+03	6.391381E-17	1.085772E-18
6.170000E+03	6.387069E-17	1.086221E-18
6.180000E+03	6.384039E-17	1.086916E-18
6.190000E+03	6.380631E-17	1.087575E-18
6.200000E+03	6.378402E-17	1.088464E-18
6.210000E+03	6.375688E-17	1.089299E-18
6.220000E+03	6.374040E-17	1.090346E-18
6.230000E+03	6.371790E-17	1.091319E-18
6.240000E+03	6.370484E-17	1.092484E-18
6.250000E+03	6.368451E-17	1.093554E-18
6.260000E+03	6.366428E-17	1.094655E-18
6.270000E+03	6.365150E-17	1.095915E-18
6.280000E+03	6.362941E-17	1.097044E-18
6.290000E+03	6.360532E-17	1.098169E-18
6.300000E+03	6.357851E-17	1.099277E-18
6.310000E+03	6.355625E-17	1.100494E-18
6.320000E+03	6.352174E-17	1.101529E-18
6.330000E+03	6.348226E-17	1.102508E-18
6.340000E+03	6.343705E-17	1.103416E-18
6.350000E+03	6.338536E-17	1.104242E-18
6.360000E+03	6.332644E-17	1.104970E-18
6.370000E+03	6.325959E-17	1.105590E-18
6.380000E+03	6.318409E-17	1.106086E-18
6.390000E+03	6.309931E-17	1.106448E-18
6.400000E+03	6.300463E-17	1.106664E-18
6.410000E+03	6.289950E-17	1.106723E-18
6.420000E+03	6.278343E-17	1.106616E-18
6.430000E+03	6.265602E-17	1.106334E-18
6.440000E+03	6.251697E-17	1.105871E-18
6.450000E+03	6.236605E-17	1.105221E-18
6.460000E+03	6.220315E-17	1.104378E-18
6.470000E+03	6.202038E-17	1.103202E-18
6.480000E+03	6.183346E-17	1.101969E-18
6.490000E+03	6.163453E-17	1.100538E-18
6.500000E+03	6.142348E-17	1.098905E-18
6.510000E+03	6.119225E-17	1.096922E-18
6.520000E+03	6.095569E-17	1.094854E-18
6.530000E+03	6.070498E-17	1.092540E-18
6.540000E+03	6.043229E-17	1.089837E-18
6.550000E+03	6.015441E-17	1.087045E-18
6.560000E+03	5.986477E-17	1.084043E-18
6.570000E+03	5.955648E-17	1.080704E-18
6.580000E+03	5.924511E-17	1.077308E-18
6.590000E+03	5.891593E-17	1.073585E-18
6.600000E+03	5.858419E-17	1.069812E-18
6.610000E+03	5.823528E-17	1.065719E-18
6.620000E+03	5.788439E-17	1.061582E-18
6.630000E+03	5.751723E-17	1.057137E-18
6.640000E+03	5.714172E-17	1.052528E-18
6.650000E+03	5.676565E-17	1.047896E-18
6.660000E+03	5.637522E-17	1.042985E-18
6.670000E+03	5.598550E-17	1.038071E-18
6.680000E+03	5.558295E-17	1.032904E-18
6.690000E+03	5.517553E-17	1.027627E-18
6.700000E+03	5.477095E-17	1.022385E-18
6.710000E+03	5.435605E-17	1.016929E-18
6.720000E+03	5.393858E-17	1.011404E-18
6.730000E+03	5.351934E-17	1.005824E-18
6.740000E+03	5.309908E-17	1.000201E-18
6.750000E+03	5.268522E-17	9.946746E-19
6.760000E+03	5.226503E-17	9.890043E-19
6.770000E+03	5.184593E-17	9.833294E-19
6.780000E+03	5.142859E-17	9.776620E-19
6.790000E+03	5.101362E-17	9.720132E-19
6.800000E+03	5.060162E-17	9.663944E-19
6.810000E+03	5.019316E-17	9.608160E-19
6.820000E+03	4.978878E-17	9.552884E-19
6.830000E+03	4.939526E-17	9.499420E-19
6.840000E+03	4.900043E-17	9.445431E-19
6.850000E+03	4.861109E-17	9.392223E-19
6.860000E+03	4.822150E-17	9.338688E-19
6.870000E+03	4.784440E-17	9.287291E-19
6.880000E+03	4.747392E-17	9.236905E-19
6.890000E+03	4.711041E-17	9.187603E-19
6.900000E+03	4.675416E-17	9.139445E-19
6.910000E+03	4.640547E-17	9.092496E-19
6.920000E+03	4.606458E-17	9.046809E-19
6.930000E+03	4.573174E-17	9.002441E-19
6.940000E+03	4.540714E-17	8.959437E-19
6.950000E+03	4.508522E-17	8.916705E-19
6.960000E+03	4.477771E-17	8.876571E-19
6.970000E+03	4.447899E-17	8.837934E-19
6.980000E+03	4.418917E-17	8.800825E-19
6.990000E+03	4.390277E-17	8.764159E-19
7.000000E+03	4.363117E-17	8.730216E-19
7.010000E+03	4.336880E-17	8.697897E-19
7.020000E+03	4.311023E-17	8.666121E-19
7.030000E+03	4.286661E-17	8.637134E-19
7.040000E+03	4.263242E-17	8.609845E-19
7.050000E+03	4.240231E-17	8.583177E-19
7.060000E+03	4.218719E-17	8.559349E-19
7.070000E+03	4.197625E-17	8.536183E-19
7.080000E+03	4.178031E-17	8.515887E-19
7.090000E+03	4.159397E-17	8.497375E-19
7.100000E+03	4.141193E-17	8.479576E-19
7.110000E+03	4.124483E-17	8.464678E-19
7.120000E+03	4.108206E-17	8.450516E-19
7.130000E+03	4.092893E-17	8.438190E-19
7.140000E+03	4.079066E-17	8.428790E-19
7.150000E+03	4.065671E-17	8.420155E-19
7.160000E+03	4.053756E-17	8.414462E-19
7.170000E+03	4.042272E-17	8.409547E-19
7.180000E+03	4.031739E-17	8.406503E-19
7.190000E+03	4.022670E-17	8.406413E-19
7.200000E+03	4.014026E-17	8.407117E-19
7.210000E+03	4.006321E-17	8.409700E-19
7.220000E+03	4.000066E-17	8.415251E-19
7.230000E+03	3.994224E-17	8.421603E-19
7.240000E+03	3.989308E-17	8.429840E-19
7.250000E+03	3.985311E-17	8.439963E-19
7.260000E+03	3.982227E-17	8.451971E-19
7.270000E+03	3.980566E-17	8.466960E-19
7.280000E+03	3.979294E-17	8.482744E-19
7.290000E+03	3.978917E-17	8.500407E-19
7.300000E+03	3.979431E-17	8.519954E-19
7.310000E+03	3.980826E-17	8.541374E-19
7.320000E+03	3.983098E-17	8.564671E-19
7.330000E+03	3.986237E-17	8.589835E-19
7.340000E+03	3.990236E-17	8.616859E-19
7.350000E+03	3.995089E-17	8.645743E-19
7.360000E+03	4.000785E-17	8.676472E-19
7.370000E+03	4.007314E-17	8.709039E-19
7.380000E+03	4.014670E-17	8.743438E-19
7.390000E+03	4.022840E-17	8.779653E-19
7.400000E+03	4.031815E-17	8.817673E-19
7.410000E+03	4.041583E-17	8.857482E-19
7.420000E+03	4.051606E-17	8.897910E-19
7.430000E+03	4.062924E-17	8.941248E-19
7.440000E+03	4.074996E-17	8.986319E-19
7.450000E+03	4.087812E-17	9.033109E-19
7.460000E+03	4.101354E-17	9.081590E-19
7.470000E+03	4.115071E-17	9.130547E-19
7.480000E+03	4.130016E-17	9.182324E-19
7.490000E+03	4.145638E-17	9.235706E-19
7.500000E+03	4.161374E-17	9.289448E-19
7.510000E+03	4.178287E-17	9.345926E-19
7.520000E+03	4.195818E-17	9.403901E-19
7.530000E+03	4.213390E-17	9.462091E-19
7.540000E+03	4.232078E-17	9.522907E-19
7.550000E+03	4.250755E-17	9.583824E-19
7.560000E+03	4.270500E-17	9.647282E-19
7.570000E+03	4.290170E-17	9.710705E-19
7.580000E+03	4.310855E-17	9.776561E-19
7.590000E+03	4.331397E-17	9.842234E-19
7.600000E+03	4.352891E-17	9.910213E-19
7.610000E+03	4.374165E-17	9.977837E-19
7.620000E+03	4.395746E-17	1.004631E-18
7.630000E+03	4.418175E-17	1.011686E-18
7.640000E+03	4.440251E-17	1.018676E-18
7.650000E+03	4.462506E-17	1.025722E-18
7.660000E+03	4.485483E-17	1.032949E-18
7.670000E+03	4.507955E-17	1.040075E-18
7.680000E+03	4.530457E-17	1.047223E-18
7.690000E+03	4.552934E-17	1.054379E-18
7.700000E+03	4.575931E-17	1.061672E-18
7.710000E+03	4.598187E-17	1.068807E-18
7.720000E+03	4.620239E-17	1.075909E-18
7.730000E+03	4.642022E-17	1.082962E-18
7.740000E+03	4.663470E-17	1.089951E-18
7.750000E+03	4.684512E-17	1.096859E-18
7.760000E+03	4.705077E-17	1.103668E-18
