#wls	flux	fluxerr
1.600000E+03	4.319710E-18	1.418509E-19
1.640000E+03	4.347669E-18	1.424242E-19
1.680000E+03	4.376572E-18	1.430155E-19
1.720000E+03	4.408095E-18	1.436787E-19
1.760000E+03	4.441592E-18	1.443919E-19
1.800000E+03	4.477199E-18	1.451586E-19
1.840000E+03	4.515064E-18	1.459827E-19
1.880000E+03	4.555344E-18	1.468682E-19
1.920000E+03	4.598214E-18	1.478197E-19
1.960000E+03	4.644678E-18	1.488682E-19
2.000000E+03	4.694130E-18	1.499928E-19
2.040000E+03	4.745944E-18	1.511722E-19
2.080000E+03	4.802029E-18	1.524658E-19
2.120000E+03	4.861803E-18	1.538534E-19
2.160000E+03	4.926414E-18	1.553693E-19
2.200000E+03	4.994432E-18	1.569665E-19
2.240000E+03	5.067933E-18	1.587083E-19
2.280000E+03	5.145501E-18	1.605479E-19
2.320000E+03	5.229321E-18	1.625510E-19
2.360000E+03	5.318925E-18	1.647004E-19
2.400000E+03	5.414782E-18	1.670075E-19
2.440000E+03	5.517400E-18	1.694847E-19
2.480000E+03	5.628328E-18	1.721761E-19
2.520000E+03	5.746229E-18	1.750367E-19
2.560000E+03	5.873776E-18	1.781438E-19
2.600000E+03	6.010739E-18	1.814856E-19
2.640000E+03	6.157946E-18	1.850819E-19
2.680000E+03	6.316321E-18	1.889549E-19
2.720000E+03	6.488009E-18	1.931624E-19
2.760000E+03	6.671918E-18	1.976649E-19
2.800000E+03	6.871593E-18	2.025600E-19
2.840000E+03	7.087310E-18	2.078472E-19
2.880000E+03	7.319367E-18	2.135261E-19
2.920000E+03	7.571996E-18	2.197102E-19
2.960000E+03	7.847270E-18	2.264476E-19
3.000000E+03	8.144701E-18	2.337114E-19
3.010000E+03	8.223005E-18	2.356220E-19
3.020000E+03	8.302967E-18	2.375722E-19
3.030000E+03	8.384627E-18	2.395630E-19
3.040000E+03	8.468031E-18	2.415954E-19
3.050000E+03	8.554694E-18	2.437123E-19
3.060000E+03	8.641731E-18	2.458313E-19
3.070000E+03	8.730649E-18	2.479950E-19
3.080000E+03	8.821496E-18	2.502045E-19
3.090000E+03	8.914320E-18	2.524609E-19
3.100000E+03	9.009173E-18	2.547655E-19
3.110000E+03	9.106107E-18	2.571192E-19
3.120000E+03	9.206757E-18	2.595680E-19
3.130000E+03	9.308035E-18	2.620244E-19
3.140000E+03	9.411563E-18	2.645338E-19
3.150000E+03	9.517398E-18	2.670976E-19
3.160000E+03	9.625604E-18	2.697171E-19
3.170000E+03	9.737908E-18	2.724403E-19
3.180000E+03	9.851058E-18	2.751759E-19
3.190000E+03	9.966772E-18	2.779715E-19
3.200000E+03	1.008512E-17	2.808287E-19
3.210000E+03	1.020616E-17	2.837490E-19
3.220000E+03	1.033175E-17	2.867830E-19
3.230000E+03	1.045843E-17	2.898348E-19
3.240000E+03	1.058805E-17	2.929547E-19
3.250000E+03	1.072066E-17	2.961444E-19
3.260000E+03	1.085822E-17	2.994567E-19
3.270000E+03	1.099711E-17	3.027919E-19
3.280000E+03	1.113926E-17	3.062024E-19
3.290000E+03	1.128667E-17	3.097430E-19
3.300000E+03	1.143562E-17	3.133106E-19
3.310000E+03	1.158810E-17	3.169594E-19
3.320000E+03	1.174421E-17	3.206917E-19
3.330000E+03	1.190606E-17	3.245647E-19
3.340000E+03	1.206975E-17	3.284709E-19
3.350000E+03	1.223736E-17	3.324671E-19
3.360000E+03	1.241113E-17	3.366129E-19
3.370000E+03	1.258697E-17	3.407968E-19
3.380000E+03	1.276707E-17	3.450780E-19
3.390000E+03	1.295376E-17	3.495185E-19
3.400000E+03	1.314279E-17	3.540026E-19
3.410000E+03	1.333645E-17	3.585918E-19
3.420000E+03	1.353716E-17	3.633500E-19
3.430000E+03	1.374051E-17	3.681584E-19
3.440000E+03	1.394886E-17	3.730797E-19
3.450000E+03	1.416480E-17	3.781817E-19
3.460000E+03	1.438368E-17	3.833398E-19
3.470000E+03	1.460801E-17	3.886203E-19
3.480000E+03	1.484045E-17	3.940928E-19
3.490000E+03	1.507617E-17	3.996284E-19
3.500000E+03	1.532042E-17	4.053649E-19
3.510000E+03	1.556819E-17	4.111691E-19
3.520000E+03	1.582220E-17	4.171121E-19
3.530000E+03	1.608535E-17	4.232692E-19
3.540000E+03	1.635242E-17	4.295020E-19
3.550000E+03	1.662627E-17	4.358844E-19
3.560000E+03	1.690991E-17	4.424948E-19
3.570000E+03	1.719790E-17	4.491892E-19
3.580000E+03	1.749616E-17	4.561213E-19
3.590000E+03	1.779907E-17	4.631432E-19
3.600000E+03	1.810970E-17	4.703341E-19
3.610000E+03	1.843136E-17	4.777788E-19
3.620000E+03	1.875812E-17	4.853214E-19
3.630000E+03	1.909645E-17	4.931290E-19
3.640000E+03	1.944019E-17	5.010408E-19
3.650000E+03	1.979271E-17	5.091426E-19
3.660000E+03	2.015765E-17	5.175263E-19
3.670000E+03	2.052850E-17	5.260236E-19
3.680000E+03	2.091233E-17	5.348139E-19
3.690000E+03	2.130242E-17	5.437241E-19
3.700000E+03	2.170245E-17	5.528468E-19
3.710000E+03	2.211637E-17	5.622810E-19
3.720000E+03	2.253707E-17	5.718441E-19
3.730000E+03	2.297228E-17	5.817307E-19
3.740000E+03	2.341462E-17	5.917523E-19
3.750000E+03	2.386811E-17	6.020090E-19
3.760000E+03	2.433707E-17	6.126081E-19
3.770000E+03	2.481368E-17	6.233505E-19
3.780000E+03	2.530642E-17	6.344477E-19
3.790000E+03	2.580712E-17	6.456930E-19
3.800000E+03	2.632460E-17	6.573053E-19
3.810000E+03	2.685039E-17	6.690709E-19
3.820000E+03	2.738901E-17	6.811014E-19
3.830000E+03	2.794537E-17	6.935162E-19
3.840000E+03	2.851044E-17	7.060894E-19
3.850000E+03	2.909390E-17	7.190586E-19
3.860000E+03	2.968631E-17	7.321886E-19
3.870000E+03	3.029266E-17	7.456004E-19
3.880000E+03	3.091825E-17	7.594228E-19
3.890000E+03	3.155308E-17	7.734072E-19
3.900000E+03	3.220772E-17	7.878113E-19
3.910000E+03	3.287170E-17	8.023764E-19
3.920000E+03	3.355041E-17	8.172324E-19
3.930000E+03	3.424964E-17	8.325179E-19
3.940000E+03	3.495820E-17	8.479589E-19
3.950000E+03	3.568176E-17	8.636908E-19
3.960000E+03	3.642637E-17	8.798581E-19
3.970000E+03	3.718009E-17	8.961695E-19
3.980000E+03	3.795511E-17	9.129175E-19
3.990000E+03	3.873890E-17	9.297982E-19
4.000000E+03	3.953755E-17	9.469561E-19
4.010000E+03	4.035760E-17	9.645456E-19
4.020000E+03	4.118565E-17	9.822441E-19
4.030000E+03	4.202802E-17	1.000201E-18
4.040000E+03	4.289153E-17	1.018577E-18
4.050000E+03	4.376180E-17	1.037028E-18
4.060000E+03	4.464540E-17	1.055709E-18
4.070000E+03	4.554942E-17	1.074785E-18
4.080000E+03	4.645842E-17	1.093890E-18
4.090000E+03	4.737923E-17	1.113185E-18
4.100000E+03	4.831916E-17	1.132839E-18
4.110000E+03	4.926167E-17	1.152463E-18
4.120000E+03	5.021377E-17	1.172220E-18
4.130000E+03	5.118300E-17	1.192287E-18
4.140000E+03	5.215166E-17	1.212248E-18
4.150000E+03	5.312692E-17	1.232271E-18
4.160000E+03	5.411652E-17	1.252535E-18
4.170000E+03	5.510149E-17	1.272601E-18
4.180000E+03	5.608918E-17	1.292638E-18
4.190000E+03	5.707808E-17	1.312613E-18
4.200000E+03	5.807611E-17	1.332708E-18
4.210000E+03	5.906255E-17	1.352447E-18
4.220000E+03	6.004492E-17	1.372006E-18
4.230000E+03	6.103121E-17	1.391567E-18
4.240000E+03	6.199940E-17	1.410630E-18
4.250000E+03	6.295707E-17	1.429371E-18
4.260000E+03	6.390179E-17	1.447736E-18
4.270000E+03	6.483101E-17	1.465672E-18
4.280000E+03	6.575282E-17	1.483363E-18
4.290000E+03	6.664299E-17	1.500266E-18
4.300000E+03	6.750920E-17	1.516559E-18
4.310000E+03	6.834839E-17	1.532179E-18
4.320000E+03	6.915736E-17	1.547057E-18
4.330000E+03	6.994430E-17	1.561383E-18
4.340000E+03	7.068298E-17	1.574576E-18
4.350000E+03	7.138117E-17	1.586816E-18
4.360000E+03	7.203513E-17	1.598028E-18
4.370000E+03	7.264090E-17	1.608130E-18
4.380000E+03	7.319462E-17	1.617045E-18
4.390000E+03	7.370531E-17	1.624980E-18
4.400000E+03	7.414794E-17	1.631390E-18
4.410000E+03	7.453544E-17	1.636571E-18
4.420000E+03	7.486978E-17	1.640573E-18
4.430000E+03	7.515309E-17	1.643451E-18
4.440000E+03	7.538750E-17	1.645258E-18
4.450000E+03	7.557508E-17	1.646048E-18
4.460000E+03	7.571791E-17	1.645872E-18
4.470000E+03	7.581810E-17	1.644781E-18
4.480000E+03	7.587778E-17	1.642827E-18
4.490000E+03	7.589908E-17	1.640060E-18
4.500000E+03	7.588415E-17	1.636533E-18
4.510000E+03	7.583513E-17	1.632296E-18
4.520000E+03	7.575415E-17	1.627397E-18
4.530000E+03	7.564328E-17	1.621886E-18
4.540000E+03	7.550459E-17	1.615811E-18
4.550000E+03	7.534009E-17	1.609217E-18
4.560000E+03	7.515173E-17	1.602148E-18
4.570000E+03	7.494142E-17	1.594649E-18
4.580000E+03	7.471101E-17	1.586760E-18
4.590000E+03	7.446230E-17	1.578521E-18
4.600000E+03	7.419700E-17	1.569972E-18
4.610000E+03	7.391679E-17	1.561149E-18
4.620000E+03	7.362328E-17	1.552087E-18
4.630000E+03	7.331799E-17	1.542820E-18
4.640000E+03	7.300240E-17	1.533379E-18
4.650000E+03	7.267790E-17	1.523795E-18
4.660000E+03	7.233416E-17	1.513852E-18
4.670000E+03	7.199591E-17	1.504068E-18
4.680000E+03	7.165260E-17	1.494223E-18
4.690000E+03	7.130539E-17	1.484341E-18
4.700000E+03	7.095537E-17	1.474444E-18
4.710000E+03	7.060359E-17	1.464555E-18
4.720000E+03	7.023964E-17	1.454458E-18
4.730000E+03	6.988720E-17	1.444643E-18
4.740000E+03	6.953575E-17	1.434891E-18
4.750000E+03	6.918606E-17	1.425219E-18
4.760000E+03	6.882778E-17	1.415412E-18
4.770000E+03	6.848390E-17	1.405943E-18
4.780000E+03	6.814387E-17	1.396595E-18
4.790000E+03	6.780832E-17	1.387380E-18
4.800000E+03	6.746691E-17	1.378085E-18
4.810000E+03	6.714196E-17	1.369166E-18
4.820000E+03	6.682302E-17	1.360409E-18
4.830000E+03	6.649976E-17	1.351602E-18
4.840000E+03	6.619406E-17	1.343191E-18
4.850000E+03	6.589550E-17	1.334961E-18
4.860000E+03	6.559382E-17	1.326705E-18
4.870000E+03	6.531047E-17	1.318855E-18
4.880000E+03	6.503506E-17	1.311202E-18
4.890000E+03	6.475737E-17	1.303536E-18
4.900000E+03	6.449848E-17	1.296283E-18
4.910000E+03	6.423770E-17	1.289026E-18
4.920000E+03	6.399586E-17	1.282182E-18
4.930000E+03	6.375243E-17	1.275338E-18
4.940000E+03	6.352798E-17	1.268905E-18
4.950000E+03	6.330210E-17	1.262475E-18
4.960000E+03	6.309518E-17	1.256453E-18
4.970000E+03	6.288686E-17	1.250433E-18
4.980000E+03	6.269736E-17	1.244816E-18
4.990000E+03	6.250644E-17	1.239200E-18
5.000000E+03	6.233412E-17	1.233982E-18
5.010000E+03	6.216026E-17	1.228760E-18
5.020000E+03	6.200471E-17	1.223928E-18
5.030000E+03	6.184740E-17	1.219089E-18
5.040000E+03	6.169816E-17	1.214435E-18
5.050000E+03	6.156666E-17	1.210156E-18
5.060000E+03	6.143297E-17	1.205861E-18
5.070000E+03	6.130675E-17	1.201738E-18
5.080000E+03	6.119759E-17	1.197975E-18
5.090000E+03	6.108564E-17	1.194182E-18
5.100000E+03	6.098044E-17	1.190546E-18
5.110000E+03	6.089150E-17	1.187252E-18
5.120000E+03	6.079904E-17	1.183915E-18
5.130000E+03	6.071252E-17	1.180718E-18
5.140000E+03	6.064138E-17	1.177844E-18
5.150000E+03	6.056586E-17	1.174909E-18
5.160000E+03	6.049538E-17	1.172097E-18
5.170000E+03	6.042962E-17	1.169400E-18
5.180000E+03	6.036827E-17	1.166814E-18
5.190000E+03	6.032060E-17	1.164516E-18
5.200000E+03	6.026700E-17	1.162128E-18
5.210000E+03	6.021678E-17	1.159830E-18
5.220000E+03	6.016958E-17	1.157615E-18
5.230000E+03	6.012504E-17	1.155477E-18
5.240000E+03	6.008280E-17	1.153408E-18
5.250000E+03	6.005209E-17	1.151585E-18
5.260000E+03	6.001336E-17	1.149635E-18
5.270000E+03	5.997583E-17	1.147733E-18
5.280000E+03	5.993911E-17	1.145873E-18
5.290000E+03	5.990282E-17	1.144049E-18
5.300000E+03	5.986659E-17	1.142252E-18
5.310000E+03	5.983000E-17	1.140476E-18
5.320000E+03	5.979268E-17	1.138713E-18
5.330000E+03	5.975419E-17	1.136957E-18
5.340000E+03	5.971414E-17	1.135199E-18
5.350000E+03	5.967211E-17	1.133433E-18
5.360000E+03	5.962765E-17	1.131650E-18
5.370000E+03	5.958037E-17	1.129843E-18
5.380000E+03	5.952985E-17	1.128005E-18
5.390000E+03	5.947566E-17	1.126128E-18
5.400000E+03	5.941745E-17	1.124207E-18
5.410000E+03	5.935488E-17	1.122234E-18
5.420000E+03	5.927823E-17	1.120028E-18
5.430000E+03	5.920620E-17	1.117942E-18
5.440000E+03	5.912926E-17	1.115796E-18
5.450000E+03	5.904745E-17	1.113592E-18
5.460000E+03	5.896095E-17	1.111334E-18
5.470000E+03	5.887001E-17	1.109026E-18
5.480000E+03	5.876559E-17	1.106498E-18
5.490000E+03	5.866662E-17	1.104108E-18
5.500000E+03	5.856380E-17	1.101678E-18
5.510000E+03	5.845700E-17	1.099207E-18
5.520000E+03	5.834593E-17	1.096689E-18
5.530000E+03	5.822105E-17	1.093943E-18
5.540000E+03	5.810063E-17	1.091313E-18
5.550000E+03	5.797527E-17	1.088622E-18
5.560000E+03	5.783575E-17	1.085697E-18
5.570000E+03	5.770060E-17	1.082883E-18
5.580000E+03	5.756081E-17	1.080014E-18
5.590000E+03	5.740754E-17	1.076921E-18
5.600000E+03	5.725938E-17	1.073953E-18
5.610000E+03	5.710755E-17	1.070945E-18
5.620000E+03	5.694338E-17	1.067735E-18
5.630000E+03	5.678536E-17	1.064667E-18
5.640000E+03	5.662482E-17	1.061580E-18
5.650000E+03	5.645317E-17	1.058312E-18
5.660000E+03	5.628872E-17	1.055205E-18
5.670000E+03	5.611392E-17	1.051930E-18
5.680000E+03	5.594698E-17	1.048828E-18
5.690000E+03	5.577043E-17	1.045571E-18
5.700000E+03	5.560233E-17	1.042497E-18
5.710000E+03	5.542531E-17	1.039281E-18
5.720000E+03	5.525728E-17	1.036256E-18
5.730000E+03	5.508100E-17	1.033101E-18
5.740000E+03	5.491422E-17	1.030146E-18
5.750000E+03	5.473979E-17	1.027071E-18
5.760000E+03	5.457537E-17	1.024206E-18
5.770000E+03	5.440384E-17	1.021229E-18
5.780000E+03	5.424277E-17	1.018470E-18
5.790000E+03	5.407515E-17	1.015609E-18
5.800000E+03	5.391838E-17	1.012973E-18
5.810000E+03	5.375556E-17	1.010244E-18
5.820000E+03	5.359547E-17	1.007586E-18
5.830000E+03	5.344678E-17	1.005163E-18
5.840000E+03	5.329270E-17	1.002658E-18
5.850000E+03	5.314191E-17	1.000234E-18
5.860000E+03	5.300296E-17	9.980527E-19
5.870000E+03	5.285919E-17	9.957994E-19
5.880000E+03	5.271915E-17	9.936352E-19
5.890000E+03	5.259129E-17	9.917193E-19
5.900000E+03	5.245906E-17	9.897395E-19
5.910000E+03	5.233087E-17	9.878544E-19
5.920000E+03	5.220684E-17	9.860659E-19
5.930000E+03	5.209528E-17	9.845312E-19
5.940000E+03	5.197971E-17	9.829389E-19
5.950000E+03	5.186844E-17	9.814458E-19
5.960000E+03	5.176151E-17	9.800527E-19
5.970000E+03	5.166711E-17	9.789149E-19
5.980000E+03	5.156884E-17	9.777216E-19
5.990000E+03	5.147488E-17	9.766280E-19
6.000000E+03	5.138520E-17	9.756335E-19
6.010000E+03	5.129974E-17	9.747370E-19
6.020000E+03	5.122656E-17	9.740919E-19
6.030000E+03	5.114932E-17	9.733878E-19
6.040000E+03	5.107607E-17	9.727777E-19
6.050000E+03	5.100669E-17	9.722592E-19
6.060000E+03	5.094104E-17	9.718302E-19
6.070000E+03	5.087900E-17	9.714884E-19
6.080000E+03	5.082039E-17	9.712306E-19
6.090000E+03	5.076507E-17	9.710539E-19
6.100000E+03	5.071282E-17	9.709549E-19
6.110000E+03	5.066346E-17	9.709299E-19
6.120000E+03	5.061679E-17	9.709752E-19
6.130000E+03	5.058057E-17	9.712403E-19
6.140000E+03	5.053855E-17	9.714134E-19
6.150000E+03	5.049849E-17	9.716434E-19
6.160000E+03	5.046013E-17	9.719255E-19
6.170000E+03	5.042320E-17	9.722547E-19
6.180000E+03	5.038740E-17	9.726255E-19
6.190000E+03	5.035246E-17	9.730327E-19
6.200000E+03	5.031008E-17	9.733158E-19
6.210000E+03	5.027590E-17	9.737775E-19
6.220000E+03	5.024163E-17	9.742575E-19
6.230000E+03	5.020694E-17	9.747496E-19
6.240000E+03	5.017148E-17	9.752471E-19
6.250000E+03	5.013491E-17	9.757432E-19
6.260000E+03	5.009688E-17	9.762314E-19
6.270000E+03	5.005703E-17	9.767046E-19
6.280000E+03	5.001499E-17	9.771555E-19
6.290000E+03	4.997041E-17	9.775772E-19
6.300000E+03	4.992290E-17	9.779619E-19
6.310000E+03	4.986420E-17	9.781476E-19
6.320000E+03	4.980973E-17	9.784364E-19
6.330000E+03	4.975119E-17	9.786653E-19
6.340000E+03	4.968820E-17	9.788267E-19
6.350000E+03	4.962036E-17	9.789124E-19
6.360000E+03	4.954728E-17	9.789143E-19
6.370000E+03	4.946073E-17	9.786694E-19
6.380000E+03	4.937598E-17	9.784790E-19
6.390000E+03	4.928478E-17	9.781796E-19
6.400000E+03	4.918675E-17	9.777631E-19
6.410000E+03	4.908148E-17	9.772207E-19
6.420000E+03	4.896084E-17	9.763897E-19
6.430000E+03	4.884001E-17	9.755718E-19
6.440000E+03	4.871087E-17	9.746039E-19
6.450000E+03	4.857318E-17	9.734794E-19
6.460000E+03	4.841901E-17	9.720382E-19
6.470000E+03	4.826365E-17	9.705847E-19
6.480000E+03	4.809934E-17	9.689622E-19
6.490000E+03	4.791856E-17	9.670173E-19
6.500000E+03	4.773675E-17	9.650595E-19
6.510000E+03	4.754653E-17	9.629387E-19
6.520000E+03	4.734067E-17	9.605065E-19
6.530000E+03	4.713444E-17	9.580709E-19
6.540000E+03	4.692044E-17	9.554805E-19
6.550000E+03	4.669134E-17	9.525838E-19
6.560000E+03	4.646195E-17	9.496818E-19
6.570000E+03	4.622483E-17	9.466208E-19
6.580000E+03	4.597274E-17	9.432512E-19
6.590000E+03	4.572046E-17	9.398740E-19
6.600000E+03	4.546093E-17	9.363432E-19
6.610000E+03	4.518731E-17	9.325160E-19
6.620000E+03	4.491440E-17	9.286961E-19
6.630000E+03	4.462839E-17	9.245972E-19
6.640000E+03	4.434401E-17	9.205222E-19
6.650000E+03	4.404767E-17	9.161884E-19
6.660000E+03	4.375393E-17	9.118969E-19
6.670000E+03	4.345630E-17	9.075121E-19
6.680000E+03	4.314845E-17	9.029002E-19
6.690000E+03	4.284467E-17	8.983590E-19
6.700000E+03	4.253179E-17	8.936120E-19
6.710000E+03	4.222387E-17	8.889532E-19
6.720000E+03	4.190792E-17	8.841086E-19
6.730000E+03	4.159778E-17	8.793692E-19
6.740000E+03	4.128062E-17	8.744635E-19
6.750000E+03	4.097002E-17	8.696784E-19
6.760000E+03	4.065334E-17	8.647454E-19
6.770000E+03	4.034397E-17	8.599481E-19
6.780000E+03	4.002939E-17	8.550203E-19
6.790000E+03	3.971644E-17	8.501069E-19
6.800000E+03	3.941176E-17	8.453498E-19
6.810000E+03	3.910310E-17	8.404870E-19
6.820000E+03	3.880328E-17	8.357931E-19
6.830000E+03	3.850024E-17	8.310087E-19
6.840000E+03	3.820656E-17	8.264053E-19
6.850000E+03	3.791035E-17	8.217260E-19
6.860000E+03	3.761800E-17	8.171086E-19
6.870000E+03	3.733573E-17	8.126889E-19
6.880000E+03	3.705184E-17	8.082129E-19
6.890000E+03	3.677844E-17	8.039443E-19
6.900000E+03	3.650399E-17	7.996320E-19
6.910000E+03	3.623462E-17	7.954094E-19
6.920000E+03	3.597624E-17	7.914076E-19
6.930000E+03	3.571755E-17	7.873785E-19
6.940000E+03	3.546452E-17	7.834534E-19
6.950000E+03	3.522290E-17	7.797604E-19
6.960000E+03	3.498161E-17	7.760549E-19
6.970000E+03	3.474642E-17	7.724653E-19
6.980000E+03	3.452299E-17	7.691179E-19
6.990000E+03	3.430040E-17	7.657706E-19
7.000000E+03	3.408431E-17	7.625498E-19
7.010000E+03	3.387483E-17	7.594587E-19
7.020000E+03	3.367739E-17	7.566201E-19
7.030000E+03	3.348135E-17	7.537960E-19
7.040000E+03	3.329218E-17	7.511095E-19
7.050000E+03	3.311520E-17	7.486822E-19
7.060000E+03	3.293994E-17	7.462781E-19
7.070000E+03	3.277172E-17	7.440182E-19
7.080000E+03	3.261061E-17	7.419049E-19
7.090000E+03	3.246182E-17	7.400579E-19
7.100000E+03	3.231502E-17	7.382427E-19
7.110000E+03	3.217544E-17	7.365793E-19
7.120000E+03	3.204309E-17	7.350687E-19
7.130000E+03	3.191801E-17	7.337126E-19
7.140000E+03	3.180527E-17	7.326292E-19
7.150000E+03	3.169472E-17	7.315855E-19
7.160000E+03	3.159146E-17	7.306999E-19
7.170000E+03	3.149548E-17	7.299727E-19
7.180000E+03	3.140679E-17	7.294054E-19
7.190000E+03	3.132537E-17	7.289984E-19
7.200000E+03	3.125121E-17	7.287523E-19
7.210000E+03	3.118926E-17	7.287839E-19
7.220000E+03	3.112956E-17	7.288614E-19
7.230000E+03	3.107705E-17	7.291012E-19
7.240000E+03	3.103171E-17	7.295037E-19
7.250000E+03	3.099351E-17	7.300689E-19
7.260000E+03	3.096241E-17	7.307971E-19
7.270000E+03	3.093837E-17	7.316882E-19
7.280000E+03	3.092135E-17	7.327422E-19
7.290000E+03	3.091132E-17	7.339589E-19
7.300000E+03	3.091313E-17	7.354554E-19
7.310000E+03	3.091689E-17	7.369967E-19
7.320000E+03	3.092746E-17	7.386996E-19
7.330000E+03	3.094477E-17	7.405634E-19
7.340000E+03	3.096875E-17	7.425872E-19
7.350000E+03	3.099936E-17	7.447706E-19
7.360000E+03	3.103649E-17	7.471121E-19
7.370000E+03	3.108008E-17	7.496110E-19
7.380000E+03	3.113002E-17	7.522658E-19
7.390000E+03	3.118624E-17	7.550751E-19
7.400000E+03	3.124862E-17	7.580374E-19
7.410000E+03	3.131708E-17	7.611510E-19
7.420000E+03	3.139148E-17	7.644137E-19
7.430000E+03	3.147171E-17	7.678235E-19
7.440000E+03	3.155764E-17	7.713779E-19
7.450000E+03	3.164916E-17	7.750747E-19
7.460000E+03	3.174611E-17	7.789112E-19
7.470000E+03	3.184832E-17	7.828837E-19
7.480000E+03	3.195566E-17	7.869896E-19
7.490000E+03	3.206280E-17	7.910981E-19
7.500000E+03	3.217984E-17	7.954585E-19
7.510000E+03	3.230145E-17	7.999408E-19
7.520000E+03	3.242743E-17	8.045400E-19
7.530000E+03	3.255758E-17	8.092519E-19
7.540000E+03	3.269167E-17	8.140714E-19
7.550000E+03	3.282946E-17	8.189929E-19
7.560000E+03	3.297071E-17	8.240107E-19
7.570000E+03	3.311516E-17	8.291189E-19
7.580000E+03	3.326251E-17	8.343104E-19
7.590000E+03	3.340714E-17	8.394442E-19
7.600000E+03	3.355945E-17	8.447817E-19
7.610000E+03	3.371376E-17	8.501809E-19
7.620000E+03	3.386976E-17	8.556338E-19
7.630000E+03	3.402711E-17	8.611321E-19
7.640000E+03	3.418542E-17	8.666665E-19
7.650000E+03	3.433883E-17	8.720877E-19
7.660000E+03	3.449797E-17	8.776656E-19
7.670000E+03	3.465691E-17	8.832500E-19
7.680000E+03	3.481527E-17	8.888309E-19
7.690000E+03	3.497260E-17	8.943970E-19
7.700000E+03	3.512281E-17	8.997917E-19
7.710000E+03	3.527673E-17	9.052924E-19
7.720000E+03	3.542826E-17	9.107423E-19
7.730000E+03	3.557693E-17	9.161292E-19
7.740000E+03	3.571649E-17	9.212915E-19
7.750000E+03	3.585791E-17	9.265115E-19
7.760000E+03	3.599498E-17	9.316284E-19
