#wls	flux	fluxerr	mangling_mask
3.650000E+03	6.701177E-15	2.888399E-16	9.955545E-01
3.654239E+03	6.715859E-15	2.878583E-16	9.954878E-01
3.658477E+03	6.729143E-15	2.868189E-16	9.954206E-01
3.662716E+03	6.745506E-15	2.858886E-16	9.953528E-01
3.666954E+03	6.737578E-15	2.840589E-16	9.952844E-01
3.671193E+03	6.713326E-15	2.816395E-16	9.952155E-01
3.675432E+03	6.695342E-15	2.778335E-16	9.951460E-01
3.679670E+03	6.692583E-15	2.712929E-16	9.950760E-01
3.683909E+03	6.685043E-15	2.797632E-16	9.950054E-01
3.688147E+03	6.662179E-15	2.785959E-16	9.949342E-01
3.692386E+03	6.637325E-15	2.791461E-16	9.948625E-01
3.696624E+03	6.614261E-15	2.768044E-16	9.947902E-01
3.700863E+03	6.597363E-15	2.752178E-16	9.947173E-01
3.705102E+03	6.588422E-15	2.699945E-16	9.946439E-01
3.709340E+03	6.571919E-15	2.704899E-16	9.945699E-01
3.713579E+03	6.540298E-15	2.968854E-16	9.944953E-01
3.717817E+03	6.510469E-15	2.989393E-16	9.944201E-01
3.722056E+03	6.470994E-15	2.997669E-16	9.943444E-01
3.726294E+03	6.435500E-15	3.020726E-16	9.942681E-01
3.730533E+03	6.411340E-15	2.925750E-16	9.941912E-01
3.734772E+03	6.358053E-15	2.849307E-16	9.941137E-01
3.739010E+03	6.298707E-15	2.794493E-16	9.940357E-01
3.743249E+03	6.259047E-15	2.875648E-16	9.939570E-01
3.747487E+03	6.215215E-15	2.996013E-16	9.938778E-01
3.751726E+03	6.172578E-15	3.024714E-16	9.937980E-01
3.755965E+03	6.130442E-15	3.003033E-16	9.937175E-01
3.760203E+03	6.093973E-15	2.722829E-16	9.936365E-01
3.764442E+03	6.051048E-15	2.611143E-16	9.935549E-01
3.768680E+03	5.997396E-15	2.644258E-16	9.934728E-01
3.772919E+03	5.933419E-15	2.570164E-16	9.933900E-01
3.777157E+03	5.871435E-15	2.531771E-16	9.933066E-01
3.781396E+03	5.820086E-15	2.550454E-16	9.932226E-01
3.785635E+03	5.763577E-15	2.506334E-16	9.931380E-01
3.789873E+03	5.714721E-15	2.416864E-16	9.930528E-01
3.794112E+03	5.670736E-15	2.196249E-16	9.929671E-01
3.798350E+03	5.622981E-15	2.137928E-16	9.928807E-01
3.802589E+03	5.575728E-15	2.197271E-16	9.927937E-01
3.806827E+03	5.522622E-15	2.121181E-16	9.927061E-01
3.811066E+03	5.457413E-15	2.091025E-16	9.926178E-01
3.815305E+03	5.391914E-15	2.003100E-16	9.925290E-01
3.819543E+03	5.337638E-15	1.984627E-16	9.924396E-01
3.823782E+03	5.290116E-15	1.945248E-16	9.923495E-01
3.828020E+03	5.229402E-15	1.795763E-16	9.922588E-01
3.832259E+03	5.166812E-15	1.793740E-16	9.921675E-01
3.836498E+03	5.121293E-15	1.737427E-16	9.920756E-01
3.840736E+03	5.091552E-15	1.709981E-16	9.919831E-01
3.844975E+03	5.079667E-15	1.651071E-16	9.918899E-01
3.849213E+03	5.075021E-15	1.557980E-16	9.917961E-01
3.853452E+03	5.065216E-15	1.544037E-16	9.917017E-01
3.857691E+03	5.063540E-15	1.589175E-16	9.916067E-01
3.861929E+03	5.069992E-15	1.579463E-16	9.915110E-01
3.866168E+03	5.065832E-15	1.606089E-16	9.914147E-01
3.870406E+03	5.063354E-15	1.608784E-16	9.913178E-01
3.874645E+03	5.055520E-15	1.594897E-16	9.912202E-01
3.878883E+03	5.025781E-15	1.587262E-16	9.911220E-01
3.883122E+03	5.007144E-15	1.589454E-16	9.910231E-01
3.887360E+03	4.997426E-15	1.578194E-16	9.909237E-01
3.891599E+03	4.973538E-15	1.560763E-16	9.908235E-01
3.895838E+03	4.964215E-15	1.547843E-16	9.907228E-01
3.900076E+03	4.964103E-15	1.538794E-16	9.906213E-01
3.904315E+03	4.957153E-15	1.517811E-16	9.905193E-01
3.908553E+03	4.945942E-15	1.499016E-16	9.904166E-01
3.912792E+03	4.923639E-15	1.478482E-16	9.903132E-01
3.917031E+03	4.893020E-15	1.483783E-16	9.902092E-01
3.921269E+03	4.867651E-15	1.490439E-16	9.901045E-01
3.925508E+03	4.844165E-15	1.468263E-16	9.899992E-01
3.929746E+03	4.822265E-15	1.474038E-16	9.898932E-01
3.933985E+03	4.807195E-15	1.507077E-16	9.897866E-01
3.938224E+03	4.800637E-15	1.524357E-16	9.896793E-01
3.942462E+03	4.796848E-15	1.599241E-16	9.895713E-01
3.946701E+03	4.786526E-15	1.605385E-16	9.894627E-01
3.950939E+03	4.779170E-15	1.590003E-16	9.893534E-01
3.955178E+03	4.776463E-15	1.655201E-16	9.892434E-01
3.959416E+03	4.758520E-15	1.708387E-16	9.891328E-01
3.963655E+03	4.737215E-15	1.744424E-16	9.890215E-01
3.967894E+03	4.718285E-15	1.719335E-16	9.889095E-01
3.972132E+03	4.700048E-15	1.705587E-16	9.887969E-01
3.976371E+03	4.678945E-15	1.675532E-16	9.886836E-01
3.980609E+03	4.657744E-15	1.642391E-16	9.885695E-01
3.984848E+03	4.638918E-15	1.696104E-16	9.884549E-01
3.989086E+03	4.626516E-15	1.639069E-16	9.883395E-01
3.993325E+03	4.615498E-15	1.600597E-16	9.882235E-01
3.997564E+03	4.613767E-15	1.580279E-16	9.881067E-01
4.001802E+03	4.618356E-15	1.524003E-16	9.879893E-01
4.006041E+03	4.609407E-15	1.420602E-16	9.878712E-01
4.010279E+03	4.598481E-15	1.276907E-16	9.877524E-01
4.014518E+03	4.591012E-15	1.262055E-16	9.876329E-01
4.018756E+03	4.577516E-15	1.272260E-16	9.875127E-01
4.022995E+03	4.556912E-15	1.317259E-16	9.873918E-01
4.027234E+03	4.543714E-15	1.277844E-16	9.872703E-01
4.031472E+03	4.532095E-15	1.169023E-16	9.871480E-01
4.035711E+03	4.520772E-15	1.163868E-16	9.870250E-01
4.039949E+03	4.512014E-15	1.178457E-16	9.869013E-01
4.044188E+03	4.504242E-15	1.170504E-16	9.867769E-01
4.048427E+03	4.489759E-15	1.172874E-16	9.866518E-01
4.052665E+03	4.460380E-15	1.192882E-16	9.865260E-01
4.056904E+03	4.415420E-15	1.180292E-16	9.863995E-01
4.061142E+03	4.358633E-15	1.191395E-16	9.862723E-01
4.065381E+03	4.303633E-15	1.171902E-16	9.861444E-01
4.069619E+03	4.250516E-15	1.087232E-16	9.860157E-01
4.073858E+03	4.197214E-15	1.080342E-16	9.858863E-01
4.078097E+03	4.147274E-15	1.056243E-16	9.857562E-01
4.082335E+03	4.103060E-15	9.817966E-17	9.856254E-01
4.086574E+03	4.062896E-15	9.590244E-17	9.854939E-01
4.090812E+03	4.021655E-15	9.553686E-17	9.853616E-01
4.095051E+03	3.984265E-15	8.667404E-17	9.852286E-01
4.099290E+03	3.944714E-15	8.216917E-17	9.850949E-01
4.103528E+03	3.899852E-15	8.630047E-17	9.849604E-01
4.107767E+03	3.867015E-15	8.210911E-17	9.848253E-01
4.112005E+03	3.846590E-15	8.278830E-17	9.846893E-01
4.116244E+03	3.823313E-15	8.427461E-17	9.845527E-01
4.120483E+03	3.794133E-15	8.329167E-17	9.844153E-01
4.124721E+03	3.775982E-15	8.291762E-17	9.842772E-01
4.128960E+03	3.766691E-15	8.213742E-17	9.841383E-01
4.133198E+03	3.760056E-15	8.070629E-17	9.839987E-01
4.137437E+03	3.756666E-15	7.971526E-17	9.838583E-01
4.141675E+03	3.752881E-15	7.988018E-17	9.837172E-01
4.145914E+03	3.741619E-15	7.597199E-17	9.835753E-01
4.150153E+03	3.725931E-15	7.802802E-17	9.834327E-01
4.154391E+03	3.713785E-15	7.754764E-17	9.832893E-01
4.158630E+03	3.705573E-15	7.760396E-17	9.831452E-01
4.162868E+03	3.687333E-15	7.575419E-17	9.830003E-01
4.167107E+03	3.665655E-15	7.343246E-17	9.828547E-01
4.171345E+03	3.650958E-15	7.964439E-17	9.827083E-01
4.175584E+03	3.634494E-15	7.926201E-17	9.825611E-01
4.179823E+03	3.612039E-15	8.047288E-17	9.824132E-01
4.184061E+03	3.587426E-15	7.975716E-17	9.822645E-01
4.188300E+03	3.567533E-15	7.895892E-17	9.821150E-01
4.192538E+03	3.543911E-15	7.504823E-17	9.819648E-01
4.196777E+03	3.511653E-15	6.470553E-17	9.818138E-01
4.201016E+03	3.476654E-15	6.448002E-17	9.816620E-01
4.205254E+03	3.444509E-15	6.185449E-17	9.815094E-01
4.209493E+03	3.417082E-15	6.056157E-17	9.813561E-01
4.213731E+03	3.388581E-15	5.988893E-17	9.812019E-01
4.217970E+03	3.362342E-15	5.482200E-17	9.810470E-01
4.222208E+03	3.343270E-15	5.462064E-17	9.808913E-01
4.226447E+03	3.324201E-15	5.267066E-17	9.807349E-01
4.230686E+03	3.312489E-15	5.427806E-17	9.805776E-01
4.234924E+03	3.306955E-15	5.377168E-17	9.804195E-01
4.239163E+03	3.298479E-15	5.557458E-17	9.802607E-01
4.243401E+03	3.285985E-15	5.575154E-17	9.801010E-01
4.247640E+03	3.272904E-15	5.525561E-17	9.799406E-01
4.251878E+03	3.266192E-15	5.508535E-17	9.797793E-01
4.256117E+03	3.261440E-15	5.421533E-17	9.796173E-01
4.260356E+03	3.251495E-15	5.783739E-17	9.794544E-01
4.264594E+03	3.243215E-15	4.868737E-17	9.792908E-01
4.268833E+03	3.240223E-15	5.079251E-17	9.791263E-01
4.273071E+03	3.233410E-15	5.061904E-17	9.789610E-01
4.277310E+03	3.222095E-15	5.190646E-17	9.787950E-01
4.281548E+03	3.216261E-15	5.215786E-17	9.786281E-01
4.285787E+03	3.214731E-15	5.256514E-17	9.784604E-01
4.290026E+03	3.210852E-15	5.213895E-17	9.782918E-01
4.294264E+03	3.207068E-15	5.442133E-17	9.781225E-01
4.298503E+03	3.203772E-15	5.430077E-17	9.779523E-01
4.302741E+03	3.199496E-15	5.478285E-17	9.777813E-01
4.306980E+03	3.186616E-15	4.988891E-17	9.776095E-01
4.311219E+03	3.175986E-15	5.232409E-17	9.774369E-01
4.315457E+03	3.174542E-15	5.330363E-17	9.772634E-01
4.319696E+03	3.168016E-15	5.225391E-17	9.770891E-01
4.323934E+03	3.156800E-15	4.809896E-17	9.769140E-01
4.328173E+03	3.151055E-15	5.517780E-17	9.767381E-01
4.332412E+03	3.144332E-15	5.913354E-17	9.765613E-01
4.336650E+03	3.135656E-15	5.913590E-17	9.763837E-01
4.340889E+03	3.129324E-15	5.679680E-17	9.762053E-01
4.345127E+03	3.124064E-15	5.694920E-17	9.760261E-01
4.349366E+03	3.118804E-15	5.831360E-17	9.758460E-01
4.353604E+03	3.110420E-15	6.074977E-17	9.756651E-01
4.357843E+03	3.098720E-15	5.958090E-17	9.754833E-01
4.362082E+03	3.091411E-15	5.803644E-17	9.753008E-01
4.366320E+03	3.084686E-15	5.784427E-17	9.751174E-01
4.370559E+03	3.080301E-15	5.963848E-17	9.749331E-01
4.374797E+03	3.079132E-15	5.397286E-17	9.747481E-01
4.379036E+03	3.076985E-15	4.663909E-17	9.745622E-01
4.383275E+03	3.072206E-15	4.806713E-17	9.743754E-01
4.387513E+03	3.067620E-15	4.904244E-17	9.741878E-01
4.391752E+03	3.066637E-15	4.882211E-17	9.739994E-01
4.395990E+03	3.065360E-15	4.665757E-17	9.738102E-01
4.400229E+03	3.061840E-15	4.324539E-17	9.736201E-01
4.404467E+03	3.060851E-15	4.305692E-17	9.734291E-01
4.408706E+03	3.059858E-15	4.209147E-17	9.732374E-01
4.412944E+03	3.057404E-15	4.167697E-17	9.730448E-01
4.417183E+03	3.048819E-15	4.012886E-17	9.728513E-01
4.421422E+03	3.037608E-15	4.026874E-17	9.726570E-01
4.425660E+03	3.031066E-15	4.088133E-17	9.724618E-01
4.429899E+03	3.030164E-15	4.033613E-17	9.722658E-01
4.434137E+03	3.025759E-15	4.096166E-17	9.720690E-01
4.438376E+03	3.022909E-15	4.187769E-17	9.718713E-01
4.442615E+03	3.018502E-15	4.177761E-17	9.716728E-01
4.446853E+03	3.006030E-15	4.162602E-17	9.714734E-01
4.451092E+03	2.990064E-15	4.441153E-17	9.712732E-01
4.455330E+03	2.977793E-15	4.466229E-17	9.710721E-01
4.459569E+03	2.964746E-15	4.465425E-17	9.708702E-01
4.463807E+03	2.949179E-15	4.795693E-17	9.706674E-01
4.468046E+03	2.937303E-15	4.807986E-17	9.704637E-01
4.472285E+03	2.926205E-15	5.125812E-17	9.702592E-01
4.476523E+03	2.909289E-15	5.538415E-17	9.700539E-01
4.480762E+03	2.896935E-15	5.388545E-17	9.698477E-01
4.485000E+03	2.889238E-15	5.245919E-17	9.696406E-01
4.489239E+03	2.877858E-15	5.587288E-17	9.694327E-01
4.493478E+03	2.863087E-15	5.904069E-17	9.692239E-01
4.497716E+03	2.849871E-15	5.697195E-17	9.690143E-01
4.501955E+03	2.839564E-15	5.558571E-17	9.688038E-01
4.506193E+03	2.832552E-15	5.609152E-17	9.685924E-01
4.510432E+03	2.825830E-15	5.460733E-17	9.683802E-01
4.514671E+03	2.819884E-15	5.879635E-17	9.681671E-01
4.518909E+03	2.811807E-15	5.773785E-17	9.679532E-01
4.523148E+03	2.803248E-15	5.499983E-17	9.677384E-01
4.527386E+03	2.797592E-15	5.781498E-17	9.675227E-01
4.531625E+03	2.791936E-15	5.960841E-17	9.673061E-01
4.535863E+03	2.785989E-15	5.852703E-17	9.670887E-01
4.540102E+03	2.778592E-15	5.676970E-17	9.668704E-01
4.544341E+03	2.773612E-15	5.670274E-17	9.666513E-01
4.548579E+03	2.772788E-15	5.663734E-17	9.664312E-01
4.552818E+03	2.770415E-15	5.548511E-17	9.662103E-01
4.557056E+03	2.765529E-15	5.481708E-17	9.659886E-01
4.561295E+03	2.753109E-15	5.151067E-17	9.657659E-01
4.565533E+03	2.742044E-15	5.200147E-17	9.655424E-01
4.569772E+03	2.737256E-15	5.045131E-17	9.653180E-01
4.574011E+03	2.735652E-15	4.838359E-17	9.650927E-01
4.578249E+03	2.732309E-15	4.742742E-17	9.648666E-01
4.582488E+03	2.727229E-15	4.656962E-17	9.646396E-01
4.586726E+03	2.717230E-15	4.569950E-17	9.644117E-01
4.590965E+03	2.706076E-15	4.758799E-17	9.641829E-01
4.595203E+03	2.697719E-15	4.769078E-17	9.639532E-01
4.599442E+03	2.689364E-15	4.935544E-17	9.637226E-01
4.603681E+03	2.678891E-15	4.986468E-17	9.634912E-01
4.607919E+03	2.672465E-15	4.803705E-17	9.632589E-01
4.612158E+03	2.671241E-15	4.804530E-17	9.630257E-01
4.616396E+03	2.665103E-15	4.876316E-17	9.627915E-01
4.620635E+03	2.655309E-15	4.855788E-17	9.625566E-01
4.624874E+03	2.649461E-15	4.969362E-17	9.623207E-01
4.629112E+03	2.647174E-15	5.115273E-17	9.620839E-01
4.633351E+03	2.643346E-15	5.148103E-17	9.618463E-01
4.637589E+03	2.639229E-15	4.953328E-17	9.616077E-01
4.641828E+03	2.638667E-15	5.094593E-17	9.613683E-01
4.646066E+03	2.638008E-15	5.016017E-17	9.611279E-01
4.650305E+03	2.638595E-15	5.001155E-17	9.608867E-01
4.654544E+03	2.639083E-15	4.998256E-17	9.606445E-01
4.658782E+03	2.636302E-15	4.905408E-17	9.604015E-01
4.663021E+03	2.635729E-15	4.851003E-17	9.601576E-01
4.667259E+03	2.638032E-15	4.881219E-17	9.599128E-01
4.671498E+03	2.643211E-15	4.749543E-17	9.596670E-01
4.675736E+03	2.649919E-15	4.638191E-17	9.594204E-01
4.679975E+03	2.657868E-15	4.562356E-17	9.591728E-01
4.684214E+03	2.664276E-15	4.714268E-17	9.589244E-01
4.688452E+03	2.672019E-15	4.798330E-17	9.586750E-01
4.692691E+03	2.676305E-15	5.018412E-17	9.584248E-01
4.696929E+03	2.673592E-15	5.036413E-17	9.581736E-01
4.701168E+03	2.667620E-15	4.933475E-17	9.579216E-01
4.705407E+03	2.659829E-15	4.896210E-17	9.576686E-01
4.709645E+03	2.654911E-15	5.405748E-17	9.574147E-01
4.713884E+03	2.652864E-15	5.793630E-17	9.571599E-01
4.718122E+03	2.652251E-15	6.049881E-17	9.569041E-01
4.722361E+03	2.651731E-15	6.233850E-17	9.566475E-01
4.726600E+03	2.650635E-15	6.366036E-17	9.563899E-01
4.730838E+03	2.647241E-15	6.277315E-17	9.561315E-01
4.735077E+03	2.643942E-15	6.350321E-17	9.558721E-01
4.739315E+03	2.638444E-15	6.715471E-17	9.556118E-01
4.743554E+03	2.626736E-15	7.460793E-17	9.553505E-01
4.747792E+03	2.611785E-15	7.841011E-17	9.550884E-01
4.752031E+03	2.597889E-15	7.905610E-17	9.548253E-01
4.756270E+03	2.583520E-15	7.582742E-17	9.545613E-01
4.760508E+03	2.564767E-15	7.460503E-17	9.542964E-01
4.764747E+03	2.542014E-15	7.785296E-17	9.540305E-01
4.768985E+03	2.517745E-15	7.973500E-17	9.537637E-01
4.773224E+03	2.494250E-15	8.022101E-17	9.534960E-01
4.777462E+03	2.469145E-15	8.027453E-17	9.532274E-01
4.781701E+03	2.439953E-15	7.911334E-17	9.529578E-01
4.785940E+03	2.408108E-15	7.669994E-17	9.526873E-01
4.790178E+03	2.373516E-15	7.276802E-17	9.524158E-01
4.794417E+03	2.338845E-15	6.800294E-17	9.521435E-01
4.798655E+03	2.304668E-15	6.605577E-17	9.518701E-01
4.802894E+03	2.270032E-15	6.557682E-17	9.515959E-01
4.807132E+03	2.241692E-15	6.433246E-17	9.513207E-01
4.811371E+03	2.216219E-15	5.883855E-17	9.510446E-01
4.815610E+03	2.194657E-15	5.381467E-17	9.507675E-01
4.819848E+03	2.180613E-15	5.030516E-17	9.504895E-01
4.824087E+03	2.171326E-15	4.981147E-17	9.502105E-01
4.828325E+03	2.163087E-15	5.004675E-17	9.499306E-01
4.832564E+03	2.155610E-15	4.780719E-17	9.496497E-01
4.836803E+03	2.148230E-15	4.186272E-17	9.493679E-01
4.841041E+03	2.139428E-15	4.071302E-17	9.490852E-01
4.845280E+03	2.128731E-15	3.974969E-17	9.488014E-01
4.849518E+03	2.116615E-15	3.940655E-17	9.485168E-01
4.853757E+03	2.103556E-15	3.968834E-17	9.482312E-01
4.857995E+03	2.093156E-15	3.943346E-17	9.479446E-01
4.862234E+03	2.086646E-15	3.826502E-17	9.476571E-01
4.866473E+03	2.080895E-15	3.817147E-17	9.473686E-01
4.870711E+03	2.074103E-15	3.919789E-17	9.470792E-01
4.874950E+03	2.068733E-15	3.920284E-17	9.467888E-01
4.879188E+03	2.063648E-15	3.863902E-17	9.464974E-01
4.883427E+03	2.054022E-15	3.945413E-17	9.462051E-01
4.887666E+03	2.041372E-15	4.014399E-17	9.459118E-01
4.891904E+03	2.033456E-15	4.013095E-17	9.456175E-01
4.896143E+03	2.035373E-15	3.996322E-17	9.453223E-01
4.900381E+03	2.042390E-15	4.052963E-17	9.450261E-01
4.904620E+03	2.049400E-15	4.170048E-17	9.447289E-01
4.908859E+03	2.057820E-15	4.180152E-17	9.444308E-01
4.913097E+03	2.066610E-15	4.387614E-17	9.441317E-01
4.917336E+03	2.076241E-15	4.561582E-17	9.438316E-01
4.921574E+03	2.085108E-15	4.532760E-17	9.435305E-01
4.925813E+03	2.090572E-15	5.031823E-17	9.432285E-01
4.930051E+03	2.093860E-15	5.489110E-17	9.429255E-01
4.934290E+03	2.095353E-15	5.364958E-17	9.426215E-01
4.938529E+03	2.094675E-15	5.637668E-17	9.423165E-01
4.942767E+03	2.089097E-15	6.268120E-17	9.420106E-01
4.947006E+03	2.077681E-15	6.338333E-17	9.417036E-01
4.951244E+03	2.064198E-15	6.145116E-17	9.413957E-01
4.955483E+03	2.045452E-15	6.082008E-17	9.410868E-01
4.959721E+03	2.024646E-15	6.013351E-17	9.407769E-01
4.963960E+03	2.004603E-15	5.896050E-17	9.404660E-01
4.968199E+03	1.983631E-15	5.846308E-17	9.401541E-01
4.972437E+03	1.961355E-15	5.375253E-17	9.398413E-01
4.976676E+03	1.939466E-15	4.473074E-17	9.395274E-01
4.980914E+03	1.919938E-15	4.184138E-17	9.392126E-01
4.985153E+03	1.902299E-15	4.141497E-17	9.388967E-01
4.989391E+03	1.887015E-15	3.659664E-17	9.385798E-01
4.993630E+03	1.872865E-15	3.495465E-17	9.382620E-01
4.997869E+03	1.863224E-15	3.516096E-17	9.379431E-01
5.002107E+03	1.857338E-15	3.529662E-17	9.376233E-01
5.006346E+03	1.854640E-15	3.523917E-17	9.373024E-01
5.010584E+03	1.854566E-15	3.563347E-17	9.369805E-01
5.014823E+03	1.853458E-15	3.690999E-17	9.366577E-01
5.019062E+03	1.853098E-15	3.683970E-17	9.363338E-01
5.023300E+03	1.849554E-15	3.636617E-17	9.360089E-01
5.027539E+03	1.842547E-15	3.608284E-17	9.356830E-01
5.031777E+03	1.834046E-15	3.584962E-17	9.353560E-01
5.036016E+03	1.826203E-15	3.438208E-17	9.350281E-01
5.040255E+03	1.820794E-15	3.453753E-17	9.346991E-01
5.044493E+03	1.814732E-15	3.384729E-17	9.343692E-01
5.048732E+03	1.805589E-15	3.334722E-17	9.340382E-01
5.052970E+03	1.795797E-15	3.348209E-17	9.337062E-01
5.057209E+03	1.786290E-15	3.373960E-17	9.333731E-01
5.061447E+03	1.778279E-15	3.206835E-17	9.330391E-01
5.065686E+03	1.771112E-15	3.191698E-17	9.327040E-01
5.069925E+03	1.765345E-15	3.217883E-17	9.323679E-01
5.074163E+03	1.760326E-15	3.227555E-17	9.320308E-01
5.078402E+03	1.757452E-15	3.228546E-17	9.316926E-01
5.082640E+03	1.756626E-15	3.348182E-17	9.313534E-01
5.086879E+03	1.754774E-15	3.214376E-17	9.310132E-01
5.091117E+03	1.750687E-15	3.208215E-17	9.306719E-01
5.095356E+03	1.745763E-15	3.199008E-17	9.303296E-01
5.099595E+03	1.739074E-15	3.140714E-17	9.299862E-01
5.103833E+03	1.732945E-15	2.951326E-17	9.296418E-01
5.108072E+03	1.730629E-15	2.938709E-17	9.292964E-01
5.112310E+03	1.728683E-15	2.933970E-17	9.289500E-01
5.116549E+03	1.724600E-15	2.868551E-17	9.286024E-01
5.120788E+03	1.720890E-15	2.801920E-17	9.282539E-01
5.125026E+03	1.715695E-15	2.864537E-17	9.279043E-01
5.129265E+03	1.709110E-15	2.766518E-17	9.275536E-01
5.133503E+03	1.701601E-15	2.758750E-17	9.272019E-01
5.137742E+03	1.692612E-15	2.885418E-17	9.268491E-01
5.141980E+03	1.684646E-15	2.833431E-17	9.264953E-01
5.146219E+03	1.675944E-15	2.812275E-17	9.261405E-01
5.150458E+03	1.670300E-15	2.842813E-17	9.257845E-01
5.154696E+03	1.665770E-15	2.967185E-17	9.254275E-01
5.158935E+03	1.660315E-15	2.974970E-17	9.250695E-01
5.163173E+03	1.656156E-15	2.985728E-17	9.247104E-01
5.167412E+03	1.650705E-15	2.948314E-17	9.243502E-01
5.171650E+03	1.643961E-15	3.003178E-17	9.239889E-01
5.175889E+03	1.637221E-15	2.941283E-17	9.236266E-01
5.180128E+03	1.630668E-15	2.920434E-17	9.232633E-01
5.184366E+03	1.623933E-15	2.829169E-17	9.228988E-01
5.188605E+03	1.617847E-15	2.839584E-17	9.225333E-01
5.192843E+03	1.613331E-15	2.898001E-17	9.221667E-01
5.197082E+03	1.609277E-15	2.943059E-17	9.217990E-01
5.201320E+03	1.604210E-15	2.760561E-17	9.214302E-01
5.205559E+03	1.596106E-15	2.759884E-17	9.210604E-01
5.209798E+03	1.588466E-15	2.722618E-17	9.206895E-01
5.214036E+03	1.582670E-15	3.151030E-17	9.203175E-01
5.218275E+03	1.577981E-15	3.195382E-17	9.199444E-01
5.222513E+03	1.573844E-15	3.137632E-17	9.195702E-01
5.226752E+03	1.569801E-15	3.124590E-17	9.191950E-01
5.230991E+03	1.564932E-15	3.097375E-17	9.188186E-01
5.235229E+03	1.558870E-15	3.206481E-17	9.184412E-01
5.239468E+03	1.554739E-15	3.319005E-17	9.180626E-01
5.243706E+03	1.551618E-15	3.211816E-17	9.176830E-01
5.247945E+03	1.549415E-15	3.360392E-17	9.173023E-01
5.252184E+03	1.549320E-15	3.370778E-17	9.169204E-01
5.256422E+03	1.547757E-15	3.385548E-17	9.165375E-01
5.260661E+03	1.545368E-15	3.117914E-17	9.161535E-01
5.264899E+03	1.543253E-15	2.878273E-17	9.157683E-01
5.269138E+03	1.540130E-15	3.107022E-17	9.153821E-01
5.273376E+03	1.537100E-15	3.161804E-17	9.149947E-01
