#wls	flux	fluxerr
1.590679E+03	3.534787E-15	1.238051E-19
1.630446E+03	3.628689E-15	1.270939E-19
1.670213E+03	3.717246E-15	1.301956E-19
1.709980E+03	3.799740E-15	1.330849E-19
1.749746E+03	3.875389E-15	1.357344E-19
1.789513E+03	3.942980E-15	1.381017E-19
1.829280E+03	4.000809E-15	1.401271E-19
1.869047E+03	4.047121E-15	1.417492E-19
1.908814E+03	4.079717E-15	1.428908E-19
1.948581E+03	4.096486E-15	1.434781E-19
1.988348E+03	4.095545E-15	1.434451E-19
2.028115E+03	4.075550E-15	1.427447E-19
2.067882E+03	4.034515E-15	1.413074E-19
2.107649E+03	3.977050E-15	1.392947E-19
2.147416E+03	3.933940E-15	1.377848E-19
2.187183E+03	3.929213E-15	1.376191E-19
2.226950E+03	3.968540E-15	1.389965E-19
2.266717E+03	4.043266E-15	1.416137E-19
2.306484E+03	4.150734E-15	1.453777E-19
2.346251E+03	4.293809E-15	1.503888E-19
2.386018E+03	4.471954E-15	1.566282E-19
2.425785E+03	4.683355E-15	1.640324E-19
2.465552E+03	4.925827E-15	1.725248E-19
2.505319E+03	5.195824E-15	1.819813E-19
2.545086E+03	5.487437E-15	1.921948E-19
2.584853E+03	5.788727E-15	2.027473E-19
2.624620E+03	6.079751E-15	2.129402E-19
2.664387E+03	6.355971E-15	2.226146E-19
2.704154E+03	6.624809E-15	2.320304E-19
2.743921E+03	6.889949E-15	2.413167E-19
2.783688E+03	7.153302E-15	2.505404E-19
2.823455E+03	7.415977E-15	2.597404E-19
2.863222E+03	7.678387E-15	2.689311E-19
2.902988E+03	7.940774E-15	2.781209E-19
2.942755E+03	8.203095E-15	2.873085E-19
2.982522E+03	8.465088E-15	2.964845E-19
2.992464E+03	8.530511E-15	2.987759E-19
3.002406E+03	8.595828E-15	3.010636E-19
3.012348E+03	8.661109E-15	3.033500E-19
3.022289E+03	8.726277E-15	3.056324E-19
3.032231E+03	8.791448E-15	3.079149E-19
3.042173E+03	8.856382E-15	3.101892E-19
3.052115E+03	8.921525E-15	3.124708E-19
3.062056E+03	8.986776E-15	3.147561E-19
3.071998E+03	9.052155E-15	3.170459E-19
3.081940E+03	9.117566E-15	3.193369E-19
3.091882E+03	9.182918E-15	3.216258E-19
3.101823E+03	9.248240E-15	3.239136E-19
3.111765E+03	9.313462E-15	3.261980E-19
3.121707E+03	9.378541E-15	3.284773E-19
3.131649E+03	9.443428E-15	3.307499E-19
3.141590E+03	9.508027E-15	3.330124E-19
3.151532E+03	9.572402E-15	3.352671E-19
3.161474E+03	9.636419E-15	3.375092E-19
3.171416E+03	9.700026E-15	3.397370E-19
3.181357E+03	9.763270E-15	3.419520E-19
3.191299E+03	9.826095E-15	3.441524E-19
3.201241E+03	9.888397E-15	3.463344E-19
3.211182E+03	9.950114E-15	3.484960E-19
3.221124E+03	1.001132E-14	3.506398E-19
3.231066E+03	1.007192E-14	3.527620E-19
3.241008E+03	1.013179E-14	3.548591E-19
3.250949E+03	1.019102E-14	3.569335E-19
3.260891E+03	1.024950E-14	3.589818E-19
3.270833E+03	1.030715E-14	3.610006E-19
3.280775E+03	1.036392E-14	3.629889E-19
3.290716E+03	1.041982E-14	3.649470E-19
3.300658E+03	1.047472E-14	3.668696E-19
3.310600E+03	1.052862E-14	3.687577E-19
3.320542E+03	1.058137E-14	3.706052E-19
3.330483E+03	1.063294E-14	3.724112E-19
3.340425E+03	1.068326E-14	3.741737E-19
3.350367E+03	1.073212E-14	3.758849E-19
3.360309E+03	1.077950E-14	3.775442E-19
3.370250E+03	1.082522E-14	3.791455E-19
3.380192E+03	1.086912E-14	3.806830E-19
3.390134E+03	1.091103E-14	3.821508E-19
3.400076E+03	1.095069E-14	3.835399E-19
3.410017E+03	1.098788E-14	3.848425E-19
3.419959E+03	1.102226E-14	3.860467E-19
3.429901E+03	1.105348E-14	3.871401E-19
3.439843E+03	1.108119E-14	3.881105E-19
3.449784E+03	1.110508E-14	3.889473E-19
3.457738E+03	1.135631E-14	3.977463E-19
3.459199E+03	1.134318E-14	3.972866E-19
3.460661E+03	1.132690E-14	3.967164E-19
3.462122E+03	1.131797E-14	3.964036E-19
3.463583E+03	1.130484E-14	3.959436E-19
3.465045E+03	1.128435E-14	3.952260E-19
3.466506E+03	1.127122E-14	3.947659E-19
3.467968E+03	1.125702E-14	3.942687E-19
3.469429E+03	1.123443E-14	3.934774E-19
3.470891E+03	1.121918E-14	3.929433E-19
3.472352E+03	1.121022E-14	3.926296E-19
3.473813E+03	1.120021E-14	3.922789E-19
3.475275E+03	1.118810E-14	3.918550E-19
3.476736E+03	1.118019E-14	3.915778E-19
3.478198E+03	1.117542E-14	3.914107E-19
3.479659E+03	1.116750E-14	3.911334E-19
3.481121E+03	1.115749E-14	3.907826E-19
3.482582E+03	1.115586E-14	3.907258E-19
3.484044E+03	1.115634E-14	3.907423E-19
3.485505E+03	1.115051E-14	3.905382E-19
3.486966E+03	1.114783E-14	3.904445E-19
3.488428E+03	1.114935E-14	3.904976E-19
3.489889E+03	1.115402E-14	3.906611E-19
3.491351E+03	1.116289E-14	3.909718E-19
3.492812E+03	1.117491E-14	3.913929E-19
3.494274E+03	1.118378E-14	3.917035E-19
3.495735E+03	1.119055E-14	3.919406E-19
3.497196E+03	1.119731E-14	3.921774E-19
3.498658E+03	1.121249E-14	3.927088E-19
3.500119E+03	1.123395E-14	3.934606E-19
3.501581E+03	1.125438E-14	3.941760E-19
3.503042E+03	1.127060E-14	3.947441E-19
3.504504E+03	1.128996E-14	3.954225E-19
3.505965E+03	1.131039E-14	3.961378E-19
3.507426E+03	1.133397E-14	3.969636E-19
3.508888E+03	1.136174E-14	3.979364E-19
3.510349E+03	1.139162E-14	3.989829E-19
3.511811E+03	1.141940E-14	3.999559E-19
3.513272E+03	1.145244E-14	4.011130E-19
3.514734E+03	1.148443E-14	4.022333E-19
3.516195E+03	1.152167E-14	4.035376E-19
3.517657E+03	1.155996E-14	4.048790E-19
3.519118E+03	1.159511E-14	4.061098E-19
3.520579E+03	1.163025E-14	4.073407E-19
3.522041E+03	1.166014E-14	4.083874E-19
3.523502E+03	1.169529E-14	4.096186E-19
3.524964E+03	1.173044E-14	4.108496E-19
3.526425E+03	1.176138E-14	4.119333E-19
3.527887E+03	1.178602E-14	4.127963E-19
3.529348E+03	1.180960E-14	4.136222E-19
3.530809E+03	1.183740E-14	4.145957E-19
3.532271E+03	1.185993E-14	4.153849E-19
3.533732E+03	1.187931E-14	4.160639E-19
3.535194E+03	1.189975E-14	4.167796E-19
3.536655E+03	1.192439E-14	4.176426E-19
3.538117E+03	1.193851E-14	4.181372E-19
3.539578E+03	1.194948E-14	4.185213E-19
3.541040E+03	1.196360E-14	4.190159E-19
3.542501E+03	1.197983E-14	4.195843E-19
3.543962E+03	1.198659E-14	4.198210E-19
3.545424E+03	1.199125E-14	4.199842E-19
3.546885E+03	1.199485E-14	4.201104E-19
3.548347E+03	1.200582E-14	4.204947E-19
3.549808E+03	1.200837E-14	4.205840E-19
3.551270E+03	1.200355E-14	4.204151E-19
3.552731E+03	1.199874E-14	4.202465E-19
3.554192E+03	1.199602E-14	4.201514E-19
3.555654E+03	1.199857E-14	4.202406E-19
3.557115E+03	1.199585E-14	4.201454E-19
3.558577E+03	1.198998E-14	4.199396E-19
3.560038E+03	1.198411E-14	4.197341E-19
3.561500E+03	1.197717E-14	4.194912E-19
3.562961E+03	1.197129E-14	4.192853E-19
3.564422E+03	1.197068E-14	4.192638E-19
3.565884E+03	1.196796E-14	4.191685E-19
3.567345E+03	1.196102E-14	4.189254E-19
3.568807E+03	1.195619E-14	4.187562E-19
3.570268E+03	1.195978E-14	4.188819E-19
3.571730E+03	1.196652E-14	4.191180E-19
3.573191E+03	1.197011E-14	4.192437E-19
3.574653E+03	1.196843E-14	4.191850E-19
3.576114E+03	1.196885E-14	4.191998E-19
3.577575E+03	1.197665E-14	4.194728E-19
3.579037E+03	1.198340E-14	4.197091E-19
3.580498E+03	1.198803E-14	4.198713E-19
3.581960E+03	1.198635E-14	4.198125E-19
3.583421E+03	1.197940E-14	4.195692E-19
3.584883E+03	1.197140E-14	4.192888E-19
3.586344E+03	1.197076E-14	4.192667E-19
3.587805E+03	1.196908E-14	4.192078E-19
3.589267E+03	1.196528E-14	4.190748E-19
3.590728E+03	1.196570E-14	4.190894E-19
3.592190E+03	1.195770E-14	4.188092E-19
3.593651E+03	1.193811E-14	4.181229E-19
3.595113E+03	1.192378E-14	4.176211E-19
3.596574E+03	1.191471E-14	4.173034E-19
3.598036E+03	1.190354E-14	4.169122E-19
3.599497E+03	1.189342E-14	4.165577E-19
3.600958E+03	1.188961E-14	4.164245E-19
3.602420E+03	1.187422E-14	4.158854E-19
3.603881E+03	1.186199E-14	4.154570E-19
3.605343E+03	1.185082E-14	4.150656E-19
3.606804E+03	1.183647E-14	4.145632E-19
3.608266E+03	1.182002E-14	4.139870E-19
3.609727E+03	1.179936E-14	4.132632E-19
3.611188E+03	1.178396E-14	4.127240E-19
3.612650E+03	1.175486E-14	4.117047E-19
3.614111E+03	1.172259E-14	4.105747E-19
3.615573E+03	1.169982E-14	4.097769E-19
3.617034E+03	1.166017E-14	4.083883E-19
3.618496E+03	1.162052E-14	4.069997E-19
3.619957E+03	1.159247E-14	4.060170E-19
3.621418E+03	1.155597E-14	4.047389E-19
3.622880E+03	1.151421E-14	4.032762E-19
3.624341E+03	1.147561E-14	4.019242E-19
3.625803E+03	1.143490E-14	4.004982E-19
3.627264E+03	1.138785E-14	3.988504E-19
3.628726E+03	1.133659E-14	3.970552E-19
3.630187E+03	1.129797E-14	3.957026E-19
3.631649E+03	1.125829E-14	3.943128E-19
3.633110E+03	1.121335E-14	3.927387E-19
3.634571E+03	1.117156E-14	3.912749E-19
3.636033E+03	1.113925E-14	3.901435E-19
3.637494E+03	1.110378E-14	3.889010E-19
3.638956E+03	1.107252E-14	3.878063E-19
3.640417E+03	1.103915E-14	3.866376E-19
3.641879E+03	1.100051E-14	3.852843E-19
3.643340E+03	1.096503E-14	3.840416E-19
3.644801E+03	1.093903E-14	3.831310E-19
3.646263E+03	1.092253E-14	3.825528E-19
3.647724E+03	1.091024E-14	3.821225E-19
3.649186E+03	1.090216E-14	3.818396E-19
3.650647E+03	1.089198E-14	3.814828E-19
3.652109E+03	1.088601E-14	3.812738E-19
3.653570E+03	1.089270E-14	3.815081E-19
3.655032E+03	1.090571E-14	3.819638E-19
3.656493E+03	1.092716E-14	3.827152E-19
3.657954E+03	1.095600E-14	3.837252E-19
3.659416E+03	1.098695E-14	3.848092E-19
3.660877E+03	1.102423E-14	3.861147E-19
3.662339E+03	1.107311E-14	3.878267E-19
3.663800E+03	1.112621E-14	3.896867E-19
3.665262E+03	1.118670E-14	3.918053E-19
3.666723E+03	1.124614E-14	3.938872E-19
3.668184E+03	1.131086E-14	3.961539E-19
3.669646E+03	1.138297E-14	3.986793E-19
3.671107E+03	1.145402E-14	4.011680E-19
3.672569E+03	1.153564E-14	4.040265E-19
3.674030E+03	1.161831E-14	4.069219E-19
3.675492E+03	1.169888E-14	4.097438E-19
3.676953E+03	1.178473E-14	4.127506E-19
3.678414E+03	1.188430E-14	4.162379E-19
3.679876E+03	1.198598E-14	4.197994E-19
3.681337E+03	1.207711E-14	4.229912E-19
3.682799E+03	1.217248E-14	4.263314E-19
3.684260E+03	1.226680E-14	4.296350E-19
3.685722E+03	1.236218E-14	4.329755E-19
3.687183E+03	1.246073E-14	4.364272E-19
3.688645E+03	1.256563E-14	4.401009E-19
3.690106E+03	1.266313E-14	4.435158E-19
3.691567E+03	1.276170E-14	4.469683E-19
3.693029E+03	1.286239E-14	4.504949E-19
3.694490E+03	1.296414E-14	4.540585E-19
3.695952E+03	1.306800E-14	4.576962E-19
3.697413E+03	1.316766E-14	4.611865E-19
3.698875E+03	1.325887E-14	4.643811E-19
3.700336E+03	1.334692E-14	4.674650E-19
3.701797E+03	1.343814E-14	4.706601E-19
3.703259E+03	1.352831E-14	4.738183E-19
3.704720E+03	1.361744E-14	4.769397E-19
3.706182E+03	1.369073E-14	4.795067E-19
3.707643E+03	1.375664E-14	4.818151E-19
3.709105E+03	1.381832E-14	4.839756E-19
3.710566E+03	1.387790E-14	4.860622E-19
3.712028E+03	1.393959E-14	4.882229E-19
3.713489E+03	1.400446E-14	4.904949E-19
3.714950E+03	1.405666E-14	4.923231E-19
3.716412E+03	1.409936E-14	4.938186E-19
3.717873E+03	1.414205E-14	4.953138E-19
3.719335E+03	1.418687E-14	4.968835E-19
3.720796E+03	1.422324E-14	4.981573E-19
3.722258E+03	1.425749E-14	4.993571E-19
3.723719E+03	1.428436E-14	5.002980E-19
3.725180E+03	1.430489E-14	5.010172E-19
3.726642E+03	1.432014E-14	5.015513E-19
3.728103E+03	1.433539E-14	5.020854E-19
3.729565E+03	1.434959E-14	5.025825E-19
3.731026E+03	1.435216E-14	5.026728E-19
3.732488E+03	1.435368E-14	5.027259E-19
3.733949E+03	1.435415E-14	5.027422E-19
3.735410E+03	1.434721E-14	5.024994E-19
3.736872E+03	1.433500E-14	5.020717E-19
3.738333E+03	1.432173E-14	5.016068E-19
3.739795E+03	1.430317E-14	5.009568E-19
3.741256E+03	1.427933E-14	5.001220E-19
3.742718E+03	1.425443E-14	4.992499E-19
3.744179E+03	1.423164E-14	4.984515E-19
3.745641E+03	1.420463E-14	4.975054E-19
3.747102E+03	1.417233E-14	4.963741E-19
3.748563E+03	1.414003E-14	4.952428E-19
3.750025E+03	1.410666E-14	4.940743E-19
3.751486E+03	1.407119E-14	4.928317E-19
3.752948E+03	1.403571E-14	4.915891E-19
3.754409E+03	1.400233E-14	4.904202E-19
3.755871E+03	1.396579E-14	4.891404E-19
3.757332E+03	1.392608E-14	4.877496E-19
3.758793E+03	1.388319E-14	4.862474E-19
3.760255E+03	1.383818E-14	4.846710E-19
3.761716E+03	1.378155E-14	4.826876E-19
3.763178E+03	1.372491E-14	4.807038E-19
3.764639E+03	1.366616E-14	4.786459E-19
3.766101E+03	1.360000E-14	4.763286E-19
3.767562E+03	1.354123E-14	4.742703E-19
3.769024E+03	1.347717E-14	4.720266E-19
3.770485E+03	1.340360E-14	4.694498E-19
3.771946E+03	1.332896E-14	4.668358E-19
3.773408E+03	1.325431E-14	4.642213E-19
3.774869E+03	1.317438E-14	4.614218E-19
3.776331E+03	1.309339E-14	4.585850E-19
3.777792E+03	1.301661E-14	4.558959E-19
3.779254E+03	1.293878E-14	4.531699E-19
3.780715E+03	1.285037E-14	4.500734E-19
3.782176E+03	1.276617E-14	4.471247E-19
3.783638E+03	1.268832E-14	4.443980E-19
3.785099E+03	1.260835E-14	4.415971E-19
3.786561E+03	1.252732E-14	4.387590E-19
3.788022E+03	1.245263E-14	4.361430E-19
3.789484E+03	1.237687E-14	4.334896E-19
3.790945E+03	1.229794E-14	4.307252E-19
3.792406E+03	1.222641E-14	4.282198E-19
3.793868E+03	1.215593E-14	4.257512E-19
3.795329E+03	1.208334E-14	4.232088E-19
3.796791E+03	1.201285E-14	4.207400E-19
3.798252E+03	1.194552E-14	4.183821E-19
3.799714E+03	1.188031E-14	4.160981E-19
3.801175E+03	1.181934E-14	4.139626E-19
3.802637E+03	1.176259E-14	4.119748E-19
3.804098E+03	1.171007E-14	4.101354E-19
3.805559E+03	1.165860E-14	4.083326E-19
3.807021E+03	1.160501E-14	4.064559E-19
3.808482E+03	1.155460E-14	4.046901E-19
3.809944E+03	1.150630E-14	4.029984E-19
3.811405E+03	1.146117E-14	4.014179E-19
3.812867E+03	1.141921E-14	3.999483E-19
3.814328E+03	1.137830E-14	3.985156E-19
3.815789E+03	1.133423E-14	3.969718E-19
3.817251E+03	1.129438E-14	3.955762E-19
3.818712E+03	1.126088E-14	3.944028E-19
3.820174E+03	1.122843E-14	3.932664E-19
3.821635E+03	1.120340E-14	3.923897E-19
3.823097E+03	1.117624E-14	3.914385E-19
3.824558E+03	1.114696E-14	3.904130E-19
3.826020E+03	1.112298E-14	3.895731E-19
3.827481E+03	1.110324E-14	3.888815E-19
3.828942E+03	1.107819E-14	3.880044E-19
3.830404E+03	1.104996E-14	3.870157E-19
3.831865E+03	1.102492E-14	3.861386E-19
3.833327E+03	1.100411E-14	3.854096E-19
3.834788E+03	1.098541E-14	3.847546E-19
3.836250E+03	1.097307E-14	3.843224E-19
3.837711E+03	1.096284E-14	3.839641E-19
3.839172E+03	1.095049E-14	3.835317E-19
3.840634E+03	1.094767E-14	3.834330E-19
3.842095E+03	1.095121E-14	3.835568E-19
3.843557E+03	1.094945E-14	3.834954E-19
3.845018E+03	1.094769E-14	3.834337E-19
3.846480E+03	1.094594E-14	3.833723E-19
3.847941E+03	1.094736E-14	3.834220E-19
3.849403E+03	1.095301E-14	3.836201E-19
3.850864E+03	1.096821E-14	3.841522E-19
3.852325E+03	1.098023E-14	3.845731E-19
3.853787E+03	1.099436E-14	3.850682E-19
3.855248E+03	1.100743E-14	3.855260E-19
3.856710E+03	1.101839E-14	3.859098E-19
3.858171E+03	1.103465E-14	3.864792E-19
3.859633E+03	1.106044E-14	3.873824E-19
3.861094E+03	1.108305E-14	3.881744E-19
3.862555E+03	1.110884E-14	3.890778E-19
3.864017E+03	1.113677E-14	3.900558E-19
3.865478E+03	1.116892E-14	3.911819E-19
3.866940E+03	1.120426E-14	3.924197E-19
3.868401E+03	1.124172E-14	3.937315E-19
3.869863E+03	1.127706E-14	3.949693E-19
3.871324E+03	1.131453E-14	3.962816E-19
3.872785E+03	1.135093E-14	3.975568E-19
3.874247E+03	1.139052E-14	3.989432E-19
3.875708E+03	1.143330E-14	4.004414E-19
3.877170E+03	1.147712E-14	4.019764E-19
3.878631E+03	1.151566E-14	4.033262E-19
3.880093E+03	1.155420E-14	4.046761E-19
3.881554E+03	1.159911E-14	4.062489E-19
3.883016E+03	1.164508E-14	4.078588E-19
3.884477E+03	1.168893E-14	4.093947E-19
3.885938E+03	1.173702E-14	4.110790E-19
3.887400E+03	1.178723E-14	4.128377E-19
3.888861E+03	1.184063E-14	4.147079E-19
3.890323E+03	1.189086E-14	4.164671E-19
3.891784E+03	1.194108E-14	4.182262E-19
3.893246E+03	1.199661E-14	4.201710E-19
3.894707E+03	1.205427E-14	4.221905E-19
3.896168E+03	1.211617E-14	4.243586E-19
3.897630E+03	1.217807E-14	4.265265E-19
3.899091E+03	1.223786E-14	4.286207E-19
3.900553E+03	1.229766E-14	4.307150E-19
3.902014E+03	1.235852E-14	4.328464E-19
3.903476E+03	1.241726E-14	4.349037E-19
3.904937E+03	1.246964E-14	4.367383E-19
3.906399E+03	1.252414E-14	4.386472E-19
3.907860E+03	1.257865E-14	4.405566E-19
3.909321E+03	1.263211E-14	4.424288E-19
3.910783E+03	1.268451E-14	4.442639E-19
3.912244E+03	1.274115E-14	4.462476E-19
3.913706E+03	1.279143E-14	4.480088E-19
3.915167E+03	1.284065E-14	4.497328E-19
3.916629E+03	1.289307E-14	4.515685E-19
3.918090E+03	1.293699E-14	4.531071E-19
3.919551E+03	1.297774E-14	4.545343E-19
3.921013E+03	1.302061E-14	4.560358E-19
3.922474E+03	1.305924E-14	4.573887E-19
3.923936E+03	1.309258E-14	4.585562E-19
3.925397E+03	1.312697E-14	4.597608E-19
3.926859E+03	1.315818E-14	4.608539E-19
3.928320E+03	1.318833E-14	4.619099E-19
3.929781E+03	1.321531E-14	4.628548E-19
3.931243E+03	1.324547E-14	4.639109E-19
3.932704E+03	1.327774E-14	4.650415E-19
3.934166E+03	1.330685E-14	4.660609E-19
3.935627E+03	1.333277E-14	4.669685E-19
3.937089E+03	1.335656E-14	4.678020E-19
3.938550E+03	1.337294E-14	4.683755E-19
3.940012E+03	1.338188E-14	4.686886E-19
3.941473E+03	1.339295E-14	4.690763E-19
3.942934E+03	1.340295E-14	4.694265E-19
3.944396E+03	1.341083E-14	4.697028E-19
3.945857E+03	1.341660E-14	4.699046E-19
3.947319E+03	1.342023E-14	4.700318E-19
3.948780E+03	1.342493E-14	4.701964E-19
3.950242E+03	1.342220E-14	4.701008E-19
3.951703E+03	1.341734E-14	4.699307E-19
3.953164E+03	1.341461E-14	4.698351E-19
3.954626E+03	1.340764E-14	4.695908E-19
3.956087E+03	1.339534E-14	4.691602E-19
3.957549E+03	1.338306E-14	4.687300E-19
3.959010E+03	1.336652E-14	4.681508E-19
3.960472E+03	1.335104E-14	4.676087E-19
3.961933E+03	1.333556E-14	4.670665E-19
3.963395E+03	1.331690E-14	4.664127E-19
3.964856E+03	1.329187E-14	4.655360E-19
3.966317E+03	1.326895E-14	4.647333E-19
3.967779E+03	1.324816E-14	4.640052E-19
3.969240E+03	1.322418E-14	4.631654E-19
3.970702E+03	1.319914E-14	4.622883E-19
3.972163E+03	1.317090E-14	4.612992E-19
3.973625E+03	1.314055E-14	4.602361E-19
3.975086E+03	1.311125E-14	4.592099E-19
3.976547E+03	1.307983E-14	4.581094E-19
3.978009E+03	1.304521E-14	4.568969E-19
3.979470E+03	1.301165E-14	4.557217E-19
3.980932E+03	1.298447E-14	4.547697E-19
3.982393E+03	1.296154E-14	4.539665E-19
3.983855E+03	1.293967E-14	4.532005E-19
3.985316E+03	1.292630E-14	4.527321E-19
3.986777E+03	1.291505E-14	4.523382E-19
3.988239E+03	1.290060E-14	4.518322E-19
3.989700E+03	1.289361E-14	4.515873E-19
3.991162E+03	1.288873E-14	4.514164E-19
3.992623E+03	1.287960E-14	4.510966E-19
3.994085E+03	1.287366E-14	4.508887E-19
3.995546E+03	1.287091E-14	4.507923E-19
3.997008E+03	1.287240E-14	4.508446E-19
3.998469E+03	1.287815E-14	4.510460E-19
3.999930E+03	1.288391E-14	4.512475E-19
4.001392E+03	1.288222E-14	4.511885E-19
4.002853E+03	1.288159E-14	4.511663E-19
4.004315E+03	1.288628E-14	4.513305E-19
4.005776E+03	1.289204E-14	4.515321E-19
4.007238E+03	1.290629E-14	4.520313E-19
4.008699E+03	1.291735E-14	4.524189E-19
4.010160E+03	1.292523E-14	4.526948E-19
4.011622E+03	1.293630E-14	4.530824E-19
4.013083E+03	1.294631E-14	4.534331E-19
4.014545E+03	1.295206E-14	4.536344E-19
4.016006E+03	1.296313E-14	4.540222E-19
4.017468E+03	1.297208E-14	4.543354E-19
4.018929E+03	1.297996E-14	4.546116E-19
4.020391E+03	1.299103E-14	4.549993E-19
4.021852E+03	1.300211E-14	4.553874E-19
4.023313E+03	1.301105E-14	4.557005E-19
4.024775E+03	1.301788E-14	4.559395E-19
4.026236E+03	1.302257E-14	4.561039E-19
4.027698E+03	1.302832E-14	4.563054E-19
4.029159E+03	1.303196E-14	4.564328E-19
4.030621E+03	1.303771E-14	4.566344E-19
4.032082E+03	1.303922E-14	4.566871E-19
4.033543E+03	1.303860E-14	4.566652E-19
4.035005E+03	1.303797E-14	4.566433E-19
4.036466E+03	1.303309E-14	4.564725E-19
4.037928E+03	1.302928E-14	4.563389E-19
4.039389E+03	1.301588E-14	4.558698E-19
4.040851E+03	1.300463E-14	4.554754E-19
4.042312E+03	1.299655E-14	4.551926E-19
4.043773E+03	1.298848E-14	4.549098E-19
4.045235E+03	1.297614E-14	4.544778E-19
4.046696E+03	1.295530E-14	4.537479E-19
4.048158E+03	1.293340E-14	4.529807E-19
4.049619E+03	1.291255E-14	4.522505E-19
4.051081E+03	1.289063E-14	4.514829E-19
4.052542E+03	1.287085E-14	4.507901E-19
4.054004E+03	1.285000E-14	4.500599E-19
4.055465E+03	1.283021E-14	4.493667E-19
4.056926E+03	1.281361E-14	4.487853E-19
4.058388E+03	1.279382E-14	4.480921E-19
4.059849E+03	1.277510E-14	4.474363E-19
4.061311E+03	1.275530E-14	4.467430E-19
4.062772E+03	1.273763E-14	4.461242E-19
4.064234E+03	1.272635E-14	4.457289E-19
4.065695E+03	1.271507E-14	4.453339E-19
4.067156E+03	1.270059E-14	4.448266E-19
4.068618E+03	1.268717E-14	4.443568E-19
4.070079E+03	1.267589E-14	4.439618E-19
4.071541E+03	1.266461E-14	4.435664E-19
4.073002E+03	1.265970E-14	4.433946E-19
4.074464E+03	1.265480E-14	4.432231E-19
4.075925E+03	1.264777E-14	4.429768E-19
4.077387E+03	1.264499E-14	4.428796E-19
4.078848E+03	1.264116E-14	4.427452E-19
4.080309E+03	1.264265E-14	4.427974E-19
4.081771E+03	1.264520E-14	4.428867E-19
4.083232E+03	1.264668E-14	4.429386E-19
