#wls	flux	fluxerr
1.590679E+03	1.374484E-16	7.383820E-19
1.630446E+03	1.384834E-16	7.439422E-19
1.670213E+03	1.394291E-16	7.490225E-19
1.709980E+03	1.403930E-16	7.542009E-19
1.749746E+03	1.413845E-16	7.595271E-19
1.789513E+03	1.423957E-16	7.649592E-19
1.829280E+03	1.434102E-16	7.704095E-19
1.869047E+03	1.444058E-16	7.757581E-19
1.908814E+03	1.454083E-16	7.811435E-19
1.948581E+03	1.463495E-16	7.861998E-19
1.988348E+03	1.473524E-16	7.915870E-19
2.028115E+03	1.484270E-16	7.973601E-19
2.067882E+03	1.499439E-16	8.055090E-19
2.107649E+03	1.522978E-16	8.181540E-19
2.147416E+03	1.561048E-16	8.386055E-19
2.187183E+03	1.616296E-16	8.682852E-19
2.226950E+03	1.689847E-16	9.077976E-19
2.266717E+03	1.780297E-16	9.563877E-19
2.306484E+03	1.884859E-16	1.012559E-18
2.346251E+03	2.001219E-16	1.075069E-18
2.386018E+03	2.128566E-16	1.143480E-18
2.425785E+03	2.265597E-16	1.217094E-18
2.465552E+03	2.413275E-16	1.296428E-18
2.505319E+03	2.571465E-16	1.381409E-18
2.545086E+03	2.739960E-16	1.471925E-18
2.584853E+03	2.919132E-16	1.568178E-18
2.624620E+03	3.110029E-16	1.670729E-18
2.664387E+03	3.312146E-16	1.779308E-18
2.704154E+03	3.525629E-16	1.893992E-18
2.743921E+03	3.750572E-16	2.014833E-18
2.783688E+03	3.987868E-16	2.142310E-18
2.823455E+03	4.237577E-16	2.276455E-18
2.863222E+03	4.499713E-16	2.417276E-18
2.902988E+03	4.776003E-16	2.565702E-18
2.942755E+03	5.066388E-16	2.721698E-18
2.982522E+03	5.372491E-16	2.886139E-18
2.992464E+03	5.451561E-16	2.928616E-18
3.002406E+03	5.531972E-16	2.971813E-18
3.012348E+03	5.612791E-16	3.015230E-18
3.022289E+03	5.694906E-16	3.059342E-18
3.032231E+03	5.778367E-16	3.104178E-18
3.042173E+03	5.862961E-16	3.149623E-18
3.052115E+03	5.948076E-16	3.195347E-18
3.062056E+03	6.035495E-16	3.242309E-18
3.071998E+03	6.124249E-16	3.289988E-18
3.081940E+03	6.213364E-16	3.337862E-18
3.091882E+03	6.304628E-16	3.386889E-18
3.101823E+03	6.397067E-16	3.436548E-18
3.111765E+03	6.490625E-16	3.486808E-18
3.121707E+03	6.586171E-16	3.538136E-18
3.131649E+03	6.681797E-16	3.589507E-18
3.141590E+03	6.780218E-16	3.642379E-18
3.151532E+03	6.878599E-16	3.695230E-18
3.161474E+03	6.978725E-16	3.749019E-18
3.171416E+03	7.080531E-16	3.803710E-18
3.181357E+03	7.183950E-16	3.859267E-18
3.191299E+03	7.287982E-16	3.915154E-18
3.201241E+03	7.392559E-16	3.971333E-18
3.211182E+03	7.499445E-16	4.028753E-18
3.221124E+03	7.607636E-16	4.086874E-18
3.231066E+03	7.716128E-16	4.145156E-18
3.241008E+03	7.826670E-16	4.204540E-18
3.250949E+03	7.938249E-16	4.264481E-18
3.260891E+03	8.050766E-16	4.324926E-18
3.270833E+03	8.164122E-16	4.385822E-18
3.280775E+03	8.279120E-16	4.447600E-18
3.290716E+03	8.394734E-16	4.509708E-18
3.300658E+03	8.511763E-16	4.572577E-18
3.310600E+03	8.630073E-16	4.636134E-18
3.320542E+03	8.748628E-16	4.699823E-18
3.330483E+03	8.867318E-16	4.763584E-18
3.340425E+03	8.987783E-16	4.828298E-18
3.350367E+03	9.108994E-16	4.893414E-18
3.360309E+03	9.230785E-16	4.958840E-18
3.370250E+03	9.353030E-16	5.024512E-18
3.380192E+03	9.475547E-16	5.090328E-18
3.390134E+03	9.599083E-16	5.156693E-18
3.400076E+03	9.722574E-16	5.223033E-18
3.410017E+03	9.845870E-16	5.289268E-18
3.419959E+03	9.970544E-16	5.356244E-18
3.429901E+03	1.009468E-15	5.422932E-18
3.439843E+03	1.021898E-15	5.489708E-18
3.449784E+03	1.034328E-15	5.556479E-18
3.458732E+03	1.038403E-15	5.578372E-18
3.460193E+03	1.041724E-15	5.596214E-18
3.461655E+03	1.047160E-15	5.625415E-18
3.463116E+03	1.050291E-15	5.642235E-18
3.464578E+03	1.054209E-15	5.663282E-18
3.466039E+03	1.060411E-15	5.696600E-18
3.467500E+03	1.065318E-15	5.722960E-18
3.468962E+03	1.068919E-15	5.742304E-18
3.470423E+03	1.075071E-15	5.775355E-18
3.471885E+03	1.081011E-15	5.807264E-18
3.473346E+03	1.086421E-15	5.836325E-18
3.474808E+03	1.092576E-15	5.869391E-18
3.476269E+03	1.096179E-15	5.888751E-18
3.477730E+03	1.098722E-15	5.902407E-18
3.479192E+03	1.103284E-15	5.926914E-18
3.480653E+03	1.106996E-15	5.946859E-18
3.482115E+03	1.109965E-15	5.962807E-18
3.483576E+03	1.113678E-15	5.982755E-18
3.485038E+03	1.118030E-15	6.006134E-18
3.486499E+03	1.123021E-15	6.032944E-18
3.487961E+03	1.125034E-15	6.043761E-18
3.489422E+03	1.124069E-15	6.038575E-18
3.490883E+03	1.123528E-15	6.035671E-18
3.492345E+03	1.125222E-15	6.044772E-18
3.493806E+03	1.127343E-15	6.056161E-18
3.495268E+03	1.131378E-15	6.077842E-18
3.496729E+03	1.132860E-15	6.085803E-18
3.498191E+03	1.132214E-15	6.082332E-18
3.499652E+03	1.136039E-15	6.102879E-18
3.501113E+03	1.139757E-15	6.122852E-18
3.502575E+03	1.141773E-15	6.133681E-18
3.504036E+03	1.146024E-15	6.156518E-18
3.505498E+03	1.144846E-15	6.150191E-18
3.506959E+03	1.142176E-15	6.135847E-18
3.508421E+03	1.144192E-15	6.146677E-18
3.509882E+03	1.144398E-15	6.147782E-18
3.511344E+03	1.143431E-15	6.142588E-18
3.512805E+03	1.140867E-15	6.128815E-18
3.514266E+03	1.141285E-15	6.131060E-18
3.515728E+03	1.142236E-15	6.136167E-18
3.517189E+03	1.139884E-15	6.123532E-18
3.518651E+03	1.138383E-15	6.115471E-18
3.520112E+03	1.135817E-15	6.101684E-18
3.521574E+03	1.136234E-15	6.103926E-18
3.523035E+03	1.135586E-15	6.100443E-18
3.524496E+03	1.137496E-15	6.110706E-18
3.525958E+03	1.137913E-15	6.112948E-18
3.527419E+03	1.136305E-15	6.104309E-18
3.528881E+03	1.136189E-15	6.103687E-18
3.530342E+03	1.137673E-15	6.111659E-18
3.531804E+03	1.140437E-15	6.126506E-18
3.533265E+03	1.143308E-15	6.141927E-18
3.534727E+03	1.143193E-15	6.141310E-18
3.536188E+03	1.142224E-15	6.136103E-18
3.537649E+03	1.143815E-15	6.144654E-18
3.539111E+03	1.145727E-15	6.154926E-18
3.540572E+03	1.146572E-15	6.159465E-18
3.542034E+03	1.148484E-15	6.169734E-18
3.543495E+03	1.152745E-15	6.192625E-18
3.544957E+03	1.157112E-15	6.216087E-18
3.546418E+03	1.159560E-15	6.229234E-18
3.547879E+03	1.163395E-15	6.249839E-18
3.549341E+03	1.171502E-15	6.293390E-18
3.550802E+03	1.177260E-15	6.324323E-18
3.552264E+03	1.179604E-15	6.336911E-18
3.553725E+03	1.183122E-15	6.355809E-18
3.555187E+03	1.186746E-15	6.375282E-18
3.556648E+03	1.192081E-15	6.403942E-18
3.558109E+03	1.197737E-15	6.434326E-18
3.559571E+03	1.200724E-15	6.450371E-18
3.561032E+03	1.204032E-15	6.468140E-18
3.562494E+03	1.203386E-15	6.464672E-18
3.563955E+03	1.202099E-15	6.457760E-18
3.565417E+03	1.206583E-15	6.481848E-18
3.566878E+03	1.212350E-15	6.512828E-18
3.568340E+03	1.215873E-15	6.531754E-18
3.569801E+03	1.219077E-15	6.548964E-18
3.571262E+03	1.223029E-15	6.570194E-18
3.572724E+03	1.225057E-15	6.581090E-18
3.574185E+03	1.225375E-15	6.582799E-18
3.575647E+03	1.225479E-15	6.583358E-18
3.577108E+03	1.224514E-15	6.578174E-18
3.578570E+03	1.220020E-15	6.554030E-18
3.580031E+03	1.218626E-15	6.546543E-18
3.581492E+03	1.218837E-15	6.547677E-18
3.582954E+03	1.217764E-15	6.541912E-18
3.584415E+03	1.217547E-15	6.540744E-18
3.585877E+03	1.218185E-15	6.544173E-18
3.587338E+03	1.217433E-15	6.540131E-18
3.588800E+03	1.216681E-15	6.536092E-18
3.590261E+03	1.216035E-15	6.532621E-18
3.591723E+03	1.217743E-15	6.541800E-18
3.593184E+03	1.219881E-15	6.553283E-18
3.594645E+03	1.220199E-15	6.554990E-18
3.596107E+03	1.219447E-15	6.550950E-18
3.597568E+03	1.224582E-15	6.578538E-18
3.599030E+03	1.228220E-15	6.598079E-18
3.600491E+03	1.231322E-15	6.614746E-18
3.601953E+03	1.233033E-15	6.623938E-18
3.603414E+03	1.231853E-15	6.617598E-18
3.604875E+03	1.233565E-15	6.626796E-18
3.606337E+03	1.235812E-15	6.638866E-18
3.607798E+03	1.234525E-15	6.631952E-18
3.609260E+03	1.235488E-15	6.637123E-18
3.610721E+03	1.235378E-15	6.636536E-18
3.612183E+03	1.233983E-15	6.629042E-18
3.613644E+03	1.234410E-15	6.631336E-18
3.615105E+03	1.234301E-15	6.630748E-18
3.616567E+03	1.232905E-15	6.623252E-18
3.618028E+03	1.233654E-15	6.627272E-18
3.619490E+03	1.236333E-15	6.641662E-18
3.620951E+03	1.236973E-15	6.645106E-18
3.622413E+03	1.237186E-15	6.646249E-18
3.623874E+03	1.236542E-15	6.642788E-18
3.625336E+03	1.234396E-15	6.631258E-18
3.626797E+03	1.235574E-15	6.637585E-18
3.628258E+03	1.239862E-15	6.660624E-18
3.629720E+03	1.241899E-15	6.671564E-18
3.631181E+03	1.242220E-15	6.673288E-18
3.632643E+03	1.243614E-15	6.680776E-18
3.634104E+03	1.244256E-15	6.684228E-18
3.635566E+03	1.245114E-15	6.688838E-18
3.637027E+03	1.243825E-15	6.681914E-18
3.638488E+03	1.242322E-15	6.673841E-18
3.639950E+03	1.244038E-15	6.683059E-18
3.641411E+03	1.245649E-15	6.691709E-18
3.642873E+03	1.244145E-15	6.683630E-18
3.644334E+03	1.242212E-15	6.673248E-18
3.645796E+03	1.238453E-15	6.653055E-18
3.647257E+03	1.237594E-15	6.648438E-18
3.648719E+03	1.237915E-15	6.650162E-18
3.650180E+03	1.233725E-15	6.627657E-18
3.651641E+03	1.229965E-15	6.607456E-18
3.653103E+03	1.225882E-15	6.585520E-18
3.654564E+03	1.216213E-15	6.533578E-18
3.656026E+03	1.211590E-15	6.508744E-18
3.657487E+03	1.211265E-15	6.507000E-18
3.658949E+03	1.203955E-15	6.467729E-18
3.660410E+03	1.198794E-15	6.440004E-18
3.661871E+03	1.197716E-15	6.434210E-18
3.663333E+03	1.198034E-15	6.435920E-18
3.664794E+03	1.193945E-15	6.413955E-18
3.666256E+03	1.187384E-15	6.378706E-18
3.667717E+03	1.182219E-15	6.350960E-18
3.669179E+03	1.178236E-15	6.329562E-18
3.670640E+03	1.179414E-15	6.335890E-18
3.672101E+03	1.177903E-15	6.327774E-18
3.673563E+03	1.177682E-15	6.326590E-18
3.675024E+03	1.176064E-15	6.317893E-18
3.676486E+03	1.175305E-15	6.313820E-18
3.677947E+03	1.177881E-15	6.327658E-18
3.679409E+03	1.181318E-15	6.346123E-18
3.680870E+03	1.181421E-15	6.346676E-18
3.682332E+03	1.176790E-15	6.321793E-18
3.683793E+03	1.174095E-15	6.307319E-18
3.685254E+03	1.175381E-15	6.314226E-18
3.686716E+03	1.179250E-15	6.335011E-18
3.688177E+03	1.184304E-15	6.362161E-18
3.689639E+03	1.190005E-15	6.392790E-18
3.691100E+03	1.193554E-15	6.411853E-18
3.692562E+03	1.197426E-15	6.432655E-18
3.694023E+03	1.202269E-15	6.458671E-18
3.695484E+03	1.207758E-15	6.488158E-18
3.696946E+03	1.213572E-15	6.519389E-18
3.698407E+03	1.224233E-15	6.576661E-18
3.699869E+03	1.235757E-15	6.638573E-18
3.701330E+03	1.246638E-15	6.697024E-18
3.702792E+03	1.259029E-15	6.763588E-18
3.704253E+03	1.271314E-15	6.829585E-18
3.705715E+03	1.284140E-15	6.898488E-18
3.707176E+03	1.299554E-15	6.981292E-18
3.708637E+03	1.316265E-15	7.071063E-18
3.710099E+03	1.331901E-15	7.155063E-18
3.711560E+03	1.349695E-15	7.250652E-18
3.713022E+03	1.373637E-15	7.379272E-18
3.714483E+03	1.400171E-15	7.521814E-18
3.715945E+03	1.424337E-15	7.651636E-18
3.717406E+03	1.446891E-15	7.772796E-18
3.718867E+03	1.471712E-15	7.906139E-18
3.720329E+03	1.499020E-15	8.052836E-18
3.721790E+03	1.526008E-15	8.197818E-18
3.723252E+03	1.551706E-15	8.335871E-18
3.724713E+03	1.579999E-15	8.487863E-18
3.726175E+03	1.607757E-15	8.636978E-18
3.727636E+03	1.633470E-15	8.775111E-18
3.729097E+03	1.658756E-15	8.910951E-18
3.730559E+03	1.682860E-15	9.040440E-18
3.732020E+03	1.707400E-15	9.172269E-18
3.733482E+03	1.732593E-15	9.307606E-18
3.734943E+03	1.758977E-15	9.449341E-18
3.736405E+03	1.786229E-15	9.595744E-18
3.737866E+03	1.813810E-15	9.743908E-18
3.739328E+03	1.840532E-15	9.887464E-18
3.740789E+03	1.870067E-15	1.004613E-17
3.742250E+03	1.899068E-15	1.020192E-17
3.743712E+03	1.922889E-15	1.032989E-17
3.745173E+03	1.945852E-15	1.045325E-17
3.746635E+03	1.972275E-15	1.059519E-17
3.748096E+03	1.996434E-15	1.072498E-17
3.749558E+03	2.017573E-15	1.083854E-17
3.751019E+03	2.038499E-15	1.095095E-17
3.752480E+03	2.059213E-15	1.106223E-17
3.753942E+03	2.077338E-15	1.115960E-17
3.755403E+03	2.095358E-15	1.125640E-17
3.756865E+03	2.113705E-15	1.135497E-17
3.758326E+03	2.127949E-15	1.143149E-17
3.759788E+03	2.140574E-15	1.149931E-17
3.761249E+03	2.155579E-15	1.157992E-17
3.762711E+03	2.168749E-15	1.165067E-17
3.764172E+03	2.181705E-15	1.172027E-17
3.765633E+03	2.195097E-15	1.179221E-17
3.767095E+03	2.209248E-15	1.186823E-17
3.768556E+03	2.222213E-15	1.193788E-17
3.770018E+03	2.233881E-15	1.200056E-17
3.771479E+03	2.242414E-15	1.204640E-17
3.772941E+03	2.252789E-15	1.210213E-17
3.774402E+03	2.264139E-15	1.216311E-17
3.775863E+03	2.274085E-15	1.221654E-17
3.777325E+03	2.283599E-15	1.226765E-17
3.778786E+03	2.290735E-15	1.230598E-17
3.780248E+03	2.296357E-15	1.233619E-17
3.781709E+03	2.301980E-15	1.236639E-17
3.783171E+03	2.304572E-15	1.238032E-17
3.784632E+03	2.305975E-15	1.238785E-17
3.786093E+03	2.305969E-15	1.238782E-17
3.787555E+03	2.302174E-15	1.236744E-17
3.789016E+03	2.298703E-15	1.234879E-17
3.790478E+03	2.294257E-15	1.232491E-17
3.791939E+03	2.287319E-15	1.228763E-17
3.793401E+03	2.280163E-15	1.224919E-17
3.794862E+03	2.272464E-15	1.220783E-17
3.796324E+03	2.262813E-15	1.215599E-17
3.797785E+03	2.249910E-15	1.208667E-17
3.799246E+03	2.235596E-15	1.200977E-17
3.800708E+03	2.220629E-15	1.192937E-17
3.802169E+03	2.203600E-15	1.183789E-17
3.803631E+03	2.186677E-15	1.174698E-17
3.805092E+03	2.170942E-15	1.166245E-17
3.806554E+03	2.154229E-15	1.157267E-17
3.808015E+03	2.135345E-15	1.147122E-17
3.809476E+03	2.118410E-15	1.138024E-17
3.810938E+03	2.100170E-15	1.128225E-17
3.812399E+03	2.077587E-15	1.116094E-17
3.813861E+03	2.052615E-15	1.102679E-17
3.815322E+03	2.026336E-15	1.088561E-17
3.816784E+03	2.002222E-15	1.075607E-17
3.818245E+03	1.980925E-15	1.064167E-17
3.819707E+03	1.959082E-15	1.052432E-17
3.821168E+03	1.936149E-15	1.040113E-17
3.822629E+03	1.912561E-15	1.027441E-17
3.824091E+03	1.887775E-15	1.014126E-17
3.825552E+03	1.863201E-15	1.000924E-17
3.827014E+03	1.837971E-15	9.873704E-18
3.828475E+03	1.809263E-15	9.719482E-18
3.829937E+03	1.779137E-15	9.557647E-18
3.831398E+03	1.750200E-15	9.402196E-18
3.832859E+03	1.724626E-15	9.264806E-18
3.834321E+03	1.698394E-15	9.123888E-18
3.835782E+03	1.671723E-15	8.980608E-18
3.837244E+03	1.645917E-15	8.841975E-18
3.838705E+03	1.620104E-15	8.703311E-18
3.840167E+03	1.593745E-15	8.561707E-18
3.841628E+03	1.567924E-15	8.422994E-18
3.843089E+03	1.542315E-15	8.285422E-18
3.844551E+03	1.518550E-15	8.157753E-18
3.846012E+03	1.496084E-15	8.037065E-18
3.847474E+03	1.473071E-15	7.913438E-18
3.848935E+03	1.450162E-15	7.790370E-18
3.850397E+03	1.428553E-15	7.674285E-18
3.851858E+03	1.406723E-15	7.557012E-18
3.853320E+03	1.384781E-15	7.439136E-18
3.854781E+03	1.368162E-15	7.349861E-18
3.856242E+03	1.355783E-15	7.283361E-18
3.857704E+03	1.339378E-15	7.195229E-18
3.859165E+03	1.323187E-15	7.108249E-18
3.860627E+03	1.312323E-15	7.049887E-18
3.862088E+03	1.302546E-15	6.997365E-18
3.863550E+03	1.291026E-15	6.935478E-18
3.865011E+03	1.279068E-15	6.871241E-18
3.866472E+03	1.272659E-15	6.836810E-18
3.867934E+03	1.268643E-15	6.815237E-18
3.869395E+03	1.264518E-15	6.793077E-18
3.870857E+03	1.259086E-15	6.763895E-18
3.872318E+03	1.255503E-15	6.744648E-18
3.873780E+03	1.254534E-15	6.739443E-18
3.875241E+03	1.253238E-15	6.732479E-18
3.876703E+03	1.252159E-15	6.726683E-18
3.878164E+03	1.253258E-15	6.732586E-18
3.879625E+03	1.257735E-15	6.756637E-18
3.881087E+03	1.267768E-15	6.810537E-18
3.882548E+03	1.279111E-15	6.871473E-18
3.884010E+03	1.291655E-15	6.938860E-18
3.885471E+03	1.304964E-15	7.010355E-18
3.886933E+03	1.317622E-15	7.078356E-18
3.888394E+03	1.332354E-15	7.157494E-18
3.889855E+03	1.349377E-15	7.248943E-18
3.891317E+03	1.365422E-15	7.335139E-18
3.892778E+03	1.381906E-15	7.423692E-18
3.894240E+03	1.401883E-15	7.531009E-18
3.895701E+03	1.424371E-15	7.651819E-18
3.897163E+03	1.447519E-15	7.776171E-18
3.898624E+03	1.472634E-15	7.911088E-18
3.900085E+03	1.499172E-15	8.053652E-18
3.901547E+03	1.527461E-15	8.205623E-18
3.903008E+03	1.559136E-15	8.375786E-18
3.904470E+03	1.592128E-15	8.553020E-18
3.905931E+03	1.623271E-15	8.720321E-18
3.907393E+03	1.656493E-15	8.898793E-18
3.908854E+03	1.695069E-15	9.106027E-18
3.910316E+03	1.734745E-15	9.319169E-18
3.911777E+03	1.773664E-15	9.528245E-18
3.913238E+03	1.815647E-15	9.753782E-18
3.914700E+03	1.859386E-15	9.988748E-18
3.916161E+03	1.902369E-15	1.021966E-17
3.917623E+03	1.944268E-15	1.044474E-17
3.919084E+03	1.989123E-15	1.068571E-17
3.920546E+03	2.037156E-15	1.094374E-17
3.922007E+03	2.088910E-15	1.122177E-17
3.923468E+03	2.138927E-15	1.149046E-17
3.924930E+03	2.187753E-15	1.175276E-17
3.926391E+03	2.239865E-15	1.203271E-17
3.927853E+03	2.293955E-15	1.232328E-17
3.929314E+03	2.348492E-15	1.261626E-17
3.930776E+03	2.400854E-15	1.289755E-17
3.932237E+03	2.452898E-15	1.317713E-17
3.933699E+03	2.506373E-15	1.346441E-17
3.935160E+03	2.559640E-15	1.375056E-17
3.936621E+03	2.608872E-15	1.401504E-17
3.938083E+03	2.658332E-15	1.428074E-17
3.939544E+03	2.707910E-15	1.454708E-17
3.941006E+03	2.754108E-15	1.479525E-17
3.942467E+03	2.798784E-15	1.503526E-17
3.943929E+03	2.843468E-15	1.527530E-17
3.945390E+03	2.886081E-15	1.550422E-17
3.946851E+03	2.925203E-15	1.571439E-17
3.948313E+03	2.964112E-15	1.592341E-17
3.949774E+03	3.003686E-15	1.613601E-17
3.951236E+03	3.041735E-15	1.634041E-17
3.952697E+03	3.077931E-15	1.653486E-17
3.954159E+03	3.109647E-15	1.670523E-17
3.955620E+03	3.139615E-15	1.686623E-17
3.957082E+03	3.168496E-15	1.702137E-17
3.958543E+03	3.195192E-15	1.716479E-17
3.960004E+03	3.218826E-15	1.729175E-17
3.961466E+03	3.238961E-15	1.739992E-17
3.962927E+03	3.257566E-15	1.749987E-17
3.964389E+03	3.275079E-15	1.759395E-17
3.965850E+03	3.292815E-15	1.768922E-17
3.967312E+03	3.306938E-15	1.776510E-17
3.968773E+03	3.319531E-15	1.783274E-17
3.970234E+03	3.332015E-15	1.789981E-17
3.971696E+03	3.341763E-15	1.795218E-17
3.973157E+03	3.349540E-15	1.799396E-17
3.974619E+03	3.355564E-15	1.802632E-17
3.976080E+03	3.357534E-15	1.803690E-17
3.977542E+03	3.358517E-15	1.804218E-17
3.979003E+03	3.361364E-15	1.805748E-17
3.980464E+03	3.361689E-15	1.805922E-17
3.981926E+03	3.358725E-15	1.804330E-17
3.983387E+03	3.355540E-15	1.802619E-17
3.984849E+03	3.349722E-15	1.799493E-17
3.986310E+03	3.343684E-15	1.796250E-17
3.987772E+03	3.337864E-15	1.793123E-17
3.989233E+03	3.329519E-15	1.788640E-17
3.990695E+03	3.317002E-15	1.781916E-17
3.992156E+03	3.303057E-15	1.774425E-17
3.993617E+03	3.290974E-15	1.767934E-17
3.995079E+03	3.276475E-15	1.760145E-17
3.996540E+03	3.259887E-15	1.751233E-17
3.998002E+03	3.246369E-15	1.743972E-17
3.999463E+03	3.230763E-15	1.735588E-17
4.000925E+03	3.213946E-15	1.726553E-17
4.002386E+03	3.200200E-15	1.719169E-17
4.003847E+03	3.189636E-15	1.713494E-17
4.005309E+03	3.177314E-15	1.706874E-17
4.006770E+03	3.159826E-15	1.697480E-17
4.008232E+03	3.142883E-15	1.688378E-17
4.009693E+03	3.129563E-15	1.681222E-17
4.011155E+03	3.118878E-15	1.675482E-17
4.012616E+03	3.108520E-15	1.669918E-17
4.014078E+03	3.099039E-15	1.664825E-17
4.015539E+03	3.091974E-15	1.661030E-17
4.017000E+03	3.084469E-15	1.656998E-17
4.018462E+03	3.080699E-15	1.654972E-17
4.019923E+03	3.078028E-15	1.653538E-17
4.021385E+03	3.076676E-15	1.652811E-17
4.022846E+03	3.075983E-15	1.652439E-17
4.024308E+03	3.077491E-15	1.653249E-17
4.025769E+03	3.080977E-15	1.655122E-17
4.027230E+03	3.087544E-15	1.658650E-17
4.028692E+03	3.098514E-15	1.664543E-17
4.030153E+03	3.110365E-15	1.670909E-17
4.031615E+03	3.118917E-15	1.675504E-17
4.033076E+03	3.129122E-15	1.680986E-17
4.034538E+03	3.144280E-15	1.689129E-17
4.035999E+03	3.158231E-15	1.696623E-17
4.037460E+03	3.172845E-15	1.704474E-17
4.038922E+03	3.189993E-15	1.713686E-17
4.040383E+03	3.202741E-15	1.720534E-17
4.041845E+03	3.214060E-15	1.726615E-17
4.043306E+03	3.226702E-15	1.733406E-17
4.044768E+03	3.240118E-15	1.740613E-17
4.046229E+03	3.257611E-15	1.750011E-17
4.047691E+03	3.273785E-15	1.758700E-17
4.049152E+03	3.290293E-15	1.767568E-17
4.050613E+03	3.309008E-15	1.777621E-17
4.052075E+03	3.327065E-15	1.787322E-17
4.053536E+03	3.343362E-15	1.796077E-17
4.054998E+03	3.361976E-15	1.806076E-17
4.056459E+03	3.384671E-15	1.818268E-17
4.057921E+03	3.403734E-15	1.828509E-17
4.059382E+03	3.417618E-15	1.835968E-17
4.060843E+03	3.434152E-15	1.844850E-17
4.062305E+03	3.452783E-15	1.854858E-17
4.063766E+03	3.466014E-15	1.861966E-17
4.065228E+03	3.477153E-15	1.867950E-17
4.066689E+03	3.492265E-15	1.876068E-17
4.068151E+03	3.510356E-15	1.885787E-17
4.069612E+03	3.527127E-15	1.894797E-17
4.071074E+03	3.539820E-15	1.901615E-17
4.072535E+03	3.549536E-15	1.906835E-17
4.073996E+03	3.559475E-15	1.912174E-17
4.075458E+03	3.571070E-15	1.918403E-17
4.076919E+03	3.580570E-15	1.923507E-17
4.078381E+03	3.587423E-15	1.927188E-17
4.079842E+03	3.592291E-15	1.929803E-17
4.081304E+03	3.596056E-15	1.931825E-17
4.082765E+03	3.598937E-15	1.933373E-17
4.084226E+03	3.600604E-15	1.934269E-17
