#wls	flux	fluxerr
1.590679E+03	2.814867E-17	3.292885E-18
1.630446E+03	2.913208E-17	3.402010E-18
1.670213E+03	3.013190E-17	3.512490E-18
1.709980E+03	3.113702E-17	3.623006E-18
1.749746E+03	3.216199E-17	3.735221E-18
1.789513E+03	3.318084E-17	3.846093E-18
1.829280E+03	3.419981E-17	3.956327E-18
1.869047E+03	3.518533E-17	4.062023E-18
1.908814E+03	3.613788E-17	4.163240E-18
1.948581E+03	3.703056E-17	4.256887E-18
1.988348E+03	3.784475E-17	4.340854E-18
2.028115E+03	3.861396E-17	4.419009E-18
2.067882E+03	3.939553E-17	4.497921E-18
2.107649E+03	4.027715E-17	4.587541E-18
2.147416E+03	4.140438E-17	4.704306E-18
2.187183E+03	4.285315E-17	4.856582E-18
2.226950E+03	4.462313E-17	5.044020E-18
2.266717E+03	4.664127E-17	5.258054E-18
2.306484E+03	4.882130E-17	5.488708E-18
2.346251E+03	5.107259E-17	5.725618E-18
2.386018E+03	5.335384E-17	5.964040E-18
2.425785E+03	5.562693E-17	6.199632E-18
2.465552E+03	5.787967E-17	6.430988E-18
2.505319E+03	6.011956E-17	6.658893E-18
2.545086E+03	6.234661E-17	6.883298E-18
2.584853E+03	6.456160E-17	7.104235E-18
2.624620E+03	6.675287E-17	7.320372E-18
2.664387E+03	6.894402E-17	7.534245E-18
2.704154E+03	7.112167E-17	7.744327E-18
2.743921E+03	7.328334E-17	7.950294E-18
2.783688E+03	7.545077E-17	8.154440E-18
2.823455E+03	7.760787E-17	8.354952E-18
2.863222E+03	7.976270E-17	8.552632E-18
2.902988E+03	8.192313E-17	8.748245E-18
2.942755E+03	8.408386E-17	8.941142E-18
2.982522E+03	8.626467E-17	9.133335E-18
2.992464E+03	8.680268E-17	9.180167E-18
3.002406E+03	8.734792E-17	9.227581E-18
3.012348E+03	8.790020E-17	9.275551E-18
3.022289E+03	8.844662E-17	9.322715E-18
3.032231E+03	8.900108E-17	9.370536E-18
3.042173E+03	8.956052E-17	9.418691E-18
3.052115E+03	9.011711E-17	9.466350E-18
3.062056E+03	9.068313E-17	9.514803E-18
3.071998E+03	9.124525E-17	9.562648E-18
3.081940E+03	9.182860E-17	9.612517E-18
3.091882E+03	9.240707E-17	9.661668E-18
3.101823E+03	9.298032E-17	9.710069E-18
3.111765E+03	9.357345E-17	9.760336E-18
3.121707E+03	9.416054E-17	9.809762E-18
3.131649E+03	9.475403E-17	9.859641E-18
3.141590E+03	9.535359E-17	9.909934E-18
3.151532E+03	9.595880E-17	9.960594E-18
3.161474E+03	9.656947E-17	1.001160E-17
3.171416E+03	9.718522E-17	1.006290E-17
3.181357E+03	9.780577E-17	1.011448E-17
3.191299E+03	9.841818E-17	1.016498E-17
3.201241E+03	9.904761E-17	1.021701E-17
3.211182E+03	9.968109E-17	1.026921E-17
3.221124E+03	1.003184E-16	1.032157E-17
3.231066E+03	1.009592E-16	1.037406E-17
3.241008E+03	1.016035E-16	1.042665E-17
3.250949E+03	1.022635E-16	1.048061E-17
3.260891E+03	1.029138E-16	1.053331E-17
3.270833E+03	1.035794E-16	1.058734E-17
3.280775E+03	1.042601E-16	1.064265E-17
3.290716E+03	1.049305E-16	1.069664E-17
3.300658E+03	1.056156E-16	1.075187E-17
3.310600E+03	1.063151E-16	1.080828E-17
3.320542E+03	1.070162E-16	1.086459E-17
3.330483E+03	1.077188E-16	1.092078E-17
3.340425E+03	1.084352E-16	1.097808E-17
3.350367E+03	1.091651E-16	1.103646E-17
3.360309E+03	1.098958E-16	1.109462E-17
3.370250E+03	1.106395E-16	1.115381E-17
3.380192E+03	1.113960E-16	1.121399E-17
3.390134E+03	1.121527E-16	1.127388E-17
3.400076E+03	1.129340E-16	1.133594E-17
3.410017E+03	1.137150E-16	1.139765E-17
3.419959E+03	1.145078E-16	1.146022E-17
3.429901E+03	1.153121E-16	1.152362E-17
3.439843E+03	1.161277E-16	1.158782E-17
3.449784E+03	1.169542E-16	1.165276E-17
3.459726E+03	1.177915E-16	1.171844E-17
3.469668E+03	1.186511E-16	1.178599E-17
3.479609E+03	1.195088E-16	1.185300E-17
3.489551E+03	1.203883E-16	1.192180E-17
3.499493E+03	1.212774E-16	1.199119E-17
3.509435E+03	1.221874E-16	1.206228E-17
3.519376E+03	1.231064E-16	1.213386E-17
3.529318E+03	1.240339E-16	1.220590E-17
3.539260E+03	1.249814E-16	1.227951E-17
3.549202E+03	1.259485E-16	1.235465E-17
3.559143E+03	1.269231E-16	1.243011E-17
3.569085E+03	1.279166E-16	1.250700E-17
3.579027E+03	1.289285E-16	1.258527E-17
3.588969E+03	1.299469E-16	1.266374E-17
3.598910E+03	1.309944E-16	1.274460E-17
3.608852E+03	1.320476E-16	1.282558E-17
3.618794E+03	1.331291E-16	1.290883E-17
3.628736E+03	1.342155E-16	1.299209E-17
3.638677E+03	1.353292E-16	1.307753E-17
3.648619E+03	1.364584E-16	1.316397E-17
3.658561E+03	1.376026E-16	1.325137E-17
3.668503E+03	1.387614E-16	1.333968E-17
3.678444E+03	1.399456E-16	1.342991E-17
3.688386E+03	1.411434E-16	1.352093E-17
3.698328E+03	1.423656E-16	1.361375E-17
3.708270E+03	1.436006E-16	1.370725E-17
3.718211E+03	1.448590E-16	1.380243E-17
3.728153E+03	1.461401E-16	1.389922E-17
3.738095E+03	1.474327E-16	1.399652E-17
3.748037E+03	1.487579E-16	1.409634E-17
3.757978E+03	1.500937E-16	1.419656E-17
3.767920E+03	1.514502E-16	1.429814E-17
3.777862E+03	1.528272E-16	1.440104E-17
3.787803E+03	1.542346E-16	1.450617E-17
3.797745E+03	1.556508E-16	1.461149E-17
3.807687E+03	1.570964E-16	1.471892E-17
3.817629E+03	1.585605E-16	1.482742E-17
3.827570E+03	1.600426E-16	1.493692E-17
3.837512E+03	1.615527E-16	1.504835E-17
3.847454E+03	1.630798E-16	1.516067E-17
3.857396E+03	1.646341E-16	1.527479E-17
3.867337E+03	1.662149E-16	1.539065E-17
3.877279E+03	1.678117E-16	1.550725E-17
3.887221E+03	1.694342E-16	1.562548E-17
3.897163E+03	1.710821E-16	1.574528E-17
3.907104E+03	1.727551E-16	1.586660E-17
3.917046E+03	1.744427E-16	1.598848E-17
3.926988E+03	1.761647E-16	1.611269E-17
3.936930E+03	1.779010E-16	1.623739E-17
3.946871E+03	1.796710E-16	1.636434E-17
3.956813E+03	1.814647E-16	1.649259E-17
3.966755E+03	1.832820E-16	1.662211E-17
3.976697E+03	1.851228E-16	1.675289E-17
3.986638E+03	1.869966E-16	1.688575E-17
3.996580E+03	1.888937E-16	1.701980E-17
4.006522E+03	1.908143E-16	1.715503E-17
4.016464E+03	1.927678E-16	1.729228E-17
4.026405E+03	1.947543E-16	1.743152E-17
4.036347E+03	1.967552E-16	1.757106E-17
4.046289E+03	1.987988E-16	1.771343E-17
4.056230E+03	2.008668E-16	1.785694E-17
4.066172E+03	2.029595E-16	1.800162E-17
4.076114E+03	2.050866E-16	1.814829E-17
4.086056E+03	2.072485E-16	1.829697E-17
4.095997E+03	2.094459E-16	1.844768E-17
4.105939E+03	2.116701E-16	1.859964E-17
4.115881E+03	2.139310E-16	1.875369E-17
4.125823E+03	2.162293E-16	1.890986E-17
4.135764E+03	2.185570E-16	1.906743E-17
4.145706E+03	2.209239E-16	1.922721E-17
4.155648E+03	2.233311E-16	1.938928E-17
4.165590E+03	2.257707E-16	1.955292E-17
4.175531E+03	2.282617E-16	1.971973E-17
4.185473E+03	2.307789E-16	1.988750E-17
4.195415E+03	2.333499E-16	2.005860E-17
4.205357E+03	2.359587E-16	2.023160E-17
4.215298E+03	2.386154E-16	2.040732E-17
4.225240E+03	2.413131E-16	2.058516E-17
4.235182E+03	2.440620E-16	2.076592E-17
4.245124E+03	2.468551E-16	2.094899E-17
4.255065E+03	2.497029E-16	2.113520E-17
4.265007E+03	2.525901E-16	2.132323E-17
4.274949E+03	2.555440E-16	2.151534E-17
4.284891E+03	2.585413E-16	2.170952E-17
4.294832E+03	2.616005E-16	2.190728E-17
4.304774E+03	2.647071E-16	2.210735E-17
4.314716E+03	2.678797E-16	2.231124E-17
4.324658E+03	2.711035E-16	2.251767E-17
4.334599E+03	2.743890E-16	2.272745E-17
4.344541E+03	2.777378E-16	2.294069E-17
4.354483E+03	2.811438E-16	2.315681E-17
4.364424E+03	2.846169E-16	2.337659E-17
4.374366E+03	2.881505E-16	2.359941E-17
4.384308E+03	2.917458E-16	2.382532E-17
4.394250E+03	2.954036E-16	2.405435E-17
4.404191E+03	2.991251E-16	2.428652E-17
4.414133E+03	3.029111E-16	2.452185E-17
4.424075E+03	3.067542E-16	2.475968E-17
4.434017E+03	3.106632E-16	2.500067E-17
4.443958E+03	3.146303E-16	2.524413E-17
4.453900E+03	3.186563E-16	2.549007E-17
4.463842E+03	3.227413E-16	2.573844E-17
4.473784E+03	3.268775E-16	2.598858E-17
4.483725E+03	3.310813E-16	2.624173E-17
4.493667E+03	3.353285E-16	2.649590E-17
4.503609E+03	3.396352E-16	2.675234E-17
4.513551E+03	3.439933E-16	2.701034E-17
4.523492E+03	3.484024E-16	2.726982E-17
4.533434E+03	3.528543E-16	2.753009E-17
4.543376E+03	3.573486E-16	2.779107E-17
4.553318E+03	3.618930E-16	2.805330E-17
4.563259E+03	3.664789E-16	2.831609E-17
4.573201E+03	3.710978E-16	2.857871E-17
4.583143E+03	3.757570E-16	2.884170E-17
4.593085E+03	3.804560E-16	2.910497E-17
4.603026E+03	3.851780E-16	2.936719E-17
4.612968E+03	3.899303E-16	2.962888E-17
4.622910E+03	3.947203E-16	2.989056E-17
4.632851E+03	3.995228E-16	3.015030E-17
4.642793E+03	4.043533E-16	3.040921E-17
4.652735E+03	4.092028E-16	3.066660E-17
4.662677E+03	4.140704E-16	3.092237E-17
4.672618E+03	4.189471E-16	3.117582E-17
4.682560E+03	4.238401E-16	3.142746E-17
4.692502E+03	4.287486E-16	3.167719E-17
4.702444E+03	4.336552E-16	3.192372E-17
4.712385E+03	4.385672E-16	3.216755E-17
4.722327E+03	4.434836E-16	3.240860E-17
4.732269E+03	4.483954E-16	3.264620E-17
4.742211E+03	4.533097E-16	3.288083E-17
4.752152E+03	4.582174E-16	3.311184E-17
4.762094E+03	4.631094E-16	3.333854E-17
4.772036E+03	4.680011E-16	3.356206E-17
4.781978E+03	4.728752E-16	3.378112E-17
4.791919E+03	4.777390E-16	3.399625E-17
4.801861E+03	4.825833E-16	3.420680E-17
4.811803E+03	4.874072E-16	3.441269E-17
4.821745E+03	4.922100E-16	3.461388E-17
4.831686E+03	4.969990E-16	3.481088E-17
4.841628E+03	5.017568E-16	3.500248E-17
4.851570E+03	5.064908E-16	3.518920E-17
4.861512E+03	5.111921E-16	3.537043E-17
4.871453E+03	5.158681E-16	3.554668E-17
4.881395E+03	5.205099E-16	3.571737E-17
4.891337E+03	5.251249E-16	3.588300E-17
4.901279E+03	5.297041E-16	3.604298E-17
4.911220E+03	5.342554E-16	3.619785E-17
4.921162E+03	5.387614E-16	3.634646E-17
4.931104E+03	5.432381E-16	3.648989E-17
4.941045E+03	5.476766E-16	3.662758E-17
4.950987E+03	5.520680E-16	3.675894E-17
4.960929E+03	5.564286E-16	3.688508E-17
4.970871E+03	5.607495E-16	3.700543E-17
4.980812E+03	5.650302E-16	3.711999E-17
4.990754E+03	5.692789E-16	3.722930E-17
5.000696E+03	5.734782E-16	3.733225E-17
5.010638E+03	5.776362E-16	3.742940E-17
5.020579E+03	5.817611E-16	3.752130E-17
5.030521E+03	5.858356E-16	3.760687E-17
5.040463E+03	5.898765E-16	3.768720E-17
5.050405E+03	5.938751E-16	3.776176E-17
5.060346E+03	5.978396E-16	3.783111E-17
5.070288E+03	6.017614E-16	3.789471E-17
5.080230E+03	6.056403E-16	3.795260E-17
5.090172E+03	6.094849E-16	3.800531E-17
5.100113E+03	6.132950E-16	3.805288E-17
5.110055E+03	6.170620E-16	3.809480E-17
5.119997E+03	6.207946E-16	3.813161E-17
5.129939E+03	6.244926E-16	3.816335E-17
5.139880E+03	6.281648E-16	3.819056E-17
5.149822E+03	6.317940E-16	3.821222E-17
5.159764E+03	6.353975E-16	3.822940E-17
5.169706E+03	6.389669E-16	3.824163E-17
5.179647E+03	6.425023E-16	3.824892E-17
5.189589E+03	6.460125E-16	3.825183E-17
5.199531E+03	6.494975E-16	3.825037E-17
5.209472E+03	6.529579E-16	3.824459E-17
5.219414E+03	6.563936E-16	3.823451E-17
5.229356E+03	6.598049E-16	3.822017E-17
5.239298E+03	6.631923E-16	3.820160E-17
5.249239E+03	6.665559E-16	3.817883E-17
5.259181E+03	6.699046E-16	3.815239E-17
5.269123E+03	6.732388E-16	3.812230E-17
5.279065E+03	6.765589E-16	3.808862E-17
5.289006E+03	6.798566E-16	3.805086E-17
5.298948E+03	6.831407E-16	3.800956E-17
5.308890E+03	6.864205E-16	3.796522E-17
5.318832E+03	6.896874E-16	3.791738E-17
5.328773E+03	6.929421E-16	3.786609E-17
5.338715E+03	6.961935E-16	3.781183E-17
5.348657E+03	6.994333E-16	3.775418E-17
5.358599E+03	7.026706E-16	3.769362E-17
5.368540E+03	7.059058E-16	3.763017E-17
5.378482E+03	7.091305E-16	3.756339E-17
5.388424E+03	7.123625E-16	3.749424E-17
5.398366E+03	7.155936E-16	3.742227E-17
5.408307E+03	7.188241E-16	3.734750E-17
5.418249E+03	7.220542E-16	3.726995E-17
5.428191E+03	7.252844E-16	3.718964E-17
5.438133E+03	7.285238E-16	3.710703E-17
5.448074E+03	7.317638E-16	3.702170E-17
5.458016E+03	7.350137E-16	3.693410E-17
5.467958E+03	7.382648E-16	3.684380E-17
5.477900E+03	7.415170E-16	3.675080E-17
5.487841E+03	7.447879E-16	3.665596E-17
5.497783E+03	7.480508E-16	3.655798E-17
5.507725E+03	7.513321E-16	3.645813E-17
5.517666E+03	7.546050E-16	3.635513E-17
5.527608E+03	7.578959E-16	3.625025E-17
5.537550E+03	7.611868E-16	3.614262E-17
5.547492E+03	7.644774E-16	3.603224E-17
5.557433E+03	7.677764E-16	3.591953E-17
5.567375E+03	7.710833E-16	3.580446E-17
5.577317E+03	7.743802E-16	3.568621E-17
5.587259E+03	7.776844E-16	3.556560E-17
5.597200E+03	7.809956E-16	3.544262E-17
5.607142E+03	7.842956E-16	3.531645E-17
5.617084E+03	7.876018E-16	3.518790E-17
5.627026E+03	7.908960E-16	3.505616E-17
5.636967E+03	7.941956E-16	3.492205E-17
5.646909E+03	7.974823E-16	3.478477E-17
5.656851E+03	8.007646E-16	3.464472E-17
5.666793E+03	8.040331E-16	3.450152E-17
5.676734E+03	8.072963E-16	3.435557E-17
5.686676E+03	8.105357E-16	3.420613E-17
5.696618E+03	8.137689E-16	3.405397E-17
5.706560E+03	8.169864E-16	3.389873E-17
5.716501E+03	8.201877E-16	3.374044E-17
5.726443E+03	8.233632E-16	3.357876E-17
5.736385E+03	8.265217E-16	3.341409E-17
5.746327E+03	8.296534E-16	3.324609E-17
5.756268E+03	8.327580E-16	3.307483E-17
5.766210E+03	8.358349E-16	3.290032E-17
5.776152E+03	8.388746E-16	3.272228E-17
5.786093E+03	8.418856E-16	3.254111E-17
5.796035E+03	8.448585E-16	3.235653E-17
5.805977E+03	8.477928E-16	3.216858E-17
5.815919E+03	8.506880E-16	3.197736E-17
5.825860E+03	8.535345E-16	3.178258E-17
5.835802E+03	8.563411E-16	3.158467E-17
5.845744E+03	8.590983E-16	3.138338E-17
5.855686E+03	8.618054E-16	3.117880E-17
5.865627E+03	8.644623E-16	3.097102E-17
5.875569E+03	8.670596E-16	3.075983E-17
5.885511E+03	8.696057E-16	3.054565E-17
5.895453E+03	8.720823E-16	3.032796E-17
5.905394E+03	8.745073E-16	3.010752E-17
5.915336E+03	8.768620E-16	2.988381E-17
5.925278E+03	8.791464E-16	2.965698E-17
5.935220E+03	8.813693E-16	2.942748E-17
5.945161E+03	8.835214E-16	2.919514E-17
5.955103E+03	8.856025E-16	2.896011E-17
5.965045E+03	8.876034E-16	2.872226E-17
5.974987E+03	8.895332E-16	2.848203E-17
5.984928E+03	8.913826E-16	2.823932E-17
5.994870E+03	8.931610E-16	2.799459E-17
6.004812E+03	8.948500E-16	2.774744E-17
6.014754E+03	8.964682E-16	2.749863E-17
6.024695E+03	8.979974E-16	2.724780E-17
6.034637E+03	8.994378E-16	2.699514E-17
6.044579E+03	9.008084E-16	2.674143E-17
6.054521E+03	9.020816E-16	2.648605E-17
6.064462E+03	9.032765E-16	2.622976E-17
6.074404E+03	9.043846E-16	2.597252E-17
6.084346E+03	9.054063E-16	2.571457E-17
6.094287E+03	9.063517E-16	2.545640E-17
6.104229E+03	9.072031E-16	2.519774E-17
6.114171E+03	9.079800E-16	2.493935E-17
6.124113E+03	9.086649E-16	2.468097E-17
6.134054E+03	9.092774E-16	2.442336E-17
6.143996E+03	9.098001E-16	2.416630E-17
6.153938E+03	9.102531E-16	2.391054E-17
6.163880E+03	9.106192E-16	2.365587E-17
6.173821E+03	9.109185E-16	2.340304E-17
6.183763E+03	9.111341E-16	2.315187E-17
6.193705E+03	9.112864E-16	2.290310E-17
6.203647E+03	9.113774E-16	2.265702E-17
6.213588E+03	9.113905E-16	2.241347E-17
6.223530E+03	9.113463E-16	2.217318E-17
6.233472E+03	9.112473E-16	2.193645E-17
6.243414E+03	9.110959E-16	2.170358E-17
6.253355E+03	9.108851E-16	2.147464E-17
6.263297E+03	9.106270E-16	2.125014E-17
6.273239E+03	9.103335E-16	2.103061E-17
6.283181E+03	9.099980E-16	2.081611E-17
6.293122E+03	9.096236E-16	2.060693E-17
6.303064E+03	9.092225E-16	2.040359E-17
6.313006E+03	9.087978E-16	2.020637E-17
6.322948E+03	9.083523E-16	2.001555E-17
6.332889E+03	9.078893E-16	1.983139E-17
6.342831E+03	9.074212E-16	1.965439E-17
6.352773E+03	9.069415E-16	1.948459E-17
6.362714E+03	9.064723E-16	1.932267E-17
6.372656E+03	9.059975E-16	1.916844E-17
6.382598E+03	9.055389E-16	1.902256E-17
6.392540E+03	9.050897E-16	1.888505E-17
6.402481E+03	9.046620E-16	1.875630E-17
6.412423E+03	9.042581E-16	1.863652E-17
6.422365E+03	9.038896E-16	1.852607E-17
6.432307E+03	9.035489E-16	1.842493E-17
6.442248E+03	9.032375E-16	1.833323E-17
6.452190E+03	9.029759E-16	1.825145E-17
6.462132E+03	9.027558E-16	1.817928E-17
6.472074E+03	9.025778E-16	1.811649E-17
6.482015E+03	9.024525E-16	1.806304E-17
6.491957E+03	9.023702E-16	1.801851E-17
6.501899E+03	9.023495E-16	1.798299E-17
6.511841E+03	9.023785E-16	1.795598E-17
6.521782E+03	9.024546E-16	1.793715E-17
6.531724E+03	9.025843E-16	1.792637E-17
6.541666E+03	9.027641E-16	1.792328E-17
6.551608E+03	9.029901E-16	1.792752E-17
6.561549E+03	9.032583E-16	1.793872E-17
6.571491E+03	9.035639E-16	1.795649E-17
6.581433E+03	9.039222E-16	1.798087E-17
6.591375E+03	9.043084E-16	1.801105E-17
6.601316E+03	9.047273E-16	1.804687E-17
6.611258E+03	9.051735E-16	1.808791E-17
6.621200E+03	9.056417E-16	1.813380E-17
6.631142E+03	9.061365E-16	1.818434E-17
6.641083E+03	9.066422E-16	1.823894E-17
6.651025E+03	9.071636E-16	1.829742E-17
6.660967E+03	9.076950E-16	1.835940E-17
6.670908E+03	9.082312E-16	1.842451E-17
6.680850E+03	9.087666E-16	1.849237E-17
6.690792E+03	9.092959E-16	1.856262E-17
6.700734E+03	9.098139E-16	1.863490E-17
6.710675E+03	9.103257E-16	1.870906E-17
6.720617E+03	9.108160E-16	1.878455E-17
6.730559E+03	9.112903E-16	1.886126E-17
6.740501E+03	9.117438E-16	1.893884E-17
6.750442E+03	9.121615E-16	1.901676E-17
6.760384E+03	9.125599E-16	1.909516E-17
6.770326E+03	9.129137E-16	1.917328E-17
6.780268E+03	9.132292E-16	1.925105E-17
6.790209E+03	9.135025E-16	1.932820E-17
6.800151E+03	9.137296E-16	1.940444E-17
6.810093E+03	9.139069E-16	1.947951E-17
6.820035E+03	9.140417E-16	1.955339E-17
6.829976E+03	9.141090E-16	1.962536E-17
6.839918E+03	9.141272E-16	1.969565E-17
6.849860E+03	9.140934E-16	1.976403E-17
6.859802E+03	9.139828E-16	1.982982E-17
6.869743E+03	9.138145E-16	1.989328E-17
6.879685E+03	9.135749E-16	1.995397E-17
6.889627E+03	9.132725E-16	2.001194E-17
6.899569E+03	9.128831E-16	2.006652E-17
6.909510E+03	9.124373E-16	2.011827E-17
6.919452E+03	9.119000E-16	2.016629E-17
6.929394E+03	9.113025E-16	2.021116E-17
6.939335E+03	9.106097E-16	2.025200E-17
6.949277E+03	9.098420E-16	2.028917E-17
6.959219E+03	9.089868E-16	2.032228E-17
6.969161E+03	9.080537E-16	2.035147E-17
6.979102E+03	9.070301E-16	2.037637E-17
6.989044E+03	9.059148E-16	2.039688E-17
6.998986E+03	9.047178E-16	2.041315E-17
7.008928E+03	9.034267E-16	2.042485E-17
7.018869E+03	9.020407E-16	2.043189E-17
7.028811E+03	9.005588E-16	2.043421E-17
7.038753E+03	8.989913E-16	2.043199E-17
7.048695E+03	8.973264E-16	2.042492E-17
7.058636E+03	8.955635E-16	2.041296E-17
7.068578E+03	8.937132E-16	2.039632E-17
7.078520E+03	8.917524E-16	2.037444E-17
7.088462E+03	8.897035E-16	2.034784E-17
7.098403E+03	8.875434E-16	2.031596E-17
7.108345E+03	8.852945E-16	2.027931E-17
7.118287E+03	8.829454E-16	2.023764E-17
7.128229E+03	8.804958E-16	2.019094E-17
7.138170E+03	8.779346E-16	2.013898E-17
7.148112E+03	8.752842E-16	2.008227E-17
7.158054E+03	8.725224E-16	2.002034E-17
7.167996E+03	8.696716E-16	1.995373E-17
7.177937E+03	8.667097E-16	1.988197E-17
7.187879E+03	8.636482E-16	1.980534E-17
7.197821E+03	8.604875E-16	1.972392E-17
7.207763E+03	8.572167E-16	1.963750E-17
7.217704E+03	8.538589E-16	1.954666E-17
7.227646E+03	8.503807E-16	1.945070E-17
7.237588E+03	8.468167E-16	1.935048E-17
7.247529E+03	8.431449E-16	1.924555E-17
7.257471E+03	8.393774E-16	1.913628E-17
7.267413E+03	8.355037E-16	1.902250E-17
7.277355E+03	8.315358E-16	1.890456E-17
7.287296E+03	8.274636E-16	1.878233E-17
7.297238E+03	8.232991E-16	1.865618E-17
7.307180E+03	8.190323E-16	1.852597E-17
7.317122E+03	8.146643E-16	1.839182E-17
7.327063E+03	8.102184E-16	1.825438E-17
7.337005E+03	8.056625E-16	1.811303E-17
7.346947E+03	8.010202E-16	1.796840E-17
7.356889E+03	7.962816E-16	1.782040E-17
7.366830E+03	7.914483E-16	1.766919E-17
7.376772E+03	7.865326E-16	1.751517E-17
7.386714E+03	7.815251E-16	1.735824E-17
7.396656E+03	7.764275E-16	1.719859E-17
7.406597E+03	7.712520E-16	1.703661E-17
7.416539E+03	7.659897E-16	1.687225E-17
7.426481E+03	7.606423E-16	1.670568E-17
7.436423E+03	7.552223E-16	1.653732E-17
7.446364E+03	7.497104E-16	1.636690E-17
7.456306E+03	7.441296E-16	1.619505E-17
7.466248E+03	7.384820E-16	1.602198E-17
7.476190E+03	7.327486E-16	1.584742E-17
7.486131E+03	7.269523E-16	1.567202E-17
7.496073E+03	7.210851E-16	1.549576E-17
7.506015E+03	7.151493E-16	1.531883E-17
7.515956E+03	7.091573E-16	1.514167E-17
7.525898E+03	7.030913E-16	1.496403E-17
7.535840E+03	6.969740E-16	1.478657E-17
7.545782E+03	6.908078E-16	1.460947E-17
7.555723E+03	6.845755E-16	1.443254E-17
7.565665E+03	6.782997E-16	1.425639E-17
7.575607E+03	6.719831E-16	1.408122E-17
7.585549E+03	6.656089E-16	1.390685E-17
7.595490E+03	6.591998E-16	1.373387E-17
7.605432E+03	6.527491E-16	1.356230E-17
7.615374E+03	6.462697E-16	1.339253E-17
7.625316E+03	6.397551E-16	1.322458E-17
7.635257E+03	6.332092E-16	1.305864E-17
7.645199E+03	6.266446E-16	1.289510E-17
7.655141E+03	6.200560E-16	1.273397E-17
7.665083E+03	6.134470E-16	1.257544E-17
7.675024E+03	6.068311E-16	1.241990E-17
7.684966E+03	6.002033E-16	1.226733E-17
7.694908E+03	5.935771E-16	1.211812E-17
7.704850E+03	5.869480E-16	1.197225E-17
7.714791E+03	5.803298E-16	1.183008E-17
